'Id: "0011387" Comment: "Integrate frame 0011387_Au-Ir-Rh_Rh-rich_XRD-Mapping-297-0000.gfrmwith cursor Wedge Cursor #5" Operator: "B?rgel" Anode: "Cu" Wavelength: "1.5406" Scantype: "2Theta (TwoTheta)" TimePerStep: "1" X: "-27" Y: "31.5" Z: "5.95" 
10.00000 0.000
10.02000 -4.638
10.04000 3.697
10.06000 16.048
10.08000 16.669
10.10000 14.619
10.12000 11.156
10.14000 18.416
10.16000 24.152
10.18000 7.730
10.20000 -4.507
10.22000 -4.492
10.24000 9.433
10.26000 6.642
10.28000 3.030
10.30000 8.242
10.32000 9.310
10.34000 4.032
10.36000 -3.060
10.38000 4.570
10.40000 21.916
10.42000 23.645
10.44000 4.478
10.46000 13.834
10.48000 21.709
10.50000 18.744
10.52000 20.165
10.54000 18.068
10.56000 8.186
10.58000 10.300
10.60000 20.982
10.62000 21.543
10.64000 8.463
10.66000 -0.963
10.68000 -0.466
10.70000 11.134
10.72000 4.968
10.74000 15.696
10.76000 19.123
10.78000 20.274
10.80000 22.201
10.82000 21.329
10.84000 18.685
10.86000 14.701
10.88000 14.532
10.90000 6.924
10.92000 12.227
10.94000 16.450
10.96000 9.595
10.98000 12.805
11.00000 13.576
11.02000 19.379
11.04000 18.170
11.06000 13.795
11.08000 19.728
11.10000 14.921
11.12000 17.544
11.14000 11.170
11.16000 9.425
11.18000 23.301
11.20000 19.482
11.22000 27.646
11.24000 25.616
11.26000 24.082
11.28000 15.132
11.30000 12.778
11.32000 20.066
11.34000 13.282
11.36000 10.333
11.38000 12.047
11.40000 14.804
11.42000 14.063
11.44000 17.339
11.46000 16.331
11.48000 1.029
11.50000 0.622
11.52000 -0.398
11.54000 -4.204
11.56000 10.263
11.58000 4.842
11.60000 4.079
11.62000 12.246
11.64000 18.505
11.66000 10.745
11.68000 7.280
11.70000 7.414
11.72000 17.868
11.74000 23.410
11.76000 8.120
11.78000 4.846
11.80000 11.784
11.82000 3.757
11.84000 11.032
11.86000 3.945
11.88000 -2.945
11.90000 4.494
11.92000 19.265
11.94000 12.956
11.96000 2.398
11.98000 -4.175
12.00000 3.651
12.02000 -0.559
12.04000 4.344
12.06000 10.454
12.08000 7.250
12.10000 7.546
12.12000 6.369
12.14000 8.146
12.16000 10.592
12.18000 18.200
12.20000 7.598
12.22000 8.481
12.24000 3.548
12.26000 5.827
12.28000 8.849
12.30000 11.384
12.32000 14.273
12.34000 11.126
12.36000 14.063
12.38000 3.950
12.40000 -2.947
12.42000 8.160
12.44000 12.385
12.46000 13.212
12.48000 6.219
12.50000 7.157
12.52000 16.672
12.54000 3.078
12.56000 -2.073
12.58000 -4.492
12.60000 4.164
12.62000 11.928
12.64000 8.537
12.66000 -4.517
12.68000 3.674
12.70000 14.121
12.72000 9.389
12.74000 10.531
12.76000 3.067
12.78000 8.940
12.80000 8.258
12.82000 11.837
12.84000 5.625
12.86000 5.460
12.88000 12.471
12.90000 12.766
12.92000 14.066
12.94000 8.567
12.96000 5.714
12.98000 6.086
13.00000 11.282
13.02000 12.303
13.04000 12.121
13.06000 19.787
13.08000 11.977
13.10000 6.485
13.12000 9.718
13.14000 9.113
13.16000 9.974
13.18000 5.136
13.20000 2.863
13.22000 4.236
13.24000 14.691
13.26000 7.637
13.28000 18.979
13.30000 15.135
13.32000 11.515
13.34000 12.655
13.36000 10.035
13.38000 7.438
13.40000 4.593
13.42000 10.774
13.44000 9.396
13.46000 4.163
13.48000 2.908
13.50000 3.384
13.52000 6.854
13.54000 8.440
13.56000 7.504
13.58000 16.943
13.60000 6.228
13.62000 1.390
13.64000 3.542
13.66000 10.405
13.68000 7.391
13.70000 18.798
13.72000 18.187
13.74000 15.122
13.76000 7.769
13.78000 1.246
13.80000 6.637
13.82000 10.231
13.84000 9.398
13.86000 1.099
13.88000 11.872
13.90000 11.202
13.92000 0.148
13.94000 5.716
13.96000 8.169
13.98000 14.075
14.00000 9.619
14.02000 3.561
14.04000 6.923
14.06000 14.563
14.08000 11.403
14.10000 0.904
14.12000 3.722
14.14000 9.994
14.16000 6.779
14.18000 7.480
14.20000 0.060
14.22000 -4.506
14.24000 3.413
14.26000 5.536
14.28000 8.840
14.30000 14.577
14.32000 5.805
14.34000 7.713
14.36000 10.789
14.38000 4.908
14.40000 10.430
14.42000 17.068
14.44000 12.900
14.46000 10.023
14.48000 13.606
14.50000 8.400
14.52000 7.359
14.54000 15.317
14.56000 10.563
14.58000 6.733
14.60000 7.937
14.62000 11.021
14.64000 11.572
14.66000 6.560
14.68000 5.916
14.70000 7.068
14.72000 4.077
14.74000 0.034
14.76000 9.609
14.78000 14.388
14.80000 14.334
14.82000 12.785
14.84000 10.214
14.86000 8.942
14.88000 9.203
14.90000 9.489
14.92000 6.594
14.94000 8.746
14.96000 7.119
14.98000 19.035
15.00000 20.629
15.02000 16.610
15.04000 9.552
15.06000 8.419
15.08000 12.291
15.10000 1.400
15.12000 -0.584
15.14000 3.737
15.16000 9.707
15.18000 4.403
15.20000 8.657
15.22000 6.180
15.24000 -0.243
15.26000 6.171
15.28000 8.137
15.30000 4.866
15.32000 14.096
15.34000 12.660
15.36000 8.156
15.38000 4.150
15.40000 -1.147
15.42000 -4.118
15.44000 1.003
15.46000 7.741
15.48000 5.953
15.50000 7.730
15.52000 3.669
15.54000 1.830
15.56000 8.926
15.58000 8.743
15.60000 7.506
15.62000 6.565
15.64000 8.584
15.66000 7.345
15.68000 14.217
15.70000 12.222
15.72000 9.135
15.74000 1.699
15.76000 -1.205
15.78000 2.172
15.80000 1.642
15.82000 0.101
15.84000 5.661
15.86000 12.751
15.88000 11.270
15.90000 11.281
15.92000 1.618
15.94000 0.613
15.96000 7.613
15.98000 6.114
16.00000 4.712
16.02000 14.900
16.04000 11.633
16.06000 9.267
16.08000 0.891
16.10000 8.600
16.12000 9.855
16.14000 4.948
16.16000 7.821
16.18000 9.964
16.20000 3.628
16.22000 3.071
16.24000 4.850
16.26000 -4.425
16.28000 -0.043
16.30000 5.239
16.32000 1.056
16.34000 5.165
16.36000 7.301
16.38000 3.398
16.40000 5.531
16.42000 3.945
16.44000 -0.998
16.46000 2.254
16.48000 -0.588
16.50000 7.251
16.52000 10.435
16.54000 14.760
16.56000 13.787
16.58000 17.062
16.60000 16.158
16.62000 12.300
16.64000 12.759
16.66000 15.521
16.68000 3.826
16.70000 4.785
16.72000 4.044
16.74000 16.936
16.76000 19.562
16.78000 10.057
16.80000 3.748
16.82000 5.141
16.84000 5.628
16.86000 17.265
16.88000 20.922
16.90000 9.170
16.92000 3.969
16.94000 3.791
16.96000 2.514
16.98000 5.138
17.00000 6.212
17.02000 2.444
17.04000 -2.201
17.06000 -4.370
17.08000 -0.258
17.10000 4.491
17.12000 6.040
17.14000 9.695
17.16000 7.312
17.18000 5.336
17.20000 5.331
17.22000 13.087
17.24000 13.895
17.26000 11.178
17.28000 9.850
17.30000 6.608
17.32000 2.857
17.34000 16.264
17.36000 8.229
17.38000 3.572
17.40000 15.372
17.42000 7.437
17.44000 8.450
17.46000 10.122
17.48000 12.092
17.50000 8.199
17.52000 6.551
17.54000 12.371
17.56000 6.136
17.58000 6.269
17.60000 8.262
17.62000 6.791
17.64000 0.623
17.66000 7.999
17.68000 9.223
17.70000 6.672
17.72000 14.914
17.74000 8.995
17.76000 10.607
17.78000 4.897
17.80000 11.422
17.82000 11.909
17.84000 2.501
17.86000 -4.351
17.88000 3.456
17.90000 7.673
17.92000 7.515
17.94000 7.690
17.96000 12.132
17.98000 6.566
18.00000 1.413
18.02000 1.767
18.04000 8.796
18.06000 1.827
18.08000 6.530
18.10000 7.713
18.12000 1.881
18.14000 6.702
18.16000 5.561
18.18000 10.653
18.20000 14.690
18.22000 13.470
18.24000 9.029
18.26000 7.761
18.28000 9.720
18.30000 13.217
18.32000 8.653
18.34000 3.447
18.36000 10.170
18.38000 5.597
18.40000 4.166
18.42000 -2.666
18.44000 3.455
18.46000 6.811
18.48000 8.140
18.50000 5.272
18.52000 8.559
18.54000 7.994
18.56000 5.623
18.58000 6.153
18.60000 9.640
18.62000 14.074
18.64000 6.737
18.66000 5.848
18.68000 8.615
18.70000 10.444
18.72000 11.462
18.74000 0.210
18.76000 1.899
18.78000 2.421
18.80000 10.386
18.82000 12.115
18.84000 4.232
18.86000 -3.227
18.88000 -4.310
18.90000 -3.855
18.92000 -2.756
18.94000 4.334
18.96000 3.648
18.98000 4.694
19.00000 4.396
19.02000 -0.279
19.04000 4.266
19.06000 4.885
19.08000 2.170
19.10000 5.960
19.12000 2.092
19.14000 3.243
19.16000 3.363
19.18000 6.307
19.20000 2.402
19.22000 -4.293
19.24000 -3.597
19.26000 7.517
19.28000 4.628
19.30000 4.655
19.32000 2.162
19.34000 0.079
19.36000 5.174
19.38000 3.086
19.40000 0.041
19.42000 0.845
19.44000 9.205
19.46000 -0.126
19.48000 -0.893
19.50000 -2.025
19.52000 -1.100
19.54000 2.105
19.56000 -2.809
19.58000 6.246
19.60000 -0.746
19.62000 -1.466
19.64000 -4.270
19.66000 -0.654
19.68000 5.571
19.70000 6.193
19.72000 3.721
19.74000 -3.241
19.76000 2.641
19.78000 0.341
19.80000 -0.902
19.82000 0.714
19.84000 1.615
19.86000 2.284
19.88000 8.120
19.90000 1.497
19.92000 3.328
19.94000 3.490
19.96000 6.635
19.98000 -0.182
20.00000 -3.259
20.02000 1.735
20.04000 4.439
20.06000 3.639
20.08000 0.421
20.10000 0.441
20.12000 1.291
20.14000 3.906
20.16000 -4.253
20.18000 1.195
20.20000 6.530
20.22000 1.638
20.24000 0.536
20.26000 -0.957
20.28000 2.932
20.30000 8.465
20.32000 10.061
20.34000 3.067
20.36000 -0.399
20.38000 -1.673
20.40000 6.672
20.42000 4.401
20.44000 6.902
20.46000 11.852
20.48000 1.777
20.50000 5.755
20.52000 5.773
20.54000 6.476
20.56000 3.740
20.58000 4.144
20.60000 4.918
20.62000 4.281
20.64000 2.257
20.66000 2.066
20.68000 5.540
20.70000 4.421
20.72000 0.712
20.74000 8.040
20.76000 5.933
20.78000 2.912
20.80000 4.992
20.82000 8.147
20.84000 0.317
20.86000 2.658
20.88000 3.136
20.90000 3.980
20.92000 10.041
20.94000 -2.328
20.96000 -4.218
20.98000 -2.167
21.00000 0.860
21.02000 -0.628
21.04000 5.541
21.06000 7.519
21.08000 -0.535
21.10000 2.954
21.12000 7.062
21.14000 1.632
21.16000 -2.450
21.18000 2.254
21.20000 2.939
21.22000 3.688
21.24000 5.532
21.26000 8.158
21.28000 2.332
21.30000 2.284
21.32000 4.952
21.34000 5.089
21.36000 3.255
21.38000 0.964
21.40000 -0.864
21.42000 0.737
21.44000 -1.655
21.46000 -3.332
21.48000 1.023
21.50000 1.673
21.52000 2.946
21.54000 -2.190
21.56000 -4.182
21.58000 0.984
21.60000 3.094
21.62000 3.145
21.64000 9.356
21.66000 4.964
21.68000 1.484
21.70000 7.255
21.72000 10.845
21.74000 3.123
21.76000 1.031
21.78000 -0.965
21.80000 5.324
21.82000 3.214
21.84000 6.476
21.86000 5.823
21.88000 2.869
21.90000 0.169
21.92000 1.951
21.94000 3.090
21.96000 2.552
21.98000 3.666
22.00000 5.730
22.02000 5.024
22.04000 4.099
22.06000 4.607
22.08000 1.100
22.10000 0.051
22.12000 2.154
22.14000 3.374
22.16000 6.705
22.18000 5.435
22.20000 3.172
22.22000 3.051
22.24000 5.068
22.26000 4.991
22.28000 8.960
22.30000 -0.426
22.32000 2.800
22.34000 -4.115
22.36000 -0.275
22.38000 1.942
22.40000 7.911
22.42000 3.884
22.44000 -2.622
22.46000 3.103
22.48000 -1.744
22.50000 -0.017
22.52000 7.162
22.54000 2.497
22.56000 1.299
22.58000 7.807
22.60000 6.932
22.62000 7.594
22.64000 2.762
22.66000 3.504
22.68000 4.273
22.70000 7.680
22.72000 5.810
22.74000 3.289
22.76000 3.230
22.78000 0.966
22.80000 4.222
22.82000 3.815
22.84000 -4.092
22.86000 0.979
22.88000 2.913
22.90000 2.899
22.92000 3.246
22.94000 6.461
22.96000 11.363
22.98000 8.562
23.00000 7.380
23.02000 6.064
23.04000 7.955
23.06000 0.531
23.08000 4.744
23.10000 3.839
23.12000 1.289
23.14000 0.432
23.16000 2.040
23.18000 4.770
23.20000 3.027
23.22000 1.989
23.24000 -0.357
23.26000 5.632
23.28000 7.260
23.30000 0.309
23.32000 1.237
23.34000 4.311
23.36000 6.422
23.38000 6.984
23.40000 4.795
23.42000 1.680
23.44000 1.898
23.46000 4.105
23.48000 9.228
23.50000 4.035
23.52000 0.808
23.54000 2.649
23.56000 2.435
23.58000 -2.202
23.60000 -4.050
23.62000 0.931
23.64000 1.480
23.66000 3.134
23.68000 12.193
23.70000 12.226
23.72000 8.196
23.74000 4.546
23.76000 -1.666
23.78000 0.932
23.80000 6.945
23.82000 6.365
23.84000 8.079
23.86000 2.560
23.88000 1.804
23.90000 1.116
23.92000 2.090
23.94000 3.366
23.96000 8.286
23.98000 5.772
24.00000 3.194
24.02000 -1.147
24.04000 5.076
24.06000 5.058
24.08000 -3.343
24.10000 -2.453
24.12000 3.889
24.14000 6.584
24.16000 7.284
24.18000 14.530
24.20000 14.511
24.22000 7.481
24.24000 3.878
24.26000 1.284
24.28000 3.617
24.30000 4.108
24.32000 4.445
24.34000 3.175
24.36000 4.748
24.38000 5.974
24.40000 5.340
24.42000 6.368
24.44000 5.616
24.46000 7.299
24.48000 6.541
24.50000 -3.966
24.52000 6.439
24.54000 8.974
24.56000 5.812
24.58000 3.546
24.60000 5.383
24.62000 8.285
24.64000 8.980
24.66000 7.947
24.68000 6.567
24.70000 6.080
24.72000 9.363
24.74000 11.043
24.76000 8.129
24.78000 7.099
24.80000 8.396
24.82000 3.779
24.84000 -0.720
24.86000 -0.672
24.88000 -0.179
24.90000 0.750
24.92000 8.355
24.94000 7.267
24.96000 1.721
24.98000 3.874
25.00000 3.239
25.02000 5.475
25.04000 1.059
25.06000 0.590
25.08000 6.271
25.10000 5.774
25.12000 -0.055
25.14000 0.843
25.16000 6.126
25.18000 7.066
25.20000 4.694
25.22000 -1.251
25.24000 0.944
25.26000 1.136
25.28000 5.376
25.30000 8.417
25.32000 3.667
25.34000 0.020
25.36000 6.173
25.38000 3.802
25.40000 5.155
25.42000 2.428
25.44000 -0.634
25.46000 -0.955
25.48000 3.131
25.50000 0.613
25.52000 1.143
25.54000 0.592
25.56000 4.743
25.58000 1.666
25.60000 0.751
25.62000 5.435
25.64000 10.370
25.66000 7.876
25.68000 3.098
25.70000 7.223
25.72000 5.235
25.74000 8.642
25.76000 6.196
25.78000 -0.386
25.80000 0.055
25.82000 1.122
25.84000 7.902
25.86000 5.134
25.88000 2.030
25.90000 2.620
25.92000 0.759
25.94000 2.415
25.96000 9.626
25.98000 10.443
26.00000 7.552
26.02000 0.670
26.04000 1.831
26.06000 0.760
26.08000 -1.209
26.10000 4.881
26.12000 5.618
26.14000 4.485
26.16000 4.232
26.18000 4.698
26.20000 4.843
26.22000 2.580
26.24000 3.732
26.26000 1.829
26.28000 1.228
26.30000 6.376
26.32000 6.576
26.34000 6.501
26.36000 3.277
26.38000 4.102
26.40000 7.125
26.42000 7.695
26.44000 5.736
26.46000 7.079
26.48000 -0.222
26.50000 -3.876
26.52000 2.789
26.54000 4.446
26.56000 -1.720
26.58000 0.698
26.60000 4.506
26.62000 3.996
26.64000 9.923
26.66000 9.443
26.68000 4.294
26.70000 1.856
26.72000 -0.333
26.74000 0.720
26.76000 4.883
26.78000 9.854
26.80000 4.360
26.82000 1.299
26.84000 7.893
26.86000 10.798
26.88000 7.292
26.90000 8.503
26.92000 7.797
26.94000 5.544
26.96000 9.330
26.98000 -2.288
27.00000 1.172
27.02000 3.519
27.04000 5.960
27.06000 -0.573
27.08000 1.688
27.10000 8.018
27.12000 3.452
27.14000 3.276
27.16000 6.211
27.18000 5.460
27.20000 8.525
27.22000 4.285
27.24000 3.646
27.26000 5.137
27.28000 6.284
27.30000 5.529
27.32000 3.839
27.34000 -3.518
27.36000 -3.843
27.38000 1.106
27.40000 3.072
27.42000 0.276
27.44000 1.402
27.46000 2.631
27.48000 3.240
27.50000 2.285
27.52000 4.436
27.54000 3.403
27.56000 4.047
27.58000 7.944
27.60000 0.115
27.62000 -3.829
27.64000 2.267
27.66000 7.408
27.68000 4.654
27.70000 2.029
27.72000 3.043
27.74000 2.133
27.76000 5.004
27.78000 -1.521
27.80000 -0.387
27.82000 0.723
27.84000 2.417
27.86000 3.414
27.88000 0.049
27.90000 2.761
27.92000 3.945
27.94000 1.503
27.96000 3.227
27.98000 2.138
28.00000 -0.428
28.02000 2.979
28.04000 8.683
28.06000 6.480
28.08000 8.495
28.10000 5.590
28.12000 1.334
28.14000 -2.349
28.16000 -1.463
28.18000 -2.057
28.20000 4.819
28.22000 3.466
28.24000 3.453
28.26000 5.705
28.28000 -0.089
28.30000 -3.172
28.32000 -0.840
28.34000 3.102
28.36000 4.916
28.38000 1.541
28.40000 3.445
28.42000 -1.363
28.44000 -1.753
28.46000 0.968
28.48000 2.235
28.50000 3.718
28.52000 2.263
28.54000 1.411
28.56000 6.400
28.58000 5.968
28.60000 5.062
28.62000 5.150
28.64000 5.957
28.66000 9.454
28.68000 5.434
28.70000 3.039
28.72000 4.482
28.74000 4.279
28.76000 2.847
28.78000 5.529
28.80000 4.533
28.82000 -3.082
28.84000 2.056
28.86000 3.064
28.88000 0.661
28.90000 6.818
28.92000 9.208
28.94000 2.893
28.96000 2.501
28.98000 1.838
29.00000 0.907
29.02000 -3.748
29.04000 0.699
29.06000 1.519
29.08000 -0.128
29.10000 2.099
29.12000 3.078
29.14000 2.279
29.16000 1.426
29.18000 -0.677
29.20000 4.703
29.22000 5.152
29.24000 9.459
29.26000 4.701
29.28000 6.437
29.30000 5.469
29.32000 3.084
29.34000 5.488
29.36000 3.183
29.38000 2.471
29.40000 4.956
29.42000 -0.690
29.44000 1.429
29.46000 3.167
29.48000 5.351
29.50000 7.613
29.52000 4.874
29.54000 2.768
29.56000 1.327
29.58000 1.212
29.60000 6.181
29.62000 8.682
29.64000 2.607
29.66000 0.153
29.68000 -0.378
29.70000 0.129
29.72000 -1.064
29.74000 0.000
29.76000 1.182
29.78000 -1.240
29.80000 3.367
29.82000 6.228
29.84000 7.235
29.86000 5.854
29.88000 5.117
29.90000 0.082
29.92000 5.695
29.94000 -1.591
29.96000 -3.690
29.98000 4.830
30.00000 7.288
30.02000 8.788
30.04000 3.311
30.06000 0.484
30.08000 2.703
30.10000 8.551
30.12000 6.462
30.14000 7.360
30.16000 5.592
30.18000 5.908
30.20000 7.451
30.22000 7.976
30.24000 5.283
30.26000 4.998
30.28000 10.097
30.30000 6.798
30.32000 4.161
30.34000 3.655
30.36000 1.656
30.38000 -2.411
30.40000 5.275
30.42000 7.952
30.44000 3.131
30.46000 0.968
30.48000 4.422
30.50000 5.160
30.52000 2.571
30.54000 2.066
30.56000 5.118
30.58000 1.978
30.60000 4.157
30.62000 5.739
30.64000 2.625
30.66000 8.134
30.68000 6.282
30.70000 7.008
30.72000 9.787
30.74000 3.981
30.76000 3.534
30.78000 3.834
30.80000 2.776
30.82000 -0.788
30.84000 2.015
30.86000 3.000
30.88000 2.264
30.90000 3.055
30.92000 1.568
30.94000 -0.655
30.96000 -3.644
30.98000 1.709
31.00000 7.387
31.02000 2.441
31.04000 -0.761
31.06000 2.107
31.08000 5.827
31.10000 7.935
31.12000 5.163
31.14000 4.197
31.16000 3.079
31.18000 1.672
31.20000 3.867
31.22000 5.673
31.24000 3.146
31.26000 2.323
31.28000 6.198
31.30000 7.686
31.32000 3.426
31.34000 0.740
31.36000 -0.606
31.38000 2.731
31.40000 5.918
31.42000 1.913
31.44000 0.616
31.46000 3.341
31.48000 8.451
31.50000 3.993
31.52000 3.167
31.54000 4.592
31.56000 3.020
31.58000 1.960
31.60000 2.957
31.62000 2.686
31.64000 4.106
31.66000 4.156
31.68000 5.167
31.70000 6.994
31.72000 5.046
31.74000 10.694
31.76000 7.930
31.78000 3.947
31.80000 1.268
31.82000 0.872
31.84000 -0.028
31.86000 5.202
31.88000 8.338
31.90000 4.734
31.92000 6.961
31.94000 6.053
31.96000 5.896
31.98000 1.625
32.00000 1.523
32.02000 3.651
32.04000 5.257
32.06000 5.760
32.08000 7.583
32.10000 7.692
32.12000 5.276
32.14000 3.112
32.16000 4.804
32.18000 7.491
32.20000 4.772
32.22000 8.855
32.24000 8.984
32.26000 5.447
32.28000 5.230
32.30000 10.657
32.32000 10.656
32.34000 5.924
32.36000 9.222
32.38000 6.241
32.40000 7.617
32.42000 2.532
32.44000 -1.263
32.46000 -3.547
32.48000 1.106
32.50000 4.026
32.52000 7.647
32.54000 5.563
32.56000 4.586
32.58000 6.991
32.60000 5.845
32.62000 9.450
32.64000 7.815
32.66000 4.297
32.68000 8.682
32.70000 8.214
32.72000 8.570
32.74000 9.198
32.76000 7.791
32.78000 10.574
32.80000 1.672
32.82000 2.152
32.84000 3.242
32.86000 4.635
32.88000 2.914
32.90000 4.270
32.92000 7.780
32.94000 4.849
32.96000 9.777
32.98000 8.635
33.00000 4.300
33.02000 2.333
33.04000 1.425
33.06000 -0.121
33.08000 3.150
33.10000 6.885
33.12000 3.807
33.14000 6.049
33.16000 5.526
33.18000 1.076
33.20000 2.574
33.22000 1.367
33.24000 -1.296
33.26000 4.017
33.28000 4.950
33.30000 7.779
33.32000 4.187
33.34000 5.703
33.36000 7.115
33.38000 2.863
33.40000 6.075
33.42000 7.888
33.44000 7.568
33.46000 8.319
33.48000 7.212
33.50000 6.080
33.52000 6.578
33.54000 1.363
33.56000 -0.103
33.58000 -1.050
33.60000 3.209
33.62000 6.897
33.64000 5.824
33.66000 1.266
33.68000 4.401
33.70000 4.977
33.72000 3.238
33.74000 6.132
33.76000 6.030
33.78000 3.879
33.80000 0.895
33.82000 0.501
33.84000 1.415
33.86000 0.390
33.88000 4.134
33.90000 -0.332
33.92000 0.335
33.94000 2.612
33.96000 3.796
33.98000 3.302
34.00000 0.340
34.02000 0.967
34.04000 -0.063
34.06000 -2.438
34.08000 -0.547
34.10000 -2.076
34.12000 4.801
34.14000 6.863
34.16000 7.600
34.18000 4.756
34.20000 -0.053
34.22000 -3.589
34.24000 -0.856
34.26000 5.879
34.28000 6.423
34.30000 2.992
34.32000 -1.093
34.34000 -1.832
34.36000 3.415
34.38000 6.598
34.40000 8.494
34.42000 6.114
34.44000 3.952
34.46000 1.026
34.48000 0.152
34.50000 3.990
34.52000 1.628
34.54000 0.703
34.56000 0.672
34.58000 0.851
34.60000 1.110
34.62000 2.587
34.64000 1.473
34.66000 0.559
34.68000 3.472
34.70000 1.425
34.72000 1.295
34.74000 3.021
34.76000 -3.585
34.78000 0.042
34.80000 1.008
34.82000 0.972
34.84000 2.182
34.86000 -1.357
34.88000 0.784
34.90000 0.893
34.92000 4.201
34.94000 1.238
34.96000 1.924
34.98000 3.132
35.00000 3.988
35.02000 6.523
35.04000 0.136
35.06000 1.101
35.08000 3.257
35.10000 0.729
35.12000 3.252
35.14000 -1.126
35.16000 0.428
35.18000 -0.295
35.20000 0.628
35.22000 0.278
35.24000 -1.427
35.26000 0.144
35.28000 0.036
35.30000 0.115
35.32000 3.543
35.34000 4.070
35.36000 1.324
35.38000 -0.618
35.40000 1.123
35.42000 -3.186
35.44000 -3.581
35.46000 -0.682
35.48000 -1.563
35.50000 -3.579
35.52000 0.978
35.54000 2.404
35.56000 5.925
35.58000 6.581
35.60000 1.326
35.62000 0.237
35.64000 0.468
35.66000 0.465
35.68000 -2.279
35.70000 -0.554
35.72000 2.209
35.74000 1.568
35.76000 3.007
35.78000 -2.265
35.80000 -3.361
35.82000 -3.321
35.84000 -3.547
35.86000 -1.291
35.88000 1.362
35.90000 3.214
35.92000 3.616
35.94000 3.295
35.96000 0.805
35.98000 -0.773
36.00000 3.398
36.02000 0.900
36.04000 2.238
36.06000 -1.733
36.08000 2.702
36.10000 2.541
36.12000 0.003
36.14000 -1.822
36.16000 1.284
36.18000 2.821
36.20000 2.870
36.22000 2.967
36.24000 1.987
36.26000 -0.521
36.28000 3.729
36.30000 5.540
36.32000 0.030
36.34000 3.900
36.36000 4.799
36.38000 2.243
36.40000 0.875
36.42000 -0.992
36.44000 -3.573
36.46000 -3.382
36.48000 -2.329
36.50000 1.018
36.52000 3.148
36.54000 2.554
36.56000 6.569
36.58000 2.947
36.60000 4.738
36.62000 7.054
36.64000 7.577
36.66000 2.873
36.68000 -1.436
36.70000 -0.173
36.72000 -2.144
36.74000 2.292
36.76000 2.271
36.78000 1.989
36.80000 5.037
36.82000 7.376
36.84000 7.294
36.86000 3.224
36.88000 1.710
36.90000 5.228
36.92000 -1.464
36.94000 0.518
36.96000 -1.504
36.98000 -3.159
37.00000 2.670
37.02000 5.798
37.04000 -0.293
37.06000 1.313
37.08000 3.025
37.10000 -0.013
37.12000 1.285
37.14000 -1.619
37.16000 2.598
37.18000 4.947
37.20000 3.868
37.22000 -1.278
37.24000 0.391
37.26000 2.235
37.28000 1.857
37.30000 -0.103
37.32000 2.583
37.34000 0.200
37.36000 -1.554
37.38000 1.011
37.40000 5.346
37.42000 5.544
37.44000 5.851
37.46000 8.844
37.48000 4.928
37.50000 2.791
37.52000 1.934
37.54000 0.191
37.56000 5.065
37.58000 7.922
37.60000 7.802
37.62000 8.720
37.64000 6.415
37.66000 9.735
37.68000 7.160
37.70000 7.156
37.72000 7.715
37.74000 11.517
37.76000 9.924
37.78000 10.889
37.80000 12.338
37.82000 11.692
37.84000 11.953
37.86000 11.768
37.88000 17.175
37.90000 15.352
37.92000 5.612
37.94000 7.126
37.96000 16.799
37.98000 17.709
38.00000 14.323
38.02000 16.413
38.04000 16.851
38.06000 16.833
38.08000 20.873
38.10000 21.886
38.12000 22.805
38.14000 24.156
38.16000 25.433
38.18000 22.073
38.20000 23.540
38.22000 24.945
38.24000 31.994
38.26000 30.798
38.28000 31.327
38.30000 34.638
38.32000 38.034
38.34000 35.061
38.36000 30.894
38.38000 36.396
38.40000 38.245
38.42000 39.635
38.44000 37.819
38.46000 39.627
38.48000 39.975
38.50000 36.988
38.52000 44.618
38.54000 49.863
38.56000 55.115
38.58000 52.966
38.60000 57.622
38.62000 63.711
38.64000 60.446
38.66000 63.578
38.68000 66.881
38.70000 68.317
38.72000 74.951
38.74000 77.054
38.76000 76.590
38.78000 80.115
38.80000 81.187
38.82000 84.909
38.84000 87.177
38.86000 94.610
38.88000 106.239
38.90000 108.652
38.92000 109.110
38.94000 117.125
38.96000 126.269
38.98000 134.910
39.00000 137.313
39.02000 143.320
39.04000 142.449
39.06000 144.507
39.08000 152.267
39.10000 156.519
39.12000 172.195
39.14000 175.231
39.16000 179.436
39.18000 192.788
39.20000 199.748
39.22000 220.389
39.24000 232.845
39.26000 233.619
39.28000 238.077
39.30000 252.225
39.32000 269.457
39.34000 280.942
39.36000 293.162
39.38000 313.298
39.40000 330.765
39.42000 353.743
39.44000 367.953
39.46000 375.592
39.48000 387.683
39.50000 414.372
39.52000 440.423
39.54000 460.477
39.56000 479.387
39.58000 505.666
39.60000 539.016
39.62000 556.735
39.64000 584.671
39.66000 599.044
39.68000 626.267
39.70000 662.018
39.72000 690.345
39.74000 705.639
39.76000 718.023
39.78000 740.243
39.80000 751.736
39.82000 773.817
39.84000 791.976
39.86000 810.299
39.88000 811.406
39.90000 814.430
39.92000 823.722
39.94000 818.017
39.96000 818.904
39.98000 823.565
40.00000 812.888
40.02000 804.545
40.04000 794.291
40.06000 787.256
40.08000 767.318
40.10000 751.877
40.12000 732.548
40.14000 713.583
40.16000 689.723
40.18000 658.494
40.20000 635.158
40.22000 621.535
40.24000 594.328
40.26000 569.748
40.28000 558.407
40.30000 532.355
40.32000 505.744
40.34000 474.119
40.36000 449.973
40.38000 436.353
40.40000 413.756
40.42000 387.007
40.44000 367.486
40.46000 354.770
40.48000 330.680
40.50000 309.122
40.52000 292.330
40.54000 271.626
40.56000 258.644
40.58000 247.971
40.60000 235.117
40.62000 224.003
40.64000 208.568
40.66000 194.229
40.68000 186.501
40.70000 166.315
40.72000 153.169
40.74000 152.326
40.76000 142.736
40.78000 135.114
40.80000 126.965
40.82000 121.677
40.84000 115.569
40.86000 105.010
40.88000 99.504
40.90000 97.719
40.92000 93.698
40.94000 84.131
40.96000 77.238
40.98000 77.993
41.00000 75.018
41.02000 70.990
41.04000 59.809
41.06000 59.776
41.08000 61.179
41.10000 57.303
41.12000 48.458
41.14000 53.304
41.16000 48.586
41.18000 40.179
41.20000 38.637
41.22000 42.330
41.24000 40.233
41.26000 37.227
41.28000 33.462
41.30000 29.381
41.32000 35.353
41.34000 33.495
41.36000 28.767
41.38000 25.974
41.40000 21.694
41.42000 20.244
41.44000 17.655
41.46000 20.383
41.48000 20.915
41.50000 19.883
41.52000 15.334
41.54000 18.067
41.56000 15.649
41.58000 13.381
41.60000 16.277
41.62000 15.905
41.64000 16.391
41.66000 12.548
41.68000 6.680
41.70000 11.485
41.72000 12.920
41.74000 11.273
41.76000 9.412
41.78000 9.645
41.80000 9.979
41.82000 11.160
41.84000 11.202
41.86000 6.022
41.88000 6.832
41.90000 5.077
41.92000 8.637
41.94000 5.366
41.96000 7.188
41.98000 4.667
42.00000 2.533
42.02000 5.532
42.04000 2.906
42.06000 0.211
42.08000 0.274
42.10000 2.341
42.12000 -3.531
42.14000 2.746
42.16000 1.363
42.18000 7.940
42.20000 4.899
42.22000 4.328
42.24000 1.065
42.26000 -0.008
42.28000 2.483
42.30000 0.969
42.32000 -1.171
42.34000 3.981
42.36000 4.103
42.38000 2.280
42.40000 1.241
42.42000 2.393
42.44000 0.256
42.46000 -2.815
42.48000 -1.020
42.50000 2.276
42.52000 1.948
42.54000 1.481
42.56000 4.920
42.58000 4.808
42.60000 1.804
42.62000 2.324
42.64000 1.470
42.66000 0.280
42.68000 0.186
42.70000 2.715
42.72000 4.651
42.74000 -1.133
42.76000 -0.995
42.78000 6.221
42.80000 7.294
42.82000 4.436
42.84000 3.211
42.86000 1.097
42.88000 1.179
42.90000 -0.149
42.92000 -1.064
42.94000 1.903
42.96000 6.641
42.98000 1.812
43.00000 -3.370
43.02000 -0.705
43.04000 0.151
43.06000 -0.003
43.08000 4.224
43.10000 3.914
43.12000 2.042
43.14000 1.784
43.16000 3.660
43.18000 2.350
43.20000 -0.992
43.22000 3.335
43.24000 4.801
43.26000 2.908
43.28000 2.487
43.30000 4.813
43.32000 1.508
43.34000 2.594
43.36000 -2.452
43.38000 -3.351
43.40000 -0.908
43.42000 0.229
43.44000 1.442
43.46000 -0.275
43.48000 -0.962
43.50000 -1.169
43.52000 -1.505
43.54000 0.479
43.56000 1.005
43.58000 2.275
43.60000 6.249
43.62000 3.237
43.64000 0.339
43.66000 3.173
43.68000 4.215
43.70000 4.120
43.72000 2.022
43.74000 2.815
43.76000 0.235
43.78000 0.066
43.80000 -2.775
43.82000 -0.327
43.84000 1.981
43.86000 1.581
43.88000 1.173
43.90000 -1.745
43.92000 -1.785
43.94000 0.322
43.96000 0.846
43.98000 2.166
44.00000 2.323
44.02000 1.861
44.04000 -3.329
44.06000 -2.562
44.08000 0.111
44.10000 3.284
44.12000 5.606
44.14000 4.869
44.16000 2.902
44.18000 -1.717
44.20000 -0.116
44.22000 -1.317
44.24000 -2.138
44.26000 -0.768
44.28000 1.182
44.30000 4.973
44.32000 2.031
44.34000 0.661
44.36000 2.955
44.38000 2.256
44.40000 0.956
44.42000 5.406
44.44000 5.898
44.46000 8.399
44.48000 2.549
44.50000 0.308
44.52000 0.368
44.54000 3.656
44.56000 -0.588
44.58000 -3.334
44.60000 -2.807
44.62000 -1.397
44.64000 1.770
44.66000 4.323
44.68000 2.064
44.70000 3.404
44.72000 3.494
44.74000 1.660
44.76000 1.620
44.78000 6.936
44.80000 4.423
44.82000 1.782
44.84000 6.012
44.86000 8.669
44.88000 1.077
44.90000 1.352
44.92000 3.733
44.94000 7.811
44.96000 7.728
44.98000 9.958
45.00000 13.634
45.02000 8.914
45.04000 10.563
45.06000 10.680
45.08000 10.053
45.10000 11.053
45.12000 14.194
45.14000 14.993
45.16000 17.609
45.18000 14.591
45.20000 14.021
45.22000 14.281
45.24000 15.094
45.26000 14.808
45.28000 12.336
45.30000 14.163
45.32000 18.048
45.34000 17.736
45.36000 17.852
45.38000 18.444
45.40000 16.066
45.42000 20.784
45.44000 18.199
45.46000 19.384
45.48000 25.568
45.50000 31.492
45.52000 26.858
45.54000 28.491
45.56000 30.253
45.58000 29.921
45.60000 28.571
45.62000 31.973
45.64000 36.952
45.66000 37.307
45.68000 30.444
45.70000 29.896
45.72000 37.989
45.74000 43.186
45.76000 43.619
45.78000 45.065
45.80000 42.556
45.82000 44.211
45.84000 50.651
45.86000 51.829
45.88000 50.253
45.90000 51.908
45.92000 51.535
45.94000 52.247
45.96000 58.112
45.98000 59.613
46.00000 60.857
46.02000 60.333
46.04000 67.355
46.06000 68.390
46.08000 72.203
46.10000 78.515
46.12000 74.620
46.14000 75.361
46.16000 79.261
46.18000 80.530
46.20000 85.546
46.22000 80.756
46.24000 86.996
46.26000 90.959
46.28000 94.525
46.30000 98.520
46.32000 100.837
46.34000 96.680
46.36000 97.714
46.38000 104.371
46.40000 111.531
46.42000 109.772
46.44000 109.950
46.46000 113.177
46.48000 112.476
46.50000 117.726
46.52000 120.259
46.54000 120.166
46.56000 118.914
46.58000 115.903
46.60000 116.364
46.62000 117.868
46.64000 123.111
46.66000 121.005
46.68000 118.294
46.70000 121.872
46.72000 125.917
46.74000 113.743
46.76000 111.040
46.78000 112.032
46.80000 109.202
46.82000 113.901
46.84000 110.802
46.86000 108.762
46.88000 106.615
46.90000 101.638
46.92000 100.583
46.94000 98.892
46.96000 100.685
46.98000 94.279
47.00000 88.585
47.02000 87.945
47.04000 82.477
47.06000 81.576
47.08000 82.294
47.10000 75.734
47.12000 74.754
47.14000 68.608
47.16000 61.192
47.18000 63.376
47.20000 61.975
47.22000 60.779
47.24000 59.964
47.26000 56.433
47.28000 50.788
47.30000 50.535
47.32000 50.360
47.34000 43.205
47.36000 39.741
47.38000 40.000
47.40000 40.801
47.42000 35.837
47.44000 36.080
47.46000 31.128
47.48000 32.138
47.50000 28.432
47.52000 26.735
47.54000 27.870
47.56000 25.931
47.58000 23.088
47.60000 17.600
47.62000 21.465
47.64000 21.786
47.66000 16.039
47.68000 16.891
47.70000 18.064
47.72000 19.200
47.74000 14.789
47.76000 13.810
47.78000 15.762
47.80000 8.653
47.82000 10.649
47.84000 12.001
47.86000 8.318
47.88000 7.861
47.90000 8.029
47.92000 8.754
47.94000 8.811
47.96000 8.106
47.98000 4.688
48.00000 4.220
48.02000 4.708
48.04000 3.359
48.06000 -1.413
48.08000 2.269
48.10000 3.924
48.12000 3.613
48.14000 1.360
48.16000 -0.135
48.18000 0.509
48.20000 -0.814
48.22000 -1.439
48.24000 -1.354
48.26000 1.311
48.28000 3.885
48.30000 3.711
48.32000 -1.407
48.34000 -0.606
48.36000 -2.963
48.38000 -0.574
48.40000 1.499
48.42000 -1.587
48.44000 2.047
48.46000 0.022
48.48000 -1.853
48.50000 -1.381
48.52000 5.081
48.54000 1.492
48.56000 0.680
48.58000 0.082
48.60000 -1.682
48.62000 1.618
48.64000 2.492
48.66000 -1.325
48.68000 0.317
48.70000 1.719
48.72000 0.847
48.74000 -0.380
48.76000 1.174
48.78000 1.474
48.80000 5.494
48.82000 4.060
48.84000 7.081
48.86000 5.267
48.88000 0.915
48.90000 4.370
48.92000 -2.290
48.94000 -2.513
48.96000 2.953
48.98000 0.662
49.00000 -2.062
49.02000 -2.800
49.04000 5.117
49.06000 5.976
49.08000 1.709
49.10000 3.135
49.12000 -2.492
49.14000 -0.727
49.16000 3.990
49.18000 4.703
49.20000 1.157
49.22000 1.341
49.24000 5.598
49.26000 5.671
49.28000 2.982
49.30000 1.048
49.32000 -1.522
49.34000 3.930
49.36000 2.112
49.38000 1.268
49.40000 3.693
49.42000 0.531
49.44000 6.221
49.46000 5.896
49.48000 2.922
49.50000 2.855
49.52000 6.719
49.54000 5.606
49.56000 -2.020
49.58000 -2.765
49.60000 0.946
49.62000 0.217
49.64000 -0.741
49.66000 1.455
49.68000 -1.022
49.70000 1.013
49.72000 1.320
49.74000 2.474
49.76000 5.208
49.78000 3.600
49.80000 2.083
49.82000 3.405
49.84000 6.224
49.86000 5.139
49.88000 3.670
49.90000 2.503
49.92000 0.348
49.94000 3.595
49.96000 2.386
49.98000 1.506
50.00000 5.395
50.02000 1.011
50.04000 2.240
50.06000 4.164
50.08000 3.120
50.10000 5.672
50.12000 1.453
50.14000 -1.707
50.16000 -2.029
50.18000 1.140
50.20000 1.028
50.22000 1.991
50.24000 -0.684
50.26000 -2.715
50.28000 -0.262
50.30000 0.192
50.32000 7.214
50.34000 9.704
50.36000 7.942
50.38000 2.599
50.40000 0.828
50.42000 0.966
50.44000 4.189
50.46000 4.088
50.48000 5.169
50.50000 3.598
50.52000 5.480
50.54000 2.644
50.56000 1.843
50.58000 7.311
50.60000 1.832
50.62000 -2.699
50.64000 1.248
50.66000 4.323
50.68000 6.030
50.70000 6.443
50.72000 1.711
50.74000 -0.826
50.76000 2.423
50.78000 3.592
50.80000 1.216
50.82000 -0.947
50.84000 -1.381
50.86000 1.841
50.88000 -1.332
50.90000 -1.681
50.92000 0.111
50.94000 -0.151
50.96000 3.615
50.98000 8.176
51.00000 4.111
51.02000 1.084
51.04000 2.421
51.06000 0.506
51.08000 1.390
51.10000 -0.255
51.12000 4.963
51.14000 4.888
51.16000 2.826
51.18000 2.920
51.20000 3.865
51.22000 2.402
51.24000 -1.100
51.26000 -2.343
51.28000 -0.626
51.30000 -0.839
51.32000 1.355
51.34000 5.165
51.36000 4.701
51.38000 5.698
51.40000 6.702
51.42000 2.342
51.44000 4.000
51.46000 8.367
51.48000 -0.224
51.50000 -2.658
51.52000 1.212
51.54000 2.537
51.56000 0.777
51.58000 4.209
51.60000 4.451
51.62000 -0.847
51.64000 -1.662
51.66000 1.332
51.68000 1.762
51.70000 3.575
51.72000 6.101
51.74000 3.332
51.76000 0.748
51.78000 3.799
51.80000 3.712
51.82000 3.323
51.84000 2.207
51.86000 1.224
51.88000 3.913
51.90000 3.760
51.92000 3.315
51.94000 2.845
51.96000 7.757
51.98000 4.332
52.00000 0.938
52.02000 -0.873
52.04000 -1.419
52.06000 1.004
52.08000 2.166
52.10000 0.982
52.12000 -1.335
52.14000 0.345
52.16000 2.208
52.18000 5.483
52.20000 5.461
52.22000 1.136
52.24000 -2.644
52.26000 -0.463
52.28000 4.393
52.30000 2.585
52.32000 4.543
52.34000 -0.256
52.36000 1.923
52.38000 4.619
52.40000 4.340
52.42000 0.770
52.44000 1.121
52.46000 2.378
52.48000 3.087
52.50000 1.621
52.52000 2.582
52.54000 2.174
52.56000 2.799
52.58000 0.746
52.60000 0.085
52.62000 -1.761
52.64000 1.900
52.66000 2.479
52.68000 -2.412
52.70000 -2.258
52.72000 0.304
52.74000 0.922
52.76000 -0.088
52.78000 0.451
52.80000 2.803
52.82000 2.355
52.84000 -2.203
52.86000 -2.631
52.88000 2.049
52.90000 2.668
52.92000 2.857
52.94000 0.169
52.96000 -0.133
52.98000 3.901
53.00000 3.817
53.02000 -0.270
53.04000 -0.399
53.06000 -0.877
53.08000 1.307
53.10000 7.377
53.12000 3.575
53.14000 1.116
53.16000 0.764
53.18000 1.227
53.20000 2.939
53.22000 0.507
53.24000 1.460
53.26000 2.446
53.28000 1.746
53.30000 -0.555
53.32000 3.266
53.34000 5.407
53.36000 4.515
53.38000 2.284
53.40000 -0.761
53.42000 -0.979
53.44000 2.927
53.46000 1.955
53.48000 0.636
53.50000 -0.939
53.52000 -0.504
53.54000 0.685
53.56000 4.731
53.58000 3.873
53.60000 1.001
53.62000 -1.075
53.64000 0.890
53.66000 4.339
53.68000 4.505
53.70000 4.582
53.72000 4.690
53.74000 1.539
53.76000 -2.452
53.78000 2.354
53.80000 4.164
53.82000 4.082
53.84000 1.590
53.86000 -1.886
53.88000 2.099
53.90000 4.181
53.92000 1.564
53.94000 3.485
53.96000 2.326
53.98000 2.085
54.00000 -2.584
54.02000 -2.583
54.04000 0.755
54.06000 0.615
54.08000 1.616
54.10000 5.322
54.12000 2.957
54.14000 2.349
54.16000 5.077
54.18000 1.642
54.20000 4.537
54.22000 2.924
54.24000 0.531
54.26000 1.161
54.28000 0.611
54.30000 0.952
54.32000 1.790
54.34000 2.595
54.36000 -0.346
54.38000 2.156
54.40000 2.461
54.42000 2.020
54.44000 2.384
54.46000 3.465
54.48000 3.195
54.50000 -0.029
54.52000 3.229
54.54000 4.512
54.56000 2.250
54.58000 -1.596
54.60000 -1.533
54.62000 3.982
54.64000 8.815
54.66000 6.148
54.68000 -0.667
54.70000 2.124
54.72000 4.195
54.74000 2.730
54.76000 2.723
54.78000 -1.182
54.80000 -0.336
54.82000 5.350
54.84000 5.108
54.86000 -1.788
54.88000 -0.179
54.90000 0.936
54.92000 2.914
54.94000 0.548
54.96000 2.448
54.98000 6.393
55.00000 4.567
55.02000 3.873
55.04000 1.642
55.06000 1.888
55.08000 4.248
55.10000 2.367
55.12000 -2.550
55.14000 0.647
55.16000 3.113
55.18000 6.057
55.20000 5.879
55.22000 3.743
55.24000 2.938
55.26000 1.208
55.28000 1.199
55.30000 3.653
55.32000 3.799
55.34000 2.522
55.36000 0.052
55.38000 2.597
55.40000 8.096
55.42000 6.577
55.44000 3.620
55.46000 2.593
55.48000 2.347
55.50000 2.708
55.52000 -0.222
55.54000 2.151
55.56000 3.128
55.58000 3.405
55.60000 2.961
55.62000 2.370
55.64000 3.999
55.66000 3.055
55.68000 -0.015
55.70000 -0.438
55.72000 2.191
55.74000 5.350
55.76000 4.443
55.78000 6.635
55.80000 9.065
55.82000 2.884
55.84000 3.556
55.86000 3.457
55.88000 7.852
55.90000 4.573
55.92000 -0.693
55.94000 -2.497
55.96000 1.051
55.98000 1.002
56.00000 3.521
56.02000 4.682
56.04000 2.468
56.06000 3.936
56.08000 1.433
56.10000 1.031
56.12000 3.541
56.14000 4.102
56.16000 4.262
56.18000 6.288
56.20000 1.130
56.22000 3.108
56.24000 1.615
56.26000 -2.498
56.28000 -0.752
56.30000 -0.114
56.32000 0.803
56.34000 4.371
56.36000 3.475
56.38000 -0.311
56.40000 0.467
56.42000 1.964
56.44000 3.523
56.46000 1.904
56.48000 2.321
56.50000 2.508
56.52000 2.453
56.54000 0.743
56.56000 -0.570
56.58000 2.131
56.60000 5.586
56.62000 0.626
56.64000 -2.356
56.66000 0.064
56.68000 2.838
56.70000 1.139
56.72000 2.961
56.74000 1.038
56.76000 0.462
56.78000 3.485
56.80000 2.397
56.82000 0.515
56.84000 -0.877
56.86000 2.295
56.88000 3.541
56.90000 2.550
56.92000 2.083
56.94000 -1.306
56.96000 1.823
56.98000 1.954
57.00000 -1.877
57.02000 -2.364
57.04000 1.144
57.06000 1.947
57.08000 1.287
57.10000 0.518
57.12000 2.335
57.14000 3.376
57.16000 3.158
57.18000 2.186
57.20000 0.363
57.22000 -1.188
57.24000 -0.917
57.26000 2.231
57.28000 3.184
57.30000 0.433
57.32000 -1.679
57.34000 1.824
57.36000 1.514
57.38000 1.106
57.40000 2.345
57.42000 2.942
57.44000 3.667
57.46000 1.470
57.48000 4.011
57.50000 3.245
57.52000 0.533
57.54000 2.180
57.56000 1.469
57.58000 2.731
57.60000 2.093
57.62000 2.099
57.64000 2.948
57.66000 -2.473
57.68000 0.688
57.70000 2.030
57.72000 4.839
57.74000 2.508
57.76000 0.759
57.78000 2.242
57.80000 8.346
57.82000 7.041
57.84000 -0.599
57.86000 0.229
57.88000 1.395
57.90000 -0.375
57.92000 -1.130
57.94000 2.101
57.96000 6.905
57.98000 4.092
58.00000 1.280
58.02000 2.240
58.04000 4.699
58.06000 5.451
58.08000 0.721
58.10000 3.104
58.12000 4.210
58.14000 -0.362
58.16000 -0.755
58.18000 -1.043
58.20000 -1.610
58.22000 -2.421
58.24000 1.518
58.26000 5.125
58.28000 2.898
58.30000 2.996
58.32000 2.490
58.34000 -1.841
58.36000 1.622
58.38000 2.179
58.40000 3.992
58.42000 6.386
58.44000 3.963
58.46000 1.339
58.48000 0.494
58.50000 5.358
58.52000 5.638
58.54000 4.481
58.56000 3.524
58.58000 6.899
58.60000 1.519
58.62000 1.147
58.64000 1.006
58.66000 -0.149
58.68000 3.180
58.70000 3.770
58.72000 3.473
58.74000 -1.395
58.76000 0.423
58.78000 -0.018
58.80000 -1.057
58.82000 -0.884
58.84000 2.665
58.86000 3.587
58.88000 -0.244
58.90000 0.251
58.92000 4.027
58.94000 2.263
58.96000 -0.043
58.98000 0.655
59.00000 1.016
59.02000 2.780
59.04000 1.803
59.06000 0.048
59.08000 3.644
59.10000 2.416
59.12000 -2.446
59.14000 -1.598
59.16000 2.933
59.18000 0.003
59.20000 1.513
59.22000 -0.420
59.24000 -0.942
59.26000 2.890
59.28000 3.209
59.30000 2.456
59.32000 2.677
59.34000 7.418
59.36000 4.532
59.38000 1.482
59.40000 0.812
59.42000 1.693
59.44000 2.219
59.46000 0.583
59.48000 1.312
59.50000 8.188
59.52000 5.106
59.54000 -0.715
59.56000 0.356
59.58000 0.154
59.60000 -1.276
59.62000 0.725
59.64000 0.531
59.66000 -0.550
59.68000 -1.155
59.70000 -1.374
59.72000 2.107
59.74000 0.723
59.76000 -0.912
59.78000 3.248
59.80000 2.749
59.82000 0.352
59.84000 -0.667
59.86000 0.846
59.88000 2.307
59.90000 3.971
59.92000 0.347
59.94000 -0.041
59.96000 -1.087
59.98000 -0.295
60.00000 1.442
60.02000 7.356
60.04000 2.143
60.06000 3.285
60.08000 3.745
60.10000 3.113
60.12000 0.938
60.14000 -2.407
60.16000 -0.631
60.18000 2.660
60.20000 -1.082
60.22000 1.138
60.24000 2.965
60.26000 0.796
60.28000 0.424
60.30000 1.574
60.32000 1.230
60.34000 -0.590
60.36000 0.212
60.38000 0.840
60.40000 -0.528
60.42000 4.148
60.44000 1.902
60.46000 0.408
60.48000 5.439
60.50000 3.487
60.52000 -2.386
60.54000 1.292
60.56000 1.236
60.58000 0.970
60.60000 3.138
60.62000 3.729
60.64000 2.785
60.66000 3.257
60.68000 1.455
60.70000 1.917
60.72000 2.627
60.74000 6.184
60.76000 2.014
60.78000 0.148
60.80000 1.612
60.82000 2.985
60.84000 0.643
60.86000 1.338
60.88000 3.044
60.90000 3.474
60.92000 5.165
60.94000 4.349
60.96000 0.544
60.98000 -0.257
61.00000 -1.700
61.02000 1.209
61.04000 4.214
61.06000 5.776
61.08000 3.467
61.10000 1.873
61.12000 1.197
61.14000 3.104
61.16000 0.553
61.18000 3.751
61.20000 3.782
61.22000 2.391
61.24000 2.273
61.26000 1.854
61.28000 3.049
61.30000 1.538
61.32000 -1.068
61.34000 4.093
61.36000 3.893
61.38000 2.185
61.40000 3.656
61.42000 4.639
61.44000 3.999
61.46000 1.605
61.48000 2.286
61.50000 1.677
61.52000 3.884
61.54000 5.256
61.56000 3.630
61.58000 0.972
61.60000 -2.354
61.62000 0.366
61.64000 0.709
61.66000 0.210
61.68000 1.822
61.70000 -0.063
61.72000 0.083
61.74000 5.044
61.76000 5.512
61.78000 1.484
61.80000 -0.773
61.82000 1.306
61.84000 4.157
61.86000 4.377
61.88000 3.191
61.90000 1.792
61.92000 1.572
61.94000 4.729
61.96000 4.577
61.98000 2.472
62.00000 1.611
62.02000 2.837
62.04000 0.902
62.06000 1.226
62.08000 1.997
62.10000 1.552
62.12000 0.992
62.14000 3.505
62.16000 2.776
62.18000 2.917
62.20000 0.379
62.22000 0.938
62.24000 3.396
62.26000 6.965
62.28000 7.555
62.30000 2.828
62.32000 0.746
62.34000 1.632
62.36000 0.869
62.38000 0.649
62.40000 0.666
62.42000 1.669
62.44000 0.825
62.46000 4.407
62.48000 4.057
62.50000 1.157
62.52000 0.982
62.54000 -0.079
62.56000 -0.615
62.58000 2.877
62.60000 1.274
62.62000 -2.356
62.64000 2.675
62.66000 4.470
62.68000 1.431
62.70000 1.534
62.72000 0.356
62.74000 -1.620
62.76000 0.530
62.78000 -0.800
62.80000 -1.297
62.82000 -0.985
62.84000 0.203
62.86000 1.911
62.88000 0.910
62.90000 2.433
62.92000 2.234
62.94000 -0.271
62.96000 1.218
62.98000 2.921
63.00000 2.767
63.02000 -0.133
63.04000 -1.937
63.06000 1.395
63.08000 5.591
63.10000 7.089
63.12000 4.539
63.14000 4.045
63.16000 6.488
63.18000 5.821
63.20000 2.706
63.22000 1.112
63.24000 6.102
63.26000 4.784
63.28000 3.141
63.30000 1.792
63.32000 1.739
63.34000 1.312
63.36000 0.197
63.38000 -2.343
63.40000 -0.176
63.42000 3.319
63.44000 0.508
63.46000 0.778
63.48000 2.265
63.50000 2.093
63.52000 0.474
63.54000 3.941
63.56000 4.540
63.58000 2.605
63.60000 4.018
63.62000 5.552
63.64000 2.083
63.66000 -0.091
63.68000 -1.869
63.70000 1.084
63.72000 0.147
63.74000 0.369
63.76000 -0.426
63.78000 -0.621
63.80000 3.746
63.82000 4.300
63.84000 1.211
63.86000 1.494
63.88000 2.907
63.90000 1.137
63.92000 4.597
63.94000 5.616
63.96000 5.081
63.98000 2.129
64.00000 3.308
64.02000 4.492
64.04000 3.619
64.06000 -2.021
64.08000 1.073
64.10000 1.209
64.12000 2.123
64.14000 1.801
64.16000 -2.349
64.18000 0.189
64.20000 0.560
64.22000 1.835
64.24000 1.976
64.26000 0.090
64.28000 -0.905
64.30000 -2.358
64.32000 -0.627
64.34000 0.273
64.36000 3.227
64.38000 1.830
64.40000 -0.502
64.42000 -0.766
64.44000 -0.099
64.46000 1.151
64.48000 4.183
64.50000 4.720
64.52000 1.794
64.54000 -2.028
64.56000 0.790
64.58000 1.789
64.60000 1.166
64.62000 1.237
64.64000 3.430
64.66000 1.108
64.68000 1.450
64.70000 -2.375
64.72000 0.637
64.74000 3.050
64.76000 3.280
64.78000 1.191
64.80000 1.202
64.82000 2.172
64.84000 1.526
64.86000 0.198
64.88000 1.528
64.90000 1.432
64.92000 -0.913
64.94000 -1.185
64.96000 -0.259
64.98000 0.017
65.00000 2.534
65.02000 1.884
65.04000 3.180
65.06000 3.363
65.08000 1.784
65.10000 0.681
65.12000 2.673
65.14000 -0.015
65.16000 2.084
65.18000 3.555
65.20000 0.964
65.22000 2.702
65.24000 4.761
65.26000 4.080
65.28000 2.557
65.30000 1.134
65.32000 3.815
65.34000 2.310
65.36000 -0.896
65.38000 4.452
65.40000 2.761
65.42000 2.643
65.44000 1.444
65.46000 -2.374
65.48000 -2.018
65.50000 0.156
65.52000 1.359
65.54000 0.769
65.56000 2.509
65.58000 3.236
65.60000 2.506
65.62000 4.190
65.64000 5.410
65.66000 4.331
65.68000 4.486
65.70000 1.666
65.72000 1.921
65.74000 1.173
65.76000 5.474
65.78000 3.314
65.80000 2.181
65.82000 1.271
65.84000 1.779
65.86000 0.369
65.88000 2.286
65.90000 6.736
65.92000 3.665
65.94000 3.316
65.96000 2.678
65.98000 1.459
66.00000 4.465
66.02000 4.146
66.04000 1.879
66.06000 3.560
66.08000 -2.436
66.10000 0.298
66.12000 1.737
66.14000 3.945
66.16000 4.943
66.18000 1.903
66.20000 2.349
66.22000 2.074
66.24000 0.818
66.26000 2.212
66.28000 1.534
66.30000 2.770
66.32000 2.742
66.34000 1.788
66.36000 2.618
66.38000 -0.700
66.40000 -1.705
66.42000 -0.419
66.44000 -0.712
66.46000 -0.662
66.48000 2.184
66.50000 1.983
66.52000 1.668
66.54000 1.977
66.56000 5.921
66.58000 1.244
66.60000 -0.594
66.62000 1.730
66.64000 2.246
66.66000 4.596
66.68000 4.930
66.70000 6.258
66.72000 4.784
66.74000 -0.869
66.76000 2.249
66.78000 4.900
66.80000 3.979
66.82000 7.849
66.84000 8.071
66.86000 8.799
66.88000 9.815
66.90000 6.392
66.92000 5.123
66.94000 5.135
66.96000 7.231
66.98000 5.755
67.00000 6.708
67.02000 9.161
67.04000 8.179
67.06000 7.219
67.08000 8.240
67.10000 10.541
67.12000 11.713
67.14000 10.667
67.16000 10.036
67.18000 8.401
67.20000 7.856
67.22000 7.957
67.24000 6.054
67.26000 6.666
67.28000 10.545
67.30000 9.159
67.32000 12.449
67.34000 15.203
67.36000 14.946
67.38000 10.339
67.40000 9.536
67.42000 8.091
67.44000 11.180
67.46000 12.232
67.48000 12.310
67.50000 12.745
67.52000 14.865
67.54000 12.933
67.56000 14.615
67.58000 15.951
67.60000 16.887
67.62000 14.100
67.64000 12.221
67.66000 12.287
67.68000 13.589
67.70000 18.465
67.72000 18.693
67.74000 18.555
67.76000 21.195
67.78000 21.839
67.80000 26.983
67.82000 21.685
67.84000 16.061
67.86000 20.529
67.88000 21.960
67.90000 18.747
67.92000 15.324
67.94000 17.372
67.96000 17.963
67.98000 20.318
68.00000 21.799
68.02000 23.835
68.04000 20.663
68.06000 21.418
68.08000 23.076
68.10000 21.402
68.12000 21.092
68.14000 23.117
68.16000 23.037
68.18000 21.978
68.20000 20.808
68.22000 16.647
68.24000 19.534
68.26000 17.246
68.28000 21.332
68.30000 22.481
68.32000 16.075
68.34000 13.034
68.36000 17.844
68.38000 17.949
68.40000 19.618
68.42000 16.945
68.44000 18.060
68.46000 15.160
68.48000 13.239
68.50000 17.233
68.52000 21.352
68.54000 18.231
68.56000 17.876
68.58000 15.861
68.60000 13.218
68.62000 13.395
68.64000 13.604
68.66000 10.379
68.68000 9.783
68.70000 10.031
68.72000 9.628
68.74000 10.987
68.76000 10.050
68.78000 7.174
68.80000 6.466
68.82000 7.401
68.84000 7.640
68.86000 8.874
68.88000 8.678
68.90000 5.983
68.92000 7.230
68.94000 6.555
68.96000 3.815
68.98000 2.268
69.00000 4.350
69.02000 4.342
69.04000 6.116
69.06000 4.950
69.08000 4.458
69.10000 2.597
69.12000 0.848
69.14000 -2.067
69.16000 -2.407
69.18000 2.964
69.20000 5.475
69.22000 2.085
69.24000 1.064
69.26000 -0.797
69.28000 -0.619
69.30000 0.681
69.32000 1.732
69.34000 2.279
69.36000 1.801
69.38000 2.680
69.40000 -2.373
69.42000 -1.363
69.44000 0.917
69.46000 -0.410
69.48000 -2.348
69.50000 0.274
69.52000 -0.002
69.54000 2.062
69.56000 3.249
69.58000 -0.991
69.60000 0.643
69.62000 -0.213
69.64000 1.684
69.66000 -1.330
69.68000 -1.956
69.70000 1.079
69.72000 1.884
69.74000 -1.286
69.76000 0.202
69.78000 0.102
69.80000 3.448
69.82000 2.672
69.84000 -1.676
69.86000 0.373
69.88000 -0.121
69.90000 -0.454
69.92000 1.420
69.94000 2.817
69.96000 0.131
69.98000 1.167
70.00000 0.111
70.02000 2.778
70.04000 3.017
70.06000 2.340
70.08000 2.327
70.10000 2.296
70.12000 2.107
70.14000 -0.022
70.16000 -2.301
70.18000 -1.553
70.20000 -0.171
70.22000 0.978
70.24000 -1.144
70.26000 -0.734
70.28000 3.120
70.30000 3.176
70.32000 3.082
70.34000 4.083
70.36000 2.274
70.38000 0.685
70.40000 1.939
70.42000 2.693
70.44000 4.205
70.46000 4.377
70.48000 6.117
70.50000 3.845
70.52000 -0.835
70.54000 -1.566
70.56000 2.698
70.58000 3.661
70.60000 0.414
70.62000 1.288
70.64000 1.672
70.66000 1.995
70.68000 1.215
70.70000 1.218
70.72000 2.893
70.74000 1.168
70.76000 1.895
70.78000 -1.235
70.80000 -0.455
70.82000 1.422
70.84000 -2.285
70.86000 -0.054
70.88000 4.484
70.90000 1.680
70.92000 -0.851
70.94000 0.441
70.96000 4.759
70.98000 4.742
71.00000 5.409
71.02000 4.364
71.04000 6.195
71.06000 2.323
71.08000 0.159
71.10000 -2.285
71.12000 -0.054
71.14000 3.678
71.16000 -1.312
71.18000 -1.313
71.20000 -1.349
71.22000 -1.180
71.24000 0.494
71.26000 -0.013
71.28000 0.178
71.30000 -1.060
71.32000 -2.284
71.34000 -0.107
71.36000 -2.282
71.38000 2.925
71.40000 3.984
71.42000 0.188
71.44000 0.250
71.46000 -0.649
71.48000 -0.886
71.50000 0.922
71.52000 2.479
71.54000 3.474
71.56000 0.223
71.58000 0.163
71.60000 -1.439
71.62000 -1.505
71.64000 -0.665
71.66000 -0.309
71.68000 -1.879
71.70000 -2.275
71.72000 -1.014
71.74000 -0.215
71.76000 -1.523
71.78000 0.535
71.80000 1.653
71.82000 3.023
71.84000 -2.220
71.86000 -2.057
71.88000 2.165
71.90000 -0.637
71.92000 -0.823
71.94000 -2.138
71.96000 -0.299
71.98000 -0.824
72.00000 0.434
72.02000 -0.949
72.04000 -0.064
72.06000 1.563
72.08000 -2.255
72.10000 1.715
72.12000 5.866
72.14000 4.603
72.16000 3.624
72.18000 -0.297
72.20000 1.331
72.22000 1.247
72.24000 4.532
72.26000 5.193
72.28000 4.461
72.30000 4.651
72.32000 3.428
72.34000 -1.845
72.36000 0.129
72.38000 1.636
72.40000 1.204
72.42000 1.891
72.44000 2.599
72.46000 -2.152
72.48000 0.192
72.50000 3.846
72.52000 -0.350
72.54000 2.010
72.56000 2.044
72.58000 1.260
72.60000 2.365
72.62000 -1.571
72.64000 1.107
72.66000 0.696
72.68000 -1.496
72.70000 -2.218
72.72000 2.151
72.74000 8.865
72.76000 3.074
72.78000 0.632
72.80000 -1.162
72.82000 -0.851
72.84000 4.510
72.86000 8.681
72.88000 5.183
72.90000 2.060
72.92000 2.198
72.94000 0.968
72.96000 -0.671
72.98000 0.798
73.00000 1.709
73.02000 1.390
73.04000 -0.915
73.06000 0.742
73.08000 2.752
73.10000 0.851
73.12000 2.130
73.14000 2.739
73.16000 5.035
73.18000 2.861
73.20000 0.971
73.22000 -1.796
73.24000 -2.203
73.26000 2.919
73.28000 1.868
73.30000 1.296
73.32000 -0.167
73.34000 -0.437
73.36000 2.910
73.38000 4.025
73.40000 0.752
73.42000 1.428
73.44000 2.596
73.46000 4.146
73.48000 0.694
73.50000 -2.183
73.52000 -0.322
73.54000 -0.571
73.56000 3.245
73.58000 2.623
73.60000 2.912
73.62000 2.594
73.64000 -2.176
73.66000 0.500
73.68000 2.413
73.70000 7.160
73.72000 2.548
73.74000 1.502
73.76000 2.550
73.78000 3.389
73.80000 3.011
73.82000 2.035
73.84000 0.570
73.86000 -1.023
73.88000 0.488
73.90000 -0.428
73.92000 -1.815
73.94000 -0.553
73.96000 1.198
73.98000 1.478
74.00000 3.972
74.02000 5.709
74.04000 3.702
74.06000 0.386
74.08000 -1.119
74.10000 -1.311
74.12000 1.148
74.14000 2.932
74.16000 3.208
74.18000 -0.857
74.20000 0.896
74.22000 1.988
74.24000 2.772
74.26000 1.895
74.28000 -0.050
74.30000 2.121
74.32000 3.897
74.34000 0.020
74.36000 -2.194
74.38000 -1.407
74.40000 -0.649
74.42000 1.329
74.44000 3.424
74.46000 6.029
74.48000 4.559
74.50000 2.149
74.52000 3.133
74.54000 2.898
74.56000 3.800
74.58000 3.128
74.60000 1.496
74.62000 0.119
74.64000 0.278
74.66000 1.300
74.68000 1.291
74.70000 5.766
74.72000 2.810
74.74000 -0.056
74.76000 3.180
74.78000 4.190
74.80000 6.423
74.82000 8.800
74.84000 3.664
74.86000 5.485
74.88000 9.467
74.90000 6.425
74.92000 7.343
74.94000 9.315
74.96000 4.392
74.98000 1.714
75.00000 1.157
75.02000 3.853
75.04000 5.175
75.06000 2.897
75.08000 1.854
75.10000 0.926
75.12000 -0.298
75.14000 -2.166
75.16000 2.487
75.18000 2.711
75.20000 2.008
75.22000 7.524
75.24000 4.563
75.26000 4.371
75.28000 6.798
75.30000 8.747
75.32000 5.784
75.34000 4.599
75.36000 5.825
75.38000 3.592
75.40000 -0.708
75.42000 2.183
75.44000 4.251
75.46000 1.760
75.48000 4.841
75.50000 1.509
75.52000 1.637
75.54000 -1.371
75.56000 -0.172
75.58000 -0.781
75.60000 4.987
75.62000 5.433
75.64000 4.412
75.66000 2.776
75.68000 5.392
75.70000 3.134
75.72000 -1.137
75.74000 2.508
75.76000 3.658
75.78000 1.704
75.80000 4.066
75.82000 -0.101
75.84000 -1.426
75.86000 1.475
75.88000 2.714
75.90000 2.967
75.92000 5.345
75.94000 5.415
75.96000 4.063
75.98000 3.619
76.00000 0.433
76.02000 3.900
76.04000 3.733
76.06000 0.789
76.08000 1.051
76.10000 3.651
76.12000 6.083
76.14000 2.159
76.16000 -1.951
76.18000 -0.619
76.20000 0.340
76.22000 1.542
76.24000 6.039
76.26000 5.547
76.28000 6.071
76.30000 10.003
76.32000 7.151
76.34000 3.360
76.36000 2.019
76.38000 3.479
76.40000 -0.283
76.42000 2.683
76.44000 1.762
76.46000 4.928
76.48000 4.392
76.50000 3.943
76.52000 2.886
76.54000 0.979
76.56000 -2.190
76.58000 1.550
76.60000 3.305
76.62000 4.661
76.64000 3.626
76.66000 1.539
76.68000 0.405
76.70000 2.086
76.72000 3.252
76.74000 4.035
76.76000 3.031
76.78000 0.137
76.80000 3.133
76.82000 2.821
76.84000 2.506
76.86000 2.400
76.88000 -0.135
76.90000 0.353
76.92000 3.006
76.94000 4.896
76.96000 3.029
76.98000 1.064
77.00000 0.346
77.02000 0.281
77.04000 1.770
77.06000 2.511
77.08000 0.806
77.10000 0.582
77.12000 4.177
77.14000 7.761
77.16000 4.882
77.18000 3.264
77.20000 2.754
77.22000 -2.200
77.24000 7.067
77.26000 3.469
77.28000 2.430
77.30000 1.087
77.32000 2.843
77.34000 5.177
77.36000 1.957
77.38000 5.195
77.40000 1.044
77.42000 1.424
77.44000 1.438
77.46000 4.467
77.48000 4.240
77.50000 4.780
77.52000 4.893
77.54000 6.034
77.56000 5.365
77.58000 4.005
77.60000 3.859
77.62000 1.334
77.64000 -2.210
77.66000 1.768
77.68000 1.757
77.70000 1.366
77.72000 3.363
77.74000 5.003
77.76000 4.702
77.78000 4.850
77.80000 1.483
77.82000 6.176
77.84000 6.711
77.86000 5.771
77.88000 4.490
77.90000 5.730
77.92000 3.251
77.94000 2.403
77.96000 5.375
77.98000 3.794
78.00000 1.928
78.02000 -2.209
78.04000 3.493
78.06000 1.017
78.08000 0.776
78.10000 -0.257
78.12000 -0.761
78.14000 -0.298
78.16000 2.959
78.18000 4.290
78.20000 7.784
78.22000 4.284
78.24000 1.290
78.26000 1.416
78.28000 2.532
78.30000 2.284
78.32000 1.379
78.34000 2.436
78.36000 2.234
78.38000 1.499
78.40000 -0.493
78.42000 5.040
78.44000 1.664
78.46000 0.267
78.48000 4.949
78.50000 3.550
78.52000 1.194
78.54000 3.991
78.56000 5.661
78.58000 2.321
78.60000 3.091
78.62000 5.425
78.64000 5.161
78.66000 4.565
78.68000 0.530
78.70000 5.044
78.72000 3.276
78.74000 2.362
78.76000 4.065
78.78000 3.470
78.80000 4.049
78.82000 4.130
78.84000 1.690
78.86000 1.498
78.88000 0.793
78.90000 2.156
78.92000 -0.143
78.94000 -2.276
78.96000 2.002
78.98000 3.266
79.00000 5.329
79.02000 8.279
79.04000 5.311
79.06000 2.203
79.08000 -2.292
79.10000 -0.240
79.12000 1.617
79.14000 -0.655
79.16000 -0.476
79.18000 0.896
79.20000 3.739
79.22000 2.237
79.24000 7.055
79.26000 3.328
79.28000 2.977
79.30000 2.059
79.32000 0.737
79.34000 5.404
79.36000 3.698
79.38000 1.471
79.40000 0.189
79.42000 -1.665
79.44000 -0.266
79.46000 0.790
79.48000 -0.016
79.50000 1.912
79.52000 0.469
79.54000 0.211
79.56000 0.192
79.58000 1.241
79.60000 2.208
79.62000 3.648
79.64000 1.207
79.66000 -0.057
79.68000 2.368
79.70000 4.219
79.72000 3.039
79.74000 1.344
79.76000 -1.552
79.78000 1.095
79.80000 3.439
79.82000 2.428
79.84000 4.904
79.86000 3.321
79.88000 3.892
79.90000 0.549
79.92000 1.616
79.94000 1.668
79.96000 -0.234
79.98000 -0.635
80.00000 -2.395
80.02000 2.819
80.04000 3.191
80.06000 4.312
80.08000 4.796
80.10000 1.646
80.12000 1.160
80.14000 0.997
80.16000 4.973
80.18000 4.141
80.20000 0.879
80.22000 -0.759
80.24000 -0.570
80.26000 3.876
80.28000 2.559
80.30000 2.910
80.32000 0.237
80.34000 3.189
80.36000 1.793
80.38000 -1.174
80.40000 -0.103
80.42000 -0.913
80.44000 -1.366
80.46000 -0.436
80.48000 2.538
80.50000 3.665
80.52000 4.805
80.54000 5.604
80.56000 3.591
80.58000 3.111
80.60000 2.002
80.62000 2.830
80.64000 1.837
80.66000 3.945
80.68000 8.506
80.70000 9.599
80.72000 8.247
80.74000 6.798
80.76000 8.474
80.78000 7.786
80.80000 7.808
80.82000 6.229
80.84000 7.884
80.86000 8.921
80.88000 6.443
80.90000 6.740
80.92000 6.782
80.94000 9.987
80.96000 9.471
80.98000 8.601
81.00000 8.750
81.02000 11.260
81.04000 9.571
81.06000 7.877
81.08000 13.401
81.10000 14.279
81.12000 12.857
81.14000 12.444
81.16000 12.186
81.18000 12.156
81.20000 14.968
81.22000 17.704
81.24000 17.100
81.26000 14.569
81.28000 14.335
81.30000 14.450
81.32000 20.449
81.34000 22.934
81.36000 21.272
81.38000 19.410
81.40000 15.464
81.42000 19.771
81.44000 19.556
81.46000 19.395
81.48000 22.296
81.50000 20.719
81.52000 25.194
81.54000 25.485
81.56000 23.805
81.58000 26.043
81.60000 25.556
81.62000 27.184
81.64000 23.904
81.66000 25.026
81.68000 24.600
81.70000 21.991
81.72000 22.457
81.74000 20.003
81.76000 24.531
81.78000 31.013
81.80000 30.578
81.82000 24.154
81.84000 26.460
81.86000 32.191
81.88000 26.152
81.90000 21.269
81.92000 26.202
81.94000 32.638
81.96000 28.472
81.98000 26.708
82.00000 32.924
82.02000 33.100
82.04000 27.619
82.06000 30.873
82.08000 27.528
82.10000 28.491
82.12000 32.971
82.14000 35.146
82.16000 30.164
82.18000 26.533
82.20000 29.912
82.22000 30.172
82.24000 30.142
82.26000 30.833
82.28000 35.854
82.30000 34.563
82.32000 30.869
82.34000 26.465
82.36000 28.476
82.38000 25.701
82.40000 26.648
82.42000 26.813
82.44000 30.819
82.46000 27.427
82.48000 26.468
82.50000 25.627
82.52000 24.090
82.54000 24.296
82.56000 24.233
82.58000 21.171
82.60000 24.947
82.62000 21.190
82.64000 18.302
82.66000 17.897
82.68000 19.533
82.70000 20.217
82.72000 18.955
82.74000 15.520
82.76000 17.561
82.78000 18.339
82.80000 17.452
82.82000 18.321
82.84000 19.524
82.86000 16.329
82.88000 14.225
82.90000 18.197
82.92000 16.469
82.94000 9.673
82.96000 10.382
82.98000 12.016
83.00000 6.256
83.02000 6.246
83.04000 3.375
83.06000 6.931
83.08000 5.980
83.10000 9.701
83.12000 10.948
83.14000 8.366
83.16000 9.463
83.18000 6.245
83.20000 1.593
83.22000 6.076
83.24000 8.063
83.26000 2.086
83.28000 3.610
83.30000 8.091
83.32000 4.015
83.34000 4.530
83.36000 4.393
83.38000 12.437
83.40000 11.571
83.42000 7.506
83.44000 2.598
83.46000 0.199
83.48000 6.262
83.50000 8.973
83.52000 8.831
83.54000 10.331
83.56000 5.729
83.58000 1.716
83.60000 3.176
83.62000 1.019
83.64000 0.637
83.66000 1.680
83.68000 -2.357
83.70000 2.307
83.72000 5.123
83.74000 2.794
83.76000 -0.563
83.78000 1.609
83.80000 7.042
83.82000 2.026
83.84000 3.047
83.86000 0.495
83.88000 2.780
83.90000 0.641
83.92000 3.110
83.94000 7.004
83.96000 3.507
83.98000 0.904
84.00000 5.874
84.02000 4.822
84.04000 2.430
84.06000 1.199
84.08000 7.280
84.10000 7.550
84.12000 4.466
84.14000 3.646
84.16000 4.246
84.18000 1.430
84.20000 3.597
84.22000 2.116
84.24000 -0.224
84.26000 -2.345
84.28000 -2.115
84.30000 -0.529
84.32000 1.666
84.34000 0.460
84.36000 -0.369
84.38000 2.701
84.40000 1.110
84.42000 1.400
84.44000 1.530
84.46000 1.960
84.48000 -2.112
84.50000 -1.914
84.52000 0.957
84.54000 0.814
84.56000 1.759
84.58000 -0.623
84.60000 3.873
84.62000 2.952
84.64000 3.188
84.66000 0.471
84.68000 2.429
84.70000 4.012
84.72000 2.099
84.74000 3.832
84.76000 2.451
84.78000 3.764
84.80000 1.750
84.82000 4.252
84.84000 5.881
84.86000 4.859
84.88000 0.166
84.90000 1.201
84.92000 4.498
84.94000 3.301
84.96000 1.130
84.98000 0.602
85.00000 -1.797
85.02000 -0.905
85.04000 -0.773
85.06000 0.886
85.08000 2.865
85.10000 5.267
85.12000 6.137
85.14000 5.438
85.16000 7.312
85.18000 1.250
85.20000 0.462
85.22000 5.564
85.24000 4.914
85.26000 2.530
85.28000 9.094
85.30000 2.688
85.32000 6.247
85.34000 6.642
85.36000 8.316
85.38000 8.110
85.40000 5.239
85.42000 8.775
85.44000 11.182
85.46000 13.709
85.48000 12.213
85.50000 12.865
85.52000 13.201
85.54000 12.844
85.56000 12.022
85.58000 15.877
85.60000 17.137
85.62000 15.428
85.64000 11.680
85.66000 11.401
85.68000 12.623
85.70000 16.443
85.72000 20.005
85.74000 20.071
85.76000 21.302
85.78000 17.388
85.80000 18.553
85.82000 24.386
85.84000 23.779
85.86000 25.773
85.88000 24.742
85.90000 22.233
85.92000 23.279
85.94000 24.359
85.96000 22.539
85.98000 21.827
86.00000 22.211
86.02000 26.130
86.04000 28.477
86.06000 25.289
86.08000 24.347
86.10000 26.839
86.12000 28.949
86.14000 25.199
86.16000 29.199
86.18000 31.068
86.20000 28.739
86.22000 25.624
86.24000 24.135
86.26000 24.433
86.28000 22.693
86.30000 27.754
86.32000 28.628
86.34000 27.498
86.36000 27.305
86.38000 26.670
86.40000 22.390
86.42000 22.601
86.44000 24.898
86.46000 24.222
86.48000 27.014
86.50000 22.681
86.52000 23.862
86.54000 23.541
86.56000 22.080
86.58000 16.666
86.60000 17.602
86.62000 15.377
86.64000 13.971
86.66000 16.199
86.68000 16.048
86.70000 19.605
86.72000 16.940
86.74000 14.734
86.76000 10.887
86.78000 9.871
86.80000 6.304
86.82000 9.982
86.84000 8.237
86.86000 7.766
86.88000 10.709
86.90000 11.987
86.92000 11.357
86.94000 12.269
86.96000 4.775
86.98000 2.735
87.00000 3.751
87.02000 9.435
87.04000 10.737
87.06000 9.127
87.08000 7.063
87.10000 4.490
87.12000 2.102
87.14000 1.922
87.16000 2.562
87.18000 6.837
87.20000 9.040
87.22000 4.148
87.24000 6.514
87.26000 7.952
87.28000 1.634
87.30000 1.434
87.32000 -0.963
87.34000 1.150
87.36000 3.073
87.38000 1.658
87.40000 1.961
87.42000 2.286
87.44000 -0.006
87.46000 4.505
87.48000 1.983
87.50000 3.521
87.52000 4.883
87.54000 3.636
87.56000 1.140
87.58000 -2.259
87.60000 1.168
87.62000 0.293
87.64000 0.118
87.66000 0.238
87.68000 1.179
87.70000 2.182
87.72000 1.070
87.74000 2.233
87.76000 -0.569
87.78000 -1.141
87.80000 -1.644
87.82000 1.303
87.84000 1.990
87.86000 3.480
87.88000 4.132
87.90000 6.044
87.92000 0.862
87.94000 -2.211
87.96000 1.238
87.98000 -1.157
88.00000 0.330
88.02000 -1.149
88.04000 -0.576
88.06000 -1.029
88.08000 -1.297
88.10000 -2.125
88.12000 -1.433
88.14000 1.669
88.16000 1.046
88.18000 0.707
88.20000 -1.705
88.22000 -2.172
88.24000 3.448
88.26000 2.277
88.28000 2.340
88.30000 -0.931
88.32000 -2.160
88.34000 2.920
88.36000 3.717
88.38000 1.168
88.40000 0.600
88.42000 1.601
88.44000 5.077
88.46000 2.346
88.48000 -0.126
88.50000 -0.820
88.52000 -0.480
88.54000 4.998
88.56000 3.349
88.58000 3.466
88.60000 1.405
88.62000 -2.127
88.64000 0.704
88.66000 3.691
88.68000 4.453
88.70000 5.784
88.72000 2.379
88.74000 4.151
88.76000 2.007
88.78000 -1.498
88.80000 -0.206
88.82000 1.412
88.84000 4.416
88.86000 2.516
88.88000 0.122
88.90000 2.603
88.92000 -0.460
88.94000 -0.917
88.96000 -1.523
88.98000 -0.109
89.00000 -0.252
89.02000 4.443
89.04000 4.439
89.06000 4.069
89.08000 -2.101
89.10000 -0.518
89.12000 2.971
89.14000 2.620
89.16000 1.317
89.18000 1.082
89.20000 0.821
89.22000 -1.775
89.24000 1.265
89.26000 1.671
89.28000 0.055
89.30000 0.459
89.32000 1.822
89.34000 -0.342
89.36000 -1.834
89.38000 0.141
89.40000 0.053
89.42000 0.002
89.44000 3.693
89.46000 4.155
89.48000 3.722
89.50000 0.756
89.52000 3.219
89.54000 3.349
89.56000 3.250
89.58000 3.101
89.60000 5.820
89.62000 3.917
89.64000 2.063
89.66000 -0.232
89.68000 2.861
89.70000 4.501
89.72000 8.287
89.74000 5.825
89.76000 -0.695
89.78000 1.083
89.80000 -1.166
89.82000 -2.071
89.84000 -1.344
89.86000 -1.783
89.88000 -0.427
89.90000 0.386
89.92000 1.920
89.94000 3.523
89.96000 2.620
89.98000 1.714
90.00000 5.060
90.02000 5.522
90.04000 1.483
90.06000 1.835
90.08000 -0.494
90.10000 2.082
90.12000 5.160
90.14000 3.408
90.16000 -0.692
90.18000 -1.296
90.20000 -1.372
90.22000 3.315
90.24000 5.386
90.26000 4.303
90.28000 2.336
90.30000 3.130
90.32000 1.953
90.34000 2.580
90.36000 1.953
90.38000 3.413
90.40000 1.710
90.42000 1.410
90.44000 1.527
90.46000 -1.766
90.48000 1.909
90.50000 3.371
90.52000 2.622
90.54000 3.500
90.56000 5.276
90.58000 3.526
90.60000 2.685
90.62000 2.115
90.64000 1.339
90.66000 4.757
90.68000 2.983
90.70000 -2.053
90.72000 -1.075
90.74000 0.857
90.76000 4.958
90.78000 4.979
90.80000 4.689
90.82000 3.437
90.84000 2.812
90.86000 1.431
90.88000 4.136
90.90000 3.494
90.92000 1.707
90.94000 3.434
90.96000 5.621
90.98000 2.504
91.00000 1.670
91.02000 -0.236
91.04000 -0.478
91.06000 4.630
91.08000 5.858
91.10000 4.144
91.12000 3.885
91.14000 1.425
91.16000 3.044
91.18000 3.094
91.20000 4.575
91.22000 5.797
91.24000 4.426
91.26000 5.113
91.28000 2.534
91.30000 0.495
91.32000 1.445
91.34000 4.021
91.36000 5.150
91.38000 5.858
91.40000 8.567
91.42000 6.907
91.44000 4.951
91.46000 1.115
91.48000 3.421
91.50000 10.413
91.52000 4.360
91.54000 4.547
91.56000 5.907
91.58000 -2.011
91.60000 1.088
91.62000 5.086
91.64000 2.258
91.66000 2.391
91.68000 3.658
91.70000 9.986
91.72000 7.826
91.74000 3.494
91.76000 2.059
91.78000 4.862
91.80000 6.076
91.82000 6.086
91.84000 2.533
91.86000 2.214
91.88000 2.178
91.90000 4.898
91.92000 6.657
91.94000 4.822
91.96000 2.660
91.98000 5.438
92.00000 5.677
92.02000 5.983
92.04000 5.184
92.06000 6.256
92.08000 4.256
92.10000 9.099
92.12000 4.403
92.14000 6.952
92.16000 6.471
92.18000 4.103
92.20000 5.536
92.22000 3.850
92.24000 2.455
92.26000 2.042
92.28000 5.622
92.30000 7.010
92.32000 5.794
92.34000 -0.578
92.36000 0.480
92.38000 5.454
92.40000 3.061
92.42000 3.679
92.44000 6.601
92.46000 3.700
92.48000 -1.204
92.50000 -2.036
92.52000 1.935
92.54000 3.867
92.56000 5.744
92.58000 3.648
92.60000 1.488
92.62000 0.935
92.64000 2.094
92.66000 5.599
92.68000 5.128
92.70000 3.249
92.72000 5.632
92.74000 6.742
92.76000 5.491
92.78000 7.858
92.80000 -0.206
92.82000 -1.191
92.84000 3.212
92.86000 3.294
92.88000 4.907
92.90000 8.035
92.92000 9.077
92.94000 5.853
92.96000 2.756
92.98000 3.213
93.00000 2.345
93.02000 1.143
93.04000 3.199
93.06000 3.420
93.08000 3.628
93.10000 8.463
93.12000 5.553
93.14000 4.761
93.16000 7.475
93.18000 1.964
93.20000 -0.296
93.22000 1.844
93.24000 5.380
93.26000 8.320
93.28000 8.093
93.30000 2.585
93.32000 1.530
93.34000 0.826
93.36000 4.997
93.38000 3.745
93.40000 -0.490
93.42000 1.853
93.44000 6.817
93.46000 3.580
93.48000 2.435
93.50000 2.675
93.52000 1.939
93.54000 1.851
93.56000 6.570
93.58000 3.333
93.60000 2.473
93.62000 1.760
93.64000 4.428
93.66000 5.254
93.68000 2.106
93.70000 3.674
93.72000 1.080
93.74000 2.466
93.76000 5.141
93.78000 3.628
93.80000 3.541
93.82000 2.158
93.84000 9.780
93.86000 5.810
93.88000 0.895
93.90000 2.121
93.92000 1.332
93.94000 2.452
93.96000 8.147
93.98000 10.198
94.00000 5.241
94.02000 4.106
94.04000 5.520
94.06000 3.464
94.08000 0.673
94.10000 0.246
94.12000 2.889
94.14000 2.187
94.16000 1.384
94.18000 -2.060
94.20000 2.925
94.22000 2.441
94.24000 4.120
94.26000 1.353
94.28000 4.255
94.30000 8.704
94.32000 8.381
94.34000 4.737
94.36000 0.025
94.38000 1.654
94.40000 3.433
94.42000 2.077
94.44000 3.798
94.46000 3.853
94.48000 3.941
94.50000 3.804
94.52000 0.635
94.54000 1.188
94.56000 0.501
94.58000 0.817
94.60000 -1.004
94.62000 2.662
94.64000 4.706
94.66000 4.354
94.68000 3.278
94.70000 5.781
94.72000 4.755
94.74000 1.916
94.76000 4.346
94.78000 2.785
94.80000 3.416
94.82000 0.269
94.84000 -2.099
94.86000 0.503
94.88000 3.958
94.90000 7.499
94.92000 3.982
94.94000 2.094
94.96000 3.034
94.98000 4.639
95.00000 2.281
95.02000 2.070
95.04000 -1.281
95.06000 0.633
95.08000 1.424
95.10000 0.660
95.12000 0.723
95.14000 3.874
95.16000 3.295
95.18000 9.970
95.20000 6.128
95.22000 5.094
95.24000 4.526
95.26000 0.273
95.28000 1.739
95.30000 4.685
95.32000 2.885
95.34000 0.670
95.36000 -2.026
95.38000 0.721
95.40000 0.331
95.42000 -2.104
95.44000 -0.719
95.46000 1.676
95.48000 0.572
95.50000 2.127
95.52000 2.067
95.54000 1.981
95.56000 0.376
95.58000 0.253
95.60000 2.502
95.62000 2.330
95.64000 3.414
95.66000 1.484
95.68000 4.226
95.70000 7.344
95.72000 4.855
95.74000 -0.863
95.76000 0.213
95.78000 3.088
95.80000 2.694
95.82000 0.430
95.84000 3.380
95.86000 0.279
95.88000 -1.956
95.90000 1.552
95.92000 1.426
95.94000 3.102
95.96000 1.403
95.98000 0.886
96.00000 -2.094
96.02000 -1.387
96.04000 5.151
96.06000 1.158
96.08000 3.773
96.10000 4.320
96.12000 0.513
96.14000 0.622
96.16000 4.174
96.18000 5.359
96.20000 4.208
96.22000 3.276
96.24000 0.941
96.26000 6.144
96.28000 5.995
96.30000 3.844
96.32000 0.968
96.34000 6.253
96.36000 9.054
96.38000 2.886
96.40000 9.058
96.42000 5.487
96.44000 2.533
96.46000 2.619
96.48000 3.871
96.50000 7.421
96.52000 6.582
96.54000 3.631
96.56000 4.844
96.58000 5.801
96.60000 2.509
96.62000 3.694
96.64000 3.339
96.66000 1.351
96.68000 -1.477
96.70000 0.812
96.72000 2.862
96.74000 -1.409
96.76000 5.042
96.78000 8.906
96.80000 7.226
96.82000 3.873
96.84000 4.298
96.86000 6.480
96.88000 3.759
96.90000 6.622
96.92000 5.728
96.94000 5.742
96.96000 2.859
96.98000 3.013
97.00000 4.234
97.02000 5.289
97.04000 4.229
97.06000 8.537
97.08000 2.869
97.10000 2.089
97.12000 2.298
97.14000 3.169
97.16000 6.208
97.18000 7.141
97.20000 3.695
97.22000 7.539
97.24000 10.655
97.26000 10.671
97.28000 1.803
97.30000 -2.029
97.32000 0.233
97.34000 -0.582
97.36000 5.173
97.38000 10.239
97.40000 9.124
97.42000 7.582
97.44000 4.979
97.46000 6.015
97.48000 10.129
97.50000 5.179
97.52000 6.057
97.54000 9.555
97.56000 9.491
97.58000 10.097
97.60000 1.362
97.62000 3.656
97.64000 4.608
97.66000 6.969
97.68000 5.057
97.70000 4.031
97.72000 -2.024
97.74000 0.152
97.76000 7.296
97.78000 8.576
97.80000 8.317
97.82000 5.158
97.84000 5.149
97.86000 2.640
97.88000 5.277
97.90000 4.624
97.92000 7.550
97.94000 9.747
97.96000 6.188
97.98000 5.200
98.00000 2.947
98.02000 5.792
98.04000 5.570
98.06000 11.748
98.08000 4.494
98.10000 6.943
98.12000 5.558
98.14000 0.382
98.16000 1.321
98.18000 9.730
98.20000 10.371
98.22000 8.475
98.24000 7.978
98.26000 1.704
98.28000 7.951
98.30000 12.664
98.32000 6.601
98.34000 6.069
98.36000 8.169
98.38000 6.691
98.40000 5.436
98.42000 6.580
98.44000 -3.069
98.46000 3.510
98.48000 5.535
98.50000 3.702
98.52000 6.152
98.54000 13.236
98.56000 13.496
98.58000 12.255
98.60000 12.047
98.62000 11.075
98.64000 10.978
98.66000 8.498
98.68000 10.991
98.70000 5.963
98.72000 0.151
98.74000 -0.528
98.76000 1.383
98.78000 0.618
98.80000 0.092
98.82000 4.232
98.84000 7.718
98.86000 8.020
98.88000 12.831
98.90000 8.179
98.92000 1.630
98.94000 2.840
98.96000 5.313
98.98000 5.045
99.00000 -1.144
99.02000 0.279
99.04000 6.904
99.06000 10.776
99.08000 4.247
99.10000 -3.528
99.12000 8.755
99.14000 8.607
99.16000 5.241
99.18000 9.303
99.20000 5.364
99.22000 1.397
99.24000 2.847
99.26000 4.913
99.28000 1.594
99.30000 4.157
99.32000 6.589
99.34000 4.626
99.36000 10.140
99.38000 5.793
99.40000 2.276
99.42000 6.221
99.44000 -2.029
99.46000 3.706
99.48000 5.738
99.50000 5.624
99.52000 11.355
99.54000 11.056
99.56000 5.806
99.58000 4.271
99.60000 -4.519
99.62000 6.291
99.64000 11.463
99.66000 5.679
99.68000 -2.118
99.70000 4.994
99.72000 5.970
99.74000 0.022
99.76000 10.436
99.78000 9.874
99.80000 9.505
99.82000 15.801
99.84000 -0.627
99.86000 2.311
99.88000 1.348
99.90000 1.194
99.92000 0.646
99.94000 3.190
99.96000 -2.147
99.98000 0.000
