'Id: "0011389" Comment: "Integrate frame 0011389_Au-Ir-Rh_Au-Rich_XRD_Mapping-202-0000.gfrmwith cursor Wedge Cursor #5" Operator: "B?rgel" Anode: "Cu" Wavelength: "1.5406" Scantype: "2Theta (TwoTheta)" TimePerStep: "1" X: "-31.5" Y: "9" Z: "5.95" 
10.00000 0.000
10.02000 -4.580
10.04000 5.387
10.06000 6.803
10.08000 -4.568
10.10000 12.597
10.12000 21.982
10.14000 5.196
10.16000 12.570
10.18000 6.096
10.20000 6.039
10.22000 0.435
10.24000 4.220
10.26000 13.810
10.28000 -0.633
10.30000 3.624
10.32000 9.968
10.34000 17.975
10.36000 4.357
10.38000 7.809
10.40000 3.808
10.42000 -0.650
10.44000 13.671
10.46000 6.426
10.48000 -0.138
10.50000 4.191
10.52000 9.517
10.54000 -2.072
10.56000 5.902
10.58000 21.609
10.60000 8.159
10.62000 -0.622
10.64000 -4.565
10.66000 7.012
10.68000 15.663
10.70000 8.530
10.72000 19.416
10.74000 17.108
10.76000 1.318
10.78000 4.946
10.80000 6.584
10.82000 -2.505
10.84000 -0.554
10.86000 3.576
10.88000 7.754
10.90000 0.915
10.92000 22.952
10.94000 21.321
10.96000 18.546
10.98000 6.913
11.00000 -2.935
11.02000 4.037
11.04000 12.437
11.06000 3.382
11.08000 3.110
11.10000 5.930
11.12000 7.873
11.14000 7.462
11.16000 5.077
11.18000 -2.075
11.20000 3.064
11.22000 12.621
11.24000 15.497
11.26000 10.650
11.28000 3.625
11.30000 5.509
11.32000 8.518
11.34000 3.298
11.36000 8.692
11.38000 4.814
11.40000 13.356
11.42000 17.186
11.44000 24.729
11.46000 10.284
11.48000 6.462
11.50000 7.389
11.52000 -0.156
11.54000 -1.647
11.56000 5.987
11.58000 21.731
11.60000 13.180
11.62000 2.462
11.64000 18.520
11.66000 15.750
11.68000 6.853
11.70000 12.575
11.72000 6.841
11.74000 8.362
11.76000 14.333
11.78000 26.193
11.80000 22.974
11.82000 7.711
11.84000 3.877
11.86000 13.006
11.88000 12.663
11.90000 11.445
11.92000 9.426
11.94000 29.919
11.96000 15.722
11.98000 8.926
12.00000 6.068
12.02000 5.974
12.04000 12.747
12.06000 10.821
12.08000 15.533
12.10000 8.807
12.12000 6.431
12.14000 -2.444
12.16000 7.874
12.18000 7.857
12.20000 1.790
12.22000 12.317
12.24000 19.492
12.26000 14.336
12.28000 7.898
12.30000 11.192
12.32000 15.003
12.34000 22.653
12.36000 18.172
12.38000 14.403
12.40000 21.632
12.42000 15.384
12.44000 19.971
12.46000 8.704
12.48000 4.643
12.50000 6.467
12.52000 7.203
12.54000 13.078
12.56000 13.536
12.58000 19.966
12.60000 16.411
12.62000 10.906
12.64000 7.366
12.66000 18.617
12.68000 13.762
12.70000 6.204
12.72000 2.153
12.74000 10.599
12.76000 11.973
12.78000 10.459
12.80000 8.386
12.82000 19.864
12.84000 29.860
12.86000 20.537
12.88000 12.902
12.90000 13.834
12.92000 10.243
12.94000 10.849
12.96000 -4.490
12.98000 4.271
13.00000 4.840
13.02000 5.405
13.04000 13.012
13.06000 14.160
13.08000 11.673
13.10000 10.528
13.12000 15.446
13.14000 18.232
13.16000 24.921
13.18000 28.635
13.20000 16.749
13.22000 20.589
13.24000 25.081
13.26000 10.326
13.28000 16.240
13.30000 21.192
13.32000 19.983
13.34000 26.869
13.36000 22.628
13.38000 20.126
13.40000 14.429
13.42000 10.907
13.44000 5.508
13.46000 4.380
13.48000 8.823
13.50000 4.288
13.52000 2.684
13.54000 7.269
13.56000 10.963
13.58000 4.880
13.60000 0.083
13.62000 8.523
13.64000 9.004
13.66000 9.289
13.68000 7.484
13.70000 3.167
13.72000 1.824
13.74000 17.891
13.76000 18.425
13.78000 4.185
13.80000 -0.440
13.82000 5.064
13.84000 1.694
13.86000 3.716
13.88000 4.411
13.90000 9.973
13.92000 12.610
13.94000 0.551
13.96000 1.936
13.98000 9.029
14.00000 7.241
14.02000 13.268
14.04000 9.066
14.06000 1.900
14.08000 5.531
14.10000 5.474
14.12000 5.691
14.14000 6.234
14.16000 -0.644
14.18000 -4.501
14.20000 2.142
14.22000 9.158
14.24000 13.674
14.26000 17.354
14.28000 9.840
14.30000 4.706
14.32000 7.677
14.34000 14.778
14.36000 9.059
14.38000 6.546
14.40000 10.549
14.42000 7.398
14.44000 16.294
14.46000 17.427
14.48000 15.016
14.50000 3.137
14.52000 -3.385
14.54000 4.905
14.56000 8.374
14.58000 3.597
14.60000 3.266
14.62000 13.161
14.64000 14.670
14.66000 11.985
14.68000 10.194
14.70000 11.699
14.72000 2.060
14.74000 9.085
14.76000 12.648
14.78000 7.045
14.80000 11.127
14.82000 16.927
14.84000 14.814
14.86000 13.075
14.88000 2.040
14.90000 8.397
14.92000 8.916
14.94000 18.154
14.96000 13.209
14.98000 1.997
15.00000 5.827
15.02000 -2.352
15.04000 -0.582
15.06000 12.617
15.08000 16.665
15.10000 6.584
15.12000 6.791
15.14000 7.214
15.16000 1.103
15.18000 6.457
15.20000 5.420
15.22000 4.135
15.24000 12.295
15.26000 10.828
15.28000 8.476
15.30000 7.989
15.32000 14.450
15.34000 7.274
15.36000 10.711
15.38000 11.327
15.40000 10.570
15.42000 9.057
15.44000 12.206
15.46000 4.694
15.48000 -0.658
15.50000 9.156
15.52000 8.839
15.54000 4.575
15.56000 7.256
15.58000 10.627
15.60000 7.620
15.62000 2.129
15.64000 5.579
15.66000 0.428
15.68000 -1.952
15.70000 5.950
15.72000 4.135
15.74000 3.531
15.76000 4.377
15.78000 3.183
15.80000 7.119
15.82000 9.767
15.84000 10.247
15.86000 -0.178
15.88000 6.261
15.90000 16.176
15.92000 6.949
15.94000 -1.304
15.96000 -0.187
15.98000 1.236
16.00000 2.556
16.02000 5.026
16.04000 5.571
16.06000 3.102
16.08000 3.726
16.10000 4.105
16.12000 1.845
16.14000 4.452
16.16000 5.116
16.18000 5.010
16.20000 10.037
16.22000 13.530
16.24000 6.626
16.26000 11.878
16.28000 4.627
16.30000 2.234
16.32000 8.679
16.34000 10.356
16.36000 6.049
16.38000 3.187
16.40000 3.650
16.42000 0.730
16.44000 -4.432
16.46000 2.533
16.48000 11.061
16.50000 6.150
16.52000 3.202
16.54000 9.388
16.56000 7.920
16.58000 8.915
16.60000 18.595
16.62000 14.512
16.64000 2.582
16.66000 1.422
16.68000 -1.984
16.70000 -2.250
16.72000 5.019
16.74000 7.004
16.76000 7.012
16.78000 -1.699
16.80000 2.868
16.82000 4.365
16.84000 12.348
16.86000 15.173
16.88000 9.306
16.90000 5.081
16.92000 2.290
16.94000 -4.395
16.96000 6.662
16.98000 9.560
17.00000 2.981
17.02000 5.414
17.04000 4.844
17.06000 -1.025
17.08000 7.452
17.10000 10.196
17.12000 11.196
17.14000 5.832
17.16000 11.081
17.18000 8.819
17.20000 14.058
17.22000 16.582
17.24000 9.403
17.26000 -2.310
17.28000 4.329
17.30000 6.373
17.32000 12.173
17.34000 9.812
17.36000 10.363
17.38000 12.123
17.40000 7.792
17.42000 3.416
17.44000 9.533
17.46000 4.152
17.48000 3.617
17.50000 12.718
17.52000 17.065
17.54000 10.906
17.56000 8.601
17.58000 7.721
17.60000 14.799
17.62000 5.010
17.64000 -4.357
17.66000 -1.731
17.68000 11.270
17.70000 13.331
17.72000 10.282
17.74000 13.910
17.76000 16.092
17.78000 3.472
17.80000 4.557
17.82000 10.759
17.84000 4.797
17.86000 3.824
17.88000 1.016
17.90000 5.023
17.92000 1.572
17.94000 3.465
17.96000 5.799
17.98000 9.924
18.00000 14.725
18.02000 7.828
18.04000 0.548
18.06000 -2.455
18.08000 5.938
18.10000 12.808
18.12000 13.397
18.14000 11.172
18.16000 11.658
18.18000 13.791
18.20000 14.678
18.22000 16.406
18.24000 19.795
18.26000 17.712
18.28000 5.807
18.30000 2.023
18.32000 -2.092
18.34000 1.144
18.36000 9.149
18.38000 6.869
18.40000 6.708
18.42000 7.609
18.44000 6.510
18.46000 6.027
18.48000 8.187
18.50000 9.170
18.52000 3.175
18.54000 5.607
18.56000 4.143
18.58000 2.130
18.60000 6.781
18.62000 3.522
18.64000 8.259
18.66000 6.949
18.68000 5.668
18.70000 3.002
18.72000 7.487
18.74000 4.289
18.76000 2.221
18.78000 2.915
18.80000 0.366
18.82000 4.876
18.84000 9.541
18.86000 16.015
18.88000 9.543
18.90000 10.638
18.92000 10.921
18.94000 12.930
18.96000 12.313
18.98000 1.552
19.00000 3.805
19.02000 4.603
19.04000 8.498
19.06000 5.139
19.08000 2.055
19.10000 6.348
19.12000 8.643
19.14000 5.037
19.16000 -4.269
19.18000 -3.030
19.20000 -4.266
19.22000 3.801
19.24000 15.288
19.26000 9.938
19.28000 7.335
19.30000 1.318
19.32000 2.748
19.34000 15.215
19.36000 9.760
19.38000 9.600
19.40000 3.350
19.42000 -0.701
19.44000 -2.910
19.46000 2.577
19.48000 3.565
19.50000 0.335
19.52000 6.889
19.54000 10.813
19.56000 8.009
19.58000 11.811
19.60000 7.144
19.62000 2.059
19.64000 10.401
19.66000 8.931
19.68000 8.612
19.70000 9.067
19.72000 11.421
19.74000 4.717
19.76000 0.620
19.78000 2.985
19.80000 4.926
19.82000 7.607
19.84000 3.836
19.86000 0.576
19.88000 3.914
19.90000 -0.193
19.92000 4.211
19.94000 4.192
19.96000 7.077
19.98000 10.265
20.00000 2.069
20.02000 2.588
20.04000 7.754
20.06000 15.466
20.08000 11.817
20.10000 1.632
20.12000 -3.694
20.14000 5.907
20.16000 8.973
20.18000 9.609
20.20000 5.308
20.22000 7.083
20.24000 8.015
20.26000 4.224
20.28000 5.758
20.30000 12.219
20.32000 15.718
20.34000 7.905
20.36000 10.606
20.38000 12.002
20.40000 10.978
20.42000 6.449
20.44000 2.435
20.46000 2.928
20.48000 5.759
20.50000 7.374
20.52000 11.749
20.54000 8.221
20.56000 9.337
20.58000 7.191
20.60000 5.170
20.62000 9.940
20.64000 14.326
20.66000 5.346
20.68000 -0.080
20.70000 3.562
20.72000 9.933
20.74000 10.264
20.76000 11.295
20.78000 6.983
20.80000 11.118
20.82000 15.627
20.84000 16.460
20.86000 6.957
20.88000 13.489
20.90000 14.566
20.92000 13.223
20.94000 10.127
20.96000 3.921
20.98000 1.306
21.00000 8.730
21.02000 8.686
21.04000 6.861
21.06000 5.386
21.08000 7.103
21.10000 7.313
21.12000 9.822
21.14000 10.125
21.16000 9.454
21.18000 8.756
21.20000 14.292
21.22000 11.144
21.24000 10.868
21.26000 11.742
21.28000 16.527
21.30000 15.237
21.32000 7.456
21.34000 4.953
21.36000 5.726
21.38000 3.654
21.40000 -0.242
21.42000 -4.087
21.44000 2.102
21.46000 11.046
21.48000 6.870
21.50000 7.655
21.52000 14.912
21.54000 8.120
21.56000 8.198
21.58000 15.157
21.60000 11.100
21.62000 11.675
21.64000 11.595
21.66000 12.667
21.68000 13.896
21.70000 15.310
21.72000 14.635
21.74000 6.769
21.76000 4.263
21.78000 9.516
21.80000 12.581
21.82000 9.445
21.84000 3.871
21.86000 9.321
21.88000 9.380
21.90000 6.531
21.92000 2.190
21.94000 2.580
21.96000 1.546
21.98000 3.162
22.00000 7.185
22.02000 4.863
22.04000 6.294
22.06000 8.687
22.08000 5.923
22.10000 6.641
22.12000 6.440
22.14000 5.770
22.16000 8.610
22.18000 6.583
22.20000 5.479
22.22000 7.448
22.24000 6.111
22.26000 1.321
22.28000 1.818
22.30000 2.853
22.32000 7.951
22.34000 2.245
22.36000 7.632
22.38000 4.405
22.40000 3.809
22.42000 5.032
22.44000 9.482
22.46000 15.998
22.48000 12.140
22.50000 5.616
22.52000 5.769
22.54000 3.161
22.56000 -1.801
22.58000 1.572
22.60000 9.062
22.62000 12.622
22.64000 12.054
22.66000 10.285
22.68000 1.378
22.70000 2.000
22.72000 3.072
22.74000 -1.062
22.76000 1.463
22.78000 7.007
22.80000 5.993
22.82000 1.871
22.84000 3.333
22.86000 8.719
22.88000 5.617
22.90000 2.565
22.92000 1.649
22.94000 3.333
22.96000 10.123
22.98000 10.051
23.00000 10.816
23.02000 11.209
23.04000 12.173
23.06000 7.297
23.08000 5.420
23.10000 1.145
23.12000 10.669
23.14000 9.290
23.16000 4.320
23.18000 1.533
23.20000 5.059
23.22000 7.142
23.24000 10.611
23.26000 3.752
23.28000 7.097
23.30000 2.549
23.32000 4.747
23.34000 6.457
23.36000 4.972
23.38000 4.893
23.40000 3.952
23.42000 2.604
23.44000 7.217
23.46000 6.378
23.48000 6.253
23.50000 7.364
23.52000 8.294
23.54000 10.147
23.56000 3.814
23.58000 5.588
23.60000 6.031
23.62000 10.135
23.64000 12.158
23.66000 11.999
23.68000 17.316
23.70000 17.218
23.72000 0.958
23.74000 -4.005
23.76000 2.362
23.78000 6.764
23.80000 9.032
23.82000 4.681
23.84000 5.098
23.86000 5.541
23.88000 5.506
23.90000 -0.057
23.92000 0.414
23.94000 -2.935
23.96000 0.533
23.98000 4.857
24.00000 -1.277
24.02000 3.067
24.04000 7.609
24.06000 3.969
24.08000 1.595
24.10000 -0.782
24.12000 -1.374
24.14000 -1.912
24.16000 3.498
24.18000 2.510
24.20000 1.277
24.22000 2.755
24.24000 6.892
24.26000 5.735
24.28000 6.231
24.30000 6.204
24.32000 7.272
24.34000 9.180
24.36000 10.640
24.38000 8.685
24.40000 3.850
24.42000 7.378
24.44000 4.147
24.46000 1.987
24.48000 0.747
24.50000 4.230
24.52000 2.666
24.54000 -0.603
24.56000 -1.628
24.58000 5.481
24.60000 6.422
24.62000 3.376
24.64000 -2.147
24.66000 -0.426
24.68000 4.670
24.70000 5.479
24.72000 -0.646
24.74000 -1.494
24.76000 3.805
24.78000 1.343
24.80000 -3.455
24.82000 0.226
24.84000 -0.757
24.86000 8.214
24.88000 3.244
24.90000 -3.961
24.92000 -1.301
24.94000 0.179
24.96000 3.756
24.98000 4.677
25.00000 4.594
25.02000 5.587
25.04000 4.792
25.06000 -0.975
25.08000 -3.274
25.10000 -1.865
25.12000 -1.702
25.14000 -0.374
25.16000 1.862
25.18000 -1.900
25.20000 0.885
25.22000 1.354
25.24000 3.281
25.26000 5.392
25.28000 2.746
25.30000 -0.794
25.32000 0.495
25.34000 0.077
25.36000 0.485
25.38000 -0.900
25.40000 -2.821
25.42000 0.167
25.44000 3.255
25.46000 6.701
25.48000 0.140
25.50000 -0.538
25.52000 1.163
25.54000 -0.695
25.56000 0.704
25.58000 1.023
25.60000 0.687
25.62000 3.521
25.64000 8.918
25.66000 3.564
25.68000 -2.294
25.70000 -1.631
25.72000 -1.687
25.74000 -3.941
25.76000 -3.533
25.78000 -2.471
25.80000 4.892
25.82000 1.000
25.84000 -3.032
25.86000 -1.040
25.88000 6.015
25.90000 2.104
25.92000 0.269
25.94000 -1.838
25.96000 1.793
25.98000 6.054
26.00000 2.923
26.02000 -2.294
26.04000 4.144
26.06000 5.621
26.08000 0.643
26.10000 2.573
26.12000 2.946
26.14000 2.705
26.16000 3.173
26.18000 -0.876
26.20000 3.170
26.22000 6.042
26.24000 7.414
26.26000 1.298
26.28000 -1.906
26.30000 3.678
26.32000 3.530
26.34000 3.805
26.36000 5.559
26.38000 0.486
26.40000 -0.250
26.42000 0.721
26.44000 0.051
26.46000 2.989
26.48000 1.961
26.50000 4.917
26.52000 2.977
26.54000 3.438
26.56000 5.596
26.58000 6.256
26.60000 -2.972
26.62000 -3.889
26.64000 -0.773
26.66000 4.421
26.68000 4.938
26.70000 9.063
26.72000 4.734
26.74000 7.501
26.76000 4.068
26.78000 -0.574
26.80000 2.135
26.82000 2.949
26.84000 1.879
26.86000 1.344
26.88000 2.895
26.90000 5.880
26.92000 4.219
26.94000 0.030
26.96000 -2.022
26.98000 0.901
27.00000 1.219
27.02000 0.828
27.04000 2.752
27.06000 2.097
27.08000 1.924
27.10000 2.530
27.12000 8.243
27.14000 3.579
27.16000 5.577
27.18000 2.724
27.20000 3.257
27.22000 4.124
27.24000 1.516
27.26000 -1.261
27.28000 5.288
27.30000 6.525
27.32000 3.412
27.34000 3.483
27.36000 1.804
27.38000 3.338
27.40000 0.595
27.42000 -2.454
27.44000 0.426
27.46000 0.594
27.48000 2.004
27.50000 5.747
27.52000 7.068
27.54000 5.778
27.56000 1.740
27.58000 5.713
27.60000 7.398
27.62000 6.469
27.64000 3.367
27.66000 5.672
27.68000 4.372
27.70000 3.557
27.72000 7.993
27.74000 3.647
27.76000 6.786
27.78000 9.375
27.80000 3.926
27.82000 5.826
27.84000 7.116
27.86000 10.079
27.88000 4.910
27.90000 2.927
27.92000 7.793
27.94000 6.238
27.96000 4.839
27.98000 8.002
28.00000 11.184
28.02000 16.410
28.04000 16.159
28.06000 9.326
28.08000 4.155
28.10000 5.404
28.12000 8.543
28.14000 5.449
28.16000 3.897
28.18000 3.686
28.20000 1.875
28.22000 -3.747
28.24000 1.753
28.26000 2.194
28.28000 1.788
28.30000 6.151
28.32000 5.676
28.34000 6.294
28.36000 8.151
28.38000 1.961
28.40000 0.562
28.42000 7.431
28.44000 8.912
28.46000 6.885
28.48000 8.041
28.50000 10.901
28.52000 4.296
28.54000 3.619
28.56000 4.433
28.58000 3.730
28.60000 -0.106
28.62000 4.156
28.64000 3.736
28.66000 4.974
28.68000 3.315
28.70000 1.413
28.72000 5.003
28.74000 5.959
28.76000 5.401
28.78000 6.924
28.80000 7.090
28.82000 4.257
28.84000 3.229
28.86000 0.552
28.88000 -1.089
28.90000 2.899
28.92000 4.100
28.94000 3.419
28.96000 -3.730
28.98000 1.406
29.00000 2.371
29.02000 1.054
29.04000 4.021
29.06000 6.403
29.08000 5.352
29.10000 4.855
29.12000 3.420
29.14000 2.729
29.16000 2.729
29.18000 -1.210
29.20000 1.711
29.22000 6.716
29.24000 3.681
29.26000 6.216
29.28000 6.185
29.30000 2.197
29.32000 0.303
29.34000 -0.327
29.36000 4.818
29.38000 6.568
29.40000 -0.903
29.42000 -3.723
29.44000 1.749
29.46000 3.281
29.48000 8.342
29.50000 2.496
29.52000 2.988
29.54000 8.073
29.56000 5.314
29.58000 4.244
29.60000 6.292
29.62000 1.237
29.64000 2.249
29.66000 1.176
29.68000 3.033
29.70000 7.689
29.72000 -1.456
29.74000 -1.614
29.76000 3.244
29.78000 1.467
29.80000 0.108
29.82000 0.755
29.84000 1.216
29.86000 -0.089
29.88000 1.883
29.90000 -2.193
29.92000 -2.417
29.94000 -0.655
29.96000 1.701
29.98000 1.228
30.00000 -0.033
30.02000 2.650
30.04000 0.887
30.06000 3.554
30.08000 5.317
30.10000 3.221
30.12000 3.083
30.14000 -1.683
30.16000 1.285
30.18000 4.587
30.20000 -0.415
30.22000 0.302
30.24000 4.735
30.26000 2.333
30.28000 2.013
30.30000 -0.703
30.32000 0.159
30.34000 2.594
30.36000 0.834
30.38000 -1.275
30.40000 0.945
30.42000 3.096
30.44000 3.633
30.46000 0.897
30.48000 4.057
30.50000 -1.502
30.52000 -3.708
30.54000 -2.215
30.56000 0.323
30.58000 -2.198
30.60000 -0.379
30.62000 -2.092
30.64000 0.609
30.66000 3.777
30.68000 0.631
30.70000 2.684
30.72000 2.599
30.74000 1.738
30.76000 4.589
30.78000 1.848
30.80000 2.093
30.82000 -2.999
30.84000 0.955
30.86000 3.823
30.88000 1.508
30.90000 -1.253
30.92000 -1.148
30.94000 0.225
30.96000 -0.616
30.98000 0.341
31.00000 1.118
31.02000 -0.142
31.04000 -3.272
31.06000 -1.472
31.08000 1.849
31.10000 4.046
31.12000 4.514
31.14000 3.550
31.16000 -0.283
31.18000 -1.363
31.20000 -2.127
31.22000 -1.302
31.24000 -3.595
31.26000 -2.461
31.28000 4.000
31.30000 2.248
31.32000 -2.769
31.34000 0.575
31.36000 0.231
31.38000 -3.677
31.40000 -1.005
31.42000 -1.588
31.44000 0.316
31.46000 2.379
31.48000 4.495
31.50000 2.363
31.52000 2.614
31.54000 2.949
31.56000 5.636
31.58000 1.547
31.60000 1.968
31.62000 2.261
31.64000 3.939
31.66000 2.335
31.68000 -2.726
31.70000 -2.161
31.72000 -2.315
31.74000 -2.879
31.76000 -1.315
31.78000 0.372
31.80000 1.685
31.82000 -3.662
31.84000 0.111
31.86000 5.058
31.88000 2.433
31.90000 -0.314
31.92000 4.788
31.94000 0.426
31.96000 -0.292
31.98000 -1.696
32.00000 -2.414
32.02000 -0.728
32.04000 1.690
32.06000 3.859
32.08000 -0.787
32.10000 -0.949
32.12000 -1.574
32.14000 -3.072
32.16000 -0.040
32.18000 1.298
32.20000 1.724
32.22000 6.171
32.24000 6.174
32.26000 0.296
32.28000 3.781
32.30000 0.985
32.32000 -3.481
32.34000 -1.321
32.36000 2.188
32.38000 0.968
32.40000 1.357
32.42000 -0.930
32.44000 5.636
32.46000 -0.277
32.48000 1.811
32.50000 3.410
32.52000 7.622
32.54000 2.077
32.56000 1.854
32.58000 2.183
32.60000 -2.103
32.62000 1.849
32.64000 2.719
32.66000 -3.614
32.68000 -3.108
32.70000 3.991
32.72000 6.512
32.74000 9.127
32.76000 7.412
32.78000 9.282
32.80000 7.904
32.82000 3.652
32.84000 -2.875
32.86000 -0.394
32.88000 1.021
32.90000 0.821
32.92000 3.374
32.94000 0.818
32.96000 1.041
32.98000 -0.751
33.00000 7.543
33.02000 2.310
33.04000 -1.218
33.06000 -1.958
33.08000 0.462
33.10000 3.842
33.12000 1.338
33.14000 -0.273
33.16000 3.005
33.18000 6.226
33.20000 4.346
33.22000 3.676
33.24000 0.670
33.26000 1.702
33.28000 3.500
33.30000 -3.611
33.32000 -0.255
33.34000 -1.554
33.36000 2.467
33.38000 0.495
33.40000 2.527
33.42000 5.041
33.44000 11.187
33.46000 11.523
33.48000 8.979
33.50000 8.778
33.52000 2.370
33.54000 -1.328
33.56000 4.848
33.58000 7.038
33.60000 4.365
33.62000 4.022
33.64000 5.763
33.66000 5.853
33.68000 3.528
33.70000 2.037
33.72000 -0.732
33.74000 0.135
33.76000 0.560
33.78000 7.933
33.80000 12.010
33.82000 8.393
33.84000 4.061
33.86000 6.796
33.88000 5.869
33.90000 10.451
33.92000 13.171
33.94000 5.139
33.96000 2.811
33.98000 3.751
34.00000 3.011
34.02000 10.791
34.04000 9.657
34.06000 5.659
34.08000 6.971
34.10000 7.028
34.12000 -0.038
34.14000 1.824
34.16000 2.132
34.18000 5.158
34.20000 7.278
34.22000 6.560
34.24000 4.500
34.26000 3.863
34.28000 6.389
34.30000 6.672
34.32000 2.199
34.34000 4.021
34.36000 7.465
34.38000 7.855
34.40000 3.206
34.42000 3.429
34.44000 5.396
34.46000 11.205
34.48000 7.081
34.50000 7.786
34.52000 11.966
34.54000 10.943
34.56000 8.487
34.58000 -0.213
34.60000 -0.422
34.62000 3.611
34.64000 8.001
34.66000 5.930
34.68000 5.097
34.70000 -3.570
34.72000 0.911
34.74000 5.556
34.76000 9.017
34.78000 8.057
34.80000 4.481
34.82000 1.802
34.84000 5.037
34.86000 9.565
34.88000 10.160
34.90000 2.619
34.92000 2.191
34.94000 1.465
34.96000 2.682
34.98000 4.738
35.00000 0.312
35.02000 -0.979
35.04000 -3.559
35.06000 2.526
35.08000 8.159
35.10000 3.205
35.12000 0.317
35.14000 10.684
35.16000 6.420
35.18000 3.531
35.20000 3.543
35.22000 2.989
35.24000 4.490
35.26000 5.162
35.28000 5.586
35.30000 4.439
35.32000 0.523
35.34000 3.875
35.36000 0.699
35.38000 0.656
35.40000 1.991
35.42000 1.621
35.44000 7.846
35.46000 7.433
35.48000 8.673
35.50000 6.832
35.52000 7.458
35.54000 7.223
35.56000 6.623
35.58000 1.281
35.60000 4.908
35.62000 4.270
35.64000 6.122
35.66000 7.740
35.68000 4.170
35.70000 7.949
35.72000 10.980
35.74000 2.979
35.76000 -0.223
35.78000 3.813
35.80000 3.818
35.82000 7.389
35.84000 3.924
35.86000 2.589
35.88000 5.824
35.90000 5.018
35.92000 3.309
35.94000 9.363
35.96000 3.957
35.98000 4.322
36.00000 7.535
36.02000 1.607
36.04000 -3.613
36.06000 -0.159
36.08000 5.339
36.10000 6.192
36.12000 2.805
36.14000 1.610
36.16000 1.760
36.18000 1.048
36.20000 0.413
36.22000 1.961
36.24000 4.176
36.26000 2.296
36.28000 5.029
36.30000 3.284
36.32000 2.428
36.34000 4.899
36.36000 2.395
36.38000 3.207
36.40000 2.613
36.42000 1.655
36.44000 2.423
36.46000 3.844
36.48000 1.793
36.50000 7.007
36.52000 8.122
36.54000 4.280
36.56000 3.030
36.58000 7.145
36.60000 7.770
36.62000 6.615
36.64000 9.933
36.66000 13.203
36.68000 10.502
36.70000 8.023
36.72000 5.741
36.74000 6.646
36.76000 8.128
36.78000 6.610
36.80000 6.874
36.82000 8.279
36.84000 7.999
36.86000 6.148
36.88000 9.562
36.90000 8.624
36.92000 11.300
36.94000 6.889
36.96000 4.458
36.98000 9.217
37.00000 11.042
37.02000 11.345
37.04000 8.533
37.06000 8.258
37.08000 11.589
37.10000 12.562
37.12000 10.769
37.14000 11.005
37.16000 14.383
37.18000 11.811
37.20000 7.284
37.22000 9.903
37.24000 8.575
37.26000 15.311
37.28000 16.190
37.30000 19.427
37.32000 22.333
37.34000 21.440
37.36000 16.431
37.38000 13.056
37.40000 13.542
37.42000 17.274
37.44000 15.852
37.46000 13.233
37.48000 20.201
37.50000 24.420
37.52000 26.231
37.54000 28.719
37.56000 24.306
37.58000 24.465
37.60000 25.004
37.62000 19.246
37.64000 21.228
37.66000 19.555
37.68000 21.858
37.70000 21.258
37.72000 27.371
37.74000 23.828
37.76000 24.687
37.78000 27.899
37.80000 27.411
37.82000 28.486
37.84000 33.843
37.86000 34.858
37.88000 33.262
37.90000 34.256
37.92000 35.480
37.94000 37.637
37.96000 41.083
37.98000 37.426
38.00000 34.263
38.02000 36.139
38.04000 42.237
38.06000 43.076
38.08000 42.890
38.10000 43.885
38.12000 49.623
38.14000 52.572
38.16000 52.035
38.18000 55.426
38.20000 58.341
38.22000 60.426
38.24000 60.169
38.26000 61.532
38.28000 66.782
38.30000 74.788
38.32000 69.227
38.34000 73.044
38.36000 78.725
38.38000 85.827
38.40000 88.928
38.42000 93.946
38.44000 99.405
38.46000 108.224
38.48000 105.176
38.50000 114.925
38.52000 128.593
38.54000 132.652
38.56000 137.266
38.58000 142.668
38.60000 149.777
38.62000 158.910
38.64000 174.788
38.66000 181.345
38.68000 183.643
38.70000 206.498
38.72000 220.430
38.74000 229.683
38.76000 241.674
38.78000 251.130
38.80000 265.789
38.82000 272.968
38.84000 284.307
38.86000 299.985
38.88000 312.082
38.90000 309.093
38.92000 317.873
38.94000 328.264
38.96000 339.413
38.98000 342.229
39.00000 345.269
39.02000 347.440
39.04000 348.809
39.06000 350.343
39.08000 346.903
39.10000 348.841
39.12000 338.262
39.14000 330.774
39.16000 327.001
39.18000 321.035
39.20000 310.513
39.22000 300.813
39.24000 285.585
39.26000 265.107
39.28000 259.333
39.30000 251.168
39.32000 237.124
39.34000 227.586
39.36000 221.952
39.38000 208.844
39.40000 194.332
39.42000 188.390
39.44000 170.314
39.46000 160.535
39.48000 151.143
39.50000 143.261
39.52000 139.340
39.54000 128.005
39.56000 119.946
39.58000 115.838
39.60000 109.589
39.62000 97.084
39.64000 93.926
39.66000 90.199
39.68000 83.492
39.70000 82.752
39.72000 79.135
39.74000 73.630
39.76000 68.994
39.78000 65.804
39.80000 59.374
39.82000 55.300
39.84000 51.494
39.86000 49.411
39.88000 48.062
39.90000 45.394
39.92000 46.369
39.94000 42.765
39.96000 40.801
39.98000 40.706
40.00000 36.306
40.02000 33.819
40.04000 33.987
40.06000 35.071
40.08000 36.698
40.10000 33.199
40.12000 30.572
40.14000 34.144
40.16000 28.899
40.18000 27.474
40.20000 25.347
40.22000 27.549
40.24000 26.468
40.26000 20.279
40.28000 24.993
40.30000 24.324
40.32000 20.452
40.34000 20.240
40.36000 24.019
40.38000 19.297
40.40000 13.785
40.42000 16.994
40.44000 19.501
40.46000 17.094
40.48000 17.691
40.50000 16.754
40.52000 16.665
40.54000 13.955
40.56000 13.921
40.58000 13.181
40.60000 14.301
40.62000 11.520
40.64000 11.258
40.66000 10.124
40.68000 9.677
40.70000 9.414
40.72000 8.032
40.74000 6.598
40.76000 8.962
40.78000 7.955
40.80000 10.827
40.82000 11.009
40.84000 9.205
40.86000 9.112
40.88000 6.374
40.90000 8.443
40.92000 12.241
40.94000 9.922
40.96000 5.526
40.98000 8.460
41.00000 6.707
41.02000 7.633
41.04000 4.316
41.06000 0.415
41.08000 0.219
41.10000 2.596
41.12000 3.169
41.14000 3.021
41.16000 5.397
41.18000 1.784
41.20000 -0.852
41.22000 -1.590
41.24000 0.248
41.26000 2.071
41.28000 5.269
41.30000 10.113
41.32000 9.353
41.34000 6.180
41.36000 3.074
41.38000 4.999
41.40000 7.056
41.42000 3.638
41.44000 4.043
41.46000 0.768
41.48000 1.009
41.50000 -0.897
41.52000 1.552
41.54000 5.373
41.56000 6.952
41.58000 4.528
41.60000 3.690
41.62000 2.753
41.64000 0.795
41.66000 -0.083
41.68000 0.490
41.70000 -0.545
41.72000 5.945
41.74000 3.182
41.76000 1.376
41.78000 3.788
41.80000 4.830
41.82000 2.491
41.84000 0.871
41.86000 4.114
41.88000 5.960
41.90000 1.983
41.92000 1.591
41.94000 -0.790
41.96000 -1.050
41.98000 -1.248
42.00000 0.880
42.02000 -2.250
42.04000 0.510
42.06000 3.252
42.08000 1.693
42.10000 0.650
42.12000 2.569
42.14000 1.494
42.16000 -3.384
42.18000 0.480
42.20000 2.540
42.22000 2.304
42.24000 2.336
42.26000 0.732
42.28000 -3.369
42.30000 0.489
42.32000 -1.826
42.34000 -0.697
42.36000 2.062
42.38000 3.821
42.40000 4.283
42.42000 0.567
42.44000 -2.603
42.46000 0.232
42.48000 1.180
42.50000 4.255
42.52000 3.605
42.54000 0.789
42.56000 2.384
42.58000 3.254
42.60000 3.597
42.62000 1.879
42.64000 0.277
42.66000 1.053
42.68000 -0.732
42.70000 1.001
42.72000 0.839
42.74000 4.054
42.76000 4.037
42.78000 1.557
42.80000 2.320
42.82000 1.224
42.84000 -3.057
42.86000 1.218
42.88000 -1.993
42.90000 1.817
42.92000 3.162
42.94000 3.314
42.96000 1.318
42.98000 0.236
43.00000 -3.312
43.02000 -3.310
43.04000 -3.307
43.06000 1.729
43.08000 1.437
43.10000 0.788
43.12000 3.339
43.14000 2.219
43.16000 2.439
43.18000 3.920
43.20000 0.230
43.22000 0.632
43.24000 -0.755
43.26000 0.793
43.28000 1.603
43.30000 0.661
43.32000 -1.249
43.34000 1.637
43.36000 1.271
43.38000 -2.030
43.40000 -0.915
43.42000 0.757
43.44000 1.884
43.46000 1.133
43.48000 0.166
43.50000 5.647
43.52000 2.370
43.54000 0.810
43.56000 0.440
43.58000 1.635
43.60000 1.894
43.62000 2.945
43.64000 1.691
43.66000 4.429
43.68000 -0.184
43.70000 -3.258
43.72000 -0.475
43.74000 1.104
43.76000 2.653
43.78000 5.060
43.80000 3.191
43.82000 1.003
43.84000 0.573
43.86000 -0.634
43.88000 -0.192
43.90000 -0.863
43.92000 -2.229
43.94000 0.086
43.96000 3.374
43.98000 3.465
44.00000 3.118
44.02000 4.750
44.04000 2.945
44.06000 1.953
44.08000 1.478
44.10000 2.861
44.12000 2.985
44.14000 1.714
44.16000 3.533
44.18000 4.739
44.20000 5.764
44.22000 3.413
44.24000 3.636
44.26000 4.306
44.28000 3.825
44.30000 6.895
44.32000 9.236
44.34000 6.695
44.36000 6.821
44.38000 5.779
44.40000 4.046
44.42000 2.680
44.44000 5.828
44.46000 6.572
44.48000 8.119
44.50000 11.572
44.52000 8.587
44.54000 8.421
44.56000 9.448
44.58000 9.916
44.60000 9.988
44.62000 12.312
44.64000 11.343
44.66000 12.055
44.68000 16.422
44.70000 19.153
44.72000 16.835
44.74000 18.577
44.76000 19.011
44.78000 20.608
44.80000 21.954
44.82000 22.716
44.84000 20.719
44.86000 22.061
44.88000 21.337
44.90000 25.027
44.92000 28.691
44.94000 30.906
44.96000 34.275
44.98000 36.268
45.00000 35.920
45.02000 37.829
45.04000 40.549
45.06000 41.990
45.08000 49.182
45.10000 47.325
45.12000 49.298
45.14000 54.608
45.16000 50.778
45.18000 53.984
45.20000 58.280
45.22000 58.761
45.24000 63.221
45.26000 64.370
45.28000 64.868
45.30000 61.180
45.32000 65.302
45.34000 72.065
45.36000 73.502
45.38000 70.620
45.40000 73.840
45.42000 75.436
45.44000 76.904
45.46000 77.185
45.48000 78.038
45.50000 77.593
45.52000 79.955
45.54000 79.379
45.56000 78.741
45.58000 77.087
45.60000 80.828
45.62000 78.604
45.64000 78.617
45.66000 79.493
45.68000 76.223
45.70000 73.306
45.72000 69.807
45.74000 69.477
45.76000 66.762
45.78000 67.491
45.80000 69.134
45.82000 63.102
45.84000 61.327
45.86000 59.880
45.88000 55.928
45.90000 54.378
45.92000 51.521
45.94000 47.313
45.96000 44.509
45.98000 45.330
46.00000 43.945
46.02000 40.665
46.04000 37.460
46.06000 33.412
46.08000 29.302
46.10000 22.634
46.12000 22.761
46.14000 26.310
46.16000 22.498
46.18000 21.600
46.20000 21.373
46.22000 21.515
46.24000 19.567
46.26000 13.577
46.28000 18.156
46.30000 15.330
46.32000 13.899
46.34000 12.116
46.36000 14.370
46.38000 10.842
46.40000 11.207
46.42000 9.841
46.44000 10.108
46.46000 7.468
46.48000 5.203
46.50000 2.310
46.52000 5.897
46.54000 6.422
46.56000 8.200
46.58000 6.696
46.60000 0.157
46.62000 -1.399
46.64000 -2.736
46.66000 -0.600
46.68000 1.695
46.70000 2.938
46.72000 2.858
46.74000 3.109
46.76000 1.595
46.78000 1.217
46.80000 -2.028
46.82000 -2.841
46.84000 -1.615
46.86000 -2.213
46.88000 -2.814
46.90000 -0.489
46.92000 -0.190
46.94000 -1.885
46.96000 -2.856
46.98000 1.061
47.00000 6.042
47.02000 6.091
47.04000 0.511
47.06000 2.660
47.08000 0.774
47.10000 -1.792
47.12000 -0.448
47.14000 -0.992
47.16000 -1.486
47.18000 1.879
47.20000 4.072
47.22000 0.977
47.24000 0.175
47.26000 -0.605
47.28000 -2.207
47.30000 -2.877
47.32000 -0.735
47.34000 3.840
47.36000 1.782
47.38000 2.820
47.40000 -0.313
47.42000 -0.145
47.44000 -0.155
47.46000 1.067
47.48000 2.114
47.50000 3.402
47.52000 4.586
47.54000 5.000
47.56000 1.870
47.58000 -2.827
47.60000 1.309
47.62000 5.180
47.64000 2.270
47.66000 2.908
47.68000 2.350
47.70000 -1.161
47.72000 -0.327
47.74000 -2.181
47.76000 1.402
47.78000 2.266
47.80000 2.318
47.82000 0.287
47.84000 3.412
47.86000 1.772
47.88000 0.983
47.90000 -0.575
47.92000 -0.196
47.94000 0.692
47.96000 1.828
47.98000 -0.185
48.00000 0.930
48.02000 3.296
48.04000 1.284
48.06000 2.654
48.08000 0.772
48.10000 -0.236
48.12000 1.473
48.14000 3.644
48.16000 4.063
48.18000 3.388
48.20000 1.282
48.22000 0.380
48.24000 6.116
48.26000 3.066
48.28000 -2.671
48.30000 -2.473
48.32000 -1.641
48.34000 -1.822
48.36000 1.680
48.38000 4.938
48.40000 4.495
48.42000 6.471
48.44000 5.161
48.46000 3.075
48.48000 4.087
48.50000 5.472
48.52000 -0.056
48.54000 -2.730
48.56000 -2.036
48.58000 6.729
48.60000 9.474
48.62000 6.074
48.64000 0.417
48.66000 5.824
48.68000 6.705
48.70000 6.230
48.72000 1.595
48.74000 2.598
48.76000 -1.588
48.78000 1.188
48.80000 3.534
48.82000 2.683
48.84000 6.916
48.86000 5.599
48.88000 4.329
48.90000 6.219
48.92000 5.202
48.94000 4.312
48.96000 5.426
48.98000 3.250
49.00000 3.512
49.02000 -0.705
49.04000 1.481
49.06000 -0.118
49.08000 -1.986
49.10000 5.707
49.12000 11.014
49.14000 6.851
49.16000 2.389
49.18000 -0.404
49.20000 -1.321
49.22000 0.327
49.24000 -0.761
49.26000 5.878
49.28000 5.504
49.30000 4.016
49.32000 -2.686
49.34000 4.227
49.36000 6.021
49.38000 6.286
49.40000 8.109
49.42000 1.471
49.44000 2.084
49.46000 -2.082
49.48000 0.944
49.50000 8.020
49.52000 5.356
49.54000 4.688
49.56000 -0.448
49.58000 0.740
49.60000 3.014
49.62000 3.902
49.64000 -1.592
49.66000 0.157
49.68000 7.046
49.70000 4.403
49.72000 4.184
49.74000 3.659
49.76000 2.745
49.78000 -0.421
49.80000 -2.676
49.82000 2.414
49.84000 3.590
49.86000 4.261
49.88000 2.729
49.90000 1.993
49.92000 1.703
49.94000 2.210
49.96000 2.455
49.98000 3.908
50.00000 2.264
50.02000 1.235
50.04000 0.795
50.06000 2.318
50.08000 4.774
50.10000 2.958
50.12000 5.438
50.14000 3.031
50.16000 4.841
50.18000 3.096
50.20000 2.147
50.22000 3.223
50.24000 7.045
50.26000 7.511
50.28000 4.881
50.30000 4.552
50.32000 2.553
50.34000 1.104
50.36000 5.432
50.38000 3.143
50.40000 2.305
50.42000 4.409
50.44000 5.596
50.46000 1.663
50.48000 3.677
50.50000 6.486
50.52000 6.784
50.54000 3.135
50.56000 -2.655
50.58000 -2.451
50.60000 -0.743
50.62000 3.540
50.64000 0.109
50.66000 -1.650
50.68000 0.747
50.70000 -0.706
50.72000 3.588
50.74000 0.811
50.76000 -0.685
50.78000 -1.412
50.80000 -0.835
50.82000 -1.816
50.84000 -2.255
50.86000 0.341
50.88000 -1.554
50.90000 3.808
50.92000 1.561
50.94000 -0.047
50.96000 1.021
50.98000 2.862
51.00000 5.826
51.02000 3.417
51.04000 3.615
51.06000 0.193
51.08000 3.543
51.10000 5.056
51.12000 4.013
51.14000 4.263
51.16000 3.524
51.18000 4.551
51.20000 4.586
51.22000 6.551
51.24000 2.326
51.26000 5.067
51.28000 4.972
51.30000 3.350
51.32000 -0.770
51.34000 -1.434
51.36000 0.348
51.38000 -0.079
51.40000 1.478
51.42000 2.022
51.44000 2.286
51.46000 3.746
51.48000 3.502
51.50000 1.797
51.52000 3.893
51.54000 4.362
51.56000 4.784
51.58000 5.503
51.60000 4.354
51.62000 0.351
51.64000 0.573
51.66000 2.064
51.68000 0.187
51.70000 -1.431
51.72000 1.263
51.74000 4.559
51.76000 4.282
51.78000 5.464
51.80000 4.825
51.82000 4.808
51.84000 3.772
51.86000 3.451
51.88000 3.042
51.90000 2.272
51.92000 3.595
51.94000 3.130
51.96000 2.416
51.98000 3.083
52.00000 6.386
52.02000 5.712
52.04000 2.229
52.06000 2.230
52.08000 2.666
52.10000 5.184
52.12000 4.452
52.14000 1.187
52.16000 3.834
52.18000 7.157
52.20000 6.482
52.22000 3.944
52.24000 8.884
52.26000 7.335
52.28000 3.347
52.30000 4.242
52.32000 3.357
52.34000 4.255
52.36000 3.941
52.38000 1.350
52.40000 2.169
52.42000 0.472
52.44000 2.422
52.46000 2.553
52.48000 1.211
52.50000 2.729
52.52000 6.680
52.54000 3.893
52.56000 4.464
52.58000 -2.541
52.60000 2.214
52.62000 9.723
52.64000 7.783
52.66000 5.879
52.68000 7.134
52.70000 6.057
52.72000 5.187
52.74000 3.211
52.76000 5.063
52.78000 4.593
52.80000 5.759
52.82000 11.184
52.84000 7.946
52.86000 6.159
52.88000 1.557
52.90000 3.282
52.92000 4.236
52.94000 4.512
52.96000 1.602
52.98000 3.171
53.00000 3.441
53.02000 4.055
53.04000 -0.014
53.06000 -0.292
53.08000 3.831
53.10000 4.937
53.12000 3.413
53.14000 3.411
53.16000 1.472
53.18000 7.268
53.20000 8.763
53.22000 7.283
53.24000 4.801
53.26000 5.252
53.28000 6.055
53.30000 -1.063
53.32000 -2.194
53.34000 4.202
53.36000 3.680
53.38000 2.721
53.40000 6.799
53.42000 4.483
53.44000 0.078
53.46000 -1.000
53.48000 3.928
53.50000 3.132
53.52000 2.236
53.54000 2.063
53.56000 2.629
53.58000 7.326
53.60000 4.733
53.62000 -0.451
53.64000 3.114
53.66000 4.217
53.68000 1.814
53.70000 0.660
53.72000 0.852
53.74000 3.220
53.76000 5.201
53.78000 8.664
53.80000 5.589
53.82000 2.652
53.84000 1.945
53.86000 -0.183
53.88000 1.550
53.90000 2.526
53.92000 3.556
53.94000 3.035
53.96000 -0.470
53.98000 2.757
54.00000 2.560
54.02000 1.428
54.04000 -0.468
54.06000 1.931
54.08000 4.829
54.10000 2.437
54.12000 0.701
54.14000 2.647
54.16000 1.063
54.18000 0.665
54.20000 4.989
54.22000 8.120
54.24000 3.726
54.26000 3.007
54.28000 -1.220
54.30000 0.367
54.32000 -1.194
54.34000 -2.546
54.36000 -0.496
54.38000 3.118
54.40000 3.466
54.42000 2.600
54.44000 1.651
54.46000 0.610
54.48000 -0.603
54.50000 0.381
54.52000 -0.296
54.54000 1.567
54.56000 0.268
54.58000 -2.364
54.60000 -0.173
54.62000 -0.718
54.64000 2.968
54.66000 -0.719
54.68000 -1.274
54.70000 5.338
54.72000 5.512
54.74000 5.679
54.76000 2.756
54.78000 4.683
54.80000 3.898
54.82000 -0.517
54.84000 -2.373
54.86000 2.563
54.88000 3.855
54.90000 2.336
54.92000 -2.272
54.94000 -1.304
54.96000 -0.590
54.98000 -0.441
55.00000 -0.953
55.02000 1.644
55.04000 3.929
55.06000 6.603
55.08000 6.898
55.10000 1.657
55.12000 0.475
55.14000 0.618
55.16000 3.564
55.18000 4.621
55.20000 -0.928
55.22000 -2.530
55.24000 4.522
55.26000 5.048
55.28000 3.716
55.30000 3.324
55.32000 -1.209
55.34000 3.511
55.36000 4.048
55.38000 2.759
55.40000 3.248
55.42000 0.672
55.44000 -0.364
55.46000 0.036
55.48000 -0.642
55.50000 3.462
55.52000 2.861
55.54000 3.100
55.56000 3.405
55.58000 4.927
55.60000 1.707
55.62000 2.276
55.64000 1.665
55.66000 0.290
55.68000 2.486
55.70000 -0.112
55.72000 4.051
55.74000 2.673
55.76000 2.005
55.78000 4.615
55.80000 2.707
55.82000 4.126
55.84000 4.873
55.86000 0.533
55.88000 1.880
55.90000 4.937
55.92000 2.411
55.94000 1.682
55.96000 4.148
55.98000 1.799
56.00000 0.330
56.02000 0.912
56.04000 5.480
56.06000 5.985
56.08000 4.428
56.10000 -0.736
56.12000 2.991
56.14000 3.237
56.16000 2.816
56.18000 2.245
56.20000 2.664
56.22000 2.648
56.24000 1.809
56.26000 3.547
56.28000 -0.666
56.30000 -0.067
56.32000 -0.437
56.34000 3.908
56.36000 1.024
56.38000 1.619
56.40000 3.337
56.42000 4.507
56.44000 5.140
56.46000 0.127
56.48000 1.766
56.50000 5.346
56.52000 4.524
56.54000 6.435
56.56000 2.953
56.58000 0.187
56.60000 -0.532
56.62000 0.221
56.64000 2.142
56.66000 0.203
56.68000 -1.555
56.70000 -2.115
56.72000 3.709
56.74000 2.946
56.76000 5.720
56.78000 6.485
56.80000 6.481
56.82000 2.408
56.84000 -2.485
56.86000 0.641
56.88000 3.269
56.90000 7.163
56.92000 4.239
56.94000 2.385
56.96000 3.619
56.98000 3.282
57.00000 2.421
57.02000 5.412
57.04000 3.707
57.06000 1.516
57.08000 1.554
57.10000 3.851
57.12000 5.915
57.14000 3.775
57.16000 -2.465
57.18000 2.629
57.20000 5.507
57.22000 0.921
57.24000 1.755
57.26000 2.099
57.28000 5.049
57.30000 1.876
57.32000 1.296
57.34000 -1.666
57.36000 -1.996
57.38000 0.903
57.40000 3.367
57.42000 5.175
57.44000 0.269
57.46000 2.055
57.48000 5.273
57.50000 5.858
57.52000 1.954
57.54000 1.580
57.56000 3.220
57.58000 4.940
57.60000 0.645
57.62000 2.351
57.64000 5.771
57.66000 5.479
57.68000 1.572
57.70000 1.229
57.72000 1.679
57.74000 0.042
57.76000 0.063
57.78000 3.505
57.80000 3.976
57.82000 1.672
57.84000 3.366
57.86000 4.325
57.88000 5.444
57.90000 4.088
57.92000 3.831
57.94000 2.330
57.96000 -0.426
57.98000 4.483
58.00000 0.700
58.02000 -0.481
58.04000 -0.540
58.06000 3.309
58.08000 4.489
58.10000 -0.301
58.12000 3.098
58.14000 4.182
58.16000 4.201
58.18000 5.351
58.20000 2.532
58.22000 -2.436
58.24000 0.092
58.26000 1.615
58.28000 2.402
58.30000 1.052
58.32000 3.523
58.34000 1.406
58.36000 -0.077
58.38000 3.355
58.40000 3.816
58.42000 4.251
58.44000 6.269
58.46000 5.567
58.48000 4.013
58.50000 2.634
58.52000 2.583
58.54000 0.707
58.56000 1.640
58.58000 1.757
58.60000 1.869
58.62000 1.124
58.64000 3.511
58.66000 -0.187
58.68000 -1.288
58.70000 -1.253
58.72000 -2.433
58.74000 1.266
58.76000 2.935
58.78000 5.387
58.80000 2.193
58.82000 1.710
58.84000 2.169
58.86000 4.038
58.88000 6.703
58.90000 4.166
58.92000 2.818
58.94000 1.774
58.96000 -2.327
58.98000 -2.329
59.00000 -1.645
59.02000 -0.036
59.04000 0.763
59.06000 0.990
59.08000 3.502
59.10000 4.165
59.12000 3.196
59.14000 4.399
59.16000 2.590
59.18000 1.459
59.20000 -1.097
59.22000 1.590
59.24000 2.591
59.26000 -0.856
59.28000 0.840
59.30000 1.254
59.32000 4.637
59.34000 3.666
59.36000 4.191
59.38000 3.690
59.40000 2.229
59.42000 -1.455
59.44000 0.627
59.46000 -0.839
59.48000 -0.800
59.50000 1.697
59.52000 -2.211
59.54000 1.519
59.56000 0.599
59.58000 -0.842
59.60000 0.999
59.62000 1.516
59.64000 1.648
59.66000 1.085
59.68000 3.994
59.70000 4.750
59.72000 4.604
59.74000 2.199
59.76000 -1.675
59.78000 -0.412
59.80000 0.777
59.82000 2.486
59.84000 -0.569
59.86000 -2.374
59.88000 0.448
59.90000 -0.062
59.92000 1.796
59.94000 -0.272
59.96000 -2.384
59.98000 -1.293
60.00000 -2.047
60.02000 2.514
60.04000 1.979
60.06000 -1.647
60.08000 2.420
60.10000 2.869
60.12000 -0.100
60.14000 2.363
60.16000 4.737
60.18000 3.408
60.20000 2.544
60.22000 1.014
60.24000 1.024
60.26000 -0.223
60.28000 -2.372
60.30000 -1.677
60.32000 0.680
60.34000 4.106
60.36000 4.540
60.38000 3.169
60.40000 3.515
60.42000 2.858
60.44000 4.288
60.46000 2.849
60.48000 1.369
60.50000 2.198
60.52000 0.605
60.54000 0.701
60.56000 -0.279
60.58000 -0.097
60.60000 3.737
60.62000 3.904
60.64000 0.451
60.66000 2.604
60.68000 1.217
60.70000 0.925
60.72000 -1.502
60.74000 0.845
60.76000 4.319
60.78000 6.310
60.80000 7.192
60.82000 5.803
60.84000 1.580
60.86000 0.061
60.88000 1.194
60.90000 1.296
60.92000 2.968
60.94000 3.106
60.96000 2.447
60.98000 1.366
61.00000 -0.352
61.02000 2.911
61.04000 3.393
61.06000 0.933
61.08000 0.800
61.10000 5.294
61.12000 1.613
61.14000 2.792
61.16000 2.884
61.18000 5.400
61.20000 4.994
61.22000 1.563
61.24000 2.603
61.26000 1.801
61.28000 2.076
61.30000 3.741
61.32000 5.536
61.34000 3.808
61.36000 1.096
61.38000 4.531
61.40000 3.999
61.42000 6.706
61.44000 5.278
61.46000 6.391
61.48000 4.133
61.50000 5.592
61.52000 1.272
61.54000 0.971
61.56000 3.862
61.58000 4.687
61.60000 4.555
61.62000 0.748
61.64000 -2.294
61.66000 0.545
61.68000 0.854
61.70000 2.375
61.72000 -0.180
61.74000 -0.582
61.76000 2.239
61.78000 4.924
61.80000 2.848
61.82000 6.579
61.84000 4.385
61.86000 3.922
61.88000 2.003
61.90000 -2.289
61.92000 -1.967
61.94000 -0.933
61.96000 4.739
61.98000 5.386
62.00000 0.492
62.02000 0.566
62.04000 3.044
62.06000 4.523
62.08000 2.543
62.10000 0.061
62.12000 2.922
62.14000 4.113
62.16000 -2.289
62.18000 0.803
62.20000 5.658
62.22000 3.948
62.24000 5.204
62.26000 4.758
62.28000 2.837
62.30000 3.120
62.32000 -1.588
62.34000 0.342
62.36000 2.763
62.38000 2.219
62.40000 1.910
62.42000 3.350
62.44000 1.397
62.46000 1.285
62.48000 -0.218
62.50000 1.239
62.52000 -0.719
62.54000 1.477
62.56000 3.685
62.58000 3.643
62.60000 3.555
62.62000 2.642
62.64000 -0.114
62.66000 3.556
62.68000 2.935
62.70000 -0.544
62.72000 -1.702
62.74000 1.650
62.76000 2.660
62.78000 1.800
62.80000 2.596
62.82000 2.373
62.84000 2.892
62.86000 3.994
62.88000 7.448
62.90000 2.021
62.92000 1.562
62.94000 2.192
62.96000 0.420
62.98000 -0.251
63.00000 1.254
63.02000 1.504
63.04000 0.049
63.06000 0.409
63.08000 2.564
63.10000 2.805
63.12000 2.952
63.14000 0.977
63.16000 3.966
63.18000 1.773
63.20000 1.118
63.22000 1.766
63.24000 5.683
63.26000 4.822
63.28000 1.214
63.30000 2.986
63.32000 1.456
63.34000 -0.090
63.36000 2.543
63.38000 2.948
63.40000 -0.916
63.42000 0.622
63.44000 -1.273
63.46000 -1.801
63.48000 -1.146
63.50000 1.465
63.52000 4.028
63.54000 1.963
63.56000 2.372
63.58000 3.500
63.60000 1.363
63.62000 2.583
63.64000 3.649
63.66000 3.034
63.68000 4.669
63.70000 5.492
63.72000 5.442
63.74000 2.977
63.76000 3.468
63.78000 2.285
63.80000 -1.330
63.82000 -2.278
63.84000 1.827
63.86000 2.967
63.88000 1.614
63.90000 1.043
63.92000 3.352
63.94000 2.304
63.96000 -0.395
63.98000 -0.828
64.00000 0.874
64.02000 3.965
64.04000 4.664
64.06000 -0.034
64.08000 1.077
64.10000 0.254
64.12000 -0.707
64.14000 0.994
64.16000 0.971
64.18000 -1.277
64.20000 0.868
64.22000 4.304
64.24000 2.680
64.26000 3.980
64.28000 3.657
64.30000 3.077
64.32000 3.424
64.34000 2.847
64.36000 2.138
64.38000 3.652
64.40000 2.699
64.42000 0.321
64.44000 1.017
64.46000 1.766
64.48000 1.140
64.50000 -0.634
64.52000 3.434
64.54000 3.997
64.56000 0.096
64.58000 0.672
64.60000 1.716
64.62000 -1.613
64.64000 -0.674
64.66000 -0.754
64.68000 0.980
64.70000 1.993
64.72000 -0.340
64.74000 1.247
64.76000 0.743
64.78000 -0.369
64.80000 -0.669
64.82000 -0.879
64.84000 -2.301
64.86000 -1.411
64.88000 2.801
64.90000 5.493
64.92000 2.335
64.94000 -0.661
64.96000 0.314
64.98000 0.360
65.00000 1.927
65.02000 3.364
65.04000 1.169
65.06000 0.944
65.08000 0.371
65.10000 2.363
65.12000 -0.751
65.14000 1.855
65.16000 1.788
65.18000 -1.007
65.20000 1.904
65.22000 0.999
65.24000 -0.105
65.26000 2.261
65.28000 0.714
65.30000 1.243
65.32000 1.142
65.34000 0.404
65.36000 2.939
65.38000 -0.031
65.40000 2.901
65.42000 1.511
65.44000 -2.075
65.46000 -2.025
65.48000 3.066
65.50000 1.554
65.52000 0.809
65.54000 3.906
65.56000 1.406
65.58000 0.451
65.60000 1.553
65.62000 3.467
65.64000 3.928
65.66000 6.174
65.68000 2.810
65.70000 1.925
65.72000 -0.854
65.74000 -0.459
65.76000 -0.498
65.78000 2.994
65.80000 2.957
65.82000 2.609
65.84000 5.966
65.86000 4.434
65.88000 5.382
65.90000 6.053
65.92000 3.686
65.94000 2.709
65.96000 2.798
65.98000 4.010
66.00000 4.597
66.02000 1.381
66.04000 2.906
66.06000 2.795
66.08000 1.468
66.10000 6.040
66.12000 7.425
66.14000 4.181
66.16000 1.912
66.18000 3.513
66.20000 0.657
66.22000 0.089
66.24000 2.054
66.26000 5.157
66.28000 8.033
66.30000 4.360
66.32000 3.803
66.34000 1.635
66.36000 7.393
66.38000 7.513
66.40000 6.813
66.42000 5.650
66.44000 4.913
66.46000 4.060
66.48000 5.935
66.50000 6.801
66.52000 8.370
66.54000 5.551
66.56000 5.926
66.58000 4.009
66.60000 2.642
66.62000 3.609
66.64000 6.821
66.66000 7.657
66.68000 1.747
66.70000 3.190
66.72000 3.080
66.74000 4.191
66.76000 3.060
66.78000 4.693
66.80000 5.171
66.82000 3.605
66.84000 1.010
66.86000 3.354
66.88000 4.396
66.90000 3.362
66.92000 2.350
66.94000 3.373
66.96000 0.792
66.98000 0.741
67.00000 2.631
67.02000 4.441
67.04000 3.300
67.06000 4.568
67.08000 4.154
67.10000 2.847
67.12000 1.658
67.14000 1.397
67.16000 1.912
67.18000 2.184
67.20000 2.862
67.22000 3.278
67.24000 3.014
67.26000 2.840
67.28000 2.340
67.30000 4.024
67.32000 4.805
67.34000 -0.921
67.36000 -2.190
67.38000 1.113
67.40000 2.863
67.42000 4.430
67.44000 4.255
67.46000 3.097
67.48000 0.951
67.50000 -0.382
67.52000 -0.502
67.54000 0.801
67.56000 2.798
67.58000 1.703
67.60000 1.311
67.62000 1.190
67.64000 3.078
67.66000 4.147
67.68000 2.764
67.70000 1.045
67.72000 1.764
67.74000 1.707
67.76000 1.687
67.78000 2.163
67.80000 4.646
67.82000 2.857
67.84000 2.822
67.86000 0.020
67.88000 -0.018
67.90000 2.739
67.92000 1.181
67.94000 1.552
67.96000 3.065
67.98000 1.246
68.00000 1.354
68.02000 1.397
68.04000 1.773
68.06000 0.695
68.08000 1.082
68.10000 2.055
68.12000 1.629
68.14000 1.588
68.16000 1.877
68.18000 1.644
68.20000 -2.190
68.22000 0.711
68.24000 2.607
68.26000 1.632
68.28000 1.815
68.30000 0.399
68.32000 -2.189
68.34000 0.220
68.36000 1.844
68.38000 0.909
68.40000 1.210
68.42000 1.969
68.44000 1.819
68.46000 1.029
68.48000 1.456
68.50000 0.264
68.52000 -0.838
68.54000 -1.225
68.56000 0.693
68.58000 1.942
68.60000 3.909
68.62000 1.725
68.64000 -0.633
68.66000 -0.686
68.68000 0.350
68.70000 1.496
68.72000 0.764
68.74000 -1.205
68.76000 -0.306
68.78000 -0.843
68.80000 -1.129
68.82000 2.642
68.84000 3.617
68.86000 1.122
68.88000 -0.777
68.90000 -0.096
68.92000 0.891
68.94000 1.698
68.96000 1.025
68.98000 4.732
69.00000 1.956
69.02000 -0.397
69.04000 1.673
69.06000 3.047
69.08000 1.977
69.10000 -0.070
69.12000 0.804
69.14000 1.972
69.16000 3.554
69.18000 3.802
69.20000 2.866
69.22000 -0.116
69.24000 -1.202
69.26000 -0.054
69.28000 -0.361
69.30000 -0.267
69.32000 -2.147
69.34000 -1.261
69.36000 1.653
69.38000 6.249
69.40000 5.114
69.42000 3.803
69.44000 -0.241
69.46000 2.469
69.48000 2.668
69.50000 -0.900
69.52000 -1.272
69.54000 0.523
69.56000 1.972
69.58000 3.686
69.60000 1.856
69.62000 -0.875
69.64000 0.970
69.66000 0.021
69.68000 -0.311
69.70000 -1.495
69.72000 -0.932
69.74000 0.225
69.76000 0.059
69.78000 0.382
69.80000 0.263
69.82000 1.929
69.84000 3.019
69.86000 2.097
69.88000 -2.118
69.90000 -0.260
69.92000 -0.031
69.94000 2.110
69.96000 0.531
69.98000 0.824
70.00000 3.388
70.02000 3.035
70.04000 -0.187
70.06000 0.773
70.08000 2.111
70.10000 1.519
70.12000 0.453
70.14000 -2.112
70.16000 1.412
70.18000 3.373
70.20000 2.573
70.22000 1.303
70.24000 1.845
70.26000 2.168
70.28000 1.433
70.30000 -0.748
70.32000 -1.660
70.34000 -1.474
70.36000 0.214
70.38000 1.640
70.40000 3.820
70.42000 4.345
70.44000 0.802
70.46000 1.721
70.48000 3.830
70.50000 4.026
70.52000 3.849
70.54000 1.390
70.56000 0.101
70.58000 0.236
70.60000 4.474
70.62000 2.425
70.64000 0.724
70.66000 1.670
70.68000 -1.049
70.70000 -0.263
70.72000 0.890
70.74000 0.396
70.76000 2.331
70.78000 2.822
70.80000 4.222
70.82000 3.810
70.84000 2.893
70.86000 -0.308
70.88000 -0.821
70.90000 0.878
70.92000 2.402
70.94000 3.938
70.96000 0.274
70.98000 -1.874
71.00000 1.220
71.02000 1.762
71.04000 0.542
71.06000 2.391
71.08000 2.662
71.10000 1.338
71.12000 3.185
71.14000 2.606
71.16000 0.300
71.18000 1.526
71.20000 2.438
71.22000 -0.961
71.24000 0.686
71.26000 1.987
71.28000 -0.799
71.30000 -2.069
71.32000 0.106
71.34000 0.952
71.36000 -0.514
71.38000 -0.446
71.40000 -0.242
71.42000 -0.329
71.44000 1.915
71.46000 3.593
71.48000 0.484
71.50000 1.002
71.52000 0.784
71.54000 1.050
71.56000 0.405
71.58000 -2.060
71.60000 -0.183
71.62000 1.829
71.64000 1.805
71.66000 1.101
71.68000 1.190
71.70000 1.023
71.72000 0.751
71.74000 1.411
71.76000 -0.260
71.78000 1.170
71.80000 -0.476
71.82000 1.060
71.84000 0.056
71.86000 0.082
71.88000 0.911
71.90000 -1.425
71.92000 -2.062
71.94000 -1.558
71.96000 -0.959
71.98000 -0.151
72.00000 2.847
72.02000 4.368
72.04000 2.068
72.06000 -0.187
72.08000 -0.434
72.10000 -0.257
72.12000 -0.162
72.14000 -0.254
72.16000 4.199
72.18000 2.247
72.20000 3.966
72.22000 -1.738
72.24000 -2.057
72.26000 -1.058
72.28000 -0.680
72.30000 0.203
72.32000 3.354
72.34000 0.814
72.36000 -0.568
72.38000 2.593
72.40000 1.939
72.42000 0.461
72.44000 -0.333
72.46000 -1.513
72.48000 -1.029
72.50000 0.503
72.52000 2.273
72.54000 3.464
72.56000 2.676
72.58000 0.975
72.60000 0.406
72.62000 2.386
72.64000 1.872
72.66000 1.891
72.68000 0.883
72.70000 -1.048
72.72000 2.887
72.74000 5.470
72.76000 1.934
72.78000 -0.298
72.80000 -0.643
72.82000 -0.827
72.84000 1.115
72.86000 0.397
72.88000 -0.332
72.90000 0.398
72.92000 0.463
72.94000 0.875
72.96000 1.436
72.98000 -2.028
73.00000 2.930
73.02000 1.167
73.04000 0.620
73.06000 1.528
73.08000 4.154
73.10000 1.379
73.12000 -0.995
73.14000 2.801
73.16000 2.152
73.18000 3.771
73.20000 2.740
73.22000 3.133
73.24000 3.624
73.26000 5.709
73.28000 4.731
73.30000 1.880
73.32000 0.592
73.34000 -1.939
73.36000 3.866
73.38000 4.934
73.40000 1.513
73.42000 -0.297
73.44000 2.487
73.46000 3.612
73.48000 1.909
73.50000 0.205
73.52000 2.226
73.54000 4.514
73.56000 4.327
73.58000 0.064
73.60000 -0.096
73.62000 -1.974
73.64000 -0.872
73.66000 2.467
73.68000 2.006
73.70000 3.541
73.72000 5.802
73.74000 2.319
73.76000 3.133
73.78000 2.636
73.80000 4.485
73.82000 4.623
73.84000 2.740
73.86000 0.755
73.88000 0.676
73.90000 -0.590
73.92000 0.866
73.94000 0.266
73.96000 1.338
73.98000 2.323
74.00000 4.635
74.02000 3.674
74.04000 3.271
74.06000 2.585
74.08000 2.749
74.10000 0.130
74.12000 2.329
74.14000 4.860
74.16000 3.316
74.18000 2.733
74.20000 4.966
74.22000 3.424
74.24000 0.945
74.26000 3.103
74.28000 3.522
74.30000 1.001
74.32000 2.585
74.34000 0.223
74.36000 -1.848
74.38000 0.318
74.40000 0.769
74.42000 0.441
74.44000 0.713
74.46000 1.902
74.48000 1.962
74.50000 4.082
74.52000 1.086
74.54000 -1.145
74.56000 2.045
74.58000 2.741
74.60000 1.902
74.62000 -1.436
74.64000 -1.640
74.66000 1.376
74.68000 0.654
74.70000 3.745
74.72000 1.172
74.74000 2.108
74.76000 0.032
74.78000 1.128
74.80000 1.591
74.82000 2.180
74.84000 1.704
74.86000 0.744
74.88000 0.466
74.90000 0.745
74.92000 -2.015
74.94000 2.129
74.96000 0.745
74.98000 2.127
75.00000 1.528
75.02000 2.233
75.04000 2.209
75.06000 2.448
75.08000 3.653
75.10000 -0.412
75.12000 -1.499
75.14000 -1.831
75.16000 -0.535
75.18000 -0.333
75.20000 0.596
75.22000 0.669
75.24000 1.093
75.26000 -0.140
75.28000 -2.028
75.30000 1.308
75.32000 1.687
75.34000 1.668
75.36000 3.581
75.38000 2.077
75.40000 1.670
75.42000 1.052
75.44000 1.614
75.46000 3.636
75.48000 3.670
75.50000 1.816
75.52000 -0.756
75.54000 -0.437
75.56000 0.792
75.58000 4.624
75.60000 4.035
75.62000 3.552
75.64000 1.897
75.66000 1.956
75.68000 1.173
75.70000 1.742
75.72000 1.348
75.74000 1.872
75.76000 5.053
75.78000 9.934
75.80000 1.833
75.82000 -1.833
75.84000 2.073
75.86000 0.248
75.88000 -1.689
75.90000 -2.038
75.92000 -0.218
75.94000 0.483
75.96000 0.673
75.98000 1.016
76.00000 3.556
76.02000 2.636
76.04000 -0.149
76.06000 -1.926
76.08000 -1.763
76.10000 2.508
76.12000 1.769
76.14000 1.837
76.16000 3.025
76.18000 -1.161
76.20000 0.708
76.22000 1.946
76.24000 4.616
76.26000 3.174
76.28000 2.790
76.30000 1.454
76.32000 2.861
76.34000 1.820
76.36000 0.939
76.38000 2.192
76.40000 0.326
76.42000 3.217
76.44000 3.848
76.46000 4.727
76.48000 2.861
76.50000 -0.151
76.52000 0.079
76.54000 2.230
76.56000 1.418
76.58000 1.166
76.60000 6.137
76.62000 3.872
76.64000 2.633
76.66000 1.603
76.68000 3.476
76.70000 2.350
76.72000 3.395
76.74000 1.211
76.76000 2.148
76.78000 3.287
76.80000 2.979
76.82000 2.567
76.84000 2.271
76.86000 2.048
76.88000 5.743
76.90000 4.721
76.92000 1.018
76.94000 0.809
76.96000 2.289
76.98000 4.364
77.00000 6.001
77.02000 2.877
77.04000 1.832
77.06000 2.004
77.08000 3.659
77.10000 3.634
77.12000 1.817
77.14000 3.115
77.16000 3.908
77.18000 3.037
77.20000 3.501
77.22000 4.042
77.24000 3.071
77.26000 2.383
77.28000 4.836
77.30000 1.439
77.32000 2.265
77.34000 6.607
77.36000 1.915
77.38000 0.760
77.40000 2.735
77.42000 2.515
77.44000 0.057
77.46000 0.357
77.48000 -2.052
77.50000 1.024
77.52000 -0.097
77.54000 1.673
77.56000 5.533
77.58000 5.767
77.60000 2.712
77.62000 5.126
77.64000 6.267
77.66000 8.135
77.68000 3.472
77.70000 3.395
77.72000 3.488
77.74000 2.434
77.76000 3.004
77.78000 1.601
77.80000 1.416
77.82000 2.001
77.84000 4.568
77.86000 4.526
77.88000 2.684
77.90000 2.489
77.92000 1.576
77.94000 3.981
77.96000 1.837
77.98000 3.233
78.00000 3.569
78.02000 5.301
78.04000 0.447
78.06000 1.260
78.08000 2.084
78.10000 1.097
78.12000 0.170
78.14000 -0.033
78.16000 -1.753
78.18000 -0.943
78.20000 -2.172
78.22000 2.647
78.24000 0.869
78.26000 3.230
78.28000 0.793
78.30000 -1.765
78.32000 -0.856
78.34000 -1.727
78.36000 2.109
78.38000 1.874
78.40000 3.284
78.42000 0.890
78.44000 1.674
78.46000 -0.560
78.48000 2.547
78.50000 1.889
78.52000 2.590
78.54000 5.125
78.56000 3.917
78.58000 2.613
78.60000 0.153
78.62000 0.521
78.64000 4.326
78.66000 3.230
78.68000 1.430
78.70000 3.594
78.72000 1.872
78.74000 5.397
78.76000 0.933
78.78000 2.081
78.80000 0.607
78.82000 5.460
78.84000 6.450
78.86000 8.407
78.88000 7.321
78.90000 6.249
78.92000 6.311
78.94000 6.096
78.96000 6.602
78.98000 6.863
79.00000 4.056
79.02000 4.368
79.04000 3.944
79.06000 2.049
79.08000 8.624
79.10000 8.801
79.12000 9.530
79.14000 10.209
79.16000 11.415
79.18000 11.834
79.20000 10.561
79.22000 11.104
79.24000 12.226
79.26000 12.291
79.28000 9.715
79.30000 8.889
79.32000 6.367
79.34000 8.564
79.36000 12.780
79.38000 17.492
79.40000 19.624
79.42000 16.197
79.44000 14.982
79.46000 16.505
79.48000 18.186
79.50000 19.482
79.52000 18.034
79.54000 15.656
79.56000 19.590
79.58000 20.200
79.60000 17.475
79.62000 17.099
79.64000 19.867
79.66000 16.745
79.68000 14.651
79.70000 17.644
79.72000 16.633
79.74000 15.448
79.76000 16.267
79.78000 17.393
79.80000 18.722
79.82000 15.711
79.84000 15.161
79.86000 19.017
79.88000 17.149
79.90000 14.751
79.92000 13.661
79.94000 16.232
79.96000 14.898
79.98000 19.585
80.00000 16.768
80.02000 15.139
80.04000 17.019
80.06000 19.330
80.08000 18.121
80.10000 14.774
80.12000 10.797
80.14000 11.267
80.16000 11.032
80.18000 9.127
80.20000 9.262
80.22000 11.330
80.24000 7.476
80.26000 3.639
80.28000 6.491
80.30000 5.450
80.32000 7.255
80.34000 8.938
80.36000 6.087
80.38000 4.974
80.40000 8.652
80.42000 8.777
80.44000 11.348
80.46000 5.502
80.48000 7.103
80.50000 5.773
80.52000 2.951
80.54000 3.273
80.56000 4.857
80.58000 5.192
80.60000 1.981
80.62000 2.310
80.64000 5.770
80.66000 5.490
80.68000 0.638
80.70000 -0.958
80.72000 -1.506
80.74000 0.753
80.76000 3.796
80.78000 3.788
80.80000 3.262
80.82000 3.669
80.84000 6.395
80.86000 4.685
80.88000 -0.360
80.90000 1.492
80.92000 1.019
80.94000 -2.308
80.96000 -0.336
80.98000 2.368
81.00000 0.157
81.02000 3.992
81.04000 1.614
81.06000 2.525
81.08000 4.848
81.10000 2.640
81.12000 0.924
81.14000 1.612
81.16000 2.302
81.18000 3.929
81.20000 3.454
81.22000 1.257
81.24000 0.813
81.26000 -0.027
81.28000 0.407
81.30000 2.787
81.32000 0.182
81.34000 -0.682
81.36000 -0.461
81.38000 -2.300
81.40000 -1.056
81.42000 1.584
81.44000 1.846
81.46000 2.448
81.48000 4.974
81.50000 3.116
81.52000 0.597
81.54000 4.069
81.56000 1.263
81.58000 -1.506
81.60000 -0.240
81.62000 -0.757
81.64000 -0.286
81.66000 1.708
81.68000 1.403
81.70000 4.342
81.72000 1.847
81.74000 -1.454
81.76000 0.336
81.78000 2.706
81.80000 2.499
81.82000 3.120
81.84000 1.066
81.86000 2.189
81.88000 3.238
81.90000 5.427
81.92000 5.795
81.94000 5.262
81.96000 1.309
81.98000 -0.589
82.00000 1.445
82.02000 1.957
82.04000 -2.034
82.06000 -1.679
82.08000 0.072
82.10000 1.213
82.12000 -0.154
82.14000 5.148
82.16000 3.367
82.18000 2.465
82.20000 1.480
82.22000 4.569
82.24000 7.272
82.26000 6.032
82.28000 3.623
82.30000 5.913
82.32000 6.391
82.34000 6.238
82.36000 2.498
82.38000 2.642
82.40000 1.868
82.42000 1.884
82.44000 4.871
82.46000 7.600
82.48000 6.471
82.50000 6.871
82.52000 5.925
82.54000 7.160
82.56000 7.366
82.58000 5.290
82.60000 7.267
82.62000 7.389
82.64000 8.957
82.66000 7.349
82.68000 6.921
82.70000 9.319
82.72000 10.788
82.74000 10.962
82.76000 14.709
82.78000 13.618
82.80000 19.136
82.82000 15.875
82.84000 18.187
82.86000 19.714
82.88000 17.674
82.90000 16.939
82.92000 18.805
82.94000 18.923
82.96000 19.784
82.98000 14.704
83.00000 21.077
83.02000 20.955
83.04000 24.673
83.06000 27.330
83.08000 27.101
83.10000 28.019
83.12000 27.582
83.14000 31.510
83.16000 33.392
83.18000 30.182
83.20000 32.866
83.22000 36.684
83.24000 38.566
83.26000 41.399
83.28000 42.277
83.30000 42.179
83.32000 40.647
83.34000 44.764
83.36000 45.970
83.38000 46.115
83.40000 47.361
83.42000 49.947
83.44000 52.139
83.46000 50.537
83.48000 50.417
83.50000 50.165
83.52000 54.035
83.54000 56.651
83.56000 57.260
83.58000 57.700
83.60000 57.269
83.62000 59.345
83.64000 58.427
83.66000 59.199
83.68000 57.945
83.70000 55.150
83.72000 55.753
83.74000 54.719
83.76000 60.775
83.78000 64.149
83.80000 62.558
83.82000 55.739
83.84000 50.949
83.86000 51.299
83.88000 51.084
83.90000 52.158
83.92000 55.023
83.94000 53.649
83.96000 50.833
83.98000 46.734
84.00000 45.788
84.02000 45.344
84.04000 42.919
84.06000 44.103
84.08000 43.902
84.10000 38.495
84.12000 34.508
84.14000 32.705
84.16000 33.748
84.18000 33.021
84.20000 32.961
84.22000 33.049
84.24000 30.875
84.26000 26.980
84.28000 28.358
84.30000 24.902
84.32000 18.735
84.34000 20.430
84.36000 21.028
84.38000 19.505
84.40000 19.379
84.42000 19.405
84.44000 16.374
84.46000 12.904
84.48000 10.818
84.50000 11.174
84.52000 12.311
84.54000 10.919
84.56000 9.566
84.58000 6.318
84.60000 9.226
84.62000 10.467
84.64000 11.130
84.66000 12.257
84.68000 11.532
84.70000 10.440
84.72000 9.695
84.74000 9.497
84.76000 8.058
84.78000 4.419
84.80000 7.002
84.82000 3.471
84.84000 2.293
84.86000 4.688
84.88000 5.630
84.90000 3.593
84.92000 3.103
84.94000 1.137
84.96000 1.818
84.98000 3.388
85.00000 3.185
85.02000 1.553
85.04000 -1.894
85.06000 -1.244
85.08000 1.710
85.10000 3.549
85.12000 0.376
85.14000 3.679
85.16000 2.086
85.18000 -0.027
85.20000 2.797
85.22000 3.867
85.24000 3.206
85.26000 3.786
85.28000 4.409
85.30000 2.261
85.32000 -2.082
85.34000 4.164
85.36000 2.759
85.38000 -1.955
85.40000 0.022
85.42000 0.813
85.44000 -0.669
85.46000 1.051
85.48000 2.205
85.50000 0.044
85.52000 0.620
85.54000 0.447
85.56000 3.288
85.58000 1.873
85.60000 2.783
85.62000 1.452
85.64000 4.011
85.66000 4.042
85.68000 0.987
85.70000 -2.009
85.72000 -0.433
85.74000 0.128
85.76000 1.373
85.78000 3.333
85.80000 -0.160
85.82000 1.367
85.84000 -0.689
85.86000 0.994
85.88000 1.485
85.90000 1.263
85.92000 2.366
85.94000 3.179
85.96000 3.066
85.98000 1.486
86.00000 2.765
86.02000 3.866
86.04000 4.953
86.06000 4.357
86.08000 1.020
86.10000 2.293
86.12000 2.419
86.14000 1.131
86.16000 1.390
86.18000 4.434
86.20000 2.766
86.22000 0.658
86.24000 4.081
86.26000 2.970
86.28000 1.996
86.30000 5.086
86.32000 2.520
86.34000 -1.939
86.36000 0.446
86.38000 5.623
86.40000 2.513
86.42000 1.744
86.44000 1.686
86.46000 1.636
86.48000 -1.101
86.50000 3.759
86.52000 3.008
86.54000 2.250
86.56000 1.584
86.58000 1.093
86.60000 5.666
86.62000 3.237
86.64000 2.743
86.66000 -1.746
86.68000 1.527
86.70000 4.137
86.72000 2.115
86.74000 4.271
86.76000 3.489
86.78000 4.397
86.80000 4.029
86.82000 -0.655
86.84000 3.316
86.86000 6.775
86.88000 6.392
86.90000 4.400
86.92000 2.071
86.94000 1.736
86.96000 3.940
86.98000 4.640
87.00000 3.540
87.02000 0.320
87.04000 1.512
87.06000 0.606
87.08000 2.128
87.10000 -0.365
87.12000 -1.940
87.14000 0.305
87.16000 2.089
87.18000 0.605
87.20000 -0.311
87.22000 0.667
87.24000 -0.175
87.26000 -0.536
87.28000 -0.102
87.30000 3.252
87.32000 4.520
87.34000 0.147
87.36000 3.610
87.38000 2.765
87.40000 2.899
87.42000 -0.701
87.44000 0.460
87.46000 0.729
87.48000 3.710
87.50000 4.163
87.52000 2.661
87.54000 -0.365
87.56000 0.014
87.58000 0.318
87.60000 1.606
87.62000 2.981
87.64000 1.287
87.66000 3.767
87.68000 2.122
87.70000 -0.401
87.72000 2.199
87.74000 3.962
87.76000 -0.475
87.78000 -0.621
87.80000 0.444
87.82000 -0.819
87.84000 0.126
87.86000 1.417
87.88000 2.471
87.90000 2.935
87.92000 4.809
87.94000 0.529
87.96000 0.915
87.98000 3.169
88.00000 2.995
88.02000 5.468
88.04000 5.288
88.06000 2.913
88.08000 3.086
88.10000 0.102
88.12000 1.274
88.14000 -1.887
88.16000 -1.416
88.18000 5.514
88.20000 7.864
88.22000 0.360
88.24000 0.813
88.26000 3.360
88.28000 5.527
88.30000 4.582
88.32000 3.073
88.34000 3.523
88.36000 1.984
88.38000 1.172
88.40000 1.865
88.42000 0.841
88.44000 4.693
88.46000 9.976
88.48000 3.569
88.50000 3.803
88.52000 3.854
88.54000 1.911
88.56000 2.146
88.58000 3.054
88.60000 0.863
88.62000 3.256
88.64000 7.057
88.66000 2.852
88.68000 -0.909
88.70000 0.369
88.72000 1.455
88.74000 1.445
88.76000 3.918
88.78000 5.450
88.80000 3.876
88.82000 1.275
88.84000 1.472
88.86000 2.829
88.88000 3.620
88.90000 4.076
88.92000 6.064
88.94000 3.102
88.96000 3.275
88.98000 3.074
89.00000 1.903
89.02000 -1.852
89.04000 0.417
89.06000 1.838
89.08000 2.394
89.10000 -1.178
89.12000 1.583
89.14000 2.697
89.16000 4.729
89.18000 3.820
89.20000 3.898
89.22000 5.307
89.24000 4.469
89.26000 3.420
89.28000 4.666
89.30000 2.157
89.32000 3.110
89.34000 4.411
89.36000 3.037
89.38000 -0.795
89.40000 -1.174
89.42000 1.909
89.44000 2.198
89.46000 3.973
89.48000 5.049
89.50000 8.513
89.52000 2.878
89.54000 1.574
89.56000 1.600
89.58000 -0.681
89.60000 1.790
89.62000 -1.024
89.64000 1.587
89.66000 5.669
89.68000 1.561
89.70000 0.337
89.72000 1.821
89.74000 0.395
89.76000 1.819
89.78000 4.275
89.80000 3.299
89.82000 5.644
89.84000 4.288
89.86000 6.923
89.88000 6.295
89.90000 5.756
89.92000 3.557
89.94000 3.324
89.96000 3.762
89.98000 4.072
90.00000 3.389
90.02000 2.107
90.04000 1.208
90.06000 -1.856
90.08000 -1.604
90.10000 6.046
90.12000 4.481
90.14000 1.828
90.16000 0.994
90.18000 4.325
90.20000 2.086
90.22000 1.948
90.24000 2.064
90.26000 2.732
90.28000 4.187
90.30000 4.069
90.32000 1.277
90.34000 4.891
90.36000 5.077
90.38000 1.531
90.40000 4.433
90.42000 7.456
90.44000 3.388
90.46000 3.492
90.48000 3.982
90.50000 6.084
90.52000 5.827
90.54000 2.485
90.56000 4.332
90.58000 2.750
90.60000 3.536
90.62000 2.246
90.64000 3.719
90.66000 0.863
90.68000 6.777
90.70000 7.685
90.72000 1.378
90.74000 -0.493
90.76000 4.448
90.78000 5.757
90.80000 5.427
90.82000 3.424
90.84000 3.452
90.86000 3.615
90.88000 1.667
90.90000 0.265
90.92000 2.988
90.94000 0.058
90.96000 0.428
90.98000 4.209
91.00000 5.694
91.02000 3.550
91.04000 1.360
91.06000 1.565
91.08000 3.035
91.10000 4.332
91.12000 5.355
91.14000 4.362
91.16000 0.886
91.18000 1.305
91.20000 2.006
91.22000 2.133
91.24000 2.500
91.26000 5.005
91.28000 4.895
91.30000 0.598
91.32000 -1.543
91.34000 0.592
91.36000 1.247
91.38000 3.152
91.40000 5.174
91.42000 5.136
91.44000 5.793
91.46000 6.580
91.48000 3.902
91.50000 3.412
91.52000 2.498
91.54000 3.761
91.56000 3.782
91.58000 2.983
91.60000 2.059
91.62000 -1.158
91.64000 -1.825
91.66000 -0.239
91.68000 3.811
91.70000 4.692
91.72000 2.301
91.74000 1.592
91.76000 3.492
91.78000 3.994
91.80000 4.290
91.82000 5.332
91.84000 4.194
91.86000 4.700
91.88000 4.612
91.90000 2.765
91.92000 3.505
91.94000 6.037
91.96000 4.715
91.98000 7.422
92.00000 4.867
92.02000 3.502
92.04000 4.238
92.06000 1.888
92.08000 3.414
92.10000 4.226
92.12000 0.104
92.14000 1.963
92.16000 -1.806
92.18000 3.917
92.20000 9.868
92.22000 8.801
92.24000 4.970
92.26000 7.254
92.28000 4.592
92.30000 3.716
92.32000 5.428
92.34000 7.472
92.36000 2.617
92.38000 3.041
92.40000 5.284
92.42000 4.511
92.44000 3.184
92.46000 4.474
92.48000 6.561
92.50000 6.248
92.52000 9.612
92.54000 5.411
92.56000 8.205
92.58000 5.696
92.60000 2.368
92.62000 -0.542
92.64000 1.431
92.66000 4.887
92.68000 6.078
92.70000 5.991
92.72000 3.375
92.74000 4.310
92.76000 6.344
92.78000 6.281
92.80000 4.583
92.82000 -0.761
92.84000 1.227
92.86000 1.374
92.88000 5.230
92.90000 4.025
92.92000 2.010
92.94000 4.072
92.96000 7.643
92.98000 2.245
93.00000 0.417
93.02000 1.112
93.04000 -0.446
93.06000 -1.853
93.08000 0.740
93.10000 3.037
93.12000 3.612
93.14000 -0.736
93.16000 1.071
93.18000 6.108
93.20000 4.857
93.22000 7.714
93.24000 4.746
93.26000 6.689
93.28000 3.157
93.30000 3.683
93.32000 4.768
93.34000 6.648
93.36000 3.353
93.38000 -0.067
93.40000 1.775
93.42000 2.268
93.44000 4.903
93.46000 4.083
93.48000 0.372
93.50000 4.546
93.52000 4.777
93.54000 7.844
93.56000 5.640
93.58000 3.236
93.60000 2.376
93.62000 3.256
93.64000 3.065
93.66000 2.649
93.68000 7.250
93.70000 3.761
93.72000 2.844
93.74000 4.196
93.76000 3.250
93.78000 -0.264
93.80000 -1.883
93.82000 2.124
93.84000 6.054
93.86000 5.710
93.88000 6.668
93.90000 1.861
93.92000 0.965
93.94000 2.625
93.96000 3.754
93.98000 1.541
94.00000 4.317
94.02000 5.672
94.04000 5.907
94.06000 2.274
94.08000 0.600
94.10000 1.548
94.12000 1.468
94.14000 4.155
94.16000 5.407
94.18000 2.855
94.20000 1.950
94.22000 3.591
94.24000 9.369
94.26000 8.242
94.28000 5.614
94.30000 3.520
94.32000 3.688
94.34000 1.628
94.36000 -0.243
94.38000 -0.727
94.40000 1.596
94.42000 4.028
94.44000 2.910
94.46000 1.646
94.48000 0.981
94.50000 4.897
94.52000 5.012
94.54000 2.210
94.56000 -0.146
94.58000 -0.642
94.60000 1.093
94.62000 1.393
94.64000 -1.911
94.66000 -0.116
94.68000 4.562
94.70000 5.724
94.72000 3.001
94.74000 -0.382
94.76000 1.381
94.78000 3.079
94.80000 3.182
94.82000 6.679
94.84000 4.053
94.86000 3.085
94.88000 4.610
94.90000 2.563
94.92000 4.302
94.94000 0.334
94.96000 -1.651
94.98000 1.174
95.00000 0.501
95.02000 -1.860
95.04000 -1.559
95.06000 -1.564
95.08000 -1.289
95.10000 3.177
95.12000 2.807
95.14000 4.385
95.16000 5.390
95.18000 7.199
95.20000 6.890
95.22000 1.661
95.24000 -0.990
95.26000 1.863
95.28000 3.386
95.30000 2.802
95.32000 3.217
95.34000 2.520
95.36000 1.850
95.38000 1.624
95.40000 0.913
95.42000 1.184
95.44000 0.070
95.46000 1.215
95.48000 2.463
95.50000 0.458
95.52000 5.137
95.54000 4.494
95.56000 0.069
95.58000 2.656
95.60000 4.652
95.62000 5.726
95.64000 2.230
95.66000 4.766
95.68000 1.913
95.70000 -1.062
95.72000 1.724
95.74000 1.341
95.76000 3.100
95.78000 4.358
95.80000 4.324
95.82000 6.090
95.84000 2.337
95.86000 -1.896
95.88000 1.378
95.90000 0.178
95.92000 -0.831
95.94000 0.005
95.96000 2.598
95.98000 2.966
96.00000 3.385
96.02000 1.816
96.04000 6.646
96.06000 5.219
96.08000 4.021
96.10000 4.998
96.12000 5.337
96.14000 5.410
96.16000 4.356
96.18000 1.763
96.20000 5.585
96.22000 1.621
96.24000 4.183
96.26000 5.714
96.28000 4.711
96.30000 4.184
96.32000 2.119
96.34000 5.002
96.36000 7.821
96.38000 7.291
96.40000 3.399
96.42000 3.906
96.44000 2.826
96.46000 5.816
96.48000 3.842
96.50000 2.267
96.52000 5.442
96.54000 1.890
96.56000 2.403
96.58000 -0.376
96.60000 4.158
96.62000 3.818
96.64000 4.190
96.66000 2.642
96.68000 5.894
96.70000 3.288
96.72000 1.909
96.74000 1.843
96.76000 4.476
96.78000 2.963
96.80000 -0.240
96.82000 -1.892
96.84000 0.986
96.86000 1.327
96.88000 3.972
96.90000 6.991
96.92000 4.964
96.94000 3.755
96.96000 4.451
96.98000 5.655
97.00000 0.663
97.02000 0.334
97.04000 3.923
97.06000 1.986
97.08000 5.491
97.10000 7.602
97.12000 7.810
97.14000 4.861
97.16000 4.092
97.18000 3.387
97.20000 5.930
97.22000 9.356
97.24000 6.588
97.26000 3.810
97.28000 2.005
97.30000 3.138
97.32000 0.179
97.34000 1.198
97.36000 2.353
97.38000 1.362
97.40000 3.775
97.42000 1.739
97.44000 1.755
97.46000 2.193
97.48000 1.707
97.50000 1.248
97.52000 3.776
97.54000 3.989
97.56000 7.278
97.58000 3.457
97.60000 3.774
97.62000 5.830
97.64000 4.856
97.66000 1.755
97.68000 4.744
97.70000 6.406
97.72000 6.627
97.74000 6.220
97.76000 5.647
97.78000 5.796
97.80000 2.857
97.82000 2.282
97.84000 3.755
97.86000 3.511
97.88000 -0.866
97.90000 4.940
97.92000 6.268
97.94000 2.973
97.96000 3.277
97.98000 4.300
98.00000 3.486
98.02000 4.269
98.04000 1.697
98.06000 3.075
98.08000 2.564
98.10000 -0.992
98.12000 1.820
98.14000 1.920
98.16000 -0.136
98.18000 4.198
98.20000 3.751
98.22000 7.083
98.24000 5.825
98.26000 6.124
98.28000 5.943
98.30000 5.762
98.32000 2.184
98.34000 6.729
98.36000 5.968
98.38000 4.462
98.40000 4.132
98.42000 5.839
98.44000 4.779
98.46000 5.862
98.48000 5.947
98.50000 6.275
98.52000 9.474
98.54000 6.484
98.56000 0.775
98.58000 -1.807
98.60000 3.505
98.62000 9.343
98.64000 13.910
98.66000 8.408
98.68000 3.677
98.70000 2.581
98.72000 4.510
98.74000 4.332
98.76000 2.437
98.78000 4.005
98.80000 4.231
98.82000 5.761
98.84000 4.164
98.86000 6.190
98.88000 6.072
98.90000 5.715
98.92000 9.611
98.94000 8.179
98.96000 4.707
98.98000 6.567
99.00000 4.039
99.02000 6.457
99.04000 2.501
99.06000 4.684
99.08000 2.913
99.10000 6.024
99.12000 9.388
99.14000 3.310
99.16000 3.435
99.18000 5.895
99.20000 10.792
99.22000 7.918
99.24000 10.450
99.26000 4.375
99.28000 7.245
99.30000 13.566
99.32000 8.190
99.34000 6.002
99.36000 8.409
99.38000 11.495
99.40000 4.869
99.42000 2.829
99.44000 7.466
99.46000 5.704
99.48000 7.732
99.50000 13.527
99.52000 10.928
99.54000 6.681
99.56000 12.755
99.58000 5.214
99.60000 8.129
99.62000 5.657
99.64000 4.895
99.66000 6.408
99.68000 7.018
99.70000 5.801
99.72000 6.984
99.74000 10.916
99.76000 12.553
99.78000 8.590
99.80000 6.221
99.82000 6.616
99.84000 12.483
99.86000 5.732
99.88000 3.318
99.90000 -1.784
99.92000 2.451
99.94000 -0.672
99.96000 0.929
99.98000 0.000
