'Id: "0011387" Comment: "Integrate frame 0011387_Au-Ir-Rh_Rh-rich_XRD-Mapping-030-0000.gfrmwith cursor Wedge Cursor #5" Operator: "B?rgel" Anode: "Cu" Wavelength: "1.5406" Scantype: "2Theta (TwoTheta)" TimePerStep: "1" X: "-4.5" Y: "-31.5" Z: "5.95" 
10.00000 0.000
10.02000 -4.379
10.04000 5.045
10.06000 18.953
10.08000 25.156
10.10000 28.993
10.12000 28.058
10.14000 21.746
10.16000 22.593
10.18000 12.366
10.20000 13.647
10.22000 12.440
10.24000 9.689
10.26000 6.819
10.28000 1.819
10.30000 -0.594
10.32000 3.004
10.34000 18.020
10.36000 24.758
10.38000 19.302
10.40000 15.761
10.42000 12.879
10.44000 25.429
10.46000 14.894
10.48000 19.580
10.50000 15.364
10.52000 -5.438
10.54000 5.680
10.56000 19.058
10.58000 16.961
10.60000 19.051
10.62000 22.968
10.64000 24.508
10.66000 8.116
10.68000 13.629
10.70000 8.454
10.72000 -0.014
10.74000 8.887
10.76000 3.745
10.78000 10.738
10.80000 3.392
10.82000 1.755
10.84000 15.755
10.86000 7.293
10.88000 24.490
10.90000 24.096
10.92000 15.565
10.94000 17.583
10.96000 30.128
10.98000 20.936
11.00000 10.541
11.02000 6.430
11.04000 11.898
11.06000 27.076
11.08000 20.270
11.10000 17.460
11.12000 19.423
11.14000 25.071
11.16000 14.598
11.18000 -7.068
11.20000 19.314
11.22000 25.808
11.24000 16.420
11.26000 10.592
11.28000 5.255
11.30000 12.483
11.32000 20.135
11.34000 9.848
11.36000 15.558
11.38000 21.620
11.40000 24.766
11.42000 21.418
11.44000 17.920
11.46000 6.062
11.48000 5.753
11.50000 5.349
11.52000 0.126
11.54000 10.393
11.56000 15.418
11.58000 10.618
11.60000 3.704
11.62000 1.274
11.64000 -3.530
11.66000 1.050
11.68000 3.697
11.70000 3.925
11.72000 11.327
11.74000 17.385
11.76000 18.971
11.78000 18.345
11.80000 11.841
11.82000 16.218
11.84000 8.569
11.86000 8.588
11.88000 17.140
11.90000 14.694
11.92000 13.933
11.94000 18.085
11.96000 2.129
11.98000 5.200
12.00000 11.406
12.02000 8.297
12.04000 15.562
12.06000 9.362
12.08000 8.477
12.10000 23.281
12.12000 15.129
12.14000 -1.176
12.16000 0.759
12.18000 10.329
12.20000 12.779
12.22000 4.562
12.24000 7.213
12.26000 4.596
12.28000 11.665
12.30000 9.997
12.32000 5.985
12.34000 -0.739
12.36000 -1.076
12.38000 3.427
12.40000 16.934
12.42000 17.149
12.44000 17.042
12.46000 4.557
12.48000 10.969
12.50000 7.988
12.52000 11.740
12.54000 6.094
12.56000 9.198
12.58000 4.141
12.60000 4.522
12.62000 1.189
12.64000 7.890
12.66000 10.375
12.68000 5.043
12.70000 7.038
12.72000 13.821
12.74000 10.051
12.76000 3.785
12.78000 4.604
12.80000 13.578
12.82000 12.066
12.84000 9.571
12.86000 6.521
12.88000 12.133
12.90000 12.299
12.92000 -2.352
12.94000 7.216
12.96000 6.918
12.98000 7.220
13.00000 9.743
13.02000 9.402
13.04000 13.438
13.06000 13.733
13.08000 4.331
13.10000 5.130
13.12000 8.043
13.14000 8.425
13.16000 4.164
13.18000 13.460
13.20000 22.492
13.22000 10.819
13.24000 8.379
13.26000 8.487
13.28000 6.759
13.30000 14.523
13.32000 5.021
13.34000 9.896
13.36000 16.311
13.38000 9.382
13.40000 -0.182
13.42000 5.981
13.44000 2.030
13.46000 12.120
13.48000 23.357
13.50000 17.902
13.52000 7.463
13.54000 4.126
13.56000 13.825
13.58000 15.418
13.60000 16.908
13.62000 15.231
13.64000 7.518
13.66000 11.795
13.68000 10.898
13.70000 11.913
13.72000 21.137
13.74000 14.401
13.76000 8.974
13.78000 9.048
13.80000 15.457
13.82000 12.434
13.84000 11.564
13.86000 19.303
13.88000 27.887
13.90000 16.250
13.92000 6.796
13.94000 6.714
13.96000 16.896
13.98000 12.118
14.00000 6.609
14.02000 13.144
14.04000 9.044
14.06000 5.638
14.08000 18.370
14.10000 24.566
14.12000 20.766
14.14000 25.884
14.16000 19.003
14.18000 18.682
14.20000 11.310
14.22000 13.207
14.24000 4.610
14.26000 6.078
14.28000 6.793
14.30000 6.766
14.32000 12.703
14.34000 14.293
14.36000 8.074
14.38000 -4.491
14.40000 5.730
14.42000 13.953
14.44000 17.379
14.46000 13.826
14.48000 9.235
14.50000 10.691
14.52000 12.567
14.54000 13.998
14.56000 18.589
14.58000 15.435
14.60000 8.406
14.62000 1.630
14.64000 4.372
14.66000 4.561
14.68000 5.274
14.70000 0.899
14.72000 8.715
14.74000 9.511
14.76000 5.767
14.78000 5.015
14.80000 11.905
14.82000 16.019
14.84000 11.880
14.86000 7.815
14.88000 9.074
14.90000 7.841
14.92000 15.038
14.94000 13.530
14.96000 10.135
14.98000 5.055
15.00000 -0.688
15.02000 3.920
15.04000 9.391
15.06000 12.428
15.08000 6.840
15.10000 5.081
15.12000 5.913
15.14000 10.488
15.16000 12.880
15.18000 0.873
15.20000 4.498
15.22000 11.368
15.24000 14.425
15.26000 16.699
15.28000 9.817
15.30000 9.527
15.32000 13.894
15.34000 7.947
15.36000 6.463
15.38000 8.979
15.40000 12.194
15.42000 6.450
15.44000 8.832
15.46000 2.569
15.48000 12.819
15.50000 5.216
15.52000 0.512
15.54000 5.880
15.56000 8.492
15.58000 9.342
15.60000 8.372
15.62000 10.577
15.64000 12.213
15.66000 2.332
15.68000 0.782
15.70000 4.787
15.72000 5.062
15.74000 5.027
15.76000 6.207
15.78000 6.394
15.80000 6.081
15.82000 4.641
15.84000 4.408
15.86000 12.487
15.88000 10.559
15.90000 9.366
15.92000 15.730
15.94000 9.926
15.96000 -4.497
15.98000 4.362
16.00000 14.123
16.02000 16.957
16.04000 15.408
16.06000 4.930
16.08000 9.030
16.10000 8.779
16.12000 7.064
16.14000 1.461
16.16000 -1.384
16.18000 -2.955
16.20000 -2.666
16.22000 -2.447
16.24000 5.747
16.26000 8.887
16.28000 4.256
16.30000 2.952
16.32000 10.930
16.34000 14.653
16.36000 1.817
16.38000 -0.254
16.40000 1.711
16.42000 3.907
16.44000 7.652
16.46000 1.249
16.48000 3.212
16.50000 13.142
16.52000 22.412
16.54000 16.994
16.56000 9.122
16.58000 5.862
16.60000 6.678
16.62000 8.143
16.64000 6.270
16.66000 1.933
16.68000 6.968
16.70000 10.409
16.72000 11.826
16.74000 9.110
16.76000 -4.455
16.78000 2.103
16.80000 8.385
16.82000 4.452
16.84000 14.425
16.86000 16.812
16.88000 10.882
16.90000 11.275
16.92000 7.018
16.94000 5.143
16.96000 3.917
16.98000 11.840
17.00000 12.784
17.02000 -0.602
17.04000 0.992
17.06000 9.841
17.08000 5.984
17.10000 9.521
17.12000 10.959
17.14000 5.981
17.16000 6.355
17.18000 3.546
17.20000 3.487
17.22000 7.889
17.24000 2.539
17.26000 6.044
17.28000 -0.229
17.30000 3.675
17.32000 3.414
17.34000 3.067
17.36000 7.222
17.38000 0.465
17.40000 3.049
17.42000 2.418
17.44000 4.164
17.46000 6.098
17.48000 5.511
17.50000 -2.769
17.52000 -0.601
17.54000 3.128
17.56000 5.781
17.58000 4.945
17.60000 5.651
17.62000 6.748
17.64000 4.898
17.66000 5.017
17.68000 1.939
17.70000 -0.715
17.72000 1.288
17.74000 4.008
17.76000 10.480
17.78000 5.247
17.80000 -0.548
17.82000 5.424
17.84000 -0.840
17.86000 0.897
17.88000 5.295
17.90000 1.372
17.92000 5.260
17.94000 13.963
17.96000 3.168
17.98000 4.169
18.00000 4.526
18.02000 4.793
18.04000 7.351
18.06000 4.567
18.08000 4.896
18.10000 5.486
18.12000 4.365
18.14000 12.078
18.16000 8.182
18.18000 7.176
18.20000 7.818
18.22000 4.132
18.24000 7.163
18.26000 4.186
18.28000 4.413
18.30000 6.085
18.32000 6.417
18.34000 2.360
18.36000 3.869
18.38000 3.460
18.40000 1.918
18.42000 2.094
18.44000 -1.311
18.46000 3.198
18.48000 7.127
18.50000 4.753
18.52000 7.783
18.54000 9.103
18.56000 -4.326
18.58000 3.153
18.60000 0.353
18.62000 3.626
18.64000 8.785
18.66000 8.603
18.68000 7.243
18.70000 6.472
18.72000 8.087
18.74000 6.375
18.76000 5.781
18.78000 2.385
18.80000 2.821
18.82000 5.156
18.84000 8.254
18.86000 0.732
18.88000 -2.186
18.90000 0.483
18.92000 3.101
18.94000 3.562
18.96000 10.655
18.98000 9.651
19.00000 1.892
19.02000 5.146
19.04000 9.203
19.06000 0.232
19.08000 3.471
19.10000 5.112
19.12000 -0.076
19.14000 -0.867
19.16000 3.848
19.18000 3.803
19.20000 3.470
19.22000 3.831
19.24000 0.077
19.26000 2.338
19.28000 3.469
19.30000 3.202
19.32000 6.181
19.34000 2.719
19.36000 -1.041
19.38000 5.687
19.40000 0.756
19.42000 3.067
19.44000 6.671
19.46000 4.456
19.48000 4.495
19.50000 6.187
19.52000 7.456
19.54000 9.354
19.56000 0.446
19.58000 1.055
19.60000 5.458
19.62000 3.516
19.64000 8.806
19.66000 11.981
19.68000 5.268
19.70000 -3.772
19.72000 0.311
19.74000 7.176
19.76000 0.458
19.78000 9.517
19.80000 10.863
19.82000 11.447
19.84000 9.754
19.86000 2.273
19.88000 -4.276
19.90000 -1.591
19.92000 0.916
19.94000 -3.630
19.96000 1.246
19.98000 7.128
20.00000 5.298
20.02000 8.270
20.04000 1.351
20.06000 -3.155
20.08000 6.050
20.10000 4.944
20.12000 8.558
20.14000 6.551
20.16000 2.127
20.18000 2.168
20.20000 10.100
20.22000 3.359
20.24000 -0.732
20.26000 3.402
20.28000 3.115
20.30000 4.821
20.32000 8.784
20.34000 1.654
20.36000 2.511
20.38000 8.954
20.40000 3.658
20.42000 2.031
20.44000 2.113
20.46000 4.181
20.48000 6.608
20.50000 7.869
20.52000 0.799
20.54000 -4.235
20.56000 1.823
20.58000 7.556
20.60000 4.743
20.62000 3.800
20.64000 4.503
20.66000 5.761
20.68000 4.011
20.70000 11.527
20.72000 2.952
20.74000 -3.391
20.76000 -3.005
20.78000 -1.764
20.80000 1.955
20.82000 0.533
20.84000 2.371
20.86000 3.922
20.88000 4.686
20.90000 9.727
20.92000 6.420
20.94000 1.543
20.96000 8.296
20.98000 6.878
21.00000 1.533
21.02000 2.777
21.04000 6.147
21.06000 7.246
21.08000 10.464
21.10000 8.903
21.12000 10.393
21.14000 4.184
21.16000 1.674
21.18000 10.802
21.20000 12.726
21.22000 10.822
21.24000 9.545
21.26000 7.316
21.28000 7.831
21.30000 2.446
21.32000 -4.182
21.34000 5.700
21.36000 3.008
21.38000 4.885
21.40000 9.410
21.42000 9.211
21.44000 7.978
21.46000 10.352
21.48000 4.097
21.50000 3.901
21.52000 9.188
21.54000 3.788
21.56000 5.880
21.58000 8.291
21.60000 5.527
21.62000 3.130
21.64000 4.270
21.66000 5.879
21.68000 1.251
21.70000 1.556
21.72000 -0.903
21.74000 1.206
21.76000 1.383
21.78000 6.237
21.80000 0.270
21.82000 5.609
21.84000 8.409
21.86000 7.608
21.88000 6.432
21.90000 5.858
21.92000 4.743
21.94000 4.316
21.96000 -3.566
21.98000 -0.931
22.00000 9.284
22.02000 14.948
22.04000 9.155
22.06000 4.771
22.08000 4.872
22.10000 4.553
22.12000 10.776
22.14000 2.708
22.16000 2.407
22.18000 8.753
22.20000 9.512
22.22000 5.510
22.24000 5.769
22.26000 8.798
22.28000 7.887
22.30000 5.116
22.32000 -1.608
22.34000 1.484
22.36000 2.135
22.38000 1.211
22.40000 8.637
22.42000 6.966
22.44000 7.604
22.46000 8.260
22.48000 8.525
22.50000 9.552
22.52000 7.226
22.54000 13.006
22.56000 8.278
22.58000 1.247
22.60000 6.120
22.62000 8.449
22.64000 4.355
22.66000 -4.080
22.68000 -1.218
22.70000 3.248
22.72000 -1.099
22.74000 6.368
22.76000 7.331
22.78000 5.847
22.80000 10.803
22.82000 10.438
22.84000 9.177
22.86000 6.513
22.88000 3.387
22.90000 4.527
22.92000 5.414
22.94000 8.046
22.96000 2.478
22.98000 3.498
23.00000 6.116
23.02000 4.857
23.04000 0.796
23.06000 3.972
23.08000 0.548
23.10000 -4.047
23.12000 -1.861
23.14000 6.448
23.16000 11.661
23.18000 7.644
23.20000 12.927
23.22000 7.248
23.24000 6.448
23.26000 8.486
23.28000 8.464
23.30000 7.830
23.32000 8.876
23.34000 7.317
23.36000 9.917
23.38000 6.617
23.40000 4.101
23.42000 7.951
23.44000 6.109
23.46000 4.632
23.48000 10.996
23.50000 12.829
23.52000 11.460
23.54000 7.576
23.56000 3.211
23.58000 2.834
23.60000 3.755
23.62000 7.881
23.64000 5.874
23.66000 6.342
23.68000 7.978
23.70000 8.111
23.72000 6.334
23.74000 4.276
23.76000 4.122
23.78000 6.177
23.80000 8.434
23.82000 4.308
23.84000 9.211
23.86000 8.732
23.88000 7.735
23.90000 0.487
23.92000 -0.609
23.94000 10.003
23.96000 5.988
23.98000 3.962
24.00000 3.970
24.02000 3.683
24.04000 1.121
24.06000 5.389
24.08000 5.582
24.10000 -1.313
24.12000 -4.015
24.14000 -1.561
24.16000 6.803
24.18000 5.495
24.20000 -0.115
24.22000 -0.984
24.24000 0.566
24.26000 5.205
24.28000 7.249
24.30000 4.149
24.32000 4.013
24.34000 4.526
24.36000 -2.327
24.38000 -0.281
24.40000 -3.444
24.42000 2.539
24.44000 1.402
24.46000 -3.986
24.48000 -0.965
24.50000 1.269
24.52000 1.093
24.54000 4.434
24.56000 7.648
24.58000 -0.167
24.60000 -1.989
24.62000 2.674
24.64000 4.754
24.66000 6.282
24.68000 4.856
24.70000 4.111
24.72000 2.313
24.74000 3.920
24.76000 1.300
24.78000 -3.976
24.80000 -1.707
24.82000 5.400
24.84000 8.304
24.86000 7.180
24.88000 10.500
24.90000 1.374
24.92000 6.384
24.94000 8.330
24.96000 5.106
24.98000 4.721
25.00000 1.872
25.02000 0.346
25.04000 0.709
25.06000 4.489
25.08000 5.969
25.10000 6.640
25.12000 7.405
25.14000 8.617
25.16000 5.797
25.18000 5.677
25.20000 4.460
25.22000 3.014
25.24000 10.053
25.26000 7.284
25.28000 9.083
25.30000 8.591
25.32000 -0.074
25.34000 0.317
25.36000 -2.515
25.38000 4.494
25.40000 6.785
25.42000 3.095
25.44000 0.757
25.46000 3.974
25.48000 4.762
25.50000 6.892
25.52000 6.630
25.54000 3.315
25.56000 2.131
25.58000 5.315
25.60000 6.090
25.62000 0.992
25.64000 1.821
25.66000 1.249
25.68000 4.205
25.70000 4.894
25.72000 0.167
25.74000 1.885
25.76000 9.858
25.78000 13.532
25.80000 8.492
25.82000 0.634
25.84000 2.197
25.86000 -0.025
25.88000 -0.715
25.90000 -2.805
25.92000 -3.899
25.94000 -0.374
25.96000 4.223
25.98000 0.252
26.00000 -2.193
26.02000 0.907
26.04000 2.306
26.06000 2.776
26.08000 6.919
26.10000 7.808
26.12000 2.729
26.14000 4.518
26.16000 6.159
26.18000 2.319
26.20000 5.269
26.22000 -2.374
26.24000 0.549
26.26000 2.057
26.28000 0.118
26.30000 5.315
26.32000 6.518
26.34000 8.666
26.36000 2.583
26.38000 0.666
26.40000 -0.231
26.42000 0.084
26.44000 4.739
26.46000 2.499
26.48000 1.753
26.50000 2.158
26.52000 2.863
26.54000 -3.103
26.56000 1.571
26.58000 3.708
26.60000 4.066
26.62000 2.062
26.64000 5.113
26.66000 5.128
26.68000 2.935
26.70000 0.097
26.72000 6.553
26.74000 0.260
26.76000 -0.704
26.78000 0.274
26.80000 2.977
26.82000 4.666
26.84000 7.343
26.86000 4.111
26.88000 2.855
26.90000 2.558
26.92000 5.873
26.94000 2.851
26.96000 -3.783
26.98000 7.756
27.00000 7.178
27.02000 6.801
27.04000 3.415
27.06000 4.327
27.08000 1.076
27.10000 -3.867
27.12000 -3.045
27.14000 4.118
27.16000 6.906
27.18000 4.848
27.20000 6.706
27.22000 6.573
27.24000 2.585
27.26000 0.288
27.28000 3.803
27.30000 6.701
27.32000 3.729
27.34000 2.012
27.36000 4.964
27.38000 7.244
27.40000 3.945
27.42000 5.458
27.44000 5.160
27.46000 5.118
27.48000 3.846
27.50000 5.764
27.52000 5.537
27.54000 3.242
27.56000 -0.412
27.58000 -0.889
27.60000 2.599
27.62000 6.256
27.64000 7.464
27.66000 8.588
27.68000 9.218
27.70000 4.449
27.72000 2.839
27.74000 5.050
27.76000 1.287
27.78000 -1.294
27.80000 -3.827
27.82000 -0.714
27.84000 1.127
27.86000 4.076
27.88000 5.277
27.90000 5.443
27.92000 4.228
27.94000 4.337
27.96000 2.476
27.98000 2.835
28.00000 4.236
28.02000 6.964
28.04000 7.925
28.06000 -0.752
28.08000 -0.488
28.10000 7.080
28.12000 6.167
28.14000 4.660
28.16000 4.952
28.18000 4.625
28.20000 2.943
28.22000 1.987
28.24000 6.751
28.26000 4.351
28.28000 -0.565
28.30000 4.289
28.32000 5.929
28.34000 2.638
28.36000 4.095
28.38000 4.137
28.40000 6.700
28.42000 11.037
28.44000 9.629
28.46000 5.742
28.48000 2.604
28.50000 2.188
28.52000 -0.764
28.54000 5.957
28.56000 4.933
28.58000 -0.878
28.60000 -3.787
28.62000 3.064
28.64000 1.264
28.66000 3.623
28.68000 3.591
28.70000 4.893
28.72000 0.585
28.74000 -0.352
28.76000 3.315
28.78000 4.402
28.80000 6.186
28.82000 7.756
28.84000 4.521
28.86000 0.368
28.88000 7.758
28.90000 14.619
28.92000 9.709
28.94000 2.097
28.96000 2.403
28.98000 4.420
29.00000 3.589
29.02000 7.904
29.04000 2.215
29.06000 0.963
29.08000 -1.140
29.10000 0.823
29.12000 1.199
29.14000 3.139
29.16000 3.431
29.18000 6.236
29.20000 3.747
29.22000 4.118
29.24000 8.047
29.26000 10.368
29.28000 9.035
29.30000 6.565
29.32000 2.472
29.34000 7.647
29.36000 9.535
29.38000 3.874
29.40000 -3.711
29.42000 0.332
29.44000 3.362
29.46000 4.356
29.48000 2.396
29.50000 3.021
29.52000 4.614
29.54000 6.713
29.56000 4.671
29.58000 7.980
29.60000 5.641
29.62000 5.107
29.64000 5.792
29.66000 6.394
29.68000 7.971
29.70000 11.352
29.72000 6.152
29.74000 6.112
29.76000 2.900
29.78000 3.611
29.80000 4.230
29.82000 2.877
29.84000 -3.678
29.86000 3.389
29.88000 5.385
29.90000 8.410
29.92000 3.652
29.94000 4.538
29.96000 7.146
29.98000 5.945
30.00000 5.390
30.02000 6.388
30.04000 7.308
30.06000 -0.020
30.08000 3.638
30.10000 4.004
30.12000 10.575
30.14000 6.836
30.16000 5.728
30.18000 1.715
30.20000 1.325
30.22000 -0.006
30.24000 5.539
30.26000 3.716
30.28000 3.905
30.30000 3.158
30.32000 5.555
30.34000 6.176
30.36000 4.474
30.38000 0.672
30.40000 1.789
30.42000 4.744
30.44000 6.343
30.46000 10.160
30.48000 4.819
30.50000 6.979
30.52000 3.376
30.54000 6.444
30.56000 5.321
30.58000 0.574
30.60000 4.388
30.62000 9.723
30.64000 6.850
30.66000 2.851
30.68000 2.587
30.70000 3.507
30.72000 5.059
30.74000 0.684
30.76000 4.649
30.78000 8.757
30.80000 5.804
30.82000 4.985
30.84000 2.373
30.86000 -3.479
30.88000 -0.826
30.90000 1.086
30.92000 0.365
30.94000 -0.163
30.96000 -0.227
30.98000 3.527
31.00000 8.236
31.02000 5.046
31.04000 3.652
31.06000 4.541
31.08000 6.630
31.10000 9.925
31.12000 5.144
31.14000 5.133
31.16000 6.998
31.18000 2.426
31.20000 -2.022
31.22000 0.315
31.24000 4.580
31.26000 8.611
31.28000 5.442
31.30000 -1.088
31.32000 -1.182
31.34000 8.078
31.36000 7.034
31.38000 0.230
31.40000 1.093
31.42000 2.248
31.44000 5.434
31.46000 9.732
31.48000 9.588
31.50000 -0.953
31.52000 -3.596
31.54000 -1.232
31.56000 0.987
31.58000 4.962
31.60000 4.040
31.62000 5.891
31.64000 1.125
31.66000 -1.790
31.68000 3.777
31.70000 5.039
31.72000 4.749
31.74000 5.505
31.76000 7.388
31.78000 8.181
31.80000 5.492
31.82000 6.650
31.84000 5.420
31.86000 4.974
31.88000 4.462
31.90000 3.018
31.92000 3.873
31.94000 3.182
31.96000 -2.853
31.98000 -2.390
32.00000 0.408
32.02000 4.056
32.04000 1.674
32.06000 2.645
32.08000 7.410
32.10000 9.673
32.12000 3.629
32.14000 6.551
32.16000 6.867
32.18000 10.045
32.20000 3.842
32.22000 -0.401
32.24000 6.796
32.26000 7.525
32.28000 5.275
32.30000 2.142
32.32000 5.766
32.34000 3.782
32.36000 2.137
32.38000 0.597
32.40000 -1.799
32.42000 5.534
32.44000 5.433
32.46000 4.263
32.48000 2.622
32.50000 2.525
32.52000 2.611
32.54000 4.836
32.56000 6.543
32.58000 4.161
32.60000 2.762
32.62000 -1.427
32.64000 -3.592
32.66000 0.228
32.68000 1.875
32.70000 4.682
32.72000 8.839
32.74000 6.756
32.76000 6.598
32.78000 -0.431
32.80000 -0.455
32.82000 1.457
32.84000 3.025
32.86000 -0.974
32.88000 -0.443
32.90000 2.991
32.92000 3.016
32.94000 2.302
32.96000 1.535
32.98000 2.855
33.00000 7.010
33.02000 5.001
33.04000 2.938
33.06000 4.045
33.08000 -0.200
33.10000 -3.444
33.12000 -1.184
33.14000 7.017
33.16000 2.204
33.18000 -3.587
33.20000 -0.012
33.22000 -0.119
33.24000 1.734
33.26000 0.254
33.28000 -1.019
33.30000 -0.033
33.32000 0.990
33.34000 1.236
33.36000 2.876
33.38000 0.708
33.40000 3.582
33.42000 2.861
33.44000 4.270
33.46000 5.640
33.48000 4.277
33.50000 3.056
33.52000 4.051
33.54000 6.419
33.56000 3.704
33.58000 2.320
33.60000 4.125
33.62000 1.563
33.64000 -0.598
33.66000 2.137
33.68000 5.485
33.70000 2.002
33.72000 -0.813
33.74000 3.142
33.76000 7.829
33.78000 0.666
33.80000 0.905
33.82000 2.544
33.84000 6.975
33.86000 8.389
33.88000 6.316
33.90000 6.829
33.92000 4.834
33.94000 3.182
33.96000 -1.393
33.98000 3.436
34.00000 6.292
34.02000 4.087
34.04000 2.848
34.06000 5.979
34.08000 -0.077
34.10000 -0.887
34.12000 -3.547
34.14000 7.345
34.16000 8.130
34.18000 8.220
34.20000 6.742
34.22000 1.234
34.24000 -0.627
34.26000 1.904
34.28000 5.474
34.30000 1.218
34.32000 0.555
34.34000 3.728
34.36000 5.567
34.38000 5.531
34.40000 3.689
34.42000 -1.314
34.44000 1.460
34.46000 4.227
34.48000 4.295
34.50000 5.628
34.52000 4.525
34.54000 6.615
34.56000 4.774
34.58000 3.028
34.60000 2.141
34.62000 5.303
34.64000 3.790
34.66000 7.093
34.68000 5.240
34.70000 -0.495
34.72000 0.125
34.74000 -3.527
34.76000 1.355
34.78000 7.134
34.80000 1.499
34.82000 0.954
34.84000 -2.188
34.86000 3.727
34.88000 -0.116
34.90000 3.978
34.92000 3.392
34.94000 -0.061
34.96000 0.707
34.98000 -3.516
35.00000 2.281
35.02000 4.479
35.04000 3.796
35.06000 2.795
35.08000 1.275
35.10000 -1.386
35.12000 4.549
35.14000 5.525
35.16000 2.475
35.18000 1.707
35.20000 -1.211
35.22000 -0.747
35.24000 1.245
35.26000 4.284
35.28000 -0.901
35.30000 4.227
35.32000 3.167
35.34000 2.797
35.36000 1.591
35.38000 6.384
35.40000 7.759
35.42000 4.426
35.44000 1.310
35.46000 5.865
35.48000 7.030
35.50000 -2.651
35.52000 -2.194
35.54000 -0.637
35.56000 -2.054
35.58000 -1.984
35.60000 0.714
35.62000 1.187
35.64000 0.773
35.66000 4.479
35.68000 1.344
35.70000 3.748
35.72000 2.690
35.74000 -3.520
35.76000 -0.619
35.78000 3.901
35.80000 3.118
35.82000 8.066
35.84000 6.133
35.86000 3.416
35.88000 0.062
35.90000 -0.728
35.92000 3.256
35.94000 6.996
35.96000 5.939
35.98000 3.755
36.00000 2.775
36.02000 2.685
36.04000 0.020
36.06000 0.005
36.08000 -0.476
36.10000 2.109
36.12000 1.257
36.14000 1.356
36.16000 4.660
36.18000 5.778
36.20000 2.036
36.22000 1.791
36.24000 0.846
36.26000 2.456
36.28000 2.113
36.30000 2.458
36.32000 4.454
36.34000 4.285
36.36000 6.912
36.38000 5.888
36.40000 1.833
36.42000 0.321
36.44000 -2.688
36.46000 -0.727
36.48000 3.180
36.50000 4.068
36.52000 5.627
36.54000 4.382
36.56000 3.972
36.58000 2.459
36.60000 1.004
36.62000 1.461
36.64000 -3.498
36.66000 -1.242
36.68000 1.173
36.70000 -0.413
36.72000 2.885
36.74000 7.375
36.76000 5.966
36.78000 0.684
36.80000 4.915
36.82000 4.621
36.84000 5.050
36.86000 3.234
36.88000 -0.804
36.90000 1.716
36.92000 6.756
36.94000 3.965
36.96000 6.005
36.98000 3.823
37.00000 0.902
37.02000 1.191
37.04000 2.951
37.06000 4.733
37.08000 3.877
37.10000 3.190
37.12000 -2.120
37.14000 -3.115
37.16000 0.193
37.18000 3.665
37.20000 2.523
37.22000 2.493
37.24000 6.610
37.26000 1.684
37.28000 -0.005
37.30000 0.129
37.32000 -1.200
37.34000 -2.221
37.36000 -3.240
37.38000 1.851
37.40000 0.845
37.42000 -1.143
37.44000 -2.429
37.46000 -3.564
37.48000 0.409
37.50000 -0.219
37.52000 1.105
37.54000 -2.904
37.56000 -0.344
37.58000 -1.109
37.60000 -3.113
37.62000 -0.006
37.64000 4.906
37.66000 1.647
37.68000 1.529
37.70000 5.281
37.72000 2.109
37.74000 -0.843
37.76000 -2.365
37.78000 -1.850
37.80000 5.696
37.82000 2.729
37.84000 -2.269
37.86000 -2.749
37.88000 -1.392
37.90000 -3.132
37.92000 -1.707
37.94000 0.947
37.96000 -2.358
37.98000 -2.998
38.00000 -1.111
38.02000 5.207
38.04000 6.512
38.06000 8.210
38.08000 6.078
38.10000 3.991
38.12000 7.907
38.14000 12.094
38.16000 11.607
38.18000 7.620
38.20000 11.742
38.22000 6.216
38.24000 3.014
38.26000 4.375
38.28000 6.928
38.30000 8.762
38.32000 9.966
38.34000 10.876
38.36000 15.587
38.38000 16.125
38.40000 11.087
38.42000 8.853
38.44000 12.783
38.46000 14.154
38.48000 11.497
38.50000 11.134
38.52000 7.393
38.54000 10.300
38.56000 9.725
38.58000 14.157
38.60000 12.881
38.62000 13.573
38.64000 15.800
38.66000 13.459
38.68000 13.715
38.70000 15.598
38.72000 21.070
38.74000 20.228
38.76000 22.460
38.78000 23.619
38.80000 22.249
38.82000 23.457
38.84000 23.930
38.86000 21.221
38.88000 24.920
38.90000 25.838
38.92000 28.292
38.94000 24.931
38.96000 20.317
38.98000 25.225
39.00000 28.186
39.02000 28.272
39.04000 29.050
39.06000 30.526
39.08000 30.844
39.10000 31.853
39.12000 35.808
39.14000 37.397
39.16000 36.545
39.18000 39.393
39.20000 37.763
39.22000 40.045
39.24000 44.247
39.26000 45.322
39.28000 49.188
39.30000 51.142
39.32000 52.096
39.34000 48.613
39.36000 53.698
39.38000 58.331
39.40000 55.518
39.42000 61.557
39.44000 67.236
39.46000 70.221
39.48000 69.504
39.50000 77.018
39.52000 81.167
39.54000 83.772
39.56000 89.592
39.58000 93.022
39.60000 97.811
39.62000 104.772
39.64000 108.951
39.66000 112.292
39.68000 119.833
39.70000 127.892
39.72000 136.508
39.74000 145.540
39.76000 154.587
39.78000 171.779
39.80000 184.173
39.82000 192.592
39.84000 204.320
39.86000 221.505
39.88000 235.269
39.90000 252.371
39.92000 277.564
39.94000 295.184
39.96000 317.620
39.98000 346.674
40.00000 366.029
40.02000 390.161
40.04000 424.209
40.06000 453.343
40.08000 481.439
40.10000 521.428
40.12000 568.042
40.14000 599.436
40.16000 637.775
40.18000 683.349
40.20000 725.145
40.22000 769.405
40.24000 819.698
40.26000 860.946
40.28000 909.835
40.30000 943.410
40.32000 983.885
40.34000 1026.411
40.36000 1060.280
40.38000 1098.455
40.40000 1130.087
40.42000 1150.740
40.44000 1179.411
40.46000 1179.833
40.48000 1181.169
40.50000 1189.479
40.52000 1202.007
40.54000 1197.918
40.56000 1175.959
40.58000 1171.238
40.60000 1151.885
40.62000 1115.829
40.64000 1091.186
40.66000 1067.013
40.68000 1021.265
40.70000 1005.510
40.72000 968.827
40.74000 933.251
40.76000 903.203
40.78000 865.115
40.80000 826.204
40.82000 789.754
40.84000 760.140
40.86000 726.529
40.88000 690.142
40.90000 654.897
40.92000 631.141
40.94000 599.659
40.96000 569.543
40.98000 543.659
41.00000 514.270
41.02000 477.977
41.04000 454.652
41.06000 428.634
41.08000 403.725
41.10000 379.104
41.12000 365.582
41.14000 349.617
41.16000 327.618
41.18000 311.675
41.20000 299.414
41.22000 286.845
41.24000 270.462
41.26000 250.365
41.28000 233.988
41.30000 218.175
41.32000 209.930
41.34000 196.842
41.36000 180.525
41.38000 171.664
41.40000 163.992
41.42000 160.584
41.44000 154.394
41.46000 148.471
41.48000 142.864
41.50000 136.695
41.52000 129.481
41.54000 119.672
41.56000 108.965
41.58000 103.615
41.60000 99.903
41.62000 97.669
41.64000 100.229
41.66000 92.163
41.68000 90.102
41.70000 88.226
41.72000 77.981
41.74000 74.134
41.76000 69.762
41.78000 67.648
41.80000 60.639
41.82000 60.728
41.84000 62.331
41.86000 60.823
41.88000 56.422
41.90000 52.598
41.92000 50.205
41.94000 51.724
41.96000 47.861
41.98000 46.432
42.00000 41.320
42.02000 39.597
42.04000 35.053
42.06000 35.651
42.08000 35.936
42.10000 32.277
42.12000 32.740
42.14000 33.560
42.16000 30.936
42.18000 33.000
42.20000 32.031
42.22000 29.335
42.24000 28.122
42.26000 22.358
42.28000 26.959
42.30000 23.255
42.32000 22.572
42.34000 19.906
42.36000 19.389
42.38000 18.062
42.40000 14.261
42.42000 19.629
42.44000 18.099
42.46000 18.983
42.48000 19.701
42.50000 16.250
42.52000 13.115
42.54000 13.203
42.56000 11.866
42.58000 14.463
42.60000 13.179
42.62000 15.977
42.64000 10.637
42.66000 12.322
42.68000 9.554
42.70000 8.375
42.72000 9.836
42.74000 6.703
42.76000 10.040
42.78000 8.335
42.80000 7.021
42.82000 7.598
42.84000 5.843
42.86000 8.670
42.88000 8.678
42.90000 6.165
42.92000 1.069
42.94000 4.724
42.96000 3.291
42.98000 6.906
43.00000 7.457
43.02000 0.767
43.04000 5.598
43.06000 5.454
43.08000 6.929
43.10000 1.342
43.12000 8.644
43.14000 5.574
43.16000 1.997
43.18000 4.419
43.20000 5.608
43.22000 6.269
43.24000 6.609
43.26000 5.481
43.28000 1.801
43.30000 1.407
43.32000 -1.930
43.34000 -2.158
43.36000 0.435
43.38000 2.010
43.40000 1.851
43.42000 0.890
43.44000 2.938
43.46000 2.448
43.48000 2.152
43.50000 3.134
43.52000 1.381
43.54000 0.327
43.56000 0.137
43.58000 0.601
43.60000 -2.166
43.62000 1.974
43.64000 2.292
43.66000 -0.452
43.68000 4.534
43.70000 5.073
43.72000 4.701
43.74000 5.492
43.76000 3.435
43.78000 0.685
43.80000 -0.140
43.82000 2.895
43.84000 -0.082
43.86000 -3.320
43.88000 -0.289
43.90000 2.140
43.92000 2.602
43.94000 1.424
43.96000 3.750
43.98000 7.693
44.00000 4.590
44.02000 -0.815
44.04000 -2.604
44.06000 -1.063
44.08000 -2.024
44.10000 -1.089
44.12000 -3.285
44.14000 -1.061
44.16000 2.071
44.18000 4.239
44.20000 1.999
44.22000 2.343
44.24000 1.787
44.26000 -0.302
44.28000 -0.882
44.30000 -0.199
44.32000 3.046
44.34000 3.684
44.36000 3.055
44.38000 0.256
44.40000 1.558
44.42000 1.478
44.44000 -1.345
44.46000 -0.056
44.48000 0.599
44.50000 0.770
44.52000 3.936
44.54000 2.577
44.56000 0.755
44.58000 0.198
44.60000 -0.916
44.62000 -3.245
44.64000 -0.801
44.66000 3.653
44.68000 2.387
44.70000 2.257
44.72000 -1.374
44.74000 0.542
44.76000 -0.354
44.78000 0.717
44.80000 2.468
44.82000 0.670
44.84000 -1.309
44.86000 -0.227
44.88000 -2.112
44.90000 -0.971
44.92000 -2.402
44.94000 -1.446
44.96000 -2.814
44.98000 -3.239
45.00000 2.694
45.02000 2.407
45.04000 3.000
45.06000 -1.856
45.08000 -3.037
45.10000 0.223
45.12000 -0.084
45.14000 -1.742
45.16000 -2.810
45.18000 -2.224
45.20000 0.150
45.22000 2.396
45.24000 1.038
45.26000 -1.342
45.28000 -0.866
45.30000 1.996
45.32000 1.505
45.34000 0.896
45.36000 5.202
45.38000 1.205
45.40000 -1.841
45.42000 -2.421
45.44000 3.130
45.46000 1.831
45.48000 2.413
45.50000 5.069
45.52000 2.837
45.54000 -0.293
45.56000 2.337
45.58000 4.479
45.60000 2.462
45.62000 5.139
45.64000 7.058
45.66000 1.999
45.68000 4.809
45.70000 7.319
45.72000 6.302
45.74000 3.262
45.76000 3.045
45.78000 7.834
45.80000 7.307
45.82000 7.874
45.84000 7.506
45.86000 11.604
45.88000 9.683
45.90000 8.873
45.92000 8.794
45.94000 12.088
45.96000 8.925
45.98000 9.689
46.00000 11.376
46.02000 11.122
46.04000 15.974
46.06000 16.478
46.08000 16.962
46.10000 14.467
46.12000 17.613
46.14000 16.808
46.16000 16.034
46.18000 18.062
46.20000 20.439
46.22000 23.232
46.24000 25.632
46.26000 25.163
46.28000 28.045
46.30000 25.301
46.32000 24.283
46.34000 27.919
46.36000 28.418
46.38000 30.928
46.40000 32.707
46.42000 33.705
46.44000 39.981
46.46000 43.122
46.48000 40.831
46.50000 47.320
46.52000 52.583
46.54000 51.059
46.56000 50.317
46.58000 47.770
46.60000 50.560
46.62000 55.014
46.64000 59.753
46.66000 56.691
46.68000 61.274
46.70000 67.181
46.72000 71.633
46.74000 79.313
46.76000 85.076
46.78000 86.188
46.80000 84.846
46.82000 88.774
46.84000 96.266
46.86000 96.229
46.88000 101.331
46.90000 105.549
46.92000 107.998
46.94000 112.196
46.96000 113.382
46.98000 119.392
47.00000 124.429
47.02000 120.788
47.04000 122.483
47.06000 121.284
47.08000 121.280
47.10000 120.589
47.12000 128.906
47.14000 136.539
47.16000 126.987
47.18000 129.627
47.20000 129.443
47.22000 131.102
47.24000 133.875
47.26000 127.511
47.28000 120.839
47.30000 117.111
47.32000 118.575
47.34000 116.787
47.36000 114.910
47.38000 111.135
47.40000 109.591
47.42000 105.105
47.44000 102.434
47.46000 100.161
47.48000 98.863
47.50000 94.265
47.52000 89.810
47.54000 85.177
47.56000 83.801
47.58000 79.791
47.60000 77.857
47.62000 68.320
47.64000 62.743
47.66000 58.258
47.68000 55.165
47.70000 54.861
47.72000 59.986
47.74000 58.590
47.76000 53.152
47.78000 49.408
47.80000 44.013
47.82000 43.704
47.84000 42.305
47.86000 38.198
47.88000 34.148
47.90000 35.105
47.92000 33.416
47.94000 32.691
47.96000 31.562
47.98000 28.747
48.00000 26.812
48.02000 28.294
48.04000 22.718
48.06000 20.552
48.08000 18.476
48.10000 19.303
48.12000 18.519
48.14000 21.162
48.16000 20.180
48.18000 16.326
48.20000 14.684
48.22000 9.842
48.24000 12.631
48.26000 16.097
48.28000 15.707
48.30000 12.625
48.32000 9.487
48.34000 9.167
48.36000 10.525
48.38000 8.669
48.40000 6.949
48.42000 4.251
48.44000 3.216
48.46000 5.795
48.48000 4.120
48.50000 4.307
48.52000 5.608
48.54000 4.605
48.56000 2.751
48.58000 -0.262
48.60000 0.534
48.62000 3.863
48.64000 6.755
48.66000 4.293
48.68000 5.576
48.70000 4.773
48.72000 3.583
48.74000 3.074
48.76000 2.261
48.78000 2.938
48.80000 4.685
48.82000 4.276
48.84000 -1.091
48.86000 1.323
48.88000 1.882
48.90000 1.349
48.92000 1.706
48.94000 1.042
48.96000 -2.668
48.98000 -0.570
49.00000 1.532
49.02000 1.722
49.04000 2.075
49.06000 2.269
49.08000 3.188
49.10000 -0.291
49.12000 2.002
49.14000 -0.176
49.16000 1.991
49.18000 3.169
49.20000 3.403
49.22000 3.995
49.24000 3.815
49.26000 2.551
49.28000 -2.623
49.30000 0.918
49.32000 -0.754
49.34000 0.755
49.36000 1.157
49.38000 1.425
49.40000 -0.467
49.42000 -1.761
49.44000 -2.257
49.46000 3.352
49.48000 1.985
49.50000 2.516
49.52000 2.539
49.54000 4.281
49.56000 -0.500
49.58000 -2.598
49.60000 2.549
49.62000 6.639
49.64000 4.038
49.66000 -0.163
49.68000 0.022
49.70000 1.655
49.72000 3.466
49.74000 4.089
49.76000 4.159
49.78000 6.412
49.80000 4.421
49.82000 1.677
49.84000 3.609
49.86000 4.809
49.88000 1.719
49.90000 -2.501
49.92000 -1.119
49.94000 -1.963
49.96000 0.958
49.98000 1.691
50.00000 5.156
50.02000 5.679
50.04000 4.143
50.06000 0.078
50.08000 0.792
50.10000 1.786
50.12000 0.083
50.14000 3.208
50.16000 2.108
50.18000 1.665
50.20000 0.057
50.22000 -2.531
50.24000 -0.993
50.26000 -1.131
50.28000 1.428
50.30000 2.115
50.32000 5.217
50.34000 4.942
50.36000 6.983
50.38000 7.826
50.40000 2.933
50.42000 4.439
50.44000 2.235
50.46000 3.407
50.48000 2.880
50.50000 2.581
50.52000 3.634
50.54000 7.939
50.56000 3.336
50.58000 3.710
50.60000 0.351
50.62000 -2.491
50.64000 0.768
50.66000 3.025
50.68000 2.756
50.70000 1.958
50.72000 1.574
50.74000 3.636
50.76000 3.502
50.78000 -0.419
50.80000 -0.188
50.82000 2.142
50.84000 2.741
50.86000 1.324
50.88000 0.995
50.90000 2.153
50.92000 2.623
50.94000 5.685
50.96000 7.395
50.98000 5.452
51.00000 3.766
51.02000 2.411
51.04000 1.768
51.06000 1.775
51.08000 2.576
51.10000 -0.100
51.12000 1.996
51.14000 4.500
51.16000 2.164
51.18000 1.116
51.20000 0.036
51.22000 2.122
51.24000 1.582
51.26000 2.742
51.28000 2.565
51.30000 4.122
51.32000 0.553
51.34000 5.712
51.36000 3.370
51.38000 3.784
51.40000 3.271
51.42000 5.948
51.44000 2.910
51.46000 5.082
51.48000 2.537
51.50000 -2.231
51.52000 -2.436
51.54000 -1.964
51.56000 -0.313
51.58000 -1.443
51.60000 0.513
51.62000 3.317
51.64000 2.392
51.66000 3.500
51.68000 2.068
51.70000 0.631
51.72000 1.056
51.74000 1.258
51.76000 1.302
51.78000 1.921
51.80000 -0.420
51.82000 2.337
51.84000 5.051
51.86000 3.922
51.88000 3.611
51.90000 -0.236
51.92000 -0.839
51.94000 2.283
51.96000 3.208
51.98000 3.807
52.00000 1.128
52.02000 3.213
52.04000 4.493
52.06000 3.422
52.08000 4.750
52.10000 1.764
52.12000 2.047
52.14000 4.181
52.16000 1.124
52.18000 0.520
52.20000 1.884
52.22000 -0.278
52.24000 -1.578
52.26000 0.345
52.28000 4.256
52.30000 0.949
52.32000 3.096
52.34000 4.205
52.36000 3.710
52.38000 1.095
52.40000 4.764
52.42000 3.919
52.44000 -2.419
52.46000 -2.223
52.48000 3.487
52.50000 2.043
52.52000 0.629
52.54000 3.115
52.56000 3.023
52.58000 1.693
52.60000 1.445
52.62000 3.348
52.64000 1.315
52.66000 2.800
52.68000 -0.288
52.70000 -1.975
52.72000 1.545
52.74000 0.342
52.76000 -0.406
52.78000 1.334
52.80000 3.751
52.82000 1.614
52.84000 4.875
52.86000 4.889
52.88000 3.481
52.90000 2.985
52.92000 4.642
52.94000 4.030
52.96000 -0.048
52.98000 -1.200
53.00000 4.147
53.02000 4.188
53.04000 0.454
53.06000 -0.829
53.08000 -0.179
53.10000 0.167
53.12000 2.713
53.14000 4.588
53.16000 0.795
53.18000 -1.214
53.20000 1.133
53.22000 1.092
53.24000 1.196
53.26000 -0.716
53.28000 -2.386
53.30000 3.406
53.32000 2.660
53.34000 4.824
53.36000 2.405
53.38000 4.655
53.40000 1.069
53.42000 1.609
53.44000 0.651
53.46000 0.015
53.48000 0.725
53.50000 -0.751
53.52000 0.504
53.54000 1.189
53.56000 -0.186
53.58000 1.854
53.60000 2.471
53.62000 3.626
53.64000 1.515
53.66000 1.422
53.68000 5.489
53.70000 2.668
53.72000 2.051
53.74000 4.331
53.76000 4.518
53.78000 3.303
53.80000 2.681
53.82000 3.068
53.84000 2.466
53.86000 2.576
53.88000 6.243
53.90000 3.471
53.92000 0.587
53.94000 -0.128
53.96000 -1.370
53.98000 -2.188
54.00000 -0.740
54.02000 4.307
54.04000 5.135
54.06000 2.593
54.08000 -1.615
54.10000 -1.307
54.12000 -2.361
54.14000 1.032
54.16000 -2.168
54.18000 1.090
54.20000 0.137
54.22000 2.318
54.24000 0.536
54.26000 2.192
54.28000 0.797
54.30000 3.530
54.32000 2.659
54.34000 4.674
54.36000 2.530
54.38000 3.331
54.40000 3.349
54.42000 4.589
54.44000 4.411
54.46000 4.614
54.48000 2.467
54.50000 2.409
54.52000 6.274
54.54000 3.459
54.56000 1.087
54.58000 5.325
54.60000 4.070
54.62000 4.905
54.64000 4.993
54.66000 4.542
54.68000 5.005
54.70000 3.563
54.72000 1.479
54.74000 3.388
54.76000 4.199
54.78000 3.220
54.80000 3.950
54.82000 3.873
54.84000 4.361
54.86000 3.085
54.88000 4.205
54.90000 3.534
54.92000 3.681
54.94000 -2.309
54.96000 1.905
54.98000 4.605
55.00000 5.550
55.02000 4.214
55.04000 5.722
55.06000 4.180
55.08000 0.058
55.10000 -0.761
55.12000 1.698
55.14000 3.820
55.16000 4.998
55.18000 6.271
55.20000 5.535
55.22000 4.784
55.24000 5.108
55.26000 3.778
55.28000 2.520
55.30000 4.978
55.32000 3.117
55.34000 -0.932
55.36000 -0.562
55.38000 1.770
55.40000 0.683
55.42000 1.502
55.44000 0.602
55.46000 0.976
55.48000 0.493
55.50000 2.102
55.52000 4.160
55.54000 5.759
55.56000 6.479
55.58000 5.900
55.60000 3.515
55.62000 -0.078
55.64000 3.574
55.66000 3.750
55.68000 3.344
55.70000 4.143
55.72000 1.745
55.74000 -0.860
55.76000 -0.807
55.78000 2.225
55.80000 3.363
55.82000 2.909
55.84000 0.266
55.86000 1.304
55.88000 4.319
55.90000 6.097
55.92000 4.894
55.94000 4.070
55.96000 0.827
55.98000 0.564
56.00000 5.657
56.02000 4.515
56.04000 5.241
56.06000 1.823
56.08000 0.344
56.10000 -2.312
56.12000 2.340
56.14000 2.875
56.16000 2.928
56.18000 1.068
56.20000 -0.177
56.22000 0.560
56.24000 -0.269
56.26000 0.266
56.28000 3.704
56.30000 1.197
56.32000 2.860
56.34000 0.820
56.36000 1.943
56.38000 0.043
56.40000 0.531
56.42000 2.304
56.44000 0.356
56.46000 2.883
56.48000 2.017
56.50000 -1.060
56.52000 -0.174
56.54000 2.667
56.56000 0.452
56.58000 1.764
56.60000 2.984
56.62000 1.391
56.64000 3.848
56.66000 2.521
56.68000 5.453
56.70000 3.389
56.72000 2.163
56.74000 1.834
56.76000 4.226
56.78000 3.394
56.80000 3.168
56.82000 0.546
56.84000 0.916
56.86000 3.493
56.88000 5.795
56.90000 2.076
56.92000 3.060
56.94000 1.711
56.96000 0.843
56.98000 0.049
57.00000 -0.384
57.02000 -2.289
57.04000 1.115
57.06000 2.762
57.08000 0.119
57.10000 -0.361
57.12000 -0.018
57.14000 0.648
57.16000 -0.520
57.18000 0.681
57.20000 2.351
57.22000 5.159
57.24000 4.501
57.26000 0.588
57.28000 0.271
57.30000 0.232
57.32000 2.014
57.34000 -0.237
57.36000 -0.257
57.38000 3.578
57.40000 1.471
57.42000 2.214
57.44000 0.881
57.46000 0.171
57.48000 0.540
57.50000 0.398
57.52000 0.580
57.54000 1.190
57.56000 0.410
57.58000 2.145
57.60000 -0.151
57.62000 -1.731
57.64000 -0.234
57.66000 0.267
57.68000 -1.185
57.70000 2.276
57.72000 4.824
57.74000 1.489
57.76000 1.396
57.78000 1.871
57.80000 -1.341
57.82000 -2.032
57.84000 -0.847
57.86000 -2.276
57.88000 0.132
57.90000 1.693
57.92000 2.769
57.94000 2.800
57.96000 -1.413
57.98000 -1.519
58.00000 -0.603
58.02000 2.739
58.04000 0.996
58.06000 4.682
58.08000 5.306
58.10000 3.313
58.12000 3.034
58.14000 0.496
58.16000 0.413
58.18000 1.490
58.20000 2.126
58.22000 -0.502
58.24000 -0.354
58.26000 0.554
58.28000 -0.394
58.30000 0.256
58.32000 2.175
58.34000 5.280
58.36000 4.900
58.38000 3.559
58.40000 2.830
58.42000 -1.949
58.44000 -1.897
58.46000 0.970
58.48000 -2.199
58.50000 0.877
58.52000 1.327
58.54000 -1.096
58.56000 -1.309
58.58000 0.223
58.60000 -1.439
58.62000 -1.450
58.64000 0.000
58.66000 2.144
58.68000 3.874
58.70000 1.382
58.72000 -2.251
58.74000 -0.063
58.76000 2.613
58.78000 -0.614
58.80000 -2.091
58.82000 0.667
58.84000 0.033
58.86000 0.376
58.88000 2.097
58.90000 3.204
58.92000 4.460
58.94000 4.047
58.96000 2.183
58.98000 -0.026
59.00000 1.972
59.02000 6.493
59.04000 4.296
59.06000 0.475
59.08000 -1.446
59.10000 -2.228
59.12000 0.846
59.14000 4.722
59.16000 5.139
59.18000 2.489
59.20000 3.428
59.22000 6.708
59.24000 4.420
59.26000 2.280
59.28000 1.153
59.30000 0.250
59.32000 0.622
59.34000 4.426
59.36000 0.349
59.38000 -2.204
59.40000 2.431
59.42000 2.391
59.44000 -1.204
59.46000 1.296
59.48000 4.079
59.50000 3.213
59.52000 3.910
59.54000 2.244
59.56000 2.456
59.58000 1.132
59.60000 0.817
59.62000 3.168
59.64000 5.861
59.66000 4.152
59.68000 2.359
59.70000 -0.424
59.72000 -1.336
59.74000 -1.651
59.76000 -2.192
59.78000 -1.057
59.80000 0.357
59.82000 1.090
59.84000 4.810
59.86000 4.196
59.88000 4.716
59.90000 3.000
59.92000 4.362
59.94000 5.047
59.96000 0.396
59.98000 -0.201
60.00000 2.424
60.02000 2.021
60.04000 0.835
60.06000 -1.902
60.08000 2.502
60.10000 3.343
60.12000 3.300
60.14000 2.022
60.16000 -0.036
60.18000 2.206
60.20000 1.784
60.22000 0.248
60.24000 1.271
60.26000 4.759
60.28000 0.865
60.30000 -0.698
60.32000 0.547
60.34000 -0.132
60.36000 2.431
60.38000 2.351
60.40000 2.208
60.42000 0.696
60.44000 -0.711
60.46000 -0.304
60.48000 -0.854
60.50000 1.907
60.52000 3.453
60.54000 0.637
60.56000 -0.581
60.58000 -1.001
60.60000 1.136
60.62000 2.321
60.64000 3.592
60.66000 2.555
60.68000 1.760
60.70000 -0.275
60.72000 -0.656
60.74000 0.799
60.76000 -0.314
60.78000 3.752
60.80000 4.042
60.82000 -0.762
60.84000 -2.174
60.86000 2.769
60.88000 2.635
60.90000 0.538
60.92000 1.941
60.94000 0.337
60.96000 0.937
60.98000 0.537
61.00000 4.235
61.02000 1.113
61.04000 0.904
61.06000 -0.844
61.08000 0.695
61.10000 1.567
61.12000 1.371
61.14000 1.387
61.16000 -0.681
61.18000 0.183
61.20000 -1.639
61.22000 0.311
61.24000 0.476
61.26000 0.569
61.28000 2.092
61.30000 3.317
61.32000 2.795
61.34000 0.096
61.36000 0.139
61.38000 2.479
61.40000 1.916
61.42000 0.508
61.44000 0.106
61.46000 -0.545
61.48000 -1.406
61.50000 -2.159
61.52000 -0.486
61.54000 0.446
61.56000 1.050
61.58000 -0.082
61.60000 2.183
61.62000 1.915
61.64000 1.303
61.66000 1.314
61.68000 0.181
61.70000 -2.151
61.72000 0.536
61.74000 2.617
61.76000 1.948
61.78000 1.313
61.80000 0.719
61.82000 0.416
61.84000 3.749
61.86000 3.509
61.88000 1.501
61.90000 -0.580
61.92000 2.331
61.94000 2.359
61.96000 2.929
61.98000 1.411
62.00000 2.622
62.02000 4.322
62.04000 -0.305
62.06000 0.268
62.08000 1.390
62.10000 1.335
62.12000 -1.738
62.14000 -1.082
62.16000 1.536
62.18000 4.109
62.20000 5.317
62.22000 4.779
62.24000 2.387
62.26000 4.363
62.28000 4.206
62.30000 2.763
62.32000 -0.893
62.34000 0.007
62.36000 0.132
62.38000 1.317
62.40000 0.617
62.42000 1.863
62.44000 1.025
62.46000 1.625
62.48000 1.909
62.50000 3.367
62.52000 -2.146
62.54000 -0.231
62.56000 0.924
62.58000 -0.853
62.60000 0.594
62.62000 0.580
62.64000 1.990
62.66000 3.646
62.68000 2.079
62.70000 0.312
62.72000 0.263
62.74000 2.260
62.76000 3.394
62.78000 2.652
62.80000 2.413
62.82000 1.536
62.84000 -2.133
62.86000 -0.872
62.88000 1.555
62.90000 4.092
62.92000 4.208
62.94000 2.023
62.96000 0.082
62.98000 -0.563
63.00000 1.143
63.02000 2.369
63.04000 2.406
63.06000 1.717
63.08000 1.687
63.10000 0.977
63.12000 -2.148
63.14000 -1.319
63.16000 2.603
63.18000 3.391
63.20000 3.939
63.22000 1.580
63.24000 -0.321
63.26000 0.281
63.28000 -1.446
63.30000 -0.181
63.32000 -1.493
63.34000 -1.040
63.36000 2.180
63.38000 4.313
63.40000 0.866
63.42000 -1.144
63.44000 1.378
63.46000 2.982
63.48000 0.521
63.50000 -1.496
63.52000 -0.521
63.54000 -1.039
63.56000 -1.782
63.58000 -2.158
63.60000 -0.446
63.62000 3.288
63.64000 2.938
63.66000 -0.171
63.68000 -0.027
63.70000 -1.233
63.72000 0.998
63.74000 0.811
63.76000 1.851
63.78000 -0.400
63.80000 1.746
63.82000 0.871
63.84000 0.996
63.86000 0.940
63.88000 3.981
63.90000 -0.082
63.92000 1.398
63.94000 0.019
63.96000 -1.888
63.98000 -0.548
64.00000 1.635
64.02000 0.714
64.04000 0.107
64.06000 0.036
64.08000 -0.098
64.10000 2.902
64.12000 0.630
64.14000 1.803
64.16000 1.300
64.18000 -0.522
64.20000 -0.994
64.22000 -2.149
64.24000 0.239
64.26000 1.555
64.28000 2.238
64.30000 2.998
64.32000 3.834
64.34000 0.197
64.36000 -0.551
64.38000 0.297
64.40000 -0.527
64.42000 -0.541
64.44000 -0.176
64.46000 2.168
64.48000 0.413
64.50000 0.035
64.52000 -1.650
64.54000 0.515
64.56000 -1.787
64.58000 -0.233
64.60000 -1.073
64.62000 -0.275
64.64000 -1.641
64.66000 -0.130
64.68000 1.724
64.70000 1.447
64.72000 0.236
64.74000 1.053
64.76000 2.144
64.78000 5.065
64.80000 0.907
64.82000 -0.387
64.84000 -0.121
64.86000 -0.281
64.88000 3.744
64.90000 4.512
64.92000 3.677
64.94000 1.210
64.96000 0.553
64.98000 -1.075
65.00000 1.136
65.02000 -0.463
65.04000 -0.870
65.06000 0.871
65.08000 0.469
65.10000 0.588
65.12000 -1.926
65.14000 1.678
65.16000 -1.399
65.18000 -0.401
65.20000 -2.153
65.22000 1.238
65.24000 3.364
65.26000 4.442
65.28000 1.046
65.30000 -1.223
65.32000 2.033
65.34000 -0.339
65.36000 0.655
65.38000 1.437
65.40000 -0.002
65.42000 1.370
65.44000 -0.091
65.46000 -0.419
65.48000 -1.849
65.50000 -1.017
65.52000 1.446
65.54000 0.834
65.56000 0.099
65.58000 -0.689
65.60000 -0.558
65.62000 0.293
65.64000 2.703
65.66000 0.622
65.68000 -0.544
65.70000 -0.190
65.72000 -1.070
65.74000 -1.802
65.76000 -0.509
65.78000 0.409
65.80000 2.425
65.82000 4.215
65.84000 3.028
65.86000 0.830
65.88000 -0.782
65.90000 -1.841
65.92000 0.537
65.94000 2.507
65.96000 0.977
65.98000 1.072
66.00000 1.876
66.02000 2.514
66.04000 -0.043
66.06000 -1.225
66.08000 -1.077
66.10000 0.707
66.12000 3.251
66.14000 3.382
66.16000 0.894
66.18000 -0.470
66.20000 -2.114
66.22000 1.607
66.24000 4.793
66.26000 0.552
66.28000 1.149
66.30000 1.267
66.32000 2.720
66.34000 3.290
66.36000 4.551
66.38000 1.524
66.40000 1.390
66.42000 1.601
66.44000 0.902
66.46000 0.952
66.48000 0.832
66.50000 0.883
66.52000 1.729
66.54000 1.285
66.56000 0.899
66.58000 3.904
66.60000 3.623
66.62000 2.775
66.64000 1.222
66.66000 -0.628
66.68000 0.681
66.70000 0.148
66.72000 -0.470
66.74000 -2.161
66.76000 -0.591
66.78000 1.587
66.80000 1.587
66.82000 1.627
66.84000 1.990
66.86000 1.333
66.88000 3.610
66.90000 3.590
66.92000 0.938
66.94000 1.113
66.96000 -2.171
66.98000 -0.326
67.00000 1.249
67.02000 -0.898
67.04000 -2.066
67.06000 -0.192
67.08000 0.945
67.10000 -0.627
67.12000 1.937
67.14000 -0.369
67.16000 -0.762
67.18000 -2.178
67.20000 0.351
67.22000 0.508
67.24000 2.295
67.26000 1.167
67.28000 -1.128
67.30000 -1.278
67.32000 -1.987
67.34000 -0.234
67.36000 0.147
67.38000 0.445
67.40000 2.282
67.42000 -0.548
67.44000 -0.316
67.46000 0.243
67.48000 0.145
67.50000 0.867
67.52000 0.992
67.54000 -1.647
67.56000 -0.259
67.58000 1.364
67.60000 2.508
67.62000 0.501
67.64000 -2.199
67.66000 0.910
67.68000 -0.258
67.70000 -0.990
67.72000 -0.793
67.74000 -1.392
67.76000 -0.477
67.78000 0.156
67.80000 0.859
67.82000 -1.275
67.84000 0.725
67.86000 0.258
67.88000 4.022
67.90000 5.370
67.92000 1.528
67.94000 -1.670
67.96000 -1.981
67.98000 -0.294
68.00000 -0.954
68.02000 -2.236
68.04000 -0.369
68.06000 2.718
68.08000 2.587
68.10000 -2.171
68.12000 2.016
68.14000 1.769
68.16000 2.643
68.18000 3.781
68.20000 3.608
68.22000 5.123
68.24000 2.696
68.26000 3.000
68.28000 0.448
68.30000 2.159
68.32000 5.528
68.34000 6.379
68.36000 6.594
68.38000 6.104
68.40000 8.802
68.42000 9.494
68.44000 10.629
68.46000 11.600
68.48000 13.131
68.50000 12.557
68.52000 14.989
68.54000 12.872
68.56000 11.521
68.58000 14.828
68.60000 17.009
68.62000 16.846
68.64000 16.567
68.66000 15.406
68.68000 16.217
68.70000 17.401
68.72000 18.441
68.74000 16.935
68.76000 18.938
68.78000 19.253
68.80000 22.683
68.82000 23.629
68.84000 22.883
68.86000 22.939
68.88000 24.163
68.90000 25.997
68.92000 25.856
68.94000 26.210
68.96000 26.651
68.98000 25.159
69.00000 22.425
69.02000 23.642
69.04000 22.741
69.06000 21.476
69.08000 21.871
69.10000 21.040
69.12000 20.506
69.14000 17.110
69.16000 19.414
69.18000 18.676
69.20000 19.688
69.22000 19.295
69.24000 18.412
69.26000 16.284
69.28000 13.818
69.30000 15.102
69.32000 16.867
69.34000 14.685
69.36000 13.384
69.38000 13.067
69.40000 10.829
69.42000 13.028
69.44000 11.369
69.46000 6.967
69.48000 7.321
69.50000 11.150
69.52000 9.253
69.54000 9.083
69.56000 8.221
69.58000 7.439
69.60000 6.025
69.62000 6.407
69.64000 8.458
69.66000 4.893
69.68000 2.928
69.70000 3.217
69.72000 1.522
69.74000 4.135
69.76000 4.296
69.78000 3.393
69.80000 6.589
69.82000 7.325
69.84000 3.591
69.86000 2.075
69.88000 5.786
69.90000 3.410
69.92000 -0.525
69.94000 -0.626
69.96000 1.442
69.98000 1.320
70.00000 1.259
70.02000 2.120
70.04000 2.135
70.06000 0.966
70.08000 -0.446
70.10000 -0.709
70.12000 -0.498
70.14000 1.322
70.16000 1.894
70.18000 1.247
70.20000 0.987
70.22000 -0.180
70.24000 -1.558
70.26000 0.533
70.28000 1.589
70.30000 0.269
70.32000 0.166
70.34000 -1.437
70.36000 -1.191
70.38000 0.950
70.40000 2.034
70.42000 -0.989
70.44000 -0.550
70.46000 -0.227
70.48000 3.433
70.50000 -0.123
70.52000 -1.726
70.54000 0.313
70.56000 3.428
70.58000 1.374
70.60000 -2.098
70.62000 -0.543
70.64000 -0.095
70.66000 0.601
70.68000 -1.131
70.70000 1.911
70.72000 3.563
70.74000 3.307
70.76000 2.189
70.78000 0.872
70.80000 -0.515
70.82000 0.752
70.84000 4.028
70.86000 3.372
70.88000 1.438
70.90000 1.649
70.92000 2.262
70.94000 2.467
70.96000 6.181
70.98000 4.583
71.00000 1.114
71.02000 1.098
71.04000 3.210
71.06000 1.646
71.08000 -1.345
71.10000 -0.583
71.12000 -1.179
71.14000 -2.057
71.16000 0.567
71.18000 1.660
71.20000 2.087
71.22000 0.883
71.24000 1.867
71.26000 -1.149
71.28000 -0.934
71.30000 1.728
71.32000 0.628
71.34000 -0.833
71.36000 -2.051
71.38000 1.343
71.40000 2.392
71.42000 1.307
71.44000 2.498
71.46000 1.314
71.48000 0.869
71.50000 1.890
71.52000 1.998
71.54000 2.647
71.56000 3.427
71.58000 2.312
71.60000 0.647
71.62000 0.658
71.64000 0.424
71.66000 2.572
71.68000 0.108
71.70000 -0.946
71.72000 0.703
71.74000 1.363
71.76000 1.610
71.78000 2.302
71.80000 0.233
71.82000 -2.031
71.84000 -1.555
71.86000 0.889
71.88000 2.343
71.90000 0.901
71.92000 0.140
71.94000 1.703
71.96000 0.633
71.98000 3.455
72.00000 2.651
72.02000 2.505
72.04000 3.451
72.06000 4.628
72.08000 0.863
72.10000 1.952
72.12000 3.528
72.14000 0.124
72.16000 3.132
72.18000 3.744
72.20000 2.329
72.22000 2.778
72.24000 2.574
72.26000 1.887
72.28000 -0.493
72.30000 -0.216
72.32000 1.133
72.34000 0.085
72.36000 -1.814
72.38000 -1.609
72.40000 -1.477
72.42000 -0.671
72.44000 1.609
72.46000 1.864
72.48000 -2.014
72.50000 -1.336
72.52000 0.834
72.54000 2.098
72.56000 -1.415
72.58000 -1.920
72.60000 2.810
72.62000 3.894
72.64000 4.954
72.66000 3.119
72.68000 0.070
72.70000 0.539
72.72000 -0.881
72.74000 2.175
72.76000 3.116
72.78000 -0.375
72.80000 0.212
72.82000 -1.163
72.84000 1.811
72.86000 0.547
72.88000 -0.273
72.90000 -1.832
72.92000 -1.618
72.94000 -1.185
72.96000 -0.311
72.98000 0.462
73.00000 1.920
73.02000 -1.877
73.04000 -0.058
73.06000 1.885
73.08000 2.036
73.10000 1.739
73.12000 1.515
73.14000 1.037
73.16000 1.573
73.18000 1.112
73.20000 2.873
73.22000 6.902
73.24000 3.973
73.26000 1.853
73.28000 1.694
73.30000 2.602
73.32000 -0.415
73.34000 0.166
73.36000 -1.971
73.38000 0.410
73.40000 1.903
73.42000 2.957
73.44000 4.137
73.46000 0.085
73.48000 1.659
73.50000 2.683
73.52000 1.395
73.54000 1.454
73.56000 0.611
73.58000 0.789
73.60000 1.887
73.62000 0.544
73.64000 1.459
73.66000 0.833
73.68000 -0.896
73.70000 0.186
73.72000 -1.939
73.74000 0.351
73.76000 4.089
73.78000 3.240
73.80000 2.613
73.82000 5.862
73.84000 1.899
73.86000 0.435
73.88000 1.754
73.90000 0.825
73.92000 0.187
73.94000 2.233
73.96000 3.532
73.98000 3.780
74.00000 2.736
74.02000 5.609
74.04000 3.854
74.06000 2.459
74.08000 1.582
74.10000 1.190
74.12000 2.971
74.14000 3.934
74.16000 2.067
74.18000 1.827
74.20000 3.470
74.22000 4.054
74.24000 4.015
74.26000 1.107
74.28000 0.465
74.30000 1.473
74.32000 3.636
74.34000 5.690
74.36000 4.109
74.38000 3.269
74.40000 -1.127
74.42000 -1.929
74.44000 1.440
74.46000 4.196
74.48000 0.959
74.50000 -1.531
74.52000 0.158
74.54000 2.049
74.56000 1.600
74.58000 2.691
74.60000 2.049
74.62000 2.565
74.64000 1.212
74.66000 -0.722
74.68000 0.210
74.70000 3.270
74.72000 3.044
74.74000 5.591
74.76000 2.517
74.78000 2.487
74.80000 3.179
74.82000 -0.223
74.84000 -0.486
74.86000 3.827
74.88000 1.502
74.90000 0.819
74.92000 -0.184
74.94000 1.198
74.96000 2.014
74.98000 0.784
75.00000 -1.982
75.02000 -0.650
75.04000 3.111
75.06000 2.903
75.08000 1.921
75.10000 0.730
75.12000 -0.987
75.14000 0.322
75.16000 0.960
75.18000 0.900
75.20000 0.166
75.22000 0.982
75.24000 1.137
75.26000 4.930
75.28000 5.078
75.30000 2.323
75.32000 1.795
75.34000 2.787
75.36000 3.555
75.38000 2.496
75.40000 4.903
75.42000 2.903
75.44000 -0.710
75.46000 -1.179
75.48000 0.744
75.50000 0.070
75.52000 1.414
75.54000 -0.113
75.56000 -0.919
75.58000 -0.642
75.60000 1.696
75.62000 1.747
75.64000 -1.704
75.66000 -0.570
75.68000 -0.235
75.70000 -1.435
75.72000 1.145
75.74000 0.530
75.76000 1.797
75.78000 2.575
75.80000 2.508
75.82000 -0.693
75.84000 0.734
75.86000 -0.132
75.88000 0.788
75.90000 1.592
75.92000 -1.977
75.94000 1.372
75.96000 2.128
75.98000 2.207
76.00000 3.500
76.02000 4.996
76.04000 2.792
76.06000 1.821
76.08000 3.290
76.10000 2.568
76.12000 1.509
76.14000 -0.042
76.16000 4.125
76.18000 4.906
76.20000 2.193
76.22000 1.646
76.24000 2.123
76.26000 6.102
76.28000 3.871
76.30000 3.322
76.32000 2.203
76.34000 -1.952
76.36000 -1.048
76.38000 1.482
76.40000 0.261
76.42000 2.853
76.44000 4.494
76.46000 3.106
76.48000 5.284
76.50000 5.524
76.52000 2.861
76.54000 2.405
76.56000 1.894
76.58000 -0.561
76.60000 2.150
76.62000 5.125
76.64000 2.622
76.66000 0.663
76.68000 2.017
76.70000 5.043
76.72000 4.870
76.74000 1.537
76.76000 0.761
76.78000 5.487
76.80000 4.633
76.82000 3.176
76.84000 4.207
76.86000 1.311
76.88000 -0.261
76.90000 0.719
76.92000 3.152
76.94000 1.541
76.96000 -1.161
76.98000 2.261
77.00000 0.409
77.02000 2.562
77.04000 0.710
77.06000 4.772
77.08000 3.832
77.10000 2.455
77.12000 2.645
77.14000 2.845
77.16000 5.088
77.18000 4.112
77.20000 2.829
77.22000 2.941
77.24000 4.978
77.26000 7.419
77.28000 2.548
77.30000 2.773
77.32000 3.755
77.34000 2.400
77.36000 -0.051
77.38000 -0.587
77.40000 0.378
77.42000 0.221
77.44000 -0.898
77.46000 -1.144
77.48000 2.746
77.50000 -0.170
77.52000 -1.999
77.54000 -0.157
77.56000 -1.490
77.58000 -0.792
77.60000 -0.035
77.62000 2.565
77.64000 0.756
77.66000 0.338
77.68000 0.030
77.70000 -0.025
77.72000 2.436
77.74000 3.091
77.76000 3.197
77.78000 1.229
77.80000 1.582
77.82000 6.079
77.84000 4.734
77.86000 2.938
77.88000 1.499
77.90000 -0.439
77.92000 2.045
77.94000 1.311
77.96000 -2.019
77.98000 -1.416
78.00000 0.941
78.02000 -1.670
78.04000 3.589
78.06000 2.554
78.08000 -0.320
78.10000 0.392
78.12000 0.486
78.14000 0.163
78.16000 0.103
78.18000 -0.228
78.20000 -0.202
78.22000 -1.239
78.24000 2.512
78.26000 1.474
78.28000 1.973
78.30000 -1.938
78.32000 -1.547
78.34000 4.541
78.36000 3.235
78.38000 0.497
78.40000 0.697
78.42000 2.358
78.44000 -2.025
78.46000 0.715
78.48000 -1.021
78.50000 0.062
78.52000 -0.636
78.54000 4.036
78.56000 5.272
78.58000 5.029
78.60000 3.667
78.62000 -1.289
78.64000 2.333
78.66000 1.846
78.68000 2.612
78.70000 3.375
78.72000 2.068
78.74000 4.057
78.76000 2.529
78.78000 0.545
78.80000 0.174
78.82000 -0.976
78.84000 1.272
78.86000 4.833
78.88000 2.379
78.90000 0.793
78.92000 0.618
78.94000 -1.831
78.96000 1.361
78.98000 1.011
79.00000 1.286
79.02000 1.322
79.04000 1.431
79.06000 2.311
79.08000 0.487
79.10000 -2.025
79.12000 1.510
79.14000 3.185
79.16000 0.202
79.18000 0.756
79.20000 1.105
79.22000 -1.053
79.24000 -0.066
79.26000 1.395
79.28000 3.719
79.30000 3.573
79.32000 1.911
79.34000 -0.001
79.36000 0.821
79.38000 3.997
79.40000 4.135
79.42000 3.097
79.44000 -0.024
79.46000 -2.026
79.48000 4.734
79.50000 -0.411
79.52000 -1.731
79.54000 -0.247
79.56000 -0.628
79.58000 2.052
79.60000 3.841
79.62000 4.234
79.64000 5.933
79.66000 1.560
79.68000 4.033
79.70000 3.356
79.72000 2.211
79.74000 2.435
79.76000 1.194
79.78000 0.150
79.80000 -2.023
79.82000 1.072
79.84000 3.142
79.86000 0.170
79.88000 3.261
79.90000 2.351
79.92000 -0.340
79.94000 3.477
79.96000 2.117
79.98000 5.549
80.00000 4.135
80.02000 2.285
80.04000 -1.115
80.06000 -0.350
80.08000 -0.122
80.10000 0.027
80.12000 1.582
80.14000 4.864
80.16000 2.299
80.18000 1.158
80.20000 2.008
80.22000 2.473
80.24000 1.189
80.26000 4.633
80.28000 1.247
80.30000 1.644
80.32000 1.949
80.34000 2.003
80.36000 -0.932
80.38000 -0.717
80.40000 2.486
80.42000 1.949
80.44000 1.382
80.46000 1.210
80.48000 -0.100
80.50000 -0.718
80.52000 -2.065
80.54000 -1.028
80.56000 2.021
80.58000 1.987
80.60000 3.966
80.62000 1.674
80.64000 0.587
80.66000 2.202
80.68000 3.898
80.70000 0.799
80.72000 0.882
80.74000 2.719
80.76000 3.578
80.78000 2.799
80.80000 1.953
80.82000 1.168
80.84000 1.787
80.86000 2.517
80.88000 1.163
80.90000 0.093
80.92000 1.771
80.94000 2.279
80.96000 1.651
80.98000 1.119
81.00000 4.296
81.02000 1.782
81.04000 -0.412
81.06000 1.051
81.08000 0.547
81.10000 0.093
81.12000 0.675
81.14000 0.244
81.16000 2.115
81.18000 3.040
81.20000 2.209
81.22000 -2.105
81.24000 0.195
81.26000 0.673
81.28000 0.151
81.30000 1.818
81.32000 3.912
81.34000 3.040
81.36000 1.562
81.38000 0.516
81.40000 0.512
81.42000 -0.863
81.44000 -1.075
81.46000 1.696
81.48000 1.748
81.50000 0.589
81.52000 0.024
81.54000 0.286
81.56000 1.217
81.58000 2.322
81.60000 0.256
81.62000 -0.714
81.64000 0.619
81.66000 2.862
81.68000 -0.313
81.70000 -0.693
81.72000 -2.192
81.74000 2.015
81.76000 1.228
81.78000 -1.734
81.80000 -1.246
81.82000 -0.802
81.84000 1.104
81.86000 -0.158
81.88000 0.680
81.90000 -0.385
81.92000 0.986
81.94000 1.883
81.96000 -0.646
81.98000 1.477
82.00000 1.201
82.02000 0.264
82.04000 0.103
82.06000 4.591
82.08000 4.777
82.10000 6.998
82.12000 7.754
82.14000 6.996
82.16000 6.526
82.18000 7.502
82.20000 8.474
82.22000 8.867
82.24000 10.480
82.26000 7.893
82.28000 10.111
82.30000 12.116
82.32000 12.815
82.34000 11.135
82.36000 14.667
82.38000 13.077
82.40000 17.038
82.42000 15.351
82.44000 16.575
82.46000 14.762
82.48000 12.277
82.50000 13.918
82.52000 17.010
82.54000 22.936
82.56000 23.307
82.58000 23.752
82.60000 24.283
82.62000 22.953
82.64000 24.637
82.66000 31.987
82.68000 28.713
82.70000 27.546
82.72000 32.914
82.74000 34.370
82.76000 33.294
82.78000 35.158
82.80000 33.737
82.82000 37.840
82.84000 40.726
82.86000 41.999
82.88000 39.318
82.90000 41.357
82.92000 42.266
82.94000 46.723
82.96000 50.025
82.98000 50.671
83.00000 52.914
83.02000 51.196
83.04000 54.082
83.06000 56.272
83.08000 53.777
83.10000 54.885
83.12000 58.233
83.14000 54.519
83.16000 55.283
83.18000 59.460
83.20000 56.937
83.22000 54.315
83.24000 54.248
83.26000 56.026
83.28000 59.826
83.30000 60.591
83.32000 60.181
83.34000 57.051
83.36000 55.737
83.38000 52.623
83.40000 48.841
83.42000 49.723
83.44000 48.398
83.46000 45.158
83.48000 46.403
83.50000 44.262
83.52000 44.995
83.54000 45.228
83.56000 42.455
83.58000 38.911
83.60000 35.178
83.62000 36.870
83.64000 36.290
83.66000 33.470
83.68000 29.573
83.70000 32.269
83.72000 35.388
83.74000 33.888
83.76000 27.295
83.78000 26.342
83.80000 25.320
83.82000 29.043
83.84000 27.767
83.86000 23.527
83.88000 23.222
83.90000 23.255
83.92000 25.809
83.94000 20.943
83.96000 17.204
83.98000 17.291
84.00000 17.184
84.02000 17.002
84.04000 18.256
84.06000 12.990
84.08000 9.640
84.10000 10.663
84.12000 11.297
84.14000 6.482
84.16000 9.696
84.18000 8.198
84.20000 8.501
84.22000 7.242
84.24000 7.812
84.26000 6.969
84.28000 6.687
84.30000 3.196
84.32000 6.718
84.34000 9.033
84.36000 5.849
84.38000 3.069
84.40000 4.110
84.42000 6.094
84.44000 6.719
84.46000 4.478
84.48000 3.827
84.50000 5.649
84.52000 5.736
84.54000 2.711
84.56000 -0.069
84.58000 2.143
84.60000 0.097
84.62000 -0.925
84.64000 -1.128
84.66000 1.406
84.68000 3.289
84.70000 2.588
84.72000 0.867
84.74000 0.110
84.76000 0.267
84.78000 0.807
84.80000 3.316
84.82000 -1.104
84.84000 -2.170
84.86000 -0.100
84.88000 -0.273
84.90000 -1.156
84.92000 -0.535
84.94000 0.929
84.96000 3.580
84.98000 2.491
85.00000 1.124
85.02000 -1.491
85.04000 1.288
85.06000 5.240
85.08000 4.311
85.10000 3.367
85.12000 1.456
85.14000 -1.827
85.16000 -1.058
85.18000 -0.342
85.20000 -1.257
85.22000 0.274
85.24000 3.277
85.26000 -0.810
85.28000 -1.387
85.30000 0.292
85.32000 0.488
85.34000 1.109
85.36000 1.322
85.38000 -1.763
85.40000 -0.798
85.42000 1.100
85.44000 2.153
85.46000 -0.150
85.48000 0.902
85.50000 1.028
85.52000 -0.443
85.54000 -0.716
85.56000 -0.551
85.58000 0.440
85.60000 0.082
85.62000 1.383
85.64000 1.767
85.66000 1.643
85.68000 -0.468
85.70000 1.177
85.72000 3.420
85.74000 2.272
85.76000 -2.067
85.78000 -0.117
85.80000 2.647
85.82000 -0.632
85.84000 -1.548
85.86000 -0.002
85.88000 2.351
85.90000 5.476
85.92000 1.987
85.94000 0.550
85.96000 3.468
85.98000 -1.321
86.00000 -2.077
86.02000 0.587
86.04000 3.821
86.06000 2.594
86.08000 2.749
86.10000 0.594
86.12000 5.064
86.14000 2.756
86.16000 0.152
86.18000 -2.090
86.20000 1.224
86.22000 1.192
86.24000 -1.483
86.26000 -2.100
86.28000 3.967
86.30000 6.176
86.32000 2.902
86.34000 0.004
86.36000 1.507
86.38000 3.250
86.40000 2.968
86.42000 2.843
86.44000 5.423
86.46000 8.159
86.48000 5.442
86.50000 0.094
86.52000 3.898
86.54000 4.518
86.56000 4.443
86.58000 2.705
86.60000 -0.270
86.62000 1.111
86.64000 3.019
86.66000 3.454
86.68000 2.284
86.70000 5.077
86.72000 6.223
86.74000 8.316
86.76000 7.731
86.78000 7.780
86.80000 9.863
86.82000 9.070
86.84000 10.069
86.86000 8.752
86.88000 12.079
86.90000 12.276
86.92000 8.499
86.94000 10.493
86.96000 10.190
86.98000 12.640
87.00000 13.637
87.02000 12.847
87.04000 12.037
87.06000 15.371
87.08000 11.310
87.10000 12.865
87.12000 13.743
87.14000 15.568
87.16000 18.131
87.18000 14.872
87.20000 15.209
87.22000 14.763
87.24000 22.004
87.26000 24.354
87.28000 21.235
87.30000 21.039
87.32000 25.052
87.34000 21.870
87.36000 19.858
87.38000 25.286
87.40000 25.739
87.42000 26.251
87.44000 29.210
87.46000 29.525
87.48000 31.594
87.50000 34.546
87.52000 37.113
87.54000 34.062
87.56000 33.703
87.58000 32.703
87.60000 35.901
87.62000 35.378
87.64000 31.870
87.66000 30.960
87.68000 31.485
87.70000 29.160
87.72000 27.721
87.74000 33.808
87.76000 32.885
87.78000 31.852
87.80000 31.129
87.82000 28.632
87.84000 30.261
87.86000 23.953
87.88000 25.527
87.90000 25.080
87.92000 24.117
87.94000 23.577
87.96000 26.833
87.98000 22.220
88.00000 19.781
88.02000 25.905
88.04000 18.037
88.06000 17.501
88.08000 19.613
88.10000 19.468
88.12000 13.396
88.14000 17.375
88.16000 20.226
88.18000 17.814
88.20000 18.681
88.22000 16.323
88.24000 14.377
88.26000 14.125
88.28000 14.989
88.30000 14.832
88.32000 15.005
88.34000 12.618
88.36000 13.296
88.38000 12.228
88.40000 8.812
88.42000 8.284
88.44000 11.603
88.46000 9.840
88.48000 6.661
88.50000 4.890
88.52000 3.954
88.54000 5.175
88.56000 6.151
88.58000 6.790
88.60000 5.988
88.62000 5.701
88.64000 4.336
88.66000 3.752
88.68000 5.900
88.70000 5.508
88.72000 5.052
88.74000 1.253
88.76000 0.302
88.78000 2.724
88.80000 0.153
88.82000 1.228
88.84000 6.440
88.86000 3.325
88.88000 0.211
88.90000 -0.085
88.92000 6.427
88.94000 8.370
88.96000 6.587
88.98000 5.058
89.00000 2.373
89.02000 0.858
89.04000 0.673
89.06000 -1.247
89.08000 1.489
89.10000 -1.485
89.12000 -1.458
89.14000 -0.341
89.16000 1.758
89.18000 0.798
89.20000 1.503
89.22000 1.823
89.24000 1.329
89.26000 1.476
89.28000 3.533
89.30000 3.437
89.32000 2.949
89.34000 3.992
89.36000 4.017
89.38000 4.422
89.40000 2.585
89.42000 -1.100
89.44000 -1.955
89.46000 -0.403
89.48000 -1.353
89.50000 -0.762
89.52000 1.638
89.54000 -0.430
89.56000 2.872
89.58000 5.365
89.60000 -0.319
89.62000 1.262
89.64000 0.473
89.66000 -1.505
89.68000 1.617
89.70000 2.898
89.72000 1.418
89.74000 3.387
89.76000 3.400
89.78000 -1.935
89.80000 -0.030
89.82000 2.136
89.84000 4.867
89.86000 5.136
89.88000 4.146
89.90000 3.519
89.92000 0.346
89.94000 0.373
89.96000 1.388
89.98000 1.433
90.00000 0.645
90.02000 0.087
90.04000 1.165
90.06000 2.468
90.08000 1.834
90.10000 1.421
90.12000 2.014
90.14000 0.181
90.16000 1.117
90.18000 -1.901
90.20000 2.076
90.22000 3.700
90.24000 3.028
90.26000 0.056
90.28000 -1.769
90.30000 0.420
90.32000 0.550
90.34000 2.256
90.36000 3.949
90.38000 3.043
90.40000 0.056
90.42000 -1.064
90.44000 0.624
90.46000 -1.753
90.48000 0.760
90.50000 0.782
90.52000 0.026
90.54000 0.926
90.56000 2.608
90.58000 1.938
90.60000 0.835
90.62000 0.919
90.64000 -1.048
90.66000 2.080
90.68000 -0.294
90.70000 2.400
90.72000 2.939
90.74000 2.455
90.76000 3.539
90.78000 3.083
90.80000 5.179
90.82000 3.248
90.84000 2.867
90.86000 3.576
90.88000 1.812
90.90000 1.139
90.92000 0.045
90.94000 -0.361
90.96000 1.049
90.98000 4.081
91.00000 2.092
91.02000 -1.880
91.04000 -1.612
91.06000 -0.022
91.08000 1.889
91.10000 3.708
91.12000 1.919
91.14000 2.127
91.16000 1.624
91.18000 1.943
91.20000 1.180
91.22000 1.634
91.24000 4.119
91.26000 3.219
91.28000 2.742
91.30000 1.905
91.32000 3.109
91.34000 1.792
91.36000 2.399
91.38000 2.957
91.40000 3.631
91.42000 4.587
91.44000 2.198
91.46000 5.548
91.48000 3.572
91.50000 2.112
91.52000 0.382
91.54000 0.392
91.56000 1.754
91.58000 1.120
91.60000 0.615
91.62000 -0.552
91.64000 -0.947
91.66000 0.239
91.68000 2.337
91.70000 -0.134
91.72000 0.842
91.74000 0.800
91.76000 0.478
91.78000 -0.466
91.80000 0.765
91.82000 2.619
91.84000 1.745
91.86000 -0.445
91.88000 4.007
91.90000 4.516
91.92000 3.972
91.94000 0.462
91.96000 1.294
91.98000 2.326
92.00000 3.254
92.02000 4.055
92.04000 4.716
92.06000 2.886
92.08000 1.404
92.10000 2.336
92.12000 -1.885
92.14000 0.601
92.16000 0.514
92.18000 -0.276
92.20000 0.910
92.22000 3.330
92.24000 0.348
92.26000 0.030
92.28000 1.411
92.30000 4.311
92.32000 1.278
92.34000 0.999
92.36000 2.057
92.38000 1.268
92.40000 1.071
92.42000 4.084
92.44000 4.603
92.46000 3.467
92.48000 3.301
92.50000 4.941
92.52000 1.972
92.54000 2.287
92.56000 5.848
92.58000 3.786
92.60000 2.631
92.62000 4.969
92.64000 2.743
92.66000 3.629
92.68000 7.072
92.70000 5.238
92.72000 2.549
92.74000 1.475
92.76000 2.885
92.78000 4.871
92.80000 2.760
92.82000 -1.833
92.84000 0.907
92.86000 5.924
92.88000 5.403
92.90000 1.550
92.92000 2.734
92.94000 4.748
92.96000 2.619
92.98000 2.941
93.00000 3.150
93.02000 5.265
93.04000 3.753
93.06000 6.116
93.08000 1.960
93.10000 2.906
93.12000 2.391
93.14000 3.860
93.16000 3.821
93.18000 -0.621
93.20000 1.363
93.22000 4.302
93.24000 6.070
93.26000 2.836
93.28000 1.736
93.30000 2.067
93.32000 2.886
93.34000 0.898
93.36000 -1.263
93.38000 1.252
93.40000 0.872
93.42000 0.969
93.44000 3.612
93.46000 3.025
93.48000 -0.271
93.50000 -0.168
93.52000 4.633
93.54000 4.558
93.56000 2.518
93.58000 -0.323
93.60000 -1.093
93.62000 -1.875
93.64000 -1.434
93.66000 -1.441
93.68000 0.217
93.70000 2.765
93.72000 3.895
93.74000 5.028
93.76000 2.544
93.78000 2.888
93.80000 3.586
93.82000 3.737
93.84000 2.065
93.86000 2.809
93.88000 2.417
93.90000 2.518
93.92000 4.167
93.94000 0.202
93.96000 0.630
93.98000 3.138
94.00000 0.936
94.02000 2.796
94.04000 2.616
94.06000 3.072
94.08000 6.706
94.10000 8.652
94.12000 3.423
94.14000 2.919
94.16000 4.259
94.18000 3.053
94.20000 6.315
94.22000 8.026
94.24000 3.933
94.26000 -0.240
94.28000 -1.896
94.30000 0.426
94.32000 1.369
94.34000 3.509
94.36000 4.437
94.38000 2.574
94.40000 -1.658
94.42000 -1.422
94.44000 2.958
94.46000 2.631
94.48000 2.366
94.50000 2.322
94.52000 -0.566
94.54000 3.204
94.56000 7.072
94.58000 4.749
94.60000 -1.495
94.62000 0.501
94.64000 1.127
94.66000 -1.136
94.68000 1.548
94.70000 2.731
94.72000 3.913
94.74000 2.863
94.76000 0.184
94.78000 0.899
94.80000 0.941
94.82000 2.447
94.84000 2.790
94.86000 0.518
94.88000 0.943
94.90000 2.181
94.92000 2.320
94.94000 1.693
94.96000 2.069
94.98000 3.033
95.00000 4.139
95.02000 6.482
95.04000 6.200
95.06000 4.264
95.08000 4.685
95.10000 3.071
95.12000 3.058
95.14000 -1.591
95.16000 0.494
95.18000 1.929
95.20000 1.108
95.22000 1.085
95.24000 2.848
95.26000 3.376
95.28000 3.426
95.30000 2.841
95.32000 3.066
95.34000 1.790
95.36000 -0.768
95.38000 0.314
95.40000 6.313
95.42000 7.189
95.44000 5.793
95.46000 4.255
95.48000 4.792
95.50000 2.002
95.52000 0.026
95.54000 -0.711
95.56000 1.960
95.58000 2.361
95.60000 2.454
95.62000 1.523
95.64000 3.593
95.66000 4.656
95.68000 2.072
95.70000 0.664
95.72000 -1.634
95.74000 -1.883
95.76000 0.081
95.78000 5.709
95.80000 8.467
95.82000 3.847
95.84000 3.008
95.86000 0.010
95.88000 -0.313
95.90000 1.377
95.92000 0.375
95.94000 -0.435
95.96000 2.718
95.98000 4.156
96.00000 5.488
96.02000 2.136
96.04000 3.836
96.06000 7.013
96.08000 7.178
96.10000 3.965
96.12000 3.060
96.14000 2.644
96.16000 5.142
96.18000 2.520
96.20000 7.228
96.22000 8.211
96.24000 6.241
96.26000 4.140
96.28000 6.878
96.30000 5.596
96.32000 1.523
96.34000 3.344
96.36000 5.307
96.38000 7.320
96.40000 4.711
96.42000 5.504
96.44000 8.456
96.46000 3.569
96.48000 -1.593
96.50000 1.203
96.52000 1.788
96.54000 1.963
96.56000 0.907
96.58000 3.778
96.60000 5.521
96.62000 1.408
96.64000 -0.032
96.66000 -1.856
96.68000 1.796
96.70000 2.881
96.72000 3.574
96.74000 1.943
96.76000 2.568
96.78000 6.066
96.80000 7.737
96.82000 6.026
96.84000 2.825
96.86000 -1.874
96.88000 4.538
96.90000 2.950
96.92000 2.551
96.94000 6.450
96.96000 5.940
96.98000 3.099
97.00000 6.060
97.02000 4.346
97.04000 2.459
97.06000 3.341
97.08000 1.816
97.10000 0.651
97.12000 1.795
97.14000 0.492
97.16000 -0.102
97.18000 1.638
97.20000 2.391
97.22000 5.740
97.24000 4.191
97.26000 1.229
97.28000 4.998
97.30000 7.902
97.32000 4.487
97.34000 6.392
97.36000 2.699
97.38000 4.138
97.40000 1.463
97.42000 4.924
97.44000 1.854
97.46000 1.233
97.48000 4.928
97.50000 0.212
97.52000 -0.192
97.54000 4.303
97.56000 8.000
97.58000 4.210
97.60000 1.657
97.62000 -1.757
97.64000 -1.484
97.66000 4.428
97.68000 4.725
97.70000 10.502
97.72000 7.990
97.74000 3.192
97.76000 0.876
97.78000 5.252
97.80000 1.576
97.82000 0.779
97.84000 6.607
97.86000 6.018
97.88000 0.484
97.90000 2.683
97.92000 -0.414
97.94000 1.459
97.96000 0.648
97.98000 1.612
98.00000 1.760
98.02000 5.018
98.04000 7.915
98.06000 4.391
98.08000 3.532
98.10000 3.235
98.12000 4.397
98.14000 0.906
98.16000 6.612
98.18000 9.858
98.20000 5.934
98.22000 -0.595
98.24000 6.037
98.26000 0.890
98.28000 1.139
98.30000 5.033
98.32000 5.861
98.34000 6.644
98.36000 5.838
98.38000 4.090
98.40000 4.585
98.42000 -0.218
98.44000 0.516
98.46000 5.123
98.48000 6.129
98.50000 4.137
98.52000 1.106
98.54000 -1.843
98.56000 -1.214
98.58000 0.812
98.60000 1.589
98.62000 -1.040
98.64000 5.012
98.66000 6.155
98.68000 8.983
98.70000 4.722
98.72000 3.326
98.74000 3.753
98.76000 1.756
98.78000 3.800
98.80000 -0.174
98.82000 -1.818
98.84000 1.780
98.86000 4.780
98.88000 8.567
98.90000 3.904
98.92000 3.986
98.94000 3.720
98.96000 3.099
98.98000 5.537
99.00000 2.299
99.02000 0.049
99.04000 5.121
99.06000 -0.924
99.08000 -0.694
99.10000 2.688
99.12000 10.282
99.14000 0.792
99.16000 5.743
99.18000 5.073
99.20000 10.705
99.22000 9.737
99.24000 5.644
99.26000 6.147
99.28000 0.546
99.30000 8.433
99.32000 5.945
99.34000 3.942
99.36000 0.764
99.38000 2.412
99.40000 3.797
99.42000 1.911
99.44000 -1.136
99.46000 3.075
99.48000 8.507
99.50000 8.200
99.52000 7.535
99.54000 2.747
99.56000 1.538
99.58000 6.079
99.60000 1.032
99.62000 5.016
99.64000 3.500
99.66000 -2.797
99.68000 8.290
99.70000 4.763
99.72000 11.075
99.74000 5.343
99.76000 4.047
99.78000 5.256
99.80000 3.681
99.82000 7.897
99.84000 7.950
99.86000 1.102
99.88000 7.232
99.90000 2.717
99.92000 -0.807
99.94000 -1.890
99.96000 3.033
99.98000 0.000
