'Id: "0011389" Comment: "Integrate frame 0011389_Au-Ir-Rh_Au-Rich_XRD_Mapping-306-0000.gfrmwith cursor Wedge Cursor #5" Operator: "B?rgel" Anode: "Cu" Wavelength: "1.5406" Scantype: "2Theta (TwoTheta)" TimePerStep: "1" X: "13.5" Y: "31.5" Z: "5.95" 
10.00000 0.000
10.02000 -4.255
10.04000 -4.171
10.06000 6.164
10.08000 3.357
10.10000 -9.202
10.12000 14.132
10.14000 33.289
10.16000 18.019
10.18000 28.157
10.20000 12.072
10.22000 -2.996
10.24000 13.963
10.26000 7.805
10.28000 3.316
10.30000 10.288
10.32000 8.151
10.34000 19.242
10.36000 23.013
10.38000 12.764
10.40000 2.808
10.42000 13.057
10.44000 23.917
10.46000 15.362
10.48000 15.629
10.50000 0.569
10.52000 -4.129
10.54000 11.571
10.56000 21.612
10.58000 17.162
10.60000 32.879
10.62000 27.946
10.64000 18.478
10.66000 18.482
10.68000 30.019
10.70000 23.005
10.72000 16.908
10.74000 21.403
10.76000 16.331
10.78000 18.770
10.80000 9.353
10.82000 11.471
10.84000 14.978
10.86000 22.642
10.88000 19.845
10.90000 3.776
10.92000 12.357
10.94000 16.961
10.96000 18.819
10.98000 10.011
11.00000 13.366
11.02000 12.722
11.04000 16.572
11.06000 22.567
11.08000 11.233
11.10000 8.436
11.12000 20.991
11.14000 18.605
11.16000 19.247
11.18000 10.871
11.20000 11.961
11.22000 27.903
11.24000 22.980
11.26000 20.891
11.28000 25.870
11.30000 19.864
11.32000 24.039
11.34000 19.174
11.36000 18.352
11.38000 12.057
11.40000 13.799
11.42000 21.636
11.44000 21.115
11.46000 19.156
11.48000 13.306
11.50000 6.582
11.52000 12.883
11.54000 13.102
11.56000 7.706
11.58000 14.335
11.60000 23.662
11.62000 16.363
11.64000 20.285
11.66000 20.877
11.68000 22.819
11.70000 22.718
11.72000 17.318
11.74000 14.973
11.76000 11.753
11.78000 15.081
11.80000 23.030
11.82000 21.250
11.84000 16.287
11.86000 22.546
11.88000 18.738
11.90000 7.502
11.92000 15.697
11.94000 25.393
11.96000 29.061
11.98000 19.749
12.00000 19.416
12.02000 13.738
12.04000 29.812
12.06000 29.553
12.08000 14.179
12.10000 10.956
12.12000 16.987
12.14000 22.705
12.16000 13.766
12.18000 15.496
12.20000 8.438
12.22000 15.783
12.24000 14.723
12.26000 10.206
12.28000 21.249
12.30000 36.454
12.32000 33.412
12.34000 25.275
12.36000 9.590
12.38000 13.873
12.40000 15.603
12.42000 22.658
12.44000 29.296
12.46000 24.948
12.48000 17.132
12.50000 9.398
12.52000 15.105
12.54000 16.193
12.56000 7.504
12.58000 16.726
12.60000 11.341
12.62000 16.746
12.64000 14.006
12.66000 22.044
12.68000 25.968
12.70000 20.774
12.72000 19.024
12.74000 21.013
12.76000 18.330
12.78000 15.931
12.80000 22.044
12.82000 17.411
12.84000 22.729
12.86000 27.507
12.88000 22.192
12.90000 23.360
12.92000 19.923
12.94000 26.722
12.96000 22.612
12.98000 24.460
13.00000 21.803
13.02000 13.528
13.04000 9.244
13.06000 14.997
13.08000 13.857
13.10000 6.501
13.12000 11.861
13.14000 17.414
13.16000 17.973
13.18000 19.908
13.20000 9.369
13.22000 16.744
13.24000 30.869
13.26000 20.204
13.28000 19.638
13.30000 20.007
13.32000 22.340
13.34000 33.118
13.36000 18.007
13.38000 18.956
13.40000 21.003
13.42000 17.055
13.44000 16.021
13.46000 10.970
13.48000 9.533
13.50000 10.950
13.52000 24.457
13.54000 24.939
13.56000 18.680
13.58000 12.085
13.60000 10.090
13.62000 5.505
13.64000 14.399
13.66000 14.389
13.68000 19.658
13.70000 23.082
13.72000 21.032
13.74000 19.873
13.76000 21.155
13.78000 23.899
13.80000 20.581
13.82000 11.975
13.84000 18.104
13.86000 13.091
13.88000 11.972
13.90000 15.902
13.92000 22.372
13.94000 14.224
13.96000 6.443
13.98000 13.162
14.00000 23.795
14.02000 18.292
14.04000 21.572
14.06000 24.711
14.08000 27.746
14.10000 19.298
14.12000 26.025
14.14000 22.407
14.16000 14.057
14.18000 17.140
14.20000 10.490
14.22000 6.936
14.24000 9.165
14.26000 16.126
14.28000 20.349
14.30000 25.065
14.32000 17.642
14.34000 13.725
14.36000 18.603
14.38000 16.452
14.40000 10.568
14.42000 14.698
14.44000 9.184
14.46000 2.697
14.48000 8.090
14.50000 11.791
14.52000 10.820
14.54000 14.172
14.56000 19.515
14.58000 16.667
14.60000 12.481
14.62000 6.539
14.64000 11.672
14.66000 18.213
14.68000 14.577
14.70000 14.637
14.72000 10.116
14.74000 13.902
14.76000 18.126
14.78000 12.460
14.80000 11.411
14.82000 15.080
14.84000 15.879
14.86000 16.141
14.88000 15.125
14.90000 4.616
14.92000 9.769
14.94000 19.820
14.96000 18.914
14.98000 11.273
15.00000 4.293
15.02000 9.737
15.04000 12.184
15.06000 11.137
15.08000 10.916
15.10000 10.711
15.12000 11.954
15.14000 9.347
15.16000 14.741
15.18000 4.487
15.20000 5.449
15.22000 10.471
15.24000 16.565
15.26000 13.321
15.28000 5.921
15.30000 9.231
15.32000 6.511
15.34000 6.661
15.36000 21.774
15.38000 23.112
15.40000 12.028
15.42000 7.405
15.44000 12.905
15.46000 0.896
15.48000 5.234
15.50000 4.764
15.52000 15.898
15.54000 14.212
15.56000 12.137
15.58000 14.023
15.60000 8.388
15.62000 13.993
15.64000 5.864
15.66000 10.412
15.68000 7.415
15.70000 9.802
15.72000 7.452
15.74000 5.391
15.76000 9.796
15.78000 9.425
15.80000 13.313
15.82000 19.007
15.84000 16.186
15.86000 7.760
15.88000 2.962
15.90000 1.447
15.92000 1.740
15.94000 -2.124
15.96000 1.485
15.98000 6.654
16.00000 6.985
16.02000 11.077
16.04000 13.493
16.06000 13.824
16.08000 7.220
16.10000 7.585
16.12000 9.673
16.14000 14.026
16.16000 20.837
16.18000 19.229
16.20000 18.651
16.22000 19.602
16.24000 14.235
16.26000 10.918
16.28000 12.606
16.30000 14.008
16.32000 10.485
16.34000 8.164
16.36000 2.372
16.38000 2.893
16.40000 6.309
16.42000 2.081
16.44000 2.857
16.46000 -3.269
16.48000 0.380
16.50000 8.015
16.52000 16.386
16.54000 3.511
16.56000 -3.128
16.58000 5.124
16.60000 6.277
16.62000 5.273
16.64000 4.557
16.66000 5.829
16.68000 11.363
16.70000 6.602
16.72000 3.004
16.74000 6.174
16.76000 1.256
16.78000 4.640
16.80000 11.587
16.82000 6.174
16.84000 7.780
16.86000 12.776
16.88000 19.587
16.90000 20.093
16.92000 13.538
16.94000 18.257
16.96000 12.096
16.98000 5.856
17.00000 -2.554
17.02000 -0.734
17.04000 3.302
17.06000 5.417
17.08000 17.053
17.10000 0.892
17.12000 -0.622
17.14000 4.110
17.16000 5.057
17.18000 8.174
17.20000 12.632
17.22000 8.866
17.24000 3.094
17.26000 10.985
17.28000 6.538
17.30000 7.105
17.32000 9.363
17.34000 5.172
17.36000 11.070
17.38000 4.977
17.40000 -1.915
17.42000 -1.147
17.44000 8.495
17.46000 0.604
17.48000 -4.398
17.50000 -4.383
17.52000 3.358
17.54000 13.570
17.56000 9.351
17.58000 6.315
17.60000 8.569
17.62000 8.449
17.64000 2.035
17.66000 5.366
17.68000 11.147
17.70000 6.373
17.72000 6.337
17.74000 13.904
17.76000 12.793
17.78000 13.774
17.80000 7.941
17.82000 2.329
17.84000 6.429
17.86000 6.217
17.88000 13.172
17.90000 6.561
17.92000 -2.156
17.94000 -4.366
17.96000 6.555
17.98000 11.796
18.00000 6.425
18.02000 4.448
18.04000 5.608
18.06000 6.691
18.08000 14.253
18.10000 6.030
18.12000 5.561
18.14000 13.561
18.16000 12.419
18.18000 14.920
18.20000 10.417
18.22000 12.041
18.24000 14.483
18.26000 14.724
18.28000 11.193
18.30000 5.852
18.32000 4.920
18.34000 5.937
18.36000 7.459
18.38000 7.248
18.40000 5.130
18.42000 -2.573
18.44000 6.952
18.46000 7.649
18.48000 0.069
18.50000 -0.472
18.52000 -2.977
18.54000 0.946
18.56000 6.936
18.58000 7.879
18.60000 3.911
18.62000 4.510
18.64000 6.407
18.66000 1.476
18.68000 0.538
18.70000 7.698
18.72000 11.436
18.74000 -1.123
18.76000 -3.643
18.78000 7.786
18.80000 2.748
18.82000 2.072
18.84000 6.079
18.86000 6.260
18.88000 2.892
18.90000 2.133
18.92000 5.496
18.94000 0.052
18.96000 1.210
18.98000 8.609
19.00000 -1.215
19.02000 -0.498
19.04000 2.286
19.06000 1.178
19.08000 -0.930
19.10000 2.065
19.12000 2.148
19.14000 -0.651
19.16000 8.114
19.18000 10.188
19.20000 7.717
19.22000 10.083
19.24000 2.693
19.26000 4.192
19.28000 10.614
19.30000 6.091
19.32000 1.559
19.34000 0.527
19.36000 2.940
19.38000 0.372
19.40000 3.055
19.42000 1.901
19.44000 -3.395
19.46000 -2.552
19.48000 -3.274
19.50000 2.478
19.52000 4.964
19.54000 -0.708
19.56000 -3.199
19.58000 -0.957
19.60000 6.167
19.62000 1.814
19.64000 -1.037
19.66000 -3.801
19.68000 1.115
19.70000 6.518
19.72000 3.445
19.74000 3.461
19.76000 0.485
19.78000 -1.454
19.80000 3.345
19.82000 0.482
19.84000 2.874
19.86000 5.469
19.88000 -1.164
19.90000 -0.900
19.92000 0.797
19.94000 -4.209
19.96000 -3.986
19.98000 -3.188
20.00000 6.364
20.02000 8.643
20.04000 7.369
20.06000 4.273
20.08000 5.255
20.10000 10.126
20.12000 4.336
20.14000 12.378
20.16000 10.098
20.18000 6.044
20.20000 1.707
20.22000 0.800
20.24000 4.203
20.26000 7.444
20.28000 12.199
20.30000 5.950
20.32000 0.121
20.34000 0.862
20.36000 3.089
20.38000 1.312
20.40000 -3.517
20.42000 6.021
20.44000 13.378
20.46000 8.372
20.48000 9.827
20.50000 8.015
20.52000 3.344
20.54000 0.611
20.56000 0.105
20.58000 -4.224
20.60000 -1.186
20.62000 9.509
20.64000 8.373
20.66000 6.605
20.68000 5.580
20.70000 -1.152
20.72000 1.294
20.74000 2.216
20.76000 11.768
20.78000 9.244
20.80000 4.437
20.82000 3.734
20.84000 3.930
20.86000 5.761
20.88000 1.055
20.90000 4.516
20.92000 7.648
20.94000 1.671
20.96000 2.849
20.98000 6.953
21.00000 8.928
21.02000 8.276
21.04000 10.622
21.06000 4.838
21.08000 0.688
21.10000 3.462
21.12000 -4.174
21.14000 -0.641
21.16000 0.596
21.18000 -1.357
21.20000 4.281
21.22000 1.184
21.24000 -0.594
21.26000 -0.472
21.28000 -0.970
21.30000 1.211
21.32000 -0.057
21.34000 4.533
21.36000 1.927
21.38000 2.045
21.40000 4.315
21.42000 3.639
21.44000 10.233
21.46000 9.011
21.48000 7.604
21.50000 13.762
21.52000 3.684
21.54000 -4.161
21.56000 5.798
21.58000 10.319
21.60000 12.707
21.62000 7.487
21.64000 9.966
21.66000 3.182
21.68000 3.199
21.70000 7.260
21.72000 11.006
21.74000 10.040
21.76000 8.707
21.78000 3.604
21.80000 3.024
21.82000 10.019
21.84000 5.291
21.86000 2.861
21.88000 11.910
21.90000 12.326
21.92000 8.382
21.94000 5.730
21.96000 3.185
21.98000 10.149
22.00000 8.608
22.02000 7.714
22.04000 5.321
22.06000 8.929
22.08000 3.630
22.10000 5.500
22.12000 9.714
22.14000 11.776
22.16000 10.222
22.18000 5.536
22.20000 3.835
22.22000 6.587
22.24000 8.733
22.26000 4.434
22.28000 -3.801
22.30000 -1.160
22.32000 3.018
22.34000 4.769
22.36000 8.013
22.38000 2.536
22.40000 -0.982
22.42000 3.861
22.44000 1.051
22.46000 -4.122
22.48000 5.621
22.50000 2.565
22.52000 3.701
22.54000 5.091
22.56000 0.672
22.58000 3.794
22.60000 2.016
22.62000 -0.389
22.64000 -0.335
22.66000 4.876
22.68000 3.250
22.70000 1.093
22.72000 -1.894
22.74000 0.435
22.76000 4.794
22.78000 9.166
22.80000 3.627
22.82000 2.355
22.84000 5.470
22.86000 0.148
22.88000 2.669
22.90000 6.043
22.92000 9.163
22.94000 4.743
22.96000 1.295
22.98000 1.032
23.00000 1.917
23.02000 0.894
23.04000 2.875
23.06000 6.753
23.08000 9.204
23.10000 6.618
23.12000 4.876
23.14000 7.034
23.16000 3.659
23.18000 -1.950
23.20000 4.022
23.22000 0.892
23.24000 -2.040
23.26000 2.573
23.28000 5.422
23.30000 2.084
23.32000 1.793
23.34000 4.849
23.36000 10.431
23.38000 5.953
23.40000 6.798
23.42000 1.952
23.44000 -4.062
23.46000 -0.149
23.48000 4.872
23.50000 -0.703
23.52000 5.383
23.54000 8.392
23.56000 2.621
23.58000 2.107
23.60000 -1.544
23.62000 1.869
23.64000 6.341
23.66000 9.983
23.68000 7.785
23.70000 4.259
23.72000 6.297
23.74000 6.285
23.76000 6.516
23.78000 6.604
23.80000 4.192
23.82000 6.360
23.84000 9.871
23.86000 9.982
23.88000 5.895
23.90000 9.600
23.92000 6.758
23.94000 9.511
23.96000 2.611
23.98000 -2.186
24.00000 0.213
24.02000 -0.659
24.04000 0.882
24.06000 1.287
24.08000 5.428
24.10000 2.720
24.12000 4.628
24.14000 10.671
24.16000 5.239
24.18000 1.541
24.20000 6.989
24.22000 2.661
24.24000 -0.300
24.26000 1.963
24.28000 2.503
24.30000 4.986
24.32000 1.947
24.34000 3.280
24.36000 1.430
24.38000 -1.884
24.40000 6.423
24.42000 8.199
24.44000 6.578
24.46000 0.598
24.48000 5.508
24.50000 2.873
24.52000 -3.998
24.54000 5.100
24.56000 6.528
24.58000 6.038
24.60000 2.729
24.62000 0.501
24.64000 1.700
24.66000 2.860
24.68000 5.628
24.70000 2.523
24.72000 5.674
24.74000 9.077
24.76000 6.864
24.78000 -3.589
24.80000 -2.847
24.82000 -0.832
24.84000 4.598
24.86000 8.115
24.88000 5.471
24.90000 1.690
24.92000 3.834
24.94000 2.997
24.96000 3.214
24.98000 2.734
25.00000 -0.205
25.02000 3.311
25.04000 4.114
25.06000 3.831
25.08000 -1.641
25.10000 1.008
25.12000 6.079
25.14000 8.914
25.16000 7.080
25.18000 6.346
25.20000 -1.573
25.22000 1.847
25.24000 6.983
25.26000 5.724
25.28000 0.878
25.30000 5.414
25.32000 7.656
25.34000 1.884
25.36000 1.470
25.38000 1.838
25.40000 2.861
25.42000 4.206
25.44000 -3.965
25.46000 -0.359
25.48000 7.095
25.50000 2.566
25.52000 0.547
25.54000 3.448
25.56000 3.395
25.58000 6.301
25.60000 9.808
25.62000 5.344
25.64000 -0.374
25.66000 5.866
25.68000 1.632
25.70000 2.886
25.72000 4.626
25.74000 1.713
25.76000 4.788
25.78000 0.210
25.80000 3.063
25.82000 5.162
25.84000 2.060
25.86000 0.848
25.88000 3.161
25.90000 1.290
25.92000 -3.951
25.94000 -1.649
25.96000 2.140
25.98000 6.708
26.00000 7.717
26.02000 3.573
26.04000 -0.368
26.06000 -2.176
26.08000 -2.996
26.10000 2.726
26.12000 4.025
26.14000 3.694
26.16000 -0.355
26.18000 0.537
26.20000 0.375
26.22000 2.073
26.24000 10.600
26.26000 9.077
26.28000 7.936
26.30000 10.569
26.32000 4.480
26.34000 1.066
26.36000 1.545
26.38000 2.593
26.40000 6.047
26.42000 4.658
26.44000 -2.127
26.46000 5.357
26.48000 8.790
26.50000 0.803
26.52000 3.854
26.54000 7.595
26.56000 7.343
26.58000 0.441
26.60000 1.585
26.62000 3.859
26.64000 2.813
26.66000 3.962
26.68000 4.289
26.70000 3.514
26.72000 -3.258
26.74000 -2.811
26.76000 -0.544
26.78000 3.739
26.80000 3.387
26.82000 5.830
26.84000 8.514
26.86000 6.085
26.88000 1.163
26.90000 -0.608
26.92000 4.368
26.94000 6.044
26.96000 4.022
26.98000 6.019
27.00000 10.240
27.02000 3.899
27.04000 2.041
27.06000 0.772
27.08000 -0.287
27.10000 -0.194
27.12000 2.410
27.14000 2.456
27.16000 3.885
27.18000 3.229
27.20000 3.795
27.22000 1.677
27.24000 -3.886
27.26000 1.759
27.28000 3.821
27.30000 -1.956
27.32000 -3.882
27.34000 0.665
27.36000 -1.283
27.38000 -3.327
27.40000 1.433
27.42000 6.541
27.44000 5.166
27.46000 -0.501
27.48000 6.560
27.50000 3.981
27.52000 1.635
27.54000 1.649
27.56000 2.934
27.58000 2.688
27.60000 5.613
27.62000 2.167
27.64000 2.729
27.66000 0.373
27.68000 -2.372
27.70000 -2.356
27.72000 -0.536
27.74000 0.575
27.76000 2.017
27.78000 4.233
27.80000 0.140
27.82000 -3.852
27.84000 1.105
27.86000 5.764
27.88000 10.311
27.90000 9.019
27.92000 8.960
27.94000 5.066
27.96000 3.380
27.98000 5.126
28.00000 2.894
28.02000 3.764
28.04000 7.931
28.06000 3.298
28.08000 -0.932
28.10000 0.502
28.12000 1.856
28.14000 0.363
28.16000 1.821
28.18000 2.246
28.20000 4.119
28.22000 3.952
28.24000 0.299
28.26000 -0.435
28.28000 1.759
28.30000 -1.887
28.32000 -3.816
28.34000 3.630
28.36000 -1.746
28.38000 0.241
28.40000 -1.387
28.42000 4.332
28.44000 3.707
28.46000 2.438
28.48000 -2.104
28.50000 -3.543
28.52000 -2.625
28.54000 2.306
28.56000 3.327
28.58000 3.945
28.60000 2.782
28.62000 7.215
28.64000 12.270
28.66000 11.416
28.68000 5.463
28.70000 2.128
28.72000 4.370
28.74000 1.814
28.76000 -1.237
28.78000 -0.095
28.80000 1.197
28.82000 3.791
28.84000 0.173
28.86000 -0.557
28.88000 2.060
28.90000 5.438
28.92000 3.328
28.94000 1.965
28.96000 -1.566
28.98000 4.063
29.00000 5.245
29.02000 4.648
29.04000 -0.692
29.06000 2.644
29.08000 2.689
29.10000 2.216
29.12000 5.494
29.14000 5.216
29.16000 4.965
29.18000 5.991
29.20000 1.902
29.22000 0.922
29.24000 7.336
29.26000 5.017
29.28000 0.037
29.30000 -1.022
29.32000 2.278
29.34000 5.149
29.36000 11.739
29.38000 6.424
29.40000 6.675
29.42000 2.453
29.44000 3.319
29.46000 4.441
29.48000 5.817
29.50000 7.676
29.52000 2.736
29.54000 4.700
29.56000 9.132
29.58000 -0.583
29.60000 2.666
29.62000 8.442
29.64000 9.658
29.66000 7.818
29.68000 8.533
29.70000 9.929
29.72000 5.514
29.74000 5.787
29.76000 8.197
29.78000 7.791
29.80000 9.785
29.82000 6.901
29.84000 9.005
29.86000 9.141
29.88000 9.711
29.90000 7.257
29.92000 7.760
29.94000 -0.561
29.96000 -3.708
29.98000 4.348
30.00000 7.304
30.02000 4.500
30.04000 -1.369
30.06000 -0.103
30.08000 7.867
30.10000 5.786
30.12000 5.075
30.14000 4.813
30.16000 9.773
30.18000 8.102
30.20000 10.447
30.22000 8.818
30.24000 4.049
30.26000 8.605
30.28000 8.949
30.30000 3.640
30.32000 6.941
30.34000 7.829
30.36000 4.922
30.38000 8.099
30.40000 4.793
30.42000 0.078
30.44000 -3.688
30.46000 1.318
30.48000 3.667
30.50000 6.024
30.52000 5.302
30.54000 4.533
30.56000 1.374
30.58000 1.147
30.60000 7.618
30.62000 9.789
30.64000 10.741
30.66000 6.171
30.68000 3.135
30.70000 4.697
30.72000 10.625
30.74000 6.863
30.76000 6.239
30.78000 10.961
30.80000 12.327
30.82000 9.033
30.84000 5.595
30.86000 -0.958
30.88000 2.433
30.90000 3.850
30.92000 3.590
30.94000 4.641
30.96000 14.421
30.98000 9.107
31.00000 4.413
31.02000 4.955
31.04000 3.706
31.06000 6.704
31.08000 3.282
31.10000 4.571
31.12000 5.800
31.14000 7.270
31.16000 4.453
31.18000 -0.225
31.20000 0.751
31.22000 1.785
31.24000 6.381
31.26000 6.213
31.28000 2.550
31.30000 -3.266
31.32000 2.030
31.34000 6.399
31.36000 2.739
31.38000 1.824
31.40000 1.509
31.42000 4.102
31.44000 5.654
31.46000 6.379
31.48000 5.890
31.50000 12.525
31.52000 9.374
31.54000 9.514
31.56000 5.275
31.58000 0.512
31.60000 5.729
31.62000 2.490
31.64000 2.476
31.66000 6.351
31.68000 4.260
31.70000 5.306
31.72000 4.504
31.74000 4.978
31.76000 5.933
31.78000 8.078
31.80000 4.378
31.82000 4.937
31.84000 5.621
31.86000 7.116
31.88000 4.171
31.90000 4.675
31.92000 3.558
31.94000 -1.456
31.96000 -3.648
31.98000 4.377
32.00000 4.123
32.02000 2.015
32.04000 1.956
32.06000 9.673
32.08000 9.065
32.10000 2.628
32.12000 5.178
32.14000 5.144
32.16000 4.250
32.18000 7.089
32.20000 7.605
32.22000 10.076
32.24000 8.914
32.26000 8.948
32.28000 11.855
32.30000 8.248
32.32000 5.139
32.34000 4.781
32.36000 2.794
32.38000 4.309
32.40000 0.279
32.42000 0.602
32.44000 1.758
32.46000 3.732
32.48000 3.371
32.50000 4.279
32.52000 0.270
32.54000 1.780
32.56000 2.298
32.58000 -0.245
32.60000 1.146
32.62000 4.482
32.64000 2.245
32.66000 -3.643
32.68000 -0.291
32.70000 0.874
32.72000 1.690
32.74000 4.030
32.76000 2.595
32.78000 5.092
32.80000 3.782
32.82000 7.437
32.84000 8.687
32.86000 6.628
32.88000 3.911
32.90000 4.299
32.92000 3.845
32.94000 0.329
32.96000 0.933
32.98000 2.025
33.00000 -1.681
33.02000 -0.167
33.04000 4.188
33.06000 13.579
33.08000 7.121
33.10000 0.431
33.12000 -1.800
33.14000 -0.473
33.16000 -0.789
33.18000 3.477
33.20000 7.472
33.22000 2.683
33.24000 1.401
33.26000 6.018
33.28000 5.432
33.30000 2.255
33.32000 1.708
33.34000 5.366
33.36000 5.648
33.38000 2.606
33.40000 6.647
33.42000 9.306
33.44000 8.263
33.46000 8.723
33.48000 2.969
33.50000 1.425
33.52000 6.943
33.54000 7.941
33.56000 0.469
33.58000 -3.138
33.60000 -1.935
33.62000 4.419
33.64000 0.737
33.66000 2.670
33.68000 6.402
33.70000 8.049
33.72000 8.231
33.74000 10.660
33.76000 4.495
33.78000 4.500
33.80000 5.573
33.82000 1.646
33.84000 2.119
33.86000 5.070
33.88000 4.136
33.90000 6.326
33.92000 7.450
33.94000 6.662
33.96000 7.490
33.98000 4.723
34.00000 5.676
34.02000 6.592
34.04000 4.697
34.06000 3.155
34.08000 5.833
34.10000 3.332
34.12000 3.533
34.14000 2.707
34.16000 3.215
34.18000 2.319
34.20000 3.253
34.22000 0.338
34.24000 3.278
34.26000 2.465
34.28000 0.401
34.30000 0.699
34.32000 0.327
34.34000 3.525
34.36000 3.168
34.38000 3.198
34.40000 5.744
34.42000 2.079
34.44000 1.899
34.46000 3.189
34.48000 1.420
34.50000 1.297
34.52000 6.012
34.54000 7.144
34.56000 10.183
34.58000 3.524
34.60000 4.696
34.62000 4.499
34.64000 2.083
34.66000 0.219
34.68000 0.151
34.70000 -2.409
34.72000 3.372
34.74000 4.666
34.76000 5.153
34.78000 4.489
34.80000 10.855
34.82000 7.860
34.84000 11.190
34.86000 6.662
34.88000 5.792
34.90000 4.553
34.92000 1.941
34.94000 -3.611
34.96000 -2.613
34.98000 4.992
35.00000 4.576
35.02000 -0.480
35.04000 -0.732
35.06000 2.267
35.08000 8.789
35.10000 9.006
35.12000 5.755
35.14000 8.219
35.16000 7.779
35.18000 3.204
35.20000 2.043
35.22000 -3.002
35.24000 -1.784
35.26000 2.004
35.28000 6.695
35.30000 10.229
35.32000 3.802
35.34000 7.661
35.36000 5.597
35.38000 4.974
35.40000 6.472
35.42000 7.152
35.44000 8.218
35.46000 6.420
35.48000 2.330
35.50000 -0.684
35.52000 0.700
35.54000 4.279
35.56000 3.285
35.58000 5.329
35.60000 2.338
35.62000 3.064
35.64000 5.870
35.66000 8.870
35.68000 4.420
35.70000 0.924
35.72000 1.382
35.74000 2.715
35.76000 4.966
35.78000 1.008
35.80000 -0.706
35.82000 -1.812
35.84000 1.768
35.86000 2.554
35.88000 1.341
35.90000 0.592
35.92000 6.337
35.94000 7.551
35.96000 -2.194
35.98000 -1.111
36.00000 5.734
36.02000 2.848
36.04000 0.048
36.06000 3.290
36.08000 3.015
36.10000 0.953
36.12000 2.285
36.14000 2.512
36.16000 3.059
36.18000 2.430
36.20000 3.282
36.22000 3.024
36.24000 -3.673
36.26000 1.914
36.28000 4.009
36.30000 2.905
36.32000 3.266
36.34000 3.750
36.36000 7.944
36.38000 5.858
36.40000 5.010
36.42000 -0.981
36.44000 -2.600
36.46000 1.967
36.48000 2.006
36.50000 5.791
36.52000 2.212
36.54000 0.304
36.56000 2.864
36.58000 2.887
36.60000 8.075
36.62000 4.028
36.64000 2.546
36.66000 7.242
36.68000 9.378
36.70000 4.706
36.72000 4.568
36.74000 5.487
36.76000 5.734
36.78000 7.075
36.80000 4.808
36.82000 0.362
36.84000 7.920
36.86000 9.023
36.88000 7.619
36.90000 7.447
36.92000 5.681
36.94000 10.182
36.96000 13.652
36.98000 8.413
37.00000 10.233
37.02000 15.401
37.04000 10.303
37.06000 8.004
37.08000 7.415
37.10000 14.849
37.12000 13.823
37.14000 9.467
37.16000 7.654
37.18000 6.534
37.20000 9.128
37.22000 6.864
37.24000 10.829
37.26000 13.378
37.28000 11.490
37.30000 12.695
37.32000 12.013
37.34000 14.381
37.36000 13.241
37.38000 18.895
37.40000 16.788
37.42000 16.827
37.44000 14.587
37.46000 20.095
37.48000 16.105
37.50000 16.790
37.52000 24.610
37.54000 19.196
37.56000 18.116
37.58000 19.699
37.60000 25.030
37.62000 25.760
37.64000 24.134
37.66000 19.573
37.68000 20.610
37.70000 24.585
37.72000 21.910
37.74000 22.594
37.76000 26.038
37.78000 30.943
37.80000 28.543
37.82000 28.659
37.84000 32.528
37.86000 32.515
37.88000 30.569
37.90000 23.517
37.92000 26.860
37.94000 31.046
37.96000 33.479
37.98000 36.642
38.00000 29.833
38.02000 34.422
38.04000 40.305
38.06000 35.251
38.08000 36.547
38.10000 45.528
38.12000 46.590
38.14000 46.435
38.16000 40.836
38.18000 42.928
38.20000 45.928
38.22000 49.493
38.24000 51.011
38.26000 58.356
38.28000 58.047
38.30000 59.641
38.32000 65.145
38.34000 72.704
38.36000 75.298
38.38000 70.578
38.40000 71.268
38.42000 74.043
38.44000 81.886
38.46000 90.644
38.48000 88.228
38.50000 91.081
38.52000 94.506
38.54000 100.310
38.56000 100.330
38.58000 110.423
38.60000 119.382
38.62000 125.296
38.64000 132.857
38.66000 139.802
38.68000 144.007
38.70000 152.708
38.72000 164.199
38.74000 181.938
38.76000 189.391
38.78000 195.063
38.80000 203.208
38.82000 212.609
38.84000 233.990
38.86000 245.413
38.88000 252.395
38.90000 265.747
38.92000 286.471
38.94000 291.751
38.96000 298.455
38.98000 306.005
39.00000 317.216
39.02000 323.840
39.04000 335.001
39.06000 342.919
39.08000 345.659
39.10000 351.189
39.12000 350.550
39.14000 353.363
39.16000 356.363
39.18000 349.464
39.20000 346.547
39.22000 338.466
39.24000 335.635
39.26000 326.889
39.28000 319.958
39.30000 314.132
39.32000 300.918
39.34000 289.021
39.36000 276.936
39.38000 268.927
39.40000 254.353
39.42000 246.894
39.44000 228.445
39.46000 212.567
39.48000 205.090
39.50000 200.659
39.52000 183.278
39.54000 174.737
39.56000 166.078
39.58000 154.369
39.60000 147.827
39.62000 132.967
39.64000 128.180
39.66000 121.047
39.68000 113.467
39.70000 105.605
39.72000 100.204
39.74000 90.716
39.76000 84.977
39.78000 87.200
39.80000 81.673
39.82000 75.966
39.84000 69.848
39.86000 70.531
39.88000 67.556
39.90000 59.951
39.92000 51.335
39.94000 50.390
39.96000 47.331
39.98000 47.268
40.00000 45.790
40.02000 42.399
40.04000 39.982
40.06000 37.500
40.08000 39.204
40.10000 38.494
40.12000 34.896
40.14000 31.131
40.16000 32.255
40.18000 26.494
40.20000 24.388
40.22000 27.067
40.24000 22.309
40.26000 24.352
40.28000 27.514
40.30000 29.847
40.32000 28.638
40.34000 27.098
40.36000 20.297
40.38000 20.077
40.40000 18.373
40.42000 15.191
40.44000 11.983
40.46000 17.596
40.48000 16.007
40.50000 17.054
40.52000 15.137
40.54000 11.127
40.56000 15.207
40.58000 15.482
40.60000 15.296
40.62000 11.862
40.64000 14.153
40.66000 13.952
40.68000 7.904
40.70000 6.759
40.72000 9.243
40.74000 10.180
40.76000 6.100
40.78000 6.287
40.80000 8.959
40.82000 8.847
40.84000 6.387
40.86000 6.203
40.88000 -0.110
40.90000 3.816
40.92000 6.821
40.94000 6.360
40.96000 6.174
40.98000 6.176
41.00000 7.023
41.02000 3.127
41.04000 -1.508
41.06000 2.307
41.08000 5.894
41.10000 5.140
41.12000 4.049
41.14000 1.904
41.16000 -1.585
41.18000 2.096
41.20000 6.052
41.22000 6.082
41.24000 0.978
41.26000 -2.322
41.28000 0.339
41.30000 1.878
41.32000 2.182
41.34000 6.051
41.36000 0.849
41.38000 -1.317
41.40000 1.289
41.42000 3.448
41.44000 2.079
41.46000 -0.725
41.48000 1.467
41.50000 2.621
41.52000 3.378
41.54000 -0.097
41.56000 0.543
41.58000 2.298
41.60000 -1.287
41.62000 -0.225
41.64000 0.670
41.66000 2.641
41.68000 1.739
41.70000 4.088
41.72000 5.971
41.74000 5.149
41.76000 2.663
41.78000 2.427
41.80000 -0.519
41.82000 -0.167
41.84000 0.503
41.86000 -1.298
41.88000 0.498
41.90000 2.529
41.92000 2.985
41.94000 -2.466
41.96000 -0.374
41.98000 0.926
42.00000 -2.143
42.02000 -2.298
42.04000 -0.408
42.06000 1.270
42.08000 0.796
42.10000 0.931
42.12000 6.161
42.14000 3.730
42.16000 0.378
42.18000 -0.389
42.20000 1.299
42.22000 -0.095
42.24000 2.974
42.26000 4.530
42.28000 6.080
42.30000 3.697
42.32000 -0.589
42.34000 -3.345
42.36000 -1.289
42.38000 -0.092
42.40000 4.897
42.42000 4.382
42.44000 2.620
42.46000 2.437
42.48000 -0.525
42.50000 1.694
42.52000 0.343
42.54000 -2.673
42.56000 -3.242
42.58000 -0.749
42.60000 -2.128
42.62000 -1.214
42.64000 0.036
42.66000 0.546
42.68000 0.519
42.70000 3.416
42.72000 0.885
42.74000 1.104
42.76000 1.757
42.78000 3.966
42.80000 1.508
42.82000 0.345
42.84000 -1.116
42.86000 -3.149
42.88000 2.138
42.90000 2.474
42.92000 -0.035
42.94000 -0.366
42.96000 1.537
42.98000 3.482
43.00000 1.018
43.02000 1.701
43.04000 0.048
43.06000 2.989
43.08000 0.743
43.10000 -1.403
43.12000 1.909
43.14000 -1.518
43.16000 -1.493
43.18000 -0.536
43.20000 3.374
43.22000 1.450
43.24000 -0.474
43.26000 -0.366
43.28000 0.598
43.30000 2.003
43.32000 0.086
43.34000 3.852
43.36000 1.612
43.38000 -1.557
43.40000 -3.250
43.42000 -1.028
43.44000 0.754
43.46000 -1.319
43.48000 -3.197
43.50000 -1.059
43.52000 1.427
43.54000 3.366
43.56000 1.013
43.58000 2.209
43.60000 3.345
43.62000 5.344
43.64000 5.124
43.66000 3.483
43.68000 -1.942
43.70000 0.409
43.72000 1.717
43.74000 0.997
43.76000 -1.659
43.78000 -1.261
43.80000 -0.894
43.82000 -2.594
43.84000 0.098
43.86000 2.681
43.88000 2.305
43.90000 -0.968
43.92000 2.300
43.94000 1.720
43.96000 -3.120
43.98000 0.831
44.00000 1.486
44.02000 3.185
44.04000 2.169
44.06000 3.035
44.08000 3.710
44.10000 2.338
44.12000 2.186
44.14000 2.412
44.16000 4.491
44.18000 4.643
44.20000 2.492
44.22000 3.742
44.24000 2.093
44.26000 0.310
44.28000 -1.531
44.30000 -3.212
44.32000 -0.760
44.34000 3.173
44.36000 4.167
44.38000 2.963
44.40000 5.652
44.42000 7.437
44.44000 8.524
44.46000 7.680
44.48000 9.803
44.50000 5.400
44.52000 5.833
44.54000 6.978
44.56000 6.079
44.58000 7.541
44.60000 10.524
44.62000 13.506
44.64000 13.069
44.66000 10.725
44.68000 13.979
44.70000 18.355
44.72000 14.591
44.74000 13.583
44.76000 14.946
44.78000 17.091
44.80000 11.518
44.82000 13.754
44.84000 17.125
44.86000 19.735
44.88000 21.217
44.90000 23.363
44.92000 26.421
44.94000 31.580
44.96000 32.538
44.98000 31.067
45.00000 31.592
45.02000 34.006
45.04000 32.582
45.06000 32.122
45.08000 35.869
45.10000 38.908
45.12000 37.319
45.14000 36.768
45.16000 37.540
45.18000 44.127
45.20000 46.348
45.22000 43.042
45.24000 52.095
45.26000 57.190
45.28000 56.305
45.30000 60.028
45.32000 62.231
45.34000 64.110
45.36000 65.439
45.38000 68.802
45.40000 72.286
45.42000 76.934
45.44000 77.818
45.46000 77.131
45.48000 78.116
45.50000 84.524
45.52000 92.637
45.54000 91.248
45.56000 89.785
45.58000 92.499
45.60000 88.567
45.62000 90.748
45.64000 98.961
45.66000 99.933
45.68000 96.558
45.70000 93.800
45.72000 97.086
45.74000 97.863
45.76000 95.827
45.78000 95.135
45.80000 95.790
45.82000 91.043
45.84000 90.320
45.86000 90.428
45.88000 90.936
45.90000 88.342
45.92000 84.191
45.94000 82.916
45.96000 77.865
45.98000 78.914
46.00000 82.654
46.02000 80.246
46.04000 74.873
46.06000 68.924
46.08000 64.920
46.10000 66.244
46.12000 63.898
46.14000 57.334
46.16000 56.423
46.18000 54.599
46.20000 50.731
46.22000 49.780
46.24000 47.921
46.26000 42.317
46.28000 38.357
46.30000 34.388
46.32000 30.949
46.34000 31.776
46.36000 32.482
46.38000 28.874
46.40000 28.477
46.42000 28.146
46.44000 24.431
46.46000 25.539
46.48000 21.918
46.50000 17.174
46.52000 16.085
46.54000 14.404
46.56000 16.906
46.58000 15.265
46.60000 17.599
46.62000 15.525
46.64000 12.831
46.66000 9.835
46.68000 9.339
46.70000 6.223
46.72000 10.387
46.74000 11.913
46.76000 8.108
46.78000 10.370
46.80000 6.635
46.82000 3.901
46.84000 6.844
46.86000 8.189
46.88000 6.424
46.90000 7.607
46.92000 6.819
46.94000 6.238
46.96000 2.021
46.98000 0.844
47.00000 2.780
47.02000 9.391
47.04000 4.792
47.06000 2.702
47.08000 -1.233
47.10000 -0.048
47.12000 -1.114
47.14000 0.538
47.16000 0.468
47.18000 2.690
47.20000 5.255
47.22000 4.099
47.24000 0.536
47.26000 -1.319
47.28000 -1.023
47.30000 3.392
47.32000 4.278
47.34000 1.446
47.36000 -0.379
47.38000 -0.129
47.40000 3.773
47.42000 2.514
47.44000 5.695
47.46000 3.938
47.48000 1.793
47.50000 0.950
47.52000 2.561
47.54000 7.145
47.56000 0.735
47.58000 -2.784
47.60000 -1.223
47.62000 -1.096
47.64000 1.431
47.66000 3.217
47.68000 2.424
47.70000 -0.794
47.72000 -2.774
47.74000 3.194
47.76000 3.488
47.78000 3.303
47.80000 1.979
47.82000 1.962
47.84000 2.149
47.86000 -1.072
47.88000 1.938
47.90000 1.339
47.92000 2.666
47.94000 2.141
47.96000 2.658
47.98000 -2.019
48.00000 0.879
48.02000 4.020
48.04000 1.992
48.06000 -1.617
48.08000 4.282
48.10000 4.015
48.12000 2.240
48.14000 -1.150
48.16000 0.477
48.18000 3.464
48.20000 4.172
48.22000 2.036
48.24000 1.358
48.26000 2.428
48.28000 3.682
48.30000 1.127
48.32000 2.875
48.34000 -0.148
48.36000 -1.203
48.38000 -1.046
48.40000 1.924
48.42000 3.129
48.44000 2.721
48.46000 -1.262
48.48000 -1.090
48.50000 0.175
48.52000 -2.705
48.54000 -1.925
48.56000 1.939
48.58000 3.800
48.60000 1.338
48.62000 -1.678
48.64000 0.601
48.66000 1.583
48.68000 -0.789
48.70000 -0.845
48.72000 -0.151
48.74000 -0.781
48.76000 -2.690
48.78000 -0.643
48.80000 4.571
48.82000 1.955
48.84000 2.621
48.86000 3.910
48.88000 2.666
48.90000 2.983
48.92000 1.674
48.94000 2.855
48.96000 0.973
48.98000 2.025
49.00000 -0.373
49.02000 1.379
49.04000 3.095
49.06000 2.985
49.08000 -2.669
49.10000 1.333
49.12000 3.590
49.14000 3.828
49.16000 0.783
49.18000 1.280
49.20000 0.470
49.22000 3.959
49.24000 3.890
49.26000 5.245
49.28000 7.347
49.30000 4.496
49.32000 5.999
49.34000 6.610
49.36000 1.571
49.38000 5.557
49.40000 4.602
49.42000 0.796
49.44000 -1.041
49.46000 1.084
49.48000 3.986
49.50000 2.208
49.52000 5.295
49.54000 3.652
49.56000 4.305
49.58000 1.378
49.60000 0.146
49.62000 4.559
49.64000 8.303
49.66000 5.786
49.68000 1.945
49.70000 1.797
49.72000 0.254
49.74000 -2.343
49.76000 -0.743
49.78000 -0.739
49.80000 0.233
49.82000 2.494
49.84000 6.153
49.86000 1.961
49.88000 -2.631
49.90000 -1.017
49.92000 -0.257
49.94000 5.174
49.96000 3.327
49.98000 -0.031
50.00000 2.246
50.02000 2.109
50.04000 0.126
50.06000 6.707
50.08000 5.540
50.10000 3.365
50.12000 0.905
50.14000 -1.312
50.16000 0.878
50.18000 -2.629
50.20000 -0.995
50.22000 3.085
50.24000 2.148
50.26000 2.431
50.28000 1.973
50.30000 4.743
50.32000 2.986
50.34000 0.437
50.36000 -0.365
50.38000 -0.311
50.40000 0.848
50.42000 -1.846
50.44000 -0.282
50.46000 0.087
50.48000 -1.406
50.50000 -1.017
50.52000 -1.345
50.54000 3.089
50.56000 4.700
50.58000 4.410
50.60000 2.512
50.62000 0.286
50.64000 1.183
50.66000 0.874
50.68000 2.699
50.70000 4.998
50.72000 3.326
50.74000 3.264
50.76000 1.754
50.78000 -0.488
50.80000 -2.288
50.82000 -2.348
50.84000 1.174
50.86000 0.929
50.88000 -1.507
50.90000 -0.640
50.92000 2.183
50.94000 0.666
50.96000 -0.961
50.98000 1.658
51.00000 -0.109
51.02000 -2.306
51.04000 -0.573
51.06000 -2.602
51.08000 -1.034
51.10000 1.449
51.12000 5.663
51.14000 3.774
51.16000 0.541
51.18000 -1.185
51.20000 3.900
51.22000 5.256
51.24000 1.081
51.26000 -1.903
51.28000 -1.816
51.30000 -0.092
51.32000 1.871
51.34000 -1.556
51.36000 -1.005
51.38000 1.646
51.40000 -1.647
51.42000 -2.489
51.44000 1.104
51.46000 4.061
51.48000 1.075
51.50000 2.596
51.52000 0.858
51.54000 0.733
51.56000 1.823
51.58000 1.908
51.60000 4.634
51.62000 4.348
51.64000 4.446
51.66000 1.763
51.68000 5.414
51.70000 6.801
51.72000 2.586
51.74000 0.539
51.76000 2.518
51.78000 2.886
51.80000 4.433
51.82000 3.126
51.84000 0.271
51.86000 -1.358
51.88000 0.673
51.90000 0.331
51.92000 0.198
51.94000 4.295
51.96000 5.275
51.98000 0.495
52.00000 -2.543
52.02000 2.223
52.04000 2.498
52.06000 0.243
52.08000 0.949
52.10000 4.208
52.12000 4.353
52.14000 3.516
52.16000 1.627
52.18000 1.904
52.20000 3.248
52.22000 4.929
52.24000 2.914
52.26000 -0.948
52.28000 2.828
52.30000 2.748
52.32000 0.399
52.34000 -1.003
52.36000 2.328
52.38000 6.417
52.40000 3.066
52.42000 2.705
52.44000 6.806
52.46000 2.923
52.48000 -0.582
52.50000 -0.730
52.52000 0.582
52.54000 2.720
52.56000 0.240
52.58000 0.399
52.60000 4.413
52.62000 3.314
52.64000 3.465
52.66000 0.517
52.68000 -1.497
52.70000 -2.554
52.72000 -0.545
52.74000 2.298
52.76000 4.303
52.78000 4.152
52.80000 3.118
52.82000 5.651
52.84000 2.906
52.86000 3.015
52.88000 2.365
52.90000 1.944
52.92000 1.971
52.94000 4.143
52.96000 2.591
52.98000 -0.233
53.00000 -2.126
53.02000 1.017
53.04000 -1.336
53.06000 2.176
53.08000 1.102
53.10000 0.700
53.12000 -0.673
53.14000 -0.740
53.16000 -2.551
53.18000 -0.864
53.20000 1.403
53.22000 4.622
53.24000 4.118
53.26000 0.823
53.28000 -0.168
53.30000 0.016
53.32000 0.858
53.34000 2.529
53.36000 5.086
53.38000 1.892
53.40000 3.712
53.42000 0.856
53.44000 -1.084
53.46000 -0.052
53.48000 2.087
53.50000 2.558
53.52000 0.940
53.54000 -0.699
53.56000 -1.890
53.58000 -0.502
53.60000 3.184
53.62000 1.925
53.64000 0.030
53.66000 2.105
53.68000 4.352
53.70000 3.573
53.72000 0.484
53.74000 0.829
53.76000 0.162
53.78000 -2.537
53.80000 -1.481
53.82000 2.834
53.84000 6.108
53.86000 2.384
53.88000 2.429
53.90000 -0.169
53.92000 -0.125
53.94000 0.979
53.96000 5.036
53.98000 3.439
54.00000 -0.225
54.02000 0.285
54.04000 4.459
54.06000 3.639
54.08000 2.426
54.10000 1.638
54.12000 -0.107
54.14000 -1.866
54.16000 2.336
54.18000 3.258
54.20000 4.464
54.22000 3.333
54.24000 3.892
54.26000 1.813
54.28000 -0.603
54.30000 0.646
54.32000 -2.510
54.34000 -0.341
54.36000 1.423
54.38000 1.207
54.40000 2.406
54.42000 1.405
54.44000 1.489
54.46000 -0.361
54.48000 -1.681
54.50000 -1.936
54.52000 -2.234
54.54000 -0.480
54.56000 -2.156
54.58000 -0.252
54.60000 3.934
54.62000 5.880
54.64000 2.932
54.66000 3.170
54.68000 3.824
54.70000 3.352
54.72000 1.781
54.74000 0.227
54.76000 4.862
54.78000 4.980
54.80000 2.784
54.82000 2.324
54.84000 0.592
54.86000 -0.552
54.88000 0.572
54.90000 -0.988
54.92000 -2.391
54.94000 1.405
54.96000 0.561
54.98000 -0.383
55.00000 2.574
55.02000 0.444
55.04000 1.552
55.06000 3.358
55.08000 2.597
55.10000 2.807
55.12000 1.948
55.14000 -1.202
55.16000 2.820
55.18000 3.669
55.20000 4.278
55.22000 1.462
55.24000 -1.031
55.26000 -0.567
55.28000 2.096
55.30000 1.573
55.32000 4.048
55.34000 4.380
55.36000 2.818
55.38000 1.820
55.40000 3.345
55.42000 3.301
55.44000 3.402
55.46000 4.282
55.48000 2.738
55.50000 2.422
55.52000 -0.151
55.54000 0.547
55.56000 2.440
55.58000 3.292
55.60000 3.569
55.62000 5.371
55.64000 2.568
55.66000 1.511
55.68000 -2.468
55.70000 0.378
55.72000 4.339
55.74000 3.566
55.76000 3.183
55.78000 2.140
55.80000 1.041
55.82000 2.028
55.84000 2.313
55.86000 -0.202
55.88000 1.321
55.90000 3.855
55.92000 0.033
55.94000 4.268
55.96000 5.615
55.98000 3.822
56.00000 2.825
56.02000 2.787
56.04000 0.359
56.06000 3.202
56.08000 2.009
56.10000 5.903
56.12000 6.605
56.14000 5.097
56.16000 3.485
56.18000 4.559
56.20000 4.087
56.22000 3.915
56.24000 3.544
56.26000 4.325
56.28000 2.859
56.30000 3.684
56.32000 3.060
56.34000 4.354
56.36000 6.283
56.38000 6.780
56.40000 7.543
56.42000 8.440
56.44000 1.987
56.46000 -0.729
56.48000 0.598
56.50000 3.094
56.52000 4.240
56.54000 3.971
56.56000 1.787
56.58000 -2.399
56.60000 -0.315
56.62000 4.268
56.64000 4.456
56.66000 6.795
56.68000 5.567
56.70000 6.124
56.72000 5.045
56.74000 3.079
56.76000 5.342
56.78000 2.955
56.80000 2.655
56.82000 6.096
56.84000 1.766
56.86000 2.386
56.88000 3.032
56.90000 2.656
56.92000 5.864
56.94000 6.660
56.96000 9.451
56.98000 6.812
57.00000 1.422
57.02000 -1.077
57.04000 -1.553
57.06000 2.163
57.08000 3.360
57.10000 2.181
57.12000 1.009
57.14000 -2.401
57.16000 0.423
57.18000 0.591
57.20000 2.157
57.22000 4.003
57.24000 1.443
57.26000 0.098
57.28000 3.942
57.30000 6.005
57.32000 2.113
57.34000 3.319
57.36000 1.022
57.38000 4.390
57.40000 1.119
57.42000 7.277
57.44000 3.152
57.46000 0.259
57.48000 1.677
57.50000 3.404
57.52000 1.496
57.54000 3.414
57.56000 7.827
57.58000 2.156
57.60000 0.896
57.62000 1.227
57.64000 2.174
57.66000 3.631
57.68000 4.112
57.70000 6.463
57.72000 3.228
57.74000 2.295
57.76000 4.312
57.78000 6.660
57.80000 3.922
57.82000 1.615
57.84000 6.776
57.86000 2.317
57.88000 -2.384
57.90000 1.893
57.92000 0.742
57.94000 2.536
57.96000 5.502
57.98000 0.146
58.00000 3.834
58.02000 5.721
58.04000 4.461
58.06000 3.767
58.08000 5.779
58.10000 3.376
58.12000 3.733
58.14000 2.794
58.16000 5.432
58.18000 1.805
58.20000 0.797
58.22000 4.012
58.24000 7.612
58.26000 4.688
58.28000 0.834
58.30000 2.696
58.32000 5.228
58.34000 4.088
58.36000 2.798
58.38000 3.221
58.40000 0.352
58.42000 0.628
58.44000 0.039
58.46000 2.864
58.48000 4.838
58.50000 6.737
58.52000 4.546
58.54000 5.021
58.56000 6.480
58.58000 5.807
58.60000 5.776
58.62000 6.121
58.64000 4.114
58.66000 3.571
58.68000 5.582
58.70000 3.996
58.72000 2.619
58.74000 -2.324
58.76000 3.278
58.78000 5.708
58.80000 9.157
58.82000 9.401
58.84000 7.838
58.86000 5.686
58.88000 2.371
58.90000 5.124
58.92000 6.038
58.94000 6.451
58.96000 1.754
58.98000 0.953
59.00000 3.330
59.02000 1.791
59.04000 1.016
59.06000 3.425
59.08000 3.701
59.10000 3.149
59.12000 2.249
59.14000 3.056
59.16000 2.528
59.18000 0.473
59.20000 2.742
59.22000 4.145
59.24000 4.489
59.26000 7.361
59.28000 7.779
59.30000 4.018
59.32000 2.417
59.34000 3.053
59.36000 5.751
59.38000 5.308
59.40000 4.311
59.42000 -1.113
59.44000 0.188
59.46000 5.732
59.48000 5.461
59.50000 1.989
59.52000 0.692
59.54000 0.345
59.56000 1.738
59.58000 1.562
59.60000 1.213
59.62000 1.405
59.64000 0.798
59.66000 0.470
59.68000 4.748
59.70000 4.506
59.72000 4.002
59.74000 2.639
59.76000 4.221
59.78000 1.270
59.80000 4.144
59.82000 5.231
59.84000 3.596
59.86000 3.987
59.88000 -0.489
59.90000 3.814
59.92000 6.535
59.94000 3.138
59.96000 1.310
59.98000 1.390
60.00000 1.201
60.02000 6.077
60.04000 2.516
60.06000 3.231
60.08000 0.683
60.10000 2.122
60.12000 4.075
60.14000 -1.325
60.16000 -1.495
60.18000 1.438
60.20000 0.084
60.22000 -0.574
60.24000 -0.641
60.26000 2.424
60.28000 3.095
60.30000 2.166
60.32000 -0.674
60.34000 1.121
60.36000 1.203
60.38000 0.578
60.40000 -2.292
60.42000 -2.310
60.44000 2.787
60.46000 3.046
60.48000 2.576
60.50000 3.911
60.52000 4.895
60.54000 7.478
60.56000 7.182
60.58000 3.027
60.60000 0.660
60.62000 0.818
60.64000 0.202
60.66000 1.703
60.68000 -0.062
60.70000 1.674
60.72000 -0.640
60.74000 0.522
60.76000 1.392
60.78000 3.475
60.80000 4.383
60.82000 0.572
60.84000 1.950
60.86000 1.457
60.88000 5.953
60.90000 0.182
60.92000 -2.308
60.94000 -1.758
60.96000 2.506
60.98000 4.536
61.00000 0.047
61.02000 -0.746
61.04000 1.764
61.06000 0.238
61.08000 -0.352
61.10000 1.804
61.12000 4.126
61.14000 0.335
61.16000 1.094
61.18000 4.005
61.20000 3.442
61.22000 4.953
61.24000 -0.535
61.26000 1.769
61.28000 1.991
61.30000 4.551
61.32000 4.710
61.34000 1.051
61.36000 2.724
61.38000 2.527
61.40000 2.312
61.42000 2.630
61.44000 -0.418
61.46000 -1.708
61.48000 2.807
61.50000 5.435
61.52000 2.420
61.54000 -2.143
61.56000 -0.138
61.58000 1.330
61.60000 2.169
61.62000 1.083
61.64000 0.260
61.66000 3.309
61.68000 3.447
61.70000 3.889
61.72000 5.937
61.74000 2.924
61.76000 0.401
61.78000 2.726
61.80000 1.957
61.82000 -0.389
61.84000 -0.581
61.86000 0.410
61.88000 -2.289
61.90000 0.170
61.92000 2.812
61.94000 4.126
61.96000 2.357
61.98000 2.181
62.00000 -1.252
62.02000 -1.296
62.04000 -0.448
62.06000 0.416
62.08000 4.288
62.10000 0.272
62.12000 -2.218
62.14000 1.731
62.16000 3.590
62.18000 2.859
62.20000 4.034
62.22000 3.119
62.24000 4.145
62.26000 -0.876
62.28000 1.797
62.30000 2.894
62.32000 3.391
62.34000 5.348
62.36000 5.391
62.38000 4.088
62.40000 1.132
62.42000 4.252
62.44000 4.516
62.46000 -0.403
62.48000 -2.260
62.50000 0.351
62.52000 2.061
62.54000 -0.136
62.56000 0.550
62.58000 2.439
62.60000 2.142
62.62000 -0.284
62.64000 0.672
62.66000 3.811
62.68000 2.110
62.70000 3.745
62.72000 5.014
62.74000 6.646
62.76000 5.529
62.78000 3.359
62.80000 2.347
62.82000 0.612
62.84000 -0.500
62.86000 0.735
62.88000 -0.249
62.90000 0.097
62.92000 0.519
62.94000 4.375
62.96000 5.197
62.98000 2.630
63.00000 1.804
63.02000 2.127
63.04000 2.416
63.06000 3.285
63.08000 2.325
63.10000 2.009
63.12000 4.102
63.14000 1.023
63.16000 -1.083
63.18000 -2.250
63.20000 2.092
63.22000 2.454
63.24000 3.130
63.26000 0.583
63.28000 4.216
63.30000 3.044
63.32000 1.206
63.34000 -0.459
63.36000 1.257
63.38000 -1.715
63.40000 -0.008
63.42000 -0.544
63.44000 1.832
63.46000 3.135
63.48000 1.934
63.50000 1.337
63.52000 0.233
63.54000 1.968
63.56000 3.292
63.58000 2.268
63.60000 0.671
63.62000 1.014
63.64000 0.203
63.66000 2.265
63.68000 2.652
63.70000 2.616
63.72000 2.014
63.74000 2.379
63.76000 0.628
63.78000 0.376
63.80000 1.262
63.82000 3.979
63.84000 4.490
63.86000 1.627
63.88000 -0.107
63.90000 3.433
63.92000 3.978
63.94000 0.022
63.96000 1.468
63.98000 3.317
64.00000 1.725
64.02000 -0.095
64.04000 0.183
64.06000 3.238
64.08000 1.947
64.10000 0.646
64.12000 -1.504
64.14000 -1.198
64.16000 -1.023
64.18000 1.679
64.20000 3.768
64.22000 5.122
64.24000 4.250
64.26000 4.573
64.28000 4.102
64.30000 1.533
64.32000 -2.260
64.34000 0.621
64.36000 2.791
64.38000 3.996
64.40000 5.275
64.42000 4.345
64.44000 3.223
64.46000 4.790
64.48000 3.768
64.50000 1.865
64.52000 2.757
64.54000 4.608
64.56000 3.010
64.58000 -0.254
64.60000 0.334
64.62000 1.032
64.64000 2.887
64.66000 7.053
64.68000 3.691
64.70000 4.775
64.72000 4.072
64.74000 2.772
64.76000 0.086
64.78000 0.731
64.80000 0.173
64.82000 2.773
64.84000 3.648
64.86000 -0.205
64.88000 -0.702
64.90000 -0.290
64.92000 -1.108
64.94000 0.420
64.96000 1.950
64.98000 0.840
65.00000 1.699
65.02000 3.411
65.04000 1.993
65.06000 1.506
65.08000 1.827
65.10000 0.507
65.12000 -0.747
65.14000 1.169
65.16000 0.969
65.18000 2.024
65.20000 2.562
65.22000 -0.140
65.24000 1.317
65.26000 1.631
65.28000 -0.186
65.30000 -2.287
65.32000 0.568
65.34000 0.752
65.36000 2.024
65.38000 -0.657
65.40000 -0.922
65.42000 0.538
65.44000 3.942
65.46000 2.126
65.48000 2.369
65.50000 3.533
65.52000 1.524
65.54000 0.261
65.56000 -1.305
65.58000 1.318
65.60000 1.961
65.62000 1.129
65.64000 1.489
65.66000 1.816
65.68000 0.065
65.70000 0.785
65.72000 3.775
65.74000 2.456
65.76000 0.909
65.78000 0.350
65.80000 2.794
65.82000 4.997
65.84000 5.621
65.86000 2.565
65.88000 -0.924
65.90000 0.826
65.92000 3.396
65.94000 2.323
65.96000 2.737
65.98000 7.276
66.00000 5.873
66.02000 5.119
66.04000 4.561
66.06000 5.597
66.08000 5.952
66.10000 4.982
66.12000 5.704
66.14000 4.406
66.16000 3.133
66.18000 3.444
66.20000 4.152
66.22000 5.792
66.24000 4.353
66.26000 6.840
66.28000 8.313
66.30000 7.953
66.32000 5.895
66.34000 6.503
66.36000 6.210
66.38000 6.082
66.40000 6.683
66.42000 5.579
66.44000 5.856
66.46000 9.226
66.48000 7.955
66.50000 6.153
66.52000 6.598
66.54000 8.406
66.56000 5.127
66.58000 9.757
66.60000 9.246
66.62000 7.642
66.64000 7.400
66.66000 10.417
66.68000 8.502
66.70000 8.839
66.72000 8.438
66.74000 9.927
66.76000 8.905
66.78000 5.789
66.80000 6.479
66.82000 5.945
66.84000 6.530
66.86000 4.002
66.88000 4.931
66.90000 6.746
66.92000 7.540
66.94000 5.746
66.96000 3.296
66.98000 1.455
67.00000 3.109
67.02000 3.131
67.04000 -1.191
67.06000 0.918
67.08000 0.052
67.10000 1.000
67.12000 1.468
67.14000 2.981
67.16000 2.891
67.18000 2.947
67.20000 1.277
67.22000 4.175
67.24000 4.946
67.26000 3.996
67.28000 3.043
67.30000 5.216
67.32000 5.302
67.34000 2.064
67.36000 0.236
67.38000 1.849
67.40000 2.950
67.42000 2.321
67.44000 0.960
67.46000 2.108
67.48000 1.963
67.50000 0.033
67.52000 -0.763
67.54000 -1.894
67.56000 -2.194
67.58000 0.211
67.60000 1.320
67.62000 0.195
67.64000 0.224
67.66000 -2.094
67.68000 0.039
67.70000 1.471
67.72000 3.250
67.74000 -0.041
67.76000 0.469
67.78000 2.294
67.80000 4.019
67.82000 1.639
67.84000 0.746
67.86000 -1.898
67.88000 -2.176
67.90000 0.686
67.92000 1.252
67.94000 0.865
67.96000 1.419
67.98000 2.712
68.00000 3.069
68.02000 4.436
68.04000 3.914
68.06000 0.194
68.08000 -1.375
68.10000 -1.245
68.12000 3.936
68.14000 2.357
68.16000 -0.908
68.18000 -1.246
68.20000 1.046
68.22000 1.698
68.24000 1.404
68.26000 2.149
68.28000 3.263
68.30000 3.006
68.32000 1.277
68.34000 1.454
68.36000 3.725
68.38000 1.150
68.40000 0.073
68.42000 2.397
68.44000 1.938
68.46000 3.447
68.48000 2.750
68.50000 1.529
68.52000 1.718
68.54000 2.202
68.56000 1.380
68.58000 0.670
68.60000 -0.169
68.62000 1.882
68.64000 1.928
68.66000 0.351
68.68000 0.206
68.70000 3.272
68.72000 4.013
68.74000 1.803
68.76000 0.290
68.78000 -2.119
68.80000 -0.041
68.82000 0.626
68.84000 1.895
68.86000 1.814
68.88000 2.798
68.90000 3.039
68.92000 0.895
68.94000 2.202
68.96000 0.840
68.98000 0.031
69.00000 0.199
69.02000 1.782
69.04000 0.233
69.06000 2.093
69.08000 3.807
69.10000 4.904
69.12000 3.683
69.14000 1.055
69.16000 2.093
69.18000 1.708
69.20000 -1.538
69.22000 -1.804
69.24000 -2.109
69.26000 -0.467
69.28000 1.214
69.30000 -0.348
69.32000 -0.556
69.34000 -1.879
69.36000 -0.288
69.38000 3.901
69.40000 4.776
69.42000 0.681
69.44000 -1.817
69.46000 0.646
69.48000 3.114
69.50000 1.955
69.52000 3.493
69.54000 0.215
69.56000 1.485
69.58000 2.295
69.60000 3.546
69.62000 2.074
69.64000 0.794
69.66000 0.571
69.68000 0.224
69.70000 2.254
69.72000 1.453
69.74000 -0.684
69.76000 1.033
69.78000 2.941
69.80000 1.398
69.82000 0.251
69.84000 1.139
69.86000 0.013
69.88000 -0.682
69.90000 1.378
69.92000 1.364
69.94000 2.639
69.96000 0.487
69.98000 1.898
70.00000 1.903
70.02000 -0.572
70.04000 0.673
70.06000 1.090
70.08000 -2.083
70.10000 -0.698
70.12000 -0.187
70.14000 1.192
70.16000 1.937
70.18000 2.476
70.20000 0.772
70.22000 0.249
70.24000 1.725
70.26000 0.785
70.28000 0.943
70.30000 1.627
70.32000 0.337
70.34000 0.151
70.36000 1.303
70.38000 0.296
70.40000 -0.051
70.42000 0.160
70.44000 2.111
70.46000 -1.020
70.48000 0.308
70.50000 0.348
70.52000 1.799
70.54000 2.766
70.56000 1.387
70.58000 3.628
70.60000 2.716
70.62000 0.749
70.64000 0.416
70.66000 3.762
70.68000 4.757
70.70000 0.442
70.72000 -0.454
70.74000 0.297
70.76000 2.629
70.78000 2.148
70.80000 -0.851
70.82000 0.390
70.84000 0.604
70.86000 2.675
70.88000 2.475
70.90000 -0.056
70.92000 2.037
70.94000 3.407
70.96000 0.587
70.98000 1.218
71.00000 2.294
71.02000 1.171
71.04000 1.134
71.06000 4.159
71.08000 2.459
71.10000 2.364
71.12000 0.842
71.14000 2.288
71.16000 1.783
71.18000 1.630
71.20000 3.391
71.22000 0.446
71.24000 -0.286
71.26000 0.569
71.28000 -1.035
71.30000 0.323
71.32000 5.112
71.34000 5.862
71.36000 3.952
71.38000 2.565
71.40000 0.854
71.42000 1.364
71.44000 -1.090
71.46000 -2.018
71.48000 2.309
71.50000 2.006
71.52000 3.889
71.54000 2.347
71.56000 1.911
71.58000 1.947
71.60000 1.222
71.62000 3.210
71.64000 1.589
71.66000 2.129
71.68000 0.409
71.70000 0.063
71.72000 2.227
71.74000 4.243
71.76000 4.838
71.78000 0.472
71.80000 -0.622
71.82000 0.351
71.84000 2.938
71.86000 -1.096
71.88000 -0.846
71.90000 0.220
71.92000 0.839
71.94000 2.041
71.96000 0.520
71.98000 1.941
72.00000 2.277
72.02000 2.718
72.04000 0.753
72.06000 -1.753
72.08000 1.461
72.10000 5.094
72.12000 4.854
72.14000 1.716
72.16000 0.481
72.18000 3.731
72.20000 2.483
72.22000 0.148
72.24000 0.555
72.26000 -0.187
72.28000 -0.357
72.30000 0.796
72.32000 3.660
72.34000 1.242
72.36000 0.493
72.38000 -0.380
72.40000 1.934
72.42000 3.571
72.44000 3.041
72.46000 0.420
72.48000 0.981
72.50000 3.280
72.52000 2.804
72.54000 3.409
72.56000 5.543
72.58000 5.444
72.60000 3.220
72.62000 1.410
72.64000 1.401
72.66000 2.068
72.68000 2.323
72.70000 0.163
72.72000 -0.590
72.74000 0.142
72.76000 -0.514
72.78000 1.004
72.80000 -1.063
72.82000 -1.977
72.84000 3.122
72.86000 -0.861
72.88000 1.303
72.90000 -0.765
72.92000 0.770
72.94000 3.143
72.96000 3.277
72.98000 1.404
73.00000 -1.385
73.02000 -1.232
73.04000 1.281
73.06000 2.771
73.08000 3.674
73.10000 -0.170
73.12000 -1.585
73.14000 -0.176
73.16000 0.226
73.18000 -1.031
73.20000 0.755
73.22000 1.299
73.24000 1.724
73.26000 2.942
73.28000 4.136
73.30000 1.631
73.32000 -0.145
73.34000 1.113
73.36000 1.534
73.38000 1.128
73.40000 2.193
73.42000 -0.182
73.44000 3.270
73.46000 2.919
73.48000 3.115
73.50000 2.535
73.52000 0.397
73.54000 0.630
73.56000 -0.222
73.58000 -0.112
73.60000 -1.980
73.62000 -0.215
73.64000 0.449
73.66000 1.971
73.68000 0.606
73.70000 4.013
73.72000 5.173
73.74000 1.169
73.76000 -1.675
73.78000 -0.199
73.80000 0.905
73.82000 0.511
73.84000 0.145
73.86000 2.842
73.88000 0.646
73.90000 2.852
73.92000 2.744
73.94000 1.939
73.96000 1.170
73.98000 2.201
74.00000 4.752
74.02000 -0.712
74.04000 -0.634
74.06000 0.717
74.08000 2.290
74.10000 2.188
74.12000 -1.984
74.14000 -0.181
74.16000 -0.755
74.18000 -1.364
74.20000 -0.561
74.22000 2.275
74.24000 2.058
74.26000 1.046
74.28000 1.601
74.30000 0.408
74.32000 0.827
74.34000 2.104
74.36000 1.083
74.38000 -0.017
74.40000 0.396
74.42000 0.537
74.44000 0.967
74.46000 -0.470
74.48000 -1.122
74.50000 1.192
74.52000 1.536
74.54000 3.130
74.56000 1.817
74.58000 -1.288
74.60000 2.751
74.62000 0.630
74.64000 -0.979
74.66000 -0.535
74.68000 -0.485
74.70000 2.536
74.72000 5.762
74.74000 0.788
74.76000 2.539
74.78000 4.037
74.80000 1.709
74.82000 2.193
74.84000 2.812
74.86000 2.289
74.88000 3.353
74.90000 1.670
74.92000 -0.866
74.94000 1.665
74.96000 2.054
74.98000 0.369
75.00000 0.941
75.02000 4.275
75.04000 3.622
75.06000 1.459
75.08000 1.549
75.10000 1.807
75.12000 1.886
75.14000 1.809
75.16000 1.460
75.18000 1.959
75.20000 0.305
75.22000 0.689
75.24000 1.175
75.26000 2.657
75.28000 -1.128
75.30000 -1.975
75.32000 -0.591
75.34000 0.288
75.36000 1.607
75.38000 2.466
75.40000 2.700
75.42000 2.180
75.44000 4.430
75.46000 3.586
75.48000 0.823
75.50000 0.345
75.52000 2.006
75.54000 0.985
75.56000 3.886
75.58000 1.901
75.60000 1.725
75.62000 1.849
75.64000 -1.399
75.66000 1.685
75.68000 0.110
75.70000 -0.159
75.72000 0.539
75.74000 3.167
75.76000 2.629
75.78000 0.385
75.80000 2.252
75.82000 1.069
75.84000 0.481
75.86000 2.486
75.88000 2.559
75.90000 3.366
75.92000 4.247
75.94000 2.878
75.96000 4.542
75.98000 5.309
76.00000 1.579
76.02000 0.232
76.04000 1.418
76.06000 3.666
76.08000 4.840
76.10000 2.410
76.12000 -0.543
76.14000 0.698
76.16000 0.911
76.18000 0.136
76.20000 -1.993
76.22000 1.216
76.24000 2.638
76.26000 5.051
76.28000 3.323
76.30000 -0.274
76.32000 0.461
76.34000 2.498
76.36000 -1.132
76.38000 1.357
76.40000 2.335
76.42000 3.680
76.44000 2.624
76.46000 1.686
76.48000 0.596
76.50000 0.206
76.52000 3.200
76.54000 0.940
76.56000 1.106
76.58000 4.462
76.60000 5.741
76.62000 5.524
76.64000 2.239
76.66000 -2.029
76.68000 1.766
76.70000 1.865
76.72000 -0.595
76.74000 2.450
76.76000 4.315
76.78000 3.919
76.80000 2.499
76.82000 -1.567
76.84000 1.187
76.86000 0.944
76.88000 -0.052
76.90000 -0.206
76.92000 -0.172
76.94000 0.297
76.96000 0.756
76.98000 -0.796
77.00000 2.250
77.02000 0.972
77.04000 2.367
77.06000 0.914
77.08000 -1.240
77.10000 -1.159
77.12000 -1.801
77.14000 1.897
77.16000 3.388
77.18000 3.166
77.20000 1.444
77.22000 -1.406
77.24000 -0.583
77.26000 -1.509
77.28000 2.396
77.30000 2.138
77.32000 1.827
77.34000 0.628
77.36000 1.532
77.38000 -0.762
77.40000 -0.955
77.42000 0.649
77.44000 1.555
77.46000 2.212
77.48000 3.644
77.50000 0.408
77.52000 2.562
77.54000 3.381
77.56000 1.061
77.58000 -0.873
77.60000 -1.465
77.62000 0.184
77.64000 4.369
77.66000 0.893
77.68000 -0.310
77.70000 0.848
77.72000 1.209
77.74000 3.226
77.76000 4.161
77.78000 2.294
77.80000 3.506
77.82000 2.595
77.84000 4.227
77.86000 2.726
77.88000 -1.065
77.90000 2.869
77.92000 3.387
77.94000 2.458
77.96000 3.457
77.98000 3.818
78.00000 2.165
78.02000 -2.073
78.04000 -0.236
78.06000 0.863
78.08000 5.055
78.10000 2.831
78.12000 0.401
78.14000 1.813
78.16000 2.815
78.18000 3.157
78.20000 1.182
78.22000 4.153
78.24000 2.736
78.26000 -1.502
78.28000 -2.113
78.30000 -1.701
78.32000 -1.447
78.34000 -1.971
78.36000 -0.486
78.38000 -1.666
78.40000 6.311
78.42000 7.815
78.44000 6.201
78.46000 2.360
78.48000 0.664
78.50000 3.846
78.52000 1.979
78.54000 1.665
78.56000 -0.490
78.58000 1.100
78.60000 -1.748
78.62000 -0.992
78.64000 3.432
78.66000 5.375
78.68000 1.415
78.70000 1.029
78.72000 1.662
78.74000 2.209
78.76000 0.988
78.78000 0.682
78.80000 0.898
78.82000 0.735
78.84000 1.067
78.86000 3.361
78.88000 5.070
78.90000 1.818
78.92000 0.006
78.94000 -0.044
78.96000 2.189
78.98000 2.681
79.00000 -0.519
79.02000 -0.633
79.04000 0.784
79.06000 1.919
79.08000 4.584
79.10000 6.857
79.12000 5.253
79.14000 3.305
79.16000 1.991
79.18000 3.828
79.20000 5.331
79.22000 6.630
79.24000 8.032
79.26000 6.280
79.28000 4.293
79.30000 4.285
79.32000 7.076
79.34000 7.961
79.36000 10.704
79.38000 8.183
79.40000 9.129
79.42000 8.020
79.44000 13.589
79.46000 12.000
79.48000 13.620
79.50000 10.466
79.52000 12.699
79.54000 9.976
79.56000 9.604
79.58000 8.856
79.60000 11.384
79.62000 14.286
79.64000 17.381
79.66000 15.964
79.68000 17.505
79.70000 20.172
79.72000 18.794
79.74000 20.404
79.76000 19.770
79.78000 18.615
79.80000 22.037
79.82000 19.718
79.84000 22.986
79.86000 20.305
79.88000 19.702
79.90000 21.653
79.92000 24.874
79.94000 20.648
79.96000 22.014
79.98000 20.894
80.00000 20.719
80.02000 20.943
80.04000 20.886
80.06000 26.341
80.08000 26.990
80.10000 27.457
80.12000 24.082
80.14000 23.127
80.16000 22.702
80.18000 25.620
80.20000 23.868
80.22000 20.902
80.24000 22.072
80.26000 22.533
80.28000 26.507
80.30000 27.545
80.32000 27.900
80.34000 20.809
80.36000 18.351
80.38000 19.478
80.40000 20.483
80.42000 22.260
80.44000 21.327
80.46000 20.091
80.48000 19.911
80.50000 20.519
80.52000 20.242
80.54000 18.865
80.56000 17.765
80.58000 18.517
80.60000 16.088
80.62000 16.117
80.64000 14.002
80.66000 12.055
80.68000 10.683
80.70000 13.182
80.72000 11.858
80.74000 14.416
80.76000 13.459
80.78000 9.461
80.80000 9.481
80.82000 9.470
80.84000 9.553
80.86000 10.496
80.88000 8.485
80.90000 10.740
80.92000 9.638
80.94000 11.156
80.96000 8.052
80.98000 7.359
81.00000 5.963
81.02000 5.160
81.04000 6.382
81.06000 6.133
81.08000 3.840
81.10000 6.063
81.12000 8.624
81.14000 8.567
81.16000 9.183
81.18000 8.069
81.20000 1.391
81.22000 1.333
81.24000 1.574
81.26000 4.452
81.28000 0.428
81.30000 5.141
81.32000 3.635
81.34000 -0.920
81.36000 3.282
81.38000 4.586
81.40000 1.592
81.42000 1.873
81.44000 3.028
81.46000 0.324
81.48000 -0.256
81.50000 4.039
81.52000 2.198
81.54000 1.016
81.56000 2.514
81.58000 4.469
81.60000 1.636
81.62000 0.121
81.64000 1.065
81.66000 2.893
81.68000 2.081
81.70000 3.538
81.72000 7.038
81.74000 4.083
81.76000 -0.184
81.78000 -0.514
81.80000 4.490
81.82000 5.069
81.84000 -0.415
81.86000 2.917
81.88000 1.347
81.90000 -2.234
81.92000 -0.048
81.94000 1.885
81.96000 3.080
81.98000 3.127
82.00000 1.482
82.02000 2.866
82.04000 3.852
82.06000 1.584
82.08000 0.865
82.10000 1.723
82.12000 1.150
82.14000 0.928
82.16000 1.507
82.18000 -0.354
82.20000 -0.933
82.22000 2.514
82.24000 -0.609
82.26000 -0.968
82.28000 0.768
82.30000 3.896
82.32000 1.827
82.34000 -1.926
82.36000 0.134
82.38000 3.122
82.40000 -0.273
82.42000 -0.306
82.44000 1.373
82.46000 -1.551
82.48000 -2.228
82.50000 2.238
82.52000 3.596
82.54000 3.004
82.56000 0.382
82.58000 -0.497
82.60000 2.721
82.62000 4.740
82.64000 1.846
82.66000 3.341
82.68000 4.026
82.70000 4.022
82.72000 5.263
82.74000 5.639
82.76000 3.656
82.78000 5.085
82.80000 1.402
82.82000 2.025
82.84000 2.525
82.86000 4.189
82.88000 1.874
82.90000 1.809
82.92000 3.642
82.94000 0.281
82.96000 1.701
82.98000 3.627
83.00000 0.917
83.02000 2.064
83.04000 4.104
83.06000 8.093
83.08000 7.487
83.10000 7.339
83.12000 6.850
83.14000 6.024
83.16000 8.465
83.18000 10.736
83.20000 15.170
83.22000 14.425
83.24000 14.996
83.26000 10.116
83.28000 14.759
83.30000 18.664
83.32000 13.491
83.34000 11.762
83.36000 15.158
83.38000 13.504
83.40000 12.493
83.42000 17.080
83.44000 18.128
83.46000 20.450
83.48000 21.053
83.50000 18.844
83.52000 20.717
83.54000 21.749
83.56000 21.399
83.58000 20.036
83.60000 24.827
83.62000 26.761
83.64000 29.240
83.66000 29.750
83.68000 27.578
83.70000 29.866
83.72000 29.926
83.74000 29.321
83.76000 33.245
83.78000 35.767
83.80000 35.135
83.82000 32.278
83.84000 30.076
83.86000 32.053
83.88000 33.717
83.90000 30.833
83.92000 31.533
83.94000 33.896
83.96000 32.100
83.98000 35.748
84.00000 34.530
84.02000 36.197
84.04000 39.503
84.06000 39.046
84.08000 36.473
84.10000 34.993
84.12000 38.242
84.14000 39.669
84.16000 40.379
84.18000 39.567
84.20000 38.378
84.22000 36.833
84.24000 32.429
84.26000 30.767
84.28000 31.947
84.30000 32.927
84.32000 35.985
84.34000 34.131
84.36000 33.620
84.38000 35.654
84.40000 32.194
84.42000 28.517
84.44000 23.985
84.46000 27.030
84.48000 26.007
84.50000 26.193
84.52000 26.681
84.54000 24.657
84.56000 22.407
84.58000 20.601
84.60000 23.182
84.62000 19.900
84.64000 17.633
84.66000 18.329
84.68000 16.649
84.70000 14.196
84.72000 13.899
84.74000 15.874
84.76000 13.104
84.78000 12.027
84.80000 9.312
84.82000 8.994
84.84000 10.417
84.86000 10.256
84.88000 10.943
84.90000 12.588
84.92000 8.701
84.94000 5.172
84.96000 7.340
84.98000 9.305
85.00000 9.201
85.02000 5.290
85.04000 5.297
85.06000 7.016
85.08000 10.341
85.10000 5.769
85.12000 5.311
85.14000 3.759
85.16000 5.492
85.18000 2.640
85.20000 1.400
85.22000 2.759
85.24000 3.737
85.26000 2.178
85.28000 -2.072
85.30000 -2.069
85.32000 1.733
85.34000 2.804
85.36000 3.208
85.38000 4.657
85.40000 4.440
85.42000 1.999
85.44000 3.322
85.46000 1.561
85.48000 0.323
85.50000 3.812
85.52000 1.646
85.54000 2.779
85.56000 1.013
85.58000 1.317
85.60000 -0.448
85.62000 1.149
85.64000 -0.474
85.66000 0.551
85.68000 0.661
85.70000 -1.113
85.72000 -0.909
85.74000 -0.088
85.76000 -0.524
85.78000 -1.957
85.80000 1.076
85.82000 0.261
85.84000 0.415
85.86000 1.427
85.88000 -0.659
85.90000 -1.985
85.92000 0.122
85.94000 4.297
85.96000 3.837
85.98000 3.483
86.00000 3.537
86.02000 -1.969
86.04000 -0.033
86.06000 2.880
86.08000 1.598
86.10000 2.807
86.12000 2.114
86.14000 2.951
86.16000 1.809
86.18000 0.765
86.20000 -0.120
86.22000 -0.985
86.24000 1.606
86.26000 0.038
86.28000 0.209
86.30000 2.111
86.32000 2.568
86.34000 1.099
86.36000 0.652
86.38000 0.447
86.40000 1.699
86.42000 -1.062
86.44000 2.099
86.46000 3.677
86.48000 2.383
86.50000 0.274
86.52000 2.004
86.54000 2.248
86.56000 1.023
86.58000 3.025
86.60000 4.735
86.62000 0.883
86.64000 -0.022
86.66000 1.732
86.68000 2.272
86.70000 0.427
86.72000 -1.563
86.74000 -1.671
86.76000 -1.931
86.78000 -1.365
86.80000 -0.085
86.82000 -0.296
86.84000 2.740
86.86000 0.118
86.88000 0.588
86.90000 -0.168
86.92000 1.776
86.94000 2.325
86.96000 2.275
86.98000 2.008
87.00000 2.738
87.02000 1.669
87.04000 2.408
87.06000 1.147
87.08000 0.733
87.10000 -1.893
87.12000 -1.570
87.14000 1.346
87.16000 1.376
87.18000 1.446
87.20000 4.012
87.22000 0.926
87.24000 -0.182
87.26000 -1.018
87.28000 1.702
87.30000 2.323
87.32000 -0.973
87.34000 -1.899
87.36000 -1.168
87.38000 -0.366
87.40000 -0.900
87.42000 -1.663
87.44000 -0.780
87.46000 -1.640
87.48000 0.900
87.50000 2.297
87.52000 1.476
87.54000 0.096
87.56000 1.453
87.58000 1.157
87.60000 -1.838
87.62000 -0.486
87.64000 -1.130
87.66000 3.263
87.68000 1.194
87.70000 1.337
87.72000 0.000
87.74000 -0.260
87.76000 1.326
87.78000 1.075
87.80000 2.785
87.82000 3.483
87.84000 0.833
87.86000 2.897
87.88000 3.775
87.90000 2.518
87.92000 2.928
87.94000 3.370
87.96000 1.005
87.98000 -0.855
88.00000 3.173
88.02000 2.691
88.04000 0.721
88.06000 -1.140
88.08000 0.624
88.10000 1.135
88.12000 -0.244
88.14000 0.361
88.16000 -1.861
88.18000 0.425
88.20000 0.547
88.22000 2.557
88.24000 0.159
88.26000 1.941
88.28000 6.705
88.30000 6.432
88.32000 2.852
88.34000 2.221
88.36000 0.927
88.38000 -0.808
88.40000 0.400
88.42000 -0.345
88.44000 -1.282
88.46000 -0.965
88.48000 1.861
88.50000 2.737
88.52000 0.502
88.54000 3.387
88.56000 1.071
88.58000 -1.814
88.60000 -0.748
88.62000 -0.339
88.64000 0.579
88.66000 1.941
88.68000 -0.414
88.70000 -1.767
88.72000 -0.536
88.74000 -0.060
88.76000 1.443
88.78000 -1.836
88.80000 -1.167
88.82000 -0.403
88.84000 0.210
88.86000 1.350
88.88000 4.572
88.90000 5.060
88.92000 6.119
88.94000 3.493
88.96000 -0.515
88.98000 -0.017
89.00000 0.954
89.02000 5.472
89.04000 5.064
89.06000 2.672
89.08000 1.507
89.10000 3.639
89.12000 2.552
89.14000 1.449
89.16000 1.560
89.18000 -0.210
89.20000 0.810
89.22000 3.047
89.24000 4.390
89.26000 4.855
89.28000 2.135
89.30000 1.518
89.32000 3.372
89.34000 2.321
89.36000 1.645
89.38000 4.892
89.40000 4.085
89.42000 3.409
89.44000 1.377
89.46000 1.152
89.48000 4.115
89.50000 3.981
89.52000 3.594
89.54000 5.104
89.56000 3.982
89.58000 3.415
89.60000 3.348
89.62000 -1.803
89.64000 -1.033
89.66000 1.560
89.68000 3.407
89.70000 3.405
89.72000 1.283
89.74000 2.431
89.76000 0.757
89.78000 2.307
89.80000 -0.705
89.82000 1.424
89.84000 3.396
89.86000 4.512
89.88000 1.220
89.90000 1.703
89.92000 2.641
89.94000 2.328
89.96000 2.088
89.98000 2.207
90.00000 1.525
90.02000 2.101
90.04000 2.428
90.06000 -0.469
90.08000 0.730
90.10000 4.722
90.12000 2.401
90.14000 0.242
90.16000 4.084
90.18000 1.945
90.20000 -0.653
90.22000 2.776
90.24000 2.781
90.26000 2.581
90.28000 1.883
90.30000 1.877
90.32000 2.604
90.34000 4.342
90.36000 5.303
90.38000 1.385
90.40000 -0.441
90.42000 2.600
90.44000 1.414
90.46000 -1.840
90.48000 -1.239
90.50000 1.644
90.52000 2.645
90.54000 3.229
90.56000 2.515
90.58000 1.650
90.60000 1.696
90.62000 3.103
90.64000 2.512
90.66000 2.237
90.68000 -0.307
90.70000 0.476
90.72000 1.654
90.74000 4.832
90.76000 2.367
90.78000 1.776
90.80000 1.243
90.82000 -0.033
90.84000 2.167
90.86000 1.500
90.88000 -0.646
90.90000 0.807
90.92000 3.013
90.94000 5.187
90.96000 3.061
90.98000 1.900
91.00000 1.725
91.02000 0.232
91.04000 -1.127
91.06000 0.584
91.08000 1.472
91.10000 2.349
91.12000 5.196
91.14000 3.461
91.16000 4.801
91.18000 4.224
91.20000 0.909
91.22000 -0.945
91.24000 0.184
91.26000 0.401
91.28000 1.899
91.30000 3.788
91.32000 0.248
91.34000 -0.526
91.36000 1.434
91.38000 1.287
91.40000 -0.105
91.42000 1.466
91.44000 1.835
91.46000 0.899
91.48000 0.703
91.50000 -1.138
91.52000 -1.334
91.54000 0.367
91.56000 0.343
91.58000 0.572
91.60000 -1.023
91.62000 -0.897
91.64000 -0.211
91.66000 3.310
91.68000 1.286
91.70000 0.324
91.72000 1.146
91.74000 2.109
91.76000 -0.015
91.78000 -0.343
91.80000 3.251
91.82000 -1.061
91.84000 1.080
91.86000 2.008
91.88000 -0.346
91.90000 3.412
91.92000 5.775
91.94000 -0.102
91.96000 -0.341
91.98000 3.163
92.00000 4.817
92.02000 3.145
92.04000 3.905
92.06000 -0.225
92.08000 -1.384
92.10000 -1.848
92.12000 -0.979
92.14000 -0.941
92.16000 0.892
92.18000 5.149
92.20000 3.395
92.22000 0.471
92.24000 0.574
92.26000 2.383
92.28000 2.574
92.30000 3.826
92.32000 2.934
92.34000 0.091
92.36000 1.015
92.38000 0.235
92.40000 0.582
92.42000 0.719
92.44000 -1.858
92.46000 -0.026
92.48000 0.951
92.50000 0.568
92.52000 3.918
92.54000 6.873
92.56000 -0.186
92.58000 -0.351
92.60000 0.555
92.62000 -1.253
92.64000 -0.763
92.66000 3.719
92.68000 1.879
92.70000 3.721
92.72000 3.903
92.74000 0.857
92.76000 -0.641
92.78000 2.393
92.80000 6.006
92.82000 1.009
92.84000 -1.384
92.86000 0.837
92.88000 -1.533
92.90000 0.531
92.92000 1.462
92.94000 4.526
92.96000 2.192
92.98000 -1.106
93.00000 -0.844
93.02000 2.514
93.04000 4.959
93.06000 6.316
93.08000 2.711
93.10000 1.120
93.12000 0.342
93.14000 0.652
93.16000 1.426
93.18000 0.433
93.20000 1.842
93.22000 1.151
93.24000 3.350
93.26000 4.583
93.28000 3.483
93.30000 1.367
93.32000 2.102
93.34000 5.000
93.36000 4.251
93.38000 0.831
93.40000 0.208
93.42000 3.881
93.44000 3.897
93.46000 2.508
93.48000 0.740
93.50000 2.951
93.52000 3.180
93.54000 2.069
93.56000 3.738
93.58000 3.123
93.60000 3.209
93.62000 6.551
93.64000 2.573
93.66000 2.658
93.68000 2.338
93.70000 2.375
93.72000 3.912
93.74000 2.680
93.76000 -1.858
93.78000 -0.674
93.80000 1.521
93.82000 5.968
93.84000 5.646
93.86000 3.491
93.88000 4.715
93.90000 4.993
93.92000 1.895
93.94000 0.694
93.96000 0.277
93.98000 2.957
94.00000 3.266
94.02000 2.316
94.04000 -1.866
94.06000 0.192
94.08000 3.356
94.10000 4.124
94.12000 1.444
94.14000 3.520
94.16000 3.824
94.18000 3.140
94.20000 -0.196
94.22000 0.393
94.24000 0.963
94.26000 2.509
94.28000 1.801
94.30000 1.559
94.32000 -0.525
94.34000 -0.180
94.36000 0.859
94.38000 3.078
94.40000 0.809
94.42000 2.049
94.44000 0.603
94.46000 0.123
94.48000 0.052
94.50000 0.852
94.52000 -1.277
94.54000 0.815
94.56000 1.693
94.58000 2.554
94.60000 0.995
94.62000 2.602
94.64000 3.577
94.66000 7.171
94.68000 7.132
94.70000 3.169
94.72000 4.522
94.74000 2.592
94.76000 0.619
94.78000 0.612
94.80000 1.990
94.82000 0.816
94.84000 0.154
94.86000 1.075
94.88000 3.119
94.90000 3.122
94.92000 -0.505
94.94000 1.562
94.96000 2.090
94.98000 4.445
95.00000 6.254
95.02000 8.797
95.04000 5.821
95.06000 4.500
95.08000 3.695
95.10000 0.314
95.12000 3.424
95.14000 3.736
95.16000 5.760
95.18000 6.002
95.20000 6.097
95.22000 5.211
95.24000 0.900
95.26000 -1.844
95.28000 -0.586
95.30000 1.427
95.32000 3.322
95.34000 3.318
95.36000 2.508
95.38000 1.845
95.40000 2.481
95.42000 0.422
95.44000 2.850
95.46000 4.666
95.48000 3.352
95.50000 3.716
95.52000 6.816
95.54000 4.240
95.56000 2.472
95.58000 4.012
95.60000 2.772
95.62000 6.524
95.64000 5.268
95.66000 3.246
95.68000 1.750
95.70000 2.644
95.72000 5.575
95.74000 3.574
95.76000 0.302
95.78000 1.433
95.80000 4.167
95.82000 -0.204
95.84000 -0.728
95.86000 3.968
95.88000 1.840
95.90000 -0.842
95.92000 1.944
95.94000 4.734
95.96000 6.105
95.98000 6.297
96.00000 1.008
96.02000 2.731
96.04000 7.675
96.06000 5.337
96.08000 5.241
96.10000 5.446
96.12000 3.597
96.14000 0.906
96.16000 -0.916
96.18000 2.391
96.20000 2.839
96.22000 4.964
96.24000 4.833
96.26000 4.076
96.28000 -1.866
96.30000 3.294
96.32000 3.456
96.34000 3.128
96.36000 -0.656
96.38000 3.636
96.40000 1.932
96.42000 1.972
96.44000 3.920
96.46000 2.247
96.48000 1.449
96.50000 -0.066
96.52000 3.078
96.54000 4.764
96.56000 2.153
96.58000 0.176
96.60000 2.671
96.62000 2.851
96.64000 2.978
96.66000 2.804
96.68000 0.486
96.70000 4.540
96.72000 1.317
96.74000 -1.138
96.76000 1.900
96.78000 3.068
96.80000 2.572
96.82000 3.140
96.84000 1.700
96.86000 1.242
96.88000 -0.263
96.90000 5.447
96.92000 2.139
96.94000 4.558
96.96000 0.091
96.98000 0.545
97.00000 6.245
97.02000 8.352
97.04000 7.643
97.06000 2.780
97.08000 -0.383
97.10000 3.771
97.12000 1.353
97.14000 4.060
97.16000 1.095
97.18000 -1.845
97.20000 3.976
97.22000 5.016
97.24000 4.002
97.26000 2.549
97.28000 0.241
97.30000 2.570
97.32000 1.656
97.34000 4.019
97.36000 5.552
97.38000 5.346
97.40000 4.453
97.42000 5.093
97.44000 1.907
97.46000 3.622
97.48000 1.511
97.50000 1.784
97.52000 2.123
97.54000 4.861
97.56000 7.936
97.58000 5.676
97.60000 2.688
97.62000 3.583
97.64000 0.213
97.66000 -0.342
97.68000 3.123
97.70000 5.880
97.72000 9.020
97.74000 7.791
97.76000 1.449
97.78000 -1.143
97.80000 -0.117
97.82000 -1.422
97.84000 1.153
97.86000 0.385
97.88000 -1.850
97.90000 -0.318
97.92000 4.179
97.94000 2.664
97.96000 3.236
97.98000 4.886
98.00000 3.809
98.02000 1.315
98.04000 3.454
98.06000 4.729
98.08000 5.496
98.10000 3.298
98.12000 6.568
98.14000 7.174
98.16000 2.830
98.18000 3.474
98.20000 2.530
98.22000 5.165
98.24000 5.348
98.26000 4.055
98.28000 2.131
98.30000 0.827
98.32000 2.220
98.34000 6.982
98.36000 7.686
98.38000 2.945
98.40000 0.778
98.42000 1.479
98.44000 5.848
98.46000 6.788
98.48000 4.297
98.50000 5.154
98.52000 1.912
98.54000 -0.433
98.56000 -1.160
98.58000 0.592
98.60000 6.712
98.62000 2.393
98.64000 5.438
98.66000 1.912
98.68000 5.109
98.70000 5.142
98.72000 5.110
98.74000 3.555
98.76000 1.580
98.78000 -1.822
98.80000 2.086
98.82000 0.992
98.84000 2.825
98.86000 -1.738
98.88000 -1.523
98.90000 5.581
98.92000 6.159
98.94000 4.826
98.96000 -0.555
98.98000 3.631
99.00000 6.875
99.02000 1.204
99.04000 1.484
99.06000 -0.209
99.08000 -1.669
99.10000 1.054
99.12000 -0.447
99.14000 1.495
99.16000 4.371
99.18000 4.423
99.20000 1.395
99.22000 1.130
99.24000 0.141
99.26000 6.448
99.28000 6.744
99.30000 1.833
99.32000 2.324
99.34000 1.066
99.36000 2.165
99.38000 7.128
99.40000 6.178
99.42000 6.219
99.44000 5.786
99.46000 10.448
99.48000 9.530
99.50000 8.534
99.52000 -0.034
99.54000 1.283
99.56000 4.317
99.58000 -2.234
99.60000 5.295
99.62000 10.342
99.64000 -0.869
99.66000 4.551
99.68000 5.008
99.70000 4.711
99.72000 6.011
99.74000 2.244
99.76000 4.835
99.78000 7.430
99.80000 8.473
99.82000 4.418
99.84000 3.968
99.86000 6.724
99.88000 1.009
99.90000 8.777
99.92000 5.495
99.94000 9.143
99.96000 11.693
99.98000 0.000
