'Id: "0011387" Comment: "Integrate frame 0011387_Au-Ir-Rh_Rh-rich_XRD-Mapping-231-0000.gfrmwith cursor Wedge Cursor #5" Operator: "B?rgel" Anode: "Cu" Wavelength: "1.5406" Scantype: "2Theta (TwoTheta)" TimePerStep: "1" X: "4.5" Y: "13.5" Z: "5.95" 
10.00000 0.000
10.02000 -4.107
10.04000 -4.094
10.06000 -1.174
10.08000 13.645
10.10000 1.405
10.12000 -2.808
10.14000 0.236
10.16000 8.245
10.18000 11.472
10.20000 4.291
10.22000 3.926
10.24000 7.864
10.26000 12.248
10.28000 21.913
10.30000 17.775
10.32000 17.848
10.34000 3.132
10.36000 0.249
10.38000 10.269
10.40000 -4.098
10.42000 9.042
10.44000 16.176
10.46000 21.421
10.48000 18.383
10.50000 11.530
10.52000 12.619
10.54000 11.632
10.56000 6.716
10.58000 13.187
10.60000 11.448
10.62000 16.879
10.64000 18.131
10.66000 16.486
10.68000 7.515
10.70000 3.132
10.72000 8.605
10.74000 11.024
10.76000 17.549
10.78000 7.425
10.80000 0.772
10.82000 9.659
10.84000 11.751
10.86000 4.049
10.88000 19.589
10.90000 9.796
10.92000 1.323
10.94000 13.611
10.96000 13.027
10.98000 6.828
11.00000 6.094
11.02000 18.150
11.04000 10.912
11.06000 13.086
11.08000 14.469
11.10000 15.463
11.12000 15.547
11.14000 17.931
11.16000 19.862
11.18000 12.627
11.20000 19.768
11.22000 14.034
11.24000 8.420
11.26000 -1.679
11.28000 17.444
11.30000 22.351
11.32000 16.382
11.34000 9.923
11.36000 9.435
11.38000 21.399
11.40000 19.192
11.42000 18.148
11.44000 7.728
11.46000 13.081
11.48000 16.559
11.50000 21.537
11.52000 15.696
11.54000 9.040
11.56000 15.112
11.58000 17.525
11.60000 19.230
11.62000 16.587
11.64000 0.887
11.66000 -0.567
11.68000 10.801
11.70000 20.551
11.72000 24.287
11.74000 25.421
11.76000 27.682
11.78000 26.591
11.80000 21.504
11.82000 14.463
11.84000 18.844
11.86000 8.525
11.88000 4.377
11.90000 4.347
11.92000 8.041
11.94000 19.404
11.96000 20.717
11.98000 23.889
12.00000 3.946
12.02000 11.132
12.04000 13.259
12.06000 20.420
12.08000 24.305
12.10000 26.824
12.12000 16.603
12.14000 6.256
12.16000 10.939
12.18000 6.307
12.20000 7.426
12.22000 19.760
12.24000 16.202
12.26000 17.397
12.28000 12.608
12.30000 7.736
12.32000 15.188
12.34000 14.553
12.36000 14.737
12.38000 13.922
12.40000 8.743
12.42000 8.367
12.44000 8.549
12.46000 -0.426
12.48000 9.352
12.50000 18.092
12.52000 13.320
12.54000 10.805
12.56000 14.289
12.58000 11.916
12.60000 18.338
12.62000 22.855
12.64000 21.528
12.66000 15.055
12.68000 12.217
12.70000 19.437
12.72000 28.679
12.74000 22.969
12.76000 17.370
12.78000 6.399
12.80000 11.599
12.82000 20.352
12.84000 15.955
12.86000 10.609
12.88000 14.522
12.90000 15.106
12.92000 14.193
12.94000 8.240
12.96000 4.108
12.98000 17.970
13.00000 20.135
13.02000 2.118
13.04000 5.038
13.06000 15.130
13.08000 9.290
13.10000 7.530
13.12000 10.351
13.14000 5.945
13.16000 9.594
13.18000 12.164
13.20000 5.105
13.22000 6.803
13.24000 9.852
13.26000 9.906
13.28000 10.561
13.30000 16.973
13.32000 17.451
13.34000 14.988
13.36000 10.490
13.38000 15.411
13.40000 13.958
13.42000 6.761
13.44000 11.056
13.46000 16.847
13.48000 12.847
13.50000 16.925
13.52000 11.071
13.54000 10.534
13.56000 13.267
13.58000 12.443
13.60000 11.360
13.62000 11.846
13.64000 13.663
13.66000 15.850
13.68000 10.554
13.70000 7.448
13.72000 14.462
13.74000 6.980
13.76000 5.215
13.78000 10.061
13.80000 8.103
13.82000 5.408
13.84000 11.283
13.86000 11.865
13.88000 12.196
13.90000 5.379
13.92000 5.293
13.94000 4.942
13.96000 18.849
13.98000 13.683
14.00000 12.706
14.02000 12.134
14.04000 5.291
14.06000 9.353
14.08000 10.275
14.10000 7.568
14.12000 20.642
14.14000 15.461
14.16000 11.624
14.18000 8.678
14.20000 16.864
14.22000 17.863
14.24000 15.373
14.26000 17.079
14.28000 18.334
14.30000 5.282
14.32000 -0.138
14.34000 7.540
14.36000 9.822
14.38000 12.790
14.40000 11.327
14.42000 7.383
14.44000 2.210
14.46000 8.557
14.48000 10.991
14.50000 8.203
14.52000 11.947
14.54000 12.002
14.56000 14.227
14.58000 13.666
14.60000 13.929
14.62000 6.251
14.64000 0.622
14.66000 10.084
14.68000 13.435
14.70000 6.414
14.72000 6.934
14.74000 10.498
14.76000 10.748
14.78000 2.881
14.80000 -1.972
14.82000 4.160
14.84000 7.183
14.86000 10.926
14.88000 15.035
14.90000 8.070
14.92000 9.616
14.94000 12.727
14.96000 13.156
14.98000 9.465
15.00000 9.641
15.02000 10.312
15.04000 8.743
15.06000 8.121
15.08000 11.973
15.10000 20.136
15.12000 6.734
15.14000 0.848
15.16000 6.039
15.18000 5.040
15.20000 3.694
15.22000 9.585
15.24000 13.970
15.26000 13.105
15.28000 7.858
15.30000 4.015
15.32000 1.529
15.34000 7.785
15.36000 6.692
15.38000 10.242
15.40000 7.143
15.42000 5.124
15.44000 5.181
15.46000 5.249
15.48000 13.261
15.50000 10.687
15.52000 7.748
15.54000 0.781
15.56000 0.668
15.58000 5.419
15.60000 11.915
15.62000 11.651
15.64000 14.769
15.66000 16.544
15.68000 14.649
15.70000 11.537
15.72000 7.659
15.74000 4.332
15.76000 2.591
15.78000 2.451
15.80000 5.894
15.82000 -2.154
15.84000 -4.422
15.86000 7.106
15.88000 8.684
15.90000 10.277
15.92000 7.517
15.94000 10.865
15.96000 15.958
15.98000 10.177
16.00000 4.088
16.02000 -2.517
16.04000 3.340
16.06000 2.997
16.08000 -3.548
16.10000 3.024
16.12000 11.663
16.14000 8.526
16.16000 10.005
16.18000 9.935
16.20000 7.959
16.22000 7.714
16.24000 0.761
16.26000 -0.364
16.28000 6.051
16.30000 3.077
16.32000 9.338
16.34000 6.726
16.36000 -0.603
16.38000 10.294
16.40000 20.399
16.42000 16.823
16.44000 11.060
16.46000 7.116
16.48000 8.185
16.50000 -1.136
16.52000 1.755
16.54000 0.667
16.56000 9.615
16.58000 14.519
16.60000 6.020
16.62000 -1.201
16.64000 4.010
16.66000 8.615
16.68000 9.518
16.70000 12.899
16.72000 6.289
16.74000 13.468
16.76000 9.357
16.78000 6.392
16.80000 -4.407
16.82000 9.788
16.84000 13.941
16.86000 9.085
16.88000 5.192
16.90000 6.049
16.92000 6.275
16.94000 1.249
16.96000 6.301
16.98000 1.873
17.00000 1.850
17.02000 2.212
17.04000 4.007
17.06000 7.956
17.08000 0.176
17.10000 2.708
17.12000 9.646
17.14000 3.387
17.16000 9.454
17.18000 8.342
17.20000 2.366
17.22000 3.553
17.24000 1.745
17.26000 1.115
17.28000 3.376
17.30000 9.921
17.32000 3.904
17.34000 -1.047
17.36000 2.029
17.38000 -0.735
17.40000 -2.463
17.42000 1.343
17.44000 6.288
17.46000 1.657
17.48000 8.266
17.50000 12.891
17.52000 9.658
17.54000 12.465
17.56000 7.805
17.58000 8.290
17.60000 8.331
17.62000 3.477
17.64000 8.274
17.66000 7.452
17.68000 4.686
17.70000 -2.678
17.72000 1.358
17.74000 3.944
17.76000 1.925
17.78000 3.614
17.80000 -1.177
17.82000 0.827
17.84000 4.402
17.86000 6.486
17.88000 7.106
17.90000 4.194
17.92000 -0.768
17.94000 2.707
17.96000 11.463
17.98000 4.016
18.00000 3.420
18.02000 3.281
18.04000 -0.663
18.06000 4.548
18.08000 6.983
18.10000 8.010
18.12000 4.777
18.14000 5.376
18.16000 4.959
18.18000 3.062
18.20000 10.032
18.22000 3.592
18.24000 4.048
18.26000 3.952
18.28000 9.582
18.30000 7.324
18.32000 3.933
18.34000 1.905
18.36000 1.976
18.38000 12.881
18.40000 9.894
18.42000 2.738
18.44000 0.724
18.46000 4.421
18.48000 4.353
18.50000 5.719
18.52000 7.988
18.54000 1.165
18.56000 -2.519
18.58000 -4.307
18.60000 -2.016
18.62000 -0.142
18.64000 8.924
18.66000 13.194
18.68000 4.793
18.70000 4.920
18.72000 8.981
18.74000 6.184
18.76000 6.162
18.78000 3.820
18.80000 3.391
18.82000 6.760
18.84000 8.159
18.86000 4.026
18.88000 3.828
18.90000 5.199
18.92000 3.587
18.94000 -2.667
18.96000 1.941
18.98000 4.428
19.00000 2.008
19.02000 7.485
19.04000 5.644
19.06000 5.184
19.08000 8.646
19.10000 8.479
19.12000 5.884
19.14000 1.219
19.16000 3.813
19.18000 7.314
19.20000 4.859
19.22000 -2.496
19.24000 0.261
19.26000 0.539
19.28000 1.207
19.30000 5.123
19.32000 0.446
19.34000 -0.486
19.36000 1.345
19.38000 6.526
19.40000 6.321
19.42000 4.494
19.44000 3.271
19.46000 5.067
19.48000 11.460
19.50000 9.414
19.52000 2.976
19.54000 3.502
19.56000 -0.100
19.58000 2.104
19.60000 0.951
19.62000 -0.589
19.64000 0.634
19.66000 -1.699
19.68000 -1.379
19.70000 1.700
19.72000 5.418
19.74000 1.509
19.76000 2.693
19.78000 3.481
19.80000 -2.403
19.82000 -2.869
19.84000 2.079
19.86000 1.576
19.88000 -3.239
19.90000 3.199
19.92000 -0.959
19.94000 0.686
19.96000 1.632
19.98000 6.096
20.00000 0.685
20.02000 2.845
20.04000 8.523
20.06000 5.696
20.08000 -3.144
20.10000 -4.250
20.12000 0.408
20.14000 -1.312
20.16000 2.035
20.18000 1.834
20.20000 -1.926
20.22000 0.755
20.24000 1.286
20.26000 4.906
20.28000 2.469
20.30000 -1.592
20.32000 -3.697
20.34000 -1.566
20.36000 -2.892
20.38000 -3.091
20.40000 1.752
20.42000 -0.607
20.44000 3.520
20.46000 0.263
20.48000 -4.224
20.50000 -1.732
20.52000 -3.325
20.54000 -0.012
20.56000 8.200
20.58000 3.090
20.60000 3.367
20.62000 6.444
20.64000 6.137
20.66000 -2.620
20.68000 -2.200
20.70000 -1.796
20.72000 4.371
20.74000 5.820
20.76000 -0.218
20.78000 -2.012
20.80000 12.670
20.82000 12.097
20.84000 7.763
20.86000 2.725
20.88000 -4.194
20.90000 5.684
20.92000 8.107
20.94000 5.241
20.96000 10.607
20.98000 3.450
21.00000 1.468
21.02000 5.144
21.04000 7.251
21.06000 6.294
21.08000 9.123
21.10000 1.865
21.12000 -0.540
21.14000 -2.243
21.16000 -4.081
21.18000 -1.754
21.20000 3.869
21.22000 0.631
21.24000 4.399
21.26000 2.700
21.28000 4.326
21.30000 1.852
21.32000 1.759
21.34000 -0.579
21.36000 -1.777
21.38000 -3.829
21.40000 -3.658
21.42000 0.830
21.44000 -1.990
21.46000 5.960
21.48000 0.573
21.50000 -1.695
21.52000 1.733
21.54000 5.466
21.56000 8.339
21.58000 10.228
21.60000 12.262
21.62000 3.242
21.64000 6.041
21.66000 5.685
21.68000 6.237
21.70000 4.251
21.72000 1.131
21.74000 1.234
21.76000 4.565
21.78000 2.394
21.80000 6.689
21.82000 7.521
21.84000 0.636
21.86000 5.490
21.88000 8.600
21.90000 9.260
21.92000 9.300
21.94000 4.451
21.96000 -0.941
21.98000 -0.595
22.00000 -0.381
22.02000 0.607
22.04000 3.649
22.06000 9.719
22.08000 -2.982
22.10000 -4.103
22.12000 1.964
22.14000 7.694
22.16000 10.271
22.18000 8.312
22.20000 10.856
22.22000 16.092
22.24000 15.580
22.26000 5.584
22.28000 2.506
22.30000 3.130
22.32000 8.430
22.34000 5.334
22.36000 -0.050
22.38000 -1.703
22.40000 2.355
22.42000 3.665
22.44000 2.565
22.46000 2.480
22.48000 4.053
22.50000 8.693
22.52000 7.528
22.54000 11.549
22.56000 4.302
22.58000 -0.719
22.60000 1.762
22.62000 2.781
22.64000 10.797
22.66000 11.344
22.68000 11.959
22.70000 9.430
22.72000 0.084
22.74000 3.444
22.76000 3.998
22.78000 11.353
22.80000 14.233
22.82000 12.491
22.84000 4.877
22.86000 -4.056
22.88000 4.363
22.90000 12.139
22.92000 5.941
22.94000 4.689
22.96000 6.728
22.98000 10.275
23.00000 14.009
23.02000 9.995
23.04000 3.571
23.06000 0.153
23.08000 -2.794
23.10000 -4.051
23.12000 -1.729
23.14000 -3.680
23.16000 5.579
23.18000 7.852
23.20000 1.497
23.22000 5.676
23.24000 7.823
23.26000 1.837
23.28000 0.735
23.30000 5.731
23.32000 3.331
23.34000 0.234
23.36000 4.100
23.38000 10.473
23.40000 6.761
23.42000 6.437
23.44000 3.785
23.46000 0.321
23.48000 4.497
23.50000 3.174
23.52000 0.567
23.54000 4.218
23.56000 8.976
23.58000 4.305
23.60000 -1.715
23.62000 -1.991
23.64000 -0.124
23.66000 3.816
23.68000 1.162
23.70000 8.448
23.72000 5.708
23.74000 -0.542
23.76000 1.181
23.78000 -2.153
23.80000 3.706
23.82000 5.565
23.84000 1.844
23.86000 2.670
23.88000 4.994
23.90000 1.442
23.92000 1.656
23.94000 2.079
23.96000 0.847
23.98000 4.920
24.00000 12.504
24.02000 7.524
24.04000 2.673
24.06000 3.312
24.08000 6.378
24.10000 7.810
24.12000 0.739
24.14000 -1.362
24.16000 1.693
24.18000 1.374
24.20000 1.091
24.22000 -3.828
24.24000 2.280
24.26000 0.852
24.28000 -0.453
24.30000 2.020
24.32000 5.441
24.34000 4.856
24.36000 7.741
24.38000 2.704
24.40000 2.557
24.42000 1.552
24.44000 2.571
24.46000 3.909
24.48000 3.294
24.50000 3.064
24.52000 6.937
24.54000 5.073
24.56000 6.617
24.58000 3.058
24.60000 0.722
24.62000 3.596
24.64000 2.040
24.66000 -0.966
24.68000 2.407
24.70000 0.488
24.72000 5.048
24.74000 8.573
24.76000 4.293
24.78000 -1.768
24.80000 -3.960
24.82000 0.532
24.84000 7.909
24.86000 8.074
24.88000 4.983
24.90000 5.027
24.92000 1.061
24.94000 2.089
24.96000 0.861
24.98000 -1.287
25.00000 2.321
25.02000 -1.230
25.04000 5.325
25.06000 7.546
25.08000 3.521
25.10000 4.896
25.12000 7.174
25.14000 3.534
25.16000 1.882
25.18000 1.476
25.20000 0.772
25.22000 5.676
25.24000 2.076
25.26000 2.317
25.28000 3.364
25.30000 2.151
25.32000 1.566
25.34000 4.658
25.36000 4.463
25.38000 1.153
25.40000 -2.141
25.42000 4.352
25.44000 6.629
25.46000 9.502
25.48000 7.756
25.50000 2.679
25.52000 1.796
25.54000 4.349
25.56000 10.581
25.58000 10.094
25.60000 6.120
25.62000 7.023
25.64000 3.931
25.66000 5.027
25.68000 8.468
25.70000 9.997
25.72000 1.161
25.74000 5.172
25.76000 7.896
25.78000 3.284
25.80000 6.836
25.82000 4.870
25.84000 4.500
25.86000 2.963
25.88000 1.971
25.90000 3.790
25.92000 4.673
25.94000 13.483
25.96000 7.158
25.98000 6.027
26.00000 6.301
26.02000 8.539
26.04000 4.360
26.06000 1.110
26.08000 4.341
26.10000 1.267
26.12000 1.432
26.14000 5.936
26.16000 5.433
26.18000 3.370
26.20000 0.065
26.22000 2.956
26.24000 8.591
26.26000 10.364
26.28000 5.620
26.30000 8.926
26.32000 4.605
26.34000 9.357
26.36000 10.857
26.38000 9.163
26.40000 4.844
26.42000 6.667
26.44000 13.428
26.46000 9.802
26.48000 10.245
26.50000 5.737
26.52000 8.449
26.54000 6.094
26.56000 4.667
26.58000 7.189
26.60000 10.251
26.62000 8.682
26.64000 7.592
26.66000 6.958
26.68000 10.097
26.70000 5.168
26.72000 -3.805
26.74000 5.212
26.76000 11.801
26.78000 8.785
26.80000 5.717
26.82000 11.667
26.84000 11.537
26.86000 11.993
26.88000 5.140
26.90000 5.019
26.92000 3.990
26.94000 5.500
26.96000 2.262
26.98000 3.007
27.00000 9.095
27.02000 12.627
27.04000 7.738
27.06000 5.360
27.08000 6.801
27.10000 4.851
27.12000 9.833
27.14000 0.545
27.16000 0.426
27.18000 5.547
27.20000 3.460
27.22000 5.305
27.24000 5.395
27.26000 2.866
27.28000 5.232
27.30000 11.110
27.32000 9.413
27.34000 4.851
27.36000 5.349
27.38000 3.102
27.40000 4.593
27.42000 6.720
27.44000 4.147
27.46000 3.182
27.48000 2.852
27.50000 2.413
27.52000 2.486
27.54000 0.125
27.56000 3.918
27.58000 -2.923
27.60000 -3.804
27.62000 -3.536
27.64000 -0.529
27.66000 -0.553
27.68000 -0.033
27.70000 10.956
27.72000 13.764
27.74000 4.479
27.76000 7.939
27.78000 7.179
27.80000 5.862
27.82000 4.650
27.84000 0.486
27.86000 0.029
27.88000 3.206
27.90000 5.191
27.92000 5.132
27.94000 2.991
27.96000 7.495
27.98000 3.694
28.00000 3.597
28.02000 -0.969
28.04000 6.574
28.06000 5.524
28.08000 9.201
28.10000 9.947
28.12000 2.554
28.14000 2.529
28.16000 7.541
28.18000 3.624
28.20000 -2.895
28.22000 -2.621
28.24000 1.382
28.26000 8.743
28.28000 1.809
28.30000 -2.946
28.32000 4.712
28.34000 8.231
28.36000 6.916
28.38000 4.237
28.40000 -0.315
28.42000 -1.907
28.44000 2.546
28.46000 2.547
28.48000 1.157
28.50000 2.452
28.52000 1.031
28.54000 0.692
28.56000 0.756
28.58000 -2.127
28.60000 0.369
28.62000 5.134
28.64000 4.018
28.66000 2.165
28.68000 2.396
28.70000 2.247
28.72000 0.890
28.74000 3.473
28.76000 2.039
28.78000 2.163
28.80000 -0.205
28.82000 4.515
28.84000 3.740
28.86000 5.137
28.88000 7.342
28.90000 2.316
28.92000 3.495
28.94000 2.391
28.96000 2.617
28.98000 6.839
29.00000 8.051
29.02000 4.699
29.04000 3.605
29.06000 3.039
29.08000 5.062
29.10000 2.362
29.12000 1.726
29.14000 9.941
29.16000 6.536
29.18000 6.388
29.20000 6.056
29.22000 6.515
29.24000 1.104
29.26000 -2.099
29.28000 1.933
29.30000 0.391
29.32000 -3.711
29.34000 -3.281
29.36000 -0.731
29.38000 6.074
29.40000 6.224
29.42000 1.377
29.44000 -2.149
29.46000 3.007
29.48000 4.293
29.50000 8.045
29.52000 9.412
29.54000 6.495
29.56000 7.988
29.58000 6.090
29.60000 3.074
29.62000 1.182
29.64000 7.780
29.66000 7.141
29.68000 4.582
29.70000 3.228
29.72000 2.869
29.74000 5.051
29.76000 3.025
29.78000 2.978
29.80000 7.779
29.82000 9.265
29.84000 3.686
29.86000 4.928
29.88000 1.809
29.90000 -0.742
29.92000 1.061
29.94000 3.267
29.96000 -2.127
29.98000 -1.515
30.00000 -0.542
30.02000 0.460
30.04000 1.738
30.06000 3.028
30.08000 3.102
30.10000 0.486
30.12000 1.885
30.14000 6.152
30.16000 3.751
30.18000 1.118
30.20000 6.228
30.22000 7.443
30.24000 3.001
30.26000 1.047
30.28000 -0.868
30.30000 -3.326
30.32000 -0.227
30.34000 5.504
30.36000 1.939
30.38000 -3.679
30.40000 1.001
30.42000 8.055
30.44000 6.961
30.46000 -0.237
30.48000 3.110
30.50000 1.549
30.52000 1.139
30.54000 2.290
30.56000 -0.109
30.58000 3.430
30.60000 1.892
30.62000 3.351
30.64000 4.580
30.66000 4.086
30.68000 0.938
30.70000 3.323
30.72000 0.159
30.74000 3.837
30.76000 6.292
30.78000 1.084
30.80000 2.523
30.82000 0.209
30.84000 1.687
30.86000 5.650
30.88000 1.735
30.90000 0.438
30.92000 2.524
30.94000 7.299
30.96000 3.674
30.98000 -3.559
31.00000 -3.644
31.02000 0.774
31.04000 3.870
31.06000 3.993
31.08000 1.109
31.10000 5.099
31.12000 4.407
31.14000 1.178
31.16000 0.389
31.18000 1.371
31.20000 6.592
31.22000 7.431
31.24000 4.739
31.26000 4.876
31.28000 0.222
31.30000 1.351
31.32000 3.393
31.34000 5.185
31.36000 2.907
31.38000 1.771
31.40000 5.100
31.42000 -0.749
31.44000 -0.515
31.46000 3.936
31.48000 2.062
31.50000 0.326
31.52000 1.689
31.54000 1.221
31.56000 2.712
31.58000 4.884
31.60000 6.315
31.62000 0.587
31.64000 0.333
31.66000 5.397
31.68000 0.795
31.70000 0.599
31.72000 2.300
31.74000 7.108
31.76000 4.912
31.78000 4.869
31.80000 2.467
31.82000 2.754
31.84000 9.226
31.86000 2.999
31.88000 -1.610
31.90000 2.104
31.92000 5.417
31.94000 -0.577
31.96000 0.788
31.98000 -0.918
32.00000 3.829
32.02000 6.121
32.04000 4.335
32.06000 1.095
32.08000 5.295
32.10000 0.984
32.12000 4.163
32.14000 5.293
32.16000 5.289
32.18000 6.047
32.20000 4.778
32.22000 6.183
32.24000 7.700
32.26000 3.819
32.28000 7.262
32.30000 2.986
32.32000 6.607
32.34000 8.943
32.36000 3.628
32.38000 -0.090
32.40000 -0.030
32.42000 1.544
32.44000 4.621
32.46000 2.915
32.48000 0.171
32.50000 6.046
32.52000 4.349
32.54000 6.988
32.56000 6.496
32.58000 3.502
32.60000 10.758
32.62000 10.424
32.64000 6.890
32.66000 2.267
32.68000 -1.693
32.70000 -3.535
32.72000 3.752
32.74000 10.211
32.76000 8.382
32.78000 4.875
32.80000 2.794
32.82000 4.849
32.84000 9.906
32.86000 8.415
32.88000 7.139
32.90000 8.220
32.92000 9.689
32.94000 4.402
32.96000 -0.092
32.98000 6.920
33.00000 5.331
33.02000 3.847
33.04000 7.152
33.06000 7.340
33.08000 7.271
33.10000 4.586
33.12000 3.250
33.14000 -2.024
33.16000 -2.567
33.18000 1.709
33.20000 1.503
33.22000 2.912
33.24000 4.525
33.26000 2.932
33.28000 2.501
33.30000 2.852
33.32000 1.672
33.34000 4.180
33.36000 7.063
33.38000 6.453
33.40000 2.342
33.42000 -2.956
33.44000 2.975
33.46000 5.907
33.48000 6.916
33.50000 6.419
33.52000 5.947
33.54000 3.975
33.56000 -0.163
33.58000 0.624
33.60000 2.359
33.62000 3.372
33.64000 7.375
33.66000 6.956
33.68000 6.736
33.70000 5.425
33.72000 0.229
33.74000 4.912
33.76000 5.740
33.78000 6.717
33.80000 6.697
33.82000 2.260
33.84000 5.052
33.86000 6.772
33.88000 7.131
33.90000 2.508
33.92000 1.849
33.94000 5.048
33.96000 5.671
33.98000 6.315
34.00000 5.622
34.02000 6.451
34.04000 9.061
34.06000 7.572
34.08000 4.646
34.10000 3.341
34.12000 6.293
34.14000 4.963
34.16000 3.552
34.18000 2.462
34.20000 -0.509
34.22000 4.777
34.24000 2.404
34.26000 2.389
34.28000 -1.574
34.30000 0.498
34.32000 0.460
34.34000 2.008
34.36000 1.592
34.38000 6.857
34.40000 6.589
34.42000 2.210
34.44000 4.053
34.46000 6.863
34.48000 8.220
34.50000 2.330
34.52000 3.267
34.54000 6.544
34.56000 7.998
34.58000 7.370
34.60000 3.375
34.62000 3.650
34.64000 3.979
34.66000 5.479
34.68000 5.096
34.70000 3.302
34.72000 1.616
34.74000 1.479
34.76000 -1.212
34.78000 -0.639
34.80000 4.125
34.82000 7.689
34.84000 7.597
34.86000 7.709
34.88000 4.618
34.90000 7.518
34.92000 1.974
34.94000 3.159
34.96000 5.997
34.98000 0.514
35.00000 1.844
35.02000 0.958
35.04000 4.663
35.06000 7.209
35.08000 6.733
35.10000 5.742
35.12000 5.229
35.14000 2.106
35.16000 -1.486
35.18000 0.902
35.20000 5.420
35.22000 1.031
35.24000 -3.487
35.26000 4.752
35.28000 3.786
35.30000 5.583
35.32000 8.149
35.34000 3.415
35.36000 4.120
35.38000 3.694
35.40000 5.059
35.42000 1.024
35.44000 -0.743
35.46000 4.211
35.48000 -0.329
35.50000 4.774
35.52000 4.570
35.54000 5.303
35.56000 9.452
35.58000 3.095
35.60000 4.478
35.62000 5.276
35.64000 3.227
35.66000 0.939
35.68000 2.267
35.70000 3.792
35.72000 2.230
35.74000 7.784
35.76000 8.681
35.78000 3.750
35.80000 1.762
35.82000 2.651
35.84000 0.552
35.86000 7.473
35.88000 9.068
35.90000 6.727
35.92000 4.478
35.94000 6.458
35.96000 1.760
35.98000 -3.513
36.00000 1.959
36.02000 2.102
36.04000 -2.075
36.06000 0.421
36.08000 -1.782
36.10000 -0.418
36.12000 3.771
36.14000 0.847
36.16000 -1.727
36.18000 -2.657
36.20000 2.579
36.22000 4.950
36.24000 3.604
36.26000 4.867
36.28000 6.245
36.30000 2.088
36.32000 1.820
36.34000 3.660
36.36000 3.027
36.38000 1.730
36.40000 3.171
36.42000 2.357
36.44000 0.463
36.46000 3.668
36.48000 2.525
36.50000 -0.341
36.52000 0.771
36.54000 8.000
36.56000 10.413
36.58000 4.792
36.60000 1.175
36.62000 2.766
36.64000 0.864
36.66000 0.400
36.68000 0.220
36.70000 -1.022
36.72000 2.036
36.74000 4.563
36.76000 1.033
36.78000 1.336
36.80000 5.001
36.82000 5.312
36.84000 7.818
36.86000 3.755
36.88000 4.155
36.90000 1.012
36.92000 -0.411
36.94000 1.814
36.96000 -1.794
36.98000 -0.011
37.00000 4.887
37.02000 2.030
37.04000 1.722
37.06000 3.426
37.08000 5.620
37.10000 7.300
37.12000 3.348
37.14000 1.226
37.16000 5.442
37.18000 5.340
37.20000 -3.548
37.22000 -1.582
37.24000 6.947
37.26000 6.794
37.28000 4.071
37.30000 1.471
37.32000 1.775
37.34000 4.027
37.36000 1.597
37.38000 -0.327
37.40000 6.219
37.42000 5.730
37.44000 8.713
37.46000 3.886
37.48000 -3.578
37.50000 0.981
37.52000 3.289
37.54000 7.570
37.56000 6.817
37.58000 2.302
37.60000 4.830
37.62000 4.589
37.64000 5.221
37.66000 3.187
37.68000 6.219
37.70000 8.512
37.72000 8.375
37.74000 5.236
37.76000 6.326
37.78000 11.348
37.80000 10.000
37.82000 7.163
37.84000 5.482
37.86000 6.151
37.88000 10.135
37.90000 8.409
37.92000 7.477
37.94000 11.482
37.96000 13.917
37.98000 9.995
38.00000 7.273
38.02000 10.728
38.04000 13.390
38.06000 13.853
38.08000 10.176
38.10000 7.815
38.12000 14.505
38.14000 19.712
38.16000 17.715
38.18000 11.891
38.20000 15.614
38.22000 12.951
38.24000 17.301
38.26000 17.818
38.28000 15.722
38.30000 17.967
38.32000 16.379
38.34000 19.508
38.36000 21.866
38.38000 22.127
38.40000 18.982
38.42000 17.055
38.44000 22.997
38.46000 19.710
38.48000 17.941
38.50000 21.087
38.52000 24.020
38.54000 22.106
38.56000 24.987
38.58000 27.307
38.60000 21.827
38.62000 25.285
38.64000 24.144
38.66000 29.394
38.68000 27.421
38.70000 23.641
38.72000 25.694
38.74000 31.312
38.76000 32.269
38.78000 34.938
38.80000 40.115
38.82000 39.497
38.84000 34.843
38.86000 38.045
38.88000 44.581
38.90000 44.560
38.92000 42.634
38.94000 45.673
38.96000 42.250
38.98000 46.185
39.00000 50.369
39.02000 46.557
39.04000 52.617
39.06000 55.629
39.08000 59.179
39.10000 62.124
39.12000 68.526
39.14000 69.247
39.16000 76.301
39.18000 73.175
39.20000 75.680
39.22000 73.445
39.24000 78.432
39.26000 84.169
39.28000 85.440
39.30000 90.788
39.32000 99.505
39.34000 99.732
39.36000 96.849
39.38000 102.039
39.40000 112.616
39.42000 120.949
39.44000 128.695
39.46000 130.742
39.48000 140.962
39.50000 148.385
39.52000 155.298
39.54000 165.236
39.56000 174.956
39.58000 183.432
39.60000 185.950
39.62000 189.527
39.64000 196.573
39.66000 210.610
39.68000 228.984
39.70000 244.939
39.72000 256.736
39.74000 267.402
39.76000 284.056
39.78000 295.893
39.80000 308.127
39.82000 322.414
39.84000 342.528
39.86000 362.308
39.88000 381.765
39.90000 406.485
39.92000 423.573
39.94000 442.361
39.96000 459.146
39.98000 490.634
40.00000 512.337
40.02000 521.334
40.04000 538.509
40.06000 560.380
40.08000 569.717
40.10000 599.041
40.12000 608.267
40.14000 618.665
40.16000 629.591
40.18000 633.625
40.20000 652.398
40.22000 660.885
40.24000 671.527
40.26000 679.148
40.28000 669.132
40.30000 658.780
40.32000 655.451
40.34000 648.361
40.36000 641.112
40.38000 639.629
40.40000 630.625
40.42000 620.479
40.44000 598.243
40.46000 579.611
40.48000 560.212
40.50000 545.711
40.52000 532.307
40.54000 513.007
40.56000 504.727
40.58000 483.568
40.60000 464.110
40.62000 450.120
40.64000 431.986
40.66000 420.255
40.68000 393.440
40.70000 369.349
40.72000 352.888
40.74000 338.197
40.76000 318.702
40.78000 307.260
40.80000 287.017
40.82000 268.712
40.84000 258.416
40.86000 246.205
40.88000 240.797
40.90000 228.644
40.92000 207.272
40.94000 198.833
40.96000 187.295
40.98000 178.393
41.00000 170.752
41.02000 158.495
41.04000 151.986
41.06000 142.630
41.08000 135.119
41.10000 128.499
41.12000 123.246
41.14000 109.224
41.16000 109.296
41.18000 101.629
41.20000 102.195
41.22000 98.826
41.24000 89.738
41.26000 84.395
41.28000 74.060
41.30000 70.679
41.32000 71.715
41.34000 71.267
41.36000 66.747
41.38000 63.648
41.40000 59.918
41.42000 57.940
41.44000 53.026
41.46000 46.793
41.48000 44.019
41.50000 42.335
41.52000 43.910
41.54000 43.705
41.56000 41.121
41.58000 37.075
41.60000 35.184
41.62000 27.776
41.64000 28.891
41.66000 29.651
41.68000 29.449
41.70000 28.503
41.72000 25.486
41.74000 29.232
41.76000 23.047
41.78000 23.212
41.80000 21.951
41.82000 19.538
41.84000 19.939
41.86000 19.585
41.88000 18.295
41.90000 18.775
41.92000 17.953
41.94000 14.171
41.96000 14.087
41.98000 13.904
42.00000 12.638
42.02000 12.899
42.04000 12.185
42.06000 14.560
42.08000 13.119
42.10000 9.154
42.12000 9.428
42.14000 16.214
42.16000 15.231
42.18000 9.336
42.20000 4.077
42.22000 8.291
42.24000 10.046
42.26000 8.960
42.28000 7.718
42.30000 7.391
42.32000 4.378
42.34000 4.907
42.36000 1.727
42.38000 0.298
42.40000 6.396
42.42000 6.818
42.44000 6.072
42.46000 3.818
42.48000 2.104
42.50000 3.009
42.52000 3.962
42.54000 2.523
42.56000 -0.730
42.58000 -2.084
42.60000 -1.112
42.62000 -0.323
42.64000 3.128
42.66000 2.274
42.68000 0.408
42.70000 2.707
42.72000 0.886
42.74000 -0.391
42.76000 -2.003
42.78000 3.800
42.80000 3.905
42.82000 3.947
42.84000 4.213
42.86000 -0.472
42.88000 0.141
42.90000 1.478
42.92000 0.170
42.94000 2.729
42.96000 1.477
42.98000 1.793
43.00000 0.628
43.02000 2.029
43.04000 1.434
43.06000 0.899
43.08000 0.590
43.10000 -0.062
43.12000 1.482
43.14000 -0.043
43.16000 2.190
43.18000 1.779
43.20000 2.650
43.22000 3.828
43.24000 5.417
43.26000 6.151
43.28000 5.647
43.30000 5.531
43.32000 5.151
43.34000 2.576
43.36000 -0.290
43.38000 -0.740
43.40000 1.478
43.42000 4.809
43.44000 7.573
43.46000 6.116
43.48000 3.541
43.50000 -3.216
43.52000 -0.524
43.54000 -2.602
43.56000 -3.324
43.58000 -3.370
43.60000 -0.185
43.62000 6.931
43.64000 1.801
43.66000 4.142
43.68000 5.597
43.70000 5.125
43.72000 1.722
43.74000 -0.116
43.76000 0.484
43.78000 5.778
43.80000 4.371
43.82000 0.374
43.84000 2.599
43.86000 2.243
43.88000 1.204
43.90000 2.353
43.92000 1.545
43.94000 2.292
43.96000 6.608
43.98000 5.156
44.00000 0.280
44.02000 -1.128
44.04000 -2.225
44.06000 -0.013
44.08000 1.185
44.10000 2.058
44.12000 -0.231
44.14000 2.682
44.16000 1.234
44.18000 -0.629
44.20000 -0.039
44.22000 -0.626
44.24000 3.498
44.26000 2.486
44.28000 -2.324
44.30000 -0.669
44.32000 3.728
44.34000 3.372
44.36000 0.634
44.38000 0.227
44.40000 -0.167
44.42000 1.049
44.44000 4.510
44.46000 1.900
44.48000 1.271
44.50000 1.180
44.52000 2.788
44.54000 2.640
44.56000 -0.811
44.58000 1.109
44.60000 3.832
44.62000 6.936
44.64000 5.140
44.66000 -3.336
44.68000 1.947
44.70000 5.076
44.72000 0.738
44.74000 1.465
44.76000 0.248
44.78000 2.288
44.80000 4.382
44.82000 4.488
44.84000 2.303
44.86000 2.326
44.88000 6.694
44.90000 7.448
44.92000 4.612
44.94000 1.694
44.96000 5.666
44.98000 6.983
45.00000 6.090
45.02000 4.208
45.04000 3.964
45.06000 4.681
45.08000 10.700
45.10000 9.214
45.12000 4.624
45.14000 8.390
45.16000 5.452
45.18000 6.301
45.20000 7.443
45.22000 4.878
45.24000 12.106
45.26000 7.933
45.28000 8.691
45.30000 9.272
45.32000 9.486
45.34000 9.541
45.36000 8.213
45.38000 9.080
45.40000 9.489
45.42000 5.820
45.44000 12.084
45.46000 13.809
45.48000 15.937
45.50000 11.326
45.52000 10.719
45.54000 14.039
45.56000 14.782
45.58000 18.089
45.60000 18.688
45.62000 22.644
45.64000 24.347
45.66000 25.515
45.68000 24.285
45.70000 21.928
45.72000 20.782
45.74000 25.647
45.76000 28.880
45.78000 27.190
45.80000 31.929
45.82000 32.774
45.84000 31.228
45.86000 30.764
45.88000 31.354
45.90000 33.326
45.92000 34.798
45.94000 39.129
45.96000 43.023
45.98000 42.649
46.00000 42.780
46.02000 45.369
46.04000 41.703
46.06000 43.581
46.08000 46.466
46.10000 50.500
46.12000 54.307
46.14000 55.102
46.16000 54.709
46.18000 57.936
46.20000 60.374
46.22000 63.478
46.24000 67.474
46.26000 68.178
46.28000 69.850
46.30000 70.573
46.32000 74.311
46.34000 74.986
46.36000 77.924
46.38000 74.937
46.40000 78.971
46.42000 76.379
46.44000 84.989
46.46000 88.618
46.48000 92.382
46.50000 89.290
46.52000 91.140
46.54000 93.207
46.56000 95.506
46.58000 103.112
46.60000 98.728
46.62000 106.997
46.64000 103.833
46.66000 109.010
46.68000 116.565
46.70000 116.720
46.72000 110.846
46.74000 113.606
46.76000 117.946
46.78000 124.929
46.80000 126.643
46.82000 128.225
46.84000 130.597
46.86000 126.310
46.88000 126.422
46.90000 120.304
46.92000 127.559
46.94000 133.297
46.96000 124.496
46.98000 123.919
47.00000 125.992
47.02000 123.509
47.04000 121.237
47.06000 123.971
47.08000 126.203
47.10000 126.155
47.12000 112.836
47.14000 109.991
47.16000 108.212
47.18000 106.030
47.20000 108.135
47.22000 107.540
47.24000 104.420
47.26000 97.117
47.28000 96.287
47.30000 91.715
47.32000 92.530
47.34000 85.914
47.36000 85.714
47.38000 83.641
47.40000 87.301
47.42000 79.755
47.44000 71.457
47.46000 69.728
47.48000 69.182
47.50000 67.257
47.52000 66.303
47.54000 64.432
47.56000 55.482
47.58000 55.382
47.60000 55.340
47.62000 54.735
47.64000 53.637
47.66000 43.701
47.68000 40.682
47.70000 40.779
47.72000 41.043
47.74000 41.135
47.76000 40.318
47.78000 35.471
47.80000 36.634
47.82000 32.084
47.84000 31.684
47.86000 32.844
47.88000 31.124
47.90000 30.402
47.92000 26.896
47.94000 26.324
47.96000 23.336
47.98000 18.655
48.00000 22.798
48.02000 18.344
48.04000 18.241
48.06000 14.886
48.08000 16.565
48.10000 17.655
48.12000 14.423
48.14000 13.235
48.16000 13.395
48.18000 8.644
48.20000 9.250
48.22000 10.697
48.24000 5.033
48.26000 10.252
48.28000 10.823
48.30000 7.471
48.32000 3.585
48.34000 1.431
48.36000 4.962
48.38000 4.636
48.40000 4.545
48.42000 5.944
48.44000 1.846
48.46000 9.187
48.48000 8.815
48.50000 -0.141
48.52000 3.236
48.54000 4.139
48.56000 2.419
48.58000 2.977
48.60000 3.416
48.62000 4.147
48.64000 -1.319
48.66000 -0.803
48.68000 1.571
48.70000 1.515
48.72000 1.766
48.74000 1.959
48.76000 3.863
48.78000 3.246
48.80000 -0.192
48.82000 -2.960
48.84000 -2.391
48.86000 1.681
48.88000 3.822
48.90000 3.157
48.92000 0.729
48.94000 4.429
48.96000 4.316
48.98000 0.770
49.00000 3.497
49.02000 2.903
49.04000 -0.717
49.06000 0.908
49.08000 3.471
49.10000 3.918
49.12000 5.246
49.14000 1.622
49.16000 0.674
49.18000 1.365
49.20000 -2.694
49.22000 -2.889
49.24000 -0.670
49.26000 2.893
49.28000 4.702
49.30000 7.197
49.32000 4.273
49.34000 -0.760
49.36000 1.687
49.38000 5.105
49.40000 5.022
49.42000 -2.012
49.44000 -2.019
49.46000 4.111
49.48000 3.223
49.50000 1.119
49.52000 -0.419
49.54000 -2.782
49.56000 4.218
49.58000 3.560
49.60000 2.896
49.62000 1.205
49.64000 1.459
49.66000 -0.804
49.68000 -2.853
49.70000 1.139
49.72000 4.055
49.74000 3.071
49.76000 -0.166
49.78000 2.255
49.80000 3.713
49.82000 4.550
49.84000 1.062
49.86000 -1.989
49.88000 -1.675
49.90000 0.639
49.92000 0.970
49.94000 2.131
49.96000 -1.076
49.98000 -0.043
50.00000 -1.623
50.02000 0.646
50.04000 -0.109
50.06000 0.752
50.08000 -2.002
50.10000 -2.726
50.12000 -0.390
50.14000 0.467
50.16000 -1.343
50.18000 0.705
50.20000 0.162
50.22000 0.968
50.24000 0.491
50.26000 0.652
50.28000 1.070
50.30000 -2.064
50.32000 1.308
50.34000 3.573
50.36000 2.149
50.38000 0.343
50.40000 -2.768
50.42000 -2.759
50.44000 -1.317
50.46000 2.542
50.48000 3.135
50.50000 0.804
50.52000 7.196
50.54000 3.694
50.56000 2.490
50.58000 1.782
50.60000 -0.530
50.62000 0.681
50.64000 1.195
50.66000 -0.957
50.68000 -0.589
50.70000 3.595
50.72000 4.367
50.74000 4.986
50.76000 8.608
50.78000 6.409
50.80000 3.503
50.82000 3.220
50.84000 5.139
50.86000 4.553
50.88000 6.483
50.90000 3.432
50.92000 4.309
50.94000 5.693
50.96000 3.888
50.98000 5.311
51.00000 2.061
51.02000 -2.721
51.04000 0.696
51.06000 3.741
51.08000 0.740
51.10000 4.964
51.12000 6.615
51.14000 2.846
51.16000 2.693
51.18000 2.460
51.20000 0.523
51.22000 1.667
51.24000 2.837
51.26000 3.301
51.28000 6.042
51.30000 5.921
51.32000 8.082
51.34000 1.899
51.36000 0.114
51.38000 3.475
51.40000 -0.679
51.42000 -0.004
51.44000 -2.698
51.46000 3.302
51.48000 10.950
51.50000 5.231
51.52000 4.671
51.54000 4.869
51.56000 3.321
51.58000 8.160
51.60000 2.294
51.62000 -1.449
51.64000 3.662
51.66000 6.671
51.68000 6.865
51.70000 4.176
51.72000 1.340
51.74000 -0.188
51.76000 -2.685
51.78000 4.754
51.80000 6.216
51.82000 7.124
51.84000 4.648
51.86000 3.258
51.88000 5.881
51.90000 6.300
51.92000 7.001
51.94000 4.305
51.96000 2.452
51.98000 1.788
52.00000 3.921
52.02000 4.766
52.04000 4.832
52.06000 1.565
52.08000 4.761
52.10000 2.032
52.12000 5.779
52.14000 6.292
52.16000 6.357
52.18000 5.308
52.20000 9.181
52.22000 5.290
52.24000 6.264
52.26000 0.125
52.28000 -0.799
52.30000 2.235
52.32000 5.055
52.34000 1.006
52.36000 2.260
52.38000 10.363
52.40000 5.759
52.42000 -2.652
52.44000 2.603
52.46000 2.551
52.48000 4.479
52.50000 2.537
52.52000 6.382
52.54000 5.472
52.56000 1.602
52.58000 6.588
52.60000 2.579
52.62000 -1.086
52.64000 -1.681
52.66000 1.699
52.68000 5.261
52.70000 4.838
52.72000 1.302
52.74000 2.749
52.76000 4.517
52.78000 3.037
52.80000 -1.353
52.82000 -1.349
52.84000 0.712
52.86000 5.881
52.88000 2.654
52.90000 3.467
52.92000 5.150
52.94000 5.019
52.96000 1.528
52.98000 0.125
53.00000 -1.067
53.02000 0.868
53.04000 7.295
53.06000 0.339
53.08000 3.451
53.10000 1.377
53.12000 -2.647
53.14000 -1.969
53.16000 0.435
53.18000 2.859
53.20000 -1.381
53.22000 -1.840
53.24000 -1.385
53.26000 -0.678
53.28000 -0.149
53.30000 3.770
53.32000 2.983
53.34000 2.980
53.36000 4.631
53.38000 6.682
53.40000 6.911
53.42000 2.350
53.44000 2.320
53.46000 3.385
53.48000 4.449
53.50000 3.451
53.52000 0.966
53.54000 6.279
53.56000 7.616
53.58000 1.522
53.60000 -1.593
53.62000 -1.680
53.64000 2.652
53.66000 4.511
53.68000 5.555
53.70000 3.110
53.72000 1.520
53.74000 3.948
53.76000 -0.510
53.78000 -1.473
53.80000 -2.645
53.82000 1.307
53.84000 3.289
53.86000 2.171
53.88000 -0.182
53.90000 0.529
53.92000 3.408
53.94000 1.469
53.96000 1.381
53.98000 -0.037
54.00000 -2.639
54.02000 -1.571
54.04000 2.786
54.06000 2.276
54.08000 1.124
54.10000 3.855
54.12000 2.323
54.14000 3.460
54.16000 5.761
54.18000 0.489
54.20000 -1.087
54.22000 4.438
54.24000 3.622
54.26000 1.558
54.28000 2.784
54.30000 -1.754
54.32000 1.933
54.34000 0.855
54.36000 1.536
54.38000 2.368
54.40000 2.915
54.42000 4.286
54.44000 4.163
54.46000 0.581
54.48000 -2.627
54.50000 1.078
54.52000 2.256
54.54000 3.208
54.56000 7.726
54.58000 0.326
54.60000 -0.883
54.62000 -1.967
54.64000 0.861
54.66000 3.044
54.68000 3.767
54.70000 4.005
54.72000 6.459
54.74000 7.471
54.76000 4.780
54.78000 0.426
54.80000 3.188
54.82000 3.952
54.84000 2.563
54.86000 1.406
54.88000 -2.608
54.90000 0.824
54.92000 1.816
54.94000 2.847
54.96000 1.084
54.98000 3.856
55.00000 3.897
55.02000 2.104
55.04000 1.178
55.06000 3.222
55.08000 2.645
55.10000 3.436
55.12000 4.422
55.14000 2.002
55.16000 -2.254
55.18000 1.731
55.20000 4.757
55.22000 5.486
55.24000 4.274
55.26000 3.398
55.28000 3.228
55.30000 1.245
55.32000 2.071
55.34000 4.028
55.36000 -1.023
55.38000 0.281
55.40000 3.011
55.42000 -2.195
55.44000 0.523
55.46000 0.062
55.48000 1.945
55.50000 2.110
55.52000 7.373
55.54000 3.611
55.56000 2.130
55.58000 0.852
55.60000 0.246
55.62000 -2.589
55.64000 0.678
55.66000 2.263
55.68000 3.465
55.70000 6.248
55.72000 7.463
55.74000 2.874
55.76000 -1.473
55.78000 1.517
55.80000 4.320
55.82000 4.043
55.84000 6.454
55.86000 4.663
55.88000 6.490
55.90000 6.301
55.92000 2.400
55.94000 1.444
55.96000 4.087
55.98000 4.066
56.00000 -0.293
56.02000 -1.804
56.04000 -1.374
56.06000 -0.135
56.08000 -0.620
56.10000 1.189
56.12000 2.561
56.14000 4.862
56.16000 4.704
56.18000 2.374
56.20000 -1.130
56.22000 0.677
56.24000 1.468
56.26000 -0.927
56.28000 5.764
56.30000 3.917
56.32000 4.050
56.34000 1.034
56.36000 -1.580
56.38000 -1.177
56.40000 0.904
56.42000 -0.151
56.44000 0.556
56.46000 2.915
56.48000 4.981
56.50000 4.503
56.52000 5.842
56.54000 1.562
56.56000 -1.441
56.58000 0.475
56.60000 1.995
56.62000 1.049
56.64000 2.987
56.66000 2.761
56.68000 -0.809
56.70000 -1.313
56.72000 -0.327
56.74000 -0.641
56.76000 3.205
56.78000 6.257
56.80000 8.052
56.82000 3.689
56.84000 0.087
56.86000 -0.410
56.88000 4.382
56.90000 1.496
56.92000 4.923
56.94000 4.295
56.96000 4.229
56.98000 1.946
57.00000 1.304
57.02000 2.134
57.04000 2.589
57.06000 4.982
57.08000 6.657
57.10000 -0.211
57.12000 0.619
57.14000 4.166
57.16000 6.676
57.18000 4.579
57.20000 6.448
57.22000 7.989
57.24000 4.154
57.26000 2.726
57.28000 2.181
57.30000 -0.296
57.32000 -2.499
57.34000 3.463
57.36000 3.365
57.38000 3.441
57.40000 5.452
57.42000 5.508
57.44000 1.209
57.46000 1.387
57.48000 -0.747
57.50000 1.512
57.52000 0.680
57.54000 5.031
57.56000 3.841
57.58000 6.936
57.60000 6.668
57.62000 5.600
57.64000 1.254
57.66000 2.153
57.68000 3.726
57.70000 5.550
57.72000 3.209
57.74000 3.221
57.76000 6.230
57.78000 4.798
57.80000 3.030
57.82000 0.215
57.84000 -0.024
57.86000 0.868
57.88000 4.458
57.90000 1.618
57.92000 4.355
57.94000 8.201
57.96000 3.496
57.98000 1.539
58.00000 -1.145
58.02000 3.477
58.04000 9.396
58.06000 5.714
58.08000 -0.112
58.10000 1.502
58.12000 2.517
58.14000 0.846
58.16000 3.228
58.18000 4.347
58.20000 1.301
58.22000 2.936
58.24000 -1.488
58.26000 1.278
58.28000 1.968
58.30000 0.113
58.32000 0.740
58.34000 2.863
58.36000 2.205
58.38000 -0.308
58.40000 1.028
58.42000 0.271
58.44000 0.413
58.46000 -0.159
58.48000 0.507
58.50000 3.355
58.52000 2.721
58.54000 -0.703
58.56000 -1.146
58.58000 6.291
58.60000 6.977
58.62000 4.809
58.64000 5.746
58.66000 -0.147
58.68000 0.515
58.70000 2.126
58.72000 4.975
58.74000 2.377
58.76000 0.489
58.78000 2.860
58.80000 1.693
58.82000 -2.322
58.84000 0.514
58.86000 -0.445
58.88000 -0.641
58.90000 0.918
58.92000 0.923
58.94000 0.515
58.96000 1.519
58.98000 3.946
59.00000 2.533
59.02000 2.819
59.04000 3.863
59.06000 0.469
59.08000 4.023
59.10000 6.679
59.12000 6.568
59.14000 4.990
59.16000 3.090
59.18000 1.632
59.20000 1.215
59.22000 1.410
59.24000 0.620
59.26000 -1.143
59.28000 0.010
59.30000 1.609
59.32000 4.430
59.34000 5.143
59.36000 2.378
59.38000 4.082
59.40000 2.802
59.42000 -2.462
59.44000 -1.399
59.46000 0.870
59.48000 -0.649
59.50000 -2.456
59.52000 1.792
59.54000 3.025
59.56000 1.008
59.58000 3.728
59.60000 3.146
59.62000 8.122
59.64000 5.863
59.66000 3.697
59.68000 2.050
59.70000 4.567
59.72000 4.033
59.74000 2.765
59.76000 3.717
59.78000 0.206
59.80000 3.039
59.82000 1.690
59.84000 -0.695
59.86000 -1.352
59.88000 -0.179
59.90000 2.688
59.92000 0.744
59.94000 1.888
59.96000 3.585
59.98000 4.528
60.00000 4.351
60.02000 7.031
60.04000 5.609
60.06000 -2.470
60.08000 -1.179
60.10000 2.131
60.12000 0.962
60.14000 2.228
60.16000 4.168
60.18000 3.191
60.20000 -0.219
60.22000 0.636
60.24000 1.872
60.26000 -1.862
60.28000 -1.413
60.30000 -1.367
60.32000 -0.599
60.34000 -0.492
60.36000 -0.364
60.38000 1.290
60.40000 4.046
60.42000 2.227
60.44000 0.513
60.46000 -1.549
60.48000 -1.136
60.50000 2.090
60.52000 -0.331
60.54000 6.832
60.56000 6.832
60.58000 2.370
60.60000 0.395
60.62000 0.806
60.64000 4.179
60.66000 4.915
60.68000 0.661
60.70000 -0.074
60.72000 -0.435
60.74000 -0.214
60.76000 1.407
60.78000 3.587
60.80000 2.868
60.82000 2.525
60.84000 1.730
60.86000 3.080
60.88000 2.645
60.90000 2.396
60.92000 0.542
60.94000 -0.866
60.96000 -2.445
60.98000 -1.250
61.00000 -2.338
61.02000 2.961
61.04000 5.451
61.06000 1.447
61.08000 1.361
61.10000 6.363
61.12000 6.685
61.14000 6.530
61.16000 4.076
61.18000 2.637
61.20000 4.296
61.22000 3.206
61.24000 2.252
61.26000 4.183
61.28000 1.312
61.30000 0.249
61.32000 0.448
61.34000 2.551
61.36000 0.224
61.38000 2.027
61.40000 1.705
61.42000 1.559
61.44000 -2.069
61.46000 -1.358
61.48000 0.063
61.50000 -0.235
61.52000 3.279
61.54000 4.731
61.56000 2.786
61.58000 -0.009
61.60000 1.477
61.62000 0.519
61.64000 1.384
61.66000 -1.153
61.68000 -0.368
61.70000 -1.652
61.72000 1.677
61.74000 3.505
61.76000 2.063
61.78000 3.301
61.80000 3.346
61.82000 -1.958
61.84000 -2.418
61.86000 -2.139
61.88000 -2.048
61.90000 -0.692
61.92000 2.541
61.94000 1.943
61.96000 2.397
61.98000 5.792
62.00000 1.336
62.02000 5.010
62.04000 2.249
62.06000 4.528
62.08000 3.230
62.10000 1.288
62.12000 1.522
62.14000 1.880
62.16000 -2.402
62.18000 -0.717
62.20000 -0.498
62.22000 0.403
62.24000 -1.152
62.26000 3.550
62.28000 6.989
62.30000 6.613
62.32000 0.579
62.34000 -0.592
62.36000 0.308
62.38000 1.216
62.40000 4.457
62.42000 1.594
62.44000 -2.395
62.46000 1.791
62.48000 4.686
62.50000 2.810
62.52000 3.367
62.54000 3.509
62.56000 2.901
62.58000 -0.349
62.60000 1.294
62.62000 2.615
62.64000 5.728
62.66000 4.996
62.68000 2.843
62.70000 0.450
62.72000 -0.154
62.74000 3.092
62.76000 4.930
62.78000 2.394
62.80000 1.792
62.82000 1.403
62.84000 0.879
62.86000 1.530
62.88000 1.819
62.90000 5.636
62.92000 6.706
62.94000 5.476
62.96000 4.510
62.98000 1.787
63.00000 1.444
63.02000 -1.584
63.04000 1.532
63.06000 2.939
63.08000 5.377
63.10000 1.499
63.12000 2.500
63.14000 5.631
63.16000 -0.209
63.18000 -0.600
63.20000 2.318
63.22000 3.302
63.24000 1.285
63.26000 0.763
63.28000 0.674
63.30000 -2.371
63.32000 0.626
63.34000 1.696
63.36000 2.490
63.38000 1.934
63.40000 1.876
63.42000 3.660
63.44000 4.499
63.46000 3.642
63.48000 1.847
63.50000 2.712
63.52000 1.132
63.54000 1.422
63.56000 1.031
63.58000 3.032
63.60000 2.196
63.62000 2.081
63.64000 5.017
63.66000 4.428
63.68000 5.716
63.70000 3.104
63.72000 3.176
63.74000 2.673
63.76000 1.730
63.78000 3.306
63.80000 2.315
63.82000 3.517
63.84000 2.734
63.86000 0.367
63.88000 0.707
63.90000 1.907
63.92000 1.851
63.94000 1.300
63.96000 -2.406
63.98000 0.026
64.00000 2.317
64.02000 4.623
64.04000 0.513
64.06000 -0.190
64.08000 -0.489
64.10000 2.811
64.12000 3.158
64.14000 3.298
64.16000 -0.116
64.18000 -1.648
64.20000 -1.475
64.22000 1.727
64.24000 -0.337
64.26000 -1.977
64.28000 -2.168
64.30000 -2.367
64.32000 -0.052
64.34000 3.086
64.36000 2.770
64.38000 -0.465
64.40000 0.986
64.42000 0.800
64.44000 2.006
64.46000 3.599
64.48000 4.355
64.50000 -1.458
64.52000 -0.799
64.54000 -0.722
64.56000 0.685
64.58000 0.360
64.60000 -0.853
64.62000 -1.478
64.64000 -2.184
64.66000 1.719
64.68000 1.956
64.70000 -1.289
64.72000 -2.068
64.74000 0.536
64.76000 -0.626
64.78000 1.853
64.80000 0.689
64.82000 2.287
64.84000 4.307
64.86000 1.528
64.88000 -2.438
64.90000 -0.051
64.92000 0.156
64.94000 2.523
64.96000 5.597
64.98000 2.359
65.00000 -0.294
65.02000 0.239
65.04000 -0.568
65.06000 0.130
65.08000 -0.202
65.10000 1.527
65.12000 -0.544
65.14000 -2.437
65.16000 0.556
65.18000 -0.149
65.20000 -0.179
65.22000 -0.204
65.24000 2.784
65.26000 2.191
65.28000 -2.095
65.30000 0.215
65.32000 -1.319
65.34000 1.187
65.36000 -0.662
65.38000 -0.763
65.40000 -0.756
65.42000 2.323
65.44000 1.786
65.46000 3.781
65.48000 3.307
65.50000 1.909
65.52000 1.067
65.54000 -0.882
65.56000 2.118
65.58000 1.075
65.60000 -1.743
65.62000 -1.912
65.64000 3.282
65.66000 5.376
65.68000 0.363
65.70000 0.908
65.72000 1.608
65.74000 -1.654
65.76000 0.151
65.78000 1.492
65.80000 2.059
65.82000 3.684
65.84000 4.377
65.86000 3.004
65.88000 0.753
65.90000 2.558
65.92000 0.760
65.94000 0.476
65.96000 0.108
65.98000 -1.210
66.00000 -2.415
66.02000 3.042
66.04000 2.911
66.06000 0.821
66.08000 3.465
66.10000 5.470
66.12000 6.171
66.14000 2.807
66.16000 2.398
66.18000 3.556
66.20000 5.068
66.22000 3.419
66.24000 1.720
66.26000 3.263
66.28000 1.907
66.30000 1.267
66.32000 0.171
66.34000 0.154
66.36000 1.653
66.38000 4.227
66.40000 3.133
66.42000 3.981
66.44000 4.464
66.46000 2.764
66.48000 5.189
66.50000 3.395
66.52000 0.961
66.54000 -1.656
66.56000 -1.627
66.58000 0.321
66.60000 1.782
66.62000 0.822
66.64000 -0.130
66.66000 2.929
66.68000 1.477
66.70000 0.910
66.72000 -1.611
66.74000 -0.852
66.76000 3.927
66.78000 2.304
66.80000 -0.085
66.82000 0.201
66.84000 -2.347
66.86000 -2.511
66.88000 -0.975
66.90000 0.628
66.92000 -2.288
66.94000 1.754
66.96000 3.096
66.98000 1.583
67.00000 2.153
67.02000 1.502
67.04000 1.948
67.06000 4.222
67.08000 1.063
67.10000 1.808
67.12000 1.089
67.14000 0.041
67.16000 3.073
67.18000 2.060
67.20000 2.882
67.22000 5.547
67.24000 8.347
67.26000 6.545
67.28000 1.722
67.30000 2.717
67.32000 3.224
67.34000 5.721
67.36000 8.069
67.38000 5.664
67.40000 5.388
67.42000 4.262
67.44000 1.727
67.46000 5.114
67.48000 6.737
67.50000 4.713
67.52000 5.717
67.54000 9.663
67.56000 6.486
67.58000 6.462
67.60000 7.078
67.62000 10.126
67.64000 14.116
67.66000 13.688
67.68000 11.942
67.70000 10.719
67.72000 10.999
67.74000 11.382
67.76000 11.188
67.78000 11.575
67.80000 16.019
67.82000 17.606
67.84000 17.268
67.86000 12.986
67.88000 14.012
67.90000 12.118
67.92000 15.453
67.94000 12.957
67.96000 13.980
67.98000 14.972
68.00000 17.150
68.02000 18.988
68.04000 18.302
68.06000 22.019
68.08000 17.364
68.10000 19.536
68.12000 21.467
68.14000 23.514
68.16000 23.534
68.18000 23.382
68.20000 24.542
68.22000 22.132
68.24000 20.463
68.26000 20.181
68.28000 23.863
68.30000 26.944
68.32000 29.813
68.34000 29.854
68.36000 29.910
68.38000 27.981
68.40000 29.206
68.42000 28.661
68.44000 27.211
68.46000 26.835
68.48000 27.964
68.50000 30.827
68.52000 31.524
68.54000 30.215
68.56000 30.235
68.58000 29.212
68.60000 26.386
68.62000 31.235
68.64000 30.142
68.66000 29.201
68.68000 33.750
68.70000 31.005
68.72000 29.059
68.74000 31.871
68.76000 31.709
68.78000 24.925
68.80000 26.117
68.82000 27.747
68.84000 29.518
68.86000 27.073
68.88000 23.736
68.90000 25.396
68.92000 25.798
68.94000 24.592
68.96000 26.594
68.98000 23.858
69.00000 22.979
69.02000 22.371
69.04000 21.948
69.06000 17.307
69.08000 19.825
69.10000 18.642
69.12000 13.127
69.14000 15.029
69.16000 15.124
69.18000 12.812
69.20000 15.098
69.22000 14.344
69.24000 12.012
69.26000 13.018
69.28000 10.795
69.30000 13.536
69.32000 15.129
69.34000 9.218
69.36000 10.291
69.38000 8.178
69.40000 4.884
69.42000 6.502
69.44000 7.912
69.46000 10.774
69.48000 8.831
69.50000 6.251
69.52000 6.015
69.54000 3.993
69.56000 4.882
69.58000 5.001
69.60000 3.174
69.62000 5.236
69.64000 6.206
69.66000 7.176
69.68000 6.508
69.70000 2.739
69.72000 2.848
69.74000 3.472
69.76000 2.370
69.78000 3.191
69.80000 2.720
69.82000 4.187
69.84000 0.675
69.86000 2.969
69.88000 2.859
69.90000 3.328
69.92000 5.055
69.94000 3.522
69.96000 2.093
69.98000 4.105
70.00000 2.839
70.02000 1.673
70.04000 -2.390
70.06000 0.411
70.08000 2.938
70.10000 3.103
70.12000 0.367
70.14000 2.002
70.16000 3.191
70.18000 0.029
70.20000 3.456
70.22000 5.663
70.24000 3.141
70.26000 3.212
70.28000 1.173
70.30000 -0.295
70.32000 -0.477
70.34000 1.602
70.36000 5.298
70.38000 3.188
70.40000 3.889
70.42000 4.652
70.44000 5.497
70.46000 6.711
70.48000 5.006
70.50000 4.806
70.52000 4.141
70.54000 4.725
70.56000 1.241
70.58000 -0.016
70.60000 -0.955
70.62000 -0.579
70.64000 -2.336
70.66000 0.718
70.68000 3.572
70.70000 3.382
70.72000 -0.209
70.74000 1.922
70.76000 0.586
70.78000 4.040
70.80000 2.967
70.82000 2.091
70.84000 1.844
70.86000 2.255
70.88000 2.992
70.90000 4.574
70.92000 1.025
70.94000 -0.617
70.96000 -0.368
70.98000 -1.373
71.00000 -0.524
71.02000 -1.680
71.04000 0.709
71.06000 0.069
71.08000 0.426
71.10000 3.432
71.12000 -0.330
71.14000 -2.124
71.16000 -2.041
71.18000 1.548
71.20000 2.153
71.22000 0.461
71.24000 4.785
71.26000 5.856
71.28000 2.991
71.30000 3.527
71.32000 5.224
71.34000 2.648
71.36000 1.648
71.38000 3.658
71.40000 1.226
71.42000 -0.432
71.44000 1.468
71.46000 2.973
71.48000 1.972
71.50000 -0.138
71.52000 2.832
71.54000 2.803
71.56000 1.124
71.58000 -2.271
71.60000 -0.334
71.62000 0.740
71.64000 1.728
71.66000 0.157
71.68000 -0.631
71.70000 2.458
71.72000 6.001
71.74000 7.216
71.76000 5.938
71.78000 5.922
71.80000 -1.805
71.82000 -1.797
71.84000 2.981
71.86000 7.573
71.88000 2.269
71.90000 2.803
71.92000 -1.370
71.94000 -2.240
71.96000 1.568
71.98000 2.276
72.00000 0.785
72.02000 2.167
72.04000 -0.519
72.06000 1.519
72.08000 1.876
72.10000 1.018
72.12000 2.652
72.14000 1.694
72.16000 3.357
72.18000 -0.276
72.20000 -0.137
72.22000 1.343
72.24000 3.091
72.26000 2.001
72.28000 6.206
72.30000 5.684
72.32000 3.419
72.34000 1.398
72.36000 4.394
72.38000 -1.535
72.40000 -0.357
72.42000 2.241
72.44000 5.972
72.46000 1.087
72.48000 -1.143
72.50000 -0.283
72.52000 3.591
72.54000 5.683
72.56000 5.252
72.58000 4.784
72.60000 -0.518
72.62000 0.508
72.64000 4.900
72.66000 1.560
72.68000 0.720
72.70000 0.024
72.72000 0.177
72.74000 4.551
72.76000 3.289
72.78000 1.994
72.80000 1.191
72.82000 -1.307
72.84000 -0.294
72.86000 0.816
72.88000 1.170
72.90000 2.761
72.92000 5.962
72.94000 5.090
72.96000 5.336
72.98000 6.393
73.00000 2.785
73.02000 1.375
73.04000 2.095
73.06000 4.717
73.08000 2.194
73.10000 3.655
73.12000 4.325
73.14000 2.257
73.16000 0.840
73.18000 -0.566
73.20000 1.300
73.22000 1.842
73.24000 1.953
73.26000 1.264
73.28000 2.699
73.30000 2.901
73.32000 1.329
73.34000 1.843
73.36000 1.990
73.38000 -0.600
73.40000 -0.234
73.42000 0.373
73.44000 1.176
73.46000 1.112
73.48000 0.297
73.50000 0.441
73.52000 1.582
73.54000 1.534
73.56000 0.369
73.58000 2.498
73.60000 2.943
73.62000 3.511
73.64000 0.806
73.66000 -0.445
73.68000 -0.605
73.70000 -2.210
73.72000 -0.269
73.74000 0.063
73.76000 0.453
73.78000 3.707
73.80000 4.263
73.82000 5.201
73.84000 -0.718
73.86000 1.346
73.88000 4.685
73.90000 2.049
73.92000 -0.904
73.94000 0.360
73.96000 -0.994
73.98000 -1.345
74.00000 2.311
74.02000 3.677
74.04000 1.712
74.06000 -0.415
74.08000 1.305
74.10000 0.702
74.12000 1.323
74.14000 0.642
74.16000 -1.953
74.18000 2.483
74.20000 2.564
74.22000 -0.563
74.24000 -1.780
74.26000 -2.238
74.28000 -0.952
74.30000 4.148
74.32000 6.772
74.34000 3.222
74.36000 2.256
74.38000 1.456
74.40000 3.867
74.42000 1.903
74.44000 0.327
74.46000 0.150
74.48000 0.331
74.50000 -2.048
74.52000 -0.760
74.54000 -0.990
74.56000 1.825
74.58000 0.502
74.60000 -1.996
74.62000 -0.951
74.64000 1.788
74.66000 -0.827
74.68000 1.510
74.70000 0.530
74.72000 -0.584
74.74000 0.341
74.76000 0.125
74.78000 0.416
74.80000 -0.725
74.82000 3.882
74.84000 0.801
74.86000 -0.555
74.88000 3.034
74.90000 4.125
74.92000 0.035
74.94000 -0.708
74.96000 0.788
74.98000 0.464
75.00000 1.309
75.02000 2.921
75.04000 2.171
75.06000 -0.183
75.08000 -2.059
75.10000 -0.352
75.12000 1.892
75.14000 5.151
75.16000 1.448
75.18000 3.273
75.20000 4.261
75.22000 4.090
75.24000 7.365
75.26000 5.046
75.28000 3.820
75.30000 3.232
75.32000 1.221
75.34000 2.241
75.36000 4.145
75.38000 4.556
75.40000 4.716
75.42000 4.042
75.44000 1.100
75.46000 1.228
75.48000 2.966
75.50000 1.638
75.52000 4.829
75.54000 7.015
75.56000 8.938
75.58000 3.157
75.60000 -1.224
75.62000 -0.865
75.64000 -2.200
75.66000 1.796
75.68000 3.890
75.70000 5.774
75.72000 3.310
75.74000 0.724
75.76000 -0.638
75.78000 7.178
75.80000 5.200
75.82000 2.872
75.84000 1.390
75.86000 2.372
75.88000 2.628
75.90000 6.743
75.92000 7.785
75.94000 6.390
75.96000 6.059
75.98000 2.812
76.00000 -0.650
76.02000 1.128
76.04000 2.794
76.06000 1.419
76.08000 3.926
76.10000 6.549
76.12000 4.456
76.14000 4.813
76.16000 5.642
76.18000 7.197
76.20000 4.100
76.22000 3.479
76.24000 3.789
76.26000 6.895
76.28000 5.505
76.30000 5.018
76.32000 5.062
76.34000 4.271
76.36000 0.374
76.38000 -2.213
76.40000 0.676
76.42000 -1.185
76.44000 1.322
76.46000 0.150
76.48000 -1.230
76.50000 4.564
76.52000 6.861
76.54000 3.647
76.56000 1.867
76.58000 4.293
76.60000 3.633
76.62000 3.923
76.64000 7.780
76.66000 6.411
76.68000 3.912
76.70000 3.004
76.72000 1.235
76.74000 -0.586
76.76000 -0.093
76.78000 4.696
76.80000 4.941
76.82000 4.945
76.84000 0.118
76.86000 5.858
76.88000 3.538
76.90000 0.279
76.92000 1.098
76.94000 6.359
76.96000 4.547
76.98000 2.982
77.00000 5.988
77.02000 4.745
77.04000 1.606
77.06000 -1.058
77.08000 2.518
77.10000 -0.256
77.12000 0.896
77.14000 1.695
77.16000 1.364
77.18000 4.277
77.20000 1.571
77.22000 1.205
77.24000 2.041
77.26000 3.148
77.28000 4.637
77.30000 2.908
77.32000 0.180
77.34000 1.341
77.36000 3.143
77.38000 2.443
77.40000 -1.551
77.42000 -2.241
77.44000 -0.281
77.46000 1.596
77.48000 3.141
77.50000 4.311
77.52000 5.829
77.54000 6.207
77.56000 6.253
77.58000 5.398
77.60000 2.709
77.62000 1.846
77.64000 2.109
77.66000 3.057
77.68000 2.085
77.70000 5.707
77.72000 1.848
77.74000 -1.638
77.76000 -1.551
77.78000 0.247
77.80000 -0.761
77.82000 0.482
77.84000 0.697
77.86000 4.771
77.88000 5.742
77.90000 1.483
77.92000 1.531
77.94000 2.129
77.96000 -0.727
77.98000 1.899
78.00000 0.692
78.02000 0.703
78.04000 -1.407
78.06000 2.986
78.08000 0.321
78.10000 2.637
78.12000 4.392
78.14000 5.005
78.16000 7.330
78.18000 3.257
78.20000 3.316
78.22000 4.702
78.24000 2.753
78.26000 -1.275
78.28000 -1.444
78.30000 1.570
78.32000 2.882
78.34000 3.274
78.36000 5.849
78.38000 4.209
78.40000 2.754
78.42000 4.692
78.44000 1.363
78.46000 -0.853
78.48000 2.843
78.50000 3.502
78.52000 3.435
78.54000 2.245
78.56000 -0.566
78.58000 -2.267
78.60000 1.379
78.62000 2.240
78.64000 3.059
78.66000 -1.090
78.68000 0.433
78.70000 5.405
78.72000 5.251
78.74000 3.905
78.76000 -2.201
78.78000 -0.043
78.80000 0.657
78.82000 -0.893
78.84000 3.180
78.86000 3.686
78.88000 3.537
78.90000 1.469
78.92000 3.285
78.94000 4.505
78.96000 6.224
78.98000 3.075
79.00000 5.819
79.02000 4.370
79.04000 0.817
79.06000 4.395
79.08000 2.322
79.10000 1.737
79.12000 3.248
79.14000 5.251
79.16000 4.933
79.18000 -0.914
79.20000 -0.534
79.22000 2.786
79.24000 2.928
79.26000 2.471
79.28000 0.827
79.30000 -2.291
79.32000 -2.158
79.34000 -1.892
79.36000 -0.587
79.38000 0.888
79.40000 -0.074
79.42000 6.240
79.44000 7.341
79.46000 3.676
79.48000 4.076
79.50000 2.911
79.52000 4.616
79.54000 4.084
79.56000 -0.081
79.58000 -0.392
79.60000 1.960
79.62000 1.791
79.64000 0.648
79.66000 1.911
79.68000 0.028
79.70000 5.009
79.72000 1.710
79.74000 3.267
79.76000 0.935
79.78000 0.991
79.80000 -0.374
79.82000 -1.987
79.84000 2.767
79.86000 3.902
79.88000 -2.325
79.90000 6.818
79.92000 5.934
79.94000 3.044
79.96000 2.323
79.98000 1.988
80.00000 -2.330
80.02000 -1.160
80.04000 4.301
80.06000 4.973
80.08000 4.088
80.10000 3.114
80.12000 2.121
80.14000 -0.240
80.16000 -0.869
80.18000 1.561
80.20000 3.785
80.22000 9.605
80.24000 5.526
80.26000 2.579
80.28000 0.204
80.30000 2.512
80.32000 2.007
80.34000 0.053
80.36000 -0.719
80.38000 2.094
80.40000 1.538
80.42000 1.733
80.44000 3.278
80.46000 5.320
80.48000 0.446
80.50000 -0.012
80.52000 -1.988
80.54000 0.659
80.56000 3.437
80.58000 0.238
80.60000 -0.422
80.62000 -0.081
80.64000 -2.415
80.66000 1.927
80.68000 7.087
80.70000 5.117
80.72000 3.364
80.74000 3.033
80.76000 3.589
80.78000 3.867
80.80000 0.659
80.82000 0.774
80.84000 4.816
80.86000 5.694
80.88000 2.220
80.90000 2.914
80.92000 3.278
80.94000 0.973
80.96000 0.712
80.98000 6.583
81.00000 4.010
81.02000 0.409
81.04000 1.111
81.06000 5.759
81.08000 6.673
81.10000 2.703
81.12000 4.278
81.14000 7.122
81.16000 4.893
81.18000 3.779
81.20000 5.538
81.22000 4.551
81.24000 5.095
81.26000 2.589
81.28000 1.747
81.30000 0.624
81.32000 1.469
81.34000 4.851
81.36000 6.000
81.38000 2.420
81.40000 7.741
81.42000 4.092
81.44000 6.095
81.46000 8.342
81.48000 6.465
81.50000 7.057
81.52000 8.373
81.54000 8.884
81.56000 10.521
81.58000 7.034
81.60000 11.497
81.62000 10.672
81.64000 11.224
81.66000 11.131
81.68000 10.994
81.70000 13.974
81.72000 12.008
81.74000 9.992
81.76000 12.249
81.78000 9.686
81.80000 9.998
81.82000 14.695
81.84000 12.257
81.86000 16.657
81.88000 15.216
81.90000 16.709
81.92000 17.369
81.94000 11.566
81.96000 16.510
81.98000 18.697
82.00000 17.183
82.02000 19.625
82.04000 19.325
82.06000 18.980
82.08000 21.964
82.10000 17.218
82.12000 19.066
82.14000 29.022
82.16000 30.679
82.18000 32.864
82.20000 27.690
82.22000 26.972
82.24000 28.369
82.26000 30.706
82.28000 28.460
82.30000 26.632
82.32000 25.787
82.34000 28.275
82.36000 29.092
82.38000 34.666
82.40000 31.315
82.42000 37.483
82.44000 37.029
82.46000 26.585
82.48000 28.638
82.50000 33.351
82.52000 34.090
82.54000 32.701
82.56000 35.320
82.58000 35.893
82.60000 33.196
82.62000 35.965
82.64000 35.331
82.66000 33.886
82.68000 32.717
82.70000 32.809
82.72000 27.976
82.74000 32.821
82.76000 38.896
82.78000 37.921
82.80000 36.383
82.82000 32.342
82.84000 33.114
82.86000 30.172
82.88000 28.615
82.90000 29.827
82.92000 27.972
82.94000 27.759
82.96000 26.494
82.98000 31.604
83.00000 32.262
83.02000 33.118
83.04000 33.309
83.06000 31.303
83.08000 28.658
83.10000 34.683
83.12000 31.375
83.14000 27.542
83.16000 25.643
83.18000 23.936
83.20000 20.619
83.22000 28.198
83.24000 31.385
83.26000 29.793
83.28000 22.615
83.30000 23.818
83.32000 18.554
83.34000 23.615
83.36000 21.080
83.38000 19.407
83.40000 19.782
83.42000 19.398
83.44000 24.984
83.46000 23.547
83.48000 19.803
83.50000 19.889
83.52000 15.442
83.54000 13.340
83.56000 10.479
83.58000 10.774
83.60000 13.602
83.62000 11.470
83.64000 11.325
83.66000 11.628
83.68000 13.301
83.70000 16.246
83.72000 15.823
83.74000 12.802
83.76000 14.019
83.78000 6.974
83.80000 4.949
83.82000 2.649
83.84000 -0.358
83.86000 3.081
83.88000 9.341
83.90000 7.920
83.92000 6.514
83.94000 4.460
83.96000 8.656
83.98000 6.942
84.00000 6.595
84.02000 5.010
84.04000 2.537
84.06000 3.138
84.08000 0.258
84.10000 -1.449
84.12000 -0.131
84.14000 6.204
84.16000 5.725
84.18000 4.986
84.20000 0.749
84.22000 1.718
84.24000 1.744
84.26000 3.270
84.28000 2.532
84.30000 5.508
84.32000 3.062
84.34000 0.189
84.36000 0.002
84.38000 -0.486
84.40000 0.217
84.42000 -0.177
84.44000 -2.397
84.46000 -0.960
84.48000 -0.856
84.50000 0.784
84.52000 2.942
84.54000 4.091
84.56000 -1.825
84.58000 -1.061
84.60000 0.658
84.62000 -2.382
84.64000 0.061
84.66000 1.802
84.68000 1.892
84.70000 0.216
84.72000 3.087
84.74000 5.024
84.76000 4.984
84.78000 6.829
84.80000 7.731
84.82000 2.331
84.84000 -1.230
84.86000 2.112
84.88000 0.736
84.90000 0.377
84.92000 0.159
84.94000 -0.522
84.96000 -0.975
84.98000 2.527
85.00000 -1.140
85.02000 -2.347
85.04000 -0.265
85.06000 3.242
85.08000 2.854
85.10000 1.276
85.12000 -1.352
85.14000 0.667
85.16000 1.226
85.18000 2.475
85.20000 1.264
85.22000 4.402
85.24000 -0.742
85.26000 2.744
85.28000 0.650
85.30000 -1.814
85.32000 0.169
85.34000 -0.253
85.36000 -2.322
85.38000 -1.836
85.40000 -0.537
85.42000 2.910
85.44000 0.689
85.46000 -1.178
85.48000 2.246
85.50000 2.855
85.52000 4.301
85.54000 5.670
85.56000 2.767
85.58000 -0.992
85.60000 2.045
85.62000 -0.097
85.64000 -0.203
85.66000 -1.329
85.68000 3.415
85.70000 4.753
85.72000 -0.939
85.74000 1.256
85.76000 -1.771
85.78000 -2.333
85.80000 0.362
85.82000 -1.142
85.84000 0.144
85.86000 4.837
85.88000 3.407
85.90000 3.786
85.92000 4.364
85.94000 3.525
85.96000 5.984
85.98000 5.497
86.00000 5.785
86.02000 5.470
86.04000 1.204
86.06000 2.327
86.08000 4.148
86.10000 4.283
86.12000 5.718
86.14000 5.328
86.16000 4.074
86.18000 5.930
86.20000 6.056
86.22000 10.229
86.24000 6.457
86.26000 5.995
86.28000 11.175
86.30000 10.429
86.32000 7.812
86.34000 7.126
86.36000 6.590
86.38000 6.657
86.40000 9.276
86.42000 7.836
86.44000 9.055
86.46000 14.249
86.48000 7.377
86.50000 8.245
86.52000 10.340
86.54000 11.427
86.56000 13.559
86.58000 11.534
86.60000 18.165
86.62000 15.739
86.64000 11.946
86.66000 9.414
86.68000 13.704
86.70000 16.882
86.72000 14.404
86.74000 11.635
86.76000 16.815
86.78000 20.440
86.80000 18.665
86.82000 18.435
86.84000 17.641
86.86000 22.403
86.88000 22.349
86.90000 19.033
86.92000 21.029
86.94000 19.685
86.96000 26.194
86.98000 21.671
87.00000 18.741
87.02000 20.339
87.04000 22.034
87.06000 21.568
87.08000 21.523
87.10000 22.195
87.12000 21.959
87.14000 18.765
87.16000 19.314
87.18000 20.451
87.20000 19.912
87.22000 21.417
87.24000 19.026
87.26000 18.151
87.28000 18.546
87.30000 16.872
87.32000 14.525
87.34000 15.567
87.36000 16.514
87.38000 14.735
87.40000 16.084
87.42000 20.636
87.44000 19.134
87.46000 19.434
87.48000 17.200
87.50000 21.062
87.52000 23.050
87.54000 18.543
87.56000 13.907
87.58000 11.633
87.60000 13.049
87.62000 8.295
87.64000 8.664
87.66000 12.137
87.68000 11.147
87.70000 11.545
87.72000 10.579
87.74000 11.840
87.76000 8.089
87.78000 6.771
87.80000 6.886
87.82000 9.363
87.84000 9.123
87.86000 10.596
87.88000 9.390
87.90000 5.337
87.92000 7.501
87.94000 7.661
87.96000 7.780
87.98000 7.836
88.00000 9.153
88.02000 7.298
88.04000 3.920
88.06000 2.331
88.08000 4.074
88.10000 8.679
88.12000 2.595
88.14000 3.063
88.16000 3.568
88.18000 4.676
88.20000 6.945
88.22000 5.172
88.24000 6.759
88.26000 4.688
88.28000 2.416
88.30000 -2.204
88.32000 2.752
88.34000 4.245
88.36000 3.157
88.38000 0.614
88.40000 7.127
88.42000 1.894
88.44000 3.497
88.46000 5.131
88.48000 2.036
88.50000 -0.265
88.52000 0.219
88.54000 6.203
88.56000 3.471
88.58000 5.485
88.60000 8.211
88.62000 5.212
88.64000 -2.161
88.66000 -0.588
88.68000 1.575
88.70000 5.374
88.72000 5.699
88.74000 2.009
88.76000 3.284
88.78000 3.250
88.80000 2.185
88.82000 2.299
88.84000 2.447
88.86000 5.465
88.88000 7.056
88.90000 4.991
88.92000 3.466
88.94000 0.804
88.96000 0.179
88.98000 3.183
89.00000 3.137
89.02000 5.656
89.04000 5.017
89.06000 4.077
89.08000 3.310
89.10000 -1.560
89.12000 0.708
89.14000 0.473
89.16000 1.184
89.18000 1.820
89.20000 2.264
89.22000 5.293
89.24000 3.893
89.26000 2.267
89.28000 3.517
89.30000 2.861
89.32000 -0.567
89.34000 -0.300
89.36000 -0.560
89.38000 2.666
89.40000 6.206
89.42000 3.151
89.44000 1.794
89.46000 2.237
89.48000 1.115
89.50000 -1.049
89.52000 -1.292
89.54000 0.869
89.56000 2.941
89.58000 0.077
89.60000 1.735
89.62000 1.363
89.64000 0.821
89.66000 -0.792
89.68000 -2.122
89.70000 -1.344
89.72000 0.135
89.74000 1.457
89.76000 -1.072
89.78000 1.767
89.80000 3.038
89.82000 1.676
89.84000 3.968
89.86000 4.983
89.88000 0.701
89.90000 2.053
89.92000 0.449
89.94000 -2.109
89.96000 -0.342
89.98000 2.490
90.00000 0.955
90.02000 -0.155
90.04000 3.207
90.06000 2.512
90.08000 -0.280
90.10000 0.490
90.12000 -2.102
90.14000 5.732
90.16000 9.126
90.18000 4.551
90.20000 3.136
90.22000 -0.269
90.24000 3.090
90.26000 4.541
90.28000 2.611
90.30000 3.291
90.32000 2.390
90.34000 1.078
90.36000 -0.649
90.38000 0.925
90.40000 0.404
90.42000 -0.575
90.44000 5.835
90.46000 6.148
90.48000 2.682
90.50000 -0.868
90.52000 0.535
90.54000 2.780
90.56000 2.517
90.58000 3.983
90.60000 1.338
90.62000 1.489
90.64000 -0.177
90.66000 3.688
90.68000 4.689
90.70000 0.289
90.72000 1.873
90.74000 2.574
90.76000 1.753
90.78000 3.794
90.80000 1.244
90.82000 -0.617
90.84000 3.538
90.86000 1.840
90.88000 0.318
90.90000 0.120
90.92000 1.928
90.94000 1.633
90.96000 -0.842
90.98000 -0.500
91.00000 -2.108
91.02000 1.019
91.04000 0.683
91.06000 3.660
91.08000 4.090
91.10000 0.259
91.12000 4.305
91.14000 10.266
91.16000 8.280
91.18000 5.751
91.20000 3.962
91.22000 5.140
91.24000 -1.792
91.26000 2.053
91.28000 2.905
91.30000 3.553
91.32000 3.677
91.34000 4.990
91.36000 4.291
91.38000 5.750
91.40000 0.786
91.42000 0.894
91.44000 4.091
91.46000 1.766
91.48000 3.951
91.50000 1.770
91.52000 2.244
91.54000 -0.649
91.56000 -2.094
91.58000 4.006
91.60000 6.338
91.62000 2.859
91.64000 2.288
91.66000 4.487
91.68000 7.030
91.70000 4.966
91.72000 6.283
91.74000 5.132
91.76000 3.079
91.78000 3.251
91.80000 2.902
91.82000 3.945
91.84000 7.113
91.86000 3.618
91.88000 -0.891
91.90000 0.161
91.92000 -2.111
91.94000 -1.399
91.96000 0.717
91.98000 0.695
92.00000 1.530
92.02000 0.797
92.04000 -0.482
92.06000 4.234
92.08000 3.135
92.10000 0.518
92.12000 -0.713
92.14000 -0.678
92.16000 -1.083
92.18000 -0.373
92.20000 2.164
92.22000 6.362
92.24000 1.990
92.26000 3.459
92.28000 7.214
92.30000 5.754
92.32000 2.638
92.34000 3.596
92.36000 6.338
92.38000 4.395
92.40000 1.155
92.42000 -0.132
92.44000 -0.005
92.46000 0.224
92.48000 -0.373
92.50000 -0.487
92.52000 4.563
92.54000 6.421
92.56000 6.160
92.58000 2.149
92.60000 3.996
92.62000 4.538
92.64000 -0.117
92.66000 -2.128
92.68000 0.860
92.70000 0.393
92.72000 -1.162
92.74000 0.438
92.76000 6.653
92.78000 3.804
92.80000 4.532
92.82000 1.767
92.84000 -1.291
92.86000 1.563
92.88000 2.281
92.90000 1.739
92.92000 1.796
92.94000 1.498
92.96000 -0.387
92.98000 -0.938
93.00000 1.013
93.02000 2.615
93.04000 4.176
93.06000 2.104
93.08000 -1.951
93.10000 1.378
93.12000 3.291
93.14000 2.007
93.16000 0.831
93.18000 2.473
93.20000 9.341
93.22000 4.041
93.24000 -0.242
93.26000 3.226
93.28000 0.661
93.30000 4.331
93.32000 4.544
93.34000 2.861
93.36000 6.173
93.38000 5.915
93.40000 4.447
93.42000 4.057
93.44000 -0.229
93.46000 -0.612
93.48000 4.657
93.50000 2.407
93.52000 -2.119
93.54000 -0.878
93.56000 0.064
93.58000 5.753
93.60000 4.660
93.62000 6.442
93.64000 5.353
93.66000 3.661
93.68000 8.327
93.70000 3.989
93.72000 5.131
93.74000 6.048
93.76000 3.426
93.78000 3.097
93.80000 3.647
93.82000 -0.784
93.84000 0.373
93.86000 1.111
93.88000 -1.369
93.90000 -0.619
93.92000 -1.324
93.94000 2.420
93.96000 4.641
93.98000 5.473
94.00000 4.844
94.02000 3.437
94.04000 -1.043
94.06000 2.738
94.08000 4.632
94.10000 5.059
94.12000 3.052
94.14000 3.693
94.16000 4.189
94.18000 7.193
94.20000 9.372
94.22000 1.546
94.24000 2.352
94.26000 2.394
94.28000 5.514
94.30000 5.807
94.32000 5.114
94.34000 4.206
94.36000 6.507
94.38000 4.146
94.40000 4.146
94.42000 5.073
94.44000 5.245
94.46000 7.894
94.48000 6.745
94.50000 6.214
94.52000 6.457
94.54000 7.577
94.56000 7.931
94.58000 5.442
94.60000 5.084
94.62000 5.481
94.64000 5.300
94.66000 3.301
94.68000 5.586
94.70000 2.961
94.72000 5.136
94.74000 1.085
94.76000 -2.090
94.78000 4.258
94.80000 10.047
94.82000 6.394
94.84000 6.023
94.86000 1.794
94.88000 1.349
94.90000 -0.031
94.92000 -1.694
94.94000 -2.094
94.96000 3.194
94.98000 2.375
95.00000 3.011
95.02000 4.870
95.04000 3.883
95.06000 4.419
95.08000 2.794
95.10000 3.050
95.12000 3.522
95.14000 5.337
95.16000 9.382
95.18000 7.459
95.20000 3.764
95.22000 6.055
95.24000 7.909
95.26000 8.272
95.28000 3.487
95.30000 6.937
95.32000 9.501
95.34000 8.603
95.36000 3.923
95.38000 6.196
95.40000 5.845
95.42000 3.991
95.44000 -1.114
95.46000 1.562
95.48000 2.239
95.50000 1.334
95.52000 -0.186
95.54000 3.967
95.56000 8.389
95.58000 1.309
95.60000 -1.694
95.62000 2.850
95.64000 7.597
95.66000 3.847
95.68000 5.912
95.70000 7.040
95.72000 9.508
95.74000 4.652
95.76000 3.465
95.78000 4.915
95.80000 6.228
95.82000 7.043
95.84000 3.584
95.86000 7.083
95.88000 5.721
95.90000 5.229
95.92000 3.295
95.94000 3.259
95.96000 3.750
95.98000 3.526
96.00000 7.948
96.02000 8.611
96.04000 10.131
96.06000 5.395
96.08000 4.407
96.10000 7.912
96.12000 4.477
96.14000 3.829
96.16000 7.326
96.18000 6.071
96.20000 6.153
96.22000 3.137
96.24000 -2.116
96.26000 5.000
96.28000 5.178
96.30000 1.132
96.32000 -1.293
96.34000 2.508
96.36000 6.968
96.38000 3.781
96.40000 5.448
96.42000 4.257
96.44000 5.324
96.46000 3.779
96.48000 -1.886
96.50000 0.018
96.52000 5.372
96.54000 5.854
96.56000 7.443
96.58000 3.749
96.60000 0.411
96.62000 0.389
96.64000 3.687
96.66000 5.455
96.68000 1.065
96.70000 0.216
96.72000 4.655
96.74000 4.727
96.76000 0.065
96.78000 2.795
96.80000 2.660
96.82000 5.126
96.84000 7.042
96.86000 3.719
96.88000 3.003
96.90000 2.688
96.92000 0.931
96.94000 -0.073
96.96000 3.553
96.98000 2.662
97.00000 7.356
97.02000 5.738
97.04000 5.454
97.06000 7.419
97.08000 0.407
97.10000 -1.055
97.12000 5.526
97.14000 6.462
97.16000 2.376
97.18000 5.393
97.20000 2.887
97.22000 1.142
97.24000 2.150
97.26000 0.778
97.28000 2.827
97.30000 1.439
97.32000 3.092
97.34000 6.944
97.36000 2.431
97.38000 3.479
97.40000 1.817
97.42000 0.855
97.44000 3.152
97.46000 1.146
97.48000 2.368
97.50000 0.829
97.52000 3.282
97.54000 8.801
97.56000 8.691
97.58000 5.866
97.60000 4.330
97.62000 2.258
97.64000 3.617
97.66000 1.374
97.68000 5.941
97.70000 1.249
97.72000 1.494
97.74000 7.632
97.76000 3.675
97.78000 -2.099
97.80000 -1.772
97.82000 1.182
97.84000 1.830
97.86000 5.311
97.88000 9.752
97.90000 10.036
97.92000 0.984
97.94000 3.983
97.96000 16.007
97.98000 10.047
98.00000 3.977
98.02000 7.397
98.04000 8.846
98.06000 10.455
98.08000 6.344
98.10000 5.203
98.12000 3.878
98.14000 1.251
98.16000 1.062
98.18000 7.334
98.20000 6.628
98.22000 -0.797
98.24000 -0.903
98.26000 1.429
98.28000 8.641
98.30000 9.849
98.32000 8.758
98.34000 9.283
98.36000 5.371
98.38000 3.254
98.40000 -2.070
98.42000 1.917
98.44000 7.225
98.46000 10.032
98.48000 9.788
98.50000 -0.346
98.52000 4.338
98.54000 2.827
98.56000 3.128
98.58000 3.548
98.60000 7.173
98.62000 6.458
98.64000 4.146
98.66000 3.258
98.68000 5.914
98.70000 6.136
98.72000 1.457
98.74000 -1.237
98.76000 7.402
98.78000 10.568
98.80000 4.897
98.82000 2.490
98.84000 0.873
98.86000 3.376
98.88000 6.065
98.90000 -1.565
98.92000 -1.297
98.94000 5.325
98.96000 5.934
98.98000 13.917
99.00000 11.377
99.02000 2.504
99.04000 6.807
99.06000 7.366
99.08000 9.016
99.10000 9.761
99.12000 12.666
99.14000 5.531
99.16000 -2.063
99.18000 3.885
99.20000 12.658
99.22000 9.973
99.24000 10.153
99.26000 9.203
99.28000 4.604
99.30000 4.898
99.32000 -0.266
99.34000 2.532
99.36000 2.640
99.38000 3.144
99.40000 4.061
99.42000 7.678
99.44000 4.434
99.46000 3.421
99.48000 2.790
99.50000 8.154
99.52000 6.062
99.54000 3.125
99.56000 5.135
99.58000 5.148
99.60000 5.988
99.62000 1.477
99.64000 9.806
99.66000 0.579
99.68000 2.802
99.70000 6.976
99.72000 10.853
99.74000 0.977
99.76000 6.329
99.78000 10.793
99.80000 3.882
99.82000 8.151
99.84000 6.869
99.86000 -0.600
99.88000 -2.181
99.90000 4.727
99.92000 -2.105
99.94000 -2.264
99.96000 -2.312
99.98000 0.000
