'Id: "0011388" Comment: "Integrate frame 0011388_Au-Ir-Rh_Rh-rich_XRD-Mapping-236-0000.gfrmwith cursor Wedge Cursor #5" Operator: "B?rgel" Anode: "Cu" Wavelength: "1.5406" Scantype: "2Theta (TwoTheta)" TimePerStep: "1" X: "27" Y: "13.5" Z: "5.95" 
10.00000 0.000
10.02000 -3.618
10.04000 5.472
10.06000 -3.561
10.08000 -2.412
10.10000 14.979
10.12000 13.683
10.14000 5.450
10.16000 9.632
10.18000 9.958
10.20000 6.230
10.22000 12.878
10.24000 6.705
10.26000 11.074
10.28000 9.704
10.30000 7.314
10.32000 8.388
10.34000 3.087
10.36000 -3.590
10.38000 6.198
10.40000 14.128
10.42000 17.012
10.44000 23.023
10.46000 12.937
10.48000 4.408
10.50000 26.801
10.52000 35.377
10.54000 27.326
10.56000 19.791
10.58000 13.663
10.60000 17.633
10.62000 11.968
10.64000 23.747
10.66000 29.341
10.68000 13.647
10.70000 13.898
10.72000 18.618
10.74000 10.621
10.76000 5.387
10.78000 16.878
10.80000 14.183
10.82000 14.505
10.84000 9.786
10.86000 22.741
10.88000 21.445
10.90000 21.401
10.92000 24.748
10.94000 21.579
10.96000 18.621
10.98000 23.416
11.00000 33.241
11.02000 28.978
11.04000 28.582
11.06000 23.716
11.08000 28.741
11.10000 22.438
11.12000 30.587
11.14000 35.456
11.16000 34.625
11.18000 34.391
11.20000 20.959
11.22000 20.847
11.24000 25.302
11.26000 20.676
11.28000 19.392
11.30000 27.199
11.32000 25.906
11.34000 17.933
11.36000 25.686
11.38000 27.637
11.40000 28.798
11.42000 24.475
11.44000 15.402
11.46000 13.575
11.48000 29.942
11.50000 29.968
11.52000 18.272
11.54000 13.390
11.56000 22.578
11.58000 30.810
11.60000 25.009
11.62000 23.511
11.64000 23.502
11.66000 22.497
11.68000 19.478
11.70000 32.213
11.72000 28.138
11.74000 27.223
11.76000 31.207
11.78000 31.334
11.80000 29.173
11.82000 31.793
11.84000 28.230
11.86000 19.420
11.88000 18.931
11.90000 26.024
11.92000 37.628
11.94000 45.206
11.96000 43.295
11.98000 44.025
12.00000 37.778
12.02000 31.065
12.04000 31.784
12.06000 35.251
12.08000 39.784
12.10000 38.993
12.12000 32.896
12.14000 25.799
12.16000 23.834
12.18000 29.900
12.20000 37.381
12.22000 28.849
12.24000 17.072
12.26000 26.198
12.28000 40.559
12.30000 34.743
12.32000 32.849
12.34000 27.098
12.36000 33.984
12.38000 38.486
12.40000 28.576
12.42000 20.442
12.44000 27.867
12.46000 34.390
12.48000 27.150
12.50000 31.450
12.52000 34.806
12.54000 29.295
12.56000 31.120
12.58000 36.908
12.60000 39.348
12.62000 36.354
12.64000 36.829
12.66000 31.484
12.68000 35.885
12.70000 32.410
12.72000 27.621
12.74000 30.670
12.76000 34.798
12.78000 40.030
12.80000 45.856
12.82000 43.749
12.84000 38.816
12.86000 27.822
12.88000 31.084
12.90000 38.933
12.92000 31.759
12.94000 36.134
12.96000 36.086
12.98000 35.114
13.00000 40.783
13.02000 31.574
13.04000 29.218
13.06000 15.128
13.08000 21.313
13.10000 29.526
13.12000 27.900
13.14000 32.713
13.16000 27.646
13.18000 34.798
13.20000 30.069
13.22000 21.445
13.24000 19.776
13.26000 28.685
13.28000 27.183
13.30000 28.466
13.32000 34.821
13.34000 34.161
13.36000 32.918
13.38000 31.611
13.40000 35.665
13.42000 40.745
13.44000 43.666
13.46000 32.899
13.48000 23.367
13.50000 26.873
13.52000 31.023
13.54000 31.090
13.56000 34.003
13.58000 32.748
13.60000 23.221
13.62000 26.250
13.64000 32.588
13.66000 28.213
13.68000 27.213
13.70000 25.617
13.72000 27.394
13.74000 28.647
13.76000 25.260
13.78000 24.802
13.80000 22.676
13.82000 20.209
13.84000 26.374
13.86000 25.824
13.88000 29.124
13.90000 16.693
13.92000 22.160
13.94000 23.669
13.96000 24.783
13.98000 25.274
14.00000 19.926
14.02000 18.259
14.04000 20.975
14.06000 22.890
14.08000 26.102
14.10000 18.193
14.12000 28.998
14.14000 31.532
14.16000 21.789
14.18000 21.334
14.20000 17.722
14.22000 23.159
14.24000 24.267
14.26000 26.870
14.28000 27.559
14.30000 21.188
14.32000 25.439
14.34000 28.674
14.36000 28.551
14.38000 25.477
14.40000 21.121
14.42000 26.228
14.44000 27.209
14.46000 23.804
14.48000 27.306
14.50000 27.768
14.52000 22.859
14.54000 16.924
14.56000 12.949
14.58000 20.154
14.60000 25.514
14.62000 24.343
14.64000 23.220
14.66000 14.081
14.68000 17.664
14.70000 20.101
14.72000 17.197
14.74000 21.610
14.76000 22.199
14.78000 18.529
14.80000 19.573
14.82000 18.349
14.84000 19.696
14.86000 15.607
14.88000 18.987
14.90000 13.922
14.92000 15.741
14.94000 16.788
14.96000 16.075
14.98000 15.876
15.00000 14.798
15.02000 23.740
15.04000 16.910
15.06000 13.063
15.08000 23.414
15.10000 21.993
15.12000 28.157
15.14000 13.070
15.16000 16.436
15.18000 8.903
15.20000 15.023
15.22000 12.663
15.24000 10.588
15.26000 16.938
15.28000 21.800
15.30000 19.872
15.32000 15.970
15.34000 16.159
15.36000 22.544
15.38000 18.603
15.40000 23.264
15.42000 21.370
15.44000 23.859
15.46000 20.037
15.48000 13.367
15.50000 9.459
15.52000 18.524
15.54000 6.299
15.56000 5.740
15.58000 17.885
15.60000 14.502
15.62000 3.864
15.64000 4.924
15.66000 11.703
15.68000 18.784
15.70000 8.684
15.72000 5.901
15.74000 2.066
15.76000 12.231
15.78000 13.470
15.80000 12.509
15.82000 16.955
15.84000 16.148
15.86000 16.812
15.88000 7.618
15.90000 10.901
15.92000 16.463
15.94000 6.463
15.96000 5.228
15.98000 5.829
16.00000 15.727
16.02000 16.768
16.04000 9.504
16.06000 16.686
16.08000 14.712
16.10000 9.526
16.12000 13.263
16.14000 18.359
16.16000 17.519
16.18000 19.099
16.20000 14.466
16.22000 4.112
16.24000 10.053
16.26000 15.200
16.28000 14.830
16.30000 14.718
16.32000 11.551
16.34000 11.610
16.36000 10.486
16.38000 11.284
16.40000 11.175
16.42000 8.971
16.44000 10.153
16.46000 6.114
16.48000 -4.388
16.50000 9.095
16.52000 9.490
16.54000 10.876
16.56000 11.143
16.58000 8.164
16.60000 1.423
16.62000 2.173
16.64000 5.584
16.66000 3.982
16.68000 0.408
16.70000 9.325
16.72000 12.113
16.74000 6.671
16.76000 8.348
16.78000 3.290
16.80000 -1.019
16.82000 5.467
16.84000 10.882
16.86000 12.454
16.88000 9.239
16.90000 3.829
16.92000 9.826
16.94000 8.446
16.96000 -0.355
16.98000 6.306
17.00000 16.348
17.02000 9.222
17.04000 13.381
17.06000 9.807
17.08000 3.682
17.10000 3.661
17.12000 7.768
17.14000 12.282
17.16000 18.164
17.18000 16.431
17.20000 10.158
17.22000 13.474
17.24000 13.825
17.26000 13.206
17.28000 0.053
17.30000 0.512
17.32000 12.949
17.34000 4.882
17.36000 12.484
17.38000 6.587
17.40000 4.206
17.42000 5.763
17.44000 4.016
17.46000 -3.106
17.48000 2.040
17.50000 3.535
17.52000 11.477
17.54000 16.637
17.56000 9.885
17.58000 5.873
17.60000 8.653
17.62000 6.969
17.64000 8.933
17.66000 5.064
17.68000 1.085
17.70000 7.421
17.72000 10.688
17.74000 9.567
17.76000 4.350
17.78000 4.486
17.80000 12.397
17.82000 19.034
17.84000 9.700
17.86000 8.990
17.88000 13.027
17.90000 12.398
17.92000 4.919
17.94000 4.695
17.96000 11.695
17.98000 6.290
18.00000 -1.308
18.02000 0.632
18.04000 2.403
18.06000 2.009
18.08000 1.292
18.10000 4.738
18.12000 5.361
18.14000 4.396
18.16000 -3.218
18.18000 3.074
18.20000 0.472
18.22000 4.197
18.24000 2.874
18.26000 6.231
18.28000 9.831
18.30000 -2.115
18.32000 -4.158
18.34000 -4.336
18.36000 8.607
18.38000 0.836
18.40000 -1.265
18.42000 -1.383
18.44000 -2.121
18.46000 4.971
18.48000 6.110
18.50000 11.952
18.52000 2.499
18.54000 -0.683
18.56000 1.315
18.58000 5.892
18.60000 4.340
18.62000 5.503
18.64000 -1.319
18.66000 -2.613
18.68000 3.511
18.70000 0.348
18.72000 -4.269
18.74000 3.026
18.76000 2.932
18.78000 6.139
18.80000 7.917
18.82000 3.934
18.84000 5.246
18.86000 2.114
18.88000 4.201
18.90000 7.065
18.92000 6.100
18.94000 10.147
18.96000 8.543
18.98000 5.079
19.00000 5.614
19.02000 3.048
19.04000 -0.489
19.06000 -3.744
19.08000 1.170
19.10000 3.943
19.12000 -4.297
19.14000 0.297
19.16000 1.426
19.18000 2.306
19.20000 2.760
19.22000 1.743
19.24000 2.683
19.26000 -1.833
19.28000 -2.106
19.30000 4.391
19.32000 5.709
19.34000 5.768
19.36000 5.084
19.38000 1.000
19.40000 3.573
19.42000 3.088
19.44000 -0.741
19.46000 -2.789
19.48000 -0.439
19.50000 5.862
19.52000 3.184
19.54000 1.839
19.56000 1.434
19.58000 -1.659
19.60000 2.379
19.62000 0.398
19.64000 -0.218
19.66000 2.125
19.68000 -1.323
19.70000 8.058
19.72000 9.784
19.74000 6.704
19.76000 3.072
19.78000 3.365
19.80000 2.963
19.82000 9.845
19.84000 6.646
19.86000 -1.192
19.88000 -1.441
19.90000 -1.566
19.92000 -0.301
19.94000 7.629
19.96000 7.004
19.98000 10.086
20.00000 12.731
20.02000 9.389
20.04000 7.723
20.06000 5.835
20.08000 7.093
20.10000 0.301
20.12000 0.142
20.14000 1.941
20.16000 1.569
20.18000 1.361
20.20000 0.313
20.22000 -0.974
20.24000 3.492
20.26000 8.100
20.28000 4.804
20.30000 2.319
20.32000 -1.067
20.34000 -4.240
20.36000 3.110
20.38000 8.965
20.40000 6.413
20.42000 3.827
20.44000 5.696
20.46000 12.174
20.48000 8.379
20.50000 11.252
20.52000 7.031
20.54000 0.531
20.56000 5.242
20.58000 4.612
20.60000 2.159
20.62000 1.870
20.64000 3.170
20.66000 8.922
20.68000 5.949
20.70000 7.776
20.72000 10.787
20.74000 5.685
20.76000 3.646
20.78000 6.293
20.80000 3.006
20.82000 3.548
20.84000 0.691
20.86000 8.956
20.88000 7.159
20.90000 5.849
20.92000 5.552
20.94000 3.791
20.96000 1.136
20.98000 1.866
21.00000 -1.973
21.02000 5.459
21.04000 6.307
21.06000 3.352
21.08000 -1.017
21.10000 3.225
21.12000 -0.248
21.14000 -4.175
21.16000 0.623
21.18000 9.802
21.20000 8.452
21.22000 -0.608
21.24000 -0.223
21.26000 -2.001
21.28000 1.181
21.30000 0.869
21.32000 6.992
21.34000 7.765
21.36000 6.810
21.38000 2.042
21.40000 1.184
21.42000 -0.228
21.44000 4.337
21.46000 4.850
21.48000 4.928
21.50000 7.483
21.52000 3.827
21.54000 3.696
21.56000 6.508
21.58000 6.933
21.60000 9.203
21.62000 6.991
21.64000 8.711
21.66000 7.645
21.68000 5.617
21.70000 0.768
21.72000 -1.014
21.74000 2.548
21.76000 -0.850
21.78000 0.778
21.80000 -0.560
21.82000 2.927
21.84000 -0.572
21.86000 1.446
21.88000 4.283
21.90000 5.437
21.92000 6.206
21.94000 6.026
21.96000 5.245
21.98000 4.290
22.00000 3.677
22.02000 5.596
22.04000 0.823
22.06000 -2.806
22.08000 0.023
22.10000 -3.812
22.12000 -1.270
22.14000 4.761
22.16000 3.504
22.18000 4.770
22.20000 2.105
22.22000 0.143
22.24000 2.046
22.26000 5.051
22.28000 9.197
22.30000 9.905
22.32000 2.508
22.34000 1.593
22.36000 -1.006
22.38000 2.574
22.40000 16.674
22.42000 12.943
22.44000 1.926
22.46000 2.788
22.48000 4.727
22.50000 3.663
22.52000 1.955
22.54000 5.520
22.56000 8.172
22.58000 2.302
22.60000 -4.095
22.62000 1.196
22.64000 5.757
22.66000 7.137
22.68000 8.123
22.70000 3.707
22.72000 0.143
22.74000 5.773
22.76000 11.732
22.78000 4.438
22.80000 0.800
22.82000 6.374
22.84000 7.492
22.86000 2.257
22.88000 6.948
22.90000 2.009
22.92000 -2.248
22.94000 1.835
22.96000 3.043
22.98000 2.504
23.00000 2.708
23.02000 4.123
23.04000 4.182
23.06000 5.799
23.08000 8.155
23.10000 2.830
23.12000 0.735
23.14000 1.629
23.16000 3.896
23.18000 -2.897
23.20000 1.744
23.22000 9.601
23.24000 9.161
23.26000 5.043
23.28000 7.443
23.30000 8.996
23.32000 3.409
23.34000 -2.950
23.36000 -1.040
23.38000 -0.180
23.40000 0.538
23.42000 2.032
23.44000 1.272
23.46000 1.141
23.48000 -0.465
23.50000 3.347
23.52000 -1.545
23.54000 -3.637
23.56000 -2.984
23.58000 -2.589
23.60000 -0.528
23.62000 3.984
23.64000 2.768
23.66000 2.072
23.68000 -0.984
23.70000 -4.050
23.72000 2.306
23.74000 4.111
23.76000 4.380
23.78000 5.446
23.80000 -0.599
23.82000 -0.742
23.84000 -3.271
23.86000 1.496
23.88000 -0.107
23.90000 3.247
23.92000 3.719
23.94000 2.446
23.96000 1.369
23.98000 4.396
24.00000 5.094
24.02000 1.113
24.04000 4.144
24.06000 4.898
24.08000 0.227
24.10000 -1.731
24.12000 -0.537
24.14000 5.645
24.16000 3.429
24.18000 3.133
24.20000 4.661
24.22000 3.471
24.24000 7.321
24.26000 3.430
24.28000 3.392
24.30000 3.353
24.32000 2.985
24.34000 3.980
24.36000 5.295
24.38000 6.642
24.40000 6.761
24.42000 3.343
24.44000 3.819
24.46000 5.718
24.48000 5.029
24.50000 7.014
24.52000 11.687
24.54000 7.916
24.56000 4.680
24.58000 1.204
24.60000 -2.442
24.62000 -1.394
24.64000 6.710
24.66000 5.125
24.68000 6.317
24.70000 1.197
24.72000 -3.973
24.74000 1.160
24.76000 6.893
24.78000 8.850
24.80000 8.229
24.82000 9.090
24.84000 6.324
24.86000 8.300
24.88000 5.804
24.90000 8.891
24.92000 9.198
24.94000 9.246
24.96000 4.035
24.98000 5.479
25.00000 6.506
25.02000 4.346
25.04000 6.767
25.06000 7.551
25.08000 9.258
25.10000 7.231
25.12000 6.167
25.14000 4.807
25.16000 3.703
25.18000 4.385
25.20000 5.232
25.22000 2.018
25.24000 5.552
25.26000 7.636
25.28000 6.586
25.30000 5.704
25.32000 8.206
25.34000 8.793
25.36000 6.198
25.38000 6.995
25.40000 3.257
25.42000 2.184
25.44000 -1.456
25.46000 -2.155
25.48000 3.690
25.50000 7.600
25.52000 12.549
25.54000 8.866
25.56000 4.738
25.58000 0.959
25.60000 -3.917
25.62000 2.050
25.64000 5.563
25.66000 1.475
25.68000 0.555
25.70000 7.288
25.72000 10.228
25.74000 5.962
25.76000 1.682
25.78000 2.188
25.80000 6.889
25.82000 0.667
25.84000 -3.031
25.86000 -0.796
25.88000 1.758
25.90000 5.749
25.92000 6.248
25.94000 6.593
25.96000 5.996
25.98000 4.931
26.00000 5.800
26.02000 8.152
26.04000 6.450
26.06000 2.305
26.08000 6.660
26.10000 8.217
26.12000 4.458
26.14000 4.380
26.16000 2.577
26.18000 -1.830
26.20000 -0.281
26.22000 1.084
26.24000 1.479
26.26000 3.865
26.28000 8.148
26.30000 4.718
26.32000 2.012
26.34000 6.213
26.36000 3.233
26.38000 2.075
26.40000 5.016
26.42000 -0.505
26.44000 3.462
26.46000 9.001
26.48000 1.468
26.50000 3.421
26.52000 4.172
26.54000 3.451
26.56000 5.537
26.58000 2.004
26.60000 6.873
26.62000 7.742
26.64000 5.302
26.66000 10.561
26.68000 6.111
26.70000 3.200
26.72000 5.632
26.74000 5.152
26.76000 7.980
26.78000 10.073
26.80000 1.909
26.82000 1.264
26.84000 2.325
26.86000 5.008
26.88000 -1.549
26.90000 -1.200
26.92000 -1.256
26.94000 4.910
26.96000 -0.975
26.98000 0.831
27.00000 5.194
27.02000 2.862
27.04000 2.915
27.06000 1.031
27.08000 1.102
27.10000 4.939
27.12000 7.146
27.14000 6.792
27.16000 -0.165
27.18000 1.912
27.20000 3.229
27.22000 0.933
27.24000 5.842
27.26000 11.376
27.28000 7.504
27.30000 -0.118
27.32000 1.166
27.34000 1.544
27.36000 7.759
27.38000 11.098
27.40000 12.148
27.42000 6.292
27.44000 8.093
27.46000 6.578
27.48000 5.904
27.50000 6.115
27.52000 3.887
27.54000 2.573
27.56000 3.853
27.58000 4.258
27.60000 4.485
27.62000 3.361
27.64000 -0.991
27.66000 -0.373
27.68000 4.374
27.70000 2.760
27.72000 6.146
27.74000 6.428
27.76000 -3.806
27.78000 1.677
27.80000 6.873
27.82000 9.165
27.84000 7.148
27.86000 6.473
27.88000 1.637
27.90000 0.350
27.92000 7.786
27.94000 5.804
27.96000 5.257
27.98000 3.021
28.00000 3.205
28.02000 1.719
28.04000 4.888
28.06000 4.022
28.08000 2.700
28.10000 -0.522
28.12000 5.366
28.14000 7.538
28.16000 -0.581
28.18000 0.768
28.20000 5.401
28.22000 2.903
28.24000 0.481
28.26000 2.496
28.28000 1.716
28.30000 0.681
28.32000 0.569
28.34000 4.707
28.36000 6.383
28.38000 1.328
28.40000 -2.491
28.42000 -1.064
28.44000 0.615
28.46000 6.971
28.48000 7.157
28.50000 5.454
28.52000 5.187
28.54000 2.739
28.56000 0.533
28.58000 0.390
28.60000 1.783
28.62000 3.408
28.64000 3.369
28.66000 0.689
28.68000 -1.236
28.70000 2.871
28.72000 -2.935
28.74000 -1.271
28.76000 0.936
28.78000 1.485
28.80000 5.616
28.82000 4.436
28.84000 2.168
28.86000 0.082
28.88000 -0.571
28.90000 1.801
28.92000 2.314
28.94000 -0.720
28.96000 0.698
28.98000 1.815
29.00000 -3.105
29.02000 -1.749
29.04000 0.298
29.06000 -1.235
29.08000 -0.446
29.10000 -0.093
29.12000 0.474
29.14000 4.040
29.16000 3.194
29.18000 6.074
29.20000 8.500
29.22000 1.623
29.24000 -3.676
29.26000 1.492
29.28000 -2.355
29.30000 -3.449
29.32000 -0.575
29.34000 2.084
29.36000 -0.693
29.38000 -3.340
29.40000 1.181
29.42000 -1.705
29.44000 -0.938
29.46000 -2.508
29.48000 2.051
29.50000 2.724
29.52000 -0.408
29.54000 2.276
29.56000 4.932
29.58000 5.465
29.60000 3.467
29.62000 7.991
29.64000 5.248
29.66000 1.732
29.68000 -0.274
29.70000 3.838
29.72000 1.128
29.74000 -1.493
29.76000 -3.746
29.78000 0.777
29.80000 4.588
29.82000 5.850
29.84000 -2.418
29.86000 -2.733
29.88000 2.296
29.90000 5.882
29.92000 8.765
29.94000 7.721
29.96000 6.566
29.98000 0.593
30.00000 -2.100
30.02000 2.657
30.04000 3.949
30.06000 1.505
30.08000 1.921
30.10000 1.289
30.12000 0.546
30.14000 -3.721
30.16000 1.642
30.18000 3.835
30.20000 -0.810
30.22000 0.751
30.24000 5.284
30.26000 0.101
30.28000 0.040
30.30000 2.738
30.32000 -3.568
30.34000 0.532
30.36000 2.551
30.38000 2.770
30.40000 5.260
30.42000 3.616
30.44000 4.272
30.46000 4.042
30.48000 4.620
30.50000 2.009
30.52000 4.513
30.54000 5.183
30.56000 1.359
30.58000 0.668
30.60000 -3.686
30.62000 -3.464
30.64000 -0.661
30.66000 -0.007
30.68000 -2.628
30.70000 0.078
30.72000 6.052
30.74000 4.394
30.76000 4.649
30.78000 6.652
30.80000 3.955
30.82000 4.861
30.84000 0.687
30.86000 2.644
30.88000 5.769
30.90000 4.387
30.92000 0.875
30.94000 3.321
30.96000 6.776
30.98000 5.763
31.00000 0.871
31.02000 -0.149
31.04000 3.966
31.06000 1.277
31.08000 5.473
31.10000 0.741
31.12000 -2.719
31.14000 4.243
31.16000 5.768
31.18000 0.849
31.20000 -2.265
31.22000 -3.649
31.24000 0.026
31.26000 3.566
31.28000 1.861
31.30000 1.153
31.32000 5.192
31.34000 3.771
31.36000 4.216
31.38000 2.307
31.40000 2.127
31.42000 6.652
31.44000 4.967
31.46000 2.477
31.48000 -1.122
31.50000 1.489
31.52000 1.551
31.54000 3.712
31.56000 2.854
31.58000 -0.334
31.60000 -0.841
31.62000 5.973
31.64000 5.232
31.66000 5.248
31.68000 1.784
31.70000 3.788
31.72000 4.926
31.74000 3.423
31.76000 5.501
31.78000 1.264
31.80000 -1.840
31.82000 0.557
31.84000 4.126
31.86000 5.722
31.88000 4.269
31.90000 0.202
31.92000 3.090
31.94000 4.328
31.96000 3.049
31.98000 2.234
32.00000 2.683
32.02000 3.701
32.04000 0.206
32.06000 1.066
32.08000 0.278
32.10000 0.276
32.12000 3.568
32.14000 2.722
32.16000 -0.148
32.18000 -0.920
32.20000 -1.964
32.22000 1.034
32.24000 1.164
32.26000 2.424
32.28000 1.761
32.30000 2.354
32.32000 -0.125
32.34000 -1.650
32.36000 4.165
32.38000 4.239
32.40000 4.690
32.42000 1.899
32.44000 1.269
32.46000 7.346
32.48000 8.253
32.50000 2.252
32.52000 1.744
32.54000 6.179
32.56000 5.950
32.58000 6.668
32.60000 2.785
32.62000 0.398
32.64000 4.957
32.66000 0.978
32.68000 1.568
32.70000 1.027
32.72000 2.465
32.74000 6.511
32.76000 1.789
32.78000 1.857
32.80000 4.016
32.82000 1.462
32.84000 -0.579
32.86000 -1.030
32.88000 -2.379
32.90000 -3.609
32.92000 1.484
32.94000 3.565
32.96000 -0.244
32.98000 -0.039
33.00000 -1.411
33.02000 -2.106
33.04000 2.712
33.06000 2.661
33.08000 2.685
33.10000 2.437
33.12000 -0.941
33.14000 1.912
33.16000 8.306
33.18000 5.760
33.20000 2.656
33.22000 2.704
33.24000 4.773
33.26000 4.333
33.28000 4.235
33.30000 3.694
33.32000 5.849
33.34000 2.625
33.36000 -2.004
33.38000 -3.594
33.40000 -0.054
33.42000 0.476
33.44000 5.938
33.46000 11.951
33.48000 6.083
33.50000 2.789
33.52000 6.088
33.54000 2.043
33.56000 2.425
33.58000 4.069
33.60000 0.300
33.62000 -2.057
33.64000 0.495
33.66000 4.945
33.68000 1.632
33.70000 3.002
33.72000 2.665
33.74000 3.951
33.76000 3.641
33.78000 0.987
33.80000 -0.077
33.82000 -1.719
33.84000 2.896
33.86000 3.299
33.88000 2.809
33.90000 -1.016
33.92000 -1.235
33.94000 4.143
33.96000 4.178
33.98000 0.327
34.00000 -0.093
34.02000 -3.203
34.04000 -0.629
34.06000 -1.229
34.08000 -2.326
34.10000 3.060
34.12000 4.919
34.14000 7.833
34.16000 6.409
34.18000 6.767
34.20000 4.579
34.22000 0.240
34.24000 -1.315
34.26000 2.773
34.28000 3.997
34.30000 4.726
34.32000 4.474
34.34000 3.112
34.36000 3.068
34.38000 3.470
34.40000 -0.614
34.42000 1.090
34.44000 5.995
34.46000 2.996
34.48000 3.389
34.50000 2.010
34.52000 -0.481
34.54000 3.336
34.56000 1.744
34.58000 0.439
34.60000 -1.288
34.62000 1.216
34.64000 0.056
34.66000 -1.507
34.68000 0.156
34.70000 3.613
34.72000 1.534
34.74000 0.022
34.76000 1.865
34.78000 -1.084
34.80000 -1.932
34.82000 2.074
34.84000 2.618
34.86000 -1.133
34.88000 0.104
34.90000 7.066
34.92000 3.850
34.94000 2.407
34.96000 -0.273
34.98000 1.784
35.00000 -2.959
35.02000 -3.448
35.04000 1.700
35.06000 3.161
35.08000 2.872
35.10000 -0.189
35.12000 -0.950
35.14000 1.850
35.16000 1.700
35.18000 1.431
35.20000 3.673
35.22000 4.691
35.24000 0.410
35.26000 3.581
35.28000 2.028
35.30000 4.289
35.32000 4.063
35.34000 4.161
35.36000 4.339
35.38000 7.879
35.40000 3.900
35.42000 2.120
35.44000 1.006
35.46000 3.771
35.48000 -3.519
35.50000 2.050
35.52000 8.773
35.54000 8.017
35.56000 5.243
35.58000 6.559
35.60000 6.568
35.62000 3.292
35.64000 -0.845
35.66000 3.297
35.68000 2.682
35.70000 -2.547
35.72000 0.770
35.74000 -0.800
35.76000 1.240
35.78000 1.380
35.80000 0.173
35.82000 2.636
35.84000 0.551
35.86000 4.549
35.88000 5.783
35.90000 6.055
35.92000 7.304
35.94000 5.625
35.96000 3.578
35.98000 3.755
36.00000 2.417
36.02000 -0.780
36.04000 -2.634
36.06000 4.204
36.08000 10.128
36.10000 7.260
36.12000 2.968
36.14000 5.783
36.16000 7.282
36.18000 3.358
36.20000 4.995
36.22000 4.416
36.24000 4.893
36.26000 3.276
36.28000 3.793
36.30000 1.556
36.32000 -0.709
36.34000 0.917
36.36000 4.959
36.38000 3.744
36.40000 3.970
36.42000 7.863
36.44000 7.420
36.46000 5.752
36.48000 0.854
36.50000 -3.518
36.52000 -0.658
36.54000 5.904
36.56000 8.526
36.58000 3.611
36.60000 -2.908
36.62000 3.720
36.64000 6.213
36.66000 4.181
36.68000 2.751
36.70000 0.799
36.72000 -0.471
36.74000 0.442
36.76000 0.629
36.78000 3.215
36.80000 -0.264
36.82000 1.788
36.84000 5.100
36.86000 0.950
36.88000 5.259
36.90000 6.709
36.92000 3.432
36.94000 1.768
36.96000 2.796
36.98000 2.763
37.00000 -2.965
37.02000 -3.395
37.04000 2.249
37.06000 5.572
37.08000 8.592
37.10000 4.258
37.12000 0.064
37.14000 -2.919
37.16000 6.483
37.18000 4.717
37.20000 0.204
37.22000 7.973
37.24000 11.039
37.26000 7.991
37.28000 3.127
37.30000 -0.659
37.32000 3.823
37.34000 7.141
37.36000 2.889
37.38000 4.795
37.40000 1.372
37.42000 -0.660
37.44000 1.729
37.46000 1.561
37.48000 -0.067
37.50000 -3.615
37.52000 -1.577
37.54000 -3.389
37.56000 -0.877
37.58000 0.304
37.60000 -3.110
37.62000 0.850
37.64000 3.821
37.66000 6.580
37.68000 3.962
37.70000 3.504
37.72000 6.939
37.74000 7.939
37.76000 2.337
37.78000 0.760
37.80000 5.938
37.82000 2.258
37.84000 1.856
37.86000 6.106
37.88000 6.057
37.90000 1.458
37.92000 -0.213
37.94000 4.914
37.96000 7.882
37.98000 6.191
38.00000 5.034
38.02000 5.555
38.04000 6.868
38.06000 8.045
38.08000 4.177
38.10000 7.357
38.12000 9.366
38.14000 8.884
38.16000 4.761
38.18000 3.694
38.20000 9.959
38.22000 11.737
38.24000 13.700
38.26000 12.817
38.28000 8.453
38.30000 8.946
38.32000 11.063
38.34000 13.563
38.36000 18.097
38.38000 17.208
38.40000 13.072
38.42000 10.168
38.44000 14.755
38.46000 14.535
38.48000 12.685
38.50000 13.480
38.52000 20.549
38.54000 17.120
38.56000 13.967
38.58000 14.147
38.60000 19.188
38.62000 23.943
38.64000 25.102
38.66000 21.385
38.68000 17.370
38.70000 18.369
38.72000 18.692
38.74000 18.689
38.76000 22.005
38.78000 27.633
38.80000 25.033
38.82000 26.795
38.84000 22.657
38.86000 23.751
38.88000 29.663
38.90000 33.736
38.92000 29.958
38.94000 32.561
38.96000 30.367
38.98000 30.230
39.00000 36.341
39.02000 39.140
39.04000 34.371
39.06000 31.823
39.08000 32.879
39.10000 37.683
39.12000 36.591
39.14000 43.218
39.16000 48.447
39.18000 47.868
39.20000 50.274
39.22000 47.995
39.24000 55.396
39.26000 51.333
39.28000 49.138
39.30000 51.650
39.32000 53.779
39.34000 55.370
39.36000 63.039
39.38000 66.578
39.40000 67.684
39.42000 72.599
39.44000 70.533
39.46000 75.799
39.48000 77.972
39.50000 79.959
39.52000 84.717
39.54000 85.858
39.56000 87.348
39.58000 96.679
39.60000 104.593
39.62000 98.685
39.64000 101.374
39.66000 107.595
39.68000 117.508
39.70000 126.365
39.72000 131.061
39.74000 136.913
39.76000 137.109
39.78000 143.842
39.80000 149.986
39.82000 163.559
39.84000 172.982
39.86000 184.343
39.88000 189.980
39.90000 202.123
39.92000 215.327
39.94000 217.370
39.96000 223.869
39.98000 234.509
40.00000 246.326
40.02000 255.501
40.04000 266.507
40.06000 277.317
40.08000 296.764
40.10000 318.800
40.12000 330.441
40.14000 340.917
40.16000 357.202
40.18000 372.580
40.20000 381.144
40.22000 401.983
40.24000 424.394
40.26000 438.947
40.28000 455.320
40.30000 473.877
40.32000 497.129
40.34000 510.913
40.36000 529.791
40.38000 549.037
40.40000 559.323
40.42000 569.196
40.44000 587.325
40.46000 602.425
40.48000 605.803
40.50000 609.946
40.52000 615.099
40.54000 624.605
40.56000 640.214
40.58000 648.508
40.60000 648.830
40.62000 652.235
40.64000 659.320
40.66000 658.764
40.68000 635.066
40.70000 633.355
40.72000 635.645
40.74000 621.617
40.76000 611.601
40.78000 606.277
40.80000 595.985
40.82000 590.205
40.84000 579.324
40.86000 549.775
40.88000 532.006
40.90000 508.691
40.92000 496.055
40.94000 479.739
40.96000 466.964
40.98000 445.863
41.00000 433.655
41.02000 417.713
41.04000 397.023
41.06000 374.884
41.08000 363.216
41.10000 347.039
41.12000 324.544
41.14000 304.341
41.16000 289.165
41.18000 281.813
41.20000 269.536
41.22000 252.909
41.24000 244.602
41.26000 227.959
41.28000 213.945
41.30000 210.789
41.32000 195.153
41.34000 188.208
41.36000 179.321
41.38000 164.309
41.40000 153.619
41.42000 148.799
41.44000 138.374
41.46000 131.305
41.48000 134.461
41.50000 128.644
41.52000 116.777
41.54000 110.639
41.56000 104.051
41.58000 95.748
41.60000 92.161
41.62000 89.981
41.64000 81.132
41.66000 76.804
41.68000 72.715
41.70000 70.304
41.72000 72.726
41.74000 70.402
41.76000 59.346
41.78000 54.216
41.80000 51.555
41.82000 54.113
41.84000 53.460
41.86000 45.676
41.88000 43.353
41.90000 44.257
41.92000 43.379
41.94000 40.754
41.96000 34.124
41.98000 34.732
42.00000 27.697
42.02000 30.773
42.04000 30.605
42.06000 28.297
42.08000 27.467
42.10000 24.473
42.12000 24.550
42.14000 25.316
42.16000 24.358
42.18000 18.830
42.20000 18.517
42.22000 18.200
42.24000 14.552
42.26000 13.073
42.28000 10.189
42.30000 13.353
42.32000 16.617
42.34000 11.547
42.36000 10.167
42.38000 11.815
42.40000 13.740
42.42000 7.656
42.44000 8.779
42.46000 10.623
42.48000 13.835
42.50000 10.208
42.52000 8.409
42.54000 6.863
42.56000 3.673
42.58000 3.901
42.60000 3.629
42.62000 6.701
42.64000 6.914
42.66000 8.324
42.68000 9.474
42.70000 7.613
42.72000 8.979
42.74000 6.705
42.76000 2.052
42.78000 3.351
42.80000 3.162
42.82000 -1.089
42.84000 2.990
42.86000 3.126
42.88000 5.124
42.90000 3.481
42.92000 2.448
42.94000 4.664
42.96000 5.060
42.98000 1.470
43.00000 0.819
43.02000 -2.017
43.04000 0.235
43.06000 -1.471
43.08000 0.829
43.10000 2.956
43.12000 4.850
43.14000 2.115
43.16000 -1.812
43.18000 0.260
43.20000 2.340
43.22000 -2.440
43.24000 -2.521
43.26000 -0.271
43.28000 -1.301
43.30000 -0.663
43.32000 -2.009
43.34000 -0.544
43.36000 -1.408
43.38000 -3.286
43.40000 -3.606
43.42000 -1.221
43.44000 1.046
43.46000 4.852
43.48000 0.513
43.50000 -1.353
43.52000 3.066
43.54000 2.485
43.56000 0.227
43.58000 2.633
43.60000 5.929
43.62000 3.328
43.64000 -1.429
43.66000 -1.916
43.68000 2.256
43.70000 -0.755
43.72000 -3.560
43.74000 0.372
43.76000 -1.912
43.78000 2.195
43.80000 2.996
43.82000 1.574
43.84000 4.741
43.86000 5.351
43.88000 9.061
43.90000 7.967
43.92000 2.760
43.94000 -2.724
43.96000 2.766
43.98000 8.106
44.00000 7.842
44.02000 5.603
44.04000 5.900
44.06000 4.835
44.08000 4.763
44.10000 4.847
44.12000 1.083
44.14000 1.777
44.16000 0.664
44.18000 4.154
44.20000 6.792
44.22000 9.887
44.24000 7.313
44.26000 3.375
44.28000 7.345
44.30000 5.857
44.32000 2.676
44.34000 -3.463
44.36000 4.065
44.38000 5.246
44.40000 7.402
44.42000 4.472
44.44000 4.748
44.46000 2.700
44.48000 -0.206
44.50000 3.343
44.52000 2.445
44.54000 3.899
44.56000 5.403
44.58000 -0.064
44.60000 -0.346
44.62000 2.324
44.64000 2.659
44.66000 1.940
44.68000 2.002
44.70000 7.750
44.72000 5.710
44.74000 1.395
44.76000 1.897
44.78000 7.532
44.80000 7.816
44.82000 1.725
44.84000 5.658
44.86000 9.125
44.88000 3.102
44.90000 0.255
44.92000 2.833
44.94000 8.487
44.96000 9.135
44.98000 8.121
45.00000 5.880
45.02000 5.146
45.04000 8.195
45.06000 10.332
45.08000 12.693
45.10000 8.430
45.12000 5.094
45.14000 7.069
45.16000 5.768
45.18000 9.855
45.20000 7.057
45.22000 0.998
45.24000 -0.533
45.26000 0.984
45.28000 12.251
45.30000 14.431
45.32000 14.523
45.34000 10.310
45.36000 13.843
45.38000 13.234
45.40000 11.489
45.42000 9.234
45.44000 12.719
45.46000 10.961
45.48000 6.272
45.50000 8.067
45.52000 9.615
45.54000 8.019
45.56000 12.641
45.58000 16.453
45.60000 14.250
45.62000 11.546
45.64000 9.869
45.66000 7.272
45.68000 12.817
45.70000 15.058
45.72000 11.326
45.74000 8.234
45.76000 15.469
45.78000 16.252
45.80000 16.784
45.82000 17.649
45.84000 13.432
45.86000 11.479
45.88000 13.187
45.90000 13.827
45.92000 14.771
45.94000 21.424
45.96000 28.069
45.98000 22.001
46.00000 15.384
46.02000 18.842
46.04000 22.092
46.06000 21.735
46.08000 28.060
46.10000 20.426
46.12000 25.939
46.14000 29.810
46.16000 28.096
46.18000 31.460
46.20000 35.064
46.22000 34.556
46.24000 27.871
46.26000 38.663
46.28000 45.501
46.30000 39.620
46.32000 36.804
46.34000 35.773
46.36000 37.781
46.38000 43.861
46.40000 40.997
46.42000 43.448
46.44000 43.745
46.46000 46.376
46.48000 46.971
46.50000 45.902
46.52000 49.491
46.54000 58.412
46.56000 58.139
46.58000 56.052
46.60000 52.370
46.62000 52.853
46.64000 57.415
46.66000 54.942
46.68000 57.610
46.70000 61.119
46.72000 62.603
46.74000 66.628
46.76000 67.767
46.78000 65.320
46.80000 67.399
46.82000 64.894
46.84000 61.874
46.86000 66.291
46.88000 66.647
46.90000 66.795
46.92000 73.032
46.94000 80.431
46.96000 82.001
46.98000 79.849
47.00000 76.425
47.02000 76.957
47.04000 81.305
47.06000 82.797
47.08000 79.093
47.10000 77.502
47.12000 79.914
47.14000 87.854
47.16000 75.848
47.18000 75.282
47.20000 81.928
47.22000 79.396
47.24000 75.909
47.26000 77.228
47.28000 75.372
47.30000 68.756
47.32000 70.010
47.34000 74.448
47.36000 73.791
47.38000 77.248
47.40000 78.848
47.42000 77.319
47.44000 72.008
47.46000 75.684
47.48000 78.215
47.50000 76.615
47.52000 76.108
47.54000 74.892
47.56000 67.579
47.58000 61.517
47.60000 57.682
47.62000 57.517
47.64000 58.240
47.66000 60.967
47.68000 57.932
47.70000 64.033
47.72000 57.983
47.74000 52.152
47.76000 56.832
47.78000 54.864
47.80000 49.958
47.82000 51.870
47.84000 48.690
47.86000 47.272
47.88000 40.256
47.90000 42.080
47.92000 44.072
47.94000 41.946
47.96000 41.633
47.98000 40.029
48.00000 35.478
48.02000 29.288
48.04000 30.130
48.06000 28.252
48.08000 27.326
48.10000 25.787
48.12000 26.984
48.14000 26.713
48.16000 20.863
48.18000 16.681
48.20000 24.028
48.22000 26.350
48.24000 26.989
48.26000 30.599
48.28000 25.516
48.30000 24.738
48.32000 22.826
48.34000 20.520
48.36000 14.605
48.38000 18.070
48.40000 17.053
48.42000 15.478
48.44000 18.520
48.46000 13.305
48.48000 9.831
48.50000 9.159
48.52000 8.248
48.54000 11.314
48.56000 16.403
48.58000 11.431
48.60000 5.639
48.62000 11.894
48.64000 13.843
48.66000 10.898
48.68000 5.126
48.70000 6.122
48.72000 10.061
48.74000 13.796
48.76000 7.873
48.78000 2.630
48.80000 2.863
48.82000 -1.445
48.84000 3.450
48.86000 5.587
48.88000 4.836
48.90000 6.368
48.92000 3.705
48.94000 7.828
48.96000 5.782
48.98000 5.794
49.00000 8.519
49.02000 6.732
49.04000 5.933
49.06000 2.668
49.08000 6.383
49.10000 3.130
49.12000 -3.165
49.14000 2.337
49.16000 10.880
49.18000 9.962
49.20000 4.780
49.22000 4.953
49.24000 6.721
49.26000 2.973
49.28000 9.845
49.30000 7.943
49.32000 0.546
49.34000 4.529
49.36000 6.007
49.38000 7.255
49.40000 9.071
49.42000 4.781
49.44000 2.418
49.46000 -2.487
49.48000 -0.757
49.50000 1.145
49.52000 5.253
49.54000 2.557
49.56000 -1.356
49.58000 3.886
49.60000 8.365
49.62000 9.296
49.64000 3.171
49.66000 2.741
49.68000 5.048
49.70000 10.450
49.72000 2.929
49.74000 -0.895
49.76000 -0.347
49.78000 3.722
49.80000 10.637
49.82000 4.773
49.84000 2.831
49.86000 2.115
49.88000 1.423
49.90000 0.282
49.92000 5.061
49.94000 1.739
49.96000 2.698
49.98000 5.958
50.00000 4.723
50.02000 1.428
50.04000 3.704
50.06000 3.245
50.08000 0.872
50.10000 4.133
50.12000 4.362
50.14000 3.380
50.16000 5.753
50.18000 7.410
50.20000 5.567
50.22000 3.052
50.24000 5.984
50.26000 6.014
50.28000 6.626
50.30000 6.116
50.32000 5.287
50.34000 4.642
50.36000 3.953
50.38000 5.979
50.40000 6.874
50.42000 2.462
50.44000 -0.517
50.46000 3.575
50.48000 -0.678
50.50000 3.006
50.52000 3.992
50.54000 -3.010
50.56000 -1.485
50.58000 5.196
50.60000 7.828
50.62000 5.853
50.64000 6.615
50.66000 8.270
50.68000 6.688
50.70000 2.578
50.72000 -0.052
50.74000 2.787
50.76000 2.439
50.78000 2.319
50.80000 6.471
50.82000 6.309
50.84000 7.260
50.86000 3.517
50.88000 -1.025
50.90000 3.590
50.92000 5.142
50.94000 4.161
50.96000 4.690
50.98000 2.753
51.00000 2.020
51.02000 1.262
51.04000 2.372
51.06000 0.905
51.08000 3.992
51.10000 4.762
51.12000 5.121
51.14000 3.047
51.16000 -0.025
51.18000 -0.988
51.20000 2.947
51.22000 4.609
51.24000 0.373
51.26000 -0.362
51.28000 2.737
51.30000 0.740
51.32000 0.050
51.34000 1.611
51.36000 5.314
51.38000 0.345
51.40000 1.464
51.42000 1.870
51.44000 3.430
51.46000 3.302
51.48000 2.331
51.50000 5.256
51.52000 -0.084
51.54000 0.643
51.56000 -1.443
51.58000 0.391
51.60000 1.302
51.62000 -1.137
51.64000 4.755
51.66000 6.443
51.68000 6.098
51.70000 -2.993
51.72000 -2.210
51.74000 -0.015
51.76000 2.195
51.78000 -0.871
51.80000 0.746
51.82000 3.891
51.84000 4.959
51.86000 2.463
51.88000 2.147
51.90000 3.905
51.92000 5.266
51.94000 6.062
51.96000 2.564
51.98000 2.924
52.00000 4.114
52.02000 4.530
52.04000 5.043
52.06000 -1.075
52.08000 -1.361
52.10000 1.962
52.12000 -1.289
52.14000 1.305
52.16000 4.953
52.18000 4.416
52.20000 0.314
52.22000 0.407
52.24000 1.972
52.26000 0.851
52.28000 9.708
52.30000 6.598
52.32000 3.513
52.34000 4.695
52.36000 6.769
52.38000 4.844
52.40000 3.052
52.42000 3.451
52.44000 5.723
52.46000 5.166
52.48000 5.147
52.50000 4.464
52.52000 2.726
52.54000 -1.701
52.56000 1.963
52.58000 7.510
52.60000 4.073
52.62000 -2.222
52.64000 2.981
52.66000 2.554
52.68000 0.576
52.70000 0.230
52.72000 2.131
52.74000 2.825
52.76000 0.823
52.78000 -2.654
52.80000 -1.475
52.82000 6.107
52.84000 3.852
52.86000 0.007
52.88000 3.026
52.90000 6.012
52.92000 9.085
52.94000 4.428
52.96000 0.914
52.98000 6.386
53.00000 5.452
53.02000 4.302
53.04000 2.449
53.06000 6.683
53.08000 5.734
53.10000 1.244
53.12000 0.296
53.14000 9.103
53.16000 10.776
53.18000 5.305
53.20000 3.712
53.22000 2.688
53.24000 5.923
53.26000 5.731
53.28000 6.553
53.30000 4.923
53.32000 4.895
53.34000 10.183
53.36000 6.366
53.38000 2.146
53.40000 -2.919
53.42000 2.309
53.44000 4.521
53.46000 7.705
53.48000 5.738
53.50000 5.352
53.52000 10.085
53.54000 8.608
53.56000 3.930
53.58000 6.082
53.60000 5.674
53.62000 9.604
53.64000 6.127
53.66000 3.803
53.68000 -2.908
53.70000 4.262
53.72000 6.809
53.74000 1.337
53.76000 -1.610
53.78000 -1.173
53.80000 4.084
53.82000 6.636
53.84000 3.327
53.86000 4.022
53.88000 5.571
53.90000 7.622
53.92000 3.174
53.94000 -0.545
53.96000 1.347
53.98000 1.581
54.00000 2.120
54.02000 4.438
54.04000 4.367
54.06000 2.147
54.08000 1.455
54.10000 0.641
54.12000 -0.202
54.14000 -1.780
54.16000 1.576
54.18000 1.247
54.20000 -0.550
54.22000 3.511
54.24000 10.283
54.26000 6.669
54.28000 5.757
54.30000 3.356
54.32000 1.395
54.34000 8.476
54.36000 5.942
54.38000 10.030
54.40000 1.099
54.42000 -0.724
54.44000 -0.970
54.46000 2.176
54.48000 2.100
54.50000 2.652
54.52000 2.720
54.54000 0.231
54.56000 1.069
54.58000 9.137
54.60000 10.049
54.62000 8.578
54.64000 7.633
54.66000 7.416
54.68000 3.480
54.70000 1.676
54.72000 -0.717
54.74000 4.052
54.76000 -2.864
54.78000 1.251
54.80000 -2.862
54.82000 -0.763
54.84000 3.485
54.86000 6.887
54.88000 -1.811
54.90000 7.711
54.92000 9.636
54.94000 6.047
54.96000 6.585
54.98000 4.424
55.00000 10.433
55.02000 8.867
55.04000 5.901
55.06000 4.133
55.08000 -0.188
55.10000 -0.006
55.12000 0.689
55.14000 0.330
55.16000 -2.008
55.18000 4.493
55.20000 3.316
55.22000 5.069
55.24000 7.310
55.26000 6.040
55.28000 8.414
55.30000 10.127
55.32000 9.305
55.34000 5.914
55.36000 4.940
55.38000 1.089
55.40000 1.018
55.42000 1.456
55.44000 1.311
55.46000 8.083
55.48000 7.742
55.50000 6.370
55.52000 4.094
55.54000 -0.188
55.56000 0.876
55.58000 6.585
55.60000 5.008
55.62000 5.731
55.64000 4.298
55.66000 2.887
55.68000 4.080
55.70000 3.345
55.72000 4.916
55.74000 3.248
55.76000 6.882
55.78000 8.169
55.80000 1.298
55.82000 1.911
55.84000 -2.073
55.86000 0.684
55.88000 3.163
55.90000 6.931
55.92000 4.680
55.94000 6.803
55.96000 7.705
55.98000 4.329
56.00000 1.345
56.02000 1.503
56.04000 2.056
56.06000 2.228
56.08000 3.320
56.10000 7.314
56.12000 6.020
56.14000 3.809
56.16000 1.914
56.18000 2.616
56.20000 1.887
56.22000 9.785
56.24000 4.799
56.26000 2.719
56.28000 0.796
56.30000 4.916
56.32000 4.766
56.34000 5.594
56.36000 1.427
56.38000 3.424
56.40000 2.757
56.42000 1.181
56.44000 -1.821
56.46000 2.604
56.48000 -2.827
56.50000 2.040
56.52000 2.063
56.54000 1.698
56.56000 4.673
56.58000 1.976
56.60000 2.631
56.62000 3.761
56.64000 4.569
56.66000 8.534
56.68000 7.587
56.70000 4.860
56.72000 4.875
56.74000 6.477
56.76000 4.941
56.78000 4.958
56.80000 7.670
56.82000 4.827
56.84000 -0.413
56.86000 -2.575
56.88000 3.947
56.90000 6.115
56.92000 3.035
56.94000 2.808
56.96000 3.368
56.98000 1.064
57.00000 3.025
57.02000 6.283
57.04000 6.935
57.06000 4.570
57.08000 7.788
57.10000 6.684
57.12000 6.371
57.14000 6.668
57.16000 7.167
57.18000 8.786
57.20000 4.360
57.22000 4.012
57.24000 2.392
57.26000 6.179
57.28000 5.412
57.30000 3.167
57.32000 4.710
57.34000 8.901
57.36000 1.581
57.38000 0.914
57.40000 3.099
57.42000 1.964
57.44000 3.998
57.46000 6.362
57.48000 3.794
57.50000 7.617
57.52000 7.336
57.54000 5.034
57.56000 1.754
57.58000 -0.454
57.60000 0.238
57.62000 2.863
57.64000 4.320
57.66000 4.348
57.68000 4.734
57.70000 3.912
57.72000 3.568
57.74000 4.052
57.76000 7.113
57.78000 5.374
57.80000 6.777
57.82000 10.910
57.84000 13.148
57.86000 8.781
57.88000 5.093
57.90000 6.136
57.92000 7.242
57.94000 6.410
57.96000 6.839
57.98000 4.853
58.00000 0.388
58.02000 4.385
58.04000 -0.232
58.06000 -2.718
58.08000 -0.193
58.10000 6.218
58.12000 6.497
58.14000 9.580
58.16000 8.463
58.18000 5.977
58.20000 2.011
58.22000 5.214
58.24000 7.557
58.26000 7.307
58.28000 4.769
58.30000 7.707
58.32000 9.979
58.34000 9.630
58.36000 10.071
58.38000 5.182
58.40000 6.956
58.42000 11.104
58.44000 7.527
58.46000 17.692
58.48000 13.186
58.50000 7.144
58.52000 9.083
58.54000 1.514
58.56000 0.177
58.58000 4.593
58.60000 4.036
58.62000 10.386
58.64000 7.871
58.66000 6.768
58.68000 0.109
58.70000 2.646
58.72000 3.248
58.74000 6.209
58.76000 11.275
58.78000 8.444
58.80000 1.038
58.82000 1.692
58.84000 3.596
58.86000 6.458
58.88000 4.517
58.90000 5.255
58.92000 5.653
58.94000 2.330
58.96000 4.696
58.98000 3.116
59.00000 3.735
59.02000 5.905
59.04000 8.083
59.06000 2.466
59.08000 0.544
59.10000 -0.337
59.12000 4.079
59.14000 3.714
59.16000 3.865
59.18000 6.040
59.20000 5.696
59.22000 2.643
59.24000 2.069
59.26000 3.831
59.28000 1.968
59.30000 2.451
59.32000 3.679
59.34000 2.168
59.36000 2.346
59.38000 2.621
59.40000 -2.727
59.42000 -1.673
59.44000 1.751
59.46000 1.407
59.48000 1.661
59.50000 0.223
59.52000 -2.134
59.54000 4.215
59.56000 4.062
59.58000 0.902
59.60000 1.160
59.62000 -0.910
59.64000 -0.196
59.66000 1.121
59.68000 3.833
59.70000 6.461
59.72000 6.769
59.74000 7.994
59.76000 3.467
59.78000 3.064
59.80000 2.819
59.82000 0.629
59.84000 5.120
59.86000 3.385
59.88000 3.504
59.90000 2.747
59.92000 2.779
59.94000 6.498
59.96000 4.079
59.98000 0.080
60.00000 -2.397
60.02000 -2.718
60.04000 -2.359
60.06000 2.998
60.08000 2.945
60.10000 2.326
60.12000 6.058
60.14000 4.547
60.16000 3.902
60.18000 3.540
60.20000 -0.656
60.22000 -0.205
60.24000 2.247
60.26000 0.780
60.28000 -0.608
60.30000 -0.322
60.32000 3.178
60.34000 3.937
60.36000 4.539
60.38000 1.216
60.40000 1.276
60.42000 -0.221
60.44000 -0.226
60.46000 4.048
60.48000 0.674
60.50000 5.522
60.52000 7.379
60.54000 3.194
60.56000 -0.488
60.58000 1.752
60.60000 2.658
60.62000 0.374
60.64000 1.245
60.66000 -1.907
60.68000 -2.432
60.70000 0.060
60.72000 1.287
60.74000 1.384
60.76000 6.071
60.78000 5.149
60.80000 -1.242
60.82000 -0.132
60.84000 1.723
60.86000 2.066
60.88000 2.572
60.90000 -1.323
60.92000 -2.693
60.94000 1.489
60.96000 -0.526
60.98000 4.550
61.00000 4.920
61.02000 5.587
61.04000 5.161
61.06000 2.847
61.08000 0.377
61.10000 1.634
61.12000 1.027
61.14000 -1.712
61.16000 -1.840
61.18000 -1.114
61.20000 6.256
61.22000 4.216
61.24000 2.963
61.26000 5.351
61.28000 3.980
61.30000 -2.684
61.32000 1.008
61.34000 4.542
61.36000 3.438
61.38000 5.917
61.40000 9.897
61.42000 2.872
61.44000 0.730
61.46000 2.572
61.48000 5.888
61.50000 -0.290
61.52000 1.269
61.54000 1.955
61.56000 2.731
61.58000 7.800
61.60000 4.642
61.62000 0.074
61.64000 2.720
61.66000 3.833
61.68000 2.333
61.70000 0.165
61.72000 2.148
61.74000 6.754
61.76000 4.320
61.78000 5.321
61.80000 2.255
61.82000 4.364
61.84000 8.046
61.86000 8.860
61.88000 3.226
61.90000 2.397
61.92000 3.185
61.94000 4.214
61.96000 2.834
61.98000 1.277
62.00000 2.781
62.02000 3.580
62.04000 1.857
62.06000 0.568
62.08000 1.437
62.10000 4.278
62.12000 2.983
62.14000 4.678
62.16000 1.524
62.18000 0.634
62.20000 -0.658
62.22000 -1.119
62.24000 2.779
62.26000 2.950
62.28000 1.301
62.30000 2.450
62.32000 3.798
62.34000 4.377
62.36000 1.762
62.38000 -2.665
62.40000 1.686
62.42000 2.201
62.44000 2.070
62.46000 1.449
62.48000 3.106
62.50000 4.697
62.52000 3.189
62.54000 -1.420
62.56000 -1.297
62.58000 -2.296
62.60000 -0.487
62.62000 3.863
62.64000 5.104
62.66000 3.224
62.68000 0.966
62.70000 0.452
62.72000 2.075
62.74000 2.625
62.76000 -1.430
62.78000 3.445
62.80000 5.422
62.82000 3.741
62.84000 0.885
62.86000 3.673
62.88000 6.117
62.90000 3.608
62.92000 2.555
62.94000 -0.589
62.96000 1.110
62.98000 -2.643
63.00000 -0.147
63.02000 2.780
63.04000 2.745
63.06000 3.223
63.08000 1.440
63.10000 2.937
63.12000 4.945
63.14000 2.821
63.16000 3.947
63.18000 9.260
63.20000 8.960
63.22000 4.705
63.24000 4.461
63.26000 3.556
63.28000 3.324
63.30000 3.664
63.32000 2.264
63.34000 1.072
63.36000 -2.552
63.38000 -2.599
63.40000 0.342
63.42000 2.350
63.44000 2.808
63.46000 5.750
63.48000 4.466
63.50000 5.784
63.52000 3.112
63.54000 3.391
63.56000 1.925
63.58000 3.630
63.60000 -0.553
63.62000 2.144
63.64000 3.067
63.66000 5.013
63.68000 7.435
63.70000 1.608
63.72000 0.936
63.74000 1.064
63.76000 -1.169
63.78000 -1.102
63.80000 -2.171
63.82000 1.874
63.84000 3.868
63.86000 -1.760
63.88000 2.456
63.90000 1.958
63.92000 4.548
63.94000 1.168
63.96000 -1.148
63.98000 3.040
64.00000 1.752
64.02000 5.187
64.04000 7.177
64.06000 6.474
64.08000 4.965
64.10000 -0.378
64.12000 -2.637
64.14000 1.278
64.16000 2.039
64.18000 1.621
64.20000 4.039
64.22000 5.913
64.24000 5.465
64.26000 4.628
64.28000 -0.168
64.30000 -2.076
64.32000 0.304
64.34000 -0.574
64.36000 3.416
64.38000 -0.692
64.40000 3.215
64.42000 3.929
64.44000 2.748
64.46000 2.557
64.48000 4.115
64.50000 -0.646
64.52000 -0.949
64.54000 0.071
64.56000 2.856
64.58000 5.725
64.60000 6.572
64.62000 3.472
64.64000 1.349
64.66000 -0.246
64.68000 1.952
64.70000 4.045
64.72000 2.618
64.74000 0.766
64.76000 4.578
64.78000 4.727
64.80000 3.549
64.82000 1.427
64.84000 0.423
64.86000 -1.180
64.88000 -1.145
64.90000 1.817
64.92000 5.279
64.94000 5.061
64.96000 5.379
64.98000 0.604
65.00000 0.482
65.02000 3.259
65.04000 4.335
65.06000 1.554
65.08000 2.930
65.10000 0.184
65.12000 1.556
65.14000 1.545
65.16000 2.399
65.18000 -0.716
65.20000 -0.730
65.22000 0.682
65.24000 1.579
65.26000 2.081
65.28000 2.015
65.30000 -1.169
65.32000 -0.371
65.34000 2.637
65.36000 3.575
65.38000 0.287
65.40000 0.198
65.42000 0.977
65.44000 5.986
65.46000 6.759
65.48000 5.068
65.50000 7.153
65.52000 2.610
65.54000 4.421
65.56000 1.948
65.58000 2.698
65.60000 2.178
65.62000 1.771
65.64000 4.779
65.66000 4.233
65.68000 2.952
65.70000 -1.222
65.72000 -2.652
65.74000 1.799
65.76000 2.501
65.78000 0.880
65.80000 1.904
65.82000 0.480
65.84000 1.577
65.86000 5.872
65.88000 4.164
65.90000 2.056
65.92000 0.465
65.94000 -1.951
65.96000 0.495
65.98000 5.477
66.00000 1.864
66.02000 2.297
66.04000 -2.095
66.06000 -0.091
66.08000 -1.012
66.10000 2.586
66.12000 3.566
66.14000 -1.993
66.16000 0.242
66.18000 1.949
66.20000 6.934
66.22000 5.184
66.24000 2.170
66.26000 2.545
66.28000 3.630
66.30000 6.228
66.32000 8.087
66.34000 3.464
66.36000 2.119
66.38000 0.998
66.40000 -0.176
66.42000 0.979
66.44000 -1.964
66.46000 -0.041
66.48000 1.917
66.50000 3.452
66.52000 0.676
66.54000 0.958
66.56000 3.576
66.58000 2.182
66.60000 3.305
66.62000 0.626
66.64000 -0.478
66.66000 0.882
66.68000 2.067
66.70000 2.213
66.72000 -0.673
66.74000 -2.693
66.76000 0.919
66.78000 1.356
66.80000 2.136
66.82000 -0.570
66.84000 1.631
66.86000 3.769
66.88000 2.637
66.90000 4.003
66.92000 0.721
66.94000 1.185
66.96000 -0.259
66.98000 -2.359
67.00000 0.242
67.02000 3.263
67.04000 -0.483
67.06000 -1.763
67.08000 -1.816
67.10000 2.690
67.12000 4.026
67.14000 2.866
67.16000 1.654
67.18000 1.388
67.20000 4.638
67.22000 5.615
67.24000 1.631
67.26000 -0.163
67.28000 -2.732
67.30000 -1.025
67.32000 2.154
67.34000 2.640
67.36000 2.830
67.38000 3.718
67.40000 1.900
67.42000 5.993
67.44000 5.307
67.46000 3.640
67.48000 4.897
67.50000 3.648
67.52000 3.092
67.54000 3.062
67.56000 5.386
67.58000 2.332
67.60000 2.118
67.62000 4.005
67.64000 1.820
67.66000 1.951
67.68000 6.301
67.70000 5.006
67.72000 2.106
67.74000 8.446
67.76000 4.634
67.78000 4.382
67.80000 4.398
67.82000 4.506
67.84000 6.163
67.86000 3.065
67.88000 0.845
67.90000 3.939
67.92000 4.397
67.94000 3.280
67.96000 4.289
67.98000 10.250
68.00000 10.310
68.02000 11.346
68.04000 8.203
68.06000 9.749
68.08000 9.263
68.10000 9.362
68.12000 6.650
68.14000 5.239
68.16000 4.639
68.18000 10.273
68.20000 11.887
68.22000 10.919
68.24000 7.240
68.26000 9.955
68.28000 11.766
68.30000 9.253
68.32000 12.432
68.34000 13.829
68.36000 17.892
68.38000 13.531
68.40000 11.805
68.42000 14.530
68.44000 16.312
68.46000 19.882
68.48000 21.358
68.50000 19.582
68.52000 16.290
68.54000 18.483
68.56000 20.965
68.58000 21.182
68.60000 24.129
68.62000 25.394
68.64000 19.134
68.66000 20.944
68.68000 25.605
68.70000 23.591
68.72000 26.452
68.74000 25.230
68.76000 25.272
68.78000 27.063
68.80000 27.032
68.82000 22.864
68.84000 24.825
68.86000 27.805
68.88000 25.941
68.90000 24.432
68.92000 27.398
68.94000 31.149
68.96000 28.912
68.98000 30.569
69.00000 34.374
69.02000 38.743
69.04000 30.420
69.06000 28.423
69.08000 26.870
69.10000 25.351
69.12000 27.861
69.14000 34.989
69.16000 31.360
69.18000 27.967
69.20000 22.576
69.22000 28.323
69.24000 29.239
69.26000 24.906
69.28000 25.903
69.30000 28.268
69.32000 24.642
69.34000 29.348
69.36000 29.700
69.38000 30.000
69.40000 28.304
69.42000 26.271
69.44000 24.686
69.46000 26.427
69.48000 20.495
69.50000 14.354
69.52000 14.453
69.54000 20.102
69.56000 17.776
69.58000 17.510
69.60000 19.258
69.62000 20.084
69.64000 23.697
69.66000 22.058
69.68000 17.634
69.70000 14.992
69.72000 9.921
69.74000 10.535
69.76000 11.998
69.78000 12.029
69.80000 12.199
69.82000 10.883
69.84000 15.035
69.86000 17.676
69.88000 13.675
69.90000 11.732
69.92000 13.196
69.94000 11.559
69.96000 10.693
69.98000 9.663
70.00000 7.145
70.02000 7.403
70.04000 8.705
70.06000 6.220
70.08000 6.217
70.10000 6.860
70.12000 3.902
70.14000 5.742
70.16000 5.205
70.18000 7.980
70.20000 10.648
70.22000 6.198
70.24000 5.931
70.26000 6.023
70.28000 2.620
70.30000 0.801
70.32000 3.799
70.34000 5.896
70.36000 8.691
70.38000 5.146
70.40000 3.187
70.42000 5.450
70.44000 7.681
70.46000 6.081
70.48000 1.334
70.50000 1.041
70.52000 1.595
70.54000 2.989
70.56000 7.794
70.58000 6.326
70.60000 1.313
70.62000 -2.628
70.64000 2.386
70.66000 5.826
70.68000 5.795
70.70000 1.889
70.72000 -0.121
70.74000 -1.042
70.76000 -0.230
70.78000 2.818
70.80000 2.179
70.82000 3.442
70.84000 2.532
70.86000 -1.445
70.88000 5.079
70.90000 7.921
70.92000 6.405
70.94000 8.245
70.96000 0.277
70.98000 0.128
71.00000 1.470
71.02000 2.331
71.04000 4.697
71.06000 2.239
71.08000 2.580
71.10000 4.818
71.12000 -0.953
71.14000 1.833
71.16000 -1.940
71.18000 5.443
71.20000 1.014
71.22000 -0.408
71.24000 -2.451
71.26000 0.005
71.28000 -0.914
71.30000 1.105
71.32000 -2.569
71.34000 0.106
71.36000 -1.305
71.38000 1.329
71.40000 3.303
71.42000 4.602
71.44000 4.834
71.46000 2.438
71.48000 4.113
71.50000 7.573
71.52000 3.108
71.54000 3.301
71.56000 3.318
71.58000 3.168
71.60000 -0.268
71.62000 1.784
71.64000 4.267
71.66000 1.438
71.68000 2.706
71.70000 3.006
71.72000 1.670
71.74000 6.835
71.76000 2.484
71.78000 2.823
71.80000 -2.521
71.82000 -0.481
71.84000 4.073
71.86000 2.853
71.88000 5.426
71.90000 -1.216
71.92000 5.630
71.94000 3.865
71.96000 1.871
71.98000 7.567
72.00000 7.787
72.02000 1.430
72.04000 3.133
72.06000 5.151
72.08000 5.317
72.10000 1.430
72.12000 -0.003
72.14000 5.239
72.16000 5.557
72.18000 1.700
72.20000 1.677
72.22000 4.653
72.24000 -2.487
72.26000 -0.796
72.28000 -1.557
72.30000 1.965
72.32000 1.073
72.34000 1.939
72.36000 3.629
72.38000 0.431
72.40000 4.038
72.42000 1.210
72.44000 1.016
72.46000 2.238
72.48000 0.757
72.50000 -0.556
72.52000 1.688
72.54000 1.181
72.56000 -1.444
72.58000 0.696
72.60000 1.364
72.62000 0.841
72.64000 1.782
72.66000 2.902
72.68000 1.095
72.70000 0.431
72.72000 6.347
72.74000 4.961
72.76000 0.292
72.78000 3.910
72.80000 4.821
72.82000 -1.645
72.84000 -2.476
72.86000 2.059
72.88000 5.474
72.90000 4.391
72.92000 1.964
72.94000 3.362
72.96000 -0.110
72.98000 3.154
73.00000 3.758
73.02000 0.960
73.04000 0.942
73.06000 2.394
73.08000 4.360
73.10000 3.619
73.12000 0.651
73.14000 -0.968
73.16000 2.424
73.18000 4.657
73.20000 1.407
73.22000 3.053
73.24000 5.962
73.26000 3.175
73.28000 1.097
73.30000 3.655
73.32000 3.100
73.34000 -2.448
73.36000 0.560
73.38000 1.028
73.40000 5.722
73.42000 4.126
73.44000 7.256
73.46000 3.456
73.48000 8.010
73.50000 4.478
73.52000 -1.678
73.54000 0.108
73.56000 5.808
73.58000 3.421
73.60000 1.832
73.62000 4.545
73.64000 2.252
73.66000 2.336
73.68000 4.464
73.70000 0.091
73.72000 0.631
73.74000 2.867
73.76000 1.923
73.78000 5.949
73.80000 6.493
73.82000 2.721
73.84000 0.967
73.86000 2.013
73.88000 4.069
73.90000 3.732
73.92000 4.846
73.94000 3.870
73.96000 2.012
73.98000 -0.850
74.00000 -0.109
74.02000 1.034
74.04000 1.313
74.06000 3.471
74.08000 5.929
74.10000 2.775
74.12000 -2.433
74.14000 3.069
74.16000 6.403
74.18000 6.602
74.20000 7.113
74.22000 4.508
74.24000 3.465
74.26000 0.155
74.28000 -1.453
74.30000 3.872
74.32000 4.242
74.34000 0.198
74.36000 0.332
74.38000 3.096
74.40000 -2.109
74.42000 4.692
74.44000 9.448
74.46000 8.558
74.48000 4.327
74.50000 3.559
74.52000 4.244
74.54000 2.642
74.56000 1.814
74.58000 0.914
74.60000 1.679
74.62000 -1.024
74.64000 0.359
74.66000 -0.035
74.68000 0.019
74.70000 2.065
74.72000 -1.884
74.74000 -0.268
74.76000 3.401
74.78000 4.219
74.80000 -0.261
74.82000 0.685
74.84000 0.769
74.86000 0.060
74.88000 -1.243
74.90000 3.968
74.92000 5.328
74.94000 3.108
74.96000 -2.153
74.98000 3.088
75.00000 5.116
75.02000 5.665
75.04000 3.701
75.06000 1.515
75.08000 -0.077
75.10000 1.295
75.12000 5.238
75.14000 5.204
75.16000 7.008
75.18000 2.834
75.20000 0.501
75.22000 2.194
75.24000 1.414
75.26000 2.671
75.28000 -0.075
75.30000 -0.152
75.32000 -1.950
75.34000 2.186
75.36000 -0.358
75.38000 -1.540
75.40000 -2.458
75.42000 -2.424
75.44000 2.364
75.46000 2.308
75.48000 5.141
75.50000 5.638
75.52000 -0.336
75.54000 -0.861
75.56000 -0.507
75.58000 1.151
75.60000 4.696
75.62000 2.121
75.64000 5.652
75.66000 7.800
75.68000 -1.880
75.70000 -2.453
75.72000 2.940
75.74000 4.595
75.76000 8.519
75.78000 9.249
75.80000 4.280
75.82000 2.016
75.84000 0.026
75.86000 -1.413
75.88000 -2.447
75.90000 2.712
75.92000 5.054
75.94000 0.708
75.96000 -1.355
75.98000 -0.508
76.00000 2.273
76.02000 4.814
76.04000 2.800
76.06000 5.641
76.08000 6.779
76.10000 9.217
76.12000 4.502
76.14000 1.636
76.16000 2.283
76.18000 0.439
76.20000 1.531
76.22000 2.729
76.24000 -1.334
76.26000 2.602
76.28000 5.122
76.30000 2.233
76.32000 1.718
76.34000 4.644
76.36000 5.701
76.38000 4.067
76.40000 -2.065
76.42000 -2.431
76.44000 2.550
76.46000 5.523
76.48000 1.832
76.50000 2.663
76.52000 4.830
76.54000 9.817
76.56000 3.654
76.58000 -1.431
76.60000 2.712
76.62000 4.439
76.64000 3.556
76.66000 4.270
76.68000 4.592
76.70000 0.602
76.72000 1.391
76.74000 2.734
76.76000 1.399
76.78000 2.106
76.80000 1.065
76.82000 6.252
76.84000 5.649
76.86000 2.935
76.88000 3.119
76.90000 2.355
76.92000 2.866
76.94000 1.812
76.96000 0.011
76.98000 -2.447
77.00000 0.275
77.02000 -2.159
77.04000 -2.449
77.06000 1.280
77.08000 7.928
77.10000 2.935
77.12000 1.592
77.14000 0.939
77.16000 0.784
77.18000 4.328
77.20000 4.607
77.22000 1.489
77.24000 -1.090
77.26000 0.933
77.28000 1.466
77.30000 3.959
77.32000 0.274
77.34000 1.680
77.36000 3.383
77.38000 1.800
77.40000 6.003
77.42000 5.668
77.44000 -1.704
77.46000 1.598
77.48000 3.696
77.50000 4.884
77.52000 7.151
77.54000 1.266
77.56000 3.786
77.58000 9.218
77.60000 6.764
77.62000 3.559
77.64000 -1.810
77.66000 0.704
77.68000 3.626
77.70000 -0.210
77.72000 3.897
77.74000 -2.336
77.76000 0.335
77.78000 5.552
77.80000 3.688
77.82000 -0.234
77.84000 2.196
77.86000 6.589
77.88000 2.846
77.90000 4.082
77.92000 0.387
77.94000 1.476
77.96000 5.577
77.98000 3.891
78.00000 1.771
78.02000 1.998
78.04000 2.904
78.06000 0.852
78.08000 4.480
78.10000 5.805
78.12000 6.553
78.14000 3.538
78.16000 0.773
78.18000 -0.823
78.20000 5.619
78.22000 4.192
78.24000 1.995
78.26000 3.833
78.28000 6.858
78.30000 2.520
78.32000 3.011
78.34000 4.100
78.36000 6.348
78.38000 2.879
78.40000 2.690
78.42000 4.095
78.44000 2.724
78.46000 0.582
78.48000 0.311
78.50000 1.083
78.52000 8.592
78.54000 9.493
78.56000 9.049
78.58000 8.695
78.60000 7.404
78.62000 9.208
78.64000 4.973
78.66000 -0.242
78.68000 5.598
78.70000 8.874
78.72000 8.438
78.74000 11.876
78.76000 3.677
78.78000 5.206
78.80000 3.765
78.82000 0.504
78.84000 2.574
78.86000 -2.450
78.88000 0.041
78.90000 -0.288
78.92000 0.493
78.94000 -0.249
78.96000 -0.311
78.98000 1.826
79.00000 0.299
79.02000 2.660
79.04000 2.229
79.06000 5.558
79.08000 5.849
79.10000 7.566
79.12000 -2.462
79.14000 -1.409
79.16000 4.509
79.18000 1.221
79.20000 5.505
79.22000 3.237
79.24000 2.293
79.26000 -1.398
79.28000 -2.469
79.30000 -0.272
79.32000 4.443
79.34000 2.594
79.36000 -0.054
79.38000 0.522
79.40000 6.001
79.42000 6.718
79.44000 4.775
79.46000 5.173
79.48000 1.535
79.50000 3.369
79.52000 2.681
79.54000 2.195
79.56000 5.257
79.58000 6.167
79.60000 4.689
79.62000 1.595
79.64000 3.382
79.66000 5.971
79.68000 0.671
79.70000 0.114
79.72000 1.065
79.74000 -1.233
79.76000 4.893
79.78000 2.169
79.80000 4.756
79.82000 3.625
79.84000 1.490
79.86000 0.488
79.88000 7.202
79.90000 3.865
79.92000 -0.886
79.94000 -1.358
79.96000 -0.882
79.98000 -2.084
80.00000 3.280
80.02000 3.473
80.04000 2.895
80.06000 4.202
80.08000 3.644
80.10000 1.506
80.12000 -0.640
80.14000 0.270
80.16000 5.298
80.18000 3.983
80.20000 5.451
80.22000 2.248
80.24000 2.732
80.26000 4.675
80.28000 5.283
80.30000 2.168
80.32000 2.400
80.34000 4.574
80.36000 1.891
80.38000 3.741
80.40000 8.171
80.42000 1.833
80.44000 3.092
80.46000 7.431
80.48000 3.187
80.50000 -2.521
80.52000 3.873
80.54000 5.483
80.56000 1.473
80.58000 5.248
80.60000 6.501
80.62000 6.204
80.64000 6.989
80.66000 3.768
80.68000 -1.086
80.70000 -2.534
80.72000 -0.264
80.74000 -0.568
80.76000 1.180
80.78000 0.601
80.80000 0.630
80.82000 4.198
80.84000 9.178
80.86000 3.576
80.88000 0.893
80.90000 0.116
80.92000 -1.119
80.94000 7.237
80.96000 11.314
80.98000 7.566
81.00000 2.787
81.02000 -2.555
81.04000 1.428
81.06000 2.980
81.08000 4.429
81.10000 5.953
81.12000 -2.566
81.14000 0.657
81.16000 5.850
81.18000 7.491
81.20000 3.683
81.22000 4.448
81.24000 6.163
81.26000 6.262
81.28000 4.374
81.30000 3.689
81.32000 5.814
81.34000 2.556
81.36000 2.189
81.38000 2.642
81.40000 8.349
81.42000 7.741
81.44000 11.361
81.46000 2.795
81.48000 -1.131
81.50000 4.403
81.52000 5.305
81.54000 4.242
81.56000 10.313
81.58000 10.281
81.60000 8.706
81.62000 5.221
81.64000 2.271
81.66000 5.392
81.68000 4.791
81.70000 3.616
81.72000 3.750
81.74000 7.911
81.76000 7.712
81.78000 4.012
81.80000 4.003
81.82000 5.905
81.84000 4.275
81.86000 4.630
81.88000 10.334
81.90000 3.681
81.92000 1.119
81.94000 2.080
81.96000 8.502
81.98000 7.862
82.00000 6.508
82.02000 11.780
82.04000 9.874
82.06000 9.020
82.08000 6.305
82.10000 6.136
82.12000 5.285
82.14000 5.943
82.16000 10.959
82.18000 9.383
82.20000 12.444
82.22000 9.079
82.24000 10.657
82.26000 9.953
82.28000 16.534
82.30000 16.287
82.32000 14.647
82.34000 17.773
82.36000 16.897
82.38000 16.594
82.40000 14.421
82.42000 11.904
82.44000 15.560
82.46000 10.440
82.48000 8.769
82.50000 19.450
82.52000 21.862
82.54000 23.026
82.56000 13.163
82.58000 15.372
82.60000 22.413
82.62000 17.370
82.64000 17.116
82.66000 12.272
82.68000 12.123
82.70000 20.452
82.72000 22.305
82.74000 18.931
82.76000 21.567
82.78000 23.802
82.80000 25.595
82.82000 21.878
82.84000 22.790
82.86000 27.233
82.88000 29.658
82.90000 21.056
82.92000 18.111
82.94000 21.028
82.96000 25.546
82.98000 20.050
83.00000 19.242
83.02000 24.369
83.04000 26.947
83.06000 28.284
83.08000 28.667
83.10000 19.932
83.12000 26.069
83.14000 30.971
83.16000 32.824
83.18000 27.023
83.20000 24.259
83.22000 29.160
83.24000 27.487
83.26000 28.774
83.28000 29.173
83.30000 30.305
83.32000 28.082
83.34000 33.814
83.36000 33.357
83.38000 26.576
83.40000 26.560
83.42000 30.492
83.44000 31.586
83.46000 26.637
83.48000 28.229
83.50000 29.997
83.52000 31.750
83.54000 35.917
83.56000 34.670
83.58000 34.210
83.60000 35.329
83.62000 28.299
83.64000 26.749
83.66000 25.695
83.68000 24.789
83.70000 24.071
83.72000 23.692
83.74000 28.546
83.76000 29.872
83.78000 31.751
83.80000 30.943
83.82000 26.433
83.84000 31.610
83.86000 33.856
83.88000 27.331
83.90000 22.546
83.92000 29.432
83.94000 30.100
83.96000 26.597
83.98000 26.947
84.00000 32.582
84.02000 24.898
84.04000 22.962
84.06000 22.279
84.08000 17.812
84.10000 21.509
84.12000 18.027
84.14000 20.387
84.16000 21.185
84.18000 20.020
84.20000 21.707
84.22000 16.628
84.24000 11.777
84.26000 13.616
84.28000 16.968
84.30000 21.058
84.32000 21.011
84.34000 17.247
84.36000 18.141
84.38000 15.612
84.40000 11.084
84.42000 12.623
84.44000 15.175
84.46000 15.670
84.48000 14.802
84.50000 12.118
84.52000 14.552
84.54000 16.550
84.56000 11.514
84.58000 16.160
84.60000 13.996
84.62000 9.104
84.64000 10.232
84.66000 15.844
84.68000 11.206
84.70000 8.667
84.72000 8.776
84.74000 7.793
84.76000 9.090
84.78000 11.855
84.80000 16.000
84.82000 10.833
84.84000 8.894
84.86000 8.448
84.88000 12.792
84.90000 12.848
84.92000 14.212
84.94000 8.832
84.96000 6.383
84.98000 6.981
85.00000 5.195
85.02000 6.710
85.04000 8.576
85.06000 14.302
85.08000 10.854
85.10000 4.805
85.12000 10.851
85.14000 9.093
85.16000 7.783
85.18000 6.240
85.20000 4.796
85.22000 9.475
85.24000 9.921
85.26000 12.369
85.28000 12.107
85.30000 10.175
85.32000 2.670
85.34000 -2.496
85.36000 2.675
85.38000 9.557
85.40000 11.474
85.42000 8.394
85.44000 8.676
85.46000 8.227
85.48000 10.384
85.50000 3.309
85.52000 0.607
85.54000 0.837
85.56000 3.278
85.58000 8.512
85.60000 2.175
85.62000 -0.436
85.64000 1.848
85.66000 8.749
85.68000 9.911
85.70000 5.931
85.72000 1.223
85.74000 -1.912
85.76000 1.177
85.78000 4.701
85.80000 3.505
85.82000 -0.709
85.84000 6.763
85.86000 5.152
85.88000 1.882
85.90000 0.116
85.92000 -2.263
85.94000 -2.533
85.96000 2.190
85.98000 6.561
86.00000 5.208
86.02000 1.013
86.04000 1.415
86.06000 3.335
86.08000 -1.057
86.10000 0.255
86.12000 1.464
86.14000 4.562
86.16000 5.741
86.18000 3.480
86.20000 6.636
86.22000 4.496
86.24000 4.245
86.26000 2.186
86.28000 2.387
86.30000 0.471
86.32000 -2.557
86.34000 -1.959
86.36000 5.946
86.38000 3.761
86.40000 7.742
86.42000 7.425
86.44000 4.571
86.46000 -0.622
86.48000 -1.359
86.50000 2.051
86.52000 2.209
86.54000 6.254
86.56000 2.360
86.58000 4.319
86.60000 2.962
86.62000 -0.948
86.64000 5.637
86.66000 13.374
86.68000 1.833
86.70000 4.224
86.72000 2.245
86.74000 0.623
86.76000 1.490
86.78000 4.177
86.80000 7.105
86.82000 5.680
86.84000 6.688
86.86000 1.998
86.88000 2.831
86.90000 -0.989
86.92000 2.473
86.94000 4.886
86.96000 8.267
86.98000 9.550
87.00000 10.066
87.02000 9.721
87.04000 10.808
87.06000 8.666
87.08000 8.718
87.10000 15.108
87.12000 15.959
87.14000 11.838
87.16000 12.861
87.18000 12.746
87.20000 17.262
87.22000 20.425
87.24000 16.348
87.26000 10.404
87.28000 16.485
87.30000 15.146
87.32000 13.257
87.34000 12.968
87.36000 13.679
87.38000 18.293
87.40000 14.919
87.42000 16.538
87.44000 15.344
87.46000 17.654
87.48000 20.365
87.50000 22.954
87.52000 16.989
87.54000 21.791
87.56000 17.573
87.58000 16.249
87.60000 20.838
87.62000 23.589
87.64000 24.030
87.66000 24.004
87.68000 27.695
87.70000 29.318
87.72000 25.083
87.74000 25.241
87.76000 21.523
87.78000 29.726
87.80000 29.778
87.82000 29.658
87.84000 26.664
87.86000 26.174
87.88000 25.950
87.90000 29.127
87.92000 27.146
87.94000 26.318
87.96000 24.039
87.98000 28.866
88.00000 26.812
88.02000 23.554
88.04000 23.188
88.06000 23.093
88.08000 28.239
88.10000 26.695
88.12000 25.864
88.14000 27.581
88.16000 27.195
88.18000 24.712
88.20000 21.014
88.22000 26.354
88.24000 26.943
88.26000 22.995
88.28000 18.902
88.30000 16.553
88.32000 14.882
88.34000 22.125
88.36000 22.160
88.38000 19.888
88.40000 19.548
88.42000 22.680
88.44000 27.579
88.46000 22.054
88.48000 16.990
88.50000 15.618
88.52000 13.139
88.54000 20.579
88.56000 21.345
88.58000 23.484
88.60000 13.702
88.62000 13.795
88.64000 14.511
88.66000 16.260
88.68000 11.023
88.70000 7.250
88.72000 10.121
88.74000 10.367
88.76000 9.346
88.78000 12.073
88.80000 10.176
88.82000 10.712
88.84000 10.636
88.86000 10.363
88.88000 10.673
88.90000 12.780
88.92000 16.141
88.94000 11.761
88.96000 6.469
88.98000 11.652
89.00000 16.075
89.02000 13.496
89.04000 12.677
89.06000 14.569
89.08000 9.656
89.10000 6.945
89.12000 8.895
89.14000 7.903
89.16000 6.846
89.18000 9.495
89.20000 9.055
89.22000 12.672
89.24000 8.000
89.26000 2.365
89.28000 -0.244
89.30000 -2.406
89.32000 4.910
89.34000 10.628
89.36000 5.015
89.38000 7.213
89.40000 7.043
89.42000 5.897
89.44000 6.857
89.46000 7.442
89.48000 8.186
89.50000 11.467
89.52000 15.029
89.54000 7.372
89.56000 3.836
89.58000 5.367
89.60000 0.042
89.62000 4.835
89.64000 2.702
89.66000 6.043
89.68000 5.257
89.70000 5.528
89.72000 3.246
89.74000 3.973
89.76000 7.116
89.78000 7.362
89.80000 4.663
89.82000 3.040
89.84000 2.233
89.86000 9.668
89.88000 12.152
89.90000 7.800
89.92000 3.342
89.94000 7.672
89.96000 7.342
89.98000 6.624
90.00000 5.692
90.02000 0.727
90.04000 1.517
90.06000 5.391
90.08000 4.566
90.10000 3.491
90.12000 -2.343
90.14000 2.469
90.16000 3.870
90.18000 3.040
90.20000 8.421
90.22000 6.465
90.24000 4.636
90.26000 0.543
90.28000 0.474
90.30000 6.224
90.32000 8.264
90.34000 9.349
90.36000 7.145
90.38000 6.811
90.40000 5.201
90.42000 6.217
90.44000 4.095
90.46000 5.229
90.48000 9.950
90.50000 8.252
90.52000 7.429
90.54000 2.685
90.56000 3.106
90.58000 7.093
90.60000 7.468
90.62000 7.991
90.64000 4.717
90.66000 5.901
90.68000 7.369
90.70000 6.221
90.72000 1.536
90.74000 3.891
90.76000 9.158
90.78000 4.523
90.80000 -2.255
90.82000 4.438
90.84000 6.578
90.86000 6.709
90.88000 7.314
90.90000 5.817
90.92000 7.620
90.94000 5.936
90.96000 3.536
90.98000 7.581
91.00000 7.730
91.02000 9.687
91.04000 7.060
91.06000 5.591
91.08000 5.681
91.10000 8.674
91.12000 9.720
91.14000 7.303
91.16000 5.124
91.18000 3.296
91.20000 4.007
91.22000 2.653
91.24000 6.688
91.26000 6.235
91.28000 6.697
91.30000 9.679
91.32000 11.204
91.34000 7.241
91.36000 7.619
91.38000 5.793
91.40000 2.365
91.42000 -1.181
91.44000 5.136
91.46000 6.264
91.48000 3.907
91.50000 4.979
91.52000 10.449
91.54000 7.045
91.56000 3.838
91.58000 1.988
91.60000 -1.904
91.62000 0.137
91.64000 5.936
91.66000 5.945
91.68000 4.870
91.70000 3.424
91.72000 1.469
91.74000 1.173
91.76000 4.777
91.78000 -2.305
91.80000 2.967
91.82000 5.358
91.84000 6.223
91.86000 6.173
91.88000 1.738
91.90000 2.184
91.92000 4.981
91.94000 6.095
91.96000 5.887
91.98000 3.427
92.00000 3.134
92.02000 6.513
92.04000 3.475
92.06000 2.559
92.08000 1.620
92.10000 -0.896
92.12000 2.893
92.14000 9.823
92.16000 4.625
92.18000 5.343
92.20000 8.049
92.22000 8.665
92.24000 4.138
92.26000 1.537
92.28000 0.651
92.30000 3.008
92.32000 1.130
92.34000 -0.735
92.36000 2.686
92.38000 7.036
92.40000 12.328
92.42000 4.620
92.44000 -0.017
92.46000 2.851
92.48000 4.733
92.50000 3.808
92.52000 0.258
92.54000 -0.056
92.56000 -2.315
92.58000 -1.363
92.60000 -1.497
92.62000 2.066
92.64000 3.833
92.66000 4.523
92.68000 6.338
92.70000 5.131
92.72000 3.361
92.74000 5.553
92.76000 7.618
92.78000 4.196
92.80000 1.274
92.82000 6.292
92.84000 6.685
92.86000 3.224
92.88000 2.860
92.90000 4.235
92.92000 4.700
92.94000 2.329
92.96000 4.741
92.98000 12.023
93.00000 2.693
93.02000 4.025
93.04000 4.505
93.06000 8.446
93.08000 8.809
93.10000 10.150
93.12000 6.315
93.14000 4.397
93.16000 -1.310
93.18000 -0.641
93.20000 3.604
93.22000 2.762
93.24000 4.111
93.26000 8.474
93.28000 10.084
93.30000 2.488
93.32000 2.194
93.34000 4.881
93.36000 -0.155
93.38000 -0.074
93.40000 -2.329
93.42000 -0.234
93.44000 2.348
93.46000 3.375
93.48000 5.375
93.50000 4.981
93.52000 10.245
93.54000 4.270
93.56000 -0.437
93.58000 -0.063
93.60000 -0.548
93.62000 0.620
93.64000 4.899
93.66000 1.364
93.68000 5.619
93.70000 8.297
93.72000 6.233
93.74000 2.825
93.76000 0.518
93.78000 4.167
93.80000 6.406
93.82000 1.759
93.84000 7.400
93.86000 3.981
93.88000 7.917
93.90000 9.436
93.92000 6.613
93.94000 4.680
93.96000 0.448
93.98000 0.299
94.00000 1.420
94.02000 4.115
94.04000 6.789
94.06000 3.963
94.08000 3.630
94.10000 1.277
94.12000 0.621
94.14000 4.809
94.16000 5.223
94.18000 3.009
94.20000 3.658
94.22000 6.706
94.24000 6.719
94.26000 7.008
94.28000 3.134
94.30000 6.867
94.32000 9.254
94.34000 6.517
94.36000 10.081
94.38000 6.542
94.40000 3.927
94.42000 12.440
94.44000 14.059
94.46000 2.702
94.48000 -2.280
94.50000 -0.164
94.52000 3.929
94.54000 5.705
94.56000 10.929
94.58000 8.177
94.60000 13.557
94.62000 10.040
94.64000 9.710
94.66000 8.118
94.68000 5.289
94.70000 4.386
94.72000 7.226
94.74000 3.766
94.76000 9.032
94.78000 5.270
94.80000 4.448
94.82000 6.792
94.84000 6.313
94.86000 8.620
94.88000 11.794
94.90000 4.196
94.92000 7.695
94.94000 8.024
94.96000 5.754
94.98000 9.211
95.00000 8.550
95.02000 5.305
95.04000 7.420
95.06000 10.278
95.08000 6.763
95.10000 13.924
95.12000 10.850
95.14000 3.709
95.16000 4.818
95.18000 -0.034
95.20000 0.413
95.22000 4.253
95.24000 2.442
95.26000 2.331
95.28000 -2.308
95.30000 1.808
95.32000 9.525
95.34000 7.998
95.36000 3.339
95.38000 7.121
95.40000 9.834
95.42000 8.093
95.44000 3.310
95.46000 2.609
95.48000 5.133
95.50000 6.518
95.52000 4.952
95.54000 1.101
95.56000 1.882
95.58000 2.463
95.60000 2.358
95.62000 4.978
95.64000 8.363
95.66000 0.490
95.68000 1.180
95.70000 4.049
95.72000 5.552
95.74000 2.152
95.76000 1.721
95.78000 1.802
95.80000 0.476
95.82000 1.618
95.84000 8.431
95.86000 9.688
95.88000 6.487
95.90000 2.985
95.92000 1.575
95.94000 5.265
95.96000 5.310
95.98000 7.129
96.00000 11.448
96.02000 9.448
96.04000 0.288
96.06000 0.773
96.08000 -1.641
96.10000 -1.171
96.12000 2.778
96.14000 7.453
96.16000 7.247
96.18000 15.389
96.20000 14.080
96.22000 6.306
96.24000 7.161
96.26000 9.924
96.28000 5.138
96.30000 0.871
96.32000 5.210
96.34000 3.754
96.36000 4.592
96.38000 9.170
96.40000 7.989
96.42000 9.395
96.44000 8.900
96.46000 9.385
96.48000 4.673
96.50000 2.296
96.52000 5.878
96.54000 8.330
96.56000 7.498
96.58000 5.836
96.60000 9.094
96.62000 6.835
96.64000 -0.650
96.66000 -2.315
96.68000 3.501
96.70000 5.381
96.72000 8.864
96.74000 8.072
96.76000 9.809
96.78000 8.045
96.80000 5.367
96.82000 6.648
96.84000 -0.825
96.86000 0.755
96.88000 6.153
96.90000 7.932
96.92000 -0.308
96.94000 2.227
96.96000 9.179
96.98000 12.947
97.00000 12.541
97.02000 9.177
97.04000 3.098
97.06000 5.481
97.08000 3.631
97.10000 1.615
97.12000 7.581
97.14000 8.839
97.16000 7.455
97.18000 5.018
97.20000 11.174
97.22000 11.691
97.24000 15.332
97.26000 8.125
97.28000 11.128
97.30000 8.118
97.32000 3.559
97.34000 -2.272
97.36000 0.285
97.38000 4.477
97.40000 0.612
97.42000 4.601
97.44000 13.007
97.46000 8.995
97.48000 9.810
97.50000 6.157
97.52000 7.473
97.54000 9.710
97.56000 8.471
97.58000 5.202
97.60000 6.205
97.62000 8.947
97.64000 6.207
97.66000 5.043
97.68000 3.156
97.70000 10.947
97.72000 8.095
97.74000 1.827
97.76000 4.677
97.78000 8.012
97.80000 5.268
97.82000 4.863
97.84000 4.580
97.86000 5.187
97.88000 6.963
97.90000 4.564
97.92000 6.596
97.94000 4.752
97.96000 6.406
97.98000 9.364
98.00000 3.044
98.02000 5.094
98.04000 12.685
98.06000 12.371
98.08000 4.604
98.10000 10.145
98.12000 5.971
98.14000 6.511
98.16000 3.738
98.18000 5.667
98.20000 17.733
98.22000 12.726
98.24000 3.186
98.26000 8.802
98.28000 8.747
98.30000 10.817
98.32000 10.084
98.34000 6.293
98.36000 15.054
98.38000 8.845
98.40000 3.596
98.42000 -2.254
98.44000 0.292
98.46000 15.323
98.48000 9.635
98.50000 6.952
98.52000 8.187
98.54000 11.651
98.56000 7.440
98.58000 8.149
98.60000 4.067
98.62000 4.835
98.64000 2.156
98.66000 2.863
98.68000 7.223
98.70000 8.293
98.72000 4.295
98.74000 -0.865
98.76000 5.074
98.78000 16.323
98.80000 9.488
98.82000 4.928
98.84000 -1.958
98.86000 -1.710
98.88000 3.840
98.90000 7.511
98.92000 10.232
98.94000 8.648
98.96000 10.343
98.98000 4.661
99.00000 4.437
99.02000 9.288
99.04000 2.992
99.06000 7.815
99.08000 3.349
99.10000 5.958
99.12000 5.332
99.14000 12.160
99.16000 9.017
99.18000 16.079
99.20000 13.028
99.22000 14.498
99.24000 5.396
99.26000 7.514
99.28000 8.826
99.30000 10.445
99.32000 12.268
99.34000 12.843
99.36000 2.883
99.38000 -2.255
99.40000 6.211
99.42000 7.738
99.44000 7.378
99.46000 7.508
99.48000 14.474
99.50000 9.170
99.52000 5.662
99.54000 8.323
99.56000 0.555
99.58000 11.974
99.60000 5.236
99.62000 11.816
99.64000 18.877
99.66000 10.784
99.68000 2.161
99.70000 7.703
99.72000 7.538
99.74000 9.819
99.76000 7.730
99.78000 9.354
99.80000 16.524
99.82000 12.210
99.84000 9.387
99.86000 -2.555
99.88000 1.495
99.90000 0.921
99.92000 -2.415
99.94000 -1.135
99.96000 -0.095
99.98000 0.000
