'Id: "0011389" Comment: "Integrate frame 0011389_Au-Ir-Rh_Au-Rich_XRD_Mapping-029-0000.gfrmwith cursor Wedge Cursor #5" Operator: "B?rgel" Anode: "Cu" Wavelength: "1.5406" Scantype: "2Theta (TwoTheta)" TimePerStep: "1" X: "-9" Y: "-31.5" Z: "5.95" 
10.00000 0.000
10.02000 6.876
10.04000 9.030
10.06000 -0.400
10.08000 4.053
10.10000 35.258
10.12000 21.757
10.14000 16.271
10.16000 15.972
10.18000 5.667
10.20000 9.613
10.22000 11.202
10.24000 4.130
10.26000 12.984
10.28000 22.006
10.30000 -4.402
10.32000 -3.428
10.34000 2.046
10.36000 12.665
10.38000 3.763
10.40000 3.621
10.42000 -3.908
10.44000 10.352
10.46000 19.886
10.48000 23.695
10.50000 26.070
10.52000 13.203
10.54000 8.430
10.56000 9.184
10.58000 -0.300
10.60000 7.018
10.62000 31.264
10.64000 11.464
10.66000 -4.335
10.68000 2.605
10.70000 9.017
10.72000 6.088
10.74000 8.171
10.76000 6.454
10.78000 15.309
10.80000 8.666
10.82000 -0.124
10.84000 6.158
10.86000 6.574
10.88000 9.246
10.90000 19.886
10.92000 23.212
10.94000 23.049
10.96000 15.369
10.98000 13.546
11.00000 19.014
11.02000 22.912
11.04000 29.950
11.06000 21.512
11.08000 19.314
11.10000 17.539
11.12000 6.807
11.14000 20.057
11.16000 15.487
11.18000 -2.069
11.20000 3.846
11.22000 18.344
11.24000 26.910
11.26000 13.464
11.28000 8.602
11.30000 17.767
11.32000 11.572
11.34000 0.863
11.36000 9.239
11.38000 5.136
11.40000 12.767
11.42000 15.639
11.44000 9.234
11.46000 17.951
11.48000 13.294
11.50000 5.275
11.52000 3.970
11.54000 12.475
11.56000 11.549
11.58000 10.179
11.60000 15.583
11.62000 12.348
11.64000 15.561
11.66000 9.732
11.68000 11.629
11.70000 -4.413
11.72000 -3.216
11.74000 13.573
11.76000 16.361
11.78000 16.963
11.80000 20.209
11.82000 15.542
11.84000 10.835
11.86000 16.951
11.88000 14.568
11.90000 -1.547
11.92000 4.709
11.94000 9.072
11.96000 15.271
11.98000 18.111
12.00000 10.616
12.02000 8.416
12.04000 9.246
12.06000 13.685
12.08000 7.744
12.10000 14.296
12.12000 15.416
12.14000 21.226
12.16000 18.623
12.18000 17.020
12.20000 14.893
12.22000 10.013
12.24000 9.848
12.26000 9.191
12.28000 7.212
12.30000 20.771
12.32000 7.904
12.34000 8.147
12.36000 8.428
12.38000 6.978
12.40000 2.454
12.42000 4.798
12.44000 10.648
12.46000 12.942
12.48000 18.597
12.50000 25.654
12.52000 17.258
12.54000 5.005
12.56000 -0.380
12.58000 4.828
12.60000 25.035
12.62000 25.284
12.64000 9.342
12.66000 7.580
12.68000 3.925
12.70000 1.609
12.72000 7.606
12.74000 7.376
12.76000 15.615
12.78000 14.058
12.80000 13.156
12.82000 12.956
12.84000 17.801
12.86000 22.904
12.88000 18.218
12.90000 5.366
12.92000 12.506
12.94000 12.124
12.96000 -1.133
12.98000 4.415
13.00000 -2.221
13.02000 18.041
13.04000 21.805
13.06000 10.832
13.08000 -3.176
13.10000 5.850
13.12000 12.453
13.14000 17.014
13.16000 10.302
13.18000 7.480
13.20000 12.283
13.22000 13.687
13.24000 9.863
13.26000 17.926
13.28000 11.442
13.30000 9.967
13.32000 5.996
13.34000 7.346
13.36000 15.585
13.38000 10.426
13.40000 8.637
13.42000 11.233
13.44000 5.889
13.46000 -4.478
13.48000 1.465
13.50000 12.283
13.52000 9.828
13.54000 11.312
13.56000 8.107
13.58000 11.191
13.60000 11.331
13.62000 11.374
13.64000 11.848
13.66000 1.109
13.68000 6.817
13.70000 11.260
13.72000 9.790
13.74000 12.795
13.76000 12.426
13.78000 -3.423
13.80000 -1.331
13.82000 10.703
13.84000 1.068
13.86000 1.478
13.88000 4.517
13.90000 2.336
13.92000 5.306
13.94000 11.762
13.96000 8.678
13.98000 10.120
14.00000 2.847
14.02000 3.383
14.04000 13.082
14.06000 10.117
14.08000 6.770
14.10000 6.063
14.12000 4.444
14.14000 7.391
14.16000 3.051
14.18000 3.398
14.20000 16.278
14.22000 23.161
14.24000 8.477
14.26000 6.736
14.28000 4.438
14.30000 7.121
14.32000 10.420
14.34000 7.240
14.36000 11.073
14.38000 12.352
14.40000 13.386
14.42000 5.062
14.44000 11.533
14.46000 8.299
14.48000 -0.657
14.50000 2.541
14.52000 8.247
14.54000 2.828
14.56000 7.678
14.58000 14.114
14.60000 0.699
14.62000 8.516
14.64000 14.258
14.66000 16.223
14.68000 18.006
14.70000 10.453
14.72000 5.622
14.74000 4.906
14.76000 10.062
14.78000 18.076
14.80000 9.253
14.82000 -4.459
14.84000 2.350
14.86000 10.994
14.88000 9.561
14.90000 0.944
14.92000 6.374
14.94000 10.070
14.96000 7.666
14.98000 4.377
15.00000 4.799
15.02000 4.708
15.04000 6.822
15.06000 7.316
15.08000 12.870
15.10000 12.430
15.12000 8.700
15.14000 8.216
15.16000 17.106
15.18000 17.172
15.20000 13.753
15.22000 9.384
15.24000 11.618
15.26000 11.594
15.28000 9.058
15.30000 5.189
15.32000 9.025
15.34000 -0.343
15.36000 7.898
15.38000 4.013
15.40000 7.481
15.42000 12.665
15.44000 15.707
15.46000 14.533
15.48000 10.939
15.50000 8.150
15.52000 4.305
15.54000 -0.426
15.56000 1.609
15.58000 1.675
15.60000 8.614
15.62000 5.903
15.64000 2.659
15.66000 3.489
15.68000 6.051
15.70000 1.520
15.72000 -3.051
15.74000 6.433
15.76000 11.037
15.78000 5.131
15.80000 6.755
15.82000 11.305
15.84000 9.374
15.86000 -1.847
15.88000 1.152
15.90000 11.863
15.92000 -0.004
15.94000 -4.166
15.96000 4.126
15.98000 6.212
16.00000 6.079
16.02000 6.132
16.04000 9.368
16.06000 6.726
16.08000 -4.407
16.10000 2.336
16.12000 1.970
16.14000 5.315
16.16000 3.317
16.18000 5.029
16.20000 10.500
16.22000 7.585
16.24000 3.407
16.26000 3.876
16.28000 4.798
16.30000 0.722
16.32000 7.498
16.34000 1.539
16.36000 4.377
16.38000 13.135
16.40000 5.559
16.42000 6.298
16.44000 6.409
16.46000 8.572
16.48000 3.442
16.50000 9.724
16.52000 10.827
16.54000 5.324
16.56000 8.888
16.58000 1.153
16.60000 6.070
16.62000 7.470
16.64000 6.349
16.66000 2.757
16.68000 7.988
16.70000 16.207
16.72000 5.813
16.74000 2.699
16.76000 5.742
16.78000 5.755
16.80000 7.834
16.82000 4.656
16.84000 3.699
16.86000 1.941
16.88000 -3.345
16.90000 2.647
16.92000 9.774
16.94000 14.165
16.96000 0.895
16.98000 -1.473
17.00000 -1.255
17.02000 8.864
17.04000 13.034
17.06000 12.626
17.08000 10.642
17.10000 5.183
17.12000 1.242
17.14000 -1.168
17.16000 -3.229
17.18000 3.032
17.20000 5.438
17.22000 7.032
17.24000 -0.611
17.26000 4.753
17.28000 5.204
17.30000 5.444
17.32000 3.176
17.34000 10.760
17.36000 8.499
17.38000 2.445
17.40000 0.122
17.42000 10.660
17.44000 10.026
17.46000 7.806
17.48000 4.743
17.50000 7.233
17.52000 7.146
17.54000 9.160
17.56000 4.122
17.58000 3.251
17.60000 1.810
17.62000 -2.128
17.64000 7.529
17.66000 13.956
17.68000 15.636
17.70000 10.619
17.72000 -3.117
17.74000 -4.318
17.76000 -2.887
17.78000 2.770
17.80000 10.048
17.82000 1.232
17.84000 0.676
17.86000 7.367
17.88000 1.777
17.90000 7.260
17.92000 10.553
17.94000 9.957
17.96000 6.595
17.98000 8.938
18.00000 11.851
18.02000 6.842
18.04000 1.421
18.06000 8.829
18.08000 11.451
18.10000 4.911
18.12000 7.766
18.14000 6.750
18.16000 8.119
18.18000 5.689
18.20000 9.664
18.22000 9.018
18.24000 8.618
18.26000 15.282
18.28000 9.037
18.30000 1.001
18.32000 1.023
18.34000 -0.707
18.36000 -0.421
18.38000 8.704
18.40000 8.974
18.42000 3.743
18.44000 7.503
18.46000 6.632
18.48000 3.185
18.50000 4.548
18.52000 5.399
18.54000 3.033
18.56000 1.167
18.58000 1.848
18.60000 4.593
18.62000 3.236
18.64000 0.831
18.66000 12.173
18.68000 9.936
18.70000 6.860
18.72000 13.664
18.74000 5.827
18.76000 0.914
18.78000 -1.540
18.80000 7.467
18.82000 8.840
18.84000 6.308
18.86000 9.074
18.88000 3.833
18.90000 4.691
18.92000 4.810
18.94000 10.790
18.96000 4.504
18.98000 -3.103
19.00000 -1.235
19.02000 -2.583
19.04000 -4.217
19.06000 4.197
19.08000 7.332
19.10000 9.343
19.12000 3.281
19.14000 7.442
19.16000 12.904
19.18000 8.933
19.20000 -1.871
19.22000 3.828
19.24000 6.834
19.26000 4.899
19.28000 0.123
19.30000 6.687
19.32000 11.183
19.34000 5.152
19.36000 3.694
19.38000 5.428
19.40000 1.859
19.42000 5.667
19.44000 8.253
19.46000 7.915
19.48000 8.891
19.50000 8.396
19.52000 6.061
19.54000 -1.815
19.56000 3.894
19.58000 9.170
19.60000 8.637
19.62000 3.879
19.64000 5.813
19.66000 9.505
19.68000 12.710
19.70000 13.139
19.72000 12.886
19.74000 6.049
19.76000 6.630
19.78000 -2.078
19.80000 -4.159
19.82000 -1.667
19.84000 6.126
19.86000 12.611
19.88000 10.699
19.90000 5.672
19.92000 13.544
19.94000 10.514
19.96000 4.878
19.98000 5.331
20.00000 7.608
20.02000 3.760
20.04000 3.814
20.06000 8.703
20.08000 3.433
20.10000 2.045
20.12000 10.517
20.14000 5.707
20.16000 7.424
20.18000 10.735
20.20000 6.832
20.22000 4.604
20.24000 10.469
20.26000 8.395
20.28000 0.957
20.30000 3.727
20.32000 8.761
20.34000 7.315
20.36000 5.269
20.38000 5.003
20.40000 10.460
20.42000 6.614
20.44000 0.547
20.46000 4.561
20.48000 -0.498
20.50000 -2.004
20.52000 3.284
20.54000 7.208
20.56000 11.341
20.58000 9.750
20.60000 2.507
20.62000 0.676
20.64000 3.823
20.66000 -0.367
20.68000 4.492
20.70000 4.615
20.72000 7.859
20.74000 6.496
20.76000 4.943
20.78000 7.342
20.80000 8.751
20.82000 6.257
20.84000 4.599
20.86000 -0.799
20.88000 4.318
20.90000 4.753
20.92000 -1.819
20.94000 -0.431
20.96000 1.931
20.98000 2.789
21.00000 6.001
21.02000 -1.341
21.04000 2.740
21.06000 3.190
21.08000 7.933
21.10000 8.980
21.12000 12.582
21.14000 9.709
21.16000 -0.995
21.18000 -4.121
21.20000 1.083
21.22000 4.556
21.24000 3.420
21.26000 4.103
21.28000 7.990
21.30000 4.823
21.32000 7.505
21.34000 7.638
21.36000 8.164
21.38000 4.884
21.40000 14.034
21.42000 10.535
21.44000 8.550
21.46000 5.364
21.48000 4.234
21.50000 -1.476
21.52000 0.860
21.54000 9.079
21.56000 9.465
21.58000 8.989
21.60000 2.966
21.62000 1.128
21.64000 1.502
21.66000 3.603
21.68000 4.629
21.70000 -0.671
21.72000 -1.141
21.74000 -3.116
21.76000 -2.290
21.78000 7.034
21.80000 1.683
21.82000 3.396
21.84000 0.572
21.86000 2.516
21.88000 5.255
21.90000 5.739
21.92000 7.697
21.94000 7.014
21.96000 1.166
21.98000 -3.434
22.00000 3.831
22.02000 13.176
22.04000 15.024
22.06000 2.641
22.08000 -2.742
22.10000 -2.976
22.12000 -0.379
22.14000 -0.818
22.16000 0.438
22.18000 1.560
22.20000 0.746
22.22000 7.166
22.24000 1.391
22.26000 6.412
22.28000 4.257
22.30000 7.045
22.32000 8.970
22.34000 11.328
22.36000 6.278
22.38000 4.490
22.40000 2.915
22.42000 5.783
22.44000 2.224
22.46000 0.087
22.48000 4.333
22.50000 0.611
22.52000 1.483
22.54000 0.121
22.56000 1.380
22.58000 1.639
22.60000 3.621
22.62000 4.418
22.64000 -0.645
22.66000 -0.912
22.68000 0.768
22.70000 5.954
22.72000 7.897
22.74000 11.204
22.76000 3.110
22.78000 4.007
22.80000 3.764
22.82000 3.717
22.84000 6.433
22.86000 4.625
22.88000 4.715
22.90000 3.714
22.92000 1.328
22.94000 1.317
22.96000 1.904
22.98000 -1.836
23.00000 -1.287
23.02000 3.025
23.04000 -3.542
23.06000 3.086
23.08000 11.220
23.10000 7.171
23.12000 -0.092
23.14000 -2.161
23.16000 0.550
23.18000 -1.302
23.20000 1.338
23.22000 1.693
23.24000 0.528
23.26000 -2.487
23.28000 -2.402
23.30000 1.735
23.32000 2.502
23.34000 0.537
23.36000 2.425
23.38000 3.591
23.40000 10.842
23.42000 9.742
23.44000 3.628
23.46000 1.715
23.48000 0.889
23.50000 6.875
23.52000 7.051
23.54000 4.259
23.56000 4.814
23.58000 8.483
23.60000 3.439
23.62000 -3.944
23.64000 2.531
23.66000 -0.253
23.68000 1.556
23.70000 8.079
23.72000 9.110
23.74000 7.306
23.76000 7.886
23.78000 8.143
23.80000 2.668
23.82000 4.456
23.84000 7.291
23.86000 2.180
23.88000 0.386
23.90000 2.058
23.92000 2.026
23.94000 5.035
23.96000 1.398
23.98000 2.023
24.00000 6.449
24.02000 7.521
24.04000 5.812
24.06000 2.100
24.08000 2.377
24.10000 4.813
24.12000 6.954
24.14000 4.508
24.16000 3.632
24.18000 7.128
24.20000 5.413
24.22000 9.254
24.24000 9.306
24.26000 7.419
24.28000 6.564
24.30000 11.258
24.32000 6.800
24.34000 1.759
24.36000 6.301
24.38000 3.415
24.40000 -1.224
24.42000 -0.299
24.44000 4.880
24.46000 6.072
24.48000 -0.201
24.50000 0.481
24.52000 -0.006
24.54000 -0.242
24.56000 1.902
24.58000 -2.837
24.60000 4.042
24.62000 -0.831
24.64000 0.619
24.66000 -0.815
24.68000 1.140
24.70000 4.114
24.72000 2.422
24.74000 0.763
24.76000 1.013
24.78000 1.378
24.80000 2.126
24.82000 5.900
24.84000 10.682
24.86000 7.239
24.88000 -0.130
24.90000 -3.609
24.92000 -2.514
24.94000 0.272
24.96000 -0.114
24.98000 2.094
25.00000 -0.837
25.02000 -3.786
25.04000 -1.548
25.06000 -2.006
25.08000 -3.484
25.10000 0.066
25.12000 3.062
25.14000 -2.217
25.16000 -3.507
25.18000 -0.035
25.20000 -1.309
25.22000 -0.791
25.24000 -2.408
25.26000 -0.321
25.28000 2.827
25.30000 -0.948
25.32000 -0.698
25.34000 -1.614
25.36000 2.540
25.38000 -0.559
25.40000 3.129
25.42000 1.488
25.44000 5.951
25.46000 1.249
25.48000 -2.695
25.50000 -1.639
25.52000 0.806
25.54000 1.950
25.56000 -0.663
25.58000 4.728
25.60000 9.042
25.62000 5.418
25.64000 2.860
25.66000 3.081
25.68000 0.860
25.70000 3.241
25.72000 -3.239
25.74000 -0.104
25.76000 1.064
25.78000 0.987
25.80000 -1.206
25.82000 -2.525
25.84000 -3.348
25.86000 -1.482
25.88000 -3.564
25.90000 -3.898
25.92000 -3.379
25.94000 1.790
25.96000 1.274
25.98000 -0.792
26.00000 -3.310
26.02000 2.635
26.04000 0.814
26.06000 -1.149
26.08000 -0.123
26.10000 -1.794
26.12000 -0.806
26.14000 -3.719
26.16000 -3.395
26.18000 -3.111
26.20000 -3.510
26.22000 0.753
26.24000 0.303
26.26000 -0.486
26.28000 0.230
26.30000 -1.142
26.32000 -3.886
26.34000 2.137
26.36000 1.107
26.38000 0.837
26.40000 -1.205
26.42000 -3.801
26.44000 2.492
26.46000 3.856
26.48000 4.351
26.50000 3.095
26.52000 -1.812
26.54000 -2.627
26.56000 1.001
26.58000 5.771
26.60000 4.416
26.62000 1.508
26.64000 -1.874
26.66000 -3.522
26.68000 0.335
26.70000 -3.726
26.72000 0.394
26.74000 0.196
26.76000 2.479
26.78000 0.156
26.80000 -3.285
26.82000 0.225
26.84000 -2.063
26.86000 -1.098
26.88000 1.367
26.90000 2.346
26.92000 2.329
26.94000 0.534
26.96000 -3.164
26.98000 -2.418
27.00000 -2.966
27.02000 0.165
27.04000 0.014
27.06000 0.733
27.08000 2.298
27.10000 1.129
27.12000 -3.746
27.14000 -3.821
27.16000 -1.653
27.18000 -1.024
27.20000 3.208
27.22000 3.550
27.24000 -2.103
27.26000 -1.942
27.28000 0.659
27.30000 5.330
27.32000 6.141
27.34000 6.846
27.36000 5.050
27.38000 2.302
27.40000 4.096
27.42000 2.751
27.44000 -2.937
27.46000 2.290
27.48000 3.200
27.50000 3.436
27.52000 0.231
27.54000 -3.805
27.56000 -2.821
27.58000 -2.194
27.60000 -3.521
27.62000 0.609
27.64000 3.408
27.66000 0.455
27.68000 0.536
27.70000 2.860
27.72000 -0.875
27.74000 2.862
27.76000 2.203
27.78000 7.933
27.80000 8.035
27.82000 1.989
27.84000 2.563
27.86000 5.636
27.88000 3.674
27.90000 1.485
27.92000 -0.334
27.94000 2.615
27.96000 0.353
27.98000 -3.784
28.00000 0.123
28.02000 6.119
28.04000 4.494
28.06000 1.009
28.08000 1.579
28.10000 5.370
28.12000 2.324
28.14000 2.360
28.16000 2.690
28.18000 8.174
28.20000 4.905
28.22000 -2.365
28.24000 -1.657
28.26000 3.504
28.28000 3.836
28.30000 10.782
28.32000 8.330
28.34000 -1.351
28.36000 2.127
28.38000 2.471
28.40000 4.647
28.42000 4.272
28.44000 2.382
28.46000 4.653
28.48000 0.534
28.50000 -0.520
28.52000 6.169
28.54000 7.779
28.56000 4.103
28.58000 0.404
28.60000 0.702
28.62000 0.979
28.64000 2.445
28.66000 6.113
28.68000 2.087
28.70000 5.255
28.72000 0.253
28.74000 1.885
28.76000 6.600
28.78000 3.421
28.80000 3.400
28.82000 -3.722
28.84000 -2.954
28.86000 1.567
28.88000 1.623
28.90000 -1.588
28.92000 5.699
28.94000 5.857
28.96000 3.552
28.98000 6.310
29.00000 4.762
29.02000 2.583
29.04000 0.866
29.06000 0.591
29.08000 -1.624
29.10000 2.502
29.12000 2.474
29.14000 2.809
29.16000 5.530
29.18000 0.328
29.20000 -1.134
29.22000 0.921
29.24000 1.180
29.26000 5.356
29.28000 6.350
29.30000 -3.695
29.32000 5.560
29.34000 3.480
29.36000 1.111
29.38000 -0.399
29.40000 1.245
29.42000 1.374
29.44000 4.641
29.46000 2.008
29.48000 0.853
29.50000 1.187
29.52000 1.938
29.54000 4.393
29.56000 2.751
29.58000 -2.277
29.60000 -3.681
29.62000 3.765
29.64000 3.953
29.66000 4.311
29.68000 10.107
29.70000 6.786
29.72000 2.970
29.74000 4.118
29.76000 3.951
29.78000 -0.642
29.80000 -2.287
29.82000 0.113
29.84000 6.581
29.86000 7.640
29.88000 2.334
29.90000 2.088
29.92000 4.238
29.94000 6.268
29.96000 6.584
29.98000 1.429
30.00000 -0.184
30.02000 1.876
30.04000 5.107
30.06000 8.425
30.08000 4.612
30.10000 2.441
30.12000 -0.476
30.14000 2.370
30.16000 2.826
30.18000 3.175
30.20000 3.895
30.22000 3.188
30.24000 4.496
30.26000 1.890
30.28000 2.379
30.30000 -1.078
30.32000 -2.282
30.34000 -1.368
30.36000 0.614
30.38000 3.294
30.40000 7.042
30.42000 3.347
30.44000 2.576
30.46000 7.959
30.48000 5.004
30.50000 5.764
30.52000 8.741
30.54000 5.325
30.56000 8.325
30.58000 7.525
30.60000 3.825
30.62000 3.449
30.64000 0.695
30.66000 2.170
30.68000 3.550
30.70000 2.640
30.72000 0.326
30.74000 3.832
30.76000 5.772
30.78000 2.970
30.80000 6.707
30.82000 6.955
30.84000 5.377
30.86000 8.807
30.88000 5.817
30.90000 4.842
30.92000 -3.592
30.94000 1.022
30.96000 3.305
30.98000 5.898
31.00000 4.184
31.02000 2.898
31.04000 3.665
31.06000 3.320
31.08000 2.899
31.10000 1.128
31.12000 -0.847
31.14000 4.793
31.16000 3.333
31.18000 3.001
31.20000 3.064
31.22000 4.171
31.24000 -1.181
31.26000 1.187
31.28000 3.783
31.30000 8.774
31.32000 6.295
31.34000 -0.480
31.36000 1.127
31.38000 5.057
31.40000 5.556
31.42000 2.496
31.44000 2.787
31.46000 -1.439
31.48000 1.085
31.50000 1.535
31.52000 0.896
31.54000 -0.655
31.56000 -1.800
31.58000 1.754
31.60000 3.166
31.62000 0.484
31.64000 1.722
31.66000 8.476
31.68000 7.432
31.70000 1.350
31.72000 0.519
31.74000 3.127
31.76000 0.397
31.78000 2.779
31.80000 -0.425
31.82000 1.761
31.84000 -2.273
31.86000 -0.800
31.88000 2.936
31.90000 0.906
31.92000 -2.906
31.94000 1.255
31.96000 5.003
31.98000 2.054
32.00000 -0.202
32.02000 1.870
32.04000 -0.195
32.06000 0.248
32.08000 2.287
32.10000 3.788
32.12000 3.679
32.14000 6.289
32.16000 2.408
32.18000 -1.024
32.20000 2.699
32.22000 2.040
32.24000 -0.260
32.26000 -1.551
32.28000 1.876
32.30000 -1.011
32.32000 -3.593
32.34000 0.191
32.36000 0.612
32.38000 -2.569
32.40000 -3.590
32.42000 -2.934
32.44000 -2.762
32.46000 -1.623
32.48000 -0.200
32.50000 1.121
32.52000 1.886
32.54000 0.912
32.56000 -0.208
32.58000 -0.473
32.60000 -2.622
32.62000 0.590
32.64000 1.816
32.66000 2.001
32.68000 -0.061
32.70000 2.156
32.72000 3.111
32.74000 7.009
32.76000 2.701
32.78000 6.868
32.80000 7.559
32.82000 0.075
32.84000 0.134
32.86000 1.314
32.88000 2.613
32.90000 -2.115
32.92000 -2.520
32.94000 -0.617
32.96000 -1.668
32.98000 -1.568
33.00000 3.744
33.02000 3.698
33.04000 1.307
33.06000 -2.168
33.08000 -0.321
33.10000 3.264
33.12000 4.248
33.14000 -1.384
33.16000 1.239
33.18000 3.423
33.20000 -3.553
33.22000 -3.271
33.24000 -0.500
33.26000 3.593
33.28000 8.561
33.30000 1.432
33.32000 -1.856
33.34000 4.152
33.36000 5.666
33.38000 1.366
33.40000 4.766
33.42000 3.105
33.44000 7.453
33.46000 7.062
33.48000 6.096
33.50000 2.743
33.52000 1.610
33.54000 1.944
33.56000 -2.249
33.58000 4.330
33.60000 -0.074
33.62000 1.518
33.64000 7.221
33.66000 10.716
33.68000 3.458
33.70000 4.019
33.72000 1.347
33.74000 2.372
33.76000 3.393
33.78000 3.605
33.80000 2.678
33.82000 5.660
33.84000 10.027
33.86000 3.387
33.88000 4.486
33.90000 7.586
33.92000 4.444
33.94000 8.300
33.96000 6.265
33.98000 10.129
34.00000 6.287
34.02000 3.171
34.04000 6.205
34.06000 6.413
34.08000 6.133
34.10000 5.631
34.12000 6.656
34.14000 5.717
34.16000 8.002
34.18000 3.452
34.20000 4.243
34.22000 6.547
34.24000 0.121
34.26000 -1.224
34.28000 1.687
34.30000 7.612
34.32000 5.148
34.34000 -0.676
34.36000 0.191
34.38000 7.666
34.40000 4.854
34.42000 4.198
34.44000 2.313
34.46000 1.006
34.48000 -1.719
34.50000 2.999
34.52000 6.678
34.54000 6.871
34.56000 -0.507
34.58000 0.974
34.60000 1.419
34.62000 0.211
34.64000 -3.502
34.66000 -0.456
34.68000 0.560
34.70000 3.196
34.72000 4.121
34.74000 6.647
34.76000 9.133
34.78000 8.304
34.80000 3.490
34.82000 2.692
34.84000 2.979
34.86000 1.055
34.88000 -0.546
34.90000 7.152
34.92000 6.683
34.94000 6.680
34.96000 10.321
34.98000 7.272
35.00000 4.193
35.02000 1.644
35.04000 0.571
35.06000 4.993
35.08000 5.209
35.10000 5.220
35.12000 5.762
35.14000 -0.241
35.16000 -0.059
35.18000 2.861
35.20000 0.124
35.22000 1.003
35.24000 2.449
35.26000 1.273
35.28000 5.008
35.30000 1.769
35.32000 -3.495
35.34000 -0.588
35.36000 0.138
35.38000 1.417
35.40000 5.393
35.42000 3.955
35.44000 4.648
35.46000 6.794
35.48000 2.226
35.50000 1.908
35.52000 2.629
35.54000 0.839
35.56000 -0.194
35.58000 2.737
35.60000 4.026
35.62000 8.080
35.64000 5.966
35.66000 3.349
35.68000 4.463
35.70000 3.382
35.72000 -0.531
35.74000 -2.656
35.76000 -1.483
35.78000 9.264
35.80000 5.910
35.82000 3.283
35.84000 4.191
35.86000 -0.206
35.88000 2.093
35.90000 4.827
35.92000 5.311
35.94000 5.426
35.96000 1.514
35.98000 -3.519
36.00000 0.580
36.02000 3.778
36.04000 3.557
36.06000 4.652
36.08000 5.776
36.10000 5.858
36.12000 -0.314
36.14000 1.139
36.16000 3.360
36.18000 5.946
36.20000 9.015
36.22000 6.951
36.24000 6.242
36.26000 6.063
36.28000 1.000
36.30000 3.923
36.32000 4.650
36.34000 5.225
36.36000 2.525
36.38000 -1.329
36.40000 0.570
36.42000 2.563
36.44000 3.590
36.46000 4.450
36.48000 3.215
36.50000 4.143
36.52000 2.904
36.54000 8.360
36.56000 10.485
36.58000 8.745
36.60000 6.286
36.62000 3.364
36.64000 -1.376
36.66000 5.389
36.68000 0.507
36.70000 2.816
36.72000 -0.234
36.74000 -1.808
36.76000 -3.521
36.78000 -0.040
36.80000 1.755
36.82000 3.746
36.84000 5.131
36.86000 3.571
36.88000 -0.596
36.90000 -2.426
36.92000 3.497
36.94000 4.346
36.96000 6.608
36.98000 7.695
37.00000 4.078
37.02000 1.401
37.04000 3.949
37.06000 7.006
37.08000 4.098
37.10000 2.040
37.12000 3.040
37.14000 5.414
37.16000 3.714
37.18000 5.220
37.20000 2.658
37.22000 3.195
37.24000 6.643
37.26000 3.482
37.28000 3.991
37.30000 6.625
37.32000 9.616
37.34000 5.347
37.36000 4.902
37.38000 6.927
37.40000 6.039
37.42000 6.167
37.44000 6.444
37.46000 6.582
37.48000 3.725
37.50000 7.741
37.52000 8.470
37.54000 7.951
37.56000 8.441
37.58000 10.552
37.60000 9.405
37.62000 6.380
37.64000 10.625
37.66000 14.372
37.68000 10.670
37.70000 14.177
37.72000 13.844
37.74000 15.370
37.76000 14.656
37.78000 12.465
37.80000 17.374
37.82000 19.806
37.84000 20.085
37.86000 17.324
37.88000 15.417
37.90000 15.728
37.92000 12.874
37.94000 12.588
37.96000 14.639
37.98000 20.374
38.00000 20.436
38.02000 19.719
38.04000 16.868
38.06000 18.471
38.08000 17.623
38.10000 19.791
38.12000 21.144
38.14000 22.686
38.16000 23.480
38.18000 25.056
38.20000 24.288
38.22000 30.058
38.24000 25.661
38.26000 28.467
38.28000 28.783
38.30000 25.779
38.32000 31.647
38.34000 32.782
38.36000 29.475
38.38000 29.350
38.40000 28.144
38.42000 29.587
38.44000 37.234
38.46000 40.849
38.48000 46.858
38.50000 45.321
38.52000 46.203
38.54000 43.382
38.56000 47.949
38.58000 51.680
38.60000 51.903
38.62000 52.289
38.64000 58.549
38.66000 59.697
38.68000 61.121
38.70000 59.911
38.72000 66.050
38.74000 74.480
38.76000 69.042
38.78000 70.566
38.80000 73.832
38.82000 75.442
38.84000 81.370
38.86000 84.293
38.88000 84.136
38.90000 90.509
38.92000 95.273
38.94000 102.815
38.96000 109.748
38.98000 111.112
39.00000 121.119
39.02000 125.376
39.04000 134.377
39.06000 136.605
39.08000 139.657
39.10000 147.151
39.12000 155.084
39.14000 163.571
39.16000 170.915
39.18000 181.830
39.20000 201.388
39.22000 213.744
39.24000 220.457
39.26000 232.017
39.28000 244.502
39.30000 253.456
39.32000 268.131
39.34000 290.481
39.36000 312.570
39.38000 325.771
39.40000 354.494
39.42000 369.130
39.44000 386.290
39.46000 402.955
39.48000 431.315
39.50000 461.397
39.52000 492.895
39.54000 506.505
39.56000 533.213
39.58000 562.708
39.60000 596.874
39.62000 609.739
39.64000 629.124
39.66000 651.134
39.68000 677.002
39.70000 704.790
39.72000 725.637
39.74000 739.294
39.76000 751.604
39.78000 757.922
39.80000 761.056
39.82000 756.725
39.84000 767.559
39.86000 773.166
39.88000 766.138
39.90000 767.883
39.92000 758.601
39.94000 734.881
39.96000 718.532
39.98000 709.611
40.00000 693.232
40.02000 671.112
40.04000 647.782
40.06000 630.346
40.08000 612.835
40.10000 589.031
40.12000 555.143
40.14000 537.035
40.16000 513.887
40.18000 482.286
40.20000 459.158
40.22000 437.086
40.24000 417.677
40.26000 388.487
40.28000 374.665
40.30000 349.902
40.32000 328.820
40.34000 308.676
40.36000 283.814
40.38000 266.306
40.40000 251.633
40.42000 230.272
40.44000 215.008
40.46000 203.339
40.48000 193.914
40.50000 179.019
40.52000 163.868
40.54000 158.030
40.56000 153.690
40.58000 135.187
40.60000 130.767
40.62000 126.430
40.64000 114.417
40.66000 107.180
40.68000 98.530
40.70000 91.919
40.72000 85.429
40.74000 80.934
40.76000 83.778
40.78000 80.023
40.80000 76.768
40.82000 67.142
40.84000 58.531
40.86000 61.218
40.88000 55.633
40.90000 51.003
40.92000 50.600
40.94000 46.657
40.96000 43.011
40.98000 42.229
41.00000 43.047
41.02000 42.316
41.04000 39.136
41.06000 32.777
41.08000 32.394
41.10000 30.726
41.12000 28.269
41.14000 25.531
41.16000 21.732
41.18000 19.213
41.20000 23.873
41.22000 23.594
41.24000 23.553
41.26000 22.391
41.28000 22.185
41.30000 19.604
41.32000 21.687
41.34000 19.870
41.36000 16.791
41.38000 15.169
41.40000 15.639
41.42000 14.744
41.44000 12.695
41.46000 11.436
41.48000 8.842
41.50000 6.569
41.52000 7.756
41.54000 6.706
41.56000 7.474
41.58000 6.128
41.60000 6.196
41.62000 3.183
41.64000 9.607
41.66000 9.034
41.68000 8.563
41.70000 6.292
41.72000 4.358
41.74000 2.819
41.76000 6.469
41.78000 7.074
41.80000 4.870
41.82000 3.597
41.84000 3.562
41.86000 1.389
41.88000 4.266
41.90000 4.873
41.92000 1.889
41.94000 4.178
41.96000 1.031
41.98000 2.474
42.00000 1.475
42.02000 -0.139
42.04000 2.477
42.06000 1.541
42.08000 -1.228
42.10000 0.894
42.12000 1.551
42.14000 0.273
42.16000 2.739
42.18000 1.154
42.20000 0.309
42.22000 -3.047
42.24000 0.809
42.26000 2.117
42.28000 2.105
42.30000 2.455
42.32000 1.619
42.34000 -0.917
42.36000 -1.417
42.38000 -3.396
42.40000 1.172
42.42000 2.800
42.44000 -1.462
42.46000 -0.861
42.48000 -2.911
42.50000 -1.976
42.52000 -2.937
42.54000 -1.941
42.56000 -0.469
42.58000 -0.719
42.60000 -0.105
42.62000 0.023
42.64000 1.133
42.66000 1.679
42.68000 2.921
42.70000 1.684
42.72000 1.401
42.74000 3.057
42.76000 1.141
42.78000 -3.298
42.80000 -2.164
42.82000 2.155
42.84000 0.089
42.86000 1.680
42.88000 -2.062
42.90000 -3.256
42.92000 0.744
42.94000 2.101
42.96000 3.379
42.98000 -0.906
43.00000 -2.041
43.02000 1.727
43.04000 4.069
43.06000 0.804
43.08000 3.223
43.10000 0.730
43.12000 -3.244
43.14000 0.259
43.16000 3.441
43.18000 4.698
43.20000 2.681
43.22000 -0.262
43.24000 0.295
43.26000 5.123
43.28000 0.052
43.30000 0.743
43.32000 0.155
43.34000 1.806
43.36000 0.518
43.38000 3.016
43.40000 -0.619
43.42000 -2.373
43.44000 -1.266
43.46000 0.405
43.48000 2.460
43.50000 0.735
43.52000 -1.822
43.54000 3.911
43.56000 3.054
43.58000 3.610
43.60000 3.448
43.62000 3.369
43.64000 2.002
43.66000 1.848
43.68000 2.162
43.70000 -0.270
43.72000 -0.275
43.74000 -3.208
43.76000 -1.859
43.78000 0.597
43.80000 0.900
43.82000 0.122
43.84000 2.734
43.86000 1.356
43.88000 -3.199
43.90000 -0.039
43.92000 0.375
43.94000 -1.778
43.96000 1.351
43.98000 -2.281
44.00000 -3.186
44.02000 -0.478
44.04000 -1.712
44.06000 -0.768
44.08000 0.260
44.10000 -0.703
44.12000 3.228
44.14000 2.444
44.16000 -0.667
44.18000 -2.409
44.20000 -0.526
44.22000 0.822
44.24000 4.033
44.26000 0.990
44.28000 0.065
44.30000 1.372
44.32000 -0.149
44.34000 2.024
44.36000 0.974
44.38000 -3.178
44.40000 -1.145
44.42000 1.987
44.44000 1.039
44.46000 -0.636
44.48000 -2.771
44.50000 -1.738
44.52000 1.963
44.54000 -0.538
44.56000 0.863
44.58000 -3.173
44.60000 -1.927
44.62000 0.935
44.64000 2.017
44.66000 3.040
44.68000 1.531
44.70000 2.939
44.72000 4.974
44.74000 1.516
44.76000 -1.285
44.78000 -2.549
44.80000 -1.525
44.82000 -1.371
44.84000 0.432
44.86000 2.772
44.88000 1.574
44.90000 6.123
44.92000 5.523
44.94000 3.327
44.96000 0.771
44.98000 4.089
45.00000 7.791
45.02000 8.777
45.04000 7.556
45.06000 4.915
45.08000 -0.737
45.10000 -0.727
45.12000 1.624
45.14000 3.433
45.16000 4.501
45.18000 7.843
45.20000 3.453
45.22000 4.516
45.24000 8.096
45.26000 5.110
45.28000 2.630
45.30000 6.343
45.32000 6.275
45.34000 7.638
45.36000 4.190
45.38000 5.241
45.40000 6.214
45.42000 8.137
45.44000 8.835
45.46000 12.228
45.48000 14.572
45.50000 12.961
45.52000 14.009
45.54000 12.258
45.56000 14.357
45.58000 14.415
45.60000 13.823
45.62000 16.860
45.64000 23.159
45.66000 23.330
45.68000 20.789
45.70000 16.260
45.72000 16.638
45.74000 17.870
45.76000 15.067
45.78000 23.149
45.80000 24.397
45.82000 24.864
45.84000 30.335
45.86000 32.523
45.88000 30.094
45.90000 34.339
45.92000 32.997
45.94000 28.430
45.96000 36.060
45.98000 34.812
46.00000 41.025
46.02000 42.059
46.04000 46.442
46.06000 46.189
46.08000 42.719
46.10000 46.486
46.12000 50.770
46.14000 49.075
46.16000 52.132
46.18000 55.982
46.20000 54.923
46.22000 56.758
46.24000 65.334
46.26000 66.216
46.28000 64.817
46.30000 64.356
46.32000 66.460
46.34000 66.453
46.36000 66.394
46.38000 69.999
46.40000 73.168
46.42000 74.445
46.44000 76.053
46.46000 83.616
46.48000 81.224
46.50000 80.861
46.52000 79.484
46.54000 78.865
46.56000 80.554
46.58000 74.361
46.60000 74.728
46.62000 76.829
46.64000 77.272
46.66000 72.473
46.68000 72.205
46.70000 70.619
46.72000 70.238
46.74000 70.607
46.76000 68.141
46.78000 67.566
46.80000 64.998
46.82000 65.787
46.84000 65.201
46.86000 58.919
46.88000 58.776
46.90000 59.686
46.92000 57.094
46.94000 55.330
46.96000 51.283
46.98000 49.399
47.00000 42.207
47.02000 41.289
47.04000 40.580
47.06000 36.612
47.08000 37.503
47.10000 37.077
47.12000 32.821
47.14000 28.975
47.16000 28.093
47.18000 26.139
47.20000 23.672
47.22000 23.834
47.24000 24.177
47.26000 21.027
47.28000 18.433
47.30000 15.662
47.32000 16.029
47.34000 17.236
47.36000 14.105
47.38000 12.716
47.40000 14.368
47.42000 12.282
47.44000 12.904
47.46000 11.443
47.48000 11.917
47.50000 10.215
47.52000 7.406
47.54000 10.171
47.56000 11.226
47.58000 6.160
47.60000 3.578
47.62000 2.627
47.64000 3.455
47.66000 3.371
47.68000 2.922
47.70000 1.553
47.72000 5.807
47.74000 4.731
47.76000 3.121
47.78000 0.593
47.80000 1.968
47.82000 1.913
47.84000 3.440
47.86000 4.827
47.88000 -0.810
47.90000 -0.037
47.92000 2.553
47.94000 4.306
47.96000 3.841
47.98000 4.074
48.00000 4.737
48.02000 8.181
48.04000 4.075
48.06000 0.403
48.08000 -2.541
48.10000 1.991
48.12000 4.609
48.14000 -0.591
48.16000 -1.273
48.18000 -0.280
48.20000 -2.786
48.22000 -1.632
48.24000 -2.234
48.26000 -0.781
48.28000 2.294
48.30000 4.086
48.32000 0.513
48.34000 0.853
48.36000 0.432
48.38000 -2.130
48.40000 -1.054
48.42000 0.142
48.44000 2.343
48.46000 2.101
48.48000 -0.111
48.50000 0.223
48.52000 2.885
48.54000 1.924
48.56000 -1.534
48.58000 1.753
48.60000 2.150
48.62000 3.103
48.64000 2.531
48.66000 -1.867
48.68000 -1.840
48.70000 -0.306
48.72000 2.149
48.74000 0.203
48.76000 0.349
48.78000 3.077
48.80000 4.343
48.82000 0.412
48.84000 6.132
48.86000 7.409
48.88000 2.205
48.90000 -0.713
48.92000 -1.719
48.94000 0.505
48.96000 7.384
48.98000 10.411
49.00000 5.042
49.02000 0.536
49.04000 -2.374
49.06000 -0.055
49.08000 4.694
49.10000 -1.985
49.12000 -2.643
49.14000 -0.159
49.16000 3.672
49.18000 5.166
49.20000 1.169
49.22000 -2.640
49.24000 -1.807
49.26000 3.181
49.28000 7.112
49.30000 6.166
49.32000 1.234
49.34000 1.608
49.36000 2.710
49.38000 1.868
49.40000 2.706
49.42000 2.748
49.44000 2.960
49.46000 2.315
49.48000 1.542
49.50000 0.269
49.52000 0.890
49.54000 1.615
49.56000 4.295
49.58000 0.249
49.60000 2.476
49.62000 1.386
49.64000 1.973
49.66000 2.478
49.68000 0.879
49.70000 -0.023
49.72000 3.049
49.74000 4.281
49.76000 0.685
49.78000 -0.147
49.80000 0.351
49.82000 2.153
49.84000 -0.526
49.86000 2.819
49.88000 2.791
49.90000 1.556
49.92000 3.662
49.94000 7.536
49.96000 6.535
49.98000 1.043
50.00000 5.154
50.02000 1.109
50.04000 -2.586
50.06000 -0.040
50.08000 0.984
50.10000 -0.663
50.12000 1.420
50.14000 -0.136
50.16000 -1.692
50.18000 6.378
50.20000 7.221
50.22000 3.668
50.24000 2.748
50.26000 0.560
50.28000 1.294
50.30000 1.405
50.32000 1.338
50.34000 2.535
50.36000 1.188
50.38000 0.937
50.40000 -0.898
50.42000 -2.598
50.44000 -0.521
50.46000 1.237
50.48000 6.250
50.50000 5.350
50.52000 3.442
50.54000 3.424
50.56000 6.967
50.58000 5.792
50.60000 1.343
50.62000 -0.572
50.64000 4.495
50.66000 5.052
50.68000 1.846
50.70000 4.652
50.72000 4.701
50.74000 3.664
50.76000 4.616
50.78000 2.451
50.80000 4.079
50.82000 4.870
50.84000 3.429
50.86000 3.401
50.88000 2.881
50.90000 4.358
50.92000 2.349
50.94000 2.213
50.96000 -0.830
50.98000 -0.602
51.00000 0.870
51.02000 4.764
51.04000 1.505
51.06000 -2.568
51.08000 -0.299
51.10000 3.672
51.12000 1.079
51.14000 1.360
51.16000 1.001
51.18000 3.773
51.20000 4.221
51.22000 2.463
51.24000 -1.626
51.26000 0.401
51.28000 1.434
51.30000 2.849
51.32000 1.079
51.34000 4.877
51.36000 1.330
51.38000 4.018
51.40000 3.427
51.42000 3.306
51.44000 1.058
51.46000 -1.535
51.48000 -2.560
51.50000 3.885
51.52000 2.776
51.54000 1.123
51.56000 3.495
51.58000 2.632
51.60000 2.583
51.62000 4.344
51.64000 3.015
51.66000 2.170
51.68000 0.977
51.70000 4.595
51.72000 3.252
51.74000 1.427
51.76000 1.825
51.78000 4.784
51.80000 2.253
51.82000 2.071
51.84000 3.818
51.86000 3.064
51.88000 2.109
51.90000 3.821
51.92000 -2.514
51.94000 -2.542
51.96000 2.928
51.98000 1.674
52.00000 3.577
52.02000 5.267
52.04000 2.383
52.06000 1.751
52.08000 2.724
52.10000 4.649
52.12000 0.569
52.14000 -0.452
52.16000 -0.521
52.18000 -1.333
52.20000 2.143
52.22000 -0.137
52.24000 0.152
52.26000 0.286
52.28000 1.460
52.30000 0.634
52.32000 -1.812
52.34000 1.471
52.36000 -2.151
52.38000 0.147
52.40000 3.014
52.42000 0.308
52.44000 3.870
52.46000 1.529
52.48000 -2.352
52.50000 1.978
52.52000 2.614
52.54000 -0.361
52.56000 1.927
52.58000 2.520
52.60000 1.933
52.62000 4.983
52.64000 1.407
52.66000 3.811
52.68000 3.792
52.70000 6.327
52.72000 3.877
52.74000 3.225
52.76000 1.485
52.78000 -0.131
52.80000 -0.876
52.82000 -1.948
52.84000 -2.214
52.86000 0.505
52.88000 2.099
52.90000 0.415
52.92000 2.404
52.94000 -0.591
52.96000 -0.098
52.98000 1.719
53.00000 5.124
53.02000 4.187
53.04000 2.873
53.06000 5.024
53.08000 3.739
53.10000 1.815
53.12000 2.933
53.14000 1.581
53.16000 0.179
53.18000 -0.832
53.20000 -2.506
53.22000 1.029
53.24000 2.829
53.26000 1.351
53.28000 1.146
53.30000 -0.393
53.32000 -1.823
53.34000 -1.112
53.36000 3.491
53.38000 2.288
53.40000 0.703
53.42000 0.829
53.44000 -0.294
53.46000 -2.489
53.48000 1.675
53.50000 4.731
53.52000 2.339
53.54000 5.795
53.56000 5.742
53.58000 4.480
53.60000 4.320
53.62000 4.924
53.64000 1.587
53.66000 -0.682
53.68000 0.432
53.70000 0.377
53.72000 0.674
53.74000 0.787
53.76000 2.760
53.78000 4.491
53.80000 2.340
53.82000 2.297
53.84000 -0.213
53.86000 1.506
53.88000 2.969
53.90000 1.008
53.92000 4.020
53.94000 2.367
53.96000 1.455
53.98000 5.134
54.00000 0.896
54.02000 1.209
54.04000 1.386
54.06000 -2.462
54.08000 -0.031
54.10000 3.350
54.12000 2.993
54.14000 -1.237
54.16000 -1.464
54.18000 0.580
54.20000 1.196
54.22000 3.486
54.24000 2.193
54.26000 1.537
54.28000 3.391
54.30000 2.922
54.32000 5.508
54.34000 5.655
54.36000 2.809
54.38000 1.273
54.40000 -0.454
54.42000 1.786
54.44000 5.365
54.46000 -1.123
54.48000 2.234
54.50000 0.100
54.52000 1.354
54.54000 2.874
54.56000 1.319
54.58000 3.921
54.60000 2.098
54.62000 -1.047
54.64000 2.406
54.66000 2.862
54.68000 3.956
54.70000 5.678
54.72000 2.332
54.74000 3.787
54.76000 1.948
54.78000 1.790
54.80000 3.088
54.82000 5.287
54.84000 2.767
54.86000 1.940
54.88000 3.197
54.90000 3.364
54.92000 7.387
54.94000 4.787
54.96000 2.171
54.98000 4.280
55.00000 4.312
55.02000 3.412
55.04000 5.210
55.06000 4.794
55.08000 1.691
55.10000 1.598
55.12000 2.220
55.14000 2.884
55.16000 1.952
55.18000 3.734
55.20000 4.517
55.22000 1.758
55.24000 2.996
55.26000 4.680
55.28000 3.208
55.30000 0.548
55.32000 -2.437
55.34000 0.401
55.36000 2.192
55.38000 2.415
55.40000 2.388
55.42000 -1.268
55.44000 -0.554
55.46000 3.407
55.48000 0.044
55.50000 1.068
55.52000 3.187
55.54000 1.489
55.56000 4.021
55.58000 1.508
55.60000 0.563
55.62000 4.466
55.64000 4.603
55.66000 2.120
55.68000 1.730
55.70000 3.549
55.72000 3.320
55.74000 6.026
55.76000 7.552
55.78000 7.266
55.80000 1.672
55.82000 -0.055
55.84000 1.865
55.86000 -2.413
55.88000 -2.001
55.90000 3.734
55.92000 2.444
55.94000 5.922
55.96000 6.118
55.98000 2.988
56.00000 -0.198
56.02000 3.017
56.04000 4.631
56.06000 5.359
56.08000 3.105
56.10000 3.517
56.12000 1.500
56.14000 5.096
56.16000 4.774
56.18000 4.528
56.20000 4.075
56.22000 0.521
56.24000 -2.130
56.26000 -2.420
56.28000 -1.052
56.30000 -1.306
56.32000 1.791
56.34000 5.895
56.36000 2.131
56.38000 4.175
56.40000 5.075
56.42000 5.282
56.44000 4.264
56.46000 3.699
56.48000 3.142
56.50000 2.876
56.52000 2.767
56.54000 1.536
56.56000 5.530
56.58000 0.864
56.60000 2.600
56.62000 0.241
56.64000 1.625
56.66000 -0.030
56.68000 0.956
56.70000 0.854
56.72000 0.347
56.74000 -0.541
56.76000 0.736
56.78000 0.102
56.80000 0.854
56.82000 5.313
56.84000 -2.410
56.86000 -1.314
56.88000 0.370
56.90000 3.249
56.92000 6.102
56.94000 1.284
56.96000 3.249
56.98000 -0.093
57.00000 3.898
57.02000 1.909
57.04000 1.169
57.06000 1.091
57.08000 -0.390
57.10000 2.078
57.12000 0.683
57.14000 0.588
57.16000 5.473
57.18000 4.842
57.20000 2.300
57.22000 3.909
57.24000 4.108
57.26000 0.543
57.28000 3.307
57.30000 3.317
57.32000 -0.015
57.34000 0.619
57.36000 1.976
57.38000 4.669
57.40000 2.464
57.42000 -0.821
57.44000 1.313
57.46000 0.937
57.48000 -0.036
57.50000 -0.026
57.52000 0.713
57.54000 2.802
57.56000 6.131
57.58000 1.567
57.60000 -0.509
57.62000 0.089
57.64000 0.233
57.66000 1.144
57.68000 4.063
57.70000 4.809
57.72000 2.419
57.74000 2.505
57.76000 0.088
57.78000 -2.391
57.80000 -0.390
57.82000 0.966
57.84000 1.003
57.86000 2.478
57.88000 0.811
57.90000 1.898
57.92000 3.036
57.94000 1.407
57.96000 3.082
57.98000 3.402
58.00000 3.385
58.02000 4.264
58.04000 2.747
58.06000 2.703
58.08000 1.526
58.10000 1.872
58.12000 1.985
58.14000 -0.480
58.16000 -2.368
58.18000 0.160
58.20000 4.963
58.22000 0.896
58.24000 -2.174
58.26000 -2.105
58.28000 0.865
58.30000 2.937
58.32000 1.381
58.34000 1.271
58.36000 -0.083
58.38000 1.035
58.40000 -1.030
58.42000 1.393
58.44000 4.983
58.46000 -0.267
58.48000 2.840
58.50000 6.120
58.52000 4.099
58.54000 5.805
58.56000 6.146
58.58000 4.971
58.60000 1.380
58.62000 -1.264
58.64000 3.513
58.66000 1.039
58.68000 -0.836
58.70000 2.499
58.72000 2.091
58.74000 2.250
58.76000 -0.049
58.78000 -2.343
58.80000 -0.115
58.82000 3.715
58.84000 6.009
58.86000 4.802
58.88000 1.065
58.90000 -1.831
58.92000 -1.374
58.94000 1.553
58.96000 3.230
58.98000 3.321
59.00000 1.019
59.02000 1.135
59.04000 -0.124
59.06000 -0.535
59.08000 0.516
59.10000 1.805
59.12000 5.827
59.14000 5.165
59.16000 3.422
59.18000 2.125
59.20000 2.258
59.22000 1.059
59.24000 -0.964
59.26000 3.361
59.28000 3.088
59.30000 0.469
59.32000 0.436
59.34000 -1.066
59.36000 1.676
59.38000 -1.330
59.40000 0.238
59.42000 3.036
59.44000 1.928
59.46000 1.774
59.48000 1.777
59.50000 3.092
59.52000 4.610
59.54000 1.164
59.56000 1.346
59.58000 4.411
59.60000 1.195
59.62000 0.746
59.64000 0.768
59.66000 -1.287
59.68000 -2.213
59.70000 3.422
59.72000 1.685
59.74000 1.048
59.76000 -1.771
59.78000 -0.856
59.80000 5.050
59.82000 2.744
59.84000 -0.852
59.86000 1.151
59.88000 1.793
59.90000 1.525
59.92000 2.699
59.94000 0.563
59.96000 0.610
59.98000 -0.643
60.00000 0.879
60.02000 1.303
60.04000 -0.419
60.06000 2.718
60.08000 0.383
60.10000 -0.388
60.12000 3.370
60.14000 4.830
60.16000 2.546
60.18000 1.364
60.20000 1.443
60.22000 1.394
60.24000 0.589
60.26000 -0.971
60.28000 -1.297
60.30000 1.788
60.32000 -0.279
60.34000 4.872
60.36000 2.289
60.38000 0.058
60.40000 0.840
60.42000 3.242
60.44000 5.285
60.46000 0.362
60.48000 -2.294
60.50000 0.364
60.52000 -0.572
60.54000 6.598
60.56000 6.025
60.58000 3.639
60.60000 1.783
60.62000 1.042
60.64000 -0.567
60.66000 -0.304
60.68000 0.921
60.70000 1.244
60.72000 2.997
60.74000 3.081
60.76000 3.698
60.78000 4.872
60.80000 5.142
60.82000 4.709
60.84000 2.296
60.86000 1.698
60.88000 1.208
60.90000 3.820
60.92000 7.036
60.94000 6.447
60.96000 4.705
60.98000 2.440
61.00000 3.579
61.02000 1.698
61.04000 -2.267
61.06000 1.810
61.08000 4.129
61.10000 2.794
61.12000 4.749
61.14000 6.126
61.16000 1.939
61.18000 -1.855
61.20000 -0.194
61.22000 2.605
61.24000 5.246
61.26000 3.119
61.28000 0.189
61.30000 -2.175
61.32000 0.428
61.34000 1.710
61.36000 1.640
61.38000 1.304
61.40000 1.176
61.42000 1.332
61.44000 3.917
61.46000 1.828
61.48000 -2.263
61.50000 -1.611
61.52000 -0.144
61.54000 1.233
61.56000 1.773
61.58000 4.515
61.60000 3.144
61.62000 1.382
61.64000 -0.094
61.66000 1.179
61.68000 0.788
61.70000 1.842
61.72000 -0.652
61.74000 -0.204
61.76000 -0.348
61.78000 1.836
61.80000 1.593
61.82000 1.774
61.84000 2.807
61.86000 4.141
61.88000 2.784
61.90000 0.888
61.92000 -0.236
61.94000 -1.144
61.96000 1.355
61.98000 3.471
62.00000 2.281
62.02000 2.089
62.04000 3.436
62.06000 1.530
62.08000 1.494
62.10000 2.069
62.12000 2.297
62.14000 4.947
62.16000 4.032
62.18000 0.882
62.20000 0.183
62.22000 -1.675
62.24000 1.400
62.26000 1.587
62.28000 -0.993
62.30000 1.156
62.32000 0.673
62.34000 1.407
62.36000 4.115
62.38000 4.452
62.40000 3.308
62.42000 0.546
62.44000 1.254
62.46000 2.193
62.48000 0.138
62.50000 1.826
62.52000 3.074
62.54000 0.956
62.56000 0.663
62.58000 2.107
62.60000 -2.047
62.62000 3.053
62.64000 5.792
62.66000 1.446
62.68000 1.043
62.70000 2.674
62.72000 1.678
62.74000 0.126
62.76000 1.039
62.78000 3.927
62.80000 1.651
62.82000 1.166
62.84000 0.387
62.86000 -0.136
62.88000 -1.025
62.90000 -0.290
62.92000 -0.472
62.94000 -0.361
62.96000 3.571
62.98000 4.137
63.00000 -0.422
63.02000 -2.258
63.04000 -0.083
63.06000 3.949
63.08000 4.291
63.10000 1.028
63.12000 1.608
63.14000 0.811
63.16000 1.364
63.18000 0.111
63.20000 2.114
63.22000 2.895
63.24000 1.353
63.26000 2.655
63.28000 1.713
63.30000 -0.544
63.32000 0.644
63.34000 3.709
63.36000 -0.595
63.38000 0.584
63.40000 2.348
63.42000 1.721
63.44000 2.869
63.46000 1.630
63.48000 1.473
63.50000 1.955
63.52000 -0.190
63.54000 2.289
63.56000 1.918
63.58000 -1.633
63.60000 -0.166
63.62000 -0.265
63.64000 1.522
63.66000 0.551
63.68000 1.553
63.70000 3.653
63.72000 2.822
63.74000 1.322
63.76000 3.456
63.78000 0.935
63.80000 0.716
63.82000 -2.259
63.84000 -1.892
63.86000 1.502
63.88000 2.704
63.90000 0.577
63.92000 1.344
63.94000 3.351
63.96000 1.233
63.98000 2.584
64.00000 2.066
64.02000 -0.947
64.04000 -0.638
64.06000 2.268
64.08000 4.024
64.10000 1.138
64.12000 1.359
64.14000 0.294
64.16000 -0.667
64.18000 0.455
64.20000 0.038
64.22000 1.918
64.24000 3.342
64.26000 1.257
64.28000 0.191
64.30000 -0.966
64.32000 2.754
64.34000 3.629
64.36000 0.239
64.38000 -0.608
64.40000 0.163
64.42000 0.596
64.44000 1.158
64.46000 -0.469
64.48000 2.653
64.50000 2.510
64.52000 2.678
64.54000 0.771
64.56000 0.112
64.58000 -1.389
64.60000 -0.703
64.62000 4.065
64.64000 4.668
64.66000 1.131
64.68000 1.119
64.70000 2.955
64.72000 2.798
64.74000 3.236
64.76000 2.232
64.78000 2.031
64.80000 2.375
64.82000 -0.307
64.84000 2.137
64.86000 2.002
64.88000 0.441
64.90000 3.456
64.92000 0.214
64.94000 2.990
64.96000 4.263
64.98000 1.364
65.00000 1.138
65.02000 0.144
65.04000 -0.848
65.06000 -0.894
65.08000 1.120
65.10000 -1.185
65.12000 0.245
65.14000 3.869
65.16000 4.170
65.18000 2.925
65.20000 0.562
65.22000 0.583
65.24000 1.547
65.26000 3.262
65.28000 3.011
65.30000 3.289
65.32000 5.690
65.34000 5.742
65.36000 2.890
65.38000 3.838
65.40000 1.857
65.42000 1.053
65.44000 2.608
65.46000 3.761
65.48000 0.652
65.50000 1.264
65.52000 2.292
65.54000 -1.253
65.56000 -2.251
65.58000 1.417
65.60000 2.652
65.62000 3.384
65.64000 3.146
65.66000 1.285
65.68000 3.869
65.70000 3.043
65.72000 2.526
65.74000 1.152
65.76000 1.652
65.78000 1.277
65.80000 2.288
65.82000 2.267
65.84000 0.638
65.86000 1.897
65.88000 2.685
65.90000 2.314
65.92000 2.878
65.94000 0.668
65.96000 -1.169
65.98000 1.318
66.00000 1.153
66.02000 2.752
66.04000 3.318
66.06000 -0.034
66.08000 -0.441
66.10000 -0.468
66.12000 1.832
66.14000 -0.899
66.16000 1.563
66.18000 1.905
66.20000 2.984
66.22000 -0.203
66.24000 0.483
66.26000 3.416
66.28000 4.951
66.30000 -0.245
66.32000 2.784
66.34000 0.348
66.36000 -0.215
66.38000 0.050
66.40000 1.005
66.42000 -0.490
66.44000 -1.992
66.46000 -1.484
66.48000 -0.459
66.50000 0.803
66.52000 -2.357
66.54000 -1.592
66.56000 -1.360
66.58000 -1.721
66.60000 -0.659
66.62000 0.863
66.64000 0.869
66.66000 0.750
66.68000 2.343
66.70000 -0.004
66.72000 3.791
66.74000 5.989
66.76000 3.835
66.78000 1.127
66.80000 1.997
66.82000 1.536
66.84000 5.695
66.86000 5.532
66.88000 3.828
66.90000 0.660
66.92000 -0.580
66.94000 3.350
66.96000 2.842
66.98000 2.722
67.00000 1.243
67.02000 3.297
67.04000 3.260
67.06000 4.220
67.08000 3.174
67.10000 0.944
67.12000 2.952
67.14000 5.612
67.16000 6.436
67.18000 7.318
67.20000 9.656
67.22000 8.436
67.24000 7.384
67.26000 5.579
67.28000 7.863
67.30000 6.796
67.32000 9.275
67.34000 9.467
67.36000 8.500
67.38000 7.873
67.40000 8.428
67.42000 7.304
67.44000 7.192
67.46000 11.187
67.48000 10.363
67.50000 12.902
67.52000 13.443
67.54000 10.941
67.56000 13.421
67.58000 11.489
67.60000 9.361
67.62000 11.734
67.64000 16.872
67.66000 16.036
67.68000 15.458
67.70000 12.219
67.72000 13.483
67.74000 17.283
67.76000 16.235
67.78000 17.320
67.80000 17.041
67.82000 14.959
67.84000 13.182
67.86000 13.289
67.88000 10.344
67.90000 13.867
67.92000 14.858
67.94000 10.114
67.96000 8.856
67.98000 9.872
68.00000 9.998
68.02000 11.328
68.04000 15.195
68.06000 15.064
68.08000 15.256
68.10000 13.325
68.12000 11.620
68.14000 10.344
68.16000 10.367
68.18000 10.248
68.20000 8.903
68.22000 7.419
68.24000 8.160
68.26000 9.047
68.28000 6.401
68.30000 8.242
68.32000 6.414
68.34000 7.777
68.36000 5.460
68.38000 5.732
68.40000 5.344
68.42000 3.441
68.44000 4.017
68.46000 3.892
68.48000 5.431
68.50000 4.944
68.52000 2.040
68.54000 0.632
68.56000 2.428
68.58000 2.014
68.60000 1.585
68.62000 1.550
68.64000 2.173
68.66000 4.030
68.68000 3.344
68.70000 2.537
68.72000 2.086
68.74000 1.763
68.76000 2.326
68.78000 -0.125
68.80000 2.173
68.82000 4.144
68.84000 -0.158
68.86000 -1.977
68.88000 -1.922
68.90000 3.005
68.92000 0.705
68.94000 0.496
68.96000 0.863
68.98000 -0.508
69.00000 -2.050
69.02000 -0.685
69.04000 1.115
69.06000 -1.348
69.08000 1.695
69.10000 1.575
69.12000 2.582
69.14000 0.979
69.16000 -2.263
69.18000 -1.767
69.20000 -2.199
69.22000 -2.123
69.24000 -1.212
69.26000 0.569
69.28000 2.018
69.30000 0.782
69.32000 -0.440
69.34000 2.022
69.36000 0.415
69.38000 -1.503
69.40000 0.614
69.42000 1.142
69.44000 -2.225
69.46000 0.882
69.48000 2.575
69.50000 4.763
69.52000 2.100
69.54000 -0.806
69.56000 2.454
69.58000 0.743
69.60000 0.962
69.62000 -0.799
69.64000 2.261
69.66000 -0.674
69.68000 1.272
69.70000 1.909
69.72000 1.203
69.74000 -0.181
69.76000 0.783
69.78000 0.706
69.80000 -0.765
69.82000 2.490
69.84000 1.223
69.86000 2.355
69.88000 3.202
69.90000 3.930
69.92000 2.128
69.94000 1.171
69.96000 3.904
69.98000 2.725
70.00000 1.937
70.02000 1.904
70.04000 4.794
70.06000 3.090
70.08000 3.645
70.10000 1.359
70.12000 0.195
70.14000 2.406
70.16000 2.076
70.18000 2.319
70.20000 1.918
70.22000 3.619
70.24000 0.682
70.26000 1.631
70.28000 0.808
70.30000 -2.075
70.32000 -0.624
70.34000 0.042
70.36000 3.262
70.38000 4.819
70.40000 0.687
70.42000 2.813
70.44000 1.642
70.46000 2.979
70.48000 3.229
70.50000 4.810
70.52000 3.383
70.54000 1.200
70.56000 1.357
70.58000 3.130
70.60000 4.592
70.62000 6.929
70.64000 4.569
70.66000 5.083
70.68000 7.352
70.70000 5.413
70.72000 4.103
70.74000 4.732
70.76000 5.034
70.78000 2.386
70.80000 4.018
70.82000 2.159
70.84000 0.193
70.86000 -0.973
70.88000 -2.108
70.90000 0.222
70.92000 1.569
70.94000 4.652
70.96000 3.426
70.98000 5.176
71.00000 5.871
71.02000 5.894
71.04000 2.255
71.06000 2.184
71.08000 1.338
71.10000 0.896
71.12000 3.321
71.14000 1.244
71.16000 5.170
71.18000 4.006
71.20000 4.224
71.22000 3.954
71.24000 2.592
71.26000 3.492
71.28000 4.780
71.30000 5.070
71.32000 5.698
71.34000 5.552
71.36000 2.931
71.38000 1.756
71.40000 2.388
71.42000 3.229
71.44000 1.068
71.46000 0.292
71.48000 -1.790
71.50000 -0.557
71.52000 2.636
71.54000 6.285
71.56000 4.437
71.58000 1.374
71.60000 2.262
71.62000 3.087
71.64000 3.154
71.66000 3.618
71.68000 0.762
71.70000 3.063
71.72000 3.830
71.74000 3.604
71.76000 2.679
71.78000 1.858
71.80000 1.438
71.82000 1.069
71.84000 3.150
71.86000 1.815
71.88000 0.064
71.90000 2.755
71.92000 2.579
71.94000 0.416
71.96000 -0.805
71.98000 1.877
72.00000 4.664
72.02000 5.628
72.04000 4.726
72.06000 2.324
72.08000 2.475
72.10000 5.762
72.12000 2.788
72.14000 -2.111
72.16000 0.813
72.18000 2.782
72.20000 3.055
72.22000 0.453
72.24000 1.129
72.26000 5.355
72.28000 1.736
72.30000 3.189
72.32000 -0.435
72.34000 -0.568
72.36000 2.624
72.38000 1.977
72.40000 2.720
72.42000 -0.598
72.44000 -0.808
72.46000 0.346
72.48000 -1.694
72.50000 -0.028
72.52000 1.754
72.54000 4.528
72.56000 4.055
72.58000 1.284
72.60000 -0.134
72.62000 -0.112
72.64000 -1.600
72.66000 -1.804
72.68000 0.039
72.70000 0.936
72.72000 -0.098
72.74000 1.527
72.76000 4.094
72.78000 4.390
72.80000 0.530
72.82000 4.122
72.84000 2.043
72.86000 0.736
72.88000 0.488
72.90000 0.525
72.92000 0.608
72.94000 0.548
72.96000 0.422
72.98000 1.338
73.00000 0.688
73.02000 4.780
73.04000 4.360
73.06000 1.521
73.08000 0.692
73.10000 2.317
73.12000 -0.027
73.14000 -1.749
73.16000 -0.843
73.18000 -2.105
73.20000 1.553
73.22000 -0.787
73.24000 -1.176
73.26000 1.141
73.28000 3.774
73.30000 3.245
73.32000 2.007
73.34000 2.257
73.36000 0.120
73.38000 0.309
73.40000 0.451
73.42000 2.757
73.44000 3.118
73.46000 4.364
73.48000 1.215
73.50000 0.469
73.52000 0.934
73.54000 1.485
73.56000 -0.459
73.58000 0.790
73.60000 2.140
73.62000 6.029
73.64000 5.897
73.66000 2.816
73.68000 1.158
73.70000 1.000
73.72000 1.748
73.74000 3.114
73.76000 1.517
73.78000 1.928
73.80000 0.812
73.82000 1.720
73.84000 2.246
73.86000 3.822
73.88000 0.153
73.90000 -2.092
73.92000 3.087
73.94000 -0.451
73.96000 -0.315
73.98000 2.694
74.00000 4.776
74.02000 2.466
74.04000 4.062
74.06000 4.584
74.08000 2.587
74.10000 2.719
74.12000 3.953
74.14000 3.663
74.16000 2.926
74.18000 1.420
74.20000 0.808
74.22000 0.711
74.24000 1.121
74.26000 3.079
74.28000 -2.096
74.30000 -0.449
74.32000 1.832
74.34000 2.914
74.36000 2.489
74.38000 3.293
74.40000 1.325
74.42000 0.686
74.44000 1.474
74.46000 2.680
74.48000 3.230
74.50000 0.592
74.52000 -1.825
74.54000 1.716
74.56000 4.114
74.58000 3.696
74.60000 0.991
74.62000 0.993
74.64000 0.349
74.66000 0.328
74.68000 -1.011
74.70000 -1.002
74.72000 2.914
74.74000 3.753
74.76000 2.835
74.78000 -0.505
74.80000 2.725
74.82000 4.541
74.84000 2.650
74.86000 1.219
74.88000 1.137
74.90000 1.833
74.92000 -0.988
74.94000 -0.745
74.96000 3.033
74.98000 6.142
75.00000 2.760
75.02000 1.241
75.04000 3.628
75.06000 2.734
75.08000 0.633
75.10000 1.600
75.12000 -0.435
75.14000 1.199
75.16000 1.660
75.18000 0.024
75.20000 4.442
75.22000 3.658
75.24000 -0.624
75.26000 -0.584
75.28000 0.741
75.30000 0.761
75.32000 0.167
75.34000 2.511
75.36000 3.850
75.38000 3.043
75.40000 3.169
75.42000 4.342
75.44000 4.626
75.46000 4.573
75.48000 1.775
75.50000 3.541
75.52000 2.968
75.54000 -2.057
75.56000 0.361
75.58000 4.660
75.60000 2.055
75.62000 0.309
75.64000 0.792
75.66000 -0.016
75.68000 -0.560
75.70000 0.896
75.72000 1.198
75.74000 1.846
75.76000 3.175
75.78000 3.367
75.80000 3.976
75.82000 3.237
75.84000 -1.799
75.86000 0.032
75.88000 4.266
75.90000 4.576
75.92000 7.382
75.94000 0.643
75.96000 0.043
75.98000 1.720
76.00000 4.095
76.02000 2.383
76.04000 2.611
76.06000 4.808
76.08000 -0.902
76.10000 -2.090
76.12000 0.510
76.14000 3.609
76.16000 4.037
76.18000 5.117
76.20000 2.658
76.22000 3.784
76.24000 4.151
76.26000 3.588
76.28000 2.868
76.30000 0.277
76.32000 2.094
76.34000 1.238
76.36000 -1.259
76.38000 1.413
76.40000 3.482
76.42000 1.999
76.44000 2.244
76.46000 4.204
76.48000 2.342
76.50000 0.151
76.52000 0.600
76.54000 3.376
76.56000 3.192
76.58000 3.154
76.60000 4.090
76.62000 3.461
76.64000 -0.733
76.66000 2.744
76.68000 2.372
76.70000 5.031
76.72000 3.554
76.74000 8.193
76.76000 8.241
76.78000 2.196
76.80000 1.690
76.82000 5.150
76.84000 4.068
76.86000 4.713
76.88000 4.286
76.90000 1.751
76.92000 5.886
76.94000 7.906
76.96000 6.494
76.98000 0.965
77.00000 2.476
77.02000 -1.481
77.04000 2.836
77.06000 3.826
77.08000 0.916
77.10000 1.072
77.12000 2.882
77.14000 3.657
77.16000 5.753
77.18000 2.327
77.20000 -2.111
77.22000 0.610
77.24000 5.583
77.26000 3.088
77.28000 6.104
77.30000 6.067
77.32000 3.461
77.34000 -2.108
77.36000 0.436
77.38000 1.670
77.40000 1.884
77.42000 1.845
77.44000 1.130
77.46000 1.778
77.48000 0.263
77.50000 3.701
77.52000 4.550
77.54000 7.316
77.56000 2.912
77.58000 -0.805
77.60000 3.497
77.62000 1.502
77.64000 2.367
77.66000 0.675
77.68000 -1.610
77.70000 3.842
77.72000 2.175
77.74000 0.373
77.76000 1.992
77.78000 0.894
77.80000 -2.036
77.82000 -0.719
77.84000 1.896
77.86000 3.222
77.88000 0.358
77.90000 0.623
77.92000 -1.162
77.94000 1.508
77.96000 0.134
77.98000 1.147
78.00000 0.394
78.02000 3.684
78.04000 5.386
78.06000 2.824
78.08000 2.286
78.10000 1.435
78.12000 3.548
78.14000 4.518
78.16000 6.977
78.18000 5.147
78.20000 2.712
78.22000 -1.930
78.24000 -0.068
78.26000 4.611
78.28000 0.816
78.30000 0.108
78.32000 2.227
78.34000 3.191
78.36000 2.517
78.38000 3.708
78.40000 1.646
78.42000 -1.688
78.44000 2.274
78.46000 2.435
78.48000 3.444
78.50000 5.215
78.52000 3.295
78.54000 2.345
78.56000 4.682
78.58000 1.968
78.60000 4.452
78.62000 7.548
78.64000 2.150
78.66000 1.872
78.68000 5.539
78.70000 5.149
78.72000 2.063
78.74000 -0.994
78.76000 2.084
78.78000 -0.926
78.80000 0.893
78.82000 -2.175
78.84000 3.108
78.86000 5.510
78.88000 2.256
78.90000 2.353
78.92000 1.546
78.94000 0.272
78.96000 3.288
78.98000 4.183
79.00000 0.917
79.02000 -2.185
79.04000 1.691
79.06000 1.608
79.08000 4.322
79.10000 4.297
79.12000 -1.478
79.14000 1.969
79.16000 0.264
79.18000 0.880
79.20000 2.142
79.22000 2.625
79.24000 3.097
79.26000 2.357
79.28000 -0.888
79.30000 2.926
79.32000 6.071
79.34000 2.455
79.36000 1.926
79.38000 1.508
79.40000 2.201
79.42000 6.135
79.44000 8.010
79.46000 5.503
79.48000 0.633
79.50000 1.437
79.52000 -1.217
79.54000 -0.322
79.56000 -2.198
79.58000 -1.124
79.60000 -2.144
79.62000 1.905
79.64000 8.312
79.66000 5.860
79.68000 3.182
79.70000 3.786
79.72000 3.753
79.74000 2.092
79.76000 5.016
79.78000 5.537
79.80000 2.393
79.82000 0.670
79.84000 -0.371
79.86000 2.251
79.88000 2.540
79.90000 5.308
79.92000 3.385
79.94000 -2.254
79.96000 -0.128
79.98000 4.688
80.00000 0.794
80.02000 0.729
80.04000 3.773
80.06000 3.233
80.08000 7.205
80.10000 0.739
80.12000 1.997
80.14000 -0.752
80.16000 3.337
80.18000 1.223
80.20000 -0.675
80.22000 -1.036
80.24000 1.878
80.26000 3.047
80.28000 1.998
80.30000 4.388
80.32000 2.606
80.34000 2.095
80.36000 0.007
80.38000 2.429
80.40000 0.311
80.42000 -0.422
80.44000 2.999
80.46000 7.615
80.48000 7.299
80.50000 3.286
80.52000 2.613
80.54000 2.979
80.56000 3.196
80.58000 4.959
80.60000 8.008
80.62000 4.123
80.64000 2.069
80.66000 7.719
80.68000 8.910
80.70000 12.370
80.72000 9.048
80.74000 1.984
80.76000 4.602
80.78000 7.396
80.80000 9.584
80.82000 6.188
80.84000 8.451
80.86000 10.242
80.88000 11.550
80.90000 8.654
80.92000 8.179
80.94000 8.067
80.96000 6.182
80.98000 11.668
81.00000 11.416
81.02000 11.996
81.04000 18.389
81.06000 16.763
81.08000 17.250
81.10000 17.533
81.12000 12.486
81.14000 14.664
81.16000 20.130
81.18000 21.440
81.20000 17.492
81.22000 17.544
81.24000 19.543
81.26000 19.505
81.28000 18.152
81.30000 19.295
81.32000 23.857
81.34000 27.856
81.36000 27.070
81.38000 28.781
81.40000 28.371
81.42000 25.996
81.44000 26.312
81.46000 25.590
81.48000 23.075
81.50000 26.332
81.52000 27.775
81.54000 31.605
81.56000 30.244
81.58000 27.457
81.60000 27.895
81.62000 28.491
81.64000 33.516
81.66000 34.898
81.68000 30.195
81.70000 33.041
81.72000 33.008
81.74000 29.768
81.76000 33.804
81.78000 37.975
81.80000 34.496
81.82000 30.385
81.84000 29.341
81.86000 31.026
81.88000 35.257
81.90000 30.880
81.92000 32.891
81.94000 35.041
81.96000 35.099
81.98000 31.613
82.00000 28.314
82.02000 27.743
82.04000 23.859
82.06000 27.135
82.08000 28.254
82.10000 28.512
82.12000 25.504
82.14000 26.118
82.16000 25.567
82.18000 29.946
82.20000 25.340
82.22000 21.218
82.24000 23.750
82.26000 26.832
82.28000 23.111
82.30000 25.692
82.32000 22.018
82.34000 20.010
82.36000 22.569
82.38000 21.687
82.40000 17.373
82.42000 18.537
82.44000 14.423
82.46000 14.708
82.48000 14.602
82.50000 15.019
82.52000 17.587
82.54000 14.201
82.56000 14.025
82.58000 10.785
82.60000 13.593
82.62000 12.356
82.64000 11.078
82.66000 15.664
82.68000 12.277
82.70000 11.300
82.72000 11.400
82.74000 11.114
82.76000 9.122
82.78000 5.315
82.80000 2.846
82.82000 5.197
82.84000 4.763
82.86000 7.306
82.88000 8.255
82.90000 4.310
82.92000 0.360
82.94000 3.269
82.96000 6.800
82.98000 6.631
83.00000 9.118
83.02000 4.774
83.04000 4.598
83.06000 2.749
83.08000 5.839
83.10000 8.753
83.12000 3.884
83.14000 5.856
83.16000 4.660
83.18000 1.574
83.20000 1.942
83.22000 4.166
83.24000 4.256
83.26000 3.555
83.28000 4.385
83.30000 0.848
83.32000 -0.671
83.34000 -2.283
83.36000 -0.684
83.38000 -0.208
83.40000 2.478
83.42000 1.629
83.44000 0.728
83.46000 1.688
83.48000 -0.312
83.50000 2.603
83.52000 2.731
83.54000 0.009
83.56000 1.356
83.58000 2.253
83.60000 3.646
83.62000 1.441
83.64000 -1.724
83.66000 0.449
83.68000 -0.772
83.70000 -1.711
83.72000 1.269
83.74000 2.111
83.76000 1.143
83.78000 0.375
83.80000 2.520
83.82000 0.951
83.84000 -2.304
83.86000 -2.304
83.88000 0.223
83.90000 -0.766
83.92000 -0.209
83.94000 0.274
83.96000 0.122
83.98000 -2.028
84.00000 -1.098
84.02000 -1.797
84.04000 -1.171
84.06000 2.278
84.08000 0.324
84.10000 -1.759
84.12000 -0.938
84.14000 -2.316
84.16000 -1.971
84.18000 1.486
84.20000 -0.081
84.22000 -1.124
84.24000 0.050
84.26000 0.394
84.28000 0.420
84.30000 0.764
84.32000 -1.541
84.34000 1.517
84.36000 1.198
84.38000 4.224
84.40000 -0.687
84.42000 -1.678
84.44000 -1.253
84.46000 1.083
84.48000 -2.030
84.50000 -2.332
84.52000 1.052
84.54000 5.056
84.56000 2.782
84.58000 3.701
84.60000 3.635
84.62000 3.950
84.64000 -1.774
84.66000 1.226
84.68000 6.174
84.70000 0.929
84.72000 0.691
84.74000 1.134
84.76000 1.835
84.78000 7.496
84.80000 5.616
84.82000 4.727
84.84000 4.401
84.86000 4.298
84.88000 5.385
84.90000 4.759
84.92000 5.080
84.94000 4.510
84.96000 8.881
84.98000 10.574
85.00000 7.606
85.02000 7.976
85.04000 8.359
85.06000 7.777
85.08000 7.484
85.10000 10.736
85.12000 9.602
85.14000 7.177
85.16000 14.791
85.18000 12.925
85.20000 11.744
85.22000 7.821
85.24000 8.371
85.26000 11.124
85.28000 11.672
85.30000 13.435
85.32000 16.244
85.34000 16.882
85.36000 13.839
85.38000 16.739
85.40000 19.956
85.42000 21.484
85.44000 15.867
85.46000 19.936
85.48000 17.476
85.50000 17.174
85.52000 17.199
85.54000 20.879
85.56000 26.702
85.58000 23.843
85.60000 21.906
85.62000 23.652
85.64000 22.701
85.66000 28.621
85.68000 30.549
85.70000 29.673
85.72000 24.688
85.74000 25.629
85.76000 25.400
85.78000 21.368
85.80000 22.127
85.82000 21.766
85.84000 19.180
85.86000 20.886
85.88000 24.485
85.90000 26.460
85.92000 23.793
85.94000 25.145
85.96000 28.877
85.98000 27.398
86.00000 24.713
86.02000 26.867
86.04000 26.282
86.06000 22.927
86.08000 24.380
86.10000 26.528
86.12000 25.259
86.14000 24.677
86.16000 21.674
86.18000 19.410
86.20000 18.116
86.22000 19.807
86.24000 20.754
86.26000 16.694
86.28000 19.460
86.30000 19.441
86.32000 17.317
86.34000 12.669
86.36000 13.952
86.38000 13.873
86.40000 8.301
86.42000 7.402
86.44000 10.761
86.46000 12.483
86.48000 10.910
86.50000 14.895
86.52000 13.993
86.54000 10.382
86.56000 8.749
86.58000 7.339
86.60000 9.611
86.62000 10.665
86.64000 9.340
86.66000 9.688
86.68000 10.247
86.70000 9.928
86.72000 8.251
86.74000 6.293
86.76000 7.213
86.78000 4.801
86.80000 5.729
86.82000 7.075
86.84000 6.272
86.86000 2.157
86.88000 0.289
86.90000 2.884
86.92000 3.373
86.94000 3.648
86.96000 1.648
86.98000 1.736
87.00000 1.617
87.02000 3.642
87.04000 0.735
87.06000 -0.279
87.08000 -0.287
87.10000 0.207
87.12000 1.590
87.14000 1.183
87.16000 -0.359
87.18000 0.439
87.20000 2.809
87.22000 -1.471
87.24000 -1.615
87.26000 -0.756
87.28000 -2.122
87.30000 0.160
87.32000 2.855
87.34000 -0.056
87.36000 0.133
87.38000 2.020
87.40000 1.517
87.42000 4.319
87.44000 4.273
87.46000 1.580
87.48000 -0.957
87.50000 -2.087
87.52000 3.844
87.54000 5.325
87.56000 1.148
87.58000 -1.277
87.60000 0.725
87.62000 1.918
87.64000 3.974
87.66000 2.045
87.68000 0.000
87.70000 -0.549
87.72000 1.392
87.74000 4.190
87.76000 3.477
87.78000 2.933
87.80000 4.153
87.82000 1.747
87.84000 4.083
87.86000 2.731
87.88000 3.884
87.90000 0.348
87.92000 -2.036
87.94000 1.003
87.96000 2.199
87.98000 -0.336
88.00000 -1.332
88.02000 0.929
88.04000 1.277
88.06000 4.563
88.08000 0.474
88.10000 -0.780
88.12000 3.775
88.14000 3.557
88.16000 2.035
88.18000 4.438
88.20000 0.603
88.22000 2.368
88.24000 0.748
88.26000 0.405
88.28000 0.597
88.30000 1.034
88.32000 3.714
88.34000 3.053
88.36000 -0.236
88.38000 2.262
88.40000 6.873
88.42000 4.320
88.44000 3.430
88.46000 2.146
88.48000 0.622
88.50000 -0.179
88.52000 -1.632
88.54000 -1.108
88.56000 0.692
88.58000 3.114
88.60000 2.087
88.62000 1.877
88.64000 3.362
88.66000 3.858
88.68000 7.015
88.70000 6.009
88.72000 3.155
88.74000 1.474
88.76000 3.657
88.78000 -0.224
88.80000 0.441
88.82000 0.141
88.84000 1.300
88.86000 6.936
88.88000 10.360
88.90000 7.044
88.92000 6.749
88.94000 4.801
88.96000 2.340
88.98000 -1.948
89.00000 2.491
89.02000 1.696
89.04000 1.918
89.06000 2.887
89.08000 2.074
89.10000 4.825
89.12000 2.300
89.14000 2.279
89.16000 4.447
89.18000 3.269
89.20000 0.502
89.22000 2.507
89.24000 4.270
89.26000 0.925
89.28000 -0.493
89.30000 1.980
89.32000 3.134
89.34000 1.978
89.36000 -0.599
89.38000 0.508
89.40000 2.601
89.42000 3.425
89.44000 3.696
89.46000 2.352
89.48000 1.856
89.50000 2.955
89.52000 4.292
89.54000 1.792
89.56000 3.156
89.58000 2.902
89.60000 -0.568
89.62000 0.219
89.64000 1.147
89.66000 -0.333
89.68000 1.811
89.70000 0.952
89.72000 -0.227
89.74000 0.134
89.76000 4.005
89.78000 2.748
89.80000 5.473
89.82000 5.696
89.84000 4.638
89.86000 3.047
89.88000 3.456
89.90000 -0.583
89.92000 0.030
89.94000 0.968
89.96000 0.818
89.98000 2.113
90.00000 2.741
90.02000 0.609
90.04000 -1.455
90.06000 -1.994
90.08000 -0.400
90.10000 -1.151
90.12000 -1.112
90.14000 -1.994
90.16000 -0.279
90.18000 4.823
90.20000 3.723
90.22000 0.830
90.24000 0.410
90.26000 -0.995
90.28000 -0.266
90.30000 1.154
90.32000 0.520
90.34000 1.139
90.36000 0.256
90.38000 -1.501
90.40000 -0.313
90.42000 1.684
90.44000 3.646
90.46000 3.190
90.48000 1.660
90.50000 -1.032
90.52000 0.096
90.54000 1.443
90.56000 1.847
90.58000 3.542
90.60000 2.811
90.62000 1.265
90.64000 -0.378
90.66000 1.251
90.68000 0.574
90.70000 2.262
90.72000 -0.045
90.74000 -1.889
90.76000 -1.493
90.78000 -0.267
90.80000 0.726
90.82000 1.190
90.84000 4.786
90.86000 5.042
90.88000 4.624
90.90000 -1.992
90.92000 0.624
90.94000 -1.086
90.96000 0.183
90.98000 0.009
91.00000 5.160
91.02000 1.544
91.04000 -1.199
91.06000 0.548
91.08000 -1.347
91.10000 0.828
91.12000 2.948
91.14000 3.563
91.16000 1.672
91.18000 1.445
91.20000 5.529
91.22000 3.319
91.24000 0.017
91.26000 0.299
91.28000 4.765
91.30000 0.191
91.32000 0.431
91.34000 -1.416
91.36000 0.916
91.38000 1.068
91.40000 1.675
91.42000 0.422
91.44000 -1.257
91.46000 0.669
91.48000 1.218
91.50000 2.103
91.52000 -0.150
91.54000 0.091
91.56000 1.047
91.58000 1.873
91.60000 1.504
91.62000 3.504
91.64000 2.454
91.66000 5.666
91.68000 2.487
91.70000 2.791
91.72000 3.312
91.74000 2.998
91.76000 4.053
91.78000 2.516
91.80000 0.653
91.82000 -0.513
91.84000 4.700
91.86000 6.272
91.88000 4.820
91.90000 3.938
91.92000 4.148
91.94000 2.707
91.96000 0.976
91.98000 1.396
92.00000 -1.973
92.02000 0.845
92.04000 1.974
92.06000 3.240
92.08000 8.055
92.10000 4.610
92.12000 2.274
92.14000 4.339
92.16000 -0.463
92.18000 2.242
92.20000 3.917
92.22000 4.493
92.24000 3.354
92.26000 6.072
92.28000 3.645
92.30000 -1.968
92.32000 1.003
92.34000 5.764
92.36000 4.502
92.38000 3.565
92.40000 0.783
92.42000 5.101
92.44000 3.721
92.46000 1.808
92.48000 1.638
92.50000 0.718
92.52000 4.696
92.54000 6.327
92.56000 8.280
92.58000 4.884
92.60000 3.995
92.62000 4.862
92.64000 4.676
92.66000 2.696
92.68000 2.166
92.70000 3.907
92.72000 3.902
92.74000 2.331
92.76000 1.927
92.78000 3.244
92.80000 0.532
92.82000 0.640
92.84000 4.060
92.86000 -0.073
92.88000 2.003
92.90000 2.046
92.92000 0.287
92.94000 -0.147
92.96000 3.214
92.98000 0.889
93.00000 2.941
93.02000 3.961
93.04000 4.461
93.06000 1.819
93.08000 0.921
93.10000 4.372
93.12000 3.530
93.14000 -0.197
93.16000 0.058
93.18000 1.128
93.20000 0.478
93.22000 -1.397
93.24000 0.993
93.26000 5.138
93.28000 6.519
93.30000 1.483
93.32000 3.617
93.34000 2.648
93.36000 2.428
93.38000 3.969
93.40000 3.143
93.42000 2.515
93.44000 -1.961
93.46000 -1.479
93.48000 1.789
93.50000 3.112
93.52000 3.319
93.54000 5.130
93.56000 9.438
93.58000 9.948
93.60000 6.756
93.62000 4.310
93.64000 5.809
93.66000 5.292
93.68000 0.878
93.70000 1.396
93.72000 2.440
93.74000 4.598
93.76000 4.016
93.78000 0.903
93.80000 4.060
93.82000 3.702
93.84000 2.179
93.86000 4.052
93.88000 5.116
93.90000 7.582
93.92000 5.259
93.94000 1.014
93.96000 0.609
93.98000 -0.558
94.00000 5.077
94.02000 4.122
94.04000 3.022
94.06000 1.936
94.08000 0.632
94.10000 1.572
94.12000 0.831
94.14000 4.397
94.16000 4.709
94.18000 6.885
94.20000 5.552
94.22000 2.312
94.24000 3.054
94.26000 1.555
94.28000 1.469
94.30000 1.897
94.32000 0.532
94.34000 -0.428
94.36000 0.478
94.38000 0.122
94.40000 3.962
94.42000 3.469
94.44000 0.687
94.46000 2.901
94.48000 4.246
94.50000 5.448
94.52000 2.391
94.54000 2.552
94.56000 2.282
94.58000 4.314
94.60000 4.296
94.62000 2.297
94.64000 2.397
94.66000 4.180
94.68000 6.073
94.70000 4.266
94.72000 5.160
94.74000 2.816
94.76000 2.997
94.78000 5.725
94.80000 0.372
94.82000 3.657
94.84000 6.965
94.86000 7.102
94.88000 5.104
94.90000 4.351
94.92000 6.548
94.94000 9.148
94.96000 8.249
94.98000 5.033
95.00000 3.645
95.02000 -0.504
95.04000 -1.971
95.06000 2.185
95.08000 5.940
95.10000 6.864
95.12000 7.784
95.14000 1.420
95.16000 4.292
95.18000 6.416
95.20000 2.133
95.22000 2.294
95.24000 2.186
95.26000 0.163
95.28000 5.602
95.30000 8.952
95.32000 4.367
95.34000 3.040
95.36000 -1.076
95.38000 -0.518
95.40000 2.344
95.42000 6.558
95.44000 4.024
95.46000 2.332
95.48000 6.991
95.50000 6.283
95.52000 8.321
95.54000 8.252
95.56000 2.407
95.58000 2.763
95.60000 1.524
95.62000 -1.000
95.64000 -1.730
95.66000 0.326
95.68000 2.709
95.70000 2.830
95.72000 3.172
95.74000 -0.240
95.76000 4.546
95.78000 2.950
95.80000 -0.868
95.82000 3.181
95.84000 5.794
95.86000 9.670
95.88000 10.735
95.90000 8.288
95.92000 3.324
95.94000 3.169
95.96000 2.694
95.98000 5.205
96.00000 2.402
96.02000 7.005
96.04000 7.188
96.06000 5.122
96.08000 0.953
96.10000 3.568
96.12000 -2.026
96.14000 0.486
96.16000 0.934
96.18000 4.973
96.20000 3.723
96.22000 6.349
96.24000 8.277
96.26000 3.805
96.28000 2.750
96.30000 1.001
96.32000 -1.118
96.34000 -0.739
96.36000 2.104
96.38000 3.821
96.40000 4.149
96.42000 1.876
96.44000 -0.499
96.46000 0.468
96.48000 1.171
96.50000 -0.297
96.52000 -2.019
96.54000 4.602
96.56000 3.633
96.58000 7.072
96.60000 7.196
96.62000 5.895
96.64000 6.410
96.66000 2.367
96.68000 -2.016
96.70000 -1.559
96.72000 3.296
96.74000 5.621
96.76000 4.270
96.78000 2.281
96.80000 1.445
96.82000 3.324
96.84000 5.084
96.86000 4.181
96.88000 5.301
96.90000 4.153
96.92000 5.178
96.94000 4.223
96.96000 5.219
96.98000 6.598
97.00000 6.315
97.02000 4.502
97.04000 0.065
97.06000 5.104
97.08000 5.694
97.10000 2.563
97.12000 3.685
97.14000 1.847
97.16000 0.880
97.18000 0.753
97.20000 1.324
97.22000 1.721
97.24000 0.983
97.26000 4.886
97.28000 2.845
97.30000 6.617
97.32000 2.162
97.34000 2.736
97.36000 4.697
97.38000 3.155
97.40000 1.186
97.42000 0.185
97.44000 1.589
97.46000 -1.119
97.48000 0.724
97.50000 6.542
97.52000 7.641
97.54000 5.726
97.56000 6.290
97.58000 2.389
97.60000 2.442
97.62000 8.159
97.64000 2.252
97.66000 -1.631
97.68000 0.306
97.70000 4.521
97.72000 4.277
97.74000 6.276
97.76000 3.198
97.78000 4.630
97.80000 3.117
97.82000 1.233
97.84000 4.555
97.86000 8.773
97.88000 11.399
97.90000 11.211
97.92000 17.620
97.94000 8.547
97.96000 4.093
97.98000 4.182
98.00000 4.489
98.02000 11.809
98.04000 10.695
98.06000 10.826
98.08000 4.944
98.10000 -0.276
98.12000 1.066
98.14000 1.407
98.16000 5.185
98.18000 10.921
98.20000 17.116
98.22000 9.737
98.24000 6.101
98.26000 3.214
98.28000 5.273
98.30000 8.558
98.32000 8.881
98.34000 9.614
98.36000 9.793
98.38000 7.936
98.40000 7.535
98.42000 11.223
98.44000 8.657
98.46000 3.187
98.48000 1.923
98.50000 -1.902
98.52000 6.639
98.54000 5.359
98.56000 5.465
98.58000 3.535
98.60000 6.134
98.62000 3.133
98.64000 -0.081
98.66000 2.640
98.68000 12.350
98.70000 11.106
98.72000 3.992
98.74000 -1.141
98.76000 2.617
98.78000 8.247
98.80000 7.086
98.82000 10.205
98.84000 8.693
98.86000 9.888
98.88000 8.712
98.90000 3.749
98.92000 7.458
98.94000 1.168
98.96000 1.516
98.98000 8.091
99.00000 5.297
99.02000 3.547
99.04000 -1.891
99.06000 5.609
99.08000 3.850
99.10000 5.579
99.12000 9.321
99.14000 5.345
99.16000 3.024
99.18000 0.533
99.20000 2.882
99.22000 4.319
99.24000 7.353
99.26000 4.890
99.28000 4.021
99.30000 0.157
99.32000 5.346
99.34000 8.767
99.36000 7.405
99.38000 8.281
99.40000 5.991
99.42000 9.357
99.44000 10.376
99.46000 9.193
99.48000 0.868
99.50000 -1.725
99.52000 10.261
99.54000 13.941
99.56000 5.712
99.58000 0.646
99.60000 5.673
99.62000 13.360
99.64000 8.917
99.66000 2.913
99.68000 -1.938
99.70000 1.018
99.72000 7.586
99.74000 5.653
99.76000 1.763
99.78000 12.893
99.80000 11.252
99.82000 3.417
99.84000 5.340
99.86000 12.491
99.88000 6.201
99.90000 2.185
99.92000 -2.282
99.94000 6.248
99.96000 2.245
99.98000 0.000
