'Id: "0011388" Comment: "Integrate frame 0011388_Au-Ir-Rh_Rh-rich_XRD-Mapping-233-0000.gfrmwith cursor Wedge Cursor #5" Operator: "B?rgel" Anode: "Cu" Wavelength: "1.5406" Scantype: "2Theta (TwoTheta)" TimePerStep: "1" X: "13.5" Y: "13.5" Z: "5.95" 
10.00000 0.000
10.02000 8.580
10.04000 -3.920
10.06000 3.384
10.08000 4.749
10.10000 5.328
10.12000 19.871
10.14000 16.947
10.16000 1.786
10.18000 8.262
10.20000 9.166
10.22000 15.267
10.24000 22.054
10.26000 16.029
10.28000 -2.768
10.30000 3.470
10.32000 16.137
10.34000 15.088
10.36000 9.584
10.38000 9.702
10.40000 -1.046
10.42000 9.338
10.44000 17.062
10.46000 -3.963
10.48000 -3.801
10.50000 17.907
10.52000 18.140
10.54000 7.035
10.56000 12.106
10.58000 24.258
10.60000 24.321
10.62000 26.121
10.64000 19.579
10.66000 7.265
10.68000 15.193
10.70000 26.209
10.72000 20.725
10.74000 5.901
10.76000 3.583
10.78000 13.076
10.80000 8.528
10.82000 -4.030
10.84000 10.733
10.86000 16.412
10.88000 20.978
10.90000 12.261
10.92000 12.065
10.94000 13.140
10.96000 17.858
10.98000 24.975
11.00000 10.012
11.02000 3.471
11.04000 -1.248
11.06000 9.782
11.08000 19.548
11.10000 34.825
11.12000 18.952
11.14000 1.574
11.16000 7.099
11.18000 15.581
11.20000 18.905
11.22000 17.260
11.24000 18.445
11.26000 14.647
11.28000 4.474
11.30000 7.615
11.32000 11.530
11.34000 18.001
11.36000 22.593
11.38000 7.811
11.40000 13.180
11.42000 19.078
11.44000 11.128
11.46000 9.229
11.48000 4.522
11.50000 14.767
11.52000 17.809
11.54000 19.681
11.56000 24.129
11.58000 22.099
11.60000 27.312
11.62000 29.320
11.64000 25.339
11.66000 14.135
11.68000 3.704
11.70000 7.165
11.72000 21.604
11.74000 24.652
11.76000 13.525
11.78000 17.512
11.80000 3.722
11.82000 8.645
11.84000 15.113
11.86000 7.453
11.88000 8.698
11.90000 18.153
11.92000 17.487
11.94000 19.428
11.96000 19.494
11.98000 13.601
12.00000 16.575
12.02000 9.673
12.04000 11.532
12.06000 17.659
12.08000 19.970
12.10000 7.201
12.12000 5.680
12.14000 16.808
12.16000 18.534
12.18000 20.225
12.20000 18.744
12.22000 18.408
12.24000 22.000
12.26000 19.382
12.28000 10.351
12.30000 15.875
12.32000 18.212
12.34000 16.008
12.36000 10.230
12.38000 6.937
12.40000 16.884
12.42000 22.261
12.44000 24.999
12.46000 22.105
12.48000 26.233
12.50000 20.828
12.52000 6.297
12.54000 21.078
12.56000 25.408
12.58000 7.951
12.60000 13.771
12.62000 18.486
12.64000 12.065
12.66000 12.112
12.68000 15.908
12.70000 24.216
12.72000 24.151
12.74000 15.332
12.76000 19.731
12.78000 20.819
12.80000 15.065
12.82000 17.685
12.84000 23.417
12.86000 15.518
12.88000 9.048
12.90000 18.985
12.92000 25.680
12.94000 16.316
12.96000 14.443
12.98000 11.236
13.00000 11.779
13.02000 19.745
13.04000 28.578
13.06000 33.265
13.08000 26.007
13.10000 25.828
13.12000 23.825
13.14000 23.109
13.16000 25.674
13.18000 24.761
13.20000 30.670
13.22000 20.902
13.24000 10.705
13.26000 7.202
13.28000 17.673
13.30000 15.440
13.32000 18.422
13.34000 31.062
13.36000 24.065
13.38000 20.316
13.40000 17.742
13.42000 22.540
13.44000 10.149
13.46000 11.325
13.48000 11.070
13.50000 11.729
13.52000 8.424
13.54000 9.926
13.56000 21.639
13.58000 16.714
13.60000 7.974
13.62000 19.519
13.64000 17.174
13.66000 22.335
13.68000 16.698
13.70000 11.903
13.72000 8.967
13.74000 8.880
13.76000 15.420
13.78000 15.808
13.80000 18.110
13.82000 21.477
13.84000 15.733
13.86000 19.984
13.88000 19.834
13.90000 8.932
13.92000 4.354
13.94000 5.999
13.96000 11.055
13.98000 20.707
14.00000 28.682
14.02000 14.347
14.04000 21.286
14.06000 18.589
14.08000 18.255
14.10000 19.710
14.12000 14.236
14.14000 8.964
14.16000 16.189
14.18000 15.745
14.20000 15.153
14.22000 13.436
14.24000 18.056
14.26000 16.497
14.28000 13.874
14.30000 9.814
14.32000 5.585
14.34000 10.881
14.36000 19.441
14.38000 25.447
14.40000 10.201
14.42000 2.752
14.44000 7.907
14.46000 17.405
14.48000 11.334
14.50000 8.355
14.52000 15.886
14.54000 14.537
14.56000 20.558
14.58000 18.836
14.60000 27.308
14.62000 20.165
14.64000 19.581
14.66000 15.432
14.68000 16.185
14.70000 21.738
14.72000 18.811
14.74000 12.382
14.76000 12.723
14.78000 0.907
14.80000 10.716
14.82000 17.529
14.84000 17.033
14.86000 20.316
14.88000 12.525
14.90000 11.314
14.92000 8.937
14.94000 12.410
14.96000 22.165
14.98000 26.330
15.00000 17.161
15.02000 14.449
15.04000 12.341
15.06000 12.100
15.08000 10.179
15.10000 7.081
15.12000 9.416
15.14000 12.375
15.16000 18.619
15.18000 20.714
15.20000 16.959
15.22000 9.452
15.24000 14.490
15.26000 6.733
15.28000 5.674
15.30000 10.805
15.32000 12.138
15.34000 10.323
15.36000 11.345
15.38000 7.321
15.40000 7.722
15.42000 11.184
15.44000 10.116
15.46000 10.758
15.48000 18.386
15.50000 27.697
15.52000 18.461
15.54000 16.029
15.56000 15.097
15.58000 13.456
15.60000 10.476
15.62000 4.810
15.64000 2.334
15.66000 13.884
15.68000 11.228
15.70000 -1.685
15.72000 6.435
15.74000 7.787
15.76000 10.626
15.78000 9.404
15.80000 11.298
15.82000 16.618
15.84000 10.119
15.86000 -2.188
15.88000 3.103
15.90000 8.659
15.92000 6.880
15.94000 6.836
15.96000 12.601
15.98000 10.588
16.00000 3.579
16.02000 8.192
16.04000 2.680
16.06000 4.286
16.08000 7.391
16.10000 11.341
16.12000 4.531
16.14000 3.441
16.16000 4.343
16.18000 6.346
16.20000 9.658
16.22000 6.634
16.24000 12.807
16.26000 12.134
16.28000 13.845
16.30000 15.033
16.32000 7.962
16.34000 1.628
16.36000 7.972
16.38000 8.098
16.40000 12.263
16.42000 11.847
16.44000 8.209
16.46000 4.764
16.48000 12.878
16.50000 17.669
16.52000 12.174
16.54000 7.386
16.56000 -4.382
16.58000 -0.997
16.60000 9.174
16.62000 17.313
16.64000 12.849
16.66000 15.100
16.68000 9.718
16.70000 11.676
16.72000 7.471
16.74000 5.547
16.76000 2.379
16.78000 9.665
16.80000 7.637
16.82000 18.889
16.84000 18.139
16.86000 9.608
16.88000 8.425
16.90000 21.088
16.92000 19.636
16.94000 16.747
16.96000 13.427
16.98000 14.464
17.00000 4.511
17.02000 9.151
17.04000 10.504
17.06000 8.410
17.08000 7.131
17.10000 -0.418
17.12000 0.477
17.14000 10.348
17.16000 2.070
17.18000 8.666
17.20000 10.917
17.22000 6.405
17.24000 2.231
17.26000 3.563
17.28000 5.858
17.30000 7.585
17.32000 -0.461
17.34000 5.021
17.36000 12.088
17.38000 11.069
17.40000 15.264
17.42000 11.017
17.44000 7.320
17.46000 0.748
17.48000 7.289
17.50000 2.328
17.52000 -1.051
17.54000 6.152
17.56000 4.531
17.58000 8.155
17.60000 10.113
17.62000 7.345
17.64000 9.280
17.66000 8.795
17.68000 14.099
17.70000 16.416
17.72000 7.539
17.74000 2.829
17.76000 2.373
17.78000 4.422
17.80000 2.414
17.82000 8.159
17.84000 7.660
17.86000 2.329
17.88000 2.173
17.90000 -0.014
17.92000 4.165
17.94000 5.020
17.96000 11.722
17.98000 5.180
18.00000 3.348
18.02000 4.489
18.04000 7.590
18.06000 7.961
18.08000 2.989
18.10000 3.350
18.12000 10.569
18.14000 13.932
18.16000 5.069
18.18000 2.809
18.20000 7.211
18.22000 6.037
18.24000 8.241
18.26000 6.056
18.28000 2.834
18.30000 9.083
18.32000 9.928
18.34000 3.960
18.36000 1.999
18.38000 -2.076
18.40000 2.506
18.42000 8.769
18.44000 12.208
18.46000 6.394
18.48000 0.285
18.50000 2.092
18.52000 6.857
18.54000 11.248
18.56000 6.181
18.58000 9.500
18.60000 3.959
18.62000 3.062
18.64000 6.039
18.66000 7.361
18.68000 -0.128
18.70000 2.046
18.72000 2.787
18.74000 5.612
18.76000 8.877
18.78000 9.940
18.80000 12.605
18.82000 15.406
18.84000 11.201
18.86000 -4.177
18.88000 -0.111
18.90000 7.048
18.92000 -1.890
18.94000 -4.293
18.96000 -0.897
18.98000 1.954
19.00000 12.292
19.02000 16.721
19.04000 7.898
19.06000 4.088
19.08000 4.448
19.10000 -4.280
19.12000 -3.691
19.14000 6.017
19.16000 9.203
19.18000 6.468
19.20000 10.101
19.22000 11.524
19.24000 8.949
19.26000 16.377
19.28000 12.208
19.30000 9.733
19.32000 12.966
19.34000 6.300
19.36000 2.538
19.38000 2.923
19.40000 4.631
19.42000 3.556
19.44000 -1.952
19.46000 2.152
19.48000 8.816
19.50000 3.086
19.52000 1.965
19.54000 -0.844
19.56000 5.199
19.58000 11.791
19.60000 5.978
19.62000 6.749
19.64000 14.457
19.66000 16.390
19.68000 11.817
19.70000 1.476
19.72000 3.157
19.74000 8.577
19.76000 10.333
19.78000 8.386
19.80000 1.932
19.82000 2.233
19.84000 2.385
19.86000 -0.383
19.88000 -4.246
19.90000 1.616
19.92000 6.382
19.94000 8.747
19.96000 9.869
19.98000 3.785
20.00000 -3.889
20.02000 1.866
20.04000 4.496
20.06000 6.729
20.08000 6.215
20.10000 -3.745
20.12000 0.233
20.14000 5.690
20.16000 9.592
20.18000 6.366
20.20000 3.447
20.22000 7.787
20.24000 6.071
20.26000 -1.601
20.28000 -4.228
20.30000 1.268
20.32000 8.846
20.34000 11.265
20.36000 8.886
20.38000 2.102
20.40000 7.983
20.42000 6.425
20.44000 -3.614
20.46000 0.401
20.48000 5.046
20.50000 0.786
20.52000 -2.397
20.54000 6.661
20.56000 6.476
20.58000 10.973
20.60000 9.962
20.62000 11.856
20.64000 7.525
20.66000 5.827
20.68000 4.363
20.70000 5.346
20.72000 3.266
20.74000 -0.986
20.76000 -1.259
20.78000 -3.522
20.80000 4.808
20.82000 9.788
20.84000 6.171
20.86000 5.509
20.88000 6.323
20.90000 2.708
20.92000 3.009
20.94000 5.005
20.96000 10.433
20.98000 9.869
21.00000 6.030
21.02000 7.979
21.04000 7.698
21.06000 8.048
21.08000 10.630
21.10000 4.662
21.12000 9.201
21.14000 1.127
21.16000 6.411
21.18000 10.285
21.20000 4.409
21.22000 9.910
21.24000 3.335
21.26000 0.027
21.28000 3.583
21.30000 -1.075
21.32000 -2.192
21.34000 2.848
21.36000 8.961
21.38000 12.789
21.40000 10.405
21.42000 9.150
21.44000 11.452
21.46000 8.950
21.48000 7.483
21.50000 6.268
21.52000 5.672
21.54000 5.690
21.56000 11.711
21.58000 8.072
21.60000 3.338
21.62000 -2.950
21.64000 0.594
21.66000 8.634
21.68000 12.111
21.70000 15.108
21.72000 8.116
21.74000 7.256
21.76000 11.420
21.78000 10.923
21.80000 7.446
21.82000 10.581
21.84000 10.657
21.86000 14.685
21.88000 9.370
21.90000 3.701
21.92000 9.151
21.94000 7.467
21.96000 6.143
21.98000 -4.105
22.00000 -1.723
22.02000 6.802
22.04000 10.496
22.06000 12.053
22.08000 6.438
22.10000 -0.024
22.12000 4.405
22.14000 6.674
22.16000 5.889
22.18000 11.046
22.20000 1.497
22.22000 1.810
22.24000 4.446
22.26000 5.350
22.28000 14.891
22.30000 10.053
22.32000 2.374
22.34000 5.219
22.36000 2.916
22.38000 7.107
22.40000 8.444
22.42000 4.768
22.44000 5.836
22.46000 6.651
22.48000 9.066
22.50000 6.011
22.52000 9.997
22.54000 9.036
22.56000 4.597
22.58000 3.839
22.60000 -0.517
22.62000 2.128
22.64000 10.254
22.66000 6.640
22.68000 -1.427
22.70000 4.728
22.72000 10.396
22.74000 8.988
22.76000 1.273
22.78000 -1.094
22.80000 1.967
22.82000 9.756
22.84000 1.905
22.86000 8.725
22.88000 9.132
22.90000 7.188
22.92000 8.543
22.94000 8.590
22.96000 2.154
22.98000 2.187
23.00000 3.206
23.02000 2.445
23.04000 -0.250
23.06000 -0.128
23.08000 1.420
23.10000 3.521
23.12000 3.030
23.14000 3.708
23.16000 10.947
23.18000 8.224
23.20000 3.823
23.22000 -0.199
23.24000 4.459
23.26000 12.596
23.28000 8.783
23.30000 10.159
23.32000 0.451
23.34000 -4.036
23.36000 2.972
23.38000 9.743
23.40000 6.995
23.42000 5.853
23.44000 10.200
23.46000 5.847
23.48000 2.000
23.50000 8.443
23.52000 12.737
23.54000 11.275
23.56000 4.567
23.58000 10.066
23.60000 8.506
23.62000 5.255
23.64000 4.207
23.66000 6.032
23.68000 4.300
23.70000 1.892
23.72000 6.609
23.74000 7.109
23.76000 9.294
23.78000 8.888
23.80000 12.486
23.82000 4.439
23.84000 4.594
23.86000 4.561
23.88000 0.794
23.90000 -0.229
23.92000 7.639
23.94000 6.613
23.96000 5.573
23.98000 7.037
24.00000 2.127
24.02000 1.545
24.04000 1.742
24.06000 0.600
24.08000 1.898
24.10000 2.333
24.12000 5.247
24.14000 7.123
24.16000 6.064
24.18000 0.285
24.20000 -1.263
24.22000 -1.055
24.24000 6.434
24.26000 4.868
24.28000 4.069
24.30000 6.202
24.32000 5.232
24.34000 3.304
24.36000 6.666
24.38000 5.694
24.40000 7.280
24.42000 5.827
24.44000 4.782
24.46000 2.903
24.48000 4.092
24.50000 6.452
24.52000 4.877
24.54000 10.841
24.56000 9.335
24.58000 4.379
24.60000 2.259
24.62000 2.943
24.64000 3.023
24.66000 2.543
24.68000 0.290
24.70000 1.045
24.72000 3.027
24.74000 4.990
24.76000 5.237
24.78000 6.681
24.80000 7.251
24.82000 3.434
24.84000 4.785
24.86000 7.992
24.88000 7.959
24.90000 6.706
24.92000 4.723
24.94000 4.721
24.96000 3.493
24.98000 5.434
25.00000 9.201
25.02000 7.013
25.04000 10.535
25.06000 9.783
25.08000 2.428
25.10000 0.956
25.12000 -1.061
25.14000 -2.274
25.16000 1.755
25.18000 3.242
25.20000 0.977
25.22000 3.297
25.24000 5.557
25.26000 8.236
25.28000 9.412
25.30000 1.112
25.32000 -3.936
25.34000 -3.401
25.36000 -0.190
25.38000 -1.077
25.40000 3.349
25.42000 7.289
25.44000 7.752
25.46000 2.028
25.48000 5.144
25.50000 5.716
25.52000 11.885
25.54000 5.872
25.56000 3.297
25.58000 7.913
25.60000 4.193
25.62000 3.432
25.64000 4.261
25.66000 3.349
25.68000 1.831
25.70000 4.529
25.72000 7.516
25.74000 9.050
25.76000 6.822
25.78000 10.519
25.80000 6.090
25.82000 2.158
25.84000 -1.805
25.86000 -2.725
25.88000 -1.738
25.90000 5.917
25.92000 6.315
25.94000 2.627
25.96000 3.582
25.98000 5.340
26.00000 3.718
26.02000 0.762
26.04000 1.855
26.06000 8.717
26.08000 2.491
26.10000 3.483
26.12000 6.156
26.14000 3.938
26.16000 5.190
26.18000 7.010
26.20000 2.607
26.22000 1.013
26.24000 7.326
26.26000 3.243
26.28000 -3.917
26.30000 1.915
26.32000 0.310
26.34000 -3.756
26.36000 -0.232
26.38000 4.474
26.40000 2.188
26.42000 -0.132
26.44000 -0.986
26.46000 4.728
26.48000 3.219
26.50000 -0.095
26.52000 -3.286
26.54000 -1.768
26.56000 5.358
26.58000 5.340
26.60000 5.890
26.62000 7.790
26.64000 4.033
26.66000 1.301
26.68000 1.952
26.70000 4.562
26.72000 -2.020
26.74000 6.339
26.76000 2.669
26.78000 -2.863
26.80000 -2.696
26.82000 1.908
26.84000 3.234
26.86000 3.230
26.88000 1.854
26.90000 3.850
26.92000 -0.254
26.94000 3.945
26.96000 0.177
26.98000 2.574
27.00000 3.115
27.02000 -0.048
27.04000 -3.882
27.06000 4.003
27.08000 8.814
27.10000 12.891
27.12000 11.042
27.14000 4.067
27.16000 4.015
27.18000 2.718
27.20000 -1.350
27.22000 -2.157
27.24000 2.979
27.26000 0.653
27.28000 1.087
27.30000 -1.029
27.32000 -3.864
27.34000 1.098
27.36000 5.066
27.38000 4.608
27.40000 3.638
27.42000 5.649
27.44000 3.196
27.46000 1.356
27.48000 5.254
27.50000 0.225
27.52000 -2.228
27.54000 0.570
27.56000 4.504
27.58000 2.840
27.60000 8.457
27.62000 1.518
27.64000 1.031
27.66000 1.674
27.68000 1.694
27.70000 3.623
27.72000 -2.339
27.74000 -3.835
27.76000 -0.563
27.78000 4.524
27.80000 5.387
27.82000 1.883
27.84000 -3.830
27.86000 0.962
27.88000 -0.519
27.90000 -1.994
27.92000 3.993
27.94000 4.332
27.96000 1.157
27.98000 -1.079
28.00000 0.248
28.02000 1.868
28.04000 3.337
28.06000 0.801
28.08000 -1.840
28.10000 1.272
28.12000 3.410
28.14000 2.953
28.16000 -1.060
28.18000 -0.756
28.20000 1.174
28.22000 -0.274
28.24000 2.498
28.26000 5.313
28.28000 5.350
28.30000 0.404
28.32000 2.387
28.34000 3.288
28.36000 3.613
28.38000 -0.212
28.40000 4.311
28.42000 3.463
28.44000 5.449
28.46000 5.984
28.48000 6.678
28.50000 4.037
28.52000 4.227
28.54000 5.612
28.56000 11.359
28.58000 11.699
28.60000 2.619
28.62000 4.260
28.64000 5.018
28.66000 -0.461
28.68000 0.260
28.70000 4.640
28.72000 2.876
28.74000 0.279
28.76000 -0.496
28.78000 0.038
28.80000 -1.315
28.82000 1.341
28.84000 6.868
28.86000 8.698
28.88000 10.241
28.90000 7.710
28.92000 0.904
28.94000 -0.743
28.96000 -0.887
28.98000 -3.762
29.00000 -2.586
29.02000 1.647
29.04000 0.776
29.06000 2.585
29.08000 7.927
29.10000 4.315
29.12000 1.667
29.14000 1.354
29.16000 1.227
29.18000 6.197
29.20000 8.025
29.22000 3.705
29.24000 -0.794
29.26000 3.402
29.28000 1.496
29.30000 1.546
29.32000 5.278
29.34000 3.725
29.36000 1.764
29.38000 3.519
29.40000 2.838
29.42000 6.841
29.44000 3.815
29.46000 4.235
29.48000 9.419
29.50000 5.747
29.52000 -3.637
29.54000 -3.080
29.56000 -3.719
29.58000 1.744
29.60000 4.944
29.62000 6.276
29.64000 6.293
29.66000 4.681
29.68000 5.854
29.70000 6.666
29.72000 2.780
29.74000 6.228
29.76000 2.528
29.78000 2.681
29.80000 3.934
29.82000 3.567
29.84000 0.765
29.86000 -1.424
29.88000 0.432
29.90000 2.860
29.92000 7.862
29.94000 9.983
29.96000 10.124
29.98000 5.634
30.00000 7.596
30.02000 10.309
30.04000 4.161
30.06000 9.053
30.08000 4.195
30.10000 5.059
30.12000 1.120
30.14000 -3.052
30.16000 1.873
30.18000 5.586
30.20000 6.792
30.22000 3.261
30.24000 -3.110
30.26000 -0.007
30.28000 1.577
30.30000 -3.695
30.32000 -0.910
30.34000 4.510
30.36000 3.590
30.38000 6.195
30.40000 9.930
30.42000 7.376
30.44000 3.077
30.46000 4.855
30.48000 5.612
30.50000 -0.937
30.52000 -0.593
30.54000 1.641
30.56000 0.381
30.58000 0.857
30.60000 2.726
30.62000 6.125
30.64000 8.037
30.66000 3.153
30.68000 4.426
30.70000 4.663
30.72000 4.598
30.74000 0.189
30.76000 0.574
30.78000 6.675
30.80000 4.069
30.82000 -2.300
30.84000 2.327
30.86000 3.444
30.88000 5.118
30.90000 1.784
30.92000 -1.768
30.94000 2.980
30.96000 5.159
30.98000 -0.433
31.00000 -2.248
31.02000 5.262
31.04000 6.610
31.06000 4.523
31.08000 8.366
31.10000 0.727
31.12000 2.525
31.14000 7.148
31.16000 5.373
31.18000 -0.814
31.20000 3.524
31.22000 7.566
31.24000 1.279
31.26000 -1.829
31.28000 -3.643
31.30000 -2.291
31.32000 0.627
31.34000 4.989
31.36000 3.375
31.38000 8.168
31.40000 4.776
31.42000 -0.860
31.44000 0.817
31.46000 -1.068
31.48000 0.761
31.50000 3.590
31.52000 -2.241
31.54000 -0.332
31.56000 4.215
31.58000 5.634
31.60000 0.511
31.62000 -2.020
31.64000 0.702
31.66000 0.906
31.68000 4.004
31.70000 2.395
31.72000 2.651
31.74000 4.642
31.76000 3.032
31.78000 6.077
31.80000 4.126
31.82000 1.489
31.84000 1.083
31.86000 4.023
31.88000 3.755
31.90000 2.680
31.92000 3.938
31.94000 2.279
31.96000 1.969
31.98000 6.856
32.00000 7.524
32.02000 2.277
32.04000 -0.917
32.06000 0.943
32.08000 -0.036
32.10000 -1.909
32.12000 -3.620
32.14000 2.330
32.16000 4.767
32.18000 5.115
32.20000 3.644
32.22000 2.052
32.24000 3.314
32.26000 4.299
32.28000 4.154
32.30000 1.546
32.32000 -0.717
32.34000 7.713
32.36000 3.683
32.38000 2.288
32.40000 4.287
32.42000 2.758
32.44000 0.528
32.46000 2.310
32.48000 7.609
32.50000 5.032
32.52000 0.282
32.54000 3.663
32.56000 -0.021
32.58000 1.479
32.60000 -0.835
32.62000 0.335
32.64000 3.543
32.66000 5.354
32.68000 5.259
32.70000 4.765
32.72000 2.670
32.74000 -0.779
32.76000 -3.621
32.78000 2.303
32.80000 1.647
32.82000 0.346
32.84000 2.646
32.86000 1.806
32.88000 3.855
32.90000 5.209
32.92000 2.518
32.94000 2.916
32.96000 0.991
32.98000 1.782
33.00000 2.697
33.02000 5.763
33.04000 6.575
33.06000 -0.067
33.08000 -1.459
33.10000 2.300
33.12000 0.808
33.14000 -2.157
33.16000 -3.058
33.18000 -0.257
33.20000 -1.063
33.22000 5.050
33.24000 2.188
33.26000 0.349
33.28000 4.924
33.30000 3.633
33.32000 3.608
33.34000 4.747
33.36000 0.469
33.38000 0.847
33.40000 4.682
33.42000 1.696
33.44000 3.404
33.46000 1.745
33.48000 4.204
33.50000 4.363
33.52000 7.433
33.54000 3.888
33.56000 0.083
33.58000 0.329
33.60000 1.314
33.62000 3.342
33.64000 3.514
33.66000 1.296
33.68000 1.426
33.70000 1.353
33.72000 -3.604
33.74000 1.637
33.76000 3.064
33.78000 2.674
33.80000 -0.222
33.82000 9.053
33.84000 10.674
33.86000 9.215
33.88000 6.637
33.90000 1.186
33.92000 0.788
33.94000 3.834
33.96000 4.032
33.98000 2.958
34.00000 -1.494
34.02000 0.836
34.04000 11.081
34.06000 7.610
34.08000 3.620
34.10000 8.125
34.12000 8.536
34.14000 9.244
34.16000 3.325
34.18000 -0.875
34.20000 3.212
34.22000 5.755
34.24000 3.920
34.26000 0.937
34.28000 1.547
34.30000 -2.304
34.32000 3.534
34.34000 5.639
34.36000 8.796
34.38000 5.267
34.40000 2.605
34.42000 5.070
34.44000 6.291
34.46000 1.484
34.48000 0.713
34.50000 1.639
34.52000 1.103
34.54000 0.479
34.56000 3.986
34.58000 1.610
34.60000 -0.312
34.62000 -0.066
34.64000 1.538
34.66000 0.659
34.68000 0.662
34.70000 4.427
34.72000 4.734
34.74000 7.298
34.76000 3.378
34.78000 -1.814
34.80000 -2.986
34.82000 -1.759
34.84000 2.166
34.86000 0.292
34.88000 0.414
34.90000 0.390
34.92000 -1.419
34.94000 4.243
34.96000 4.103
34.98000 7.585
35.00000 8.248
35.02000 2.249
35.04000 1.060
35.06000 3.459
35.08000 -3.533
35.10000 -0.497
35.12000 2.639
35.14000 5.541
35.16000 4.199
35.18000 -2.362
35.20000 -3.530
35.22000 0.437
35.24000 2.296
35.26000 0.083
35.28000 1.484
35.30000 3.750
35.32000 2.390
35.34000 2.290
35.36000 5.613
35.38000 5.896
35.40000 4.121
35.42000 3.324
35.44000 3.976
35.46000 -1.904
35.48000 -2.231
35.50000 0.085
35.52000 4.680
35.54000 4.363
35.56000 7.004
35.58000 3.918
35.60000 1.100
35.62000 3.741
35.64000 3.699
35.66000 0.558
35.68000 2.237
35.70000 -0.213
35.72000 -1.294
35.74000 -3.549
35.76000 5.817
35.78000 -0.964
35.80000 -0.484
35.82000 -0.001
35.84000 1.208
35.86000 0.728
35.88000 -2.339
35.90000 2.163
35.92000 7.934
35.94000 4.942
35.96000 -2.686
35.98000 1.547
36.00000 0.646
36.02000 -0.538
36.04000 -1.166
36.06000 1.893
36.08000 2.162
36.10000 4.824
36.12000 6.566
36.14000 4.312
36.16000 -0.744
36.18000 -2.996
36.20000 1.863
36.22000 1.615
36.24000 0.801
36.26000 4.840
36.28000 0.370
36.30000 -1.136
36.32000 -0.034
36.34000 -0.738
36.36000 1.603
36.38000 3.823
36.40000 0.627
36.42000 -0.684
36.44000 2.473
36.46000 4.140
36.48000 3.751
36.50000 2.453
36.52000 0.705
36.54000 -2.664
36.56000 -3.572
36.58000 1.657
36.60000 2.252
36.62000 -2.751
36.64000 0.404
36.66000 1.592
36.68000 2.626
36.70000 4.045
36.72000 3.513
36.74000 5.688
36.76000 1.250
36.78000 0.221
36.80000 0.241
36.82000 2.283
36.84000 2.163
36.86000 4.200
36.88000 1.616
36.90000 0.747
36.92000 4.617
36.94000 3.615
36.96000 8.204
36.98000 0.167
37.00000 4.737
37.02000 4.103
37.04000 0.397
37.06000 4.889
37.08000 3.792
37.10000 -1.194
37.12000 -0.042
37.14000 3.931
37.16000 1.052
37.18000 -2.986
37.20000 3.893
37.22000 0.773
37.24000 -3.573
37.26000 2.226
37.28000 7.161
37.30000 6.343
37.32000 4.988
37.34000 2.681
37.36000 -1.212
37.38000 1.772
37.40000 6.302
37.42000 7.614
37.44000 3.987
37.46000 2.448
37.48000 9.236
37.50000 4.710
37.52000 1.660
37.54000 7.297
37.56000 7.068
37.58000 5.673
37.60000 3.861
37.62000 3.697
37.64000 4.475
37.66000 1.288
37.68000 2.692
37.70000 4.961
37.72000 4.338
37.74000 9.035
37.76000 8.070
37.78000 4.339
37.80000 4.924
37.82000 5.399
37.84000 5.819
37.86000 1.969
37.88000 5.605
37.90000 11.605
37.92000 10.470
37.94000 7.597
37.96000 6.155
37.98000 7.863
38.00000 8.609
38.02000 8.878
38.04000 8.107
38.06000 5.581
38.08000 7.252
38.10000 9.061
38.12000 8.913
38.14000 14.463
38.16000 15.103
38.18000 13.682
38.20000 12.081
38.22000 10.646
38.24000 14.854
38.26000 8.266
38.28000 8.755
38.30000 10.624
38.32000 12.182
38.34000 16.479
38.36000 14.089
38.38000 15.900
38.40000 16.815
38.42000 17.357
38.44000 16.272
38.46000 14.159
38.48000 16.490
38.50000 23.461
38.52000 21.753
38.54000 27.173
38.56000 22.512
38.58000 23.512
38.60000 20.687
38.62000 28.160
38.64000 23.452
38.66000 23.884
38.68000 24.386
38.70000 29.587
38.72000 31.418
38.74000 26.563
38.76000 27.099
38.78000 31.957
38.80000 30.150
38.82000 30.306
38.84000 26.899
38.86000 27.400
38.88000 31.687
38.90000 28.180
38.92000 26.141
38.94000 31.941
38.96000 36.364
38.98000 36.344
39.00000 41.946
39.02000 39.903
39.04000 39.960
39.06000 40.714
39.08000 40.768
39.10000 36.740
39.12000 39.486
39.14000 43.179
39.16000 50.549
39.18000 52.688
39.20000 51.282
39.22000 51.489
39.24000 53.860
39.26000 60.497
39.28000 63.782
39.30000 62.094
39.32000 62.561
39.34000 64.458
39.36000 73.348
39.38000 70.363
39.40000 77.709
39.42000 80.383
39.44000 85.510
39.46000 96.937
39.48000 95.167
39.50000 94.667
39.52000 103.596
39.54000 109.849
39.56000 113.438
39.58000 119.274
39.60000 125.232
39.62000 131.401
39.64000 131.160
39.66000 135.777
39.68000 142.800
39.70000 156.910
39.72000 162.295
39.74000 175.234
39.76000 181.326
39.78000 185.056
39.80000 191.859
39.82000 203.191
39.84000 212.833
39.86000 230.379
39.88000 237.405
39.90000 238.180
39.92000 247.603
39.94000 270.118
39.96000 277.460
39.98000 292.125
40.00000 303.715
40.02000 315.791
40.04000 327.067
40.06000 342.454
40.08000 367.317
40.10000 379.671
40.12000 392.498
40.14000 414.423
40.16000 415.919
40.18000 433.763
40.20000 454.521
40.22000 476.894
40.24000 489.539
40.26000 500.835
40.28000 507.022
40.30000 518.220
40.32000 527.876
40.34000 543.392
40.36000 545.330
40.38000 550.403
40.40000 567.947
40.42000 578.418
40.44000 596.220
40.46000 601.638
40.48000 602.482
40.50000 590.526
40.52000 594.932
40.54000 592.346
40.56000 595.688
40.58000 595.733
40.60000 582.414
40.62000 580.455
40.64000 565.698
40.66000 550.401
40.68000 532.799
40.70000 522.918
40.72000 519.747
40.74000 519.692
40.76000 508.001
40.78000 486.292
40.80000 464.779
40.82000 441.368
40.84000 427.229
40.86000 409.220
40.88000 393.053
40.90000 384.777
40.92000 367.035
40.94000 347.561
40.96000 332.620
40.98000 325.026
41.00000 310.334
41.02000 283.948
41.04000 277.063
41.06000 262.235
41.08000 245.797
41.10000 240.091
41.12000 230.336
41.14000 220.570
41.16000 203.914
41.18000 196.141
41.20000 185.746
41.22000 181.666
41.24000 166.222
41.26000 157.571
41.28000 154.702
41.30000 148.812
41.32000 134.541
41.34000 128.354
41.36000 127.891
41.38000 122.373
41.40000 106.657
41.42000 102.570
41.44000 95.220
41.46000 90.824
41.48000 88.350
41.50000 88.942
41.52000 95.022
41.54000 84.978
41.56000 75.021
41.58000 66.435
41.60000 59.956
41.62000 62.525
41.64000 59.092
41.66000 55.615
41.68000 49.866
41.70000 49.845
41.72000 53.352
41.74000 43.529
41.76000 37.863
41.78000 39.108
41.80000 41.796
41.82000 35.174
41.84000 34.148
41.86000 31.706
41.88000 29.576
41.90000 25.244
41.92000 30.521
41.94000 27.353
41.96000 24.692
41.98000 27.728
42.00000 24.627
42.02000 25.100
42.04000 23.502
42.06000 23.816
42.08000 22.096
42.10000 24.506
42.12000 17.365
42.14000 18.607
42.16000 18.634
42.18000 17.939
42.20000 12.707
42.22000 11.694
42.24000 9.119
42.26000 7.181
42.28000 9.709
42.30000 12.343
42.32000 11.437
42.34000 12.189
42.36000 9.846
42.38000 9.024
42.40000 14.317
42.42000 11.221
42.44000 6.112
42.46000 6.987
42.48000 6.647
42.50000 8.368
42.52000 7.198
42.54000 1.333
42.56000 4.521
42.58000 7.383
42.60000 10.910
42.62000 6.833
42.64000 5.421
42.66000 5.804
42.68000 5.192
42.70000 2.893
42.72000 4.493
42.74000 9.752
42.76000 4.908
42.78000 5.369
42.80000 5.925
42.82000 -0.652
42.84000 0.292
42.86000 -0.912
42.88000 -1.201
42.90000 -0.715
42.92000 -2.827
42.94000 -2.844
42.96000 3.128
42.98000 1.908
43.00000 0.680
43.02000 -0.241
43.04000 3.739
43.06000 1.427
43.08000 3.460
43.10000 5.702
43.12000 3.587
43.14000 4.120
43.16000 7.140
43.18000 1.825
43.20000 -1.700
43.22000 -0.790
43.24000 2.446
43.26000 4.158
43.28000 5.107
43.30000 6.549
43.32000 5.058
43.34000 0.810
43.36000 -0.231
43.38000 -2.644
43.40000 -2.241
43.42000 2.045
43.44000 2.280
43.46000 1.343
43.48000 1.756
43.50000 3.424
43.52000 7.044
43.54000 5.944
43.56000 6.987
43.58000 4.400
43.60000 0.492
43.62000 -0.095
43.64000 1.204
43.66000 4.400
43.68000 6.608
43.70000 2.830
43.72000 -1.523
43.74000 -3.469
43.76000 1.569
43.78000 7.579
43.80000 6.340
43.82000 4.401
43.84000 4.133
43.86000 8.925
43.88000 11.663
43.90000 0.828
43.92000 -3.341
43.94000 1.660
43.96000 2.318
43.98000 2.214
44.00000 3.695
44.02000 3.662
44.04000 7.304
44.06000 4.450
44.08000 2.291
44.10000 2.897
44.12000 5.160
44.14000 2.578
44.16000 4.039
44.18000 3.269
44.20000 1.144
44.22000 0.766
44.24000 1.578
44.26000 -1.179
44.28000 1.441
44.30000 1.133
44.32000 -1.139
44.34000 0.210
44.36000 -0.471
44.38000 4.252
44.40000 2.354
44.42000 1.764
44.44000 2.560
44.46000 3.905
44.48000 0.178
44.50000 7.200
44.52000 6.545
44.54000 1.648
44.56000 0.573
44.58000 -3.514
44.60000 1.191
44.62000 4.234
44.64000 3.031
44.66000 -1.344
44.68000 -1.452
44.70000 -0.242
44.72000 3.211
44.74000 -1.212
44.76000 -0.715
44.78000 0.398
44.80000 2.926
44.82000 -0.297
44.84000 -1.746
44.86000 0.723
44.88000 5.328
44.90000 3.958
44.92000 -0.076
44.94000 -1.559
44.96000 0.125
44.98000 0.435
45.00000 2.304
45.02000 0.931
45.04000 1.586
45.06000 -2.409
45.08000 -0.201
45.10000 1.758
45.12000 5.641
45.14000 8.015
45.16000 2.895
45.18000 4.031
45.20000 1.946
45.22000 2.321
45.24000 3.439
45.26000 6.248
45.28000 5.310
45.30000 2.238
45.32000 4.207
45.34000 7.482
45.36000 5.683
45.38000 6.204
45.40000 6.818
45.42000 8.885
45.44000 10.736
45.46000 9.152
45.48000 4.776
45.50000 4.760
45.52000 7.726
45.54000 11.425
45.56000 16.444
45.58000 14.194
45.60000 8.059
45.62000 10.942
45.64000 13.251
45.66000 13.986
45.68000 16.038
45.70000 15.666
45.72000 13.729
45.74000 8.441
45.76000 11.906
45.78000 21.734
45.80000 16.602
45.82000 18.671
45.84000 17.776
45.86000 15.243
45.88000 22.582
45.90000 22.566
45.92000 25.079
45.94000 27.647
45.96000 25.334
45.98000 23.484
46.00000 22.849
46.02000 30.524
46.04000 29.044
46.06000 28.460
46.08000 29.359
46.10000 31.983
46.12000 32.553
46.14000 36.193
46.16000 36.638
46.18000 35.979
46.20000 30.374
46.22000 32.237
46.24000 37.077
46.26000 39.353
46.28000 40.430
46.30000 38.965
46.32000 40.942
46.34000 39.516
46.36000 40.811
46.38000 41.849
46.40000 49.260
46.42000 48.484
46.44000 48.394
46.46000 51.936
46.48000 54.208
46.50000 52.867
46.52000 59.279
46.54000 58.993
46.56000 52.570
46.58000 53.693
46.60000 64.480
46.62000 57.118
46.64000 56.261
46.66000 65.253
46.68000 59.951
46.70000 67.666
46.72000 64.444
46.74000 66.187
46.76000 71.073
46.78000 72.996
46.80000 74.132
46.82000 76.360
46.84000 77.771
46.86000 75.296
46.88000 76.021
46.90000 71.770
46.92000 76.520
46.94000 80.390
46.96000 77.181
46.98000 73.707
47.00000 77.010
47.02000 74.999
47.04000 79.224
47.06000 76.454
47.08000 84.381
47.10000 79.845
47.12000 77.178
47.14000 83.994
47.16000 87.283
47.18000 82.351
47.20000 79.155
47.22000 78.338
47.24000 81.794
47.26000 85.926
47.28000 78.898
47.30000 79.804
47.32000 69.474
47.34000 63.694
47.36000 67.041
47.38000 71.944
47.40000 73.250
47.42000 66.860
47.44000 70.395
47.46000 66.382
47.48000 62.798
47.50000 54.724
47.52000 61.419
47.54000 56.310
47.56000 58.122
47.58000 55.681
47.60000 48.519
47.62000 56.653
47.64000 54.916
47.66000 55.151
47.68000 47.519
47.70000 42.949
47.72000 40.496
47.74000 41.184
47.76000 42.973
47.78000 40.986
47.80000 34.015
47.82000 34.212
47.84000 43.167
47.86000 40.913
47.88000 30.074
47.90000 30.544
47.92000 30.998
47.94000 30.257
47.96000 28.042
47.98000 25.590
48.00000 26.972
48.02000 25.021
48.04000 25.690
48.06000 24.473
48.08000 21.062
48.10000 25.152
48.12000 27.598
48.14000 17.810
48.16000 17.590
48.18000 17.456
48.20000 19.807
48.22000 15.619
48.24000 12.662
48.26000 16.275
48.28000 24.125
48.30000 20.483
48.32000 14.546
48.34000 17.127
48.36000 12.070
48.38000 11.035
48.40000 12.522
48.42000 12.753
48.44000 11.755
48.46000 9.288
48.48000 9.240
48.50000 7.355
48.52000 5.192
48.54000 8.989
48.56000 7.764
48.58000 6.862
48.60000 8.528
48.62000 5.759
48.64000 4.637
48.66000 2.461
48.68000 0.462
48.70000 7.165
48.72000 7.953
48.74000 1.938
48.76000 0.787
48.78000 6.114
48.80000 -1.565
48.82000 -3.210
48.84000 2.941
48.86000 1.250
48.88000 0.442
48.90000 4.171
48.92000 6.074
48.94000 8.987
48.96000 4.218
48.98000 1.610
49.00000 2.465
49.02000 7.985
49.04000 4.285
49.06000 0.825
49.08000 0.849
49.10000 8.623
49.12000 7.486
49.14000 5.088
49.16000 1.881
49.18000 5.272
49.20000 10.487
49.22000 3.352
49.24000 0.590
49.26000 1.788
49.28000 6.264
49.30000 11.414
49.32000 6.526
49.34000 4.278
49.36000 7.089
49.38000 4.440
49.40000 3.578
49.42000 2.625
49.44000 0.714
49.46000 -0.038
49.48000 2.059
49.50000 3.457
49.52000 6.538
49.54000 4.986
49.56000 10.165
49.58000 9.522
49.60000 7.824
49.62000 6.625
49.64000 4.458
49.66000 1.863
49.68000 13.839
49.70000 13.226
49.72000 9.215
49.74000 5.752
49.76000 8.127
49.78000 11.124
49.80000 8.115
49.82000 4.788
49.84000 4.402
49.86000 7.941
49.88000 4.602
49.90000 -2.998
49.92000 3.267
49.94000 6.142
49.96000 3.890
49.98000 15.605
50.00000 16.275
50.02000 8.814
50.04000 3.394
50.06000 6.426
50.08000 8.613
50.10000 4.230
50.12000 1.654
50.14000 2.899
50.16000 2.287
50.18000 0.085
50.20000 2.229
50.22000 3.247
50.24000 3.547
50.26000 2.619
50.28000 2.350
50.30000 -0.560
50.32000 4.566
50.34000 2.727
50.36000 5.369
50.38000 11.622
50.40000 4.975
50.42000 -0.447
50.44000 -0.998
50.46000 1.135
50.48000 7.632
50.50000 14.051
50.52000 10.124
50.54000 3.275
50.56000 4.911
50.58000 1.456
50.60000 -1.563
50.62000 -1.027
50.64000 4.109
50.66000 3.359
50.68000 1.818
50.70000 -1.709
50.72000 1.731
50.74000 4.178
50.76000 0.626
50.78000 0.988
50.80000 2.801
50.82000 0.972
50.84000 6.114
50.86000 1.895
50.88000 6.443
50.90000 8.944
50.92000 -1.053
50.94000 -1.131
50.96000 -1.065
50.98000 2.416
51.00000 5.033
51.02000 0.910
51.04000 -0.662
51.06000 -1.798
51.08000 3.432
51.10000 2.815
51.12000 -1.756
51.14000 2.006
51.16000 6.358
51.18000 -0.309
51.20000 1.825
51.22000 0.050
51.24000 -1.972
51.26000 3.135
51.28000 6.811
51.30000 1.380
51.32000 0.771
51.34000 -1.118
51.36000 3.562
51.38000 5.054
51.40000 7.253
51.42000 -0.738
51.44000 2.566
51.46000 3.665
51.48000 2.103
51.50000 -2.745
51.52000 -2.300
51.54000 3.955
51.56000 5.419
51.58000 7.153
51.60000 5.866
51.62000 2.872
51.64000 9.016
51.66000 4.129
51.68000 1.526
51.70000 4.483
51.72000 5.334
51.74000 4.175
51.76000 6.123
51.78000 9.492
51.80000 9.060
51.82000 6.255
51.84000 4.230
51.86000 3.870
51.88000 3.295
51.90000 4.846
51.92000 5.256
51.94000 1.781
51.96000 -0.881
51.98000 -2.942
52.00000 4.512
52.02000 2.206
52.04000 1.511
52.06000 2.585
52.08000 2.072
52.10000 1.178
52.12000 0.669
52.14000 2.369
52.16000 -0.916
52.18000 -0.859
52.20000 2.561
52.22000 6.207
52.24000 4.298
52.26000 5.765
52.28000 9.065
52.30000 4.844
52.32000 1.256
52.34000 2.619
52.36000 1.601
52.38000 -0.812
52.40000 -0.024
52.42000 2.815
52.44000 5.842
52.46000 3.549
52.48000 2.712
52.50000 0.444
52.52000 -2.223
52.54000 -1.192
52.56000 5.910
52.58000 3.593
52.60000 3.012
52.62000 4.941
52.64000 4.676
52.66000 3.536
52.68000 4.154
52.70000 1.125
52.72000 6.227
52.74000 3.844
52.76000 1.135
52.78000 7.777
52.80000 4.414
52.82000 2.635
52.84000 -0.120
52.86000 1.146
52.88000 0.974
52.90000 -1.161
52.92000 -2.921
52.94000 -1.419
52.96000 0.622
52.98000 1.669
53.00000 0.767
53.02000 -1.299
53.04000 0.583
53.06000 0.522
53.08000 0.910
53.10000 3.743
53.12000 2.968
53.14000 5.985
53.16000 1.306
53.18000 1.799
53.20000 0.239
53.22000 -0.169
53.24000 -1.928
53.26000 7.037
53.28000 6.862
53.30000 5.896
53.32000 2.832
53.34000 3.347
53.36000 2.838
53.38000 1.043
53.40000 3.532
53.42000 2.533
53.44000 5.208
53.46000 3.866
53.48000 3.339
53.50000 1.981
53.52000 1.616
53.54000 0.919
53.56000 3.757
53.58000 5.548
53.60000 4.197
53.62000 4.173
53.64000 2.885
53.66000 1.418
53.68000 3.585
53.70000 2.559
53.72000 4.280
53.74000 8.205
53.76000 3.468
53.78000 2.894
53.80000 7.447
53.82000 6.068
53.84000 2.882
53.86000 3.456
53.88000 5.547
53.90000 2.419
53.92000 3.703
53.94000 6.317
53.96000 6.288
53.98000 -2.842
54.00000 4.120
54.02000 9.333
54.04000 7.571
54.06000 5.447
54.08000 4.419
54.10000 5.130
54.12000 5.120
54.14000 2.478
54.16000 4.716
54.18000 0.195
54.20000 0.932
54.22000 3.338
54.24000 5.648
54.26000 6.611
54.28000 4.911
54.30000 4.164
54.32000 2.830
54.34000 2.667
54.36000 5.992
54.38000 6.462
54.40000 6.780
54.42000 8.973
54.44000 6.617
54.46000 0.443
54.48000 -1.112
54.50000 -0.044
54.52000 2.178
54.54000 5.523
54.56000 1.170
54.58000 1.685
54.60000 2.567
54.62000 2.102
54.64000 2.931
54.66000 0.397
54.68000 3.317
54.70000 4.148
54.72000 2.298
54.74000 1.372
54.76000 -0.087
54.78000 2.685
54.80000 5.867
54.82000 3.059
54.84000 1.350
54.86000 -0.460
54.88000 0.792
54.90000 2.197
54.92000 2.335
54.94000 3.132
54.96000 7.227
54.98000 6.294
55.00000 1.625
55.02000 5.225
55.04000 3.835
55.06000 -0.530
55.08000 1.063
55.10000 7.037
55.12000 5.211
55.14000 0.992
55.16000 4.907
55.18000 3.353
55.20000 -2.291
55.22000 -1.922
55.24000 0.171
55.26000 -0.605
55.28000 2.328
55.30000 5.590
55.32000 2.448
55.34000 1.986
55.36000 3.303
55.38000 7.523
55.40000 6.420
55.42000 0.884
55.44000 -0.364
55.46000 8.896
55.48000 7.179
55.50000 6.052
55.52000 7.452
55.54000 3.690
55.56000 4.727
55.58000 6.028
55.60000 1.280
55.62000 2.555
55.64000 5.418
55.66000 13.570
55.68000 4.895
55.70000 -1.441
55.72000 1.584
55.74000 -0.432
55.76000 -2.809
55.78000 1.143
55.80000 2.293
55.82000 5.130
55.84000 4.537
55.86000 0.805
55.88000 8.028
55.90000 10.041
55.92000 8.377
55.94000 9.699
55.96000 0.784
55.98000 2.923
56.00000 1.934
56.02000 2.082
56.04000 0.305
56.06000 0.312
56.08000 5.787
56.10000 0.289
56.12000 0.734
56.14000 3.006
56.16000 6.515
56.18000 4.223
56.20000 3.682
56.22000 4.850
56.24000 1.918
56.26000 5.023
56.28000 5.051
56.30000 2.952
56.32000 3.230
56.34000 0.730
56.36000 -2.825
56.38000 1.176
56.40000 4.192
56.42000 0.094
56.44000 0.251
56.46000 7.563
56.48000 2.262
56.50000 2.541
56.52000 1.926
56.54000 3.453
56.56000 6.076
56.58000 4.961
56.60000 2.726
56.62000 4.093
56.64000 3.727
56.66000 -2.506
56.68000 1.756
56.70000 2.110
56.72000 -1.197
56.74000 1.153
56.76000 5.479
56.78000 6.685
56.80000 1.580
56.82000 1.172
56.84000 3.749
56.86000 2.405
56.88000 -2.322
56.90000 -1.766
56.92000 4.080
56.94000 7.284
56.96000 5.725
56.98000 3.429
57.00000 0.146
57.02000 1.335
57.04000 0.121
57.06000 2.677
57.08000 1.915
57.10000 0.736
57.12000 1.061
57.14000 5.337
57.16000 0.456
57.18000 -0.235
57.20000 4.130
57.22000 3.112
57.24000 -0.880
57.26000 -1.140
57.28000 -0.855
57.30000 4.533
57.32000 1.726
57.34000 -0.103
57.36000 -0.545
57.38000 0.911
57.40000 1.498
57.42000 -0.437
57.44000 -1.108
57.46000 2.330
57.48000 5.405
57.50000 4.198
57.52000 -2.774
57.54000 -0.081
57.56000 0.774
57.58000 -0.330
57.60000 -2.641
57.62000 1.935
57.64000 -0.265
57.66000 -0.910
57.68000 3.611
57.70000 4.959
57.72000 1.633
57.74000 1.175
57.76000 -1.550
57.78000 -2.774
57.80000 -0.884
57.82000 3.102
57.84000 3.284
57.86000 3.043
57.88000 1.960
57.90000 4.395
57.92000 0.806
57.94000 1.083
57.96000 -1.847
57.98000 0.082
58.00000 0.961
58.02000 1.917
58.04000 -0.176
58.06000 0.736
58.08000 2.958
58.10000 4.593
58.12000 3.924
58.14000 3.757
58.16000 3.352
58.18000 1.322
58.20000 1.797
58.22000 1.879
58.24000 -0.324
58.26000 2.746
58.28000 5.041
58.30000 2.931
58.32000 3.789
58.34000 4.496
58.36000 3.043
58.38000 1.008
58.40000 3.882
58.42000 7.249
58.44000 3.327
58.46000 1.237
58.48000 4.122
58.50000 4.028
58.52000 3.373
58.54000 2.645
58.56000 -1.444
58.58000 -2.722
58.60000 0.622
58.62000 0.349
58.64000 4.020
58.66000 5.317
58.68000 1.508
58.70000 5.205
58.72000 4.371
58.74000 1.689
58.76000 2.405
58.78000 5.969
58.80000 3.449
58.82000 1.514
58.84000 5.726
58.86000 9.142
58.88000 5.800
58.90000 3.052
58.92000 4.932
58.94000 5.089
58.96000 4.316
58.98000 3.972
59.00000 -2.005
59.02000 -2.394
59.04000 2.056
59.06000 1.812
59.08000 2.374
59.10000 0.159
59.12000 3.705
59.14000 3.293
59.16000 5.710
59.18000 5.017
59.20000 0.643
59.22000 0.354
59.24000 4.142
59.26000 -1.401
59.28000 -2.044
59.30000 -0.352
59.32000 -1.377
59.34000 0.504
59.36000 7.315
59.38000 10.064
59.40000 3.209
59.42000 -2.709
59.44000 3.230
59.46000 4.537
59.48000 2.355
59.50000 1.962
59.52000 5.451
59.54000 6.871
59.56000 10.596
59.58000 4.642
59.60000 1.443
59.62000 -0.339
59.64000 3.065
59.66000 4.447
59.68000 3.787
59.70000 4.549
59.72000 -0.600
59.74000 -0.554
59.76000 1.197
59.78000 0.545
59.80000 -2.492
59.82000 2.508
59.84000 0.526
59.86000 4.313
59.88000 3.625
59.90000 4.922
59.92000 4.321
59.94000 3.158
59.96000 2.160
59.98000 0.519
60.00000 0.061
60.02000 1.905
60.04000 -0.751
60.06000 1.452
60.08000 4.820
60.10000 2.343
60.12000 1.019
60.14000 3.070
60.16000 1.054
60.18000 2.556
60.20000 4.016
60.22000 4.779
60.24000 1.013
60.26000 3.228
60.28000 3.297
60.30000 -0.068
60.32000 -1.277
60.34000 -1.420
60.36000 -1.102
60.38000 -0.308
60.40000 -2.666
60.42000 -0.187
60.44000 2.375
60.46000 3.527
60.48000 0.807
60.50000 0.743
60.52000 -2.436
60.54000 -1.313
60.56000 3.092
60.58000 0.951
60.60000 -0.780
60.62000 -1.965
60.64000 2.903
60.66000 3.998
60.68000 3.645
60.70000 5.551
60.72000 6.457
60.74000 4.328
60.76000 2.447
60.78000 6.225
60.80000 5.340
60.82000 4.722
60.84000 4.001
60.86000 3.076
60.88000 6.760
60.90000 3.734
60.92000 5.898
60.94000 2.639
60.96000 -0.116
60.98000 0.529
61.00000 0.391
61.02000 0.836
61.04000 -0.012
61.06000 5.848
61.08000 6.324
61.10000 -2.487
61.12000 -2.630
61.14000 1.011
61.16000 6.156
61.18000 5.886
61.20000 2.002
61.22000 1.038
61.24000 3.033
61.26000 5.945
61.28000 0.441
61.30000 1.339
61.32000 4.573
61.34000 4.997
61.36000 0.939
61.38000 -1.519
61.40000 0.766
61.42000 3.648
61.44000 4.441
61.46000 4.574
61.48000 4.230
61.50000 -2.622
61.52000 3.502
61.54000 5.419
61.56000 2.235
61.58000 2.475
61.60000 5.601
61.62000 7.143
61.64000 3.474
61.66000 4.276
61.68000 1.043
61.70000 -1.672
61.72000 3.609
61.74000 7.643
61.76000 1.429
61.78000 6.886
61.80000 3.316
61.82000 4.827
61.84000 1.553
61.86000 -0.856
61.88000 4.210
61.90000 5.778
61.92000 2.221
61.94000 0.765
61.96000 2.798
61.98000 -0.477
62.00000 3.514
62.02000 3.861
62.04000 -1.014
62.06000 2.592
62.08000 4.200
62.10000 5.761
62.12000 7.715
62.14000 5.979
62.16000 4.245
62.18000 4.435
62.20000 1.607
62.22000 3.718
62.24000 4.486
62.26000 4.081
62.28000 3.033
62.30000 1.268
62.32000 -2.614
62.34000 -2.491
62.36000 -1.080
62.38000 2.872
62.40000 5.041
62.42000 4.604
62.44000 2.659
62.46000 -0.414
62.48000 -0.505
62.50000 -1.574
62.52000 -2.426
62.54000 -0.918
62.56000 2.857
62.58000 5.704
62.60000 7.500
62.62000 2.475
62.64000 2.920
62.66000 1.750
62.68000 4.961
62.70000 5.142
62.72000 2.370
62.74000 2.106
62.76000 -2.622
62.78000 4.043
62.80000 4.959
62.82000 7.060
62.84000 7.380
62.86000 6.988
62.88000 4.927
62.90000 2.947
62.92000 7.811
62.94000 7.331
62.96000 3.169
62.98000 1.394
63.00000 4.295
63.02000 2.624
63.04000 -1.021
63.06000 2.569
63.08000 6.817
63.10000 3.202
63.12000 3.349
63.14000 2.745
63.16000 6.284
63.18000 4.931
63.20000 5.502
63.22000 1.293
63.24000 1.728
63.26000 2.982
63.28000 2.854
63.30000 2.066
63.32000 3.462
63.34000 0.911
63.36000 3.098
63.38000 4.072
63.40000 3.465
63.42000 3.241
63.44000 0.677
63.46000 -0.768
63.48000 1.639
63.50000 0.838
63.52000 -1.502
63.54000 2.494
63.56000 3.776
63.58000 -0.911
63.60000 -0.429
63.62000 -2.299
63.64000 4.656
63.66000 1.762
63.68000 3.772
63.70000 4.177
63.72000 -0.110
63.74000 -2.142
63.76000 -2.602
63.78000 1.310
63.80000 7.782
63.82000 4.081
63.84000 2.886
63.86000 4.604
63.88000 2.535
63.90000 -0.736
63.92000 1.530
63.94000 3.136
63.96000 3.036
63.98000 -1.736
64.00000 0.889
64.02000 4.222
64.04000 1.620
64.06000 1.798
64.08000 3.011
64.10000 0.966
64.12000 5.348
64.14000 8.199
64.16000 13.342
64.18000 9.718
64.20000 6.339
64.22000 4.413
64.24000 3.548
64.26000 4.753
64.28000 9.386
64.30000 8.615
64.32000 2.963
64.34000 4.829
64.36000 3.083
64.38000 3.837
64.40000 4.105
64.42000 5.656
64.44000 4.056
64.46000 4.735
64.48000 6.241
64.50000 3.748
64.52000 0.324
64.54000 -0.321
64.56000 2.230
64.58000 3.017
64.60000 5.335
64.62000 3.315
64.64000 3.253
64.66000 5.134
64.68000 5.564
64.70000 1.506
64.72000 1.190
64.74000 -2.606
64.76000 1.190
64.78000 4.332
64.80000 6.805
64.82000 4.014
64.84000 3.019
64.86000 4.035
64.88000 5.439
64.90000 3.977
64.92000 0.945
64.94000 -0.608
64.96000 2.188
64.98000 2.618
65.00000 3.662
65.02000 5.775
65.04000 4.365
65.06000 0.971
65.08000 -1.245
65.10000 2.446
65.12000 5.402
65.14000 4.890
65.16000 2.318
65.18000 2.082
65.20000 3.160
65.22000 3.619
65.24000 1.014
65.26000 3.419
65.28000 2.501
65.30000 2.581
65.32000 -1.236
65.34000 3.800
65.36000 2.136
65.38000 -0.609
65.40000 -1.527
65.42000 -0.095
65.44000 -0.871
65.46000 -1.269
65.48000 5.465
65.50000 6.776
65.52000 5.594
65.54000 0.601
65.56000 -0.181
65.58000 1.937
65.60000 2.518
65.62000 1.931
65.64000 0.444
65.66000 1.088
65.68000 4.070
65.70000 4.271
65.72000 1.689
65.74000 3.676
65.76000 1.024
65.78000 -2.635
65.80000 -1.198
65.82000 0.892
65.84000 -0.575
65.86000 -0.237
65.88000 4.014
65.90000 3.292
65.92000 1.283
65.94000 -0.286
65.96000 4.050
65.98000 1.748
66.00000 2.046
66.02000 3.608
66.04000 1.617
66.06000 0.847
66.08000 -0.863
66.10000 -1.425
66.12000 -2.632
66.14000 1.319
66.16000 1.894
66.18000 6.045
66.20000 3.355
66.22000 3.105
66.24000 2.686
66.26000 0.721
66.28000 -2.278
66.30000 1.649
66.32000 3.446
66.34000 0.883
66.36000 0.765
66.38000 -1.761
66.40000 1.859
66.42000 0.315
66.44000 4.674
66.46000 3.309
66.48000 -0.041
66.50000 2.917
66.52000 1.377
66.54000 4.704
66.56000 5.656
66.58000 1.674
66.60000 -1.920
66.62000 -2.487
66.64000 -2.485
66.66000 2.543
66.68000 -1.492
66.70000 2.421
66.72000 5.924
66.74000 3.292
66.76000 3.341
66.78000 0.759
66.80000 0.188
66.82000 1.787
66.84000 0.961
66.86000 -0.434
66.88000 0.673
66.90000 2.302
66.92000 3.475
66.94000 3.477
66.96000 3.846
66.98000 3.545
67.00000 2.630
67.02000 2.700
67.04000 2.287
67.06000 2.563
67.08000 1.219
67.10000 1.211
67.12000 0.489
67.14000 3.721
67.16000 2.120
67.18000 3.746
67.20000 1.387
67.22000 -2.729
67.24000 -1.144
67.26000 3.235
67.28000 4.825
67.30000 4.717
67.32000 6.792
67.34000 2.991
67.36000 3.829
67.38000 6.994
67.40000 4.569
67.42000 3.165
67.44000 4.100
67.46000 4.223
67.48000 3.418
67.50000 5.949
67.52000 5.090
67.54000 3.462
67.56000 2.668
67.58000 4.988
67.60000 4.795
67.62000 5.996
67.64000 6.358
67.66000 2.959
67.68000 1.112
67.70000 0.846
67.72000 6.903
67.74000 7.534
67.76000 7.692
67.78000 6.021
67.80000 7.153
67.82000 6.283
67.84000 6.086
67.86000 5.292
67.88000 6.118
67.90000 8.621
67.92000 10.824
67.94000 11.220
67.96000 8.316
67.98000 9.023
68.00000 11.298
68.02000 11.560
68.04000 10.757
68.06000 12.106
68.08000 9.772
68.10000 12.206
68.12000 13.166
68.14000 13.413
68.16000 16.670
68.18000 19.187
68.20000 21.953
68.22000 15.518
68.24000 15.580
68.26000 16.333
68.28000 21.377
68.30000 19.205
68.32000 17.260
68.34000 17.851
68.36000 19.849
68.38000 14.430
68.40000 18.754
68.42000 23.415
68.44000 22.456
68.46000 20.109
68.48000 21.412
68.50000 22.099
68.52000 21.997
68.54000 22.360
68.56000 27.943
68.58000 26.091
68.60000 21.264
68.62000 22.481
68.64000 26.727
68.66000 25.213
68.68000 22.241
68.70000 25.552
68.72000 26.341
68.74000 24.759
68.76000 26.138
68.78000 27.470
68.80000 25.567
68.82000 25.433
68.84000 24.196
68.86000 25.380
68.88000 29.341
68.90000 25.996
68.92000 23.711
68.94000 27.323
68.96000 29.960
68.98000 26.098
69.00000 23.836
69.02000 20.829
69.04000 19.587
69.06000 23.360
69.08000 24.215
69.10000 20.217
69.12000 20.970
69.14000 17.535
69.16000 18.805
69.18000 23.069
69.20000 18.744
69.22000 19.298
69.24000 15.502
69.26000 19.992
69.28000 22.381
69.30000 23.779
69.32000 19.664
69.34000 17.932
69.36000 13.220
69.38000 14.052
69.40000 15.770
69.42000 10.054
69.44000 9.942
69.46000 13.566
69.48000 19.057
69.50000 13.288
69.52000 10.695
69.54000 13.402
69.56000 12.250
69.58000 12.901
69.60000 11.152
69.62000 8.282
69.64000 9.748
69.66000 9.682
69.68000 9.975
69.70000 6.048
69.72000 5.999
69.74000 7.499
69.76000 5.834
69.78000 6.051
69.80000 5.327
69.82000 5.607
69.84000 5.325
69.86000 5.142
69.88000 5.343
69.90000 2.163
69.92000 2.993
69.94000 4.286
69.96000 4.813
69.98000 8.168
70.00000 10.346
70.02000 5.604
70.04000 3.471
70.06000 3.362
70.08000 4.350
70.10000 6.758
70.12000 4.507
70.14000 3.233
70.16000 3.072
70.18000 7.428
70.20000 3.739
70.22000 3.852
70.24000 1.916
70.26000 3.046
70.28000 4.488
70.30000 6.026
70.32000 4.721
70.34000 3.542
70.36000 -1.581
70.38000 0.671
70.40000 1.488
70.42000 -2.220
70.44000 0.536
70.46000 2.383
70.48000 -0.546
70.50000 2.146
70.52000 0.723
70.54000 -1.015
70.56000 -2.022
70.58000 -2.596
70.60000 -1.094
70.62000 1.565
70.64000 0.488
70.66000 -1.131
70.68000 -1.780
70.70000 0.498
70.72000 2.662
70.74000 1.778
70.76000 -0.880
70.78000 3.113
70.80000 2.177
70.82000 -0.393
70.84000 -1.241
70.86000 0.218
70.88000 0.788
70.90000 3.042
70.92000 4.405
70.94000 3.298
70.96000 2.134
70.98000 5.270
71.00000 6.393
71.02000 6.378
71.04000 2.142
71.06000 -0.695
71.08000 1.195
71.10000 2.355
71.12000 0.034
71.14000 4.255
71.16000 4.861
71.18000 4.260
71.20000 2.074
71.22000 -2.503
71.24000 3.707
71.26000 1.811
71.28000 6.559
71.30000 3.947
71.32000 0.842
71.34000 3.334
71.36000 7.015
71.38000 8.670
71.40000 4.891
71.42000 3.441
71.44000 5.338
71.46000 4.516
71.48000 4.173
71.50000 1.587
71.52000 3.508
71.54000 0.736
71.56000 2.718
71.58000 6.463
71.60000 3.830
71.62000 3.374
71.64000 4.124
71.66000 4.507
71.68000 6.251
71.70000 4.167
71.72000 3.190
71.74000 0.106
71.76000 3.515
71.78000 3.930
71.80000 0.940
71.82000 3.317
71.84000 3.950
71.86000 3.514
71.88000 3.360
71.90000 0.638
71.92000 0.445
71.94000 2.737
71.96000 2.885
71.98000 3.133
72.00000 -0.343
72.02000 -2.139
72.04000 0.417
72.06000 3.215
72.08000 2.483
72.10000 0.236
72.12000 5.659
72.14000 5.537
72.16000 3.401
72.18000 2.202
72.20000 1.415
72.22000 1.808
72.24000 4.998
72.26000 2.195
72.28000 -1.720
72.30000 0.578
72.32000 1.982
72.34000 0.491
72.36000 -0.642
72.38000 1.936
72.40000 0.749
72.42000 -0.098
72.44000 -0.356
72.46000 0.383
72.48000 0.799
72.50000 -0.605
72.52000 2.093
72.54000 5.692
72.56000 3.828
72.58000 3.498
72.60000 0.825
72.62000 3.392
72.64000 5.545
72.66000 4.575
72.68000 4.895
72.70000 9.231
72.72000 7.885
72.74000 4.317
72.76000 6.822
72.78000 7.971
72.80000 3.248
72.82000 5.973
72.84000 4.996
72.86000 -2.413
72.88000 1.819
72.90000 9.150
72.92000 7.603
72.94000 0.165
72.96000 3.967
72.98000 4.447
73.00000 2.327
73.02000 5.688
73.04000 7.329
73.06000 1.986
73.08000 1.643
73.10000 3.011
73.12000 2.443
73.14000 1.015
73.16000 2.866
73.18000 2.977
73.20000 -2.014
73.22000 4.134
73.24000 5.957
73.26000 5.836
73.28000 7.978
73.30000 7.631
73.32000 6.110
73.34000 6.777
73.36000 5.905
73.38000 6.448
73.40000 3.033
73.42000 0.477
73.44000 -2.409
73.46000 2.743
73.48000 7.900
73.50000 4.347
73.52000 1.050
73.54000 2.811
73.56000 1.175
73.58000 -0.053
73.60000 4.952
73.62000 7.992
73.64000 6.067
73.66000 4.379
73.68000 6.461
73.70000 9.797
73.72000 4.841
73.74000 1.332
73.76000 0.300
73.78000 5.182
73.80000 7.737
73.82000 10.614
73.84000 5.112
73.86000 3.886
73.88000 1.497
73.90000 4.591
73.92000 2.998
73.94000 -1.063
73.96000 4.235
73.98000 7.837
74.00000 5.444
74.02000 0.949
74.04000 4.214
74.06000 4.964
74.08000 6.526
74.10000 5.420
74.12000 4.161
74.14000 5.032
74.16000 6.932
74.18000 9.355
74.20000 6.119
74.22000 11.045
74.24000 6.564
74.26000 6.011
74.28000 3.030
74.30000 -0.710
74.32000 0.429
74.34000 -1.674
74.36000 1.028
74.38000 -0.387
74.40000 2.368
74.42000 3.490
74.44000 2.545
74.46000 -1.137
74.48000 -0.744
74.50000 4.973
74.52000 4.659
74.54000 4.571
74.56000 7.283
74.58000 5.840
74.60000 1.815
74.62000 -1.339
74.64000 3.574
74.66000 6.975
74.68000 3.310
74.70000 4.935
74.72000 4.021
74.74000 5.443
74.76000 4.988
74.78000 1.925
74.80000 5.001
74.82000 4.029
74.84000 5.300
74.86000 6.798
74.88000 8.398
74.90000 5.970
74.92000 3.175
74.94000 5.013
74.96000 4.588
74.98000 0.697
75.00000 1.570
75.02000 1.464
75.04000 3.833
75.06000 5.648
75.08000 1.986
75.10000 0.814
75.12000 2.938
75.14000 6.195
75.16000 9.126
75.18000 5.563
75.20000 -1.204
75.22000 -2.400
75.24000 -0.237
75.26000 3.637
75.28000 2.608
75.30000 3.594
75.32000 7.699
75.34000 5.282
75.36000 2.178
75.38000 4.644
75.40000 4.867
75.42000 4.894
75.44000 2.278
75.46000 -1.088
75.48000 4.940
75.50000 5.845
75.52000 5.252
75.54000 4.948
75.56000 3.315
75.58000 -0.134
75.60000 1.723
75.62000 4.215
75.64000 5.517
75.66000 7.957
75.68000 5.091
75.70000 0.412
75.72000 3.458
75.74000 1.381
75.76000 -2.412
75.78000 4.897
75.80000 6.661
75.82000 4.821
75.84000 4.498
75.86000 1.629
75.88000 8.524
75.90000 4.472
75.92000 1.140
75.94000 2.602
75.96000 2.116
75.98000 4.299
76.00000 3.757
76.02000 9.431
76.04000 8.365
76.06000 6.817
76.08000 1.424
76.10000 -0.673
76.12000 5.812
76.14000 5.952
76.16000 3.504
76.18000 2.096
76.20000 5.286
76.22000 8.798
76.24000 3.261
76.26000 3.784
76.28000 3.995
76.30000 3.926
76.32000 4.726
76.34000 3.076
76.36000 6.109
76.38000 4.632
76.40000 -0.042
76.42000 -2.000
76.44000 -1.159
76.46000 0.341
76.48000 5.456
76.50000 4.152
76.52000 1.732
76.54000 -1.015
76.56000 0.279
76.58000 -1.012
76.60000 0.781
76.62000 4.156
76.64000 3.559
76.66000 5.631
76.68000 3.055
76.70000 1.750
76.72000 0.053
76.74000 2.833
76.76000 2.830
76.78000 3.576
76.80000 4.314
76.82000 0.152
76.84000 2.762
76.86000 1.326
76.88000 -1.454
76.90000 4.942
76.92000 4.634
76.94000 3.305
76.96000 5.826
76.98000 4.064
77.00000 4.098
77.02000 -1.326
77.04000 1.205
77.06000 3.099
77.08000 3.751
77.10000 3.837
77.12000 1.866
77.14000 3.180
77.16000 5.565
77.18000 0.522
77.20000 4.158
77.22000 2.869
77.24000 3.454
77.26000 1.842
77.28000 0.333
77.30000 2.777
77.32000 9.929
77.34000 5.835
77.36000 4.632
77.38000 7.721
77.40000 2.056
77.42000 -2.437
77.44000 0.596
77.46000 0.484
77.48000 1.246
77.50000 8.395
77.52000 11.762
77.54000 6.976
77.56000 8.139
77.58000 7.043
77.60000 6.351
77.62000 1.020
77.64000 4.795
77.66000 9.805
77.68000 10.340
77.70000 4.833
77.72000 2.072
77.74000 1.762
77.76000 4.400
77.78000 2.811
77.80000 1.484
77.82000 6.083
77.84000 6.252
77.86000 7.283
77.88000 2.832
77.90000 -1.586
77.92000 -1.156
77.94000 3.876
77.96000 5.328
77.98000 6.710
78.00000 4.909
78.02000 3.467
78.04000 1.633
78.06000 2.522
78.08000 3.402
78.10000 1.625
78.12000 -0.996
78.14000 -0.642
78.16000 -0.159
78.18000 2.063
78.20000 5.475
78.22000 4.193
78.24000 -0.387
78.26000 5.165
78.28000 9.546
78.30000 4.625
78.32000 1.303
78.34000 3.656
78.36000 7.116
78.38000 4.503
78.40000 4.025
78.42000 -0.167
78.44000 2.760
78.46000 0.985
78.48000 7.994
78.50000 5.133
78.52000 -0.673
78.54000 -1.144
78.56000 0.660
78.58000 0.520
78.60000 1.790
78.62000 3.180
78.64000 4.843
78.66000 7.279
78.68000 5.010
78.70000 3.861
78.72000 3.577
78.74000 3.899
78.76000 1.772
78.78000 3.190
78.80000 3.296
78.82000 -1.176
78.84000 2.959
78.86000 2.198
78.88000 -1.963
78.90000 -0.082
78.92000 1.626
78.94000 0.856
78.96000 3.622
78.98000 3.748
79.00000 3.657
79.02000 2.596
79.04000 4.777
79.06000 1.870
79.08000 4.071
79.10000 1.584
79.12000 -0.815
79.14000 4.226
79.16000 3.889
79.18000 4.890
79.20000 2.136
79.22000 2.347
79.24000 1.267
79.26000 3.201
79.28000 3.011
79.30000 4.462
79.32000 6.601
79.34000 7.390
79.36000 4.482
79.38000 3.149
79.40000 1.105
79.42000 1.569
79.44000 2.879
79.46000 6.834
79.48000 5.167
79.50000 0.509
79.52000 1.415
79.54000 5.253
79.56000 7.624
79.58000 6.975
79.60000 3.724
79.62000 4.555
79.64000 2.381
79.66000 1.108
79.68000 -2.457
79.70000 5.047
79.72000 6.405
79.74000 11.499
79.76000 8.664
79.78000 4.687
79.80000 11.552
79.82000 10.461
79.84000 8.904
79.86000 6.608
79.88000 4.544
79.90000 1.768
79.92000 2.520
79.94000 6.193
79.96000 5.119
79.98000 8.147
80.00000 1.632
80.02000 0.096
80.04000 2.867
80.06000 2.596
80.08000 0.608
80.10000 -1.526
80.12000 -2.485
80.14000 3.219
80.16000 4.034
80.18000 4.023
80.20000 8.739
80.22000 8.248
80.24000 9.635
80.26000 3.011
80.28000 1.862
80.30000 1.862
80.32000 0.062
80.34000 2.507
80.36000 8.610
80.38000 3.493
80.40000 1.688
80.42000 0.593
80.44000 4.871
80.46000 -1.150
80.48000 4.280
80.50000 6.387
80.52000 4.152
80.54000 -2.091
80.56000 2.806
80.58000 7.078
80.60000 11.009
80.62000 6.978
80.64000 4.975
80.66000 7.460
80.68000 8.921
80.70000 7.868
80.72000 1.134
80.74000 4.538
80.76000 5.902
80.78000 9.474
80.80000 8.306
80.82000 0.493
80.84000 0.220
80.86000 0.864
80.88000 -2.590
80.90000 6.341
80.92000 1.383
80.94000 2.849
80.96000 4.657
80.98000 3.765
81.00000 4.920
81.02000 0.231
81.04000 -1.167
81.06000 0.984
81.08000 -0.200
81.10000 3.804
81.12000 7.200
81.14000 5.492
81.16000 2.686
81.18000 3.707
81.20000 1.834
81.22000 3.930
81.24000 1.817
81.26000 5.520
81.28000 2.145
81.30000 1.051
81.32000 -0.464
81.34000 0.003
81.36000 6.691
81.38000 2.592
81.40000 4.029
81.42000 5.275
81.44000 4.693
81.46000 2.084
81.48000 3.163
81.50000 4.746
81.52000 8.620
81.54000 7.021
81.56000 8.165
81.58000 6.241
81.60000 7.676
81.62000 8.397
81.64000 7.312
81.66000 4.378
81.68000 3.214
81.70000 5.582
81.72000 3.260
81.74000 4.091
81.76000 5.185
81.78000 9.293
81.80000 5.228
81.82000 8.089
81.84000 9.415
81.86000 8.245
81.88000 4.514
81.90000 5.294
81.92000 8.904
81.94000 12.577
81.96000 6.803
81.98000 4.801
82.00000 8.749
82.02000 12.659
82.04000 15.790
82.06000 15.656
82.08000 10.868
82.10000 8.692
82.12000 8.838
82.14000 13.964
82.16000 12.769
82.18000 13.708
82.20000 16.169
82.22000 13.448
82.24000 16.086
82.26000 9.558
82.28000 11.889
82.30000 12.506
82.32000 17.531
82.34000 17.180
82.36000 19.092
82.38000 16.390
82.40000 21.455
82.42000 21.898
82.44000 20.092
82.46000 17.434
82.48000 17.440
82.50000 19.054
82.52000 19.313
82.54000 13.271
82.56000 12.368
82.58000 13.087
82.60000 14.128
82.62000 18.460
82.64000 26.593
82.66000 23.821
82.68000 15.120
82.70000 13.287
82.72000 24.882
82.74000 26.942
82.76000 24.221
82.78000 15.321
82.80000 16.964
82.82000 21.170
82.84000 23.558
82.86000 28.348
82.88000 28.718
82.90000 26.840
82.92000 26.238
82.94000 27.532
82.96000 22.201
82.98000 18.366
83.00000 20.344
83.02000 25.519
83.04000 28.287
83.06000 22.104
83.08000 30.435
83.10000 27.814
83.12000 22.488
83.14000 22.857
83.16000 23.484
83.18000 20.133
83.20000 21.652
83.22000 22.116
83.24000 22.946
83.26000 23.369
83.28000 26.495
83.30000 25.955
83.32000 21.652
83.34000 26.413
83.36000 29.184
83.38000 21.325
83.40000 26.104
83.42000 24.415
83.44000 23.859
83.46000 23.384
83.48000 22.482
83.50000 24.294
83.52000 21.801
83.54000 16.489
83.56000 18.551
83.58000 20.947
83.60000 20.530
83.62000 22.702
83.64000 19.963
83.66000 14.240
83.68000 22.382
83.70000 22.899
83.72000 21.130
83.74000 14.368
83.76000 15.002
83.78000 19.373
83.80000 19.286
83.82000 16.274
83.84000 15.238
83.86000 14.661
83.88000 9.521
83.90000 8.160
83.92000 13.674
83.94000 16.181
83.96000 14.764
83.98000 16.059
84.00000 11.615
84.02000 10.207
84.04000 9.835
84.06000 11.703
84.08000 12.424
84.10000 12.013
84.12000 14.870
84.14000 10.597
84.16000 11.443
84.18000 12.617
84.20000 7.002
84.22000 3.842
84.24000 7.945
84.26000 6.111
84.28000 3.368
84.30000 4.532
84.32000 3.925
84.34000 6.889
84.36000 5.551
84.38000 6.520
84.40000 5.269
84.42000 7.048
84.44000 5.503
84.46000 6.959
84.48000 5.711
84.50000 6.598
84.52000 5.506
84.54000 8.201
84.56000 5.749
84.58000 7.199
84.60000 3.408
84.62000 -0.596
84.64000 3.356
84.66000 5.936
84.68000 9.565
84.70000 7.331
84.72000 0.862
84.74000 -0.978
84.76000 -2.597
84.78000 1.450
84.80000 1.759
84.82000 2.156
84.84000 2.443
84.86000 0.862
84.88000 -1.371
84.90000 -1.621
84.92000 1.348
84.94000 3.550
84.96000 3.680
84.98000 1.498
85.00000 4.258
85.02000 6.564
85.04000 3.508
85.06000 1.584
85.08000 2.780
85.10000 -0.596
85.12000 -1.647
85.14000 -2.564
85.16000 4.037
85.18000 4.080
85.20000 0.214
85.22000 2.902
85.24000 8.322
85.26000 2.330
85.28000 -1.259
85.30000 -0.631
85.32000 5.118
85.34000 5.670
85.36000 4.615
85.38000 5.389
85.40000 6.061
85.42000 1.334
85.44000 -2.143
85.46000 0.101
85.48000 1.395
85.50000 4.041
85.52000 5.771
85.54000 4.565
85.56000 0.710
85.58000 -2.527
85.60000 4.815
85.62000 1.082
85.64000 -0.423
85.66000 3.011
85.68000 1.547
85.70000 5.658
85.72000 5.824
85.74000 0.538
85.76000 3.950
85.78000 2.153
85.80000 1.876
85.82000 1.994
85.84000 1.336
85.86000 3.483
85.88000 3.454
85.90000 0.030
85.92000 -2.514
85.94000 -0.336
85.96000 4.707
85.98000 -1.741
86.00000 3.824
86.02000 4.692
86.04000 5.077
86.06000 -0.922
86.08000 -2.519
86.10000 3.737
86.12000 0.957
86.14000 -0.806
86.16000 -0.836
86.18000 3.227
86.20000 5.748
86.22000 4.463
86.24000 3.083
86.26000 1.419
86.28000 3.678
86.30000 6.605
86.32000 2.247
86.34000 1.674
86.36000 2.596
86.38000 6.057
86.40000 7.493
86.42000 4.896
86.44000 0.754
86.46000 6.151
86.48000 6.594
86.50000 1.090
86.52000 1.886
86.54000 -0.706
86.56000 2.086
86.58000 4.378
86.60000 10.748
86.62000 2.340
86.64000 9.767
86.66000 9.017
86.68000 4.467
86.70000 2.925
86.72000 3.466
86.74000 6.491
86.76000 3.200
86.78000 2.174
86.80000 5.794
86.82000 11.952
86.84000 12.144
86.86000 7.996
86.88000 6.466
86.90000 9.437
86.92000 11.337
86.94000 12.135
86.96000 12.433
86.98000 14.647
87.00000 18.558
87.02000 17.252
87.04000 15.147
87.06000 11.848
87.08000 14.913
87.10000 15.855
87.12000 15.911
87.14000 9.513
87.16000 12.664
87.18000 11.586
87.20000 10.726
87.22000 9.465
87.24000 5.865
87.26000 16.747
87.28000 20.139
87.30000 17.565
87.32000 18.927
87.34000 19.336
87.36000 18.256
87.38000 23.060
87.40000 18.329
87.42000 16.031
87.44000 13.780
87.46000 19.497
87.48000 20.014
87.50000 22.385
87.52000 27.833
87.54000 27.311
87.56000 21.665
87.58000 23.609
87.60000 23.971
87.62000 23.585
87.64000 19.492
87.66000 15.311
87.68000 19.451
87.70000 18.301
87.72000 23.270
87.74000 20.168
87.76000 21.733
87.78000 20.402
87.80000 21.543
87.82000 23.103
87.84000 20.604
87.86000 22.641
87.88000 22.735
87.90000 20.786
87.92000 19.669
87.94000 25.372
87.96000 26.310
87.98000 24.965
88.00000 20.840
88.02000 17.003
88.04000 20.030
88.06000 14.522
88.08000 10.589
88.10000 16.434
88.12000 15.538
88.14000 17.201
88.16000 18.439
88.18000 18.796
88.20000 12.096
88.22000 15.083
88.24000 15.781
88.26000 13.837
88.28000 13.562
88.30000 11.000
88.32000 13.233
88.34000 16.145
88.36000 14.494
88.38000 13.118
88.40000 4.874
88.42000 4.198
88.44000 5.332
88.46000 5.167
88.48000 6.232
88.50000 4.358
88.52000 2.203
88.54000 8.971
88.56000 10.165
88.58000 3.765
88.60000 5.642
88.62000 8.100
88.64000 14.505
88.66000 6.541
88.68000 3.166
88.70000 4.939
88.72000 6.567
88.74000 5.465
88.76000 5.159
88.78000 1.386
88.80000 6.777
88.82000 4.783
88.84000 6.567
88.86000 8.277
88.88000 3.682
88.90000 2.949
88.92000 3.252
88.94000 2.957
88.96000 1.841
88.98000 2.071
89.00000 0.611
89.02000 9.688
89.04000 8.735
89.06000 7.689
89.08000 5.725
89.10000 0.646
89.12000 6.596
89.14000 5.903
89.16000 5.722
89.18000 0.098
89.20000 -0.252
89.22000 -2.185
89.24000 -0.708
89.26000 6.074
89.28000 3.784
89.30000 5.149
89.32000 7.144
89.34000 9.033
89.36000 6.911
89.38000 3.018
89.40000 1.987
89.42000 -2.391
89.44000 1.626
89.46000 4.625
89.48000 6.641
89.50000 7.453
89.52000 3.341
89.54000 -0.049
89.56000 4.152
89.58000 3.221
89.60000 3.983
89.62000 4.638
89.64000 2.759
89.66000 0.588
89.68000 2.177
89.70000 5.990
89.72000 9.013
89.74000 4.570
89.76000 2.854
89.78000 0.634
89.80000 2.787
89.82000 4.514
89.84000 4.161
89.86000 7.185
89.88000 5.459
89.90000 6.816
89.92000 6.190
89.94000 1.566
89.96000 -1.316
89.98000 1.337
90.00000 1.272
90.02000 -1.696
90.04000 0.979
90.06000 3.671
90.08000 4.808
90.10000 1.655
90.12000 1.595
90.14000 0.835
90.16000 -0.665
90.18000 3.265
90.20000 1.512
90.22000 7.996
90.24000 6.468
90.26000 -0.466
90.28000 -2.322
90.30000 -1.291
90.32000 4.169
90.34000 8.051
90.36000 3.301
90.38000 0.537
90.40000 5.724
90.42000 7.352
90.44000 0.188
90.46000 -1.122
90.48000 -0.706
90.50000 -0.599
90.52000 1.238
90.54000 4.060
90.56000 6.805
90.58000 4.494
90.60000 6.280
90.62000 5.087
90.64000 2.985
90.66000 2.965
90.68000 5.462
90.70000 8.117
90.72000 11.464
90.74000 8.789
90.76000 6.878
90.78000 5.541
90.80000 -2.131
90.82000 -2.255
90.84000 4.255
90.86000 1.469
90.88000 3.899
90.90000 5.768
90.92000 4.984
90.94000 2.477
90.96000 7.396
90.98000 13.139
91.00000 5.819
91.02000 -0.239
91.04000 1.154
91.06000 2.700
91.08000 1.005
91.10000 -2.084
91.12000 2.698
91.14000 6.465
91.16000 5.625
91.18000 7.041
91.20000 2.205
91.22000 -0.028
91.24000 4.876
91.26000 9.425
91.28000 9.165
91.30000 7.050
91.32000 8.725
91.34000 3.637
91.36000 -1.054
91.38000 5.889
91.40000 3.266
91.42000 1.337
91.44000 3.074
91.46000 2.758
91.48000 3.359
91.50000 1.699
91.52000 0.394
91.54000 1.040
91.56000 7.298
91.58000 2.684
91.60000 6.365
91.62000 5.838
91.64000 5.681
91.66000 7.195
91.68000 8.684
91.70000 6.844
91.72000 2.951
91.74000 -2.258
91.76000 3.391
91.78000 6.886
91.80000 6.378
91.82000 5.867
91.84000 7.213
91.86000 11.652
91.88000 8.813
91.90000 2.980
91.92000 3.219
91.94000 2.696
91.96000 7.846
91.98000 5.103
92.00000 1.718
92.02000 3.523
92.04000 6.162
92.06000 8.770
92.08000 8.450
92.10000 5.031
92.12000 2.599
92.14000 6.638
92.16000 0.645
92.18000 0.970
92.20000 5.287
92.22000 5.042
92.24000 5.351
92.26000 2.045
92.28000 -2.277
92.30000 4.425
92.32000 5.736
92.34000 1.066
92.36000 2.451
92.38000 4.232
92.40000 2.261
92.42000 7.857
92.44000 5.631
92.46000 4.047
92.48000 6.529
92.50000 4.511
92.52000 3.138
92.54000 4.491
92.56000 -0.733
92.58000 4.509
92.60000 7.452
92.62000 7.509
92.64000 6.429
92.66000 6.679
92.68000 1.173
92.70000 0.305
92.72000 -1.160
92.74000 1.393
92.76000 4.044
92.78000 3.628
92.80000 5.971
92.82000 4.493
92.84000 0.781
92.86000 0.137
92.88000 4.776
92.90000 -1.150
92.92000 0.570
92.94000 4.365
92.96000 5.050
92.98000 5.587
93.00000 4.861
93.02000 5.943
93.04000 1.481
93.06000 6.785
93.08000 13.854
93.10000 11.864
93.12000 7.804
93.14000 8.070
93.16000 2.072
93.18000 -1.261
93.20000 1.748
93.22000 6.055
93.24000 11.438
93.26000 7.111
93.28000 6.591
93.30000 1.686
93.32000 -2.170
93.34000 -2.294
93.36000 0.888
93.38000 6.562
93.40000 2.882
93.42000 2.503
93.44000 13.428
93.46000 4.515
93.48000 2.520
93.50000 6.136
93.52000 6.511
93.54000 7.642
93.56000 8.721
93.58000 2.742
93.60000 8.158
93.62000 7.309
93.64000 0.774
93.66000 -0.417
93.68000 2.803
93.70000 2.062
93.72000 2.895
93.74000 3.662
93.76000 5.310
93.78000 5.530
93.80000 2.751
93.82000 12.147
93.84000 5.086
93.86000 7.060
93.88000 3.542
93.90000 3.265
93.92000 7.371
93.94000 6.685
93.96000 -0.480
93.98000 -0.937
94.00000 7.590
94.02000 2.695
94.04000 6.574
94.06000 8.510
94.08000 11.842
94.10000 6.034
94.12000 2.862
94.14000 3.605
94.16000 0.525
94.18000 -2.246
94.20000 3.569
94.22000 6.170
94.24000 12.305
94.26000 9.201
94.28000 6.643
94.30000 7.277
94.32000 3.170
94.34000 3.406
94.36000 5.504
94.38000 7.476
94.40000 10.771
94.42000 11.029
94.44000 8.255
94.46000 5.718
94.48000 -0.252
94.50000 -0.927
94.52000 2.176
94.54000 3.250
94.56000 3.152
94.58000 1.640
94.60000 9.268
94.62000 9.574
94.64000 10.776
94.66000 4.462
94.68000 3.241
94.70000 5.920
94.72000 9.660
94.74000 9.810
94.76000 5.978
94.78000 8.613
94.80000 0.517
94.82000 5.574
94.84000 10.827
94.86000 9.008
94.88000 8.599
94.90000 5.940
94.92000 6.313
94.94000 9.385
94.96000 8.544
94.98000 11.103
95.00000 10.613
95.02000 10.588
95.04000 9.081
95.06000 11.744
95.08000 11.805
95.10000 9.650
95.12000 1.825
95.14000 3.527
95.16000 11.242
95.18000 7.807
95.20000 9.405
95.22000 10.152
95.24000 2.699
95.26000 6.615
95.28000 1.202
95.30000 0.097
95.32000 0.082
95.34000 1.271
95.36000 0.635
95.38000 4.535
95.40000 7.473
95.42000 2.635
95.44000 -0.944
95.46000 5.592
95.48000 11.207
95.50000 11.411
95.52000 10.366
95.54000 9.576
95.56000 4.909
95.58000 3.124
95.60000 11.063
95.62000 1.772
95.64000 3.620
95.66000 5.175
95.68000 12.070
95.70000 12.319
95.72000 9.184
95.74000 5.761
95.76000 10.460
95.78000 7.117
95.80000 -2.312
95.82000 -0.832
95.84000 7.490
95.86000 6.223
95.88000 2.903
95.90000 3.225
95.92000 6.418
95.94000 1.193
95.96000 4.226
95.98000 6.993
96.00000 5.159
96.02000 5.110
96.04000 6.280
96.06000 1.033
96.08000 1.263
96.10000 8.634
96.12000 6.821
96.14000 6.614
96.16000 4.765
96.18000 3.768
96.20000 4.112
96.22000 -0.167
96.24000 12.889
96.26000 9.765
96.28000 9.047
96.30000 11.144
96.32000 5.175
96.34000 3.563
96.36000 1.391
96.38000 -1.726
96.40000 1.436
96.42000 8.021
96.44000 7.556
96.46000 11.393
96.48000 4.533
96.50000 5.530
96.52000 -2.287
96.54000 4.231
96.56000 7.644
96.58000 9.852
96.60000 5.305
96.62000 7.125
96.64000 3.847
96.66000 4.558
96.68000 9.579
96.70000 9.436
96.72000 8.280
96.74000 9.740
96.76000 1.777
96.78000 -0.358
96.80000 6.729
96.82000 7.961
96.84000 8.409
96.86000 9.718
96.88000 9.161
96.90000 10.286
96.92000 10.028
96.94000 11.954
96.96000 6.729
96.98000 8.318
97.00000 7.144
97.02000 7.722
97.04000 3.245
97.06000 2.146
97.08000 4.845
97.10000 3.979
97.12000 2.090
97.14000 6.976
97.16000 9.025
97.18000 7.866
97.20000 11.508
97.22000 9.416
97.24000 7.506
97.26000 4.427
97.28000 8.704
97.30000 11.891
97.32000 2.375
97.34000 7.154
97.36000 13.548
97.38000 8.702
97.40000 12.121
97.42000 16.590
97.44000 15.405
97.46000 10.809
97.48000 7.357
97.50000 5.719
97.52000 7.337
97.54000 16.315
97.56000 7.795
97.58000 10.983
97.60000 4.819
97.62000 -2.199
97.64000 3.741
97.66000 9.932
97.68000 10.596
97.70000 9.555
97.72000 5.020
97.74000 11.788
97.76000 14.317
97.78000 12.032
97.80000 1.979
97.82000 0.652
97.84000 3.127
97.86000 14.197
97.88000 12.393
97.90000 13.014
97.92000 17.464
97.94000 9.681
97.96000 5.688
97.98000 5.743
98.00000 3.334
98.02000 4.157
98.04000 6.316
98.06000 9.705
98.08000 3.546
98.10000 -1.763
98.12000 6.944
98.14000 -0.655
98.16000 6.532
98.18000 18.766
98.20000 10.246
98.22000 4.055
98.24000 2.893
98.26000 5.140
98.28000 5.361
98.30000 7.551
98.32000 11.114
98.34000 4.553
98.36000 2.248
98.38000 6.283
98.40000 -0.112
98.42000 7.255
98.44000 9.921
98.46000 6.826
98.48000 1.830
98.50000 3.425
98.52000 0.550
98.54000 5.891
98.56000 6.621
98.58000 8.532
98.60000 4.600
98.62000 7.474
98.64000 13.296
98.66000 9.008
98.68000 12.810
98.70000 7.644
98.72000 0.663
98.74000 0.775
98.76000 2.744
98.78000 -2.187
98.80000 1.684
98.82000 3.580
98.84000 7.869
98.86000 14.673
98.88000 15.006
98.90000 11.349
98.92000 11.181
98.94000 10.969
98.96000 12.748
98.98000 8.908
99.00000 6.649
99.02000 6.818
99.04000 9.947
99.06000 12.209
99.08000 3.318
99.10000 3.384
99.12000 9.114
99.14000 11.373
99.16000 12.308
99.18000 9.686
99.20000 8.080
99.22000 0.736
99.24000 8.194
99.26000 10.496
99.28000 7.779
99.30000 11.204
99.32000 11.265
99.34000 9.039
99.36000 7.083
99.38000 12.318
99.40000 10.886
99.42000 7.429
99.44000 -4.282
99.46000 3.923
99.48000 10.075
99.50000 8.304
99.52000 9.578
99.54000 8.548
99.56000 9.630
99.58000 11.589
99.60000 7.050
99.62000 9.901
99.64000 17.107
99.66000 5.804
99.68000 6.975
99.70000 4.853
99.72000 6.671
99.74000 17.693
99.76000 19.016
99.78000 13.457
99.80000 14.967
99.82000 24.763
99.84000 13.820
99.86000 7.555
99.88000 -1.820
99.90000 -2.219
99.92000 2.328
99.94000 -2.361
99.96000 -2.441
99.98000 0.000
