'Id: "0011389" Comment: "Integrate frame 0011389_Au-Ir-Rh_Au-Rich_XRD_Mapping-232-0000.gfrmwith cursor Wedge Cursor #5" Operator: "B?rgel" Anode: "Cu" Wavelength: "1.5406" Scantype: "2Theta (TwoTheta)" TimePerStep: "1" X: "9" Y: "13.5" Z: "5.95" 
10.00000 0.000
10.02000 6.910
10.04000 28.743
10.06000 17.023
10.08000 21.175
10.10000 15.411
10.12000 20.255
10.14000 14.730
10.16000 25.328
10.18000 22.869
10.20000 6.100
10.22000 11.228
10.24000 11.375
10.26000 17.761
10.28000 27.849
10.30000 16.257
10.32000 5.749
10.34000 5.290
10.36000 12.618
10.38000 11.147
10.40000 5.267
10.42000 27.074
10.44000 37.310
10.46000 31.657
10.48000 14.685
10.50000 11.867
10.52000 29.827
10.54000 25.975
10.56000 25.494
10.58000 18.775
10.60000 15.024
10.62000 12.372
10.64000 5.486
10.66000 0.657
10.68000 3.781
10.70000 9.322
10.72000 19.637
10.74000 17.727
10.76000 22.004
10.78000 21.884
10.80000 13.831
10.82000 18.670
10.84000 30.934
10.86000 20.744
10.88000 13.703
10.90000 16.851
10.92000 12.848
10.94000 17.883
10.96000 12.387
10.98000 14.120
11.00000 21.843
11.02000 16.883
11.04000 1.177
11.06000 -4.142
11.08000 2.131
11.10000 18.687
11.12000 14.627
11.14000 14.005
11.16000 16.063
11.18000 14.053
11.20000 19.666
11.22000 18.882
11.24000 6.258
11.26000 9.047
11.28000 10.137
11.30000 10.893
11.32000 16.841
11.34000 11.563
11.36000 15.082
11.38000 13.992
11.40000 7.680
11.42000 4.177
11.44000 11.625
11.46000 17.791
11.48000 12.425
11.50000 14.297
11.52000 16.997
11.54000 15.485
11.56000 10.764
11.58000 26.751
11.60000 26.503
11.62000 15.612
11.64000 17.330
11.66000 21.594
11.68000 11.047
11.70000 6.276
11.72000 18.875
11.74000 35.645
11.76000 18.572
11.78000 15.080
11.80000 19.330
11.82000 15.439
11.84000 19.397
11.86000 26.933
11.88000 34.296
11.90000 37.115
11.92000 31.930
11.94000 26.274
11.96000 21.821
11.98000 30.394
12.00000 20.746
12.02000 13.000
12.04000 17.713
12.06000 16.351
12.08000 14.268
12.10000 9.903
12.12000 11.656
12.14000 20.810
12.16000 21.487
12.18000 20.197
12.20000 19.984
12.22000 26.363
12.24000 37.592
12.26000 22.856
12.28000 19.759
12.30000 18.598
12.32000 15.137
12.34000 18.043
12.36000 23.463
12.38000 18.723
12.40000 14.012
12.42000 9.607
12.44000 16.300
12.46000 23.863
12.48000 23.688
12.50000 14.165
12.52000 9.055
12.54000 20.033
12.56000 16.133
12.58000 5.376
12.60000 16.944
12.62000 22.884
12.64000 10.726
12.66000 9.863
12.68000 26.833
12.70000 32.890
12.72000 25.588
12.74000 23.873
12.76000 18.914
12.78000 21.362
12.80000 28.430
12.82000 26.863
12.84000 28.117
12.86000 30.293
12.88000 17.776
12.90000 16.006
12.92000 15.982
12.94000 19.229
12.96000 20.982
12.98000 19.218
13.00000 23.018
13.02000 22.039
13.04000 19.095
13.06000 10.683
13.08000 15.666
13.10000 12.189
13.12000 17.208
13.14000 22.902
13.16000 23.432
13.18000 15.465
13.20000 14.937
13.22000 24.349
13.24000 28.853
13.26000 20.695
13.28000 18.608
13.30000 21.200
13.32000 9.167
13.34000 11.855
13.36000 5.138
13.38000 15.875
13.40000 12.397
13.42000 13.241
13.44000 18.691
13.46000 14.509
13.48000 17.139
13.50000 25.756
13.52000 32.515
13.54000 21.648
13.56000 18.777
13.58000 17.466
13.60000 4.815
13.62000 8.328
13.64000 18.926
13.66000 16.378
13.68000 11.119
13.70000 19.100
13.72000 20.885
13.74000 17.247
13.76000 7.314
13.78000 17.037
13.80000 22.227
13.82000 17.747
13.84000 17.474
13.86000 18.881
13.88000 14.006
13.90000 9.538
13.92000 1.818
13.94000 11.497
13.96000 15.201
13.98000 15.126
14.00000 14.047
14.02000 13.522
14.04000 14.353
14.06000 13.117
14.08000 15.495
14.10000 23.514
14.12000 19.813
14.14000 8.002
14.16000 5.636
14.18000 5.603
14.20000 15.619
14.22000 10.687
14.24000 7.939
14.26000 12.549
14.28000 18.094
14.30000 16.304
14.32000 10.391
14.34000 11.779
14.36000 4.727
14.38000 8.247
14.40000 6.672
14.42000 12.224
14.44000 11.180
14.46000 11.804
14.48000 12.911
14.50000 8.700
14.52000 10.397
14.54000 4.000
14.56000 7.725
14.58000 20.482
14.60000 17.192
14.62000 13.179
14.64000 8.902
14.66000 9.329
14.68000 18.716
14.70000 16.951
14.72000 5.532
14.74000 9.881
14.76000 5.733
14.78000 6.486
14.80000 17.611
14.82000 20.552
14.84000 12.051
14.86000 13.517
14.88000 14.467
14.90000 16.153
14.92000 18.641
14.94000 10.906
14.96000 7.067
14.98000 10.509
15.00000 12.276
15.02000 21.057
15.04000 21.694
15.06000 15.440
15.08000 15.779
15.10000 5.092
15.12000 8.023
15.14000 14.574
15.16000 11.416
15.18000 16.991
15.20000 17.145
15.22000 24.097
15.24000 21.475
15.26000 14.921
15.28000 13.928
15.30000 13.908
15.32000 6.395
15.34000 8.408
15.36000 6.776
15.38000 9.008
15.40000 8.346
15.42000 5.496
15.44000 14.837
15.46000 11.120
15.48000 9.545
15.50000 13.059
15.52000 8.684
15.54000 13.381
15.56000 17.579
15.58000 14.978
15.60000 4.120
15.62000 -4.473
15.64000 3.190
15.66000 13.266
15.68000 14.130
15.70000 8.659
15.72000 10.568
15.74000 0.874
15.76000 0.633
15.78000 4.221
15.80000 14.974
15.82000 11.606
15.84000 4.860
15.86000 10.590
15.88000 9.662
15.90000 9.024
15.92000 5.952
15.94000 4.221
15.96000 0.499
15.98000 -1.847
16.00000 -0.892
16.02000 -4.467
16.04000 5.344
16.06000 1.844
16.08000 10.755
16.10000 15.068
16.12000 4.769
16.14000 6.318
16.16000 10.924
16.18000 3.456
16.20000 1.667
16.22000 8.070
16.24000 11.992
16.26000 6.150
16.28000 8.500
16.30000 7.123
16.32000 4.085
16.34000 9.859
16.36000 8.903
16.38000 1.574
16.40000 1.152
16.42000 1.115
16.44000 7.765
16.46000 9.952
16.48000 12.395
16.50000 5.897
16.52000 3.503
16.54000 6.645
16.56000 9.016
16.58000 3.269
16.60000 6.447
16.62000 4.419
16.64000 3.358
16.66000 0.576
16.68000 13.820
16.70000 15.853
16.72000 7.616
16.74000 3.863
16.76000 5.561
16.78000 1.707
16.80000 7.332
16.82000 6.676
16.84000 9.317
16.86000 11.223
16.88000 5.776
16.90000 6.564
16.92000 8.574
16.94000 4.752
16.96000 7.437
16.98000 11.356
17.00000 13.804
17.02000 12.658
17.04000 3.358
17.06000 0.610
17.08000 0.488
17.10000 5.120
17.12000 6.513
17.14000 0.873
17.16000 0.806
17.18000 2.423
17.20000 3.034
17.22000 3.834
17.24000 4.667
17.26000 6.904
17.28000 5.040
17.30000 3.728
17.32000 1.532
17.34000 2.989
17.36000 8.147
17.38000 7.935
17.40000 8.707
17.42000 5.145
17.44000 3.113
17.46000 6.708
17.48000 13.281
17.50000 3.347
17.52000 5.840
17.54000 8.470
17.56000 10.723
17.58000 10.382
17.60000 8.209
17.62000 5.601
17.64000 2.441
17.66000 4.050
17.68000 -0.737
17.70000 2.454
17.72000 7.111
17.74000 4.957
17.76000 5.271
17.78000 5.235
17.80000 3.240
17.82000 2.402
17.84000 7.321
17.86000 6.375
17.88000 8.568
17.90000 4.884
17.92000 3.552
17.94000 -0.385
17.96000 0.877
17.98000 4.178
18.00000 3.314
18.02000 9.106
18.04000 -0.776
18.06000 -0.331
18.08000 3.665
18.10000 4.479
18.12000 10.183
18.14000 8.943
18.16000 9.031
18.18000 5.966
18.20000 3.028
18.22000 6.275
18.24000 4.130
18.26000 -2.464
18.28000 -4.340
18.30000 -3.067
18.32000 -1.793
18.34000 -0.448
18.36000 3.702
18.38000 15.003
18.40000 13.359
18.42000 11.140
18.44000 3.593
18.46000 7.859
18.48000 7.848
18.50000 5.068
18.52000 10.848
18.54000 12.349
18.56000 3.962
18.58000 2.289
18.60000 6.667
18.62000 7.739
18.64000 6.582
18.66000 9.168
18.68000 16.984
18.70000 6.834
18.72000 6.041
18.74000 9.614
18.76000 8.978
18.78000 5.919
18.80000 9.090
18.82000 7.123
18.84000 5.269
18.86000 2.568
18.88000 -4.312
18.90000 -4.048
18.92000 4.719
18.94000 5.564
18.96000 3.082
18.98000 5.096
19.00000 6.241
19.02000 0.630
19.04000 3.848
19.06000 6.231
19.08000 5.438
19.10000 0.324
19.12000 -1.261
19.14000 -0.997
19.16000 -0.834
19.18000 -3.218
19.20000 7.516
19.22000 7.938
19.24000 8.129
19.26000 -1.484
19.28000 1.950
19.30000 6.164
19.32000 8.342
19.34000 11.043
19.36000 9.200
19.38000 4.608
19.40000 3.387
19.42000 1.955
19.44000 4.442
19.46000 -4.239
19.48000 -4.277
19.50000 -2.094
19.52000 2.324
19.54000 6.690
19.56000 3.618
19.58000 9.465
19.60000 10.853
19.62000 6.020
19.64000 4.323
19.66000 4.297
19.68000 3.550
19.70000 0.383
19.72000 3.392
19.74000 3.776
19.76000 0.095
19.78000 5.571
19.80000 9.205
19.82000 1.954
19.84000 -1.879
19.86000 0.067
19.88000 -0.353
19.90000 5.184
19.92000 13.018
19.94000 13.749
19.96000 11.776
19.98000 8.732
20.00000 6.388
20.02000 3.998
20.04000 2.047
20.06000 4.732
20.08000 8.564
20.10000 7.630
20.12000 1.675
20.14000 8.712
20.16000 9.410
20.18000 8.541
20.20000 8.184
20.22000 6.988
20.24000 -2.546
20.26000 -1.740
20.28000 4.250
20.30000 3.828
20.32000 3.089
20.34000 5.530
20.36000 7.782
20.38000 6.919
20.40000 13.582
20.42000 11.587
20.44000 10.225
20.46000 1.450
20.48000 2.918
20.50000 4.410
20.52000 6.231
20.54000 7.468
20.56000 6.278
20.58000 5.956
20.60000 6.619
20.62000 3.500
20.64000 3.158
20.66000 9.092
20.68000 4.313
20.70000 1.620
20.72000 6.687
20.74000 10.815
20.76000 8.197
20.78000 9.975
20.80000 7.002
20.82000 -1.806
20.84000 4.826
20.86000 8.845
20.88000 8.781
20.90000 6.082
20.92000 4.504
20.94000 1.956
20.96000 5.825
20.98000 5.921
21.00000 1.915
21.02000 4.006
21.04000 10.669
21.06000 6.743
21.08000 10.228
21.10000 6.753
21.12000 5.426
21.14000 2.680
21.16000 3.571
21.18000 1.861
21.20000 2.269
21.22000 3.042
21.24000 -3.270
21.26000 7.812
21.28000 5.427
21.30000 4.643
21.32000 2.391
21.34000 0.298
21.36000 13.566
21.38000 11.228
21.40000 9.090
21.42000 0.962
21.44000 -1.187
21.46000 5.857
21.48000 5.263
21.50000 8.183
21.52000 5.291
21.54000 8.512
21.56000 13.393
21.58000 14.842
21.60000 11.395
21.62000 11.087
21.64000 17.029
21.66000 22.339
21.68000 9.711
21.70000 6.677
21.72000 7.870
21.74000 -4.113
21.76000 -1.901
21.78000 11.759
21.80000 18.097
21.82000 15.605
21.84000 6.892
21.86000 5.705
21.88000 6.371
21.90000 8.135
21.92000 6.181
21.94000 0.848
21.96000 7.749
21.98000 13.619
22.00000 9.643
22.02000 7.093
22.04000 2.168
22.06000 5.827
22.08000 7.281
22.10000 8.356
22.12000 9.661
22.14000 6.548
22.16000 8.034
22.18000 13.680
22.20000 13.775
22.22000 10.455
22.24000 9.745
22.26000 11.397
22.28000 12.563
22.30000 5.876
22.32000 3.006
22.34000 7.528
22.36000 10.132
22.38000 7.862
22.40000 11.395
22.42000 8.922
22.44000 8.318
22.46000 11.079
22.48000 10.228
22.50000 8.116
22.52000 7.615
22.54000 10.078
22.56000 6.805
22.58000 7.487
22.60000 13.823
22.62000 12.613
22.64000 9.448
22.66000 10.950
22.68000 13.024
22.70000 15.803
22.72000 14.719
22.74000 9.265
22.76000 5.462
22.78000 5.996
22.80000 10.101
22.82000 14.952
22.84000 5.919
22.86000 4.475
22.88000 6.303
22.90000 4.531
22.92000 2.895
22.94000 2.486
22.96000 9.574
22.98000 7.055
23.00000 7.395
23.02000 -2.998
23.04000 -0.726
23.06000 1.594
23.08000 5.027
23.10000 3.050
23.12000 6.472
23.14000 8.453
23.16000 7.886
23.18000 10.320
23.20000 2.528
23.22000 1.596
23.24000 7.917
23.26000 2.143
23.28000 3.332
23.30000 4.721
23.32000 4.341
23.34000 3.511
23.36000 4.501
23.38000 8.407
23.40000 9.529
23.42000 12.244
23.44000 3.816
23.46000 4.453
23.48000 8.548
23.50000 15.617
23.52000 16.725
23.54000 6.143
23.56000 -4.022
23.58000 -1.173
23.60000 3.807
23.62000 -1.463
23.64000 -1.374
23.66000 4.714
23.68000 8.481
23.70000 5.999
23.72000 4.155
23.74000 7.471
23.76000 3.803
23.78000 10.655
23.80000 7.869
23.82000 8.446
23.84000 13.975
23.86000 9.949
23.88000 9.376
23.90000 6.583
23.92000 5.371
23.94000 7.822
23.96000 5.391
23.98000 0.949
24.00000 4.763
24.02000 3.156
24.04000 4.366
24.06000 2.332
24.08000 4.542
24.10000 1.616
24.12000 3.389
24.14000 1.850
24.16000 6.504
24.18000 3.916
24.20000 2.202
24.22000 4.693
24.24000 7.833
24.26000 8.160
24.28000 9.089
24.30000 6.017
24.32000 1.352
24.34000 5.686
24.36000 9.432
24.38000 1.762
24.40000 2.301
24.42000 1.759
24.44000 2.190
24.46000 3.214
24.48000 2.050
24.50000 9.030
24.52000 11.250
24.54000 6.143
24.56000 2.555
24.58000 0.482
24.60000 4.209
24.62000 0.980
24.64000 -1.139
24.66000 -0.667
24.68000 8.774
24.70000 5.428
24.72000 3.441
24.74000 7.543
24.76000 6.741
24.78000 2.547
24.80000 -0.500
24.82000 -1.767
24.84000 0.954
24.86000 5.095
24.88000 9.803
24.90000 10.143
24.92000 2.388
24.94000 -2.690
24.96000 -2.476
24.98000 1.381
25.00000 7.309
25.02000 7.318
25.04000 4.149
25.06000 0.436
25.08000 0.986
25.10000 3.127
25.12000 2.439
25.14000 4.796
25.16000 8.048
25.18000 10.035
25.20000 8.152
25.22000 5.050
25.24000 3.674
25.26000 0.775
25.28000 8.205
25.30000 7.809
25.32000 4.925
25.34000 4.438
25.36000 0.826
25.38000 5.800
25.40000 7.489
25.42000 5.730
25.44000 3.954
25.46000 3.747
25.48000 6.236
25.50000 3.109
25.52000 -1.926
25.54000 2.507
25.56000 6.417
25.58000 7.166
25.60000 2.755
25.62000 6.839
25.64000 6.938
25.66000 -1.170
25.68000 -3.920
25.70000 0.504
25.72000 10.552
25.74000 5.003
25.76000 5.280
25.78000 10.648
25.80000 11.611
25.82000 9.859
25.84000 5.474
25.86000 1.628
25.88000 2.582
25.90000 3.025
25.92000 0.650
25.94000 0.463
25.96000 -3.130
25.98000 -3.902
26.00000 2.490
26.02000 6.830
26.04000 8.666
26.06000 11.014
26.08000 5.500
26.10000 0.304
26.12000 -2.190
26.14000 5.050
26.16000 0.877
26.18000 2.616
26.20000 2.296
26.22000 -0.919
26.24000 4.201
26.26000 2.261
26.28000 0.867
26.30000 11.001
26.32000 9.184
26.34000 2.491
26.36000 -2.168
26.38000 1.612
26.40000 -0.439
26.42000 0.168
26.44000 2.620
26.46000 -0.781
26.48000 2.396
26.50000 3.638
26.52000 1.937
26.54000 3.617
26.56000 -1.449
26.58000 -0.714
26.60000 7.699
26.62000 4.011
26.64000 4.356
26.66000 0.840
26.68000 4.196
26.70000 3.748
26.72000 3.655
26.74000 0.465
26.76000 0.789
26.78000 -0.072
26.80000 2.477
26.82000 3.710
26.84000 2.239
26.86000 2.868
26.88000 4.638
26.90000 3.735
26.92000 1.878
26.94000 -1.094
26.96000 -0.733
26.98000 6.402
27.00000 10.090
27.02000 11.052
27.04000 6.341
27.06000 4.048
27.08000 5.135
27.10000 5.128
27.12000 1.286
27.14000 6.666
27.16000 7.590
27.18000 5.056
27.20000 7.615
27.22000 0.451
27.24000 2.797
27.26000 3.838
27.28000 2.431
27.30000 4.530
27.32000 6.568
27.34000 1.866
27.36000 -0.122
27.38000 -1.740
27.40000 1.451
27.42000 2.572
27.44000 2.248
27.46000 -3.085
27.48000 -1.184
27.50000 -1.874
27.52000 1.462
27.54000 3.029
27.56000 -0.560
27.58000 -3.853
27.60000 -1.079
27.62000 -2.174
27.64000 0.624
27.66000 5.214
27.68000 1.521
27.70000 3.951
27.72000 4.613
27.74000 4.898
27.76000 8.641
27.78000 11.250
27.80000 7.292
27.82000 4.970
27.84000 5.188
27.86000 4.982
27.88000 2.638
27.90000 2.355
27.92000 6.620
27.94000 4.657
27.96000 4.086
27.98000 6.846
28.00000 3.780
28.02000 1.891
28.04000 2.240
28.06000 0.348
28.08000 -0.167
28.10000 -1.119
28.12000 -0.509
28.14000 0.339
28.16000 0.075
28.18000 -0.042
28.20000 5.415
28.22000 4.733
28.24000 2.206
28.26000 2.349
28.28000 4.591
28.30000 2.809
28.32000 2.751
28.34000 -2.067
28.36000 -2.921
28.38000 1.240
28.40000 -0.837
28.42000 0.541
28.44000 7.902
28.46000 0.918
28.48000 0.235
28.50000 -0.144
28.52000 4.268
28.54000 2.525
28.56000 6.507
28.58000 7.765
28.60000 4.085
28.62000 3.886
28.64000 4.228
28.66000 9.218
28.68000 9.971
28.70000 9.261
28.72000 6.519
28.74000 1.830
28.76000 -0.076
28.78000 1.989
28.80000 7.012
28.82000 3.029
28.84000 7.418
28.86000 5.052
28.88000 1.336
28.90000 -0.608
28.92000 -3.272
28.94000 2.558
28.96000 2.090
28.98000 2.168
29.00000 5.578
29.02000 3.674
29.04000 4.728
29.06000 4.509
29.08000 5.535
29.10000 10.267
29.12000 9.613
29.14000 6.971
29.16000 6.535
29.18000 3.337
29.20000 0.564
29.22000 3.850
29.24000 6.233
29.26000 4.613
29.28000 2.159
29.30000 1.112
29.32000 6.448
29.34000 7.035
29.36000 5.558
29.38000 2.705
29.40000 1.924
29.42000 -0.280
29.44000 -1.310
29.46000 -3.723
29.48000 1.904
29.50000 8.868
29.52000 0.324
29.54000 3.248
29.56000 7.608
29.58000 5.058
29.60000 3.258
29.62000 -0.504
29.64000 1.638
29.66000 3.128
29.68000 4.877
29.70000 2.462
29.72000 6.246
29.74000 7.601
29.76000 9.332
29.78000 10.580
29.80000 8.497
29.82000 8.146
29.84000 8.462
29.86000 8.036
29.88000 3.029
29.90000 4.762
29.92000 3.689
29.94000 1.447
29.96000 3.347
29.98000 4.500
30.00000 1.059
30.02000 1.165
30.04000 1.616
30.06000 4.990
30.08000 4.114
30.10000 6.200
30.12000 5.748
30.14000 8.403
30.16000 7.800
30.18000 7.803
30.20000 5.381
30.22000 -1.898
30.24000 -0.823
30.26000 3.304
30.28000 6.894
30.30000 10.987
30.32000 8.792
30.34000 8.993
30.36000 2.932
30.38000 1.523
30.40000 7.082
30.42000 6.610
30.44000 5.267
30.46000 0.863
30.48000 6.557
30.50000 6.139
30.52000 0.568
30.54000 -0.339
30.56000 -0.520
30.58000 6.785
30.60000 7.626
30.62000 7.420
30.64000 5.139
30.66000 7.495
30.68000 4.778
30.70000 4.855
30.72000 5.757
30.74000 6.096
30.76000 5.827
30.78000 5.030
30.80000 7.702
30.82000 7.725
30.84000 5.530
30.86000 8.652
30.88000 6.605
30.90000 3.691
30.92000 0.441
30.94000 2.259
30.96000 0.157
30.98000 -3.651
31.00000 -1.424
31.02000 5.141
31.04000 7.833
31.06000 8.264
31.08000 8.244
31.10000 8.915
31.12000 6.582
31.14000 3.437
31.16000 4.657
31.18000 7.249
31.20000 8.722
31.22000 5.195
31.24000 5.304
31.26000 2.186
31.28000 2.073
31.30000 3.673
31.32000 1.726
31.34000 4.095
31.36000 5.474
31.38000 8.460
31.40000 4.773
31.42000 1.780
31.44000 -1.863
31.46000 2.100
31.48000 1.423
31.50000 0.210
31.52000 -1.497
31.54000 1.087
31.56000 -0.572
31.58000 4.543
31.60000 8.832
31.62000 7.328
31.64000 2.859
31.66000 0.051
31.68000 0.500
31.70000 -0.453
31.72000 2.345
31.74000 1.851
31.76000 2.770
31.78000 6.409
31.80000 -0.644
31.82000 -0.956
31.84000 2.317
31.86000 3.646
31.88000 2.085
31.90000 -1.209
31.92000 3.386
31.94000 5.343
31.96000 9.004
31.98000 5.962
32.00000 2.237
32.02000 -2.237
32.04000 -2.761
32.06000 0.679
32.08000 4.513
32.10000 3.404
32.12000 0.344
32.14000 -1.272
32.16000 0.476
32.18000 -1.426
32.20000 -0.221
32.22000 0.177
32.24000 -0.118
32.26000 -2.100
32.28000 -3.452
32.30000 3.694
32.32000 7.484
32.34000 1.302
32.36000 1.642
32.38000 2.307
32.40000 1.926
32.42000 0.213
32.44000 3.436
32.46000 8.113
32.48000 6.868
32.50000 2.935
32.52000 0.913
32.54000 3.063
32.56000 3.857
32.58000 2.837
32.60000 4.961
32.62000 1.891
32.64000 0.919
32.66000 2.268
32.68000 2.441
32.70000 3.139
32.72000 5.318
32.74000 9.049
32.76000 5.869
32.78000 8.208
32.80000 3.448
32.82000 3.282
32.84000 4.458
32.86000 1.532
32.88000 1.330
32.90000 5.538
32.92000 4.351
32.94000 3.261
32.96000 4.840
32.98000 4.784
33.00000 -0.677
33.02000 1.226
33.04000 0.484
33.06000 4.896
33.08000 3.583
33.10000 3.765
33.12000 5.012
33.14000 4.620
33.16000 3.816
33.18000 5.701
33.20000 8.720
33.22000 4.836
33.24000 1.927
33.26000 2.333
33.28000 6.189
33.30000 5.508
33.32000 8.574
33.34000 7.371
33.36000 -3.612
33.38000 -2.713
33.40000 -0.591
33.42000 1.197
33.44000 4.115
33.46000 7.221
33.48000 7.573
33.50000 3.181
33.52000 3.555
33.54000 5.435
33.56000 7.487
33.58000 7.902
33.60000 3.738
33.62000 8.555
33.64000 6.294
33.66000 4.433
33.68000 3.073
33.70000 2.233
33.72000 1.427
33.74000 4.806
33.76000 4.029
33.78000 6.960
33.80000 7.144
33.82000 4.886
33.84000 2.507
33.86000 6.245
33.88000 9.713
33.90000 10.457
33.92000 6.913
33.94000 10.913
33.96000 12.034
33.98000 5.552
34.00000 0.154
34.02000 -3.621
34.04000 3.728
34.06000 7.049
34.08000 4.169
34.10000 0.822
34.12000 0.870
34.14000 0.682
34.16000 4.009
34.18000 5.998
34.20000 4.964
34.22000 6.254
34.24000 5.769
34.26000 3.067
34.28000 1.708
34.30000 1.887
34.32000 3.211
34.34000 0.753
34.36000 -2.080
34.38000 3.313
34.40000 2.164
34.42000 0.552
34.44000 3.217
34.46000 5.127
34.48000 1.347
34.50000 2.269
34.52000 1.970
34.54000 -1.243
34.56000 2.001
34.58000 2.349
34.60000 3.989
34.62000 0.427
34.64000 0.632
34.66000 2.652
34.68000 0.652
34.70000 1.970
34.72000 1.062
34.74000 0.341
34.76000 1.199
34.78000 1.450
34.80000 -0.856
34.82000 -2.818
34.84000 -1.460
34.86000 -1.711
34.88000 -3.020
34.90000 1.836
34.92000 6.045
34.94000 2.684
34.96000 3.729
34.98000 1.293
35.00000 1.490
35.02000 -2.912
35.04000 -2.522
35.06000 0.947
35.08000 -3.627
35.10000 -2.657
35.12000 -3.277
35.14000 1.126
35.16000 -1.291
35.18000 0.734
35.20000 0.791
35.22000 1.208
35.24000 2.063
35.26000 3.064
35.28000 3.473
35.30000 2.709
35.32000 2.519
35.34000 -2.569
35.36000 4.275
35.38000 3.468
35.40000 3.487
35.42000 4.213
35.44000 5.083
35.46000 4.989
35.48000 0.157
35.50000 0.377
35.52000 3.273
35.54000 2.522
35.56000 -0.659
35.58000 1.659
35.60000 -0.129
35.62000 0.385
35.64000 -1.970
35.66000 -2.788
35.68000 -0.572
35.70000 -1.203
35.72000 -3.636
35.74000 -2.872
35.76000 -0.788
35.78000 -3.329
35.80000 -0.414
35.82000 -1.194
35.84000 3.601
35.86000 4.856
35.88000 0.070
35.90000 1.002
35.92000 0.316
35.94000 -0.629
35.96000 -1.697
35.98000 4.884
36.00000 6.399
36.02000 1.336
36.04000 -2.201
36.06000 -3.027
36.08000 0.718
36.10000 2.287
36.12000 1.406
36.14000 0.861
36.16000 1.361
36.18000 -1.580
36.20000 3.218
36.22000 8.257
36.24000 6.635
36.26000 2.612
36.28000 0.725
36.30000 4.689
36.32000 7.487
36.34000 1.582
36.36000 3.245
36.38000 3.797
36.40000 -0.325
36.42000 -1.769
36.44000 3.065
36.46000 9.849
36.48000 8.788
36.50000 4.104
36.52000 2.083
36.54000 3.322
36.56000 1.259
36.58000 1.693
36.60000 1.461
36.62000 0.261
36.64000 2.222
36.66000 3.146
36.68000 4.058
36.70000 0.792
36.72000 -3.670
36.74000 -0.521
36.76000 5.873
36.78000 6.331
36.80000 2.494
36.82000 5.108
36.84000 6.528
36.86000 2.497
36.88000 3.438
36.90000 0.690
36.92000 6.097
36.94000 4.669
36.96000 7.538
36.98000 4.167
37.00000 4.328
37.02000 10.274
37.04000 5.568
37.06000 5.569
37.08000 9.384
37.10000 5.947
37.12000 4.728
37.14000 8.942
37.16000 7.796
37.18000 7.950
37.20000 9.161
37.22000 7.850
37.24000 10.334
37.26000 10.113
37.28000 14.055
37.30000 8.646
37.32000 8.207
37.34000 11.526
37.36000 10.864
37.38000 9.819
37.40000 11.111
37.42000 9.983
37.44000 7.141
37.46000 14.054
37.48000 14.908
37.50000 10.699
37.52000 18.444
37.54000 20.765
37.56000 14.082
37.58000 15.745
37.60000 15.098
37.62000 9.942
37.64000 11.679
37.66000 12.429
37.68000 18.266
37.70000 27.592
37.72000 25.371
37.74000 28.014
37.76000 24.309
37.78000 22.665
37.80000 23.325
37.82000 23.999
37.84000 24.208
37.86000 20.581
37.88000 23.231
37.90000 26.499
37.92000 30.564
37.94000 28.743
37.96000 32.355
37.98000 31.985
38.00000 34.496
38.02000 33.147
38.04000 39.130
38.06000 36.070
38.08000 34.803
38.10000 38.700
38.12000 42.251
38.14000 40.639
38.16000 45.860
38.18000 41.652
38.20000 39.525
38.22000 47.175
38.24000 52.956
38.26000 51.059
38.28000 51.933
38.30000 52.260
38.32000 51.541
38.34000 62.876
38.36000 68.200
38.38000 67.972
38.40000 66.753
38.42000 65.733
38.44000 68.318
38.46000 70.769
38.48000 71.498
38.50000 77.803
38.52000 85.856
38.54000 93.030
38.56000 93.655
38.58000 96.089
38.60000 103.303
38.62000 111.013
38.64000 117.146
38.66000 122.265
38.68000 125.545
38.70000 140.074
38.72000 144.059
38.74000 152.980
38.76000 160.062
38.78000 171.179
38.80000 178.389
38.82000 180.660
38.84000 195.697
38.86000 210.369
38.88000 228.428
38.90000 238.163
38.92000 254.709
38.94000 266.038
38.96000 282.797
38.98000 302.827
39.00000 312.348
39.02000 324.979
39.04000 346.192
39.06000 367.173
39.08000 378.595
39.10000 387.129
39.12000 405.422
39.14000 421.656
39.16000 431.585
39.18000 436.233
39.20000 451.372
39.22000 460.500
39.24000 463.074
39.26000 461.756
39.28000 451.789
39.30000 464.529
39.32000 459.064
39.34000 462.736
39.36000 453.964
39.38000 450.793
39.40000 437.964
39.42000 423.477
39.44000 412.013
39.46000 391.457
39.48000 378.447
39.50000 370.957
39.52000 362.742
39.54000 340.419
39.56000 314.699
39.58000 304.096
39.60000 293.663
39.62000 277.069
39.64000 261.249
39.66000 241.884
39.68000 233.020
39.70000 220.199
39.72000 208.264
39.74000 191.618
39.76000 180.948
39.78000 173.351
39.80000 159.172
39.82000 153.675
39.84000 139.035
39.86000 128.143
39.88000 122.405
39.90000 114.069
39.92000 106.601
39.94000 106.410
39.96000 101.084
39.98000 88.622
40.00000 80.801
40.02000 75.091
40.04000 69.487
40.06000 64.353
40.08000 62.693
40.10000 62.663
40.12000 61.891
40.14000 57.424
40.16000 56.379
40.18000 52.730
40.20000 48.094
40.22000 44.463
40.24000 46.037
40.26000 43.999
40.28000 40.385
40.30000 38.387
40.32000 37.352
40.34000 35.441
40.36000 30.484
40.38000 32.760
40.40000 30.907
40.42000 29.914
40.44000 30.187
40.46000 20.487
40.48000 18.720
40.50000 22.436
40.52000 21.798
40.54000 22.108
40.56000 22.232
40.58000 20.770
40.60000 15.805
40.62000 15.023
40.64000 18.735
40.66000 17.387
40.68000 15.286
40.70000 16.048
40.72000 13.241
40.74000 15.085
40.76000 10.433
40.78000 10.174
40.80000 11.531
40.82000 13.925
40.84000 14.139
40.86000 11.499
40.88000 7.996
40.90000 7.037
40.92000 8.013
40.94000 6.658
40.96000 7.193
40.98000 10.479
41.00000 7.653
41.02000 1.809
41.04000 2.656
41.06000 9.443
41.08000 9.576
41.10000 5.057
41.12000 2.421
41.14000 0.827
41.16000 2.950
41.18000 0.010
41.20000 3.991
41.22000 4.201
41.24000 0.463
41.26000 0.195
41.28000 5.881
41.30000 7.643
41.32000 7.018
41.34000 6.738
41.36000 3.349
41.38000 1.670
41.40000 -1.066
41.42000 -1.461
41.44000 0.930
41.46000 1.470
41.48000 0.944
41.50000 -0.363
41.52000 -1.526
41.54000 1.305
41.56000 4.742
41.58000 3.530
41.60000 3.053
41.62000 5.216
41.64000 3.675
41.66000 7.514
41.68000 1.130
41.70000 0.653
41.72000 2.163
41.74000 0.153
41.76000 0.016
41.78000 2.382
41.80000 1.444
41.82000 -1.311
41.84000 -1.220
41.86000 -0.168
41.88000 2.300
41.90000 1.227
41.92000 -0.695
41.94000 1.925
41.96000 -0.919
41.98000 -0.940
42.00000 1.856
42.02000 2.286
42.04000 -3.351
42.06000 -2.736
42.08000 -1.241
42.10000 -2.272
42.12000 -1.067
42.14000 1.170
42.16000 0.608
42.18000 1.368
42.20000 -0.688
42.22000 0.795
42.24000 2.183
42.26000 -0.107
42.28000 -1.194
42.30000 -2.075
42.32000 -3.319
42.34000 1.354
42.36000 3.408
42.38000 0.783
42.40000 1.230
42.42000 1.793
42.44000 3.412
42.46000 -0.715
42.48000 -3.299
42.50000 0.804
42.52000 0.374
42.54000 1.072
42.56000 0.820
42.58000 3.413
42.60000 4.615
42.62000 2.728
42.64000 -2.199
42.66000 -0.187
42.68000 -1.042
42.70000 -0.283
42.72000 0.937
42.74000 -0.538
42.76000 0.421
42.78000 0.424
42.80000 -1.797
42.82000 -0.398
42.84000 1.753
42.86000 -0.578
42.88000 -1.720
42.90000 1.136
42.92000 -0.360
42.94000 0.009
42.96000 3.133
42.98000 5.156
43.00000 0.689
43.02000 -3.230
43.04000 -0.713
43.06000 2.252
43.08000 -0.539
43.10000 2.664
43.12000 2.137
43.14000 0.762
43.16000 2.531
43.18000 4.184
43.20000 2.053
43.22000 0.237
43.24000 0.814
43.26000 1.214
43.28000 2.276
43.30000 -3.191
43.32000 -1.265
43.34000 -0.746
43.36000 0.186
43.38000 -0.815
43.40000 -3.180
43.42000 0.377
43.44000 3.141
43.46000 3.892
43.48000 2.233
43.50000 3.526
43.52000 3.102
43.54000 -0.967
43.56000 2.440
43.58000 7.657
43.60000 4.403
43.62000 -0.072
43.64000 1.082
43.66000 3.632
43.68000 2.890
43.70000 -3.154
43.72000 -1.757
43.74000 1.896
43.76000 2.223
43.78000 4.027
43.80000 4.400
43.82000 4.672
43.84000 5.509
43.86000 3.130
43.88000 2.239
43.90000 1.492
43.92000 2.097
43.94000 1.248
43.96000 2.384
43.98000 3.280
44.00000 4.229
44.02000 3.681
44.04000 4.351
44.06000 3.038
44.08000 -0.236
44.10000 -0.688
44.12000 2.415
44.14000 5.360
44.16000 1.636
44.18000 -1.440
44.20000 0.389
44.22000 2.587
44.24000 1.495
44.26000 -1.772
44.28000 -1.498
44.30000 1.202
44.32000 3.545
44.34000 4.776
44.36000 2.447
44.38000 3.530
44.40000 6.370
44.42000 5.893
44.44000 3.405
44.46000 2.809
44.48000 4.855
44.50000 5.640
44.52000 1.966
44.54000 2.070
44.56000 3.351
44.58000 4.255
44.60000 6.784
44.62000 9.796
44.64000 10.233
44.66000 6.739
44.68000 5.960
44.70000 6.316
44.72000 5.671
44.74000 7.995
44.76000 9.600
44.78000 7.672
44.80000 5.386
44.82000 8.112
44.84000 11.117
44.86000 13.576
44.88000 13.815
44.90000 11.847
44.92000 11.364
44.94000 9.932
44.96000 11.039
44.98000 18.797
45.00000 23.554
45.02000 20.412
45.04000 16.225
45.06000 20.438
45.08000 19.229
45.10000 16.250
45.12000 20.721
45.14000 24.297
45.16000 26.050
45.18000 23.984
45.20000 23.990
45.22000 26.846
45.24000 28.321
45.26000 31.269
45.28000 33.233
45.30000 29.758
45.32000 33.898
45.34000 34.605
45.36000 36.303
45.38000 40.549
45.40000 40.347
45.42000 39.941
45.44000 45.542
45.46000 46.900
45.48000 45.485
45.50000 44.200
45.52000 44.459
45.54000 49.654
45.56000 52.818
45.58000 53.775
45.60000 57.412
45.62000 59.291
45.64000 58.935
45.66000 55.757
45.68000 58.908
45.70000 64.206
45.72000 67.011
45.74000 64.211
45.76000 64.371
45.78000 65.989
45.80000 70.177
45.82000 73.730
45.84000 73.118
45.86000 68.914
45.88000 68.185
45.90000 72.724
45.92000 70.537
45.94000 71.499
45.96000 70.726
45.98000 64.495
46.00000 61.982
46.02000 66.452
46.04000 69.142
46.06000 65.380
46.08000 64.818
46.10000 64.439
46.12000 63.415
46.14000 64.396
46.16000 62.053
46.18000 57.003
46.20000 53.944
46.22000 51.514
46.24000 53.888
46.26000 50.170
46.28000 51.541
46.30000 50.487
46.32000 45.578
46.34000 39.066
46.36000 41.507
46.38000 40.864
46.40000 39.478
46.42000 36.569
46.44000 36.039
46.46000 34.143
46.48000 31.410
46.50000 29.175
46.52000 28.088
46.54000 27.357
46.56000 23.106
46.58000 21.918
46.60000 19.898
46.62000 22.104
46.64000 18.890
46.66000 20.689
46.68000 18.686
46.70000 15.859
46.72000 16.549
46.74000 15.404
46.76000 10.795
46.78000 9.085
46.80000 10.786
46.82000 11.060
46.84000 11.294
46.86000 9.643
46.88000 5.170
46.90000 0.624
46.92000 2.339
46.94000 5.916
46.96000 6.612
46.98000 4.405
47.00000 4.260
47.02000 3.590
47.04000 1.269
47.06000 2.739
47.08000 -0.370
47.10000 3.276
47.12000 6.329
47.14000 5.083
47.16000 4.143
47.18000 2.798
47.20000 1.031
47.22000 2.207
47.24000 0.130
47.26000 3.143
47.28000 2.637
47.30000 0.679
47.32000 2.154
47.34000 4.445
47.36000 3.117
47.38000 -0.738
47.40000 -0.981
47.42000 3.963
47.44000 1.271
47.46000 3.103
47.48000 1.736
47.50000 -1.171
47.52000 -2.764
47.54000 1.492
47.56000 -1.417
47.58000 -2.036
47.60000 -1.034
47.62000 -1.087
47.64000 -1.116
47.66000 -0.682
47.68000 -0.860
47.70000 1.393
47.72000 3.361
47.74000 0.938
47.76000 0.769
47.78000 -1.756
47.80000 1.401
47.82000 2.613
47.84000 3.793
47.86000 1.582
47.88000 -1.228
47.90000 0.523
47.92000 2.576
47.94000 1.449
47.96000 0.037
47.98000 1.306
48.00000 0.181
48.02000 -1.616
48.04000 -1.639
48.06000 -1.252
48.08000 -0.096
48.10000 0.859
48.12000 -2.691
48.14000 -2.154
48.16000 0.395
48.18000 2.367
48.20000 2.616
48.22000 -0.922
48.24000 -0.060
48.26000 2.598
48.28000 0.353
48.30000 4.476
48.32000 2.206
48.34000 1.654
48.36000 0.464
48.38000 1.297
48.40000 2.416
48.42000 1.668
48.44000 2.481
48.46000 4.930
48.48000 -0.660
48.50000 1.900
48.52000 2.678
48.54000 0.282
48.56000 -2.623
48.58000 -1.459
48.60000 4.624
48.62000 5.639
48.64000 0.912
48.66000 1.785
48.68000 1.699
48.70000 -0.514
48.72000 1.809
48.74000 3.522
48.76000 2.385
48.78000 1.461
48.80000 -0.353
48.82000 0.136
48.84000 1.335
48.86000 0.407
48.88000 1.469
48.90000 3.267
48.92000 6.234
48.94000 4.968
48.96000 2.704
48.98000 4.214
49.00000 4.961
49.02000 6.205
49.04000 2.721
49.06000 -2.268
49.08000 0.592
49.10000 8.278
49.12000 3.228
49.14000 4.430
49.16000 -0.216
49.18000 -0.712
49.20000 -0.438
49.22000 0.419
49.24000 0.018
49.26000 1.631
49.28000 0.399
49.30000 -0.447
49.32000 -2.588
49.34000 0.016
49.36000 2.242
49.38000 0.913
49.40000 4.190
49.42000 2.163
49.44000 2.298
49.46000 5.608
49.48000 0.756
49.50000 2.707
49.52000 1.102
49.54000 0.474
49.56000 1.030
49.58000 1.580
49.60000 -0.943
49.62000 0.106
49.64000 1.087
49.66000 2.377
49.68000 4.998
49.70000 3.477
49.72000 1.317
49.74000 -1.260
49.76000 -0.090
49.78000 1.059
49.80000 2.247
49.82000 -0.059
49.84000 -1.297
49.86000 -2.292
49.88000 1.300
49.90000 1.664
49.92000 2.201
49.94000 2.620
49.96000 2.871
49.98000 3.147
50.00000 5.037
50.02000 0.401
50.04000 -2.160
50.06000 2.416
50.08000 0.310
50.10000 2.736
50.12000 2.324
50.14000 4.538
50.16000 4.630
50.18000 1.640
50.20000 2.326
50.22000 2.768
50.24000 0.495
50.26000 0.521
50.28000 -0.531
50.30000 -2.483
50.32000 -1.291
50.34000 -0.139
50.36000 3.630
50.38000 3.128
50.40000 0.374
50.42000 1.242
50.44000 -0.656
50.46000 -1.517
50.48000 0.400
50.50000 -0.372
50.52000 1.587
50.54000 -2.492
50.56000 2.347
50.58000 -1.727
50.60000 -1.718
50.62000 0.598
50.64000 2.959
50.66000 2.533
50.68000 0.956
50.70000 -0.217
50.72000 3.005
50.74000 4.653
50.76000 2.852
50.78000 1.206
50.80000 -1.459
50.82000 0.808
50.84000 -0.387
50.86000 1.233
50.88000 2.982
50.90000 2.146
50.92000 2.177
50.94000 1.195
50.96000 1.911
50.98000 3.183
51.00000 1.825
51.02000 3.897
51.04000 3.347
51.06000 -2.249
51.08000 -2.485
51.10000 3.059
51.12000 3.078
51.14000 2.042
51.16000 1.364
51.18000 1.527
51.20000 4.256
51.22000 7.770
51.24000 5.520
51.26000 -0.493
51.28000 0.568
51.30000 3.774
51.32000 1.292
51.34000 -0.865
51.36000 0.222
51.38000 2.991
51.40000 8.239
51.42000 7.905
51.44000 4.841
51.46000 2.264
51.48000 -2.069
51.50000 -0.934
51.52000 0.934
51.54000 2.098
51.56000 5.637
51.58000 4.307
51.60000 1.500
51.62000 -0.820
51.64000 -0.903
51.66000 0.335
51.68000 2.294
51.70000 0.845
51.72000 -0.480
51.74000 3.644
51.76000 4.240
51.78000 3.589
51.80000 0.388
51.82000 0.516
51.84000 -0.040
51.86000 4.042
51.88000 1.052
51.90000 -0.083
51.92000 4.199
51.94000 2.924
51.96000 -0.881
51.98000 1.486
52.00000 1.224
52.02000 1.268
52.04000 0.515
52.06000 -1.872
52.08000 2.586
52.10000 2.924
52.12000 4.465
52.14000 2.959
52.16000 1.157
52.18000 -0.773
52.20000 0.118
52.22000 0.378
52.24000 0.746
52.26000 1.646
52.28000 3.630
52.30000 3.539
52.32000 -1.059
52.34000 2.846
52.36000 0.985
52.38000 0.086
52.40000 -2.490
52.42000 0.232
52.44000 1.778
52.46000 -2.129
52.48000 2.577
52.50000 0.684
52.52000 -0.081
52.54000 5.070
52.56000 7.656
52.58000 3.220
52.60000 -0.203
52.62000 0.606
52.64000 3.043
52.66000 0.101
52.68000 1.073
52.70000 1.379
52.72000 1.141
52.74000 1.137
52.76000 -0.594
52.78000 0.028
52.80000 1.840
52.82000 5.112
52.84000 2.141
52.86000 -0.460
52.88000 1.295
52.90000 3.577
52.92000 3.298
52.94000 4.872
52.96000 1.313
52.98000 0.337
53.00000 -1.485
53.02000 0.324
53.04000 1.341
53.06000 0.818
53.08000 0.077
53.10000 0.383
53.12000 1.066
53.14000 3.852
53.16000 5.107
53.18000 2.608
53.20000 0.873
53.22000 -0.696
53.24000 4.425
53.26000 6.398
53.28000 -0.037
53.30000 -2.455
53.32000 0.373
53.34000 6.499
53.36000 6.557
53.38000 0.390
53.40000 4.687
53.42000 4.574
53.44000 3.769
53.46000 4.045
53.48000 3.689
53.50000 5.290
53.52000 -1.830
53.54000 1.893
53.56000 2.683
53.58000 0.270
53.60000 1.954
53.62000 5.292
53.64000 3.653
53.66000 2.821
53.68000 3.679
53.70000 2.555
53.72000 0.790
53.74000 3.057
53.76000 0.658
53.78000 2.849
53.80000 3.831
53.82000 3.075
53.84000 0.313
53.86000 3.547
53.88000 5.210
53.90000 2.859
53.92000 2.032
53.94000 1.660
53.96000 2.787
53.98000 0.760
54.00000 -1.203
54.02000 4.871
54.04000 3.442
54.06000 -1.081
54.08000 4.260
54.10000 3.789
54.12000 -0.229
54.14000 -0.003
54.16000 0.730
54.18000 1.261
54.20000 1.703
54.22000 -0.954
54.24000 -2.416
54.26000 1.009
54.28000 2.522
54.30000 2.685
54.32000 3.060
54.34000 5.757
54.36000 5.555
54.38000 0.806
54.40000 -0.605
54.42000 2.284
54.44000 4.781
54.46000 1.224
54.48000 1.313
54.50000 2.126
54.52000 0.714
54.54000 -0.496
54.56000 -0.739
54.58000 0.877
54.60000 1.459
54.62000 1.089
54.64000 5.712
54.66000 3.547
54.68000 -0.328
54.70000 -0.911
54.72000 -0.112
54.74000 2.744
54.76000 4.562
54.78000 3.773
54.80000 3.845
54.82000 2.169
54.84000 2.632
54.86000 3.023
54.88000 2.358
54.90000 0.995
54.92000 -0.530
54.94000 3.855
54.96000 3.985
54.98000 -0.944
55.00000 1.575
55.02000 1.618
55.04000 2.028
55.06000 4.655
55.08000 4.309
55.10000 2.666
55.12000 1.361
55.14000 -2.399
55.16000 -2.316
55.18000 2.267
55.20000 1.725
55.22000 1.280
55.24000 3.985
55.26000 3.761
55.28000 2.364
55.30000 -0.256
55.32000 1.837
55.34000 1.936
55.36000 -1.421
55.38000 1.236
55.40000 3.328
55.42000 2.153
55.44000 4.763
55.46000 4.854
55.48000 1.749
55.50000 2.399
55.52000 2.415
55.54000 2.463
55.56000 1.141
55.58000 2.010
55.60000 6.353
55.62000 3.719
55.64000 4.350
55.66000 0.483
55.68000 0.749
55.70000 5.875
55.72000 5.967
55.74000 6.174
55.76000 5.742
55.78000 5.987
55.80000 1.184
55.82000 0.570
55.84000 5.018
55.86000 5.891
55.88000 -0.687
55.90000 -2.392
55.92000 0.425
55.94000 4.515
55.96000 4.251
55.98000 -0.917
56.00000 1.430
56.02000 3.524
56.04000 1.253
56.06000 3.764
56.08000 2.634
56.10000 1.678
56.12000 2.572
56.14000 0.939
56.16000 0.125
56.18000 0.403
56.20000 -1.628
56.22000 0.008
56.24000 0.911
56.26000 1.883
56.28000 1.891
56.30000 3.005
56.32000 1.931
56.34000 -0.548
56.36000 0.699
56.38000 4.916
56.40000 2.239
56.42000 2.349
56.44000 6.308
56.46000 5.026
56.48000 0.999
56.50000 2.584
56.52000 3.489
56.54000 2.206
56.56000 -1.008
56.58000 1.324
56.60000 4.986
56.62000 1.460
56.64000 2.391
56.66000 4.073
56.68000 3.155
56.70000 -2.001
56.72000 2.108
56.74000 3.611
56.76000 6.201
56.78000 4.547
56.80000 4.989
56.82000 7.627
56.84000 5.570
56.86000 6.096
56.88000 6.085
56.90000 5.594
56.92000 3.992
56.94000 1.940
56.96000 3.273
56.98000 2.158
57.00000 -1.906
57.02000 -2.325
57.04000 3.808
57.06000 4.539
57.08000 2.959
57.10000 1.582
57.12000 3.403
57.14000 4.318
57.16000 1.583
57.18000 1.515
57.20000 6.302
57.22000 4.968
57.24000 4.710
57.26000 5.540
57.28000 7.066
57.30000 5.591
57.32000 5.460
57.34000 5.806
57.36000 5.435
57.38000 5.582
57.40000 9.106
57.42000 4.491
57.44000 4.735
57.46000 4.876
57.48000 3.004
57.50000 0.118
57.52000 2.542
57.54000 2.729
57.56000 1.253
57.58000 3.088
57.60000 3.542
57.62000 2.561
57.64000 3.940
57.66000 2.671
57.68000 1.048
57.70000 5.465
57.72000 4.244
57.74000 1.514
57.76000 0.857
57.78000 -0.549
57.80000 1.608
57.82000 2.879
57.84000 2.555
57.86000 0.095
57.88000 0.907
57.90000 1.085
57.92000 1.480
57.94000 2.200
57.96000 1.702
57.98000 4.198
58.00000 0.542
58.02000 0.827
58.04000 2.097
58.06000 1.756
58.08000 1.472
58.10000 1.440
58.12000 2.412
58.14000 3.262
58.16000 2.534
58.18000 1.003
58.20000 -0.424
58.22000 2.241
58.24000 3.604
58.26000 2.817
58.28000 1.410
58.30000 -0.211
58.32000 -1.063
58.34000 0.952
58.36000 3.946
58.38000 0.074
58.40000 -2.329
58.42000 -1.553
58.44000 -1.330
58.46000 -2.327
58.48000 3.620
58.50000 3.809
58.52000 0.486
58.54000 2.508
58.56000 5.812
58.58000 4.857
58.60000 1.487
58.62000 1.418
58.64000 -0.047
58.66000 2.926
58.68000 6.115
58.70000 3.723
58.72000 2.797
58.74000 1.060
58.76000 3.230
58.78000 2.161
58.80000 1.011
58.82000 -0.052
58.84000 0.425
58.86000 -0.135
58.88000 -1.825
58.90000 -0.777
58.92000 -0.125
58.94000 1.907
58.96000 3.863
58.98000 1.504
59.00000 0.977
59.02000 1.056
59.04000 1.532
59.06000 -0.132
59.08000 -1.297
59.10000 -2.322
59.12000 -0.049
59.14000 0.965
59.16000 1.835
59.18000 0.902
59.20000 -0.636
59.22000 -1.809
59.24000 0.462
59.26000 1.466
59.28000 1.113
59.30000 3.027
59.32000 0.655
59.34000 2.283
59.36000 1.713
59.38000 -0.132
59.40000 2.068
59.42000 1.680
59.44000 1.281
59.46000 -0.194
59.48000 -0.747
59.50000 2.611
59.52000 3.589
59.54000 1.551
59.56000 0.098
59.58000 2.212
59.60000 0.421
59.62000 1.354
59.64000 -0.271
59.66000 -0.886
59.68000 -2.019
59.70000 1.267
59.72000 2.009
59.74000 -1.682
59.76000 -1.529
59.78000 2.459
59.80000 1.617
59.82000 0.452
59.84000 2.437
59.86000 2.008
59.88000 -1.000
59.90000 -0.021
59.92000 0.151
59.94000 -0.604
59.96000 -1.405
59.98000 -0.249
60.00000 0.356
60.02000 0.558
60.04000 2.061
60.06000 0.943
60.08000 0.433
60.10000 -0.798
60.12000 -1.295
60.14000 1.352
60.16000 2.602
60.18000 1.249
60.20000 5.111
60.22000 1.444
60.24000 1.711
60.26000 2.609
60.28000 3.901
60.30000 3.963
60.32000 0.110
60.34000 -1.735
60.36000 3.018
60.38000 4.187
60.40000 0.473
60.42000 -1.508
60.44000 -0.362
60.46000 1.339
60.48000 -0.698
60.50000 -1.259
60.52000 0.190
60.54000 -1.778
60.56000 -2.263
60.58000 0.228
60.60000 1.451
60.62000 2.168
60.64000 0.239
60.66000 0.676
60.68000 3.794
60.70000 2.969
60.72000 3.687
60.74000 2.475
60.76000 0.774
60.78000 1.991
60.80000 -0.679
60.82000 3.595
60.84000 1.441
60.86000 -1.931
60.88000 1.657
60.90000 4.343
60.92000 -1.335
60.94000 0.418
60.96000 -1.096
60.98000 -0.090
61.00000 1.595
61.02000 1.985
61.04000 -1.906
61.06000 -0.742
61.08000 1.353
61.10000 2.077
61.12000 0.358
61.14000 0.798
61.16000 2.378
61.18000 3.197
61.20000 3.239
61.22000 1.783
61.24000 1.305
61.26000 2.417
61.28000 0.042
61.30000 -2.250
61.32000 -0.618
61.34000 2.469
61.36000 1.594
61.38000 1.772
61.40000 2.917
61.42000 3.163
61.44000 1.021
61.46000 1.521
61.48000 3.064
61.50000 2.071
61.52000 1.094
61.54000 1.540
61.56000 0.769
61.58000 1.010
61.60000 1.047
61.62000 0.460
61.64000 0.356
61.66000 -1.021
61.68000 -0.598
61.70000 1.152
61.72000 2.727
61.74000 0.645
61.76000 0.478
61.78000 -2.076
61.80000 0.444
61.82000 5.994
61.84000 7.185
61.86000 2.225
61.88000 0.459
61.90000 -2.195
61.92000 -2.222
61.94000 -0.564
61.96000 0.172
61.98000 1.675
62.00000 5.350
62.02000 1.762
62.04000 0.965
62.06000 3.221
62.08000 2.657
62.10000 2.697
62.12000 0.864
62.14000 -0.600
62.16000 2.051
62.18000 -1.454
62.20000 0.061
62.22000 2.579
62.24000 2.492
62.26000 -1.578
62.28000 -1.352
62.30000 2.943
62.32000 3.248
62.34000 -0.406
62.36000 2.601
62.38000 6.644
62.40000 3.774
62.42000 1.473
62.44000 -0.261
62.46000 -0.161
62.48000 1.654
62.50000 3.310
62.52000 5.169
62.54000 2.988
62.56000 0.925
62.58000 0.751
62.60000 1.396
62.62000 0.031
62.64000 -1.734
62.66000 -0.914
62.68000 5.272
62.70000 3.779
62.72000 4.988
62.74000 9.477
62.76000 6.533
62.78000 4.625
62.80000 4.153
62.82000 2.078
62.84000 -1.233
62.86000 -0.557
62.88000 4.014
62.90000 4.723
62.92000 4.846
62.94000 2.458
62.96000 0.116
62.98000 3.017
63.00000 3.960
63.02000 3.927
63.04000 5.991
63.06000 5.506
63.08000 3.464
63.10000 -1.657
63.12000 -2.161
63.14000 2.194
63.16000 4.143
63.18000 1.593
63.20000 1.894
63.22000 4.256
63.24000 4.291
63.26000 3.080
63.28000 3.580
63.30000 3.955
63.32000 6.669
63.34000 4.842
63.36000 2.926
63.38000 4.736
63.40000 2.256
63.42000 2.393
63.44000 2.539
63.46000 0.792
63.48000 2.751
63.50000 2.190
63.52000 -0.600
63.54000 0.887
63.56000 4.349
63.58000 1.573
63.60000 2.266
63.62000 1.599
63.64000 1.436
63.66000 -0.454
63.68000 0.053
63.70000 -0.437
63.72000 -0.208
63.74000 2.611
63.76000 -0.534
63.78000 0.169
63.80000 -0.138
63.82000 -0.316
63.84000 -0.153
63.86000 0.848
63.88000 3.366
63.90000 3.885
63.92000 0.920
63.94000 1.416
63.96000 -2.184
63.98000 2.447
64.00000 4.521
64.02000 2.233
64.04000 1.859
64.06000 -0.140
64.08000 -0.504
64.10000 2.137
64.12000 0.522
64.14000 0.745
64.16000 -1.241
64.18000 0.424
64.20000 0.836
64.22000 0.771
64.24000 2.510
64.26000 2.185
64.28000 0.347
64.30000 2.859
64.32000 3.837
64.34000 4.660
64.36000 0.476
64.38000 -2.137
64.40000 -0.164
64.42000 0.230
64.44000 -0.861
64.46000 -0.589
64.48000 -0.782
64.50000 -0.435
64.52000 2.436
64.54000 0.767
64.56000 -2.210
64.58000 0.744
64.60000 3.031
64.62000 2.621
64.64000 -0.426
64.66000 -0.749
64.68000 -0.616
64.70000 -0.554
64.72000 2.132
64.74000 1.828
64.76000 -0.714
64.78000 1.548
64.80000 0.552
64.82000 -0.129
64.84000 -1.335
64.86000 1.037
64.88000 -1.320
64.90000 -0.040
64.92000 -0.746
64.94000 1.059
64.96000 0.564
64.98000 0.944
65.00000 1.890
65.02000 1.920
65.04000 3.670
65.06000 0.774
65.08000 0.280
65.10000 0.765
65.12000 -1.584
65.14000 -2.212
65.16000 1.135
65.18000 0.069
65.20000 1.159
65.22000 -0.258
65.24000 -2.213
65.26000 0.671
65.28000 -0.717
65.30000 0.043
65.32000 0.552
65.34000 -0.509
65.36000 1.064
65.38000 2.114
65.40000 0.277
65.42000 1.713
65.44000 1.654
65.46000 -1.640
65.48000 -1.041
65.50000 -1.248
65.52000 1.247
65.54000 1.350
65.56000 1.639
65.58000 -2.220
65.60000 -2.085
65.62000 0.027
65.64000 3.174
65.66000 0.331
65.68000 1.878
65.70000 1.351
65.72000 2.630
65.74000 0.549
65.76000 -1.479
65.78000 0.897
65.80000 2.318
65.82000 -2.140
65.84000 0.174
65.86000 -1.950
65.88000 -0.493
65.90000 1.880
65.92000 0.123
65.94000 0.651
65.96000 0.889
65.98000 -0.478
66.00000 -0.944
66.02000 2.805
66.04000 1.312
66.06000 3.600
66.08000 2.157
66.10000 1.198
66.12000 1.186
66.14000 0.916
66.16000 0.458
66.18000 0.203
66.20000 0.055
66.22000 3.025
66.24000 6.586
66.26000 2.492
66.28000 0.355
66.30000 2.076
66.32000 3.715
66.34000 2.645
66.36000 1.765
66.38000 2.750
66.40000 3.625
66.42000 5.049
66.44000 3.847
66.46000 6.288
66.48000 2.953
66.50000 2.055
66.52000 4.641
66.54000 5.414
66.56000 7.445
66.58000 7.191
66.60000 7.508
66.62000 6.779
66.64000 6.657
66.66000 4.966
66.68000 4.574
66.70000 8.445
66.72000 8.857
66.74000 7.574
66.76000 7.001
66.78000 6.267
66.80000 6.606
66.82000 6.061
66.84000 7.808
66.86000 7.419
66.88000 5.219
66.90000 7.279
66.92000 8.304
66.94000 7.486
66.96000 5.915
66.98000 8.152
67.00000 6.486
67.02000 4.880
67.04000 5.844
67.06000 6.148
67.08000 7.406
67.10000 3.823
67.12000 1.703
67.14000 4.197
67.16000 6.109
67.18000 3.147
67.20000 1.750
67.22000 4.176
67.24000 5.798
67.26000 4.638
67.28000 3.699
67.30000 1.891
67.32000 1.279
67.34000 3.150
67.36000 3.980
67.38000 2.944
67.40000 2.108
67.42000 3.591
67.44000 1.186
67.46000 0.361
67.48000 1.630
67.50000 1.737
67.52000 1.653
67.54000 0.555
67.56000 3.407
67.58000 2.177
67.60000 2.497
67.62000 1.460
67.64000 -1.329
67.66000 0.444
67.68000 0.537
67.70000 -0.528
67.72000 -0.171
67.74000 -0.120
67.76000 -1.105
67.78000 -0.436
67.80000 -0.206
67.82000 -0.119
67.84000 0.707
67.86000 -1.460
67.88000 -2.149
67.90000 -1.659
67.92000 -0.939
67.94000 1.307
67.96000 1.420
67.98000 1.591
68.00000 0.329
68.02000 -0.431
68.04000 -0.879
68.06000 -0.246
68.08000 0.320
68.10000 1.582
68.12000 1.993
68.14000 0.627
68.16000 0.076
68.18000 -1.572
68.20000 -1.241
68.22000 -0.768
68.24000 2.056
68.26000 -1.682
68.28000 -1.541
68.30000 -1.419
68.32000 -1.178
68.34000 1.020
68.36000 -0.159
68.38000 -1.006
68.40000 -0.078
68.42000 1.844
68.44000 0.671
68.46000 0.379
68.48000 3.322
68.50000 1.760
68.52000 -1.160
68.54000 -2.103
68.56000 -0.760
68.58000 -0.681
68.60000 0.257
68.62000 1.314
68.64000 0.995
68.66000 -0.761
68.68000 -1.047
68.70000 0.215
68.72000 1.802
68.74000 -0.718
68.76000 -0.964
68.78000 -0.782
68.80000 0.703
68.82000 2.620
68.84000 2.327
68.86000 -0.961
68.88000 -1.362
68.90000 -0.071
68.92000 4.646
68.94000 2.685
68.96000 -0.676
68.98000 0.065
69.00000 1.805
69.02000 2.922
69.04000 2.601
69.06000 -0.048
69.08000 2.920
69.10000 1.289
69.12000 -1.605
69.14000 -0.390
69.16000 1.857
69.18000 0.727
69.20000 -2.039
69.22000 0.216
69.24000 0.914
69.26000 0.778
69.28000 1.666
69.30000 0.299
69.32000 -0.117
69.34000 0.687
69.36000 0.900
69.38000 2.544
69.40000 -1.186
69.42000 -1.093
69.44000 1.876
69.46000 3.251
69.48000 2.500
69.50000 1.116
69.52000 -2.030
69.54000 1.336
69.56000 2.876
69.58000 1.586
69.60000 1.634
69.62000 1.293
69.64000 2.068
69.66000 1.814
69.68000 2.182
69.70000 0.932
69.72000 1.155
69.74000 2.714
69.76000 3.297
69.78000 -0.052
69.80000 1.755
69.82000 3.582
69.84000 1.278
69.86000 3.038
69.88000 2.895
69.90000 1.688
69.92000 0.325
69.94000 0.472
69.96000 1.871
69.98000 1.343
70.00000 1.478
70.02000 2.608
70.04000 2.899
70.06000 2.800
70.08000 0.640
70.10000 1.003
70.12000 -0.008
70.14000 1.474
70.16000 1.369
70.18000 3.018
70.20000 1.922
70.22000 1.794
70.24000 3.066
70.26000 1.322
70.28000 1.659
70.30000 0.567
70.32000 -0.059
70.34000 0.527
70.36000 2.589
70.38000 4.466
70.40000 3.959
70.42000 0.070
70.44000 -1.964
70.46000 1.050
70.48000 3.092
70.50000 3.492
70.52000 4.083
70.54000 4.679
70.56000 1.338
70.58000 1.575
70.60000 3.183
70.62000 3.867
70.64000 5.005
70.66000 2.423
70.68000 0.807
70.70000 0.110
70.72000 1.075
70.74000 2.307
70.76000 2.329
70.78000 2.518
70.80000 1.047
70.82000 0.353
70.84000 1.284
70.86000 2.337
70.88000 3.275
70.90000 2.374
70.92000 0.851
70.94000 2.320
70.96000 4.060
70.98000 1.597
71.00000 0.164
71.02000 0.570
71.04000 -0.182
71.06000 2.193
71.08000 1.683
71.10000 1.160
71.12000 1.450
71.14000 -0.233
71.16000 -1.419
71.18000 -0.665
71.20000 -0.863
71.22000 -1.168
71.24000 -0.526
71.26000 -0.906
71.28000 -0.878
71.30000 0.244
71.32000 0.302
71.34000 1.217
71.36000 2.153
71.38000 3.425
71.40000 0.868
71.42000 0.104
71.44000 0.651
71.46000 -1.628
71.48000 -1.169
71.50000 2.827
71.52000 1.762
71.54000 3.192
71.56000 2.166
71.58000 1.251
71.60000 0.488
71.62000 0.268
71.64000 1.739
71.66000 -0.892
71.68000 -0.246
71.70000 1.718
71.72000 1.367
71.74000 -0.726
71.76000 -1.957
71.78000 -0.778
71.80000 0.116
71.82000 1.343
71.84000 -0.226
71.86000 2.209
71.88000 4.460
71.90000 2.340
71.92000 3.235
71.94000 3.016
71.96000 1.627
71.98000 0.854
72.00000 -1.390
72.02000 -1.292
72.04000 -1.757
72.06000 -1.205
72.08000 -1.573
72.10000 -1.466
72.12000 -1.958
72.14000 -1.782
72.16000 0.661
72.18000 4.063
72.20000 1.357
72.22000 -1.670
72.24000 -0.737
72.26000 0.118
72.28000 0.861
72.30000 2.236
72.32000 0.299
72.34000 0.970
72.36000 -1.609
72.38000 0.886
72.40000 1.639
72.42000 3.561
72.44000 3.192
72.46000 1.164
72.48000 -0.495
72.50000 -0.743
72.52000 -0.970
72.54000 0.770
72.56000 1.522
72.58000 0.686
72.60000 0.298
72.62000 -1.172
72.64000 0.350
72.66000 1.027
72.68000 0.223
72.70000 0.555
72.72000 -0.333
72.74000 1.546
72.76000 0.048
72.78000 0.830
72.80000 2.436
72.82000 0.043
72.84000 -0.716
72.86000 -0.756
72.88000 0.134
72.90000 -0.984
72.92000 2.401
72.94000 2.755
72.96000 3.304
72.98000 1.870
73.00000 1.070
73.02000 0.881
73.04000 -1.913
73.06000 1.812
73.08000 3.567
73.10000 4.386
73.12000 3.402
73.14000 3.247
73.16000 4.048
73.18000 0.648
73.20000 1.587
73.22000 1.627
73.24000 3.631
73.26000 2.533
73.28000 1.220
73.30000 0.257
73.32000 -1.064
73.34000 2.535
73.36000 1.943
73.38000 -0.268
73.40000 0.396
73.42000 2.455
73.44000 -0.051
73.46000 0.580
73.48000 0.124
73.50000 -0.002
73.52000 -0.196
73.54000 -0.675
73.56000 3.501
73.58000 2.911
73.60000 -0.186
73.62000 0.121
73.64000 2.094
73.66000 1.762
73.68000 0.242
73.70000 3.042
73.72000 0.385
73.74000 -0.138
73.76000 1.497
73.78000 -0.050
73.80000 -1.692
73.82000 0.328
73.84000 -0.430
73.86000 2.086
73.88000 3.276
73.90000 1.047
73.92000 3.073
73.94000 2.436
73.96000 -1.242
73.98000 -1.131
74.00000 1.247
74.02000 -0.328
74.04000 0.772
74.06000 2.029
74.08000 0.766
74.10000 0.859
74.12000 2.922
74.14000 2.077
74.16000 -1.805
74.18000 -1.125
74.20000 2.697
74.22000 1.334
74.24000 1.151
74.26000 1.004
74.28000 2.268
74.30000 3.792
74.32000 6.272
74.34000 4.848
74.36000 1.986
74.38000 1.941
74.40000 2.979
74.42000 1.134
74.44000 -0.536
74.46000 0.925
74.48000 1.234
74.50000 0.233
74.52000 -0.277
74.54000 -1.280
74.56000 0.274
74.58000 0.097
74.60000 -1.904
74.62000 0.962
74.64000 3.212
74.66000 1.155
74.68000 1.272
74.70000 0.758
74.72000 3.929
74.74000 4.702
74.76000 2.201
74.78000 2.965
74.80000 1.579
74.82000 0.941
74.84000 1.545
74.86000 3.272
74.88000 3.754
74.90000 3.326
74.92000 1.779
74.94000 2.954
74.96000 1.954
74.98000 1.786
75.00000 -0.279
75.02000 0.083
75.04000 0.430
75.06000 1.826
75.08000 2.183
75.10000 -0.324
75.12000 -1.917
75.14000 -0.361
75.16000 2.042
75.18000 3.967
75.20000 1.032
75.22000 3.334
75.24000 2.930
75.26000 0.906
75.28000 0.548
75.30000 0.286
75.32000 0.008
75.34000 0.460
75.36000 0.997
75.38000 2.151
75.40000 0.876
75.42000 -0.397
75.44000 -0.287
75.46000 1.842
75.48000 1.157
75.50000 1.867
75.52000 1.397
75.54000 0.161
75.56000 -0.248
75.58000 -1.269
75.60000 1.424
75.62000 1.716
75.64000 -0.423
75.66000 -1.718
75.68000 -0.043
75.70000 0.214
75.72000 0.408
75.74000 1.626
75.76000 3.288
75.78000 3.031
75.80000 2.304
75.82000 1.898
75.84000 0.201
75.86000 -1.123
75.88000 0.991
75.90000 1.541
75.92000 1.259
75.94000 4.399
75.96000 2.104
75.98000 1.711
76.00000 -1.243
76.02000 -0.200
76.04000 -0.083
76.06000 2.910
76.08000 3.918
76.10000 1.853
76.12000 0.158
76.14000 -0.081
76.16000 1.740
76.18000 4.384
76.20000 3.754
76.22000 2.252
76.24000 2.173
76.26000 4.353
76.28000 3.625
76.30000 4.924
76.32000 1.306
76.34000 -1.852
76.36000 -0.182
76.38000 0.126
76.40000 2.505
76.42000 -0.273
76.44000 2.249
76.46000 5.108
76.48000 4.322
76.50000 1.486
76.52000 2.816
76.54000 0.572
76.56000 -1.905
76.58000 4.817
76.60000 5.589
76.62000 5.067
76.64000 4.995
76.66000 2.739
76.68000 2.192
76.70000 3.439
76.72000 0.908
76.74000 1.014
76.76000 0.542
76.78000 0.897
76.80000 2.545
76.82000 4.705
76.84000 5.327
76.86000 5.750
76.88000 0.581
76.90000 1.148
76.92000 0.465
76.94000 0.748
76.96000 3.090
76.98000 1.679
77.00000 2.271
77.02000 3.828
77.04000 3.598
77.06000 3.411
77.08000 2.372
77.10000 -1.946
77.12000 -0.063
77.14000 2.519
77.16000 3.129
77.18000 3.865
77.20000 2.466
77.22000 2.056
77.24000 0.140
77.26000 -0.876
77.28000 1.625
77.30000 2.350
77.32000 -0.203
77.34000 1.987
77.36000 3.237
77.38000 3.051
77.40000 2.478
77.42000 2.881
77.44000 1.774
77.46000 -0.963
77.48000 1.546
77.50000 3.041
77.52000 2.885
77.54000 -0.300
77.56000 0.076
77.58000 3.848
77.60000 -0.463
77.62000 -0.700
77.64000 -0.238
77.66000 -0.494
77.68000 2.464
77.70000 3.702
77.72000 3.543
77.74000 -0.339
77.76000 -0.441
77.78000 1.423
77.80000 3.063
77.82000 0.407
77.84000 0.098
77.86000 0.049
77.88000 3.319
77.90000 3.702
77.92000 3.091
77.94000 0.940
77.96000 1.323
77.98000 -0.451
78.00000 0.567
78.02000 1.037
78.04000 3.401
78.06000 1.895
78.08000 0.440
78.10000 1.567
78.12000 2.241
78.14000 0.207
78.16000 0.140
78.18000 3.683
78.20000 -1.989
78.22000 -0.046
78.24000 2.759
78.26000 2.859
78.28000 2.237
78.30000 1.355
78.32000 0.988
78.34000 1.666
78.36000 -1.046
78.38000 0.620
78.40000 0.951
78.42000 1.412
78.44000 -0.392
78.46000 -0.622
78.48000 0.517
78.50000 0.307
78.52000 0.031
78.54000 2.388
78.56000 2.707
78.58000 1.797
78.60000 3.585
78.62000 -0.740
78.64000 3.554
78.66000 2.761
78.68000 -0.652
78.70000 -0.242
78.72000 2.358
78.74000 0.906
78.76000 0.847
78.78000 -1.172
78.80000 -1.139
78.82000 1.363
78.84000 0.455
78.86000 0.513
78.88000 2.543
78.90000 1.785
78.92000 2.364
78.94000 -0.147
78.96000 -2.065
78.98000 -0.700
79.00000 -1.236
79.02000 -0.300
79.04000 2.906
79.06000 0.742
79.08000 0.047
79.10000 1.975
79.12000 0.420
79.14000 2.074
79.16000 3.433
79.18000 4.288
79.20000 3.450
79.22000 3.299
79.24000 -0.095
79.26000 -0.640
79.28000 3.091
79.30000 2.481
79.32000 2.493
79.34000 4.865
79.36000 6.694
79.38000 3.980
79.40000 2.302
79.42000 2.518
79.44000 2.711
79.46000 3.123
79.48000 5.907
79.50000 3.885
79.52000 3.757
79.54000 3.786
79.56000 6.078
79.58000 5.958
79.60000 6.111
79.62000 5.763
79.64000 2.254
79.66000 3.410
79.68000 5.748
79.70000 6.491
79.72000 6.281
79.74000 8.088
79.76000 8.848
79.78000 8.867
79.80000 9.595
79.82000 9.566
79.84000 11.986
79.86000 13.067
79.88000 11.564
79.90000 10.552
79.92000 11.622
79.94000 8.896
79.96000 10.156
79.98000 11.773
80.00000 11.808
80.02000 13.708
80.04000 15.633
80.06000 12.471
80.08000 13.175
80.10000 13.326
80.12000 11.222
80.14000 13.905
80.16000 14.740
80.18000 10.887
80.20000 14.376
80.22000 17.312
80.24000 19.038
80.26000 15.239
80.28000 17.449
80.30000 18.665
80.32000 21.379
80.34000 22.077
80.36000 20.635
80.38000 20.459
80.40000 21.370
80.42000 20.638
80.44000 20.508
80.46000 23.224
80.48000 19.951
80.50000 18.623
80.52000 19.306
80.54000 20.338
80.56000 20.521
80.58000 22.451
80.60000 19.825
80.62000 18.807
80.64000 16.910
80.66000 19.957
80.68000 20.573
80.70000 18.413
80.72000 20.271
80.74000 21.356
80.76000 19.025
80.78000 20.783
80.80000 20.041
80.82000 22.438
80.84000 20.162
80.86000 19.328
80.88000 15.970
80.90000 14.596
80.92000 15.658
80.94000 14.869
80.96000 13.877
80.98000 16.723
81.00000 15.165
81.02000 9.159
81.04000 10.332
81.06000 9.422
81.08000 12.471
81.10000 13.093
81.12000 13.991
81.14000 14.039
81.16000 10.290
81.18000 11.113
81.20000 9.360
81.22000 7.059
81.24000 5.828
81.26000 4.911
81.28000 6.366
81.30000 5.794
81.32000 5.614
81.34000 5.123
81.36000 7.343
81.38000 13.750
81.40000 9.833
81.42000 9.599
81.44000 4.754
81.46000 3.562
81.48000 1.963
81.50000 1.624
81.52000 3.520
81.54000 3.431
81.56000 -0.047
81.58000 4.460
81.60000 6.890
81.62000 7.216
81.64000 5.102
81.66000 4.018
81.68000 7.065
81.70000 4.561
81.72000 7.053
81.74000 6.639
81.76000 4.404
81.78000 1.089
81.80000 2.455
81.82000 0.490
81.84000 1.289
81.86000 0.778
81.88000 1.889
81.90000 1.478
81.92000 -0.029
81.94000 -1.445
81.96000 -0.543
81.98000 1.010
82.00000 -0.853
82.02000 2.696
82.04000 -0.598
82.06000 -1.782
82.08000 -2.125
82.10000 0.911
82.12000 -0.151
82.14000 0.455
82.16000 -1.668
82.18000 -0.403
82.20000 0.213
82.22000 0.067
82.24000 -1.276
82.26000 -0.696
82.28000 2.472
82.30000 3.705
82.32000 3.812
82.34000 2.725
82.36000 1.741
82.38000 2.793
82.40000 -0.138
82.42000 -0.614
82.44000 2.018
82.46000 2.299
82.48000 0.384
82.50000 1.451
82.52000 -0.395
82.54000 -1.918
82.56000 0.731
82.58000 -2.101
82.60000 0.196
82.62000 1.450
82.64000 -0.122
82.66000 -1.020
82.68000 1.941
82.70000 0.795
82.72000 0.893
82.74000 1.603
82.76000 -0.128
82.78000 -0.272
82.80000 1.797
82.82000 4.256
82.84000 4.102
82.86000 2.471
82.88000 2.263
82.90000 0.312
82.92000 1.706
82.94000 0.971
82.96000 0.513
82.98000 -0.103
83.00000 0.511
83.02000 1.929
83.04000 5.413
83.06000 5.105
83.08000 1.783
83.10000 -0.115
83.12000 2.134
83.14000 2.811
83.16000 5.569
83.18000 5.091
83.20000 6.594
83.22000 4.449
83.24000 0.971
83.26000 3.093
83.28000 3.027
83.30000 7.529
83.32000 7.794
83.34000 4.210
83.36000 5.693
83.38000 6.168
83.40000 4.261
83.42000 6.277
83.44000 6.027
83.46000 5.432
83.48000 6.077
83.50000 5.563
83.52000 8.379
83.54000 4.850
83.56000 5.405
83.58000 7.568
83.60000 5.688
83.62000 7.118
83.64000 9.718
83.66000 14.292
83.68000 14.687
83.70000 13.127
83.72000 10.571
83.74000 11.603
83.76000 14.129
83.78000 12.519
83.80000 12.471
83.82000 10.482
83.84000 15.174
83.86000 17.782
83.88000 15.943
83.90000 15.255
83.92000 17.433
83.94000 16.406
83.96000 15.520
83.98000 17.735
84.00000 21.309
84.02000 20.079
84.04000 20.044
84.06000 22.821
84.08000 22.591
84.10000 19.416
84.12000 19.184
84.14000 20.713
84.16000 19.741
84.18000 18.904
84.20000 23.462
84.22000 28.048
84.24000 27.088
84.26000 22.928
84.28000 23.850
84.30000 24.360
84.32000 27.256
84.34000 27.719
84.36000 30.130
84.38000 31.778
84.40000 29.759
84.42000 24.729
84.44000 22.853
84.46000 24.846
84.48000 27.684
84.50000 30.107
84.52000 26.617
84.54000 24.403
84.56000 25.071
84.58000 24.578
84.60000 24.213
84.62000 22.294
84.64000 22.464
84.66000 21.615
84.68000 22.916
84.70000 21.097
84.72000 19.346
84.74000 16.376
84.76000 17.356
84.78000 18.544
84.80000 17.388
84.82000 12.577
84.84000 17.150
84.86000 19.850
84.88000 18.494
84.90000 22.205
84.92000 18.562
84.94000 16.487
84.96000 15.858
84.98000 15.185
85.00000 15.470
85.02000 11.916
85.04000 9.436
85.06000 10.885
85.08000 11.370
85.10000 11.281
85.12000 11.523
85.14000 8.431
85.16000 8.633
85.18000 9.382
85.20000 10.502
85.22000 11.355
85.24000 7.336
85.26000 4.244
85.28000 0.922
85.30000 2.206
85.32000 4.801
85.34000 7.105
85.36000 7.522
85.38000 5.273
85.40000 3.715
85.42000 3.690
85.44000 1.629
85.46000 1.062
85.48000 4.463
85.50000 5.201
85.52000 2.226
85.54000 1.762
85.56000 1.841
85.58000 0.633
85.60000 1.373
85.62000 -1.155
85.64000 0.095
85.66000 3.641
85.68000 4.326
85.70000 0.122
85.72000 -0.679
85.74000 3.379
85.76000 3.070
85.78000 -0.648
85.80000 -0.267
85.82000 -1.715
85.84000 -1.935
85.86000 -0.483
85.88000 0.356
85.90000 -0.777
85.92000 0.946
85.94000 1.915
85.96000 4.675
85.98000 3.945
86.00000 -0.053
86.02000 0.221
86.04000 0.381
86.06000 3.320
86.08000 2.169
86.10000 -1.047
86.12000 0.342
86.14000 -0.398
86.16000 0.893
86.18000 1.947
86.20000 0.830
86.22000 1.998
86.24000 1.935
86.26000 -0.098
86.28000 0.632
86.30000 2.265
86.32000 -1.905
86.34000 1.236
86.36000 2.920
86.38000 2.569
86.40000 -0.406
86.42000 1.823
86.44000 2.382
86.46000 -0.469
86.48000 0.304
86.50000 -1.519
86.52000 -1.044
86.54000 1.207
86.56000 -1.884
86.58000 -1.599
86.60000 -1.559
86.62000 0.375
86.64000 0.800
86.66000 -0.636
86.68000 0.738
86.70000 0.228
86.72000 -0.328
86.74000 0.753
86.76000 1.601
86.78000 -0.683
86.80000 0.039
86.82000 -0.687
86.84000 0.279
86.86000 0.840
86.88000 1.777
86.90000 -1.391
86.92000 -0.440
86.94000 1.985
86.96000 -1.420
86.98000 -1.501
87.00000 0.681
87.02000 -0.845
87.04000 -0.775
87.06000 1.365
87.08000 0.168
87.10000 -0.244
87.12000 0.441
87.14000 1.169
87.16000 0.498
87.18000 0.097
87.20000 -0.453
87.22000 -1.168
87.24000 -1.407
87.26000 -1.204
87.28000 1.251
87.30000 0.152
87.32000 -1.020
87.34000 2.530
87.36000 3.173
87.38000 2.986
87.40000 1.075
87.42000 0.893
87.44000 0.516
87.46000 0.143
87.48000 -1.210
87.50000 -0.960
87.52000 -0.066
87.54000 -0.839
87.56000 1.825
87.58000 -0.041
87.60000 -1.048
87.62000 -0.812
87.64000 -1.828
87.66000 2.209
87.68000 3.309
87.70000 1.351
87.72000 1.166
87.74000 0.757
87.76000 1.310
87.78000 1.794
87.80000 1.720
87.82000 2.163
87.84000 1.657
87.86000 1.550
87.88000 0.271
87.90000 -1.804
87.92000 -1.585
87.94000 0.899
87.96000 2.764
87.98000 4.210
88.00000 5.024
88.02000 3.842
88.04000 1.491
88.06000 0.996
88.08000 3.725
88.10000 5.110
88.12000 2.310
88.14000 0.559
88.16000 1.841
88.18000 4.340
88.20000 1.778
88.22000 1.797
88.24000 -1.733
88.26000 -1.783
88.28000 0.999
88.30000 6.154
88.32000 3.882
88.34000 3.137
88.36000 1.503
88.38000 3.301
88.40000 2.479
88.42000 2.285
88.44000 2.385
88.46000 3.391
88.48000 0.235
88.50000 0.410
88.52000 2.388
88.54000 3.611
88.56000 2.919
88.58000 3.281
88.60000 3.681
88.62000 -0.586
88.64000 0.578
88.66000 1.401
88.68000 -1.781
88.70000 1.314
88.72000 1.657
88.74000 -0.088
88.76000 -1.562
88.78000 -0.869
88.80000 -0.839
88.82000 -0.509
88.84000 0.283
88.86000 3.310
88.88000 0.134
88.90000 0.975
88.92000 3.202
88.94000 2.563
88.96000 0.574
88.98000 -0.653
89.00000 1.791
89.02000 4.389
89.04000 2.777
89.06000 1.848
89.08000 0.254
89.10000 2.248
89.12000 0.128
89.14000 -0.306
89.16000 -1.790
89.18000 0.970
89.20000 2.040
89.22000 2.896
89.24000 5.536
89.26000 2.615
89.28000 0.647
89.30000 2.718
89.32000 2.804
89.34000 1.441
89.36000 -0.223
89.38000 -1.578
89.40000 -0.251
89.42000 1.046
89.44000 0.678
89.46000 -0.432
89.48000 1.180
89.50000 3.555
89.52000 1.698
89.54000 1.192
89.56000 2.356
89.58000 2.423
89.60000 -0.227
89.62000 -0.219
89.64000 1.919
89.66000 1.314
89.68000 -0.454
89.70000 -1.789
89.72000 -1.263
89.74000 -0.905
89.76000 -0.917
89.78000 -0.334
89.80000 0.021
89.82000 1.848
89.84000 1.955
89.86000 0.827
89.88000 -0.001
89.90000 -0.382
89.92000 -0.112
89.94000 0.515
89.96000 0.414
89.98000 0.402
90.00000 -1.139
90.02000 -1.806
90.04000 0.924
90.06000 1.716
90.08000 -0.828
90.10000 -1.692
90.12000 1.254
90.14000 -0.802
90.16000 2.137
90.18000 1.268
90.20000 0.499
90.22000 0.307
90.24000 1.517
90.26000 2.942
90.28000 1.013
90.30000 3.430
90.32000 -0.015
90.34000 -1.591
90.36000 -0.272
90.38000 -0.762
90.40000 0.701
90.42000 0.192
90.44000 1.020
90.46000 0.417
90.48000 0.877
90.50000 0.170
90.52000 -1.008
90.54000 0.174
90.56000 0.206
90.58000 0.622
90.60000 3.766
90.62000 1.569
90.64000 1.869
90.66000 0.765
90.68000 0.233
90.70000 0.642
90.72000 -0.319
90.74000 -1.573
90.76000 -0.085
90.78000 -0.480
90.80000 -1.819
90.82000 1.155
90.84000 3.555
90.86000 1.082
90.88000 2.141
90.90000 3.031
90.92000 2.631
90.94000 1.449
90.96000 1.946
90.98000 2.773
91.00000 0.270
91.02000 -0.536
91.04000 -0.645
91.06000 -0.969
91.08000 -1.086
91.10000 -0.490
91.12000 0.581
91.14000 3.442
91.16000 2.896
91.18000 -1.404
91.20000 -1.615
91.22000 -1.343
91.24000 0.371
91.26000 -1.494
91.28000 -1.810
91.30000 0.022
91.32000 0.792
91.34000 1.403
91.36000 0.828
91.38000 0.603
91.40000 -0.027
91.42000 1.335
91.44000 0.518
91.46000 1.388
91.48000 2.459
91.50000 1.828
91.52000 -0.243
91.54000 -1.401
91.56000 -1.270
91.58000 1.450
91.60000 -1.804
91.62000 0.274
91.64000 4.994
91.66000 2.399
91.68000 3.644
91.70000 4.041
91.72000 1.570
91.74000 0.853
91.76000 0.969
91.78000 -0.829
91.80000 0.191
91.82000 -1.204
91.84000 -0.026
91.86000 0.084
91.88000 1.721
91.90000 5.798
91.92000 5.639
91.94000 4.556
91.96000 1.854
91.98000 2.746
92.00000 3.733
92.02000 0.967
92.04000 0.512
92.06000 4.067
92.08000 -0.587
92.10000 0.669
92.12000 1.572
92.14000 -0.461
92.16000 -1.786
92.18000 1.236
92.20000 3.114
92.22000 3.134
92.24000 2.252
92.26000 2.262
92.28000 1.836
92.30000 2.288
92.32000 1.863
92.34000 3.145
92.36000 3.225
92.38000 1.825
92.40000 0.700
92.42000 1.905
92.44000 1.805
92.46000 -1.090
92.48000 1.697
92.50000 1.926
92.52000 3.095
92.54000 2.364
92.56000 4.679
92.58000 6.277
92.60000 6.133
92.62000 4.548
92.64000 2.796
92.66000 2.289
92.68000 2.595
92.70000 1.717
92.72000 3.813
92.74000 5.852
92.76000 5.267
92.78000 5.477
92.80000 3.520
92.82000 1.413
92.84000 3.913
92.86000 1.158
92.88000 1.462
92.90000 2.374
92.92000 0.408
92.94000 -0.365
92.96000 3.121
92.98000 2.481
93.00000 2.472
93.02000 0.935
93.04000 0.925
93.06000 0.773
93.08000 2.808
93.10000 3.301
93.12000 2.717
93.14000 6.988
93.16000 -0.039
93.18000 -1.739
93.20000 2.817
93.22000 5.019
93.24000 -0.133
93.26000 1.451
93.28000 4.133
93.30000 2.521
93.32000 4.503
93.34000 3.733
93.36000 3.121
93.38000 2.170
93.40000 2.960
93.42000 4.243
93.44000 3.846
93.46000 1.650
93.48000 4.881
93.50000 7.492
93.52000 4.255
93.54000 1.498
93.56000 1.817
93.58000 5.047
93.60000 5.180
93.62000 3.307
93.64000 5.125
93.66000 4.109
93.68000 2.850
93.70000 2.630
93.72000 3.315
93.74000 5.134
93.76000 2.266
93.78000 4.428
93.80000 6.228
93.82000 3.890
93.84000 3.253
93.86000 3.662
93.88000 4.770
93.90000 1.796
93.92000 3.974
93.94000 6.672
93.96000 5.286
93.98000 3.478
94.00000 0.591
94.02000 3.779
94.04000 4.733
94.06000 1.123
94.08000 1.761
94.10000 2.908
94.12000 4.113
94.14000 2.426
94.16000 1.805
94.18000 5.437
94.20000 5.717
94.22000 2.012
94.24000 0.857
94.26000 4.240
94.28000 -1.482
94.30000 -1.751
94.32000 3.306
94.34000 6.508
94.36000 7.796
94.38000 4.798
94.40000 4.015
94.42000 3.911
94.44000 4.628
94.46000 7.545
94.48000 5.753
94.50000 6.334
94.52000 3.215
94.54000 -1.337
94.56000 0.691
94.58000 1.844
94.60000 0.383
94.62000 0.554
94.64000 2.136
94.66000 4.265
94.68000 -0.336
94.70000 2.415
94.72000 5.564
94.74000 4.482
94.76000 3.754
94.78000 1.629
94.80000 2.003
94.82000 2.736
94.84000 3.526
94.86000 0.165
94.88000 -0.620
94.90000 0.268
94.92000 3.806
94.94000 0.397
94.96000 1.460
94.98000 2.067
95.00000 0.280
95.02000 3.833
95.04000 0.802
95.06000 3.902
95.08000 4.651
95.10000 3.162
95.12000 7.168
95.14000 1.109
95.16000 2.625
95.18000 2.721
95.20000 2.667
95.22000 1.409
95.24000 -0.023
95.26000 1.148
95.28000 1.536
95.30000 4.749
95.32000 2.994
95.34000 2.062
95.36000 2.243
95.38000 2.862
95.40000 0.034
95.42000 1.145
95.44000 -0.354
95.46000 1.514
95.48000 1.544
95.50000 2.019
95.52000 2.282
95.54000 0.395
95.56000 1.701
95.58000 3.290
95.60000 2.815
95.62000 2.292
95.64000 1.004
95.66000 -0.193
95.68000 0.351
95.70000 1.151
95.72000 3.071
95.74000 1.305
95.76000 2.372
95.78000 3.915
95.80000 6.284
95.82000 4.265
95.84000 3.621
95.86000 1.540
95.88000 -0.670
95.90000 1.619
95.92000 0.201
95.94000 0.282
95.96000 -0.248
95.98000 1.154
96.00000 -0.391
96.02000 0.004
96.04000 2.450
96.06000 -1.668
96.08000 0.839
96.10000 1.287
96.12000 0.381
96.14000 -1.829
96.16000 0.888
96.18000 4.545
96.20000 5.492
96.22000 3.683
96.24000 1.155
96.26000 -1.631
96.28000 4.505
96.30000 0.835
96.32000 2.160
96.34000 3.653
96.36000 2.660
96.38000 8.136
96.40000 1.873
96.42000 1.452
96.44000 -0.929
96.46000 2.908
96.48000 1.203
96.50000 -1.456
96.52000 0.544
96.54000 0.723
96.56000 0.638
96.58000 2.638
96.60000 3.671
96.62000 2.884
96.64000 2.356
96.66000 -0.854
96.68000 0.751
96.70000 0.783
96.72000 5.407
96.74000 7.102
96.76000 1.724
96.78000 0.307
96.80000 0.774
96.82000 4.666
96.84000 0.326
96.86000 3.002
96.88000 6.069
96.90000 4.021
96.92000 6.759
96.94000 7.978
96.96000 4.280
96.98000 1.547
97.00000 1.952
97.02000 3.604
97.04000 6.583
97.06000 4.011
97.08000 4.310
97.10000 3.215
97.12000 3.138
97.14000 3.067
97.16000 4.142
97.18000 1.322
97.20000 3.878
97.22000 3.338
97.24000 5.192
97.26000 2.907
97.28000 -0.718
97.30000 1.178
97.32000 0.232
97.34000 0.581
97.36000 3.106
97.38000 0.291
97.40000 1.748
97.42000 5.984
97.44000 10.517
97.46000 4.051
97.48000 0.056
97.50000 5.415
97.52000 4.312
97.54000 10.075
97.56000 7.813
97.58000 0.206
97.60000 0.884
97.62000 3.681
97.64000 2.614
97.66000 4.015
97.68000 0.428
97.70000 -0.705
97.72000 3.226
97.74000 7.974
97.76000 6.206
97.78000 5.521
97.80000 4.259
97.82000 3.604
97.84000 0.399
97.86000 1.121
97.88000 1.596
97.90000 5.516
97.92000 3.584
97.94000 1.637
97.96000 -0.511
97.98000 1.098
98.00000 0.799
98.02000 5.414
98.04000 2.752
98.06000 1.226
98.08000 0.354
98.10000 -1.715
98.12000 6.618
98.14000 5.566
98.16000 5.323
98.18000 1.902
98.20000 3.881
98.22000 2.214
98.24000 3.157
98.26000 3.129
98.28000 3.595
98.30000 0.890
98.32000 5.817
98.34000 11.158
98.36000 7.247
98.38000 5.038
98.40000 5.454
98.42000 1.193
98.44000 5.000
98.46000 3.096
98.48000 5.969
98.50000 3.947
98.52000 3.260
98.54000 3.138
98.56000 3.050
98.58000 2.117
98.60000 5.684
98.62000 9.608
98.64000 9.905
98.66000 6.827
98.68000 2.473
98.70000 3.680
98.72000 4.987
98.74000 4.752
98.76000 3.172
98.78000 1.338
98.80000 7.766
98.82000 3.615
98.84000 3.862
98.86000 0.700
98.88000 -1.761
98.90000 0.930
98.92000 6.349
98.94000 6.500
98.96000 5.750
98.98000 6.191
99.00000 3.033
99.02000 0.176
99.04000 3.448
99.06000 3.474
99.08000 5.659
99.10000 7.734
99.12000 4.128
99.14000 0.747
99.16000 5.940
99.18000 1.383
99.20000 1.591
99.22000 4.670
99.24000 7.925
99.26000 4.535
99.28000 0.868
99.30000 6.655
99.32000 1.944
99.34000 -1.768
99.36000 3.996
99.38000 3.472
99.40000 0.677
99.42000 2.597
99.44000 5.659
99.46000 0.181
99.48000 0.168
99.50000 2.885
99.52000 1.398
99.54000 -1.730
99.56000 3.022
99.58000 3.687
99.60000 -1.067
99.62000 5.509
99.64000 3.077
99.66000 6.933
99.68000 7.466
99.70000 3.569
99.72000 4.378
99.74000 7.476
99.76000 6.016
99.78000 4.155
99.80000 1.921
99.82000 5.922
99.84000 1.683
99.86000 4.586
99.88000 -1.773
99.90000 0.946
99.92000 6.755
99.94000 6.513
99.96000 1.433
99.98000 0.000
