'Id: "0011387" Comment: "Integrate frame 0011387_Au-Ir-Rh_Rh-rich_XRD-Mapping-010-0000.gfrmwith cursor Wedge Cursor #5" Operator: "B?rgel" Anode: "Cu" Wavelength: "1.5406" Scantype: "2Theta (TwoTheta)" TimePerStep: "1" X: "22.5" Y: "-40.5" Z: "5.95" 
10.00000 0.000
10.02000 -4.921
10.04000 4.037
10.06000 19.798
10.08000 20.669
10.10000 10.470
10.12000 3.800
10.14000 5.261
10.16000 -0.767
10.18000 6.476
10.20000 12.158
10.22000 15.224
10.24000 12.936
10.26000 23.031
10.28000 27.707
10.30000 9.877
10.32000 17.257
10.34000 10.154
10.36000 10.040
10.38000 8.503
10.40000 2.067
10.42000 12.521
10.44000 28.218
10.46000 15.648
10.48000 20.070
10.50000 12.183
10.52000 4.573
10.54000 6.820
10.56000 12.696
10.58000 15.472
10.60000 9.144
10.62000 5.820
10.64000 11.550
10.66000 13.469
10.68000 11.828
10.70000 -0.203
10.72000 4.281
10.74000 26.857
10.76000 25.261
10.78000 7.868
10.80000 20.335
10.82000 9.511
10.84000 -4.260
10.86000 2.403
10.88000 21.657
10.90000 23.532
10.92000 16.175
10.94000 20.510
10.96000 9.461
10.98000 7.449
11.00000 12.164
11.02000 0.761
11.04000 15.641
11.06000 15.915
11.08000 22.797
11.10000 5.534
11.12000 5.309
11.14000 2.419
11.16000 -3.625
11.18000 18.567
11.20000 21.157
11.22000 27.492
11.24000 23.545
11.26000 16.754
11.28000 15.895
11.30000 9.331
11.32000 7.392
11.34000 13.658
11.36000 9.557
11.38000 1.746
11.40000 9.237
11.42000 12.005
11.44000 13.412
11.46000 15.801
11.48000 5.467
11.50000 -4.123
11.52000 2.162
11.54000 17.480
11.56000 13.079
11.58000 9.176
11.60000 17.748
11.62000 15.403
11.64000 14.111
11.66000 11.149
11.68000 3.800
11.70000 3.660
11.72000 8.854
11.74000 11.841
11.76000 0.393
11.78000 8.436
11.80000 32.864
11.82000 25.596
11.84000 12.359
11.86000 12.247
11.88000 13.320
11.90000 17.126
11.92000 8.653
11.94000 6.382
11.96000 16.381
11.98000 15.527
12.00000 12.957
12.02000 19.849
12.04000 13.712
12.06000 8.927
12.08000 8.183
12.10000 10.120
12.12000 8.561
12.14000 10.862
12.16000 14.554
12.18000 6.303
12.20000 17.885
12.22000 9.621
12.24000 10.168
12.26000 15.799
12.28000 14.447
12.30000 10.818
12.32000 12.350
12.34000 21.195
12.36000 16.061
12.38000 10.452
12.40000 16.793
12.42000 13.964
12.44000 16.195
12.46000 -1.268
12.48000 -4.452
12.50000 9.525
12.52000 10.682
12.54000 23.722
12.56000 16.183
12.58000 14.473
12.60000 23.196
12.62000 22.156
12.64000 22.655
12.66000 26.756
12.68000 26.067
12.70000 25.334
12.72000 25.821
12.74000 30.432
12.76000 27.374
12.78000 17.099
12.80000 16.795
12.82000 20.675
12.84000 20.793
12.86000 14.904
12.88000 14.387
12.90000 17.549
12.92000 11.261
12.94000 6.035
12.96000 18.911
12.98000 16.093
13.00000 12.027
13.02000 11.142
13.04000 19.055
13.06000 26.516
13.08000 16.346
13.10000 11.295
13.12000 14.653
13.14000 14.512
13.16000 15.320
13.18000 13.170
13.20000 17.611
13.22000 11.267
13.24000 6.490
13.26000 3.041
13.28000 10.603
13.30000 18.379
13.32000 21.714
13.34000 17.503
13.36000 8.878
13.38000 10.148
13.40000 13.841
13.42000 11.797
13.44000 15.410
13.46000 16.078
13.48000 6.339
13.50000 3.997
13.52000 14.263
13.54000 11.800
13.56000 7.319
13.58000 8.851
13.60000 12.484
13.62000 -3.871
13.64000 3.778
13.66000 9.940
13.68000 12.784
13.70000 24.464
13.72000 14.498
13.74000 9.723
13.76000 15.845
13.78000 8.287
13.80000 17.647
13.82000 12.783
13.84000 3.117
13.86000 7.915
13.88000 11.232
13.90000 9.907
13.92000 10.427
13.94000 5.168
13.96000 3.656
13.98000 6.020
14.00000 -0.267
14.02000 2.444
14.04000 10.992
14.06000 16.943
14.08000 8.958
14.10000 11.960
14.12000 10.469
14.14000 1.744
14.16000 9.125
14.18000 3.606
14.20000 -0.666
14.22000 0.085
14.24000 6.871
14.26000 9.476
14.28000 10.345
14.30000 9.885
14.32000 12.356
14.34000 11.305
14.36000 14.297
14.38000 12.721
14.40000 4.352
14.42000 8.601
14.44000 16.149
14.46000 6.327
14.48000 -1.824
14.50000 6.084
14.52000 10.644
14.54000 7.768
14.56000 -1.448
14.58000 1.825
14.60000 0.341
14.62000 18.832
14.64000 22.578
14.66000 0.559
14.68000 2.665
14.70000 6.172
14.72000 -3.293
14.74000 7.150
14.76000 7.624
14.78000 6.424
14.80000 5.255
14.82000 7.457
14.84000 7.284
14.86000 8.108
14.88000 -0.094
14.90000 13.022
14.92000 12.437
14.94000 10.595
14.96000 5.263
14.98000 12.213
15.00000 18.244
15.02000 2.755
15.04000 4.974
15.06000 8.496
15.08000 6.008
15.10000 7.224
15.12000 5.022
15.14000 2.870
15.16000 -0.424
15.18000 -4.193
15.20000 -4.564
15.22000 7.390
15.24000 6.448
15.26000 8.322
15.28000 5.319
15.30000 0.243
15.32000 -0.818
15.34000 3.535
15.36000 6.796
15.38000 1.250
15.40000 7.272
15.42000 1.532
15.44000 1.213
15.46000 6.763
15.48000 7.036
15.50000 -2.693
15.52000 4.002
15.54000 -3.946
15.56000 4.052
15.58000 8.787
15.60000 12.764
15.62000 12.908
15.64000 7.384
15.66000 6.981
15.68000 3.607
15.70000 2.043
15.72000 8.460
15.74000 11.012
15.76000 6.574
15.78000 2.910
15.80000 10.216
15.82000 11.377
15.84000 14.016
15.86000 -0.851
15.88000 1.217
15.90000 7.932
15.92000 10.101
15.94000 2.020
15.96000 -2.691
15.98000 4.215
16.00000 -1.442
16.02000 3.799
16.04000 -2.874
16.06000 1.580
16.08000 1.458
16.10000 11.158
16.12000 8.859
16.14000 10.773
16.16000 8.848
16.18000 2.877
16.20000 7.055
16.22000 9.015
16.24000 14.647
16.26000 13.704
16.28000 1.518
16.30000 2.788
16.32000 10.505
16.34000 5.737
16.36000 2.834
16.38000 4.944
16.40000 -1.656
16.42000 11.586
16.44000 10.736
16.46000 4.470
16.48000 -1.197
16.50000 -0.424
16.52000 2.441
16.54000 9.585
16.56000 8.843
16.58000 8.178
16.60000 9.362
16.62000 11.890
16.64000 -1.519
16.66000 -4.480
16.68000 3.459
16.70000 1.649
16.72000 -3.595
16.74000 -3.164
16.76000 9.624
16.78000 1.000
16.80000 -4.021
16.82000 -1.396
16.84000 6.889
16.86000 12.490
16.88000 13.132
16.90000 7.295
16.92000 5.190
16.94000 5.834
16.96000 3.277
16.98000 9.225
17.00000 8.433
17.02000 2.617
17.04000 12.275
17.06000 5.114
17.08000 -4.454
17.10000 5.844
17.12000 8.138
17.14000 4.557
17.16000 4.026
17.18000 7.497
17.20000 8.445
17.22000 7.573
17.24000 7.423
17.26000 12.672
17.28000 8.945
17.30000 -2.450
17.32000 8.035
17.34000 18.964
17.36000 6.572
17.38000 0.888
17.40000 5.429
17.42000 5.287
17.44000 0.777
17.46000 -1.101
17.48000 7.899
17.50000 2.560
17.52000 -2.239
17.54000 11.908
17.56000 21.309
17.58000 19.882
17.60000 13.221
17.62000 5.005
17.64000 5.398
17.66000 4.696
17.68000 8.380
17.70000 6.251
17.72000 6.170
17.74000 7.449
17.76000 6.408
17.78000 5.567
17.80000 0.467
17.82000 0.345
17.84000 2.287
17.86000 6.323
17.88000 13.976
17.90000 12.158
17.92000 13.347
17.94000 11.005
17.96000 7.268
17.98000 6.311
18.00000 11.143
18.02000 8.692
18.04000 2.473
18.06000 -1.123
18.08000 -4.394
18.10000 2.217
18.12000 10.857
18.14000 12.958
18.16000 1.328
18.18000 0.651
18.20000 5.194
18.22000 6.282
18.24000 5.270
18.26000 3.988
18.28000 7.790
18.30000 4.623
18.32000 3.288
18.34000 0.102
18.36000 -1.177
18.38000 7.644
18.40000 3.209
18.42000 -2.606
18.44000 2.510
18.46000 1.201
18.48000 -0.044
18.50000 8.256
18.52000 5.138
18.54000 0.591
18.56000 13.218
18.58000 2.568
18.60000 5.735
18.62000 2.585
18.64000 0.972
18.66000 6.576
18.68000 0.192
18.70000 1.648
18.72000 2.514
18.74000 -3.843
18.76000 -3.853
18.78000 5.385
18.80000 11.317
18.82000 9.473
18.84000 12.348
18.86000 6.320
18.88000 5.062
18.90000 3.976
18.92000 4.777
18.94000 8.151
18.96000 1.582
18.98000 -0.946
19.00000 6.545
19.02000 9.433
19.04000 5.583
19.06000 1.569
19.08000 -1.504
19.10000 -2.531
19.12000 2.877
19.14000 4.603
19.16000 6.014
19.18000 6.433
19.20000 5.448
19.22000 4.074
19.24000 7.172
19.26000 3.201
19.28000 6.318
19.30000 9.703
19.32000 9.050
19.34000 5.831
19.36000 0.760
19.38000 0.098
19.40000 -0.432
19.42000 1.523
19.44000 3.247
19.46000 10.414
19.48000 4.635
19.50000 9.045
19.52000 11.293
19.54000 5.164
19.56000 3.117
19.58000 4.357
19.60000 8.642
19.62000 10.426
19.64000 10.378
19.66000 6.888
19.68000 11.674
19.70000 6.190
19.72000 2.375
19.74000 -1.748
19.76000 5.396
19.78000 4.819
19.80000 4.868
19.82000 4.325
19.84000 12.888
19.86000 18.170
19.88000 7.396
19.90000 7.662
19.92000 11.379
19.94000 8.029
19.96000 4.462
19.98000 7.067
20.00000 6.982
20.02000 8.823
20.04000 11.809
20.06000 5.305
20.08000 5.308
20.10000 9.113
20.12000 12.707
20.14000 10.789
20.16000 10.242
20.18000 10.744
20.20000 11.996
20.22000 17.351
20.24000 14.036
20.26000 9.734
20.28000 9.376
20.30000 3.759
20.32000 0.029
20.34000 -4.187
20.36000 12.585
20.38000 18.278
20.40000 11.647
20.42000 8.689
20.44000 9.618
20.46000 10.355
20.48000 12.639
20.50000 12.171
20.52000 3.920
20.54000 2.647
20.56000 -0.650
20.58000 -2.185
20.60000 9.461
20.62000 7.151
20.64000 10.740
20.66000 13.458
20.68000 6.649
20.70000 3.252
20.72000 5.528
20.74000 10.986
20.76000 12.766
20.78000 10.757
20.80000 12.999
20.82000 17.241
20.84000 9.862
20.86000 4.098
20.88000 4.616
20.90000 14.506
20.92000 14.385
20.94000 1.400
20.96000 -2.059
20.98000 6.135
21.00000 6.429
21.02000 7.116
21.04000 10.841
21.06000 11.034
21.08000 9.029
21.10000 -0.810
21.12000 -4.174
21.14000 2.363
21.16000 5.404
21.18000 2.416
21.20000 9.793
21.22000 5.449
21.24000 2.888
21.26000 4.454
21.28000 -1.455
21.30000 0.429
21.32000 3.384
21.34000 2.727
21.36000 1.758
21.38000 6.735
21.40000 6.632
21.42000 3.864
21.44000 4.983
21.46000 12.029
21.48000 10.625
21.50000 10.177
21.52000 5.302
21.54000 7.633
21.56000 4.341
21.58000 7.041
21.60000 8.764
21.62000 9.852
21.64000 9.495
21.66000 5.947
21.68000 -3.327
21.70000 -2.395
21.72000 1.894
21.74000 6.903
21.76000 4.832
21.78000 -1.494
21.80000 1.839
21.82000 2.944
21.84000 1.793
21.86000 -0.804
21.88000 4.706
21.90000 5.021
21.92000 4.418
21.94000 8.665
21.96000 5.393
21.98000 3.052
22.00000 4.036
22.02000 3.591
22.04000 2.932
22.06000 7.898
22.08000 10.378
22.10000 10.769
22.12000 5.353
22.14000 3.021
22.16000 1.533
22.18000 4.360
22.20000 3.438
22.22000 1.977
22.24000 -2.325
22.26000 1.016
22.28000 4.452
22.30000 2.632
22.32000 5.301
22.34000 6.463
22.36000 3.721
22.38000 0.918
22.40000 -3.796
22.42000 -1.872
22.44000 -0.306
22.46000 0.724
22.48000 4.568
22.50000 7.265
22.52000 7.459
22.54000 2.655
22.56000 0.116
22.58000 1.097
22.60000 4.194
22.62000 6.184
22.64000 4.812
22.66000 2.145
22.68000 2.703
22.70000 3.455
22.72000 -0.193
22.74000 8.997
22.76000 11.474
22.78000 6.529
22.80000 3.926
22.82000 4.965
22.84000 6.730
22.86000 4.201
22.88000 5.084
22.90000 9.609
22.92000 12.718
22.94000 10.579
22.96000 1.784
22.98000 -2.497
23.00000 -2.319
23.02000 -1.541
23.04000 -1.588
23.06000 3.987
23.08000 4.567
23.10000 -2.851
23.12000 -2.440
23.14000 3.633
23.16000 7.809
23.18000 14.389
23.20000 0.889
23.22000 -3.281
23.24000 -4.082
23.26000 3.760
23.28000 2.210
23.30000 2.101
23.32000 1.687
23.34000 1.344
23.36000 0.324
23.38000 -2.528
23.40000 -1.372
23.42000 -0.517
23.44000 4.470
23.46000 8.239
23.48000 9.308
23.50000 5.388
23.52000 0.076
23.54000 -0.413
23.56000 0.887
23.58000 1.998
23.60000 6.590
23.62000 4.187
23.64000 4.414
23.66000 4.841
23.68000 2.162
23.70000 -0.027
23.72000 1.146
23.74000 4.165
23.76000 2.373
23.78000 4.096
23.80000 2.120
23.82000 5.926
23.84000 2.056
23.86000 2.367
23.88000 4.341
23.90000 7.122
23.92000 1.542
23.94000 -0.442
23.96000 2.386
23.98000 6.660
24.00000 4.607
24.02000 -0.028
24.04000 -0.371
24.06000 3.197
24.08000 10.864
24.10000 1.742
24.12000 -0.429
24.14000 3.798
24.16000 4.106
24.18000 4.322
24.20000 1.364
24.22000 1.250
24.24000 -0.339
24.26000 3.580
24.28000 4.125
24.30000 1.576
24.32000 0.520
24.34000 0.612
24.36000 -3.972
24.38000 0.674
24.40000 1.846
24.42000 1.234
24.44000 -0.264
24.46000 3.122
24.48000 0.194
24.50000 0.692
24.52000 0.920
24.54000 0.746
24.56000 3.290
24.58000 4.297
24.60000 2.987
24.62000 7.306
24.64000 1.910
24.66000 -4.021
24.68000 -1.798
24.70000 1.010
24.72000 1.841
24.74000 1.764
24.76000 1.392
24.78000 2.145
24.80000 0.463
24.82000 0.579
24.84000 -0.311
24.86000 2.742
24.88000 0.641
24.90000 4.646
24.92000 4.851
24.94000 1.633
24.96000 -2.608
24.98000 -2.026
25.00000 1.071
25.02000 1.609
25.04000 -3.268
25.06000 -2.828
25.08000 -1.139
25.10000 1.421
25.12000 -0.600
25.14000 1.221
25.16000 -0.614
25.18000 7.299
25.20000 5.853
25.22000 7.549
25.24000 5.951
25.26000 1.940
25.28000 4.985
25.30000 6.343
25.32000 2.744
25.34000 3.539
25.36000 7.662
25.38000 2.656
25.40000 0.975
25.42000 3.025
25.44000 6.995
25.46000 4.232
25.48000 -1.071
25.50000 2.570
25.52000 9.424
25.54000 4.755
25.56000 0.066
25.58000 -1.872
25.60000 3.191
25.62000 -3.933
25.64000 2.610
25.66000 1.896
25.68000 1.481
25.70000 2.990
25.72000 5.593
25.74000 -0.101
25.76000 -2.637
25.78000 3.042
25.80000 5.676
25.82000 7.783
25.84000 3.277
25.86000 0.318
25.88000 -2.007
25.90000 6.101
25.92000 10.326
25.94000 5.549
25.96000 4.542
25.98000 4.466
26.00000 4.875
26.02000 1.077
26.04000 2.666
26.06000 6.876
26.08000 3.404
26.10000 3.092
26.12000 2.687
26.14000 1.766
26.16000 -0.003
26.18000 -0.769
26.20000 -1.708
26.22000 2.381
26.24000 6.716
26.26000 -2.134
26.28000 -1.725
26.30000 2.481
26.32000 6.000
26.34000 7.520
26.36000 6.128
26.38000 4.968
26.40000 0.033
26.42000 -3.209
26.44000 1.134
26.46000 2.909
26.48000 -2.744
26.50000 1.756
26.52000 3.873
26.54000 -2.724
26.56000 -0.749
26.58000 -0.100
26.60000 -2.235
26.62000 -2.336
26.64000 -0.172
26.66000 7.681
26.68000 0.180
26.70000 -3.930
26.72000 -3.904
26.74000 -2.518
26.76000 3.605
26.78000 0.380
26.80000 -1.460
26.82000 1.316
26.84000 2.317
26.86000 -0.308
26.88000 -2.514
26.90000 -1.261
26.92000 4.312
26.94000 -0.913
26.96000 -0.730
26.98000 1.182
27.00000 -2.769
27.02000 -2.977
27.04000 2.643
27.06000 3.146
27.08000 4.403
27.10000 -0.648
27.12000 -1.715
27.14000 3.837
27.16000 4.654
27.18000 0.054
27.20000 -2.494
27.22000 -0.447
27.24000 -2.966
27.26000 -1.854
27.28000 0.622
27.30000 4.084
27.32000 3.001
27.34000 -0.694
27.36000 -3.227
27.38000 0.505
27.40000 0.154
27.42000 -2.884
27.44000 -1.115
27.46000 0.149
27.48000 -0.855
27.50000 1.145
27.52000 -1.485
27.54000 -2.721
27.56000 2.114
27.58000 5.254
27.60000 4.090
27.62000 2.073
27.64000 -2.104
27.66000 -0.235
27.68000 3.286
27.70000 3.996
27.72000 0.843
27.74000 0.980
27.76000 0.251
27.78000 3.212
27.80000 -1.296
27.82000 -1.526
27.84000 -0.509
27.86000 -3.872
27.88000 -2.847
27.90000 4.263
27.92000 -0.434
27.94000 -2.796
27.96000 5.201
27.98000 3.356
28.00000 -3.864
28.02000 -2.824
28.04000 -1.426
28.06000 -1.394
28.08000 1.504
28.10000 2.535
28.12000 1.242
28.14000 -0.401
28.16000 0.997
28.18000 0.637
28.20000 -0.448
28.22000 -0.224
28.24000 0.751
28.26000 -2.276
28.28000 -2.887
28.30000 1.095
28.32000 2.705
28.34000 3.253
28.36000 2.988
28.38000 2.227
28.40000 1.522
28.42000 0.185
28.44000 5.730
28.46000 7.814
28.48000 6.417
28.50000 2.001
28.52000 -2.698
28.54000 2.144
28.56000 0.397
28.58000 -3.821
28.60000 1.649
28.62000 -1.856
28.64000 -1.195
28.66000 3.370
28.68000 3.020
28.70000 2.715
28.72000 4.002
28.74000 8.259
28.76000 4.081
28.78000 0.706
28.80000 0.185
28.82000 1.491
28.84000 -1.001
28.86000 2.009
28.88000 5.588
28.90000 -0.548
28.92000 0.852
28.94000 0.497
28.96000 -0.544
28.98000 2.657
29.00000 1.902
29.02000 2.138
29.04000 1.801
29.06000 -3.237
29.08000 2.024
29.10000 4.015
29.12000 3.888
29.14000 3.369
29.16000 3.187
29.18000 4.704
29.20000 4.590
29.22000 -3.773
29.24000 -2.533
29.26000 5.745
29.28000 3.711
29.30000 6.574
29.32000 5.200
29.34000 4.983
29.36000 2.867
29.38000 2.786
29.40000 6.248
29.42000 7.181
29.44000 9.444
29.46000 4.073
29.48000 1.490
29.50000 2.511
29.52000 1.510
29.54000 0.177
29.56000 1.362
29.58000 5.013
29.60000 1.012
29.62000 0.213
29.64000 -1.460
29.66000 0.123
29.68000 -0.299
29.70000 4.230
29.72000 0.124
29.74000 3.801
29.76000 8.265
29.78000 1.498
29.80000 4.174
29.82000 8.239
29.84000 8.455
29.86000 11.789
29.88000 3.754
29.90000 5.790
29.92000 5.628
29.94000 9.651
29.96000 8.332
29.98000 0.792
30.00000 1.962
30.02000 5.556
30.04000 5.617
30.06000 5.497
30.08000 4.698
30.10000 6.546
30.12000 9.435
30.14000 6.523
30.16000 7.168
30.18000 0.101
30.20000 -3.691
30.22000 2.892
30.24000 2.891
30.26000 0.010
30.28000 5.120
30.30000 4.444
30.32000 3.024
30.34000 6.683
30.36000 7.312
30.38000 8.311
30.40000 5.472
30.42000 8.585
30.44000 8.932
30.46000 7.170
30.48000 6.445
30.50000 4.016
30.52000 1.913
30.54000 0.829
30.56000 -0.450
30.58000 2.367
30.60000 2.533
30.62000 0.461
30.64000 3.120
30.66000 -1.439
30.68000 -3.680
30.70000 5.185
30.72000 9.330
30.74000 2.613
30.76000 -3.364
30.78000 2.524
30.80000 5.376
30.82000 4.734
30.84000 8.464
30.86000 5.797
30.88000 0.665
30.90000 4.013
30.92000 6.032
30.94000 5.900
30.96000 4.721
30.98000 6.077
31.00000 4.602
31.02000 0.136
31.04000 5.057
31.06000 4.240
31.08000 1.913
31.10000 3.792
31.12000 5.452
31.14000 4.055
31.16000 5.967
31.18000 8.945
31.20000 11.851
31.22000 9.243
31.24000 4.330
31.26000 6.418
31.28000 5.651
31.30000 2.449
31.32000 -0.993
31.34000 -1.859
31.36000 2.697
31.38000 3.394
31.40000 4.637
31.42000 4.662
31.44000 3.627
31.46000 5.852
31.48000 1.272
31.50000 1.700
31.52000 0.668
31.54000 1.815
31.56000 3.856
31.58000 3.712
31.60000 3.053
31.62000 0.972
31.64000 1.347
31.66000 -0.089
31.68000 1.465
31.70000 0.639
31.72000 5.489
31.74000 3.401
31.76000 3.641
31.78000 3.821
31.80000 3.983
31.82000 4.008
31.84000 3.938
31.86000 -1.292
31.88000 2.175
31.90000 6.662
31.92000 8.573
31.94000 2.256
31.96000 3.684
31.98000 2.064
32.00000 0.481
32.02000 0.135
32.04000 -3.626
32.06000 -0.404
32.08000 6.240
32.10000 3.734
32.12000 4.368
32.14000 2.862
32.16000 5.622
32.18000 4.951
32.20000 4.158
32.22000 4.241
32.24000 4.868
32.26000 10.932
32.28000 5.999
32.30000 1.796
32.32000 2.202
32.34000 4.147
32.36000 2.758
32.38000 4.895
32.40000 3.715
32.42000 -2.470
32.44000 -2.983
32.46000 1.320
32.48000 3.260
32.50000 -2.530
32.52000 -0.073
32.54000 8.057
32.56000 7.995
32.58000 2.890
32.60000 -0.343
32.62000 0.776
32.64000 6.996
32.66000 3.425
32.68000 1.024
32.70000 -1.709
32.72000 -2.553
32.74000 0.349
32.76000 4.406
32.78000 7.744
32.80000 5.254
32.82000 -0.192
32.84000 2.161
32.86000 7.420
32.88000 6.118
32.90000 3.440
32.92000 5.133
32.94000 5.301
32.96000 3.114
32.98000 4.109
33.00000 0.348
33.02000 1.769
33.04000 1.323
33.06000 -2.281
33.08000 2.022
33.10000 5.307
33.12000 4.509
33.14000 -1.893
33.16000 -3.585
33.18000 0.385
33.20000 2.396
33.22000 4.454
33.24000 4.540
33.26000 9.255
33.28000 2.302
33.30000 1.682
33.32000 3.245
33.34000 5.710
33.36000 1.658
33.38000 1.084
33.40000 4.352
33.42000 6.703
33.44000 2.619
33.46000 -1.233
33.48000 4.793
33.50000 7.978
33.52000 8.286
33.54000 4.896
33.56000 1.866
33.58000 -0.579
33.60000 3.156
33.62000 4.704
33.64000 2.667
33.66000 4.268
33.68000 3.866
33.70000 6.103
33.72000 5.650
33.74000 4.065
33.76000 5.219
33.78000 7.754
33.80000 10.461
33.82000 3.822
33.84000 2.604
33.86000 -0.683
33.88000 -0.416
33.90000 1.915
33.92000 4.588
33.94000 9.286
33.96000 5.124
33.98000 2.413
34.00000 1.273
34.02000 5.905
34.04000 5.823
34.06000 3.375
34.08000 5.588
34.10000 7.255
34.12000 7.170
34.14000 6.274
34.16000 3.064
34.18000 -1.025
34.20000 0.649
34.22000 7.056
34.24000 4.831
34.26000 3.486
34.28000 7.543
34.30000 4.840
34.32000 4.906
34.34000 5.468
34.36000 3.325
34.38000 6.012
34.40000 0.636
34.42000 1.234
34.44000 6.212
34.46000 10.925
34.48000 5.496
34.50000 6.390
34.52000 7.259
34.54000 5.526
34.56000 2.034
34.58000 -0.504
34.60000 -1.413
34.62000 4.684
34.64000 3.838
34.66000 -2.907
34.68000 -3.542
34.70000 1.775
34.72000 3.694
34.74000 -2.169
34.76000 0.190
34.78000 3.220
34.80000 2.262
34.82000 3.576
34.84000 -0.513
34.86000 4.544
34.88000 4.733
34.90000 -0.082
34.92000 -1.194
34.94000 2.905
34.96000 -1.024
34.98000 -0.382
35.00000 -0.879
35.02000 -0.456
35.04000 -0.449
35.06000 3.482
35.08000 2.969
35.10000 1.169
35.12000 2.444
35.14000 4.154
35.16000 6.777
35.18000 0.765
35.20000 2.124
35.22000 -0.524
35.24000 -0.814
35.26000 2.485
35.28000 3.534
35.30000 3.721
35.32000 0.201
35.34000 -2.313
35.36000 -0.357
35.38000 -0.708
35.40000 2.307
35.42000 1.345
35.44000 -0.267
35.46000 -1.040
35.48000 -3.532
35.50000 -1.482
35.52000 -1.630
35.54000 1.722
35.56000 -1.760
35.58000 0.150
35.60000 5.816
35.62000 -0.161
35.64000 -2.189
35.66000 0.257
35.68000 -1.486
35.70000 0.261
35.72000 -2.083
35.74000 0.088
35.76000 2.665
35.78000 4.532
35.80000 2.116
35.82000 -3.503
35.84000 -3.518
35.86000 0.961
35.88000 2.157
35.90000 -2.646
35.92000 -1.245
35.94000 2.454
35.96000 3.537
35.98000 1.065
36.00000 -1.603
36.02000 -0.942
36.04000 2.997
36.06000 1.889
36.08000 3.942
36.10000 3.116
36.12000 3.539
36.14000 0.250
36.16000 -2.990
36.18000 -3.113
36.20000 -0.376
36.22000 4.333
36.24000 5.493
36.26000 2.787
36.28000 2.794
36.30000 0.500
36.32000 -2.464
36.34000 1.957
36.36000 -1.862
36.38000 -3.522
36.40000 2.395
36.42000 5.780
36.44000 2.781
36.46000 1.063
36.48000 2.103
36.50000 5.988
36.52000 1.633
36.54000 2.576
36.56000 0.912
36.58000 2.022
36.60000 0.000
36.62000 3.459
36.64000 11.618
36.66000 8.023
36.68000 2.151
36.70000 3.385
36.72000 4.801
36.74000 4.095
36.76000 3.158
36.78000 -0.503
36.80000 0.954
36.82000 3.243
36.84000 2.515
36.86000 2.102
36.88000 4.822
36.90000 8.926
36.92000 11.175
36.94000 5.389
36.96000 8.430
36.98000 0.090
37.00000 -0.627
37.02000 -0.889
37.04000 -3.086
37.06000 1.021
37.08000 5.822
37.10000 3.639
37.12000 2.979
37.14000 5.077
37.16000 2.652
37.18000 -3.517
37.20000 -0.521
37.22000 3.634
37.24000 2.255
37.26000 -3.520
37.28000 0.228
37.30000 3.872
37.32000 6.663
37.34000 0.372
37.36000 -2.657
37.38000 -2.339
37.40000 1.402
37.42000 -1.105
37.44000 1.399
37.46000 1.125
37.48000 0.463
37.50000 2.237
37.52000 0.455
37.54000 0.081
37.56000 0.943
37.58000 -2.133
37.60000 -3.535
37.62000 -3.333
37.64000 -2.354
37.66000 -3.543
37.68000 -0.053
37.70000 0.573
37.72000 -2.360
37.74000 -2.809
37.76000 -2.707
37.78000 2.809
37.80000 -2.464
37.82000 2.009
37.84000 2.345
37.86000 1.071
37.88000 3.962
37.90000 4.256
37.92000 5.552
37.94000 6.722
37.96000 8.651
37.98000 5.581
38.00000 4.385
38.02000 3.872
38.04000 7.801
38.06000 12.205
38.08000 6.629
38.10000 3.149
38.12000 5.805
38.14000 7.161
38.16000 6.517
38.18000 8.859
38.20000 11.371
38.22000 13.333
38.24000 14.908
38.26000 10.700
38.28000 6.099
38.30000 2.075
38.32000 8.078
38.34000 14.188
38.36000 14.562
38.38000 14.711
38.40000 10.661
38.42000 12.304
38.44000 14.166
38.46000 9.576
38.48000 9.431
38.50000 11.428
38.52000 14.208
38.54000 15.199
38.56000 15.426
38.58000 16.246
38.60000 14.652
38.62000 17.021
38.64000 16.975
38.66000 21.178
38.68000 17.675
38.70000 15.712
38.72000 18.723
38.74000 13.307
38.76000 15.103
38.78000 20.012
38.80000 18.178
38.82000 19.301
38.84000 19.846
38.86000 22.739
38.88000 23.655
38.90000 22.217
38.92000 17.037
38.94000 18.930
38.96000 25.517
38.98000 21.906
39.00000 23.842
39.02000 22.536
39.04000 21.477
39.06000 24.630
39.08000 29.168
39.10000 31.891
39.12000 30.322
39.14000 31.809
39.16000 32.203
39.18000 33.163
39.20000 34.932
39.22000 36.004
39.24000 34.429
39.26000 33.222
39.28000 37.834
39.30000 43.688
39.32000 41.198
39.34000 38.300
39.36000 45.981
39.38000 47.606
39.40000 50.081
39.42000 50.637
39.44000 53.780
39.46000 52.479
39.48000 56.796
39.50000 62.418
39.52000 64.614
39.54000 66.840
39.56000 73.793
39.58000 78.047
39.60000 83.664
39.62000 87.763
39.64000 91.413
39.66000 88.625
39.68000 91.874
39.70000 98.948
39.72000 106.355
39.74000 109.736
39.76000 120.210
39.78000 130.714
39.80000 139.827
39.82000 142.196
39.84000 150.643
39.86000 166.852
39.88000 178.467
39.90000 187.672
39.92000 205.444
39.94000 219.090
39.96000 234.179
39.98000 248.317
40.00000 263.325
40.02000 284.023
40.04000 303.437
40.06000 320.252
40.08000 347.554
40.10000 379.388
40.12000 403.246
40.14000 419.160
40.16000 447.771
40.18000 484.246
40.20000 521.542
40.22000 545.192
40.24000 586.555
40.26000 624.504
40.28000 660.302
40.30000 706.462
40.32000 741.646
40.34000 783.474
40.36000 813.788
40.38000 845.544
40.40000 886.957
40.42000 912.166
40.44000 947.217
40.46000 982.202
40.48000 1006.171
40.50000 1023.753
40.52000 1038.233
40.54000 1046.861
40.56000 1040.079
40.58000 1025.074
40.60000 1015.448
40.62000 1003.567
40.64000 997.992
40.66000 976.002
40.68000 949.455
40.70000 918.219
40.72000 896.326
40.74000 870.302
40.76000 831.895
40.78000 805.001
40.80000 790.694
40.82000 765.371
40.84000 723.444
40.86000 690.957
40.88000 654.546
40.90000 631.478
40.92000 614.639
40.94000 574.364
40.96000 545.925
40.98000 522.784
41.00000 502.141
41.02000 470.181
41.04000 449.640
41.06000 425.981
41.08000 406.327
41.10000 380.336
41.12000 359.584
41.14000 339.329
41.16000 316.943
41.18000 308.578
41.20000 290.656
41.22000 269.244
41.24000 257.578
41.26000 249.804
41.28000 236.465
41.30000 224.167
41.32000 217.458
41.34000 196.806
41.36000 183.862
41.38000 177.066
41.40000 171.247
41.42000 158.174
41.44000 145.838
41.46000 141.559
41.48000 140.770
41.50000 131.886
41.52000 122.335
41.54000 116.068
41.56000 108.968
41.58000 110.274
41.60000 104.923
41.62000 103.720
41.64000 96.200
41.66000 88.614
41.68000 80.196
41.70000 83.501
41.72000 79.909
41.74000 75.879
41.76000 71.121
41.78000 66.864
41.80000 65.651
41.82000 64.307
41.84000 61.533
41.86000 52.522
41.88000 51.799
41.90000 52.283
41.92000 47.377
41.94000 45.252
41.96000 45.345
41.98000 42.459
42.00000 42.138
42.02000 42.584
42.04000 44.215
42.06000 36.691
42.08000 29.536
42.10000 28.086
42.12000 27.218
42.14000 27.178
42.16000 30.117
42.18000 28.076
42.20000 28.284
42.22000 29.138
42.24000 25.247
42.26000 22.412
42.28000 21.088
42.30000 20.944
42.32000 24.307
42.34000 23.496
42.36000 21.153
42.38000 18.249
42.40000 18.769
42.42000 19.611
42.44000 14.302
42.46000 11.773
42.48000 17.408
42.50000 13.611
42.52000 10.302
42.54000 8.370
42.56000 8.791
42.58000 9.192
42.60000 7.975
42.62000 8.920
42.64000 7.873
42.66000 13.073
42.68000 11.498
42.70000 9.714
42.72000 11.031
42.74000 11.607
42.76000 11.643
42.78000 12.631
42.80000 10.219
42.82000 12.255
42.84000 10.715
42.86000 10.671
42.88000 2.734
42.90000 4.659
42.92000 8.288
42.94000 4.522
42.96000 8.063
42.98000 5.788
43.00000 2.343
43.02000 3.072
43.04000 2.498
43.06000 2.683
43.08000 3.319
43.10000 1.688
43.12000 0.383
43.14000 3.289
43.16000 -1.761
43.18000 -0.206
43.20000 3.331
43.22000 5.605
43.24000 2.379
43.26000 3.921
43.28000 2.240
43.30000 4.849
43.32000 1.108
43.34000 1.446
43.36000 1.914
43.38000 0.834
43.40000 2.894
43.42000 3.702
43.44000 1.526
43.46000 2.787
43.48000 2.646
43.50000 2.966
43.52000 -0.393
43.54000 -0.848
43.56000 -0.783
43.58000 -0.538
43.60000 -3.345
43.62000 -2.303
43.64000 1.953
43.66000 0.887
43.68000 0.443
43.70000 2.248
43.72000 1.317
43.74000 0.955
43.76000 -1.301
43.78000 3.850
43.80000 2.324
43.82000 2.247
43.84000 1.749
43.86000 0.498
43.88000 0.152
43.90000 -0.223
43.92000 -2.333
43.94000 1.492
43.96000 -1.122
43.98000 -0.292
44.00000 3.062
44.02000 4.017
44.04000 2.825
44.06000 1.583
44.08000 1.458
44.10000 0.170
44.12000 5.038
44.14000 5.333
44.16000 2.524
44.18000 0.482
44.20000 -0.537
44.22000 2.651
44.24000 4.796
44.26000 -0.013
44.28000 -3.222
44.30000 1.134
44.32000 0.669
44.34000 0.092
44.36000 -1.269
44.38000 1.454
44.40000 0.496
44.42000 0.121
44.44000 -0.594
44.46000 5.319
44.48000 4.400
44.50000 2.774
44.52000 3.362
44.54000 4.409
44.56000 2.147
44.58000 1.222
44.60000 1.715
44.62000 -1.202
44.64000 -3.183
44.66000 -0.430
44.68000 4.450
44.70000 5.196
44.72000 1.802
44.74000 3.617
44.76000 3.355
44.78000 0.424
44.80000 2.087
44.82000 3.728
44.84000 1.340
44.86000 -0.827
44.88000 2.283
44.90000 3.286
44.92000 -0.050
44.94000 -0.528
44.96000 -3.180
44.98000 -0.913
45.00000 -0.500
45.02000 1.514
45.04000 4.181
45.06000 3.540
45.08000 4.302
45.10000 4.190
45.12000 2.441
45.14000 -0.503
45.16000 -0.669
45.18000 1.124
45.20000 0.459
45.22000 1.705
45.24000 -0.175
45.26000 3.559
45.28000 0.379
45.30000 1.225
45.32000 -1.321
45.34000 -2.255
45.36000 2.681
45.38000 4.840
45.40000 6.215
45.42000 4.649
45.44000 -0.656
45.46000 -1.764
45.48000 1.547
45.50000 1.358
45.52000 0.527
45.54000 2.021
45.56000 0.983
45.58000 3.182
45.60000 2.351
45.62000 2.386
45.64000 6.736
45.66000 5.561
45.68000 2.407
45.70000 0.902
45.72000 2.049
45.74000 3.007
45.76000 4.413
45.78000 6.164
45.80000 4.076
45.82000 3.396
45.84000 4.042
45.86000 6.775
45.88000 8.263
45.90000 6.009
45.92000 4.227
45.94000 6.261
45.96000 7.913
45.98000 6.640
46.00000 9.937
46.02000 10.253
46.04000 9.907
46.06000 10.767
46.08000 12.048
46.10000 9.448
46.12000 10.345
46.14000 13.848
46.16000 17.891
46.18000 17.756
46.20000 18.030
46.22000 20.611
46.24000 19.877
46.26000 24.128
46.28000 23.339
46.30000 24.513
46.32000 19.853
46.34000 20.406
46.36000 21.977
46.38000 22.862
46.40000 22.825
46.42000 25.537
46.44000 26.221
46.46000 27.308
46.48000 32.253
46.50000 29.941
46.52000 27.130
46.54000 30.763
46.56000 33.081
46.58000 39.004
46.60000 38.750
46.62000 41.381
46.64000 43.389
46.66000 43.488
46.68000 49.823
46.70000 47.730
46.72000 50.708
46.74000 58.778
46.76000 61.290
46.78000 61.193
46.80000 61.637
46.82000 66.201
46.84000 66.844
46.86000 68.833
46.88000 66.361
46.90000 72.934
46.92000 79.425
46.94000 77.317
46.96000 78.701
46.98000 87.837
47.00000 86.035
47.02000 87.955
47.04000 92.932
47.06000 90.420
47.08000 96.405
47.10000 90.606
47.12000 93.423
47.14000 96.229
47.16000 99.440
47.18000 98.531
47.20000 94.578
47.22000 99.340
47.24000 98.192
47.26000 98.384
47.28000 100.095
47.30000 93.555
47.32000 94.095
47.34000 95.465
47.36000 89.477
47.38000 92.284
47.40000 95.799
47.42000 95.737
47.44000 88.536
47.46000 83.713
47.48000 81.765
47.50000 78.088
47.52000 78.101
47.54000 78.667
47.56000 72.126
47.58000 70.286
47.60000 66.783
47.62000 64.772
47.64000 64.388
47.66000 59.608
47.68000 53.118
47.70000 52.982
47.72000 50.841
47.74000 50.837
47.76000 47.472
47.78000 47.739
47.80000 44.560
47.82000 42.941
47.84000 41.720
47.86000 40.279
47.88000 35.062
47.90000 29.009
47.92000 28.874
47.94000 27.015
47.96000 27.037
47.98000 20.853
48.00000 18.034
48.02000 22.385
48.04000 22.097
48.06000 17.603
48.08000 13.665
48.10000 19.297
48.12000 16.810
48.14000 14.180
48.16000 14.909
48.18000 17.576
48.20000 15.570
48.22000 13.707
48.24000 12.651
48.26000 10.458
48.28000 7.987
48.30000 11.041
48.32000 17.119
48.34000 12.801
48.36000 4.831
48.38000 9.802
48.40000 12.423
48.42000 9.994
48.44000 7.075
48.46000 4.407
48.48000 6.190
48.50000 3.982
48.52000 2.416
48.54000 6.179
48.56000 6.480
48.58000 6.667
48.60000 6.960
48.62000 5.360
48.64000 4.158
48.66000 4.400
48.68000 2.734
48.70000 4.328
48.72000 0.723
48.74000 -1.093
48.76000 3.201
48.78000 2.010
48.80000 1.995
48.82000 0.008
48.84000 -0.955
48.86000 -2.679
48.88000 0.254
48.90000 3.402
48.92000 4.119
48.94000 2.548
48.96000 0.765
48.98000 -2.651
49.00000 -2.648
49.02000 -1.130
49.04000 -0.328
49.06000 0.574
49.08000 -0.433
49.10000 2.771
49.12000 4.523
49.14000 3.680
49.16000 0.950
49.18000 -1.406
49.20000 1.385
49.22000 3.843
49.24000 1.650
49.26000 -0.415
49.28000 2.571
49.30000 4.219
49.32000 3.263
49.34000 5.065
49.36000 3.431
49.38000 2.748
49.40000 3.453
49.42000 -0.107
49.44000 -1.067
49.46000 -2.419
49.48000 0.771
49.50000 0.793
49.52000 -0.361
49.54000 -1.405
49.56000 1.379
49.58000 0.276
49.60000 1.039
49.62000 2.968
49.64000 1.620
49.66000 1.683
49.68000 3.722
49.70000 2.347
49.72000 5.871
49.74000 4.015
49.76000 0.092
49.78000 3.214
49.80000 5.057
49.82000 5.123
49.84000 1.610
49.86000 2.401
49.88000 2.582
49.90000 5.536
49.92000 1.409
49.94000 1.748
49.96000 3.150
49.98000 0.409
50.00000 1.366
50.02000 1.688
50.04000 3.874
50.06000 -0.657
50.08000 -2.479
50.10000 -0.561
50.12000 2.846
50.14000 4.493
50.16000 5.036
50.18000 6.442
50.20000 2.712
50.22000 2.173
50.24000 3.615
50.26000 2.691
50.28000 0.206
50.30000 3.696
50.32000 4.127
50.34000 4.297
50.36000 2.380
50.38000 2.258
50.40000 3.039
50.42000 3.223
50.44000 3.328
50.46000 3.297
50.48000 5.262
50.50000 1.278
50.52000 -0.317
50.54000 -0.938
50.56000 2.172
50.58000 3.207
50.60000 0.702
50.62000 -0.693
50.64000 2.751
50.66000 5.315
50.68000 6.160
50.70000 4.863
50.72000 4.303
50.74000 3.033
50.76000 0.774
50.78000 -2.465
50.80000 1.159
50.82000 1.186
50.84000 2.567
50.86000 5.409
50.88000 5.119
50.90000 3.870
50.92000 3.131
50.94000 3.036
50.96000 3.547
50.98000 -0.704
51.00000 -2.123
51.02000 -0.252
51.04000 -1.308
51.06000 -0.069
51.08000 2.341
51.10000 3.615
51.12000 2.558
51.14000 -0.826
51.16000 2.375
51.18000 5.480
51.20000 3.527
51.22000 0.263
51.24000 1.156
51.26000 2.778
51.28000 -1.835
51.30000 -2.455
51.32000 0.199
51.34000 0.378
51.36000 -0.633
51.38000 1.340
51.40000 5.399
51.42000 4.786
51.44000 -1.353
51.46000 -0.549
51.48000 -0.188
51.50000 2.666
51.52000 3.277
51.54000 -0.200
51.56000 2.885
51.58000 -2.444
51.60000 0.052
51.62000 2.938
51.64000 3.052
51.66000 1.684
51.68000 2.202
51.70000 3.889
51.72000 2.014
51.74000 2.196
51.76000 4.909
51.78000 5.445
51.80000 -0.564
51.82000 -0.260
51.84000 1.273
51.86000 2.817
51.88000 -0.750
51.90000 0.626
51.92000 3.646
51.94000 3.080
51.96000 -0.890
51.98000 2.383
52.00000 0.359
52.02000 0.683
52.04000 2.546
52.06000 0.625
52.08000 0.938
52.10000 0.458
52.12000 1.104
52.14000 1.015
52.16000 2.329
52.18000 4.396
52.20000 2.859
52.22000 2.445
52.24000 3.032
52.26000 4.826
52.28000 0.704
52.30000 -0.374
52.32000 -2.408
52.34000 -1.022
52.36000 2.605
52.38000 6.222
52.40000 4.657
52.42000 2.170
52.44000 -1.156
52.46000 2.823
52.48000 1.568
52.50000 -2.273
52.52000 0.151
52.54000 -0.661
52.56000 -0.113
52.58000 -1.610
52.60000 0.127
52.62000 5.262
52.64000 3.050
52.66000 1.506
52.68000 1.060
52.70000 2.884
52.72000 3.409
52.74000 2.518
52.76000 3.041
52.78000 -0.895
52.80000 -1.745
52.82000 0.392
52.84000 1.317
52.86000 0.822
52.88000 1.967
52.90000 2.228
52.92000 2.217
52.94000 0.170
52.96000 -2.385
52.98000 -0.171
53.00000 1.498
53.02000 1.459
53.04000 2.050
53.06000 1.738
53.08000 4.836
53.10000 6.090
53.12000 6.477
53.14000 4.773
53.16000 1.315
53.18000 0.416
53.20000 -0.409
53.22000 0.302
53.24000 0.580
53.26000 -1.149
53.28000 -1.201
53.30000 -0.647
53.32000 -0.731
53.34000 -0.449
53.36000 -0.138
53.38000 -1.243
53.40000 -0.021
53.42000 3.896
53.44000 2.169
53.46000 -1.933
53.48000 1.793
53.50000 1.632
53.52000 1.102
53.54000 0.936
53.56000 -1.103
53.58000 -2.367
53.60000 -1.568
53.62000 3.120
53.64000 2.511
53.66000 1.422
53.68000 2.914
53.70000 4.408
53.72000 5.885
53.74000 4.271
53.76000 3.280
53.78000 2.575
53.80000 3.905
53.82000 2.216
53.84000 0.764
53.86000 3.772
53.88000 3.519
53.90000 1.139
53.92000 -0.009
53.94000 1.939
53.96000 2.856
53.98000 1.866
54.00000 3.281
54.02000 2.556
54.04000 4.483
54.06000 4.008
54.08000 4.226
54.10000 2.755
54.12000 2.773
54.14000 2.794
54.16000 3.495
54.18000 3.423
54.20000 4.573
54.22000 0.848
54.24000 1.333
54.26000 2.602
54.28000 4.063
54.30000 5.043
54.32000 3.426
54.34000 1.876
54.36000 1.950
54.38000 -2.308
54.40000 2.375
54.42000 5.742
54.44000 4.456
54.46000 2.728
54.48000 4.887
54.50000 5.881
54.52000 4.410
54.54000 3.927
54.56000 0.108
54.58000 1.889
54.60000 2.381
54.62000 1.152
54.64000 1.546
54.66000 1.783
54.68000 1.227
54.70000 -0.335
54.72000 5.213
54.74000 6.887
54.76000 3.304
54.78000 4.419
54.80000 5.644
54.82000 0.492
54.84000 2.955
54.86000 3.897
54.88000 3.564
54.90000 3.740
54.92000 3.351
54.94000 4.140
54.96000 2.426
54.98000 -0.276
55.00000 2.093
55.02000 2.940
55.04000 0.124
55.06000 -0.216
55.08000 2.087
55.10000 -0.852
55.12000 -1.733
55.14000 -0.251
55.16000 3.487
55.18000 3.166
55.20000 4.179
55.22000 0.793
55.24000 1.489
55.26000 4.214
55.28000 4.482
55.30000 3.079
55.32000 3.045
55.34000 -0.907
55.36000 0.924
55.38000 4.170
55.40000 2.636
55.42000 4.300
55.44000 2.365
55.46000 -0.279
55.48000 -2.342
55.50000 -1.313
55.52000 2.860
55.54000 2.883
55.56000 0.901
55.58000 0.235
55.60000 0.053
55.62000 0.177
55.64000 -0.059
55.66000 1.898
55.68000 4.118
55.70000 0.835
55.72000 -0.588
55.74000 1.403
55.76000 0.953
55.78000 2.586
55.80000 -0.233
55.82000 1.312
55.84000 0.773
55.86000 1.217
55.88000 2.357
55.90000 1.979
55.92000 -0.714
55.94000 1.407
55.96000 2.854
55.98000 2.875
56.00000 -0.330
56.02000 0.121
56.04000 -0.782
56.06000 -0.759
56.08000 -0.239
56.10000 1.025
56.12000 0.885
56.14000 1.671
56.16000 1.279
56.18000 0.937
56.20000 2.769
56.22000 2.779
56.24000 -0.421
56.26000 -2.308
56.28000 -1.871
56.30000 1.549
56.32000 1.568
56.34000 1.987
56.36000 -0.757
56.38000 2.720
56.40000 0.985
56.42000 5.368
56.44000 7.031
56.46000 1.566
56.48000 -1.131
56.50000 1.190
56.52000 5.429
56.54000 3.872
56.56000 0.809
56.58000 1.048
56.60000 0.741
56.62000 2.483
56.64000 3.789
56.66000 3.500
56.68000 1.276
56.70000 2.664
56.72000 2.674
56.74000 4.001
56.76000 0.982
56.78000 -0.964
56.80000 0.613
56.82000 0.619
56.84000 -0.334
56.86000 0.876
56.88000 -0.092
56.90000 1.375
56.92000 3.513
56.94000 5.747
56.96000 4.515
56.98000 0.471
57.00000 -2.271
57.02000 -0.433
57.04000 1.990
57.06000 4.483
57.08000 2.543
57.10000 4.252
57.12000 2.375
57.14000 4.993
57.16000 5.009
57.18000 3.604
57.20000 1.080
57.22000 1.485
57.24000 3.048
57.26000 3.071
57.28000 2.262
57.30000 1.630
57.32000 0.672
57.34000 -1.561
57.36000 -1.260
57.38000 -0.354
57.40000 -1.074
57.42000 0.383
57.44000 4.344
57.46000 5.484
57.48000 4.235
57.50000 -2.268
57.52000 -1.252
57.54000 0.781
57.56000 0.891
57.58000 1.951
57.60000 -0.249
57.62000 0.038
57.64000 0.804
57.66000 3.059
57.68000 4.044
57.70000 1.314
57.72000 0.781
57.74000 2.936
57.76000 -0.257
57.78000 1.776
57.80000 1.884
57.82000 2.117
57.84000 3.859
57.86000 1.911
57.88000 3.030
57.90000 1.681
57.92000 1.938
57.94000 1.681
57.96000 0.468
57.98000 -2.264
58.00000 0.627
58.02000 2.830
58.04000 2.687
58.06000 -2.004
58.08000 -0.377
58.10000 3.450
58.12000 1.767
58.14000 1.453
58.16000 0.699
58.18000 0.411
58.20000 1.334
58.22000 1.926
58.24000 2.187
58.26000 0.818
58.28000 2.580
58.30000 1.708
58.32000 -1.258
58.34000 -0.142
58.36000 -0.213
58.38000 0.618
58.40000 0.646
58.42000 -0.554
58.44000 -0.775
58.46000 2.164
58.48000 4.460
58.50000 1.841
58.52000 0.794
58.54000 -0.518
58.56000 -1.504
58.58000 2.631
58.60000 0.994
58.62000 1.998
58.64000 3.934
58.66000 3.572
58.68000 3.008
58.70000 1.748
58.72000 3.664
58.74000 1.516
58.76000 0.160
58.78000 2.507
58.80000 0.263
58.82000 0.336
58.84000 -0.006
58.86000 2.154
58.88000 0.881
58.90000 -2.217
58.92000 -0.033
58.94000 4.649
58.96000 6.272
58.98000 4.741
59.00000 3.022
59.02000 0.868
59.04000 3.514
59.06000 4.200
59.08000 2.278
59.10000 1.879
59.12000 0.315
59.14000 0.417
59.16000 2.710
59.18000 -1.507
59.20000 -1.033
59.22000 2.519
59.24000 0.989
59.26000 1.512
59.28000 1.449
59.30000 2.528
59.32000 1.355
59.34000 4.992
59.36000 3.990
59.38000 2.429
59.40000 3.702
59.42000 1.769
59.44000 0.593
59.46000 2.846
59.48000 5.534
59.50000 5.050
59.52000 4.557
59.54000 3.751
59.56000 1.559
59.58000 2.017
59.60000 2.342
59.62000 1.203
59.64000 -2.194
59.66000 -0.018
59.68000 2.393
59.70000 4.222
59.72000 -1.338
59.74000 2.141
59.76000 5.309
59.78000 3.778
59.80000 0.263
59.82000 1.495
59.84000 2.010
59.86000 -0.132
59.88000 0.138
59.90000 1.448
59.92000 -1.358
59.94000 -1.234
59.96000 0.145
59.98000 2.735
60.00000 3.225
60.02000 4.354
60.04000 2.964
60.06000 3.675
60.08000 3.902
60.10000 3.656
60.12000 1.594
60.14000 0.456
60.16000 3.500
60.18000 1.428
60.20000 1.595
60.22000 -2.148
60.24000 -1.072
60.26000 3.463
60.28000 4.387
60.30000 1.611
60.32000 2.213
60.34000 3.468
60.36000 2.187
60.38000 3.937
60.40000 2.539
60.42000 4.053
60.44000 6.952
60.46000 4.239
60.48000 1.165
60.50000 2.569
60.52000 2.543
60.54000 4.719
60.56000 0.832
60.58000 2.036
60.60000 3.346
60.62000 2.274
60.64000 2.798
60.66000 7.358
60.68000 3.771
60.70000 1.929
60.72000 0.523
60.74000 -0.413
60.76000 2.122
60.78000 1.391
60.80000 1.242
60.82000 3.015
60.84000 4.649
60.86000 3.218
60.88000 1.036
60.90000 0.481
60.92000 1.221
60.94000 0.708
60.96000 -0.039
60.98000 4.072
61.00000 5.447
61.02000 2.157
61.04000 3.970
61.06000 4.781
61.08000 5.378
61.10000 2.183
61.12000 0.137
61.14000 -1.378
61.16000 -2.137
61.18000 1.635
61.20000 2.293
61.22000 2.230
61.24000 3.759
61.26000 5.668
61.28000 3.047
61.30000 0.369
61.32000 1.152
61.34000 2.202
61.36000 1.809
61.38000 2.549
61.40000 4.254
61.42000 3.131
61.44000 0.972
61.46000 -2.130
61.48000 -1.253
61.50000 -2.135
61.52000 1.974
61.54000 2.942
61.56000 2.305
61.58000 3.262
61.60000 2.117
61.62000 1.806
61.64000 1.685
61.66000 1.388
61.68000 -1.499
61.70000 0.783
61.72000 1.125
61.74000 1.171
61.76000 2.640
61.78000 2.638
61.80000 0.722
61.82000 5.733
61.84000 3.069
61.86000 2.254
61.88000 2.692
61.90000 0.034
61.92000 -1.169
61.94000 -0.294
61.96000 -1.254
61.98000 1.565
62.00000 1.287
62.02000 0.169
62.04000 1.355
62.06000 0.711
62.08000 -1.274
62.10000 -0.507
62.12000 -0.196
62.14000 -1.724
62.16000 -0.833
62.18000 -0.871
62.20000 -0.406
62.22000 0.205
62.24000 1.388
62.26000 0.748
62.28000 2.568
62.30000 3.144
62.32000 1.913
62.34000 1.028
62.36000 0.343
62.38000 0.791
62.40000 1.742
62.42000 -0.358
62.44000 0.620
62.46000 1.547
62.48000 -0.672
62.50000 -0.265
62.52000 1.591
62.54000 2.554
62.56000 0.967
62.58000 -0.589
62.60000 -1.328
62.62000 2.246
62.64000 0.076
62.66000 1.916
62.68000 -0.573
62.70000 -0.545
62.72000 -2.067
62.74000 0.501
62.76000 1.696
62.78000 0.700
62.80000 3.104
62.82000 3.002
62.84000 3.948
62.86000 2.895
62.88000 1.791
62.90000 -1.566
62.92000 -2.127
62.94000 -1.983
62.96000 -0.306
62.98000 2.578
63.00000 1.248
63.02000 0.997
63.04000 -0.534
63.06000 1.325
63.08000 3.804
63.10000 3.651
63.12000 1.618
63.14000 -0.102
63.16000 -0.949
63.18000 -1.121
63.20000 1.056
63.22000 1.020
63.24000 -0.560
63.26000 -0.256
63.28000 1.281
63.30000 0.926
63.32000 2.683
63.34000 0.036
63.36000 -0.527
63.38000 1.227
63.40000 4.088
63.42000 1.172
63.44000 -1.247
63.46000 -0.253
63.48000 -2.155
63.50000 -1.575
63.52000 3.620
63.54000 4.364
63.56000 1.283
63.58000 -0.344
63.60000 -1.056
63.62000 -1.500
63.64000 -0.938
63.66000 1.749
63.68000 -2.158
63.70000 -1.609
63.72000 -1.951
63.74000 -0.777
63.76000 2.082
63.78000 3.293
63.80000 0.810
63.82000 -0.713
63.84000 0.265
63.86000 0.344
63.88000 0.301
63.90000 -0.295
63.92000 0.889
63.94000 2.249
63.96000 2.357
63.98000 0.735
64.00000 -0.909
64.02000 1.063
64.04000 -0.815
64.06000 -0.009
64.08000 2.325
64.10000 -0.666
64.12000 0.793
64.14000 -0.676
64.16000 0.120
64.18000 -0.744
64.20000 0.585
64.22000 2.357
64.24000 2.859
64.26000 2.396
64.28000 1.202
64.30000 0.800
64.32000 1.577
64.34000 -0.276
64.36000 1.565
64.38000 2.510
64.40000 0.890
64.42000 0.613
64.44000 -1.064
64.46000 -0.249
64.48000 0.785
64.50000 0.311
64.52000 -0.902
64.54000 0.109
64.56000 0.802
64.58000 1.910
64.60000 3.998
64.62000 4.771
64.64000 3.623
64.66000 3.587
64.68000 1.702
64.70000 2.069
64.72000 3.106
64.74000 1.460
64.76000 -0.854
64.78000 2.623
64.80000 1.630
64.82000 0.327
64.84000 -2.120
64.86000 0.536
64.88000 2.507
64.90000 1.983
64.92000 0.148
64.94000 1.571
64.96000 3.108
64.98000 2.362
65.00000 -1.207
65.02000 0.875
65.04000 -0.604
65.06000 0.415
65.08000 0.733
65.10000 -0.476
65.12000 1.737
65.14000 2.026
65.16000 4.063
65.18000 2.484
65.20000 1.525
65.22000 0.242
65.24000 -2.144
65.26000 0.993
65.28000 1.036
65.30000 0.179
65.32000 1.656
65.34000 3.248
65.36000 1.973
65.38000 2.229
65.40000 4.561
65.42000 1.713
65.44000 -0.187
65.46000 0.404
65.48000 -0.069
65.50000 -0.371
65.52000 -0.350
65.54000 1.087
65.56000 2.895
65.58000 0.047
65.60000 -1.816
65.62000 0.340
65.64000 0.480
65.66000 -0.938
65.68000 0.277
65.70000 0.280
65.72000 -0.485
65.74000 -1.170
65.76000 -1.240
65.78000 2.804
65.80000 0.634
65.82000 0.253
65.84000 1.318
65.86000 0.063
65.88000 -1.806
65.90000 -1.153
65.92000 -2.155
65.94000 -1.085
65.96000 0.625
65.98000 0.653
66.00000 0.973
66.02000 1.718
66.04000 -0.285
66.06000 -1.104
66.08000 -0.933
66.10000 0.228
66.12000 -1.308
66.14000 -0.478
66.16000 0.729
66.18000 1.748
66.20000 1.050
66.22000 0.393
66.24000 3.162
66.26000 3.308
66.28000 2.908
66.30000 0.456
66.32000 -0.474
66.34000 -0.581
66.36000 -2.154
66.38000 -1.846
66.40000 0.558
66.42000 0.713
66.44000 0.752
66.46000 1.348
66.48000 -0.412
66.50000 1.682
66.52000 0.122
66.54000 0.857
66.56000 -1.318
66.58000 -0.811
66.60000 2.421
66.62000 4.055
66.64000 1.779
66.66000 -0.231
66.68000 -0.217
66.70000 1.296
66.72000 3.504
66.74000 2.756
66.76000 -0.350
66.78000 -2.145
66.80000 -2.145
66.82000 0.476
66.84000 1.178
66.86000 0.386
66.88000 -0.026
66.90000 -0.835
66.92000 -1.275
66.94000 1.679
66.96000 0.470
66.98000 -1.141
67.00000 -0.263
67.02000 -0.981
67.04000 -1.020
67.06000 0.738
67.08000 -1.002
67.10000 -1.783
67.12000 -1.881
67.14000 -1.062
67.16000 1.283
67.18000 1.255
67.20000 0.491
67.22000 -0.247
67.24000 -1.043
67.26000 0.769
67.28000 0.234
67.30000 2.043
67.32000 1.544
67.34000 0.306
67.36000 1.559
67.38000 2.077
67.40000 0.118
67.42000 -0.393
67.44000 1.226
67.46000 -1.044
67.48000 0.610
67.50000 1.054
67.52000 -0.357
67.54000 -0.159
67.56000 2.630
67.58000 2.222
67.60000 2.061
67.62000 0.432
67.64000 -0.334
67.66000 -2.162
67.68000 0.081
67.70000 0.568
67.72000 -1.916
67.74000 -0.252
67.76000 -0.083
67.78000 2.322
67.80000 1.391
67.82000 -1.926
67.84000 -1.434
67.86000 -1.510
67.88000 -0.109
67.90000 0.637
67.92000 0.931
67.94000 0.603
67.96000 0.303
67.98000 1.455
68.00000 1.535
68.02000 1.500
68.04000 -1.136
68.06000 -0.573
68.08000 4.960
68.10000 1.710
68.12000 0.153
68.14000 2.906
68.16000 2.919
68.18000 2.978
68.20000 2.894
68.22000 4.007
68.24000 1.373
68.26000 1.607
68.28000 1.688
68.30000 2.943
68.32000 2.239
68.34000 4.179
68.36000 4.330
68.38000 4.234
68.40000 6.266
68.42000 2.075
68.44000 4.594
68.46000 4.754
68.48000 5.464
68.50000 9.302
68.52000 8.116
68.54000 11.698
68.56000 9.495
68.58000 6.831
68.60000 9.582
68.62000 11.198
68.64000 10.823
68.66000 10.205
68.68000 8.543
68.70000 11.854
68.72000 12.514
68.74000 14.566
68.76000 15.540
68.78000 13.853
68.80000 11.657
68.82000 14.170
68.84000 14.921
68.86000 14.413
68.88000 16.718
68.90000 20.032
68.92000 21.406
68.94000 19.516
68.96000 21.983
68.98000 22.331
69.00000 21.447
69.02000 21.906
69.04000 21.635
69.06000 19.777
69.08000 16.589
69.10000 17.616
69.12000 20.839
69.14000 18.424
69.16000 20.247
69.18000 20.572
69.20000 20.545
69.22000 20.485
69.24000 20.321
69.26000 19.181
69.28000 19.219
69.30000 17.411
69.32000 19.191
69.34000 17.062
69.36000 13.396
69.38000 12.929
69.40000 11.395
69.42000 10.710
69.44000 10.938
69.46000 9.382
69.48000 8.193
69.50000 11.390
69.52000 11.569
69.54000 8.327
69.56000 7.546
69.58000 8.113
69.60000 5.736
69.62000 2.494
69.64000 3.262
69.66000 6.917
69.68000 4.087
69.70000 6.200
69.72000 6.681
69.74000 5.363
69.76000 5.351
69.78000 4.169
69.80000 4.620
69.82000 4.729
69.84000 3.812
69.86000 2.600
69.88000 0.546
69.90000 -0.247
69.92000 0.358
69.94000 3.355
69.96000 4.981
69.98000 5.098
70.00000 0.706
70.02000 -1.991
70.04000 0.255
70.06000 3.721
70.08000 3.263
70.10000 0.484
70.12000 3.692
70.14000 1.187
70.16000 -0.719
70.18000 0.608
70.20000 0.903
70.22000 0.264
70.24000 1.638
70.26000 1.881
70.28000 1.662
70.30000 0.609
70.32000 0.507
70.34000 0.569
70.36000 -0.199
70.38000 0.075
70.40000 2.496
70.42000 4.402
70.44000 1.612
70.46000 -0.966
70.48000 0.823
70.50000 1.031
70.52000 2.443
70.54000 2.495
70.56000 2.063
70.58000 3.726
70.60000 0.010
70.62000 0.129
70.64000 -0.406
70.66000 -0.072
70.68000 1.580
70.70000 1.261
70.72000 2.876
70.74000 2.545
70.76000 0.483
70.78000 2.936
70.80000 2.989
70.82000 -2.021
70.84000 -0.802
70.86000 0.333
70.88000 1.468
70.90000 -0.004
70.92000 2.399
70.94000 1.943
70.96000 4.285
70.98000 1.144
71.00000 -1.350
71.02000 0.408
71.04000 3.621
71.06000 1.000
71.08000 -0.321
71.10000 1.418
71.12000 1.032
71.14000 2.190
71.16000 2.275
71.18000 5.789
71.20000 3.581
71.22000 4.264
71.24000 5.167
71.26000 2.689
71.28000 1.100
71.30000 1.877
71.32000 1.622
71.34000 1.425
71.36000 0.942
71.38000 3.374
71.40000 3.005
71.42000 2.567
71.44000 2.876
71.46000 3.991
71.48000 0.176
71.50000 -1.986
71.52000 0.298
71.54000 -0.696
71.56000 0.005
71.58000 0.414
71.60000 0.292
71.62000 0.450
71.64000 2.190
71.66000 2.945
71.68000 0.465
71.70000 2.333
71.72000 5.154
71.74000 1.789
71.76000 0.836
71.78000 1.809
71.80000 1.379
71.82000 1.382
71.84000 2.547
71.86000 3.799
71.88000 4.636
71.90000 3.433
71.92000 2.566
71.94000 1.511
71.96000 4.057
71.98000 0.957
72.00000 0.915
72.02000 1.408
72.04000 1.746
72.06000 -0.877
72.08000 1.648
72.10000 1.593
72.12000 -0.917
72.14000 0.543
72.16000 1.196
72.18000 -1.044
72.20000 -1.204
72.22000 -1.977
72.24000 1.268
72.26000 3.429
72.28000 2.349
72.30000 3.258
72.32000 3.188
72.34000 1.373
72.36000 0.948
72.38000 0.243
72.40000 3.853
72.42000 1.517
72.44000 0.243
72.46000 -1.147
72.48000 2.621
72.50000 3.042
72.52000 6.366
72.54000 4.786
72.56000 1.505
72.58000 0.864
72.60000 1.220
72.62000 -1.974
72.64000 -0.560
72.66000 -1.575
72.68000 -0.090
72.70000 2.006
72.72000 0.483
72.74000 0.512
72.76000 0.876
72.78000 2.513
72.80000 2.452
72.82000 0.863
72.84000 -0.325
72.86000 1.457
72.88000 0.817
72.90000 2.981
72.92000 1.336
72.94000 2.509
72.96000 0.628
72.98000 -1.958
73.00000 -0.814
73.02000 -1.228
73.04000 2.313
73.06000 2.165
73.08000 4.019
73.10000 5.916
73.12000 3.229
73.14000 -0.306
73.16000 1.152
73.18000 4.068
73.20000 2.837
73.22000 2.283
73.24000 3.012
73.26000 3.683
73.28000 1.671
73.30000 1.487
73.32000 -0.022
73.34000 -1.948
73.36000 0.608
73.38000 4.353
73.40000 3.652
73.42000 2.693
73.44000 2.053
73.46000 1.180
73.48000 4.339
73.50000 6.289
73.52000 2.670
73.54000 0.170
73.56000 1.596
73.58000 3.108
73.60000 2.136
73.62000 -1.954
73.64000 -0.634
73.66000 1.724
73.68000 1.489
73.70000 3.993
73.72000 0.391
73.74000 1.126
73.76000 2.509
73.78000 1.777
73.80000 1.071
73.82000 1.122
73.84000 0.767
73.86000 0.786
73.88000 -1.825
73.90000 -1.143
73.92000 0.348
73.94000 -1.931
73.96000 -0.267
73.98000 -1.964
74.00000 -1.104
74.02000 -0.585
74.04000 0.202
74.06000 0.082
74.08000 0.071
74.10000 2.309
74.12000 2.830
74.14000 -0.978
74.16000 -0.053
74.18000 -1.582
74.20000 -0.120
74.22000 0.106
74.24000 -0.891
74.26000 1.058
74.28000 -0.129
74.30000 -1.975
74.32000 2.802
74.34000 -0.025
74.36000 -0.999
74.38000 1.588
74.40000 2.882
74.42000 3.044
74.44000 4.619
74.46000 4.559
74.48000 3.548
74.50000 3.169
74.52000 3.072
74.54000 3.306
74.56000 0.935
74.58000 -0.918
74.60000 -0.603
74.62000 -0.092
74.64000 0.896
74.66000 1.653
74.68000 1.242
74.70000 1.763
74.72000 1.503
74.74000 1.182
74.76000 1.106
74.78000 1.714
74.80000 -1.197
74.82000 1.357
74.84000 2.275
74.86000 -0.575
74.88000 0.948
74.90000 0.889
74.92000 -0.992
74.94000 0.935
74.96000 -0.853
74.98000 0.524
75.00000 -1.755
75.02000 -1.425
75.04000 -0.072
75.06000 -0.624
75.08000 -1.964
75.10000 -1.530
75.12000 -0.050
75.14000 2.390
75.16000 0.315
75.18000 0.165
75.20000 1.226
75.22000 1.259
75.24000 -0.758
75.26000 0.953
75.28000 0.406
75.30000 0.383
75.32000 -0.888
75.34000 1.616
75.36000 3.316
75.38000 3.237
75.40000 2.272
75.42000 4.002
75.44000 5.419
75.46000 0.586
75.48000 -0.732
75.50000 0.876
75.52000 -0.914
75.54000 0.445
75.56000 1.124
75.58000 0.369
75.60000 0.171
75.62000 -0.624
75.64000 1.001
75.66000 -1.941
75.68000 0.593
75.70000 3.728
75.72000 2.357
75.74000 0.314
75.76000 0.762
75.78000 3.821
75.80000 2.516
75.82000 1.172
75.84000 1.498
75.86000 -1.471
75.88000 1.891
75.90000 2.486
75.92000 2.126
75.94000 2.744
75.96000 -0.053
75.98000 -1.283
76.00000 -1.873
76.02000 3.419
76.04000 3.282
76.06000 3.556
76.08000 2.520
76.10000 0.821
76.12000 2.242
76.14000 1.047
76.16000 1.268
76.18000 1.170
76.20000 0.263
76.22000 -0.319
76.24000 -0.034
76.26000 0.158
76.28000 1.463
76.30000 1.509
76.32000 2.084
76.34000 1.882
76.36000 0.553
76.38000 1.673
76.40000 0.058
76.42000 -1.307
76.44000 -1.831
76.46000 1.448
76.48000 -0.452
76.50000 -1.007
76.52000 1.545
76.54000 2.926
76.56000 3.344
76.58000 -0.473
76.60000 1.163
76.62000 6.423
76.64000 4.840
76.66000 0.623
76.68000 -0.975
76.70000 3.380
76.72000 2.436
76.74000 0.368
76.76000 1.192
76.78000 -0.659
76.80000 1.325
76.82000 2.028
76.84000 0.189
76.86000 -1.984
76.88000 -1.380
76.90000 0.730
76.92000 -0.294
76.94000 0.471
76.96000 0.044
76.98000 2.431
77.00000 1.378
77.02000 2.540
77.04000 -0.317
77.06000 -1.787
77.08000 -0.303
77.10000 1.672
77.12000 1.440
77.14000 1.731
77.16000 2.236
77.18000 3.422
77.20000 -0.004
77.22000 -1.828
77.24000 0.599
77.26000 0.822
77.28000 -0.414
77.30000 1.048
77.32000 2.920
77.34000 -1.977
77.36000 -0.882
77.38000 2.915
77.40000 1.993
77.42000 3.836
77.44000 4.520
77.46000 3.546
77.48000 1.940
77.50000 3.016
77.52000 3.041
77.54000 2.328
77.56000 5.764
77.58000 4.253
77.60000 0.538
77.62000 0.502
77.64000 4.968
77.66000 3.971
77.68000 2.905
77.70000 2.094
77.72000 4.794
77.74000 5.030
77.76000 3.457
77.78000 -0.891
77.80000 -1.961
77.82000 4.876
77.84000 7.545
77.86000 3.044
77.88000 1.772
77.90000 5.264
77.92000 7.109
77.94000 4.407
77.96000 0.465
77.98000 0.277
78.00000 0.431
78.02000 0.284
78.04000 0.216
78.06000 -0.184
78.08000 3.089
78.10000 4.333
78.12000 -0.207
78.14000 0.003
78.16000 2.738
78.18000 0.567
78.20000 1.996
78.22000 4.604
78.24000 4.350
78.26000 1.384
78.28000 -1.986
78.30000 0.824
78.32000 4.831
78.34000 2.554
78.36000 1.300
78.38000 1.759
78.40000 0.900
78.42000 2.305
78.44000 3.997
78.46000 3.290
78.48000 1.572
78.50000 2.512
78.52000 4.971
78.54000 2.910
78.56000 2.731
78.58000 0.718
78.60000 0.958
78.62000 3.636
78.64000 2.569
78.66000 1.171
78.68000 0.712
78.70000 2.165
78.72000 2.232
78.74000 1.937
78.76000 4.631
78.78000 4.336
78.80000 3.111
78.82000 -2.008
78.84000 -1.885
78.86000 -0.090
78.88000 1.071
78.90000 3.079
78.92000 1.633
78.94000 1.612
78.96000 2.009
78.98000 3.201
79.00000 3.415
79.02000 3.506
79.04000 2.298
79.06000 -0.083
79.08000 2.027
79.10000 1.129
79.12000 1.793
79.14000 2.809
79.16000 3.161
79.18000 1.028
79.20000 0.995
79.22000 1.146
79.24000 1.541
79.26000 4.796
79.28000 1.424
79.30000 2.109
79.32000 2.648
79.34000 2.632
79.36000 4.177
79.38000 -0.586
79.40000 2.486
79.42000 3.287
79.44000 0.820
79.46000 2.516
79.48000 3.412
79.50000 -0.398
79.52000 -1.182
79.54000 0.912
79.56000 2.944
79.58000 1.352
79.60000 1.612
79.62000 -0.640
79.64000 0.521
79.66000 -0.187
79.68000 2.787
79.70000 0.368
79.72000 -2.024
79.74000 1.261
79.76000 3.689
79.78000 2.408
79.80000 0.641
79.82000 -0.155
79.84000 1.659
79.86000 1.077
79.88000 1.845
79.90000 2.457
79.92000 -0.371
79.94000 0.683
79.96000 -0.654
79.98000 2.860
80.00000 1.503
80.02000 1.764
80.04000 2.259
80.06000 0.895
80.08000 1.118
80.10000 -1.012
80.12000 1.469
80.14000 -0.267
80.16000 0.610
80.18000 0.181
80.20000 1.239
80.22000 2.662
80.24000 4.152
80.26000 2.314
80.28000 0.199
80.30000 3.024
80.32000 2.436
80.34000 -0.778
80.36000 1.640
80.38000 3.032
80.40000 1.903
80.42000 2.254
80.44000 2.462
80.46000 0.241
80.48000 -0.573
80.50000 -1.683
80.52000 0.516
80.54000 1.575
80.56000 0.546
80.58000 -0.699
80.60000 -0.273
80.62000 -0.232
80.64000 -2.063
80.66000 -1.146
80.68000 0.669
80.70000 -0.962
80.72000 -0.384
80.74000 0.254
80.76000 -0.386
80.78000 -0.514
80.80000 -0.138
80.82000 -0.430
80.84000 0.080
80.86000 -1.855
80.88000 1.180
80.90000 1.863
80.92000 0.835
80.94000 -0.459
80.96000 2.307
80.98000 5.794
81.00000 2.816
81.02000 -0.557
81.04000 0.998
81.06000 0.609
81.08000 1.492
81.10000 2.123
81.12000 1.028
81.14000 -2.069
81.16000 0.824
81.18000 0.534
81.20000 0.758
81.22000 2.306
81.24000 4.522
81.26000 2.876
81.28000 1.666
81.30000 3.189
81.32000 1.382
81.34000 0.623
81.36000 1.526
81.38000 0.075
81.40000 -1.178
81.42000 0.704
81.44000 -0.463
81.46000 1.556
81.48000 5.269
81.50000 2.580
81.52000 3.671
81.54000 4.412
81.56000 -0.464
81.58000 -2.092
81.60000 -0.686
81.62000 -1.259
81.64000 -0.362
81.66000 3.225
81.68000 5.539
81.70000 4.238
81.72000 2.445
81.74000 2.367
81.76000 3.485
81.78000 2.139
81.80000 3.474
81.82000 1.626
81.84000 0.946
81.86000 3.636
81.88000 2.493
81.90000 0.902
81.92000 -0.418
81.94000 1.557
81.96000 -0.180
81.98000 1.121
82.00000 3.739
82.02000 7.105
82.04000 5.350
82.06000 3.380
82.08000 3.969
82.10000 5.782
82.12000 5.031
82.14000 1.492
82.16000 4.110
82.18000 4.968
82.20000 1.199
82.22000 0.363
82.24000 3.468
82.26000 5.440
82.28000 6.199
82.30000 7.486
82.32000 8.548
82.34000 6.630
82.36000 3.317
82.38000 1.635
82.40000 2.712
82.42000 3.436
82.44000 6.302
82.46000 11.070
82.48000 8.898
82.50000 7.876
82.52000 8.624
82.54000 11.939
82.56000 13.716
82.58000 13.797
82.60000 8.033
82.62000 6.436
82.64000 8.936
82.66000 13.695
82.68000 16.210
82.70000 19.111
82.72000 18.512
82.74000 18.783
82.76000 15.926
82.78000 18.929
82.80000 15.499
82.82000 18.615
82.84000 21.856
82.86000 24.561
82.88000 25.642
82.90000 25.615
82.92000 30.784
82.94000 28.175
82.96000 26.640
82.98000 26.140
83.00000 32.999
83.02000 34.852
83.04000 34.918
83.06000 35.463
83.08000 31.796
83.10000 33.328
83.12000 39.360
83.14000 36.850
83.16000 38.655
83.18000 42.370
83.20000 46.912
83.22000 44.897
83.24000 42.184
83.26000 43.044
83.28000 41.548
83.30000 41.637
83.32000 44.455
83.34000 42.249
83.36000 38.268
83.38000 38.127
83.40000 39.389
83.42000 45.483
83.44000 43.920
83.46000 39.513
83.48000 36.445
83.50000 36.185
83.52000 36.966
83.54000 40.682
83.56000 37.006
83.58000 41.633
83.60000 39.333
83.62000 35.287
83.64000 35.235
83.66000 35.286
83.68000 31.584
83.70000 31.651
83.72000 30.222
83.74000 28.863
83.76000 30.210
83.78000 29.823
83.80000 27.603
83.82000 25.279
83.84000 25.712
83.86000 25.184
83.88000 24.792
83.90000 18.514
83.92000 18.258
83.94000 22.912
83.96000 22.088
83.98000 21.861
84.00000 22.068
84.02000 17.461
84.04000 15.449
84.06000 14.076
84.08000 17.150
84.10000 16.602
84.12000 14.206
84.14000 10.598
84.16000 14.919
84.18000 12.173
84.20000 8.223
84.22000 9.909
84.24000 8.683
84.26000 6.694
84.28000 4.892
84.30000 5.443
84.32000 4.141
84.34000 2.307
84.36000 6.142
84.38000 8.710
84.40000 5.684
84.42000 4.834
84.44000 5.293
84.46000 5.761
84.48000 2.868
84.50000 5.081
84.52000 3.081
84.54000 2.867
84.56000 6.832
84.58000 3.794
84.60000 2.997
84.62000 4.496
84.64000 2.973
84.66000 5.828
84.68000 6.153
84.70000 5.231
84.72000 2.073
84.74000 -2.150
84.76000 2.263
84.78000 3.520
84.80000 0.748
84.82000 0.687
84.84000 0.518
84.86000 0.583
84.88000 -0.572
84.90000 -1.816
84.92000 3.090
84.94000 4.222
84.96000 3.790
84.98000 -0.848
85.00000 1.924
85.02000 2.056
85.04000 1.100
85.06000 -0.199
85.08000 0.344
85.10000 3.288
85.12000 3.678
85.14000 0.143
85.16000 -0.423
85.18000 -1.142
85.20000 1.573
85.22000 0.361
85.24000 -0.845
85.26000 1.792
85.28000 2.539
85.30000 5.833
85.32000 2.692
85.34000 0.941
85.36000 3.292
85.38000 4.298
85.40000 4.868
85.42000 3.942
85.44000 3.856
85.46000 3.435
85.48000 -0.732
85.50000 -2.013
85.52000 1.585
85.54000 6.287
85.56000 3.099
85.58000 0.470
85.60000 2.659
85.62000 2.893
85.64000 0.496
85.66000 0.655
85.68000 1.736
85.70000 0.473
85.72000 0.157
85.74000 0.639
85.76000 0.528
85.78000 0.966
85.80000 2.564
85.82000 3.795
85.84000 3.876
85.86000 5.638
85.88000 3.099
85.90000 0.423
85.92000 0.471
85.94000 2.715
85.96000 2.415
85.98000 3.562
86.00000 4.693
86.02000 1.668
86.04000 2.400
86.06000 4.488
86.08000 3.930
86.10000 2.324
86.12000 -1.986
86.14000 0.755
86.16000 3.743
86.18000 1.763
86.20000 3.834
86.22000 2.972
86.24000 0.912
86.26000 1.402
86.28000 2.859
86.30000 2.528
86.32000 0.260
86.34000 2.375
86.36000 3.040
86.38000 2.166
86.40000 0.781
86.42000 2.515
86.44000 1.770
86.46000 0.329
86.48000 2.300
86.50000 5.702
86.52000 4.602
86.54000 2.312
86.56000 -0.434
86.58000 3.979
86.60000 5.339
86.62000 2.993
86.64000 1.597
86.66000 3.697
86.68000 1.725
86.70000 -1.022
86.72000 0.057
86.74000 2.175
86.76000 3.741
86.78000 2.382
86.80000 -2.064
86.82000 2.920
86.84000 3.598
86.86000 4.902
86.88000 4.985
86.90000 6.623
86.92000 7.165
86.94000 6.761
86.96000 4.069
86.98000 5.844
87.00000 8.037
87.02000 8.768
87.04000 9.734
87.06000 10.432
87.08000 8.807
87.10000 8.916
87.12000 5.393
87.14000 4.376
87.16000 3.711
87.18000 5.923
87.20000 8.761
87.22000 11.237
87.24000 9.096
87.26000 9.818
87.28000 14.416
87.30000 13.980
87.32000 12.327
87.34000 13.888
87.36000 12.003
87.38000 13.086
87.40000 14.477
87.42000 13.694
87.44000 14.649
87.46000 19.320
87.48000 14.906
87.50000 14.815
87.52000 17.148
87.54000 19.282
87.56000 19.373
87.58000 19.511
87.60000 21.519
87.62000 23.096
87.64000 22.061
87.66000 20.775
87.68000 21.325
87.70000 24.445
87.72000 22.237
87.74000 19.221
87.76000 22.973
87.78000 26.174
87.80000 28.265
87.82000 24.980
87.84000 22.943
87.86000 26.267
87.88000 27.275
87.90000 24.174
87.92000 21.631
87.94000 22.843
87.96000 21.046
87.98000 19.118
88.00000 19.252
88.02000 20.909
88.04000 19.723
88.06000 19.381
88.08000 17.384
88.10000 18.241
88.12000 16.763
88.14000 19.447
88.16000 21.713
88.18000 25.369
88.20000 23.405
88.22000 19.403
88.24000 18.950
88.26000 19.592
88.28000 17.668
88.30000 16.265
88.32000 17.320
88.34000 15.894
88.36000 14.089
88.38000 12.735
88.40000 11.073
88.42000 10.884
88.44000 13.832
88.46000 10.869
88.48000 10.362
88.50000 8.943
88.52000 9.085
88.54000 8.040
88.56000 6.328
88.58000 9.197
88.60000 9.168
88.62000 9.465
88.64000 6.774
88.66000 8.172
88.68000 5.499
88.70000 2.565
88.72000 6.174
88.74000 4.654
88.76000 4.763
88.78000 2.425
88.80000 4.398
88.82000 4.883
88.84000 5.209
88.86000 4.080
88.88000 4.571
88.90000 1.665
88.92000 1.765
88.94000 4.431
88.96000 2.655
88.98000 1.140
89.00000 0.279
89.02000 -1.985
89.04000 -0.104
89.06000 1.696
89.08000 3.950
89.10000 3.535
89.12000 3.800
89.14000 2.171
89.16000 2.519
89.18000 3.017
89.20000 1.015
89.22000 3.178
89.24000 2.547
89.26000 6.666
89.28000 5.547
89.30000 2.964
89.32000 2.740
89.34000 0.245
89.36000 -0.598
89.38000 -0.307
89.40000 4.634
89.42000 3.644
89.44000 1.356
89.46000 0.191
89.48000 1.493
89.50000 2.975
89.52000 3.628
89.54000 2.293
89.56000 -1.923
89.58000 0.713
89.60000 2.896
89.62000 0.210
89.64000 -0.307
89.66000 -1.197
89.68000 1.962
89.70000 2.434
89.72000 0.627
89.74000 0.074
89.76000 4.211
89.78000 3.383
89.80000 2.463
89.82000 0.344
89.84000 0.450
89.86000 2.945
89.88000 3.741
89.90000 2.413
89.92000 1.493
89.94000 1.379
89.96000 1.962
89.98000 2.242
90.00000 1.441
90.02000 1.254
90.04000 2.198
90.06000 1.361
90.08000 0.851
90.10000 4.213
90.12000 -0.177
90.14000 1.032
90.16000 0.691
90.18000 -1.893
90.20000 1.962
90.22000 3.311
90.24000 0.351
90.26000 1.346
90.28000 3.315
90.30000 1.834
90.32000 1.701
90.34000 3.290
90.36000 1.123
90.38000 -0.213
90.40000 0.063
90.42000 1.379
90.44000 4.860
90.46000 4.028
90.48000 3.128
90.50000 4.799
90.52000 1.891
90.54000 1.655
90.56000 1.416
90.58000 0.800
90.60000 0.504
90.62000 1.013
90.64000 1.038
90.66000 3.511
90.68000 5.111
90.70000 3.812
90.72000 1.331
90.74000 2.962
90.76000 0.971
90.78000 -1.124
90.80000 2.778
90.82000 4.887
90.84000 4.741
90.86000 3.069
90.88000 -0.920
90.90000 -1.852
90.92000 3.693
90.94000 4.207
90.96000 6.831
90.98000 5.669
91.00000 5.040
91.02000 3.810
91.04000 3.901
91.06000 2.889
91.08000 2.472
91.10000 5.080
91.12000 3.150
91.14000 -1.851
91.16000 -1.073
91.18000 5.468
91.20000 6.729
91.22000 2.749
91.24000 2.049
91.26000 2.351
91.28000 2.424
91.30000 1.632
91.32000 2.855
91.34000 4.413
91.36000 1.030
91.38000 1.874
91.40000 1.089
91.42000 0.841
91.44000 3.496
91.46000 1.083
91.48000 0.098
91.50000 -0.393
91.52000 4.471
91.54000 1.219
91.56000 1.193
91.58000 0.879
91.60000 1.559
91.62000 1.913
91.64000 3.873
91.66000 6.176
91.68000 3.141
91.70000 1.665
91.72000 3.234
91.74000 0.758
91.76000 0.410
91.78000 2.549
91.80000 3.533
91.82000 4.102
91.84000 4.881
91.86000 0.130
91.88000 -1.885
91.90000 -0.119
91.92000 0.420
91.94000 2.081
91.96000 0.420
91.98000 -0.175
92.00000 1.058
92.02000 3.580
92.04000 3.897
92.06000 3.529
92.08000 -0.489
92.10000 -1.086
92.12000 -1.660
92.14000 0.008
92.16000 0.180
92.18000 0.193
92.20000 1.381
92.22000 1.260
92.24000 0.127
92.26000 -0.182
92.28000 1.931
92.30000 1.998
92.32000 1.438
92.34000 1.968
92.36000 0.355
92.38000 0.955
92.40000 4.823
92.42000 0.125
92.44000 -0.917
92.46000 0.772
92.48000 -0.350
92.50000 0.161
92.52000 -0.225
92.54000 1.545
92.56000 1.932
92.58000 1.629
92.60000 1.014
92.62000 -1.846
92.64000 0.520
92.66000 0.235
92.68000 -1.266
92.70000 0.450
92.72000 1.676
92.74000 2.200
92.76000 1.387
92.78000 -0.103
92.80000 -0.058
92.82000 -1.857
92.84000 1.705
92.86000 2.035
92.88000 3.922
92.90000 3.234
92.92000 6.630
92.94000 2.464
92.96000 0.791
92.98000 3.538
93.00000 2.740
93.02000 3.880
93.04000 0.938
93.06000 0.007
93.08000 3.048
93.10000 3.388
93.12000 0.892
93.14000 1.287
93.16000 1.470
93.18000 0.480
93.20000 1.711
93.22000 2.736
93.24000 2.969
93.26000 0.694
93.28000 2.825
93.30000 3.354
93.32000 2.571
93.34000 2.580
93.36000 3.176
93.38000 2.054
93.40000 2.764
93.42000 1.669
93.44000 3.620
93.46000 5.737
93.48000 4.000
93.50000 3.243
93.52000 2.620
93.54000 0.838
93.56000 1.960
93.58000 -0.544
93.60000 1.663
93.62000 2.212
93.64000 3.089
93.66000 3.474
93.68000 4.086
93.70000 3.056
93.72000 5.112
93.74000 0.119
93.76000 -1.871
93.78000 0.680
93.80000 2.345
93.82000 0.577
93.84000 5.335
93.86000 4.914
93.88000 1.033
93.90000 -1.190
93.92000 0.042
93.94000 2.977
93.96000 7.203
93.98000 4.526
94.00000 4.718
94.02000 5.137
94.04000 1.388
94.06000 3.719
94.08000 3.707
94.10000 3.422
94.12000 5.344
94.14000 3.643
94.16000 3.040
94.18000 2.952
94.20000 0.490
94.22000 2.035
94.24000 5.820
94.26000 4.070
94.28000 1.632
94.30000 3.082
94.32000 1.617
94.34000 1.558
94.36000 0.587
94.38000 3.742
94.40000 2.168
94.42000 0.789
94.44000 2.382
94.46000 2.193
94.48000 1.654
94.50000 4.005
94.52000 5.203
94.54000 7.277
94.56000 5.918
94.58000 5.104
94.60000 2.506
94.62000 0.366
94.64000 0.098
94.66000 -1.043
94.68000 0.814
94.70000 0.234
94.72000 -1.879
94.74000 1.063
94.76000 3.423
94.78000 1.313
94.80000 3.214
94.82000 0.652
94.84000 1.315
94.86000 3.143
94.88000 3.606
94.90000 -0.621
94.92000 0.854
94.94000 0.651
94.96000 2.219
94.98000 1.824
95.00000 4.401
95.02000 5.322
95.04000 1.918
95.06000 0.299
95.08000 -0.301
95.10000 4.211
95.12000 4.783
95.14000 2.963
95.16000 2.766
95.18000 4.721
95.20000 1.549
95.22000 3.488
95.24000 3.510
95.26000 3.213
95.28000 1.870
95.30000 -0.750
95.32000 1.150
95.34000 3.818
95.36000 5.183
95.38000 5.492
95.40000 6.753
95.42000 6.395
95.44000 3.518
95.46000 4.906
95.48000 4.117
95.50000 3.708
95.52000 4.066
95.54000 7.394
95.56000 7.198
95.58000 3.236
95.60000 -1.913
95.62000 0.569
95.64000 6.159
95.66000 4.157
95.68000 -1.477
95.70000 -1.913
95.72000 0.239
95.74000 3.004
95.76000 3.096
95.78000 2.490
95.80000 2.672
95.82000 2.846
95.84000 -0.149
95.86000 -1.392
95.88000 0.662
95.90000 3.168
95.92000 1.356
95.94000 4.760
95.96000 5.605
95.98000 3.721
96.00000 1.546
96.02000 4.981
96.04000 4.982
96.06000 6.246
96.08000 1.533
96.10000 1.778
96.12000 2.877
96.14000 -1.906
96.16000 3.093
96.18000 6.443
96.20000 7.539
96.22000 5.234
96.24000 4.459
96.26000 0.233
96.28000 1.211
96.30000 -0.069
96.32000 1.141
96.34000 5.320
96.36000 4.635
96.38000 -0.920
96.40000 0.438
96.42000 2.638
96.44000 4.199
96.46000 1.685
96.48000 -1.906
96.50000 5.810
96.52000 6.536
96.54000 1.709
96.56000 1.976
96.58000 2.350
96.60000 1.168
96.62000 4.081
96.64000 2.807
96.66000 1.484
96.68000 1.828
96.70000 0.480
96.72000 3.480
96.74000 4.021
96.76000 1.936
96.78000 5.657
96.80000 5.542
96.82000 2.538
96.84000 4.954
96.86000 5.769
96.88000 5.500
96.90000 1.062
96.92000 4.489
96.94000 4.840
96.96000 3.459
96.98000 3.637
97.00000 4.088
97.02000 1.085
97.04000 3.881
97.06000 5.262
97.08000 7.469
97.10000 1.501
97.12000 4.079
97.14000 8.434
97.16000 6.135
97.18000 1.147
97.20000 2.514
97.22000 5.648
97.24000 8.674
97.26000 8.275
97.28000 5.480
97.30000 5.714
97.32000 2.215
97.34000 -1.860
97.36000 1.459
97.38000 7.067
97.40000 10.147
97.42000 2.976
97.44000 1.649
97.46000 4.563
97.48000 4.396
97.50000 5.569
97.52000 5.603
97.54000 6.594
97.56000 4.862
97.58000 1.751
97.60000 5.376
97.62000 2.659
97.64000 2.926
97.66000 4.041
97.68000 0.499
97.70000 0.528
97.72000 4.400
97.74000 6.434
97.76000 4.922
97.78000 4.046
97.80000 5.297
97.82000 3.160
97.84000 2.995
97.86000 5.678
97.88000 -0.024
97.90000 1.592
97.92000 0.657
97.94000 0.582
97.96000 2.883
97.98000 4.245
98.00000 5.136
98.02000 7.521
98.04000 4.690
98.06000 6.236
98.08000 -1.863
98.10000 0.639
98.12000 0.217
98.14000 1.951
98.16000 5.124
98.18000 7.039
98.20000 0.132
98.22000 3.108
98.24000 2.117
98.26000 5.268
98.28000 0.062
98.30000 2.510
98.32000 7.952
98.34000 5.857
98.36000 4.513
98.38000 4.470
98.40000 4.442
98.42000 2.216
98.44000 9.726
98.46000 8.840
98.48000 6.518
98.50000 9.539
98.52000 4.025
98.54000 4.178
98.56000 6.297
98.58000 4.098
98.60000 2.981
98.62000 0.995
98.64000 -1.670
98.66000 4.169
98.68000 7.318
98.70000 4.488
98.72000 6.519
98.74000 6.685
98.76000 6.002
98.78000 2.881
98.80000 3.703
98.82000 6.936
98.84000 6.484
98.86000 6.922
98.88000 6.550
98.90000 5.132
98.92000 3.951
98.94000 0.781
98.96000 3.370
98.98000 3.162
99.00000 7.338
99.02000 3.350
99.04000 9.397
99.06000 7.196
99.08000 1.698
99.10000 2.191
99.12000 4.085
99.14000 0.728
99.16000 -1.809
99.18000 0.691
99.20000 4.784
99.22000 3.140
99.24000 10.028
99.26000 2.907
99.28000 4.042
99.30000 5.370
99.32000 8.275
99.34000 1.394
99.36000 3.499
99.38000 9.233
99.40000 6.102
99.42000 7.580
99.44000 8.373
99.46000 3.327
99.48000 -0.068
99.50000 4.145
99.52000 6.616
99.54000 6.885
99.56000 1.732
99.58000 2.818
99.60000 10.408
99.62000 14.877
99.64000 11.012
99.66000 9.926
99.68000 12.224
99.70000 5.049
99.72000 1.929
99.74000 7.791
99.76000 6.874
99.78000 5.831
99.80000 7.259
99.82000 11.691
99.84000 3.024
99.86000 -1.863
99.88000 3.735
99.90000 10.571
99.92000 1.171
99.94000 -2.046
99.96000 -0.377
99.98000 0.000
