'Id: "0011389" Comment: "Integrate frame 0011389_Au-Ir-Rh_Au-Rich_XRD_Mapping-013-0000.gfrmwith cursor Wedge Cursor #5" Operator: "B?rgel" Anode: "Cu" Wavelength: "1.5406" Scantype: "2Theta (TwoTheta)" TimePerStep: "1" X: "-18" Y: "-36" Z: "5.95" 
10.00000 0.000
10.02000 0.151
10.04000 5.383
10.06000 9.104
10.08000 5.298
10.10000 -4.483
10.12000 1.902
10.14000 -2.971
10.16000 3.349
10.18000 -2.027
10.20000 8.100
10.22000 22.208
10.24000 19.273
10.26000 13.410
10.28000 9.029
10.30000 18.596
10.32000 -4.456
10.34000 -1.388
10.36000 12.412
10.38000 11.991
10.40000 10.896
10.42000 22.159
10.44000 33.580
10.46000 32.590
10.48000 14.256
10.50000 8.199
10.52000 6.212
10.54000 8.667
10.56000 3.541
10.58000 24.160
10.60000 1.498
10.62000 4.739
10.64000 7.098
10.66000 9.286
10.68000 20.494
10.70000 12.097
10.72000 9.089
10.74000 14.779
10.76000 13.107
10.78000 6.110
10.80000 8.318
10.82000 13.720
10.84000 24.514
10.86000 17.869
10.88000 15.486
10.90000 12.997
10.92000 16.045
10.94000 21.054
10.96000 17.386
10.98000 18.225
11.00000 11.147
11.02000 8.057
11.04000 17.956
11.06000 21.132
11.08000 16.274
11.10000 9.470
11.12000 12.675
11.14000 5.297
11.16000 -1.438
11.18000 10.919
11.20000 8.660
11.22000 16.490
11.24000 7.342
11.26000 4.119
11.28000 -0.509
11.30000 0.969
11.32000 13.406
11.34000 4.097
11.36000 10.094
11.38000 15.702
11.40000 17.888
11.42000 26.528
11.44000 7.844
11.46000 -4.443
11.48000 7.149
11.50000 -2.098
11.52000 8.426
11.54000 31.967
11.56000 29.351
11.58000 13.091
11.60000 8.866
11.62000 15.095
11.64000 11.909
11.66000 2.577
11.68000 9.838
11.70000 22.011
11.72000 16.456
11.74000 11.978
11.76000 14.715
11.78000 21.810
11.80000 6.312
11.82000 -0.894
11.84000 -2.846
11.86000 0.969
11.88000 18.608
11.90000 15.758
11.92000 15.125
11.94000 13.520
11.96000 9.726
11.98000 5.607
12.00000 10.535
12.02000 12.348
12.04000 20.437
12.06000 17.278
12.08000 12.774
12.10000 18.954
12.12000 23.072
12.14000 29.139
12.16000 17.923
12.18000 6.241
12.20000 9.919
12.22000 20.045
12.24000 20.682
12.26000 13.178
12.28000 7.101
12.30000 7.199
12.32000 1.397
12.34000 -0.176
12.36000 12.241
12.38000 18.038
12.40000 18.507
12.42000 -4.478
12.44000 2.497
12.46000 5.609
12.48000 19.373
12.50000 22.608
12.52000 16.509
12.54000 12.237
12.56000 8.642
12.58000 8.673
12.60000 16.346
12.62000 7.244
12.64000 12.900
12.66000 3.807
12.68000 -3.930
12.70000 8.461
12.72000 7.862
12.74000 6.317
12.76000 11.173
12.78000 10.450
12.80000 13.713
12.82000 9.649
12.84000 6.433
12.86000 5.941
12.88000 6.476
12.90000 7.187
12.92000 14.795
12.94000 17.154
12.96000 12.370
12.98000 7.189
13.00000 7.085
13.02000 13.889
13.04000 13.009
13.06000 4.339
13.08000 2.091
13.10000 1.811
13.12000 3.450
13.14000 10.285
13.16000 13.797
13.18000 13.413
13.20000 10.948
13.22000 11.207
13.24000 18.421
13.26000 25.119
13.28000 16.471
13.30000 3.669
13.32000 8.371
13.34000 5.995
13.36000 4.624
13.38000 10.207
13.40000 16.647
13.42000 8.888
13.44000 7.062
13.46000 13.492
13.48000 6.719
13.50000 5.251
13.52000 14.149
13.54000 6.617
13.56000 14.598
13.58000 7.437
13.60000 6.762
13.62000 3.577
13.64000 -4.476
13.66000 1.824
13.68000 0.038
13.70000 1.241
13.72000 18.521
13.74000 16.455
13.76000 7.718
13.78000 -2.671
13.80000 1.385
13.82000 -0.937
13.84000 5.154
13.86000 4.244
13.88000 5.539
13.90000 4.589
13.92000 8.032
13.94000 14.286
13.96000 8.387
13.98000 -1.027
14.00000 4.299
14.02000 3.139
14.04000 7.824
14.06000 -2.113
14.08000 -3.819
14.10000 2.112
14.12000 6.317
14.14000 18.458
14.16000 9.870
14.18000 7.422
14.20000 8.842
14.22000 10.161
14.24000 5.011
14.26000 1.119
14.28000 8.604
14.30000 10.140
14.32000 9.433
14.34000 16.510
14.36000 13.779
14.38000 9.773
14.40000 5.791
14.42000 1.859
14.44000 2.794
14.46000 8.605
14.48000 -1.014
14.50000 -0.412
14.52000 10.728
14.54000 3.543
14.56000 6.456
14.58000 3.057
14.60000 10.746
14.62000 8.404
14.64000 6.046
14.66000 8.324
14.68000 9.285
14.70000 7.348
14.72000 10.908
14.74000 2.655
14.76000 2.399
14.78000 -0.668
14.80000 9.141
14.82000 20.775
14.84000 9.677
14.86000 5.434
14.88000 -1.935
14.90000 6.835
14.92000 8.550
14.94000 6.349
14.96000 7.279
14.98000 5.276
15.00000 3.424
15.02000 4.583
15.04000 4.080
15.06000 4.995
15.08000 6.078
15.10000 13.059
15.12000 6.337
15.14000 -3.465
15.16000 -2.427
15.18000 -4.446
15.20000 4.183
15.22000 13.038
15.24000 3.634
15.26000 7.603
15.28000 5.020
15.30000 4.606
15.32000 2.451
15.34000 2.579
15.36000 3.851
15.38000 4.707
15.40000 9.538
15.42000 4.208
15.44000 1.360
15.46000 3.662
15.48000 0.537
15.50000 3.114
15.52000 0.762
15.54000 4.759
15.56000 -0.737
15.58000 1.550
15.60000 9.019
15.62000 7.810
15.64000 2.481
15.66000 9.019
15.68000 9.261
15.70000 9.356
15.72000 8.725
15.74000 0.822
15.76000 2.228
15.78000 5.332
15.80000 8.973
15.82000 4.821
15.84000 2.730
15.86000 10.646
15.88000 10.757
15.90000 4.705
15.92000 5.237
15.94000 8.961
15.96000 3.020
15.98000 7.430
16.00000 13.434
16.02000 13.377
16.04000 14.994
16.06000 10.242
16.08000 4.049
16.10000 3.755
16.12000 9.245
16.14000 0.345
16.16000 -4.418
16.18000 1.754
16.20000 7.602
16.22000 4.083
16.24000 3.267
16.26000 -0.925
16.28000 -0.549
16.30000 0.725
16.32000 4.684
16.34000 3.333
16.36000 8.512
16.38000 12.054
16.40000 8.493
16.42000 1.917
16.44000 5.943
16.46000 -0.086
16.48000 -3.063
16.50000 1.701
16.52000 0.670
16.54000 3.648
16.56000 9.803
16.58000 1.390
16.60000 -1.111
16.62000 0.190
16.64000 2.944
16.66000 12.036
16.68000 2.119
16.70000 3.030
16.72000 14.296
16.74000 7.570
16.76000 5.046
16.78000 3.795
16.80000 0.291
16.82000 6.625
16.84000 12.066
16.86000 9.610
16.88000 -4.315
16.90000 -1.892
16.92000 -0.534
16.94000 -1.656
16.96000 1.240
16.98000 -0.796
17.00000 -3.492
17.02000 -4.362
17.04000 0.510
17.06000 2.926
17.08000 2.549
17.10000 -4.355
17.12000 4.242
17.14000 11.861
17.16000 4.283
17.18000 3.642
17.20000 4.739
17.22000 6.772
17.24000 4.388
17.26000 1.547
17.28000 4.452
17.30000 6.876
17.32000 1.138
17.34000 3.831
17.36000 5.678
17.38000 6.838
17.40000 1.378
17.42000 2.744
17.44000 5.012
17.46000 1.987
17.48000 5.278
17.50000 10.194
17.52000 5.351
17.54000 8.475
17.56000 1.037
17.58000 7.296
17.60000 8.233
17.62000 5.694
17.64000 4.377
17.66000 0.179
17.68000 -1.120
17.70000 -2.350
17.72000 4.346
17.74000 2.140
17.76000 8.443
17.78000 10.358
17.80000 8.169
17.82000 6.840
17.84000 -2.410
17.86000 -4.308
17.88000 8.096
17.90000 10.658
17.92000 0.967
17.94000 4.695
17.96000 2.320
17.98000 0.435
18.00000 3.836
18.02000 2.778
18.04000 -2.387
18.06000 3.382
18.08000 5.944
18.10000 3.923
18.12000 -3.633
18.14000 -3.034
18.16000 -0.963
18.18000 1.895
18.20000 1.366
18.22000 2.075
18.24000 3.598
18.26000 4.211
18.28000 3.305
18.30000 4.788
18.32000 8.642
18.34000 2.956
18.36000 0.571
18.38000 2.716
18.40000 4.954
18.42000 -1.012
18.44000 0.406
18.46000 4.990
18.48000 7.593
18.50000 2.225
18.52000 -2.302
18.54000 0.848
18.56000 2.752
18.58000 -2.998
18.60000 -3.621
18.62000 1.630
18.64000 6.406
18.66000 5.450
18.68000 -0.691
18.70000 -1.133
18.72000 6.014
18.74000 5.847
18.76000 8.382
18.78000 7.896
18.80000 5.769
18.82000 4.821
18.84000 2.073
18.86000 4.932
18.88000 4.307
18.90000 -0.709
18.92000 5.624
18.94000 7.588
18.96000 4.156
18.98000 -2.125
19.00000 -1.156
19.02000 3.542
19.04000 4.987
19.06000 6.979
19.08000 5.200
19.10000 6.554
19.12000 8.065
19.14000 4.193
19.16000 -0.713
19.18000 0.368
19.20000 1.114
19.22000 0.097
19.24000 -1.780
19.26000 0.258
19.28000 -3.639
19.30000 5.544
19.32000 11.092
19.34000 3.875
19.36000 11.421
19.38000 14.976
19.40000 5.542
19.42000 -4.201
19.44000 1.250
19.46000 10.177
19.48000 4.918
19.50000 4.247
19.52000 1.677
19.54000 3.066
19.56000 4.985
19.58000 4.924
19.60000 1.959
19.62000 3.767
19.64000 5.435
19.66000 7.742
19.68000 2.145
19.70000 5.506
19.72000 1.559
19.74000 3.712
19.76000 3.074
19.78000 2.346
19.80000 -2.253
19.82000 0.539
19.84000 1.274
19.86000 -3.369
19.88000 -0.100
19.90000 2.126
19.92000 6.095
19.94000 2.114
19.96000 -1.210
19.98000 -2.111
20.00000 -2.879
20.02000 1.290
20.04000 7.695
20.06000 5.212
20.08000 5.995
20.10000 8.439
20.12000 10.922
20.14000 6.763
20.16000 4.479
20.18000 -4.134
20.20000 4.040
20.22000 1.233
20.24000 1.785
20.26000 3.568
20.28000 1.186
20.30000 2.503
20.32000 -1.650
20.34000 2.859
20.36000 4.459
20.38000 5.098
20.40000 -0.398
20.42000 -0.598
20.44000 -2.015
20.46000 -4.138
20.48000 1.335
20.50000 3.167
20.52000 3.219
20.54000 4.232
20.56000 2.194
20.58000 11.101
20.60000 5.920
20.62000 6.078
20.64000 10.765
20.66000 7.238
20.68000 -4.119
20.70000 1.197
20.72000 4.017
20.74000 -0.733
20.76000 4.357
20.78000 2.638
20.80000 4.098
20.82000 -0.353
20.84000 0.161
20.86000 -3.632
20.88000 -0.553
20.90000 6.523
20.92000 9.951
20.94000 2.488
20.96000 -1.697
20.98000 0.147
21.00000 4.297
21.02000 7.039
21.04000 5.792
21.06000 0.030
21.08000 -3.650
21.10000 -0.576
21.12000 1.360
21.14000 2.254
21.16000 6.483
21.18000 9.804
21.20000 6.415
21.22000 8.538
21.24000 9.097
21.26000 4.358
21.28000 3.913
21.30000 7.899
21.32000 2.321
21.34000 -4.075
21.36000 11.174
21.38000 4.127
21.40000 5.132
21.42000 6.155
21.44000 5.868
21.46000 6.767
21.48000 3.867
21.50000 0.411
21.52000 8.981
21.54000 4.480
21.56000 3.712
21.58000 -3.635
21.60000 -0.045
21.62000 5.900
21.64000 13.757
21.66000 11.335
21.68000 9.902
21.70000 9.964
21.72000 5.480
21.74000 9.903
21.76000 9.769
21.78000 4.238
21.80000 2.886
21.82000 4.033
21.84000 8.102
21.86000 10.946
21.88000 10.701
21.90000 6.343
21.92000 9.318
21.94000 4.695
21.96000 2.524
21.98000 1.118
22.00000 -3.669
22.02000 2.160
22.04000 7.731
22.06000 12.461
22.08000 8.125
22.10000 5.374
22.12000 7.769
22.14000 7.941
22.16000 5.261
22.18000 2.540
22.20000 5.701
22.22000 3.478
22.24000 1.816
22.26000 4.229
22.28000 5.411
22.30000 -1.173
22.32000 0.673
22.34000 2.530
22.36000 0.321
22.38000 -0.483
22.40000 4.383
22.42000 6.659
22.44000 1.947
22.46000 3.953
22.48000 2.606
22.50000 2.399
22.52000 2.094
22.54000 4.111
22.56000 7.739
22.58000 4.684
22.60000 2.680
22.62000 -0.425
22.64000 -3.998
22.66000 2.526
22.68000 4.585
22.70000 10.497
22.72000 11.056
22.74000 7.191
22.76000 11.100
22.78000 13.423
22.80000 8.876
22.82000 5.408
22.84000 6.879
22.86000 6.442
22.88000 1.773
22.90000 5.834
22.92000 9.579
22.94000 3.831
22.96000 -0.347
22.98000 1.025
23.00000 2.997
23.02000 3.208
23.04000 6.879
23.06000 5.254
23.08000 8.085
23.10000 8.359
23.12000 7.578
23.14000 13.266
23.16000 8.746
23.18000 6.486
23.20000 9.100
23.22000 7.840
23.24000 5.663
23.26000 4.033
23.28000 5.898
23.30000 2.168
23.32000 2.301
23.34000 1.089
23.36000 7.258
23.38000 5.669
23.40000 4.984
23.42000 4.203
23.44000 2.769
23.46000 3.499
23.48000 -3.934
23.50000 0.258
23.52000 0.933
23.54000 2.133
23.56000 7.178
23.58000 8.503
23.60000 4.035
23.62000 7.365
23.64000 1.200
23.66000 5.779
23.68000 5.164
23.70000 0.947
23.72000 2.936
23.74000 6.301
23.76000 2.706
23.78000 5.395
23.80000 5.151
23.82000 7.862
23.84000 3.985
23.86000 -3.665
23.88000 2.546
23.90000 7.785
23.92000 6.076
23.94000 6.355
23.96000 5.342
23.98000 6.012
24.00000 2.646
24.02000 3.465
24.04000 6.257
24.06000 2.374
24.08000 2.208
24.10000 4.245
24.12000 9.735
24.14000 4.602
24.16000 9.263
24.18000 7.417
24.20000 12.611
24.22000 5.746
24.24000 0.271
24.26000 5.268
24.28000 10.331
24.30000 7.691
24.32000 8.072
24.34000 7.963
24.36000 -3.888
24.38000 0.855
24.40000 4.322
24.42000 5.982
24.44000 6.880
24.46000 10.157
24.48000 8.153
24.50000 7.249
24.52000 4.056
24.54000 7.068
24.56000 6.443
24.58000 2.525
24.60000 9.769
24.62000 10.747
24.64000 2.706
24.66000 -1.885
24.68000 6.268
24.70000 5.858
24.72000 3.666
24.74000 2.109
24.76000 6.690
24.78000 4.327
24.80000 7.673
24.82000 6.636
24.84000 3.274
24.86000 -3.846
24.88000 -0.265
24.90000 4.154
24.92000 7.874
24.94000 9.077
24.96000 1.406
24.98000 -3.868
25.00000 4.867
25.02000 6.666
25.04000 6.973
25.06000 0.471
25.08000 5.980
25.10000 6.923
25.12000 -0.393
25.14000 4.503
25.16000 2.393
25.18000 -0.327
25.20000 1.772
25.22000 7.200
25.24000 6.338
25.26000 1.962
25.28000 1.142
25.30000 5.056
25.32000 1.982
25.34000 2.284
25.36000 8.893
25.38000 3.688
25.40000 0.786
25.42000 4.012
25.44000 6.168
25.46000 7.058
25.48000 7.643
25.50000 3.148
25.52000 0.937
25.54000 -1.088
25.56000 -2.368
25.58000 4.316
25.60000 6.647
25.62000 4.824
25.64000 3.450
25.66000 7.216
25.68000 9.151
25.70000 1.143
25.72000 -1.683
25.74000 5.681
25.76000 5.737
25.78000 0.036
25.80000 2.899
25.82000 4.671
25.84000 2.613
25.86000 7.491
25.88000 11.771
25.90000 8.102
25.92000 8.199
25.94000 0.266
25.96000 -3.678
25.98000 -2.161
26.00000 4.185
26.02000 4.448
26.04000 5.949
26.06000 2.665
26.08000 2.914
26.10000 5.023
26.12000 2.202
26.14000 7.402
26.16000 7.282
26.18000 2.304
26.20000 4.005
26.22000 4.694
26.24000 -0.408
26.26000 4.805
26.28000 1.859
26.30000 -0.288
26.32000 -1.240
26.34000 3.109
26.36000 5.433
26.38000 1.925
26.40000 -3.798
26.42000 1.891
26.44000 4.388
26.46000 7.181
26.48000 10.013
26.50000 5.628
26.52000 3.213
26.54000 2.154
26.56000 2.011
26.58000 2.340
26.60000 0.637
26.62000 3.932
26.64000 6.647
26.66000 1.978
26.68000 0.497
26.70000 1.276
26.72000 2.976
26.74000 0.136
26.76000 -2.459
26.78000 2.904
26.80000 0.770
26.82000 -1.559
26.84000 3.086
26.86000 7.084
26.88000 4.278
26.90000 6.042
26.92000 3.108
26.94000 0.665
26.96000 7.335
26.98000 6.433
27.00000 4.409
27.02000 6.759
27.04000 7.357
27.06000 2.402
27.08000 5.965
27.10000 1.982
27.12000 5.625
27.14000 7.649
27.16000 0.447
27.18000 -3.772
27.20000 0.393
27.22000 6.417
27.24000 7.626
27.26000 3.039
27.28000 0.568
27.30000 -2.591
27.32000 1.841
27.34000 4.611
27.36000 3.326
27.38000 6.241
27.40000 0.626
27.42000 4.341
27.44000 10.605
27.46000 10.428
27.48000 3.978
27.50000 1.851
27.52000 10.610
27.54000 8.935
27.56000 4.772
27.58000 4.484
27.60000 5.360
27.62000 4.048
27.64000 7.068
27.66000 3.031
27.68000 2.405
27.70000 -0.446
27.72000 2.984
27.74000 3.675
27.76000 5.670
27.78000 4.702
27.80000 7.457
27.82000 7.530
27.84000 -3.731
27.86000 -1.315
27.88000 4.861
27.90000 8.240
27.92000 4.081
27.94000 -0.647
27.96000 4.146
27.98000 5.232
28.00000 7.037
28.02000 5.421
28.04000 1.006
28.06000 0.654
28.08000 2.207
28.10000 3.798
28.12000 2.721
28.14000 -0.646
28.16000 -0.624
28.18000 8.226
28.20000 2.742
28.22000 -3.702
28.24000 -2.434
28.26000 6.515
28.28000 4.791
28.30000 6.728
28.32000 7.955
28.34000 2.279
28.36000 4.096
28.38000 7.243
28.40000 1.258
28.42000 1.018
28.44000 7.907
28.46000 6.029
28.48000 7.376
28.50000 1.086
28.52000 -3.676
28.54000 2.097
28.56000 5.955
28.58000 9.346
28.60000 10.806
28.62000 4.460
28.64000 1.636
28.66000 4.337
28.68000 5.749
28.70000 5.176
28.72000 9.433
28.74000 4.840
28.76000 -2.523
28.78000 1.161
28.80000 9.084
28.82000 10.508
28.84000 5.919
28.86000 3.751
28.88000 4.031
28.90000 3.895
28.92000 3.292
28.94000 3.199
28.96000 4.955
28.98000 4.127
29.00000 2.501
29.02000 1.129
29.04000 1.467
29.06000 1.385
29.08000 4.643
29.10000 6.743
29.12000 7.383
29.14000 5.123
29.16000 0.756
29.18000 0.850
29.20000 1.926
29.22000 3.957
29.24000 8.211
29.26000 6.778
29.28000 4.934
29.30000 -0.146
29.32000 -0.448
29.34000 1.829
29.36000 3.755
29.38000 4.508
29.40000 4.769
29.42000 3.168
29.44000 7.193
29.46000 9.933
29.48000 7.268
29.50000 4.310
29.52000 3.477
29.54000 0.524
29.56000 5.558
29.58000 8.266
29.60000 9.139
29.62000 3.055
29.64000 2.811
29.66000 8.524
29.68000 7.536
29.70000 2.298
29.72000 9.705
29.74000 10.162
29.76000 7.535
29.78000 4.425
29.80000 0.657
29.82000 0.515
29.84000 6.346
29.86000 3.699
29.88000 3.314
29.90000 2.357
29.92000 5.750
29.94000 4.676
29.96000 3.726
29.98000 3.500
30.00000 3.037
30.02000 6.414
30.04000 8.503
30.06000 6.543
30.08000 7.663
30.10000 4.662
30.12000 3.001
30.14000 -3.606
30.16000 2.970
30.18000 9.113
30.20000 5.300
30.22000 7.089
30.24000 6.057
30.26000 1.981
30.28000 1.427
30.30000 3.439
30.32000 1.690
30.34000 3.312
30.36000 4.023
30.38000 2.575
30.40000 4.282
30.42000 5.553
30.44000 8.755
30.46000 9.379
30.48000 3.904
30.50000 2.232
30.52000 -0.048
30.54000 3.488
30.56000 2.381
30.58000 6.705
30.60000 6.391
30.62000 2.200
30.64000 1.501
30.66000 -3.396
30.68000 0.790
30.70000 3.800
30.72000 2.577
30.74000 0.604
30.76000 5.457
30.78000 3.825
30.80000 6.613
30.82000 4.671
30.84000 8.326
30.86000 4.922
30.88000 2.956
30.90000 4.233
30.92000 5.633
30.94000 7.624
30.96000 5.407
30.98000 9.122
31.00000 7.164
31.02000 1.779
31.04000 5.766
31.06000 6.151
31.08000 7.142
31.10000 8.830
31.12000 5.868
31.14000 2.918
31.16000 8.177
31.18000 8.335
31.20000 9.347
31.22000 7.411
31.24000 5.977
31.26000 4.805
31.28000 -1.675
31.30000 -3.535
31.32000 0.899
31.34000 1.420
31.36000 2.756
31.38000 8.119
31.40000 4.744
31.42000 3.307
31.44000 8.372
31.46000 5.769
31.48000 6.521
31.50000 7.969
31.52000 3.260
31.54000 3.339
31.56000 6.224
31.58000 12.153
31.60000 8.688
31.62000 6.222
31.64000 3.366
31.66000 8.528
31.68000 12.015
31.70000 7.924
31.72000 6.183
31.74000 7.288
31.76000 2.893
31.78000 0.586
31.80000 -2.193
31.82000 1.906
31.84000 6.042
31.86000 4.472
31.88000 6.423
31.90000 7.341
31.92000 6.940
31.94000 5.104
31.96000 10.327
31.98000 6.967
32.00000 5.486
32.02000 11.194
32.04000 8.078
32.06000 7.678
32.08000 5.074
32.10000 1.239
32.12000 4.977
32.14000 5.034
32.16000 2.823
32.18000 4.539
32.20000 2.961
32.22000 5.188
32.24000 7.248
32.26000 5.005
32.28000 5.294
32.30000 4.759
32.32000 3.871
32.34000 6.311
32.36000 5.079
32.38000 4.172
32.40000 5.145
32.42000 3.975
32.44000 0.652
32.46000 -0.221
32.48000 0.949
32.50000 4.264
32.52000 -0.478
32.54000 -3.520
32.56000 -1.599
32.58000 -0.374
32.60000 2.826
32.62000 2.640
32.64000 3.689
32.66000 6.256
32.68000 3.450
32.70000 5.293
32.72000 9.113
32.74000 6.440
32.76000 7.407
32.78000 5.525
32.80000 4.021
32.82000 4.388
32.84000 5.298
32.86000 6.318
32.88000 5.721
32.90000 5.510
32.92000 10.054
32.94000 10.199
32.96000 5.283
32.98000 8.014
33.00000 4.510
33.02000 5.640
33.04000 3.911
33.06000 2.702
33.08000 3.143
33.10000 4.074
33.12000 3.223
33.14000 1.132
33.16000 1.769
33.18000 -3.493
33.20000 -0.331
33.22000 3.146
33.24000 7.764
33.26000 11.024
33.28000 11.175
33.30000 4.099
33.32000 3.488
33.34000 7.832
33.36000 7.313
33.38000 1.210
33.40000 3.186
33.42000 3.745
33.44000 9.102
33.46000 5.433
33.48000 1.975
33.50000 5.229
33.52000 10.399
33.54000 7.905
33.56000 7.729
33.58000 6.942
33.60000 1.440
33.62000 0.416
33.64000 -0.782
33.66000 -0.331
33.68000 5.481
33.70000 6.866
33.72000 8.621
33.74000 3.519
33.76000 1.498
33.78000 -3.517
33.80000 1.386
33.82000 2.673
33.84000 4.179
33.86000 4.527
33.88000 5.724
33.90000 1.096
33.92000 1.536
33.94000 3.311
33.96000 0.549
33.98000 6.099
34.00000 8.249
34.02000 6.169
34.04000 8.847
34.06000 8.051
34.08000 5.550
34.10000 3.092
34.12000 6.458
34.14000 5.933
34.16000 5.274
34.18000 3.088
34.20000 -1.178
34.22000 0.816
34.24000 1.269
34.26000 1.437
34.28000 0.623
34.30000 1.635
34.32000 2.912
34.34000 3.345
34.36000 1.118
34.38000 2.130
34.40000 -2.800
34.42000 2.840
34.44000 5.806
34.46000 3.739
34.48000 4.080
34.50000 1.727
34.52000 3.427
34.54000 9.545
34.56000 5.815
34.58000 3.674
34.60000 0.982
34.62000 -1.102
34.64000 3.155
34.66000 4.898
34.68000 4.292
34.70000 8.455
34.72000 8.288
34.74000 2.114
34.76000 -0.994
34.78000 0.117
34.80000 5.085
34.82000 0.755
34.84000 1.717
34.86000 5.126
34.88000 5.101
34.90000 2.360
34.92000 2.812
34.94000 6.117
34.96000 6.162
34.98000 -1.974
35.00000 4.218
35.02000 1.564
35.04000 -0.122
35.06000 1.606
35.08000 -0.679
35.10000 -1.510
35.12000 1.124
35.14000 6.877
35.16000 8.507
35.18000 7.945
35.20000 0.316
35.22000 1.023
35.24000 2.808
35.26000 4.233
35.28000 4.829
35.30000 0.130
35.32000 -1.461
35.34000 2.521
35.36000 5.255
35.38000 -0.896
35.40000 0.649
35.42000 -0.910
35.44000 0.527
35.46000 2.380
35.48000 1.094
35.50000 -2.797
35.52000 1.728
35.54000 1.886
35.56000 1.368
35.58000 3.787
35.60000 1.650
35.62000 -3.478
35.64000 0.959
35.66000 1.115
35.68000 4.727
35.70000 5.001
35.72000 6.605
35.74000 0.438
35.76000 2.857
35.78000 4.753
35.80000 5.260
35.82000 7.829
35.84000 6.640
35.86000 3.865
35.88000 1.470
35.90000 5.229
35.92000 10.344
35.94000 4.695
35.96000 -2.970
35.98000 1.165
36.00000 4.145
36.02000 3.496
36.04000 7.177
36.06000 6.426
36.08000 7.741
36.10000 3.247
36.12000 -3.485
36.14000 4.088
36.16000 4.566
36.18000 5.849
36.20000 2.080
36.22000 1.808
36.24000 3.685
36.26000 3.990
36.28000 3.378
36.30000 2.393
36.32000 4.869
36.34000 6.403
36.36000 5.346
36.38000 3.155
36.40000 -1.267
36.42000 -2.545
36.44000 3.223
36.46000 2.057
36.48000 4.044
36.50000 1.824
36.52000 2.456
36.54000 0.214
36.56000 -0.179
36.58000 3.154
36.60000 6.705
36.62000 7.559
36.64000 10.032
36.66000 9.753
36.68000 5.473
36.70000 3.444
36.72000 6.861
36.74000 10.557
36.76000 6.563
36.78000 3.985
36.80000 4.416
36.82000 2.636
36.84000 -3.498
36.86000 0.442
36.88000 7.470
36.90000 4.525
36.92000 -1.529
36.94000 3.649
36.96000 11.424
36.98000 8.200
37.00000 8.213
37.02000 5.447
37.04000 10.726
37.06000 7.072
37.08000 8.446
37.10000 6.409
37.12000 5.166
37.14000 3.952
37.16000 7.814
37.18000 4.818
37.20000 2.814
37.22000 3.452
37.24000 5.164
37.26000 4.908
37.28000 3.979
37.30000 4.197
37.32000 6.489
37.34000 6.368
37.36000 10.278
37.38000 8.918
37.40000 5.701
37.42000 7.934
37.44000 6.796
37.46000 8.734
37.48000 5.887
37.50000 7.272
37.52000 8.580
37.54000 10.243
37.56000 13.244
37.58000 10.474
37.60000 6.953
37.62000 7.869
37.64000 11.256
37.66000 11.519
37.68000 8.505
37.70000 14.110
37.72000 13.761
37.74000 12.989
37.76000 12.504
37.78000 7.401
37.80000 5.834
37.82000 4.027
37.84000 7.517
37.86000 11.563
37.88000 11.451
37.90000 19.595
37.92000 20.608
37.94000 23.413
37.96000 19.298
37.98000 16.037
38.00000 19.101
38.02000 19.718
38.04000 18.869
38.06000 18.297
38.08000 22.085
38.10000 18.960
38.12000 19.786
38.14000 19.831
38.16000 19.438
38.18000 21.791
38.20000 20.572
38.22000 27.143
38.24000 23.176
38.26000 22.951
38.28000 23.539
38.30000 24.512
38.32000 27.530
38.34000 29.512
38.36000 30.112
38.38000 33.274
38.40000 30.877
38.42000 30.095
38.44000 36.409
38.46000 40.428
38.48000 43.027
38.50000 39.481
38.52000 43.510
38.54000 43.613
38.56000 41.182
38.58000 44.604
38.60000 46.579
38.62000 48.053
38.64000 49.473
38.66000 46.100
38.68000 51.990
38.70000 58.880
38.72000 59.895
38.74000 59.606
38.76000 63.788
38.78000 64.364
38.80000 64.416
38.82000 67.845
38.84000 74.256
38.86000 74.163
38.88000 79.001
38.90000 81.056
38.92000 82.746
38.94000 89.402
38.96000 96.731
38.98000 100.364
39.00000 103.504
39.02000 103.210
39.04000 107.449
39.06000 114.773
39.08000 124.306
39.10000 128.680
39.12000 137.915
39.14000 141.169
39.16000 145.825
39.18000 152.452
39.20000 166.963
39.22000 178.613
39.24000 191.518
39.26000 201.116
39.28000 213.896
39.30000 218.631
39.32000 234.150
39.34000 251.180
39.36000 261.817
39.38000 281.914
39.40000 307.623
39.42000 324.678
39.44000 340.410
39.46000 356.382
39.48000 371.954
39.50000 399.892
39.52000 426.616
39.54000 458.405
39.56000 476.095
39.58000 502.273
39.60000 529.587
39.62000 558.661
39.64000 576.606
39.66000 594.227
39.68000 630.196
39.70000 653.328
39.72000 674.955
39.74000 704.104
39.76000 724.795
39.78000 741.820
39.80000 746.433
39.82000 760.045
39.84000 767.829
39.86000 781.156
39.88000 786.710
39.90000 783.981
39.92000 792.957
39.94000 800.878
39.96000 783.580
39.98000 772.634
40.00000 756.046
40.02000 741.384
40.04000 723.335
40.06000 703.820
40.08000 694.212
40.10000 676.269
40.12000 643.572
40.14000 617.784
40.16000 579.206
40.18000 554.958
40.20000 542.886
40.22000 526.645
40.24000 499.046
40.26000 469.380
40.28000 446.655
40.30000 421.442
40.32000 390.079
40.34000 366.217
40.36000 351.748
40.38000 336.069
40.40000 319.306
40.42000 301.484
40.44000 277.476
40.46000 254.705
40.48000 240.491
40.50000 219.515
40.52000 197.014
40.54000 193.030
40.56000 188.437
40.58000 176.928
40.60000 153.902
40.62000 152.581
40.64000 142.975
40.66000 128.566
40.68000 116.318
40.70000 112.370
40.72000 112.509
40.74000 107.651
40.76000 99.209
40.78000 92.474
40.80000 87.166
40.82000 79.332
40.84000 77.925
40.86000 70.491
40.88000 65.125
40.90000 61.676
40.92000 58.349
40.94000 57.611
40.96000 51.936
40.98000 50.844
41.00000 47.461
41.02000 41.796
41.04000 44.408
41.06000 40.375
41.08000 40.078
41.10000 37.125
41.12000 31.180
41.14000 30.907
41.16000 33.217
41.18000 31.651
41.20000 28.924
41.22000 27.336
41.24000 25.005
41.26000 18.480
41.28000 24.256
41.30000 24.336
41.32000 22.851
41.34000 21.998
41.36000 15.270
41.38000 14.378
41.40000 12.613
41.42000 14.703
41.44000 14.629
41.46000 12.713
41.48000 16.015
41.50000 14.072
41.52000 12.557
41.54000 12.270
41.56000 13.709
41.58000 15.418
41.60000 15.435
41.62000 11.130
41.64000 11.845
41.66000 11.807
41.68000 10.952
41.70000 9.128
41.72000 5.030
41.74000 8.440
41.76000 5.994
41.78000 5.373
41.80000 7.902
41.82000 6.746
41.84000 7.760
41.86000 4.831
41.88000 3.483
41.90000 3.958
41.92000 0.881
41.94000 0.643
41.96000 3.337
41.98000 1.239
42.00000 5.445
42.02000 2.958
42.04000 3.809
42.06000 -0.280
42.08000 1.261
42.10000 0.050
42.12000 1.966
42.14000 4.611
42.16000 4.510
42.18000 7.031
42.20000 9.581
42.22000 3.427
42.24000 -0.297
42.26000 0.356
42.28000 -1.075
42.30000 -0.904
42.32000 2.111
42.34000 1.186
42.36000 3.050
42.38000 3.536
42.40000 -0.693
42.42000 2.333
42.44000 4.357
42.46000 1.694
42.48000 -3.005
42.50000 -3.375
42.52000 0.638
42.54000 1.288
42.56000 0.965
42.58000 1.452
42.60000 2.264
42.62000 0.538
42.64000 -1.762
42.66000 -2.885
42.68000 -0.404
42.70000 -0.465
42.72000 1.592
42.74000 0.339
42.76000 -3.195
42.78000 -0.312
42.80000 1.051
42.82000 -0.165
42.84000 1.614
42.86000 -1.620
42.88000 -2.695
42.90000 1.110
42.92000 1.836
42.94000 0.832
42.96000 -0.885
42.98000 -1.567
43.00000 -3.307
43.02000 -3.063
43.04000 0.847
43.06000 0.802
43.08000 -3.297
43.10000 -1.313
43.12000 0.505
43.14000 3.764
43.16000 3.015
43.18000 3.380
43.20000 2.799
43.22000 -2.239
43.24000 -0.979
43.26000 4.253
43.28000 0.429
43.30000 -0.435
43.32000 -1.722
43.34000 -2.056
43.36000 1.499
43.38000 1.149
43.40000 1.744
43.42000 0.310
43.44000 -0.258
43.46000 -2.772
43.48000 -3.243
43.50000 -1.979
43.52000 -2.803
43.54000 -1.964
43.56000 -2.379
43.58000 -3.034
43.60000 -2.494
43.62000 -0.630
43.64000 0.866
43.66000 1.718
43.68000 0.001
43.70000 -1.841
43.72000 1.096
43.74000 -0.859
43.76000 -0.796
43.78000 1.666
43.80000 0.355
43.82000 -0.572
43.84000 -1.333
43.86000 -0.718
43.88000 1.917
43.90000 0.535
43.92000 1.022
43.94000 1.948
43.96000 -0.180
43.98000 -3.201
44.00000 -0.430
44.02000 0.137
44.04000 -2.022
44.06000 -0.391
44.08000 -1.383
44.10000 -1.372
44.12000 0.889
44.14000 0.541
44.16000 -1.084
44.18000 0.580
44.20000 -1.757
44.22000 0.276
44.24000 -0.605
44.26000 -2.651
44.28000 -1.299
44.30000 0.382
44.32000 -0.984
44.34000 -1.012
44.36000 3.084
44.38000 1.112
44.40000 -0.949
44.42000 1.259
44.44000 -0.640
44.46000 -3.188
44.48000 -2.301
44.50000 -0.487
44.52000 1.433
44.54000 3.131
44.56000 3.041
44.58000 -0.654
44.60000 0.931
44.62000 -1.791
44.64000 -1.991
44.66000 -1.954
44.68000 -0.342
44.70000 0.520
44.72000 2.829
44.74000 -1.200
44.76000 0.307
44.78000 -1.946
44.80000 -3.180
44.82000 2.436
44.84000 1.770
44.86000 -1.770
44.88000 1.484
44.90000 0.311
44.92000 0.059
44.94000 0.851
44.96000 3.398
44.98000 3.887
45.00000 5.159
45.02000 4.472
45.04000 1.480
45.06000 -1.583
45.08000 -0.071
45.10000 6.053
45.12000 3.298
45.14000 1.343
45.16000 6.451
45.18000 5.884
45.20000 5.256
45.22000 1.250
45.24000 5.012
45.26000 4.247
45.28000 5.612
45.30000 6.999
45.32000 3.891
45.34000 4.637
45.36000 0.675
45.38000 4.927
45.40000 11.466
45.42000 12.446
45.44000 11.353
45.46000 10.908
45.48000 15.505
45.50000 10.179
45.52000 11.391
45.54000 16.034
45.56000 14.776
45.58000 14.235
45.60000 13.259
45.62000 14.950
45.64000 19.292
45.66000 15.550
45.68000 14.615
45.70000 14.456
45.72000 18.593
45.74000 19.397
45.76000 21.525
45.78000 24.484
45.80000 24.933
45.82000 30.235
45.84000 25.531
45.86000 26.559
45.88000 29.596
45.90000 31.353
45.92000 27.593
45.94000 33.139
45.96000 39.242
45.98000 37.271
46.00000 34.369
46.02000 35.270
46.04000 37.651
46.06000 44.088
46.08000 46.613
46.10000 48.527
46.12000 48.853
46.14000 50.590
46.16000 48.083
46.18000 50.096
46.20000 53.536
46.22000 55.590
46.24000 64.308
46.26000 60.825
46.28000 58.440
46.30000 62.097
46.32000 67.057
46.34000 70.847
46.36000 72.222
46.38000 70.340
46.40000 76.983
46.42000 73.401
46.44000 75.330
46.46000 80.046
46.48000 82.221
46.50000 81.040
46.52000 82.457
46.54000 84.476
46.56000 88.543
46.58000 89.019
46.60000 83.268
46.62000 93.903
46.64000 88.883
46.66000 83.100
46.68000 85.771
46.70000 83.832
46.72000 81.859
46.74000 81.828
46.76000 81.016
46.78000 81.703
46.80000 76.781
46.82000 75.672
46.84000 72.695
46.86000 75.202
46.88000 72.492
46.90000 64.906
46.92000 65.347
46.94000 62.874
46.96000 61.776
46.98000 58.474
47.00000 56.755
47.02000 53.557
47.04000 51.650
47.06000 47.353
47.08000 44.201
47.10000 42.411
47.12000 41.312
47.14000 39.375
47.16000 36.194
47.18000 37.998
47.20000 39.029
47.22000 34.330
47.24000 31.531
47.26000 27.494
47.28000 31.525
47.30000 33.011
47.32000 20.355
47.34000 19.832
47.36000 18.994
47.38000 20.007
47.40000 15.900
47.42000 18.450
47.44000 20.957
47.46000 17.925
47.48000 13.570
47.50000 12.311
47.52000 9.402
47.54000 10.992
47.56000 12.422
47.58000 8.763
47.60000 10.228
47.62000 11.418
47.64000 10.276
47.66000 7.954
47.68000 9.641
47.70000 5.836
47.72000 6.322
47.74000 6.291
47.76000 6.925
47.78000 4.510
47.80000 2.343
47.82000 1.489
47.84000 5.413
47.86000 7.328
47.88000 7.483
47.90000 7.170
47.92000 5.734
47.94000 6.484
47.96000 7.477
47.98000 4.493
48.00000 3.588
48.02000 2.627
48.04000 4.968
48.06000 3.403
48.08000 2.471
48.10000 0.440
48.12000 5.361
48.14000 4.835
48.16000 4.340
48.18000 5.426
48.20000 6.415
48.22000 4.792
48.24000 2.205
48.26000 2.945
48.28000 5.528
48.30000 2.469
48.32000 2.139
48.34000 1.919
48.36000 4.017
48.38000 4.431
48.40000 6.422
48.42000 -1.064
48.44000 -2.705
48.46000 -1.695
48.48000 0.806
48.50000 0.916
48.52000 1.929
48.54000 5.477
48.56000 3.291
48.58000 1.525
48.60000 6.693
48.62000 6.691
48.64000 3.495
48.66000 5.779
48.68000 3.081
48.70000 1.693
48.72000 1.895
48.74000 1.490
48.76000 2.143
48.78000 0.051
48.80000 1.770
48.82000 -0.702
48.84000 3.696
48.86000 8.334
48.88000 6.145
48.90000 2.721
48.92000 -2.413
48.94000 -1.552
48.96000 -2.679
48.98000 -0.138
49.00000 7.263
49.02000 0.980
49.04000 5.593
49.06000 6.435
49.08000 2.243
49.10000 0.955
49.12000 2.618
49.14000 4.517
49.16000 1.612
49.18000 -1.914
49.20000 -1.282
49.22000 2.567
49.24000 0.062
49.26000 1.971
49.28000 6.227
49.30000 2.962
49.32000 -0.539
49.34000 -0.324
49.36000 -0.704
49.38000 1.452
49.40000 3.789
49.42000 5.176
49.44000 1.460
49.46000 4.999
49.48000 5.142
49.50000 -1.409
49.52000 0.496
49.54000 -2.655
49.56000 0.232
49.58000 2.690
49.60000 4.002
49.62000 6.452
49.64000 2.585
49.66000 0.224
49.68000 3.077
49.70000 4.403
49.72000 2.713
49.74000 -2.454
49.76000 -1.144
49.78000 3.160
49.80000 3.880
49.82000 0.961
49.84000 3.877
49.86000 -0.371
49.88000 -1.022
49.90000 -0.053
49.92000 2.473
49.94000 0.034
49.96000 0.137
49.98000 -1.849
50.00000 -2.036
50.02000 -0.128
50.04000 -0.635
50.06000 -0.123
50.08000 -2.007
50.10000 -0.100
50.12000 2.711
50.14000 2.873
50.16000 3.236
50.18000 4.185
50.20000 3.183
50.22000 3.273
50.24000 -0.839
50.26000 -0.262
50.28000 0.079
50.30000 0.542
50.32000 3.972
50.34000 3.045
50.36000 -2.042
50.38000 -1.327
50.40000 2.985
50.42000 2.141
50.44000 3.370
50.46000 2.760
50.48000 3.003
50.50000 2.552
50.52000 4.570
50.54000 0.620
50.56000 1.925
50.58000 1.795
50.60000 2.901
50.62000 4.134
50.64000 1.727
50.66000 -2.570
50.68000 2.745
50.70000 3.192
50.72000 2.155
50.74000 1.906
50.76000 0.469
50.78000 -0.640
50.80000 0.750
50.82000 3.259
50.84000 -2.553
50.86000 0.757
50.88000 -0.068
50.90000 0.508
50.92000 0.347
50.94000 3.411
50.96000 4.599
50.98000 9.815
51.00000 6.327
51.02000 6.333
51.04000 8.253
51.06000 6.138
51.08000 4.729
51.10000 5.776
51.12000 5.560
51.14000 5.413
51.16000 6.588
51.18000 2.822
51.20000 -0.058
51.22000 2.647
51.24000 2.596
51.26000 5.793
51.28000 2.926
51.30000 2.611
51.32000 5.744
51.34000 3.038
51.36000 1.982
51.38000 3.247
51.40000 4.831
51.42000 2.366
51.44000 2.058
51.46000 -0.166
51.48000 0.957
51.50000 2.858
51.52000 -0.093
51.54000 1.103
51.56000 1.803
51.58000 -0.056
51.60000 -1.072
51.62000 1.062
51.64000 3.642
51.66000 1.089
51.68000 -1.261
51.70000 0.074
51.72000 3.105
51.74000 4.138
51.76000 5.119
51.78000 6.358
51.80000 5.596
51.82000 -0.068
51.84000 0.606
51.86000 3.206
51.88000 3.037
51.90000 4.821
51.92000 4.477
51.94000 2.992
51.96000 2.971
51.98000 0.059
52.00000 0.326
52.02000 1.202
52.04000 -0.699
52.06000 -0.210
52.08000 -0.895
52.10000 -1.058
52.12000 3.053
52.14000 5.367
52.16000 4.084
52.18000 4.840
52.20000 3.509
52.22000 -0.673
52.24000 -0.447
52.26000 -1.576
52.28000 -0.845
52.30000 -2.511
52.32000 -1.342
52.34000 4.170
52.36000 3.373
52.38000 0.706
52.40000 4.423
52.42000 1.909
52.44000 4.673
52.46000 2.649
52.48000 4.869
52.50000 4.397
52.52000 7.062
52.54000 4.991
52.56000 5.474
52.58000 3.418
52.60000 5.537
52.62000 8.634
52.64000 5.229
52.66000 4.535
52.68000 7.911
52.70000 5.544
52.72000 3.143
52.74000 3.000
52.76000 5.856
52.78000 4.251
52.80000 -0.169
52.82000 1.517
52.84000 -1.500
52.86000 -2.504
52.88000 1.990
52.90000 -1.107
52.92000 0.512
52.94000 0.808
52.96000 3.508
52.98000 -0.640
53.00000 -0.865
53.02000 -0.255
53.04000 1.831
53.06000 1.674
53.08000 3.475
53.10000 2.119
53.12000 3.905
53.14000 4.651
53.16000 1.353
53.18000 2.577
53.20000 1.091
53.22000 2.523
53.24000 0.210
53.26000 3.497
53.28000 5.475
53.30000 3.330
53.32000 2.991
53.34000 -0.443
53.36000 -1.441
53.38000 2.323
53.40000 1.006
53.42000 -0.229
53.44000 0.084
53.46000 -1.480
53.48000 -1.420
53.50000 -0.914
53.52000 1.311
53.54000 3.373
53.56000 -0.517
53.58000 1.055
53.60000 4.270
53.62000 3.838
53.64000 0.971
53.66000 -2.156
53.68000 1.562
53.70000 2.562
53.72000 5.146
53.74000 3.147
53.76000 3.231
53.78000 1.551
53.80000 2.597
53.82000 0.837
53.84000 0.551
53.86000 1.935
53.88000 -1.564
53.90000 3.175
53.92000 -0.238
53.94000 -0.814
53.96000 0.945
53.98000 0.802
54.00000 5.756
54.02000 3.148
54.04000 0.944
54.06000 -0.768
54.08000 1.489
54.10000 -0.145
54.12000 2.673
54.14000 0.065
54.16000 0.725
54.18000 2.101
54.20000 1.784
54.22000 1.290
54.24000 -2.477
54.26000 0.157
54.28000 4.966
54.30000 1.243
54.32000 -0.261
54.34000 4.901
54.36000 5.356
54.38000 5.439
54.40000 3.068
54.42000 4.374
54.44000 3.848
54.46000 1.400
54.48000 0.315
54.50000 -2.472
54.52000 -0.653
54.54000 2.374
54.56000 4.795
54.58000 5.491
54.60000 2.243
54.62000 3.198
54.64000 4.855
54.66000 1.800
54.68000 2.593
54.70000 3.731
54.72000 8.904
54.74000 9.009
54.76000 3.504
54.78000 4.971
54.80000 1.317
54.82000 2.747
54.84000 2.136
54.86000 -1.409
54.88000 3.156
54.90000 0.461
54.92000 1.839
54.94000 5.833
54.96000 2.944
54.98000 3.951
55.00000 2.893
55.02000 3.573
55.04000 0.576
55.06000 0.245
55.08000 3.370
55.10000 3.644
55.12000 3.384
55.14000 0.402
55.16000 6.120
55.18000 5.818
55.20000 1.502
55.22000 -0.428
55.24000 1.833
55.26000 1.820
55.28000 6.529
55.30000 2.197
55.32000 -1.492
55.34000 -1.851
55.36000 0.312
55.38000 0.967
55.40000 2.256
55.42000 0.648
55.44000 0.982
55.46000 1.334
55.48000 0.777
55.50000 -1.399
55.52000 -0.027
55.54000 -0.064
55.56000 -1.828
55.58000 -2.035
55.60000 -1.067
55.62000 1.267
55.64000 0.982
55.66000 -2.185
55.68000 -0.759
55.70000 0.738
55.72000 2.397
55.74000 -0.510
55.76000 1.065
55.78000 0.465
55.80000 3.197
55.82000 4.275
55.84000 2.295
55.86000 1.409
55.88000 4.526
55.90000 2.864
55.92000 -1.386
55.94000 -0.010
55.96000 2.560
55.98000 4.003
56.00000 4.461
56.02000 4.876
56.04000 2.062
56.06000 2.945
56.08000 1.246
56.10000 -2.427
56.12000 0.113
56.14000 -1.300
56.16000 2.212
56.18000 6.187
56.20000 2.201
56.22000 -0.965
56.24000 -0.495
56.26000 -0.954
56.28000 1.591
56.30000 5.186
56.32000 1.214
56.34000 -2.404
56.36000 1.059
56.38000 0.794
56.40000 2.792
56.42000 3.382
56.44000 3.363
56.46000 6.266
56.48000 1.619
56.50000 2.620
56.52000 4.398
56.54000 4.855
56.56000 3.286
56.58000 3.534
56.60000 3.515
56.62000 1.578
56.64000 0.709
56.66000 2.956
56.68000 2.619
56.70000 0.430
56.72000 3.996
56.74000 3.739
56.76000 4.312
56.78000 3.985
56.80000 0.937
56.82000 2.061
56.84000 3.592
56.86000 2.011
56.88000 2.950
56.90000 3.255
56.92000 2.324
56.94000 4.950
56.96000 4.252
56.98000 3.042
57.00000 -0.368
57.02000 1.996
57.04000 -0.187
57.06000 0.140
57.08000 -0.406
57.10000 0.508
57.12000 2.109
57.14000 0.857
57.16000 0.265
57.18000 0.566
57.20000 1.466
57.22000 -1.351
57.24000 0.428
57.26000 -1.097
57.28000 1.788
57.30000 2.684
57.32000 3.047
57.34000 2.558
57.36000 -1.813
57.38000 -2.200
57.40000 1.507
57.42000 3.415
57.44000 2.585
57.46000 1.635
57.48000 -0.053
57.50000 1.505
57.52000 1.252
57.54000 -2.016
57.56000 -0.736
57.58000 1.796
57.60000 1.395
57.62000 -0.299
57.64000 1.655
57.66000 -0.929
57.68000 -2.315
57.70000 -2.411
57.72000 0.020
57.74000 1.411
57.76000 3.198
57.78000 0.649
57.80000 0.163
57.82000 -0.580
57.84000 -0.258
57.86000 0.040
57.88000 -1.515
57.90000 -1.947
57.92000 -2.115
57.94000 3.094
57.96000 2.454
57.98000 1.483
58.00000 -2.394
58.02000 -0.655
58.04000 -0.953
58.06000 -2.264
58.08000 2.851
58.10000 3.306
58.12000 4.567
58.14000 3.515
58.16000 1.359
58.18000 2.064
58.20000 1.202
58.22000 -0.987
58.24000 -0.081
58.26000 1.460
58.28000 5.714
58.30000 4.152
58.32000 6.111
58.34000 4.473
58.36000 4.841
58.38000 1.388
58.40000 -2.066
58.42000 1.965
58.44000 3.128
58.46000 1.082
58.48000 -2.363
58.50000 -0.833
58.52000 3.176
58.54000 1.908
58.56000 2.493
58.58000 2.976
58.60000 2.568
58.62000 3.626
58.64000 1.855
58.66000 3.106
58.68000 1.245
58.70000 -0.647
58.72000 -1.449
58.74000 0.696
58.76000 2.488
58.78000 3.261
58.80000 2.389
58.82000 3.141
58.84000 -0.802
58.86000 0.003
58.88000 -0.544
58.90000 -2.158
58.92000 -0.619
58.94000 1.095
58.96000 1.132
58.98000 -0.226
59.00000 1.611
59.02000 1.757
59.04000 3.760
59.06000 5.968
59.08000 3.553
59.10000 2.251
59.12000 -1.155
59.14000 -1.506
59.16000 -0.409
59.18000 3.002
59.20000 1.747
59.22000 0.001
59.24000 0.796
59.26000 1.280
59.28000 -2.340
59.30000 1.759
59.32000 2.782
59.34000 -0.478
59.36000 1.596
59.38000 1.175
59.40000 -2.078
59.42000 5.565
59.44000 5.276
59.46000 2.593
59.48000 1.800
59.50000 3.118
59.52000 0.475
59.54000 0.251
59.56000 0.629
59.58000 3.163
59.60000 3.411
59.62000 2.998
59.64000 1.447
59.66000 0.471
59.68000 2.331
59.70000 2.879
59.72000 5.135
59.74000 8.950
59.76000 5.332
59.78000 5.242
59.80000 3.595
59.82000 3.092
59.84000 2.488
59.86000 0.587
59.88000 0.857
59.90000 2.205
59.92000 7.433
59.94000 6.150
59.96000 5.115
59.98000 3.209
60.00000 4.074
60.02000 2.302
60.04000 -2.289
60.06000 1.139
60.08000 2.021
60.10000 3.075
60.12000 2.282
60.14000 3.620
60.16000 3.194
60.18000 4.685
60.20000 3.114
60.22000 2.602
60.24000 4.506
60.26000 5.702
60.28000 4.893
60.30000 4.608
60.32000 0.885
60.34000 2.822
60.36000 2.748
60.38000 3.043
60.40000 1.915
60.42000 2.050
60.44000 0.644
60.46000 -0.970
60.48000 0.872
60.50000 2.465
60.52000 1.705
60.54000 3.320
60.56000 2.427
60.58000 1.458
60.60000 6.806
60.62000 5.718
60.64000 3.055
60.66000 3.734
60.68000 2.753
60.70000 1.918
60.72000 2.590
60.74000 3.465
60.76000 0.980
60.78000 1.466
60.80000 3.163
60.82000 3.998
60.84000 3.167
60.86000 5.116
60.88000 5.557
60.90000 4.530
60.92000 2.648
60.94000 0.489
60.96000 1.915
60.98000 3.467
61.00000 4.175
61.02000 6.051
61.04000 6.647
61.06000 5.542
61.08000 5.606
61.10000 5.056
61.12000 2.978
61.14000 2.365
61.16000 1.339
61.18000 -0.027
61.20000 -2.214
61.22000 1.046
61.24000 5.546
61.26000 6.352
61.28000 4.245
61.30000 3.341
61.32000 5.261
61.34000 5.653
61.36000 5.635
61.38000 2.333
61.40000 1.527
61.42000 3.791
61.44000 2.527
61.46000 0.728
61.48000 2.395
61.50000 6.152
61.52000 4.451
61.54000 2.791
61.56000 2.700
61.58000 4.747
61.60000 5.843
61.62000 5.515
61.64000 2.344
61.66000 4.280
61.68000 -0.023
61.70000 2.524
61.72000 5.053
61.74000 5.298
61.76000 4.379
61.78000 1.945
61.80000 0.240
61.82000 1.104
61.84000 4.052
61.86000 1.248
61.88000 -0.103
61.90000 4.117
61.92000 1.192
61.94000 0.824
61.96000 4.811
61.98000 3.746
62.00000 -0.004
62.02000 0.758
62.04000 1.131
62.06000 2.623
62.08000 -0.356
62.10000 0.041
62.12000 1.772
62.14000 4.037
62.16000 2.314
62.18000 4.474
62.20000 3.728
62.22000 1.390
62.24000 2.282
62.26000 1.824
62.28000 1.589
62.30000 1.897
62.32000 0.555
62.34000 0.041
62.36000 1.841
62.38000 1.667
62.40000 1.166
62.42000 0.555
62.44000 2.897
62.46000 1.252
62.48000 1.733
62.50000 1.806
62.52000 2.767
62.54000 3.391
62.56000 0.196
62.58000 1.095
62.60000 0.628
62.62000 -0.869
62.64000 0.433
62.66000 0.114
62.68000 3.736
62.70000 3.345
62.72000 -1.385
62.74000 -1.570
62.76000 -0.262
62.78000 0.096
62.80000 2.271
62.82000 4.177
62.84000 0.537
62.86000 -2.240
62.88000 1.555
62.90000 3.076
62.92000 3.132
62.94000 3.018
62.96000 3.962
62.98000 2.549
63.00000 1.988
63.02000 1.049
63.04000 1.753
63.06000 4.153
63.08000 3.531
63.10000 1.481
63.12000 4.197
63.14000 6.682
63.16000 3.701
63.18000 -0.062
63.20000 -2.232
63.22000 -1.286
63.24000 1.193
63.26000 5.953
63.28000 5.203
63.30000 2.405
63.32000 0.643
63.34000 2.616
63.36000 1.442
63.38000 3.273
63.40000 3.310
63.42000 0.454
63.44000 2.415
63.46000 3.804
63.48000 4.525
63.50000 3.154
63.52000 2.713
63.54000 3.683
63.56000 2.321
63.58000 1.339
63.60000 0.337
63.62000 1.858
63.64000 -0.643
63.66000 -1.601
63.68000 3.617
63.70000 5.363
63.72000 5.820
63.74000 5.174
63.76000 -0.973
63.78000 0.416
63.80000 -0.546
63.82000 0.151
63.84000 0.406
63.86000 0.061
63.88000 -0.027
63.90000 1.132
63.92000 0.426
63.94000 1.955
63.96000 6.190
63.98000 6.057
64.00000 4.683
64.02000 1.789
64.04000 -0.570
64.06000 -1.471
64.08000 0.772
64.10000 2.683
64.12000 2.177
64.14000 0.149
64.16000 2.406
64.18000 2.248
64.20000 1.026
64.22000 1.413
64.24000 -0.217
64.26000 -0.423
64.28000 -0.253
64.30000 3.661
64.32000 4.259
64.34000 1.188
64.36000 1.265
64.38000 -1.455
64.40000 -0.592
64.42000 -0.038
64.44000 1.331
64.46000 2.106
64.48000 1.045
64.50000 1.216
64.52000 1.116
64.54000 -1.590
64.56000 0.566
64.58000 -0.160
64.60000 0.808
64.62000 1.645
64.64000 -2.130
64.66000 -1.048
64.68000 1.418
64.70000 3.807
64.72000 5.618
64.74000 5.238
64.76000 4.719
64.78000 0.115
64.80000 -0.861
64.82000 -1.484
64.84000 -1.097
64.86000 -0.203
64.88000 -0.286
64.90000 -2.273
64.92000 -0.087
64.94000 1.036
64.96000 -1.966
64.98000 2.821
65.00000 0.729
65.02000 0.630
65.04000 -0.286
65.06000 0.555
65.08000 3.257
65.10000 1.244
65.12000 0.857
65.14000 3.220
65.16000 0.567
65.18000 0.301
65.20000 0.564
65.22000 0.883
65.24000 -1.310
65.26000 -1.346
65.28000 2.114
65.30000 2.347
65.32000 0.959
65.34000 1.948
65.36000 1.641
65.38000 1.758
65.40000 7.189
65.42000 6.680
65.44000 3.391
65.46000 2.725
65.48000 3.630
65.50000 2.345
65.52000 1.673
65.54000 1.697
65.56000 -0.134
65.58000 -0.128
65.60000 2.182
65.62000 3.845
65.64000 1.869
65.66000 2.631
65.68000 2.529
65.70000 -1.582
65.72000 -2.261
65.74000 2.202
65.76000 3.598
65.78000 1.614
65.80000 0.716
65.82000 1.223
65.84000 -0.986
65.86000 0.782
65.88000 0.844
65.90000 4.177
65.92000 1.304
65.94000 0.079
65.96000 2.695
65.98000 3.093
66.00000 3.561
66.02000 0.980
66.04000 -2.012
66.06000 2.080
66.08000 3.877
66.10000 1.894
66.12000 1.007
66.14000 -1.719
66.16000 -0.904
66.18000 1.304
66.20000 -0.872
66.22000 -2.169
66.24000 -0.119
66.26000 1.427
66.28000 0.882
66.30000 0.809
66.32000 2.864
66.34000 0.190
66.36000 -0.295
66.38000 -0.578
66.40000 2.773
66.42000 4.506
66.44000 0.302
66.46000 0.250
66.48000 -0.475
66.50000 -1.203
66.52000 -1.417
66.54000 0.661
66.56000 1.158
66.58000 -0.032
66.60000 1.313
66.62000 3.195
66.64000 2.241
66.66000 -0.348
66.68000 -1.434
66.70000 0.458
66.72000 1.454
66.74000 1.760
66.76000 0.474
66.78000 1.692
66.80000 1.071
66.82000 1.865
66.84000 1.652
66.86000 -1.366
66.88000 -2.340
66.90000 -0.546
66.92000 2.705
66.94000 3.336
66.96000 5.048
66.98000 0.607
67.00000 1.750
67.02000 2.616
67.04000 2.054
67.06000 4.656
67.08000 5.196
67.10000 3.186
67.12000 2.539
67.14000 2.966
67.16000 3.467
67.18000 3.555
67.20000 4.528
67.22000 7.742
67.24000 7.353
67.26000 5.581
67.28000 8.031
67.30000 7.609
67.32000 7.554
67.34000 5.662
67.36000 3.125
67.38000 7.522
67.40000 8.791
67.42000 9.163
67.44000 8.918
67.46000 7.287
67.48000 7.327
67.50000 8.569
67.52000 10.413
67.54000 11.792
67.56000 12.966
67.58000 10.644
67.60000 12.413
67.62000 11.205
67.64000 13.581
67.66000 13.631
67.68000 11.909
67.70000 13.190
67.72000 15.029
67.74000 17.449
67.76000 18.854
67.78000 17.946
67.80000 16.414
67.82000 14.330
67.84000 14.477
67.86000 16.188
67.88000 16.680
67.90000 17.954
67.92000 17.623
67.94000 17.768
67.96000 15.315
67.98000 16.395
68.00000 20.053
68.02000 14.346
68.04000 11.386
68.06000 14.739
68.08000 15.751
68.10000 15.062
68.12000 16.439
68.14000 18.155
68.16000 18.861
68.18000 17.136
68.20000 15.713
68.22000 14.462
68.24000 14.613
68.26000 15.322
68.28000 17.314
68.30000 13.977
68.32000 11.861
68.34000 7.863
68.36000 7.047
68.38000 7.648
68.40000 8.656
68.42000 11.289
68.44000 5.758
68.46000 5.130
68.48000 6.371
68.50000 5.855
68.52000 2.187
68.54000 3.603
68.56000 3.748
68.58000 3.600
68.60000 4.717
68.62000 4.022
68.64000 6.130
68.66000 6.504
68.68000 4.129
68.70000 3.630
68.72000 1.619
68.74000 0.257
68.76000 1.329
68.78000 -0.685
68.80000 2.022
68.82000 2.612
68.84000 2.746
68.86000 2.035
68.88000 3.613
68.90000 2.136
68.92000 3.479
68.94000 -0.070
68.96000 -1.834
68.98000 -0.094
69.00000 -0.366
69.02000 -1.923
69.04000 -1.398
69.06000 1.115
69.08000 0.701
69.10000 1.255
69.12000 -0.891
69.14000 -2.244
69.16000 -2.020
69.18000 -0.443
69.20000 1.146
69.22000 1.334
69.24000 1.224
69.26000 1.911
69.28000 3.653
69.30000 2.419
69.32000 2.149
69.34000 2.217
69.36000 1.066
69.38000 -0.546
69.40000 1.358
69.42000 1.703
69.44000 -0.969
69.46000 -0.020
69.48000 1.218
69.50000 -0.925
69.52000 -1.652
69.54000 -1.647
69.56000 3.663
69.58000 3.715
69.60000 1.867
69.62000 -0.126
69.64000 1.923
69.66000 0.575
69.68000 1.044
69.70000 2.021
69.72000 0.871
69.74000 0.097
69.76000 2.196
69.78000 2.078
69.80000 1.734
69.82000 1.977
69.84000 -0.126
69.86000 1.637
69.88000 -2.183
69.90000 -0.824
69.92000 1.386
69.94000 3.191
69.96000 -1.113
69.98000 -1.432
70.00000 3.049
70.02000 -1.062
70.04000 -2.173
70.06000 -0.984
70.08000 3.714
70.10000 4.849
70.12000 -0.563
70.14000 -1.168
70.16000 0.921
70.18000 1.379
70.20000 3.736
70.22000 4.595
70.24000 0.316
70.26000 2.528
70.28000 4.691
70.30000 2.418
70.32000 1.759
70.34000 -1.476
70.36000 -1.379
70.38000 2.106
70.40000 3.865
70.42000 5.187
70.44000 3.902
70.46000 1.802
70.48000 -0.491
70.50000 -2.138
70.52000 2.382
70.54000 -0.519
70.56000 0.957
70.58000 -0.084
70.60000 -2.132
70.62000 0.526
70.64000 1.225
70.66000 4.324
70.68000 5.253
70.70000 3.929
70.72000 3.228
70.74000 3.010
70.76000 3.019
70.78000 4.505
70.80000 3.640
70.82000 1.328
70.84000 0.643
70.86000 -1.856
70.88000 3.004
70.90000 3.664
70.92000 3.338
70.94000 -0.680
70.96000 -2.134
70.98000 -0.204
71.00000 0.569
71.02000 6.030
71.04000 8.591
71.06000 4.843
71.08000 -0.080
71.10000 -0.495
71.12000 1.824
71.14000 3.950
71.16000 1.857
71.18000 0.873
71.20000 2.104
71.22000 1.550
71.24000 2.297
71.26000 1.553
71.28000 3.741
71.30000 1.826
71.32000 0.048
71.34000 0.904
71.36000 0.617
71.38000 1.641
71.40000 1.446
71.42000 -0.063
71.44000 -0.911
71.46000 -1.378
71.48000 -1.314
71.50000 -0.190
71.52000 -0.053
71.54000 -0.254
71.56000 1.483
71.58000 1.220
71.60000 2.046
71.62000 2.611
71.64000 -0.599
71.66000 -0.061
71.68000 -0.394
71.70000 1.873
71.72000 0.663
71.74000 -1.245
71.76000 2.185
71.78000 0.922
71.80000 1.278
71.82000 1.961
71.84000 2.235
71.86000 2.097
71.88000 0.973
71.90000 3.568
71.92000 2.459
71.94000 0.793
71.96000 4.110
71.98000 -0.360
72.00000 -0.092
72.02000 0.723
72.04000 2.430
72.06000 1.097
72.08000 0.135
72.10000 0.828
72.12000 1.997
72.14000 2.984
72.16000 4.333
72.18000 4.927
72.20000 4.215
72.22000 1.735
72.24000 2.961
72.26000 -2.075
72.28000 -1.786
72.30000 2.832
72.32000 1.454
72.34000 3.620
72.36000 4.372
72.38000 1.936
72.40000 1.199
72.42000 -1.063
72.44000 2.304
72.46000 4.193
72.48000 2.033
72.50000 0.989
72.52000 1.159
72.54000 3.648
72.56000 1.488
72.58000 2.235
72.60000 3.604
72.62000 3.429
72.64000 2.908
72.66000 2.612
72.68000 -1.026
72.70000 -0.830
72.72000 1.336
72.74000 3.805
72.76000 1.959
72.78000 5.087
72.80000 3.353
72.82000 1.349
72.84000 -2.072
72.86000 4.602
72.88000 3.629
72.90000 3.560
72.92000 3.665
72.94000 3.294
72.96000 1.710
72.98000 1.416
73.00000 1.976
73.02000 5.662
73.04000 5.610
73.06000 3.874
73.08000 5.427
73.10000 5.722
73.12000 0.381
73.14000 1.257
73.16000 2.358
73.18000 1.302
73.20000 0.545
73.22000 -1.031
73.24000 1.014
73.26000 0.273
73.28000 1.448
73.30000 0.961
73.32000 1.545
73.34000 0.777
73.36000 3.162
73.38000 3.734
73.40000 2.355
73.42000 5.885
73.44000 7.862
73.46000 6.337
73.48000 3.126
73.50000 -0.567
73.52000 2.843
73.54000 4.394
73.56000 6.044
73.58000 3.924
73.60000 -2.026
73.62000 5.005
73.64000 9.344
73.66000 5.793
73.68000 1.565
73.70000 0.374
73.72000 1.413
73.74000 0.141
73.76000 -0.633
73.78000 -2.033
73.80000 2.332
73.82000 3.669
73.84000 5.657
73.86000 6.392
73.88000 5.842
73.90000 3.243
73.92000 0.798
73.94000 0.526
73.96000 -1.148
73.98000 2.536
74.00000 6.313
74.02000 3.291
74.04000 1.335
74.06000 2.182
74.08000 2.711
74.10000 2.642
74.12000 1.312
74.14000 3.352
74.16000 2.103
74.18000 3.299
74.20000 3.266
74.22000 2.850
74.24000 2.418
74.26000 0.176
74.28000 -0.734
74.30000 2.517
74.32000 3.586
74.34000 0.173
74.36000 2.337
74.38000 2.126
74.40000 0.722
74.42000 -0.910
74.44000 2.156
74.46000 3.221
74.48000 2.928
74.50000 2.862
74.52000 4.926
74.54000 -0.120
74.56000 0.164
74.58000 1.773
74.60000 -1.073
74.62000 1.658
74.64000 4.042
74.66000 0.611
74.68000 -1.410
74.70000 1.994
74.72000 -2.086
74.74000 -1.287
74.76000 0.150
74.78000 4.100
74.80000 3.403
74.82000 1.802
74.84000 4.940
74.86000 3.250
74.88000 1.489
74.90000 1.444
74.92000 3.456
74.94000 -1.683
74.96000 3.406
74.98000 3.284
75.00000 5.015
75.02000 4.932
75.04000 4.731
75.06000 6.358
75.08000 3.387
75.10000 0.912
75.12000 2.227
75.14000 1.940
75.16000 1.304
75.18000 2.498
75.20000 0.831
75.22000 2.227
75.24000 2.937
75.26000 3.167
75.28000 1.986
75.30000 -0.085
75.32000 0.566
75.34000 1.568
75.36000 1.507
75.38000 2.391
75.40000 3.700
75.42000 3.989
75.44000 4.310
75.46000 2.327
75.48000 -2.081
75.50000 0.830
75.52000 2.498
75.54000 2.727
75.56000 4.144
75.58000 3.162
75.60000 0.242
75.62000 1.161
75.64000 -0.380
75.66000 2.898
75.68000 1.220
75.70000 2.046
75.72000 2.132
75.74000 7.914
75.76000 5.706
75.78000 2.209
75.80000 1.992
75.82000 -0.526
75.84000 -2.096
75.86000 -0.481
75.88000 0.459
75.90000 0.973
75.92000 1.257
75.94000 2.700
75.96000 2.293
75.98000 0.697
76.00000 -1.833
76.02000 0.424
76.04000 1.834
76.06000 1.107
76.08000 -1.893
76.10000 1.562
76.12000 3.554
76.14000 2.099
76.16000 1.239
76.18000 2.325
76.20000 2.319
76.22000 2.007
76.24000 -1.406
76.26000 -2.116
76.28000 0.455
76.30000 -2.037
76.32000 -1.155
76.34000 1.284
76.36000 0.840
76.38000 1.587
76.40000 1.811
76.42000 0.193
76.44000 1.483
76.46000 3.279
76.48000 3.645
76.50000 0.958
76.52000 -0.687
76.54000 1.649
76.56000 -2.013
76.58000 0.122
76.60000 2.676
76.62000 -0.491
76.64000 1.981
76.66000 0.552
76.68000 0.939
76.70000 1.352
76.72000 1.025
76.74000 1.824
76.76000 5.835
76.78000 -0.538
76.80000 -1.710
76.82000 -0.620
76.84000 0.548
76.86000 0.074
76.88000 -0.619
76.90000 -0.908
76.92000 -0.757
76.94000 -1.677
76.96000 1.340
76.98000 0.465
77.00000 -0.175
77.02000 1.567
77.04000 -0.843
77.06000 -2.129
77.08000 1.819
77.10000 1.519
77.12000 -1.058
77.14000 -0.181
77.16000 1.734
77.18000 4.719
77.20000 2.704
77.22000 1.189
77.24000 4.142
77.26000 0.930
77.28000 -1.748
77.30000 -0.423
77.32000 3.479
77.34000 5.114
77.36000 0.822
77.38000 -1.772
77.40000 -0.788
77.42000 1.302
77.44000 1.808
77.46000 -0.374
77.48000 2.259
77.50000 1.071
77.52000 4.282
77.54000 3.233
77.56000 1.927
77.58000 4.149
77.60000 3.743
77.62000 1.925
77.64000 2.288
77.66000 2.936
77.68000 2.965
77.70000 -0.666
77.72000 -0.702
77.74000 1.461
77.76000 -1.247
77.78000 -2.140
77.80000 2.357
77.82000 1.264
77.84000 3.376
77.86000 3.889
77.88000 1.805
77.90000 -0.209
77.92000 3.830
77.94000 0.910
77.96000 -0.359
77.98000 3.940
78.00000 5.892
78.02000 1.833
78.04000 7.378
78.06000 6.616
78.08000 1.266
78.10000 -1.984
78.12000 1.403
78.14000 -0.595
78.16000 1.082
78.18000 6.097
78.20000 1.971
78.22000 -0.318
78.24000 -0.283
78.26000 -2.151
78.28000 1.816
78.30000 2.405
78.32000 2.548
78.34000 3.828
78.36000 0.314
78.38000 -0.538
78.40000 6.143
78.42000 2.152
78.44000 1.577
78.46000 4.554
78.48000 4.216
78.50000 2.008
78.52000 2.477
78.54000 0.844
78.56000 1.576
78.58000 1.887
78.60000 3.741
78.62000 3.260
78.64000 0.707
78.66000 -0.297
78.68000 1.576
78.70000 2.696
78.72000 2.186
78.74000 5.410
78.76000 1.945
78.78000 1.310
78.80000 0.567
78.82000 -1.064
78.84000 -0.715
78.86000 4.118
78.88000 4.403
78.90000 5.469
78.92000 6.830
78.94000 5.289
78.96000 4.172
78.98000 -0.122
79.00000 1.686
79.02000 3.821
79.04000 2.842
79.06000 4.227
79.08000 1.412
79.10000 1.468
79.12000 1.163
79.14000 -1.252
79.16000 -2.154
79.18000 1.802
79.20000 4.850
79.22000 6.141
79.24000 4.488
79.26000 4.794
79.28000 2.146
79.30000 -2.161
79.32000 1.089
79.34000 2.739
79.36000 3.506
79.38000 1.109
79.40000 1.499
79.42000 1.251
79.44000 0.627
79.46000 3.056
79.48000 3.696
79.50000 1.121
79.52000 0.526
79.54000 3.636
79.56000 3.216
79.58000 3.668
79.60000 1.658
79.62000 0.326
79.64000 2.438
79.66000 3.343
79.68000 2.397
79.70000 2.065
79.72000 3.083
79.74000 1.804
79.76000 1.504
79.78000 0.425
79.80000 1.644
79.82000 1.186
79.84000 4.252
79.86000 2.563
79.88000 2.864
79.90000 2.049
79.92000 3.014
79.94000 2.262
79.96000 0.298
79.98000 -2.249
80.00000 2.759
80.02000 1.831
80.04000 1.682
80.06000 3.040
80.08000 3.884
80.10000 0.373
80.12000 -1.338
80.14000 -1.020
80.16000 3.231
80.18000 -0.173
80.20000 2.892
80.22000 3.647
80.24000 3.537
80.26000 3.471
80.28000 2.369
80.30000 0.372
80.32000 3.047
80.34000 1.772
80.36000 2.562
80.38000 3.195
80.40000 3.362
80.42000 1.640
80.44000 2.211
80.46000 3.952
80.48000 4.394
80.50000 5.180
80.52000 4.544
80.54000 2.759
80.56000 1.681
80.58000 -1.020
80.60000 -0.924
80.62000 2.091
80.64000 3.203
80.66000 2.431
80.68000 4.917
80.70000 9.046
80.72000 9.005
80.74000 3.491
80.76000 1.879
80.78000 5.804
80.80000 7.629
80.82000 8.095
80.84000 7.853
80.86000 7.304
80.88000 9.418
80.90000 9.143
80.92000 6.941
80.94000 9.758
80.96000 12.750
80.98000 10.899
81.00000 9.801
81.02000 12.147
81.04000 9.286
81.06000 12.975
81.08000 13.478
81.10000 12.527
81.12000 9.331
81.14000 12.289
81.16000 13.607
81.18000 16.870
81.20000 19.330
81.22000 18.720
81.24000 20.633
81.26000 18.654
81.28000 17.899
81.30000 16.409
81.32000 17.966
81.34000 24.957
81.36000 24.577
81.38000 20.705
81.40000 23.586
81.42000 23.287
81.44000 24.026
81.46000 25.727
81.48000 23.427
81.50000 23.642
81.52000 28.799
81.54000 26.297
81.56000 29.390
81.58000 29.417
81.60000 30.703
81.62000 28.135
81.64000 26.647
81.66000 25.443
81.68000 31.588
81.70000 33.355
81.72000 30.001
81.74000 32.581
81.76000 29.372
81.78000 32.410
81.80000 37.722
81.82000 35.263
81.84000 31.988
81.86000 33.538
81.88000 33.353
81.90000 32.229
81.92000 35.468
81.94000 35.184
81.96000 29.794
81.98000 32.939
82.00000 34.191
82.02000 34.413
82.04000 38.436
82.06000 37.718
82.08000 31.818
82.10000 31.281
82.12000 34.865
82.14000 33.406
82.16000 34.636
82.18000 32.164
82.20000 32.060
82.22000 29.063
82.24000 31.959
82.26000 31.997
82.28000 32.568
82.30000 24.919
82.32000 21.683
82.34000 22.631
82.36000 20.977
82.38000 21.522
82.40000 24.319
82.42000 20.463
82.44000 25.063
82.46000 23.518
82.48000 17.310
82.50000 17.375
82.52000 18.999
82.54000 14.922
82.56000 15.889
82.58000 14.264
82.60000 16.302
82.62000 14.397
82.64000 10.093
82.66000 8.448
82.68000 11.998
82.70000 12.596
82.72000 14.425
82.74000 14.687
82.76000 12.219
82.78000 11.872
82.80000 7.943
82.82000 6.236
82.84000 9.098
82.86000 6.414
82.88000 7.300
82.90000 5.835
82.92000 8.660
82.94000 6.862
82.96000 10.102
82.98000 10.074
83.00000 7.781
83.02000 5.562
83.04000 6.136
83.06000 6.283
83.08000 9.312
83.10000 8.263
83.12000 2.185
83.14000 3.277
83.16000 6.534
83.18000 2.787
83.20000 3.640
83.22000 3.501
83.24000 3.291
83.26000 -1.220
83.28000 -2.262
83.30000 1.724
83.32000 1.693
83.34000 3.985
83.36000 1.286
83.38000 0.003
83.40000 -0.920
83.42000 -0.051
83.44000 3.937
83.46000 7.866
83.48000 5.109
83.50000 0.315
83.52000 1.867
83.54000 4.691
83.56000 0.999
83.58000 -1.525
83.60000 -1.090
83.62000 0.344
83.64000 1.698
83.66000 4.510
83.68000 -0.211
83.70000 -1.769
83.72000 1.111
83.74000 -0.440
83.76000 -0.161
83.78000 4.955
83.80000 4.777
83.82000 1.328
83.84000 0.995
83.86000 3.012
83.88000 3.653
83.90000 1.596
83.92000 0.240
83.94000 2.946
83.96000 6.449
83.98000 4.715
84.00000 0.820
84.02000 -2.237
84.04000 0.921
84.06000 4.580
84.08000 2.713
84.10000 -0.669
84.12000 2.550
84.14000 3.361
84.16000 2.482
84.18000 0.341
84.20000 3.568
84.22000 5.406
84.24000 3.732
84.26000 2.402
84.28000 2.510
84.30000 1.327
84.32000 3.729
84.34000 -0.132
84.36000 1.105
84.38000 1.890
84.40000 0.178
84.42000 1.486
84.44000 -1.594
84.46000 2.755
84.48000 4.878
84.50000 3.452
84.52000 1.885
84.54000 -0.040
84.56000 0.854
84.58000 2.230
84.60000 4.504
84.62000 4.334
84.64000 -0.205
84.66000 2.226
84.68000 3.756
84.70000 4.198
84.72000 -0.510
84.74000 -1.465
84.76000 2.740
84.78000 3.983
84.80000 4.450
84.82000 1.117
84.84000 5.582
84.86000 1.084
84.88000 0.774
84.90000 3.828
84.92000 7.049
84.94000 4.722
84.96000 5.782
84.98000 6.241
85.00000 5.784
85.02000 6.357
85.04000 11.033
85.06000 11.038
85.08000 8.727
85.10000 10.170
85.12000 9.713
85.14000 9.583
85.16000 8.082
85.18000 11.666
85.20000 12.891
85.22000 10.705
85.24000 11.786
85.26000 10.926
85.28000 13.688
85.30000 15.360
85.32000 12.900
85.34000 18.159
85.36000 16.919
85.38000 17.212
85.40000 14.724
85.42000 18.245
85.44000 17.655
85.46000 17.858
85.48000 17.729
85.50000 22.419
85.52000 21.247
85.54000 17.305
85.56000 20.430
85.58000 18.360
85.60000 19.309
85.62000 24.452
85.64000 26.607
85.66000 25.202
85.68000 25.401
85.70000 27.446
85.72000 27.093
85.74000 27.327
85.76000 24.602
85.78000 24.155
85.80000 28.159
85.82000 28.951
85.84000 29.294
85.86000 35.540
85.88000 30.671
85.90000 26.700
85.92000 27.561
85.94000 25.596
85.96000 30.927
85.98000 29.076
86.00000 27.326
86.02000 25.436
86.04000 28.616
86.06000 28.250
86.08000 27.732
86.10000 24.874
86.12000 31.411
86.14000 31.069
86.16000 27.245
86.18000 28.913
86.20000 30.107
86.22000 32.686
86.24000 30.482
86.26000 31.236
86.28000 27.834
86.30000 27.138
86.32000 22.752
86.34000 22.689
86.36000 23.556
86.38000 24.525
86.40000 21.050
86.42000 17.708
86.44000 22.115
86.46000 22.712
86.48000 22.273
86.50000 19.684
86.52000 14.328
86.54000 15.683
86.56000 15.213
86.58000 12.214
86.60000 14.895
86.62000 13.789
86.64000 14.290
86.66000 13.032
86.68000 13.020
86.70000 13.355
86.72000 14.096
86.74000 13.198
86.76000 11.426
86.78000 8.219
86.80000 7.412
86.82000 7.059
86.84000 5.400
86.86000 8.446
86.88000 6.281
86.90000 5.371
86.92000 4.315
86.94000 4.609
86.96000 4.905
86.98000 6.375
87.00000 3.216
87.02000 2.834
87.04000 3.672
87.06000 3.265
87.08000 6.832
87.10000 8.530
87.12000 7.858
87.14000 7.835
87.16000 6.413
87.18000 5.353
87.20000 3.457
87.22000 6.600
87.24000 5.234
87.26000 1.032
87.28000 -2.075
87.30000 1.821
87.32000 1.124
87.34000 1.965
87.36000 2.700
87.38000 0.200
87.40000 4.809
87.42000 2.754
87.44000 1.628
87.46000 0.209
87.48000 0.499
87.50000 4.422
87.52000 3.657
87.54000 1.215
87.56000 0.686
87.58000 1.643
87.60000 2.170
87.62000 2.518
87.64000 6.051
87.66000 8.740
87.68000 0.493
87.70000 1.876
87.72000 2.858
87.74000 -0.196
87.76000 1.777
87.78000 -2.026
87.80000 -1.168
87.82000 2.361
87.84000 2.505
87.86000 4.141
87.88000 4.550
87.90000 2.474
87.92000 2.840
87.94000 1.056
87.96000 -0.976
87.98000 0.009
88.00000 0.063
88.02000 -0.751
88.04000 -0.564
88.06000 2.735
88.08000 8.769
88.10000 3.797
88.12000 1.247
88.14000 2.998
88.16000 1.060
88.18000 2.485
88.20000 2.642
88.22000 5.050
88.24000 1.627
88.26000 -0.978
88.28000 1.635
88.30000 3.688
88.32000 2.861
88.34000 0.217
88.36000 1.422
88.38000 0.885
88.40000 5.331
88.42000 0.519
88.44000 2.204
88.46000 -1.968
88.48000 0.375
88.50000 3.510
88.52000 0.324
88.54000 0.695
88.56000 3.052
88.58000 0.262
88.60000 1.755
88.62000 4.782
88.64000 2.202
88.66000 5.005
88.68000 4.949
88.70000 6.668
88.72000 5.891
88.74000 1.645
88.76000 0.591
88.78000 4.618
88.80000 0.389
88.82000 2.004
88.84000 3.754
88.86000 3.945
88.88000 4.531
88.90000 4.256
88.92000 3.916
88.94000 2.202
88.96000 3.037
88.98000 4.299
89.00000 4.230
89.02000 2.598
89.04000 3.093
89.06000 4.146
89.08000 6.292
89.10000 7.989
89.12000 5.631
89.14000 3.417
89.16000 4.994
89.18000 5.934
89.20000 2.090
89.22000 -1.946
89.24000 1.324
89.26000 3.080
89.28000 0.965
89.30000 1.927
89.32000 0.388
89.34000 3.419
89.36000 3.438
89.38000 -0.044
89.40000 2.266
89.42000 3.715
89.44000 4.246
89.46000 0.905
89.48000 0.188
89.50000 -1.109
89.52000 3.233
89.54000 3.052
89.56000 0.231
89.58000 3.001
89.60000 1.308
89.62000 1.137
89.64000 2.787
89.66000 3.811
89.68000 3.816
89.70000 2.165
89.72000 1.288
89.74000 2.787
89.76000 3.339
89.78000 0.356
89.80000 4.958
89.82000 4.614
89.84000 3.204
89.86000 3.931
89.88000 3.026
89.90000 0.981
89.92000 4.834
89.94000 5.955
89.96000 3.354
89.98000 3.488
90.00000 4.027
90.02000 2.316
90.04000 1.868
90.06000 3.002
90.08000 2.503
90.10000 -0.867
90.12000 2.796
90.14000 6.945
90.16000 7.082
90.18000 2.501
90.20000 1.867
90.22000 0.544
90.24000 -1.922
90.26000 2.149
90.28000 1.159
90.30000 -0.472
90.32000 2.127
90.34000 3.079
90.36000 4.424
90.38000 5.482
90.40000 3.533
90.42000 0.120
90.44000 3.096
90.46000 4.461
90.48000 3.021
90.50000 0.720
90.52000 -0.405
90.54000 0.202
90.56000 0.764
90.58000 4.862
90.60000 4.025
90.62000 5.221
90.64000 6.940
90.66000 3.083
90.68000 0.021
90.70000 -0.051
90.72000 0.415
90.74000 0.176
90.76000 3.295
90.78000 3.583
90.80000 1.115
90.82000 -0.060
90.84000 2.601
90.86000 4.481
90.88000 3.282
90.90000 2.277
90.92000 1.775
90.94000 -1.956
90.96000 0.751
90.98000 0.492
91.00000 1.298
91.02000 -0.417
91.04000 0.650
91.06000 3.603
91.08000 4.307
91.10000 3.016
91.12000 0.586
91.14000 6.403
91.16000 6.280
91.18000 5.235
91.20000 3.044
91.22000 -1.783
91.24000 2.836
91.26000 0.922
91.28000 1.368
91.30000 3.336
91.32000 2.635
91.34000 1.783
91.36000 3.660
91.38000 3.890
91.40000 3.747
91.42000 1.046
91.44000 1.596
91.46000 3.923
91.48000 2.936
91.50000 1.761
91.52000 3.878
91.54000 6.391
91.56000 6.607
91.58000 2.021
91.60000 1.514
91.62000 1.506
91.64000 3.416
91.66000 5.009
91.68000 0.592
91.70000 1.274
91.72000 0.657
91.74000 3.099
91.76000 3.707
91.78000 5.677
91.80000 5.929
91.82000 3.849
91.84000 5.318
91.86000 3.436
91.88000 4.941
91.90000 7.812
91.92000 7.700
91.94000 3.145
91.96000 2.447
91.98000 4.536
92.00000 8.162
92.02000 6.830
92.04000 6.189
92.06000 7.697
92.08000 2.999
92.10000 3.185
92.12000 6.505
92.14000 5.436
92.16000 5.662
92.18000 3.907
92.20000 -1.908
92.22000 -0.006
92.24000 1.782
92.26000 2.502
92.28000 3.761
92.30000 7.559
92.32000 7.464
92.34000 4.167
92.36000 3.334
92.38000 7.659
92.40000 5.545
92.42000 5.706
92.44000 7.952
92.46000 9.098
92.48000 4.234
92.50000 5.871
92.52000 4.656
92.54000 5.582
92.56000 3.908
92.58000 6.737
92.60000 7.783
92.62000 5.553
92.64000 4.036
92.66000 2.920
92.68000 4.440
92.70000 1.819
92.72000 0.115
92.74000 2.804
92.76000 4.225
92.78000 1.149
92.80000 2.424
92.82000 4.717
92.84000 5.332
92.86000 3.748
92.88000 0.910
92.90000 1.860
92.92000 2.321
92.94000 4.806
92.96000 5.225
92.98000 5.646
93.00000 5.466
93.02000 2.428
93.04000 0.643
93.06000 0.914
93.08000 1.716
93.10000 -0.618
93.12000 1.024
93.14000 -1.718
93.16000 -1.953
93.18000 0.330
93.20000 2.152
93.22000 2.482
93.24000 2.154
93.26000 2.723
93.28000 5.714
93.30000 1.810
93.32000 6.278
93.34000 4.329
93.36000 4.478
93.38000 5.545
93.40000 7.001
93.42000 2.822
93.44000 2.766
93.46000 2.565
93.48000 4.014
93.50000 8.306
93.52000 6.294
93.54000 1.337
93.56000 4.059
93.58000 6.777
93.60000 0.844
93.62000 1.475
93.64000 -0.476
93.66000 2.703
93.68000 2.167
93.70000 4.017
93.72000 2.121
93.74000 5.321
93.76000 6.030
93.78000 5.356
93.80000 1.337
93.82000 2.677
93.84000 2.756
93.86000 0.858
93.88000 2.705
93.90000 3.359
93.92000 1.212
93.94000 -1.986
93.96000 0.358
93.98000 2.453
94.00000 -0.245
94.02000 1.628
94.04000 0.955
94.06000 3.733
94.08000 3.538
94.10000 1.992
94.12000 4.771
94.14000 0.786
94.16000 0.431
94.18000 0.059
94.20000 -1.718
94.22000 0.379
94.24000 -2.002
94.26000 0.272
94.28000 0.053
94.30000 1.601
94.32000 0.762
94.34000 0.159
94.36000 0.627
94.38000 1.505
94.40000 2.890
94.42000 0.981
94.44000 1.126
94.46000 5.333
94.48000 3.882
94.50000 2.060
94.52000 -0.299
94.54000 -2.019
94.56000 0.008
94.58000 3.204
94.60000 2.039
94.62000 3.816
94.64000 6.187
94.66000 5.906
94.68000 2.675
94.70000 0.658
94.72000 0.943
94.74000 3.410
94.76000 2.553
94.78000 2.509
94.80000 0.243
94.82000 -1.113
94.84000 -0.220
94.86000 -0.418
94.88000 -1.300
94.90000 -0.102
94.92000 2.548
94.94000 3.614
94.96000 0.475
94.98000 -1.308
95.00000 -0.398
95.02000 2.681
95.04000 -1.542
95.06000 -0.528
95.08000 -0.702
95.10000 0.548
95.12000 -1.142
95.14000 -1.565
95.16000 -0.613
95.18000 1.374
95.20000 3.103
95.22000 1.939
95.24000 1.986
95.26000 0.934
95.28000 3.160
95.30000 4.402
95.32000 2.687
95.34000 2.939
95.36000 2.928
95.38000 3.198
95.40000 0.185
95.42000 -1.860
95.44000 2.454
95.46000 3.625
95.48000 3.124
95.50000 3.189
95.52000 4.319
95.54000 3.207
95.56000 0.305
95.58000 3.314
95.60000 2.991
95.62000 -0.108
95.64000 -1.996
95.66000 -1.407
95.68000 -1.804
95.70000 2.915
95.72000 4.299
95.74000 0.129
95.76000 3.512
95.78000 2.324
95.80000 2.544
95.82000 2.015
95.84000 1.722
95.86000 -1.507
95.88000 -0.125
95.90000 -0.194
95.92000 0.390
95.94000 2.103
95.96000 1.174
95.98000 1.642
96.00000 1.206
96.02000 3.508
96.04000 4.146
96.06000 5.891
96.08000 -0.116
96.10000 3.274
96.12000 2.495
96.14000 4.267
96.16000 7.916
96.18000 8.674
96.20000 2.871
96.22000 6.040
96.24000 3.919
96.26000 5.228
96.28000 6.363
96.30000 2.682
96.32000 -1.577
96.34000 -1.996
96.36000 -1.851
96.38000 1.904
96.40000 5.268
96.42000 3.416
96.44000 1.776
96.46000 -1.827
96.48000 -0.836
96.50000 -0.212
96.52000 5.180
96.54000 2.159
96.56000 -0.019
96.58000 4.340
96.60000 6.117
96.62000 0.820
96.64000 2.814
96.66000 6.199
96.68000 2.544
96.70000 0.122
96.72000 1.309
96.74000 8.359
96.76000 3.471
96.78000 0.290
96.80000 5.663
96.82000 2.718
96.84000 2.537
96.86000 -1.537
96.88000 -0.524
96.90000 3.901
96.92000 5.454
96.94000 -1.612
96.96000 -1.438
96.98000 3.898
97.00000 5.629
97.02000 0.245
97.04000 2.389
97.06000 2.670
97.08000 3.146
97.10000 0.987
97.12000 1.328
97.14000 4.054
97.16000 3.968
97.18000 6.085
97.20000 2.760
97.22000 4.860
97.24000 5.274
97.26000 1.919
97.28000 7.692
97.30000 5.668
97.32000 10.078
97.34000 6.964
97.36000 0.837
97.38000 1.354
97.40000 1.726
97.42000 4.137
97.44000 1.917
97.46000 3.631
97.48000 3.091
97.50000 7.356
97.52000 5.471
97.54000 0.942
97.56000 0.228
97.58000 0.544
97.60000 0.952
97.62000 2.019
97.64000 4.401
97.66000 2.639
97.68000 1.237
97.70000 5.320
97.72000 3.182
97.74000 2.443
97.76000 -1.011
97.78000 -1.988
97.80000 0.959
97.82000 4.201
97.84000 2.051
97.86000 1.740
97.88000 -0.044
97.90000 1.993
97.92000 7.006
97.94000 2.379
97.96000 2.275
97.98000 3.724
98.00000 3.322
98.02000 2.539
98.04000 6.331
98.06000 3.352
98.08000 2.903
98.10000 6.539
98.12000 3.627
98.14000 1.353
98.16000 1.991
98.18000 0.924
98.20000 2.787
98.22000 2.122
98.24000 -0.608
98.26000 1.228
98.28000 5.167
98.30000 8.074
98.32000 9.934
98.34000 10.021
98.36000 5.284
98.38000 5.026
98.40000 4.554
98.42000 -1.940
98.44000 -1.332
98.46000 -0.427
98.48000 5.532
98.50000 1.704
98.52000 3.790
98.54000 -0.426
98.56000 -0.877
98.58000 5.801
98.60000 3.906
98.62000 6.419
98.64000 5.133
98.66000 3.465
98.68000 1.105
98.70000 3.573
98.72000 0.470
98.74000 2.444
98.76000 5.952
98.78000 4.574
98.80000 2.893
98.82000 6.890
98.84000 2.830
98.86000 3.212
98.88000 6.150
98.90000 3.868
98.92000 1.627
98.94000 6.219
98.96000 2.679
98.98000 8.290
99.00000 -0.049
99.02000 5.368
99.04000 7.472
99.06000 6.803
99.08000 1.576
99.10000 10.953
99.12000 13.596
99.14000 12.672
99.16000 14.840
99.18000 3.469
99.20000 4.896
99.22000 6.642
99.24000 4.354
99.26000 2.228
99.28000 6.605
99.30000 13.201
99.32000 9.025
99.34000 -1.920
99.36000 0.418
99.38000 4.514
99.40000 3.720
99.42000 5.668
99.44000 8.433
99.46000 4.268
99.48000 9.334
99.50000 10.798
99.52000 4.321
99.54000 6.459
99.56000 6.303
99.58000 -1.367
99.60000 4.025
99.62000 16.567
99.64000 6.555
99.66000 -0.310
99.68000 0.434
99.70000 0.265
99.72000 -0.354
99.74000 -1.999
99.76000 1.894
99.78000 3.083
99.80000 8.760
99.82000 4.196
99.84000 7.645
99.86000 6.911
99.88000 -1.012
99.90000 -2.469
99.92000 11.031
99.94000 1.403
99.96000 6.649
99.98000 0.000
