'Id: "0011389" Comment: "Integrate frame 0011389_Au-Ir-Rh_Au-Rich_XRD_Mapping-105-0000.gfrmwith cursor Wedge Cursor #5" Operator: "B?rgel" Anode: "Cu" Wavelength: "1.5406" Scantype: "2Theta (TwoTheta)" TimePerStep: "1" X: "4.5" Y: "-13.5" Z: "5.95" 
10.00000 0.000
10.02000 -4.166
10.04000 -2.738
10.06000 2.058
10.08000 4.588
10.10000 14.132
10.12000 12.658
10.14000 18.728
10.16000 -4.658
10.18000 -0.762
10.20000 5.794
10.22000 18.155
10.24000 4.566
10.26000 4.130
10.28000 9.755
10.30000 0.636
10.32000 11.974
10.34000 14.101
10.36000 8.877
10.38000 2.349
10.40000 7.356
10.42000 2.232
10.44000 14.775
10.46000 8.207
10.48000 6.247
10.50000 15.689
10.52000 11.273
10.54000 2.018
10.56000 5.071
10.58000 31.421
10.60000 23.144
10.62000 16.780
10.64000 12.220
10.66000 16.371
10.68000 10.322
10.70000 17.555
10.72000 9.342
10.74000 -4.141
10.76000 3.874
10.78000 14.952
10.80000 8.593
10.82000 15.362
10.84000 20.484
10.86000 18.412
10.88000 13.500
10.90000 16.949
10.92000 7.634
10.94000 6.989
10.96000 9.930
10.98000 5.310
11.00000 -3.127
11.02000 6.526
11.04000 23.116
11.06000 12.773
11.08000 22.313
11.10000 39.223
11.12000 25.809
11.14000 8.896
11.16000 10.095
11.18000 12.613
11.20000 18.959
11.22000 18.682
11.24000 6.335
11.26000 13.081
11.28000 15.969
11.30000 13.598
11.32000 18.602
11.34000 14.387
11.36000 14.116
11.38000 2.961
11.40000 3.062
11.42000 14.340
11.44000 18.587
11.46000 24.240
11.48000 5.046
11.50000 5.429
11.52000 15.954
11.54000 13.231
11.56000 18.686
11.58000 20.424
11.60000 25.714
11.62000 18.852
11.64000 17.153
11.66000 10.453
11.68000 2.384
11.70000 7.265
11.72000 -4.274
11.74000 5.032
11.76000 13.462
11.78000 16.868
11.80000 13.817
11.82000 8.629
11.84000 5.724
11.86000 1.571
11.88000 9.891
11.90000 11.991
11.92000 14.357
11.94000 22.098
11.96000 30.264
11.98000 20.986
12.00000 13.816
12.02000 9.735
12.04000 27.905
12.06000 31.064
12.08000 17.758
12.10000 17.485
12.12000 18.918
12.14000 14.238
12.16000 16.618
12.18000 8.600
12.20000 6.502
12.22000 8.230
12.24000 15.187
12.26000 13.494
12.28000 12.848
12.30000 18.324
12.32000 18.642
12.34000 8.485
12.36000 10.009
12.38000 14.896
12.40000 13.742
12.42000 13.843
12.44000 13.083
12.46000 17.114
12.48000 26.705
12.50000 29.792
12.52000 33.464
12.54000 23.352
12.56000 11.170
12.58000 12.967
12.60000 11.471
12.62000 7.517
12.64000 14.599
12.66000 21.535
12.68000 13.962
12.70000 13.232
12.72000 16.947
12.74000 23.312
12.76000 26.579
12.78000 16.697
12.80000 8.868
12.82000 3.542
12.84000 11.493
12.86000 13.547
12.88000 13.730
12.90000 13.385
12.92000 15.679
12.94000 15.713
12.96000 15.695
12.98000 24.363
13.00000 23.482
13.02000 24.637
13.04000 19.783
13.06000 17.130
13.08000 12.774
13.10000 12.544
13.12000 8.393
13.14000 17.989
13.16000 21.857
13.18000 13.601
13.20000 16.418
13.22000 5.792
13.24000 -0.496
13.26000 4.635
13.28000 12.731
13.30000 16.573
13.32000 24.607
13.34000 11.562
13.36000 9.066
13.38000 21.046
13.40000 17.330
13.42000 14.756
13.44000 14.047
13.46000 18.130
13.48000 9.126
13.50000 20.021
13.52000 13.144
13.54000 2.663
13.56000 -1.424
13.58000 0.731
13.60000 9.825
13.62000 10.566
13.64000 6.297
13.66000 10.112
13.68000 8.643
13.70000 11.530
13.72000 10.992
13.74000 17.260
13.76000 16.687
13.78000 12.491
13.80000 6.771
13.82000 5.985
13.84000 12.008
13.86000 6.747
13.88000 5.825
13.90000 8.140
13.92000 16.451
13.94000 16.227
13.96000 12.597
13.98000 6.562
14.00000 7.973
14.02000 13.672
14.04000 14.929
14.06000 12.010
14.08000 5.260
14.10000 2.540
14.12000 3.218
14.14000 10.697
14.16000 12.089
14.18000 9.820
14.20000 4.566
14.22000 -1.201
14.24000 8.209
14.26000 10.006
14.28000 6.305
14.30000 7.145
14.32000 6.440
14.34000 10.596
14.36000 17.523
14.38000 13.390
14.40000 8.350
14.42000 13.025
14.44000 19.282
14.46000 16.998
14.48000 11.327
14.50000 5.895
14.52000 16.980
14.54000 16.141
14.56000 18.166
14.58000 6.672
14.60000 12.528
14.62000 10.563
14.64000 12.976
14.66000 18.371
14.68000 5.496
14.70000 -1.804
14.72000 -4.449
14.74000 -2.101
14.76000 10.147
14.78000 6.740
14.80000 8.381
14.82000 9.415
14.84000 13.930
14.86000 6.927
14.88000 13.522
14.90000 17.828
14.92000 7.973
14.94000 4.862
14.96000 2.921
14.98000 7.803
15.00000 11.957
15.02000 10.430
15.04000 21.292
15.06000 14.415
15.08000 10.747
15.10000 11.925
15.12000 13.082
15.14000 16.310
15.16000 0.922
15.18000 -0.444
15.20000 3.188
15.22000 5.029
15.24000 4.061
15.26000 6.483
15.28000 6.397
15.30000 1.593
15.32000 -2.040
15.34000 -4.441
15.36000 -0.909
15.38000 7.324
15.40000 2.709
15.42000 3.386
15.44000 5.431
15.46000 -0.091
15.48000 6.219
15.50000 11.323
15.52000 11.546
15.54000 4.701
15.56000 4.759
15.58000 1.776
15.60000 -0.671
15.62000 3.184
15.64000 7.934
15.66000 11.770
15.68000 7.172
15.70000 2.672
15.72000 5.865
15.74000 7.804
15.76000 12.253
15.78000 15.475
15.80000 7.367
15.82000 12.823
15.84000 3.601
15.86000 1.371
15.88000 6.235
15.90000 3.444
15.92000 6.449
15.94000 6.087
15.96000 1.794
15.98000 9.913
16.00000 14.050
16.02000 8.825
16.04000 6.137
16.06000 0.348
16.08000 1.983
16.10000 6.783
16.12000 5.055
16.14000 9.629
16.16000 5.171
16.18000 4.339
16.20000 12.805
16.22000 6.561
16.24000 2.387
16.26000 2.802
16.28000 -1.012
16.30000 8.636
16.32000 20.012
16.34000 13.926
16.36000 4.909
16.38000 11.068
16.40000 0.088
16.42000 7.689
16.44000 15.863
16.46000 11.117
16.48000 -1.294
16.50000 1.554
16.52000 6.990
16.54000 15.091
16.56000 9.630
16.58000 10.370
16.60000 11.005
16.62000 7.798
16.64000 5.938
16.66000 3.038
16.68000 -0.703
16.70000 -4.380
16.72000 -1.149
16.74000 3.646
16.76000 6.409
16.78000 13.357
16.80000 7.181
16.82000 2.710
16.84000 16.180
16.86000 9.497
16.88000 11.902
16.90000 3.943
16.92000 3.871
16.94000 10.123
16.96000 4.859
16.98000 -0.745
17.00000 0.160
17.02000 4.473
17.04000 1.733
17.06000 -1.904
17.08000 4.330
17.10000 1.988
17.12000 2.246
17.14000 3.498
17.16000 5.223
17.18000 12.422
17.20000 8.879
17.22000 9.507
17.24000 14.270
17.26000 13.824
17.28000 9.684
17.30000 5.286
17.32000 7.406
17.34000 0.869
17.36000 2.710
17.38000 6.657
17.40000 2.200
17.42000 8.450
17.44000 15.466
17.46000 7.785
17.48000 5.011
17.50000 -1.830
17.52000 2.337
17.54000 5.154
17.56000 -0.903
17.58000 2.718
17.60000 9.635
17.62000 8.454
17.64000 3.562
17.66000 11.491
17.68000 9.515
17.70000 2.939
17.72000 0.306
17.74000 0.511
17.76000 7.598
17.78000 8.813
17.80000 4.505
17.82000 7.277
17.84000 1.775
17.86000 -2.866
17.88000 2.067
17.90000 2.534
17.92000 6.853
17.94000 5.153
17.96000 -4.341
17.98000 2.108
18.00000 8.469
18.02000 3.402
18.04000 4.436
18.06000 2.364
18.08000 4.688
18.10000 10.727
18.12000 1.238
18.14000 -1.828
18.16000 1.357
18.18000 -1.496
18.20000 5.251
18.22000 4.416
18.24000 -2.820
18.26000 2.123
18.28000 2.775
18.30000 4.599
18.32000 5.254
18.34000 4.892
18.36000 0.621
18.38000 6.450
18.40000 9.947
18.42000 4.980
18.44000 0.795
18.46000 8.671
18.48000 14.533
18.50000 6.221
18.52000 12.827
18.54000 9.693
18.56000 -4.305
18.58000 -0.201
18.60000 11.920
18.62000 4.650
18.64000 -0.659
18.66000 1.512
18.68000 3.842
18.70000 7.009
18.72000 6.871
18.74000 4.895
18.76000 3.514
18.78000 8.854
18.80000 7.764
18.82000 4.849
18.84000 6.493
18.86000 -0.897
18.88000 -4.283
18.90000 -3.740
18.92000 1.931
18.94000 1.119
18.96000 -1.499
18.98000 2.313
19.00000 4.529
19.02000 6.765
19.04000 8.520
19.06000 15.541
19.08000 10.337
19.10000 4.167
19.12000 6.346
19.14000 6.588
19.16000 7.027
19.18000 4.042
19.20000 -1.489
19.22000 1.056
19.24000 5.477
19.26000 5.775
19.28000 2.950
19.30000 -3.394
19.32000 -0.974
19.34000 2.200
19.36000 6.224
19.38000 8.926
19.40000 7.715
19.42000 0.938
19.44000 5.745
19.46000 3.979
19.48000 -1.306
19.50000 8.466
19.52000 7.390
19.54000 5.640
19.56000 7.059
19.58000 6.925
19.60000 4.682
19.62000 3.488
19.64000 2.837
19.66000 3.777
19.68000 5.666
19.70000 7.155
19.72000 4.926
19.74000 4.437
19.76000 3.743
19.78000 5.673
19.80000 7.319
19.82000 4.354
19.84000 3.917
19.86000 -4.208
19.88000 -2.192
19.90000 -0.394
19.92000 1.770
19.94000 2.281
19.96000 1.442
19.98000 1.349
20.00000 2.462
20.02000 7.688
20.04000 8.033
20.06000 4.228
20.08000 1.465
20.10000 3.426
20.12000 4.888
20.14000 2.553
20.16000 6.655
20.18000 9.786
20.20000 10.799
20.22000 7.202
20.24000 1.426
20.26000 -0.317
20.28000 3.868
20.30000 9.384
20.32000 6.872
20.34000 7.594
20.36000 9.361
20.38000 5.533
20.40000 6.089
20.42000 9.851
20.44000 11.435
20.46000 9.067
20.48000 3.083
20.50000 8.741
20.52000 4.947
20.54000 -2.323
20.56000 6.057
20.58000 13.520
20.60000 11.903
20.62000 6.868
20.64000 3.038
20.66000 1.244
20.68000 5.191
20.70000 3.850
20.72000 0.416
20.74000 2.983
20.76000 -0.698
20.78000 -1.718
20.80000 6.056
20.82000 2.507
20.84000 11.928
20.86000 12.948
20.88000 2.031
20.90000 0.952
20.92000 1.625
20.94000 2.244
20.96000 6.756
20.98000 6.624
21.00000 3.244
21.02000 5.189
21.04000 5.547
21.06000 6.019
21.08000 8.170
21.10000 2.061
21.12000 -1.767
21.14000 -1.426
21.16000 0.512
21.18000 10.177
21.20000 4.799
21.22000 5.320
21.24000 1.606
21.26000 -4.165
21.28000 -1.473
21.30000 6.952
21.32000 2.745
21.34000 3.912
21.36000 3.745
21.38000 1.612
21.40000 3.537
21.42000 -2.116
21.44000 -2.992
21.46000 0.093
21.48000 4.092
21.50000 1.896
21.52000 4.724
21.54000 3.801
21.56000 2.299
21.58000 1.099
21.60000 2.439
21.62000 4.798
21.64000 6.877
21.66000 10.021
21.68000 6.547
21.70000 1.003
21.72000 0.878
21.74000 -1.864
21.76000 6.673
21.78000 9.594
21.80000 1.246
21.82000 -1.940
21.84000 0.631
21.86000 7.763
21.88000 7.740
21.90000 0.449
21.92000 2.572
21.94000 8.643
21.96000 8.656
21.98000 -0.620
22.00000 -2.674
22.02000 7.008
22.04000 2.168
22.06000 0.065
22.08000 1.267
22.10000 2.468
22.12000 7.105
22.14000 -3.697
22.16000 -4.056
22.18000 -2.958
22.20000 0.101
22.22000 1.602
22.24000 -4.101
22.26000 -0.284
22.28000 -0.034
22.30000 -0.680
22.32000 0.048
22.34000 4.029
22.36000 0.461
22.38000 1.524
22.40000 4.707
22.42000 9.510
22.44000 4.409
22.46000 2.404
22.48000 8.134
22.50000 0.997
22.52000 5.604
22.54000 6.471
22.56000 2.384
22.58000 4.785
22.60000 4.578
22.62000 6.175
22.64000 2.892
22.66000 -3.411
22.68000 -3.581
22.70000 3.197
22.72000 7.062
22.74000 6.146
22.76000 7.490
22.78000 2.825
22.80000 0.507
22.82000 2.427
22.84000 1.675
22.86000 -2.985
22.88000 3.071
22.90000 -0.870
22.92000 -3.950
22.94000 3.259
22.96000 3.513
22.98000 -2.312
23.00000 -0.338
23.02000 -1.711
23.04000 3.194
23.06000 1.871
23.08000 3.435
23.10000 -2.984
23.12000 -2.286
23.14000 3.271
23.16000 6.398
23.18000 -1.639
23.20000 1.687
23.22000 4.635
23.24000 3.627
23.26000 0.469
23.28000 -4.033
23.30000 2.856
23.32000 5.101
23.34000 2.559
23.36000 -0.173
23.38000 0.648
23.40000 5.001
23.42000 3.607
23.44000 -0.006
23.46000 -0.543
23.48000 -0.348
23.50000 8.775
23.52000 7.985
23.54000 7.356
23.56000 1.907
23.58000 2.619
23.60000 1.902
23.62000 -2.520
23.64000 0.481
23.66000 5.763
23.68000 9.012
23.70000 11.634
23.72000 8.753
23.74000 6.344
23.76000 6.032
23.78000 4.938
23.80000 4.020
23.82000 9.626
23.84000 8.370
23.86000 2.280
23.88000 1.498
23.90000 -3.542
23.92000 6.591
23.94000 5.952
23.96000 6.788
23.98000 7.482
24.00000 5.078
24.02000 9.248
24.04000 7.129
24.06000 3.081
24.08000 4.292
24.10000 7.588
24.12000 6.848
24.14000 11.281
24.16000 6.770
24.18000 4.685
24.20000 8.544
24.22000 9.628
24.24000 8.603
24.26000 6.319
24.28000 4.333
24.30000 7.304
24.32000 4.158
24.34000 -3.951
24.36000 -1.182
24.38000 4.986
24.40000 9.226
24.42000 4.622
24.44000 8.039
24.46000 9.214
24.48000 11.866
24.50000 1.103
24.52000 0.743
24.54000 1.367
24.56000 5.212
24.58000 9.365
24.60000 6.929
24.62000 2.427
24.64000 0.262
24.66000 4.829
24.68000 4.691
24.70000 7.181
24.72000 2.982
24.74000 6.588
24.76000 -0.981
24.78000 -2.413
24.80000 3.771
24.82000 2.088
24.84000 0.201
24.86000 4.198
24.88000 0.123
24.90000 2.096
24.92000 1.383
24.94000 -3.284
24.96000 -3.282
24.98000 4.201
25.00000 10.364
25.02000 8.207
25.04000 8.039
25.06000 3.034
25.08000 2.739
25.10000 1.565
25.12000 -1.425
25.14000 1.977
25.16000 6.506
25.18000 7.990
25.20000 6.228
25.22000 3.102
25.24000 5.260
25.26000 4.210
25.28000 2.084
25.30000 3.967
25.32000 3.991
25.34000 1.987
25.36000 -3.903
25.38000 -3.554
25.40000 0.250
25.42000 0.041
25.44000 -0.770
25.46000 5.601
25.48000 3.108
25.50000 -0.329
25.52000 2.718
25.54000 5.414
25.56000 3.028
25.58000 1.721
25.60000 4.728
25.62000 6.972
25.64000 4.611
25.66000 1.113
25.68000 0.476
25.70000 3.793
25.72000 2.081
25.74000 3.518
25.76000 3.335
25.78000 2.321
25.80000 2.947
25.82000 0.049
25.84000 -2.295
25.86000 -3.370
25.88000 2.806
25.90000 4.158
25.92000 2.539
25.94000 6.581
25.96000 2.744
25.98000 -0.688
26.00000 1.108
26.02000 6.976
26.04000 6.835
26.06000 -1.045
26.08000 -2.727
26.10000 0.147
26.12000 2.005
26.14000 2.274
26.16000 3.220
26.18000 0.120
26.20000 0.260
26.22000 -0.501
26.24000 -2.804
26.26000 2.484
26.28000 6.222
26.30000 6.447
26.32000 9.529
26.34000 2.199
26.36000 -2.391
26.38000 0.811
26.40000 0.647
26.42000 3.155
26.44000 1.330
26.46000 -3.878
26.48000 -1.190
26.50000 4.193
26.52000 2.194
26.54000 5.610
26.56000 9.777
26.58000 9.322
26.60000 4.060
26.62000 3.752
26.64000 1.284
26.66000 5.372
26.68000 2.926
26.70000 -1.788
26.72000 0.462
26.74000 2.107
26.76000 -1.364
26.78000 -0.066
26.80000 3.242
26.82000 0.362
26.84000 -0.187
26.86000 2.429
26.88000 -0.985
26.90000 -3.332
26.92000 -2.605
26.94000 1.252
26.96000 3.497
26.98000 2.980
27.00000 8.762
27.02000 1.273
27.04000 0.827
27.06000 -1.620
27.08000 4.696
27.10000 5.151
27.12000 5.397
27.14000 6.155
27.16000 3.038
27.18000 3.825
27.20000 3.546
27.22000 3.029
27.24000 2.817
27.26000 2.866
27.28000 1.258
27.30000 -1.267
27.32000 -1.938
27.34000 0.105
27.36000 2.459
27.38000 4.905
27.40000 8.028
27.42000 8.685
27.44000 1.912
27.46000 -2.924
27.48000 -1.659
27.50000 -2.830
27.52000 4.085
27.54000 9.164
27.56000 10.759
27.58000 3.082
27.60000 1.807
27.62000 -0.772
27.64000 -2.582
27.66000 -1.402
27.68000 0.273
27.70000 1.694
27.72000 2.340
27.74000 1.311
27.76000 6.298
27.78000 2.724
27.80000 -3.776
27.82000 -2.731
27.84000 6.147
27.86000 6.954
27.88000 7.752
27.90000 4.890
27.92000 4.430
27.94000 2.980
27.96000 6.429
27.98000 6.235
28.00000 1.200
28.02000 2.060
28.04000 6.917
28.06000 4.853
28.08000 4.039
28.10000 6.036
28.12000 9.276
28.14000 5.378
28.16000 3.409
28.18000 4.732
28.20000 4.300
28.22000 8.517
28.24000 1.553
28.26000 -3.769
28.28000 0.828
28.30000 2.430
28.32000 7.044
28.34000 4.795
28.36000 3.604
28.38000 9.911
28.40000 3.508
28.42000 -0.334
28.44000 6.633
28.46000 9.127
28.48000 5.887
28.50000 4.467
28.52000 2.980
28.54000 2.166
28.56000 -3.758
28.58000 -0.866
28.60000 3.119
28.62000 8.829
28.64000 4.765
28.66000 1.422
28.68000 0.445
28.70000 2.950
28.72000 -2.123
28.74000 3.072
28.76000 7.473
28.78000 1.568
28.80000 3.518
28.82000 5.160
28.84000 1.201
28.86000 1.313
28.88000 3.009
28.90000 3.438
28.92000 1.882
28.94000 1.785
28.96000 2.276
28.98000 4.462
29.00000 2.011
29.02000 0.457
29.04000 -0.464
29.06000 2.390
29.08000 6.174
29.10000 5.780
29.12000 3.400
29.14000 1.813
29.16000 0.341
29.18000 7.384
29.20000 6.885
29.22000 3.619
29.24000 1.592
29.26000 -2.091
29.28000 -1.961
29.30000 -0.037
29.32000 0.467
29.34000 -1.216
29.36000 -2.362
29.38000 5.220
29.40000 7.872
29.42000 -0.105
29.44000 -2.195
29.46000 0.152
29.48000 4.338
29.50000 5.671
29.52000 3.695
29.54000 3.540
29.56000 6.803
29.58000 4.808
29.60000 5.346
29.62000 5.725
29.64000 2.414
29.66000 7.443
29.68000 7.018
29.70000 3.487
29.72000 2.443
29.74000 1.460
29.76000 3.165
29.78000 5.173
29.80000 0.941
29.82000 1.090
29.84000 2.506
29.86000 6.202
29.88000 10.134
29.90000 1.568
29.92000 1.738
29.94000 5.067
29.96000 5.526
29.98000 5.882
30.00000 5.401
30.02000 3.307
30.04000 3.621
30.06000 7.405
30.08000 5.715
30.10000 5.467
30.12000 3.790
30.14000 1.006
30.16000 -0.480
30.18000 3.399
30.20000 -0.312
30.22000 1.891
30.24000 -3.649
30.26000 -1.740
30.28000 3.173
30.30000 -1.971
30.32000 2.019
30.34000 6.669
30.36000 7.304
30.38000 8.650
30.40000 9.472
30.42000 7.812
30.44000 9.520
30.46000 12.535
30.48000 9.380
30.50000 3.557
30.52000 3.950
30.54000 7.857
30.56000 3.183
30.58000 3.908
30.60000 3.117
30.62000 6.192
30.64000 7.854
30.66000 8.186
30.68000 1.393
30.70000 4.654
30.72000 8.181
30.74000 7.247
30.76000 4.879
30.78000 2.367
30.80000 2.759
30.82000 4.301
30.84000 8.349
30.86000 5.226
30.88000 4.104
30.90000 0.778
30.92000 -0.142
30.94000 2.593
30.96000 4.440
30.98000 2.357
31.00000 -3.387
31.02000 -3.342
31.04000 0.787
31.06000 -0.090
31.08000 0.049
31.10000 1.472
31.12000 0.086
31.14000 1.503
31.16000 -3.574
31.18000 0.249
31.20000 6.616
31.22000 0.686
31.24000 0.144
31.26000 4.478
31.28000 8.262
31.30000 5.233
31.32000 2.212
31.34000 2.901
31.36000 3.669
31.38000 5.476
31.40000 3.860
31.42000 0.713
31.44000 0.705
31.46000 2.248
31.48000 -2.058
31.50000 -0.947
31.52000 2.965
31.54000 6.197
31.56000 2.704
31.58000 9.160
31.60000 7.368
31.62000 7.250
31.64000 7.442
31.66000 5.713
31.68000 1.160
31.70000 0.998
31.72000 -2.217
31.74000 -3.633
31.76000 -0.639
31.78000 -1.495
31.80000 1.618
31.82000 2.221
31.84000 1.946
31.86000 4.783
31.88000 -1.877
31.90000 -3.567
31.92000 -1.934
31.94000 -2.950
31.96000 -3.149
31.98000 -0.001
32.00000 2.258
32.02000 1.549
32.04000 0.139
32.06000 4.701
32.08000 0.133
32.10000 1.612
32.12000 5.202
32.14000 3.402
32.16000 0.529
32.18000 -2.178
32.20000 -3.414
32.22000 1.226
32.24000 1.693
32.26000 -0.393
32.28000 1.835
32.30000 4.526
32.32000 7.322
32.34000 0.711
32.36000 -0.490
32.38000 1.072
32.40000 3.756
32.42000 4.419
32.44000 1.087
32.46000 1.603
32.48000 -3.609
32.50000 -1.490
32.52000 -3.551
32.54000 0.447
32.56000 0.037
32.58000 -1.600
32.60000 1.168
32.62000 1.103
32.64000 -0.699
32.66000 -0.604
32.68000 -1.099
32.70000 1.592
32.72000 1.179
32.74000 1.191
32.76000 0.672
32.78000 -1.236
32.80000 1.127
32.82000 3.755
32.84000 -3.148
32.86000 -3.610
32.88000 -0.471
32.90000 -0.998
32.92000 -0.566
32.94000 0.196
32.96000 -2.547
32.98000 2.218
33.00000 2.133
33.02000 -0.405
33.04000 1.425
33.06000 1.407
33.08000 -0.288
33.10000 -1.608
33.12000 4.061
33.14000 3.831
33.16000 -2.598
33.18000 0.599
33.20000 -0.896
33.22000 -2.332
33.24000 4.616
33.26000 1.869
33.28000 2.905
33.30000 4.650
33.32000 2.663
33.34000 1.177
33.36000 3.182
33.38000 5.206
33.40000 3.097
33.42000 6.312
33.44000 6.619
33.46000 4.596
33.48000 5.215
33.50000 2.327
33.52000 3.551
33.54000 2.120
33.56000 0.980
33.58000 -3.596
33.60000 -2.379
33.62000 3.765
33.64000 4.836
33.66000 6.589
33.68000 5.003
33.70000 3.616
33.72000 4.130
33.74000 2.461
33.76000 4.713
33.78000 1.268
33.80000 4.893
33.82000 0.439
33.84000 4.279
33.86000 5.030
33.88000 1.004
33.90000 2.170
33.92000 1.226
33.94000 3.703
33.96000 9.966
33.98000 8.538
34.00000 5.951
34.02000 2.944
34.04000 3.151
34.06000 3.773
34.08000 6.086
34.10000 6.945
34.12000 0.991
34.14000 -3.574
34.16000 0.439
34.18000 7.560
34.20000 9.625
34.22000 0.949
34.24000 0.324
34.26000 7.252
34.28000 6.672
34.30000 5.803
34.32000 2.908
34.34000 2.872
34.36000 7.769
34.38000 3.434
34.40000 1.652
34.42000 9.457
34.44000 7.055
34.46000 -0.140
34.48000 2.418
34.50000 5.014
34.52000 6.054
34.54000 2.821
34.56000 1.922
34.58000 4.153
34.60000 4.495
34.62000 3.268
34.64000 4.557
34.66000 6.463
34.68000 9.256
34.70000 8.628
34.72000 7.669
34.74000 3.531
34.76000 2.920
34.78000 4.417
34.80000 3.174
34.82000 5.610
34.84000 5.987
34.86000 5.314
34.88000 6.627
34.90000 5.857
34.92000 6.649
34.94000 5.161
34.96000 4.159
34.98000 3.915
35.00000 7.282
35.02000 5.861
35.04000 1.682
35.06000 -2.517
35.08000 -3.511
35.10000 2.491
35.12000 3.621
35.14000 -1.019
35.16000 3.788
35.18000 1.885
35.20000 2.928
35.22000 3.335
35.24000 2.478
35.26000 3.704
35.28000 4.056
35.30000 5.642
35.32000 9.530
35.34000 6.309
35.36000 5.767
35.38000 4.686
35.40000 1.741
35.42000 5.464
35.44000 3.749
35.46000 5.052
35.48000 2.428
35.50000 9.644
35.52000 11.026
35.54000 4.886
35.56000 1.527
35.58000 4.819
35.60000 6.789
35.62000 8.283
35.64000 7.453
35.66000 2.108
35.68000 1.376
35.70000 1.262
35.72000 5.453
35.74000 4.114
35.76000 7.714
35.78000 7.778
35.80000 4.671
35.82000 2.435
35.84000 5.629
35.86000 4.539
35.88000 7.494
35.90000 7.083
35.92000 5.307
35.94000 8.365
35.96000 7.617
35.98000 6.751
36.00000 9.489
36.02000 8.234
36.04000 7.977
36.06000 2.974
36.08000 4.106
36.10000 6.623
36.12000 1.859
36.14000 -3.563
36.16000 -1.467
36.18000 3.919
36.20000 5.271
36.22000 5.341
36.24000 5.344
36.26000 3.816
36.28000 2.243
36.30000 0.763
36.32000 -0.089
36.34000 -0.658
36.36000 0.744
36.38000 8.326
36.40000 4.151
36.42000 -1.971
36.44000 -0.167
36.46000 6.920
36.48000 4.800
36.50000 2.196
36.52000 5.940
36.54000 1.394
36.56000 -0.566
36.58000 2.073
36.60000 0.790
36.62000 2.989
36.64000 -0.078
36.66000 2.142
36.68000 1.646
36.70000 1.775
36.72000 0.188
36.74000 6.322
36.76000 4.732
36.78000 7.458
36.80000 3.211
36.82000 -0.928
36.84000 0.013
36.86000 0.929
36.88000 2.247
36.90000 3.276
36.92000 0.224
36.94000 2.868
36.96000 1.712
36.98000 -1.626
37.00000 0.553
37.02000 -1.360
37.04000 -1.353
37.06000 -2.011
37.08000 2.105
37.10000 2.443
37.12000 0.231
37.14000 3.431
37.16000 1.660
37.18000 3.801
37.20000 7.922
37.22000 3.648
37.24000 1.942
37.26000 -0.249
37.28000 3.240
37.30000 5.298
37.32000 4.282
37.34000 -1.574
37.36000 4.567
37.38000 9.407
37.40000 10.665
37.42000 11.581
37.44000 9.776
37.46000 6.775
37.48000 8.463
37.50000 7.644
37.52000 6.676
37.54000 8.913
37.56000 8.787
37.58000 9.211
37.60000 10.264
37.62000 11.216
37.64000 10.235
37.66000 13.025
37.68000 13.304
37.70000 8.698
37.72000 15.829
37.74000 15.738
37.76000 11.807
37.78000 12.639
37.80000 15.303
37.82000 18.259
37.84000 15.546
37.86000 11.879
37.88000 15.045
37.90000 16.987
37.92000 17.797
37.94000 20.686
37.96000 20.061
37.98000 20.798
38.00000 19.368
38.02000 24.498
38.04000 22.777
38.06000 22.781
38.08000 28.096
38.10000 30.088
38.12000 26.471
38.14000 28.949
38.16000 30.839
38.18000 26.514
38.20000 28.167
38.22000 29.921
38.24000 29.603
38.26000 30.019
38.28000 34.272
38.30000 38.175
38.32000 41.239
38.34000 38.261
38.36000 42.982
38.38000 43.998
38.40000 44.494
38.42000 45.245
38.44000 46.250
38.46000 51.117
38.48000 52.708
38.50000 52.901
38.52000 57.275
38.54000 63.192
38.56000 65.191
38.58000 65.473
38.60000 69.310
38.62000 67.547
38.64000 71.791
38.66000 77.070
38.68000 80.774
38.70000 82.068
38.72000 86.564
38.74000 87.961
38.76000 89.141
38.78000 99.960
38.80000 99.149
38.82000 105.954
38.84000 113.457
38.86000 124.656
38.88000 130.938
38.90000 137.672
38.92000 146.457
38.94000 155.413
38.96000 162.517
38.98000 171.475
39.00000 183.528
39.02000 189.526
39.04000 205.408
39.06000 226.353
39.08000 237.209
39.10000 246.064
39.12000 262.263
39.14000 274.611
39.16000 290.554
39.18000 299.584
39.20000 327.015
39.22000 347.735
39.24000 359.957
39.26000 384.873
39.28000 407.415
39.30000 425.309
39.32000 442.405
39.34000 471.440
39.36000 490.635
39.38000 508.890
39.40000 537.858
39.42000 546.593
39.44000 569.801
39.46000 586.976
39.48000 608.229
39.50000 619.139
39.52000 628.242
39.54000 649.330
39.56000 658.278
39.58000 655.199
39.60000 663.934
39.62000 669.786
39.64000 656.744
39.66000 663.006
39.68000 646.526
39.70000 639.587
39.72000 633.014
39.74000 625.763
39.76000 605.545
39.78000 587.656
39.80000 556.450
39.82000 536.862
39.84000 524.000
39.86000 512.040
39.88000 504.932
39.90000 470.167
39.92000 445.302
39.94000 427.425
39.96000 403.432
39.98000 385.443
40.00000 354.893
40.02000 328.273
40.04000 319.739
40.06000 305.961
40.08000 285.689
40.10000 274.642
40.12000 256.519
40.14000 243.214
40.16000 220.361
40.18000 200.359
40.20000 187.143
40.22000 177.220
40.24000 175.033
40.26000 165.908
40.28000 149.998
40.30000 140.802
40.32000 130.581
40.34000 119.897
40.36000 108.931
40.38000 103.975
40.40000 101.675
40.42000 95.104
40.44000 88.712
40.46000 82.891
40.48000 84.877
40.50000 84.357
40.52000 69.661
40.54000 63.050
40.56000 59.115
40.58000 55.294
40.60000 57.544
40.62000 50.440
40.64000 43.984
40.66000 45.386
40.68000 45.901
40.70000 43.559
40.72000 39.104
40.74000 34.243
40.76000 34.414
40.78000 35.200
40.80000 35.172
40.82000 28.983
40.84000 29.824
40.86000 28.085
40.88000 26.811
40.90000 25.683
40.92000 24.111
40.94000 18.643
40.96000 19.805
40.98000 18.976
41.00000 19.338
41.02000 20.200
41.04000 18.753
41.06000 17.004
41.08000 16.043
41.10000 16.659
41.12000 15.531
41.14000 12.454
41.16000 12.200
41.18000 11.312
41.20000 10.699
41.22000 13.325
41.24000 13.625
41.26000 10.886
41.28000 10.034
41.30000 6.053
41.32000 9.358
41.34000 10.985
41.36000 8.225
41.38000 9.336
41.40000 9.730
41.42000 5.658
41.44000 4.488
41.46000 4.020
41.48000 2.762
41.50000 4.486
41.52000 6.005
41.54000 3.284
41.56000 3.296
41.58000 2.105
41.60000 3.576
41.62000 2.205
41.64000 4.217
41.66000 4.420
41.68000 -0.099
41.70000 -1.516
41.72000 0.176
41.74000 5.680
41.76000 5.408
41.78000 7.836
41.80000 7.175
41.82000 3.962
41.84000 2.095
41.86000 2.279
41.88000 2.398
41.90000 1.923
41.92000 5.708
41.94000 3.505
41.96000 1.738
41.98000 -0.644
42.00000 1.644
42.02000 -1.834
42.04000 -3.362
42.06000 1.627
42.08000 3.682
42.10000 2.533
42.12000 1.857
42.14000 -2.871
42.16000 2.349
42.18000 8.097
42.20000 5.398
42.22000 3.394
42.24000 -1.012
42.26000 -1.033
42.28000 -0.561
42.30000 1.453
42.32000 3.130
42.34000 0.804
42.36000 -0.229
42.38000 2.466
42.40000 4.520
42.42000 3.947
42.44000 -1.150
42.46000 0.252
42.48000 3.098
42.50000 0.285
42.52000 -0.325
42.54000 4.670
42.56000 3.368
42.58000 1.190
42.60000 -0.515
42.62000 -2.177
42.64000 -2.235
42.66000 -3.247
42.68000 -0.452
42.70000 0.829
42.72000 -0.585
42.74000 3.552
42.76000 -1.567
42.78000 0.880
42.80000 -1.857
42.82000 -0.480
42.84000 1.775
42.86000 2.076
42.88000 4.609
42.90000 5.246
42.92000 2.633
42.94000 -0.275
42.96000 -1.661
42.98000 1.160
43.00000 0.224
43.02000 2.834
43.04000 7.296
43.06000 3.561
43.08000 1.200
43.10000 2.813
43.12000 3.495
43.14000 3.954
43.16000 0.871
43.18000 -1.960
43.20000 0.386
43.22000 5.099
43.24000 2.467
43.26000 -0.843
43.28000 1.346
43.30000 0.666
43.32000 -0.609
43.34000 3.094
43.36000 0.879
43.38000 -0.934
43.40000 1.927
43.42000 1.302
43.44000 -3.180
43.46000 -2.114
43.48000 0.190
43.50000 -0.610
43.52000 -0.240
43.54000 -0.978
43.56000 0.588
43.58000 2.252
43.60000 -0.542
43.62000 0.700
43.64000 1.299
43.66000 1.371
43.68000 -0.912
43.70000 -1.954
43.72000 -3.168
43.74000 -1.827
43.76000 -2.925
43.78000 -0.734
43.80000 -1.516
43.82000 1.129
43.84000 1.708
43.86000 1.085
43.88000 0.640
43.90000 0.678
43.92000 -2.148
43.94000 0.615
43.96000 1.325
43.98000 -1.515
44.00000 1.141
44.02000 0.121
44.04000 0.125
44.06000 -1.777
44.08000 -0.531
44.10000 -1.617
44.12000 -2.016
44.14000 1.262
44.16000 1.138
44.18000 -0.303
44.20000 -0.576
44.22000 0.994
44.24000 3.862
44.26000 2.682
44.28000 1.799
44.30000 1.684
44.32000 0.132
44.34000 -2.348
44.36000 3.025
44.38000 7.249
44.40000 6.947
44.42000 5.059
44.44000 2.550
44.46000 2.486
44.48000 1.152
44.50000 2.676
44.52000 1.964
44.54000 1.960
44.56000 2.779
44.58000 -0.711
44.60000 -3.102
44.62000 0.461
44.64000 0.344
44.66000 0.221
44.68000 -0.339
44.70000 2.089
44.72000 2.968
44.74000 3.082
44.76000 4.386
44.78000 5.058
44.80000 6.654
44.82000 4.656
44.84000 8.766
44.86000 5.129
44.88000 4.541
44.90000 4.406
44.92000 3.727
44.94000 4.575
44.96000 3.335
44.98000 1.955
45.00000 5.586
45.02000 7.005
45.04000 7.878
45.06000 6.971
45.08000 7.599
45.10000 10.829
45.12000 12.184
45.14000 10.046
45.16000 8.481
45.18000 11.724
45.20000 9.114
45.22000 12.374
45.24000 13.098
45.26000 12.232
45.28000 9.690
45.30000 12.004
45.32000 14.650
45.34000 13.394
45.36000 14.662
45.38000 15.195
45.40000 10.607
45.42000 15.184
45.44000 18.937
45.46000 19.333
45.48000 18.120
45.50000 15.189
45.52000 21.410
45.54000 29.225
45.56000 27.646
45.58000 28.730
45.60000 25.344
45.62000 25.942
45.64000 28.473
45.66000 31.570
45.68000 26.539
45.70000 25.546
45.72000 30.324
45.74000 32.985
45.76000 37.758
45.78000 35.504
45.80000 35.520
45.82000 41.074
45.84000 41.958
45.86000 43.307
45.88000 47.439
45.90000 46.836
45.92000 44.938
45.94000 44.538
45.96000 46.529
45.98000 49.080
46.00000 48.738
46.02000 53.336
46.04000 50.891
46.06000 48.719
46.08000 54.407
46.10000 55.923
46.12000 58.630
46.14000 57.007
46.16000 63.038
46.18000 64.873
46.20000 64.458
46.22000 62.040
46.24000 64.307
46.26000 63.358
46.28000 63.367
46.30000 66.525
46.32000 67.106
46.34000 61.692
46.36000 64.342
46.38000 66.376
46.40000 66.607
46.42000 68.964
46.44000 66.866
46.46000 63.656
46.48000 62.171
46.50000 60.630
46.52000 63.607
46.54000 58.395
46.56000 57.759
46.58000 56.223
46.60000 52.565
46.62000 52.331
46.64000 52.149
46.66000 48.767
46.68000 44.487
46.70000 43.060
46.72000 41.166
46.74000 43.581
46.76000 38.170
46.78000 40.327
46.80000 37.014
46.82000 33.887
46.84000 29.386
46.86000 30.913
46.88000 30.076
46.90000 27.301
46.92000 28.585
46.94000 26.360
46.96000 22.852
46.98000 20.839
47.00000 19.917
47.02000 21.149
47.04000 20.021
47.06000 17.444
47.08000 17.150
47.10000 16.271
47.12000 18.217
47.14000 16.098
47.16000 14.156
47.18000 12.925
47.20000 13.568
47.22000 13.699
47.24000 11.972
47.26000 9.991
47.28000 7.942
47.30000 8.140
47.32000 8.696
47.34000 7.713
47.36000 10.294
47.38000 6.041
47.40000 5.237
47.42000 7.469
47.44000 7.710
47.46000 3.165
47.48000 2.978
47.50000 1.964
47.52000 2.819
47.54000 2.925
47.56000 2.571
47.58000 5.962
47.60000 4.581
47.62000 0.777
47.64000 -2.800
47.66000 0.818
47.68000 -0.425
47.70000 -2.337
47.72000 -0.888
47.74000 1.980
47.76000 -2.174
47.78000 -0.638
47.80000 -0.738
47.82000 0.926
47.84000 3.051
47.86000 2.749
47.88000 1.400
47.90000 -2.019
47.92000 -1.144
47.94000 -0.183
47.96000 3.250
47.98000 2.040
48.00000 -1.522
48.02000 2.320
48.04000 3.828
48.06000 2.100
48.08000 2.530
48.10000 1.596
48.12000 -1.631
48.14000 -2.709
48.16000 3.425
48.18000 5.010
48.20000 2.303
48.22000 4.561
48.24000 1.528
48.26000 0.870
48.28000 2.461
48.30000 -1.747
48.32000 0.001
48.34000 -0.094
48.36000 -2.682
48.38000 1.912
48.40000 2.302
48.42000 2.160
48.44000 1.604
48.46000 2.192
48.48000 5.446
48.50000 4.310
48.52000 3.466
48.54000 3.228
48.56000 4.491
48.58000 3.349
48.60000 4.163
48.62000 -0.571
48.64000 2.300
48.66000 4.271
48.68000 0.285
48.70000 -1.070
48.72000 -2.432
48.74000 0.536
48.76000 0.141
48.78000 -0.300
48.80000 2.359
48.82000 -2.642
48.84000 -1.650
48.86000 3.304
48.88000 2.011
48.90000 -2.228
48.92000 -0.757
48.94000 3.076
48.96000 0.841
48.98000 3.526
49.00000 5.519
49.02000 1.400
49.04000 -2.174
49.06000 -1.209
49.08000 4.184
49.10000 2.367
49.12000 0.428
49.14000 2.037
49.16000 3.633
49.18000 2.238
49.20000 -0.086
49.22000 1.600
49.24000 1.603
49.26000 2.463
49.28000 -1.147
49.30000 -0.608
49.32000 -0.386
49.34000 -1.069
49.36000 -2.608
49.38000 -0.452
49.40000 1.723
49.42000 2.708
49.44000 4.835
49.46000 3.668
49.48000 3.965
49.50000 1.891
49.52000 -0.552
49.54000 3.441
49.56000 1.441
49.58000 1.720
49.60000 4.050
49.62000 2.897
49.64000 -0.009
49.66000 6.359
49.68000 3.515
49.70000 4.150
49.72000 2.753
49.74000 0.113
49.76000 -0.257
49.78000 -2.582
49.80000 2.672
49.82000 3.376
49.84000 1.391
49.86000 3.838
49.88000 4.426
49.90000 2.278
49.92000 3.211
49.94000 2.262
49.96000 5.502
49.98000 4.317
50.00000 3.926
50.02000 0.603
50.04000 2.414
50.06000 4.893
50.08000 4.448
50.10000 5.305
50.12000 2.405
50.14000 4.281
50.16000 0.121
50.18000 -0.465
50.20000 1.632
50.22000 1.601
50.24000 -0.679
50.26000 -0.386
50.28000 -2.541
50.30000 0.170
50.32000 2.961
50.34000 3.702
50.36000 2.644
50.38000 1.636
50.40000 -0.485
50.42000 1.109
50.44000 4.492
50.46000 1.265
50.48000 -1.229
50.50000 -0.345
50.52000 0.066
50.54000 -1.074
50.56000 -2.046
50.58000 0.604
50.60000 2.487
50.62000 0.021
50.64000 0.810
50.66000 4.973
50.68000 1.978
50.70000 2.689
50.72000 0.302
50.74000 0.417
50.76000 2.612
50.78000 2.166
50.80000 3.766
50.82000 2.759
50.84000 3.546
50.86000 3.871
50.88000 2.563
50.90000 1.702
50.92000 -0.790
50.94000 -0.097
50.96000 -0.590
50.98000 0.031
51.00000 2.726
51.02000 1.283
51.04000 3.161
51.06000 2.953
51.08000 3.478
51.10000 3.577
51.12000 3.982
51.14000 1.557
51.16000 2.767
51.18000 5.719
51.20000 0.956
51.22000 -2.264
51.24000 -2.250
51.26000 -2.064
51.28000 -2.303
51.30000 -2.471
51.32000 1.637
51.34000 4.372
51.36000 2.687
51.38000 -1.569
51.40000 -2.515
51.42000 -2.507
51.44000 -2.404
51.46000 -2.151
51.48000 2.892
51.50000 3.440
51.52000 0.288
51.54000 -0.731
51.56000 2.155
51.58000 2.651
51.60000 1.190
51.62000 0.203
51.64000 1.796
51.66000 3.737
51.68000 2.651
51.70000 -0.694
51.72000 -0.868
51.74000 0.112
51.76000 1.617
51.78000 1.064
51.80000 1.546
51.82000 0.741
51.84000 1.780
51.86000 3.336
51.88000 4.211
51.90000 6.401
51.92000 2.345
51.94000 1.887
51.96000 1.606
51.98000 2.727
52.00000 3.104
52.02000 1.810
52.04000 1.409
52.06000 -1.818
52.08000 1.212
52.10000 0.126
52.12000 2.271
52.14000 1.341
52.16000 3.784
52.18000 2.800
52.20000 2.358
52.22000 0.822
52.24000 4.331
52.26000 5.844
52.28000 5.041
52.30000 4.651
52.32000 4.016
52.34000 1.638
52.36000 -0.123
52.38000 1.139
52.40000 5.078
52.42000 2.519
52.44000 -1.058
52.46000 -2.446
52.48000 1.899
52.50000 5.826
52.52000 2.029
52.54000 3.769
52.56000 -0.613
52.58000 2.652
52.60000 5.439
52.62000 8.046
52.64000 4.921
52.66000 6.943
52.68000 4.222
52.70000 2.909
52.72000 7.087
52.74000 3.808
52.76000 2.500
52.78000 4.457
52.80000 -1.056
52.82000 -0.605
52.84000 -1.294
52.86000 -1.344
52.88000 0.797
52.90000 1.103
52.92000 2.005
52.94000 3.132
52.96000 3.770
52.98000 -0.921
53.00000 -0.028
53.02000 3.928
53.04000 3.417
53.06000 4.598
53.08000 1.461
53.10000 -0.103
53.12000 -0.203
53.14000 -1.905
53.16000 -0.790
53.18000 2.829
53.20000 2.569
53.22000 -1.779
53.24000 1.100
53.26000 1.431
53.28000 0.201
53.30000 0.761
53.32000 -1.117
53.34000 -0.647
53.36000 3.140
53.38000 3.442
53.40000 1.217
53.42000 0.918
53.44000 -0.418
53.46000 0.921
53.48000 1.538
53.50000 1.485
53.52000 -0.594
53.54000 -1.989
53.56000 -0.277
53.58000 4.239
53.60000 -1.036
53.62000 -1.395
53.64000 2.683
53.66000 1.745
53.68000 1.395
53.70000 6.349
53.72000 4.701
53.74000 1.795
53.76000 -1.224
53.78000 -0.820
53.80000 1.310
53.82000 3.044
53.84000 2.969
53.86000 5.513
53.88000 5.419
53.90000 8.767
53.92000 3.304
53.94000 1.329
53.96000 1.519
53.98000 3.727
54.00000 3.783
54.02000 3.486
54.04000 0.723
54.06000 0.575
54.08000 4.770
54.10000 2.173
54.12000 -0.133
54.14000 2.210
54.16000 0.826
54.18000 2.273
54.20000 0.035
54.22000 -1.259
54.24000 0.983
54.26000 2.752
54.28000 1.510
54.30000 0.064
54.32000 1.570
54.34000 4.002
54.36000 4.079
54.38000 3.885
54.40000 3.176
54.42000 2.515
54.44000 0.907
54.46000 1.117
54.48000 0.422
54.50000 2.013
54.52000 1.982
54.54000 3.310
54.56000 6.836
54.58000 10.121
54.60000 5.944
54.62000 1.755
54.64000 1.578
54.66000 2.186
54.68000 1.441
54.70000 -1.387
54.72000 3.318
54.74000 3.053
54.76000 3.527
54.78000 -0.403
54.80000 -2.386
54.82000 0.834
54.84000 -1.406
54.86000 -0.090
54.88000 3.359
54.90000 7.378
54.92000 5.912
54.94000 7.120
54.96000 5.802
54.98000 3.841
55.00000 3.431
55.02000 -0.090
55.04000 2.389
55.06000 3.875
55.08000 -1.304
55.10000 2.354
55.12000 3.510
55.14000 7.462
55.16000 5.400
55.18000 4.220
55.20000 4.436
55.22000 5.972
55.24000 6.296
55.26000 0.731
55.28000 1.178
55.30000 0.825
55.32000 2.988
55.34000 6.701
55.36000 4.814
55.38000 2.606
55.40000 0.347
55.42000 3.186
55.44000 1.260
55.46000 2.236
55.48000 2.160
55.50000 2.583
55.52000 1.269
55.54000 -1.732
55.56000 -0.776
55.58000 -0.920
55.60000 1.700
55.62000 4.665
55.64000 4.083
55.66000 -1.741
55.68000 -0.275
55.70000 5.314
55.72000 4.280
55.74000 3.877
55.76000 0.881
55.78000 3.212
55.80000 -0.891
55.82000 1.593
55.84000 4.611
55.86000 -0.379
55.88000 5.739
55.90000 6.417
55.92000 1.746
55.94000 -0.309
55.96000 -0.547
55.98000 3.771
56.00000 1.180
56.02000 1.637
56.04000 2.003
56.06000 0.355
56.08000 -0.344
56.10000 -1.489
56.12000 -1.648
56.14000 2.585
56.16000 6.143
56.18000 4.655
56.20000 0.647
56.22000 3.324
56.24000 4.116
56.26000 5.095
56.28000 4.449
56.30000 0.119
56.32000 -2.373
56.34000 -0.263
56.36000 3.355
56.38000 1.824
56.40000 2.471
56.42000 4.999
56.44000 2.743
56.46000 4.715
56.48000 1.405
56.50000 -1.643
56.52000 1.555
56.54000 6.348
56.56000 3.793
56.58000 3.201
56.60000 2.836
56.62000 2.130
56.64000 -0.783
56.66000 1.234
56.68000 -0.664
56.70000 1.475
56.72000 3.172
56.74000 4.532
56.76000 2.437
56.78000 -0.937
56.80000 0.286
56.82000 0.061
56.84000 -2.372
56.86000 1.691
56.88000 3.736
56.90000 1.167
56.92000 1.342
56.94000 0.958
56.96000 5.497
56.98000 6.942
57.00000 5.893
57.02000 1.673
57.04000 -0.259
57.06000 -0.215
57.08000 0.381
57.10000 -0.493
57.12000 0.585
57.14000 1.573
57.16000 2.507
57.18000 0.174
57.20000 1.865
57.22000 2.653
57.24000 2.146
57.26000 5.135
57.28000 3.930
57.30000 4.014
57.32000 3.800
57.34000 0.328
57.36000 1.302
57.38000 4.850
57.40000 4.388
57.42000 4.710
57.44000 2.559
57.46000 1.530
57.48000 3.406
57.50000 4.857
57.52000 2.233
57.54000 1.790
57.56000 1.445
57.58000 3.275
57.60000 -2.337
57.62000 -1.695
57.64000 -0.300
57.66000 3.018
57.68000 7.726
57.70000 4.071
57.72000 4.009
57.74000 4.608
57.76000 0.813
57.78000 -0.389
57.80000 1.128
57.82000 2.552
57.84000 3.498
57.86000 5.711
57.88000 7.181
57.90000 2.422
57.92000 2.013
57.94000 0.518
57.96000 3.610
57.98000 3.893
58.00000 -0.683
58.02000 1.164
58.04000 1.465
58.06000 0.940
58.08000 2.754
58.10000 1.880
58.12000 0.963
58.14000 3.063
58.16000 -1.031
58.18000 0.133
58.20000 -0.535
58.22000 0.446
58.24000 3.473
58.26000 3.041
58.28000 1.819
58.30000 2.858
58.32000 2.427
58.34000 2.529
58.36000 2.224
58.38000 -2.052
58.40000 0.960
58.42000 0.453
58.44000 0.860
58.46000 3.850
58.48000 1.055
58.50000 2.224
58.52000 2.202
58.54000 -0.744
58.56000 2.206
58.58000 4.598
58.60000 3.088
58.62000 3.152
58.64000 7.875
58.66000 7.296
58.68000 6.127
58.70000 2.957
58.72000 4.302
58.74000 1.100
58.76000 1.011
58.78000 -0.212
58.80000 -0.129
58.82000 -1.404
58.84000 2.734
58.86000 3.719
58.88000 0.355
58.90000 3.108
58.92000 0.859
58.94000 -1.972
58.96000 0.790
58.98000 3.706
59.00000 6.411
59.02000 4.521
59.04000 5.200
59.06000 1.648
59.08000 0.831
59.10000 1.938
59.12000 0.209
59.14000 -2.287
59.16000 2.889
59.18000 6.989
59.20000 6.177
59.22000 1.659
59.24000 0.110
59.26000 3.606
59.28000 5.290
59.30000 2.784
59.32000 1.168
59.34000 -0.072
59.36000 0.283
59.38000 3.785
59.40000 4.003
59.42000 1.380
59.44000 0.458
59.46000 1.621
59.48000 1.908
59.50000 -1.168
59.52000 0.499
59.54000 0.100
59.56000 3.916
59.58000 4.704
59.60000 4.405
59.62000 2.280
59.64000 2.486
59.66000 4.140
59.68000 3.461
59.70000 4.581
59.72000 3.029
59.74000 5.956
59.76000 6.436
59.78000 4.442
59.80000 1.572
59.82000 1.357
59.84000 -0.306
59.86000 4.893
59.88000 6.423
59.90000 4.402
59.92000 -0.789
59.94000 -2.273
59.96000 1.957
59.98000 2.945
60.00000 -0.112
60.02000 2.173
60.04000 2.270
60.06000 0.823
60.08000 1.945
60.10000 3.506
60.12000 0.867
60.14000 -0.735
60.16000 1.360
60.18000 3.398
60.20000 5.732
60.22000 0.948
60.24000 -1.802
60.26000 -2.129
60.28000 -0.970
60.30000 -1.911
60.32000 3.464
60.34000 7.174
60.36000 4.943
60.38000 0.460
60.40000 1.904
60.42000 4.438
60.44000 4.334
60.46000 2.449
60.48000 2.890
60.50000 0.221
60.52000 2.162
60.54000 0.806
60.56000 0.957
60.58000 -1.360
60.60000 1.469
60.62000 1.354
60.64000 0.644
60.66000 -0.694
60.68000 1.115
60.70000 2.497
60.72000 3.480
60.74000 1.301
60.76000 -2.250
60.78000 1.376
60.80000 4.333
60.82000 1.735
60.84000 2.953
60.86000 2.329
60.88000 2.491
60.90000 4.360
60.92000 3.203
60.94000 2.415
60.96000 0.084
60.98000 1.631
61.00000 1.875
61.02000 3.464
61.04000 4.245
61.06000 2.952
61.08000 2.303
61.10000 1.511
61.12000 -0.096
61.14000 -1.988
61.16000 3.760
61.18000 2.540
61.20000 0.457
61.22000 0.791
61.24000 3.703
61.26000 3.675
61.28000 3.173
61.30000 1.403
61.32000 -0.550
61.34000 -1.924
61.36000 0.403
61.38000 1.797
61.40000 0.968
61.42000 -0.809
61.44000 3.651
61.46000 0.465
61.48000 -0.159
61.50000 1.146
61.52000 2.388
61.54000 -0.338
61.56000 1.169
61.58000 5.369
61.60000 2.706
61.62000 3.241
61.64000 1.147
61.66000 1.424
61.68000 0.329
61.70000 2.136
61.72000 1.578
61.74000 2.136
61.76000 -0.331
61.78000 -0.410
61.80000 0.504
61.82000 0.639
61.84000 1.620
61.86000 0.601
61.88000 1.315
61.90000 0.446
61.92000 -0.408
61.94000 -0.706
61.96000 -0.331
61.98000 0.635
62.00000 3.408
62.02000 5.591
62.04000 4.186
62.06000 0.107
62.08000 1.377
62.10000 0.935
62.12000 1.034
62.14000 -2.209
62.16000 -0.021
62.18000 1.683
62.20000 4.072
62.22000 5.532
62.24000 3.810
62.26000 3.220
62.28000 2.803
62.30000 2.569
62.32000 0.912
62.34000 -0.348
62.36000 2.074
62.38000 3.144
62.40000 1.242
62.42000 3.514
62.44000 2.118
62.46000 0.425
62.48000 0.582
62.50000 2.630
62.52000 3.176
62.54000 1.052
62.56000 2.626
62.58000 4.165
62.60000 1.838
62.62000 1.824
62.64000 -0.632
62.66000 1.303
62.68000 3.080
62.70000 2.799
62.72000 1.236
62.74000 1.972
62.76000 2.729
62.78000 0.496
62.80000 0.212
62.82000 2.582
62.84000 1.205
62.86000 -1.386
62.88000 -1.031
62.90000 0.290
62.92000 1.432
62.94000 1.459
62.96000 1.945
62.98000 3.005
63.00000 4.413
63.02000 2.435
63.04000 0.747
63.06000 0.892
63.08000 -1.417
63.10000 -2.209
63.12000 -2.186
63.14000 1.541
63.16000 1.735
63.18000 2.699
63.20000 1.313
63.22000 2.166
63.24000 3.309
63.26000 1.407
63.28000 1.251
63.30000 1.926
63.32000 1.045
63.34000 0.554
63.36000 1.975
63.38000 2.587
63.40000 2.100
63.42000 1.839
63.44000 1.714
63.46000 3.271
63.48000 1.372
63.50000 4.845
63.52000 3.029
63.54000 0.278
63.56000 0.644
63.58000 0.236
63.60000 0.481
63.62000 0.865
63.64000 -0.897
63.66000 2.125
63.68000 1.447
63.70000 0.106
63.72000 -0.913
63.74000 -1.741
63.76000 0.982
63.78000 -0.600
63.80000 -1.614
63.82000 -1.176
63.84000 1.140
63.86000 1.709
63.88000 2.356
63.90000 0.067
63.92000 -1.008
63.94000 2.426
63.96000 2.806
63.98000 -1.124
64.00000 -0.237
64.02000 2.285
64.04000 3.277
64.06000 2.331
64.08000 -0.184
64.10000 -0.780
64.12000 -0.236
64.14000 2.245
64.16000 -0.502
64.18000 0.772
64.20000 2.442
64.22000 3.281
64.24000 3.168
64.26000 1.755
64.28000 0.151
64.30000 -1.073
64.32000 -0.323
64.34000 -2.231
64.36000 -0.336
64.38000 0.925
64.40000 -0.996
64.42000 -0.439
64.44000 3.265
64.46000 -0.019
64.48000 1.429
64.50000 2.919
64.52000 0.863
64.54000 -0.188
64.56000 -0.189
64.58000 -0.562
64.60000 0.930
64.62000 -2.237
64.64000 -0.335
64.66000 2.056
64.68000 3.598
64.70000 1.554
64.72000 1.239
64.74000 -2.237
64.76000 -0.870
64.78000 1.725
64.80000 0.447
64.82000 -0.478
64.84000 -1.899
64.86000 -2.173
64.88000 0.736
64.90000 2.725
64.92000 0.250
64.94000 -0.991
64.96000 0.543
64.98000 1.007
65.00000 0.477
65.02000 -0.627
65.04000 -0.107
65.06000 1.571
65.08000 1.604
65.10000 -1.164
65.12000 -0.260
65.14000 -0.880
65.16000 -0.241
65.18000 -0.002
65.20000 0.692
65.22000 2.047
65.24000 -0.065
65.26000 2.202
65.28000 2.576
65.30000 -0.626
65.32000 -2.243
65.34000 -0.734
65.36000 -0.252
65.38000 -0.414
65.40000 -0.265
65.42000 4.440
65.44000 3.863
65.46000 3.411
65.48000 0.264
65.50000 0.369
65.52000 -0.860
65.54000 -0.868
65.56000 0.068
65.58000 1.804
65.60000 0.269
65.62000 -0.468
65.64000 0.484
65.66000 -1.163
65.68000 1.272
65.70000 1.497
65.72000 -0.799
65.74000 0.075
65.76000 -1.187
65.78000 -0.899
65.80000 -0.442
65.82000 -2.092
65.84000 -0.882
65.86000 0.064
65.88000 -0.796
65.90000 0.292
65.92000 0.595
65.94000 -2.207
65.96000 -0.254
65.98000 0.304
66.00000 0.203
66.02000 0.494
66.04000 0.754
66.06000 1.094
66.08000 1.066
66.10000 0.991
66.12000 -0.487
66.14000 -1.846
66.16000 0.024
66.18000 -1.844
66.20000 -1.713
66.22000 1.612
66.24000 0.823
66.26000 2.019
66.28000 3.127
66.30000 3.678
66.32000 2.968
66.34000 1.974
66.36000 0.422
66.38000 1.280
66.40000 2.588
66.42000 1.677
66.44000 -0.779
66.46000 0.879
66.48000 3.731
66.50000 2.356
66.52000 1.778
66.54000 0.140
66.56000 -0.170
66.58000 1.474
66.60000 4.565
66.62000 6.668
66.64000 5.295
66.66000 6.113
66.68000 7.438
66.70000 4.177
66.72000 1.134
66.74000 3.026
66.76000 5.897
66.78000 3.870
66.80000 5.224
66.82000 6.271
66.84000 4.242
66.86000 2.009
66.88000 1.624
66.90000 4.178
66.92000 5.364
66.94000 5.711
66.96000 2.634
66.98000 4.704
67.00000 5.024
67.02000 5.719
67.04000 6.895
67.06000 6.967
67.08000 6.906
67.10000 9.990
67.12000 11.520
67.14000 11.947
67.16000 11.395
67.18000 12.162
67.20000 11.108
67.22000 11.352
67.24000 11.746
67.26000 12.694
67.28000 12.938
67.30000 15.517
67.32000 13.103
67.34000 8.779
67.36000 12.134
67.38000 13.698
67.40000 13.919
67.42000 12.811
67.44000 12.890
67.46000 9.455
67.48000 11.582
67.50000 17.268
67.52000 17.384
67.54000 15.703
67.56000 14.685
67.58000 11.356
67.60000 12.213
67.62000 12.833
67.64000 11.212
67.66000 12.579
67.68000 11.635
67.70000 10.685
67.72000 12.136
67.74000 9.047
67.76000 9.232
67.78000 7.261
67.80000 8.374
67.82000 10.072
67.84000 9.858
67.86000 10.030
67.88000 7.713
67.90000 7.832
67.92000 4.754
67.94000 6.089
67.96000 5.384
67.98000 4.264
68.00000 3.075
68.02000 3.091
68.04000 3.247
68.06000 4.752
68.08000 6.977
68.10000 5.147
68.12000 3.870
68.14000 7.894
68.16000 5.589
68.18000 5.291
68.20000 3.717
68.22000 0.593
68.24000 0.673
68.26000 1.039
68.28000 3.393
68.30000 4.201
68.32000 3.601
68.34000 6.381
68.36000 7.277
68.38000 5.914
68.40000 4.554
68.42000 4.965
68.44000 3.877
68.46000 2.901
68.48000 1.835
68.50000 2.693
68.52000 2.661
68.54000 4.106
68.56000 3.030
68.58000 -0.379
68.60000 -2.203
68.62000 0.059
68.64000 0.674
68.66000 1.213
68.68000 1.121
68.70000 0.635
68.72000 1.699
68.74000 1.283
68.76000 3.258
68.78000 2.756
68.80000 2.196
68.82000 2.593
68.84000 1.543
68.86000 1.265
68.88000 0.597
68.90000 2.974
68.92000 1.226
68.94000 -0.839
68.96000 0.040
68.98000 4.111
69.00000 3.561
69.02000 1.372
69.04000 0.142
69.06000 1.063
69.08000 4.623
69.10000 4.494
69.12000 2.226
69.14000 0.381
69.16000 -0.582
69.18000 -0.566
69.20000 1.044
69.22000 1.719
69.24000 -0.263
69.26000 0.878
69.28000 0.553
69.30000 0.849
69.32000 0.122
69.34000 -0.424
69.36000 -0.819
69.38000 -2.169
69.40000 2.033
69.42000 2.587
69.44000 4.392
69.46000 4.848
69.48000 1.834
69.50000 2.218
69.52000 2.413
69.54000 -1.176
69.56000 -0.817
69.58000 5.928
69.60000 3.852
69.62000 3.659
69.64000 1.986
69.66000 2.569
69.68000 2.714
69.70000 -0.690
69.72000 1.067
69.74000 1.133
69.76000 -2.000
69.78000 -2.132
69.80000 0.453
69.82000 1.244
69.84000 0.792
69.86000 1.370
69.88000 1.289
69.90000 0.831
69.92000 -0.505
69.94000 -1.129
69.96000 3.298
69.98000 3.294
70.00000 2.236
70.02000 3.534
70.04000 6.275
70.06000 5.037
70.08000 0.596
70.10000 3.738
70.12000 2.598
70.14000 4.222
70.16000 2.046
70.18000 1.157
70.20000 2.545
70.22000 2.546
70.24000 2.715
70.26000 5.193
70.28000 3.240
70.30000 3.789
70.32000 4.020
70.34000 2.411
70.36000 -1.164
70.38000 0.239
70.40000 2.064
70.42000 -0.132
70.44000 0.113
70.46000 0.376
70.48000 1.040
70.50000 3.194
70.52000 2.204
70.54000 3.853
70.56000 3.648
70.58000 5.627
70.60000 5.071
70.62000 3.659
70.64000 2.012
70.66000 2.927
70.68000 1.367
70.70000 3.996
70.72000 1.366
70.74000 0.649
70.76000 2.303
70.78000 2.402
70.80000 2.801
70.82000 -0.861
70.84000 2.497
70.86000 0.066
70.88000 -2.125
70.90000 -0.223
70.92000 0.917
70.94000 1.922
70.96000 2.675
70.98000 3.221
71.00000 2.683
71.02000 3.641
71.04000 4.528
71.06000 0.414
71.08000 2.882
71.10000 4.111
71.12000 1.711
71.14000 0.886
71.16000 1.774
71.18000 1.793
71.20000 1.550
71.22000 3.002
71.24000 2.712
71.26000 2.236
71.28000 1.983
71.30000 -0.380
71.32000 -0.284
71.34000 2.733
71.36000 5.137
71.38000 4.407
71.40000 0.213
71.42000 -0.237
71.44000 0.593
71.46000 3.170
71.48000 4.191
71.50000 2.258
71.52000 2.394
71.54000 0.954
71.56000 -0.460
71.58000 1.640
71.60000 5.514
71.62000 1.722
71.64000 5.879
71.66000 6.596
71.68000 5.779
71.70000 2.132
71.72000 2.005
71.74000 1.184
71.76000 1.759
71.78000 -0.123
71.80000 -2.084
71.82000 -0.125
71.84000 1.748
71.86000 3.117
71.88000 1.780
71.90000 -0.061
71.92000 3.187
71.94000 0.843
71.96000 1.491
71.98000 1.897
72.00000 2.237
72.02000 -0.503
72.04000 -2.078
72.06000 -0.474
72.08000 1.156
72.10000 -0.549
72.12000 -1.229
72.14000 0.848
72.16000 3.437
72.18000 -1.687
72.20000 0.860
72.22000 0.334
72.24000 1.452
72.26000 2.090
72.28000 2.289
72.30000 2.321
72.32000 3.377
72.34000 5.062
72.36000 3.669
72.38000 2.346
72.40000 0.855
72.42000 0.578
72.44000 0.691
72.46000 0.158
72.48000 0.508
72.50000 3.274
72.52000 3.077
72.54000 1.868
72.56000 4.605
72.58000 5.453
72.60000 2.349
72.62000 2.330
72.64000 4.392
72.66000 2.566
72.68000 3.682
72.70000 2.891
72.72000 6.070
72.74000 8.982
72.76000 3.809
72.78000 0.158
72.80000 0.098
72.82000 -0.791
72.84000 -2.060
72.86000 2.048
72.88000 2.716
72.90000 -0.859
72.92000 1.180
72.94000 0.302
72.96000 -1.095
72.98000 2.216
73.00000 3.360
73.02000 0.788
73.04000 -1.296
73.06000 2.431
73.08000 5.305
73.10000 3.599
73.12000 2.265
73.14000 4.678
73.16000 3.010
73.18000 2.282
73.20000 0.280
73.22000 2.446
73.24000 6.938
73.26000 0.756
73.28000 2.317
73.30000 2.439
73.32000 0.536
73.34000 0.585
73.36000 0.988
73.38000 0.587
73.40000 1.706
73.42000 2.898
73.44000 3.609
73.46000 3.528
73.48000 2.247
73.50000 0.626
73.52000 -2.059
73.54000 -0.649
73.56000 4.279
73.58000 4.700
73.60000 3.176
73.62000 2.238
73.64000 1.245
73.66000 0.008
73.68000 1.166
73.70000 2.136
73.72000 2.942
73.74000 2.014
73.76000 1.250
73.78000 2.730
73.80000 1.740
73.82000 2.723
73.84000 5.502
73.86000 2.550
73.88000 3.196
73.90000 2.613
73.92000 -2.059
73.94000 1.269
73.96000 3.436
73.98000 4.580
74.00000 2.297
74.02000 2.844
74.04000 2.429
74.06000 0.010
74.08000 -0.978
74.10000 0.261
74.12000 1.343
74.14000 3.786
74.16000 4.791
74.18000 4.448
74.20000 0.491
74.22000 0.385
74.24000 2.020
74.26000 1.935
74.28000 1.324
74.30000 0.834
74.32000 1.302
74.34000 1.550
74.36000 -0.307
74.38000 0.131
74.40000 2.185
74.42000 7.926
74.44000 4.643
74.46000 1.203
74.48000 1.281
74.50000 -0.649
74.52000 1.369
74.54000 -0.401
74.56000 -0.804
74.58000 1.907
74.60000 2.082
74.62000 2.281
74.64000 2.369
74.66000 3.479
74.68000 5.444
74.70000 4.050
74.72000 2.727
74.74000 3.605
74.76000 5.892
74.78000 4.261
74.80000 2.939
74.82000 1.616
74.84000 3.201
74.86000 4.087
74.88000 0.508
74.90000 1.014
74.92000 1.272
74.94000 1.491
74.96000 3.374
74.98000 7.284
75.00000 2.402
75.02000 0.020
75.04000 1.210
75.06000 6.403
75.08000 3.199
75.10000 2.508
75.12000 0.422
75.14000 0.786
75.16000 -2.015
75.18000 3.667
75.20000 6.798
75.22000 5.594
75.24000 4.107
75.26000 6.486
75.28000 4.570
75.30000 3.447
75.32000 4.447
75.34000 3.879
75.36000 6.477
75.38000 5.070
75.40000 4.634
75.42000 4.654
75.44000 3.335
75.46000 0.989
75.48000 2.260
75.50000 2.761
75.52000 4.636
75.54000 4.939
75.56000 2.555
75.58000 4.595
75.60000 8.379
75.62000 5.127
75.64000 1.986
75.66000 1.351
75.68000 1.750
75.70000 0.690
75.72000 5.222
75.74000 4.934
75.76000 7.109
75.78000 5.154
75.80000 5.967
75.82000 2.718
75.84000 -0.707
75.86000 1.631
75.88000 4.125
75.90000 0.627
75.92000 2.396
75.94000 1.505
75.96000 3.593
75.98000 -1.742
76.00000 -2.067
76.02000 0.340
76.04000 -1.517
76.06000 0.555
76.08000 4.914
76.10000 2.957
76.12000 3.547
76.14000 1.150
76.16000 0.166
76.18000 2.357
76.20000 2.765
76.22000 3.701
76.24000 3.233
76.26000 3.068
76.28000 3.019
76.30000 1.232
76.32000 3.205
76.34000 4.480
76.36000 2.770
76.38000 5.940
76.40000 2.630
76.42000 2.145
76.44000 1.374
76.46000 0.823
76.48000 3.203
76.50000 4.094
76.52000 4.920
76.54000 7.729
76.56000 2.824
76.58000 -0.426
76.60000 1.579
76.62000 1.649
76.64000 1.787
76.66000 1.871
76.68000 0.959
76.70000 1.519
76.72000 1.096
76.74000 -0.145
76.76000 0.406
76.78000 1.388
76.80000 0.265
76.82000 -0.193
76.84000 -0.424
76.86000 2.999
76.88000 2.258
76.90000 3.651
76.92000 3.191
76.94000 5.401
76.96000 3.929
76.98000 4.111
77.00000 -2.028
77.02000 0.388
77.04000 -0.028
77.06000 -2.085
77.08000 -0.713
77.10000 3.092
77.12000 4.773
77.14000 4.303
77.16000 3.048
77.18000 2.117
77.20000 3.795
77.22000 2.125
77.24000 0.845
77.26000 1.538
77.28000 2.455
77.30000 -0.738
77.32000 1.926
77.34000 3.025
77.36000 -2.083
77.38000 1.310
77.40000 -0.123
77.42000 3.528
77.44000 2.470
77.46000 3.159
77.48000 -1.717
77.50000 -1.180
77.52000 2.176
77.54000 -0.225
77.56000 1.284
77.58000 -0.160
77.60000 -0.732
77.62000 2.098
77.64000 0.203
77.66000 1.975
77.68000 1.370
77.70000 0.918
77.72000 5.217
77.74000 6.950
77.76000 2.208
77.78000 -0.578
77.80000 4.054
77.82000 1.627
77.84000 3.063
77.86000 1.076
77.88000 -0.340
77.90000 0.250
77.92000 1.917
77.94000 0.990
77.96000 2.316
77.98000 0.510
78.00000 -2.140
78.02000 0.988
78.04000 3.874
78.06000 4.156
78.08000 -1.150
78.10000 -1.311
78.12000 -0.167
78.14000 -0.796
78.16000 0.920
78.18000 2.993
78.20000 1.475
78.22000 -0.303
78.24000 0.364
78.26000 3.216
78.28000 2.136
78.30000 -0.056
78.32000 -0.508
78.34000 0.362
78.36000 -0.442
78.38000 1.126
78.40000 1.875
78.42000 -0.714
78.44000 1.710
78.46000 -0.374
78.48000 -0.356
78.50000 0.543
78.52000 3.462
78.54000 -0.018
78.56000 -1.487
78.58000 0.025
78.60000 -1.498
78.62000 -1.192
78.64000 3.247
78.66000 1.336
78.68000 -0.576
78.70000 -1.030
78.72000 1.257
78.74000 1.607
78.76000 1.474
78.78000 3.341
78.80000 5.135
78.82000 1.258
78.84000 0.828
78.86000 1.106
78.88000 5.746
78.90000 4.800
78.92000 1.420
78.94000 0.753
78.96000 0.005
78.98000 -0.187
79.00000 0.054
79.02000 3.396
79.04000 4.040
79.06000 3.888
79.08000 -0.011
79.10000 -0.786
79.12000 0.454
79.14000 1.155
79.16000 -0.061
79.18000 -1.531
79.20000 1.817
79.22000 3.512
79.24000 1.514
79.26000 1.402
79.28000 1.177
79.30000 -2.004
79.32000 -1.409
79.34000 -0.373
79.36000 -1.050
79.38000 2.798
79.40000 2.336
79.42000 3.181
79.44000 2.997
79.46000 9.286
79.48000 4.512
79.50000 0.532
79.52000 -0.171
79.54000 -2.170
79.56000 0.988
79.58000 4.033
79.60000 4.204
79.62000 5.504
79.64000 7.081
79.66000 6.834
79.68000 3.744
79.70000 5.534
79.72000 7.425
79.74000 6.508
79.76000 5.415
79.78000 2.703
79.80000 1.644
79.82000 2.327
79.84000 6.111
79.86000 9.548
79.88000 7.760
79.90000 4.919
79.92000 2.157
79.94000 3.008
79.96000 4.668
79.98000 7.024
80.00000 4.130
80.02000 5.153
80.04000 8.154
80.06000 7.343
80.08000 7.636
80.10000 3.838
80.12000 3.125
80.14000 6.546
80.16000 4.586
80.18000 2.855
80.20000 6.255
80.22000 8.866
80.24000 9.028
80.26000 7.255
80.28000 5.920
80.30000 6.145
80.32000 6.428
80.34000 8.636
80.36000 10.497
80.38000 6.275
80.40000 7.703
80.42000 11.593
80.44000 13.236
80.46000 13.253
80.48000 7.827
80.50000 7.209
80.52000 9.856
80.54000 12.891
80.56000 15.321
80.58000 14.248
80.60000 10.601
80.62000 11.402
80.64000 13.313
80.66000 16.193
80.68000 14.207
80.70000 14.370
80.72000 16.854
80.74000 16.096
80.76000 13.680
80.78000 13.760
80.80000 17.106
80.82000 18.293
80.84000 15.331
80.86000 16.134
80.88000 15.017
80.90000 19.786
80.92000 21.669
80.94000 20.083
80.96000 20.300
80.98000 24.349
81.00000 20.620
81.02000 20.848
81.04000 20.577
81.06000 19.608
81.08000 19.951
81.10000 20.907
81.12000 24.842
81.14000 29.923
81.16000 25.154
81.18000 18.802
81.20000 19.767
81.22000 24.361
81.24000 24.021
81.26000 26.168
81.28000 26.171
81.30000 22.726
81.32000 22.485
81.34000 22.942
81.36000 22.409
81.38000 26.772
81.40000 25.259
81.42000 23.742
81.44000 22.592
81.46000 25.087
81.48000 23.996
81.50000 25.354
81.52000 24.783
81.54000 22.545
81.56000 22.465
81.58000 21.243
81.60000 27.114
81.62000 24.780
81.64000 22.132
81.66000 24.439
81.68000 24.058
81.70000 18.579
81.72000 16.292
81.74000 14.133
81.76000 17.865
81.78000 18.711
81.80000 14.403
81.82000 16.718
81.84000 15.070
81.86000 15.986
81.88000 16.712
81.90000 13.608
81.92000 13.789
81.94000 10.753
81.96000 13.469
81.98000 11.861
82.00000 11.925
82.02000 11.518
82.04000 10.546
82.06000 12.633
82.08000 11.874
82.10000 12.315
82.12000 6.468
82.14000 7.035
82.16000 5.968
82.18000 6.661
82.20000 7.712
82.22000 6.534
82.24000 7.113
82.26000 7.392
82.28000 4.695
82.30000 5.706
82.32000 2.419
82.34000 2.062
82.36000 3.111
82.38000 2.962
82.40000 5.311
82.42000 4.124
82.44000 4.248
82.46000 6.347
82.48000 4.576
82.50000 3.963
82.52000 1.877
82.54000 0.915
82.56000 0.611
82.58000 4.480
82.60000 2.870
82.62000 1.938
82.64000 -0.866
82.66000 3.261
82.68000 -0.665
82.70000 -2.305
82.72000 1.853
82.74000 5.252
82.76000 5.425
82.78000 0.803
82.80000 -0.725
82.82000 -2.074
82.84000 -1.299
82.86000 2.930
82.88000 2.194
82.90000 0.965
82.92000 1.640
82.94000 2.352
82.96000 0.986
82.98000 0.034
83.00000 2.086
83.02000 -0.371
83.04000 0.066
83.06000 1.191
83.08000 2.161
83.10000 2.140
83.12000 -2.282
83.14000 -1.156
83.16000 -0.522
83.18000 1.355
83.20000 1.120
83.22000 -0.503
83.24000 -1.018
83.26000 0.419
83.28000 0.278
83.30000 1.539
83.32000 -2.266
83.34000 0.964
83.36000 -1.124
83.38000 -0.494
83.40000 2.460
83.42000 0.541
83.44000 0.008
83.46000 -1.182
83.48000 0.929
83.50000 0.697
83.52000 -1.383
83.54000 -1.337
83.56000 2.720
83.58000 3.877
83.60000 4.722
83.62000 4.342
83.64000 1.783
83.66000 4.764
83.68000 6.834
83.70000 -0.034
83.72000 -2.234
83.74000 2.991
83.76000 6.576
83.78000 4.326
83.80000 1.948
83.82000 1.329
83.84000 3.327
83.86000 3.498
83.88000 4.708
83.90000 4.645
83.92000 2.441
83.94000 4.524
83.96000 5.827
83.98000 4.936
84.00000 6.634
84.02000 3.571
84.04000 2.358
84.06000 5.526
84.08000 5.833
84.10000 4.288
84.12000 5.204
84.14000 1.270
84.16000 0.964
84.18000 3.389
84.20000 6.640
84.22000 7.862
84.24000 6.600
84.26000 6.610
84.28000 6.541
84.30000 3.697
84.32000 7.705
84.34000 9.729
84.36000 11.533
84.38000 10.355
84.40000 9.765
84.42000 6.977
84.44000 6.686
84.46000 12.215
84.48000 12.178
84.50000 11.351
84.52000 12.846
84.54000 14.549
84.56000 13.159
84.58000 15.231
84.60000 17.225
84.62000 13.500
84.64000 12.126
84.66000 12.506
84.68000 15.786
84.70000 17.940
84.72000 19.671
84.74000 18.233
84.76000 15.816
84.78000 18.472
84.80000 15.671
84.82000 13.615
84.84000 13.782
84.86000 17.387
84.88000 22.956
84.90000 24.882
84.92000 24.383
84.94000 20.015
84.96000 22.634
84.98000 25.963
85.00000 28.721
85.02000 27.004
85.04000 25.988
85.06000 23.033
85.08000 24.398
85.10000 25.743
85.12000 22.056
85.14000 23.900
85.16000 27.532
85.18000 29.649
85.20000 27.399
85.22000 24.346
85.24000 25.728
85.26000 28.174
85.28000 24.672
85.30000 27.764
85.32000 27.451
85.34000 27.713
85.36000 26.889
85.38000 23.050
85.40000 23.988
85.42000 25.347
85.44000 24.287
85.46000 22.250
85.48000 25.831
85.50000 24.727
85.52000 18.987
85.54000 20.038
85.56000 24.020
85.58000 20.223
85.60000 20.458
85.62000 24.606
85.64000 24.309
85.66000 19.839
85.68000 18.806
85.70000 18.774
85.72000 17.490
85.74000 16.553
85.76000 17.799
85.78000 15.131
85.80000 15.471
85.82000 17.774
85.84000 19.806
85.86000 18.849
85.88000 15.148
85.90000 12.570
85.92000 13.804
85.94000 12.814
85.96000 9.790
85.98000 9.902
86.00000 9.658
86.02000 8.450
86.04000 12.763
86.06000 11.381
86.08000 9.884
86.10000 13.821
86.12000 9.986
86.14000 8.288
86.16000 7.612
86.18000 6.287
86.20000 3.650
86.22000 3.695
86.24000 4.359
86.26000 4.213
86.28000 6.096
86.30000 5.150
86.32000 2.666
86.34000 0.271
86.36000 3.068
86.38000 5.006
86.40000 6.577
86.42000 3.969
86.44000 1.550
86.46000 2.548
86.48000 5.128
86.50000 9.159
86.52000 4.468
86.54000 1.028
86.56000 -0.222
86.58000 1.550
86.60000 4.853
86.62000 2.203
86.64000 1.796
86.66000 2.385
86.68000 1.805
86.70000 4.117
86.72000 4.168
86.74000 8.167
86.76000 5.024
86.78000 0.214
86.80000 1.735
86.82000 -1.751
86.84000 -2.058
86.86000 0.412
86.88000 1.469
86.90000 1.913
86.92000 4.049
86.94000 2.603
86.96000 1.973
86.98000 4.229
87.00000 3.014
87.02000 1.486
87.04000 0.293
87.06000 3.088
87.08000 -2.047
87.10000 0.006
87.12000 1.647
87.14000 1.434
87.16000 1.296
87.18000 -1.428
87.20000 -0.764
87.22000 -2.040
87.24000 -0.306
87.26000 2.689
87.28000 0.389
87.30000 -0.066
87.32000 2.199
87.34000 0.249
87.36000 -2.034
87.38000 -0.022
87.40000 -0.344
87.42000 1.714
87.44000 0.583
87.46000 -1.265
87.48000 -0.258
87.50000 0.546
87.52000 0.205
87.54000 -0.712
87.56000 0.122
87.58000 2.808
87.60000 1.737
87.62000 0.978
87.64000 0.962
87.66000 -0.213
87.68000 -1.755
87.70000 -0.377
87.72000 0.214
87.74000 0.182
87.76000 1.069
87.78000 -0.265
87.80000 0.591
87.82000 0.237
87.84000 -0.035
87.86000 -0.269
87.88000 -0.081
87.90000 -0.818
87.92000 -1.725
87.94000 0.084
87.96000 2.440
87.98000 3.200
88.00000 3.159
88.02000 -0.185
88.04000 0.049
88.06000 1.193
88.08000 1.158
88.10000 2.304
88.12000 -0.025
88.14000 4.964
88.16000 2.049
88.18000 -0.905
88.20000 0.982
88.22000 -0.832
88.24000 -0.955
88.26000 -1.851
88.28000 -1.971
88.30000 1.540
88.32000 0.716
88.34000 1.081
88.36000 -0.073
88.38000 0.101
88.40000 2.392
88.42000 3.981
88.44000 0.931
88.46000 1.473
88.48000 3.962
88.50000 5.459
88.52000 3.812
88.54000 0.693
88.56000 2.481
88.58000 0.024
88.60000 1.705
88.62000 1.955
88.64000 2.375
88.66000 4.584
88.68000 -0.293
88.70000 0.707
88.72000 -1.944
88.74000 -0.253
88.76000 2.750
88.78000 4.260
88.80000 3.132
88.82000 0.533
88.84000 1.311
88.86000 2.971
88.88000 2.035
88.90000 0.308
88.92000 1.912
88.94000 0.813
88.96000 0.174
88.98000 1.719
89.00000 3.224
89.02000 1.500
89.04000 1.751
89.06000 6.024
89.08000 7.260
89.10000 3.780
89.12000 5.588
89.14000 -1.423
89.16000 -1.931
89.18000 2.814
89.20000 6.723
89.22000 7.035
89.24000 3.309
89.26000 0.427
89.28000 5.846
89.30000 0.930
89.32000 1.586
89.34000 2.736
89.36000 2.600
89.38000 2.902
89.40000 1.765
89.42000 1.182
89.44000 0.340
89.46000 2.111
89.48000 1.373
89.50000 1.034
89.52000 4.587
89.54000 4.856
89.56000 6.205
89.58000 2.419
89.60000 -0.815
89.62000 0.405
89.64000 3.361
89.66000 4.765
89.68000 6.925
89.70000 3.122
89.72000 1.306
89.74000 1.277
89.76000 2.029
89.78000 3.754
89.80000 2.489
89.82000 -1.954
89.84000 2.206
89.86000 2.022
89.88000 3.252
89.90000 0.167
89.92000 0.148
89.94000 1.478
89.96000 1.067
89.98000 -0.723
90.00000 -1.954
90.02000 -1.256
90.04000 0.611
90.06000 3.681
90.08000 6.460
90.10000 3.816
90.12000 0.827
90.14000 4.989
90.16000 2.536
90.18000 2.219
90.20000 -0.283
90.22000 -0.392
90.24000 -0.428
90.26000 1.272
90.28000 0.699
90.30000 -0.331
90.32000 3.280
90.34000 1.862
90.36000 -1.503
90.38000 -1.686
90.40000 -1.237
90.42000 4.026
90.44000 4.038
90.46000 3.567
90.48000 -0.856
90.50000 -1.959
90.52000 -0.977
90.54000 0.766
90.56000 1.085
90.58000 2.242
90.60000 2.350
90.62000 0.694
90.64000 2.439
90.66000 1.749
90.68000 1.094
90.70000 -1.869
90.72000 0.388
90.74000 1.580
90.76000 1.040
90.78000 -1.573
90.80000 -0.136
90.82000 -1.030
90.84000 0.904
90.86000 -1.070
90.88000 2.023
90.90000 5.531
90.92000 4.483
90.94000 -1.260
90.96000 2.082
90.98000 2.891
91.00000 3.364
91.02000 1.481
91.04000 0.458
91.06000 1.128
91.08000 -0.657
91.10000 2.483
91.12000 2.889
91.14000 1.782
91.16000 2.273
91.18000 4.317
91.20000 1.038
91.22000 0.809
91.24000 1.352
91.26000 -0.428
91.28000 2.800
91.30000 1.700
91.32000 2.378
91.34000 2.087
91.36000 1.078
91.38000 2.275
91.40000 1.187
91.42000 1.892
91.44000 1.242
91.46000 2.094
91.48000 4.677
91.50000 2.196
91.52000 0.892
91.54000 2.105
91.56000 2.479
91.58000 3.505
91.60000 0.220
91.62000 -1.353
91.64000 1.071
91.66000 2.744
91.68000 3.137
91.70000 4.503
91.72000 0.593
91.74000 -0.835
91.76000 -1.958
91.78000 -1.215
91.80000 1.477
91.82000 2.842
91.84000 0.005
91.86000 0.391
91.88000 -1.957
91.90000 -1.715
91.92000 1.250
91.94000 0.767
91.96000 4.777
91.98000 2.894
92.00000 4.662
92.02000 4.869
92.04000 4.270
92.06000 1.837
92.08000 1.282
92.10000 1.788
92.12000 1.371
92.14000 1.748
92.16000 3.768
92.18000 3.950
92.20000 6.383
92.22000 7.789
92.24000 3.007
92.26000 1.300
92.28000 2.330
92.30000 3.337
92.32000 4.029
92.34000 -1.952
92.36000 2.713
92.38000 6.663
92.40000 7.009
92.42000 6.448
92.44000 4.890
92.46000 2.806
92.48000 1.567
92.50000 4.480
92.52000 7.963
92.54000 3.297
92.56000 5.523
92.58000 -0.522
92.60000 -1.713
92.62000 1.598
92.64000 1.623
92.66000 1.210
92.68000 2.313
92.70000 -0.502
92.72000 -0.662
92.74000 0.379
92.76000 4.156
92.78000 4.432
92.80000 -0.801
92.82000 -0.442
92.84000 1.843
92.86000 3.786
92.88000 1.624
92.90000 2.642
92.92000 4.232
92.94000 1.891
92.96000 2.099
92.98000 2.328
93.00000 3.492
93.02000 0.265
93.04000 -1.959
93.06000 -0.096
93.08000 4.165
93.10000 2.997
93.12000 1.178
93.14000 2.626
93.16000 6.927
93.18000 4.999
93.20000 6.754
93.22000 8.340
93.24000 5.363
93.26000 4.207
93.28000 5.625
93.30000 3.952
93.32000 2.118
93.34000 0.748
93.36000 0.082
93.38000 -0.935
93.40000 0.714
93.42000 0.470
93.44000 2.375
93.46000 3.723
93.48000 4.878
93.50000 2.353
93.52000 2.556
93.54000 -1.699
93.56000 0.793
93.58000 -1.967
93.60000 0.211
93.62000 1.469
93.64000 3.116
93.66000 5.284
93.68000 2.604
93.70000 0.386
93.72000 0.698
93.74000 2.146
93.76000 0.047
93.78000 -0.016
93.80000 0.130
93.82000 -0.030
93.84000 0.250
93.86000 2.876
93.88000 6.355
93.90000 3.767
93.92000 -1.119
93.94000 -0.560
93.96000 3.938
93.98000 -0.047
94.00000 2.473
94.02000 5.230
94.04000 4.551
94.06000 0.988
94.08000 3.618
94.10000 5.057
94.12000 5.758
94.14000 1.081
94.16000 -0.411
94.18000 5.194
94.20000 8.106
94.22000 6.182
94.24000 3.470
94.26000 2.176
94.28000 -0.363
94.30000 4.404
94.32000 5.918
94.34000 6.219
94.36000 7.611
94.38000 3.687
94.40000 2.706
94.42000 0.811
94.44000 0.876
94.46000 4.717
94.48000 5.729
94.50000 5.341
94.52000 4.268
94.54000 1.819
94.56000 1.996
94.58000 -1.935
94.60000 2.422
94.62000 4.993
94.64000 4.276
94.66000 3.396
94.68000 3.101
94.70000 2.419
94.72000 0.313
94.74000 0.222
94.76000 4.618
94.78000 3.513
94.80000 4.401
94.82000 3.867
94.84000 1.508
94.86000 5.680
94.88000 8.668
94.90000 4.083
94.92000 4.722
94.94000 2.158
94.96000 1.415
94.98000 4.919
95.00000 5.140
95.02000 1.594
95.04000 4.530
95.06000 4.669
95.08000 2.896
95.10000 6.660
95.12000 2.711
95.14000 0.640
95.16000 3.076
95.18000 5.157
95.20000 2.974
95.22000 -0.272
95.24000 -1.793
95.26000 0.889
95.28000 1.616
95.30000 3.084
95.32000 4.315
95.34000 4.248
95.36000 2.508
95.38000 0.020
95.40000 -0.249
95.42000 3.483
95.44000 7.503
95.46000 3.050
95.48000 5.111
95.50000 5.035
95.52000 4.067
95.54000 2.716
95.56000 -1.316
95.58000 1.507
95.60000 -1.009
95.62000 3.183
95.64000 2.928
95.66000 2.624
95.68000 9.488
95.70000 3.683
95.72000 0.713
95.74000 5.671
95.76000 7.048
95.78000 4.893
95.80000 4.018
95.82000 0.440
95.84000 5.101
95.86000 4.812
95.88000 4.309
95.90000 2.596
95.92000 -0.389
95.94000 -1.772
95.96000 -0.109
95.98000 4.946
96.00000 2.185
96.02000 5.906
96.04000 2.525
96.06000 0.303
96.08000 4.593
96.10000 5.073
96.12000 3.835
96.14000 4.761
96.16000 3.556
96.18000 -1.772
96.20000 4.330
96.22000 4.265
96.24000 -0.146
96.26000 -1.954
96.28000 4.021
96.30000 3.860
96.32000 7.270
96.34000 7.590
96.36000 5.549
96.38000 1.595
96.40000 3.900
96.42000 5.378
96.44000 3.608
96.46000 2.147
96.48000 -1.958
96.50000 -1.254
96.52000 3.915
96.54000 4.528
96.56000 3.939
96.58000 3.365
96.60000 4.323
96.62000 3.111
96.64000 3.375
96.66000 5.897
96.68000 3.269
96.70000 0.904
96.72000 2.493
96.74000 0.015
96.76000 -1.519
96.78000 5.710
96.80000 4.995
96.82000 2.669
96.84000 3.203
96.86000 5.215
96.88000 2.623
96.90000 1.880
96.92000 2.585
96.94000 -1.721
96.96000 -1.955
96.98000 2.034
97.00000 0.086
97.02000 4.191
97.04000 8.078
97.06000 3.301
97.08000 3.380
97.10000 3.387
97.12000 6.726
97.14000 1.984
97.16000 0.036
97.18000 1.809
97.20000 0.080
97.22000 6.288
97.24000 4.288
97.26000 4.069
97.28000 1.995
97.30000 0.081
97.32000 -0.571
97.34000 2.961
97.36000 3.975
97.38000 5.602
97.40000 8.587
97.42000 5.589
97.44000 3.666
97.46000 2.645
97.48000 3.613
97.50000 3.032
97.52000 -0.357
97.54000 -0.729
97.56000 -0.499
97.58000 4.143
97.60000 4.016
97.62000 1.899
97.64000 2.479
97.66000 3.614
97.68000 5.153
97.70000 5.133
97.72000 4.337
97.74000 3.039
97.76000 2.777
97.78000 2.131
97.80000 5.357
97.82000 4.320
97.84000 0.745
97.86000 7.063
97.88000 8.284
97.90000 5.039
97.92000 3.103
97.94000 3.456
97.96000 -1.326
97.98000 -0.807
98.00000 4.845
98.02000 7.918
98.04000 8.753
98.06000 5.256
98.08000 0.994
98.10000 4.760
98.12000 2.906
98.14000 2.983
98.16000 0.016
98.18000 0.687
98.20000 0.012
98.22000 1.733
98.24000 4.401
98.26000 11.225
98.28000 5.448
98.30000 6.195
98.32000 4.770
98.34000 7.551
98.36000 6.449
98.38000 4.547
98.40000 6.673
98.42000 7.702
98.44000 4.217
98.46000 9.402
98.48000 7.164
98.50000 6.546
98.52000 8.708
98.54000 6.091
98.56000 4.331
98.58000 -1.914
98.60000 3.687
98.62000 8.155
98.64000 5.497
98.66000 7.053
98.68000 2.732
98.70000 5.746
98.72000 9.248
98.74000 8.620
98.76000 -0.081
98.78000 2.017
98.80000 10.178
98.82000 4.544
98.84000 -1.047
98.86000 0.080
98.88000 -0.653
98.90000 3.529
98.92000 4.735
98.94000 3.040
98.96000 5.876
98.98000 7.152
99.00000 6.019
99.02000 1.753
99.04000 1.575
99.06000 4.148
99.08000 5.499
99.10000 -1.221
99.12000 -1.923
99.14000 4.481
99.16000 4.218
99.18000 0.733
99.20000 -0.705
99.22000 0.269
99.24000 13.275
99.26000 11.477
99.28000 3.418
99.30000 6.204
99.32000 4.612
99.34000 14.036
99.36000 11.375
99.38000 5.768
99.40000 4.843
99.42000 6.940
99.44000 1.781
99.46000 7.098
99.48000 11.841
99.50000 11.143
99.52000 7.147
99.54000 6.601
99.56000 -0.079
99.58000 3.802
99.60000 2.478
99.62000 7.506
99.64000 5.224
99.66000 9.563
99.68000 8.280
99.70000 12.817
99.72000 13.693
99.74000 8.684
99.76000 3.591
99.78000 3.698
99.80000 2.565
99.82000 6.969
99.84000 3.164
99.86000 5.361
99.88000 8.202
99.90000 10.929
99.92000 7.574
99.94000 3.378
99.96000 -1.888
99.98000 0.000
