'Id: "0011389" Comment: "Integrate frame 0011389_Au-Ir-Rh_Au-Rich_XRD_Mapping-331-0000.gfrmwith cursor Wedge Cursor #5" Operator: "B?rgel" Anode: "Cu" Wavelength: "1.5406" Scantype: "2Theta (TwoTheta)" TimePerStep: "1" X: "9" Y: "40.5" Z: "5.95" 
10.00000 0.000
10.02000 11.655
10.04000 -9.477
10.06000 3.395
10.08000 6.279
10.10000 7.835
10.12000 -4.375
10.14000 -4.063
10.16000 -0.099
10.18000 3.398
10.20000 3.602
10.22000 9.719
10.24000 13.087
10.26000 20.686
10.28000 5.702
10.30000 4.807
10.32000 7.416
10.34000 8.884
10.36000 8.577
10.38000 -1.672
10.40000 5.990
10.42000 13.401
10.44000 -1.762
10.46000 6.577
10.48000 19.476
10.50000 8.762
10.52000 4.709
10.54000 8.363
10.56000 -0.276
10.58000 14.338
10.60000 17.477
10.62000 13.859
10.64000 5.307
10.66000 -1.334
10.68000 -4.337
10.70000 4.168
10.72000 9.573
10.74000 7.036
10.76000 19.346
10.78000 24.667
10.80000 31.066
10.82000 26.772
10.84000 17.329
10.86000 11.423
10.88000 22.068
10.90000 18.197
10.92000 11.150
10.94000 19.845
10.96000 21.739
10.98000 31.741
11.00000 24.014
11.02000 7.037
11.04000 8.196
11.06000 8.556
11.08000 23.865
11.10000 16.969
11.12000 14.069
11.14000 18.798
11.16000 18.647
11.18000 17.422
11.20000 16.878
11.22000 12.933
11.24000 11.628
11.26000 18.362
11.28000 14.174
11.30000 10.887
11.32000 22.240
11.34000 8.693
11.36000 -7.403
11.38000 12.955
11.40000 10.393
11.42000 21.011
11.44000 25.736
11.46000 9.954
11.48000 11.165
11.50000 12.138
11.52000 -5.072
11.54000 9.151
11.56000 26.825
11.58000 30.965
11.60000 22.906
11.62000 14.505
11.64000 13.166
11.66000 16.198
11.68000 23.601
11.70000 22.459
11.72000 10.365
11.74000 10.627
11.76000 17.592
11.78000 17.189
11.80000 13.144
11.82000 15.394
11.84000 5.148
11.86000 20.470
11.88000 34.349
11.90000 16.709
11.92000 9.785
11.94000 11.360
11.96000 5.452
11.98000 8.397
12.00000 10.580
12.02000 8.818
12.04000 20.301
12.06000 20.802
12.08000 14.614
12.10000 15.060
12.12000 26.774
12.14000 20.451
12.16000 17.240
12.18000 16.568
12.20000 17.469
12.22000 15.952
12.24000 7.991
12.26000 6.564
12.28000 12.923
12.30000 10.679
12.32000 9.978
12.34000 17.519
12.36000 19.578
12.38000 16.292
12.40000 16.769
12.42000 7.644
12.44000 16.255
12.46000 25.136
12.48000 41.053
12.50000 26.802
12.52000 14.035
12.54000 6.053
12.56000 10.257
12.58000 16.987
12.60000 25.937
12.62000 18.456
12.64000 14.792
12.66000 14.700
12.68000 8.226
12.70000 1.584
12.72000 2.722
12.74000 13.339
12.76000 11.298
12.78000 24.572
12.80000 29.459
12.82000 17.704
12.84000 24.379
12.86000 18.179
12.88000 26.198
12.90000 18.858
12.92000 24.084
12.94000 28.402
12.96000 24.766
12.98000 22.476
13.00000 14.596
13.02000 16.296
13.04000 15.503
13.06000 17.337
13.08000 9.864
13.10000 14.225
13.12000 25.931
13.14000 23.999
13.16000 18.116
13.18000 30.613
13.20000 23.337
13.22000 23.546
13.24000 24.851
13.26000 17.177
13.28000 21.029
13.30000 19.671
13.32000 15.117
13.34000 8.646
13.36000 13.488
13.38000 15.729
13.40000 6.468
13.42000 1.877
13.44000 17.338
13.46000 18.692
13.48000 19.374
13.50000 14.017
13.52000 7.792
13.54000 13.540
13.56000 10.934
13.58000 13.295
13.60000 14.211
13.62000 14.129
13.64000 16.705
13.66000 13.695
13.68000 20.569
13.70000 23.411
13.72000 18.304
13.74000 16.283
13.76000 15.922
13.78000 17.725
13.80000 14.464
13.82000 10.242
13.84000 24.414
13.86000 23.730
13.88000 19.974
13.90000 11.709
13.92000 18.726
13.94000 22.876
13.96000 18.394
13.98000 10.216
14.00000 2.661
14.02000 12.148
14.04000 12.138
14.06000 14.675
14.08000 26.334
14.10000 31.276
14.12000 35.839
14.14000 25.384
14.16000 12.735
14.18000 16.885
14.20000 12.101
14.22000 14.250
14.24000 13.112
14.26000 6.944
14.28000 9.478
14.30000 14.592
14.32000 14.218
14.34000 17.495
14.36000 13.825
14.38000 13.518
14.40000 12.456
14.42000 8.277
14.44000 7.699
14.46000 5.156
14.48000 -0.658
14.50000 2.389
14.52000 12.191
14.54000 16.782
14.56000 6.792
14.58000 1.354
14.60000 -0.324
14.62000 7.891
14.64000 3.471
14.66000 5.094
14.68000 19.617
14.70000 19.180
14.72000 16.527
14.74000 17.557
14.76000 7.292
14.78000 3.688
14.80000 8.349
14.82000 18.648
14.84000 16.390
14.86000 15.173
14.88000 10.537
14.90000 7.684
14.92000 1.062
14.94000 -4.479
14.96000 4.217
14.98000 5.965
15.00000 6.427
15.02000 2.772
15.04000 11.343
15.06000 12.371
15.08000 18.519
15.10000 16.210
15.12000 4.361
15.14000 7.649
15.16000 14.845
15.18000 13.116
15.20000 16.547
15.22000 7.688
15.24000 3.205
15.26000 9.167
15.28000 13.912
15.30000 10.293
15.32000 10.070
15.34000 11.959
15.36000 14.388
15.38000 9.775
15.40000 9.528
15.42000 3.939
15.44000 9.732
15.46000 17.753
15.48000 18.358
15.50000 13.413
15.52000 7.424
15.54000 2.486
15.56000 4.303
15.58000 12.589
15.60000 3.779
15.62000 0.784
15.64000 -1.252
15.66000 14.434
15.68000 19.605
15.70000 12.191
15.72000 4.951
15.74000 9.886
15.76000 6.062
15.78000 4.917
15.80000 7.759
15.82000 18.753
15.84000 11.934
15.86000 9.103
15.88000 10.275
15.90000 15.263
15.92000 8.986
15.94000 3.748
15.96000 3.613
15.98000 9.573
16.00000 9.553
16.02000 1.781
16.04000 5.970
16.06000 6.102
16.08000 5.719
16.10000 13.445
16.12000 13.500
16.14000 13.451
16.16000 12.683
16.18000 5.828
16.20000 3.074
16.22000 -2.813
16.24000 6.556
16.26000 13.982
16.28000 16.937
16.30000 15.281
16.32000 15.435
16.34000 13.819
16.36000 6.473
16.38000 4.714
16.40000 4.189
16.42000 3.614
16.44000 2.617
16.46000 6.050
16.48000 5.017
16.50000 11.297
16.52000 15.255
16.54000 7.360
16.56000 0.888
16.58000 3.406
16.60000 3.228
16.62000 0.189
16.64000 -0.746
16.66000 2.791
16.68000 -0.907
16.70000 6.265
16.72000 2.620
16.74000 0.229
16.76000 1.241
16.78000 13.071
16.80000 11.639
16.82000 8.508
16.84000 9.709
16.86000 4.587
16.88000 -3.612
16.90000 1.632
16.92000 5.386
16.94000 6.186
16.96000 -0.296
16.98000 5.260
17.00000 6.328
17.02000 4.927
17.04000 7.506
17.06000 4.534
17.08000 6.230
17.10000 3.759
17.12000 8.708
17.14000 2.088
17.16000 7.254
17.18000 13.105
17.20000 4.448
17.22000 1.800
17.24000 1.461
17.26000 5.632
17.28000 6.675
17.30000 6.707
17.32000 14.548
17.34000 10.940
17.36000 4.665
17.38000 3.642
17.40000 3.459
17.42000 -2.792
17.44000 0.886
17.46000 5.929
17.48000 4.026
17.50000 1.219
17.52000 3.017
17.54000 4.006
17.56000 1.211
17.58000 3.302
17.60000 2.989
17.62000 -0.742
17.64000 5.483
17.66000 3.302
17.68000 4.221
17.70000 -0.853
17.72000 -0.261
17.74000 8.146
17.76000 8.378
17.78000 7.842
17.80000 1.095
17.82000 4.865
17.84000 6.433
17.86000 -0.658
17.88000 -1.177
17.90000 5.288
17.92000 1.142
17.94000 3.335
17.96000 2.284
17.98000 7.919
18.00000 10.386
18.02000 2.904
18.04000 3.912
18.06000 4.605
18.08000 9.143
18.10000 11.934
18.12000 -0.428
18.14000 -1.589
18.16000 -2.625
18.18000 11.149
18.20000 12.240
18.22000 6.852
18.24000 5.490
18.26000 2.480
18.28000 2.640
18.30000 6.883
18.32000 4.375
18.34000 2.489
18.36000 1.039
18.38000 -2.023
18.40000 -0.314
18.42000 -3.074
18.44000 -2.114
18.46000 4.966
18.48000 9.368
18.50000 9.452
18.52000 1.037
18.54000 5.835
18.56000 9.287
18.58000 6.227
18.60000 -0.155
18.62000 -0.031
18.64000 3.530
18.66000 4.001
18.68000 1.580
18.70000 0.371
18.72000 1.059
18.74000 5.444
18.76000 9.231
18.78000 17.642
18.80000 10.995
18.82000 5.964
18.84000 9.334
18.86000 4.089
18.88000 2.154
18.90000 4.182
18.92000 8.722
18.94000 5.003
18.96000 7.801
18.98000 -0.668
19.00000 -4.324
19.02000 3.049
19.04000 12.834
19.06000 7.596
19.08000 2.652
19.10000 3.769
19.12000 1.566
19.14000 -1.512
19.16000 10.070
19.18000 7.655
19.20000 2.343
19.22000 2.499
19.24000 6.406
19.26000 6.816
19.28000 10.672
19.30000 5.983
19.32000 -1.561
19.34000 4.180
19.36000 0.670
19.38000 1.716
19.40000 5.052
19.42000 3.573
19.44000 -2.952
19.46000 -4.296
19.48000 0.337
19.50000 3.396
19.52000 2.827
19.54000 5.691
19.56000 4.100
19.58000 7.519
19.60000 15.768
19.62000 7.952
19.64000 4.246
19.66000 3.552
19.68000 4.053
19.70000 5.553
19.72000 4.671
19.74000 5.512
19.76000 0.565
19.78000 -0.047
19.80000 8.767
19.82000 11.242
19.84000 5.921
19.86000 5.221
19.88000 6.868
19.90000 1.121
19.92000 7.728
19.94000 11.498
19.96000 12.369
19.98000 6.039
20.00000 5.287
20.02000 6.863
20.04000 2.149
20.06000 11.949
20.08000 9.514
20.10000 2.145
20.12000 3.458
20.14000 2.979
20.16000 10.081
20.18000 9.993
20.20000 5.156
20.22000 2.963
20.24000 5.664
20.26000 7.898
20.28000 13.001
20.30000 9.320
20.32000 7.462
20.34000 6.529
20.36000 2.540
20.38000 3.620
20.40000 0.197
20.42000 1.655
20.44000 1.507
20.46000 4.383
20.48000 5.392
20.50000 7.750
20.52000 8.368
20.54000 7.067
20.56000 12.379
20.58000 16.472
20.60000 15.127
20.62000 9.575
20.64000 14.300
20.66000 11.129
20.68000 11.678
20.70000 12.705
20.72000 6.200
20.74000 1.787
20.76000 7.603
20.78000 9.321
20.80000 9.857
20.82000 10.271
20.84000 7.113
20.86000 6.344
20.88000 10.031
20.90000 5.952
20.92000 2.288
20.94000 3.581
20.96000 3.422
20.98000 2.771
21.00000 2.913
21.02000 7.151
21.04000 13.062
21.06000 11.900
21.08000 12.235
21.10000 12.558
21.12000 11.336
21.14000 7.398
21.16000 5.927
21.18000 -2.677
21.20000 -4.154
21.22000 1.844
21.24000 9.045
21.26000 3.632
21.28000 2.944
21.30000 5.780
21.32000 7.541
21.34000 7.464
21.36000 9.383
21.38000 3.492
21.40000 2.053
21.42000 2.275
21.44000 13.537
21.46000 9.425
21.48000 4.228
21.50000 8.309
21.52000 9.885
21.54000 7.289
21.56000 4.247
21.58000 9.961
21.60000 9.340
21.62000 5.240
21.64000 6.425
21.66000 2.900
21.68000 2.567
21.70000 -0.912
21.72000 2.880
21.74000 3.355
21.76000 -3.752
21.78000 -2.826
21.80000 -2.399
21.82000 -0.983
21.84000 -2.168
21.86000 2.705
21.88000 4.120
21.90000 10.422
21.92000 13.216
21.94000 8.080
21.96000 4.868
21.98000 11.442
22.00000 6.866
22.02000 7.313
22.04000 8.733
22.06000 6.944
22.08000 5.379
22.10000 -0.870
22.12000 0.770
22.14000 -2.596
22.16000 -3.148
22.18000 0.445
22.20000 3.925
22.22000 2.497
22.24000 7.863
22.26000 12.912
22.28000 15.959
22.30000 5.828
22.32000 -1.325
22.34000 -4.130
22.36000 4.357
22.38000 5.340
22.40000 4.504
22.42000 -1.226
22.44000 1.602
22.46000 5.030
22.48000 5.760
22.50000 8.546
22.52000 5.495
22.54000 0.223
22.56000 2.201
22.58000 6.799
22.60000 5.203
22.62000 5.507
22.64000 9.048
22.66000 8.133
22.68000 2.025
22.70000 -1.282
22.72000 0.388
22.74000 9.468
22.76000 8.473
22.78000 3.043
22.80000 6.273
22.82000 7.005
22.84000 0.098
22.86000 2.637
22.88000 5.382
22.90000 3.132
22.92000 -0.292
22.94000 1.503
22.96000 5.777
22.98000 3.950
23.00000 5.463
23.02000 4.680
23.04000 3.677
23.06000 1.642
23.08000 1.136
23.10000 2.263
23.12000 4.497
23.14000 -3.097
23.16000 -0.538
23.18000 1.546
23.20000 5.024
23.22000 5.798
23.24000 5.733
23.26000 -1.588
23.28000 2.078
23.30000 4.601
23.32000 3.645
23.34000 1.728
23.36000 5.124
23.38000 10.023
23.40000 4.369
23.42000 -0.815
23.44000 5.190
23.46000 7.599
23.48000 1.851
23.50000 0.959
23.52000 5.042
23.54000 1.732
23.56000 -4.066
23.58000 -1.706
23.60000 1.657
23.62000 4.242
23.64000 6.752
23.66000 2.393
23.68000 2.422
23.70000 0.040
23.72000 3.669
23.74000 7.045
23.76000 2.229
23.78000 1.819
23.80000 2.816
23.82000 6.207
23.84000 8.755
23.86000 4.483
23.88000 2.534
23.90000 5.500
23.92000 3.715
23.94000 -0.767
23.96000 4.140
23.98000 7.359
24.00000 13.455
24.02000 3.889
24.04000 9.652
24.06000 12.925
24.08000 9.115
24.10000 7.717
24.12000 3.733
24.14000 -4.025
24.16000 3.067
24.18000 6.331
24.20000 -0.360
24.22000 -1.557
24.24000 6.130
24.26000 11.576
24.28000 8.007
24.30000 1.532
24.32000 1.844
24.34000 5.412
24.36000 5.193
24.38000 6.461
24.40000 13.718
24.42000 11.096
24.44000 6.713
24.46000 3.343
24.48000 5.065
24.50000 0.895
24.52000 1.251
24.54000 -0.879
24.56000 3.576
24.58000 1.528
24.60000 1.300
24.62000 2.363
24.64000 6.618
24.66000 2.022
24.68000 2.349
24.70000 3.743
24.72000 5.946
24.74000 5.233
24.76000 6.959
24.78000 0.154
24.80000 -2.316
24.82000 -0.048
24.84000 -2.817
24.86000 -0.878
24.88000 0.653
24.90000 0.415
24.92000 3.525
24.94000 6.520
24.96000 3.038
24.98000 -1.364
25.00000 7.789
25.02000 11.847
25.04000 6.525
25.06000 5.137
25.08000 3.871
25.10000 4.666
25.12000 5.200
25.14000 7.697
25.16000 6.625
25.18000 4.048
25.20000 -1.982
25.22000 2.501
25.24000 6.908
25.26000 7.679
25.28000 8.105
25.30000 8.073
25.32000 9.298
25.34000 6.633
25.36000 9.049
25.38000 5.733
25.40000 2.670
25.42000 0.557
25.44000 2.480
25.46000 5.505
25.48000 3.969
25.50000 4.616
25.52000 3.879
25.54000 -0.945
25.56000 -0.312
25.58000 1.598
25.60000 2.224
25.62000 -1.028
25.64000 -3.939
25.66000 -0.364
25.68000 0.437
25.70000 -0.184
25.72000 3.329
25.74000 -0.103
25.76000 1.363
25.78000 -0.329
25.80000 4.213
25.82000 11.345
25.84000 11.374
25.86000 0.748
25.88000 -1.269
25.90000 0.244
25.92000 5.973
25.94000 7.302
25.96000 9.178
25.98000 8.924
26.00000 7.368
26.02000 10.065
26.04000 9.277
26.06000 7.334
26.08000 3.830
26.10000 2.697
26.12000 4.751
26.14000 6.633
26.16000 8.799
26.18000 9.038
26.20000 4.308
26.22000 4.796
26.24000 7.383
26.26000 7.212
26.28000 7.951
26.30000 3.339
26.32000 1.911
26.34000 7.672
26.36000 4.383
26.38000 5.638
26.40000 6.350
26.42000 4.032
26.44000 6.499
26.46000 5.872
26.48000 7.385
26.50000 9.385
26.52000 6.101
26.54000 10.143
26.56000 11.038
26.58000 5.505
26.60000 7.575
26.62000 7.232
26.64000 3.670
26.66000 2.212
26.68000 1.416
26.70000 3.686
26.72000 0.057
26.74000 1.953
26.76000 -2.370
26.78000 -3.893
26.80000 3.578
26.82000 4.456
26.84000 5.220
26.86000 5.552
26.88000 5.777
26.90000 3.119
26.92000 -2.160
26.94000 -0.553
26.96000 5.101
26.98000 3.907
27.00000 1.131
27.02000 7.045
27.04000 10.190
27.06000 4.319
27.08000 0.540
27.10000 -0.451
27.12000 0.634
27.14000 7.989
27.16000 2.197
27.18000 1.434
27.20000 -0.162
27.22000 1.123
27.24000 1.591
27.26000 -1.829
27.28000 -1.598
27.30000 -0.189
27.32000 3.482
27.34000 0.490
27.36000 0.382
27.38000 -1.004
27.40000 -2.219
27.42000 -0.133
27.44000 -0.446
27.46000 1.094
27.48000 -0.517
27.50000 0.885
27.52000 -3.223
27.54000 1.077
27.56000 0.170
27.58000 1.491
27.60000 5.382
27.62000 5.167
27.64000 0.510
27.66000 0.773
27.68000 1.459
27.70000 -0.158
27.72000 0.864
27.74000 -1.258
27.76000 6.644
27.78000 8.250
27.80000 8.571
27.82000 8.198
27.84000 4.197
27.86000 6.414
27.88000 1.671
27.90000 -2.029
27.92000 -0.623
27.94000 -0.067
27.96000 -0.409
27.98000 -0.345
28.00000 -1.336
28.02000 -2.680
28.04000 -0.087
28.06000 -0.593
28.08000 2.064
28.10000 -0.095
28.12000 -0.722
28.14000 -0.118
28.16000 -2.002
28.18000 1.558
28.20000 -0.734
28.22000 2.918
28.24000 1.147
28.26000 -2.155
28.28000 -0.739
28.30000 -0.901
28.32000 -0.680
28.34000 -2.548
28.36000 -1.378
28.38000 1.517
28.40000 0.297
28.42000 1.166
28.44000 -0.084
28.46000 2.471
28.48000 -0.051
28.50000 3.668
28.52000 3.373
28.54000 5.639
28.56000 6.253
28.58000 7.014
28.60000 4.116
28.62000 1.725
28.64000 -0.393
28.66000 -1.049
28.68000 8.072
28.70000 2.438
28.72000 -1.605
28.74000 2.653
28.76000 2.960
28.78000 2.587
28.80000 1.825
28.82000 -1.652
28.84000 -0.002
28.86000 -1.838
28.88000 0.965
28.90000 1.675
28.92000 -1.373
28.94000 0.920
28.96000 3.514
28.98000 6.566
29.00000 6.190
29.02000 -0.424
29.04000 -3.803
29.06000 -2.674
29.08000 -0.135
29.10000 -0.016
29.12000 -1.968
29.14000 -0.023
29.16000 4.825
29.18000 2.605
29.20000 2.898
29.22000 1.158
29.24000 3.666
29.26000 1.868
29.28000 -0.962
29.30000 2.021
29.32000 3.797
29.34000 8.473
29.36000 4.043
29.38000 -1.864
29.40000 -2.071
29.42000 -3.016
29.44000 -0.712
29.46000 2.349
29.48000 -0.965
29.50000 2.384
29.52000 4.873
29.54000 0.903
29.56000 -1.194
29.58000 -3.763
29.60000 -2.451
29.62000 4.421
29.64000 6.098
29.66000 9.182
29.68000 6.371
29.70000 3.640
29.72000 -0.461
29.74000 0.050
29.76000 -0.614
29.78000 4.051
29.80000 3.453
29.82000 1.829
29.84000 -0.084
29.86000 2.180
29.88000 4.873
29.90000 0.044
29.92000 1.935
29.94000 4.776
29.96000 6.402
29.98000 -0.946
30.00000 0.472
30.02000 -2.100
30.04000 3.549
30.06000 9.850
30.08000 5.303
30.10000 4.045
30.12000 4.555
30.14000 6.669
30.16000 2.119
30.18000 1.101
30.20000 8.640
30.22000 8.068
30.24000 4.395
30.26000 -0.436
30.28000 -0.363
30.30000 -1.553
30.32000 0.738
30.34000 0.457
30.36000 4.749
30.38000 7.212
30.40000 3.999
30.42000 -2.231
30.44000 1.622
30.46000 -2.834
30.48000 -3.720
30.50000 2.387
30.52000 2.225
30.54000 3.687
30.56000 5.107
30.58000 9.293
30.60000 9.208
30.62000 8.229
30.64000 11.449
30.66000 8.328
30.68000 6.749
30.70000 4.598
30.72000 1.068
30.74000 4.640
30.76000 6.315
30.78000 6.227
30.80000 1.783
30.82000 5.266
30.84000 8.282
30.86000 5.512
30.88000 -0.014
30.90000 0.446
30.92000 0.476
30.94000 1.433
30.96000 3.042
30.98000 3.022
31.00000 0.652
31.02000 1.299
31.04000 -0.066
31.06000 0.708
31.08000 -0.641
31.10000 0.569
31.12000 -0.688
31.14000 -0.378
31.16000 -2.608
31.18000 -0.535
31.20000 0.870
31.22000 -1.069
31.24000 4.023
31.26000 2.055
31.28000 -1.638
31.30000 3.010
31.32000 5.885
31.34000 5.215
31.36000 5.384
31.38000 1.382
31.40000 1.643
31.42000 -3.292
31.44000 -0.203
31.46000 0.390
31.48000 0.450
31.50000 0.158
31.52000 -0.680
31.54000 0.502
31.56000 3.645
31.58000 5.283
31.60000 4.049
31.62000 1.539
31.64000 5.646
31.66000 2.112
31.68000 3.806
31.70000 8.175
31.72000 7.804
31.74000 5.747
31.76000 0.224
31.78000 1.551
31.80000 2.798
31.82000 2.446
31.84000 0.939
31.86000 0.793
31.88000 7.081
31.90000 7.409
31.92000 1.189
31.94000 -0.950
31.96000 -2.826
31.98000 1.557
32.00000 4.141
32.02000 4.413
32.04000 2.553
32.06000 5.975
32.08000 2.308
32.10000 -3.664
32.12000 1.764
32.14000 1.473
32.16000 -0.111
32.18000 3.355
32.20000 5.196
32.22000 5.329
32.24000 5.191
32.26000 4.355
32.28000 6.503
32.30000 5.471
32.32000 5.024
32.34000 1.548
32.36000 0.511
32.38000 0.657
32.40000 -3.660
32.42000 0.732
32.44000 5.607
32.46000 5.479
32.48000 3.511
32.50000 5.680
32.52000 4.565
32.54000 2.274
32.56000 5.496
32.58000 3.969
32.60000 1.408
32.62000 0.370
32.64000 -1.165
32.66000 -0.231
32.68000 -0.885
32.70000 -0.745
32.72000 1.926
32.74000 1.889
32.76000 0.289
32.78000 1.776
32.80000 -2.295
32.82000 5.375
32.84000 6.998
32.86000 1.735
32.88000 2.430
32.90000 2.490
32.92000 4.631
32.94000 4.565
32.96000 0.123
32.98000 0.264
33.00000 -2.883
33.02000 -3.104
33.04000 0.649
33.06000 0.162
33.08000 0.528
33.10000 3.845
33.12000 2.785
33.14000 -0.081
33.16000 -2.402
33.18000 -1.302
33.20000 2.370
33.22000 6.759
33.24000 7.867
33.26000 3.750
33.28000 -1.172
33.30000 3.217
33.32000 5.731
33.34000 3.041
33.36000 4.129
33.38000 4.190
33.40000 -0.317
33.42000 2.680
33.44000 6.493
33.46000 -0.398
33.48000 1.449
33.50000 4.902
33.52000 3.547
33.54000 0.152
33.56000 1.920
33.58000 -3.219
33.60000 -2.214
33.62000 3.545
33.64000 5.174
33.66000 0.601
33.68000 -3.683
33.70000 -2.227
33.72000 -0.075
33.74000 -1.319
33.76000 -2.305
33.78000 1.463
33.80000 5.482
33.82000 1.913
33.84000 3.700
33.86000 3.856
33.88000 5.229
33.90000 7.685
33.92000 2.405
33.94000 -3.683
33.96000 -2.275
33.98000 -3.157
34.00000 3.242
34.02000 1.460
34.04000 2.410
34.06000 0.023
34.08000 -0.124
34.10000 0.595
34.12000 -0.414
34.14000 1.920
34.16000 3.147
34.18000 1.765
34.20000 4.141
34.22000 -1.330
34.24000 1.319
34.26000 0.711
34.28000 1.661
34.30000 2.144
34.32000 -0.704
34.34000 -2.330
34.36000 2.590
34.38000 2.855
34.40000 -1.199
34.42000 1.949
34.44000 1.349
34.46000 0.696
34.48000 3.278
34.50000 -1.603
34.52000 -1.724
34.54000 -1.604
34.56000 1.026
34.58000 -1.301
34.60000 2.550
34.62000 4.013
34.64000 -0.539
34.66000 -2.661
34.68000 -3.669
34.70000 -2.787
34.72000 -0.220
34.74000 0.622
34.76000 -1.541
34.78000 1.459
34.80000 2.332
34.82000 3.379
34.84000 0.944
34.86000 -0.076
34.88000 -2.033
34.90000 1.823
34.92000 -3.103
34.94000 -2.528
34.96000 -2.693
34.98000 -1.999
35.00000 2.691
35.02000 2.735
35.04000 4.725
35.06000 5.977
35.08000 1.559
35.10000 1.906
35.12000 1.155
35.14000 -1.064
35.16000 -2.360
35.18000 -0.396
35.20000 2.488
35.22000 1.521
35.24000 -3.651
35.26000 -3.660
35.28000 -1.746
35.30000 2.930
35.32000 -1.985
35.34000 -3.658
35.36000 -1.511
35.38000 -1.493
35.40000 -0.725
35.42000 0.935
35.44000 2.268
35.46000 8.006
35.48000 6.894
35.50000 2.582
35.52000 0.927
35.54000 -2.739
35.56000 -0.780
35.58000 0.852
35.60000 -0.600
35.62000 -0.324
35.64000 -0.641
35.66000 1.691
35.68000 -3.667
35.70000 -2.626
35.72000 0.139
35.74000 -1.118
35.76000 2.287
35.78000 0.244
35.80000 3.467
35.82000 3.355
35.84000 -1.116
35.86000 -1.123
35.88000 3.841
35.90000 6.715
35.92000 0.454
35.94000 1.309
35.96000 -1.533
35.98000 -3.688
36.00000 -2.689
36.02000 -0.590
36.04000 -1.791
36.06000 -1.956
36.08000 -2.062
36.10000 1.178
36.12000 2.332
36.14000 0.199
36.16000 -0.650
36.18000 -1.402
36.20000 1.531
36.22000 2.375
36.24000 -0.301
36.26000 1.749
36.28000 7.757
36.30000 6.008
36.32000 7.632
36.34000 2.636
36.36000 3.302
36.38000 6.115
36.40000 1.102
36.42000 -1.620
36.44000 -0.629
36.46000 0.248
36.48000 5.472
36.50000 7.188
36.52000 5.611
36.54000 1.830
36.56000 1.121
36.58000 2.688
36.60000 4.661
36.62000 5.586
36.64000 7.849
36.66000 6.477
36.68000 7.097
36.70000 6.355
36.72000 5.738
36.74000 6.329
36.76000 5.787
36.78000 7.054
36.80000 3.344
36.82000 5.026
36.84000 3.746
36.86000 8.069
36.88000 9.775
36.90000 7.781
36.92000 12.804
36.94000 14.399
36.96000 4.054
36.98000 4.526
37.00000 8.585
37.02000 8.933
37.04000 8.335
37.06000 9.916
37.08000 11.627
37.10000 9.152
37.12000 9.254
37.14000 7.033
37.16000 10.435
37.18000 16.729
37.20000 17.479
37.22000 12.293
37.24000 16.616
37.26000 16.333
37.28000 17.982
37.30000 16.343
37.32000 13.079
37.34000 15.328
37.36000 14.132
37.38000 12.398
37.40000 12.965
37.42000 14.503
37.44000 14.717
37.46000 15.036
37.48000 18.804
37.50000 17.800
37.52000 22.012
37.54000 22.440
37.56000 24.398
37.58000 26.563
37.60000 24.400
37.62000 24.432
37.64000 18.565
37.66000 18.420
37.68000 22.729
37.70000 28.474
37.72000 30.612
37.74000 27.618
37.76000 28.029
37.78000 31.526
37.80000 28.948
37.82000 34.513
37.84000 34.855
37.86000 32.880
37.88000 34.365
37.90000 41.200
37.92000 42.819
37.94000 37.624
37.96000 37.482
37.98000 36.491
38.00000 41.255
38.02000 40.544
38.04000 44.191
38.06000 47.333
38.08000 46.266
38.10000 48.784
38.12000 49.569
38.14000 49.712
38.16000 53.213
38.18000 61.183
38.20000 62.715
38.22000 59.648
38.24000 65.672
38.26000 61.344
38.28000 65.120
38.30000 71.944
38.32000 77.944
38.34000 79.173
38.36000 85.370
38.38000 83.710
38.40000 88.538
38.42000 92.628
38.44000 98.334
38.46000 109.718
38.48000 118.014
38.50000 118.149
38.52000 120.292
38.54000 130.020
38.56000 140.217
38.58000 149.161
38.60000 152.773
38.62000 164.418
38.64000 172.470
38.66000 181.840
38.68000 198.314
38.70000 206.615
38.72000 206.666
38.74000 216.460
38.76000 233.122
38.78000 240.742
38.80000 249.422
38.82000 262.265
38.84000 274.595
38.86000 284.500
38.88000 289.108
38.90000 287.700
38.92000 295.179
38.94000 302.300
38.96000 304.045
38.98000 310.609
39.00000 312.226
39.02000 310.176
39.04000 303.961
39.06000 310.375
39.08000 299.962
39.10000 296.145
39.12000 288.264
39.14000 280.802
39.16000 270.951
39.18000 259.507
39.20000 254.118
39.22000 253.030
39.24000 238.221
39.26000 225.594
39.28000 209.349
39.30000 202.889
39.32000 189.260
39.34000 172.523
39.36000 161.847
39.38000 156.023
39.40000 154.638
39.42000 144.068
39.44000 137.094
39.46000 123.969
39.48000 125.884
39.50000 116.691
39.52000 105.639
39.54000 98.740
39.56000 91.922
39.58000 92.672
39.60000 86.095
39.62000 79.440
39.64000 72.791
39.66000 65.688
39.68000 63.879
39.70000 62.057
39.72000 61.578
39.74000 56.032
39.76000 50.889
39.78000 45.162
39.80000 44.920
39.82000 40.979
39.84000 40.210
39.86000 40.400
39.88000 45.380
39.90000 41.766
39.92000 36.630
39.94000 36.253
39.96000 35.110
39.98000 34.025
40.00000 34.278
40.02000 29.533
40.04000 30.800
40.06000 29.389
40.08000 27.274
40.10000 26.511
40.12000 27.128
40.14000 26.504
40.16000 23.160
40.18000 22.458
40.20000 24.031
40.22000 22.726
40.24000 19.728
40.26000 18.747
40.28000 17.072
40.30000 16.270
40.32000 18.315
40.34000 15.225
40.36000 17.815
40.38000 18.621
40.40000 16.697
40.42000 14.209
40.44000 9.578
40.46000 13.933
40.48000 15.142
40.50000 11.678
40.52000 7.853
40.54000 10.024
40.56000 12.185
40.58000 9.986
40.60000 8.850
40.62000 7.031
40.64000 5.950
40.66000 5.740
40.68000 4.194
40.70000 3.378
40.72000 4.853
40.74000 7.004
40.76000 6.847
40.78000 6.242
40.80000 5.377
40.82000 2.901
40.84000 2.152
40.86000 6.295
40.88000 7.895
40.90000 7.621
40.92000 3.609
40.94000 -1.304
40.96000 2.196
40.98000 5.709
41.00000 8.639
41.02000 7.164
41.04000 5.046
41.06000 4.465
41.08000 8.450
41.10000 5.035
41.12000 4.077
41.14000 3.853
41.16000 4.494
41.18000 4.849
41.20000 5.090
41.22000 1.648
41.24000 -0.182
41.26000 1.872
41.28000 2.284
41.30000 4.151
41.32000 2.749
41.34000 5.403
41.36000 6.431
41.38000 3.959
41.40000 -0.316
41.42000 2.613
41.44000 3.363
41.46000 0.738
41.48000 -0.946
41.50000 -1.375
41.52000 -2.739
41.54000 -1.281
41.56000 1.925
41.58000 2.289
41.60000 -0.146
41.62000 -3.175
41.64000 -3.074
41.66000 -1.386
41.68000 -1.572
41.70000 2.216
41.72000 4.627
41.74000 3.500
41.76000 0.582
41.78000 -1.282
41.80000 -3.464
41.82000 -2.411
41.84000 0.580
41.86000 2.662
41.88000 -0.769
41.90000 -2.037
41.92000 -1.946
41.94000 0.743
41.96000 0.447
41.98000 -1.342
42.00000 -1.718
42.02000 -1.032
42.04000 0.810
42.06000 2.973
42.08000 -0.161
42.10000 0.316
42.12000 2.437
42.14000 0.286
42.16000 0.432
42.18000 -2.843
42.20000 -3.191
42.22000 -3.409
42.24000 -0.833
42.26000 0.412
42.28000 3.537
42.30000 0.618
42.32000 1.912
42.34000 2.328
42.36000 1.056
42.38000 0.509
42.40000 1.767
42.42000 -1.396
42.44000 -0.898
42.46000 -1.440
42.48000 -2.852
42.50000 -1.634
42.52000 1.052
42.54000 0.743
42.56000 2.154
42.58000 4.351
42.60000 -0.179
42.62000 -0.858
42.64000 -0.799
42.66000 -3.343
42.68000 -2.327
42.70000 2.113
42.72000 5.909
42.74000 2.846
42.76000 0.328
42.78000 0.789
42.80000 1.950
42.82000 -0.735
42.84000 -1.684
42.86000 0.188
42.88000 1.829
42.90000 -0.641
42.92000 1.839
42.94000 1.839
42.96000 -1.257
42.98000 1.513
43.00000 4.536
43.02000 0.198
43.04000 1.869
43.06000 1.269
43.08000 -2.284
43.10000 -2.971
43.12000 5.049
43.14000 7.696
43.16000 0.708
43.18000 -3.287
43.20000 -2.376
43.22000 -1.678
43.24000 0.570
43.26000 3.169
43.28000 2.252
43.30000 3.010
43.32000 1.094
43.34000 2.143
43.36000 1.511
43.38000 3.489
43.40000 2.285
43.42000 2.124
43.44000 -0.730
43.46000 -3.274
43.48000 -0.740
43.50000 0.433
43.52000 0.410
43.54000 4.087
43.56000 0.105
43.58000 -3.211
43.60000 -3.055
43.62000 2.923
43.64000 -0.724
43.66000 0.555
43.68000 5.435
43.70000 7.650
43.72000 5.323
43.74000 -2.266
43.76000 -3.007
43.78000 2.871
43.80000 2.915
43.82000 -2.674
43.84000 0.712
43.86000 1.778
43.88000 5.765
43.90000 6.053
43.92000 3.953
43.94000 2.601
43.96000 3.756
43.98000 4.273
44.00000 5.909
44.02000 2.971
44.04000 3.125
44.06000 -0.365
44.08000 0.659
44.10000 4.494
44.12000 1.888
44.14000 7.174
44.16000 6.324
44.18000 5.864
44.20000 6.988
44.22000 4.603
44.24000 2.553
44.26000 5.025
44.28000 7.380
44.30000 6.562
44.32000 3.886
44.34000 3.241
44.36000 7.436
44.38000 9.642
44.40000 9.518
44.42000 5.801
44.44000 6.717
44.46000 11.817
44.48000 13.796
44.50000 12.429
44.52000 12.797
44.54000 11.691
44.56000 15.249
44.58000 16.480
44.60000 18.423
44.62000 16.282
44.64000 17.826
44.66000 21.011
44.68000 22.515
44.70000 25.342
44.72000 23.976
44.74000 25.364
44.76000 27.440
44.78000 31.231
44.80000 34.584
44.82000 33.073
44.84000 32.007
44.86000 34.727
44.88000 38.306
44.90000 41.872
44.92000 43.864
44.94000 43.779
44.96000 50.916
44.98000 49.154
45.00000 52.869
45.02000 55.449
45.04000 56.768
45.06000 66.933
45.08000 68.009
45.10000 64.696
45.12000 65.819
45.14000 75.130
45.16000 78.068
45.18000 82.491
45.20000 91.889
45.22000 90.806
45.24000 90.264
45.26000 95.662
45.28000 102.619
45.30000 102.918
45.32000 102.679
45.34000 106.737
45.36000 110.992
45.38000 112.759
45.40000 116.726
45.42000 123.064
45.44000 116.060
45.46000 116.823
45.48000 118.447
45.50000 123.910
45.52000 118.525
45.54000 116.563
45.56000 116.024
45.58000 114.203
45.60000 116.085
45.62000 115.798
45.64000 114.330
45.66000 108.353
45.68000 101.931
45.70000 103.370
45.72000 100.703
45.74000 94.805
45.76000 91.488
45.78000 86.977
45.80000 79.108
45.82000 80.139
45.84000 81.606
45.86000 75.892
45.88000 72.315
45.90000 65.395
45.92000 60.293
45.94000 58.767
45.96000 58.335
45.98000 59.161
46.00000 60.688
46.02000 55.423
46.04000 48.503
46.06000 46.057
46.08000 45.581
46.10000 41.449
46.12000 37.260
46.14000 30.637
46.16000 31.363
46.18000 34.032
46.20000 33.845
46.22000 30.157
46.24000 28.146
46.26000 21.150
46.28000 21.215
46.30000 22.230
46.32000 23.376
46.34000 19.072
46.36000 15.909
46.38000 11.913
46.40000 13.722
46.42000 14.221
46.44000 8.331
46.46000 7.434
46.48000 11.695
46.50000 10.236
46.52000 8.144
46.54000 8.402
46.56000 11.879
46.58000 5.080
46.60000 6.135
46.62000 8.877
46.64000 8.129
46.66000 6.521
46.68000 5.779
46.70000 4.553
46.72000 6.825
46.74000 4.060
46.76000 3.614
46.78000 3.159
46.80000 4.415
46.82000 2.821
46.84000 -2.643
46.86000 0.262
46.88000 1.073
46.90000 4.232
46.92000 4.589
46.94000 2.446
46.96000 -0.039
46.98000 0.081
47.00000 1.581
47.02000 4.728
47.04000 0.796
47.06000 0.881
47.08000 1.224
47.10000 6.049
47.12000 6.365
47.14000 2.049
47.16000 6.153
47.18000 2.503
47.20000 -0.323
47.22000 -0.811
47.24000 1.061
47.26000 5.202
47.28000 3.455
47.30000 -2.875
47.32000 -1.067
47.34000 -1.964
47.36000 0.620
47.38000 1.498
47.40000 1.061
47.42000 0.784
47.44000 2.453
47.46000 -1.938
47.48000 3.030
47.50000 0.712
47.52000 0.949
47.54000 -0.816
47.56000 0.189
47.58000 0.151
47.60000 -0.165
47.62000 -1.181
47.64000 -1.188
47.66000 -1.412
47.68000 0.658
47.70000 1.295
47.72000 -0.661
47.74000 4.430
47.76000 1.368
47.78000 0.789
47.80000 1.429
47.82000 3.993
47.84000 -1.324
47.86000 -2.816
47.88000 0.474
47.90000 2.738
47.92000 1.175
47.94000 6.309
47.96000 1.896
47.98000 -2.802
48.00000 1.198
48.02000 0.910
48.04000 -1.438
48.06000 1.490
48.08000 3.611
48.10000 4.431
48.12000 3.501
48.14000 3.686
48.16000 1.580
48.18000 3.921
48.20000 2.255
48.22000 2.171
48.24000 0.075
48.26000 3.699
48.28000 6.777
48.30000 3.183
48.32000 2.284
48.34000 4.510
48.36000 2.595
48.38000 3.246
48.40000 -0.359
48.42000 1.643
48.44000 7.287
48.46000 4.823
48.48000 2.735
48.50000 2.659
48.52000 2.675
48.54000 2.869
48.56000 3.643
48.58000 7.125
48.60000 4.036
48.62000 2.477
48.64000 1.590
48.66000 0.976
48.68000 2.191
48.70000 5.598
48.72000 2.567
48.74000 -1.480
48.76000 2.679
48.78000 3.852
48.80000 1.031
48.82000 -1.080
48.84000 -0.088
48.86000 1.541
48.88000 2.232
48.90000 5.997
48.92000 4.016
48.94000 2.664
48.96000 3.934
48.98000 4.375
49.00000 -2.711
49.02000 0.753
49.04000 3.147
49.06000 1.154
49.08000 4.716
49.10000 1.198
49.12000 3.138
49.14000 4.748
49.16000 4.411
49.18000 3.631
49.20000 1.955
49.22000 1.656
49.24000 3.632
49.26000 3.023
49.28000 3.323
49.30000 3.078
49.32000 1.810
49.34000 0.968
49.36000 0.771
49.38000 -1.773
49.40000 0.391
49.42000 0.821
49.44000 3.329
49.46000 3.628
49.48000 5.005
49.50000 3.299
49.52000 1.069
49.54000 -0.527
49.56000 -0.057
49.58000 4.687
49.60000 0.134
49.62000 0.761
49.64000 3.334
49.66000 0.080
49.68000 1.077
49.70000 -0.362
49.72000 0.284
49.74000 -0.217
49.76000 3.470
49.78000 4.744
49.80000 0.788
49.82000 4.103
49.84000 3.892
49.86000 2.678
49.88000 0.306
49.90000 0.497
49.92000 -2.684
49.94000 2.207
49.96000 6.628
49.98000 0.188
50.00000 2.042
50.02000 5.691
50.04000 0.004
50.06000 2.373
50.08000 2.497
50.10000 4.072
50.12000 -0.405
50.14000 -2.275
50.16000 -1.660
50.18000 1.368
50.20000 2.931
50.22000 2.931
50.24000 3.118
50.26000 5.713
50.28000 3.220
50.30000 2.838
50.32000 5.336
50.34000 4.876
50.36000 2.732
50.38000 2.637
50.40000 5.285
50.42000 0.442
50.44000 0.160
50.46000 -0.963
50.48000 4.585
50.50000 1.304
50.52000 -2.658
50.54000 -1.591
50.56000 0.278
50.58000 -0.207
50.60000 1.242
50.62000 3.925
50.64000 2.101
50.66000 0.479
50.68000 1.219
50.70000 0.420
50.72000 1.635
50.74000 1.216
50.76000 2.084
50.78000 0.588
50.80000 2.149
50.82000 0.701
50.84000 -2.644
50.86000 -0.273
50.88000 3.484
50.90000 1.198
50.92000 1.762
50.94000 -0.822
50.96000 1.103
50.98000 1.071
51.00000 2.396
51.02000 4.547
51.04000 0.240
51.06000 -0.084
51.08000 1.680
51.10000 1.780
51.12000 -0.076
51.14000 0.824
51.16000 -0.102
51.18000 2.208
51.20000 0.356
51.22000 2.300
51.24000 1.770
51.26000 1.918
51.28000 4.679
51.30000 3.946
51.32000 6.140
51.34000 -1.101
51.36000 -0.465
51.38000 1.145
51.40000 1.578
51.42000 3.157
51.44000 1.544
51.46000 -0.874
51.48000 1.176
51.50000 0.740
51.52000 -1.812
51.54000 -0.058
51.56000 2.886
51.58000 -1.314
51.60000 -2.631
51.62000 -0.430
51.64000 1.397
51.66000 7.319
51.68000 3.206
51.70000 1.888
51.72000 2.843
51.74000 3.684
51.76000 3.673
51.78000 2.638
51.80000 2.498
51.82000 3.949
51.84000 2.329
51.86000 2.274
51.88000 2.543
51.90000 2.557
51.92000 -0.599
51.94000 1.167
51.96000 1.994
51.98000 3.114
52.00000 1.543
52.02000 1.945
52.04000 1.799
52.06000 2.896
52.08000 0.077
52.10000 -0.736
52.12000 1.645
52.14000 2.405
52.16000 1.035
52.18000 0.780
52.20000 3.076
52.22000 2.949
52.24000 3.468
52.26000 3.017
52.28000 5.050
52.30000 4.165
52.32000 2.095
52.34000 1.770
52.36000 0.021
52.38000 -1.776
52.40000 -0.230
52.42000 -2.598
52.44000 0.570
52.46000 -0.718
52.48000 1.161
52.50000 4.092
52.52000 0.678
52.54000 2.960
52.56000 4.400
52.58000 0.541
52.60000 -0.526
52.62000 -1.695
52.64000 -2.074
52.66000 -0.302
52.68000 2.349
52.70000 -0.220
52.72000 0.300
52.74000 3.652
52.76000 2.225
52.78000 2.933
52.80000 3.638
52.82000 3.291
52.84000 4.046
52.86000 6.321
52.88000 5.293
52.90000 7.330
52.92000 1.698
52.94000 4.237
52.96000 5.021
52.98000 1.888
53.00000 -0.795
53.02000 5.283
53.04000 2.390
53.06000 2.475
53.08000 4.107
53.10000 1.972
53.12000 1.149
53.14000 1.990
53.16000 5.267
53.18000 4.876
53.20000 3.237
53.22000 1.810
53.24000 1.741
53.26000 5.649
53.28000 8.366
53.30000 2.510
53.32000 1.514
53.34000 5.299
53.36000 7.020
53.38000 2.784
53.40000 2.956
53.42000 1.283
53.44000 -2.545
53.46000 0.594
53.48000 3.450
53.50000 3.476
53.52000 1.832
53.54000 1.687
53.56000 3.311
53.58000 -1.197
53.60000 -1.330
53.62000 1.830
53.64000 3.109
53.66000 2.736
53.68000 3.173
53.70000 3.725
53.72000 0.432
53.74000 -0.213
53.76000 0.817
53.78000 0.895
53.80000 -2.549
53.82000 1.078
53.84000 6.565
53.86000 2.594
53.88000 -0.242
53.90000 -1.573
53.92000 0.444
53.94000 3.698
53.96000 5.144
53.98000 1.417
54.00000 -0.260
54.02000 1.828
54.04000 -1.497
54.06000 -1.280
54.08000 -0.896
54.10000 1.498
54.12000 0.721
54.14000 0.576
54.16000 -2.063
54.18000 -0.708
54.20000 -0.684
54.22000 1.805
54.24000 2.168
54.26000 2.620
54.28000 2.788
54.30000 -1.178
54.32000 0.675
54.34000 2.295
54.36000 4.429
54.38000 4.764
54.40000 2.528
54.42000 0.911
54.44000 0.901
54.46000 2.735
54.48000 4.668
54.50000 2.379
54.52000 3.632
54.54000 4.293
54.56000 2.254
54.58000 3.023
54.60000 1.249
54.62000 1.493
54.64000 0.216
54.66000 2.975
54.68000 5.631
54.70000 1.091
54.72000 2.139
54.74000 4.074
54.76000 4.315
54.78000 6.798
54.80000 4.911
54.82000 0.032
54.84000 -0.786
54.86000 2.722
54.88000 7.331
54.90000 3.517
54.92000 -0.785
54.94000 -0.846
54.96000 0.992
54.98000 3.070
55.00000 0.566
55.02000 -1.756
55.04000 0.580
55.06000 -2.533
55.08000 2.995
55.10000 4.523
55.12000 4.113
55.14000 3.582
55.16000 3.992
55.18000 3.296
55.20000 1.454
55.22000 3.842
55.24000 8.100
55.26000 5.538
55.28000 5.125
55.30000 2.857
55.32000 4.431
55.34000 3.006
55.36000 0.544
55.38000 -0.601
55.40000 -0.176
55.42000 -1.848
55.44000 0.555
55.46000 -1.373
55.48000 0.638
55.50000 5.135
55.52000 5.458
55.54000 4.875
55.56000 1.155
55.58000 3.114
55.60000 3.384
55.62000 2.615
55.64000 -0.024
55.66000 0.908
55.68000 1.382
55.70000 0.639
55.72000 -0.043
55.74000 0.359
55.76000 -0.768
55.78000 4.388
55.80000 4.803
55.82000 5.664
55.84000 4.835
55.86000 5.551
55.88000 6.705
55.90000 3.442
55.92000 0.043
55.94000 -0.988
55.96000 2.748
55.98000 3.626
56.00000 5.518
56.02000 5.217
56.04000 4.832
56.06000 6.937
56.08000 4.075
56.10000 1.924
56.12000 1.249
56.14000 0.065
56.16000 0.942
56.18000 2.538
56.20000 1.682
56.22000 3.407
56.24000 5.435
56.26000 3.177
56.28000 5.372
56.30000 3.690
56.32000 4.207
56.34000 -1.187
56.36000 -2.482
56.38000 0.088
56.40000 1.711
56.42000 1.970
56.44000 3.581
56.46000 5.212
56.48000 2.557
56.50000 1.287
56.52000 1.615
56.54000 2.692
56.56000 2.341
56.58000 1.901
56.60000 4.384
56.62000 2.233
56.64000 -1.248
56.66000 0.909
56.68000 3.420
56.70000 3.209
56.72000 3.549
56.74000 2.193
56.76000 3.413
56.78000 6.066
56.80000 6.027
56.82000 3.362
56.84000 4.183
56.86000 1.780
56.88000 -0.064
56.90000 1.706
56.92000 4.268
56.94000 3.531
56.96000 3.512
56.98000 1.409
57.00000 -1.275
57.02000 -1.255
57.04000 -0.424
57.06000 2.739
57.08000 1.680
57.10000 1.689
57.12000 4.808
57.14000 6.756
57.16000 5.370
57.18000 3.965
57.20000 3.676
57.22000 4.306
57.24000 -2.002
57.26000 -2.465
57.28000 0.930
57.30000 1.858
57.32000 2.702
57.34000 0.222
57.36000 0.292
57.38000 -0.723
57.40000 0.331
57.42000 1.921
57.44000 2.703
57.46000 -0.516
57.48000 -2.032
57.50000 1.058
57.52000 3.286
57.54000 2.576
57.56000 2.213
57.58000 -0.595
57.60000 0.652
57.62000 -0.752
57.64000 -0.253
57.66000 4.610
57.68000 3.631
57.70000 -0.734
57.72000 -0.520
57.74000 2.016
57.76000 1.041
57.78000 0.176
57.80000 -0.070
57.82000 1.832
57.84000 2.945
57.86000 0.099
57.88000 -1.330
57.90000 -0.766
57.92000 -0.473
57.94000 -1.575
57.96000 -0.646
57.98000 0.817
58.00000 1.797
58.02000 6.253
58.04000 5.417
58.06000 2.989
58.08000 5.389
58.10000 5.600
58.12000 -0.230
58.14000 3.876
58.16000 3.898
58.18000 3.585
58.20000 2.669
58.22000 0.805
58.24000 3.215
58.26000 1.547
58.28000 -0.397
58.30000 -2.461
58.32000 -1.431
58.34000 0.277
58.36000 4.249
58.38000 0.798
58.40000 -1.450
58.42000 0.614
58.44000 2.625
58.46000 3.348
58.48000 2.819
58.50000 1.569
58.52000 1.158
58.54000 0.795
58.56000 1.846
58.58000 0.259
58.60000 -1.357
58.62000 -2.442
58.64000 2.504
58.66000 1.071
58.68000 0.911
58.70000 -0.249
58.72000 2.037
58.74000 1.859
58.76000 2.227
58.78000 0.441
58.80000 1.044
58.82000 0.266
58.84000 0.682
58.86000 -0.072
58.88000 1.088
58.90000 -1.944
58.92000 -1.977
58.94000 -1.836
58.96000 -0.433
58.98000 -0.563
59.00000 -1.235
59.02000 0.806
59.04000 0.278
59.06000 2.831
59.08000 2.876
59.10000 2.089
59.12000 1.989
59.14000 4.658
59.16000 2.438
59.18000 0.167
59.20000 -0.285
59.22000 0.557
59.24000 2.915
59.26000 1.449
59.28000 0.973
59.30000 4.582
59.32000 4.443
59.34000 -0.207
59.36000 -2.420
59.38000 3.713
59.40000 1.954
59.42000 -0.305
59.44000 1.631
59.46000 1.308
59.48000 1.010
59.50000 1.969
59.52000 0.996
59.54000 1.918
59.56000 3.407
59.58000 0.766
59.60000 1.344
59.62000 3.157
59.64000 2.829
59.66000 1.988
59.68000 -1.477
59.70000 1.333
59.72000 2.289
59.74000 3.858
59.76000 2.843
59.78000 3.662
59.80000 2.552
59.82000 3.729
59.84000 1.223
59.86000 2.404
59.88000 3.078
59.90000 2.833
59.92000 1.563
59.94000 5.141
59.96000 8.702
59.98000 5.197
60.00000 1.339
60.02000 -1.053
60.04000 1.221
60.06000 1.497
60.08000 1.207
60.10000 3.126
60.12000 2.966
60.14000 1.487
60.16000 -2.370
60.18000 -1.653
60.20000 4.522
60.22000 4.433
60.24000 0.844
60.26000 -0.180
60.28000 0.288
60.30000 3.123
60.32000 2.894
60.34000 2.792
60.36000 2.132
60.38000 0.773
60.40000 1.611
60.42000 1.378
60.44000 0.543
60.46000 1.783
60.48000 2.726
60.50000 4.203
60.52000 1.808
60.54000 2.819
60.56000 2.464
60.58000 1.885
60.60000 2.536
60.62000 1.134
60.64000 1.777
60.66000 -0.070
60.68000 -0.646
60.70000 -2.266
60.72000 -0.241
60.74000 -0.474
60.76000 -1.842
60.78000 1.088
60.80000 2.234
60.82000 4.610
60.84000 0.920
60.86000 2.285
60.88000 2.476
60.90000 3.040
60.92000 2.838
60.94000 2.176
60.96000 2.844
60.98000 5.087
61.00000 1.359
61.02000 4.184
61.04000 2.327
61.06000 -1.978
61.08000 -2.340
61.10000 3.472
61.12000 2.801
61.14000 1.777
61.16000 0.114
61.18000 1.780
61.20000 4.462
61.22000 5.325
61.24000 2.372
61.26000 1.659
61.28000 3.766
61.30000 3.965
61.32000 4.197
61.34000 3.151
61.36000 0.973
61.38000 -1.541
61.40000 -0.288
61.42000 1.485
61.44000 2.685
61.46000 4.672
61.48000 2.408
61.50000 1.928
61.52000 4.492
61.54000 4.113
61.56000 2.763
61.58000 2.957
61.60000 3.257
61.62000 0.493
61.64000 -0.939
61.66000 1.184
61.68000 1.295
61.70000 3.741
61.72000 3.911
61.74000 4.661
61.76000 3.605
61.78000 0.583
61.80000 -0.591
61.82000 -1.102
61.84000 2.749
61.86000 1.427
61.88000 2.909
61.90000 4.411
61.92000 0.942
61.94000 -0.330
61.96000 2.366
61.98000 4.225
62.00000 5.302
62.02000 3.794
62.04000 2.601
62.06000 2.632
62.08000 4.709
62.10000 3.698
62.12000 5.676
62.14000 7.288
62.16000 3.808
62.18000 -2.290
62.20000 -0.203
62.22000 3.235
62.24000 2.060
62.26000 3.218
62.28000 4.096
62.30000 5.066
62.32000 4.960
62.34000 3.019
62.36000 1.711
62.38000 2.356
62.40000 3.594
62.42000 2.036
62.44000 2.650
62.46000 2.696
62.48000 1.167
62.50000 1.995
62.52000 1.064
62.54000 1.114
62.56000 1.090
62.58000 1.797
62.60000 4.783
62.62000 6.524
62.64000 5.397
62.66000 1.864
62.68000 2.875
62.70000 1.671
62.72000 1.725
62.74000 1.434
62.76000 1.258
62.78000 2.220
62.80000 1.238
62.82000 1.623
62.84000 1.884
62.86000 0.121
62.88000 -0.714
62.90000 -0.837
62.92000 -0.143
62.94000 6.302
62.96000 7.992
62.98000 2.573
63.00000 1.060
63.02000 -0.849
63.04000 0.549
63.06000 -0.995
63.08000 3.706
63.10000 5.704
63.12000 3.774
63.14000 1.154
63.16000 -0.625
63.18000 -2.306
63.20000 -0.592
63.22000 -0.529
63.24000 1.952
63.26000 2.214
63.28000 2.752
63.30000 3.334
63.32000 1.947
63.34000 1.829
63.36000 -1.309
63.38000 -1.887
63.40000 0.526
63.42000 0.798
63.44000 -0.316
63.46000 2.291
63.48000 0.985
63.50000 1.342
63.52000 2.863
63.54000 -0.928
63.56000 0.651
63.58000 0.091
63.60000 0.413
63.62000 3.684
63.64000 2.553
63.66000 6.096
63.68000 1.560
63.70000 -1.972
63.72000 -2.294
63.74000 2.045
63.76000 1.949
63.78000 1.542
63.80000 3.179
63.82000 0.077
63.84000 2.745
63.86000 4.935
63.88000 3.194
63.90000 2.554
63.92000 4.383
63.94000 1.894
63.96000 1.567
63.98000 2.496
64.00000 5.164
64.02000 5.740
64.04000 3.184
64.06000 4.228
64.08000 1.615
64.10000 0.979
64.12000 -2.292
64.14000 -0.456
64.16000 2.521
64.18000 -0.174
64.20000 0.011
64.22000 3.641
64.24000 1.390
64.26000 1.216
64.28000 0.304
64.30000 2.261
64.32000 -0.295
64.34000 -2.294
64.36000 -1.861
64.38000 0.463
64.40000 0.173
64.42000 1.615
64.44000 -0.058
64.46000 -1.571
64.48000 -1.552
64.50000 2.680
64.52000 1.770
64.54000 0.898
64.56000 0.284
64.58000 0.500
64.60000 0.007
64.62000 1.391
64.64000 2.663
64.66000 3.611
64.68000 2.295
64.70000 1.094
64.72000 1.378
64.74000 -0.134
64.76000 3.377
64.78000 2.159
64.80000 0.319
64.82000 -0.839
64.84000 -0.896
64.86000 0.218
64.88000 0.908
64.90000 2.014
64.92000 1.568
64.94000 1.395
64.96000 3.560
64.98000 3.882
65.00000 2.639
65.02000 0.931
65.04000 1.729
65.06000 1.593
65.08000 -0.046
65.10000 0.895
65.12000 1.015
65.14000 -0.026
65.16000 0.865
65.18000 0.174
65.20000 0.596
65.22000 0.819
65.24000 -2.323
65.26000 1.489
65.28000 2.455
65.30000 -0.428
65.32000 -0.389
65.34000 -2.324
65.36000 -1.094
65.38000 2.856
65.40000 1.384
65.42000 2.754
65.44000 3.346
65.46000 0.494
65.48000 -0.074
65.50000 1.058
65.52000 -0.394
65.54000 0.430
65.56000 1.675
65.58000 3.133
65.60000 3.368
65.62000 3.415
65.64000 6.041
65.66000 -0.428
65.68000 -1.152
65.70000 2.043
65.72000 2.160
65.74000 2.107
65.76000 1.321
65.78000 3.756
65.80000 4.241
65.82000 4.260
65.84000 3.485
65.86000 5.062
65.88000 4.495
65.90000 4.488
65.92000 5.802
65.94000 6.186
65.96000 5.688
65.98000 5.418
66.00000 10.016
66.02000 7.257
66.04000 5.980
66.06000 4.881
66.08000 5.139
66.10000 8.376
66.12000 6.386
66.14000 4.564
66.16000 5.723
66.18000 5.895
66.20000 6.711
66.22000 5.288
66.24000 7.640
66.26000 7.011
66.28000 5.599
66.30000 7.733
66.32000 8.559
66.34000 6.860
66.36000 8.036
66.38000 6.370
66.40000 7.058
66.42000 9.625
66.44000 7.974
66.46000 8.476
66.48000 4.456
66.50000 4.191
66.52000 4.863
66.54000 5.148
66.56000 2.389
66.58000 1.360
66.60000 3.655
66.62000 3.766
66.64000 2.779
66.66000 1.712
66.68000 2.203
66.70000 3.875
66.72000 2.667
66.74000 3.319
66.76000 4.599
66.78000 2.511
66.80000 0.850
66.82000 0.095
66.84000 0.653
66.86000 0.964
66.88000 -1.099
66.90000 -2.285
66.92000 -0.392
66.94000 -1.178
66.96000 -1.045
66.98000 1.701
67.00000 3.876
67.02000 3.555
67.04000 2.289
67.06000 1.600
67.08000 -1.204
67.10000 1.469
67.12000 2.209
67.14000 0.601
67.16000 1.349
67.18000 1.094
67.20000 1.357
67.22000 -1.305
67.24000 -2.168
67.26000 -0.225
67.28000 1.423
67.30000 0.770
67.32000 1.045
67.34000 -0.089
67.36000 -2.249
67.38000 0.223
67.40000 0.137
67.42000 1.578
67.44000 1.647
67.46000 1.151
67.48000 1.353
67.50000 -0.378
67.52000 -0.328
67.54000 0.818
67.56000 2.862
67.58000 2.068
67.60000 3.998
67.62000 2.494
67.64000 1.370
67.66000 1.703
67.68000 1.179
67.70000 1.217
67.72000 -0.055
67.74000 -0.146
67.76000 -1.347
67.78000 -0.688
67.80000 -0.924
67.82000 -1.090
67.84000 0.119
67.86000 1.888
67.88000 0.334
67.90000 0.005
67.92000 1.633
67.94000 2.928
67.96000 1.280
67.98000 3.415
68.00000 1.834
68.02000 0.928
68.04000 3.284
68.06000 1.672
68.08000 0.356
68.10000 2.256
68.12000 1.784
68.14000 1.352
68.16000 2.237
68.18000 4.424
68.20000 3.448
68.22000 1.644
68.24000 2.478
68.26000 3.773
68.28000 5.176
68.30000 3.052
68.32000 1.742
68.34000 3.622
68.36000 4.460
68.38000 3.033
68.40000 3.192
68.42000 -0.790
68.44000 -2.163
68.46000 -0.892
68.48000 3.322
68.50000 2.518
68.52000 1.080
68.54000 0.461
68.56000 1.988
68.58000 3.727
68.60000 1.125
68.62000 0.881
68.64000 3.331
68.66000 3.302
68.68000 0.325
68.70000 -2.152
68.72000 -1.792
68.74000 -0.913
68.76000 1.855
68.78000 3.409
68.80000 3.291
68.82000 2.543
68.84000 1.657
68.86000 0.939
68.88000 1.613
68.90000 2.166
68.92000 4.456
68.94000 3.194
68.96000 2.367
68.98000 -0.002
69.00000 2.005
69.02000 3.313
69.04000 0.162
69.06000 -1.320
69.08000 1.756
69.10000 2.054
69.12000 0.344
69.14000 2.792
69.16000 3.465
69.18000 2.529
69.20000 1.560
69.22000 2.056
69.24000 0.702
69.26000 3.854
69.28000 4.853
69.30000 2.479
69.32000 2.717
69.34000 2.428
69.36000 3.772
69.38000 5.955
69.40000 3.876
69.42000 2.213
69.44000 -0.417
69.46000 2.122
69.48000 6.308
69.50000 6.106
69.52000 0.317
69.54000 4.904
69.56000 6.858
69.58000 5.482
69.60000 4.028
69.62000 2.578
69.64000 -0.755
69.66000 -2.087
69.68000 0.254
69.70000 1.319
69.72000 2.452
69.74000 3.607
69.76000 1.824
69.78000 2.697
69.80000 4.139
69.82000 4.228
69.84000 2.541
69.86000 4.079
69.88000 3.877
69.90000 0.520
69.92000 3.477
69.94000 2.901
69.96000 4.455
69.98000 2.270
70.00000 2.588
70.02000 0.997
70.04000 0.967
70.06000 1.467
70.08000 2.069
70.10000 1.760
70.12000 0.853
70.14000 2.003
70.16000 2.252
70.18000 2.292
70.20000 3.142
70.22000 2.925
70.24000 1.782
70.26000 4.650
70.28000 2.142
70.30000 2.177
70.32000 1.215
70.34000 1.448
70.36000 0.896
70.38000 2.441
70.40000 3.140
70.42000 3.809
70.44000 2.728
70.46000 0.486
70.48000 0.819
70.50000 1.560
70.52000 1.146
70.54000 1.225
70.56000 1.004
70.58000 2.052
70.60000 2.206
70.62000 6.415
70.64000 5.633
70.66000 4.133
70.68000 3.734
70.70000 0.013
70.72000 2.520
70.74000 4.341
70.76000 2.956
70.78000 0.086
70.80000 -0.244
70.82000 0.831
70.84000 3.966
70.86000 3.487
70.88000 1.463
70.90000 2.056
70.92000 2.974
70.94000 1.662
70.96000 0.297
70.98000 -0.677
71.00000 -0.384
71.02000 3.294
71.04000 4.855
71.06000 1.341
71.08000 0.246
71.10000 -0.434
71.12000 0.615
71.14000 2.709
71.16000 5.508
71.18000 1.391
71.20000 4.322
71.22000 4.317
71.24000 1.286
71.26000 -0.398
71.28000 0.546
71.30000 1.114
71.32000 1.804
71.34000 3.174
71.36000 2.570
71.38000 3.302
71.40000 3.259
71.42000 6.792
71.44000 4.762
71.46000 0.877
71.48000 0.893
71.50000 0.892
71.52000 1.102
71.54000 2.210
71.56000 0.741
71.58000 1.130
71.60000 2.740
71.62000 2.970
71.64000 1.266
71.66000 4.936
71.68000 4.804
71.70000 4.249
71.72000 2.758
71.74000 1.771
71.76000 0.609
71.78000 3.958
71.80000 4.909
71.82000 4.474
71.84000 3.931
71.86000 3.112
71.88000 -2.016
71.90000 -1.947
71.92000 2.204
71.94000 5.389
71.96000 6.814
71.98000 4.867
72.00000 5.715
72.02000 2.446
72.04000 1.719
72.06000 2.569
72.08000 2.475
72.10000 1.665
72.12000 1.068
72.14000 -1.762
72.16000 0.025
72.18000 1.120
72.20000 1.688
72.22000 1.981
72.24000 4.656
72.26000 4.409
72.28000 0.995
72.30000 -0.735
72.32000 1.062
72.34000 4.898
72.36000 5.837
72.38000 4.751
72.40000 2.737
72.42000 4.365
72.44000 1.501
72.46000 -1.036
72.48000 2.455
72.50000 0.569
72.52000 -0.033
72.54000 0.809
72.56000 0.596
72.58000 -0.515
72.60000 1.348
72.62000 4.114
72.64000 5.767
72.66000 2.373
72.68000 4.122
72.70000 0.211
72.72000 -0.900
72.74000 1.147
72.76000 1.120
72.78000 0.136
72.80000 1.125
72.82000 0.940
72.84000 3.976
72.86000 4.454
72.88000 3.729
72.90000 2.387
72.92000 1.374
72.94000 0.089
72.96000 -0.076
72.98000 -0.113
73.00000 1.290
73.02000 3.374
73.04000 1.867
73.06000 3.689
73.08000 2.678
73.10000 1.140
73.12000 -0.770
73.14000 -1.042
73.16000 1.853
73.18000 3.366
73.20000 3.768
73.22000 5.216
73.24000 3.195
73.26000 6.468
73.28000 6.018
73.30000 2.967
73.32000 2.635
73.34000 0.822
73.36000 0.178
73.38000 2.449
73.40000 3.001
73.42000 2.706
73.44000 2.189
73.46000 -0.290
73.48000 1.738
73.50000 0.155
73.52000 3.127
73.54000 4.698
73.56000 3.879
73.58000 3.530
73.60000 0.183
73.62000 -1.987
73.64000 1.695
73.66000 3.113
73.68000 0.785
73.70000 0.044
73.72000 2.133
73.74000 3.785
73.76000 5.689
73.78000 6.178
73.80000 6.317
73.82000 4.235
73.84000 1.701
73.86000 -0.803
73.88000 1.475
73.90000 3.807
73.92000 5.914
73.94000 4.955
73.96000 1.696
73.98000 2.503
74.00000 2.622
74.02000 -1.994
74.04000 -0.707
74.06000 2.657
74.08000 2.505
74.10000 4.119
74.12000 4.829
74.14000 1.973
74.16000 3.450
74.18000 4.028
74.20000 2.068
74.22000 2.797
74.24000 3.078
74.26000 4.871
74.28000 4.614
74.30000 1.139
74.32000 0.137
74.34000 1.975
74.36000 1.595
74.38000 -0.582
74.40000 1.512
74.42000 -1.038
74.44000 1.387
74.46000 4.471
74.48000 3.322
74.50000 0.993
74.52000 3.198
74.54000 2.587
74.56000 4.582
74.58000 -0.697
74.60000 0.934
74.62000 0.030
74.64000 -0.812
74.66000 3.127
74.68000 0.357
74.70000 -1.913
74.72000 -0.636
74.74000 -0.114
74.76000 0.527
74.78000 3.986
74.80000 5.463
74.82000 2.916
74.84000 0.506
74.86000 3.204
74.88000 3.895
74.90000 -1.659
74.92000 -1.852
74.94000 -0.460
74.96000 -0.635
74.98000 -0.071
75.00000 4.903
75.02000 2.519
75.04000 1.092
75.06000 2.504
75.08000 3.835
75.10000 1.577
75.12000 1.181
75.14000 0.678
75.16000 3.357
75.18000 1.127
75.20000 2.647
75.22000 4.715
75.24000 3.613
75.26000 3.265
75.28000 0.338
75.30000 0.438
75.32000 2.572
75.34000 3.811
75.36000 4.465
75.38000 4.730
75.40000 3.081
75.42000 3.090
75.44000 3.429
75.46000 3.834
75.48000 0.425
75.50000 -0.034
75.52000 5.598
75.54000 4.224
75.56000 0.239
75.58000 5.373
75.60000 5.400
75.62000 4.008
75.64000 -1.009
75.66000 -2.027
75.68000 -1.669
75.70000 4.474
75.72000 4.406
75.74000 3.579
75.76000 5.185
75.78000 5.138
75.80000 2.359
75.82000 1.461
75.84000 -0.065
75.86000 3.001
75.88000 0.377
75.90000 0.787
75.92000 -2.022
75.94000 1.454
75.96000 2.617
75.98000 0.710
76.00000 3.049
76.02000 6.037
76.04000 0.876
76.06000 1.207
76.08000 1.293
76.10000 -1.808
76.12000 0.238
76.14000 1.156
76.16000 0.526
76.18000 3.634
76.20000 5.620
76.22000 3.155
76.24000 3.787
76.26000 3.823
76.28000 2.416
76.30000 0.148
76.32000 -0.443
76.34000 -0.133
76.36000 -0.144
76.38000 -0.070
76.40000 2.549
76.42000 3.833
76.44000 4.996
76.46000 3.405
76.48000 2.569
76.50000 3.120
76.52000 1.168
76.54000 -0.905
76.56000 -1.093
76.58000 -1.557
76.60000 -0.237
76.62000 0.449
76.64000 0.394
76.66000 -0.272
76.68000 0.092
76.70000 0.569
76.72000 0.184
76.74000 2.584
76.76000 1.590
76.78000 1.535
76.80000 1.121
76.82000 -1.635
76.84000 1.055
76.86000 3.434
76.88000 2.778
76.90000 4.104
76.92000 2.914
76.94000 -0.383
76.96000 -1.383
76.98000 -0.104
77.00000 2.200
77.02000 1.922
77.04000 2.873
77.06000 1.274
77.08000 -0.547
77.10000 -0.583
77.12000 0.064
77.14000 4.468
77.16000 1.432
77.18000 -1.289
77.20000 1.409
77.22000 -0.333
77.24000 1.575
77.26000 0.561
77.28000 -0.352
77.30000 0.287
77.32000 1.893
77.34000 0.760
77.36000 1.497
77.38000 1.292
77.40000 3.324
77.42000 1.419
77.44000 2.383
77.46000 2.311
77.48000 0.766
77.50000 -1.383
77.52000 2.669
77.54000 2.647
77.56000 0.700
77.58000 1.626
77.60000 2.510
77.62000 1.052
77.64000 1.552
77.66000 5.732
77.68000 2.170
77.70000 -2.127
77.72000 -1.474
77.74000 3.965
77.76000 2.266
77.78000 1.590
77.80000 3.540
77.82000 2.353
77.84000 4.344
77.86000 3.596
77.88000 1.747
77.90000 2.588
77.92000 -1.359
77.94000 -1.680
77.96000 -2.152
77.98000 0.449
78.00000 3.316
78.02000 5.972
78.04000 4.096
78.06000 1.190
78.08000 4.011
78.10000 1.327
78.12000 0.253
78.14000 2.767
78.16000 3.575
78.18000 0.517
78.20000 2.177
78.22000 3.391
78.24000 2.750
78.26000 0.750
78.28000 0.751
78.30000 3.817
78.32000 3.171
78.34000 2.574
78.36000 5.540
78.38000 4.758
78.40000 1.482
78.42000 0.203
78.44000 3.536
78.46000 2.076
78.48000 3.881
78.50000 6.569
78.52000 8.011
78.54000 8.635
78.56000 4.040
78.58000 5.211
78.60000 5.719
78.62000 4.812
78.64000 5.787
78.66000 3.871
78.68000 4.573
78.70000 5.391
78.72000 2.844
78.74000 4.218
78.76000 5.339
78.78000 8.723
78.80000 8.705
78.82000 8.151
78.84000 7.401
78.86000 8.503
78.88000 6.396
78.90000 11.779
78.92000 12.526
78.94000 11.094
78.96000 9.584
78.98000 9.769
79.00000 14.106
79.02000 11.361
79.04000 9.820
79.06000 12.234
79.08000 10.929
79.10000 11.792
79.12000 9.247
79.14000 10.314
79.16000 12.259
79.18000 16.754
79.20000 18.205
79.22000 18.595
79.24000 18.377
79.26000 17.003
79.28000 16.026
79.30000 15.841
79.32000 21.727
79.34000 25.792
79.36000 23.452
79.38000 24.940
79.40000 19.459
79.42000 22.293
79.44000 25.617
79.46000 24.054
79.48000 25.398
79.50000 26.735
79.52000 28.356
79.54000 28.354
79.56000 31.236
79.58000 27.452
79.60000 28.210
79.62000 27.878
79.64000 27.185
79.66000 26.829
79.68000 29.808
79.70000 32.600
79.72000 31.743
79.74000 29.539
79.76000 31.462
79.78000 33.282
79.80000 32.268
79.82000 31.222
79.84000 32.668
79.86000 26.304
79.88000 22.709
79.90000 23.850
79.92000 27.995
79.94000 23.858
79.96000 20.524
79.98000 23.664
80.00000 20.924
80.02000 28.207
80.04000 25.915
80.06000 26.282
80.08000 26.160
80.10000 22.558
80.12000 19.266
80.14000 22.670
80.16000 19.747
80.18000 21.774
80.20000 22.079
80.22000 18.288
80.24000 15.072
80.26000 14.126
80.28000 9.387
80.30000 10.042
80.32000 12.478
80.34000 13.052
80.36000 16.808
80.38000 15.110
80.40000 13.046
80.42000 11.305
80.44000 10.614
80.46000 11.174
80.48000 8.430
80.50000 10.542
80.52000 8.106
80.54000 8.400
80.56000 5.683
80.58000 5.616
80.60000 10.054
80.62000 8.457
80.64000 6.019
80.66000 7.020
80.68000 8.297
80.70000 9.292
80.72000 7.599
80.74000 5.744
80.76000 4.411
80.78000 5.609
80.80000 4.925
80.82000 4.120
80.84000 5.907
80.86000 5.380
80.88000 1.924
80.90000 2.152
80.92000 3.010
80.94000 2.849
80.96000 5.031
80.98000 1.439
81.00000 1.994
81.02000 -0.016
81.04000 -0.122
81.06000 1.538
81.08000 1.411
81.10000 1.876
81.12000 1.891
81.14000 -0.153
81.16000 -2.316
81.18000 0.170
81.20000 3.171
81.22000 2.898
81.24000 1.571
81.26000 -1.633
81.28000 0.467
81.30000 -0.565
81.32000 -2.317
81.34000 0.211
81.36000 1.809
81.38000 0.209
81.40000 -0.095
81.42000 0.936
81.44000 1.232
81.46000 -0.439
81.48000 -1.434
81.50000 0.982
81.52000 1.638
81.54000 3.449
81.56000 2.893
81.58000 0.583
81.60000 0.402
81.62000 -0.274
81.64000 2.632
81.66000 4.069
81.68000 2.374
81.70000 -1.871
81.72000 -1.158
81.74000 -1.046
81.76000 -0.585
81.78000 1.789
81.80000 1.545
81.82000 1.381
81.84000 7.138
81.86000 6.037
81.88000 3.671
81.90000 2.762
81.92000 3.683
81.94000 3.883
81.96000 2.316
81.98000 3.546
82.00000 1.944
82.02000 0.977
82.04000 -1.405
82.06000 2.510
82.08000 5.023
82.10000 2.029
82.12000 1.915
82.14000 2.546
82.16000 2.984
82.18000 1.668
82.20000 1.143
82.22000 1.926
82.24000 3.451
82.26000 3.076
82.28000 -0.618
82.30000 0.589
82.32000 4.869
82.34000 3.623
82.36000 5.365
82.38000 4.472
82.40000 1.269
82.42000 2.310
82.44000 4.191
82.46000 6.447
82.48000 5.914
82.50000 5.107
82.52000 3.758
82.54000 7.059
82.56000 9.558
82.58000 6.283
82.60000 2.095
82.62000 3.780
82.64000 9.179
82.66000 11.028
82.68000 10.206
82.70000 12.687
82.72000 15.151
82.74000 15.168
82.76000 12.545
82.78000 12.091
82.80000 12.975
82.82000 17.768
82.84000 15.498
82.86000 12.507
82.88000 14.795
82.90000 14.640
82.92000 16.433
82.94000 18.425
82.96000 23.997
82.98000 22.635
83.00000 21.033
83.02000 21.759
83.04000 20.996
83.06000 20.488
83.08000 18.448
83.10000 20.366
83.12000 23.414
83.14000 27.232
83.16000 30.556
83.18000 32.188
83.20000 30.634
83.22000 35.872
83.24000 35.151
83.26000 35.645
83.28000 42.649
83.30000 45.298
83.32000 41.635
83.34000 38.455
83.36000 37.354
83.38000 38.880
83.40000 42.253
83.42000 47.924
83.44000 52.144
83.46000 50.165
83.48000 54.552
83.50000 52.812
83.52000 55.713
83.54000 59.056
83.56000 55.471
83.58000 58.551
83.60000 55.891
83.62000 55.748
83.64000 57.230
83.66000 64.437
83.68000 62.425
83.70000 61.138
83.72000 65.495
83.74000 60.640
83.76000 63.738
83.78000 64.999
83.80000 60.687
83.82000 61.273
83.84000 64.130
83.86000 65.924
83.88000 62.748
83.90000 57.687
83.92000 59.691
83.94000 54.772
83.96000 58.171
83.98000 55.411
84.00000 52.324
84.02000 50.137
84.04000 47.434
84.06000 47.808
84.08000 46.732
84.10000 46.582
84.12000 44.439
84.14000 46.577
84.16000 40.693
84.18000 43.516
84.20000 42.297
84.22000 35.056
84.24000 32.164
84.26000 31.921
84.28000 30.158
84.30000 30.948
84.32000 30.489
84.34000 30.048
84.36000 26.754
84.38000 28.945
84.40000 28.083
84.42000 21.014
84.44000 19.459
84.46000 18.117
84.48000 14.093
84.50000 15.992
84.52000 17.548
84.54000 17.139
84.56000 14.770
84.58000 9.082
84.60000 12.259
84.62000 14.701
84.64000 10.925
84.66000 7.318
84.68000 8.880
84.70000 10.782
84.72000 11.190
84.74000 12.018
84.76000 7.131
84.78000 7.769
84.80000 5.479
84.82000 5.059
84.84000 5.438
84.86000 3.433
84.88000 3.973
84.90000 3.823
84.92000 4.684
84.94000 4.533
84.96000 4.447
84.98000 7.658
85.00000 5.110
85.02000 6.983
85.04000 6.911
85.06000 2.136
85.08000 -0.584
85.10000 2.008
85.12000 5.471
85.14000 5.311
85.16000 1.644
85.18000 0.907
85.20000 2.229
85.22000 2.279
85.24000 0.708
85.26000 0.168
85.28000 2.673
85.30000 2.741
85.32000 1.431
85.34000 0.795
85.36000 -2.069
85.38000 -0.063
85.40000 -1.191
85.42000 2.475
85.44000 2.546
85.46000 2.977
85.48000 1.649
85.50000 3.429
85.52000 3.274
85.54000 2.749
85.56000 2.999
85.58000 5.735
85.60000 5.616
85.62000 5.131
85.64000 3.393
85.66000 1.961
85.68000 -1.788
85.70000 1.956
85.72000 3.876
85.74000 1.723
85.76000 3.016
85.78000 2.322
85.80000 1.927
85.82000 1.116
85.84000 4.220
85.86000 4.726
85.88000 5.924
85.90000 1.625
85.92000 0.842
85.94000 2.275
85.96000 5.277
85.98000 3.874
86.00000 3.800
86.02000 5.132
86.04000 3.819
86.06000 5.975
86.08000 1.926
86.10000 1.328
86.12000 1.645
86.14000 -1.559
86.16000 -1.948
86.18000 0.521
86.20000 6.612
86.22000 3.109
86.24000 4.331
86.26000 7.827
86.28000 5.372
86.30000 2.899
86.32000 0.640
86.34000 2.209
86.36000 4.790
86.38000 0.539
86.40000 -0.926
86.42000 1.894
86.44000 3.203
86.46000 4.038
86.48000 2.316
86.50000 2.314
86.52000 -0.553
86.54000 -1.718
86.56000 3.431
86.58000 3.822
86.60000 3.732
86.62000 4.918
86.64000 3.881
86.66000 3.760
86.68000 2.388
86.70000 0.070
86.72000 -1.131
86.74000 -0.217
86.76000 -0.588
86.78000 3.064
86.80000 2.761
86.82000 1.177
86.84000 -1.941
86.86000 0.531
86.88000 0.905
86.90000 3.105
86.92000 3.806
86.94000 4.759
86.96000 2.914
86.98000 1.226
87.00000 -1.530
87.02000 -1.937
87.04000 -1.558
87.06000 1.491
87.08000 0.105
87.10000 -0.615
87.12000 1.126
87.14000 0.908
87.16000 2.827
87.18000 0.830
87.20000 0.014
87.22000 -1.426
87.24000 -1.296
87.26000 1.440
87.28000 3.434
87.30000 -0.059
87.32000 0.468
87.34000 2.942
87.36000 3.993
87.38000 3.690
87.40000 4.318
87.42000 2.570
87.44000 2.866
87.46000 5.503
87.48000 3.019
87.50000 1.495
87.52000 -0.103
87.54000 -1.812
87.56000 -1.396
87.58000 -0.487
87.60000 0.145
87.62000 1.376
87.64000 -0.882
87.66000 1.597
87.68000 2.867
87.70000 0.502
87.72000 1.255
87.74000 1.317
87.76000 0.783
87.78000 1.711
87.80000 0.604
87.82000 -0.163
87.84000 0.522
87.86000 5.007
87.88000 5.057
87.90000 2.409
87.92000 2.982
87.94000 3.403
87.96000 4.672
87.98000 2.004
88.00000 0.218
88.02000 -1.881
88.04000 1.032
88.06000 0.327
88.08000 2.955
88.10000 3.242
88.12000 2.823
88.14000 1.870
88.16000 2.095
88.18000 4.077
88.20000 4.045
88.22000 2.537
88.24000 1.307
88.26000 0.448
88.28000 1.361
88.30000 -0.516
88.32000 -1.640
88.34000 -0.290
88.36000 3.243
88.38000 6.114
88.40000 4.013
88.42000 0.954
88.44000 0.737
88.46000 0.313
88.48000 1.449
88.50000 2.275
88.52000 6.379
88.54000 5.124
88.56000 4.030
88.58000 2.755
88.60000 2.817
88.62000 0.234
88.64000 -1.294
88.66000 -1.193
88.68000 -0.460
88.70000 1.106
88.72000 0.603
88.74000 0.411
88.76000 1.003
88.78000 2.132
88.80000 2.634
88.82000 4.374
88.84000 3.307
88.86000 0.897
88.88000 3.630
88.90000 0.483
88.92000 1.974
88.94000 1.499
88.96000 3.587
88.98000 4.231
89.00000 3.693
89.02000 2.763
89.04000 2.268
89.06000 4.328
89.08000 0.596
89.10000 -1.873
89.12000 -1.286
89.14000 2.969
89.16000 4.949
89.18000 3.120
89.20000 0.176
89.22000 1.609
89.24000 5.027
89.26000 3.398
89.28000 2.584
89.30000 1.914
89.32000 0.796
89.34000 6.836
89.36000 5.811
89.38000 1.313
89.40000 2.453
89.42000 5.037
89.44000 -0.222
89.46000 0.154
89.48000 -1.260
89.50000 -1.287
89.52000 1.434
89.54000 2.856
89.56000 3.535
89.58000 0.745
89.60000 1.007
89.62000 3.751
89.64000 3.572
89.66000 2.651
89.68000 3.513
89.70000 1.852
89.72000 1.602
89.74000 2.402
89.76000 3.621
89.78000 1.264
89.80000 1.529
89.82000 4.821
89.84000 2.375
89.86000 2.039
89.88000 2.442
89.90000 0.634
89.92000 4.016
89.94000 6.702
89.96000 5.372
89.98000 2.450
90.00000 -1.255
90.02000 -1.851
90.04000 2.033
90.06000 3.848
90.08000 2.857
90.10000 2.862
90.12000 5.706
90.14000 3.804
90.16000 3.318
90.18000 6.257
90.20000 3.206
90.22000 4.284
90.24000 5.533
90.26000 6.407
90.28000 4.046
90.30000 -0.280
90.32000 1.503
90.34000 0.535
90.36000 -0.439
90.38000 1.358
90.40000 3.917
90.42000 2.300
90.44000 1.766
90.46000 -0.559
90.48000 1.676
90.50000 3.990
90.52000 5.727
90.54000 5.769
90.56000 4.571
90.58000 4.075
90.60000 1.324
90.62000 1.295
90.64000 4.458
90.66000 1.474
90.68000 -1.871
90.70000 0.528
90.72000 3.556
90.74000 4.352
90.76000 5.968
90.78000 2.224
90.80000 2.934
90.82000 2.370
90.84000 -0.281
90.86000 -0.741
90.88000 0.904
90.90000 2.017
90.92000 0.145
90.94000 -1.790
90.96000 2.645
90.98000 1.312
91.00000 -0.288
91.02000 -0.117
91.04000 -1.530
91.06000 -1.891
91.08000 3.727
91.10000 1.071
91.12000 2.208
91.14000 2.586
91.16000 1.894
91.18000 1.167
91.20000 5.724
91.22000 5.859
91.24000 1.111
91.26000 -0.294
91.28000 0.408
91.30000 1.019
91.32000 3.888
91.34000 6.643
91.36000 2.412
91.38000 1.013
91.40000 -0.101
91.42000 1.272
91.44000 3.464
91.46000 -0.338
91.48000 0.336
91.50000 1.231
91.52000 2.210
91.54000 0.248
91.56000 -0.345
91.58000 -0.932
91.60000 -0.233
91.62000 -0.955
91.64000 0.450
91.66000 1.395
91.68000 1.936
91.70000 0.427
91.72000 2.881
91.74000 2.794
91.76000 -0.984
91.78000 -1.062
91.80000 1.494
91.82000 2.582
91.84000 4.011
91.86000 3.835
91.88000 5.020
91.90000 2.619
91.92000 1.683
91.94000 1.228
91.96000 1.040
91.98000 5.040
92.00000 5.604
92.02000 2.981
92.04000 0.590
92.06000 -0.618
92.08000 -0.814
92.10000 3.374
92.12000 -0.210
92.14000 0.863
92.16000 1.109
92.18000 2.658
92.20000 3.557
92.22000 3.130
92.24000 2.158
92.26000 3.554
92.28000 4.035
92.30000 3.901
92.32000 3.180
92.34000 1.777
92.36000 -1.371
92.38000 3.767
92.40000 2.973
92.42000 1.738
92.44000 -0.122
92.46000 1.028
92.48000 4.332
92.50000 3.670
92.52000 2.925
92.54000 3.622
92.56000 1.968
92.58000 0.653
92.60000 2.068
92.62000 2.448
92.64000 2.965
92.66000 4.009
92.68000 3.132
92.70000 2.469
92.72000 6.205
92.74000 4.844
92.76000 7.040
92.78000 5.404
92.80000 -1.235
92.82000 4.078
92.84000 5.303
92.86000 3.976
92.88000 0.283
92.90000 -1.857
92.92000 -0.165
92.94000 0.197
92.96000 1.770
92.98000 5.252
93.00000 4.413
93.02000 7.564
93.04000 2.856
93.06000 0.483
93.08000 1.467
93.10000 2.932
93.12000 0.462
93.14000 0.813
93.16000 0.192
93.18000 0.451
93.20000 1.772
93.22000 2.303
93.24000 1.560
93.26000 1.638
93.28000 -1.422
93.30000 2.323
93.32000 4.191
93.34000 2.981
93.36000 -0.846
93.38000 2.329
93.40000 4.141
93.42000 3.168
93.44000 3.820
93.46000 3.118
93.48000 3.153
93.50000 3.613
93.52000 3.800
93.54000 2.639
93.56000 2.039
93.58000 6.179
93.60000 4.457
93.62000 1.845
93.64000 1.950
93.66000 4.400
93.68000 3.857
93.70000 -0.145
93.72000 1.739
93.74000 2.942
93.76000 5.595
93.78000 3.121
93.80000 2.232
93.82000 5.054
93.84000 6.602
93.86000 2.860
93.88000 1.038
93.90000 3.426
93.92000 3.377
93.94000 6.341
93.96000 2.296
93.98000 2.204
94.00000 5.114
94.02000 2.883
94.04000 1.615
94.06000 4.951
94.08000 -0.284
94.10000 3.283
94.12000 -0.182
94.14000 3.717
94.16000 3.035
94.18000 6.790
94.20000 6.947
94.22000 1.980
94.24000 3.908
94.26000 5.304
94.28000 4.219
94.30000 3.434
94.32000 1.488
94.34000 -1.907
94.36000 -0.988
94.38000 3.312
94.40000 8.162
94.42000 6.105
94.44000 2.609
94.46000 5.504
94.48000 0.635
94.50000 -1.522
94.52000 1.340
94.54000 0.200
94.56000 3.434
94.58000 4.914
94.60000 4.397
94.62000 4.368
94.64000 0.199
94.66000 1.911
94.68000 1.136
94.70000 1.235
94.72000 1.231
94.74000 -1.114
94.76000 2.401
94.78000 3.635
94.80000 5.333
94.82000 3.825
94.84000 2.863
94.86000 -0.569
94.88000 -1.174
94.90000 -0.127
94.92000 1.338
94.94000 3.114
94.96000 3.246
94.98000 2.268
95.00000 0.366
95.02000 2.869
95.04000 2.544
95.06000 0.273
95.08000 -0.833
95.10000 0.944
95.12000 1.618
95.14000 2.474
95.16000 2.347
95.18000 5.480
95.20000 2.050
95.22000 1.650
95.24000 2.040
95.26000 1.089
95.28000 6.340
95.30000 5.462
95.32000 2.446
95.34000 3.120
95.36000 1.179
95.38000 -1.516
95.40000 -0.570
95.42000 -0.219
95.44000 2.306
95.46000 1.168
95.48000 -0.095
95.50000 -0.243
95.52000 2.552
95.54000 0.547
95.56000 -1.915
95.58000 0.674
95.60000 2.873
95.62000 5.319
95.64000 3.743
95.66000 1.424
95.68000 4.983
95.70000 1.555
95.72000 2.698
95.74000 1.593
95.76000 0.464
95.78000 4.998
95.80000 3.680
95.82000 3.785
95.84000 4.378
95.86000 6.250
95.88000 2.878
95.90000 -0.062
95.92000 1.652
95.94000 -1.817
95.96000 -0.430
95.98000 -1.154
96.00000 3.058
96.02000 3.140
96.04000 4.150
96.06000 0.888
96.08000 3.260
96.10000 3.263
96.12000 2.093
96.14000 2.838
96.16000 1.015
96.18000 2.771
96.20000 3.563
96.22000 7.613
96.24000 2.584
96.26000 2.072
96.28000 1.626
96.30000 2.535
96.32000 1.866
96.34000 4.011
96.36000 3.440
96.38000 1.488
96.40000 3.612
96.42000 1.120
96.44000 1.029
96.46000 2.924
96.48000 1.890
96.50000 0.340
96.52000 3.123
96.54000 2.741
96.56000 2.602
96.58000 1.058
96.60000 5.066
96.62000 1.776
96.64000 1.669
96.66000 5.664
96.68000 4.376
96.70000 4.294
96.72000 5.419
96.74000 4.054
96.76000 3.264
96.78000 5.926
96.80000 6.173
96.82000 7.115
96.84000 3.052
96.86000 4.678
96.88000 3.173
96.90000 8.726
96.92000 7.137
96.94000 7.230
96.96000 2.051
96.98000 5.581
97.00000 9.440
97.02000 5.173
97.04000 1.954
97.06000 4.424
97.08000 2.789
97.10000 4.319
97.12000 4.026
97.14000 4.145
97.16000 5.353
97.18000 5.626
97.20000 4.947
97.22000 4.579
97.24000 4.028
97.26000 2.915
97.28000 3.245
97.30000 3.235
97.32000 7.470
97.34000 0.655
97.36000 2.067
97.38000 4.919
97.40000 10.587
97.42000 6.862
97.44000 5.698
97.46000 5.536
97.48000 1.664
97.50000 -2.430
97.52000 7.761
97.54000 12.945
97.56000 8.692
97.58000 4.633
97.60000 2.914
97.62000 3.896
97.64000 2.767
97.66000 6.466
97.68000 2.323
97.70000 3.286
97.72000 8.854
97.74000 6.661
97.76000 3.804
97.78000 3.589
97.80000 3.774
97.82000 3.768
97.84000 2.340
97.86000 4.448
97.88000 4.751
97.90000 0.372
97.92000 0.526
97.94000 2.151
97.96000 -0.081
97.98000 4.723
98.00000 9.212
98.02000 10.320
98.04000 5.716
98.06000 4.307
98.08000 -1.465
98.10000 6.786
98.12000 0.893
98.14000 -1.844
98.16000 6.030
98.18000 12.606
98.20000 6.978
98.22000 6.718
98.24000 4.431
98.26000 3.516
98.28000 6.270
98.30000 4.088
98.32000 1.722
98.34000 -1.115
98.36000 0.000
98.38000 4.214
98.40000 5.909
98.42000 4.322
98.44000 3.047
98.46000 3.287
98.48000 1.129
98.50000 0.288
98.52000 2.888
98.54000 3.039
98.56000 1.406
98.58000 4.688
98.60000 12.143
98.62000 8.466
98.64000 4.534
98.66000 2.096
98.68000 -1.155
98.70000 3.156
98.72000 3.701
98.74000 0.650
98.76000 0.075
98.78000 -0.686
98.80000 1.765
98.82000 1.471
98.84000 1.473
98.86000 4.179
98.88000 2.173
98.90000 6.242
98.92000 3.345
98.94000 9.383
98.96000 7.406
98.98000 5.687
99.00000 6.722
99.02000 8.955
99.04000 -0.618
99.06000 3.917
99.08000 1.646
99.10000 5.306
99.12000 1.490
99.14000 2.345
99.16000 4.069
99.18000 3.236
99.20000 8.202
99.22000 5.759
99.24000 2.731
99.26000 3.428
99.28000 1.775
99.30000 0.961
99.32000 5.608
99.34000 6.017
99.36000 6.788
99.38000 5.219
99.40000 5.734
99.42000 0.386
99.44000 1.259
99.46000 3.447
99.48000 7.356
99.50000 5.462
99.52000 -1.888
99.54000 3.704
99.56000 4.718
99.58000 -1.788
99.60000 -0.961
99.62000 1.348
99.64000 9.826
99.66000 11.586
99.68000 3.522
99.70000 8.796
99.72000 7.720
99.74000 6.885
99.76000 5.427
99.78000 5.838
99.80000 6.121
99.82000 -1.197
99.84000 -1.202
99.86000 -1.115
99.88000 2.480
99.90000 5.363
99.92000 -1.925
99.94000 -1.949
99.96000 2.482
99.98000 0.000
