'Id: "0011387" Comment: "Integrate frame 0011387_Au-Ir-Rh_Rh-rich_XRD-Mapping-292-0000.gfrmwith cursor Wedge Cursor #5" Operator: "B?rgel" Anode: "Cu" Wavelength: "1.5406" Scantype: "2Theta (TwoTheta)" TimePerStep: "1" X: "22.5" Y: "27" Z: "5.95" 
10.00000 0.000
10.02000 1.751
10.04000 8.372
10.06000 -3.881
10.08000 3.112
10.10000 2.509
10.12000 -0.180
10.14000 10.553
10.16000 14.607
10.18000 0.597
10.20000 -1.067
10.22000 13.620
10.24000 6.032
10.26000 -1.127
10.28000 11.779
10.30000 8.655
10.32000 -3.421
10.34000 -3.895
10.36000 8.012
10.38000 8.532
10.40000 12.221
10.42000 18.945
10.44000 8.802
10.46000 11.339
10.48000 11.708
10.50000 8.093
10.52000 19.572
10.54000 9.757
10.56000 10.418
10.58000 24.898
10.60000 23.029
10.62000 12.661
10.64000 10.806
10.66000 13.976
10.68000 19.467
10.70000 6.151
10.72000 15.433
10.74000 20.451
10.76000 24.383
10.78000 21.982
10.80000 13.433
10.82000 11.574
10.84000 -3.955
10.86000 3.889
10.88000 12.416
10.90000 34.900
10.92000 33.460
10.94000 32.752
10.96000 24.257
10.98000 17.608
11.00000 4.857
11.02000 6.531
11.04000 26.028
11.06000 13.898
11.08000 5.661
11.10000 5.376
11.12000 11.883
11.14000 18.789
11.16000 12.544
11.18000 18.822
11.20000 9.712
11.22000 1.758
11.24000 13.049
11.26000 9.672
11.28000 5.977
11.30000 13.257
11.32000 15.133
11.34000 25.899
11.36000 18.876
11.38000 14.455
11.40000 25.568
11.42000 34.047
11.44000 26.460
11.46000 19.648
11.48000 14.090
11.50000 22.359
11.52000 29.107
11.54000 29.783
11.56000 24.388
11.58000 26.858
11.60000 26.402
11.62000 31.130
11.64000 32.696
11.66000 22.344
11.68000 22.214
11.70000 27.624
11.72000 13.951
11.74000 6.847
11.76000 11.784
11.78000 11.042
11.80000 13.333
11.82000 20.082
11.84000 17.744
11.86000 20.529
11.88000 19.841
11.90000 15.246
11.92000 6.616
11.94000 9.908
11.96000 14.060
11.98000 18.981
12.00000 28.082
12.02000 34.735
12.04000 28.359
12.06000 29.054
12.08000 25.978
12.10000 16.620
12.12000 20.952
12.14000 25.204
12.16000 14.384
12.18000 14.760
12.20000 16.268
12.22000 23.954
12.24000 19.811
12.26000 16.146
12.28000 27.429
12.30000 22.765
12.32000 31.214
12.34000 20.663
12.36000 26.520
12.38000 25.053
12.40000 30.206
12.42000 31.136
12.44000 32.746
12.46000 28.357
12.48000 27.478
12.50000 23.424
12.52000 23.606
12.54000 23.588
12.56000 28.422
12.58000 26.128
12.60000 24.259
12.62000 13.106
12.64000 16.831
12.66000 23.497
12.68000 26.125
12.70000 28.354
12.72000 23.196
12.74000 19.966
12.76000 29.984
12.78000 37.006
12.80000 36.234
12.82000 31.291
12.84000 27.652
12.86000 34.704
12.88000 30.155
12.90000 29.908
12.92000 21.538
12.94000 20.079
12.96000 21.592
12.98000 19.718
13.00000 13.445
13.02000 20.224
13.04000 21.839
13.06000 21.153
13.08000 22.406
13.10000 12.035
13.12000 20.669
13.14000 29.810
13.16000 32.386
13.18000 24.333
13.20000 19.609
13.22000 30.947
13.24000 33.508
13.26000 24.342
13.28000 16.386
13.30000 20.920
13.32000 28.856
13.34000 24.130
13.36000 27.019
13.38000 32.127
13.40000 30.130
13.42000 34.508
13.44000 16.790
13.46000 13.011
13.48000 2.216
13.50000 14.208
13.52000 20.294
13.54000 17.873
13.56000 19.456
13.58000 25.364
13.60000 25.775
13.62000 29.297
13.64000 24.740
13.66000 21.604
13.68000 22.284
13.70000 24.847
13.72000 16.458
13.74000 15.544
13.76000 22.552
13.78000 19.212
13.80000 24.082
13.82000 16.738
13.84000 12.371
13.86000 24.308
13.88000 21.577
13.90000 19.839
13.92000 23.098
13.94000 23.301
13.96000 19.943
13.98000 26.093
14.00000 23.561
14.02000 24.525
14.04000 18.341
14.06000 12.695
14.08000 18.570
14.10000 21.073
14.12000 22.470
14.14000 13.710
14.16000 15.080
14.18000 22.667
14.20000 21.913
14.22000 13.408
14.24000 19.016
14.26000 20.608
14.28000 17.925
14.30000 14.748
14.32000 18.707
14.34000 18.357
14.36000 17.358
14.38000 23.423
14.40000 19.630
14.42000 8.257
14.44000 9.344
14.46000 15.781
14.48000 17.090
14.50000 23.202
14.52000 22.534
14.54000 19.951
14.56000 23.137
14.58000 15.172
14.60000 13.736
14.62000 15.148
14.64000 17.667
14.66000 24.542
14.68000 18.961
14.70000 17.572
14.72000 16.758
14.74000 17.339
14.76000 18.108
14.78000 12.318
14.80000 13.356
14.82000 15.937
14.84000 8.683
14.86000 12.599
14.88000 14.917
14.90000 11.529
14.92000 22.158
14.94000 12.696
14.96000 13.010
14.98000 10.217
15.00000 8.213
15.02000 9.381
15.04000 16.234
15.06000 25.461
15.08000 21.342
15.10000 10.159
15.12000 9.560
15.14000 16.246
15.16000 6.317
15.18000 3.739
15.20000 8.453
15.22000 4.781
15.24000 10.296
15.26000 18.011
15.28000 14.086
15.30000 17.245
15.32000 6.315
15.34000 14.315
15.36000 15.445
15.38000 7.345
15.40000 0.323
15.42000 4.716
15.44000 8.297
15.46000 12.024
15.48000 14.463
15.50000 17.082
15.52000 19.044
15.54000 9.481
15.56000 10.028
15.58000 9.362
15.60000 12.868
15.62000 11.149
15.64000 7.421
15.66000 13.997
15.68000 12.093
15.70000 6.250
15.72000 8.367
15.74000 17.078
15.76000 23.040
15.78000 15.394
15.80000 6.352
15.82000 8.492
15.84000 11.351
15.86000 12.935
15.88000 17.781
15.90000 15.305
15.92000 22.644
15.94000 22.329
15.96000 7.821
15.98000 10.278
16.00000 5.240
16.02000 6.157
16.04000 10.468
16.06000 7.663
16.08000 1.343
16.10000 16.540
16.12000 24.739
16.14000 17.164
16.16000 17.295
16.18000 8.731
16.20000 3.536
16.22000 6.622
16.24000 8.926
16.26000 15.323
16.28000 13.832
16.30000 14.949
16.32000 10.330
16.34000 4.491
16.36000 15.476
16.38000 8.005
16.40000 2.131
16.42000 3.323
16.44000 6.486
16.46000 1.795
16.48000 8.639
16.50000 15.128
16.52000 15.533
16.54000 13.496
16.56000 6.552
16.58000 7.932
16.60000 5.946
16.62000 2.009
16.64000 8.915
16.66000 15.900
16.68000 21.774
16.70000 19.081
16.72000 21.789
16.74000 13.283
16.76000 3.491
16.78000 10.649
16.80000 24.724
16.82000 14.991
16.84000 8.043
16.86000 3.293
16.88000 6.823
16.90000 3.667
16.92000 9.636
16.94000 1.635
16.96000 -4.368
16.98000 13.927
17.00000 10.859
17.02000 6.993
17.04000 5.464
17.06000 12.930
17.08000 8.167
17.10000 8.909
17.12000 17.179
17.14000 11.474
17.16000 10.724
17.18000 18.296
17.20000 10.964
17.22000 9.894
17.24000 15.428
17.26000 9.577
17.28000 6.081
17.30000 4.449
17.32000 6.764
17.34000 9.570
17.36000 12.311
17.38000 16.220
17.40000 11.069
17.42000 14.588
17.44000 18.281
17.46000 6.511
17.48000 5.672
17.50000 1.968
17.52000 7.464
17.54000 14.696
17.56000 14.367
17.58000 5.222
17.60000 5.708
17.62000 7.219
17.64000 5.826
17.66000 14.648
17.68000 17.548
17.70000 11.525
17.72000 8.798
17.74000 3.283
17.76000 5.584
17.78000 3.499
17.80000 3.302
17.82000 0.313
17.84000 5.615
17.86000 8.676
17.88000 10.085
17.90000 9.633
17.92000 9.683
17.94000 13.631
17.96000 13.141
17.98000 11.183
18.00000 3.572
18.02000 4.722
18.04000 9.097
18.06000 0.833
18.08000 2.918
18.10000 5.833
18.12000 3.668
18.14000 8.602
18.16000 8.525
18.18000 11.841
18.20000 9.102
18.22000 5.472
18.24000 5.453
18.26000 6.497
18.28000 5.747
18.30000 4.749
18.32000 12.698
18.34000 8.121
18.36000 7.887
18.38000 7.350
18.40000 12.141
18.42000 7.104
18.44000 9.204
18.46000 8.548
18.48000 2.951
18.50000 0.246
18.52000 4.850
18.54000 4.061
18.56000 4.519
18.58000 4.792
18.60000 5.516
18.62000 5.515
18.64000 -0.609
18.66000 0.390
18.68000 0.378
18.70000 6.310
18.72000 9.457
18.74000 12.343
18.76000 11.329
18.78000 8.650
18.80000 8.571
18.82000 1.679
18.84000 6.428
18.86000 3.976
18.88000 -1.369
18.90000 -2.625
18.92000 3.118
18.94000 1.896
18.96000 3.932
18.98000 0.075
19.00000 -1.360
19.02000 -4.281
19.04000 1.491
19.06000 2.853
19.08000 6.936
19.10000 9.259
19.12000 3.115
19.14000 7.001
19.16000 6.828
19.18000 9.849
19.20000 7.797
19.22000 6.318
19.24000 11.676
19.26000 13.525
19.28000 5.228
19.30000 0.821
19.32000 9.329
19.34000 5.649
19.36000 4.098
19.38000 10.694
19.40000 8.734
19.42000 2.015
19.44000 6.567
19.46000 7.262
19.48000 3.113
19.50000 4.874
19.52000 7.130
19.54000 9.317
19.56000 4.636
19.58000 4.744
19.60000 5.130
19.62000 0.491
19.64000 4.324
19.66000 10.227
19.68000 11.430
19.70000 9.669
19.72000 5.439
19.74000 4.950
19.76000 9.252
19.78000 5.446
19.80000 -0.146
19.82000 -1.106
19.84000 4.483
19.86000 6.573
19.88000 0.835
19.90000 6.564
19.92000 8.610
19.94000 -1.732
19.96000 -0.879
19.98000 7.675
20.00000 4.715
20.02000 -0.514
20.04000 -1.383
20.06000 4.115
20.08000 7.181
20.10000 0.936
20.12000 2.593
20.14000 3.512
20.16000 -0.754
20.18000 5.510
20.20000 4.141
20.22000 3.628
20.24000 4.440
20.26000 9.730
20.28000 10.054
20.30000 6.799
20.32000 5.989
20.34000 -4.245
20.36000 4.483
20.38000 5.088
20.40000 6.726
20.42000 -0.963
20.44000 -0.418
20.46000 4.697
20.48000 4.649
20.50000 2.987
20.52000 2.227
20.54000 7.760
20.56000 6.251
20.58000 6.647
20.60000 6.069
20.62000 1.050
20.64000 8.711
20.66000 5.392
20.68000 2.503
20.70000 0.519
20.72000 4.054
20.74000 8.013
20.76000 3.998
20.78000 8.414
20.80000 5.948
20.82000 -3.150
20.84000 2.733
20.86000 5.562
20.88000 2.172
20.90000 4.955
20.92000 7.198
20.94000 3.188
20.96000 1.592
20.98000 0.301
21.00000 -3.716
21.02000 -2.291
21.04000 -1.794
21.06000 3.458
21.08000 2.421
21.10000 2.160
21.12000 3.336
21.14000 0.321
21.16000 2.373
21.18000 1.366
21.20000 3.686
21.22000 -1.433
21.24000 -1.427
21.26000 -3.968
21.28000 -2.490
21.30000 -3.782
21.32000 0.926
21.34000 7.619
21.36000 2.961
21.38000 1.827
21.40000 8.073
21.42000 10.965
21.44000 4.595
21.46000 2.709
21.48000 -1.598
21.50000 -2.884
21.52000 -3.628
21.54000 2.837
21.56000 6.849
21.58000 8.825
21.60000 2.690
21.62000 2.637
21.64000 -0.994
21.66000 -1.493
21.68000 3.468
21.70000 4.571
21.72000 9.000
21.74000 7.163
21.76000 10.890
21.78000 13.504
21.80000 6.958
21.82000 -1.561
21.84000 6.121
21.86000 15.260
21.88000 10.723
21.90000 7.560
21.92000 -0.213
21.94000 -0.133
21.96000 -1.073
21.98000 7.166
22.00000 12.143
22.02000 11.135
22.04000 3.682
22.06000 9.987
22.08000 12.307
22.10000 2.808
22.12000 4.568
22.14000 4.368
22.16000 2.864
22.18000 2.148
22.20000 0.780
22.22000 7.036
22.24000 7.670
22.26000 0.536
22.28000 -4.113
22.30000 6.185
22.32000 7.126
22.34000 4.469
22.36000 2.456
22.38000 3.634
22.40000 2.789
22.42000 0.019
22.44000 1.424
22.46000 8.106
22.48000 -0.062
22.50000 0.057
22.52000 -0.626
22.54000 1.079
22.56000 0.888
22.58000 2.265
22.60000 5.018
22.62000 4.181
22.64000 5.752
22.66000 0.565
22.68000 3.051
22.70000 5.020
22.72000 6.010
22.74000 5.566
22.76000 6.115
22.78000 1.331
22.80000 -4.091
22.82000 -1.998
22.84000 -0.118
22.86000 1.826
22.88000 1.338
22.90000 6.105
22.92000 3.949
22.94000 1.076
22.96000 1.310
22.98000 -2.032
23.00000 -2.659
23.02000 -0.198
23.04000 -1.096
23.06000 1.411
23.08000 6.372
23.10000 7.032
23.12000 2.794
23.14000 -0.253
23.16000 1.928
23.18000 1.158
23.20000 5.638
23.22000 3.848
23.24000 4.747
23.26000 3.794
23.28000 1.590
23.30000 1.587
23.32000 -1.871
23.34000 -1.254
23.36000 6.113
23.38000 7.663
23.40000 6.743
23.42000 0.419
23.44000 3.118
23.46000 0.830
23.48000 4.656
23.50000 9.810
23.52000 3.819
23.54000 1.917
23.56000 3.394
23.58000 0.210
23.60000 5.675
23.62000 10.670
23.64000 9.603
23.66000 4.082
23.68000 5.319
23.70000 4.087
23.72000 2.050
23.74000 10.772
23.76000 7.967
23.78000 6.722
23.80000 7.734
23.82000 8.631
23.84000 8.736
23.86000 3.092
23.88000 5.974
23.90000 2.744
23.92000 0.515
23.94000 3.168
23.96000 6.883
23.98000 4.779
24.00000 4.124
24.02000 6.976
24.04000 12.524
24.06000 6.531
24.08000 9.551
24.10000 7.027
24.12000 4.102
24.14000 3.814
24.16000 3.091
24.18000 4.737
24.20000 2.448
24.22000 -2.350
24.24000 0.218
24.26000 0.670
24.28000 -2.718
24.30000 -2.417
24.32000 2.625
24.34000 5.268
24.36000 5.301
24.38000 5.825
24.40000 3.789
24.42000 5.748
24.44000 4.813
24.46000 0.538
24.48000 3.365
24.50000 1.782
24.52000 6.962
24.54000 13.296
24.56000 5.824
24.58000 4.963
24.60000 7.435
24.62000 9.367
24.64000 9.398
24.66000 7.882
24.68000 4.578
24.70000 3.759
24.72000 7.499
24.74000 4.029
24.76000 -3.951
24.78000 0.660
24.80000 3.425
24.82000 3.666
24.84000 2.745
24.86000 4.536
24.88000 3.471
24.90000 0.202
24.92000 6.005
24.94000 11.176
24.96000 11.483
24.98000 6.607
25.00000 4.302
25.02000 7.889
25.04000 8.209
25.06000 8.586
25.08000 3.397
25.10000 4.148
25.12000 2.012
25.14000 -2.349
25.16000 -1.727
25.18000 3.550
25.20000 4.374
25.22000 7.465
25.24000 5.070
25.26000 2.884
25.28000 2.358
25.30000 2.106
25.32000 7.361
25.34000 3.011
25.36000 -2.518
25.38000 4.639
25.40000 7.098
25.42000 3.733
25.44000 3.948
25.46000 7.700
25.48000 6.558
25.50000 2.126
25.52000 6.442
25.54000 7.081
25.56000 5.381
25.58000 6.697
25.60000 11.089
25.62000 9.895
25.64000 10.324
25.66000 7.538
25.68000 -0.693
25.70000 2.067
25.72000 -1.348
25.74000 -0.774
25.76000 -1.698
25.78000 -0.182
25.80000 3.871
25.82000 2.634
25.84000 5.184
25.86000 1.040
25.88000 2.926
25.90000 -0.148
25.92000 2.611
25.94000 3.333
25.96000 1.322
25.98000 1.578
26.00000 0.503
26.02000 3.116
26.04000 2.942
26.06000 2.425
26.08000 1.355
26.10000 4.402
26.12000 2.129
26.14000 0.406
26.16000 -3.935
26.18000 -1.538
26.20000 5.647
26.22000 7.096
26.24000 0.347
26.26000 -3.788
26.28000 2.604
26.30000 7.134
26.32000 0.904
26.34000 -3.377
26.36000 0.167
26.38000 3.371
26.40000 4.037
26.42000 3.971
26.44000 -2.109
26.46000 -2.671
26.48000 -0.302
26.50000 1.491
26.52000 3.037
26.54000 -0.626
26.56000 0.283
26.58000 1.964
26.60000 -0.979
26.62000 1.509
26.64000 4.895
26.66000 2.976
26.68000 3.933
26.70000 5.320
26.72000 5.520
26.74000 2.197
26.76000 3.017
26.78000 2.094
26.80000 7.756
26.82000 4.874
26.84000 -0.716
26.86000 -2.210
26.88000 -2.462
26.90000 -2.279
26.92000 -0.747
26.94000 0.222
26.96000 -0.923
26.98000 7.497
27.00000 5.463
27.02000 -0.460
27.04000 -2.480
27.06000 -1.286
27.08000 -0.040
27.10000 -1.030
27.12000 0.806
27.14000 7.615
27.16000 2.687
27.18000 1.439
27.20000 -0.213
27.22000 -0.060
27.24000 4.926
27.26000 4.959
27.28000 6.101
27.30000 7.293
27.32000 5.197
27.34000 8.259
27.36000 9.772
27.38000 1.959
27.40000 -0.020
27.42000 1.684
27.44000 0.749
27.46000 1.384
27.48000 6.854
27.50000 5.789
27.52000 3.185
27.54000 4.688
27.56000 3.441
27.58000 2.081
27.60000 1.809
27.62000 3.285
27.64000 3.542
27.66000 9.478
27.68000 6.017
27.70000 1.105
27.72000 0.857
27.74000 -3.818
27.76000 -1.475
27.78000 4.770
27.80000 4.242
27.82000 3.052
27.84000 -1.379
27.86000 -0.848
27.88000 4.516
27.90000 8.357
27.92000 9.166
27.94000 3.636
27.96000 -1.422
27.98000 -0.658
28.00000 6.264
28.02000 9.515
28.04000 3.801
28.06000 3.196
28.08000 -1.449
28.10000 0.516
28.12000 2.103
28.14000 0.439
28.16000 -0.012
28.18000 -0.720
28.20000 4.939
28.22000 3.698
28.24000 2.300
28.26000 7.822
28.28000 4.135
28.30000 4.228
28.32000 -0.672
28.34000 1.121
28.36000 3.436
28.38000 1.726
28.40000 2.433
28.42000 1.170
28.44000 0.700
28.46000 2.107
28.48000 4.097
28.50000 1.518
28.52000 4.381
28.54000 1.295
28.56000 -1.896
28.58000 1.581
28.60000 5.020
28.62000 5.919
28.64000 5.237
28.66000 4.629
28.68000 0.420
28.70000 -0.923
28.72000 1.523
28.74000 3.594
28.76000 5.851
28.78000 3.915
28.80000 4.915
28.82000 2.308
28.84000 5.459
28.86000 3.359
28.88000 4.475
28.90000 0.343
28.92000 0.815
28.94000 3.823
28.96000 2.573
28.98000 2.016
29.00000 7.763
29.02000 6.706
29.04000 2.766
29.06000 6.160
29.08000 4.782
29.10000 2.560
29.12000 2.465
29.14000 2.476
29.16000 3.559
29.18000 7.601
29.20000 4.227
29.22000 7.181
29.24000 4.656
29.26000 3.212
29.28000 2.323
29.30000 3.291
29.32000 -2.069
29.34000 3.553
29.36000 5.746
29.38000 -1.664
29.40000 -2.328
29.42000 -3.714
29.44000 0.162
29.46000 1.244
29.48000 5.177
29.50000 9.964
29.52000 8.640
29.54000 3.711
29.56000 3.544
29.58000 6.791
29.60000 1.101
29.62000 4.480
29.64000 6.821
29.66000 5.429
29.68000 1.668
29.70000 -0.789
29.72000 3.470
29.74000 4.423
29.76000 2.740
29.78000 3.680
29.80000 -0.646
29.82000 0.296
29.84000 3.871
29.86000 2.216
29.88000 -0.925
29.90000 -2.114
29.92000 -1.106
29.94000 2.543
29.96000 4.245
29.98000 4.465
30.00000 5.191
30.02000 2.428
30.04000 2.615
30.06000 6.573
30.08000 6.866
30.10000 4.149
30.12000 1.527
30.14000 4.016
30.16000 4.158
30.18000 3.394
30.20000 1.109
30.22000 5.966
30.24000 4.306
30.26000 0.722
30.28000 -3.700
30.30000 -3.018
30.32000 2.160
30.34000 0.021
30.36000 -3.658
30.38000 -1.499
30.40000 2.285
30.42000 -0.705
30.44000 0.248
30.46000 1.854
30.48000 2.081
30.50000 3.674
30.52000 0.787
30.54000 0.970
30.56000 2.662
30.58000 6.164
30.60000 7.220
30.62000 4.054
30.64000 -1.059
30.66000 1.989
30.68000 1.211
30.70000 4.769
30.72000 4.772
30.74000 3.682
30.76000 4.273
30.78000 1.560
30.80000 -3.679
30.82000 -2.673
30.84000 -1.188
30.86000 0.074
30.88000 -2.188
30.90000 -2.002
30.92000 4.594
30.94000 5.948
30.96000 -0.993
30.98000 -0.064
31.00000 3.478
31.02000 6.121
31.04000 6.870
31.06000 4.971
31.08000 2.710
31.10000 5.549
31.12000 5.576
31.14000 4.910
31.16000 8.756
31.18000 3.116
31.20000 1.168
31.22000 4.021
31.24000 -0.178
31.26000 -0.210
31.28000 3.710
31.30000 3.945
31.32000 4.574
31.34000 -0.283
31.36000 -0.738
31.38000 -2.769
31.40000 -0.340
31.42000 -0.127
31.44000 -0.122
31.46000 -1.048
31.48000 -0.531
31.50000 -3.202
31.52000 -0.963
31.54000 0.850
31.56000 -2.394
31.58000 -1.674
31.60000 -0.594
31.62000 -3.638
31.64000 -0.078
31.66000 6.163
31.68000 2.813
31.70000 0.457
31.72000 5.138
31.74000 7.121
31.76000 6.090
31.78000 1.757
31.80000 0.746
31.82000 4.004
31.84000 5.783
31.86000 1.145
31.88000 0.323
31.90000 3.440
31.92000 6.899
31.94000 8.417
31.96000 5.531
31.98000 1.557
32.00000 2.566
32.02000 8.039
32.04000 5.333
32.06000 1.320
32.08000 -1.686
32.10000 1.576
32.12000 2.750
32.14000 1.675
32.16000 1.090
32.18000 3.722
32.20000 -1.083
32.22000 -2.292
32.24000 0.653
32.26000 3.110
32.28000 1.940
32.30000 0.515
32.32000 1.354
32.34000 2.254
32.36000 2.960
32.38000 2.672
32.40000 8.552
32.42000 7.353
32.44000 4.527
32.46000 -0.246
32.48000 0.513
32.50000 0.891
32.52000 -0.525
32.54000 0.101
32.56000 -3.616
32.58000 -1.634
32.60000 0.326
32.62000 0.570
32.64000 -2.485
32.66000 -0.884
32.68000 3.413
32.70000 7.099
32.72000 5.195
32.74000 -0.194
32.76000 3.412
32.78000 4.286
32.80000 4.395
32.82000 5.235
32.84000 4.432
32.86000 4.323
32.88000 0.600
32.90000 -1.442
32.92000 5.732
32.94000 10.539
32.96000 7.070
32.98000 2.526
33.00000 1.891
33.02000 4.025
33.04000 2.501
33.06000 3.130
33.08000 3.523
33.10000 2.440
33.12000 2.671
33.14000 -1.151
33.16000 -1.243
33.18000 3.359
33.20000 -1.134
33.22000 -3.609
33.24000 -2.161
33.26000 -0.093
33.28000 1.144
33.30000 2.998
33.32000 1.291
33.34000 0.499
33.36000 -0.768
33.38000 0.030
33.40000 2.034
33.42000 5.495
33.44000 4.770
33.46000 6.451
33.48000 8.626
33.50000 2.958
33.52000 4.147
33.54000 5.355
33.56000 6.086
33.58000 1.845
33.60000 4.880
33.62000 4.818
33.64000 5.865
33.66000 2.866
33.68000 3.458
33.70000 4.874
33.72000 3.604
33.74000 7.537
33.76000 2.097
33.78000 2.657
33.80000 2.016
33.82000 1.069
33.84000 -1.916
33.86000 -2.804
33.88000 0.390
33.90000 3.958
33.92000 3.619
33.94000 1.544
33.96000 3.499
33.98000 2.183
34.00000 -0.599
34.02000 0.920
34.04000 -0.003
34.06000 1.512
34.08000 6.605
34.10000 1.843
34.12000 0.184
34.14000 2.782
34.16000 1.897
34.18000 1.414
34.20000 -0.972
34.22000 5.509
34.24000 7.060
34.26000 4.452
34.28000 1.343
34.30000 0.194
34.32000 2.897
34.34000 4.113
34.36000 7.495
34.38000 9.119
34.40000 6.859
34.42000 0.090
34.44000 -1.256
34.46000 -0.443
34.48000 3.625
34.50000 2.348
34.52000 4.657
34.54000 3.626
34.56000 2.167
34.58000 5.373
34.60000 6.004
34.62000 7.281
34.64000 4.171
34.66000 -0.421
34.68000 2.541
34.70000 6.203
34.72000 0.196
34.74000 7.294
34.76000 5.157
34.78000 7.016
34.80000 6.919
34.82000 7.265
34.84000 7.683
34.86000 -0.307
34.88000 -3.533
34.90000 -3.397
34.92000 -0.867
34.94000 3.199
34.96000 4.578
34.98000 -2.078
35.00000 0.242
35.02000 -0.859
35.04000 2.627
35.06000 2.776
35.08000 2.040
35.10000 -0.489
35.12000 5.291
35.14000 4.114
35.16000 1.955
35.18000 -0.339
35.20000 0.772
35.22000 1.564
35.24000 -1.451
35.26000 -0.347
35.28000 -2.570
35.30000 1.856
35.32000 5.965
35.34000 -2.504
35.36000 -3.449
35.38000 -0.537
35.40000 -1.268
35.42000 5.323
35.44000 5.037
35.46000 -3.421
35.48000 -3.550
35.50000 -2.282
35.52000 -0.357
35.54000 -0.098
35.56000 -1.704
35.58000 3.152
35.60000 1.719
35.62000 2.704
35.64000 2.338
35.66000 0.108
35.68000 4.266
35.70000 4.968
35.72000 7.110
35.74000 2.994
35.76000 4.329
35.78000 0.363
35.80000 -0.708
35.82000 1.436
35.84000 6.064
35.86000 1.292
35.88000 0.441
35.90000 2.143
35.92000 0.184
35.94000 3.492
35.96000 -0.367
35.98000 0.290
36.00000 4.422
36.02000 1.907
36.04000 -0.286
36.06000 1.054
36.08000 -1.658
36.10000 0.226
36.12000 0.265
36.14000 2.841
36.16000 4.598
36.18000 0.380
36.20000 -1.742
36.22000 1.632
36.24000 2.248
36.26000 1.871
36.28000 2.705
36.30000 0.846
36.32000 0.231
36.34000 2.792
36.36000 6.610
36.38000 4.881
36.40000 2.915
36.42000 3.554
36.44000 4.776
36.46000 0.818
36.48000 0.909
36.50000 -0.694
36.52000 0.840
36.54000 2.003
36.56000 1.918
36.58000 -1.313
36.60000 -2.086
36.62000 -0.416
36.64000 2.282
36.66000 5.678
36.68000 1.929
36.70000 -3.560
36.72000 0.546
36.74000 0.550
36.76000 2.985
36.78000 7.092
36.80000 4.732
36.82000 6.339
36.84000 5.509
36.86000 6.879
36.88000 4.917
36.90000 2.764
36.92000 0.982
36.94000 2.199
36.96000 0.414
36.98000 -0.493
37.00000 0.485
37.02000 1.222
37.04000 2.075
37.06000 2.727
37.08000 -0.155
37.10000 -2.519
37.12000 1.827
37.14000 1.119
37.16000 6.086
37.18000 3.226
37.20000 3.740
37.22000 4.405
37.24000 0.061
37.26000 0.349
37.28000 -0.507
37.30000 3.734
37.32000 6.848
37.34000 0.372
37.36000 -3.611
37.38000 1.085
37.40000 4.388
37.42000 7.740
37.44000 2.602
37.46000 -1.354
37.48000 -1.489
37.50000 -1.353
37.52000 -2.065
37.54000 -2.389
37.56000 3.489
37.58000 6.622
37.60000 10.529
37.62000 8.678
37.64000 3.032
37.66000 4.318
37.68000 2.784
37.70000 2.980
37.72000 3.206
37.74000 6.520
37.76000 8.819
37.78000 7.809
37.80000 10.412
37.82000 7.933
37.84000 10.684
37.86000 15.838
37.88000 11.204
37.90000 10.023
37.92000 12.271
37.94000 11.943
37.96000 8.686
37.98000 9.090
38.00000 6.114
38.02000 13.079
38.04000 11.095
38.06000 13.403
38.08000 14.835
38.10000 12.303
38.12000 11.153
38.14000 11.132
38.16000 12.611
38.18000 16.303
38.20000 8.936
38.22000 9.720
38.24000 13.200
38.26000 20.841
38.28000 23.668
38.30000 17.984
38.32000 18.555
38.34000 18.006
38.36000 18.878
38.38000 18.010
38.40000 20.880
38.42000 20.906
38.44000 18.906
38.46000 20.661
38.48000 22.906
38.50000 24.848
38.52000 26.758
38.54000 22.602
38.56000 27.286
38.58000 30.545
38.60000 22.700
38.62000 23.782
38.64000 26.456
38.66000 32.454
38.68000 31.984
38.70000 31.265
38.72000 32.773
38.74000 34.258
38.76000 31.708
38.78000 30.361
38.80000 35.886
38.82000 40.024
38.84000 37.767
38.86000 40.653
38.88000 41.715
38.90000 44.749
38.92000 51.299
38.94000 54.433
38.96000 50.411
38.98000 56.945
39.00000 60.691
39.02000 57.854
39.04000 53.729
39.06000 60.046
39.08000 61.015
39.10000 65.857
39.12000 72.246
39.14000 69.913
39.16000 70.629
39.18000 76.323
39.20000 74.785
39.22000 79.538
39.24000 88.062
39.26000 93.174
39.28000 92.812
39.30000 100.622
39.32000 107.136
39.34000 115.408
39.36000 118.105
39.38000 125.598
39.40000 129.873
39.42000 136.712
39.44000 150.236
39.46000 156.299
39.48000 158.070
39.50000 169.121
39.52000 177.226
39.54000 178.609
39.56000 185.622
39.58000 195.595
39.60000 210.574
39.62000 219.616
39.64000 239.708
39.66000 244.565
39.68000 249.083
39.70000 259.686
39.72000 277.359
39.74000 296.909
39.76000 306.990
39.78000 319.011
39.80000 336.559
39.82000 347.969
39.84000 356.683
39.86000 385.253
39.88000 406.419
39.90000 419.178
39.92000 443.556
39.94000 445.630
39.96000 458.612
39.98000 474.472
40.00000 486.989
40.02000 493.674
40.04000 517.245
40.06000 535.509
40.08000 540.234
40.10000 550.994
40.12000 553.502
40.14000 559.730
40.16000 567.655
40.18000 567.410
40.20000 569.096
40.22000 564.183
40.24000 568.455
40.26000 568.129
40.28000 562.745
40.30000 552.252
40.32000 541.031
40.34000 527.057
40.36000 517.177
40.38000 507.819
40.40000 511.491
40.42000 501.281
40.44000 471.862
40.46000 460.619
40.48000 437.649
40.50000 412.545
40.52000 402.543
40.54000 392.338
40.56000 375.466
40.58000 375.843
40.60000 360.113
40.62000 339.123
40.64000 328.959
40.66000 308.426
40.68000 287.691
40.70000 271.282
40.72000 262.895
40.74000 248.684
40.76000 235.139
40.78000 222.458
40.80000 211.295
40.82000 201.129
40.84000 197.174
40.86000 189.148
40.88000 169.360
40.90000 161.708
40.92000 153.171
40.94000 142.197
40.96000 135.136
40.98000 127.608
41.00000 120.155
41.02000 115.065
41.04000 110.571
41.06000 104.250
41.08000 98.655
41.10000 94.132
41.12000 84.636
41.14000 87.607
41.16000 88.434
41.18000 82.379
41.20000 72.775
41.22000 69.096
41.24000 67.954
41.26000 62.395
41.28000 56.891
41.30000 58.395
41.32000 53.530
41.34000 48.337
41.36000 46.713
41.38000 41.041
41.40000 43.108
41.42000 44.885
41.44000 43.429
41.46000 44.920
41.48000 41.846
41.50000 36.831
41.52000 30.385
41.54000 27.166
41.56000 28.508
41.58000 24.739
41.60000 25.271
41.62000 26.528
41.64000 26.237
41.66000 27.819
41.68000 20.027
41.70000 18.214
41.72000 18.435
41.74000 17.360
41.76000 18.356
41.78000 18.070
41.80000 15.265
41.82000 18.071
41.84000 14.934
41.86000 16.611
41.88000 16.081
41.90000 14.791
41.92000 11.080
41.94000 10.151
41.96000 9.046
41.98000 6.044
42.00000 9.396
42.02000 7.240
42.04000 5.224
42.06000 7.274
42.08000 7.107
42.10000 7.226
42.12000 8.564
42.14000 4.142
42.16000 6.522
42.18000 3.701
42.20000 0.133
42.22000 3.451
42.24000 3.448
42.26000 5.737
42.28000 2.168
42.30000 -0.887
42.32000 0.813
42.34000 9.529
42.36000 7.139
42.38000 3.534
42.40000 4.599
42.42000 1.310
42.44000 0.945
42.46000 -0.038
42.48000 -1.954
42.50000 -0.073
42.52000 -1.582
42.54000 -1.997
42.56000 1.249
42.58000 0.838
42.60000 5.569
42.62000 3.795
42.64000 1.567
42.66000 -0.015
42.68000 -1.421
42.70000 1.995
42.72000 4.334
42.74000 -2.516
42.76000 -3.493
42.78000 -0.052
42.80000 0.589
42.82000 -1.059
42.84000 -1.806
42.86000 0.176
42.88000 2.445
42.90000 1.699
42.92000 2.007
42.94000 5.958
42.96000 -0.753
42.98000 -1.698
43.00000 -3.461
43.02000 -1.163
43.04000 1.584
43.06000 -0.982
43.08000 -3.451
43.10000 -2.805
43.12000 -1.565
43.14000 0.053
43.16000 0.149
43.18000 5.372
43.20000 4.081
43.22000 0.190
43.24000 4.414
43.26000 2.514
43.28000 1.323
43.30000 3.400
43.32000 3.687
43.34000 1.973
43.36000 -3.414
43.38000 -0.034
43.40000 -0.556
43.42000 3.031
43.44000 3.453
43.46000 1.191
43.48000 3.039
43.50000 2.845
43.52000 1.308
43.54000 -0.225
43.56000 -1.128
43.58000 -0.251
43.60000 3.806
43.62000 0.211
43.64000 0.541
43.66000 0.381
43.68000 4.739
43.70000 2.086
43.72000 -3.383
43.74000 3.175
43.76000 3.083
43.78000 -1.897
43.80000 -1.199
43.82000 -1.664
43.84000 -1.312
43.86000 -2.778
43.88000 1.528
43.90000 -0.404
43.92000 -0.171
43.94000 0.418
43.96000 0.007
43.98000 2.452
44.00000 0.479
44.02000 0.745
44.04000 -1.914
44.06000 -2.945
44.08000 -3.315
44.10000 -2.065
44.12000 -0.009
44.14000 -1.119
44.16000 0.187
44.18000 0.235
44.20000 -3.317
44.22000 -0.733
44.24000 0.121
44.26000 -0.205
44.28000 -2.162
44.30000 -3.386
44.32000 1.097
44.34000 2.739
44.36000 1.431
44.38000 3.466
44.40000 5.064
44.42000 7.021
44.44000 1.662
44.46000 -1.548
44.48000 -1.503
44.50000 3.490
44.52000 1.102
44.54000 2.384
44.56000 -0.131
44.58000 2.890
44.60000 3.763
44.62000 4.879
44.64000 5.438
44.66000 3.668
44.68000 3.162
44.70000 3.317
44.72000 3.212
44.74000 -0.942
44.76000 3.373
44.78000 4.760
44.80000 0.783
44.82000 1.629
44.84000 1.890
44.86000 3.613
44.88000 1.737
44.90000 -2.495
44.92000 -3.376
44.94000 -2.098
44.96000 2.327
44.98000 0.754
45.00000 0.077
45.02000 3.914
45.04000 7.836
45.06000 5.750
45.08000 9.165
45.10000 3.140
45.12000 1.369
45.14000 4.098
45.16000 3.184
45.18000 7.457
45.20000 12.406
45.22000 9.648
45.24000 8.901
45.26000 5.658
45.28000 8.960
45.30000 6.273
45.32000 5.775
45.34000 13.114
45.36000 9.336
45.38000 9.539
45.40000 12.251
45.42000 14.310
45.44000 12.183
45.46000 8.030
45.48000 8.263
45.50000 11.625
45.52000 15.488
45.54000 18.353
45.56000 19.067
45.58000 15.457
45.60000 17.854
45.62000 19.446
45.64000 20.307
45.66000 24.984
45.68000 28.380
45.70000 28.023
45.72000 24.487
45.74000 26.462
45.76000 26.671
45.78000 25.452
45.80000 27.114
45.82000 26.989
45.84000 29.237
45.86000 32.725
45.88000 31.145
45.90000 30.501
45.92000 34.761
45.94000 30.814
45.96000 38.316
45.98000 38.153
46.00000 35.522
46.02000 37.554
46.04000 40.398
46.06000 41.808
46.08000 41.876
46.10000 43.898
46.12000 45.856
46.14000 49.786
46.16000 49.683
46.18000 49.631
46.20000 52.022
46.22000 61.339
46.24000 63.617
46.26000 62.013
46.28000 60.815
46.30000 66.367
46.32000 69.299
46.34000 69.237
46.36000 64.847
46.38000 62.538
46.40000 76.832
46.42000 74.277
46.44000 80.273
46.46000 71.596
46.48000 71.153
46.50000 75.395
46.52000 75.264
46.54000 81.307
46.56000 74.970
46.58000 74.002
46.60000 78.524
46.62000 84.470
46.64000 88.126
46.66000 84.035
46.68000 82.865
46.70000 90.865
46.72000 89.965
46.74000 91.266
46.76000 92.414
46.78000 94.632
46.80000 97.443
46.82000 95.521
46.84000 100.062
46.86000 99.914
46.88000 100.682
46.90000 102.297
46.92000 94.245
46.94000 87.458
46.96000 86.195
46.98000 87.937
47.00000 94.260
47.02000 92.414
47.04000 88.941
47.06000 86.975
47.08000 87.204
47.10000 83.730
47.12000 84.076
47.14000 76.400
47.16000 75.407
47.18000 75.577
47.20000 79.426
47.22000 81.530
47.24000 78.681
47.26000 77.713
47.28000 73.074
47.30000 69.772
47.32000 65.161
47.34000 60.395
47.36000 59.084
47.38000 57.417
47.40000 55.868
47.42000 54.833
47.44000 56.096
47.46000 56.366
47.48000 55.911
47.50000 54.047
47.52000 47.415
47.54000 48.949
47.56000 45.753
47.58000 46.628
47.60000 45.478
47.62000 39.256
47.64000 39.096
47.66000 40.328
47.68000 31.887
47.70000 25.170
47.72000 23.059
47.74000 23.071
47.76000 25.472
47.78000 19.748
47.80000 21.597
47.82000 27.531
47.84000 26.623
47.86000 22.936
47.88000 24.060
47.90000 23.038
47.92000 22.711
47.94000 22.894
47.96000 23.054
47.98000 16.855
48.00000 15.296
48.02000 13.935
48.04000 13.565
48.06000 12.031
48.08000 13.860
48.10000 9.696
48.12000 5.626
48.14000 7.806
48.16000 9.711
48.18000 12.582
48.20000 5.285
48.22000 6.807
48.24000 6.876
48.26000 1.921
48.28000 5.228
48.30000 9.325
48.32000 5.225
48.34000 -0.020
48.36000 4.196
48.38000 6.336
48.40000 9.172
48.42000 5.277
48.44000 7.011
48.46000 3.134
48.48000 4.191
48.50000 1.930
48.52000 -1.259
48.54000 -3.041
48.56000 0.962
48.58000 3.023
48.60000 7.997
48.62000 9.460
48.64000 6.831
48.66000 7.358
48.68000 0.169
48.70000 0.482
48.72000 2.291
48.74000 5.272
48.76000 4.818
48.78000 1.164
48.80000 2.110
48.82000 6.173
48.84000 2.038
48.86000 6.895
48.88000 8.252
48.90000 1.297
48.92000 4.912
48.94000 7.068
48.96000 3.549
48.98000 4.154
49.00000 0.591
49.02000 -0.049
49.04000 0.653
49.06000 5.813
49.08000 7.717
49.10000 4.484
49.12000 3.189
49.14000 4.592
49.16000 5.851
49.18000 4.669
49.20000 0.752
49.22000 -0.566
49.24000 2.745
49.26000 1.992
49.28000 6.293
49.30000 4.538
49.32000 3.584
49.34000 1.167
49.36000 3.261
49.38000 6.872
49.40000 7.304
49.42000 5.177
49.44000 2.307
49.46000 0.811
49.48000 2.854
49.50000 -0.464
49.52000 2.446
49.54000 -1.840
49.56000 2.947
49.58000 5.207
49.60000 5.431
49.62000 0.693
49.64000 -2.867
49.66000 1.327
49.68000 5.167
49.70000 3.597
49.72000 2.809
49.74000 1.714
49.76000 2.522
49.78000 -0.835
49.80000 3.948
49.82000 10.879
49.84000 4.593
49.86000 5.394
49.88000 5.442
49.90000 8.027
49.92000 6.642
49.94000 9.123
49.96000 7.162
49.98000 1.523
50.00000 -2.809
50.02000 1.734
50.04000 2.203
50.06000 6.408
50.08000 8.474
50.10000 9.931
50.12000 6.156
50.14000 1.682
50.16000 3.618
50.18000 0.394
50.20000 3.338
50.22000 5.485
50.24000 3.281
50.26000 3.000
50.28000 3.256
50.30000 2.470
50.32000 2.158
50.34000 2.523
50.36000 3.452
50.38000 4.097
50.40000 5.061
50.42000 5.600
50.44000 3.213
50.46000 -1.742
50.48000 -2.796
50.50000 -1.539
50.52000 0.093
50.54000 -1.648
50.56000 -0.421
50.58000 0.475
50.60000 2.620
50.62000 3.704
50.64000 1.893
50.66000 -0.854
50.68000 -1.706
50.70000 2.642
50.72000 3.811
50.74000 4.249
50.76000 2.558
50.78000 0.888
50.80000 0.822
50.82000 2.101
50.84000 5.345
50.86000 -0.751
50.88000 0.635
50.90000 1.230
50.92000 0.243
50.94000 1.992
50.96000 -1.868
50.98000 -0.381
51.00000 -2.330
51.02000 1.824
51.04000 0.249
51.06000 1.767
51.08000 4.664
51.10000 -0.427
51.12000 0.236
51.14000 2.484
51.16000 0.809
51.18000 -2.397
51.20000 -0.903
51.22000 -2.122
51.24000 1.687
51.26000 4.108
51.28000 1.711
51.30000 2.493
51.32000 3.185
51.34000 -2.784
51.36000 -2.758
51.38000 -0.033
51.40000 0.980
51.42000 4.847
51.44000 2.486
51.46000 1.386
51.48000 1.839
51.50000 2.993
51.52000 -1.970
51.54000 -1.805
51.56000 -2.280
51.58000 2.527
51.60000 4.246
51.62000 8.192
51.64000 6.021
51.66000 8.538
51.68000 5.516
51.70000 1.812
51.72000 -0.141
51.74000 0.788
51.76000 2.779
51.78000 5.103
51.80000 3.396
51.82000 1.586
51.84000 3.495
51.86000 3.381
51.88000 1.599
51.90000 -2.748
51.92000 1.872
51.94000 5.257
51.96000 4.035
51.98000 -0.867
52.00000 1.184
52.02000 4.346
52.04000 0.715
52.06000 0.602
52.08000 5.711
52.10000 -0.007
52.12000 -1.948
52.14000 5.040
52.16000 6.128
52.18000 0.970
52.20000 5.583
52.22000 5.797
52.24000 4.584
52.26000 0.428
52.28000 4.753
52.30000 4.221
52.32000 3.851
52.34000 4.645
52.36000 2.944
52.38000 4.475
52.40000 2.641
52.42000 4.968
52.44000 0.979
52.46000 -0.956
52.48000 1.617
52.50000 7.301
52.52000 3.617
52.54000 3.882
52.56000 5.321
52.58000 6.848
52.60000 2.721
52.62000 0.557
52.64000 0.133
52.66000 1.643
52.68000 2.403
52.70000 -2.722
52.72000 0.957
52.74000 4.554
52.76000 3.252
52.78000 0.238
52.80000 0.038
52.82000 4.637
52.84000 0.150
52.86000 0.602
52.88000 2.457
52.90000 3.171
52.92000 3.270
52.94000 -0.670
52.96000 -0.459
52.98000 3.530
53.00000 1.594
53.02000 1.955
53.04000 3.936
53.06000 -0.107
53.08000 2.917
53.10000 1.381
53.12000 3.853
53.14000 4.726
53.16000 2.926
53.18000 4.138
53.20000 7.034
53.22000 4.555
53.24000 0.363
53.26000 0.479
53.28000 1.851
53.30000 4.456
53.32000 5.737
53.34000 2.955
53.36000 6.583
53.38000 5.668
53.40000 1.672
53.42000 -1.088
53.44000 -0.634
53.46000 2.873
53.48000 3.761
53.50000 2.380
53.52000 4.903
53.54000 6.276
53.56000 5.250
53.58000 0.003
53.60000 -0.453
53.62000 1.662
53.64000 1.450
53.66000 -0.627
53.68000 5.134
53.70000 6.346
53.72000 0.719
53.74000 -2.188
53.76000 2.179
53.78000 -0.188
53.80000 -2.687
53.82000 0.294
53.84000 1.384
53.86000 2.091
53.88000 -1.737
53.90000 -0.326
53.92000 -0.821
53.94000 -1.683
53.96000 0.321
53.98000 3.859
54.00000 0.415
54.02000 5.205
54.04000 5.806
54.06000 4.283
54.08000 1.646
54.10000 0.560
54.12000 0.128
54.14000 -0.538
54.16000 -0.175
54.18000 1.877
54.20000 3.035
54.22000 0.949
54.24000 -1.961
54.26000 5.338
54.28000 7.447
54.30000 4.043
54.32000 4.493
54.34000 5.856
54.36000 5.369
54.38000 7.660
54.40000 8.903
54.42000 4.451
54.44000 3.346
54.46000 5.879
54.48000 8.614
54.50000 4.853
54.52000 3.056
54.54000 4.898
54.56000 5.336
54.58000 1.703
54.60000 -0.102
54.62000 1.210
54.64000 2.596
54.66000 -2.665
54.68000 0.023
54.70000 0.938
54.72000 0.004
54.74000 2.105
54.76000 1.928
54.78000 3.114
54.80000 4.468
54.82000 4.714
54.84000 4.052
54.86000 5.115
54.88000 6.110
54.90000 7.557
54.92000 5.188
54.94000 5.534
54.96000 1.189
54.98000 0.091
55.00000 1.043
55.02000 2.713
55.04000 -0.365
55.06000 3.316
55.08000 2.498
55.10000 2.357
55.12000 0.680
55.14000 0.428
55.16000 -0.328
55.18000 -0.183
55.20000 3.715
55.22000 1.878
55.24000 1.608
55.26000 2.251
55.28000 6.031
55.30000 3.299
55.32000 3.789
55.34000 -2.648
55.36000 -1.573
55.38000 5.359
55.40000 2.486
55.42000 -0.857
55.44000 3.735
55.46000 2.562
55.48000 2.576
55.50000 7.709
55.52000 6.664
55.54000 3.636
55.56000 0.493
55.58000 3.070
55.60000 1.579
55.62000 1.769
55.64000 1.224
55.66000 -0.615
55.68000 3.972
55.70000 8.697
55.72000 5.662
55.74000 2.471
55.76000 4.110
55.78000 3.392
55.80000 6.121
55.82000 4.029
55.84000 3.459
55.86000 5.708
55.88000 3.130
55.90000 0.709
55.92000 -2.646
55.94000 -1.047
55.96000 3.029
55.98000 1.761
56.00000 1.548
56.02000 1.916
56.04000 7.688
56.06000 3.308
56.08000 2.521
56.10000 2.386
56.12000 -1.553
56.14000 4.238
56.16000 4.092
56.18000 0.881
56.20000 1.721
56.22000 -0.592
56.24000 0.254
56.26000 1.760
56.28000 1.779
56.30000 -0.300
56.32000 1.112
56.34000 -0.437
56.36000 -0.981
56.38000 -2.637
56.40000 -0.222
56.42000 1.019
56.44000 0.152
56.46000 1.972
56.48000 0.904
56.50000 0.633
56.52000 6.778
56.54000 3.497
56.56000 3.203
56.58000 -0.932
56.60000 -0.301
56.62000 2.685
56.64000 4.399
56.66000 3.544
56.68000 2.142
56.70000 0.374
56.72000 -0.887
56.74000 0.701
56.76000 0.740
56.78000 1.570
56.80000 3.609
56.82000 5.614
56.84000 0.077
56.86000 4.654
56.88000 5.138
56.90000 0.665
56.92000 -1.084
56.94000 0.827
56.96000 3.074
56.98000 2.374
57.00000 1.054
57.02000 -1.182
57.04000 -2.622
57.06000 -0.935
57.08000 0.368
57.10000 1.504
57.12000 3.601
57.14000 2.773
57.16000 1.081
57.18000 0.349
57.20000 -1.055
57.22000 -1.431
57.24000 0.962
57.26000 5.098
57.28000 5.646
57.30000 2.863
57.32000 1.221
57.34000 3.007
57.36000 2.213
57.38000 -0.388
57.40000 1.013
57.42000 0.790
57.44000 -2.513
57.46000 1.570
57.48000 1.941
57.50000 -2.145
57.52000 -2.068
57.54000 -0.539
57.56000 4.249
57.58000 2.259
57.60000 1.902
57.62000 0.488
57.64000 -0.475
57.66000 2.388
57.68000 3.250
57.70000 3.345
57.72000 3.618
57.74000 2.728
57.76000 0.140
57.78000 1.099
57.80000 0.285
57.82000 -0.212
57.84000 -0.122
57.86000 1.192
57.88000 1.828
57.90000 -2.100
57.92000 1.111
57.94000 -1.618
57.96000 -1.396
57.98000 2.287
58.00000 1.432
58.02000 3.718
58.04000 4.843
58.06000 1.488
58.08000 -2.551
58.10000 4.974
58.12000 5.884
58.14000 6.000
58.16000 2.265
58.18000 -1.616
58.20000 -0.988
58.22000 1.794
58.24000 5.647
58.26000 4.188
58.28000 1.462
58.30000 3.246
58.32000 1.183
58.34000 -2.553
58.36000 -0.944
58.38000 5.890
58.40000 4.837
58.42000 3.390
58.44000 -0.673
58.46000 1.908
58.48000 1.911
58.50000 1.082
58.52000 3.339
58.54000 4.349
58.56000 7.457
58.58000 1.918
58.60000 -1.087
58.62000 -1.193
58.64000 4.661
58.66000 4.356
58.68000 4.122
58.70000 4.700
58.72000 -0.959
58.74000 0.183
58.76000 2.946
58.78000 2.599
58.80000 1.916
58.82000 1.879
58.84000 0.984
58.86000 -0.161
58.88000 -0.925
58.90000 3.476
58.92000 5.950
58.94000 4.876
58.96000 4.470
58.98000 5.652
59.00000 3.293
59.02000 2.187
59.04000 1.845
59.06000 3.034
59.08000 4.174
59.10000 2.466
59.12000 1.669
59.14000 5.739
59.16000 3.352
59.18000 2.873
59.20000 0.497
59.22000 0.135
59.24000 0.876
59.26000 6.064
59.28000 5.891
59.30000 3.963
59.32000 2.653
59.34000 4.449
59.36000 -0.154
59.38000 2.611
59.40000 3.944
59.42000 -0.276
59.44000 0.658
59.46000 -0.839
59.48000 2.705
59.50000 3.069
59.52000 4.279
59.54000 1.957
59.56000 3.795
59.58000 2.558
59.60000 1.209
59.62000 1.753
59.64000 7.367
59.66000 3.745
59.68000 2.899
59.70000 4.232
59.72000 7.502
59.74000 5.974
59.76000 0.838
59.78000 3.369
59.80000 6.305
59.82000 6.311
59.84000 0.456
59.86000 0.901
59.88000 3.761
59.90000 5.000
59.92000 4.323
59.94000 3.892
59.96000 1.524
59.98000 0.951
60.00000 -2.471
60.02000 4.765
60.04000 4.336
60.06000 3.195
60.08000 3.116
60.10000 3.934
60.12000 4.118
60.14000 1.878
60.16000 2.820
60.18000 9.818
60.20000 6.325
60.22000 5.437
60.24000 4.062
60.26000 3.288
60.28000 3.310
60.30000 1.324
60.32000 2.221
60.34000 4.199
60.36000 4.790
60.38000 3.877
60.40000 3.962
60.42000 7.660
60.44000 8.046
60.46000 6.558
60.48000 4.999
60.50000 3.416
60.52000 -2.289
60.54000 -2.467
60.56000 0.643
60.58000 3.801
60.60000 2.224
60.62000 7.025
60.64000 6.971
60.66000 2.490
60.68000 4.198
60.70000 3.658
60.72000 3.007
60.74000 1.339
60.76000 4.396
60.78000 10.636
60.80000 7.757
60.82000 -0.023
60.84000 -0.962
60.86000 1.469
60.88000 1.049
60.90000 3.075
60.92000 0.787
60.94000 1.747
60.96000 4.570
60.98000 6.432
61.00000 6.176
61.02000 2.720
61.04000 0.709
61.06000 -0.412
61.08000 3.595
61.10000 9.263
61.12000 3.552
61.14000 1.313
61.16000 1.394
61.18000 -2.454
61.20000 -2.144
61.22000 1.631
61.24000 7.440
61.26000 7.338
61.28000 4.600
61.30000 5.460
61.32000 3.957
61.34000 4.040
61.36000 1.459
61.38000 6.385
61.40000 6.846
61.42000 6.049
61.44000 3.951
61.46000 3.311
61.48000 3.248
61.50000 3.557
61.52000 4.407
61.54000 3.336
61.56000 2.861
61.58000 1.441
61.60000 1.419
61.62000 -0.673
61.64000 -0.157
61.66000 -0.895
61.68000 2.277
61.70000 2.420
61.72000 1.503
61.74000 0.769
61.76000 1.773
61.78000 0.484
61.80000 0.830
61.82000 2.548
61.84000 1.242
61.86000 -1.140
61.88000 0.834
61.90000 3.844
61.92000 -0.490
61.94000 -1.137
61.96000 -2.304
61.98000 -0.291
62.00000 -0.840
62.02000 -1.126
62.04000 -1.154
62.06000 0.143
62.08000 -2.353
62.10000 3.405
62.12000 3.168
62.14000 3.293
62.16000 4.990
62.18000 2.645
62.20000 1.827
62.22000 -0.204
62.24000 1.031
62.26000 2.744
62.28000 2.582
62.30000 2.554
62.32000 2.821
62.34000 -0.544
62.36000 3.083
62.38000 5.006
62.40000 -0.498
62.42000 2.077
62.44000 4.532
62.46000 3.752
62.48000 3.479
62.50000 2.119
62.52000 0.366
62.54000 0.175
62.56000 2.374
62.58000 0.003
62.60000 1.899
62.62000 0.038
62.64000 -0.634
62.66000 -0.574
62.68000 2.568
62.70000 2.064
62.72000 2.062
62.74000 0.164
62.76000 0.221
62.78000 0.502
62.80000 3.594
62.82000 3.079
62.84000 -0.320
62.86000 -0.240
62.88000 -0.475
62.90000 2.546
62.92000 3.740
62.94000 1.961
62.96000 1.552
62.98000 4.209
63.00000 7.558
63.02000 3.035
63.04000 0.967
63.06000 2.460
63.08000 -2.434
63.10000 0.682
63.12000 1.018
63.14000 1.641
63.16000 5.478
63.18000 4.035
63.20000 2.223
63.22000 2.646
63.24000 3.145
63.26000 3.332
63.28000 2.172
63.30000 0.826
63.32000 0.118
63.34000 0.065
63.36000 0.579
63.38000 1.150
63.40000 -1.253
63.42000 3.176
63.44000 3.454
63.46000 0.953
63.48000 -1.503
63.50000 -0.872
63.52000 0.873
63.54000 2.849
63.56000 0.964
63.58000 1.214
63.60000 5.093
63.62000 4.829
63.64000 -0.262
63.66000 0.477
63.68000 -0.128
63.70000 4.214
63.72000 7.243
63.74000 3.983
63.76000 -1.758
63.78000 -2.424
63.80000 3.394
63.82000 1.343
63.84000 1.847
63.86000 0.623
63.88000 3.693
63.90000 3.365
63.92000 1.386
63.94000 3.163
63.96000 0.063
63.98000 -2.005
64.00000 -0.729
64.02000 3.414
64.04000 5.156
64.06000 4.105
64.08000 -0.987
64.10000 0.172
64.12000 3.289
64.14000 0.405
64.16000 1.683
64.18000 2.998
64.20000 1.067
64.22000 -0.844
64.24000 -0.256
64.26000 -0.347
64.28000 2.315
64.30000 4.296
64.32000 1.850
64.34000 -0.523
64.36000 4.436
64.38000 2.409
64.40000 2.597
64.42000 2.040
64.44000 -2.330
64.46000 -0.169
64.48000 -2.465
64.50000 0.734
64.52000 1.698
64.54000 4.378
64.56000 4.267
64.58000 1.894
64.60000 1.389
64.62000 0.494
64.64000 0.648
64.66000 3.149
64.68000 0.897
64.70000 3.134
64.72000 0.275
64.74000 2.118
64.76000 2.598
64.78000 2.732
64.80000 0.877
64.82000 -0.089
64.84000 1.495
64.86000 3.865
64.88000 0.997
64.90000 2.569
64.92000 3.774
64.94000 1.594
64.96000 5.102
64.98000 3.729
65.00000 1.980
65.02000 -0.607
65.04000 0.617
65.06000 1.953
65.08000 2.434
65.10000 2.528
65.12000 1.603
65.14000 -0.347
65.16000 -0.273
65.18000 0.207
65.20000 3.343
65.22000 3.668
65.24000 1.965
65.26000 4.154
65.28000 7.872
65.30000 8.692
65.32000 2.340
65.34000 -0.531
65.36000 0.611
65.38000 1.562
65.40000 0.015
65.42000 1.155
65.44000 0.150
65.46000 2.696
65.48000 5.525
65.50000 3.991
65.52000 0.540
65.54000 1.594
65.56000 1.777
65.58000 -2.464
65.60000 -1.267
65.62000 -0.384
65.64000 3.141
65.66000 5.930
65.68000 0.414
65.70000 1.405
65.72000 1.659
65.74000 2.426
65.76000 1.878
65.78000 1.138
65.80000 1.145
65.82000 2.658
65.84000 1.241
65.86000 1.293
65.88000 2.795
65.90000 -1.166
65.92000 -0.407
65.94000 2.417
65.96000 4.425
65.98000 3.151
66.00000 2.562
66.02000 3.361
66.04000 -0.083
66.06000 -2.144
66.08000 -0.908
66.10000 -2.517
66.12000 -0.469
66.14000 0.757
66.16000 0.814
66.18000 -0.891
66.20000 0.543
66.22000 1.541
66.24000 0.159
66.26000 0.752
66.28000 2.369
66.30000 1.462
66.32000 -1.672
66.34000 0.838
66.36000 4.749
66.38000 1.635
66.40000 2.447
66.42000 0.145
66.44000 2.554
66.46000 3.190
66.48000 2.018
66.50000 2.091
66.52000 0.308
66.54000 2.250
66.56000 -1.374
66.58000 -1.008
66.60000 0.194
66.62000 -0.648
66.64000 -1.067
66.66000 -0.566
66.68000 1.467
66.70000 1.762
66.72000 -2.109
66.74000 -1.016
66.76000 -0.556
66.78000 3.436
66.80000 4.210
66.82000 4.056
66.84000 0.964
66.86000 -2.281
66.88000 -1.735
66.90000 1.210
66.92000 3.164
66.94000 1.523
66.96000 0.472
66.98000 1.748
67.00000 5.165
67.02000 2.942
67.04000 3.379
67.06000 1.005
67.08000 0.451
67.10000 2.851
67.12000 2.905
67.14000 3.342
67.16000 4.194
67.18000 4.080
67.20000 3.009
67.22000 2.295
67.24000 1.501
67.26000 3.236
67.28000 4.804
67.30000 1.418
67.32000 3.717
67.34000 3.505
67.36000 5.134
67.38000 4.915
67.40000 9.219
67.42000 3.495
67.44000 5.979
67.46000 8.193
67.48000 7.454
67.50000 5.882
67.52000 3.685
67.54000 8.528
67.56000 6.760
67.58000 7.345
67.60000 10.734
67.62000 8.715
67.64000 9.080
67.66000 12.411
67.68000 11.731
67.70000 12.537
67.72000 9.234
67.74000 8.822
67.76000 13.920
67.78000 13.037
67.80000 11.464
67.82000 14.536
67.84000 18.438
67.86000 18.696
67.88000 18.066
67.90000 15.823
67.92000 22.408
67.94000 14.980
67.96000 14.673
67.98000 16.095
68.00000 15.830
68.02000 16.155
68.04000 18.331
68.06000 15.612
68.08000 16.665
68.10000 15.523
68.12000 18.256
68.14000 20.715
68.16000 21.149
68.18000 20.882
68.20000 22.583
68.22000 24.461
68.24000 25.593
68.26000 25.919
68.28000 21.883
68.30000 23.978
68.32000 22.823
68.34000 25.301
68.36000 21.551
68.38000 22.169
68.40000 23.387
68.42000 26.715
68.44000 31.007
68.46000 26.737
68.48000 29.385
68.50000 29.369
68.52000 24.947
68.54000 24.717
68.56000 24.778
68.58000 25.228
68.60000 23.318
68.62000 22.435
68.64000 22.700
68.66000 23.441
68.68000 20.522
68.70000 18.382
68.72000 19.548
68.74000 21.867
68.76000 23.877
68.78000 20.980
68.80000 14.778
68.82000 18.439
68.84000 18.687
68.86000 17.768
68.88000 15.187
68.90000 14.751
68.92000 15.875
68.94000 14.008
68.96000 14.602
68.98000 11.201
69.00000 12.591
69.02000 14.230
69.04000 13.532
69.06000 10.614
69.08000 9.391
69.10000 7.720
69.12000 8.978
69.14000 13.046
69.16000 15.703
69.18000 11.090
69.20000 7.020
69.22000 7.659
69.24000 9.925
69.26000 11.572
69.28000 9.022
69.30000 4.092
69.32000 4.091
69.34000 4.930
69.36000 1.644
69.38000 6.079
69.40000 5.258
69.42000 5.265
69.44000 7.640
69.46000 11.317
69.48000 10.601
69.50000 4.412
69.52000 1.122
69.54000 -2.480
69.56000 3.043
69.58000 8.294
69.60000 4.429
69.62000 5.607
69.64000 3.133
69.66000 2.700
69.68000 -0.639
69.70000 -2.464
69.72000 0.062
69.74000 3.905
69.76000 2.961
69.78000 3.014
69.80000 3.269
69.82000 4.821
69.84000 3.313
69.86000 2.045
69.88000 2.119
69.90000 4.106
69.92000 4.738
69.94000 3.815
69.96000 4.446
69.98000 4.643
70.00000 1.401
70.02000 2.414
70.04000 5.463
70.06000 2.364
70.08000 4.340
70.10000 7.273
70.12000 3.059
70.14000 2.895
70.16000 4.071
70.18000 1.067
70.20000 1.644
70.22000 2.312
70.24000 3.160
70.26000 -0.793
70.28000 -1.701
70.30000 -2.394
70.32000 -0.165
70.34000 4.985
70.36000 5.429
70.38000 7.895
70.40000 4.231
70.42000 3.909
70.44000 3.972
70.46000 1.129
70.48000 3.670
70.50000 2.806
70.52000 0.843
70.54000 2.235
70.56000 4.683
70.58000 4.215
70.60000 2.744
70.62000 3.001
70.64000 0.473
70.66000 -1.251
70.68000 0.211
70.70000 0.139
70.72000 1.754
70.74000 4.458
70.76000 3.551
70.78000 0.680
70.80000 0.521
70.82000 -0.821
70.84000 1.802
70.86000 -1.836
70.88000 -1.557
70.90000 -1.887
70.92000 -2.046
70.94000 0.874
70.96000 0.994
70.98000 2.607
71.00000 4.103
71.02000 6.134
71.04000 4.895
71.06000 0.860
71.08000 -1.455
71.10000 1.315
71.12000 0.363
71.14000 -0.153
71.16000 0.241
71.18000 -0.982
71.20000 -0.954
71.22000 -1.360
71.24000 0.387
71.26000 6.486
71.28000 1.711
71.30000 5.304
71.32000 4.175
71.34000 1.814
71.36000 2.795
71.38000 3.915
71.40000 3.670
71.42000 3.147
71.44000 0.933
71.46000 2.666
71.48000 2.882
71.50000 3.659
71.52000 4.500
71.54000 -0.928
71.56000 -2.357
71.58000 -0.353
71.60000 3.083
71.62000 0.599
71.64000 1.750
71.66000 2.717
71.68000 2.842
71.70000 2.351
71.72000 1.473
71.74000 -2.345
71.76000 2.873
71.78000 1.907
71.80000 4.251
71.82000 1.644
71.84000 5.403
71.86000 5.382
71.88000 0.703
71.90000 -0.061
71.92000 1.842
71.94000 2.264
71.96000 0.059
71.98000 1.854
72.00000 3.176
72.02000 -0.219
72.04000 -0.296
72.06000 0.391
72.08000 3.000
72.10000 3.247
72.12000 3.099
72.14000 3.546
72.16000 1.974
72.18000 0.451
72.20000 1.179
72.22000 -0.510
72.24000 5.491
72.26000 4.039
72.28000 0.809
72.30000 0.268
72.32000 1.784
72.34000 3.548
72.36000 1.586
72.38000 1.870
72.40000 0.635
72.42000 -1.809
72.44000 -0.120
72.46000 3.720
72.48000 3.795
72.50000 1.680
72.52000 0.841
72.54000 1.834
72.56000 -0.012
72.58000 -1.022
72.60000 2.176
72.62000 4.822
72.64000 2.719
72.66000 2.396
72.68000 4.260
72.70000 5.162
72.72000 2.826
72.74000 4.786
72.76000 6.427
72.78000 6.624
72.80000 4.445
72.82000 0.348
72.84000 4.885
72.86000 9.100
72.88000 8.575
72.90000 5.477
72.92000 2.746
72.94000 3.386
72.96000 6.142
72.98000 2.465
73.00000 3.427
73.02000 3.032
73.04000 1.836
73.06000 5.790
73.08000 7.877
73.10000 8.822
73.12000 5.753
73.14000 2.929
73.16000 0.882
73.18000 2.832
73.20000 4.386
73.22000 2.771
73.24000 4.672
73.26000 1.888
73.28000 5.753
73.30000 6.802
73.32000 -2.243
73.34000 2.106
73.36000 4.627
73.38000 6.661
73.40000 5.706
73.42000 3.358
73.44000 8.051
73.46000 6.528
73.48000 9.020
73.50000 4.601
73.52000 3.891
73.54000 2.687
73.56000 5.259
73.58000 5.366
73.60000 7.311
73.62000 7.078
73.64000 7.722
73.66000 6.686
73.68000 5.377
73.70000 1.150
73.72000 1.756
73.74000 2.125
73.76000 2.077
73.78000 6.928
73.80000 6.333
73.82000 3.108
73.84000 2.150
73.86000 1.907
73.88000 0.592
73.90000 2.018
73.92000 1.499
73.94000 3.022
73.96000 4.276
73.98000 5.910
74.00000 6.318
74.02000 5.128
74.04000 4.413
74.06000 -1.234
74.08000 0.959
74.10000 2.672
74.12000 1.073
74.14000 -0.024
74.16000 -0.306
74.18000 1.148
74.20000 3.063
74.22000 3.363
74.24000 0.933
74.26000 2.199
74.28000 5.783
74.30000 3.586
74.32000 3.146
74.34000 0.987
74.36000 4.405
74.38000 5.415
74.40000 -2.281
74.42000 -0.118
74.44000 1.182
74.46000 1.477
74.48000 2.315
74.50000 4.617
74.52000 7.176
74.54000 7.384
74.56000 7.281
74.58000 5.694
74.60000 0.343
74.62000 -0.884
74.64000 0.872
74.66000 3.693
74.68000 3.774
74.70000 1.548
74.72000 2.875
74.74000 6.303
74.76000 4.754
74.78000 3.518
74.80000 2.281
74.82000 2.916
74.84000 6.959
74.86000 4.552
74.88000 2.347
74.90000 2.196
74.92000 2.332
74.94000 1.115
74.96000 1.160
74.98000 1.460
75.00000 2.401
75.02000 0.660
75.04000 -0.381
75.06000 1.984
75.08000 5.073
75.10000 4.596
75.12000 1.198
75.14000 -2.271
75.16000 3.837
75.18000 5.638
75.20000 5.556
75.22000 2.917
75.24000 2.028
75.26000 2.844
75.28000 3.635
75.30000 2.148
75.32000 0.284
75.34000 6.239
75.36000 3.174
75.38000 1.967
75.40000 1.291
75.42000 1.095
75.44000 -0.954
75.46000 -1.461
75.48000 1.414
75.50000 3.005
75.52000 7.575
75.54000 5.897
75.56000 3.809
75.58000 5.595
75.60000 5.709
75.62000 3.707
75.64000 1.814
75.66000 3.113
75.68000 4.949
75.70000 7.842
75.72000 3.898
75.74000 1.796
75.76000 3.552
75.78000 3.780
75.80000 1.223
75.82000 1.868
75.84000 1.150
75.86000 3.193
75.88000 2.869
75.90000 2.798
75.92000 3.405
75.94000 2.250
75.96000 4.466
75.98000 6.269
76.00000 4.798
76.02000 6.074
76.04000 1.983
76.06000 -2.290
76.08000 1.237
76.10000 1.586
76.12000 2.367
76.14000 4.099
76.16000 2.307
76.18000 2.394
76.20000 4.076
76.22000 1.849
76.24000 2.324
76.26000 1.993
76.28000 3.448
76.30000 5.115
76.32000 3.193
76.34000 4.663
76.36000 4.178
76.38000 0.959
76.40000 1.910
76.42000 0.617
76.44000 -0.459
76.46000 1.315
76.48000 4.376
76.50000 2.482
76.52000 0.522
76.54000 -0.109
76.56000 -2.232
76.58000 -0.881
76.60000 -0.510
76.62000 0.172
76.64000 0.604
76.66000 4.319
76.68000 -1.304
76.70000 -1.050
76.72000 -0.030
76.74000 -1.981
76.76000 1.745
76.78000 3.236
76.80000 3.057
76.82000 3.088
76.84000 4.604
76.86000 5.318
76.88000 3.045
76.90000 -2.281
76.92000 -0.070
76.94000 -0.458
76.96000 6.337
76.98000 6.282
77.00000 4.293
77.02000 6.329
77.04000 4.722
77.06000 0.726
77.08000 -0.495
77.10000 0.417
77.12000 6.290
77.14000 2.280
77.16000 4.188
77.18000 1.305
77.20000 -0.123
77.22000 1.058
77.24000 3.131
77.26000 6.870
77.28000 5.060
77.30000 4.354
77.32000 3.533
77.34000 2.258
77.36000 1.149
77.38000 4.752
77.40000 6.448
77.42000 2.610
77.44000 1.610
77.46000 -0.381
77.48000 -0.580
77.50000 1.629
77.52000 3.543
77.54000 3.077
77.56000 2.764
77.58000 4.767
77.60000 -1.603
77.62000 -0.108
77.64000 0.572
77.66000 0.704
77.68000 0.257
77.70000 2.552
77.72000 4.926
77.74000 4.472
77.76000 1.154
77.78000 -2.305
77.80000 2.071
77.82000 4.582
77.84000 4.302
77.86000 3.272
77.88000 3.924
77.90000 6.587
77.92000 5.015
77.94000 -0.836
77.96000 1.450
77.98000 5.961
78.00000 5.368
78.02000 5.766
78.04000 5.471
78.06000 6.476
78.08000 4.444
78.10000 3.468
78.12000 6.203
78.14000 6.665
78.16000 2.140
78.18000 4.032
78.20000 -0.225
78.22000 7.629
78.24000 6.006
78.26000 4.479
78.28000 3.800
78.30000 4.463
78.32000 4.562
78.34000 4.048
78.36000 0.859
78.38000 2.069
78.40000 5.815
78.42000 1.725
78.44000 -1.397
78.46000 -0.078
78.48000 0.818
78.50000 -2.330
78.52000 1.898
78.54000 4.333
78.56000 6.854
78.58000 3.624
78.60000 -1.554
78.62000 1.300
78.64000 3.533
78.66000 1.806
78.68000 0.009
78.70000 3.922
78.72000 2.839
78.74000 -0.880
78.76000 -1.253
78.78000 -0.898
78.80000 4.705
78.82000 4.384
78.84000 4.017
78.86000 2.685
78.88000 1.730
78.90000 0.424
78.92000 0.568
78.94000 2.715
78.96000 2.126
78.98000 4.868
79.00000 4.416
79.02000 2.399
79.04000 5.138
79.06000 4.768
79.08000 -0.212
79.10000 0.164
79.12000 0.329
79.14000 0.811
79.16000 -0.788
79.18000 -2.318
79.20000 0.088
79.22000 1.740
79.24000 -1.209
79.26000 0.005
79.28000 -0.206
79.30000 -2.372
79.32000 -1.640
79.34000 -0.471
79.36000 -1.576
79.38000 4.529
79.40000 6.734
79.42000 3.352
79.44000 -2.171
79.46000 2.486
79.48000 3.943
79.50000 1.762
79.52000 0.838
79.54000 2.079
79.56000 1.381
79.58000 3.008
79.60000 4.026
79.62000 2.183
79.64000 1.836
79.66000 1.437
79.68000 1.646
79.70000 3.393
79.72000 -1.054
79.74000 -1.537
79.76000 -0.721
79.78000 0.085
79.80000 0.077
79.82000 -1.807
79.84000 -1.696
79.86000 3.842
79.88000 2.487
79.90000 2.064
79.92000 4.901
79.94000 2.774
79.96000 2.109
79.98000 2.774
80.00000 2.010
80.02000 3.362
80.04000 4.709
80.06000 3.207
80.08000 2.099
80.10000 2.703
80.12000 3.162
80.14000 0.917
80.16000 1.944
80.18000 -0.203
80.20000 0.571
80.22000 -0.049
80.24000 1.488
80.26000 3.592
80.28000 1.611
80.30000 6.507
80.32000 4.871
80.34000 4.972
80.36000 1.584
80.38000 -0.595
80.40000 0.529
80.42000 4.169
80.44000 9.678
80.46000 4.355
80.48000 2.589
80.50000 -0.121
80.52000 2.636
80.54000 -0.601
80.56000 3.993
80.58000 0.625
80.60000 1.425
80.62000 0.694
80.64000 -2.413
80.66000 -2.132
80.68000 4.538
80.70000 5.250
80.72000 1.394
80.74000 4.851
80.76000 5.542
80.78000 2.120
80.80000 9.760
80.82000 9.939
80.84000 7.372
80.86000 6.587
80.88000 6.098
80.90000 7.484
80.92000 8.237
80.94000 5.400
80.96000 5.735
80.98000 5.812
81.00000 2.928
81.02000 4.143
81.04000 8.776
81.06000 11.907
81.08000 10.224
81.10000 12.277
81.12000 4.975
81.14000 6.139
81.16000 11.689
81.18000 12.037
81.20000 10.183
81.22000 8.484
81.24000 10.743
81.26000 10.277
81.28000 11.533
81.30000 13.159
81.32000 13.292
81.34000 11.290
81.36000 13.488
81.38000 11.695
81.40000 7.772
81.42000 7.329
81.44000 14.173
81.46000 12.796
81.48000 12.083
81.50000 10.929
81.52000 9.148
81.54000 9.696
81.56000 7.417
81.58000 11.232
81.60000 11.596
81.62000 13.335
81.64000 11.709
81.66000 8.887
81.68000 12.835
81.70000 17.872
81.72000 12.823
81.74000 12.958
81.76000 17.000
81.78000 15.517
81.80000 16.987
81.82000 22.910
81.84000 17.693
81.86000 19.368
81.88000 19.156
81.90000 15.627
81.92000 17.812
81.94000 15.166
81.96000 23.600
81.98000 28.374
82.00000 26.414
82.02000 26.082
82.04000 24.414
82.06000 19.061
82.08000 21.769
82.10000 20.010
82.12000 19.817
82.14000 24.604
82.16000 20.158
82.18000 15.737
82.20000 19.453
82.22000 16.137
82.24000 24.186
82.26000 23.213
82.28000 24.090
82.30000 28.760
82.32000 24.216
82.34000 25.958
82.36000 25.172
82.38000 27.541
82.40000 26.797
82.42000 31.052
82.44000 28.098
82.46000 28.244
82.48000 27.840
82.50000 28.830
82.52000 27.924
82.54000 28.694
82.56000 30.632
82.58000 31.969
82.60000 22.844
82.62000 22.148
82.64000 23.597
82.66000 27.262
82.68000 29.694
82.70000 28.270
82.72000 29.760
82.74000 35.672
82.76000 32.595
82.78000 26.094
82.80000 24.936
82.82000 27.365
82.84000 25.291
82.86000 29.153
82.88000 26.767
82.90000 25.113
82.92000 23.874
82.94000 25.453
82.96000 28.811
82.98000 29.876
83.00000 29.010
83.02000 21.722
83.04000 24.047
83.06000 21.825
83.08000 27.219
83.10000 28.267
83.12000 23.905
83.14000 18.244
83.16000 13.718
83.18000 17.665
83.20000 20.064
83.22000 19.885
83.24000 18.547
83.26000 16.182
83.28000 13.664
83.30000 15.734
83.32000 19.074
83.34000 19.671
83.36000 15.270
83.38000 14.149
83.40000 11.052
83.42000 11.822
83.44000 15.214
83.46000 15.435
83.48000 12.260
83.50000 7.499
83.52000 10.727
83.54000 17.036
83.56000 10.727
83.58000 6.114
83.60000 3.913
83.62000 6.593
83.64000 7.197
83.66000 10.067
83.68000 11.792
83.70000 9.607
83.72000 10.184
83.74000 5.076
83.76000 6.252
83.78000 10.536
83.80000 7.063
83.82000 5.020
83.84000 9.347
83.86000 10.743
83.88000 7.775
83.90000 4.743
83.92000 2.100
83.94000 4.445
83.96000 5.126
83.98000 4.447
84.00000 4.576
84.02000 6.463
84.04000 5.374
84.06000 3.492
84.08000 4.075
84.10000 0.575
84.12000 5.140
84.14000 5.274
84.16000 1.970
84.18000 1.053
84.20000 -2.154
84.22000 0.302
84.24000 0.169
84.26000 2.897
84.28000 3.024
84.30000 7.443
84.32000 1.761
84.34000 -0.368
84.36000 3.382
84.38000 5.685
84.40000 5.032
84.42000 0.107
84.44000 3.385
84.46000 0.548
84.48000 -0.953
84.50000 1.203
84.52000 -0.491
84.54000 1.938
84.56000 -2.420
84.58000 -0.796
84.60000 3.776
84.62000 -1.599
84.64000 -1.537
84.66000 0.122
84.68000 -2.313
84.70000 -0.431
84.72000 5.574
84.74000 0.310
84.76000 -2.402
84.78000 -0.924
84.80000 -1.138
84.82000 -0.618
84.84000 -1.411
84.86000 -1.494
84.88000 1.116
84.90000 1.124
84.92000 1.997
84.94000 1.527
84.96000 3.302
84.98000 3.457
85.00000 0.317
85.02000 2.081
85.04000 -1.424
85.06000 -0.373
85.08000 0.098
85.10000 1.879
85.12000 1.549
85.14000 1.998
85.16000 2.579
85.18000 -0.517
85.20000 2.367
85.22000 0.910
85.24000 2.319
85.26000 3.030
85.28000 3.090
85.30000 2.959
85.32000 3.327
85.34000 7.856
85.36000 5.134
85.38000 5.442
85.40000 2.055
85.42000 -2.376
85.44000 -0.296
85.46000 4.108
85.48000 5.271
85.50000 5.519
85.52000 9.593
85.54000 4.638
85.56000 0.551
85.58000 -0.224
85.60000 1.456
85.62000 5.910
85.64000 8.493
85.66000 6.021
85.68000 5.845
85.70000 3.411
85.72000 3.876
85.74000 3.850
85.76000 5.639
85.78000 3.443
85.80000 4.421
85.82000 -0.556
85.84000 2.762
85.86000 8.202
85.88000 7.415
85.90000 2.600
85.92000 3.874
85.94000 4.499
85.96000 3.778
85.98000 9.568
86.00000 10.087
86.02000 8.276
86.04000 5.563
86.06000 8.086
86.08000 3.922
86.10000 3.329
86.12000 7.166
86.14000 7.556
86.16000 9.441
86.18000 7.034
86.20000 10.477
86.22000 14.273
86.24000 9.171
86.26000 4.833
86.28000 4.747
86.30000 5.664
86.32000 9.166
86.34000 11.360
86.36000 11.713
86.38000 14.111
86.40000 13.900
86.42000 14.497
86.44000 14.890
86.46000 8.768
86.48000 8.160
86.50000 11.619
86.52000 16.350
86.54000 13.713
86.56000 12.706
86.58000 10.851
86.60000 11.431
86.62000 19.017
86.64000 20.534
86.66000 11.887
86.68000 17.059
86.70000 15.454
86.72000 14.765
86.74000 17.974
86.76000 16.425
86.78000 13.796
86.80000 18.090
86.82000 15.675
86.84000 18.769
86.86000 17.695
86.88000 16.768
86.90000 15.882
86.92000 18.150
86.94000 17.124
86.96000 19.948
86.98000 17.444
87.00000 18.238
87.02000 16.409
87.04000 13.419
87.06000 11.735
87.08000 17.288
87.10000 17.606
87.12000 17.277
87.14000 15.606
87.16000 15.483
87.18000 17.871
87.20000 17.268
87.22000 16.843
87.24000 16.669
87.26000 11.685
87.28000 4.245
87.30000 11.441
87.32000 13.230
87.34000 11.326
87.36000 14.165
87.38000 13.132
87.40000 13.715
87.42000 12.121
87.44000 13.443
87.46000 14.307
87.48000 17.732
87.50000 14.588
87.52000 13.195
87.54000 9.708
87.56000 13.635
87.58000 11.849
87.60000 5.101
87.62000 5.636
87.64000 5.220
87.66000 10.882
87.68000 11.289
87.70000 5.116
87.72000 2.516
87.74000 2.012
87.76000 2.468
87.78000 2.412
87.80000 6.858
87.82000 5.140
87.84000 3.862
87.86000 -0.623
87.88000 3.541
87.90000 4.129
87.92000 1.778
87.94000 3.321
87.96000 -1.620
87.98000 0.189
88.00000 -2.339
88.02000 0.182
88.04000 1.180
88.06000 0.248
88.08000 6.899
88.10000 5.126
88.12000 3.330
88.14000 0.462
88.16000 5.879
88.18000 4.009
88.20000 -0.071
88.22000 2.068
88.24000 2.317
88.26000 3.011
88.28000 1.329
88.30000 -0.581
88.32000 -1.043
88.34000 -2.303
88.36000 -0.073
88.38000 -0.650
88.40000 0.694
88.42000 4.619
88.44000 -0.572
88.46000 -0.275
88.48000 4.537
88.50000 2.043
88.52000 0.085
88.54000 2.227
88.56000 4.221
88.58000 5.191
88.60000 8.028
88.62000 -2.226
88.64000 -2.265
88.66000 -1.873
88.68000 -0.101
88.70000 2.277
88.72000 6.610
88.74000 2.356
88.76000 -2.010
88.78000 4.414
88.80000 3.268
88.82000 3.603
88.84000 3.243
88.86000 0.365
88.88000 1.805
88.90000 1.273
88.92000 1.748
88.94000 -1.510
88.96000 -2.226
88.98000 2.069
89.00000 6.228
89.02000 4.678
89.04000 1.062
89.06000 -0.842
89.08000 1.294
89.10000 4.181
89.12000 1.472
89.14000 1.504
89.16000 1.033
89.18000 -1.356
89.20000 1.158
89.22000 0.278
89.24000 2.216
89.26000 0.613
89.28000 2.539
89.30000 0.845
89.32000 -1.793
89.34000 1.525
89.36000 -1.526
89.38000 -1.177
89.40000 0.468
89.42000 1.365
89.44000 3.474
89.46000 5.895
89.48000 0.946
89.50000 2.711
89.52000 7.451
89.54000 4.633
89.56000 1.919
89.58000 2.068
89.60000 -2.171
89.62000 -1.576
89.64000 0.155
89.66000 1.069
89.68000 1.839
89.70000 0.480
89.72000 6.483
89.74000 9.622
89.76000 6.976
89.78000 -0.062
89.80000 -2.172
89.82000 -1.625
89.84000 -1.597
89.86000 -0.742
89.88000 -1.670
89.90000 5.749
89.92000 4.645
89.94000 1.271
89.96000 1.095
89.98000 -0.188
90.00000 0.605
90.02000 1.704
90.04000 1.382
90.06000 5.039
90.08000 3.434
90.10000 -0.343
90.12000 0.519
90.14000 -2.119
90.16000 5.587
90.18000 1.087
90.20000 1.298
90.22000 -0.563
90.24000 0.740
90.26000 -0.325
90.28000 1.539
90.30000 1.419
90.32000 0.759
90.34000 1.953
90.36000 -2.173
90.38000 1.116
90.40000 3.283
90.42000 5.140
90.44000 3.939
90.46000 0.106
90.48000 0.581
90.50000 -0.119
90.52000 1.868
90.54000 4.838
90.56000 1.900
90.58000 0.130
90.60000 2.402
90.62000 1.249
90.64000 -1.746
90.66000 1.180
90.68000 0.713
90.70000 -0.789
90.72000 -1.001
90.74000 -1.978
90.76000 4.681
90.78000 6.232
90.80000 6.299
90.82000 8.565
90.84000 8.099
90.86000 7.434
90.88000 3.465
90.90000 0.820
90.92000 0.791
90.94000 1.994
90.96000 1.816
90.98000 1.288
91.00000 -0.579
91.02000 3.310
91.04000 -0.132
91.06000 0.644
91.08000 -0.500
91.10000 2.790
91.12000 2.424
91.14000 1.845
91.16000 2.186
91.18000 2.429
91.20000 0.614
91.22000 -2.176
91.24000 -1.140
91.26000 3.241
91.28000 1.828
91.30000 0.045
91.32000 -0.508
91.34000 1.654
91.36000 5.538
91.38000 7.379
91.40000 7.162
91.42000 10.154
91.44000 4.919
91.46000 2.526
91.48000 2.970
91.50000 6.032
91.52000 7.676
91.54000 4.772
91.56000 1.342
91.58000 3.683
91.60000 1.267
91.62000 -2.170
91.64000 -0.239
91.66000 3.848
91.68000 7.367
91.70000 4.139
91.72000 1.618
91.74000 2.952
91.76000 2.674
91.78000 3.096
91.80000 5.468
91.82000 4.948
91.84000 7.524
91.86000 5.559
91.88000 6.566
91.90000 3.064
91.92000 -1.103
91.94000 1.185
91.96000 -0.180
91.98000 1.681
92.00000 4.321
92.02000 3.349
92.04000 3.713
92.06000 -0.738
92.08000 -0.352
92.10000 2.076
92.12000 0.801
92.14000 0.196
92.16000 4.050
92.18000 4.914
92.20000 0.006
92.22000 -0.082
92.24000 3.970
92.26000 0.119
92.28000 -0.462
92.30000 -0.265
92.32000 1.109
92.34000 2.778
92.36000 -2.132
92.38000 4.624
92.40000 4.567
92.42000 2.071
92.44000 2.993
92.46000 6.678
92.48000 13.692
92.50000 7.685
92.52000 3.704
92.54000 5.995
92.56000 0.291
92.58000 1.158
92.60000 5.532
92.62000 5.670
92.64000 2.094
92.66000 5.649
92.68000 4.893
92.70000 4.811
92.72000 3.377
92.74000 1.927
92.76000 6.818
92.78000 6.242
92.80000 5.341
92.82000 0.880
92.84000 -0.332
92.86000 4.640
92.88000 4.303
92.90000 4.089
92.92000 -0.265
92.94000 2.061
92.96000 5.263
92.98000 3.189
93.00000 2.817
93.02000 4.339
93.04000 9.447
93.06000 6.841
93.08000 0.876
93.10000 3.672
93.12000 3.954
93.14000 0.875
93.16000 3.159
93.18000 7.364
93.20000 4.839
93.22000 3.808
93.24000 4.417
93.26000 0.780
93.28000 4.410
93.30000 5.501
93.32000 6.200
93.34000 2.663
93.36000 0.361
93.38000 2.616
93.40000 5.889
93.42000 7.154
93.44000 1.953
93.46000 3.587
93.48000 5.382
93.50000 8.547
93.52000 6.804
93.54000 3.762
93.56000 0.489
93.58000 -0.680
93.60000 1.303
93.62000 5.337
93.64000 6.370
93.66000 3.272
93.68000 4.038
93.70000 7.314
93.72000 4.395
93.74000 2.407
93.76000 1.289
93.78000 -0.784
93.80000 -2.113
93.82000 2.278
93.84000 5.030
93.86000 6.612
93.88000 8.916
93.90000 6.192
93.92000 8.122
93.94000 7.934
93.96000 5.052
93.98000 8.219
94.00000 4.910
94.02000 7.175
94.04000 10.224
94.06000 4.752
94.08000 1.989
94.10000 2.511
94.12000 2.843
94.14000 6.611
94.16000 6.829
94.18000 6.413
94.20000 5.123
94.22000 2.485
94.24000 -2.143
94.26000 1.262
94.28000 3.323
94.30000 6.181
94.32000 2.496
94.34000 -0.227
94.36000 3.248
94.38000 0.499
94.40000 1.144
94.42000 3.466
94.44000 2.263
94.46000 5.407
94.48000 6.866
94.50000 5.366
94.52000 5.307
94.54000 5.002
94.56000 4.097
94.58000 7.041
94.60000 8.792
94.62000 7.937
94.64000 8.562
94.66000 2.697
94.68000 3.235
94.70000 6.786
94.72000 5.377
94.74000 2.643
94.76000 1.457
94.78000 5.251
94.80000 7.655
94.82000 6.142
94.84000 4.390
94.86000 3.899
94.88000 3.925
94.90000 3.403
94.92000 3.830
94.94000 2.995
94.96000 -2.179
94.98000 -2.038
95.00000 -1.099
95.02000 -1.447
95.04000 2.062
95.06000 1.847
95.08000 -0.474
95.10000 2.921
95.12000 4.137
95.14000 6.942
95.16000 1.200
95.18000 0.074
95.20000 -0.445
95.22000 1.337
95.24000 0.780
95.26000 2.792
95.28000 1.038
95.30000 4.365
95.32000 9.154
95.34000 1.114
95.36000 -1.712
95.38000 1.441
95.40000 3.266
95.42000 3.788
95.44000 -0.086
95.46000 5.358
95.48000 11.896
95.50000 10.854
95.52000 10.142
95.54000 7.334
95.56000 4.177
95.58000 3.020
95.60000 3.902
95.62000 3.557
95.64000 2.719
95.66000 2.576
95.68000 3.672
95.70000 6.303
95.72000 4.643
95.74000 7.261
95.76000 2.144
95.78000 0.861
95.80000 -0.442
95.82000 2.096
95.84000 5.950
95.86000 5.181
95.88000 5.957
95.90000 3.738
95.92000 5.738
95.94000 -0.669
95.96000 1.997
95.98000 -2.120
96.00000 2.497
96.02000 4.226
96.04000 4.389
96.06000 2.995
96.08000 5.800
96.10000 2.283
96.12000 -1.278
96.14000 -1.675
96.16000 2.135
96.18000 6.865
96.20000 7.174
96.22000 6.688
96.24000 4.060
96.26000 3.922
96.28000 4.865
96.30000 7.805
96.32000 11.276
96.34000 8.639
96.36000 3.988
96.38000 3.318
96.40000 4.782
96.42000 10.982
96.44000 7.970
96.46000 7.191
96.48000 0.924
96.50000 2.758
96.52000 7.846
96.54000 1.271
96.56000 4.649
96.58000 4.580
96.60000 3.450
96.62000 2.566
96.64000 5.795
96.66000 1.835
96.68000 4.336
96.70000 7.167
96.72000 3.481
96.74000 2.052
96.76000 1.488
96.78000 1.825
96.80000 3.214
96.82000 3.254
96.84000 6.431
96.86000 2.674
96.88000 -2.683
96.90000 8.333
96.92000 7.581
96.94000 1.208
96.96000 -1.540
96.98000 0.375
97.00000 3.552
97.02000 3.892
97.04000 0.852
97.06000 2.288
97.08000 7.618
97.10000 2.370
97.12000 2.291
97.14000 2.033
97.16000 3.581
97.18000 2.888
97.20000 3.217
97.22000 4.137
97.24000 5.108
97.26000 8.366
97.28000 5.282
97.30000 5.007
97.32000 3.796
97.34000 -2.158
97.36000 -0.307
97.38000 4.025
97.40000 9.672
97.42000 10.246
97.44000 5.923
97.46000 5.317
97.48000 5.244
97.50000 4.932
97.52000 10.258
97.54000 8.257
97.56000 5.015
97.58000 6.722
97.60000 -0.030
97.62000 1.424
97.64000 3.923
97.66000 0.770
97.68000 -0.871
97.70000 6.181
97.72000 3.401
97.74000 8.166
97.76000 9.543
97.78000 5.402
97.80000 2.097
97.82000 -0.041
97.84000 4.675
97.86000 3.268
97.88000 0.712
97.90000 0.225
97.92000 7.808
97.94000 5.607
97.96000 0.100
97.98000 5.758
98.00000 5.775
98.02000 7.306
98.04000 5.744
98.06000 4.002
98.08000 5.504
98.10000 3.058
98.12000 -0.677
98.14000 -0.329
98.16000 3.986
98.18000 11.585
98.20000 11.697
98.22000 2.189
98.24000 0.878
98.26000 6.659
98.28000 4.517
98.30000 6.623
98.32000 8.680
98.34000 10.686
98.36000 2.239
98.38000 -1.812
98.40000 4.931
98.42000 1.736
98.44000 9.079
98.46000 9.822
98.48000 7.726
98.50000 13.755
98.52000 7.187
98.54000 12.276
98.56000 5.698
98.58000 8.531
98.60000 5.983
98.62000 7.140
98.64000 11.627
98.66000 11.531
98.68000 5.864
98.70000 3.410
98.72000 -0.660
98.74000 2.683
98.76000 4.645
98.78000 -0.023
98.80000 6.300
98.82000 13.618
98.84000 9.999
98.86000 3.657
98.88000 2.934
98.90000 2.877
98.92000 6.862
98.94000 8.590
98.96000 6.405
98.98000 -2.054
99.00000 -1.683
99.02000 -1.663
99.04000 -0.221
99.06000 3.753
99.08000 10.646
99.10000 11.977
99.12000 4.019
99.14000 9.928
99.16000 8.670
99.18000 4.220
99.20000 4.675
99.22000 4.595
99.24000 5.052
99.26000 9.022
99.28000 8.625
99.30000 6.703
99.32000 4.433
99.34000 7.088
99.36000 5.178
99.38000 9.407
99.40000 9.292
99.42000 2.066
99.44000 5.126
99.46000 6.520
99.48000 3.861
99.50000 9.543
99.52000 2.251
99.54000 7.401
99.56000 -1.069
99.58000 4.732
99.60000 6.675
99.62000 3.452
99.64000 4.610
99.66000 5.759
99.68000 -2.198
99.70000 -0.887
99.72000 0.927
99.74000 6.297
99.76000 9.441
99.78000 -0.189
99.80000 1.971
99.82000 -2.234
99.84000 2.214
99.86000 2.864
99.88000 2.163
99.90000 4.872
99.92000 -1.378
99.94000 -2.309
99.96000 8.627
99.98000 0.000
