'Id: "0011388" Comment: "Integrate frame 0011388_Au-Ir-Rh_Rh-rich_XRD-Mapping-126-0000.gfrmwith cursor Wedge Cursor #5" Operator: "B?rgel" Anode: "Cu" Wavelength: "1.5406" Scantype: "2Theta (TwoTheta)" TimePerStep: "1" X: "4.5" Y: "-9" Z: "5.95" 
10.00000 0.000
10.02000 -4.196
10.04000 -0.523
10.06000 -4.128
10.08000 1.663
10.10000 16.998
10.12000 24.141
10.14000 22.206
10.16000 24.838
10.18000 12.186
10.20000 0.878
10.22000 -4.111
10.24000 13.728
10.26000 15.088
10.28000 5.758
10.30000 5.775
10.32000 3.963
10.34000 6.925
10.36000 16.257
10.38000 15.379
10.40000 10.543
10.42000 18.401
10.44000 3.060
10.46000 0.936
10.48000 6.425
10.50000 5.613
10.52000 6.497
10.54000 23.880
10.56000 13.272
10.58000 17.439
10.60000 8.232
10.62000 13.821
10.64000 5.936
10.66000 6.091
10.68000 11.863
10.70000 12.518
10.72000 14.186
10.74000 20.652
10.76000 18.188
10.78000 16.887
10.80000 14.913
10.82000 23.186
10.84000 18.526
10.86000 1.715
10.88000 -3.185
10.90000 17.391
10.92000 27.636
10.94000 17.031
10.96000 12.917
10.98000 6.683
11.00000 22.447
11.02000 23.627
11.04000 13.874
11.06000 9.739
11.08000 13.177
11.10000 20.034
11.12000 9.776
11.14000 17.220
11.16000 19.122
11.18000 11.837
11.20000 19.483
11.22000 14.191
11.24000 25.523
11.26000 26.386
11.28000 25.018
11.30000 26.023
11.32000 18.930
11.34000 13.922
11.36000 7.135
11.38000 19.943
11.40000 16.530
11.42000 16.973
11.44000 16.131
11.46000 4.598
11.48000 -4.156
11.50000 5.953
11.52000 10.608
11.54000 12.283
11.56000 26.006
11.58000 18.583
11.60000 21.916
11.62000 23.407
11.64000 21.674
11.66000 20.878
11.68000 22.357
11.70000 15.607
11.72000 5.186
11.74000 21.134
11.76000 25.502
11.78000 23.731
11.80000 30.760
11.82000 17.603
11.84000 22.533
11.86000 20.721
11.88000 13.691
11.90000 7.211
11.92000 8.391
11.94000 17.682
11.96000 16.680
11.98000 17.565
12.00000 12.181
12.02000 17.706
12.04000 9.022
12.06000 2.679
12.08000 14.980
12.10000 32.170
12.12000 23.455
12.14000 9.586
12.16000 16.793
12.18000 17.551
12.20000 18.695
12.22000 15.096
12.24000 13.466
12.26000 16.483
12.28000 6.178
12.30000 13.848
12.32000 21.600
12.34000 22.955
12.36000 19.151
12.38000 25.588
12.40000 26.879
12.42000 26.908
12.44000 25.386
12.46000 16.764
12.48000 27.593
12.50000 21.391
12.52000 6.966
12.54000 7.072
12.56000 10.601
12.58000 22.519
12.60000 18.415
12.62000 14.351
12.64000 23.410
12.66000 12.147
12.68000 15.000
12.70000 16.709
12.72000 12.325
12.74000 18.884
12.76000 21.482
12.78000 34.987
12.80000 21.491
12.82000 10.837
12.84000 11.787
12.86000 25.888
12.88000 24.232
12.90000 14.384
12.92000 15.645
12.94000 14.694
12.96000 30.567
12.98000 29.746
13.00000 25.315
13.02000 24.293
13.04000 29.135
13.06000 20.320
13.08000 11.524
13.10000 9.227
13.12000 15.653
13.14000 27.600
13.16000 35.705
13.18000 23.779
13.20000 20.149
13.22000 19.521
13.24000 22.421
13.26000 22.298
13.28000 22.086
13.30000 22.487
13.32000 24.994
13.34000 21.808
13.36000 20.394
13.38000 28.459
13.40000 18.554
13.42000 18.002
13.44000 21.736
13.46000 16.623
13.48000 19.770
13.50000 37.347
13.52000 35.861
13.54000 19.842
13.56000 14.661
13.58000 20.724
13.60000 18.843
13.62000 16.269
13.64000 19.684
13.66000 19.228
13.68000 17.817
13.70000 13.225
13.72000 12.981
13.74000 20.206
13.76000 19.243
13.78000 21.215
13.80000 13.951
13.82000 21.095
13.84000 18.731
13.86000 8.042
13.88000 10.627
13.90000 14.415
13.92000 15.936
13.94000 13.605
13.96000 9.272
13.98000 15.747
14.00000 19.374
14.02000 15.535
14.04000 5.020
14.06000 3.750
14.08000 15.901
14.10000 12.031
14.12000 15.613
14.14000 15.844
14.16000 12.203
14.18000 22.477
14.20000 19.043
14.22000 24.137
14.24000 19.074
14.26000 16.202
14.28000 20.949
14.30000 9.808
14.32000 1.942
14.34000 11.920
14.36000 15.778
14.38000 12.727
14.40000 5.486
14.42000 4.002
14.44000 7.643
14.46000 5.367
14.48000 6.786
14.50000 16.609
14.52000 18.393
14.54000 12.498
14.56000 3.052
14.58000 14.642
14.60000 11.357
14.62000 13.930
14.64000 7.782
14.66000 7.336
14.68000 8.198
14.70000 14.555
14.72000 11.812
14.74000 12.390
14.76000 5.317
14.78000 5.194
14.80000 16.437
14.82000 15.568
14.84000 18.799
14.86000 22.436
14.88000 13.554
14.90000 15.363
14.92000 21.658
14.94000 16.927
14.96000 8.758
14.98000 10.029
15.00000 7.385
15.02000 8.764
15.04000 12.558
15.06000 13.092
15.08000 8.082
15.10000 4.717
15.12000 0.621
15.14000 5.009
15.16000 3.069
15.18000 14.159
15.20000 27.650
15.22000 21.094
15.24000 12.760
15.26000 10.873
15.28000 6.703
15.30000 7.454
15.32000 18.337
15.34000 12.971
15.36000 18.394
15.38000 10.969
15.40000 4.307
15.42000 5.592
15.44000 0.433
15.46000 4.062
15.48000 14.556
15.50000 8.820
15.52000 5.181
15.54000 9.033
15.56000 6.929
15.58000 -2.317
15.60000 2.356
15.62000 11.029
15.64000 3.447
15.66000 -4.403
15.68000 -1.357
15.70000 5.054
15.72000 9.253
15.74000 2.916
15.76000 5.086
15.78000 1.161
15.80000 4.747
15.82000 11.216
15.84000 12.004
15.86000 11.386
15.88000 10.643
15.90000 6.270
15.92000 9.105
15.94000 11.858
15.96000 7.414
15.98000 3.810
16.00000 3.618
16.02000 4.483
16.04000 9.251
16.06000 10.397
16.08000 10.110
16.10000 6.304
16.12000 2.014
16.14000 6.900
16.16000 13.104
16.18000 13.066
16.20000 7.884
16.22000 12.182
16.24000 6.014
16.26000 4.102
16.28000 5.672
16.30000 7.606
16.32000 5.993
16.34000 11.365
16.36000 11.188
16.38000 4.317
16.40000 7.206
16.42000 7.190
16.44000 -0.153
16.46000 -2.614
16.48000 4.958
16.50000 1.926
16.52000 5.482
16.54000 3.816
16.56000 3.595
16.58000 1.294
16.60000 5.815
16.62000 8.851
16.64000 7.872
16.66000 9.445
16.68000 4.493
16.70000 2.546
16.72000 4.212
16.74000 1.671
16.76000 -2.370
16.78000 1.712
16.80000 10.465
16.82000 8.054
16.84000 7.090
16.86000 10.542
16.88000 7.450
16.90000 5.277
16.92000 12.785
16.94000 9.723
16.96000 3.512
16.98000 6.644
17.00000 4.385
17.02000 5.597
17.04000 8.663
17.06000 12.023
17.08000 9.618
17.10000 14.951
17.12000 12.356
17.14000 11.438
17.16000 7.158
17.18000 8.119
17.20000 4.828
17.22000 5.417
17.24000 7.656
17.26000 7.162
17.28000 6.066
17.30000 7.573
17.32000 4.613
17.34000 2.434
17.36000 6.360
17.38000 5.201
17.40000 1.175
17.42000 2.591
17.44000 14.041
17.46000 16.697
17.48000 7.297
17.50000 -4.353
17.52000 -2.521
17.54000 8.537
17.56000 10.416
17.58000 8.206
17.60000 10.313
17.62000 12.357
17.64000 11.486
17.66000 8.369
17.68000 8.354
17.70000 13.015
17.72000 17.498
17.74000 10.837
17.76000 8.589
17.78000 4.588
17.80000 -1.259
17.82000 0.012
17.84000 -0.951
17.86000 5.153
17.88000 8.689
17.90000 2.750
17.92000 -1.414
17.94000 3.943
17.96000 11.195
17.98000 12.850
18.00000 9.832
18.02000 4.968
18.04000 5.890
18.06000 -1.739
18.08000 1.833
18.10000 5.270
18.12000 8.285
18.14000 0.573
18.16000 4.824
18.18000 5.325
18.20000 7.776
18.22000 1.467
18.24000 -0.786
18.26000 -2.509
18.28000 -1.271
18.30000 5.294
18.32000 6.333
18.34000 6.898
18.36000 0.410
18.38000 0.678
18.40000 0.530
18.42000 5.277
18.44000 -2.315
18.46000 -2.390
18.48000 2.700
18.50000 4.563
18.52000 5.282
18.54000 2.909
18.56000 2.200
18.58000 1.229
18.60000 2.146
18.62000 -0.797
18.64000 0.921
18.66000 3.022
18.68000 1.388
18.70000 -2.140
18.72000 0.764
18.74000 4.538
18.76000 6.353
18.78000 10.002
18.80000 9.654
18.82000 5.613
18.84000 5.847
18.86000 1.563
18.88000 7.444
18.90000 14.719
18.92000 2.320
18.94000 0.899
18.96000 0.577
18.98000 -3.033
19.00000 -0.329
19.02000 2.107
19.04000 0.853
19.06000 3.101
19.08000 4.388
19.10000 2.730
19.12000 1.421
19.14000 4.998
19.16000 9.739
19.18000 9.189
19.20000 4.111
19.22000 0.954
19.24000 -4.261
19.26000 0.410
19.28000 4.200
19.30000 4.193
19.32000 9.981
19.34000 7.500
19.36000 5.058
19.38000 7.521
19.40000 11.916
19.42000 11.329
19.44000 5.443
19.46000 2.455
19.48000 6.815
19.50000 6.794
19.52000 2.854
19.54000 -3.687
19.56000 1.094
19.58000 12.805
19.60000 12.582
19.62000 5.337
19.64000 4.714
19.66000 3.513
19.68000 5.474
19.70000 7.719
19.72000 8.195
19.74000 0.551
19.76000 3.507
19.78000 11.808
19.80000 9.389
19.82000 7.404
19.84000 11.142
19.86000 5.843
19.88000 11.860
19.90000 17.568
19.92000 15.832
19.94000 10.113
19.96000 7.450
19.98000 5.249
20.00000 13.253
20.02000 13.648
20.04000 7.027
20.06000 6.714
20.08000 2.649
20.10000 4.375
20.12000 2.698
20.14000 8.628
20.16000 5.131
20.18000 6.525
20.20000 11.483
20.22000 14.906
20.24000 11.332
20.26000 12.693
20.28000 10.499
20.30000 19.146
20.32000 17.012
20.34000 5.762
20.36000 6.254
20.38000 8.563
20.40000 9.448
20.42000 14.049
20.44000 6.421
20.46000 -4.142
20.48000 -0.766
20.50000 2.652
20.52000 4.328
20.54000 0.367
20.56000 4.221
20.58000 4.911
20.60000 8.203
20.62000 13.792
20.64000 12.048
20.66000 6.603
20.68000 3.678
20.70000 2.703
20.72000 4.786
20.74000 8.658
20.76000 5.650
20.78000 6.456
20.80000 10.751
20.82000 19.811
20.84000 10.210
20.86000 15.004
20.88000 11.650
20.90000 7.961
20.92000 6.495
20.94000 6.613
20.96000 11.240
20.98000 10.600
21.00000 8.654
21.02000 11.897
21.04000 13.598
21.06000 12.654
21.08000 15.617
21.10000 8.592
21.12000 9.875
21.14000 15.716
21.16000 13.509
21.18000 15.605
21.20000 14.318
21.22000 13.207
21.24000 12.477
21.26000 11.497
21.28000 4.333
21.30000 2.695
21.32000 6.998
21.34000 6.351
21.36000 7.941
21.38000 6.263
21.40000 7.446
21.42000 8.765
21.44000 7.659
21.46000 11.509
21.48000 8.212
21.50000 13.966
21.52000 9.552
21.54000 8.856
21.56000 8.520
21.58000 4.935
21.60000 7.016
21.62000 10.382
21.64000 11.050
21.66000 11.735
21.68000 6.124
21.70000 1.498
21.72000 1.342
21.74000 9.309
21.76000 14.701
21.78000 7.623
21.80000 6.274
21.82000 13.890
21.84000 10.746
21.86000 14.451
21.88000 15.019
21.90000 13.142
21.92000 14.536
21.94000 13.969
21.96000 8.153
21.98000 11.422
22.00000 5.651
22.02000 8.055
22.04000 8.330
22.06000 13.983
22.08000 12.458
22.10000 2.296
22.12000 -4.038
22.14000 1.594
22.16000 8.922
22.18000 7.444
22.20000 7.379
22.22000 7.544
22.24000 13.370
22.26000 19.437
22.28000 8.730
22.30000 5.533
22.32000 10.177
22.34000 6.999
22.36000 7.206
22.38000 1.331
22.40000 5.445
22.42000 4.435
22.44000 2.446
22.46000 3.556
22.48000 10.924
22.50000 5.492
22.52000 5.820
22.54000 10.309
22.56000 9.403
22.58000 10.682
22.60000 1.101
22.62000 3.994
22.64000 8.213
22.66000 7.213
22.68000 0.003
22.70000 3.252
22.72000 12.929
22.74000 9.331
22.76000 8.426
22.78000 14.246
22.80000 10.924
22.82000 7.326
22.84000 6.766
22.86000 11.981
22.88000 12.679
22.90000 7.951
22.92000 8.045
22.94000 4.051
22.96000 5.092
22.98000 9.415
23.00000 9.941
23.02000 15.984
23.04000 13.974
23.06000 5.386
23.08000 5.745
23.10000 8.863
23.12000 13.065
23.14000 7.744
23.16000 10.834
23.18000 5.170
23.20000 3.916
23.22000 5.267
23.24000 9.036
23.26000 9.430
23.28000 3.069
23.30000 4.323
23.32000 4.116
23.34000 15.287
23.36000 10.653
23.38000 2.694
23.40000 7.904
23.42000 6.089
23.44000 7.437
23.46000 9.262
23.48000 5.841
23.50000 3.967
23.52000 2.663
23.54000 -0.527
23.56000 -2.007
23.58000 -0.061
23.60000 8.291
23.62000 12.669
23.64000 11.165
23.66000 10.394
23.68000 2.763
23.70000 1.058
23.72000 5.300
23.74000 12.718
23.76000 10.093
23.78000 7.677
23.80000 5.198
23.82000 7.792
23.84000 -1.473
23.86000 5.219
23.88000 9.452
23.90000 3.862
23.92000 5.358
23.94000 4.434
23.96000 10.379
23.98000 8.353
24.00000 5.266
24.02000 -0.781
24.04000 0.780
24.06000 3.925
24.08000 8.357
24.10000 8.755
24.12000 5.249
24.14000 6.882
24.16000 3.903
24.18000 3.672
24.20000 4.686
24.22000 3.269
24.24000 3.373
24.26000 6.696
24.28000 10.777
24.30000 13.067
24.32000 7.057
24.34000 7.416
24.36000 8.469
24.38000 7.409
24.40000 7.828
24.42000 6.149
24.44000 5.316
24.46000 4.032
24.48000 1.801
24.50000 2.361
24.52000 3.542
24.54000 -0.272
24.56000 3.727
24.58000 9.909
24.60000 3.787
24.62000 3.110
24.64000 8.233
24.66000 9.667
24.68000 4.071
24.70000 4.628
24.72000 5.452
24.74000 8.778
24.76000 6.976
24.78000 5.695
24.80000 -3.015
24.82000 -3.923
24.84000 0.175
24.86000 5.011
24.88000 4.232
24.90000 5.141
24.92000 3.029
24.94000 2.259
24.96000 5.304
24.98000 5.116
25.00000 6.702
25.02000 8.864
25.04000 2.358
25.06000 5.655
25.08000 6.840
25.10000 3.912
25.12000 0.653
25.14000 2.186
25.16000 1.346
25.18000 0.003
25.20000 -1.127
25.22000 1.340
25.24000 3.368
25.26000 5.105
25.28000 4.219
25.30000 5.462
25.32000 7.153
25.34000 2.937
25.36000 2.370
25.38000 3.606
25.40000 4.394
25.42000 -1.096
25.44000 1.856
25.46000 3.914
25.48000 6.839
25.50000 9.228
25.52000 8.935
25.54000 4.365
25.56000 9.772
25.58000 7.745
25.60000 2.161
25.62000 2.714
25.64000 5.099
25.66000 3.591
25.68000 6.794
25.70000 2.760
25.72000 5.057
25.74000 6.355
25.76000 6.367
25.78000 6.001
25.80000 6.672
25.82000 13.101
25.84000 0.772
25.86000 -3.881
25.88000 -1.220
25.90000 1.805
25.92000 2.729
25.94000 2.011
25.96000 1.347
25.98000 0.565
26.00000 1.723
26.02000 -1.002
26.04000 0.943
26.06000 7.630
26.08000 7.672
26.10000 5.485
26.12000 4.643
26.14000 5.321
26.16000 8.596
26.18000 9.402
26.20000 3.851
26.22000 1.019
26.24000 0.905
26.26000 -2.201
26.28000 1.987
26.30000 0.083
26.32000 4.584
26.34000 10.574
26.36000 9.274
26.38000 7.324
26.40000 0.352
26.42000 1.170
26.44000 1.117
26.46000 -3.592
26.48000 -2.287
26.50000 2.281
26.52000 3.966
26.54000 6.584
26.56000 7.278
26.58000 8.870
26.60000 1.733
26.62000 1.510
26.64000 7.347
26.66000 9.971
26.68000 3.982
26.70000 8.519
26.72000 6.584
26.74000 2.523
26.76000 3.064
26.78000 4.968
26.80000 8.321
26.82000 10.113
26.84000 4.085
26.86000 -3.855
26.88000 -1.585
26.90000 -0.522
26.92000 -3.060
26.94000 1.570
26.96000 5.594
26.98000 1.583
27.00000 2.972
27.02000 1.988
27.04000 -1.360
27.06000 4.287
27.08000 5.494
27.10000 1.591
27.12000 3.232
27.14000 4.385
27.16000 6.860
27.18000 3.596
27.20000 1.713
27.22000 2.910
27.24000 3.303
27.26000 2.055
27.28000 3.602
27.30000 -1.572
27.32000 -1.054
27.34000 0.323
27.36000 9.850
27.38000 9.679
27.40000 4.846
27.42000 -1.188
27.44000 3.684
27.46000 4.323
27.48000 2.825
27.50000 -0.015
27.52000 3.212
27.54000 5.077
27.56000 1.986
27.58000 -0.977
27.60000 4.153
27.62000 2.287
27.64000 1.231
27.66000 -1.330
27.68000 2.620
27.70000 5.644
27.72000 -1.646
27.74000 2.278
27.76000 4.383
27.78000 4.574
27.80000 -3.174
27.82000 4.988
27.84000 6.654
27.86000 8.641
27.88000 1.209
27.90000 -3.798
27.92000 -3.483
27.94000 1.968
27.96000 1.437
27.98000 2.605
28.00000 3.592
28.02000 0.213
28.04000 -0.495
28.06000 5.372
28.08000 9.225
28.10000 7.322
28.12000 5.439
28.14000 2.569
28.16000 2.982
28.18000 0.079
28.20000 -3.218
28.22000 1.290
28.24000 2.498
28.26000 4.238
28.28000 8.955
28.30000 8.117
28.32000 -3.142
28.34000 -0.441
28.36000 3.329
28.38000 3.502
28.40000 -1.841
28.42000 -3.757
28.44000 2.241
28.46000 6.920
28.48000 3.941
28.50000 4.061
28.52000 3.181
28.54000 2.233
28.56000 2.642
28.58000 1.159
28.60000 0.752
28.62000 3.978
28.64000 1.357
28.66000 7.132
28.68000 5.808
28.70000 5.034
28.72000 4.366
28.74000 2.853
28.76000 4.761
28.78000 6.022
28.80000 6.463
28.82000 11.611
28.84000 15.495
28.86000 6.410
28.88000 3.129
28.90000 2.134
28.92000 5.443
28.94000 5.760
28.96000 6.323
28.98000 8.567
29.00000 4.872
29.02000 11.344
29.04000 6.724
29.06000 7.363
29.08000 5.411
29.10000 -3.691
29.12000 -0.474
29.14000 1.831
29.16000 6.443
29.18000 12.242
29.20000 10.133
29.22000 10.544
29.24000 8.997
29.26000 5.619
29.28000 6.931
29.30000 6.448
29.32000 3.747
29.34000 1.914
29.36000 4.134
29.38000 6.629
29.40000 6.665
29.42000 9.240
29.44000 8.678
29.46000 3.379
29.48000 1.014
29.50000 5.693
29.52000 4.486
29.54000 3.046
29.56000 5.872
29.58000 8.431
29.60000 3.790
29.62000 5.821
29.64000 2.836
29.66000 3.056
29.68000 6.699
29.70000 6.173
29.72000 4.537
29.74000 6.630
29.76000 4.369
29.78000 10.218
29.80000 9.030
29.82000 8.800
29.84000 3.525
29.86000 0.565
29.88000 2.903
29.90000 5.467
29.92000 2.165
29.94000 3.990
29.96000 4.351
29.98000 2.603
30.00000 -2.443
30.02000 3.343
30.04000 6.305
30.06000 7.266
30.08000 3.855
30.10000 6.435
30.12000 5.241
30.14000 2.319
30.16000 4.290
30.18000 5.159
30.20000 3.536
30.22000 -2.206
30.24000 -1.150
30.26000 -0.329
30.28000 2.141
30.30000 3.216
30.32000 7.627
30.34000 3.546
30.36000 1.396
30.38000 2.161
30.40000 2.547
30.42000 -0.378
30.44000 4.121
30.46000 5.732
30.48000 3.827
30.50000 -3.546
30.52000 0.680
30.54000 3.774
30.56000 3.922
30.58000 -1.495
30.60000 0.179
30.62000 0.932
30.64000 6.351
30.66000 7.563
30.68000 5.749
30.70000 1.875
30.72000 3.567
30.74000 2.161
30.76000 4.433
30.78000 1.304
30.80000 2.688
30.82000 1.572
30.84000 -0.646
30.86000 1.880
30.88000 2.810
30.90000 2.843
30.92000 4.401
30.94000 8.579
30.96000 7.252
30.98000 7.227
31.00000 3.336
31.02000 -0.377
31.04000 -3.639
31.06000 -1.155
31.08000 1.630
31.10000 5.319
31.12000 1.879
31.14000 -1.310
31.16000 -2.078
31.18000 1.831
31.20000 2.853
31.22000 3.821
31.24000 4.511
31.26000 4.773
31.28000 6.771
31.30000 1.016
31.32000 1.190
31.34000 3.344
31.36000 1.837
31.38000 3.796
31.40000 1.303
31.42000 2.052
31.44000 -1.859
31.46000 1.365
31.48000 -0.505
31.50000 1.090
31.52000 6.376
31.54000 5.424
31.56000 7.136
31.58000 3.065
31.60000 0.933
31.62000 2.065
31.64000 5.745
31.66000 8.911
31.68000 3.138
31.70000 3.813
31.72000 1.571
31.74000 0.985
31.76000 0.088
31.78000 6.467
31.80000 8.063
31.82000 8.576
31.84000 9.369
31.86000 8.297
31.88000 7.235
31.90000 4.083
31.92000 5.676
31.94000 6.963
31.96000 2.341
31.98000 3.734
32.00000 5.767
32.02000 3.856
32.04000 1.438
32.06000 2.966
32.08000 2.530
32.10000 1.861
32.12000 -0.885
32.14000 2.509
32.16000 7.215
32.18000 7.369
32.20000 11.972
32.22000 7.219
32.24000 2.352
32.26000 5.102
32.28000 13.855
32.30000 7.529
32.32000 -0.302
32.34000 1.167
32.36000 -3.561
32.38000 -0.700
32.40000 2.873
32.42000 4.316
32.44000 2.462
32.46000 2.022
32.48000 6.771
32.50000 9.333
32.52000 5.482
32.54000 5.720
32.56000 4.111
32.58000 5.481
32.60000 4.399
32.62000 1.608
32.64000 -3.562
32.66000 3.090
32.68000 3.841
32.70000 2.656
32.72000 3.496
32.74000 1.800
32.76000 0.971
32.78000 5.574
32.80000 5.724
32.82000 4.877
32.84000 6.014
32.86000 5.254
32.88000 4.414
32.90000 0.521
32.92000 2.959
32.94000 4.260
32.96000 0.220
32.98000 0.810
33.00000 2.695
33.02000 2.664
33.04000 -0.717
33.06000 -3.015
33.08000 -0.152
33.10000 -0.187
33.12000 0.482
33.14000 0.292
33.16000 2.864
33.18000 2.414
33.20000 3.283
33.22000 -2.360
33.24000 0.270
33.26000 3.673
33.28000 0.629
33.30000 -0.718
33.32000 3.427
33.34000 0.809
33.36000 4.468
33.38000 6.806
33.40000 2.374
33.42000 6.625
33.44000 3.387
33.46000 1.637
33.48000 0.186
33.50000 -0.631
33.52000 6.799
33.54000 2.473
33.56000 -0.854
33.58000 -1.633
33.60000 2.835
33.62000 1.472
33.64000 1.426
33.66000 -0.489
33.68000 -0.471
33.70000 -0.836
33.72000 2.720
33.74000 -0.683
33.76000 1.162
33.78000 1.906
33.80000 2.973
33.82000 0.629
33.84000 6.655
33.86000 8.521
33.88000 5.014
33.90000 4.781
33.92000 4.624
33.94000 -1.342
33.96000 -1.907
33.98000 -2.961
34.00000 -3.554
34.02000 0.160
34.04000 5.324
34.06000 3.346
34.08000 0.924
34.10000 1.874
34.12000 1.386
34.14000 2.419
34.16000 5.198
34.18000 8.928
34.20000 3.903
34.22000 3.306
34.24000 2.655
34.26000 2.613
34.28000 4.248
34.30000 3.761
34.32000 2.792
34.34000 3.838
34.36000 4.370
34.38000 2.513
34.40000 0.847
34.42000 -2.976
34.44000 0.505
34.46000 2.716
34.48000 4.815
34.50000 6.842
34.52000 3.398
34.54000 3.184
34.56000 4.486
34.58000 3.537
34.60000 8.025
34.62000 5.629
34.64000 5.210
34.66000 8.159
34.68000 4.532
34.70000 3.272
34.72000 2.059
34.74000 8.967
34.76000 11.788
34.78000 3.684
34.80000 0.371
34.82000 8.049
34.84000 8.138
34.86000 8.351
34.88000 6.340
34.90000 10.625
34.92000 3.681
34.94000 3.581
34.96000 2.625
34.98000 -3.496
35.00000 1.070
35.02000 0.774
35.04000 4.039
35.06000 1.879
35.08000 6.420
35.10000 6.774
35.12000 7.512
35.14000 11.779
35.16000 7.864
35.18000 6.393
35.20000 5.440
35.22000 1.749
35.24000 2.073
35.26000 2.085
35.28000 3.952
35.30000 4.472
35.32000 2.299
35.34000 -1.153
35.36000 -1.028
35.38000 -1.859
35.40000 1.719
35.42000 3.515
35.44000 3.185
35.46000 5.778
35.48000 6.269
35.50000 11.056
35.52000 4.309
35.54000 1.540
35.56000 -1.780
35.58000 -0.966
35.60000 -0.865
35.62000 -1.986
35.64000 2.876
35.66000 0.962
35.68000 -0.563
35.70000 3.403
35.72000 2.904
35.74000 -2.933
35.76000 2.994
35.78000 1.256
35.80000 0.947
35.82000 4.672
35.84000 2.827
35.86000 -0.776
35.88000 -3.518
35.90000 -2.304
35.92000 4.704
35.94000 4.064
35.96000 7.081
35.98000 2.915
36.00000 -0.917
36.02000 0.412
36.04000 1.944
36.06000 5.156
36.08000 5.745
36.10000 6.435
36.12000 8.647
36.14000 4.110
36.16000 -1.084
36.18000 -0.836
36.20000 -2.341
36.22000 3.550
36.24000 1.371
36.26000 0.794
36.28000 -0.621
36.30000 3.088
36.32000 1.893
36.34000 0.452
36.36000 -0.072
36.38000 -0.021
36.40000 -1.151
36.42000 0.156
36.44000 1.352
36.46000 1.625
36.48000 -1.903
36.50000 -1.695
36.52000 0.064
36.54000 3.987
36.56000 3.701
36.58000 0.382
36.60000 -0.223
36.62000 -1.528
36.64000 0.436
36.66000 -0.655
36.68000 -3.415
36.70000 -0.116
36.72000 3.813
36.74000 6.457
36.76000 3.872
36.78000 2.226
36.80000 5.235
36.82000 0.434
36.84000 3.219
36.86000 0.448
36.88000 5.629
36.90000 8.203
36.92000 5.044
36.94000 6.008
36.96000 4.704
36.98000 -3.506
37.00000 -3.120
37.02000 4.234
37.04000 1.271
37.06000 -0.838
37.08000 -2.010
37.10000 2.712
37.12000 9.419
37.14000 8.764
37.16000 3.090
37.18000 0.663
37.20000 2.440
37.22000 1.889
37.24000 1.354
37.26000 3.893
37.28000 3.935
37.30000 2.719
37.32000 0.975
37.34000 3.545
37.36000 5.133
37.38000 6.438
37.40000 0.981
37.42000 3.727
37.44000 3.497
37.46000 -0.983
37.48000 -2.178
37.50000 -1.150
37.52000 -2.194
37.54000 0.089
37.56000 2.464
37.58000 0.102
37.60000 -0.561
37.62000 2.802
37.64000 5.963
37.66000 9.934
37.68000 10.287
37.70000 8.517
37.72000 8.520
37.74000 2.351
37.76000 2.398
37.78000 4.452
37.80000 2.660
37.82000 2.200
37.84000 2.971
37.86000 -3.595
37.88000 -0.695
37.90000 7.101
37.92000 4.722
37.94000 3.188
37.96000 6.745
37.98000 3.895
38.00000 6.257
38.02000 6.918
38.04000 5.934
38.06000 4.965
38.08000 9.190
38.10000 10.123
38.12000 10.176
38.14000 9.075
38.16000 8.669
38.18000 9.798
38.20000 7.822
38.22000 11.347
38.24000 12.377
38.26000 8.435
38.28000 7.932
38.30000 7.311
38.32000 10.598
38.34000 8.512
38.36000 6.898
38.38000 10.644
38.40000 16.825
38.42000 17.076
38.44000 17.689
38.46000 13.823
38.48000 7.162
38.50000 10.509
38.52000 12.333
38.54000 10.055
38.56000 11.649
38.58000 18.535
38.60000 15.056
38.62000 18.216
38.64000 19.127
38.66000 21.272
38.68000 23.321
38.70000 19.628
38.72000 22.602
38.74000 23.487
38.76000 20.266
38.78000 21.100
38.80000 18.597
38.82000 19.441
38.84000 21.626
38.86000 20.132
38.88000 25.754
38.90000 25.654
38.92000 25.430
38.94000 23.930
38.96000 27.204
38.98000 40.540
39.00000 35.910
39.02000 28.020
39.04000 29.101
39.06000 31.637
39.08000 31.249
39.10000 35.112
39.12000 35.708
39.14000 36.972
39.16000 36.786
39.18000 39.559
39.20000 42.707
39.22000 49.188
39.24000 46.363
39.26000 47.235
39.28000 44.261
39.30000 48.711
39.32000 51.005
39.34000 53.618
39.36000 54.596
39.38000 54.860
39.40000 58.646
39.42000 66.009
39.44000 68.444
39.46000 68.112
39.48000 67.701
39.50000 72.484
39.52000 76.280
39.54000 83.544
39.56000 84.436
39.58000 83.238
39.60000 85.661
39.62000 94.354
39.64000 103.059
39.66000 103.399
39.68000 111.932
39.70000 120.321
39.72000 128.002
39.74000 124.286
39.76000 130.000
39.78000 133.859
39.80000 146.830
39.82000 156.023
39.84000 158.099
39.86000 162.035
39.88000 171.154
39.90000 179.940
39.92000 192.223
39.94000 198.704
39.96000 210.769
39.98000 224.648
40.00000 241.735
40.02000 250.322
40.04000 255.153
40.06000 264.114
40.08000 270.605
40.10000 291.988
40.12000 301.424
40.14000 311.409
40.16000 329.298
40.18000 348.065
40.20000 353.897
40.22000 361.435
40.24000 371.001
40.26000 394.907
40.28000 407.118
40.30000 414.640
40.32000 432.789
40.34000 454.072
40.36000 457.387
40.38000 462.413
40.40000 477.305
40.42000 487.681
40.44000 491.254
40.46000 506.460
40.48000 521.124
40.50000 528.452
40.52000 524.337
40.54000 523.400
40.56000 524.915
40.58000 524.015
40.60000 526.340
40.62000 522.961
40.64000 518.425
40.66000 517.122
40.68000 501.056
40.70000 488.422
40.72000 483.438
40.74000 481.807
40.76000 475.121
40.78000 464.897
40.80000 452.674
40.82000 439.077
40.84000 436.884
40.86000 421.161
40.88000 398.867
40.90000 395.795
40.92000 382.416
40.94000 363.031
40.96000 344.390
40.98000 321.904
41.00000 314.784
41.02000 309.333
41.04000 289.660
41.06000 267.903
41.08000 259.353
41.10000 252.735
41.12000 240.340
41.14000 229.409
41.16000 208.871
41.18000 200.638
41.20000 198.542
41.22000 185.004
41.24000 175.489
41.26000 165.015
41.28000 158.147
41.30000 149.117
41.32000 141.040
41.34000 139.720
41.36000 126.372
41.38000 126.430
41.40000 122.766
41.42000 115.052
41.44000 105.884
41.46000 97.140
41.48000 96.902
41.50000 88.967
41.52000 82.723
41.54000 81.774
41.56000 78.126
41.58000 71.386
41.60000 71.015
41.62000 67.748
41.64000 61.370
41.66000 58.267
41.68000 55.711
41.70000 56.157
41.72000 53.805
41.74000 50.705
41.76000 51.207
41.78000 45.189
41.80000 40.532
41.82000 34.973
41.84000 35.998
41.86000 37.949
41.88000 30.960
41.90000 31.664
41.92000 31.324
41.94000 33.147
41.96000 30.275
41.98000 24.040
42.00000 25.120
42.02000 24.841
42.04000 17.123
42.06000 16.035
42.08000 17.722
42.10000 20.749
42.12000 20.592
42.14000 17.501
42.16000 17.150
42.18000 17.858
42.20000 17.912
42.22000 11.769
42.24000 11.728
42.26000 15.959
42.28000 14.511
42.30000 14.570
42.32000 11.621
42.34000 9.413
42.36000 12.577
42.38000 14.243
42.40000 9.626
42.42000 7.007
42.44000 6.540
42.46000 7.314
42.48000 7.917
42.50000 8.644
42.52000 6.889
42.54000 7.200
42.56000 8.972
42.58000 2.899
42.60000 2.765
42.62000 4.505
42.64000 2.542
42.66000 3.837
42.68000 3.041
42.70000 4.715
42.72000 8.699
42.74000 8.292
42.76000 -1.262
42.78000 2.029
42.80000 -1.727
42.82000 -0.621
42.84000 -0.184
42.86000 -3.591
42.88000 -0.823
42.90000 0.046
42.92000 -0.118
42.94000 -2.007
42.96000 1.463
42.98000 -2.259
43.00000 0.057
43.02000 2.119
43.04000 2.607
43.06000 0.120
43.08000 -0.674
43.10000 1.900
43.12000 -0.663
43.14000 -0.910
43.16000 0.007
43.18000 -1.352
43.20000 -1.259
43.22000 0.595
43.24000 0.116
43.26000 -1.819
43.28000 1.191
43.30000 6.530
43.32000 3.298
43.34000 1.484
43.36000 3.051
43.38000 0.076
43.40000 -2.894
43.42000 -2.763
43.44000 -3.093
43.46000 4.114
43.48000 3.674
43.50000 0.199
43.52000 -2.211
43.54000 -3.053
43.56000 1.202
43.58000 -3.502
43.60000 -1.636
43.62000 -0.904
43.64000 2.095
43.66000 2.129
43.68000 -0.996
43.70000 1.387
43.72000 7.090
43.74000 1.024
43.76000 2.744
43.78000 2.067
43.80000 -0.467
43.82000 -0.543
43.84000 -1.767
43.86000 5.481
43.88000 4.266
43.90000 -3.456
43.92000 -2.002
43.94000 1.111
43.96000 2.402
43.98000 7.321
44.00000 4.924
44.02000 4.504
44.04000 2.333
44.06000 -0.247
44.08000 3.389
44.10000 3.861
44.12000 -1.012
44.14000 -0.063
44.16000 0.259
44.18000 -1.155
44.20000 -1.834
44.22000 0.325
44.24000 2.637
44.26000 0.657
44.28000 0.989
44.30000 1.547
44.32000 0.875
44.34000 -1.891
44.36000 1.180
44.38000 -0.503
44.40000 0.736
44.42000 1.562
44.44000 8.735
44.46000 5.131
44.48000 0.282
44.50000 1.971
44.52000 2.055
44.54000 2.191
44.56000 -1.207
44.58000 -1.749
44.60000 -1.608
44.62000 3.401
44.64000 1.079
44.66000 0.259
44.68000 5.884
44.70000 -0.154
44.72000 -1.041
44.74000 -1.308
44.76000 -1.542
44.78000 -3.436
44.80000 0.693
44.82000 5.900
44.84000 0.326
44.86000 -0.796
44.88000 -1.919
44.90000 3.606
44.92000 1.936
44.94000 4.134
44.96000 4.898
44.98000 3.333
45.00000 5.451
45.02000 3.737
45.04000 0.156
45.06000 5.769
45.08000 6.505
45.10000 4.545
45.12000 -0.357
45.14000 7.407
45.16000 7.207
45.18000 4.645
45.20000 2.488
45.22000 4.703
45.24000 4.092
45.26000 5.610
45.28000 7.027
45.30000 4.604
45.32000 4.615
45.34000 4.898
45.36000 6.316
45.38000 8.377
45.40000 4.404
45.42000 -0.327
45.44000 0.484
45.46000 5.061
45.48000 10.574
45.50000 10.296
45.52000 5.744
45.54000 3.188
45.56000 9.886
45.58000 14.341
45.60000 13.107
45.62000 13.710
45.64000 13.279
45.66000 14.783
45.68000 14.577
45.70000 9.063
45.72000 9.251
45.74000 14.223
45.76000 12.351
45.78000 15.884
45.80000 14.328
45.82000 16.628
45.84000 10.066
45.86000 6.287
45.88000 16.492
45.90000 17.913
45.92000 17.375
45.94000 21.676
45.96000 27.899
45.98000 25.490
46.00000 25.196
46.02000 20.526
46.04000 22.733
46.06000 23.144
46.08000 26.557
46.10000 28.711
46.12000 30.966
46.14000 28.704
46.16000 33.121
46.18000 32.709
46.20000 37.194
46.22000 35.373
46.24000 32.839
46.26000 33.863
46.28000 28.041
46.30000 32.995
46.32000 38.841
46.34000 33.993
46.36000 37.056
46.38000 41.265
46.40000 44.683
46.42000 46.577
46.44000 44.625
46.46000 43.036
46.48000 43.132
46.50000 48.504
46.52000 44.107
46.54000 46.477
46.56000 50.016
46.58000 49.153
46.60000 51.398
46.62000 53.752
46.64000 57.456
46.66000 58.464
46.68000 55.879
46.70000 58.836
46.72000 64.640
46.74000 71.692
46.76000 66.121
46.78000 61.268
46.80000 58.902
46.82000 69.573
46.84000 65.867
46.86000 65.642
46.88000 71.890
46.90000 69.316
46.92000 71.328
46.94000 73.142
46.96000 72.535
46.98000 80.489
47.00000 78.634
47.02000 80.334
47.04000 80.237
47.06000 73.759
47.08000 68.365
47.10000 64.617
47.12000 71.760
47.14000 71.327
47.16000 74.651
47.18000 80.564
47.20000 85.061
47.22000 79.607
47.24000 78.362
47.26000 75.611
47.28000 79.600
47.30000 79.648
47.32000 73.247
47.34000 67.759
47.36000 67.109
47.38000 71.861
47.40000 72.727
47.42000 71.973
47.44000 64.765
47.46000 62.262
47.48000 58.540
47.50000 59.789
47.52000 59.873
47.54000 66.073
47.56000 56.915
47.58000 53.962
47.60000 56.873
47.62000 52.940
47.64000 51.379
47.66000 46.472
47.68000 50.637
47.70000 50.909
47.72000 49.421
47.74000 44.082
47.76000 43.316
47.78000 46.012
47.80000 44.901
47.82000 43.224
47.84000 43.576
47.86000 33.035
47.88000 34.320
47.90000 36.550
47.92000 33.823
47.94000 33.967
47.96000 30.287
47.98000 26.916
48.00000 26.437
48.02000 23.916
48.04000 25.958
48.06000 24.258
48.08000 24.354
48.10000 31.011
48.12000 37.835
48.14000 29.064
48.16000 24.889
48.18000 23.675
48.20000 21.367
48.22000 16.398
48.24000 13.410
48.26000 19.438
48.28000 19.314
48.30000 17.224
48.32000 13.009
48.34000 14.027
48.36000 16.097
48.38000 13.757
48.40000 12.745
48.42000 12.221
48.44000 15.733
48.46000 17.794
48.48000 10.976
48.50000 10.686
48.52000 6.590
48.54000 8.147
48.56000 9.716
48.58000 8.014
48.60000 3.729
48.62000 6.134
48.64000 7.199
48.66000 8.319
48.68000 9.328
48.70000 8.113
48.72000 9.005
48.74000 11.294
48.76000 8.813
48.78000 7.691
48.80000 5.081
48.82000 9.244
48.84000 10.908
48.86000 2.802
48.88000 0.415
48.90000 0.645
48.92000 6.486
48.94000 9.486
48.96000 1.247
48.98000 3.932
49.00000 10.404
49.02000 8.185
49.04000 6.879
49.06000 3.384
49.08000 -1.586
49.10000 3.670
49.12000 3.737
49.14000 0.001
49.16000 -3.091
49.18000 4.796
49.20000 4.565
49.22000 3.712
49.24000 6.250
49.26000 1.250
49.28000 2.752
49.30000 5.493
49.32000 4.068
49.34000 7.159
49.36000 10.344
49.38000 4.318
49.40000 1.157
49.42000 -3.046
49.44000 2.882
49.46000 5.649
49.48000 7.077
49.50000 2.988
49.52000 6.074
49.54000 5.825
49.56000 2.598
49.58000 3.243
49.60000 2.923
49.62000 0.981
49.64000 -2.408
49.66000 5.583
49.68000 11.003
49.70000 8.183
49.72000 2.428
49.74000 0.888
49.76000 4.079
49.78000 4.832
49.80000 4.722
49.82000 1.785
49.84000 3.859
49.86000 5.694
49.88000 7.340
49.90000 3.462
49.92000 3.222
49.94000 2.228
49.96000 1.803
49.98000 0.751
50.00000 -0.303
50.02000 0.885
50.04000 2.787
50.06000 4.140
50.08000 4.278
50.10000 4.629
50.12000 3.100
50.14000 2.656
50.16000 2.357
50.18000 0.568
50.20000 2.264
50.22000 -0.002
50.24000 0.029
50.26000 -2.978
50.28000 4.251
50.30000 10.567
50.32000 12.224
50.34000 8.343
50.36000 5.971
50.38000 2.825
50.40000 -0.802
50.42000 -0.740
50.44000 -0.106
50.46000 1.354
50.48000 5.165
50.50000 0.787
50.52000 -0.614
50.54000 5.869
50.56000 2.919
50.58000 -0.612
50.60000 1.031
50.62000 3.018
50.64000 4.733
50.66000 4.552
50.68000 2.575
50.70000 0.584
50.72000 0.232
50.74000 2.124
50.76000 2.016
50.78000 7.445
50.80000 10.660
50.82000 8.127
50.84000 6.560
50.86000 6.552
50.88000 6.193
50.90000 5.081
50.92000 7.685
50.94000 7.697
50.96000 12.984
50.98000 7.301
51.00000 1.036
51.02000 4.027
51.04000 3.041
51.06000 5.166
51.08000 5.421
51.10000 7.033
51.12000 5.449
51.14000 1.746
51.16000 -2.895
51.18000 0.173
51.20000 3.934
51.22000 0.180
51.24000 2.963
51.26000 3.077
51.28000 7.612
51.30000 6.986
51.32000 7.533
51.34000 5.228
51.36000 6.545
51.38000 3.979
51.40000 4.068
51.42000 1.794
51.44000 2.439
51.46000 -0.260
51.48000 5.826
51.50000 3.984
51.52000 -2.795
51.54000 -0.503
51.56000 7.306
51.58000 3.351
51.60000 1.064
51.62000 2.648
51.64000 0.237
51.66000 3.146
51.68000 4.705
51.70000 2.502
51.72000 1.945
51.74000 3.452
51.76000 3.391
51.78000 0.054
51.80000 -0.259
51.82000 3.649
51.84000 4.777
51.86000 2.665
51.88000 0.056
51.90000 1.866
51.92000 4.797
51.94000 1.810
51.96000 -2.884
51.98000 3.868
52.00000 10.034
52.02000 11.062
52.04000 13.195
52.06000 7.322
52.08000 3.413
52.10000 0.740
52.12000 3.461
52.14000 1.482
52.16000 0.940
52.18000 4.171
52.20000 0.759
52.22000 -2.750
52.24000 -1.372
52.26000 4.643
52.28000 4.947
52.30000 5.423
52.32000 5.022
52.34000 8.394
52.36000 7.077
52.38000 6.842
52.40000 6.821
52.42000 7.751
52.44000 2.295
52.46000 5.345
52.48000 -0.524
52.50000 1.683
52.52000 4.878
52.54000 4.065
52.56000 2.518
52.58000 2.943
52.60000 5.334
52.62000 2.694
52.64000 2.316
52.66000 1.263
52.68000 3.462
52.70000 5.099
52.72000 3.657
52.74000 3.819
52.76000 4.776
52.78000 4.116
52.80000 -1.064
52.82000 4.400
52.84000 3.703
52.86000 3.000
52.88000 2.357
52.90000 0.544
52.92000 0.282
52.94000 3.100
52.96000 4.383
52.98000 4.071
53.00000 2.305
53.02000 4.857
53.04000 6.884
53.06000 -1.130
53.08000 1.878
53.10000 2.900
53.12000 0.645
53.14000 -2.840
53.16000 2.645
53.18000 0.966
53.20000 -0.144
53.22000 -2.029
53.24000 1.553
53.26000 1.723
53.28000 5.105
53.30000 2.828
53.32000 3.228
53.34000 5.153
53.36000 7.862
53.38000 3.484
53.40000 -1.349
53.42000 -0.640
53.44000 -0.860
53.46000 3.290
53.48000 2.497
53.50000 1.316
53.52000 3.571
53.54000 4.806
53.56000 4.190
53.58000 4.208
53.60000 4.351
53.62000 6.847
53.64000 5.841
53.66000 -1.239
53.68000 -2.809
53.70000 1.088
53.72000 6.588
53.74000 6.184
53.76000 8.128
53.78000 2.778
53.80000 1.570
53.82000 1.556
53.84000 3.486
53.86000 4.171
53.88000 4.421
53.90000 6.238
53.92000 5.427
53.94000 -0.086
53.96000 3.588
53.98000 5.691
54.00000 7.963
54.02000 3.893
54.04000 1.624
54.06000 1.401
54.08000 6.565
54.10000 8.545
54.12000 8.021
54.14000 6.291
54.16000 6.574
54.18000 10.541
54.20000 6.647
54.22000 6.371
54.24000 2.730
54.26000 2.571
54.28000 2.983
54.30000 5.257
54.32000 1.462
54.34000 -2.771
54.36000 0.048
54.38000 7.715
54.40000 6.905
54.42000 4.124
54.44000 6.290
54.46000 3.955
54.48000 0.075
54.50000 4.529
54.52000 3.112
54.54000 -0.459
54.56000 7.135
54.58000 9.761
54.60000 3.905
54.62000 2.134
54.64000 4.251
54.66000 0.818
54.68000 -1.109
54.70000 3.588
54.72000 8.303
54.74000 6.650
54.76000 2.642
54.78000 4.024
54.80000 3.416
54.82000 4.864
54.84000 4.881
54.86000 5.421
54.88000 5.823
54.90000 -1.294
54.92000 0.199
54.94000 -2.122
54.96000 3.439
54.98000 3.539
55.00000 2.401
55.02000 1.788
55.04000 3.775
55.06000 3.787
55.08000 1.344
55.10000 1.318
55.12000 6.769
55.14000 2.745
55.16000 3.104
55.18000 2.286
55.20000 1.610
55.22000 1.114
55.24000 -0.601
55.26000 3.328
55.28000 9.284
55.30000 3.955
55.32000 6.878
55.34000 7.421
55.36000 -0.928
55.38000 0.464
55.40000 6.733
55.42000 9.048
55.44000 9.100
55.46000 3.665
55.48000 -2.338
55.50000 -1.284
55.52000 -1.909
55.54000 5.003
55.56000 2.386
55.58000 -0.338
55.60000 -0.932
55.62000 0.287
55.64000 2.795
55.66000 4.974
55.68000 2.012
55.70000 4.234
55.72000 3.438
55.74000 4.153
55.76000 3.503
55.78000 9.130
55.80000 9.385
55.82000 7.055
55.84000 5.193
55.86000 5.441
55.88000 1.282
55.90000 4.423
55.92000 3.413
55.94000 0.819
55.96000 2.175
55.98000 3.356
56.00000 6.295
56.02000 7.433
56.04000 7.601
56.06000 10.791
56.08000 5.715
56.10000 3.055
56.12000 0.990
56.14000 -0.873
56.16000 2.817
56.18000 4.576
56.20000 4.143
56.22000 2.364
56.24000 2.049
56.26000 5.301
56.28000 9.944
56.30000 10.037
56.32000 6.748
56.34000 2.668
56.36000 7.618
56.38000 7.126
56.40000 2.316
56.42000 4.928
56.44000 1.598
56.46000 -2.724
56.48000 -0.787
56.50000 2.028
56.52000 4.513
56.54000 6.139
56.56000 7.137
56.58000 5.050
56.60000 7.109
56.62000 9.529
56.64000 8.917
56.66000 6.479
56.68000 11.118
56.70000 9.658
56.72000 3.834
56.74000 -0.118
56.76000 0.813
56.78000 2.164
56.80000 2.639
56.82000 6.046
56.84000 11.252
56.86000 5.894
56.88000 2.208
56.90000 3.016
56.92000 5.122
56.94000 0.683
56.96000 1.123
56.98000 3.071
57.00000 0.156
57.02000 -0.629
57.04000 2.892
57.06000 0.458
57.08000 0.225
57.10000 -2.348
57.12000 -2.293
57.14000 1.258
57.16000 2.847
57.18000 0.912
57.20000 1.504
57.22000 0.277
57.24000 -1.247
57.26000 0.849
57.28000 3.005
57.30000 3.428
57.32000 2.270
57.34000 2.075
57.36000 2.071
57.38000 1.672
57.40000 1.380
57.42000 4.075
57.44000 6.355
57.46000 4.584
57.48000 4.526
57.50000 1.556
57.52000 0.416
57.54000 2.809
57.56000 5.702
57.58000 3.400
57.60000 2.850
57.62000 3.579
57.64000 7.807
57.66000 0.573
57.68000 -1.766
57.70000 1.785
57.72000 3.983
57.74000 2.833
57.76000 3.909
57.78000 5.946
57.80000 5.827
57.82000 6.831
57.84000 5.677
57.86000 7.657
57.88000 11.995
57.90000 6.491
57.92000 5.000
57.94000 2.528
57.96000 1.012
57.98000 -0.957
58.00000 -0.970
58.02000 2.143
58.04000 4.725
58.06000 5.048
58.08000 0.463
58.10000 0.599
58.12000 -0.592
58.14000 4.173
58.16000 2.171
58.18000 -2.673
58.20000 8.005
58.22000 1.932
58.24000 -2.247
58.26000 -0.351
58.28000 1.351
58.30000 1.941
58.32000 1.408
58.34000 1.974
58.36000 1.841
58.38000 1.222
58.40000 2.144
58.42000 2.901
58.44000 -2.500
58.46000 0.710
58.48000 -1.577
58.50000 -0.737
58.52000 -0.733
58.54000 1.141
58.56000 4.133
58.58000 5.481
58.60000 2.785
58.62000 1.080
58.64000 7.241
58.66000 5.161
58.68000 6.202
58.70000 4.772
58.72000 -2.319
58.74000 1.190
58.76000 5.410
58.78000 4.132
58.80000 5.104
58.82000 4.064
58.84000 5.718
58.86000 7.322
58.88000 3.693
58.90000 3.985
58.92000 2.756
58.94000 3.221
58.96000 0.360
58.98000 -2.651
59.00000 -2.220
59.02000 2.050
59.04000 0.499
59.06000 -1.018
59.08000 -2.409
59.10000 -2.439
59.12000 1.597
59.14000 4.529
59.16000 4.485
59.18000 3.404
59.20000 2.098
59.22000 0.075
59.24000 3.189
59.26000 7.636
59.28000 2.658
59.30000 0.157
59.32000 0.350
59.34000 8.176
59.36000 4.597
59.38000 6.210
59.40000 6.697
59.42000 4.645
59.44000 2.847
59.46000 1.470
59.48000 1.672
59.50000 -2.637
59.52000 4.277
59.54000 10.072
59.56000 7.227
59.58000 5.712
59.60000 4.028
59.62000 5.418
59.64000 6.735
59.66000 5.580
59.68000 2.335
59.70000 3.640
59.72000 1.231
59.74000 4.687
59.76000 5.167
59.78000 4.106
59.80000 3.044
59.82000 4.542
59.84000 5.429
59.86000 1.471
59.88000 4.869
59.90000 7.253
59.92000 0.465
59.94000 -0.393
59.96000 3.686
59.98000 7.940
60.00000 6.368
60.02000 -0.048
60.04000 4.310
60.06000 6.591
60.08000 4.744
60.10000 -2.047
60.12000 1.588
60.14000 4.435
60.16000 2.397
60.18000 1.177
60.20000 1.380
60.22000 2.235
60.24000 1.538
60.26000 5.421
60.28000 5.179
60.30000 8.875
60.32000 6.694
60.34000 4.858
60.36000 -0.743
60.38000 -1.411
60.40000 5.434
60.42000 3.598
60.44000 1.839
60.46000 0.922
60.48000 1.904
60.50000 -1.821
60.52000 1.205
60.54000 6.232
60.56000 2.050
60.58000 0.848
60.60000 4.026
60.62000 6.634
60.64000 2.419
60.66000 1.279
60.68000 1.477
60.70000 0.125
60.72000 3.100
60.74000 2.113
60.76000 -2.595
60.78000 -0.065
60.80000 0.349
60.82000 4.777
60.84000 4.155
60.86000 6.047
60.88000 8.019
60.90000 5.127
60.92000 6.951
60.94000 6.561
60.96000 7.562
60.98000 4.872
61.00000 1.899
61.02000 3.926
61.04000 7.928
61.06000 6.308
61.08000 2.256
61.10000 -0.106
61.12000 -1.586
61.14000 -2.564
61.16000 1.001
61.18000 1.861
61.20000 -0.150
61.22000 -0.755
61.24000 3.009
61.26000 3.537
61.28000 2.646
61.30000 4.497
61.32000 6.698
61.34000 5.236
61.36000 3.258
61.38000 2.196
61.40000 1.218
61.42000 7.345
61.44000 6.691
61.46000 4.135
61.48000 0.305
61.50000 2.237
61.52000 8.479
61.54000 1.797
61.56000 -2.275
61.58000 0.902
61.60000 3.085
61.62000 3.029
61.64000 3.322
61.66000 1.734
61.68000 0.092
61.70000 3.006
61.72000 1.783
61.74000 1.363
61.76000 3.197
61.78000 0.639
61.80000 2.163
61.82000 2.330
61.84000 0.393
61.86000 3.199
61.88000 6.150
61.90000 7.545
61.92000 4.735
61.94000 6.172
61.96000 3.515
61.98000 6.478
62.00000 5.926
62.02000 4.723
62.04000 3.891
62.06000 1.811
62.08000 1.421
62.10000 2.743
62.12000 1.978
62.14000 5.014
62.16000 4.117
62.18000 2.360
62.20000 0.902
62.22000 3.225
62.24000 3.076
62.26000 5.696
62.28000 5.190
62.30000 4.836
62.32000 4.135
62.34000 -0.129
62.36000 2.154
62.38000 5.526
62.40000 5.584
62.42000 1.965
62.44000 3.222
62.46000 1.776
62.48000 -2.541
62.50000 3.585
62.52000 5.302
62.54000 1.907
62.56000 3.297
62.58000 4.677
62.60000 3.298
62.62000 4.492
62.64000 7.641
62.66000 5.574
62.68000 4.009
62.70000 2.665
62.72000 2.546
62.74000 2.587
62.76000 4.498
62.78000 5.732
62.80000 5.403
62.82000 1.937
62.84000 1.231
62.86000 2.430
62.88000 2.787
62.90000 6.477
62.92000 5.009
62.94000 7.629
62.96000 3.912
62.98000 -2.512
63.00000 3.613
63.02000 6.045
63.04000 8.402
63.06000 6.122
63.08000 5.624
63.10000 4.454
63.12000 6.008
63.14000 5.351
63.16000 6.936
63.18000 6.635
63.20000 6.381
63.22000 2.807
63.24000 1.008
63.26000 4.579
63.28000 5.575
63.30000 2.885
63.32000 4.167
63.34000 7.022
63.36000 6.724
63.38000 3.786
63.40000 4.233
63.42000 1.858
63.44000 -0.462
63.46000 2.168
63.48000 4.945
63.50000 4.044
63.52000 2.659
63.54000 2.998
63.56000 1.961
63.58000 -0.984
63.60000 4.559
63.62000 2.941
63.64000 -2.533
63.66000 0.989
63.68000 5.982
63.70000 3.609
63.72000 2.227
63.74000 2.101
63.76000 2.278
63.78000 1.512
63.80000 2.861
63.82000 3.028
63.84000 6.518
63.86000 5.158
63.88000 3.870
63.90000 2.783
63.92000 -1.674
63.94000 0.571
63.96000 1.879
63.98000 6.798
64.00000 6.630
64.02000 3.410
64.04000 6.510
64.06000 7.947
64.08000 3.767
64.10000 1.025
64.12000 5.570
64.14000 5.078
64.16000 2.650
64.18000 4.098
64.20000 5.752
64.22000 3.871
64.24000 2.687
64.26000 4.684
64.28000 5.171
64.30000 3.707
64.32000 2.092
64.34000 2.246
64.36000 3.781
64.38000 3.530
64.40000 3.653
64.42000 2.719
64.44000 3.886
64.46000 4.405
64.48000 2.785
64.50000 3.062
64.52000 2.203
64.54000 5.088
64.56000 4.876
64.58000 6.608
64.60000 9.282
64.62000 4.453
64.64000 1.203
64.66000 4.502
64.68000 6.382
64.70000 3.591
64.72000 5.166
64.74000 6.625
64.76000 5.309
64.78000 5.827
64.80000 3.295
64.82000 6.036
64.84000 4.799
64.86000 0.354
64.88000 -2.523
64.90000 1.636
64.92000 4.492
64.94000 3.018
64.96000 5.122
64.98000 4.900
65.00000 4.505
65.02000 3.056
65.04000 4.809
65.06000 6.723
65.08000 4.662
65.10000 5.854
65.12000 6.248
65.14000 3.589
65.16000 3.491
65.18000 3.750
65.20000 -1.605
65.22000 3.112
65.24000 5.916
65.26000 1.811
65.28000 3.140
65.30000 2.979
65.32000 -0.484
65.34000 -1.580
65.36000 0.300
65.38000 5.827
65.40000 3.488
65.42000 3.162
65.44000 0.389
65.46000 4.659
65.48000 7.004
65.50000 2.948
65.52000 3.554
65.54000 6.777
65.56000 1.810
65.58000 1.393
65.60000 1.368
65.62000 1.587
65.64000 -0.504
65.66000 1.597
65.68000 1.431
65.70000 1.947
65.72000 2.484
65.74000 2.393
65.76000 1.558
65.78000 -1.163
65.80000 0.595
65.82000 0.906
65.84000 1.439
65.86000 -0.893
65.88000 -1.685
65.90000 2.326
65.92000 0.921
65.94000 1.760
65.96000 2.548
65.98000 -1.099
66.00000 -2.612
66.02000 0.561
66.04000 -0.474
66.06000 0.057
66.08000 2.294
66.10000 -1.482
66.12000 -0.604
66.14000 -1.175
66.16000 0.083
66.18000 0.365
66.20000 1.448
66.22000 0.773
66.24000 -0.727
66.26000 0.139
66.28000 0.098
66.30000 0.179
66.32000 -1.260
66.34000 -1.514
66.36000 -1.729
66.38000 -0.259
66.40000 0.327
66.42000 0.756
66.44000 1.001
66.46000 2.081
66.48000 -1.481
66.50000 -1.797
66.52000 -1.765
66.54000 -0.944
66.56000 -1.487
66.58000 -2.612
66.60000 -1.898
66.62000 3.170
66.64000 0.542
66.66000 -1.236
66.68000 -2.518
66.70000 3.480
66.72000 1.326
66.74000 -1.982
66.76000 -1.462
66.78000 1.393
66.80000 0.051
66.82000 -1.688
66.84000 -0.570
66.86000 -0.430
66.88000 3.030
66.90000 5.058
66.92000 5.417
66.94000 1.003
66.96000 1.928
66.98000 2.346
67.00000 -1.870
67.02000 -2.651
67.04000 -2.041
67.06000 0.371
67.08000 1.319
67.10000 1.575
67.12000 -0.013
67.14000 -0.644
67.16000 -2.172
67.18000 -2.659
67.20000 2.404
67.22000 0.745
67.24000 -0.277
67.26000 -0.593
67.28000 -2.210
67.30000 0.995
67.32000 3.753
67.34000 2.385
67.36000 2.184
67.38000 1.198
67.40000 4.410
67.42000 1.422
67.44000 4.170
67.46000 3.391
67.48000 2.217
67.50000 2.276
67.52000 1.414
67.54000 3.717
67.56000 2.094
67.58000 3.082
67.60000 5.167
67.62000 5.238
67.64000 6.726
67.66000 5.986
67.68000 4.687
67.70000 4.146
67.72000 2.475
67.74000 5.079
67.76000 2.299
67.78000 5.394
67.80000 5.567
67.82000 5.731
67.84000 3.531
67.86000 4.649
67.88000 6.716
67.90000 6.690
67.92000 7.573
67.94000 8.203
67.96000 8.419
67.98000 7.221
68.00000 8.031
68.02000 3.157
68.04000 9.039
68.06000 7.581
68.08000 10.244
68.10000 10.130
68.12000 8.267
68.14000 8.229
68.16000 8.947
68.18000 10.447
68.20000 9.178
68.22000 8.075
68.24000 13.056
68.26000 11.142
68.28000 12.350
68.30000 17.733
68.32000 16.525
68.34000 13.282
68.36000 16.686
68.38000 16.424
68.40000 17.313
68.42000 16.733
68.44000 16.323
68.46000 17.053
68.48000 18.837
68.50000 21.997
68.52000 19.090
68.54000 15.978
68.56000 14.155
68.58000 14.785
68.60000 19.118
68.62000 19.361
68.64000 17.527
68.66000 21.613
68.68000 20.079
68.70000 17.262
68.72000 23.847
68.74000 21.933
68.76000 19.734
68.78000 23.568
68.80000 21.193
68.82000 18.375
68.84000 21.092
68.86000 22.397
68.88000 25.877
68.90000 25.158
68.92000 25.385
68.94000 21.591
68.96000 19.243
68.98000 19.146
69.00000 20.819
69.02000 23.395
69.04000 21.065
69.06000 21.952
69.08000 22.476
69.10000 23.003
69.12000 26.481
69.14000 20.226
69.16000 22.598
69.18000 21.155
69.20000 21.160
69.22000 17.950
69.24000 20.992
69.26000 22.384
69.28000 24.635
69.30000 20.625
69.32000 17.809
69.34000 18.963
69.36000 15.759
69.38000 12.432
69.40000 13.908
69.42000 17.693
69.44000 15.487
69.46000 12.056
69.48000 8.610
69.50000 12.345
69.52000 10.487
69.54000 10.355
69.56000 11.649
69.58000 11.188
69.60000 7.766
69.62000 6.449
69.64000 7.533
69.66000 9.491
69.68000 8.256
69.70000 9.280
69.72000 9.008
69.74000 7.954
69.76000 6.301
69.78000 3.202
69.80000 4.097
69.82000 6.403
69.84000 6.938
69.86000 6.808
69.88000 6.291
69.90000 7.587
69.92000 4.630
69.94000 2.915
69.96000 4.184
69.98000 5.089
70.00000 5.034
70.02000 2.581
70.04000 2.030
70.06000 5.708
70.08000 0.849
70.10000 1.630
70.12000 3.370
70.14000 2.463
70.16000 -0.423
70.18000 -0.791
70.20000 -0.718
70.22000 0.033
70.24000 1.846
70.26000 2.659
70.28000 3.038
70.30000 -0.014
70.32000 0.489
70.34000 1.103
70.36000 -0.962
70.38000 0.169
70.40000 4.531
70.42000 -2.006
70.44000 -1.396
70.46000 2.451
70.48000 2.437
70.50000 2.368
70.52000 3.314
70.54000 3.007
70.56000 4.114
70.58000 1.513
70.60000 -0.477
70.62000 -0.506
70.64000 1.603
70.66000 1.121
70.68000 -0.836
70.70000 -1.045
70.72000 -2.549
70.74000 0.681
70.76000 0.644
70.78000 -1.667
70.80000 0.972
70.82000 5.707
70.84000 1.114
70.86000 0.467
70.88000 -0.264
70.90000 -0.341
70.92000 5.875
70.94000 2.297
70.96000 -0.420
70.98000 -0.896
71.00000 2.964
71.02000 1.108
71.04000 -1.940
71.06000 -0.234
71.08000 -0.124
71.10000 5.145
71.12000 0.991
71.14000 0.108
71.16000 0.345
71.18000 1.664
71.20000 1.335
71.22000 0.289
71.24000 2.679
71.26000 3.323
71.28000 1.063
71.30000 1.182
71.32000 -1.521
71.34000 3.421
71.36000 1.249
71.38000 1.140
71.40000 5.241
71.42000 3.574
71.44000 5.890
71.46000 5.747
71.48000 2.470
71.50000 -2.453
71.52000 -1.361
71.54000 4.430
71.56000 4.811
71.58000 4.092
71.60000 2.467
71.62000 1.223
71.64000 -0.240
71.66000 5.554
71.68000 2.764
71.70000 5.253
71.72000 4.547
71.74000 0.905
71.76000 6.209
71.78000 7.460
71.80000 6.374
71.82000 3.572
71.84000 4.459
71.86000 8.232
71.88000 6.470
71.90000 3.847
71.92000 3.517
71.94000 6.255
71.96000 2.745
71.98000 1.832
72.00000 0.299
72.02000 1.125
72.04000 5.096
72.06000 2.776
72.08000 2.539
72.10000 0.505
72.12000 0.105
72.14000 3.097
72.16000 7.786
72.18000 3.423
72.20000 2.582
72.22000 -1.836
72.24000 2.130
72.26000 2.374
72.28000 5.701
72.30000 2.427
72.32000 -2.408
72.34000 2.510
72.36000 1.989
72.38000 3.195
72.40000 5.248
72.42000 2.578
72.44000 -2.397
72.46000 -0.916
72.48000 5.579
72.50000 6.628
72.52000 3.541
72.54000 6.188
72.56000 5.488
72.58000 0.793
72.60000 -2.394
72.62000 -2.194
72.64000 1.882
72.66000 5.089
72.68000 6.711
72.70000 4.853
72.72000 3.061
72.74000 3.863
72.76000 2.889
72.78000 4.023
72.80000 6.875
72.82000 7.051
72.84000 0.717
72.86000 0.105
72.88000 5.960
72.90000 5.263
72.92000 1.191
72.94000 3.251
72.96000 -0.030
72.98000 0.946
73.00000 5.587
73.02000 4.643
73.04000 2.476
73.06000 3.396
73.08000 4.285
73.10000 2.123
73.12000 -1.488
73.14000 -0.930
73.16000 -1.900
73.18000 -2.199
73.20000 4.044
73.22000 1.163
73.24000 4.053
73.26000 5.821
73.28000 2.889
73.30000 3.420
73.32000 6.092
73.34000 3.478
73.36000 2.348
73.38000 2.429
73.40000 -2.011
73.42000 1.519
73.44000 3.776
73.46000 3.794
73.48000 0.452
73.50000 1.640
73.52000 -0.218
73.54000 3.158
73.56000 0.798
73.58000 1.194
73.60000 1.539
73.62000 4.204
73.64000 2.759
73.66000 3.006
73.68000 4.312
73.70000 1.485
73.72000 2.377
73.74000 -0.730
73.76000 -2.377
73.78000 0.177
73.80000 -0.274
73.82000 0.168
73.84000 3.776
73.86000 2.683
73.88000 0.723
73.90000 5.097
73.92000 5.409
73.94000 6.560
73.96000 3.584
73.98000 1.875
74.00000 1.279
74.02000 1.182
74.04000 5.340
74.06000 2.164
74.08000 2.827
74.10000 3.848
74.12000 5.377
74.14000 8.347
74.16000 3.623
74.18000 -0.604
74.20000 4.312
74.22000 2.649
74.24000 3.169
74.26000 4.674
74.28000 5.959
74.30000 4.110
74.32000 4.171
74.34000 5.281
74.36000 2.472
74.38000 -2.331
74.40000 -2.161
74.42000 5.263
74.44000 7.612
74.46000 9.927
74.48000 6.949
74.50000 7.308
74.52000 6.275
74.54000 7.012
74.56000 8.421
74.58000 7.274
74.60000 3.463
74.62000 4.798
74.64000 1.917
74.66000 4.982
74.68000 9.576
74.70000 5.396
74.72000 7.223
74.74000 5.014
74.76000 0.986
74.78000 0.497
74.80000 3.757
74.82000 2.840
74.84000 4.103
74.86000 6.218
74.88000 7.524
74.90000 4.104
74.92000 -2.043
74.94000 -0.546
74.96000 3.647
74.98000 2.543
75.00000 4.416
75.02000 2.714
75.04000 4.163
75.06000 1.513
75.08000 -1.275
75.10000 0.908
75.12000 2.033
75.14000 0.874
75.16000 4.920
75.18000 6.554
75.20000 2.943
75.22000 -1.368
75.24000 -2.117
75.26000 1.352
75.28000 2.845
75.30000 0.788
75.32000 3.328
75.34000 3.835
75.36000 -1.267
75.38000 -0.691
75.40000 0.642
75.42000 -0.167
75.44000 -1.080
75.46000 -0.415
75.48000 6.979
75.50000 4.439
75.52000 -0.656
75.54000 1.091
75.56000 3.022
75.58000 -0.191
75.60000 -1.567
75.62000 2.134
75.64000 -0.888
75.66000 0.697
75.68000 2.432
75.70000 2.103
75.72000 1.866
75.74000 4.182
75.76000 2.849
75.78000 1.136
75.80000 -2.397
75.82000 3.981
75.84000 4.353
75.86000 0.518
75.88000 5.273
75.90000 2.312
75.92000 5.576
75.94000 4.574
75.96000 2.379
75.98000 0.825
76.00000 0.243
76.02000 -1.929
76.04000 -1.082
76.06000 1.881
76.08000 2.614
76.10000 0.847
76.12000 2.937
76.14000 1.222
76.16000 3.088
76.18000 6.641
76.20000 2.148
76.22000 6.671
76.24000 11.328
76.26000 8.358
76.28000 7.769
76.30000 5.343
76.32000 4.299
76.34000 3.046
76.36000 3.948
76.38000 2.436
76.40000 0.385
76.42000 4.430
76.44000 0.369
76.46000 2.202
76.48000 4.738
76.50000 -1.480
76.52000 0.536
76.54000 0.342
76.56000 0.249
76.58000 0.966
76.60000 3.755
76.62000 1.622
76.64000 1.230
76.66000 3.504
76.68000 0.115
76.70000 1.402
76.72000 5.789
76.74000 4.433
76.76000 5.254
76.78000 3.131
76.80000 1.394
76.82000 2.825
76.84000 4.757
76.86000 -2.374
76.88000 0.949
76.90000 1.521
76.92000 4.572
76.94000 7.197
76.96000 4.991
76.98000 3.398
77.00000 2.709
77.02000 2.856
77.04000 2.787
77.06000 4.026
77.08000 0.192
77.10000 0.597
77.12000 4.361
77.14000 8.975
77.16000 2.681
77.18000 0.892
77.20000 3.530
77.22000 6.432
77.24000 5.285
77.26000 4.330
77.28000 2.952
77.30000 3.784
77.32000 8.939
77.34000 5.049
77.36000 4.930
77.38000 2.747
77.40000 4.870
77.42000 6.310
77.44000 0.561
77.46000 -1.193
77.48000 5.939
77.50000 4.385
77.52000 3.938
77.54000 3.583
77.56000 1.921
77.58000 7.290
77.60000 2.609
77.62000 0.473
77.64000 1.108
77.66000 5.165
77.68000 6.799
77.70000 5.170
77.72000 4.268
77.74000 2.271
77.76000 3.530
77.78000 1.149
77.80000 -2.376
77.82000 2.300
77.84000 2.063
77.86000 -1.403
77.88000 1.782
77.90000 1.992
77.92000 2.854
77.94000 4.093
77.96000 0.138
77.98000 4.445
78.00000 5.488
78.02000 6.493
78.04000 2.761
78.06000 2.412
78.08000 6.630
78.10000 2.872
78.12000 1.991
78.14000 2.976
78.16000 3.132
78.18000 5.901
78.20000 2.394
78.22000 -0.651
78.24000 -0.973
78.26000 2.434
78.28000 2.199
78.30000 5.889
78.32000 2.611
78.34000 0.742
78.36000 1.039
78.38000 2.687
78.40000 3.708
78.42000 0.960
78.44000 -0.588
78.46000 1.950
78.48000 2.174
78.50000 3.899
78.52000 4.604
78.54000 1.693
78.56000 3.289
78.58000 1.045
78.60000 0.295
78.62000 8.647
78.64000 7.057
78.66000 3.303
78.68000 0.850
78.70000 1.064
78.72000 -0.660
78.74000 1.537
78.76000 3.850
78.78000 1.564
78.80000 0.150
78.82000 -2.406
78.84000 4.686
78.86000 5.108
78.88000 1.533
78.90000 2.549
78.92000 4.211
78.94000 4.572
78.96000 4.780
78.98000 6.092
79.00000 1.403
79.02000 4.345
79.04000 1.276
79.06000 1.811
79.08000 2.163
79.10000 2.409
79.12000 -0.564
79.14000 2.867
79.16000 4.100
79.18000 9.951
79.20000 7.872
79.22000 5.933
79.24000 6.875
79.26000 7.817
79.28000 4.784
79.30000 2.383
79.32000 0.782
79.34000 0.284
79.36000 -0.581
79.38000 0.001
79.40000 7.401
79.42000 4.396
79.44000 5.725
79.46000 5.207
79.48000 4.852
79.50000 -0.848
79.52000 -0.717
79.54000 1.938
79.56000 4.295
79.58000 -2.430
79.60000 1.977
79.62000 6.023
79.64000 1.344
79.66000 4.550
79.68000 1.978
79.70000 -1.512
79.72000 0.188
79.74000 3.833
79.76000 0.855
79.78000 2.531
79.80000 2.012
79.82000 4.088
79.84000 4.575
79.86000 6.384
79.88000 -1.577
79.90000 1.062
79.92000 4.338
79.94000 0.544
79.96000 3.237
79.98000 2.607
80.00000 2.466
80.02000 3.522
80.04000 1.775
80.06000 -0.326
80.08000 -0.369
80.10000 3.712
80.12000 0.535
80.14000 1.308
80.16000 4.048
80.18000 3.640
80.20000 3.684
80.22000 1.046
80.24000 -0.680
80.26000 4.247
80.28000 1.382
80.30000 3.622
80.32000 4.353
80.34000 -0.367
80.36000 -2.467
80.38000 -0.494
80.40000 3.802
80.42000 4.279
80.44000 0.485
80.46000 3.602
80.48000 4.259
80.50000 1.072
80.52000 5.717
80.54000 4.864
80.56000 4.082
80.58000 2.070
80.60000 -0.999
80.62000 -1.537
80.64000 -0.725
80.66000 1.254
80.68000 2.269
80.70000 -1.503
80.72000 -0.354
80.74000 -1.112
80.76000 0.587
80.78000 0.456
80.80000 -2.494
80.82000 -2.513
80.84000 3.229
80.86000 2.358
80.88000 0.238
80.90000 1.394
80.92000 -1.757
80.94000 2.283
80.96000 -0.058
80.98000 -2.531
81.00000 -1.106
81.02000 2.311
81.04000 3.592
81.06000 1.468
81.08000 4.774
81.10000 2.192
81.12000 1.427
81.14000 2.920
81.16000 4.617
81.18000 1.467
81.20000 3.402
81.22000 8.064
81.24000 5.829
81.26000 6.455
81.28000 3.138
81.30000 4.328
81.32000 6.508
81.34000 7.352
81.36000 6.609
81.38000 3.321
81.40000 1.945
81.42000 -0.010
81.44000 0.767
81.46000 9.141
81.48000 5.544
81.50000 3.543
81.52000 7.366
81.54000 3.205
81.56000 3.371
81.58000 4.945
81.60000 4.485
81.62000 1.122
81.64000 7.255
81.66000 6.430
81.68000 4.286
81.70000 4.882
81.72000 3.977
81.74000 5.887
81.76000 1.653
81.78000 7.721
81.80000 9.318
81.82000 9.914
81.84000 7.291
81.86000 6.675
81.88000 8.315
81.90000 3.126
81.92000 -0.861
81.94000 5.412
81.96000 12.561
81.98000 6.584
82.00000 3.718
82.02000 3.419
82.04000 2.816
82.06000 6.118
82.08000 13.084
82.10000 14.213
82.12000 11.986
82.14000 11.085
82.16000 10.241
82.18000 14.073
82.20000 15.093
82.22000 14.240
82.24000 10.555
82.26000 11.170
82.28000 11.166
82.30000 13.285
82.32000 13.490
82.34000 16.586
82.36000 20.596
82.38000 17.759
82.40000 14.148
82.42000 14.447
82.44000 12.089
82.46000 11.787
82.48000 15.124
82.50000 10.089
82.52000 10.880
82.54000 18.042
82.56000 21.981
82.58000 21.589
82.60000 19.770
82.62000 18.747
82.64000 13.251
82.66000 17.009
82.68000 15.299
82.70000 14.830
82.72000 16.661
82.74000 22.932
82.76000 22.279
82.78000 23.739
82.80000 21.877
82.82000 16.690
82.84000 16.943
82.86000 18.823
82.88000 17.795
82.90000 18.002
82.92000 23.862
82.94000 24.435
82.96000 25.667
82.98000 22.421
83.00000 19.044
83.02000 29.525
83.04000 28.519
83.06000 20.162
83.08000 20.045
83.10000 19.608
83.12000 25.865
83.14000 24.821
83.16000 24.407
83.18000 22.877
83.20000 20.253
83.22000 24.834
83.24000 24.059
83.26000 21.623
83.28000 19.826
83.30000 27.014
83.32000 27.242
83.34000 24.090
83.36000 26.327
83.38000 28.781
83.40000 29.001
83.42000 24.756
83.44000 24.327
83.46000 24.653
83.48000 26.249
83.50000 26.240
83.52000 23.581
83.54000 25.693
83.56000 26.496
83.58000 22.977
83.60000 18.504
83.62000 22.434
83.64000 22.408
83.66000 20.777
83.68000 23.416
83.70000 24.366
83.72000 23.148
83.74000 21.218
83.76000 13.596
83.78000 13.055
83.80000 18.420
83.82000 15.940
83.84000 15.515
83.86000 18.349
83.88000 26.909
83.90000 27.269
83.92000 17.018
83.94000 17.313
83.96000 17.421
83.98000 10.705
84.00000 13.491
84.02000 18.305
84.04000 17.990
84.06000 15.531
84.08000 13.138
84.10000 11.237
84.12000 10.829
84.14000 9.061
84.16000 3.028
84.18000 10.777
84.20000 14.276
84.22000 7.179
84.24000 4.458
84.26000 4.643
84.28000 4.817
84.30000 8.542
84.32000 9.417
84.34000 9.294
84.36000 9.804
84.38000 9.597
84.40000 13.422
84.42000 9.524
84.44000 9.834
84.46000 6.721
84.48000 3.442
84.50000 5.470
84.52000 6.323
84.54000 7.024
84.56000 7.195
84.58000 4.220
84.60000 4.268
84.62000 0.931
84.64000 1.993
84.66000 6.768
84.68000 2.001
84.70000 1.937
84.72000 1.787
84.74000 1.630
84.76000 1.949
84.78000 5.857
84.80000 3.736
84.82000 4.064
84.84000 3.656
84.86000 7.329
84.88000 6.926
84.90000 6.223
84.92000 7.714
84.94000 9.858
84.96000 7.517
84.98000 5.934
85.00000 6.668
85.02000 1.998
85.04000 -0.966
85.06000 -2.475
85.08000 2.778
85.10000 6.857
85.12000 2.565
85.14000 0.694
85.16000 5.102
85.18000 5.052
85.20000 3.159
85.22000 0.687
85.24000 4.836
85.26000 0.769
85.28000 3.102
85.30000 3.366
85.32000 0.205
85.34000 1.072
85.36000 0.532
85.38000 -1.239
85.40000 2.433
85.42000 9.344
85.44000 1.926
85.46000 1.582
85.48000 -0.794
85.50000 -1.302
85.52000 3.000
85.54000 2.147
85.56000 4.250
85.58000 6.170
85.60000 -2.437
85.62000 -1.092
85.64000 0.981
85.66000 2.616
85.68000 2.176
85.70000 4.524
85.72000 -0.795
85.74000 -1.178
85.76000 2.303
85.78000 2.993
85.80000 3.743
85.82000 0.357
85.84000 0.996
85.86000 4.678
85.88000 2.487
85.90000 4.054
85.92000 4.672
85.94000 3.065
85.96000 4.933
85.98000 2.746
86.00000 1.992
86.02000 2.943
86.04000 2.458
86.06000 4.572
86.08000 4.383
86.10000 2.421
86.12000 -1.257
86.14000 -2.046
86.16000 -0.131
86.18000 2.704
86.20000 -0.117
86.22000 3.652
86.24000 -0.538
86.26000 -2.487
86.28000 -1.950
86.30000 2.398
86.32000 1.675
86.34000 -0.448
86.36000 1.610
86.38000 2.161
86.40000 0.642
86.42000 3.272
86.44000 3.061
86.46000 3.942
86.48000 1.085
86.50000 -0.860
86.52000 1.228
86.54000 3.104
86.56000 5.940
86.58000 4.753
86.60000 -0.168
86.62000 2.612
86.64000 4.824
86.66000 7.091
86.68000 5.702
86.70000 8.479
86.72000 5.490
86.74000 -0.931
86.76000 2.047
86.78000 2.201
86.80000 5.445
86.82000 3.119
86.84000 5.833
86.86000 9.464
86.88000 8.846
86.90000 6.777
86.92000 5.822
86.94000 4.937
86.96000 6.585
86.98000 6.864
87.00000 5.689
87.02000 5.485
87.04000 6.363
87.06000 8.763
87.08000 10.983
87.10000 4.213
87.12000 5.357
87.14000 6.946
87.16000 6.947
87.18000 12.314
87.20000 13.487
87.22000 12.812
87.24000 10.183
87.26000 7.917
87.28000 9.970
87.30000 9.465
87.32000 10.038
87.34000 10.475
87.36000 15.523
87.38000 14.533
87.40000 16.582
87.42000 18.736
87.44000 18.736
87.46000 19.037
87.48000 19.279
87.50000 16.419
87.52000 22.310
87.54000 18.390
87.56000 19.304
87.58000 16.805
87.60000 15.619
87.62000 13.422
87.64000 11.380
87.66000 18.700
87.68000 19.329
87.70000 20.425
87.72000 10.926
87.74000 19.285
87.76000 24.020
87.78000 18.551
87.80000 18.574
87.82000 23.267
87.84000 18.292
87.86000 25.302
87.88000 23.466
87.90000 12.471
87.92000 9.303
87.94000 13.470
87.96000 15.345
87.98000 16.700
88.00000 16.058
88.02000 17.589
88.04000 16.614
88.06000 15.714
88.08000 12.232
88.10000 9.565
88.12000 16.137
88.14000 10.924
88.16000 10.289
88.18000 14.336
88.20000 10.286
88.22000 15.641
88.24000 17.616
88.26000 16.406
88.28000 14.097
88.30000 15.423
88.32000 16.131
88.34000 10.246
88.36000 12.967
88.38000 18.771
88.40000 11.752
88.42000 7.300
88.44000 10.485
88.46000 12.437
88.48000 15.264
88.50000 14.249
88.52000 8.922
88.54000 7.092
88.56000 6.335
88.58000 7.800
88.60000 9.226
88.62000 12.662
88.64000 7.097
88.66000 9.713
88.68000 10.791
88.70000 10.865
88.72000 10.369
88.74000 6.541
88.76000 8.632
88.78000 7.725
88.80000 4.091
88.82000 1.907
88.84000 2.815
88.86000 3.176
88.88000 2.183
88.90000 2.525
88.92000 5.426
88.94000 8.036
88.96000 2.057
88.98000 4.504
89.00000 4.027
89.02000 3.501
89.04000 10.520
89.06000 9.057
89.08000 3.526
89.10000 7.695
89.12000 7.245
89.14000 2.805
89.16000 4.128
89.18000 6.548
89.20000 7.432
89.22000 5.012
89.24000 5.283
89.26000 4.260
89.28000 5.794
89.30000 5.793
89.32000 3.898
89.34000 6.332
89.36000 7.143
89.38000 2.115
89.40000 2.319
89.42000 5.425
89.44000 4.305
89.46000 8.920
89.48000 6.269
89.50000 1.063
89.52000 5.314
89.54000 4.153
89.56000 1.806
89.58000 4.299
89.60000 6.197
89.62000 7.576
89.64000 3.722
89.66000 3.638
89.68000 9.101
89.70000 10.712
89.72000 10.926
89.74000 10.702
89.76000 6.982
89.78000 8.181
89.80000 4.140
89.82000 7.709
89.84000 3.311
89.86000 -2.235
89.88000 6.370
89.90000 8.005
89.92000 6.713
89.94000 2.312
89.96000 3.151
89.98000 6.542
90.00000 7.528
90.02000 4.037
90.04000 0.879
90.06000 5.835
90.08000 6.484
90.10000 6.021
90.12000 6.486
90.14000 6.859
90.16000 8.951
90.18000 -0.990
90.20000 0.297
90.22000 4.383
90.24000 6.975
90.26000 5.348
90.28000 8.221
90.30000 8.294
90.32000 7.689
90.34000 7.599
90.36000 2.136
90.38000 1.840
90.40000 4.627
90.42000 8.477
90.44000 6.834
90.46000 2.330
90.48000 -0.730
90.50000 3.275
90.52000 2.433
90.54000 3.584
90.56000 3.434
90.58000 3.113
90.60000 5.960
90.62000 4.389
90.64000 1.184
90.66000 5.506
90.68000 5.287
90.70000 2.657
90.72000 -1.414
90.74000 -2.241
90.76000 4.503
90.78000 7.625
90.80000 4.946
90.82000 6.462
90.84000 8.980
90.86000 5.941
90.88000 4.056
90.90000 7.785
90.92000 6.470
90.94000 6.516
90.96000 5.593
90.98000 4.222
91.00000 0.691
91.02000 3.410
91.04000 0.928
91.06000 2.186
91.08000 1.769
91.10000 1.451
91.12000 3.123
91.14000 8.636
91.16000 8.950
91.18000 8.304
91.20000 6.851
91.22000 7.379
91.24000 0.903
91.26000 1.278
91.28000 3.880
91.30000 6.947
91.32000 4.489
91.34000 1.655
91.36000 10.384
91.38000 7.852
91.40000 4.496
91.42000 4.719
91.44000 5.712
91.46000 6.231
91.48000 14.120
91.50000 12.331
91.52000 8.937
91.54000 5.859
91.56000 7.722
91.58000 2.780
91.60000 0.143
91.62000 1.136
91.64000 -0.510
91.66000 3.483
91.68000 6.864
91.70000 6.212
91.72000 5.356
91.74000 9.703
91.76000 7.508
91.78000 1.846
91.80000 -2.221
91.82000 3.463
91.84000 6.562
91.86000 4.941
91.88000 8.332
91.90000 4.252
91.92000 -2.219
91.94000 -1.782
91.96000 1.079
91.98000 7.162
92.00000 7.084
92.02000 7.209
92.04000 4.143
92.06000 6.344
92.08000 4.254
92.10000 5.535
92.12000 3.734
92.14000 9.164
92.16000 7.593
92.18000 3.558
92.20000 7.688
92.22000 3.068
92.24000 3.639
92.26000 1.932
92.28000 2.875
92.30000 4.280
92.32000 5.267
92.34000 5.560
92.36000 7.457
92.38000 3.367
92.40000 1.442
92.42000 -0.659
92.44000 0.980
92.46000 3.084
92.48000 4.348
92.50000 4.471
92.52000 2.005
92.54000 4.902
92.56000 5.635
92.58000 0.571
92.60000 2.656
92.62000 7.196
92.64000 3.930
92.66000 2.171
92.68000 1.598
92.70000 5.940
92.72000 5.849
92.74000 2.178
92.76000 -1.698
92.78000 -2.222
92.80000 0.589
92.82000 4.895
92.84000 6.642
92.86000 10.072
92.88000 4.960
92.90000 2.774
92.92000 6.120
92.94000 6.084
92.96000 2.456
92.98000 6.960
93.00000 5.008
93.02000 6.906
93.04000 4.192
93.06000 5.316
93.08000 3.407
93.10000 1.745
93.12000 10.608
93.14000 12.584
93.16000 9.007
93.18000 3.043
93.20000 0.298
93.22000 2.115
93.24000 3.564
93.26000 4.093
93.28000 4.479
93.30000 2.266
93.32000 3.214
93.34000 7.503
93.36000 5.465
93.38000 3.652
93.40000 4.110
93.42000 4.642
93.44000 2.327
93.46000 0.617
93.48000 2.090
93.50000 9.174
93.52000 9.182
93.54000 5.706
93.56000 3.396
93.58000 7.178
93.60000 8.454
93.62000 7.751
93.64000 9.884
93.66000 4.942
93.68000 -2.212
93.70000 -0.896
93.72000 7.303
93.74000 6.395
93.76000 1.836
93.78000 3.715
93.80000 8.418
93.82000 1.035
93.84000 4.676
93.86000 9.591
93.88000 3.733
93.90000 5.932
93.92000 3.932
93.94000 7.455
93.96000 6.059
93.98000 4.167
94.00000 4.364
94.02000 8.228
94.04000 3.643
94.06000 -0.916
94.08000 1.956
94.10000 3.130
94.12000 3.644
94.14000 4.014
94.16000 1.134
94.18000 -1.119
94.20000 1.319
94.22000 6.701
94.24000 4.140
94.26000 4.533
94.28000 3.053
94.30000 8.746
94.32000 6.381
94.34000 4.942
94.36000 4.589
94.38000 5.529
94.40000 4.522
94.42000 3.450
94.44000 4.877
94.46000 3.218
94.48000 6.729
94.50000 8.423
94.52000 7.749
94.54000 5.229
94.56000 2.830
94.58000 7.310
94.60000 6.486
94.62000 2.442
94.64000 1.939
94.66000 5.645
94.68000 3.414
94.70000 3.468
94.72000 2.662
94.74000 2.026
94.76000 4.531
94.78000 6.412
94.80000 7.717
94.82000 6.899
94.84000 2.281
94.86000 2.887
94.88000 3.456
94.90000 6.847
94.92000 8.611
94.94000 3.081
94.96000 5.563
94.98000 4.543
95.00000 5.810
95.02000 5.617
95.04000 8.554
95.06000 8.970
95.08000 8.843
95.10000 1.793
95.12000 -1.248
95.14000 4.852
95.16000 11.728
95.18000 13.177
95.20000 6.648
95.22000 5.803
95.24000 6.597
95.26000 1.757
95.28000 -1.638
95.30000 -2.223
95.32000 -0.460
95.34000 8.334
95.36000 7.821
95.38000 3.355
95.40000 7.760
95.42000 9.133
95.44000 4.952
95.46000 5.339
95.48000 4.140
95.50000 4.582
95.52000 2.940
95.54000 4.674
95.56000 1.305
95.58000 1.211
95.60000 5.187
95.62000 6.791
95.64000 4.327
95.66000 3.569
95.68000 11.249
95.70000 8.109
95.72000 7.420
95.74000 -1.473
95.76000 -0.724
95.78000 0.213
95.80000 4.014
95.82000 6.342
95.84000 3.877
95.86000 5.509
95.88000 8.418
95.90000 3.984
95.92000 1.554
95.94000 -2.169
95.96000 1.626
95.98000 4.737
96.00000 5.460
96.02000 -0.777
96.04000 6.950
96.06000 7.189
96.08000 7.628
96.10000 8.794
96.12000 9.313
96.14000 6.473
96.16000 3.660
96.18000 4.395
96.20000 5.258
96.22000 5.281
96.24000 3.735
96.26000 4.407
96.28000 2.276
96.30000 2.964
96.32000 3.550
96.34000 0.151
96.36000 3.778
96.38000 5.161
96.40000 4.777
96.42000 2.530
96.44000 -2.269
96.46000 2.441
96.48000 1.885
96.50000 2.520
96.52000 5.556
96.54000 9.593
96.56000 4.188
96.58000 8.173
96.60000 8.618
96.62000 4.237
96.64000 6.893
96.66000 2.985
96.68000 2.380
96.70000 3.720
96.72000 -0.720
96.74000 2.842
96.76000 6.084
96.78000 7.876
96.80000 5.089
96.82000 4.261
96.84000 4.716
96.86000 1.582
96.88000 7.076
96.90000 11.571
96.92000 3.241
96.94000 2.404
96.96000 5.780
96.98000 3.194
97.00000 -2.241
97.02000 5.748
97.04000 6.288
97.06000 8.880
97.08000 3.878
97.10000 1.343
97.12000 6.708
97.14000 6.547
97.16000 0.412
97.18000 -0.971
97.20000 5.834
97.22000 7.515
97.24000 9.745
97.26000 5.987
97.28000 4.668
97.30000 3.705
97.32000 4.645
97.34000 3.880
97.36000 3.565
97.38000 9.114
97.40000 12.187
97.42000 5.388
97.44000 3.013
97.46000 11.461
97.48000 7.701
97.50000 2.771
97.52000 3.607
97.54000 6.563
97.56000 5.165
97.58000 6.660
97.60000 5.325
97.62000 5.850
97.64000 1.994
97.66000 -2.239
97.68000 1.217
97.70000 1.585
97.72000 4.763
97.74000 5.283
97.76000 6.299
97.78000 3.175
97.80000 3.523
97.82000 10.327
97.84000 15.343
97.86000 10.328
97.88000 9.055
97.90000 6.803
97.92000 4.712
97.94000 2.452
97.96000 0.894
97.98000 2.156
98.00000 5.327
98.02000 5.048
98.04000 9.855
98.06000 6.607
98.08000 5.865
98.10000 5.112
98.12000 8.733
98.14000 5.656
98.16000 5.507
98.18000 6.899
98.20000 9.242
98.22000 6.594
98.24000 10.674
98.26000 1.807
98.28000 3.643
98.30000 9.237
98.32000 5.201
98.34000 0.003
98.36000 4.396
98.38000 1.126
98.40000 -0.526
98.42000 5.084
98.44000 9.587
98.46000 6.900
98.48000 20.344
98.50000 13.136
98.52000 7.700
98.54000 3.985
98.56000 6.872
98.58000 9.716
98.60000 -0.083
98.62000 3.824
98.64000 3.971
98.66000 2.825
98.68000 3.442
98.70000 1.854
98.72000 5.290
98.74000 5.784
98.76000 4.191
98.78000 12.957
98.80000 7.788
98.82000 3.199
98.84000 8.811
98.86000 4.598
98.88000 5.313
98.90000 -3.245
98.92000 5.475
98.94000 10.568
98.96000 7.838
98.98000 4.109
99.00000 2.054
99.02000 0.540
99.04000 6.048
99.06000 9.435
99.08000 17.639
99.10000 3.844
99.12000 5.021
99.14000 7.687
99.16000 3.588
99.18000 2.044
99.20000 7.395
99.22000 8.048
99.24000 12.762
99.26000 11.638
99.28000 4.134
99.30000 2.824
99.32000 1.064
99.34000 2.160
99.36000 10.170
99.38000 9.867
99.40000 14.476
99.42000 13.921
99.44000 5.705
99.46000 12.747
99.48000 0.063
99.50000 1.214
99.52000 3.781
99.54000 10.743
99.56000 9.946
99.58000 6.230
99.60000 6.365
99.62000 10.946
99.64000 11.424
99.66000 2.995
99.68000 6.211
99.70000 14.217
99.72000 8.146
99.74000 5.040
99.76000 17.444
99.78000 10.912
99.80000 2.531
99.82000 8.557
99.84000 1.165
99.86000 4.449
99.88000 9.510
99.90000 9.062
99.92000 -2.188
99.94000 -2.237
99.96000 5.279
99.98000 0.000
