'Id: "0011388" Comment: "Integrate frame 0011388_Au-Ir-Rh_Rh-rich_XRD-Mapping-235-0000.gfrmwith cursor Wedge Cursor #5" Operator: "B?rgel" Anode: "Cu" Wavelength: "1.5406" Scantype: "2Theta (TwoTheta)" TimePerStep: "1" X: "22.5" Y: "13.5" Z: "5.95" 
10.00000 0.000
10.02000 5.933
10.04000 0.888
10.06000 9.197
10.08000 11.933
10.10000 17.013
10.12000 19.007
10.14000 14.458
10.16000 14.360
10.18000 11.478
10.20000 13.534
10.22000 15.050
10.24000 10.843
10.26000 16.798
10.28000 20.692
10.30000 8.844
10.32000 14.915
10.34000 1.743
10.36000 -8.095
10.38000 16.312
10.40000 20.929
10.42000 24.925
10.44000 3.466
10.46000 11.302
10.48000 10.414
10.50000 5.170
10.52000 10.946
10.54000 19.912
10.56000 20.561
10.58000 16.739
10.60000 16.998
10.62000 23.576
10.64000 17.246
10.66000 12.526
10.68000 5.014
10.70000 -2.107
10.72000 7.283
10.74000 12.556
10.76000 19.879
10.78000 15.587
10.80000 10.903
10.82000 13.077
10.84000 13.669
10.86000 17.618
10.88000 23.458
10.90000 14.839
10.92000 17.813
10.94000 36.029
10.96000 28.284
10.98000 12.239
11.00000 22.675
11.02000 18.836
11.04000 12.437
11.06000 17.334
11.08000 14.080
11.10000 8.165
11.12000 18.326
11.14000 14.897
11.16000 17.604
11.18000 14.211
11.20000 13.020
11.22000 21.549
11.24000 28.598
11.26000 25.195
11.28000 19.870
11.30000 27.811
11.32000 21.293
11.34000 23.392
11.36000 25.845
11.38000 22.563
11.40000 16.393
11.42000 8.882
11.44000 18.360
11.46000 36.613
11.48000 25.435
11.50000 21.847
11.52000 18.527
11.54000 21.665
11.56000 18.428
11.58000 22.084
11.60000 22.741
11.62000 33.966
11.64000 40.385
11.66000 19.056
11.68000 16.618
11.70000 29.089
11.72000 30.083
11.74000 28.417
11.76000 35.811
11.78000 29.009
11.80000 23.007
11.82000 24.205
11.84000 29.832
11.86000 27.292
11.88000 35.787
11.90000 22.950
11.92000 19.159
11.94000 9.855
11.96000 11.305
11.98000 12.535
12.00000 25.753
12.02000 25.188
12.04000 15.815
12.06000 20.313
12.08000 16.541
12.10000 25.041
12.12000 29.505
12.14000 25.719
12.16000 30.894
12.18000 30.329
12.20000 38.299
12.22000 24.213
12.24000 17.465
12.26000 22.026
12.28000 20.636
12.30000 24.041
12.32000 23.140
12.34000 25.425
12.36000 22.373
12.38000 28.698
12.40000 30.770
12.42000 25.557
12.44000 35.210
12.46000 37.560
12.48000 28.521
12.50000 32.224
12.52000 37.785
12.54000 29.724
12.56000 33.146
12.58000 35.920
12.60000 37.109
12.62000 31.352
12.64000 22.247
12.66000 28.750
12.68000 29.246
12.70000 30.673
12.72000 33.891
12.74000 29.177
12.76000 22.309
12.78000 23.987
12.80000 16.039
12.82000 22.910
12.84000 23.358
12.86000 31.499
12.88000 34.411
12.90000 26.440
12.92000 25.537
12.94000 23.182
12.96000 29.411
12.98000 34.384
13.00000 28.775
13.02000 26.006
13.04000 26.319
13.06000 30.864
13.08000 26.871
13.10000 26.950
13.12000 24.161
13.14000 26.428
13.16000 34.423
13.18000 35.686
13.20000 32.345
13.22000 27.287
13.24000 30.721
13.26000 31.105
13.28000 27.596
13.30000 27.218
13.32000 29.147
13.34000 32.692
13.36000 32.148
13.38000 29.619
13.40000 24.517
13.42000 30.189
13.44000 32.656
13.46000 21.452
13.48000 19.024
13.50000 30.160
13.52000 32.420
13.54000 22.735
13.56000 20.682
13.58000 28.826
13.60000 26.229
13.62000 26.677
13.64000 25.870
13.66000 25.028
13.68000 18.865
13.70000 19.779
13.72000 25.094
13.74000 27.845
13.76000 30.868
13.78000 19.850
13.80000 21.365
13.82000 28.895
13.84000 27.607
13.86000 28.478
13.88000 29.965
13.90000 21.388
13.92000 25.744
13.94000 17.196
13.96000 14.887
13.98000 15.822
14.00000 21.471
14.02000 29.374
14.04000 34.773
14.06000 29.526
14.08000 32.460
14.10000 27.666
14.12000 21.174
14.14000 17.549
14.16000 23.681
14.18000 20.164
14.20000 18.899
14.22000 17.148
14.24000 25.971
14.26000 27.752
14.28000 25.537
14.30000 21.225
14.32000 14.454
14.34000 5.600
14.36000 13.929
14.38000 15.477
14.40000 13.169
14.42000 24.582
14.44000 18.594
14.46000 17.055
14.48000 18.739
14.50000 18.175
14.52000 14.847
14.54000 17.539
14.56000 8.628
14.58000 16.289
14.60000 21.925
14.62000 17.397
14.64000 11.917
14.66000 8.820
14.68000 7.200
14.70000 15.312
14.72000 8.905
14.74000 6.549
14.76000 14.643
14.78000 10.013
14.80000 16.859
14.82000 19.821
14.84000 9.688
14.86000 11.979
14.88000 17.533
14.90000 11.231
14.92000 9.104
14.94000 20.132
14.96000 20.885
14.98000 12.138
15.00000 18.327
15.02000 17.828
15.04000 11.898
15.06000 10.000
15.08000 16.536
15.10000 16.184
15.12000 12.091
15.14000 11.463
15.16000 16.529
15.18000 19.720
15.20000 14.559
15.22000 10.771
15.24000 13.292
15.26000 9.533
15.28000 12.230
15.30000 8.411
15.32000 1.994
15.34000 2.938
15.36000 12.298
15.38000 12.617
15.40000 4.159
15.42000 10.156
15.44000 23.593
15.46000 16.071
15.48000 14.588
15.50000 10.544
15.52000 1.507
15.54000 6.492
15.56000 11.782
15.58000 7.720
15.60000 13.437
15.62000 12.360
15.64000 9.470
15.66000 16.431
15.68000 13.637
15.70000 17.942
15.72000 11.932
15.74000 5.320
15.76000 10.201
15.78000 10.491
15.80000 10.249
15.82000 16.052
15.84000 14.619
15.86000 11.364
15.88000 4.955
15.90000 15.025
15.92000 11.669
15.94000 16.572
15.96000 13.806
15.98000 12.841
16.00000 9.786
16.02000 15.862
16.04000 22.082
16.06000 10.878
16.08000 5.093
16.10000 7.711
16.12000 14.499
16.14000 13.989
16.16000 9.961
16.18000 7.320
16.20000 4.692
16.22000 -1.959
16.24000 0.357
16.26000 3.982
16.28000 1.210
16.30000 0.820
16.32000 12.457
16.34000 18.516
16.36000 11.863
16.38000 9.322
16.40000 13.080
16.42000 3.019
16.44000 5.978
16.46000 3.583
16.48000 3.627
16.50000 9.846
16.52000 9.110
16.54000 5.340
16.56000 -1.958
16.58000 8.106
16.60000 16.442
16.62000 19.683
16.64000 19.398
16.66000 11.626
16.68000 2.081
16.70000 5.358
16.72000 11.442
16.74000 16.979
16.76000 8.876
16.78000 6.641
16.80000 1.478
16.82000 0.052
16.84000 0.940
16.86000 2.533
16.88000 3.760
16.90000 4.741
16.92000 5.698
16.94000 4.028
16.96000 1.803
16.98000 4.209
17.00000 3.321
17.02000 4.148
17.04000 3.552
17.06000 6.774
17.08000 8.176
17.10000 6.618
17.12000 2.651
17.14000 0.057
17.16000 9.604
17.18000 12.632
17.20000 1.605
17.22000 9.951
17.24000 6.150
17.26000 7.170
17.28000 4.457
17.30000 3.315
17.32000 5.568
17.34000 4.500
17.36000 12.363
17.38000 10.648
17.40000 12.493
17.42000 11.135
17.44000 9.980
17.46000 11.480
17.48000 12.481
17.50000 17.256
17.52000 3.841
17.54000 -2.014
17.56000 9.406
17.58000 9.516
17.60000 7.397
17.62000 1.066
17.64000 6.068
17.66000 7.430
17.68000 5.281
17.70000 8.333
17.72000 1.776
17.74000 3.294
17.76000 9.584
17.78000 13.584
17.80000 5.662
17.82000 -2.212
17.84000 0.117
17.86000 2.768
17.88000 8.168
17.90000 5.159
17.92000 3.672
17.94000 -2.854
17.96000 -3.718
17.98000 -4.350
18.00000 -1.802
18.02000 3.272
18.04000 4.275
18.06000 3.538
18.08000 -1.038
18.10000 8.171
18.12000 17.376
18.14000 8.416
18.16000 2.034
18.18000 -4.298
18.20000 4.973
18.22000 14.342
18.24000 9.287
18.26000 4.956
18.28000 2.982
18.30000 2.219
18.32000 0.359
18.34000 0.893
18.36000 6.093
18.38000 3.308
18.40000 0.494
18.42000 7.772
18.44000 10.018
18.46000 5.219
18.48000 7.991
18.50000 5.990
18.52000 9.258
18.54000 11.793
18.56000 10.640
18.58000 4.189
18.60000 5.638
18.62000 8.436
18.64000 8.473
18.66000 8.178
18.68000 5.450
18.70000 8.023
18.72000 10.906
18.74000 4.637
18.76000 0.786
18.78000 10.961
18.80000 10.901
18.82000 9.137
18.84000 6.696
18.86000 3.058
18.88000 -0.031
18.90000 -4.276
18.92000 -4.029
18.94000 1.478
18.96000 3.525
18.98000 9.006
19.00000 12.948
19.02000 12.728
19.04000 13.494
19.06000 10.626
19.08000 14.779
19.10000 15.123
19.12000 5.309
19.14000 6.787
19.16000 13.313
19.18000 5.791
19.20000 9.143
19.22000 10.826
19.24000 8.834
19.26000 10.352
19.28000 2.304
19.30000 0.978
19.32000 6.454
19.34000 7.863
19.36000 7.722
19.38000 8.976
19.40000 6.288
19.42000 0.405
19.44000 -3.120
19.46000 -1.895
19.48000 6.320
19.50000 5.944
19.52000 8.856
19.54000 3.513
19.56000 6.180
19.58000 9.088
19.60000 3.929
19.62000 -2.079
19.64000 3.256
19.66000 7.811
19.68000 7.805
19.70000 4.333
19.72000 4.056
19.74000 9.345
19.76000 14.783
19.78000 14.538
19.80000 0.390
19.82000 0.256
19.84000 5.449
19.86000 9.151
19.88000 -3.775
19.90000 1.670
19.92000 13.101
19.94000 0.808
19.96000 -4.213
19.98000 2.326
20.00000 4.014
20.02000 7.637
20.04000 10.073
20.06000 3.772
20.08000 6.015
20.10000 13.016
20.12000 10.994
20.14000 1.427
20.16000 -0.305
20.18000 3.639
20.20000 5.343
20.22000 6.157
20.24000 5.268
20.26000 13.069
20.28000 12.012
20.30000 11.147
20.32000 7.087
20.34000 1.901
20.36000 3.447
20.38000 3.088
20.40000 4.643
20.42000 1.794
20.44000 4.554
20.46000 2.019
20.48000 5.929
20.50000 12.707
20.52000 10.721
20.54000 5.181
20.56000 9.303
20.58000 10.473
20.60000 3.384
20.62000 5.816
20.64000 4.387
20.66000 6.446
20.68000 7.458
20.70000 1.677
20.72000 3.414
20.74000 0.841
20.76000 -0.055
20.78000 6.256
20.80000 2.601
20.82000 3.784
20.84000 4.862
20.86000 10.789
20.88000 5.777
20.90000 11.269
20.92000 11.844
20.94000 9.815
20.96000 7.834
20.98000 -1.666
21.00000 -1.022
21.02000 0.861
21.04000 5.574
21.06000 7.278
21.08000 13.070
21.10000 11.710
21.12000 6.898
21.14000 7.030
21.16000 4.740
21.18000 3.230
21.20000 0.375
21.22000 4.515
21.24000 7.250
21.26000 11.082
21.28000 8.317
21.30000 11.391
21.32000 7.508
21.34000 5.450
21.36000 -2.141
21.38000 -3.397
21.40000 3.352
21.42000 7.527
21.44000 4.608
21.46000 8.049
21.48000 9.500
21.50000 11.372
21.52000 5.557
21.54000 8.020
21.56000 6.444
21.58000 2.050
21.60000 -0.689
21.62000 1.447
21.64000 5.970
21.66000 7.174
21.68000 9.656
21.70000 4.415
21.72000 7.512
21.74000 11.893
21.76000 9.072
21.78000 2.987
21.80000 3.470
21.82000 9.027
21.84000 8.466
21.86000 3.896
21.88000 0.444
21.90000 11.760
21.92000 6.246
21.94000 -4.110
21.96000 -0.012
21.98000 7.801
22.00000 8.938
22.02000 8.523
22.04000 10.995
22.06000 6.242
22.08000 8.167
22.10000 10.711
22.12000 1.747
22.14000 -4.103
22.16000 6.188
22.18000 6.450
22.20000 3.894
22.22000 5.096
22.24000 2.132
22.26000 4.366
22.28000 10.657
22.30000 12.054
22.32000 5.385
22.34000 5.797
22.36000 7.468
22.38000 3.873
22.40000 4.003
22.42000 1.112
22.44000 -1.165
22.46000 8.989
22.48000 3.697
22.50000 0.865
22.52000 8.236
22.54000 5.535
22.56000 0.253
22.58000 -0.791
22.60000 0.553
22.62000 -0.700
22.64000 -0.106
22.66000 6.399
22.68000 9.328
22.70000 6.160
22.72000 4.864
22.74000 5.608
22.76000 9.710
22.78000 8.490
22.80000 4.098
22.82000 4.553
22.84000 6.722
22.86000 12.040
22.88000 10.508
22.90000 2.912
22.92000 3.545
22.94000 2.813
22.96000 6.279
22.98000 6.004
23.00000 4.904
23.02000 -1.872
23.04000 0.195
23.06000 5.411
23.08000 4.812
23.10000 6.371
23.12000 8.187
23.14000 0.693
23.16000 -1.433
23.18000 2.892
23.20000 5.910
23.22000 2.386
23.24000 1.716
23.26000 1.142
23.28000 0.679
23.30000 -1.705
23.32000 2.360
23.34000 2.930
23.36000 2.490
23.38000 6.040
23.40000 7.708
23.42000 3.957
23.44000 1.802
23.46000 2.569
23.48000 0.350
23.50000 0.525
23.52000 6.243
23.54000 11.115
23.56000 5.774
23.58000 -1.160
23.60000 -1.544
23.62000 -2.295
23.64000 -4.056
23.66000 0.124
23.68000 1.215
23.70000 8.688
23.72000 6.572
23.74000 4.137
23.76000 1.230
23.78000 0.046
23.80000 -0.125
23.82000 -3.656
23.84000 0.301
23.86000 4.182
23.88000 -2.179
23.90000 3.137
23.92000 4.752
23.94000 1.469
23.96000 1.778
23.98000 0.766
24.00000 -1.571
24.02000 -1.334
24.04000 5.489
24.06000 3.363
24.08000 -3.175
24.10000 4.900
24.12000 9.396
24.14000 0.441
24.16000 3.167
24.18000 8.939
24.20000 1.828
24.22000 -0.514
24.24000 4.035
24.26000 4.079
24.28000 7.167
24.30000 7.003
24.32000 1.573
24.34000 4.148
24.36000 12.525
24.38000 9.500
24.40000 5.311
24.42000 5.887
24.44000 1.082
24.46000 -1.324
24.48000 -0.691
24.50000 -0.044
24.52000 -0.340
24.54000 0.739
24.56000 -1.220
24.58000 3.362
24.60000 9.917
24.62000 2.718
24.64000 2.091
24.66000 7.236
24.68000 3.153
24.70000 8.092
24.72000 6.686
24.74000 5.013
24.76000 6.884
24.78000 8.751
24.80000 3.640
24.82000 4.236
24.84000 2.407
24.86000 3.189
24.88000 3.059
24.90000 2.033
24.92000 3.780
24.94000 0.625
24.96000 -0.527
24.98000 0.358
25.00000 5.656
25.02000 8.536
25.04000 9.558
25.06000 4.354
25.08000 1.644
25.10000 2.040
25.12000 -1.989
25.14000 -1.735
25.16000 2.070
25.18000 1.083
25.20000 2.126
25.22000 -2.606
25.24000 -2.800
25.26000 0.895
25.28000 -1.491
25.30000 0.154
25.32000 0.660
25.34000 -3.955
25.36000 0.178
25.38000 4.264
25.40000 5.015
25.42000 5.416
25.44000 -0.390
25.46000 -0.173
25.48000 3.668
25.50000 0.906
25.52000 4.219
25.54000 4.680
25.56000 5.588
25.58000 6.014
25.60000 5.799
25.62000 0.694
25.64000 -0.721
25.66000 5.790
25.68000 4.943
25.70000 3.050
25.72000 2.524
25.74000 0.374
25.76000 5.308
25.78000 0.677
25.80000 2.196
25.82000 5.808
25.84000 6.743
25.86000 -1.511
25.88000 -3.580
25.90000 -3.932
25.92000 4.045
25.94000 8.148
25.96000 3.578
25.98000 4.386
26.00000 0.767
26.02000 1.666
26.04000 5.886
26.06000 7.301
26.08000 7.697
26.10000 -0.889
26.12000 1.588
26.14000 4.856
26.16000 3.022
26.18000 1.452
26.20000 3.651
26.22000 4.266
26.24000 0.624
26.26000 4.647
26.28000 3.915
26.30000 1.536
26.32000 0.856
26.34000 1.986
26.36000 0.734
26.38000 4.514
26.40000 6.461
26.42000 7.486
26.44000 4.684
26.46000 -2.465
26.48000 -2.993
26.50000 -3.822
26.52000 2.665
26.54000 3.848
26.56000 -0.220
26.58000 5.062
26.60000 6.284
26.62000 3.522
26.64000 5.618
26.66000 9.107
26.68000 4.678
26.70000 3.653
26.72000 -0.607
26.74000 1.720
26.76000 4.794
26.78000 3.274
26.80000 3.357
26.82000 5.035
26.84000 5.522
26.86000 0.589
26.88000 -3.050
26.90000 2.469
26.92000 1.665
26.94000 3.116
26.96000 6.612
26.98000 2.852
27.00000 -3.713
27.02000 -3.883
27.04000 0.925
27.06000 6.029
27.08000 2.915
27.10000 0.251
27.12000 0.911
27.14000 3.114
27.16000 1.111
27.18000 2.538
27.20000 2.667
27.22000 3.879
27.24000 5.081
27.26000 6.245
27.28000 -2.766
27.30000 -1.829
27.32000 5.211
27.34000 4.691
27.36000 0.903
27.38000 2.538
27.40000 1.399
27.42000 4.359
27.44000 1.815
27.46000 1.172
27.48000 1.911
27.50000 1.251
27.52000 0.771
27.54000 3.546
27.56000 3.683
27.58000 1.722
27.60000 3.277
27.62000 8.109
27.64000 2.944
27.66000 0.858
27.68000 2.256
27.70000 3.660
27.72000 -0.614
27.74000 -3.833
27.76000 -0.226
27.78000 0.275
27.80000 0.806
27.82000 1.886
27.84000 1.315
27.86000 2.724
27.88000 2.767
27.90000 1.818
27.92000 2.756
27.94000 -2.339
27.96000 -1.470
27.98000 -0.786
28.00000 5.214
28.02000 7.153
28.04000 7.153
28.06000 5.227
28.08000 -0.653
28.10000 4.267
28.12000 6.413
28.14000 6.362
28.16000 7.715
28.18000 8.332
28.20000 4.576
28.22000 -2.033
28.24000 -1.405
28.26000 0.613
28.28000 -2.760
28.30000 0.672
28.32000 -2.168
28.34000 4.107
28.36000 1.851
28.38000 3.620
28.40000 4.017
28.42000 4.344
28.44000 4.662
28.46000 6.244
28.48000 6.579
28.50000 2.271
28.52000 5.066
28.54000 9.502
28.56000 3.416
28.58000 -3.773
28.60000 0.190
28.62000 3.805
28.64000 3.006
28.66000 0.696
28.68000 6.806
28.70000 8.615
28.72000 3.179
28.74000 3.877
28.76000 3.338
28.78000 8.746
28.80000 5.892
28.82000 8.436
28.84000 4.247
28.86000 5.199
28.88000 5.314
28.90000 1.512
28.92000 4.830
28.94000 7.024
28.96000 9.555
28.98000 2.851
29.00000 6.498
29.02000 11.745
29.04000 6.311
29.06000 6.453
29.08000 6.852
29.10000 6.954
29.12000 2.606
29.14000 2.530
29.16000 2.080
29.18000 6.716
29.20000 -0.145
29.22000 -0.946
29.24000 0.531
29.26000 0.586
29.28000 -3.759
29.30000 1.883
29.32000 8.305
29.34000 0.745
29.36000 2.972
29.38000 2.524
29.40000 4.756
29.42000 1.947
29.44000 0.633
29.46000 2.280
29.48000 2.513
29.50000 -0.710
29.52000 -2.475
29.54000 -3.284
29.56000 2.810
29.58000 0.431
29.60000 -3.189
29.62000 1.741
29.64000 3.266
29.66000 -0.403
29.68000 -2.141
29.70000 7.359
29.72000 6.275
29.74000 0.609
29.76000 -2.792
29.78000 -1.463
29.80000 2.753
29.82000 2.370
29.84000 2.347
29.86000 3.082
29.88000 0.886
29.90000 6.638
29.92000 6.352
29.94000 2.779
29.96000 7.081
29.98000 2.460
30.00000 1.629
30.02000 1.547
30.04000 1.796
30.06000 3.947
30.08000 -1.352
30.10000 -3.722
30.12000 -2.398
30.14000 0.159
30.16000 2.880
30.18000 1.631
30.20000 2.981
30.22000 3.168
30.24000 2.004
30.26000 3.789
30.28000 -0.118
30.30000 -3.712
30.32000 -1.804
30.34000 -0.271
30.36000 4.471
30.38000 -0.805
30.40000 -2.827
30.42000 0.447
30.44000 -0.871
30.46000 1.129
30.48000 4.669
30.50000 1.509
30.52000 4.940
30.54000 7.234
30.56000 -0.063
30.58000 -2.230
30.60000 -0.632
30.62000 -1.500
30.64000 -3.233
30.66000 -0.955
30.68000 2.469
30.70000 -1.629
30.72000 -0.344
30.74000 4.634
30.76000 8.010
30.78000 2.540
30.80000 -0.165
30.82000 6.493
30.84000 0.113
30.86000 -2.070
30.88000 -0.218
30.90000 4.323
30.92000 1.024
30.94000 1.103
30.96000 3.621
30.98000 2.151
31.00000 5.595
31.02000 6.225
31.04000 3.949
31.06000 -0.141
31.08000 0.688
31.10000 -1.386
31.12000 -1.664
31.14000 -1.442
31.16000 -1.003
31.18000 -1.345
31.20000 0.041
31.22000 3.197
31.24000 0.460
31.26000 1.043
31.28000 -3.678
31.30000 -3.126
31.32000 5.842
31.34000 4.704
31.36000 1.945
31.38000 -2.098
31.40000 2.370
31.42000 2.478
31.44000 -2.146
31.46000 -1.004
31.48000 2.066
31.50000 4.429
31.52000 1.742
31.54000 -1.398
31.56000 1.432
31.58000 3.608
31.60000 0.272
31.62000 -3.656
31.64000 0.575
31.66000 5.820
31.68000 0.707
31.70000 -2.220
31.72000 0.820
31.74000 1.021
31.76000 3.072
31.78000 0.950
31.80000 -3.039
31.82000 -0.132
31.84000 2.455
31.86000 5.496
31.88000 4.742
31.90000 0.595
31.92000 -3.638
31.94000 -1.657
31.96000 -0.488
31.98000 -2.125
32.00000 -1.223
32.02000 1.609
32.04000 4.009
32.06000 0.952
32.08000 -1.643
32.10000 -0.784
32.12000 1.502
32.14000 1.736
32.16000 1.598
32.18000 3.472
32.20000 3.846
32.22000 2.812
32.24000 2.753
32.26000 5.111
32.28000 6.243
32.30000 2.505
32.32000 1.541
32.34000 2.863
32.36000 0.317
32.38000 -1.346
32.40000 4.251
32.42000 9.147
32.44000 9.397
32.46000 7.899
32.48000 2.837
32.50000 3.675
32.52000 1.481
32.54000 -0.570
32.56000 -2.644
32.58000 -3.619
32.60000 0.971
32.62000 3.540
32.64000 4.827
32.66000 5.097
32.68000 7.617
32.70000 6.876
32.72000 2.467
32.74000 0.390
32.76000 1.668
32.78000 1.528
32.80000 0.998
32.82000 3.391
32.84000 5.180
32.86000 2.013
32.88000 1.296
32.90000 3.254
32.92000 0.818
32.94000 2.148
32.96000 4.306
32.98000 4.923
33.00000 0.405
33.02000 -0.585
33.04000 0.084
33.06000 2.295
33.08000 3.734
33.10000 4.121
33.12000 3.027
33.14000 0.843
33.16000 3.573
33.18000 4.234
33.20000 2.805
33.22000 2.969
33.24000 0.331
33.26000 -0.841
33.28000 2.465
33.30000 3.952
33.32000 2.601
33.34000 3.752
33.36000 5.300
33.38000 3.034
33.40000 2.830
33.42000 1.954
33.44000 3.499
33.46000 4.833
33.48000 1.540
33.50000 0.436
33.52000 4.700
33.54000 2.165
33.56000 0.822
33.58000 2.718
33.60000 1.243
33.62000 0.933
33.64000 2.758
33.66000 4.552
33.68000 2.442
33.70000 1.436
33.72000 8.020
33.74000 4.541
33.76000 1.471
33.78000 -3.584
33.80000 3.013
33.82000 4.557
33.84000 3.569
33.86000 -1.814
33.88000 -3.491
33.90000 5.202
33.92000 7.260
33.94000 3.889
33.96000 0.700
33.98000 3.287
34.00000 -0.490
34.02000 -0.106
34.04000 0.996
34.06000 6.017
34.08000 5.894
34.10000 7.963
34.12000 1.947
34.14000 4.483
34.16000 8.096
34.18000 5.443
34.20000 1.191
34.22000 -0.968
34.24000 2.379
34.26000 5.411
34.28000 5.611
34.30000 1.351
34.32000 4.340
34.34000 -1.120
34.36000 0.194
34.38000 0.469
34.40000 5.992
34.42000 7.491
34.44000 5.117
34.46000 5.129
34.48000 3.197
34.50000 3.022
34.52000 6.886
34.54000 1.207
34.56000 1.550
34.58000 6.032
34.60000 5.088
34.62000 5.581
34.64000 0.249
34.66000 3.444
34.68000 5.635
34.70000 1.534
34.72000 0.464
34.74000 1.106
34.76000 1.472
34.78000 3.820
34.80000 3.674
34.82000 5.947
34.84000 7.949
34.86000 5.830
34.88000 4.825
34.90000 2.115
34.92000 -1.009
34.94000 -0.634
34.96000 -3.545
34.98000 0.940
35.00000 -0.369
35.02000 0.904
35.04000 -0.278
35.06000 2.916
35.08000 8.171
35.10000 13.374
35.12000 7.411
35.14000 4.865
35.16000 2.685
35.18000 -2.303
35.20000 -0.784
35.22000 -0.811
35.24000 -3.249
35.26000 -2.224
35.28000 1.351
35.30000 1.458
35.32000 3.314
35.34000 3.580
35.36000 3.050
35.38000 1.055
35.40000 0.062
35.42000 4.700
35.44000 1.672
35.46000 0.680
35.48000 5.709
35.50000 2.863
35.52000 2.414
35.54000 4.387
35.56000 9.217
35.58000 2.771
35.60000 3.000
35.62000 4.377
35.64000 3.846
35.66000 -0.820
35.68000 -1.791
35.70000 -1.711
35.72000 5.355
35.74000 6.672
35.76000 4.800
35.78000 0.342
35.80000 -2.791
35.82000 2.597
35.84000 4.934
35.86000 5.575
35.88000 -0.025
35.90000 6.291
35.92000 8.188
35.94000 5.070
35.96000 1.565
35.98000 4.333
36.00000 1.719
36.02000 -2.873
36.04000 -3.228
36.06000 -3.546
36.08000 0.824
36.10000 4.191
36.12000 3.965
36.14000 -0.400
36.16000 -1.191
36.18000 -1.056
36.20000 0.608
36.22000 2.284
36.24000 -0.357
36.26000 4.020
36.28000 7.582
36.30000 5.788
36.32000 4.122
36.34000 0.606
36.36000 -1.954
36.38000 -3.265
36.40000 1.452
36.42000 6.975
36.44000 6.175
36.46000 0.058
36.48000 0.923
36.50000 0.522
36.52000 6.052
36.54000 4.694
36.56000 4.347
36.58000 9.097
36.60000 9.761
36.62000 7.823
36.64000 2.466
36.66000 4.553
36.68000 9.266
36.70000 3.709
36.72000 -1.600
36.74000 -3.534
36.76000 0.710
36.78000 1.650
36.80000 3.702
36.82000 6.253
36.84000 4.251
36.86000 2.047
36.88000 3.695
36.90000 -0.895
36.92000 -0.185
36.94000 0.469
36.96000 6.394
36.98000 2.979
37.00000 -2.858
37.02000 -2.462
37.04000 5.883
37.06000 5.351
37.08000 3.527
37.10000 0.994
37.12000 1.418
37.14000 -0.136
37.16000 -3.600
37.18000 -2.332
37.20000 -1.008
37.22000 2.355
37.24000 3.247
37.26000 1.349
37.28000 1.498
37.30000 -0.942
37.32000 -1.176
37.34000 -0.362
37.36000 1.741
37.38000 3.251
37.40000 1.577
37.42000 4.631
37.44000 3.906
37.46000 1.879
37.48000 1.818
37.50000 1.439
37.52000 1.135
37.54000 4.292
37.56000 -0.170
37.58000 -0.250
37.60000 3.076
37.62000 1.465
37.64000 0.702
37.66000 3.836
37.68000 3.842
37.70000 -3.439
37.72000 0.422
37.74000 5.393
37.76000 -0.762
37.78000 2.533
37.80000 5.536
37.82000 5.024
37.84000 4.533
37.86000 3.863
37.88000 1.263
37.90000 2.313
37.92000 7.415
37.94000 9.059
37.96000 6.969
37.98000 5.306
38.00000 2.134
38.02000 2.953
38.04000 7.900
38.06000 8.261
38.08000 9.715
38.10000 7.276
38.12000 4.716
38.14000 9.304
38.16000 8.043
38.18000 8.184
38.20000 9.787
38.22000 8.763
38.24000 13.168
38.26000 13.101
38.28000 14.735
38.30000 12.132
38.32000 11.354
38.34000 11.218
38.36000 16.880
38.38000 16.580
38.40000 7.370
38.42000 10.348
38.44000 17.405
38.46000 24.371
38.48000 21.364
38.50000 14.551
38.52000 12.074
38.54000 15.008
38.56000 15.490
38.58000 17.991
38.60000 18.658
38.62000 16.756
38.64000 21.600
38.66000 22.540
38.68000 19.317
38.70000 17.894
38.72000 23.129
38.74000 20.411
38.76000 22.091
38.78000 26.876
38.80000 20.672
38.82000 21.399
38.84000 22.508
38.86000 17.698
38.88000 20.714
38.90000 24.237
38.92000 26.737
38.94000 30.574
38.96000 28.957
38.98000 29.298
39.00000 33.459
39.02000 32.987
39.04000 31.079
39.06000 31.306
39.08000 39.918
39.10000 42.417
39.12000 45.429
39.14000 45.760
39.16000 41.419
39.18000 37.844
39.20000 45.728
39.22000 55.240
39.24000 51.953
39.26000 49.102
39.28000 46.393
39.30000 58.101
39.32000 62.006
39.34000 59.823
39.36000 61.364
39.38000 60.396
39.40000 65.106
39.42000 69.750
39.44000 75.517
39.46000 80.910
39.48000 76.941
39.50000 87.858
39.52000 90.890
39.54000 90.977
39.56000 94.359
39.58000 96.624
39.60000 104.406
39.62000 113.043
39.64000 112.578
39.66000 113.911
39.68000 123.666
39.70000 134.011
39.72000 142.956
39.74000 153.146
39.76000 150.072
39.78000 150.015
39.80000 157.353
39.82000 173.554
39.84000 184.635
39.86000 190.949
39.88000 201.236
39.90000 222.615
39.92000 227.080
39.94000 229.699
39.96000 239.607
39.98000 256.243
40.00000 264.894
40.02000 281.303
40.04000 299.285
40.06000 304.302
40.08000 320.992
40.10000 330.668
40.12000 343.527
40.14000 363.175
40.16000 375.370
40.18000 388.731
40.20000 405.780
40.22000 434.804
40.24000 445.142
40.26000 451.370
40.28000 460.241
40.30000 492.364
40.32000 506.195
40.34000 517.841
40.36000 534.486
40.38000 548.566
40.40000 567.207
40.42000 583.171
40.44000 591.311
40.46000 598.074
40.48000 617.730
40.50000 626.699
40.52000 627.749
40.54000 624.285
40.56000 629.341
40.58000 635.841
40.60000 636.495
40.62000 624.300
40.64000 625.338
40.66000 626.124
40.68000 608.275
40.70000 599.923
40.72000 588.344
40.74000 578.544
40.76000 569.359
40.78000 556.820
40.80000 551.922
40.82000 538.017
40.84000 513.440
40.86000 497.600
40.88000 474.452
40.90000 458.918
40.92000 446.134
40.94000 437.159
40.96000 418.085
40.98000 406.748
41.00000 389.272
41.02000 378.919
41.04000 354.791
41.06000 331.030
41.08000 318.248
41.10000 306.940
41.12000 296.539
41.14000 281.172
41.16000 271.999
41.18000 253.800
41.20000 233.368
41.22000 219.775
41.24000 207.558
41.26000 203.960
41.28000 191.266
41.30000 182.700
41.32000 165.206
41.34000 154.228
41.36000 147.798
41.38000 151.105
41.40000 138.099
41.42000 130.449
41.44000 130.743
41.46000 124.364
41.48000 114.990
41.50000 107.424
41.52000 99.949
41.54000 91.548
41.56000 83.705
41.58000 78.875
41.60000 79.524
41.62000 74.213
41.64000 74.215
41.66000 70.375
41.68000 68.421
41.70000 67.788
41.72000 60.167
41.74000 59.195
41.76000 57.587
41.78000 54.514
41.80000 50.339
41.82000 43.730
41.84000 38.645
41.86000 39.849
41.88000 36.419
41.90000 31.995
41.92000 34.185
41.94000 35.574
41.96000 30.821
41.98000 32.873
42.00000 32.964
42.02000 30.860
42.04000 28.732
42.06000 25.858
42.08000 24.639
42.10000 20.172
42.12000 22.970
42.14000 20.777
42.16000 19.459
42.18000 20.769
42.20000 21.274
42.22000 17.830
42.24000 17.098
42.26000 16.687
42.28000 11.057
42.30000 11.966
42.32000 11.445
42.34000 14.134
42.36000 13.488
42.38000 17.451
42.40000 16.177
42.42000 13.819
42.44000 11.567
42.46000 9.822
42.48000 4.798
42.50000 4.183
42.52000 7.080
42.54000 8.156
42.56000 9.120
42.58000 10.979
42.60000 7.954
42.62000 5.651
42.64000 7.950
42.66000 5.714
42.68000 7.438
42.70000 7.614
42.72000 5.759
42.74000 3.039
42.76000 5.202
42.78000 2.487
42.80000 1.034
42.82000 1.053
42.84000 6.358
42.86000 5.197
42.88000 6.519
42.90000 7.660
42.92000 5.872
42.94000 3.523
42.96000 3.606
42.98000 2.087
43.00000 4.464
43.02000 5.697
43.04000 5.370
43.06000 5.307
43.08000 4.412
43.10000 4.921
43.12000 6.821
43.14000 4.162
43.16000 3.634
43.18000 2.145
43.20000 1.431
43.22000 -2.623
43.24000 -3.589
43.26000 -1.177
43.28000 2.158
43.30000 5.973
43.32000 1.025
43.34000 3.591
43.36000 0.727
43.38000 -1.984
43.40000 3.839
43.42000 2.552
43.44000 -2.502
43.46000 1.937
43.48000 2.329
43.50000 -1.943
43.52000 1.454
43.54000 -1.475
43.56000 -3.568
43.58000 -2.305
43.60000 -0.501
43.62000 6.177
43.64000 5.431
43.66000 3.285
43.68000 -2.680
43.70000 -2.781
43.72000 -0.791
43.74000 0.214
43.76000 3.157
43.78000 6.767
43.80000 7.302
43.82000 5.069
43.84000 4.524
43.86000 -0.590
43.88000 -1.064
43.90000 -0.095
43.92000 0.257
43.94000 2.369
43.96000 0.197
43.98000 -0.950
44.00000 2.961
44.02000 2.079
44.04000 -2.773
44.06000 -3.164
44.08000 1.284
44.10000 -2.457
44.12000 -3.534
44.14000 -1.564
44.16000 3.303
44.18000 0.662
44.20000 -3.063
44.22000 -0.515
44.24000 3.115
44.26000 0.081
44.28000 0.158
44.30000 1.063
44.32000 3.766
44.34000 1.154
44.36000 1.663
44.38000 -0.539
44.40000 2.211
44.42000 -0.535
44.44000 -1.058
44.46000 3.896
44.48000 1.797
44.50000 -3.487
44.52000 -1.869
44.54000 -1.242
44.56000 1.773
44.58000 3.976
44.60000 3.625
44.62000 0.693
44.64000 2.388
44.66000 3.061
44.68000 1.250
44.70000 -0.366
44.72000 2.727
44.74000 4.875
44.76000 5.250
44.78000 6.948
44.80000 8.162
44.82000 0.043
44.84000 -1.714
44.86000 -3.491
44.88000 0.909
44.90000 4.928
44.92000 6.899
44.94000 2.493
44.96000 2.548
44.98000 3.346
45.00000 6.325
45.02000 5.060
45.04000 1.789
45.06000 3.377
45.08000 7.805
45.10000 6.705
45.12000 3.571
45.14000 6.955
45.16000 10.409
45.18000 5.006
45.20000 6.018
45.22000 2.944
45.24000 7.061
45.26000 9.938
45.28000 9.048
45.30000 7.205
45.32000 7.893
45.34000 5.632
45.36000 2.560
45.38000 6.759
45.40000 10.111
45.42000 10.502
45.44000 7.843
45.46000 3.567
45.48000 5.891
45.50000 6.919
45.52000 11.032
45.54000 9.677
45.56000 9.056
45.58000 12.068
45.60000 11.309
45.62000 10.965
45.64000 10.251
45.66000 14.490
45.68000 16.791
45.70000 16.809
45.72000 20.325
45.74000 15.600
45.76000 8.187
45.78000 7.846
45.80000 12.781
45.82000 20.240
45.84000 15.531
45.86000 17.550
45.88000 21.732
45.90000 22.497
45.92000 22.467
45.94000 19.861
45.96000 22.110
45.98000 23.005
46.00000 22.759
46.02000 23.517
46.04000 27.103
46.06000 29.042
46.08000 29.017
46.10000 31.978
46.12000 25.693
46.14000 25.523
46.16000 25.869
46.18000 35.261
46.20000 35.460
46.22000 30.612
46.24000 35.680
46.26000 36.881
46.28000 37.753
46.30000 36.724
46.32000 37.849
46.34000 43.251
46.36000 45.420
46.38000 43.728
46.40000 38.034
46.42000 43.893
46.44000 43.849
46.46000 53.802
46.48000 44.907
46.50000 46.405
46.52000 49.902
46.54000 54.059
46.56000 59.261
46.58000 54.587
46.60000 51.286
46.62000 53.254
46.64000 52.318
46.66000 56.100
46.68000 63.789
46.70000 56.943
46.72000 59.457
46.74000 60.961
46.76000 63.552
46.78000 64.529
46.80000 71.630
46.82000 72.236
46.84000 70.554
46.86000 69.214
46.88000 62.370
46.90000 67.670
46.92000 74.361
46.94000 67.363
46.96000 71.383
46.98000 80.018
47.00000 83.384
47.02000 81.957
47.04000 78.961
47.06000 76.730
47.08000 76.298
47.10000 75.391
47.12000 76.048
47.14000 84.446
47.16000 83.009
47.18000 75.785
47.20000 72.840
47.22000 73.117
47.24000 73.982
47.26000 76.141
47.28000 78.272
47.30000 71.901
47.32000 72.059
47.34000 73.309
47.36000 74.438
47.38000 73.485
47.40000 67.783
47.42000 66.955
47.44000 70.918
47.46000 77.296
47.48000 68.184
47.50000 69.625
47.52000 70.072
47.54000 70.955
47.56000 66.715
47.58000 53.341
47.60000 57.151
47.62000 59.628
47.64000 65.401
47.66000 60.496
47.68000 55.842
47.70000 59.788
47.72000 53.297
47.74000 47.546
47.76000 46.222
47.78000 34.567
47.80000 36.202
47.82000 47.285
47.84000 45.588
47.86000 39.321
47.88000 33.692
47.90000 29.308
47.92000 34.403
47.94000 35.944
47.96000 30.418
47.98000 29.207
48.00000 29.209
48.02000 37.399
48.04000 32.474
48.06000 29.001
48.08000 26.768
48.10000 22.351
48.12000 23.381
48.14000 23.367
48.16000 25.490
48.18000 26.707
48.20000 16.368
48.22000 11.195
48.24000 13.642
48.26000 14.244
48.28000 14.905
48.30000 15.155
48.32000 17.748
48.34000 13.459
48.36000 17.295
48.38000 17.293
48.40000 13.085
48.42000 11.396
48.44000 12.004
48.46000 9.131
48.48000 10.435
48.50000 15.991
48.52000 11.517
48.54000 6.442
48.56000 4.817
48.58000 4.978
48.60000 8.218
48.62000 5.410
48.64000 5.141
48.66000 6.826
48.68000 12.364
48.70000 10.239
48.72000 2.548
48.74000 6.725
48.76000 4.716
48.78000 4.612
48.80000 3.167
48.82000 5.292
48.84000 4.108
48.86000 4.785
48.88000 2.236
48.90000 6.573
48.92000 2.616
48.94000 3.001
48.96000 0.505
48.98000 0.118
49.00000 2.765
49.02000 5.207
49.04000 5.062
49.06000 9.112
49.08000 2.265
49.10000 -1.966
49.12000 3.390
49.14000 5.620
49.16000 1.018
49.18000 -1.359
49.20000 -3.173
49.22000 0.262
49.24000 3.510
49.26000 0.184
49.28000 1.882
49.30000 -0.446
49.32000 4.328
49.34000 7.764
49.36000 7.824
49.38000 1.254
49.40000 -0.848
49.42000 4.695
49.44000 -1.863
49.46000 -0.116
49.48000 1.964
49.50000 0.056
49.52000 -0.636
49.54000 -3.135
49.56000 -0.643
49.58000 0.486
49.60000 4.793
49.62000 0.648
49.64000 6.490
49.66000 7.407
49.68000 1.391
49.70000 0.364
49.72000 2.955
49.74000 1.891
49.76000 2.501
49.78000 5.076
49.80000 3.234
49.82000 1.966
49.84000 2.155
49.86000 -0.096
49.88000 -0.521
49.90000 0.271
49.92000 -1.570
49.94000 0.844
49.96000 6.956
49.98000 7.067
50.00000 0.538
50.02000 1.623
50.04000 7.673
50.06000 11.594
50.08000 8.830
50.10000 5.127
50.12000 -0.682
50.14000 -3.057
50.16000 2.660
50.18000 10.928
50.20000 7.544
50.22000 3.359
50.24000 3.333
50.26000 0.449
50.28000 -0.330
50.30000 2.623
50.32000 5.682
50.34000 6.678
50.36000 4.544
50.38000 4.965
50.40000 1.709
50.42000 6.119
50.44000 4.574
50.46000 -0.034
50.48000 3.277
50.50000 7.074
50.52000 3.401
50.54000 4.814
50.56000 1.910
50.58000 -0.080
50.60000 0.402
50.62000 1.796
50.64000 2.055
50.66000 1.620
50.68000 5.337
50.70000 3.492
50.72000 3.739
50.74000 2.378
50.76000 5.524
50.78000 7.855
50.80000 2.043
50.82000 -0.846
50.84000 -2.995
50.86000 -2.546
50.88000 0.638
50.90000 3.221
50.92000 -0.100
50.94000 3.031
50.96000 5.736
50.98000 5.113
51.00000 -0.783
51.02000 1.729
51.04000 3.415
51.06000 3.560
51.08000 -0.441
51.10000 0.372
51.12000 1.092
51.14000 8.813
51.16000 7.398
51.18000 4.495
51.20000 3.410
51.22000 2.514
51.24000 5.821
51.26000 5.671
51.28000 4.387
51.30000 2.364
51.32000 3.089
51.34000 6.143
51.36000 3.071
51.38000 2.265
51.40000 2.649
51.42000 3.104
51.44000 -0.056
51.46000 0.476
51.48000 5.146
51.50000 1.608
51.52000 7.035
51.54000 5.575
51.56000 7.086
51.58000 9.898
51.60000 3.883
51.62000 5.448
51.64000 6.152
51.66000 4.604
51.68000 5.957
51.70000 6.384
51.72000 6.090
51.74000 3.701
51.76000 1.940
51.78000 5.522
51.80000 9.282
51.82000 8.362
51.84000 6.442
51.86000 6.302
51.88000 11.547
51.90000 7.979
51.92000 5.319
51.94000 6.857
51.96000 8.681
51.98000 4.915
52.00000 4.152
52.02000 4.963
52.04000 8.697
52.06000 9.702
52.08000 5.002
52.10000 4.403
52.12000 -2.887
52.14000 2.218
52.16000 7.029
52.18000 5.208
52.20000 9.818
52.22000 7.974
52.24000 11.051
52.26000 8.129
52.28000 9.723
52.30000 8.377
52.32000 8.616
52.34000 8.021
52.36000 6.533
52.38000 4.805
52.40000 10.817
52.42000 9.654
52.44000 3.527
52.46000 5.457
52.48000 6.207
52.50000 4.228
52.52000 0.903
52.54000 2.313
52.56000 1.702
52.58000 2.645
52.60000 4.618
52.62000 5.449
52.64000 2.555
52.66000 3.241
52.68000 9.384
52.70000 6.453
52.72000 2.452
52.74000 0.093
52.76000 1.119
52.78000 2.078
52.80000 1.015
52.82000 2.923
52.84000 6.498
52.86000 7.925
52.88000 7.550
52.90000 4.236
52.92000 -2.581
52.94000 -1.493
52.96000 -0.227
52.98000 -2.580
53.00000 4.568
53.02000 3.514
53.04000 2.946
53.06000 5.165
53.08000 3.805
53.10000 0.664
53.12000 0.442
53.14000 -0.400
53.16000 3.808
53.18000 -0.875
53.20000 3.540
53.22000 0.389
53.24000 -0.689
53.26000 3.176
53.28000 8.251
53.30000 1.383
53.32000 3.864
53.34000 1.574
53.36000 2.772
53.38000 0.948
53.40000 -1.169
53.42000 2.033
53.44000 2.815
53.46000 5.768
53.48000 9.549
53.50000 6.397
53.52000 5.498
53.54000 1.291
53.56000 3.214
53.58000 2.072
53.60000 -2.926
53.62000 1.317
53.64000 1.268
53.66000 0.875
53.68000 2.473
53.70000 0.076
53.72000 1.921
53.74000 2.191
53.76000 0.773
53.78000 4.111
53.80000 6.516
53.82000 1.341
53.84000 -2.795
53.86000 2.203
53.88000 -1.077
53.90000 0.858
53.92000 2.819
53.94000 2.760
53.96000 1.357
53.98000 -0.390
54.00000 -2.328
54.02000 -0.490
54.04000 5.911
54.06000 7.925
54.08000 1.131
54.10000 -0.518
54.12000 -2.273
54.14000 -2.492
54.16000 1.156
54.18000 5.705
54.20000 2.948
54.22000 -1.115
54.24000 2.162
54.26000 5.384
54.28000 8.861
54.30000 2.791
54.32000 4.049
54.34000 5.631
54.36000 7.598
54.38000 6.430
54.40000 3.960
54.42000 6.306
54.44000 4.597
54.46000 -1.306
54.48000 0.746
54.50000 8.123
54.52000 3.989
54.54000 3.379
54.56000 6.710
54.58000 1.171
54.60000 -1.707
54.62000 0.535
54.64000 0.692
54.66000 3.453
54.68000 3.641
54.70000 3.149
54.72000 3.121
54.74000 5.081
54.76000 4.258
54.78000 1.305
54.80000 0.487
54.82000 2.965
54.84000 -0.229
54.86000 0.959
54.88000 3.688
54.90000 0.363
54.92000 0.605
54.94000 6.397
54.96000 8.017
54.98000 5.501
55.00000 3.475
55.02000 2.618
55.04000 2.775
55.06000 4.938
55.08000 9.476
55.10000 7.190
55.12000 1.016
55.14000 -2.854
55.16000 0.237
55.18000 2.718
55.20000 1.097
55.22000 2.870
55.24000 4.903
55.26000 3.700
55.28000 -0.543
55.30000 4.105
55.32000 5.357
55.34000 6.818
55.36000 6.263
55.38000 4.183
55.40000 8.768
55.42000 8.495
55.44000 8.656
55.46000 2.663
55.48000 4.600
55.50000 2.148
55.52000 3.943
55.54000 8.650
55.56000 5.341
55.58000 5.425
55.60000 7.309
55.62000 4.389
55.64000 -1.870
55.66000 1.739
55.68000 4.592
55.70000 7.701
55.72000 6.901
55.74000 -2.825
55.76000 0.874
55.78000 4.563
55.80000 5.301
55.82000 1.543
55.84000 2.257
55.86000 -1.200
55.88000 1.947
55.90000 4.449
55.92000 5.296
55.94000 4.799
55.96000 5.936
55.98000 -0.872
56.00000 3.548
56.02000 8.285
56.04000 6.159
56.06000 -1.676
56.08000 3.065
56.10000 6.141
56.12000 8.139
56.14000 3.271
56.16000 7.283
56.18000 3.936
56.20000 4.716
56.22000 4.179
56.24000 -0.509
56.26000 0.460
56.28000 2.384
56.30000 3.560
56.32000 5.587
56.34000 5.879
56.36000 1.285
56.38000 2.571
56.40000 1.586
56.42000 -0.190
56.44000 1.020
56.46000 4.662
56.48000 7.558
56.50000 7.803
56.52000 5.308
56.54000 3.246
56.56000 2.926
56.58000 4.228
56.60000 0.312
56.62000 -2.826
56.64000 0.271
56.66000 -1.770
56.68000 0.207
56.70000 0.943
56.72000 6.970
56.74000 6.651
56.76000 5.857
56.78000 6.215
56.80000 3.636
56.82000 -0.463
56.84000 0.471
56.86000 0.691
56.88000 1.815
56.90000 4.700
56.92000 3.793
56.94000 1.975
56.96000 -0.821
56.98000 3.413
57.00000 2.488
57.02000 0.590
57.04000 -0.751
57.06000 -0.767
57.08000 3.198
57.10000 3.267
57.12000 3.669
57.14000 4.706
57.16000 9.725
57.18000 5.212
57.20000 2.924
57.22000 4.480
57.24000 0.976
57.26000 1.746
57.28000 5.765
57.30000 6.208
57.32000 1.765
57.34000 -0.879
57.36000 3.038
57.38000 -0.220
57.40000 -1.027
57.42000 1.847
57.44000 -0.641
57.46000 4.941
57.48000 5.436
57.50000 -1.350
57.52000 -1.932
57.54000 -0.250
57.56000 3.851
57.58000 0.801
57.60000 -1.071
57.62000 1.531
57.64000 4.240
57.66000 0.160
57.68000 -2.783
57.70000 0.824
57.72000 7.468
57.74000 5.534
57.76000 4.580
57.78000 4.300
57.80000 1.962
57.82000 3.276
57.84000 7.325
57.86000 8.504
57.88000 8.022
57.90000 -0.263
57.92000 -1.242
57.94000 3.888
57.96000 2.534
57.98000 2.627
58.00000 0.834
58.02000 0.561
58.04000 4.554
58.06000 1.394
58.08000 -2.762
58.10000 1.723
58.12000 0.792
58.14000 3.358
58.16000 4.977
58.18000 0.406
58.20000 2.859
58.22000 3.764
58.24000 2.075
58.26000 7.575
58.28000 6.008
58.30000 7.063
58.32000 1.942
58.34000 1.617
58.36000 5.859
58.38000 2.991
58.40000 3.094
58.42000 2.928
58.44000 0.256
58.46000 4.055
58.48000 2.289
58.50000 1.437
58.52000 0.712
58.54000 5.599
58.56000 4.353
58.58000 1.275
58.60000 -0.238
58.62000 -1.021
58.64000 -0.451
58.66000 0.769
58.68000 -1.173
58.70000 0.494
58.72000 2.935
58.74000 3.609
58.76000 4.048
58.78000 1.226
58.80000 1.857
58.82000 2.376
58.84000 3.894
58.86000 1.752
58.88000 2.881
58.90000 6.588
58.92000 8.339
58.94000 6.878
58.96000 3.883
58.98000 3.445
59.00000 4.597
59.02000 5.396
59.04000 6.555
59.06000 2.814
59.08000 7.036
59.10000 7.738
59.12000 6.389
59.14000 5.350
59.16000 3.214
59.18000 6.378
59.20000 4.466
59.22000 4.956
59.24000 7.786
59.26000 6.153
59.28000 9.749
59.30000 6.834
59.32000 1.509
59.34000 4.359
59.36000 7.049
59.38000 7.624
59.40000 8.242
59.42000 6.156
59.44000 -2.670
59.46000 0.174
59.48000 5.737
59.50000 10.514
59.52000 8.518
59.54000 7.066
59.56000 6.997
59.58000 6.912
59.60000 9.125
59.62000 5.708
59.64000 5.180
59.66000 1.996
59.68000 5.262
59.70000 4.789
59.72000 6.368
59.74000 9.589
59.76000 11.413
59.78000 5.395
59.80000 8.775
59.82000 12.139
59.84000 10.741
59.86000 8.941
59.88000 7.919
59.90000 4.910
59.92000 5.013
59.94000 4.264
59.96000 7.931
59.98000 7.326
60.00000 9.394
60.02000 6.895
60.04000 4.587
60.06000 3.227
60.08000 6.601
60.10000 8.437
60.12000 6.763
60.14000 7.155
60.16000 3.703
60.18000 3.379
60.20000 4.297
60.22000 7.330
60.24000 5.411
60.26000 4.993
60.28000 7.984
60.30000 7.359
60.32000 2.539
60.34000 2.697
60.36000 5.390
60.38000 6.079
60.40000 3.779
60.42000 6.351
60.44000 4.867
60.46000 2.502
60.48000 -2.642
60.50000 -0.276
60.52000 7.233
60.54000 7.414
60.56000 7.311
60.58000 4.151
60.60000 5.075
60.62000 3.362
60.64000 4.434
60.66000 7.836
60.68000 5.724
60.70000 2.613
60.72000 3.160
60.74000 2.812
60.76000 1.461
60.78000 3.546
60.80000 6.879
60.82000 5.050
60.84000 5.279
60.86000 4.482
60.88000 5.383
60.90000 4.095
60.92000 5.461
60.94000 6.456
60.96000 4.178
60.98000 3.060
61.00000 2.870
61.02000 2.140
61.04000 -0.722
61.06000 -2.643
61.08000 8.234
61.10000 7.337
61.12000 1.684
61.14000 2.838
61.16000 4.601
61.18000 5.525
61.20000 4.894
61.22000 3.310
61.24000 0.812
61.26000 -1.119
61.28000 -0.704
61.30000 0.645
61.32000 2.213
61.34000 6.026
61.36000 4.049
61.38000 3.572
61.40000 2.986
61.42000 1.566
61.44000 -1.195
61.46000 4.171
61.48000 3.857
61.50000 1.106
61.52000 1.809
61.54000 -0.208
61.56000 -2.495
61.58000 -0.583
61.60000 -1.880
61.62000 0.433
61.64000 0.422
61.66000 3.422
61.68000 -1.151
61.70000 1.599
61.72000 2.295
61.74000 -0.126
61.76000 -1.121
61.78000 -2.208
61.80000 4.054
61.82000 10.106
61.84000 5.975
61.86000 1.405
61.88000 5.263
61.90000 4.644
61.92000 3.996
61.94000 0.482
61.96000 4.471
61.98000 4.906
62.00000 1.518
62.02000 1.316
62.04000 0.112
62.06000 1.773
62.08000 2.348
62.10000 0.726
62.12000 -1.175
62.14000 -2.654
62.16000 -0.134
62.18000 3.763
62.20000 2.518
62.22000 4.648
62.24000 5.939
62.26000 2.042
62.28000 0.424
62.30000 2.289
62.32000 4.586
62.34000 3.602
62.36000 9.680
62.38000 1.780
62.40000 4.179
62.42000 3.504
62.44000 5.464
62.46000 0.995
62.48000 0.046
62.50000 0.593
62.52000 1.582
62.54000 1.393
62.56000 2.054
62.58000 6.254
62.60000 4.249
62.62000 1.986
62.64000 2.962
62.66000 2.577
62.68000 5.433
62.70000 4.550
62.72000 3.930
62.74000 1.277
62.76000 1.665
62.78000 -0.608
62.80000 -0.313
62.82000 -1.143
62.84000 1.376
62.86000 5.325
62.88000 6.238
62.90000 2.546
62.92000 -2.620
62.94000 2.832
62.96000 6.712
62.98000 4.722
63.00000 1.623
63.02000 2.856
63.04000 3.821
63.06000 1.378
63.08000 3.902
63.10000 6.919
63.12000 7.393
63.14000 3.089
63.16000 5.228
63.18000 1.921
63.20000 1.523
63.22000 3.606
63.24000 4.948
63.26000 7.580
63.28000 1.696
63.30000 0.243
63.32000 0.299
63.34000 0.248
63.36000 -0.563
63.38000 1.068
63.40000 -1.234
63.42000 3.197
63.44000 4.194
63.46000 1.782
63.48000 -1.559
63.50000 -0.663
63.52000 2.575
63.54000 0.985
63.56000 -2.642
63.58000 0.291
63.60000 1.724
63.62000 4.471
63.64000 3.734
63.66000 6.929
63.68000 5.799
63.70000 1.923
63.72000 3.050
63.74000 -1.201
63.76000 0.028
63.78000 1.211
63.80000 -0.344
63.82000 -0.286
63.84000 -0.678
63.86000 1.246
63.88000 -0.568
63.90000 2.730
63.92000 2.393
63.94000 -1.685
63.96000 2.774
63.98000 6.082
64.00000 3.191
64.02000 3.824
64.04000 3.984
64.06000 3.808
64.08000 0.730
64.10000 4.543
64.12000 5.360
64.14000 4.721
64.16000 2.296
64.18000 0.852
64.20000 1.389
64.22000 4.237
64.24000 1.539
64.26000 1.515
64.28000 1.429
64.30000 2.002
64.32000 -1.719
64.34000 0.895
64.36000 1.454
64.38000 3.413
64.40000 -0.981
64.42000 -1.174
64.44000 2.399
64.46000 3.326
64.48000 3.927
64.50000 6.669
64.52000 4.740
64.54000 5.309
64.56000 4.636
64.58000 3.352
64.60000 -0.090
64.62000 0.924
64.64000 1.650
64.66000 -1.257
64.68000 2.343
64.70000 1.857
64.72000 -0.482
64.74000 0.507
64.76000 3.583
64.78000 3.171
64.80000 3.012
64.82000 2.035
64.84000 1.085
64.86000 2.301
64.88000 0.574
64.90000 3.928
64.92000 7.490
64.94000 6.924
64.96000 3.071
64.98000 1.965
65.00000 4.453
65.02000 3.296
65.04000 -2.609
65.06000 0.701
65.08000 4.034
65.10000 5.532
65.12000 6.252
65.14000 8.772
65.16000 7.081
65.18000 9.556
65.20000 8.292
65.22000 3.660
65.24000 1.923
65.26000 4.324
65.28000 3.168
65.30000 0.653
65.32000 6.011
65.34000 6.254
65.36000 1.748
65.38000 4.883
65.40000 6.331
65.42000 6.034
65.44000 7.268
65.46000 5.367
65.48000 3.584
65.50000 6.793
65.52000 6.935
65.54000 3.389
65.56000 1.444
65.58000 3.735
65.60000 7.122
65.62000 8.309
65.64000 8.387
65.66000 7.735
65.68000 6.055
65.70000 4.562
65.72000 1.420
65.74000 -1.303
65.76000 2.147
65.78000 4.738
65.80000 6.571
65.82000 3.994
65.84000 1.938
65.86000 4.181
65.88000 4.936
65.90000 -2.601
65.92000 -0.030
65.94000 1.839
65.96000 3.800
65.98000 7.724
66.00000 8.451
66.02000 7.875
66.04000 4.637
66.06000 2.684
66.08000 2.168
66.10000 1.051
66.12000 4.217
66.14000 6.156
66.16000 6.341
66.18000 6.463
66.20000 4.906
66.22000 3.891
66.24000 3.457
66.26000 1.736
66.28000 2.877
66.30000 4.358
66.32000 2.709
66.34000 3.681
66.36000 2.387
66.38000 1.522
66.40000 5.048
66.42000 7.094
66.44000 5.042
66.46000 2.136
66.48000 3.998
66.50000 5.031
66.52000 1.982
66.54000 -0.582
66.56000 0.013
66.58000 4.885
66.60000 4.073
66.62000 4.571
66.64000 3.236
66.66000 0.748
66.68000 -0.111
66.70000 1.885
66.72000 0.815
66.74000 1.443
66.76000 2.235
66.78000 4.127
66.80000 5.276
66.82000 4.491
66.84000 2.509
66.86000 4.333
66.88000 2.799
66.90000 -1.004
66.92000 -0.336
66.94000 2.402
66.96000 3.731
66.98000 5.433
67.00000 6.295
67.02000 2.245
67.04000 1.913
67.06000 2.757
67.08000 4.920
67.10000 1.949
67.12000 -2.308
67.14000 2.402
67.16000 6.958
67.18000 0.701
67.20000 -2.703
67.22000 -2.516
67.24000 3.352
67.26000 7.126
67.28000 3.606
67.30000 4.732
67.32000 2.726
67.34000 2.222
67.36000 -0.019
67.38000 0.798
67.40000 3.114
67.42000 2.311
67.44000 3.252
67.46000 4.386
67.48000 4.410
67.50000 3.981
67.52000 6.424
67.54000 3.819
67.56000 6.250
67.58000 8.998
67.60000 8.252
67.62000 6.789
67.64000 4.731
67.66000 8.610
67.68000 8.521
67.70000 8.051
67.72000 5.141
67.74000 4.664
67.76000 8.547
67.78000 9.382
67.80000 5.819
67.82000 5.387
67.84000 6.940
67.86000 8.316
67.88000 9.062
67.90000 7.673
67.92000 6.974
67.94000 8.678
67.96000 10.245
67.98000 8.544
68.00000 11.065
68.02000 9.169
68.04000 6.594
68.06000 9.955
68.08000 12.896
68.10000 16.590
68.12000 19.908
68.14000 18.844
68.16000 14.034
68.18000 16.138
68.20000 15.013
68.22000 15.619
68.24000 12.681
68.26000 13.959
68.28000 16.908
68.30000 17.937
68.32000 13.351
68.34000 15.038
68.36000 16.162
68.38000 12.835
68.40000 18.858
68.42000 18.439
68.44000 17.733
68.46000 18.194
68.48000 21.512
68.50000 25.079
68.52000 23.322
68.54000 29.805
68.56000 25.043
68.58000 25.775
68.60000 22.390
68.62000 28.196
68.64000 29.045
68.66000 26.759
68.68000 24.254
68.70000 24.251
68.72000 31.134
68.74000 34.104
68.76000 32.358
68.78000 28.438
68.80000 30.191
68.82000 34.937
68.84000 33.546
68.86000 28.730
68.88000 30.444
68.90000 34.190
68.92000 24.636
68.94000 28.352
68.96000 30.818
68.98000 27.251
69.00000 31.787
69.02000 33.114
69.04000 28.108
69.06000 28.980
69.08000 27.182
69.10000 27.668
69.12000 27.384
69.14000 28.665
69.16000 28.089
69.18000 23.949
69.20000 23.932
69.22000 30.751
69.24000 31.429
69.26000 32.643
69.28000 27.534
69.30000 24.784
69.32000 26.023
69.34000 25.281
69.36000 18.534
69.38000 18.203
69.40000 22.961
69.42000 21.961
69.44000 22.069
69.46000 22.578
69.48000 27.567
69.50000 25.897
69.52000 24.959
69.54000 18.545
69.56000 18.171
69.58000 18.705
69.60000 16.292
69.62000 17.430
69.64000 16.194
69.66000 17.389
69.68000 15.848
69.70000 12.218
69.72000 14.333
69.74000 16.456
69.76000 19.964
69.78000 18.025
69.80000 16.368
69.82000 15.098
69.84000 13.386
69.86000 16.129
69.88000 13.296
69.90000 13.940
69.92000 14.447
69.94000 11.080
69.96000 9.589
69.98000 4.473
70.00000 4.445
70.02000 7.152
70.04000 11.424
70.06000 8.537
70.08000 8.238
70.10000 10.598
70.12000 8.849
70.14000 6.964
70.16000 2.510
70.18000 3.292
70.20000 6.343
70.22000 0.566
70.24000 4.405
70.26000 5.608
70.28000 4.919
70.30000 8.621
70.32000 5.525
70.34000 2.995
70.36000 6.437
70.38000 1.407
70.40000 -2.610
70.42000 3.009
70.44000 1.897
70.46000 6.865
70.48000 4.702
70.50000 5.407
70.52000 5.254
70.54000 8.055
70.56000 5.170
70.58000 3.254
70.60000 4.973
70.62000 9.022
70.64000 6.932
70.66000 2.194
70.68000 2.740
70.70000 2.213
70.72000 6.163
70.74000 3.437
70.76000 5.886
70.78000 9.349
70.80000 5.867
70.82000 7.587
70.84000 5.051
70.86000 4.078
70.88000 2.201
70.90000 5.359
70.92000 4.575
70.94000 1.490
70.96000 5.099
70.98000 3.771
71.00000 1.325
71.02000 -2.042
71.04000 -2.548
71.06000 1.814
71.08000 -1.485
71.10000 0.927
71.12000 4.861
71.14000 5.836
71.16000 5.768
71.18000 8.463
71.20000 9.712
71.22000 4.377
71.24000 4.749
71.26000 3.421
71.28000 4.272
71.30000 3.828
71.32000 2.074
71.34000 2.909
71.36000 3.981
71.38000 1.498
71.40000 -0.430
71.42000 0.357
71.44000 1.419
71.46000 -1.270
71.48000 -2.489
71.50000 0.908
71.52000 0.511
71.54000 -1.587
71.56000 0.235
71.58000 -0.346
71.60000 5.938
71.62000 4.132
71.64000 2.526
71.66000 4.705
71.68000 4.338
71.70000 3.316
71.72000 2.416
71.74000 0.560
71.76000 0.567
71.78000 3.514
71.80000 5.545
71.82000 5.898
71.84000 4.519
71.86000 4.894
71.88000 0.278
71.90000 1.731
71.92000 2.293
71.94000 1.155
71.96000 0.475
71.98000 1.479
72.00000 5.032
72.02000 5.055
72.04000 5.878
72.06000 6.115
72.08000 6.625
72.10000 6.181
72.12000 4.917
72.14000 1.874
72.16000 5.429
72.18000 2.799
72.20000 2.937
72.22000 0.938
72.24000 0.235
72.26000 -0.440
72.28000 0.570
72.30000 4.627
72.32000 3.990
72.34000 5.405
72.36000 6.105
72.38000 6.594
72.40000 4.775
72.42000 3.942
72.44000 4.783
72.46000 1.825
72.48000 1.970
72.50000 0.382
72.52000 1.539
72.54000 8.972
72.56000 4.776
72.58000 2.056
72.60000 2.452
72.62000 4.291
72.64000 3.534
72.66000 4.942
72.68000 10.555
72.70000 8.252
72.72000 3.548
72.74000 4.996
72.76000 -0.014
72.78000 -2.423
72.80000 -0.067
72.82000 1.611
72.84000 4.071
72.86000 4.014
72.88000 6.675
72.90000 3.367
72.92000 -2.412
72.94000 1.198
72.96000 5.822
72.98000 8.635
73.00000 6.574
73.02000 3.121
73.04000 2.678
73.06000 3.798
73.08000 6.161
73.10000 5.236
73.12000 3.198
73.14000 3.663
73.16000 6.705
73.18000 2.913
73.20000 2.983
73.22000 3.007
73.24000 3.797
73.26000 7.585
73.28000 5.887
73.30000 3.679
73.32000 3.247
73.34000 1.404
73.36000 3.496
73.38000 0.506
73.40000 5.608
73.42000 5.895
73.44000 3.122
73.46000 -0.395
73.48000 2.116
73.50000 3.006
73.52000 4.074
73.54000 6.010
73.56000 4.509
73.58000 0.690
73.60000 3.943
73.62000 0.865
73.64000 6.274
73.66000 5.234
73.68000 0.318
73.70000 -0.885
73.72000 -2.435
73.74000 4.213
73.76000 -2.376
73.78000 3.016
73.80000 7.279
73.82000 2.066
73.84000 -0.122
73.86000 4.092
73.88000 1.604
73.90000 1.179
73.92000 1.568
73.94000 8.230
73.96000 1.334
73.98000 1.655
74.00000 5.032
74.02000 2.023
74.04000 1.408
74.06000 1.333
74.08000 3.518
74.10000 3.723
74.12000 7.231
74.14000 6.173
74.16000 4.288
74.18000 3.175
74.20000 6.757
74.22000 6.694
74.24000 9.876
74.26000 0.547
74.28000 3.453
74.30000 5.149
74.32000 1.488
74.34000 -0.404
74.36000 5.548
74.38000 5.862
74.40000 2.907
74.42000 4.997
74.44000 4.552
74.46000 4.197
74.48000 8.937
74.50000 6.031
74.52000 6.607
74.54000 3.324
74.56000 4.138
74.58000 2.758
74.60000 2.356
74.62000 4.315
74.64000 6.084
74.66000 7.573
74.68000 7.646
74.70000 -1.308
74.72000 2.014
74.74000 4.772
74.76000 4.442
74.78000 3.284
74.80000 1.060
74.82000 1.819
74.84000 2.948
74.86000 7.714
74.88000 3.183
74.90000 0.996
74.92000 1.002
74.94000 5.211
74.96000 5.948
74.98000 7.456
75.00000 5.675
75.02000 4.295
75.04000 4.383
75.06000 3.793
75.08000 0.530
75.10000 -2.410
75.12000 4.491
75.14000 3.518
75.16000 7.274
75.18000 2.666
75.20000 3.500
75.22000 4.803
75.24000 5.803
75.26000 5.712
75.28000 5.644
75.30000 9.561
75.32000 3.472
75.34000 2.381
75.36000 3.456
75.38000 1.249
75.40000 5.961
75.42000 7.538
75.44000 8.073
75.46000 3.849
75.48000 8.055
75.50000 10.579
75.52000 5.999
75.54000 6.708
75.56000 6.307
75.58000 5.644
75.60000 5.480
75.62000 6.033
75.64000 1.753
75.66000 -1.534
75.68000 0.668
75.70000 4.725
75.72000 -2.421
75.74000 1.835
75.76000 7.275
75.78000 4.299
75.80000 4.275
75.82000 7.554
75.84000 7.559
75.86000 1.797
75.88000 3.108
75.90000 3.313
75.92000 4.661
75.94000 4.971
75.96000 2.881
75.98000 0.116
76.00000 0.179
76.02000 -2.432
76.04000 0.809
76.06000 3.944
76.08000 2.671
76.10000 7.075
76.12000 6.774
76.14000 5.961
76.16000 1.484
76.18000 3.310
76.20000 3.223
76.22000 2.362
76.24000 0.687
76.26000 2.504
76.28000 6.701
76.30000 1.615
76.32000 3.258
76.34000 3.999
76.36000 1.899
76.38000 1.851
76.40000 4.132
76.42000 4.568
76.44000 4.119
76.46000 10.640
76.48000 6.968
76.50000 -0.103
76.52000 0.798
76.54000 -0.335
76.56000 -2.149
76.58000 1.748
76.60000 5.689
76.62000 0.727
76.64000 0.734
76.66000 1.692
76.68000 0.845
76.70000 -0.223
76.72000 0.699
76.74000 0.912
76.76000 -2.452
76.78000 2.370
76.80000 5.511
76.82000 6.817
76.84000 5.014
76.86000 4.464
76.88000 2.276
76.90000 0.985
76.92000 -2.048
76.94000 3.799
76.96000 1.023
76.98000 2.575
77.00000 4.126
77.02000 0.038
77.04000 0.381
77.06000 0.924
77.08000 5.658
77.10000 8.146
77.12000 6.432
77.14000 -1.433
77.16000 -2.276
77.18000 6.269
77.20000 5.867
77.22000 3.144
77.24000 1.743
77.26000 -0.428
77.28000 0.284
77.30000 3.449
77.32000 2.623
77.34000 3.131
77.36000 2.797
77.38000 2.229
77.40000 3.144
77.42000 1.505
77.44000 1.071
77.46000 3.998
77.48000 6.727
77.50000 6.718
77.52000 7.094
77.54000 1.574
77.56000 0.801
77.58000 1.690
77.60000 4.642
77.62000 1.477
77.64000 2.248
77.66000 8.154
77.68000 5.123
77.70000 -0.976
77.72000 -0.193
77.74000 5.057
77.76000 3.793
77.78000 3.532
77.80000 3.976
77.82000 5.017
77.84000 6.621
77.86000 5.302
77.88000 4.650
77.90000 0.635
77.92000 -1.077
77.94000 5.314
77.96000 5.844
77.98000 0.165
78.00000 2.653
78.02000 4.107
78.04000 3.266
78.06000 6.724
78.08000 5.929
78.10000 0.236
78.12000 4.407
78.14000 2.152
78.16000 2.611
78.18000 9.253
78.20000 6.862
78.22000 4.803
78.24000 8.233
78.26000 7.762
78.28000 5.492
78.30000 4.421
78.32000 8.266
78.34000 6.439
78.36000 0.810
78.38000 0.404
78.40000 5.136
78.42000 4.869
78.44000 6.813
78.46000 9.368
78.48000 2.640
78.50000 -2.419
78.52000 4.450
78.54000 5.267
78.56000 4.561
78.58000 6.867
78.60000 5.974
78.62000 7.612
78.64000 9.707
78.66000 6.768
78.68000 8.903
78.70000 10.821
78.72000 6.332
78.74000 6.300
78.76000 8.949
78.78000 9.962
78.80000 4.123
78.82000 7.851
78.84000 9.083
78.86000 7.958
78.88000 3.135
78.90000 -2.397
78.92000 5.064
78.94000 8.456
78.96000 8.027
78.98000 8.874
79.00000 9.049
79.02000 8.853
79.04000 5.005
79.06000 10.969
79.08000 12.593
79.10000 14.803
79.12000 11.216
79.14000 3.162
79.16000 5.148
79.18000 6.402
79.20000 6.913
79.22000 9.572
79.24000 4.851
79.26000 1.283
79.28000 2.841
79.30000 4.103
79.32000 6.288
79.34000 4.407
79.36000 4.788
79.38000 0.266
79.40000 5.922
79.42000 7.711
79.44000 9.342
79.46000 1.647
79.48000 1.121
79.50000 2.941
79.52000 3.566
79.54000 5.172
79.56000 8.094
79.58000 5.025
79.60000 6.029
79.62000 6.995
79.64000 5.305
79.66000 6.632
79.68000 7.803
79.70000 4.160
79.72000 3.978
79.74000 2.670
79.76000 -0.233
79.78000 5.279
79.80000 8.487
79.82000 8.306
79.84000 5.968
79.86000 2.139
79.88000 0.475
79.90000 5.118
79.92000 4.618
79.94000 2.053
79.96000 5.818
79.98000 9.300
80.00000 9.565
80.02000 7.602
80.04000 4.882
80.06000 1.041
80.08000 1.117
80.10000 7.467
80.12000 6.270
80.14000 8.454
80.16000 0.929
80.18000 1.648
80.20000 4.999
80.22000 3.535
80.24000 1.841
80.26000 0.664
80.28000 4.283
80.30000 2.405
80.32000 5.539
80.34000 9.219
80.36000 6.115
80.38000 3.272
80.40000 5.496
80.42000 1.768
80.44000 3.882
80.46000 3.350
80.48000 4.394
80.50000 2.184
80.52000 5.084
80.54000 0.917
80.56000 -2.503
80.58000 0.045
80.60000 7.486
80.62000 6.759
80.64000 6.171
80.66000 6.824
80.68000 10.169
80.70000 8.214
80.72000 6.107
80.74000 4.371
80.76000 7.094
80.78000 5.825
80.80000 3.693
80.82000 2.239
80.84000 4.230
80.86000 2.442
80.88000 0.575
80.90000 2.639
80.92000 4.282
80.94000 8.609
80.96000 5.667
80.98000 4.292
81.00000 7.503
81.02000 10.683
81.04000 4.976
81.06000 9.118
81.08000 1.630
81.10000 6.233
81.12000 4.535
81.14000 2.256
81.16000 2.806
81.18000 4.599
81.20000 6.036
81.22000 11.071
81.24000 5.083
81.26000 -2.562
81.28000 5.799
81.30000 5.246
81.32000 10.835
81.34000 14.111
81.36000 18.509
81.38000 11.367
81.40000 10.457
81.42000 9.257
81.44000 9.768
81.46000 10.701
81.48000 11.563
81.50000 7.933
81.52000 4.261
81.54000 6.958
81.56000 4.708
81.58000 3.259
81.60000 6.010
81.62000 13.118
81.64000 9.325
81.66000 1.628
81.68000 5.958
81.70000 9.219
81.72000 7.363
81.74000 9.798
81.76000 10.598
81.78000 13.681
81.80000 9.433
81.82000 15.098
81.84000 12.951
81.86000 12.579
81.88000 8.533
81.90000 6.440
81.92000 8.256
81.94000 10.790
81.96000 7.378
81.98000 11.931
82.00000 15.097
82.02000 12.893
82.04000 4.264
82.06000 7.099
82.08000 10.849
82.10000 10.061
82.12000 13.574
82.14000 12.430
82.16000 13.146
82.18000 12.327
82.20000 11.869
82.22000 18.241
82.24000 14.814
82.26000 8.573
82.28000 10.089
82.30000 12.804
82.32000 13.046
82.34000 12.219
82.36000 14.972
82.38000 13.085
82.40000 13.979
82.42000 21.082
82.44000 20.075
82.46000 13.576
82.48000 16.186
82.50000 18.078
82.52000 12.749
82.54000 15.801
82.56000 23.938
82.58000 23.124
82.60000 18.499
82.62000 14.987
82.64000 21.549
82.66000 23.547
82.68000 18.842
82.70000 24.988
82.72000 23.480
82.74000 23.402
82.76000 29.401
82.78000 26.862
82.80000 27.174
82.82000 22.700
82.84000 19.928
82.86000 27.217
82.88000 25.349
82.90000 23.447
82.92000 23.865
82.94000 19.651
82.96000 20.064
82.98000 24.323
83.00000 26.951
83.02000 27.720
83.04000 29.924
83.06000 26.339
83.08000 20.073
83.10000 24.822
83.12000 28.695
83.14000 29.004
83.16000 30.360
83.18000 31.778
83.20000 29.315
83.22000 22.187
83.24000 22.510
83.26000 30.141
83.28000 29.629
83.30000 28.106
83.32000 35.674
83.34000 31.310
83.36000 25.899
83.38000 23.793
83.40000 26.039
83.42000 28.509
83.44000 32.305
83.46000 31.379
83.48000 32.938
83.50000 29.922
83.52000 31.743
83.54000 33.194
83.56000 27.987
83.58000 27.663
83.60000 30.271
83.62000 30.960
83.64000 30.084
83.66000 28.165
83.68000 23.608
83.70000 27.832
83.72000 25.929
83.74000 21.471
83.76000 22.383
83.78000 26.597
83.80000 25.443
83.82000 25.489
83.84000 22.073
83.86000 22.862
83.88000 22.381
83.90000 21.287
83.92000 22.641
83.94000 18.808
83.96000 17.961
83.98000 19.781
84.00000 19.980
84.02000 16.923
84.04000 19.385
84.06000 18.908
84.08000 13.157
84.10000 14.088
84.12000 13.280
84.14000 12.052
84.16000 18.292
84.18000 21.168
84.20000 15.284
84.22000 15.608
84.24000 17.179
84.26000 17.503
84.28000 13.645
84.30000 15.295
84.32000 17.712
84.34000 10.501
84.36000 13.135
84.38000 14.568
84.40000 12.875
84.42000 13.058
84.44000 7.406
84.46000 6.744
84.48000 9.631
84.50000 9.455
84.52000 10.068
84.54000 7.417
84.56000 13.887
84.58000 9.198
84.60000 7.891
84.62000 6.769
84.64000 9.383
84.66000 9.512
84.68000 8.935
84.70000 9.455
84.72000 7.628
84.74000 5.761
84.76000 4.362
84.78000 7.049
84.80000 8.163
84.82000 2.808
84.84000 5.611
84.86000 3.427
84.88000 1.184
84.90000 4.887
84.92000 9.104
84.94000 5.903
84.96000 10.731
84.98000 9.241
85.00000 4.229
85.02000 5.867
85.04000 10.843
85.06000 10.437
85.08000 5.588
85.10000 10.420
85.12000 7.482
85.14000 1.255
85.16000 3.638
85.18000 5.196
85.20000 1.508
85.22000 4.855
85.24000 7.618
85.26000 4.322
85.28000 6.242
85.30000 6.973
85.32000 6.917
85.34000 7.501
85.36000 8.858
85.38000 1.459
85.40000 4.463
85.42000 3.078
85.44000 -2.489
85.46000 1.862
85.48000 3.979
85.50000 3.335
85.52000 5.956
85.54000 4.124
85.56000 5.076
85.58000 3.945
85.60000 1.776
85.62000 5.163
85.64000 7.574
85.66000 10.305
85.68000 11.131
85.70000 9.576
85.72000 6.359
85.74000 3.937
85.76000 1.151
85.78000 2.016
85.80000 5.986
85.82000 5.693
85.84000 -0.290
85.86000 -0.974
85.88000 3.006
85.90000 2.917
85.92000 9.351
85.94000 5.245
85.96000 2.934
85.98000 2.661
86.00000 1.477
86.02000 1.060
86.04000 1.287
86.06000 1.530
86.08000 0.845
86.10000 4.310
86.12000 4.113
86.14000 4.896
86.16000 -0.004
86.18000 -2.552
86.20000 1.419
86.22000 3.614
86.24000 3.265
86.26000 2.111
86.28000 0.559
86.30000 0.539
86.32000 -0.148
86.34000 2.858
86.36000 4.002
86.38000 5.274
86.40000 7.231
86.42000 3.844
86.44000 0.789
86.46000 4.276
86.48000 3.038
86.50000 7.494
86.52000 4.315
86.54000 2.303
86.56000 -0.085
86.58000 5.297
86.60000 4.596
86.62000 3.776
86.64000 4.317
86.66000 3.431
86.68000 1.374
86.70000 2.315
86.72000 5.138
86.74000 4.515
86.76000 4.348
86.78000 0.579
86.80000 0.853
86.82000 3.305
86.84000 1.930
86.86000 1.895
86.88000 6.008
86.90000 6.838
86.92000 6.980
86.94000 1.756
86.96000 5.227
86.98000 8.448
87.00000 12.832
87.02000 11.788
87.04000 10.326
87.06000 10.910
87.08000 8.235
87.10000 12.866
87.12000 16.198
87.14000 16.200
87.16000 6.569
87.18000 0.966
87.20000 5.456
87.22000 14.582
87.24000 16.122
87.26000 18.378
87.28000 17.595
87.30000 13.978
87.32000 15.435
87.34000 21.474
87.36000 14.963
87.38000 10.366
87.40000 13.744
87.42000 12.591
87.44000 14.824
87.46000 18.161
87.48000 18.163
87.50000 15.725
87.52000 21.822
87.54000 20.384
87.56000 20.839
87.58000 21.549
87.60000 20.713
87.62000 20.801
87.64000 20.686
87.66000 22.782
87.68000 24.929
87.70000 24.818
87.72000 19.299
87.74000 19.470
87.76000 22.553
87.78000 21.632
87.80000 20.693
87.82000 26.157
87.84000 22.148
87.86000 27.718
87.88000 23.442
87.90000 18.434
87.92000 19.897
87.94000 25.524
87.96000 23.825
87.98000 26.355
88.00000 24.655
88.02000 21.528
88.04000 19.981
88.06000 21.034
88.08000 25.282
88.10000 26.068
88.12000 24.712
88.14000 23.177
88.16000 24.349
88.18000 24.160
88.20000 18.564
88.22000 17.768
88.24000 19.239
88.26000 18.559
88.28000 14.838
88.30000 17.828
88.32000 19.748
88.34000 21.678
88.36000 21.228
88.38000 18.098
88.40000 10.437
88.42000 13.986
88.44000 20.028
88.46000 16.928
88.48000 11.668
88.50000 9.910
88.52000 6.133
88.54000 10.402
88.56000 7.122
88.58000 13.293
88.60000 13.765
88.62000 14.556
88.64000 10.720
88.66000 9.414
88.68000 6.336
88.70000 8.530
88.72000 9.887
88.74000 10.753
88.76000 6.202
88.78000 9.180
88.80000 9.891
88.82000 10.123
88.84000 6.200
88.86000 7.702
88.88000 9.213
88.90000 9.511
88.92000 10.191
88.94000 6.894
88.96000 1.552
88.98000 2.456
89.00000 1.893
89.02000 3.197
89.04000 11.386
89.06000 4.939
89.08000 2.751
89.10000 3.114
89.12000 3.203
89.14000 -0.657
89.16000 -2.492
89.18000 1.399
89.20000 4.672
89.22000 3.829
89.24000 3.883
89.26000 9.245
89.28000 6.592
89.30000 7.256
89.32000 5.231
89.34000 2.765
89.36000 2.868
89.38000 -0.259
89.40000 2.652
89.42000 1.478
89.44000 4.967
89.46000 2.757
89.48000 3.073
89.50000 -0.261
89.52000 0.674
89.54000 2.048
89.56000 6.982
89.58000 2.934
89.60000 -2.252
89.62000 4.297
89.64000 6.974
89.66000 2.200
89.68000 1.126
89.70000 0.430
89.72000 2.580
89.74000 2.064
89.76000 -2.421
89.78000 -1.064
89.80000 0.674
89.82000 2.405
89.84000 3.520
89.86000 -1.914
89.88000 -1.486
89.90000 2.222
89.92000 -0.426
89.94000 -1.434
89.96000 3.325
89.98000 6.594
90.00000 5.990
90.02000 3.142
90.04000 4.145
90.06000 5.216
90.08000 -1.640
90.10000 -2.372
90.12000 1.613
90.14000 -0.992
90.16000 1.543
90.18000 0.004
90.20000 1.375
90.22000 -1.369
90.24000 1.945
90.26000 6.231
90.28000 5.278
90.30000 8.274
90.32000 3.894
90.34000 -1.379
90.36000 2.566
90.38000 1.564
90.40000 5.659
90.42000 9.399
90.44000 9.841
90.46000 8.391
90.48000 5.765
90.50000 8.891
90.52000 8.525
90.54000 4.480
90.56000 2.161
90.58000 4.122
90.60000 4.721
90.62000 1.999
90.64000 1.051
90.66000 2.052
90.68000 2.570
90.70000 5.042
90.72000 6.279
90.74000 0.432
90.76000 -2.300
90.78000 -0.972
90.80000 3.380
90.82000 6.512
90.84000 8.707
90.86000 10.889
90.88000 5.859
90.90000 4.489
90.92000 7.957
90.94000 4.863
90.96000 -1.348
90.98000 1.167
91.00000 2.436
91.02000 1.652
91.04000 0.883
91.06000 0.690
91.08000 1.596
91.10000 4.196
91.12000 6.734
91.14000 2.366
91.16000 3.891
91.18000 7.096
91.20000 8.221
91.22000 3.999
91.24000 -0.657
91.26000 -2.287
91.28000 2.043
91.30000 5.685
91.32000 2.939
91.34000 4.021
91.36000 0.874
91.38000 3.217
91.40000 4.751
91.42000 6.095
91.44000 5.895
91.46000 3.251
91.48000 0.225
91.50000 0.869
91.52000 5.119
91.54000 5.460
91.56000 1.808
91.58000 2.807
91.60000 2.900
91.62000 2.728
91.64000 3.188
91.66000 3.736
91.68000 4.966
91.70000 8.054
91.72000 8.849
91.74000 6.798
91.76000 7.541
91.78000 5.909
91.80000 4.873
91.82000 9.429
91.84000 7.705
91.86000 6.953
91.88000 3.701
91.90000 5.397
91.92000 11.087
91.94000 7.249
91.96000 3.101
91.98000 4.375
92.00000 4.704
92.02000 5.768
92.04000 6.102
92.06000 10.117
92.08000 7.754
92.10000 2.978
92.12000 6.190
92.14000 9.717
92.16000 8.569
92.18000 6.285
92.20000 6.556
92.22000 5.510
92.24000 5.555
92.26000 3.520
92.28000 3.803
92.30000 7.320
92.32000 5.824
92.34000 3.418
92.36000 -0.665
92.38000 -0.295
92.40000 7.957
92.42000 9.206
92.44000 7.315
92.46000 2.214
92.48000 -2.107
92.50000 7.317
92.52000 8.158
92.54000 3.959
92.56000 -2.265
92.58000 5.970
92.60000 4.144
92.62000 5.332
92.64000 6.573
92.66000 4.955
92.68000 3.939
92.70000 5.718
92.72000 2.437
92.74000 4.740
92.76000 6.619
92.78000 3.560
92.80000 5.523
92.82000 5.064
92.84000 4.712
92.86000 -0.745
92.88000 7.340
92.90000 10.466
92.92000 7.148
92.94000 4.700
92.96000 5.883
92.98000 4.890
93.00000 5.799
93.02000 9.890
93.04000 8.654
93.06000 2.280
93.08000 6.231
93.10000 7.712
93.12000 3.949
93.14000 5.616
93.16000 5.479
93.18000 1.002
93.20000 -0.799
93.22000 5.520
93.24000 5.813
93.26000 1.302
93.28000 6.005
93.30000 3.804
93.32000 2.881
93.34000 6.338
93.36000 6.345
93.38000 3.040
93.40000 4.522
93.42000 0.720
93.44000 2.865
93.46000 2.969
93.48000 0.338
93.50000 2.748
93.52000 0.942
93.54000 2.767
93.56000 3.876
93.58000 6.988
93.60000 10.075
93.62000 7.605
93.64000 9.158
93.66000 9.485
93.68000 8.612
93.70000 11.255
93.72000 8.661
93.74000 4.952
93.76000 4.608
93.78000 -0.345
93.80000 -2.293
93.82000 -1.572
93.84000 4.466
93.86000 3.419
93.88000 10.600
93.90000 10.190
93.92000 7.396
93.94000 9.552
93.96000 9.180
93.98000 6.070
94.00000 2.297
94.02000 4.360
94.04000 10.426
94.06000 10.472
94.08000 4.009
94.10000 3.180
94.12000 5.332
94.14000 6.252
94.16000 6.012
94.18000 1.229
94.20000 0.084
94.22000 -1.762
94.24000 2.812
94.26000 6.762
94.28000 6.543
94.30000 7.163
94.32000 6.947
94.34000 -0.973
94.36000 -0.896
94.38000 1.816
94.40000 3.470
94.42000 9.766
94.44000 9.956
94.46000 5.416
94.48000 8.142
94.50000 7.404
94.52000 5.709
94.54000 2.355
94.56000 4.091
94.58000 3.691
94.60000 -0.066
94.62000 4.851
94.64000 10.411
94.66000 11.529
94.68000 9.920
94.70000 6.539
94.72000 0.095
94.74000 -2.067
94.76000 5.286
94.78000 10.923
94.80000 6.277
94.82000 5.178
94.84000 1.492
94.86000 1.992
94.88000 4.484
94.90000 3.506
94.92000 2.648
94.94000 -2.325
94.96000 3.394
94.98000 4.858
95.00000 2.717
95.02000 2.034
95.04000 10.064
95.06000 11.561
95.08000 2.920
95.10000 2.130
95.12000 7.730
95.14000 7.728
95.16000 1.935
95.18000 -0.482
95.20000 6.096
95.22000 5.130
95.24000 4.330
95.26000 -2.297
95.28000 3.057
95.30000 8.587
95.32000 4.575
95.34000 3.359
95.36000 6.132
95.38000 2.471
95.40000 4.490
95.42000 3.999
95.44000 2.250
95.46000 5.570
95.48000 2.171
95.50000 1.557
95.52000 4.343
95.54000 8.752
95.56000 5.137
95.58000 5.620
95.60000 4.765
95.62000 4.777
95.64000 5.810
95.66000 3.935
95.68000 2.869
95.70000 4.103
95.72000 5.275
95.74000 2.419
95.76000 2.053
95.78000 -1.159
95.80000 -1.299
95.82000 4.283
95.84000 8.566
95.86000 5.873
95.88000 3.551
95.90000 5.679
95.92000 4.419
95.94000 8.321
95.96000 5.291
95.98000 10.167
96.00000 9.851
96.02000 4.290
96.04000 3.152
96.06000 9.856
96.08000 11.355
96.10000 4.419
96.12000 5.255
96.14000 8.719
96.16000 12.864
96.18000 11.817
96.20000 10.053
96.22000 9.820
96.24000 0.808
96.26000 1.773
96.28000 3.193
96.30000 6.166
96.32000 4.495
96.34000 3.846
96.36000 7.537
96.38000 6.782
96.40000 6.324
96.42000 8.405
96.44000 6.834
96.46000 4.396
96.48000 2.747
96.50000 8.226
96.52000 8.501
96.54000 16.313
96.56000 11.080
96.58000 10.178
96.60000 9.472
96.62000 9.350
96.64000 4.690
96.66000 8.614
96.68000 -2.246
96.70000 0.710
96.72000 10.782
96.74000 10.556
96.76000 8.974
96.78000 8.349
96.80000 9.333
96.82000 9.601
96.84000 11.633
96.86000 11.294
96.88000 9.500
96.90000 16.669
96.92000 13.750
96.94000 7.613
96.96000 6.887
96.98000 14.165
97.00000 13.408
97.02000 3.970
97.04000 5.624
97.06000 6.088
97.08000 10.378
97.10000 15.906
97.12000 12.100
97.14000 6.817
97.16000 13.571
97.18000 7.536
97.20000 14.190
97.22000 14.290
97.24000 7.672
97.26000 8.451
97.28000 3.308
97.30000 8.359
97.32000 7.453
97.34000 8.312
97.36000 12.601
97.38000 8.125
97.40000 6.484
97.42000 8.411
97.44000 6.635
97.46000 11.223
97.48000 6.091
97.50000 2.301
97.52000 -1.828
97.54000 0.142
97.56000 6.343
97.58000 1.191
97.60000 4.403
97.62000 -0.717
97.64000 9.932
97.66000 12.624
97.68000 5.805
97.70000 5.634
97.72000 7.887
97.74000 10.457
97.76000 10.662
97.78000 10.569
97.80000 0.497
97.82000 6.906
97.84000 6.695
97.86000 3.020
97.88000 4.486
97.90000 6.729
97.92000 3.073
97.94000 1.645
97.96000 4.148
97.98000 4.674
98.00000 6.658
98.02000 13.049
98.04000 5.986
98.06000 9.541
98.08000 19.511
98.10000 14.997
98.12000 9.876
98.14000 8.851
98.16000 11.518
98.18000 14.180
98.20000 20.151
98.22000 11.999
98.24000 19.192
98.26000 7.603
98.28000 2.281
98.30000 11.477
98.32000 6.435
98.34000 6.270
98.36000 10.134
98.38000 11.201
98.40000 1.700
98.42000 -2.191
98.44000 5.595
98.46000 12.701
98.48000 14.071
98.50000 13.522
98.52000 6.615
98.54000 6.853
98.56000 10.629
98.58000 14.472
98.60000 7.162
98.62000 8.155
98.64000 11.839
98.66000 15.797
98.68000 3.724
98.70000 4.529
98.72000 9.860
98.74000 6.746
98.76000 10.946
98.78000 9.530
98.80000 11.661
98.82000 12.295
98.84000 7.936
98.86000 11.120
98.88000 6.775
98.90000 8.106
98.92000 14.906
98.94000 9.210
98.96000 6.473
98.98000 10.872
99.00000 11.157
99.02000 3.797
99.04000 -0.567
99.06000 4.676
99.08000 0.987
99.10000 2.969
99.12000 0.913
99.14000 2.275
99.16000 2.315
99.18000 5.194
99.20000 7.492
99.22000 14.706
99.24000 16.289
99.26000 9.927
99.28000 4.348
99.30000 -4.441
99.32000 6.776
99.34000 9.813
99.36000 5.889
99.38000 9.602
99.40000 6.460
99.42000 5.920
99.44000 10.170
99.46000 8.886
99.48000 1.186
99.50000 7.138
99.52000 10.328
99.54000 6.011
99.56000 2.249
99.58000 1.737
99.60000 9.854
99.62000 11.143
99.64000 16.715
99.66000 10.910
99.68000 4.187
99.70000 6.363
99.72000 12.778
99.74000 1.681
99.76000 5.600
99.78000 5.853
99.80000 2.229
99.82000 6.577
99.84000 -2.381
99.86000 -1.267
99.88000 0.954
99.90000 6.461
99.92000 15.516
99.94000 8.698
99.96000 0.931
99.98000 0.000
