'Id: "0011388" Comment: "Integrate frame 0011388_Au-Ir-Rh_Rh-rich_XRD-Mapping-289-0000.gfrmwith cursor Wedge Cursor #5" Operator: "B?rgel" Anode: "Cu" Wavelength: "1.5406" Scantype: "2Theta (TwoTheta)" TimePerStep: "1" X: "9" Y: "27" Z: "5.95" 
10.00000 0.000
10.02000 11.600
10.04000 -4.178
10.06000 -3.661
10.08000 -4.145
10.10000 14.662
10.12000 8.069
10.14000 6.983
10.16000 3.655
10.18000 8.288
10.20000 10.415
10.22000 14.452
10.24000 24.108
10.26000 14.383
10.28000 8.791
10.30000 7.210
10.32000 -4.099
10.34000 1.454
10.36000 18.276
10.38000 13.088
10.40000 -1.814
10.42000 5.961
10.44000 14.445
10.46000 -4.103
10.48000 -0.857
10.50000 10.003
10.52000 18.824
10.54000 22.246
10.56000 13.171
10.58000 17.827
10.60000 6.605
10.62000 -0.096
10.64000 1.658
10.66000 6.341
10.68000 2.567
10.70000 15.518
10.72000 16.793
10.74000 11.063
10.76000 11.042
10.78000 20.660
10.80000 21.486
10.82000 16.076
10.84000 22.423
10.86000 22.477
10.88000 8.938
10.90000 20.712
10.92000 20.766
10.94000 22.469
10.96000 9.190
10.98000 1.683
11.00000 17.880
11.02000 8.123
11.04000 1.647
11.06000 26.959
11.08000 22.515
11.10000 20.428
11.12000 15.189
11.14000 1.836
11.16000 -3.286
11.18000 7.816
11.20000 13.041
11.22000 15.288
11.24000 11.709
11.26000 12.614
11.28000 19.871
11.30000 18.364
11.32000 21.589
11.34000 12.156
11.36000 17.057
11.38000 23.282
11.40000 10.932
11.42000 17.138
11.44000 13.990
11.46000 12.429
11.48000 14.509
11.50000 17.789
11.52000 -5.379
11.54000 11.667
11.56000 27.147
11.58000 17.603
11.60000 16.469
11.62000 16.655
11.64000 22.602
11.66000 14.949
11.68000 16.042
11.70000 8.856
11.72000 12.866
11.74000 14.870
11.76000 14.857
11.78000 14.790
11.80000 9.060
11.82000 12.682
11.84000 15.653
11.86000 23.336
11.88000 24.259
11.90000 21.604
11.92000 16.074
11.94000 5.795
11.96000 6.995
11.98000 15.258
12.00000 14.192
12.02000 3.999
12.04000 4.633
12.06000 1.052
12.08000 -2.124
12.10000 6.067
12.12000 6.404
12.14000 0.739
12.16000 6.272
12.18000 10.658
12.20000 9.581
12.22000 2.316
12.24000 5.430
12.26000 21.053
12.28000 19.953
12.30000 9.994
12.32000 13.193
12.34000 13.742
12.36000 -0.037
12.38000 5.602
12.40000 18.387
12.42000 17.504
12.44000 10.056
12.46000 11.633
12.48000 21.225
12.50000 16.964
12.52000 10.671
12.54000 6.991
12.56000 13.231
12.58000 7.598
12.60000 4.963
12.62000 10.872
12.64000 10.242
12.66000 2.053
12.68000 4.684
12.70000 15.205
12.72000 19.777
12.74000 22.764
12.76000 15.251
12.78000 22.880
12.80000 14.828
12.82000 14.402
12.84000 18.438
12.86000 16.979
12.88000 16.767
12.90000 16.806
12.92000 19.852
12.94000 10.193
12.96000 17.859
12.98000 20.323
13.00000 26.180
13.02000 26.446
13.04000 20.849
13.06000 17.167
13.08000 12.902
13.10000 5.699
13.12000 8.937
13.14000 19.054
13.16000 12.556
13.18000 9.829
13.20000 12.222
13.22000 11.121
13.24000 16.758
13.26000 22.475
13.28000 23.115
13.30000 13.390
13.32000 10.238
13.34000 9.979
13.36000 11.779
13.38000 17.740
13.40000 19.367
13.42000 23.258
13.44000 20.716
13.46000 11.890
13.48000 14.881
13.50000 20.762
13.52000 10.764
13.54000 9.221
13.56000 11.926
13.58000 17.738
13.60000 15.522
13.62000 5.330
13.64000 10.534
13.66000 16.645
13.68000 11.015
13.70000 5.775
13.72000 8.109
13.74000 8.887
13.76000 8.378
13.78000 9.627
13.80000 7.711
13.82000 2.982
13.84000 4.394
13.86000 7.641
13.88000 9.054
13.90000 9.366
13.92000 5.561
13.94000 2.937
13.96000 8.541
13.98000 7.450
14.00000 8.901
14.02000 14.787
14.04000 11.909
14.06000 6.661
14.08000 5.475
14.10000 4.804
14.12000 2.444
14.14000 5.791
14.16000 8.168
14.18000 4.640
14.20000 10.357
14.22000 7.813
14.24000 7.151
14.26000 18.809
14.28000 15.189
14.30000 10.960
14.32000 8.408
14.34000 5.397
14.36000 4.334
14.38000 2.011
14.40000 0.463
14.42000 -0.136
14.44000 14.994
14.46000 18.260
14.48000 6.457
14.50000 3.291
14.52000 3.333
14.54000 6.910
14.56000 6.630
14.58000 1.429
14.60000 15.015
14.62000 13.635
14.64000 5.153
14.66000 10.771
14.68000 15.758
14.70000 1.835
14.72000 -2.021
14.74000 2.454
14.76000 6.749
14.78000 2.118
14.80000 -1.249
14.82000 -1.751
14.84000 2.108
14.86000 -0.128
14.88000 -4.092
14.90000 6.779
14.92000 11.493
14.94000 6.880
14.96000 8.490
14.98000 3.119
15.00000 13.466
15.02000 13.919
15.04000 0.971
15.06000 -4.505
15.08000 2.049
15.10000 3.690
15.12000 9.450
15.14000 11.093
15.16000 12.739
15.18000 7.431
15.20000 16.315
15.22000 15.709
15.24000 7.616
15.26000 -1.757
15.28000 -0.923
15.30000 9.061
15.32000 4.146
15.34000 -1.781
15.36000 4.281
15.38000 19.510
15.40000 17.727
15.42000 2.816
15.44000 6.216
15.46000 2.385
15.48000 -1.522
15.50000 7.307
15.52000 16.405
15.54000 13.139
15.56000 5.715
15.58000 -4.117
15.60000 0.725
15.62000 -2.260
15.64000 2.135
15.66000 11.338
15.68000 11.981
15.70000 3.515
15.72000 2.080
15.74000 7.400
15.76000 2.633
15.78000 -3.203
15.80000 -4.493
15.82000 -3.853
15.84000 -0.843
15.86000 1.163
15.88000 0.672
15.90000 3.823
15.92000 3.766
15.94000 -2.134
15.96000 1.484
15.98000 3.997
16.00000 1.281
16.02000 -3.563
16.04000 -0.435
16.06000 2.504
16.08000 1.781
16.10000 0.789
16.12000 4.840
16.14000 1.041
16.16000 -1.927
16.18000 4.001
16.20000 11.043
16.22000 4.440
16.24000 -1.122
16.26000 -2.064
16.28000 4.542
16.30000 2.767
16.32000 5.415
16.34000 4.223
16.36000 2.425
16.38000 6.922
16.40000 2.917
16.42000 2.909
16.44000 7.409
16.46000 -0.789
16.48000 0.162
16.50000 8.301
16.52000 5.228
16.54000 5.467
16.56000 1.439
16.58000 2.908
16.60000 2.000
16.62000 2.900
16.64000 7.970
16.66000 -2.334
16.68000 0.861
16.70000 5.463
16.72000 -0.850
16.74000 1.519
16.76000 -2.486
16.78000 2.467
16.80000 3.555
16.82000 5.826
16.84000 7.375
16.86000 6.826
16.88000 0.236
16.90000 -2.382
16.92000 3.998
16.94000 2.508
16.96000 -2.571
16.98000 1.432
17.00000 4.241
17.02000 5.896
17.04000 7.241
17.06000 7.431
17.08000 3.524
17.10000 3.849
17.12000 4.216
17.14000 7.986
17.16000 5.017
17.18000 10.849
17.20000 8.841
17.22000 6.537
17.24000 -4.421
17.26000 -0.318
17.28000 5.714
17.30000 3.666
17.32000 8.349
17.34000 18.278
17.36000 6.547
17.38000 -1.912
17.40000 -2.493
17.42000 -0.687
17.44000 9.381
17.46000 8.565
17.48000 2.068
17.50000 -1.327
17.52000 2.580
17.54000 13.735
17.56000 12.163
17.58000 9.514
17.60000 12.668
17.62000 13.555
17.64000 8.953
17.66000 5.173
17.68000 6.320
17.70000 7.816
17.72000 13.339
17.74000 10.645
17.76000 5.567
17.78000 4.777
17.80000 1.577
17.82000 -0.821
17.84000 4.007
17.86000 11.153
17.88000 11.630
17.90000 8.898
17.92000 6.396
17.94000 5.842
17.96000 7.129
17.98000 5.275
18.00000 0.281
18.02000 3.752
18.04000 4.243
18.06000 2.976
18.08000 5.083
18.10000 2.350
18.12000 5.549
18.14000 4.812
18.16000 9.138
18.18000 8.943
18.20000 -2.216
18.22000 6.449
18.24000 7.378
18.26000 2.120
18.28000 4.497
18.30000 11.418
18.32000 3.013
18.34000 -4.324
18.36000 -1.730
18.38000 4.130
18.40000 8.709
18.42000 3.275
18.44000 5.542
18.46000 5.046
18.48000 7.570
18.50000 4.764
18.52000 2.624
18.54000 10.056
18.56000 10.651
18.58000 4.589
18.60000 1.640
18.62000 0.375
18.64000 3.458
18.66000 5.183
18.68000 5.815
18.70000 7.955
18.72000 10.140
18.74000 9.247
18.76000 10.751
18.78000 10.257
18.80000 15.333
18.82000 7.981
18.84000 2.305
18.86000 9.089
18.88000 5.292
18.90000 4.539
18.92000 5.661
18.94000 6.049
18.96000 8.690
18.98000 7.380
19.00000 9.271
19.02000 3.855
19.04000 3.964
19.06000 -1.934
19.08000 0.751
19.10000 1.803
19.12000 1.635
19.14000 6.723
19.16000 12.313
19.18000 7.210
19.20000 5.445
19.22000 8.188
19.24000 10.301
19.26000 9.376
19.28000 6.855
19.30000 0.651
19.32000 2.856
19.34000 12.055
19.36000 10.732
19.38000 7.240
19.40000 10.983
19.42000 6.420
19.44000 -0.109
19.46000 8.828
19.48000 6.028
19.50000 7.594
19.52000 6.719
19.54000 4.107
19.56000 2.351
19.58000 1.181
19.60000 7.090
19.62000 7.832
19.64000 6.948
19.66000 3.744
19.68000 5.367
19.70000 2.157
19.72000 1.103
19.74000 10.047
19.76000 6.928
19.78000 2.124
19.80000 5.253
19.82000 3.363
19.84000 -0.463
19.86000 1.679
19.88000 5.997
19.90000 9.501
19.92000 10.156
19.94000 14.492
19.96000 9.092
19.98000 4.684
20.00000 2.964
20.02000 4.622
20.04000 8.856
20.06000 14.437
20.08000 18.152
20.10000 13.325
20.12000 6.322
20.14000 6.326
20.16000 10.005
20.18000 6.238
20.20000 1.193
20.22000 -4.212
20.24000 7.762
20.26000 7.988
20.28000 3.394
20.30000 5.523
20.32000 8.836
20.34000 8.143
20.36000 1.071
20.38000 5.582
20.40000 3.915
20.42000 0.234
20.44000 3.274
20.46000 10.989
20.48000 12.971
20.50000 6.536
20.52000 2.358
20.54000 2.058
20.56000 3.381
20.58000 2.655
20.60000 0.997
20.62000 5.953
20.64000 7.617
20.66000 5.947
20.68000 9.903
20.70000 10.605
20.72000 5.662
20.74000 3.495
20.76000 3.413
20.78000 6.232
20.80000 8.741
20.82000 12.380
20.84000 5.251
20.86000 6.905
20.88000 11.457
20.90000 10.903
20.92000 8.912
20.94000 8.776
20.96000 1.199
20.98000 2.546
21.00000 5.158
21.02000 6.124
21.04000 12.422
21.06000 12.373
21.08000 2.199
21.10000 6.415
21.12000 10.927
21.14000 2.973
21.16000 3.496
21.18000 5.875
21.20000 1.804
21.22000 4.222
21.24000 5.922
21.26000 0.026
21.28000 0.461
21.30000 13.264
21.32000 4.543
21.34000 -1.686
21.36000 -3.363
21.38000 1.431
21.40000 0.784
21.42000 1.266
21.44000 -4.182
21.46000 -1.153
21.48000 3.375
21.50000 1.310
21.52000 3.402
21.54000 6.276
21.56000 5.759
21.58000 2.280
21.60000 0.572
21.62000 3.624
21.64000 13.981
21.66000 6.832
21.68000 4.955
21.70000 7.027
21.72000 9.053
21.74000 10.094
21.76000 5.104
21.78000 2.519
21.80000 4.631
21.82000 2.503
21.84000 3.269
21.86000 4.506
21.88000 -2.341
21.90000 1.671
21.92000 7.582
21.94000 6.032
21.96000 1.736
21.98000 0.896
22.00000 -0.488
22.02000 7.293
22.04000 10.638
22.06000 4.872
22.08000 1.031
22.10000 -4.139
22.12000 -1.955
22.14000 5.159
22.16000 4.782
22.18000 0.351
22.20000 4.587
22.22000 0.126
22.24000 -2.451
22.26000 7.914
22.28000 0.459
22.30000 -2.708
22.32000 2.950
22.34000 7.921
22.36000 3.373
22.38000 2.376
22.40000 -0.488
22.42000 0.797
22.44000 1.696
22.46000 3.974
22.48000 3.668
22.50000 5.388
22.52000 9.261
22.54000 1.612
22.56000 -4.134
22.58000 -0.932
22.60000 7.061
22.62000 6.364
22.64000 5.752
22.66000 7.662
22.68000 6.197
22.70000 5.610
22.72000 3.103
22.74000 -0.712
22.76000 -2.696
22.78000 -1.687
22.80000 3.847
22.82000 7.033
22.84000 5.419
22.86000 7.015
22.88000 9.646
22.90000 7.234
22.92000 1.565
22.94000 5.878
22.96000 4.871
22.98000 5.707
23.00000 0.612
23.02000 -0.119
23.04000 2.959
23.06000 -0.752
23.08000 0.209
23.10000 4.745
23.12000 5.129
23.14000 -2.425
23.16000 1.901
23.18000 6.059
23.20000 7.383
23.22000 2.208
23.24000 4.029
23.26000 1.726
23.28000 3.531
23.30000 6.063
23.32000 -0.711
23.34000 -1.111
23.36000 4.371
23.38000 4.007
23.40000 3.949
23.42000 1.594
23.44000 0.277
23.46000 6.116
23.48000 0.420
23.50000 1.221
23.52000 3.715
23.54000 0.345
23.56000 -4.086
23.58000 1.812
23.60000 -2.188
23.62000 -2.705
23.64000 -1.961
23.66000 3.260
23.68000 4.710
23.70000 3.774
23.72000 7.677
23.74000 10.215
23.76000 4.324
23.78000 -0.940
23.80000 -2.342
23.82000 1.522
23.84000 2.809
23.86000 6.791
23.88000 4.957
23.90000 4.029
23.92000 7.766
23.94000 7.741
23.96000 -0.899
23.98000 -1.702
24.00000 2.715
24.02000 3.558
24.04000 0.331
24.06000 -1.312
24.08000 5.024
24.10000 5.259
24.12000 3.728
24.14000 1.457
24.16000 2.109
24.18000 5.214
24.20000 3.764
24.22000 5.581
24.24000 5.819
24.26000 2.237
24.28000 3.391
24.30000 2.588
24.32000 2.180
24.34000 2.007
24.36000 -2.880
24.38000 -1.814
24.40000 6.720
24.42000 10.104
24.44000 8.017
24.46000 3.260
24.48000 1.804
24.50000 13.877
24.52000 7.658
24.54000 7.051
24.56000 7.335
24.58000 3.067
24.60000 -1.091
24.62000 -0.525
24.64000 0.524
24.66000 -4.008
24.68000 -3.988
24.70000 0.770
24.72000 3.598
24.74000 4.311
24.76000 4.363
24.78000 4.875
24.80000 2.412
24.82000 1.762
24.84000 5.263
24.86000 5.552
24.88000 5.776
24.90000 7.848
24.92000 3.736
24.94000 1.235
24.96000 -0.566
24.98000 -0.050
25.00000 3.935
25.02000 8.389
25.04000 10.623
25.06000 5.362
25.08000 -3.967
25.10000 2.061
25.12000 7.866
25.14000 10.402
25.16000 7.383
25.18000 3.383
25.20000 0.011
25.22000 3.096
25.24000 4.311
25.26000 0.632
25.28000 5.113
25.30000 10.205
25.32000 9.300
25.34000 4.608
25.36000 7.095
25.38000 8.385
25.40000 3.473
25.42000 2.369
25.44000 1.702
25.46000 6.776
25.48000 7.746
25.50000 2.028
25.52000 7.464
25.54000 2.691
25.56000 6.496
25.58000 3.009
25.60000 1.461
25.62000 7.014
25.64000 1.524
25.66000 9.663
25.68000 7.447
25.70000 0.036
25.72000 4.023
25.74000 -0.986
25.76000 0.500
25.78000 2.987
25.80000 6.906
25.82000 7.036
25.84000 5.548
25.86000 4.080
25.88000 1.713
25.90000 6.502
25.92000 6.958
25.94000 2.410
25.96000 5.071
25.98000 7.543
26.00000 0.477
26.02000 -3.910
26.04000 0.495
26.06000 9.625
26.08000 7.346
26.10000 3.307
26.12000 3.768
26.14000 2.907
26.16000 3.886
26.18000 9.633
26.20000 9.861
26.22000 6.665
26.24000 0.097
26.26000 -1.081
26.28000 0.427
26.30000 3.465
26.32000 6.555
26.34000 10.577
26.36000 6.066
26.38000 10.484
26.40000 9.901
26.42000 3.234
26.44000 5.253
26.46000 1.979
26.48000 3.652
26.50000 3.596
26.52000 2.070
26.54000 -1.354
26.56000 1.566
26.58000 2.429
26.60000 5.613
26.62000 2.955
26.64000 0.563
26.66000 1.517
26.68000 2.468
26.70000 1.249
26.72000 3.835
26.74000 6.439
26.76000 6.480
26.78000 5.854
26.80000 5.281
26.82000 3.746
26.84000 0.474
26.86000 3.993
26.88000 2.926
26.90000 2.052
26.92000 -0.197
26.94000 6.820
26.96000 7.718
26.98000 5.423
27.00000 8.238
27.02000 6.553
27.04000 8.462
27.06000 8.152
27.08000 4.277
27.10000 5.366
27.12000 2.364
27.14000 -1.030
27.16000 3.260
27.18000 6.555
27.20000 2.254
27.22000 3.722
27.24000 -1.961
27.26000 0.349
27.28000 2.205
27.30000 -0.219
27.32000 0.576
27.34000 0.259
27.36000 -1.189
27.38000 2.334
27.40000 4.671
27.42000 4.314
27.44000 3.612
27.46000 4.985
27.48000 5.629
27.50000 0.194
27.52000 1.698
27.54000 -0.716
27.56000 -1.497
27.58000 -1.481
27.60000 3.024
27.62000 6.915
27.64000 6.166
27.66000 2.994
27.68000 -0.944
27.70000 5.883
27.72000 1.409
27.74000 1.421
27.76000 5.167
27.78000 4.344
27.80000 5.874
27.82000 6.360
27.84000 1.692
27.86000 3.091
27.88000 8.427
27.90000 7.425
27.92000 6.891
27.94000 0.651
27.96000 0.648
27.98000 6.600
28.00000 8.735
28.02000 3.280
28.04000 -0.016
28.06000 8.217
28.08000 5.312
28.10000 9.654
28.12000 6.227
28.14000 -2.221
28.16000 -3.799
28.18000 3.817
28.20000 4.856
28.22000 5.645
28.24000 -0.464
28.26000 1.406
28.28000 3.300
28.30000 8.076
28.32000 14.938
28.34000 10.894
28.36000 7.773
28.38000 3.947
28.40000 -0.971
28.42000 0.410
28.44000 5.832
28.46000 8.041
28.48000 1.883
28.50000 0.585
28.52000 4.214
28.54000 2.056
28.56000 -3.341
28.58000 -1.049
28.60000 -0.396
28.62000 1.528
28.64000 5.540
28.66000 7.196
28.68000 6.464
28.70000 4.390
28.72000 3.989
28.74000 5.157
28.76000 4.423
28.78000 1.712
28.80000 -0.248
28.82000 4.262
28.84000 5.084
28.86000 5.464
28.88000 0.723
28.90000 -0.974
28.92000 2.388
28.94000 6.348
28.96000 4.272
28.98000 1.135
29.00000 1.764
29.02000 2.451
29.04000 3.783
29.06000 4.225
29.08000 6.884
29.10000 9.291
29.12000 8.658
29.14000 1.126
29.16000 -1.356
29.18000 2.969
29.20000 4.954
29.22000 0.364
29.24000 -0.557
29.26000 1.930
29.28000 1.585
29.30000 3.521
29.32000 3.521
29.34000 -1.054
29.36000 -1.224
29.38000 7.254
29.40000 7.320
29.42000 8.555
29.44000 8.399
29.46000 6.129
29.48000 -0.023
29.50000 -3.732
29.52000 2.296
29.54000 0.578
29.56000 4.506
29.58000 6.427
29.60000 2.237
29.62000 0.310
29.64000 0.757
29.66000 2.277
29.68000 -0.363
29.70000 2.544
29.72000 0.215
29.74000 4.843
29.76000 -0.379
29.78000 5.209
29.80000 2.148
29.82000 1.137
29.84000 3.166
29.86000 5.737
29.88000 4.295
29.90000 5.050
29.92000 3.091
29.94000 3.755
29.96000 4.429
29.98000 2.175
30.00000 6.974
30.02000 3.803
30.04000 1.250
30.06000 0.809
30.08000 -3.721
30.10000 -2.159
30.12000 -1.485
30.14000 -2.960
30.16000 -0.918
30.18000 1.649
30.20000 3.338
30.22000 2.373
30.24000 4.756
30.26000 3.778
30.28000 -2.342
30.30000 -2.071
30.32000 5.799
30.34000 2.933
30.36000 -1.038
30.38000 -0.176
30.40000 2.399
30.42000 -1.094
30.44000 -3.082
30.46000 -1.892
30.48000 4.032
30.50000 3.833
30.52000 -3.502
30.54000 2.916
30.56000 3.187
30.58000 -3.004
30.60000 -1.940
30.62000 1.978
30.64000 -1.962
30.66000 -0.241
30.68000 -0.342
30.70000 2.129
30.72000 0.412
30.74000 2.045
30.76000 2.674
30.78000 0.365
30.80000 -2.235
30.82000 0.269
30.84000 2.187
30.86000 4.605
30.88000 7.163
30.90000 5.911
30.92000 1.628
30.94000 -2.118
30.96000 -0.690
30.98000 -1.054
31.00000 0.418
31.02000 2.524
31.04000 -0.031
31.06000 -3.448
31.08000 -3.695
31.10000 2.119
31.12000 2.419
31.14000 3.089
31.16000 -0.169
31.18000 0.510
31.20000 6.198
31.22000 -1.486
31.24000 -3.686
31.26000 -0.322
31.28000 -1.429
31.30000 1.100
31.32000 1.754
31.34000 -2.446
31.36000 -0.359
31.38000 5.350
31.40000 3.824
31.42000 4.202
31.44000 1.215
31.46000 1.909
31.48000 4.263
31.50000 7.897
31.52000 2.703
31.54000 -3.677
31.56000 -3.402
31.58000 -0.388
31.60000 0.973
31.62000 4.115
31.64000 -0.167
31.66000 4.374
31.68000 7.638
31.70000 -0.156
31.72000 0.366
31.74000 2.371
31.76000 3.492
31.78000 3.671
31.80000 2.872
31.82000 7.272
31.84000 2.124
31.86000 5.904
31.88000 5.159
31.90000 4.212
31.92000 6.127
31.94000 4.823
31.96000 6.050
31.98000 5.578
32.00000 8.214
32.02000 3.025
32.04000 0.937
32.06000 0.790
32.08000 -0.098
32.10000 2.329
32.12000 8.828
32.14000 8.450
32.16000 5.040
32.18000 0.136
32.20000 -0.446
32.22000 5.569
32.24000 6.298
32.26000 -0.458
32.28000 -3.634
32.30000 -0.742
32.32000 -2.970
32.34000 -3.634
32.36000 0.333
32.38000 1.628
32.40000 -0.556
32.42000 3.448
32.44000 4.467
32.46000 0.440
32.48000 0.591
32.50000 2.823
32.52000 5.984
32.54000 4.598
32.56000 5.675
32.58000 6.973
32.60000 6.678
32.62000 3.562
32.64000 2.192
32.66000 -1.349
32.68000 -2.131
32.70000 4.088
32.72000 9.078
32.74000 7.258
32.76000 -0.857
32.78000 1.478
32.80000 -1.477
32.82000 -3.625
32.84000 -0.046
32.86000 2.079
32.88000 1.461
32.90000 -0.895
32.92000 4.532
32.94000 1.047
32.96000 0.971
32.98000 3.896
33.00000 4.614
33.02000 0.653
33.04000 0.797
33.06000 4.020
33.08000 2.895
33.10000 3.017
33.12000 3.699
33.14000 2.038
33.16000 2.737
33.18000 6.406
33.20000 9.194
33.22000 5.398
33.24000 2.213
33.26000 1.523
33.28000 3.821
33.30000 2.564
33.32000 0.949
33.34000 2.140
33.36000 2.487
33.38000 2.368
33.40000 1.793
33.42000 1.998
33.44000 4.386
33.46000 7.460
33.48000 4.254
33.50000 6.924
33.52000 5.074
33.54000 3.893
33.56000 -2.098
33.58000 -1.972
33.60000 -0.203
33.62000 0.423
33.64000 3.924
33.66000 6.396
33.68000 5.148
33.70000 4.871
33.72000 3.786
33.74000 7.974
33.76000 4.715
33.78000 2.647
33.80000 -3.633
33.82000 1.702
33.84000 3.021
33.86000 5.729
33.88000 7.420
33.90000 4.477
33.92000 4.964
33.94000 4.654
33.96000 4.720
33.98000 7.095
34.00000 3.437
34.02000 -0.957
34.04000 4.862
34.06000 2.229
34.08000 2.512
34.10000 2.889
34.12000 0.871
34.14000 -0.316
34.16000 1.790
34.18000 1.766
34.20000 1.918
34.22000 3.506
34.24000 2.396
34.26000 4.859
34.28000 3.191
34.30000 3.375
34.32000 4.243
34.34000 0.805
34.36000 -2.426
34.38000 3.047
34.40000 2.684
34.42000 -0.981
34.44000 1.142
34.46000 -0.478
34.48000 -1.041
34.50000 4.071
34.52000 2.165
34.54000 -3.223
34.56000 -2.611
34.58000 -3.609
34.60000 -3.392
34.62000 -2.541
34.64000 -0.930
34.66000 4.852
34.68000 1.801
34.70000 2.270
34.72000 -3.293
34.74000 1.862
34.76000 8.576
34.78000 4.222
34.80000 4.653
34.82000 1.885
34.84000 0.843
34.86000 3.529
34.88000 6.679
34.90000 -0.680
34.92000 -0.495
34.94000 1.869
34.96000 4.349
34.98000 6.146
35.00000 5.297
35.02000 3.114
35.04000 0.420
35.06000 1.884
35.08000 2.841
35.10000 1.628
35.12000 5.334
35.14000 6.406
35.16000 -0.574
35.18000 -3.573
35.20000 -2.229
35.22000 0.370
35.24000 -0.417
35.26000 1.798
35.28000 1.874
35.30000 0.352
35.32000 0.212
35.34000 1.817
35.36000 2.235
35.38000 0.500
35.40000 6.539
35.42000 9.431
35.44000 7.113
35.46000 4.716
35.48000 -3.581
35.50000 -1.623
35.52000 -0.989
35.54000 0.712
35.56000 -0.037
35.58000 1.667
35.60000 0.416
35.62000 1.375
35.64000 2.191
35.66000 1.853
35.68000 3.681
35.70000 4.179
35.72000 5.665
35.74000 0.416
35.76000 1.110
35.78000 1.224
35.80000 1.237
35.82000 4.772
35.84000 7.000
35.86000 7.725
35.88000 7.157
35.90000 5.270
35.92000 3.513
35.94000 1.875
35.96000 2.571
35.98000 -1.043
36.00000 -1.064
36.02000 -2.212
36.04000 -3.134
36.06000 4.054
36.08000 3.354
36.10000 2.133
36.12000 0.702
36.14000 7.204
36.16000 4.045
36.18000 3.715
36.20000 4.363
36.22000 1.802
36.24000 -0.339
36.26000 4.881
36.28000 7.652
36.30000 2.857
36.32000 -0.720
36.34000 -0.393
36.36000 -3.444
36.38000 -1.931
36.40000 0.944
36.42000 2.196
36.44000 -3.045
36.46000 -0.494
36.48000 -0.248
36.50000 4.506
36.52000 2.073
36.54000 7.003
36.56000 7.294
36.58000 4.059
36.60000 -1.448
36.62000 -3.600
36.64000 -0.770
36.66000 3.283
36.68000 2.128
36.70000 1.852
36.72000 2.390
36.74000 4.266
36.76000 6.540
36.78000 5.387
36.80000 6.967
36.82000 2.004
36.84000 2.465
36.86000 -1.655
36.88000 -2.913
36.90000 0.115
36.92000 4.394
36.94000 3.463
36.96000 2.284
36.98000 1.646
37.00000 3.912
37.02000 -3.635
37.04000 0.950
37.06000 1.104
37.08000 -2.519
37.10000 0.808
37.12000 1.434
37.14000 0.725
37.16000 1.632
37.18000 -0.193
37.20000 -0.008
37.22000 -1.667
37.24000 1.387
37.26000 1.444
37.28000 3.871
37.30000 1.148
37.32000 2.208
37.34000 2.718
37.36000 2.052
37.38000 -3.555
37.40000 -2.329
37.42000 3.364
37.44000 3.619
37.46000 0.783
37.48000 -2.986
37.50000 -2.511
37.52000 2.128
37.54000 3.681
37.56000 4.315
37.58000 5.581
37.60000 5.079
37.62000 1.725
37.64000 4.911
37.66000 4.855
37.68000 1.910
37.70000 4.087
37.72000 7.538
37.74000 9.495
37.76000 8.017
37.78000 2.050
37.80000 0.434
37.82000 4.178
37.84000 5.848
37.86000 6.115
37.88000 5.962
37.90000 4.647
37.92000 5.281
37.94000 6.100
37.96000 10.878
37.98000 10.255
38.00000 13.048
38.02000 5.554
38.04000 3.457
38.06000 5.037
38.08000 6.201
38.10000 11.317
38.12000 11.454
38.14000 11.345
38.16000 10.616
38.18000 7.323
38.20000 14.552
38.22000 16.607
38.24000 10.635
38.26000 12.069
38.28000 17.308
38.30000 18.474
38.32000 15.387
38.34000 13.815
38.36000 16.096
38.38000 14.787
38.40000 15.408
38.42000 17.652
38.44000 21.717
38.46000 18.165
38.48000 17.283
38.50000 18.399
38.52000 24.123
38.54000 22.947
38.56000 22.088
38.58000 19.498
38.60000 22.636
38.62000 28.842
38.64000 30.710
38.66000 32.643
38.68000 28.917
38.70000 30.217
38.72000 29.655
38.74000 31.284
38.76000 30.798
38.78000 30.588
38.80000 34.455
38.82000 38.104
38.84000 41.279
38.86000 46.182
38.88000 40.600
38.90000 37.073
38.92000 41.685
38.94000 51.152
38.96000 51.144
38.98000 48.843
39.00000 53.132
39.02000 59.558
39.04000 57.310
39.06000 57.156
39.08000 62.385
39.10000 61.330
39.12000 63.049
39.14000 65.049
39.16000 75.500
39.18000 74.186
39.20000 78.873
39.22000 77.658
39.24000 84.163
39.26000 90.815
39.28000 88.068
39.30000 94.834
39.32000 100.913
39.34000 105.273
39.36000 110.287
39.38000 115.814
39.40000 122.317
39.42000 118.444
39.44000 128.392
39.46000 132.568
39.48000 143.910
39.50000 150.477
39.52000 154.487
39.54000 161.913
39.56000 168.723
39.58000 171.416
39.60000 182.638
39.62000 189.033
39.64000 195.948
39.66000 206.423
39.68000 215.290
39.70000 230.321
39.72000 245.423
39.74000 257.410
39.76000 264.190
39.78000 276.909
39.80000 292.381
39.82000 307.821
39.84000 317.265
39.86000 336.039
39.88000 348.649
39.90000 359.219
39.92000 377.764
39.94000 392.154
39.96000 416.325
39.98000 429.542
40.00000 449.591
40.02000 469.049
40.04000 479.252
40.06000 499.713
40.08000 521.010
40.10000 532.843
40.12000 546.351
40.14000 566.591
40.16000 581.498
40.18000 587.466
40.20000 595.112
40.22000 615.130
40.24000 630.329
40.26000 655.994
40.28000 673.692
40.30000 664.936
40.32000 656.424
40.34000 659.072
40.36000 660.186
40.38000 654.331
40.40000 652.549
40.42000 654.675
40.44000 651.595
40.46000 658.291
40.48000 649.947
40.50000 628.751
40.52000 613.138
40.54000 602.226
40.56000 586.016
40.58000 570.105
40.60000 557.055
40.62000 536.813
40.64000 517.148
40.66000 500.090
40.68000 482.481
40.70000 465.527
40.72000 448.856
40.74000 440.355
40.76000 416.517
40.78000 402.895
40.80000 392.470
40.82000 364.283
40.84000 347.254
40.86000 320.286
40.88000 310.994
40.90000 295.585
40.92000 282.778
40.94000 270.146
40.96000 255.661
40.98000 247.127
41.00000 237.091
41.02000 219.640
41.04000 208.673
41.06000 194.621
41.08000 189.366
41.10000 180.312
41.12000 168.479
41.14000 159.742
41.16000 145.982
41.18000 137.625
41.20000 138.019
41.22000 130.559
41.24000 125.779
41.26000 114.346
41.28000 106.566
41.30000 105.918
41.32000 101.950
41.34000 94.511
41.36000 88.648
41.38000 82.461
41.40000 77.320
41.42000 78.116
41.44000 73.283
41.46000 67.137
41.48000 63.821
41.50000 60.824
41.52000 56.963
41.54000 53.728
41.56000 50.810
41.58000 49.119
41.60000 45.020
41.62000 43.521
41.64000 42.239
41.66000 42.820
41.68000 39.481
41.70000 35.880
41.72000 37.407
41.74000 38.003
41.76000 36.818
41.78000 36.605
41.80000 29.400
41.82000 24.621
41.84000 23.369
41.86000 19.046
41.88000 20.226
41.90000 26.195
41.92000 22.720
41.94000 21.014
41.96000 22.710
41.98000 19.287
42.00000 17.894
42.02000 17.504
42.04000 15.578
42.06000 15.615
42.08000 13.249
42.10000 12.062
42.12000 14.193
42.14000 12.363
42.16000 12.868
42.18000 9.413
42.20000 8.632
42.22000 13.512
42.24000 16.672
42.26000 15.530
42.28000 13.801
42.30000 13.493
42.32000 11.972
42.34000 11.552
42.36000 13.865
42.38000 11.094
42.40000 5.400
42.42000 3.174
42.44000 5.003
42.46000 5.799
42.48000 5.375
42.50000 8.009
42.52000 9.766
42.54000 7.871
42.56000 9.120
42.58000 8.685
42.60000 4.064
42.62000 5.882
42.64000 2.031
42.66000 7.299
42.68000 6.272
42.70000 1.922
42.72000 1.492
42.74000 1.697
42.76000 5.227
42.78000 4.074
42.80000 -3.614
42.82000 -1.228
42.84000 3.211
42.86000 4.191
42.88000 1.272
42.90000 0.983
42.92000 1.300
42.94000 4.095
42.96000 3.352
42.98000 3.281
43.00000 1.851
43.02000 -0.142
43.04000 1.234
43.06000 0.997
43.08000 5.172
43.10000 -0.438
43.12000 4.436
43.14000 -0.516
43.16000 0.682
43.18000 0.619
43.20000 3.259
43.22000 0.129
43.24000 -3.575
43.26000 2.512
43.28000 3.788
43.30000 2.130
43.32000 0.666
43.34000 -0.557
43.36000 4.230
43.38000 2.465
43.40000 0.493
43.42000 0.585
43.44000 0.024
43.46000 -0.498
43.48000 -0.799
43.50000 -0.382
43.52000 -0.137
43.54000 -0.516
43.56000 -0.617
43.58000 -3.144
43.60000 -0.916
43.62000 -1.646
43.64000 1.485
43.66000 1.396
43.68000 1.307
43.70000 1.200
43.72000 0.049
43.74000 -3.135
43.76000 -0.252
43.78000 -3.552
43.80000 -1.150
43.82000 -1.257
43.84000 0.895
43.86000 0.312
43.88000 -2.351
43.90000 -0.421
43.92000 1.053
43.94000 -3.545
43.96000 0.066
43.98000 -2.283
44.00000 -1.890
44.02000 -2.727
44.04000 -1.463
44.06000 -2.487
44.08000 1.783
44.10000 -1.320
44.12000 0.943
44.14000 -0.602
44.16000 1.846
44.18000 5.193
44.20000 1.289
44.22000 -1.291
44.24000 -3.081
44.26000 -0.596
44.28000 0.526
44.30000 3.425
44.32000 3.713
44.34000 0.136
44.36000 4.182
44.38000 1.969
44.40000 4.374
44.42000 -1.173
44.44000 -1.530
44.46000 -2.243
44.48000 -2.021
44.50000 2.044
44.52000 -0.647
44.54000 3.632
44.56000 4.363
44.58000 3.816
44.60000 0.294
44.62000 -1.267
44.64000 -1.013
44.66000 -1.518
44.68000 -0.071
44.70000 0.747
44.72000 -3.548
44.74000 1.435
44.76000 -0.515
44.78000 2.969
44.80000 4.407
44.82000 -0.566
44.84000 1.734
44.86000 2.209
44.88000 2.342
44.90000 3.791
44.92000 5.287
44.94000 2.777
44.96000 1.599
44.98000 3.939
45.00000 7.714
45.02000 7.324
45.04000 1.151
45.06000 5.816
45.08000 5.744
45.10000 5.206
45.12000 1.130
45.14000 8.892
45.16000 8.065
45.18000 6.515
45.20000 9.109
45.22000 6.783
45.24000 6.290
45.26000 1.612
45.28000 8.989
45.30000 11.484
45.32000 10.766
45.34000 9.643
45.36000 6.814
45.38000 6.637
45.40000 12.282
45.42000 14.531
45.44000 10.665
45.46000 8.691
45.48000 13.169
45.50000 13.628
45.52000 17.034
45.54000 17.043
45.56000 20.417
45.58000 17.648
45.60000 20.826
45.62000 16.416
45.64000 17.259
45.66000 19.220
45.68000 23.966
45.70000 22.083
45.72000 23.340
45.74000 21.375
45.76000 23.846
45.78000 23.067
45.80000 23.859
45.82000 24.932
45.84000 23.944
45.86000 25.123
45.88000 26.829
45.90000 30.525
45.92000 27.200
45.94000 31.625
45.96000 33.295
45.98000 31.853
46.00000 35.984
46.02000 33.958
46.04000 33.023
46.06000 38.478
46.08000 40.357
46.10000 45.882
46.12000 44.726
46.14000 43.491
46.16000 50.841
46.18000 50.483
46.20000 47.823
46.22000 51.586
46.24000 50.236
46.26000 42.952
46.28000 43.161
46.30000 48.301
46.32000 53.438
46.34000 53.559
46.36000 51.922
46.38000 55.041
46.40000 53.017
46.42000 53.350
46.44000 60.082
46.46000 61.399
46.48000 64.802
46.50000 61.199
46.52000 65.800
46.54000 67.858
46.56000 68.525
46.58000 71.889
46.60000 76.829
46.62000 83.084
46.64000 80.002
46.66000 72.267
46.68000 71.010
46.70000 75.748
46.72000 78.244
46.74000 77.850
46.76000 78.526
46.78000 79.696
46.80000 77.422
46.82000 83.637
46.84000 76.007
46.86000 76.333
46.88000 80.948
46.90000 74.531
46.92000 81.147
46.94000 80.466
46.96000 76.899
46.98000 73.518
47.00000 77.008
47.02000 78.219
47.04000 76.924
47.06000 76.357
47.08000 72.657
47.10000 75.481
47.12000 78.541
47.14000 81.167
47.16000 79.404
47.18000 75.757
47.20000 76.477
47.22000 75.985
47.24000 69.961
47.26000 68.461
47.28000 67.686
47.30000 66.064
47.32000 69.042
47.34000 66.773
47.36000 56.590
47.38000 57.866
47.40000 61.669
47.42000 59.673
47.44000 54.123
47.46000 55.291
47.48000 53.238
47.50000 56.100
47.52000 51.773
47.54000 53.527
47.56000 52.555
47.58000 41.947
47.60000 44.505
47.62000 50.122
47.64000 48.027
47.66000 42.013
47.68000 37.026
47.70000 37.615
47.72000 32.371
47.74000 32.285
47.76000 33.468
47.78000 33.574
47.80000 32.480
47.82000 26.927
47.84000 26.300
47.86000 26.994
47.88000 19.595
47.90000 19.315
47.92000 21.815
47.94000 18.424
47.96000 18.052
47.98000 19.573
48.00000 25.425
48.02000 19.310
48.04000 8.629
48.06000 12.683
48.08000 15.661
48.10000 11.834
48.12000 10.424
48.14000 16.027
48.16000 15.387
48.18000 15.055
48.20000 11.939
48.22000 6.399
48.24000 8.728
48.26000 11.222
48.28000 8.595
48.30000 12.754
48.32000 15.197
48.34000 8.117
48.36000 7.679
48.38000 1.095
48.40000 3.795
48.42000 2.234
48.44000 3.339
48.46000 5.535
48.48000 5.281
48.50000 4.844
48.52000 6.898
48.54000 3.577
48.56000 2.260
48.58000 0.099
48.60000 -2.062
48.62000 2.513
48.64000 4.448
48.66000 3.672
48.68000 3.090
48.70000 0.873
48.72000 1.321
48.74000 3.322
48.76000 3.709
48.78000 3.268
48.80000 3.576
48.82000 6.856
48.84000 8.051
48.86000 10.717
48.88000 4.882
48.90000 2.443
48.92000 3.313
48.94000 4.006
48.96000 6.578
48.98000 1.992
49.00000 0.087
49.02000 -0.545
49.04000 -0.307
49.06000 -3.191
49.08000 6.141
49.10000 3.047
49.12000 6.314
49.14000 2.591
49.16000 -0.262
49.18000 -0.688
49.20000 3.960
49.22000 5.547
49.24000 2.052
49.26000 1.348
49.28000 4.985
49.30000 5.469
49.32000 4.532
49.34000 4.574
49.36000 0.529
49.38000 3.462
49.40000 4.699
49.42000 3.887
49.44000 2.031
49.46000 2.256
49.48000 0.255
49.50000 5.548
49.52000 -3.099
49.54000 -0.947
49.56000 -1.735
49.58000 -1.032
49.60000 4.622
49.62000 3.794
49.64000 -1.747
49.66000 3.250
49.68000 -0.488
49.70000 5.561
49.72000 7.978
49.74000 5.543
49.76000 4.981
49.78000 1.608
49.80000 1.782
49.82000 0.331
49.84000 0.565
49.86000 2.634
49.88000 4.652
49.90000 4.127
49.92000 4.580
49.94000 9.716
49.96000 7.085
49.98000 1.808
50.00000 6.031
50.02000 11.765
50.04000 4.669
50.06000 -0.420
50.08000 -3.053
50.10000 4.439
50.12000 5.979
50.14000 3.838
50.16000 3.438
50.18000 6.187
50.20000 4.847
50.22000 4.182
50.24000 7.235
50.26000 6.027
50.28000 5.706
50.30000 11.132
50.32000 2.884
50.34000 2.143
50.36000 6.147
50.38000 3.763
50.40000 0.616
50.42000 4.838
50.44000 1.816
50.46000 -0.641
50.48000 4.265
50.50000 10.583
50.52000 7.790
50.54000 7.410
50.56000 8.447
50.58000 3.884
50.60000 1.543
50.62000 3.142
50.64000 4.114
50.66000 0.519
50.68000 2.001
50.70000 1.871
50.72000 3.215
50.74000 6.934
50.76000 10.503
50.78000 10.522
50.80000 7.491
50.82000 3.217
50.84000 5.179
50.86000 5.402
50.88000 5.308
50.90000 4.163
50.92000 3.140
50.94000 3.019
50.96000 5.381
50.98000 6.935
51.00000 6.768
51.02000 1.627
51.04000 -1.329
51.06000 -0.075
51.08000 3.278
51.10000 -2.987
51.12000 1.333
51.14000 4.527
51.16000 6.947
51.18000 1.776
51.20000 7.162
51.22000 6.097
51.24000 4.752
51.26000 3.711
51.28000 2.149
51.30000 0.613
51.32000 0.560
51.34000 0.587
51.36000 4.096
51.38000 5.305
51.40000 6.012
51.42000 6.283
51.44000 2.509
51.46000 3.904
51.48000 6.919
51.50000 0.242
51.52000 -2.984
51.54000 0.296
51.56000 4.964
51.58000 4.303
51.60000 3.716
51.62000 4.428
51.64000 4.034
51.66000 2.745
51.68000 0.776
51.70000 5.099
51.72000 5.389
51.74000 2.515
51.76000 1.938
51.78000 2.494
51.80000 2.578
51.82000 6.792
51.84000 3.973
51.86000 1.182
51.88000 1.107
51.90000 2.376
51.92000 3.808
51.94000 4.338
51.96000 3.410
51.98000 4.032
52.00000 1.222
52.02000 0.801
52.04000 -1.242
52.06000 6.187
52.08000 3.821
52.10000 0.609
52.12000 0.114
52.14000 5.363
52.16000 5.131
52.18000 4.066
52.20000 3.198
52.22000 -1.712
52.24000 -0.451
52.26000 3.546
52.28000 2.335
52.30000 2.544
52.32000 4.006
52.34000 1.010
52.36000 -0.104
52.38000 -0.226
52.40000 0.925
52.42000 0.584
52.44000 -1.013
52.46000 1.213
52.48000 0.641
52.50000 2.977
52.52000 0.413
52.54000 6.213
52.56000 0.304
52.58000 1.225
52.60000 3.999
52.62000 -0.086
52.64000 4.716
52.66000 4.412
52.68000 3.042
52.70000 5.523
52.72000 10.202
52.74000 6.293
52.76000 2.339
52.78000 -0.474
52.80000 2.560
52.82000 3.763
52.84000 4.720
52.86000 1.931
52.88000 5.210
52.90000 3.047
52.92000 1.166
52.94000 5.242
52.96000 4.104
52.98000 2.308
53.00000 -0.196
53.02000 -0.727
53.04000 -1.024
53.06000 6.689
53.08000 3.666
53.10000 2.547
53.12000 0.725
53.14000 2.202
53.16000 1.532
53.18000 3.904
53.20000 2.608
53.22000 4.753
53.24000 6.292
53.26000 2.043
53.28000 1.543
53.30000 3.565
53.32000 2.158
53.34000 1.106
53.36000 3.204
53.38000 6.455
53.40000 5.442
53.42000 4.256
53.44000 4.911
53.46000 3.021
53.48000 2.178
53.50000 0.816
53.52000 3.729
53.54000 -2.894
53.56000 2.474
53.58000 6.651
53.60000 1.393
53.62000 2.391
53.64000 4.371
53.66000 1.298
53.68000 3.437
53.70000 3.602
53.72000 6.170
53.74000 1.813
53.76000 1.173
53.78000 3.505
53.80000 8.156
53.82000 14.906
53.84000 9.334
53.86000 5.155
53.88000 1.522
53.90000 2.789
53.92000 6.904
53.94000 2.687
53.96000 2.031
53.98000 0.760
54.00000 3.766
54.02000 4.230
54.04000 2.577
54.06000 7.003
54.08000 3.098
54.10000 5.648
54.12000 5.782
54.14000 6.291
54.16000 5.685
54.18000 5.376
54.20000 5.177
54.22000 3.143
54.24000 4.271
54.26000 7.018
54.28000 7.135
54.30000 8.908
54.32000 10.713
54.34000 8.104
54.36000 1.482
54.38000 2.813
54.40000 5.793
54.42000 3.471
54.44000 3.967
54.46000 3.786
54.48000 5.114
54.50000 3.663
54.52000 2.732
54.54000 2.776
54.56000 8.350
54.58000 7.498
54.60000 4.532
54.62000 -0.632
54.64000 4.967
54.66000 6.465
54.68000 4.908
54.70000 0.358
54.72000 0.789
54.74000 10.088
54.76000 8.231
54.78000 1.762
54.80000 -2.849
54.82000 8.222
54.84000 12.008
54.86000 6.747
54.88000 2.962
54.90000 5.358
54.92000 2.211
54.94000 2.680
54.96000 5.859
54.98000 5.058
55.00000 7.433
55.02000 8.032
55.04000 3.714
55.06000 3.628
55.08000 4.838
55.10000 6.893
55.12000 11.210
55.14000 11.226
55.16000 6.059
55.18000 -1.128
55.20000 1.854
55.22000 7.273
55.24000 8.692
55.26000 5.091
55.28000 4.042
55.30000 11.659
55.32000 6.439
55.34000 -1.811
55.36000 -1.479
55.38000 -0.146
55.40000 1.228
55.42000 0.078
55.44000 0.526
55.46000 4.778
55.48000 6.806
55.50000 7.673
55.52000 8.157
55.54000 0.499
55.56000 -0.263
55.58000 5.721
55.60000 8.188
55.62000 6.819
55.64000 9.477
55.66000 5.093
55.68000 3.013
55.70000 9.927
55.72000 3.567
55.74000 4.873
55.76000 6.038
55.78000 6.961
55.80000 7.463
55.82000 6.112
55.84000 0.168
55.86000 2.507
55.88000 2.938
55.90000 1.989
55.92000 4.789
55.94000 1.631
55.96000 3.420
55.98000 5.655
56.00000 -0.699
56.02000 4.870
56.04000 6.009
56.06000 5.973
56.08000 -1.078
56.10000 -0.881
56.12000 5.811
56.14000 3.232
56.16000 3.967
56.18000 5.485
56.20000 1.002
56.22000 4.332
56.24000 4.317
56.26000 1.887
56.28000 2.513
56.30000 8.528
56.32000 7.459
56.34000 5.902
56.36000 6.361
56.38000 5.054
56.40000 8.701
56.42000 5.501
56.44000 3.472
56.46000 1.703
56.48000 0.337
56.50000 -2.833
56.52000 -0.009
56.54000 0.755
56.56000 4.619
56.58000 5.261
56.60000 4.554
56.62000 7.761
56.64000 7.321
56.66000 5.099
56.68000 5.441
56.70000 -0.726
56.72000 2.099
56.74000 8.785
56.76000 10.188
56.78000 9.052
56.80000 3.258
56.82000 3.630
56.84000 5.055
56.86000 4.218
56.88000 1.261
56.90000 0.722
56.92000 -0.611
56.94000 -0.402
56.96000 1.869
56.98000 1.548
57.00000 1.094
57.02000 2.367
57.04000 2.453
57.06000 2.994
57.08000 6.598
57.10000 4.108
57.12000 4.221
57.14000 5.727
57.16000 5.125
57.18000 0.126
57.20000 -2.127
57.22000 -1.675
57.24000 4.098
57.26000 -0.005
57.28000 1.066
57.30000 1.363
57.32000 2.307
57.34000 0.869
57.36000 1.207
57.38000 0.391
57.40000 3.794
57.42000 7.138
57.44000 4.528
57.46000 0.853
57.48000 1.556
57.50000 0.407
57.52000 3.010
57.54000 3.120
57.56000 -2.793
57.58000 -0.821
57.60000 2.443
57.62000 6.552
57.64000 4.985
57.66000 9.282
57.68000 5.037
57.70000 2.332
57.72000 7.440
57.74000 6.414
57.76000 6.317
57.78000 4.361
57.80000 6.065
57.82000 4.927
57.84000 3.044
57.86000 2.587
57.88000 1.103
57.90000 -0.776
57.92000 4.470
57.94000 -0.225
57.96000 -2.761
57.98000 0.648
58.00000 8.005
58.02000 6.876
58.04000 -1.426
58.06000 -2.760
58.08000 -0.156
58.10000 0.475
58.12000 0.555
58.14000 2.695
58.16000 2.084
58.18000 1.607
58.20000 -0.132
58.22000 2.648
58.24000 3.417
58.26000 0.324
58.28000 4.355
58.30000 12.185
58.32000 7.261
58.34000 7.560
58.36000 6.794
58.38000 7.796
58.40000 4.311
58.42000 0.186
58.44000 0.656
58.46000 4.988
58.48000 4.782
58.50000 -0.669
58.52000 0.071
58.54000 2.824
58.56000 4.125
58.58000 4.727
58.60000 3.663
58.62000 1.444
58.64000 4.982
58.66000 6.796
58.68000 6.986
58.70000 4.819
58.72000 2.938
58.74000 2.880
58.76000 4.770
58.78000 6.334
58.80000 4.568
58.82000 -2.329
58.84000 -0.241
58.86000 -2.754
58.88000 -0.642
58.90000 -0.996
58.92000 2.524
58.94000 6.624
58.96000 3.979
58.98000 3.181
59.00000 -2.049
59.02000 -2.751
59.04000 2.483
59.06000 4.573
59.08000 3.862
59.10000 4.034
59.12000 5.272
59.14000 2.471
59.16000 -0.776
59.18000 3.801
59.20000 5.712
59.22000 6.194
59.24000 3.063
59.26000 0.710
59.28000 -0.855
59.30000 -1.544
59.32000 3.288
59.34000 0.829
59.36000 1.994
59.38000 1.164
59.40000 1.876
59.42000 5.386
59.44000 4.182
59.46000 3.035
59.48000 3.826
59.50000 3.934
59.52000 7.095
59.54000 3.407
59.56000 5.160
59.58000 4.295
59.60000 2.247
59.62000 4.132
59.64000 4.829
59.66000 3.309
59.68000 2.827
59.70000 1.879
59.72000 5.101
59.74000 2.293
59.76000 5.517
59.78000 5.174
59.80000 -0.110
59.82000 0.182
59.84000 3.543
59.86000 1.090
59.88000 2.651
59.90000 1.302
59.92000 1.308
59.94000 0.959
59.96000 0.390
59.98000 1.075
60.00000 3.272
60.02000 8.738
60.04000 6.619
60.06000 7.016
60.08000 2.775
60.10000 -1.380
60.12000 4.879
60.14000 2.845
60.16000 5.257
60.18000 2.088
60.20000 -0.359
60.22000 -2.697
60.24000 2.690
60.26000 7.635
60.28000 7.678
60.30000 7.850
60.32000 3.451
60.34000 1.299
60.36000 1.634
60.38000 6.614
60.40000 10.472
60.42000 2.657
60.44000 0.040
60.46000 3.584
60.48000 4.471
60.50000 2.162
60.52000 4.061
60.54000 5.665
60.56000 5.530
60.58000 4.659
60.60000 2.107
60.62000 1.466
60.64000 1.074
60.66000 0.652
60.68000 -1.382
60.70000 -0.478
60.72000 7.890
60.74000 11.308
60.76000 8.233
60.78000 4.545
60.80000 2.087
60.82000 2.000
60.84000 1.421
60.86000 4.799
60.88000 8.338
60.90000 7.388
60.92000 1.987
60.94000 1.967
60.96000 -0.828
60.98000 3.374
61.00000 3.620
61.02000 5.727
61.04000 8.085
61.06000 5.715
61.08000 4.591
61.10000 5.109
61.12000 3.821
61.14000 2.827
61.16000 -1.936
61.18000 -2.672
61.20000 1.091
61.22000 2.994
61.24000 4.317
61.26000 2.249
61.28000 -0.463
61.30000 1.414
61.32000 3.606
61.34000 2.973
61.36000 1.638
61.38000 -2.674
61.40000 0.461
61.42000 1.644
61.44000 1.401
61.46000 2.432
61.48000 4.738
61.50000 0.438
61.52000 0.234
61.54000 0.931
61.56000 -0.135
61.58000 0.232
61.60000 -2.521
61.62000 3.145
61.64000 4.656
61.66000 3.697
61.68000 1.371
61.70000 0.163
61.72000 2.501
61.74000 2.298
61.76000 3.220
61.78000 4.055
61.80000 1.895
61.82000 0.412
61.84000 6.305
61.86000 6.716
61.88000 3.346
61.90000 2.113
61.92000 4.057
61.94000 2.042
61.96000 5.149
61.98000 -1.488
62.00000 1.411
62.02000 5.445
62.04000 3.276
62.06000 0.242
62.08000 2.472
62.10000 -0.699
62.12000 -2.670
62.14000 -2.486
62.16000 3.122
62.18000 2.672
62.20000 2.106
62.22000 2.805
62.24000 0.217
62.26000 2.421
62.28000 5.448
62.30000 4.491
62.32000 3.340
62.34000 3.884
62.36000 2.085
62.38000 -1.412
62.40000 -1.426
62.42000 2.176
62.44000 -0.085
62.46000 0.892
62.48000 2.673
62.50000 0.138
62.52000 -0.565
62.54000 -0.051
62.56000 4.363
62.58000 5.551
62.60000 5.994
62.62000 6.886
62.64000 0.623
62.66000 1.603
62.68000 3.303
62.70000 0.892
62.72000 -0.786
62.74000 -0.796
62.76000 5.975
62.78000 6.759
62.80000 5.443
62.82000 3.582
62.84000 3.064
62.86000 3.132
62.88000 -1.645
62.90000 -2.647
62.92000 0.308
62.94000 4.662
62.96000 5.119
62.98000 4.948
63.00000 6.226
63.02000 7.884
63.04000 3.590
63.06000 6.529
63.08000 5.552
63.10000 0.279
63.12000 -1.901
63.14000 0.148
63.16000 2.197
63.18000 2.932
63.20000 2.065
63.22000 -1.204
63.24000 3.107
63.26000 3.677
63.28000 3.335
63.30000 3.761
63.32000 3.437
63.34000 6.621
63.36000 6.857
63.38000 5.982
63.40000 2.816
63.42000 0.679
63.44000 3.474
63.46000 7.502
63.48000 10.057
63.50000 7.579
63.52000 3.654
63.54000 2.285
63.56000 4.026
63.58000 2.031
63.60000 -2.582
63.62000 0.499
63.64000 1.563
63.66000 2.082
63.68000 -0.029
63.70000 -0.625
63.72000 2.137
63.74000 1.680
63.76000 2.237
63.78000 5.178
63.80000 6.962
63.82000 6.104
63.84000 3.594
63.86000 0.566
63.88000 1.189
63.90000 -1.662
63.92000 -1.082
63.94000 0.170
63.96000 1.299
63.98000 5.560
64.00000 5.000
64.02000 2.674
64.04000 2.112
64.06000 7.414
64.08000 8.763
64.10000 4.285
64.12000 7.684
64.14000 0.485
64.16000 0.300
64.18000 4.378
64.20000 7.874
64.22000 8.524
64.24000 6.314
64.26000 2.785
64.28000 2.492
64.30000 -0.990
64.32000 -2.625
64.34000 -2.624
64.36000 6.117
64.38000 5.877
64.40000 9.695
64.42000 5.546
64.44000 4.346
64.46000 4.892
64.48000 2.309
64.50000 5.793
64.52000 6.151
64.54000 2.520
64.56000 2.490
64.58000 0.636
64.60000 0.094
64.62000 5.040
64.64000 7.183
64.66000 4.397
64.68000 2.827
64.70000 5.493
64.72000 7.143
64.74000 7.212
64.76000 7.753
64.78000 5.520
64.80000 3.974
64.82000 5.646
64.84000 5.365
64.86000 0.825
64.88000 0.980
64.90000 1.474
64.92000 1.911
64.94000 5.264
64.96000 1.976
64.98000 5.411
65.00000 5.334
65.02000 3.823
65.04000 4.953
65.06000 0.553
65.08000 3.257
65.10000 4.190
65.12000 2.419
65.14000 3.185
65.16000 1.629
65.18000 -0.748
65.20000 -1.150
65.22000 0.958
65.24000 1.684
65.26000 0.156
65.28000 1.321
65.30000 2.710
65.32000 2.294
65.34000 2.195
65.36000 0.664
65.38000 0.439
65.40000 1.444
65.42000 2.469
65.44000 1.418
65.46000 2.668
65.48000 0.597
65.50000 0.614
65.52000 4.596
65.54000 4.790
65.56000 1.695
65.58000 0.855
65.60000 -2.317
65.62000 -0.437
65.64000 0.855
65.66000 1.620
65.68000 2.593
65.70000 -1.193
65.72000 -1.295
65.74000 2.082
65.76000 3.077
65.78000 4.775
65.80000 -0.474
65.82000 -1.786
65.84000 -2.693
65.86000 -0.799
65.88000 3.388
65.90000 -2.406
65.92000 -2.052
65.94000 0.215
65.96000 1.959
65.98000 2.848
66.00000 4.272
66.02000 0.960
66.04000 1.460
66.06000 0.738
66.08000 4.005
66.10000 2.192
66.12000 -0.263
66.14000 1.373
66.16000 1.046
66.18000 0.821
66.20000 -1.223
66.22000 1.737
66.24000 3.778
66.26000 1.210
66.28000 -0.120
66.30000 2.050
66.32000 4.938
66.34000 -1.184
66.36000 -1.600
66.38000 2.242
66.40000 0.835
66.42000 -1.260
66.44000 -0.179
66.46000 -0.648
66.48000 2.634
66.50000 7.378
66.52000 -0.446
66.54000 -0.753
66.56000 0.501
66.58000 2.111
66.60000 3.215
66.62000 4.275
66.64000 3.604
66.66000 1.436
66.68000 2.910
66.70000 2.212
66.72000 1.257
66.74000 3.387
66.76000 0.055
66.78000 -2.778
66.80000 -0.457
66.82000 2.276
66.84000 4.476
66.86000 0.640
66.88000 0.500
66.90000 3.820
66.92000 2.055
66.94000 1.413
66.96000 -1.016
66.98000 1.680
67.00000 4.011
67.02000 4.124
67.04000 5.878
67.06000 3.320
67.08000 2.530
67.10000 6.389
67.12000 2.767
67.14000 3.357
67.16000 0.955
67.18000 1.965
67.20000 5.391
67.22000 8.466
67.24000 5.390
67.26000 1.699
67.28000 1.043
67.30000 3.534
67.32000 5.459
67.34000 7.099
67.36000 7.885
67.38000 6.645
67.40000 5.772
67.42000 8.959
67.44000 8.101
67.46000 8.761
67.48000 9.026
67.50000 5.138
67.52000 7.247
67.54000 6.408
67.56000 8.768
67.58000 8.934
67.60000 11.737
67.62000 10.902
67.64000 11.426
67.66000 13.966
67.68000 11.379
67.70000 9.449
67.72000 9.736
67.74000 12.009
67.76000 9.024
67.78000 10.677
67.80000 14.058
67.82000 14.203
67.84000 14.689
67.86000 13.759
67.88000 10.941
67.90000 14.654
67.92000 15.683
67.94000 14.749
67.96000 16.010
67.98000 11.123
68.00000 11.918
68.02000 12.491
68.04000 14.643
68.06000 17.733
68.08000 18.315
68.10000 19.510
68.12000 16.214
68.14000 17.476
68.16000 21.576
68.18000 20.088
68.20000 23.734
68.22000 25.757
68.24000 25.525
68.26000 24.386
68.28000 20.704
68.30000 19.527
68.32000 17.647
68.34000 19.925
68.36000 27.409
68.38000 28.094
68.40000 23.539
68.42000 20.973
68.44000 23.531
68.46000 26.822
68.48000 34.302
68.50000 32.111
68.52000 24.865
68.54000 19.124
68.56000 22.931
68.58000 20.558
68.60000 22.387
68.62000 20.400
68.64000 21.247
68.66000 21.963
68.68000 23.086
68.70000 24.313
68.72000 24.720
68.74000 24.884
68.76000 28.319
68.78000 34.047
68.80000 30.051
68.82000 26.852
68.84000 26.241
68.86000 21.513
68.88000 22.634
68.90000 23.928
68.92000 19.977
68.94000 20.878
68.96000 17.314
68.98000 17.503
69.00000 18.727
69.02000 17.607
69.04000 18.933
69.06000 17.956
69.08000 16.512
69.10000 21.746
69.12000 20.588
69.14000 20.558
69.16000 18.766
69.18000 12.427
69.20000 15.612
69.22000 16.352
69.24000 12.680
69.26000 13.384
69.28000 13.874
69.30000 16.972
69.32000 15.792
69.34000 12.194
69.36000 9.806
69.38000 10.990
69.40000 10.044
69.42000 7.439
69.44000 6.533
69.46000 6.567
69.48000 10.297
69.50000 11.415
69.52000 12.891
69.54000 12.127
69.56000 8.308
69.58000 9.793
69.60000 8.496
69.62000 5.098
69.64000 3.969
69.66000 6.741
69.68000 7.667
69.70000 7.389
69.72000 9.259
69.74000 7.313
69.76000 1.415
69.78000 2.610
69.80000 4.700
69.82000 1.628
69.84000 -0.801
69.86000 2.653
69.88000 7.612
69.90000 9.089
69.92000 5.492
69.94000 4.982
69.96000 4.440
69.98000 1.352
70.00000 -2.687
70.02000 4.333
70.04000 6.682
70.06000 2.734
70.08000 3.863
70.10000 1.020
70.12000 2.853
70.14000 0.159
70.16000 4.025
70.18000 3.674
70.20000 2.972
70.22000 6.925
70.24000 7.817
70.26000 4.113
70.28000 -0.725
70.30000 0.238
70.32000 -0.150
70.34000 4.708
70.36000 1.858
70.38000 -0.759
70.40000 -0.602
70.42000 0.689
70.44000 -1.994
70.46000 3.376
70.48000 2.246
70.50000 0.923
70.52000 -1.182
70.54000 1.622
70.56000 4.146
70.58000 3.630
70.60000 1.545
70.62000 1.731
70.64000 4.196
70.66000 4.825
70.68000 6.954
70.70000 0.949
70.72000 -2.601
70.74000 -1.131
70.76000 1.090
70.78000 3.563
70.80000 4.420
70.82000 6.700
70.84000 5.791
70.86000 1.726
70.88000 -1.411
70.90000 -1.187
70.92000 3.676
70.94000 3.222
70.96000 1.292
70.98000 -0.633
71.00000 3.230
71.02000 5.930
71.04000 5.739
71.06000 2.095
71.08000 2.876
71.10000 1.612
71.12000 1.912
71.14000 0.698
71.16000 -1.065
71.18000 2.342
71.20000 2.975
71.22000 6.587
71.24000 7.943
71.26000 5.153
71.28000 5.783
71.30000 10.897
71.32000 9.389
71.34000 11.375
71.36000 5.461
71.38000 4.679
71.40000 6.048
71.42000 2.728
71.44000 -2.490
71.46000 5.605
71.48000 11.486
71.50000 7.776
71.52000 3.974
71.54000 1.034
71.56000 -1.194
71.58000 3.261
71.60000 4.155
71.62000 4.146
71.64000 7.995
71.66000 10.095
71.68000 9.741
71.70000 5.115
71.72000 2.547
71.74000 -0.519
71.76000 2.988
71.78000 4.486
71.80000 5.102
71.82000 6.796
71.84000 7.038
71.86000 12.490
71.88000 7.859
71.90000 3.295
71.92000 3.689
71.94000 6.109
71.96000 5.467
71.98000 3.754
72.00000 2.508
72.02000 2.172
72.04000 8.958
72.06000 13.695
72.08000 8.411
72.10000 8.450
72.12000 3.069
72.14000 3.782
72.16000 9.012
72.18000 5.990
72.20000 4.039
72.22000 1.638
72.24000 1.867
72.26000 4.128
72.28000 2.529
72.30000 3.542
72.32000 6.653
72.34000 3.201
72.36000 4.765
72.38000 7.617
72.40000 1.162
72.42000 -0.047
72.44000 0.790
72.46000 2.059
72.48000 3.822
72.50000 4.850
72.52000 5.225
72.54000 2.591
72.56000 2.613
72.58000 -2.007
72.60000 6.164
72.62000 10.765
72.64000 8.910
72.66000 6.264
72.68000 6.045
72.70000 2.644
72.72000 4.262
72.74000 4.455
72.76000 1.081
72.78000 -2.426
72.80000 6.784
72.82000 4.044
72.84000 3.541
72.86000 4.907
72.88000 5.851
72.90000 6.526
72.92000 9.784
72.94000 4.147
72.96000 2.503
72.98000 7.724
73.00000 10.631
73.02000 6.313
73.04000 7.720
73.06000 7.305
73.08000 9.564
73.10000 4.650
73.12000 5.961
73.14000 7.101
73.16000 5.370
73.18000 8.793
73.20000 9.381
73.22000 13.024
73.24000 6.898
73.26000 3.555
73.28000 5.766
73.30000 5.123
73.32000 8.515
73.34000 8.015
73.36000 6.829
73.38000 8.181
73.40000 5.307
73.42000 5.369
73.44000 3.684
73.46000 2.710
73.48000 1.960
73.50000 2.463
73.52000 4.269
73.54000 5.084
73.56000 2.391
73.58000 2.359
73.60000 3.137
73.62000 8.566
73.64000 6.425
73.66000 5.947
73.68000 3.333
73.70000 2.146
73.72000 4.628
73.74000 6.177
73.76000 6.121
73.78000 5.331
73.80000 3.446
73.82000 2.933
73.84000 5.077
73.86000 1.060
73.88000 4.165
73.90000 7.441
73.92000 3.497
73.94000 2.906
73.96000 -1.362
73.98000 -2.438
74.00000 5.268
74.02000 5.063
74.04000 4.456
74.06000 9.530
74.08000 8.080
74.10000 11.008
74.12000 4.328
74.14000 3.324
74.16000 5.271
74.18000 6.176
74.20000 3.937
74.22000 3.825
74.24000 5.405
74.26000 3.551
74.28000 2.247
74.30000 4.244
74.32000 6.030
74.34000 5.008
74.36000 2.370
74.38000 4.367
74.40000 6.066
74.42000 6.008
74.44000 2.326
74.46000 2.643
74.48000 3.857
74.50000 4.293
74.52000 5.405
74.54000 3.254
74.56000 1.829
74.58000 4.354
74.60000 4.382
74.62000 2.185
74.64000 1.982
74.66000 8.313
74.68000 7.034
74.70000 4.137
74.72000 3.708
74.74000 5.704
74.76000 6.937
74.78000 5.657
74.80000 -2.411
74.82000 0.480
74.84000 4.231
74.86000 4.769
74.88000 7.905
74.90000 2.527
74.92000 0.192
74.94000 7.067
74.96000 8.926
74.98000 6.821
75.00000 4.649
75.02000 6.164
75.04000 6.750
75.06000 1.347
75.08000 0.792
75.10000 5.248
75.12000 4.872
75.14000 4.167
75.16000 4.051
75.18000 4.408
75.20000 2.817
75.22000 0.655
75.24000 3.328
75.26000 1.281
75.28000 1.256
75.30000 4.107
75.32000 9.561
75.34000 9.727
75.36000 9.288
75.38000 4.049
75.40000 5.598
75.42000 3.278
75.44000 2.443
75.46000 2.391
75.48000 6.947
75.50000 10.309
75.52000 10.883
75.54000 5.758
75.56000 2.294
75.58000 7.146
75.60000 12.936
75.62000 8.242
75.64000 3.312
75.66000 2.259
75.68000 4.441
75.70000 7.508
75.72000 5.056
75.74000 7.330
75.76000 5.758
75.78000 6.977
75.80000 11.789
75.82000 0.303
75.84000 -2.217
75.86000 0.586
75.88000 0.423
75.90000 4.810
75.92000 7.235
75.94000 6.325
75.96000 2.558
75.98000 4.698
76.00000 2.992
76.02000 0.898
76.04000 4.036
76.06000 4.769
76.08000 4.810
76.10000 6.448
76.12000 8.851
76.14000 10.405
76.16000 11.141
76.18000 0.957
76.20000 -2.461
76.22000 1.037
76.24000 5.994
76.26000 8.847
76.28000 6.419
76.30000 6.117
76.32000 6.310
76.34000 2.401
76.36000 4.411
76.38000 8.098
76.40000 6.236
76.42000 3.232
76.44000 2.454
76.46000 0.672
76.48000 0.593
76.50000 1.337
76.52000 1.404
76.54000 -0.273
76.56000 0.260
76.58000 0.120
76.60000 1.028
76.62000 2.208
76.64000 1.052
76.66000 4.047
76.68000 6.461
76.70000 7.001
76.72000 4.558
76.74000 8.781
76.76000 5.356
76.78000 3.538
76.80000 1.178
76.82000 3.074
76.84000 -0.305
76.86000 9.046
76.88000 4.313
76.90000 3.767
76.92000 4.480
76.94000 2.590
76.96000 0.143
76.98000 -0.457
77.00000 1.969
77.02000 3.497
77.04000 -1.703
77.06000 0.705
77.08000 -0.043
77.10000 2.049
77.12000 3.134
77.14000 2.224
77.16000 5.936
77.18000 4.751
77.20000 4.917
77.22000 2.078
77.24000 -1.891
77.26000 -2.508
77.28000 -0.863
77.30000 0.602
77.32000 3.672
77.34000 3.237
77.36000 -1.456
77.38000 1.752
77.40000 -1.931
77.42000 -0.921
77.44000 0.281
77.46000 4.343
77.48000 3.567
77.50000 2.218
77.52000 4.271
77.54000 4.102
77.56000 8.063
77.58000 3.889
77.60000 -1.229
77.62000 -0.691
77.64000 -1.749
77.66000 -0.569
77.68000 1.666
77.70000 -0.111
77.72000 0.362
77.74000 1.308
77.76000 3.640
77.78000 4.233
77.80000 2.963
77.82000 0.239
77.84000 0.203
77.86000 1.608
77.88000 -0.251
77.90000 1.896
77.92000 0.284
77.94000 1.758
77.96000 5.046
77.98000 5.006
78.00000 -1.430
78.02000 2.275
78.04000 7.896
78.06000 8.175
78.08000 6.679
78.10000 -2.498
78.12000 0.117
78.14000 0.661
78.16000 2.358
78.18000 2.093
78.20000 -2.499
78.22000 0.438
78.24000 5.511
78.26000 4.638
78.28000 3.770
78.30000 1.667
78.32000 3.245
78.34000 6.226
78.36000 5.796
78.38000 5.088
78.40000 8.525
78.42000 9.740
78.44000 1.943
78.46000 -1.712
78.48000 3.182
78.50000 0.804
78.52000 1.217
78.54000 0.950
78.56000 2.892
78.58000 4.122
78.60000 2.559
78.62000 3.625
78.64000 2.797
78.66000 1.426
78.68000 1.736
78.70000 -2.505
78.72000 2.975
78.74000 2.806
78.76000 2.788
78.78000 5.741
78.80000 1.199
78.82000 1.731
78.84000 1.075
78.86000 2.733
78.88000 -1.554
78.90000 -2.405
78.92000 1.858
78.94000 4.087
78.96000 5.222
78.98000 8.112
79.00000 4.970
79.02000 4.604
79.04000 5.322
79.06000 8.002
79.08000 6.038
79.10000 4.314
79.12000 2.163
79.14000 3.236
79.16000 2.927
79.18000 -2.515
79.20000 0.404
79.22000 7.305
79.24000 8.073
79.26000 9.049
79.28000 7.059
79.30000 1.367
79.32000 -0.010
79.34000 1.650
79.36000 3.457
79.38000 1.460
79.40000 6.522
79.42000 4.657
79.44000 4.264
79.46000 1.432
79.48000 4.054
79.50000 4.057
79.52000 5.980
79.54000 2.291
79.56000 3.472
79.58000 5.492
79.60000 1.508
79.62000 7.918
79.64000 6.929
79.66000 0.079
79.68000 5.374
79.70000 2.485
79.72000 -2.543
79.74000 -2.133
79.76000 0.412
79.78000 2.675
79.80000 -0.191
79.82000 2.006
79.84000 1.426
79.86000 5.751
79.88000 4.855
79.90000 3.373
79.92000 2.413
79.94000 -1.681
79.96000 2.464
79.98000 3.706
80.00000 3.347
80.02000 4.522
80.04000 4.301
80.06000 -1.423
80.08000 -2.592
80.10000 4.165
80.12000 1.786
80.14000 4.677
80.16000 3.613
80.18000 7.084
80.20000 5.707
80.22000 -0.026
80.24000 -1.622
80.26000 -0.656
80.28000 4.094
80.30000 4.415
80.32000 3.703
80.34000 5.863
80.36000 5.849
80.38000 0.948
80.40000 1.202
80.42000 6.250
80.44000 5.411
80.46000 4.917
80.48000 0.206
80.50000 4.052
80.52000 2.298
80.54000 4.616
80.56000 5.279
80.58000 4.039
80.60000 0.822
80.62000 4.806
80.64000 3.346
80.66000 3.941
80.68000 11.096
80.70000 9.858
80.72000 5.415
80.74000 1.362
80.76000 4.134
80.78000 6.676
80.80000 1.367
80.82000 -2.659
80.84000 5.045
80.86000 6.159
80.88000 7.216
80.90000 6.467
80.92000 8.964
80.94000 5.660
80.96000 11.365
80.98000 5.676
81.00000 2.554
81.02000 6.912
81.04000 6.999
81.06000 4.584
81.08000 0.765
81.10000 3.856
81.12000 7.907
81.14000 3.130
81.16000 5.434
81.18000 5.309
81.20000 4.854
81.22000 3.747
81.24000 3.699
81.26000 7.637
81.28000 6.801
81.30000 9.965
81.32000 2.164
81.34000 7.070
81.36000 8.561
81.38000 6.984
81.40000 8.642
81.42000 10.768
81.44000 7.875
81.46000 6.840
81.48000 8.340
81.50000 5.828
81.52000 8.612
81.54000 10.073
81.56000 6.973
81.58000 5.620
81.60000 10.533
81.62000 12.751
81.64000 7.760
81.66000 4.378
81.68000 9.572
81.70000 9.359
81.72000 5.897
81.74000 6.320
81.76000 7.778
81.78000 9.439
81.80000 12.502
81.82000 18.722
81.84000 15.109
81.86000 13.149
81.88000 8.058
81.90000 13.184
81.92000 17.867
81.94000 17.284
81.96000 13.767
81.98000 17.790
82.00000 18.651
82.02000 18.607
82.04000 13.838
82.06000 12.951
82.08000 14.057
82.10000 11.196
82.12000 7.539
82.14000 13.958
82.16000 22.396
82.18000 20.619
82.20000 18.970
82.22000 20.061
82.24000 21.904
82.26000 13.706
82.28000 17.958
82.30000 18.642
82.32000 15.092
82.34000 14.289
82.36000 20.191
82.38000 17.175
82.40000 22.197
82.42000 27.122
82.44000 23.277
82.46000 24.188
82.48000 19.926
82.50000 19.228
82.52000 26.536
82.54000 28.154
82.56000 25.022
82.58000 26.592
82.60000 24.888
82.62000 24.287
82.64000 24.088
82.66000 25.599
82.68000 22.687
82.70000 25.095
82.72000 21.343
82.74000 22.511
82.76000 21.643
82.78000 27.506
82.80000 25.442
82.82000 22.020
82.84000 20.314
82.86000 24.704
82.88000 26.822
82.90000 25.925
82.92000 23.624
82.94000 24.669
82.96000 23.440
82.98000 25.386
83.00000 26.266
83.02000 19.316
83.04000 25.410
83.06000 18.049
83.08000 19.557
83.10000 20.706
83.12000 16.273
83.14000 16.114
83.16000 19.144
83.18000 22.726
83.20000 23.251
83.22000 23.103
83.24000 25.334
83.26000 19.887
83.28000 19.328
83.30000 15.348
83.32000 20.232
83.34000 20.874
83.36000 18.671
83.38000 20.631
83.40000 16.857
83.42000 13.987
83.44000 12.908
83.46000 15.544
83.48000 13.914
83.50000 9.937
83.52000 11.597
83.54000 15.587
83.56000 15.959
83.58000 12.269
83.60000 14.091
83.62000 15.305
83.64000 15.316
83.66000 16.316
83.68000 12.779
83.70000 13.400
83.72000 13.606
83.74000 8.915
83.76000 11.543
83.78000 8.863
83.80000 8.808
83.82000 11.917
83.84000 11.776
83.86000 6.634
83.88000 10.973
83.90000 8.325
83.92000 6.594
83.94000 2.334
83.96000 9.893
83.98000 5.321
84.00000 8.858
84.02000 9.236
84.04000 4.168
84.06000 5.219
84.08000 8.503
84.10000 10.577
84.12000 11.566
84.14000 8.287
84.16000 -1.982
84.18000 3.233
84.20000 5.209
84.22000 5.584
84.24000 7.747
84.26000 -0.637
84.28000 1.278
84.30000 4.647
84.32000 -0.508
84.34000 3.453
84.36000 -0.553
84.38000 3.827
84.40000 7.419
84.42000 7.475
84.44000 7.125
84.46000 3.724
84.48000 2.229
84.50000 3.884
84.52000 2.811
84.54000 0.468
84.56000 0.039
84.58000 0.565
84.60000 -0.095
84.62000 3.609
84.64000 9.863
84.66000 4.078
84.68000 0.200
84.70000 -0.379
84.72000 0.444
84.74000 3.488
84.76000 3.761
84.78000 3.200
84.80000 5.162
84.82000 -0.092
84.84000 -1.545
84.86000 -2.642
84.88000 1.400
84.90000 5.478
84.92000 1.836
84.94000 3.794
84.96000 3.110
84.98000 1.569
85.00000 -1.069
85.02000 1.917
85.04000 4.232
85.06000 3.716
85.08000 0.280
85.10000 -2.608
85.12000 -0.351
85.14000 1.279
85.16000 2.719
85.18000 6.112
85.20000 6.010
85.22000 6.767
85.24000 2.201
85.26000 -0.777
85.28000 -0.898
85.30000 -1.222
85.32000 0.073
85.34000 2.202
85.36000 -1.855
85.38000 -0.540
85.40000 0.236
85.42000 -0.797
85.44000 -2.008
85.46000 0.192
85.48000 0.351
85.50000 6.170
85.52000 6.649
85.54000 6.727
85.56000 2.340
85.58000 3.220
85.60000 3.284
85.62000 2.708
85.64000 5.621
85.66000 4.615
85.68000 2.089
85.70000 -2.562
85.72000 3.581
85.74000 8.112
85.76000 6.935
85.78000 6.137
85.80000 8.508
85.82000 3.575
85.84000 2.164
85.86000 2.324
85.88000 4.694
85.90000 2.629
85.92000 2.228
85.94000 7.708
85.96000 1.646
85.98000 0.467
86.00000 3.295
86.02000 5.565
86.04000 3.477
86.06000 3.364
86.08000 4.448
86.10000 6.204
86.12000 15.402
86.14000 20.197
86.16000 15.981
86.18000 9.193
86.20000 6.148
86.22000 4.821
86.24000 7.841
86.26000 12.722
86.28000 11.700
86.30000 10.024
86.32000 9.754
86.34000 7.635
86.36000 5.005
86.38000 9.815
86.40000 14.014
86.42000 9.542
86.44000 6.969
86.46000 6.568
86.48000 11.473
86.50000 13.397
86.52000 8.349
86.54000 13.538
86.56000 18.294
86.58000 18.178
86.60000 19.499
86.62000 16.280
86.64000 14.101
86.66000 18.274
86.68000 16.302
86.70000 13.767
86.72000 16.491
86.74000 16.614
86.76000 18.723
86.78000 17.751
86.80000 20.556
86.82000 23.049
86.84000 27.705
86.86000 24.843
86.88000 25.221
86.90000 20.553
86.92000 21.678
86.94000 26.221
86.96000 23.817
86.98000 21.421
87.00000 21.615
87.02000 23.843
87.04000 28.005
87.06000 28.170
87.08000 21.634
87.10000 25.173
87.12000 30.244
87.14000 25.644
87.16000 23.993
87.18000 21.869
87.20000 21.950
87.22000 20.230
87.24000 21.396
87.26000 28.476
87.28000 37.245
87.30000 29.978
87.32000 23.595
87.34000 23.227
87.36000 29.621
87.38000 24.880
87.40000 27.708
87.42000 26.753
87.44000 28.008
87.46000 29.284
87.48000 24.219
87.50000 21.807
87.52000 23.174
87.54000 21.960
87.56000 20.856
87.58000 28.673
87.60000 23.269
87.62000 25.814
87.64000 21.878
87.66000 23.239
87.68000 26.427
87.70000 24.999
87.72000 18.664
87.74000 15.762
87.76000 18.995
87.78000 19.687
87.80000 21.678
87.82000 20.530
87.84000 18.820
87.86000 17.581
87.88000 18.625
87.90000 21.215
87.92000 23.755
87.94000 14.368
87.96000 19.726
87.98000 12.633
88.00000 12.532
88.02000 17.550
88.04000 15.483
88.06000 12.645
88.08000 11.140
88.10000 6.313
88.12000 10.669
88.14000 13.754
88.16000 12.249
88.18000 12.823
88.20000 12.130
88.22000 10.610
88.24000 12.000
88.26000 12.665
88.28000 15.016
88.30000 12.370
88.32000 8.400
88.34000 8.770
88.36000 8.115
88.38000 7.768
88.40000 9.734
88.42000 9.276
88.44000 8.564
88.46000 11.875
88.48000 11.359
88.50000 11.641
88.52000 8.685
88.54000 7.735
88.56000 5.602
88.58000 7.046
88.60000 10.049
88.62000 2.511
88.64000 7.477
88.66000 3.269
88.68000 8.581
88.70000 10.224
88.72000 10.860
88.74000 7.043
88.76000 3.669
88.78000 1.505
88.80000 -2.418
88.82000 0.222
88.84000 6.698
88.86000 11.344
88.88000 7.187
88.90000 1.501
88.92000 4.386
88.94000 8.889
88.96000 5.417
88.98000 8.495
89.00000 3.409
89.02000 6.031
89.04000 3.777
89.06000 1.193
89.08000 -0.040
89.10000 0.095
89.12000 1.347
89.14000 6.026
89.16000 -0.646
89.18000 1.473
89.20000 5.105
89.22000 5.079
89.24000 3.525
89.26000 3.527
89.28000 -1.368
89.30000 -1.536
89.32000 -1.605
89.34000 1.180
89.36000 0.305
89.38000 5.039
89.40000 3.868
89.42000 1.797
89.44000 3.602
89.46000 1.312
89.48000 2.007
89.50000 2.825
89.52000 3.726
89.54000 4.338
89.56000 1.446
89.58000 4.380
89.60000 7.930
89.62000 3.463
89.64000 10.726
89.66000 3.420
89.68000 0.847
89.70000 -2.399
89.72000 -0.408
89.74000 3.393
89.76000 0.278
89.78000 1.858
89.80000 -1.282
89.82000 1.898
89.84000 2.945
89.86000 -0.315
89.88000 0.107
89.90000 3.824
89.92000 -0.036
89.94000 -0.876
89.96000 -0.121
89.98000 1.657
90.00000 1.381
90.02000 2.655
90.04000 7.176
90.06000 5.874
90.08000 6.575
90.10000 3.782
90.12000 4.741
90.14000 -1.482
90.16000 1.316
90.18000 1.852
90.20000 3.329
90.22000 2.574
90.24000 -1.756
90.26000 -1.957
90.28000 2.045
90.30000 5.491
90.32000 2.038
90.34000 1.350
90.36000 1.461
90.38000 2.232
90.40000 -1.261
90.42000 -2.357
90.44000 3.493
90.46000 3.542
90.48000 4.943
90.50000 0.724
90.52000 1.237
90.54000 2.152
90.56000 -0.126
90.58000 1.250
90.60000 -1.879
90.62000 2.440
90.64000 3.411
90.66000 4.934
90.68000 4.852
90.70000 1.167
90.72000 4.503
90.74000 5.459
90.76000 4.026
90.78000 5.061
90.80000 8.319
90.82000 6.134
90.84000 1.286
90.86000 5.145
90.88000 3.699
90.90000 2.808
90.92000 3.579
90.94000 8.324
90.96000 5.016
90.98000 -1.970
91.00000 -2.330
91.02000 2.643
91.04000 2.321
91.06000 2.335
91.08000 0.555
91.10000 1.716
91.12000 -1.958
91.14000 0.105
91.16000 6.196
91.18000 5.825
91.20000 3.657
91.22000 -0.482
91.24000 3.321
91.26000 3.164
91.28000 4.600
91.30000 -0.650
91.32000 -1.204
91.34000 4.902
91.36000 5.731
91.38000 3.488
91.40000 2.167
91.42000 0.615
91.44000 3.641
91.46000 4.216
91.48000 5.297
91.50000 7.019
91.52000 5.170
91.54000 0.398
91.56000 -2.352
91.58000 -2.236
91.60000 0.614
91.62000 3.125
91.64000 4.625
91.66000 2.517
91.68000 7.784
91.70000 1.145
91.72000 0.176
91.74000 3.491
91.76000 0.898
91.78000 -1.762
91.80000 1.071
91.82000 1.061
91.84000 3.246
91.86000 6.764
91.88000 0.509
91.90000 3.665
91.92000 2.430
91.94000 5.613
91.96000 0.088
91.98000 5.702
92.00000 -1.777
92.02000 -1.730
92.04000 2.701
92.06000 4.189
92.08000 2.999
92.10000 -0.422
92.12000 1.974
92.14000 5.686
92.16000 2.157
92.18000 5.187
92.20000 -1.494
92.22000 3.734
92.24000 5.013
92.26000 3.666
92.28000 -0.176
92.30000 0.692
92.32000 1.921
92.34000 8.822
92.36000 4.648
92.38000 6.530
92.40000 8.413
92.42000 14.896
92.44000 10.592
92.46000 2.828
92.48000 0.329
92.50000 2.615
92.52000 5.204
92.54000 3.628
92.56000 3.862
92.58000 5.305
92.60000 -1.790
92.62000 1.552
92.64000 10.203
92.66000 7.543
92.68000 2.732
92.70000 3.331
92.72000 1.678
92.74000 1.477
92.76000 0.177
92.78000 8.846
92.80000 10.764
92.82000 3.804
92.84000 7.516
92.86000 6.668
92.88000 2.537
92.90000 -0.435
92.92000 -1.581
92.94000 0.077
92.96000 1.582
92.98000 3.030
93.00000 1.354
93.02000 1.617
93.04000 -2.317
93.06000 -2.265
93.08000 6.543
93.10000 2.470
93.12000 7.499
93.14000 7.747
93.16000 6.914
93.18000 8.503
93.20000 8.609
93.22000 10.472
93.24000 7.808
93.26000 5.414
93.28000 4.554
93.30000 5.367
93.32000 3.102
93.34000 8.759
93.36000 7.849
93.38000 3.650
93.40000 4.000
93.42000 8.200
93.44000 5.052
93.46000 5.195
93.48000 8.776
93.50000 10.208
93.52000 7.339
93.54000 11.428
93.56000 13.276
93.58000 7.108
93.60000 8.445
93.62000 7.572
93.64000 8.641
93.66000 1.254
93.68000 0.053
93.70000 -0.862
93.72000 3.512
93.74000 8.225
93.76000 2.578
93.78000 7.324
93.80000 6.358
93.82000 3.388
93.84000 -2.321
93.86000 5.603
93.88000 7.276
93.90000 5.352
93.92000 6.461
93.94000 8.187
93.96000 3.159
93.98000 9.592
94.00000 8.247
94.02000 4.926
94.04000 2.666
94.06000 2.517
94.08000 5.423
94.10000 8.120
94.12000 5.828
94.14000 4.096
94.16000 4.270
94.18000 7.499
94.20000 3.440
94.22000 3.817
94.24000 3.676
94.26000 2.434
94.28000 3.896
94.30000 -0.722
94.32000 2.765
94.34000 5.338
94.36000 9.168
94.38000 9.531
94.40000 2.423
94.42000 1.900
94.44000 8.074
94.46000 8.451
94.48000 9.194
94.50000 7.664
94.52000 0.430
94.54000 3.574
94.56000 7.999
94.58000 4.025
94.60000 4.558
94.62000 5.931
94.64000 6.114
94.66000 1.548
94.68000 4.788
94.70000 8.830
94.72000 5.883
94.74000 6.015
94.76000 7.960
94.78000 1.640
94.80000 -2.302
94.82000 6.362
94.84000 7.794
94.86000 7.852
94.88000 7.609
94.90000 4.930
94.92000 7.156
94.94000 5.824
94.96000 2.055
94.98000 3.134
95.00000 7.751
95.02000 5.775
95.04000 1.310
95.06000 5.772
95.08000 5.317
95.10000 5.870
95.12000 6.714
95.14000 10.166
95.16000 9.023
95.18000 6.858
95.20000 6.699
95.22000 3.625
95.24000 4.373
95.26000 9.861
95.28000 6.863
95.30000 7.286
95.32000 5.405
95.34000 3.578
95.36000 3.635
95.38000 3.048
95.40000 7.652
95.42000 7.949
95.44000 4.967
95.46000 -0.893
95.48000 -0.996
95.50000 4.798
95.52000 6.582
95.54000 6.774
95.56000 6.815
95.58000 4.063
95.60000 4.796
95.62000 9.307
95.64000 13.704
95.66000 11.655
95.68000 7.510
95.70000 1.706
95.72000 -1.103
95.74000 0.334
95.76000 1.395
95.78000 7.492
95.80000 7.650
95.82000 3.507
95.84000 6.436
95.86000 2.396
95.88000 1.139
95.90000 3.069
95.92000 6.077
95.94000 9.382
95.96000 9.370
95.98000 7.765
96.00000 11.231
96.02000 7.691
96.04000 6.133
96.06000 1.876
96.08000 1.065
96.10000 10.959
96.12000 6.955
96.14000 3.965
96.16000 2.550
96.18000 11.719
96.20000 6.119
96.22000 8.686
96.24000 5.330
96.26000 10.967
96.28000 6.364
96.30000 -1.874
96.32000 6.949
96.34000 12.382
96.36000 3.292
96.38000 8.506
96.40000 11.158
96.42000 9.094
96.44000 9.080
96.46000 15.339
96.48000 11.986
96.50000 4.814
96.52000 9.615
96.54000 6.629
96.56000 6.496
96.58000 6.575
96.60000 5.917
96.62000 4.126
96.64000 6.433
96.66000 8.525
96.68000 1.650
96.70000 2.629
96.72000 2.580
96.74000 11.929
96.76000 14.533
96.78000 6.666
96.80000 0.045
96.82000 1.426
96.84000 6.998
96.86000 6.372
96.88000 1.356
96.90000 6.780
96.92000 5.082
96.94000 -2.307
96.96000 1.555
96.98000 5.933
97.00000 3.374
97.02000 12.457
97.04000 5.634
97.06000 9.345
97.08000 13.394
97.10000 7.190
97.12000 5.500
97.14000 5.106
97.16000 7.286
97.18000 10.039
97.20000 4.058
97.22000 10.506
97.24000 6.923
97.26000 12.281
97.28000 16.425
97.30000 10.382
97.32000 3.902
97.34000 -2.300
97.36000 2.992
97.38000 5.172
97.40000 8.856
97.42000 12.860
97.44000 4.329
97.46000 3.373
97.48000 -0.113
97.50000 5.854
97.52000 11.893
97.54000 7.433
97.56000 16.263
97.58000 12.053
97.60000 7.260
97.62000 5.629
97.64000 7.903
97.66000 7.717
97.68000 10.475
97.70000 9.615
97.72000 8.980
97.74000 7.311
97.76000 7.547
97.78000 4.653
97.80000 11.247
97.82000 2.290
97.84000 2.468
97.86000 0.303
97.88000 2.096
97.90000 3.505
97.92000 13.732
97.94000 11.715
97.96000 9.612
97.98000 9.170
98.00000 13.419
98.02000 10.551
98.04000 6.743
98.06000 16.804
98.08000 12.885
98.10000 6.442
98.12000 6.259
98.14000 13.176
98.16000 11.202
98.18000 9.297
98.20000 4.663
98.22000 10.872
98.24000 7.178
98.26000 5.734
98.28000 3.963
98.30000 7.637
98.32000 7.514
98.34000 8.862
98.36000 12.397
98.38000 2.566
98.40000 4.411
98.42000 7.228
98.44000 2.714
98.46000 5.748
98.48000 2.798
98.50000 10.654
98.52000 8.366
98.54000 3.399
98.56000 6.941
98.58000 2.267
98.60000 8.000
98.62000 10.508
98.64000 13.977
98.66000 19.513
98.68000 8.035
98.70000 2.729
98.72000 -1.582
98.74000 2.070
98.76000 12.589
98.78000 15.276
98.80000 13.688
98.82000 7.313
98.84000 10.878
98.86000 12.455
98.88000 7.940
98.90000 4.824
98.92000 19.044
98.94000 13.734
98.96000 8.243
98.98000 15.840
99.00000 14.492
99.02000 5.940
99.04000 14.479
99.06000 9.634
99.08000 -0.198
99.10000 -2.150
99.12000 7.898
99.14000 11.242
99.16000 23.152
99.18000 14.756
99.20000 9.398
99.22000 13.584
99.24000 14.199
99.26000 15.191
99.28000 9.897
99.30000 8.774
99.32000 10.549
99.34000 11.127
99.36000 15.349
99.38000 12.161
99.40000 11.060
99.42000 13.151
99.44000 8.650
99.46000 13.262
99.48000 12.995
99.50000 12.870
99.52000 14.295
99.54000 13.747
99.56000 22.214
99.58000 11.396
99.60000 14.970
99.62000 8.599
99.64000 16.996
99.66000 4.371
99.68000 7.671
99.70000 1.306
99.72000 -2.215
99.74000 7.131
99.76000 13.301
99.78000 11.581
99.80000 19.264
99.82000 9.313
99.84000 -3.134
99.86000 1.828
99.88000 11.478
99.90000 7.036
99.92000 3.565
99.94000 -3.897
99.96000 5.940
99.98000 0.000
