'Id: "0011387" Comment: "Integrate frame 0011387_Au-Ir-Rh_Rh-rich_XRD-Mapping-333-0000.gfrmwith cursor Wedge Cursor #5" Operator: "B?rgel" Anode: "Cu" Wavelength: "1.5406" Scantype: "2Theta (TwoTheta)" TimePerStep: "1" X: "18" Y: "40.5" Z: "5.95" 
10.00000 0.000
10.02000 3.064
10.04000 -4.141
10.06000 7.851
10.08000 16.783
10.10000 -0.995
10.12000 -4.049
10.14000 17.427
10.16000 12.840
10.18000 24.591
10.20000 18.508
10.22000 6.434
10.24000 2.574
10.26000 3.737
10.28000 16.488
10.30000 27.727
10.32000 32.555
10.34000 20.239
10.36000 24.756
10.38000 23.097
10.40000 10.682
10.42000 12.567
10.44000 13.147
10.46000 19.594
10.48000 11.618
10.50000 9.176
10.52000 16.089
10.54000 0.482
10.56000 9.621
10.58000 16.606
10.60000 16.788
10.62000 19.830
10.64000 12.961
10.66000 8.068
10.68000 13.594
10.70000 10.964
10.72000 10.521
10.74000 22.090
10.76000 35.218
10.78000 24.100
10.80000 28.845
10.82000 24.727
10.84000 17.829
10.86000 9.481
10.88000 11.664
10.90000 12.704
10.92000 10.785
10.94000 19.038
10.96000 27.782
10.98000 20.781
11.00000 20.670
11.02000 11.970
11.04000 14.359
11.06000 19.210
11.08000 24.736
11.10000 11.486
11.12000 -2.012
11.14000 8.304
11.16000 17.469
11.18000 20.406
11.20000 14.917
11.22000 22.240
11.24000 27.304
11.26000 23.801
11.28000 21.314
11.30000 16.199
11.32000 20.468
11.34000 11.352
11.36000 -1.673
11.38000 9.639
11.40000 6.923
11.42000 16.911
11.44000 33.484
11.46000 22.366
11.48000 6.106
11.50000 8.159
11.52000 12.507
11.54000 20.824
11.56000 29.849
11.58000 24.615
11.60000 18.716
11.62000 16.969
11.64000 14.293
11.66000 24.547
11.68000 13.308
11.70000 14.595
11.72000 21.974
11.74000 23.759
11.76000 14.356
11.78000 9.844
11.80000 19.221
11.82000 12.462
11.84000 7.109
11.86000 17.452
11.88000 20.762
11.90000 10.324
11.92000 5.951
11.94000 7.857
11.96000 10.280
11.98000 20.714
12.00000 27.085
12.02000 25.378
12.04000 26.978
12.06000 20.387
12.08000 25.692
12.10000 20.058
12.12000 9.284
12.14000 4.920
12.16000 5.013
12.18000 14.296
12.20000 16.020
12.22000 21.004
12.24000 28.307
12.26000 27.337
12.28000 24.699
12.30000 21.271
12.32000 20.897
12.34000 18.178
12.36000 13.593
12.38000 17.229
12.40000 19.303
12.42000 9.831
12.44000 6.709
12.46000 11.250
12.48000 25.642
12.50000 9.431
12.52000 5.039
12.54000 18.129
12.56000 20.937
12.58000 15.796
12.60000 13.625
12.62000 13.078
12.64000 20.914
12.66000 23.384
12.68000 13.707
12.70000 12.134
12.72000 18.906
12.74000 10.611
12.76000 12.393
12.78000 15.446
12.80000 5.912
12.82000 3.594
12.84000 6.102
12.86000 10.218
12.88000 5.858
12.90000 17.952
12.92000 24.716
12.94000 24.078
12.96000 21.508
12.98000 9.530
13.00000 2.083
13.02000 10.242
13.04000 14.875
13.06000 14.770
13.08000 17.640
13.10000 17.072
13.12000 14.746
13.14000 12.701
13.16000 5.805
13.18000 2.631
13.20000 3.093
13.22000 17.791
13.24000 16.920
13.26000 19.907
13.28000 19.340
13.30000 11.001
13.32000 7.561
13.34000 17.836
13.36000 23.415
13.38000 25.811
13.40000 12.736
13.42000 11.704
13.44000 17.826
13.46000 10.584
13.48000 15.759
13.50000 23.510
13.52000 14.573
13.54000 10.093
13.56000 16.849
13.58000 21.434
13.60000 18.604
13.62000 21.321
13.64000 15.466
13.66000 24.115
13.68000 20.129
13.70000 20.519
13.72000 23.753
13.74000 20.381
13.76000 12.441
13.78000 12.809
13.80000 15.397
13.82000 13.077
13.84000 2.989
13.86000 7.278
13.88000 17.734
13.90000 14.381
13.92000 11.104
13.94000 10.293
13.96000 14.797
13.98000 6.745
14.00000 0.304
14.02000 8.574
14.04000 9.308
14.06000 7.752
14.08000 11.474
14.10000 11.134
14.12000 19.803
14.14000 19.886
14.16000 22.076
14.18000 20.255
14.20000 13.693
14.22000 0.942
14.24000 10.101
14.26000 18.008
14.28000 9.192
14.30000 9.120
14.32000 1.968
14.34000 8.831
14.36000 11.477
14.38000 7.049
14.40000 4.023
14.42000 10.251
14.44000 14.783
14.46000 12.196
14.48000 12.991
14.50000 21.396
14.52000 17.347
14.54000 1.051
14.56000 -4.479
14.58000 -0.712
14.60000 10.780
14.62000 16.448
14.64000 12.449
14.66000 7.466
14.68000 6.080
14.70000 5.910
14.72000 7.233
14.74000 -1.562
14.76000 2.369
14.78000 11.683
14.80000 12.681
14.82000 7.853
14.84000 6.972
14.86000 23.636
14.88000 21.039
14.90000 8.255
14.92000 4.782
14.94000 7.928
14.96000 4.232
14.98000 12.983
15.00000 19.155
15.02000 14.089
15.04000 12.356
15.06000 7.004
15.08000 2.836
15.10000 4.584
15.12000 8.631
15.14000 9.163
15.16000 4.380
15.18000 0.638
15.20000 -0.006
15.22000 1.653
15.24000 6.660
15.26000 14.325
15.28000 13.828
15.30000 8.116
15.32000 12.224
15.34000 3.765
15.36000 -0.181
15.38000 6.548
15.40000 10.243
15.42000 3.628
15.44000 4.033
15.46000 7.142
15.48000 15.238
15.50000 13.433
15.52000 11.847
15.54000 10.867
15.56000 16.631
15.58000 21.819
15.60000 1.271
15.62000 0.515
15.64000 7.794
15.66000 14.782
15.68000 9.695
15.70000 10.476
15.72000 9.603
15.74000 10.304
15.76000 9.265
15.78000 11.630
15.80000 15.781
15.82000 7.177
15.84000 3.979
15.86000 7.230
15.88000 8.051
15.90000 11.987
15.92000 9.889
15.94000 11.488
15.96000 6.676
15.98000 3.336
16.00000 -1.793
16.02000 -1.061
16.04000 6.531
16.06000 14.566
16.08000 8.692
16.10000 0.826
16.12000 2.868
16.14000 5.390
16.16000 6.178
16.18000 12.237
16.20000 8.974
16.22000 4.368
16.24000 4.724
16.26000 0.713
16.28000 6.550
16.30000 8.559
16.32000 9.951
16.34000 -0.069
16.36000 6.213
16.38000 14.648
16.40000 17.550
16.42000 5.209
16.44000 0.635
16.46000 9.935
16.48000 22.090
16.50000 17.284
16.52000 17.115
16.54000 11.791
16.56000 3.491
16.58000 -0.591
16.60000 7.073
16.62000 19.400
16.64000 20.022
16.66000 2.683
16.68000 6.407
16.70000 11.661
16.72000 20.376
16.74000 12.987
16.76000 12.178
16.78000 14.876
16.80000 15.469
16.82000 16.298
16.84000 13.645
16.86000 4.726
16.88000 -1.874
16.90000 0.886
16.92000 7.407
16.94000 14.779
16.96000 9.564
16.98000 15.267
17.00000 11.198
17.02000 9.553
17.04000 11.719
17.06000 9.507
17.08000 5.882
17.10000 12.590
17.12000 9.544
17.14000 5.779
17.16000 13.671
17.18000 6.041
17.20000 -4.394
17.22000 2.572
17.24000 18.027
17.26000 16.755
17.28000 10.115
17.30000 12.664
17.32000 15.104
17.34000 12.015
17.36000 4.462
17.38000 4.619
17.40000 4.070
17.42000 6.343
17.44000 15.134
17.46000 8.386
17.48000 6.754
17.50000 7.026
17.52000 17.009
17.54000 11.485
17.56000 6.572
17.58000 5.122
17.60000 6.268
17.62000 6.229
17.64000 3.708
17.66000 8.046
17.68000 11.026
17.70000 11.792
17.72000 11.694
17.74000 3.412
17.76000 9.559
17.78000 10.201
17.80000 5.521
17.82000 1.878
17.84000 3.212
17.86000 -3.703
17.88000 -1.349
17.90000 5.084
17.92000 12.569
17.94000 9.913
17.96000 11.641
17.98000 7.175
18.00000 4.680
18.02000 8.660
18.04000 2.275
18.06000 2.070
18.08000 13.947
18.10000 11.800
18.12000 3.362
18.14000 3.024
18.16000 5.713
18.18000 5.795
18.20000 3.683
18.22000 9.223
18.24000 14.510
18.26000 17.295
18.28000 10.670
18.30000 7.207
18.32000 1.443
18.34000 -1.064
18.36000 -0.730
18.38000 2.818
18.40000 -2.157
18.42000 -4.353
18.44000 2.575
18.46000 5.892
18.48000 1.028
18.50000 4.857
18.52000 0.040
18.54000 3.428
18.56000 8.605
18.58000 8.800
18.60000 14.695
18.62000 7.206
18.64000 3.326
18.66000 3.131
18.68000 3.296
18.70000 8.023
18.72000 8.435
18.74000 3.755
18.76000 6.217
18.78000 5.207
18.80000 5.622
18.82000 2.447
18.84000 0.325
18.86000 2.893
18.88000 7.689
18.90000 7.817
18.92000 0.612
18.94000 1.342
18.96000 3.891
18.98000 -2.234
19.00000 2.043
19.02000 2.862
19.04000 -0.850
19.06000 9.258
19.08000 8.611
19.10000 -4.324
19.12000 0.171
19.14000 -0.260
19.16000 4.343
19.18000 11.598
19.20000 6.046
19.22000 1.035
19.24000 6.981
19.26000 10.040
19.28000 6.823
19.30000 7.405
19.32000 8.317
19.34000 5.925
19.36000 6.773
19.38000 7.940
19.40000 0.336
19.42000 -1.070
19.44000 0.349
19.46000 0.840
19.48000 4.007
19.50000 6.243
19.52000 3.508
19.54000 -3.965
19.56000 3.378
19.58000 8.375
19.60000 10.904
19.62000 3.313
19.64000 3.621
19.66000 2.280
19.68000 2.513
19.70000 0.776
19.72000 2.969
19.74000 8.743
19.76000 6.376
19.78000 2.972
19.80000 0.315
19.82000 -1.527
19.84000 5.766
19.86000 8.297
19.88000 5.631
19.90000 10.661
19.92000 4.262
19.94000 0.122
19.96000 0.014
19.98000 -1.719
20.00000 2.351
20.02000 3.710
20.04000 0.437
20.06000 -2.744
20.08000 2.555
20.10000 4.245
20.12000 -0.510
20.14000 8.464
20.16000 11.459
20.18000 7.831
20.20000 9.470
20.22000 1.411
20.24000 8.474
20.26000 5.286
20.28000 3.558
20.30000 7.750
20.32000 2.993
20.34000 4.450
20.36000 3.083
20.38000 6.836
20.40000 6.580
20.42000 8.826
20.44000 7.202
20.46000 2.388
20.48000 4.249
20.50000 3.385
20.52000 7.396
20.54000 4.812
20.56000 -1.599
20.58000 -1.613
20.60000 3.327
20.62000 7.425
20.64000 2.037
20.66000 -1.277
20.68000 4.158
20.70000 7.126
20.72000 8.410
20.74000 8.001
20.76000 9.193
20.78000 -0.006
20.80000 2.584
20.82000 1.429
20.84000 -4.232
20.86000 4.302
20.88000 4.082
20.90000 5.169
20.92000 4.550
20.94000 3.660
20.96000 7.137
20.98000 9.271
21.00000 9.713
21.02000 7.063
21.04000 6.765
21.06000 4.252
21.08000 -0.353
21.10000 3.489
21.12000 9.465
21.14000 2.052
21.16000 0.259
21.18000 5.917
21.20000 2.593
21.22000 3.967
21.24000 9.895
21.26000 8.945
21.28000 3.293
21.30000 4.941
21.32000 6.080
21.34000 1.040
21.36000 5.771
21.38000 8.969
21.40000 3.532
21.42000 3.132
21.44000 3.286
21.46000 6.798
21.48000 0.496
21.50000 -4.210
21.52000 0.503
21.54000 1.955
21.56000 1.748
21.58000 2.576
21.60000 1.739
21.62000 -1.125
21.64000 -2.099
21.66000 4.244
21.68000 -2.165
21.70000 -4.203
21.72000 3.540
21.74000 8.173
21.76000 5.958
21.78000 1.942
21.80000 0.141
21.82000 -2.713
21.84000 5.470
21.86000 9.012
21.88000 4.757
21.90000 7.331
21.92000 9.446
21.94000 5.267
21.96000 -1.171
21.98000 -1.872
22.00000 0.328
22.02000 -1.631
22.04000 -1.455
22.06000 -0.313
22.08000 3.771
22.10000 4.360
22.12000 3.686
22.14000 2.238
22.16000 5.784
22.18000 5.900
22.20000 0.509
22.22000 -3.246
22.24000 -2.051
22.26000 0.255
22.28000 1.288
22.30000 5.148
22.32000 2.720
22.34000 5.191
22.36000 5.545
22.38000 1.295
22.40000 3.490
22.42000 7.351
22.44000 2.558
22.46000 -2.110
22.48000 -2.559
22.50000 5.459
22.52000 3.637
22.54000 5.900
22.56000 11.297
22.58000 5.861
22.60000 5.762
22.62000 12.222
22.64000 3.970
22.66000 2.899
22.68000 4.424
22.70000 -3.482
22.72000 2.331
22.74000 2.329
22.76000 -0.365
22.78000 -0.208
22.80000 1.534
22.82000 -1.858
22.84000 1.083
22.86000 5.336
22.88000 2.300
22.90000 5.361
22.92000 4.494
22.94000 -0.159
22.96000 2.162
22.98000 7.575
23.00000 2.605
23.02000 -0.924
23.04000 -0.294
23.06000 2.764
23.08000 6.352
23.10000 10.469
23.12000 5.207
23.14000 -0.147
23.16000 3.884
23.18000 2.374
23.20000 2.897
23.22000 2.615
23.24000 3.351
23.26000 -4.098
23.28000 2.383
23.30000 5.420
23.32000 7.571
23.34000 2.925
23.36000 0.793
23.38000 1.786
23.40000 3.168
23.42000 4.935
23.44000 2.952
23.46000 3.571
23.48000 3.239
23.50000 4.247
23.52000 -3.681
23.54000 2.338
23.56000 3.245
23.58000 7.469
23.60000 0.761
23.62000 6.563
23.64000 7.827
23.66000 9.760
23.68000 5.642
23.70000 6.536
23.72000 8.448
23.74000 9.756
23.76000 3.518
23.78000 3.288
23.80000 1.895
23.82000 1.176
23.84000 6.434
23.86000 11.085
23.88000 8.733
23.90000 1.551
23.92000 -1.565
23.94000 1.698
23.96000 2.958
23.98000 0.124
24.00000 2.061
24.02000 1.563
24.04000 5.202
24.06000 1.468
24.08000 5.484
24.10000 4.118
24.12000 4.916
24.14000 10.099
24.16000 8.859
24.18000 4.626
24.20000 -2.269
24.22000 -2.275
24.24000 3.768
24.26000 9.168
24.28000 9.734
24.30000 5.088
24.32000 2.147
24.34000 -1.774
24.36000 -1.906
24.38000 3.822
24.40000 9.851
24.42000 4.176
24.44000 -0.900
24.46000 2.644
24.48000 4.998
24.50000 5.479
24.52000 4.032
24.54000 3.974
24.56000 7.135
24.58000 3.071
24.60000 4.674
24.62000 9.812
24.64000 6.533
24.66000 0.219
24.68000 2.242
24.70000 0.131
24.72000 2.740
24.74000 7.598
24.76000 5.404
24.78000 9.011
24.80000 4.193
24.82000 7.897
24.84000 7.340
24.86000 4.359
24.88000 2.578
24.90000 3.192
24.92000 0.161
24.94000 5.451
24.96000 5.681
24.98000 1.038
25.00000 -0.915
25.02000 1.534
25.04000 -3.112
25.06000 -3.989
25.08000 3.255
25.10000 5.322
25.12000 3.653
25.14000 2.706
25.16000 1.753
25.18000 1.722
25.20000 7.254
25.22000 6.900
25.24000 1.343
25.26000 -0.761
25.28000 -0.089
25.30000 -3.535
25.32000 -2.504
25.34000 3.603
25.36000 4.525
25.38000 6.393
25.40000 3.563
25.42000 -2.370
25.44000 2.349
25.46000 7.693
25.48000 3.715
25.50000 1.918
25.52000 1.572
25.54000 10.676
25.56000 8.677
25.58000 3.659
25.60000 1.854
25.62000 0.337
25.64000 5.639
25.66000 7.168
25.68000 5.481
25.70000 0.900
25.72000 2.165
25.74000 3.253
25.76000 2.302
25.78000 2.076
25.80000 -0.700
25.82000 1.691
25.84000 8.029
25.86000 9.072
25.88000 8.101
25.90000 6.011
25.92000 6.334
25.94000 0.455
25.96000 2.149
25.98000 6.877
26.00000 6.549
26.02000 2.243
26.04000 0.265
26.06000 4.707
26.08000 2.454
26.10000 -1.262
26.12000 1.429
26.14000 -0.574
26.16000 2.306
26.18000 2.216
26.20000 3.696
26.22000 -3.927
26.24000 -2.722
26.26000 4.357
26.28000 2.166
26.30000 -1.557
26.32000 1.046
26.34000 3.364
26.36000 5.355
26.38000 5.023
26.40000 4.462
26.42000 1.581
26.44000 1.813
26.46000 3.507
26.48000 2.038
26.50000 -1.680
26.52000 -1.397
26.54000 -1.333
26.56000 3.256
26.58000 9.035
26.60000 11.008
26.62000 7.005
26.64000 2.701
26.66000 6.696
26.68000 5.302
26.70000 5.243
26.72000 3.149
26.74000 8.879
26.76000 10.322
26.78000 4.151
26.80000 5.076
26.82000 0.493
26.84000 -0.514
26.86000 -1.121
26.88000 2.080
26.90000 0.114
26.92000 1.886
26.94000 6.386
26.96000 2.821
26.98000 4.130
27.00000 5.918
27.02000 2.592
27.04000 10.042
27.06000 8.707
27.08000 5.086
27.10000 5.582
27.12000 6.534
27.14000 4.397
27.16000 5.108
27.18000 0.571
27.20000 3.084
27.22000 1.597
27.24000 5.737
27.26000 4.173
27.28000 -1.480
27.30000 0.024
27.32000 2.447
27.34000 4.654
27.36000 5.514
27.38000 6.771
27.40000 1.187
27.42000 0.492
27.44000 5.218
27.46000 5.622
27.48000 2.953
27.50000 2.572
27.52000 3.057
27.54000 1.617
27.56000 0.703
27.58000 0.061
27.60000 2.970
27.62000 5.914
27.64000 3.011
27.66000 3.904
27.68000 -1.822
27.70000 -3.857
27.72000 3.872
27.74000 2.701
27.76000 0.630
27.78000 4.120
27.80000 2.843
27.82000 6.570
27.84000 3.552
27.86000 3.093
27.88000 4.894
27.90000 -1.659
27.92000 -3.469
27.94000 -1.738
27.96000 0.819
27.98000 1.982
28.00000 1.227
28.02000 0.854
28.04000 1.706
28.06000 2.351
28.08000 4.678
28.10000 0.468
28.12000 4.056
28.14000 6.134
28.16000 7.153
28.18000 7.459
28.20000 1.124
28.22000 0.929
28.24000 1.428
28.26000 -0.632
28.28000 3.574
28.30000 2.051
28.32000 0.584
28.34000 4.134
28.36000 7.419
28.38000 -0.030
28.40000 -0.101
28.42000 -1.862
28.44000 1.749
28.46000 4.134
28.48000 3.623
28.50000 6.998
28.52000 10.049
28.54000 4.766
28.56000 4.472
28.58000 1.431
28.60000 -1.384
28.62000 7.624
28.64000 7.713
28.66000 2.750
28.68000 3.392
28.70000 4.116
28.72000 2.344
28.74000 -0.330
28.76000 4.356
28.78000 -1.771
28.80000 -3.756
28.82000 2.089
28.84000 6.793
28.86000 5.037
28.88000 3.027
28.90000 3.074
28.92000 1.011
28.94000 2.563
28.96000 4.345
28.98000 4.571
29.00000 3.850
29.02000 3.791
29.04000 1.802
29.06000 2.617
29.08000 3.435
29.10000 4.271
29.12000 3.988
29.14000 3.403
29.16000 2.677
29.18000 7.364
29.20000 7.337
29.22000 0.713
29.24000 0.572
29.26000 1.828
29.28000 -1.013
29.30000 0.529
29.32000 5.517
29.34000 5.200
29.36000 6.802
29.38000 4.846
29.40000 3.884
29.42000 1.862
29.44000 7.194
29.46000 4.923
29.48000 7.700
29.50000 7.105
29.52000 6.449
29.54000 4.294
29.56000 3.926
29.58000 4.459
29.60000 1.724
29.62000 4.323
29.64000 4.191
29.66000 7.725
29.68000 4.305
29.70000 -0.308
29.72000 1.501
29.74000 6.191
29.76000 3.062
29.78000 5.436
29.80000 2.693
29.82000 5.620
29.84000 2.705
29.86000 3.563
29.88000 3.044
29.90000 3.498
29.92000 2.356
29.94000 7.794
29.96000 4.366
29.98000 3.814
30.00000 2.456
30.02000 3.680
30.04000 -1.424
30.06000 -0.569
30.08000 1.325
30.10000 1.495
30.12000 2.183
30.14000 5.303
30.16000 0.336
30.18000 -1.999
30.20000 3.238
30.22000 1.571
30.24000 0.733
30.26000 -0.308
30.28000 5.926
30.30000 5.903
30.32000 6.777
30.34000 3.830
30.36000 4.972
30.38000 6.718
30.40000 7.133
30.42000 6.564
30.44000 4.379
30.46000 -0.005
30.48000 0.438
30.50000 0.294
30.52000 0.783
30.54000 5.106
30.56000 8.425
30.58000 0.792
30.60000 5.726
30.62000 6.889
30.64000 5.243
30.66000 6.453
30.68000 6.553
30.70000 5.843
30.72000 9.849
30.74000 5.562
30.76000 6.736
30.78000 6.119
30.80000 -1.015
30.82000 -3.681
30.84000 -0.935
30.86000 3.282
30.88000 3.191
30.90000 2.933
30.92000 2.116
30.94000 4.871
30.96000 6.469
30.98000 4.005
31.00000 0.983
31.02000 2.275
31.04000 0.545
31.06000 0.602
31.08000 3.048
31.10000 5.044
31.12000 7.957
31.14000 7.532
31.16000 7.878
31.18000 4.200
31.20000 1.403
31.22000 -0.460
31.24000 0.646
31.26000 1.426
31.28000 2.834
31.30000 3.757
31.32000 7.062
31.34000 2.808
31.36000 -3.568
31.38000 -3.666
31.40000 1.383
31.42000 3.400
31.44000 5.633
31.46000 4.009
31.48000 3.866
31.50000 -0.598
31.52000 0.023
31.54000 0.877
31.56000 3.363
31.58000 6.873
31.60000 9.658
31.62000 7.702
31.64000 4.276
31.66000 -0.529
31.68000 1.321
31.70000 7.011
31.72000 3.820
31.74000 2.846
31.76000 6.175
31.78000 8.366
31.80000 4.417
31.82000 7.490
31.84000 3.267
31.86000 0.812
31.88000 3.675
31.90000 1.160
31.92000 4.556
31.94000 2.487
31.96000 1.560
31.98000 2.029
32.00000 -1.454
32.02000 -1.643
32.04000 0.746
32.06000 -1.594
32.08000 4.747
32.10000 -0.231
32.12000 3.438
32.14000 7.074
32.16000 8.692
32.18000 1.461
32.20000 -1.684
32.22000 0.941
32.24000 -0.139
32.26000 2.319
32.28000 1.440
32.30000 -1.899
32.32000 2.126
32.34000 7.142
32.36000 3.661
32.38000 0.249
32.40000 -3.610
32.42000 0.671
32.44000 5.341
32.46000 4.420
32.48000 2.666
32.50000 3.955
32.52000 6.319
32.54000 5.503
32.56000 4.586
32.58000 2.459
32.60000 0.455
32.62000 5.335
32.64000 5.056
32.66000 3.215
32.68000 2.098
32.70000 4.635
32.72000 5.386
32.74000 -0.748
32.76000 -0.005
32.78000 0.588
32.80000 -2.360
32.82000 -3.593
32.84000 0.880
32.86000 -0.056
32.88000 3.944
32.90000 4.403
32.92000 1.939
32.94000 2.746
32.96000 4.778
32.98000 7.669
33.00000 0.647
33.02000 1.944
33.04000 7.413
33.06000 7.114
33.08000 2.673
33.10000 5.852
33.12000 1.540
33.14000 -3.608
33.16000 -1.314
33.18000 1.563
33.20000 -0.150
33.22000 -0.226
33.24000 4.171
33.26000 5.059
33.28000 -3.107
33.30000 -0.852
33.32000 1.325
33.34000 1.162
33.36000 2.844
33.38000 4.445
33.40000 6.047
33.42000 4.361
33.44000 10.014
33.46000 5.331
33.48000 4.609
33.50000 5.988
33.52000 7.919
33.54000 8.085
33.56000 6.924
33.58000 9.718
33.60000 7.858
33.62000 4.944
33.64000 -2.599
33.66000 2.231
33.68000 8.514
33.70000 4.024
33.72000 6.219
33.74000 2.968
33.76000 3.208
33.78000 -0.177
33.80000 2.012
33.82000 9.532
33.84000 7.983
33.86000 5.921
33.88000 0.982
33.90000 -3.245
33.92000 1.640
33.94000 0.571
33.96000 2.568
33.98000 1.212
34.00000 -0.462
34.02000 0.417
34.04000 2.814
34.06000 0.867
34.08000 2.854
34.10000 8.116
34.12000 2.505
34.14000 0.823
34.16000 0.477
34.18000 -1.023
34.20000 3.255
34.22000 2.215
34.24000 1.857
34.26000 3.713
34.28000 8.026
34.30000 4.234
34.32000 3.080
34.34000 -1.457
34.36000 1.705
34.38000 2.926
34.40000 2.073
34.42000 -3.174
34.44000 1.630
34.46000 1.468
34.48000 0.900
34.50000 -0.678
34.52000 -0.241
34.54000 -0.557
34.56000 2.389
34.58000 3.283
34.60000 0.846
34.62000 2.557
34.64000 6.361
34.66000 0.787
34.68000 -2.460
34.70000 -1.634
34.72000 0.651
34.74000 4.710
34.76000 7.385
34.78000 4.840
34.80000 -2.538
34.82000 2.554
34.84000 0.635
34.86000 3.584
34.88000 2.338
34.90000 3.503
34.92000 3.913
34.94000 3.733
34.96000 0.251
34.98000 -1.083
35.00000 3.395
35.02000 5.823
35.04000 2.561
35.06000 -2.431
35.08000 -1.369
35.10000 4.490
35.12000 4.781
35.14000 1.223
35.16000 -0.362
35.18000 -3.558
35.20000 3.860
35.22000 10.102
35.24000 4.311
35.26000 -3.596
35.28000 -2.954
35.30000 -3.595
35.32000 -3.085
35.34000 2.581
35.36000 1.865
35.38000 1.898
35.40000 4.129
35.42000 -0.402
35.44000 3.569
35.46000 4.138
35.48000 1.937
35.50000 3.597
35.52000 0.395
35.54000 -1.681
35.56000 -3.387
35.58000 0.727
35.60000 -1.885
35.62000 2.162
35.64000 2.293
35.66000 6.292
35.68000 1.626
35.70000 -3.598
35.72000 -3.209
35.74000 0.968
35.76000 0.698
35.78000 -1.693
35.80000 1.852
35.82000 3.550
35.84000 2.556
35.86000 4.416
35.88000 2.526
35.90000 4.492
35.92000 7.764
35.94000 4.677
35.96000 -0.929
35.98000 1.510
36.00000 1.816
36.02000 -3.166
36.04000 -1.860
36.06000 -1.004
36.08000 1.261
36.10000 0.039
36.12000 0.100
36.14000 3.569
36.16000 4.041
36.18000 2.967
36.20000 0.490
36.22000 5.618
36.24000 -0.517
36.26000 -3.346
36.28000 2.652
36.30000 9.832
36.32000 6.911
36.34000 1.941
36.36000 5.219
36.38000 6.188
36.40000 3.758
36.42000 3.324
36.44000 0.898
36.46000 -3.590
36.48000 -2.313
36.50000 3.763
36.52000 9.881
36.54000 4.570
36.56000 2.367
36.58000 1.696
36.60000 2.526
36.62000 0.102
36.64000 -0.571
36.66000 -0.165
36.68000 3.224
36.70000 3.133
36.72000 5.955
36.74000 5.152
36.76000 2.503
36.78000 -1.048
36.80000 -0.274
36.82000 2.018
36.84000 0.175
36.86000 -3.619
36.88000 2.472
36.90000 -0.835
36.92000 -0.442
36.94000 6.099
36.96000 4.657
36.98000 1.438
37.00000 3.731
37.02000 0.636
37.04000 4.974
37.06000 3.552
37.08000 3.103
37.10000 4.211
37.12000 2.189
37.14000 0.997
37.16000 -0.834
37.18000 5.640
37.20000 7.619
37.22000 6.349
37.24000 7.575
37.26000 5.008
37.28000 2.865
37.30000 1.621
37.32000 5.540
37.34000 8.410
37.36000 1.324
37.38000 0.561
37.40000 6.028
37.42000 6.911
37.44000 4.570
37.46000 0.209
37.48000 1.825
37.50000 6.737
37.52000 4.705
37.54000 4.385
37.56000 1.070
37.58000 -1.807
37.60000 2.006
37.62000 3.377
37.64000 7.712
37.66000 10.770
37.68000 9.317
37.70000 10.277
37.72000 11.669
37.74000 10.214
37.76000 9.673
37.78000 11.627
37.80000 11.886
37.82000 11.996
37.84000 6.562
37.86000 4.742
37.88000 8.913
37.90000 12.508
37.92000 12.389
37.94000 9.160
37.96000 14.815
37.98000 12.589
38.00000 10.203
38.02000 7.996
38.04000 10.372
38.06000 13.137
38.08000 17.391
38.10000 19.796
38.12000 19.630
38.14000 17.310
38.16000 22.830
38.18000 21.766
38.20000 23.916
38.22000 22.074
38.24000 22.204
38.26000 22.760
38.28000 19.278
38.30000 21.366
38.32000 23.328
38.34000 26.854
38.36000 23.606
38.38000 24.485
38.40000 26.740
38.42000 27.094
38.44000 32.199
38.46000 36.491
38.48000 35.145
38.50000 35.102
38.52000 35.813
38.54000 37.541
38.56000 34.968
38.58000 36.350
38.60000 38.603
38.62000 41.828
38.64000 45.580
38.66000 44.984
38.68000 47.229
38.70000 49.829
38.72000 46.675
38.74000 53.668
38.76000 55.297
38.78000 59.172
38.80000 59.371
38.82000 60.297
38.84000 65.845
38.86000 63.902
38.88000 66.520
38.90000 73.926
38.92000 74.122
38.94000 76.750
38.96000 81.081
38.98000 85.581
39.00000 83.411
39.02000 89.098
39.04000 94.340
39.06000 91.919
39.08000 100.876
39.10000 107.398
39.12000 110.726
39.14000 117.677
39.16000 123.542
39.18000 128.041
39.20000 135.238
39.22000 145.231
39.24000 152.016
39.26000 159.965
39.28000 167.436
39.30000 176.403
39.32000 184.911
39.34000 188.820
39.36000 195.874
39.38000 209.301
39.40000 211.615
39.42000 229.717
39.44000 243.271
39.46000 257.945
39.48000 259.756
39.50000 274.391
39.52000 279.634
39.54000 302.473
39.56000 325.147
39.58000 334.114
39.60000 349.211
39.62000 369.275
39.64000 381.133
39.66000 398.035
39.68000 419.891
39.70000 428.906
39.72000 452.472
39.74000 472.260
39.76000 485.141
39.78000 497.135
39.80000 515.597
39.82000 537.816
39.84000 553.226
39.86000 569.596
39.88000 588.006
39.90000 592.411
39.92000 599.691
39.94000 603.420
39.96000 607.638
39.98000 626.226
40.00000 620.973
40.02000 621.489
40.04000 630.249
40.06000 629.367
40.08000 625.423
40.10000 619.346
40.12000 615.076
40.14000 613.247
40.16000 593.800
40.18000 569.585
40.20000 555.918
40.22000 549.054
40.24000 538.116
40.26000 515.653
40.28000 496.065
40.30000 469.969
40.32000 460.260
40.34000 442.686
40.36000 428.895
40.38000 413.422
40.40000 396.429
40.42000 377.354
40.44000 356.065
40.46000 344.112
40.48000 331.383
40.50000 317.704
40.52000 296.580
40.54000 276.586
40.56000 267.729
40.58000 246.123
40.60000 230.994
40.62000 215.044
40.64000 205.560
40.66000 194.380
40.68000 180.154
40.70000 176.252
40.72000 165.502
40.74000 156.682
40.76000 146.043
40.78000 140.132
40.80000 130.950
40.82000 126.143
40.84000 120.816
40.86000 110.716
40.88000 100.285
40.90000 97.084
40.92000 91.079
40.94000 85.220
40.96000 78.166
40.98000 72.694
41.00000 72.219
41.02000 68.973
41.04000 64.248
41.06000 60.886
41.08000 56.215
41.10000 51.053
41.12000 50.642
41.14000 51.685
41.16000 51.141
41.18000 47.408
41.20000 50.051
41.22000 42.986
41.24000 40.813
41.26000 38.338
41.28000 32.528
41.30000 33.822
41.32000 33.822
41.34000 29.567
41.36000 30.864
41.38000 24.144
41.40000 24.358
41.42000 26.924
41.44000 23.083
41.46000 26.297
41.48000 25.811
41.50000 18.191
41.52000 19.321
41.54000 19.707
41.56000 17.523
41.58000 15.356
41.60000 14.797
41.62000 12.115
41.64000 12.613
41.66000 10.449
41.68000 15.583
41.70000 11.952
41.72000 8.547
41.74000 12.890
41.76000 12.200
41.78000 10.014
41.80000 6.725
41.82000 7.558
41.84000 6.010
41.86000 3.524
41.88000 5.727
41.90000 4.279
41.92000 4.010
41.94000 1.357
41.96000 5.792
41.98000 4.435
42.00000 3.156
42.02000 3.765
42.04000 5.306
42.06000 3.221
42.08000 1.497
42.10000 1.170
42.12000 -2.345
42.14000 1.966
42.16000 7.269
42.18000 4.487
42.20000 4.712
42.22000 5.165
42.24000 -0.149
42.26000 -3.105
42.28000 0.329
42.30000 0.100
42.32000 0.728
42.34000 2.211
42.36000 3.443
42.38000 2.454
42.40000 -0.184
42.42000 -1.198
42.44000 -0.003
42.46000 0.219
42.48000 -0.908
42.50000 0.229
42.52000 -0.825
42.54000 1.985
42.56000 -1.656
42.58000 -3.494
42.60000 -1.441
42.62000 -1.055
42.64000 -0.443
42.66000 1.334
42.68000 6.415
42.70000 -0.564
42.72000 -0.189
42.74000 2.575
42.76000 1.517
42.78000 1.178
42.80000 2.647
42.82000 1.777
42.84000 3.539
42.86000 3.531
42.88000 -1.323
42.90000 -0.838
42.92000 -0.052
42.94000 0.907
42.96000 1.013
42.98000 3.060
43.00000 0.052
43.02000 0.103
43.04000 2.314
43.06000 2.276
43.08000 -1.192
43.10000 0.426
43.12000 -2.069
43.14000 -2.073
43.16000 1.703
43.18000 5.469
43.20000 3.264
43.22000 1.627
43.24000 0.018
43.26000 -0.067
43.28000 1.537
43.30000 1.278
43.32000 1.539
43.34000 -2.480
43.36000 -3.414
43.38000 -1.951
43.40000 1.909
43.42000 2.059
43.44000 4.487
43.46000 1.339
43.48000 -0.568
43.50000 4.021
43.52000 4.960
43.54000 -0.830
43.56000 1.292
43.58000 4.109
43.60000 4.502
43.62000 -2.326
43.64000 -3.397
43.66000 -2.729
43.68000 0.785
43.70000 1.653
43.72000 0.716
43.74000 -1.119
43.76000 1.868
43.78000 -0.362
43.80000 -2.244
43.82000 -1.172
43.84000 -0.066
43.86000 0.943
43.88000 0.925
43.90000 5.903
43.92000 4.127
43.94000 3.843
43.96000 1.362
43.98000 1.071
44.00000 5.502
44.02000 2.323
44.04000 1.855
44.06000 4.070
44.08000 5.311
44.10000 -1.825
44.12000 0.064
44.14000 4.188
44.16000 1.916
44.18000 -2.648
44.20000 -3.369
44.22000 1.220
44.24000 -0.346
44.26000 -0.218
44.28000 -0.727
44.30000 0.058
44.32000 5.362
44.34000 8.024
44.36000 6.091
44.38000 -0.076
44.40000 -0.164
44.42000 1.291
44.44000 -0.298
44.46000 1.515
44.48000 4.471
44.50000 -1.441
44.52000 -0.816
44.54000 7.137
44.56000 4.600
44.58000 1.712
44.60000 1.983
44.62000 -0.822
44.64000 2.088
44.66000 7.786
44.68000 5.306
44.70000 5.361
44.72000 3.576
44.74000 -1.017
44.76000 3.374
44.78000 4.137
44.80000 7.606
44.82000 3.047
44.84000 2.007
44.86000 1.114
44.88000 3.205
44.90000 5.091
44.92000 7.457
44.94000 10.483
44.96000 9.247
44.98000 7.907
45.00000 9.682
45.02000 11.227
45.04000 7.743
45.06000 8.247
45.08000 9.221
45.10000 8.798
45.12000 9.323
45.14000 8.559
45.16000 14.391
45.18000 15.560
45.20000 14.102
45.22000 15.497
45.24000 9.599
45.26000 9.588
45.28000 16.089
45.30000 12.450
45.32000 8.813
45.34000 15.954
45.36000 18.228
45.38000 19.377
45.40000 14.376
45.42000 23.716
45.44000 24.176
45.46000 22.863
45.48000 25.869
45.50000 19.803
45.52000 19.548
45.54000 21.405
45.56000 23.531
45.58000 30.624
45.60000 31.497
45.62000 32.331
45.64000 35.356
45.66000 37.042
45.68000 34.110
45.70000 28.973
45.72000 29.698
45.74000 34.206
45.76000 37.567
45.78000 36.309
45.80000 40.958
45.82000 40.897
45.84000 35.233
45.86000 39.417
45.88000 40.413
45.90000 40.729
45.92000 41.882
45.94000 42.490
45.96000 44.117
45.98000 52.847
46.00000 50.322
46.02000 52.044
46.04000 53.716
46.06000 50.933
46.08000 57.301
46.10000 62.426
46.12000 62.546
46.14000 63.571
46.16000 59.332
46.18000 65.724
46.20000 68.541
46.22000 68.905
46.24000 70.062
46.26000 69.181
46.28000 69.748
46.30000 79.414
46.32000 80.619
46.34000 79.180
46.36000 82.390
46.38000 81.038
46.40000 79.377
46.42000 85.211
46.44000 80.891
46.46000 83.724
46.48000 85.950
46.50000 89.780
46.52000 91.756
46.54000 97.677
46.56000 103.029
46.58000 96.245
46.60000 92.616
46.62000 90.524
46.64000 99.023
46.66000 94.606
46.68000 95.506
46.70000 93.996
46.72000 97.491
46.74000 98.933
46.76000 101.891
46.78000 105.360
46.80000 95.682
46.82000 94.512
46.84000 93.638
46.86000 94.777
46.88000 94.060
46.90000 89.572
46.92000 91.383
46.94000 91.110
46.96000 90.166
46.98000 83.156
47.00000 84.104
47.02000 82.422
47.04000 74.520
47.06000 74.462
47.08000 75.813
47.10000 71.991
47.12000 69.269
47.14000 71.761
47.16000 64.214
47.18000 58.325
47.20000 58.805
47.22000 60.531
47.24000 61.889
47.26000 62.194
47.28000 62.773
47.30000 54.060
47.32000 52.074
47.34000 58.265
47.36000 53.742
47.38000 51.613
47.40000 48.281
47.42000 41.485
47.44000 44.428
47.46000 38.792
47.48000 40.392
47.50000 36.993
47.52000 36.373
47.54000 36.801
47.56000 35.032
47.58000 30.076
47.60000 30.104
47.62000 29.162
47.64000 31.029
47.66000 29.187
47.68000 28.165
47.70000 23.771
47.72000 20.687
47.74000 22.158
47.76000 18.192
47.78000 16.127
47.80000 17.738
47.82000 20.070
47.84000 17.720
47.86000 12.204
47.88000 13.058
47.90000 10.666
47.92000 11.002
47.94000 7.088
47.96000 6.808
47.98000 11.382
48.00000 12.869
48.02000 6.605
48.04000 8.558
48.06000 9.708
48.08000 5.032
48.10000 6.890
48.12000 4.467
48.14000 7.228
48.16000 8.071
48.18000 1.725
48.20000 6.584
48.22000 8.111
48.24000 10.495
48.26000 8.515
48.28000 7.540
48.30000 6.889
48.32000 6.846
48.34000 3.891
48.36000 2.845
48.38000 -1.364
48.40000 -3.031
48.42000 0.001
48.44000 -0.164
48.46000 2.881
48.48000 5.512
48.50000 3.349
48.52000 2.392
48.54000 -0.987
48.56000 -0.762
48.58000 -1.940
48.60000 0.395
48.62000 2.060
48.64000 1.602
48.66000 1.707
48.68000 4.171
48.70000 1.333
48.72000 -3.000
48.74000 -1.157
48.76000 2.167
48.78000 1.657
48.80000 4.039
48.82000 8.192
48.84000 6.949
48.86000 3.887
48.88000 1.958
48.90000 1.448
48.92000 -2.192
48.94000 -0.804
48.96000 2.886
48.98000 1.952
49.00000 4.842
49.02000 6.230
49.04000 4.310
49.06000 1.580
49.08000 -0.582
49.10000 2.934
49.12000 2.981
49.14000 2.248
49.16000 -1.421
49.18000 4.169
49.20000 5.191
49.22000 1.370
49.24000 1.438
49.26000 1.530
49.28000 2.616
49.30000 5.884
49.32000 1.029
49.34000 -2.424
49.36000 -1.340
49.38000 -2.914
49.40000 -0.236
49.42000 1.765
49.44000 1.540
49.46000 0.661
49.48000 -0.800
49.50000 -0.140
49.52000 -0.085
49.54000 4.586
49.56000 3.138
49.58000 1.970
49.60000 -0.998
49.62000 -0.043
49.64000 4.860
49.66000 3.654
49.68000 3.726
49.70000 3.672
49.72000 6.303
49.74000 5.791
49.76000 2.596
49.78000 3.367
49.80000 6.661
49.82000 3.052
49.84000 5.054
49.86000 5.697
49.88000 -0.217
49.90000 0.787
49.92000 2.020
49.94000 2.755
49.96000 2.675
49.98000 2.475
50.00000 1.901
50.02000 -0.876
50.04000 1.553
50.06000 1.012
50.08000 -2.847
50.10000 -1.415
50.12000 1.641
50.14000 3.795
50.16000 4.376
50.18000 6.993
50.20000 5.905
50.22000 2.081
50.24000 3.987
50.26000 2.080
50.28000 2.369
50.30000 -1.380
50.32000 1.203
50.34000 0.610
50.36000 2.946
50.38000 1.725
50.40000 -1.295
50.42000 -2.838
50.44000 4.543
50.46000 5.716
50.48000 -0.758
50.50000 0.396
50.52000 2.646
50.54000 2.945
50.56000 0.724
50.58000 1.020
50.60000 2.371
50.62000 -1.082
50.64000 0.280
50.66000 0.004
50.68000 -2.830
50.70000 1.098
50.72000 4.341
50.74000 2.136
50.76000 1.688
50.78000 1.780
50.80000 -0.538
50.82000 -0.836
50.84000 2.505
50.86000 1.185
50.88000 1.395
50.90000 0.303
50.92000 -2.233
50.94000 -0.314
50.96000 0.089
50.98000 1.463
51.00000 0.689
51.02000 5.889
51.04000 2.497
51.06000 3.620
51.08000 1.953
51.10000 3.221
51.12000 2.947
51.14000 -1.417
51.16000 -1.902
51.18000 -1.382
51.20000 2.285
51.22000 4.466
51.24000 11.673
51.26000 3.773
51.28000 -2.812
51.30000 0.728
51.32000 -1.284
51.34000 3.587
51.36000 7.194
51.38000 7.191
51.40000 1.354
51.42000 -2.514
51.44000 -0.826
51.46000 0.748
51.48000 1.633
51.50000 0.632
51.52000 -1.942
51.54000 -0.582
51.56000 -1.022
51.58000 1.613
51.60000 2.399
51.62000 0.197
51.64000 0.494
51.66000 -0.374
51.68000 -1.267
51.70000 -1.151
51.72000 1.354
51.74000 -1.806
51.76000 1.082
51.78000 3.755
51.80000 4.038
51.82000 2.841
51.84000 -2.787
51.86000 2.799
51.88000 2.453
51.90000 1.203
51.92000 3.938
51.94000 6.555
51.96000 4.441
51.98000 2.645
52.00000 -0.284
52.02000 -0.838
52.04000 0.653
52.06000 1.343
52.08000 1.428
52.10000 2.438
52.12000 -0.094
52.14000 1.505
52.16000 1.322
52.18000 2.542
52.20000 7.369
52.22000 2.690
52.24000 -0.723
52.26000 2.113
52.28000 7.620
52.30000 8.217
52.32000 4.559
52.34000 3.945
52.36000 3.815
52.38000 4.326
52.40000 1.947
52.42000 2.085
52.44000 3.133
52.46000 0.922
52.48000 3.401
52.50000 0.750
52.52000 0.413
52.54000 0.503
52.56000 3.192
52.58000 5.956
52.60000 1.600
52.62000 2.049
52.64000 6.447
52.66000 7.543
52.68000 4.532
52.70000 4.098
52.72000 2.108
52.74000 1.285
52.76000 3.354
52.78000 6.662
52.80000 6.987
52.82000 0.789
52.84000 -0.619
52.86000 -0.173
52.88000 1.068
52.90000 7.481
52.92000 6.661
52.94000 11.535
52.96000 1.760
52.98000 -2.705
53.00000 -2.157
53.02000 -0.597
53.04000 3.268
53.06000 6.703
53.08000 6.006
53.10000 2.440
53.12000 -0.281
53.14000 -0.533
53.16000 1.249
53.18000 3.517
53.20000 4.403
53.22000 1.642
53.24000 2.838
53.26000 6.459
53.28000 2.035
53.30000 -0.442
53.32000 -1.311
53.34000 4.467
53.36000 4.310
53.38000 4.402
53.40000 5.525
53.42000 4.980
53.44000 0.446
53.46000 0.619
53.48000 3.572
53.50000 3.071
53.52000 2.824
53.54000 -0.247
53.56000 3.599
53.58000 5.634
53.60000 4.341
53.62000 5.943
53.64000 9.209
53.66000 9.672
53.68000 4.675
53.70000 4.727
53.72000 4.652
53.74000 0.878
53.76000 2.243
53.78000 1.581
53.80000 1.900
53.82000 4.446
53.84000 1.370
53.86000 4.378
53.88000 5.894
53.90000 7.325
53.92000 2.779
53.94000 0.925
53.96000 3.185
53.98000 4.033
54.00000 4.378
54.02000 3.246
54.04000 2.318
54.06000 1.328
54.08000 2.072
54.10000 -0.789
54.12000 1.372
54.14000 8.492
54.16000 7.807
54.18000 7.866
54.20000 7.042
54.22000 4.729
54.24000 4.556
54.26000 0.571
54.28000 0.427
54.30000 5.855
54.32000 8.659
54.34000 6.034
54.36000 5.991
54.38000 5.034
54.40000 -1.196
54.42000 2.790
54.44000 5.547
54.46000 2.955
54.48000 6.035
54.50000 8.373
54.52000 5.477
54.54000 3.283
54.56000 6.104
54.58000 4.791
54.60000 4.863
54.62000 5.079
54.64000 6.544
54.66000 7.417
54.68000 2.370
54.70000 -2.601
54.72000 1.496
54.74000 6.044
54.76000 6.682
54.78000 6.484
54.80000 4.955
54.82000 11.106
54.84000 6.950
54.86000 4.627
54.88000 9.014
54.90000 6.036
54.92000 7.736
54.94000 5.899
54.96000 4.877
54.98000 5.682
55.00000 5.305
55.02000 5.085
55.04000 3.658
55.06000 6.302
55.08000 6.039
55.10000 3.641
55.12000 8.994
55.14000 8.695
55.16000 8.012
55.18000 7.690
55.20000 5.461
55.22000 2.386
55.24000 5.385
55.26000 3.736
55.28000 3.981
55.30000 1.332
55.32000 5.718
55.34000 8.938
55.36000 8.772
55.38000 5.038
55.40000 1.835
55.42000 2.905
55.44000 3.433
55.46000 2.686
55.48000 1.663
55.50000 5.278
55.52000 2.901
55.54000 4.338
55.56000 1.793
55.58000 2.588
55.60000 2.999
55.62000 -0.808
55.64000 0.982
55.66000 3.487
55.68000 5.240
55.70000 4.213
55.72000 3.159
55.74000 -0.434
55.76000 0.033
55.78000 -1.777
55.80000 0.600
55.82000 -0.940
55.84000 3.311
55.86000 7.225
55.88000 7.489
55.90000 3.667
55.92000 -0.544
55.94000 1.186
55.96000 0.261
55.98000 1.757
56.00000 2.004
56.02000 5.682
56.04000 4.879
56.06000 1.632
56.08000 -1.740
56.10000 3.951
56.12000 3.896
56.14000 0.562
56.16000 0.691
56.18000 -2.634
56.20000 0.589
56.22000 -1.030
56.24000 2.545
56.26000 3.550
56.28000 1.732
56.30000 3.126
56.32000 4.270
56.34000 2.543
56.36000 -0.404
56.38000 1.658
56.40000 4.870
56.42000 1.126
56.44000 2.999
56.46000 4.320
56.48000 4.291
56.50000 5.252
56.52000 4.938
56.54000 4.594
56.56000 -0.130
56.58000 -0.490
56.60000 -1.460
56.62000 -0.777
56.64000 1.149
56.66000 1.552
56.68000 4.431
56.70000 5.767
56.72000 3.922
56.74000 4.876
56.76000 0.378
56.78000 -0.605
56.80000 1.200
56.82000 -1.687
56.84000 1.501
56.86000 0.126
56.88000 0.477
56.90000 1.376
56.92000 1.791
56.94000 2.666
56.96000 1.932
56.98000 2.272
57.00000 4.075
57.02000 2.879
57.04000 3.607
57.06000 3.600
57.08000 5.227
57.10000 4.916
57.12000 1.832
57.14000 -2.040
57.16000 -2.616
57.18000 1.074
57.20000 5.123
57.22000 1.098
57.24000 -1.927
57.26000 1.146
57.28000 3.171
57.30000 0.850
57.32000 1.194
57.34000 1.422
57.36000 -1.345
57.38000 -1.107
57.40000 4.464
57.42000 5.040
57.44000 -0.245
57.46000 2.449
57.48000 2.717
57.50000 1.693
57.52000 -0.362
57.54000 -0.531
57.56000 2.343
57.58000 3.483
57.60000 -0.873
57.62000 6.513
57.64000 6.121
57.66000 5.350
57.68000 3.992
57.70000 5.646
57.72000 7.780
57.74000 3.843
57.76000 2.110
57.78000 -1.027
57.80000 -1.739
57.82000 -0.939
57.84000 2.691
57.86000 2.895
57.88000 0.928
57.90000 3.407
57.92000 2.325
57.94000 -1.371
57.96000 2.822
57.98000 -0.308
58.00000 -2.010
58.02000 0.514
58.04000 2.343
58.06000 1.183
58.08000 2.850
58.10000 4.229
58.12000 0.461
58.14000 -0.672
58.16000 0.141
58.18000 2.555
58.20000 3.044
58.22000 5.464
58.24000 3.879
58.26000 2.625
58.28000 1.018
58.30000 1.949
58.32000 0.432
58.34000 -0.925
58.36000 0.080
58.38000 0.456
58.40000 1.831
58.42000 0.256
58.44000 1.548
58.46000 1.419
58.48000 -1.111
58.50000 -2.580
58.52000 1.111
58.54000 2.062
58.56000 -1.547
58.58000 3.808
58.60000 0.663
58.62000 -0.735
58.64000 -2.263
58.66000 -1.871
58.68000 1.783
58.70000 3.733
58.72000 4.357
58.74000 4.145
58.76000 3.429
58.78000 -0.777
58.80000 -0.378
58.82000 -2.322
58.84000 -0.681
58.86000 2.376
58.88000 2.985
58.90000 1.486
58.92000 1.021
58.94000 0.033
58.96000 -1.219
58.98000 2.540
59.00000 2.645
59.02000 -1.572
59.04000 -2.577
59.06000 0.008
59.08000 -0.212
59.10000 -0.050
59.12000 0.360
59.14000 1.265
59.16000 0.409
59.18000 0.029
59.20000 1.313
59.22000 1.403
59.24000 0.650
59.26000 4.069
59.28000 0.808
59.30000 0.186
59.32000 1.441
59.34000 -2.570
59.36000 1.392
59.38000 3.565
59.40000 0.174
59.42000 -0.049
59.44000 2.228
59.46000 3.841
59.48000 3.059
59.50000 1.682
59.52000 1.017
59.54000 0.902
59.56000 1.080
59.58000 -1.148
59.60000 1.290
59.62000 2.259
59.64000 1.213
59.66000 1.115
59.68000 0.520
59.70000 4.153
59.72000 3.254
59.74000 4.356
59.76000 2.335
59.78000 -1.708
59.80000 -0.897
59.82000 -0.496
59.84000 3.178
59.86000 2.485
59.88000 3.308
59.90000 0.915
59.92000 -0.559
59.94000 -1.819
59.96000 -2.171
59.98000 -0.327
60.00000 3.184
60.02000 1.214
60.04000 1.102
60.06000 -2.321
60.08000 -2.534
60.10000 -0.265
60.12000 0.746
60.14000 1.468
60.16000 2.472
60.18000 2.096
60.20000 3.514
60.22000 5.270
60.24000 0.819
60.26000 1.696
60.28000 1.816
60.30000 3.416
60.32000 7.036
60.34000 6.396
60.36000 3.369
60.38000 0.754
60.40000 -0.437
60.42000 -1.148
60.44000 -2.402
60.46000 0.477
60.48000 2.146
60.50000 3.576
60.52000 1.234
60.54000 -0.274
60.56000 3.747
60.58000 4.575
60.60000 0.662
60.62000 3.036
60.64000 5.472
60.66000 3.095
60.68000 1.382
60.70000 2.993
60.72000 1.610
60.74000 0.511
60.76000 2.254
60.78000 0.795
60.80000 -0.801
60.82000 -1.397
60.84000 1.151
60.86000 1.413
60.88000 2.439
60.90000 0.270
60.92000 1.201
60.94000 -2.512
60.96000 -0.239
60.98000 3.295
61.00000 3.210
61.02000 2.524
61.04000 4.739
61.06000 3.174
61.08000 3.512
61.10000 6.393
61.12000 1.339
61.14000 -2.082
61.16000 0.230
61.18000 3.992
61.20000 5.497
61.22000 3.459
61.24000 3.778
61.26000 3.918
61.28000 1.069
61.30000 1.881
61.32000 2.017
61.34000 3.266
61.36000 3.734
61.38000 4.103
61.40000 5.618
61.42000 5.378
61.44000 2.054
61.46000 0.013
61.48000 3.014
61.50000 2.387
61.52000 0.883
61.54000 -0.594
61.56000 3.863
61.58000 2.685
61.60000 -1.144
61.62000 1.558
61.64000 6.235
61.66000 2.080
61.68000 1.458
61.70000 2.042
61.72000 2.930
61.74000 3.802
61.76000 6.766
61.78000 5.176
61.80000 1.795
61.82000 -2.458
61.84000 1.740
61.86000 0.801
61.88000 0.830
61.90000 1.306
61.92000 4.148
61.94000 0.994
61.96000 4.265
61.98000 7.000
62.00000 5.032
62.02000 5.979
62.04000 5.021
62.06000 3.761
62.08000 4.499
62.10000 7.598
62.12000 2.975
62.14000 0.032
62.16000 2.349
62.18000 2.373
62.20000 2.924
62.22000 2.427
62.24000 0.566
62.26000 0.936
62.28000 1.601
62.30000 3.159
62.32000 -0.365
62.34000 -2.294
62.36000 -0.128
62.38000 2.916
62.40000 1.706
62.42000 0.479
62.44000 -0.447
62.46000 2.750
62.48000 3.610
62.50000 3.558
62.52000 2.109
62.54000 0.910
62.56000 -2.270
62.58000 2.419
62.60000 0.269
62.62000 3.072
62.64000 0.773
62.66000 2.117
62.68000 -1.058
62.70000 -0.270
62.72000 -1.157
62.74000 2.911
62.76000 3.292
62.78000 3.384
62.80000 -0.864
62.82000 -0.751
62.84000 -1.557
62.86000 -2.487
62.88000 2.066
62.90000 3.065
62.92000 0.295
62.94000 1.339
62.96000 2.555
62.98000 -0.269
63.00000 -2.422
63.02000 -0.539
63.04000 3.763
63.06000 3.085
63.08000 2.186
63.10000 0.893
63.12000 1.019
63.14000 0.266
63.16000 3.158
63.18000 4.912
63.20000 2.428
63.22000 4.000
63.24000 4.138
63.26000 0.452
63.28000 -1.637
63.30000 -2.489
63.32000 -0.214
63.34000 0.313
63.36000 3.388
63.38000 2.065
63.40000 0.427
63.42000 2.802
63.44000 2.440
63.46000 3.975
63.48000 4.118
63.50000 2.869
63.52000 2.673
63.54000 -0.431
63.56000 0.336
63.58000 -2.055
63.60000 0.038
63.62000 -0.109
63.64000 -2.386
63.66000 -0.897
63.68000 1.932
63.70000 4.771
63.72000 -0.338
63.74000 0.357
63.76000 -1.453
63.78000 1.553
63.80000 0.568
63.82000 -1.262
63.84000 0.552
63.86000 1.915
63.88000 1.939
63.90000 4.391
63.92000 2.609
63.94000 0.493
63.96000 3.862
63.98000 3.988
64.00000 3.960
64.02000 1.321
64.04000 1.813
64.06000 2.727
64.08000 3.665
64.10000 3.422
64.12000 1.143
64.14000 2.770
64.16000 7.637
64.18000 4.508
64.20000 2.021
64.22000 -1.180
64.24000 2.106
64.26000 3.711
64.28000 4.893
64.30000 2.783
64.32000 -0.739
64.34000 -2.466
64.36000 4.573
64.38000 5.063
64.40000 0.269
64.42000 1.984
64.44000 4.658
64.46000 2.889
64.48000 2.762
64.50000 0.538
64.52000 2.851
64.54000 5.052
64.56000 6.665
64.58000 7.964
64.60000 5.983
64.62000 2.814
64.64000 2.641
64.66000 0.551
64.68000 2.091
64.70000 2.255
64.72000 0.810
64.74000 1.970
64.76000 1.937
64.78000 -0.114
64.80000 1.197
64.82000 2.901
64.84000 4.596
64.86000 4.195
64.88000 4.570
64.90000 2.834
64.92000 2.983
64.94000 0.816
64.96000 1.190
64.98000 -2.474
65.00000 2.338
65.02000 3.510
65.04000 1.260
65.06000 2.373
65.08000 1.402
65.10000 -0.479
65.12000 -1.246
65.14000 0.454
65.16000 1.087
65.18000 0.365
65.20000 2.896
65.22000 -0.953
65.24000 -0.834
65.26000 -1.232
65.28000 2.358
65.30000 2.620
65.32000 2.956
65.34000 3.525
65.36000 3.429
65.38000 1.563
65.40000 -0.987
65.42000 2.695
65.44000 2.654
65.46000 1.034
65.48000 0.145
65.50000 -1.414
65.52000 -0.620
65.54000 0.554
65.56000 3.973
65.58000 1.626
65.60000 2.710
65.62000 2.084
65.64000 0.289
65.66000 2.374
65.68000 3.850
65.70000 2.457
65.72000 1.218
65.74000 -0.928
65.76000 1.773
65.78000 0.130
65.80000 -0.733
65.82000 1.626
65.84000 4.133
65.86000 2.355
65.88000 0.246
65.90000 -1.413
65.92000 -0.467
65.94000 2.479
65.96000 1.327
65.98000 1.328
66.00000 -1.285
66.02000 -0.801
66.04000 -2.541
66.06000 -1.725
66.08000 1.058
66.10000 1.844
66.12000 3.678
66.14000 0.213
66.16000 -1.869
66.18000 0.271
66.20000 -1.505
66.22000 -1.153
66.24000 -2.550
66.26000 1.393
66.28000 3.103
66.30000 2.958
66.32000 4.671
66.34000 4.534
66.36000 -1.061
66.38000 -0.780
66.40000 2.433
66.42000 3.676
66.44000 -1.387
66.46000 0.012
66.48000 3.906
66.50000 2.088
66.52000 2.206
66.54000 5.737
66.56000 4.042
66.58000 1.915
66.60000 0.774
66.62000 2.017
66.64000 2.622
66.66000 4.505
66.68000 3.750
66.70000 1.172
66.72000 2.512
66.74000 3.320
66.76000 6.908
66.78000 4.843
66.80000 2.082
66.82000 4.360
66.84000 2.494
66.86000 0.564
66.88000 2.627
66.90000 2.103
66.92000 4.631
66.94000 4.595
66.96000 5.128
66.98000 6.303
67.00000 6.666
67.02000 6.306
67.04000 10.878
67.06000 7.518
67.08000 4.823
67.10000 8.195
67.12000 9.273
67.14000 9.566
67.16000 8.269
67.18000 9.877
67.20000 8.306
67.22000 9.687
67.24000 7.322
67.26000 10.651
67.28000 11.790
67.30000 12.464
67.32000 8.242
67.34000 7.031
67.36000 9.251
67.38000 13.943
67.40000 12.187
67.42000 12.210
67.44000 12.298
67.46000 17.269
67.48000 13.550
67.50000 11.942
67.52000 11.369
67.54000 13.456
67.56000 11.824
67.58000 14.479
67.60000 17.009
67.62000 18.488
67.64000 17.304
67.66000 17.929
67.68000 17.300
67.70000 15.951
67.72000 17.635
67.74000 19.257
67.76000 20.234
67.78000 14.088
67.80000 16.063
67.82000 18.336
67.84000 22.484
67.86000 22.617
67.88000 18.859
67.90000 17.821
67.92000 20.662
67.94000 22.866
67.96000 23.737
67.98000 25.563
68.00000 23.957
68.02000 20.800
68.04000 18.048
68.06000 18.831
68.08000 19.909
68.10000 20.588
68.12000 18.582
68.14000 20.002
68.16000 22.469
68.18000 22.415
68.20000 24.043
68.22000 20.647
68.24000 20.215
68.26000 24.807
68.28000 21.145
68.30000 19.978
68.32000 20.417
68.34000 20.547
68.36000 20.877
68.38000 18.803
68.40000 18.491
68.42000 17.300
68.44000 18.085
68.46000 17.321
68.48000 17.901
68.50000 19.128
68.52000 17.957
68.54000 17.881
68.56000 16.769
68.58000 15.797
68.60000 16.888
68.62000 14.980
68.64000 8.871
68.66000 5.864
68.68000 13.557
68.70000 14.270
68.72000 13.748
68.74000 13.767
68.76000 12.196
68.78000 11.469
68.80000 10.351
68.82000 9.890
68.84000 9.981
68.86000 12.406
68.88000 10.592
68.90000 8.604
68.92000 11.584
68.94000 12.115
68.96000 11.360
68.98000 8.793
69.00000 8.905
69.02000 7.740
69.04000 3.600
69.06000 4.782
69.08000 7.698
69.10000 8.828
69.12000 4.988
69.14000 3.134
69.16000 3.524
69.18000 5.610
69.20000 5.014
69.22000 4.096
69.24000 3.071
69.26000 1.965
69.28000 3.777
69.30000 6.373
69.32000 5.910
69.34000 3.650
69.36000 1.343
69.38000 4.343
69.40000 6.061
69.42000 4.308
69.44000 0.168
69.46000 -2.464
69.48000 4.240
69.50000 6.056
69.52000 2.955
69.54000 8.110
69.56000 8.469
69.58000 6.373
69.60000 0.245
69.62000 0.007
69.64000 2.890
69.66000 0.702
69.68000 0.401
69.70000 1.275
69.72000 3.111
69.74000 3.798
69.76000 3.859
69.78000 1.782
69.80000 0.412
69.82000 1.833
69.84000 5.918
69.86000 6.920
69.88000 3.276
69.90000 1.971
69.92000 0.012
69.94000 0.409
69.96000 1.954
69.98000 6.164
70.00000 5.872
70.02000 6.320
70.04000 1.349
70.06000 -1.916
70.08000 3.432
70.10000 8.599
70.12000 2.379
70.14000 2.680
70.16000 4.334
70.18000 3.151
70.20000 2.867
70.22000 6.356
70.24000 2.538
70.26000 -1.134
70.28000 0.187
70.30000 2.790
70.32000 2.195
70.34000 3.456
70.36000 4.638
70.38000 8.227
70.40000 3.772
70.42000 -2.370
70.44000 2.344
70.46000 6.557
70.48000 6.384
70.50000 3.171
70.52000 3.572
70.54000 4.267
70.56000 4.747
70.58000 4.778
70.60000 1.801
70.62000 -0.273
70.64000 1.850
70.66000 3.787
70.68000 6.201
70.70000 4.082
70.72000 3.107
70.74000 4.782
70.76000 3.155
70.78000 6.026
70.80000 2.569
70.82000 0.927
70.84000 0.075
70.86000 1.059
70.88000 -1.376
70.90000 0.473
70.92000 1.830
70.94000 3.376
70.96000 4.893
70.98000 3.455
71.00000 2.411
71.02000 3.155
71.04000 6.354
71.06000 7.264
71.08000 4.917
71.10000 4.288
71.12000 5.593
71.14000 3.486
71.16000 1.359
71.18000 4.493
71.20000 6.990
71.22000 5.556
71.24000 3.095
71.26000 7.584
71.28000 5.699
71.30000 9.182
71.32000 7.889
71.34000 3.761
71.36000 1.034
71.38000 -2.327
71.40000 -0.656
71.42000 2.645
71.44000 4.303
71.46000 4.585
71.48000 6.317
71.50000 5.097
71.52000 5.014
71.54000 3.707
71.56000 7.089
71.58000 2.151
71.60000 2.580
71.62000 6.294
71.64000 5.104
71.66000 0.395
71.68000 0.127
71.70000 5.498
71.72000 7.209
71.74000 6.246
71.76000 6.642
71.78000 1.775
71.80000 0.803
71.82000 0.157
71.84000 -0.560
71.86000 3.247
71.88000 4.668
71.90000 1.797
71.92000 -0.519
71.94000 0.515
71.96000 5.711
71.98000 7.185
72.00000 0.636
72.02000 0.311
72.04000 2.432
72.06000 2.626
72.08000 1.830
72.10000 3.565
72.12000 1.803
72.14000 2.407
72.16000 3.509
72.18000 0.135
72.20000 -1.315
72.22000 1.487
72.24000 0.951
72.26000 4.920
72.28000 2.327
72.30000 -0.400
72.32000 -2.333
72.34000 -1.856
72.36000 -0.468
72.38000 3.565
72.40000 3.459
72.42000 3.682
72.44000 -0.413
72.46000 2.820
72.48000 4.228
72.50000 2.929
72.52000 1.598
72.54000 0.654
72.56000 6.556
72.58000 -0.247
72.60000 1.501
72.62000 4.486
72.64000 4.325
72.66000 2.107
72.68000 0.367
72.70000 1.309
72.72000 1.049
72.74000 1.250
72.76000 3.983
72.78000 7.928
72.80000 4.774
72.82000 2.845
72.84000 1.558
72.86000 3.469
72.88000 1.608
72.90000 -0.191
72.92000 2.884
72.94000 -2.337
72.96000 -0.763
72.98000 2.028
73.00000 1.963
73.02000 3.937
73.04000 3.263
73.06000 -1.089
73.08000 3.184
73.10000 0.455
73.12000 -0.649
73.14000 -0.219
73.16000 5.877
73.18000 3.883
73.20000 2.390
73.22000 2.973
73.24000 5.669
73.26000 2.566
73.28000 1.040
73.30000 0.339
73.32000 2.649
73.34000 4.212
73.36000 3.276
73.38000 -2.316
73.40000 0.334
73.42000 0.835
73.44000 3.661
73.46000 0.630
73.48000 1.070
73.50000 -1.253
73.52000 -1.415
73.54000 3.710
73.56000 2.461
73.58000 -2.322
73.60000 5.120
73.62000 5.850
73.64000 0.237
73.66000 -1.324
73.68000 -1.859
73.70000 0.534
73.72000 4.903
73.74000 4.274
73.76000 3.408
73.78000 3.486
73.80000 6.780
73.82000 4.182
73.84000 -0.893
73.86000 3.478
73.88000 7.085
73.90000 8.828
73.92000 4.233
73.94000 2.714
73.96000 5.143
73.98000 6.565
74.00000 1.970
74.02000 4.330
74.04000 -1.290
74.06000 -0.280
74.08000 0.903
74.10000 2.615
74.12000 5.874
74.14000 5.897
74.16000 4.280
74.18000 1.987
74.20000 1.310
74.22000 -2.326
74.24000 -0.890
74.26000 0.267
74.28000 2.293
74.30000 -0.142
74.32000 5.478
74.34000 4.880
74.36000 0.815
74.38000 1.420
74.40000 2.969
74.42000 0.857
74.44000 -1.344
74.46000 0.258
74.48000 6.400
74.50000 6.627
74.52000 0.256
74.54000 1.409
74.56000 3.410
74.58000 5.276
74.60000 7.377
74.62000 5.298
74.64000 1.839
74.66000 1.309
74.68000 3.934
74.70000 0.025
74.72000 -1.111
74.74000 2.946
74.76000 4.053
74.78000 3.313
74.80000 0.262
74.82000 3.376
74.84000 2.586
74.86000 0.655
74.88000 1.790
74.90000 2.447
74.92000 6.677
74.94000 3.374
74.96000 -0.348
74.98000 -2.144
75.00000 -2.101
75.02000 1.944
75.04000 0.922
75.06000 2.033
75.08000 2.620
75.10000 3.484
75.12000 3.455
75.14000 2.932
75.16000 -1.273
75.18000 0.347
75.20000 4.386
75.22000 6.181
75.24000 6.045
75.26000 2.411
75.28000 1.855
75.30000 7.460
75.32000 3.255
75.34000 0.990
75.36000 3.061
75.38000 1.250
75.40000 4.155
75.42000 -1.059
75.44000 -1.863
75.46000 -0.573
75.48000 0.314
75.50000 -2.327
75.52000 1.185
75.54000 -1.281
75.56000 7.158
75.58000 4.217
75.60000 0.257
75.62000 4.712
75.64000 0.955
75.66000 -0.024
75.68000 -2.321
75.70000 -2.071
75.72000 -0.949
75.74000 -1.819
75.76000 0.760
75.78000 3.845
75.80000 2.094
75.82000 0.398
75.84000 1.687
75.86000 3.393
75.88000 6.398
75.90000 0.974
75.92000 3.072
75.94000 -0.172
75.96000 -0.828
75.98000 1.781
76.00000 2.687
76.02000 -0.024
76.04000 1.195
76.06000 -1.219
76.08000 -0.786
76.10000 -1.967
76.12000 2.085
76.14000 6.669
76.16000 6.359
76.18000 2.486
76.20000 -1.851
76.22000 3.347
76.24000 4.717
76.26000 -1.480
76.28000 -1.090
76.30000 4.769
76.32000 7.875
76.34000 8.238
76.36000 2.320
76.38000 -1.219
76.40000 0.850
76.42000 0.497
76.44000 1.783
76.46000 2.954
76.48000 -1.842
76.50000 -0.511
76.52000 1.624
76.54000 -0.372
76.56000 1.508
76.58000 2.172
76.60000 3.262
76.62000 2.053
76.64000 2.715
76.66000 4.476
76.68000 4.839
76.70000 1.356
76.72000 -0.710
76.74000 0.140
76.76000 1.050
76.78000 -0.763
76.80000 3.851
76.82000 2.128
76.84000 -1.466
76.86000 0.027
76.88000 -2.333
76.90000 -2.332
76.92000 -0.530
76.94000 4.749
76.96000 5.385
76.98000 4.300
77.00000 5.480
77.02000 5.222
77.04000 2.270
77.06000 -0.577
77.08000 4.615
77.10000 1.241
77.12000 0.461
77.14000 1.673
77.16000 2.294
77.18000 0.877
77.20000 -1.509
77.22000 -2.185
77.24000 -1.781
77.26000 0.472
77.28000 0.131
77.30000 4.496
77.32000 3.021
77.34000 2.624
77.36000 4.848
77.38000 3.367
77.40000 3.104
77.42000 2.401
77.44000 1.457
77.46000 4.106
77.48000 4.348
77.50000 4.748
77.52000 7.243
77.54000 4.957
77.56000 1.680
77.58000 1.608
77.60000 3.032
77.62000 4.914
77.64000 1.047
77.66000 2.899
77.68000 0.262
77.70000 3.083
77.72000 6.338
77.74000 4.543
77.76000 3.026
77.78000 1.948
77.80000 7.103
77.82000 5.993
77.84000 4.226
77.86000 2.619
77.88000 2.397
77.90000 4.532
77.92000 5.315
77.94000 1.721
77.96000 -1.895
77.98000 -0.624
78.00000 1.388
78.02000 3.753
78.04000 3.929
78.06000 8.294
78.08000 9.615
78.10000 6.149
78.12000 1.648
78.14000 0.967
78.16000 6.873
78.18000 6.428
78.20000 1.105
78.22000 3.956
78.24000 3.304
78.26000 6.594
78.28000 6.456
78.30000 -0.737
78.32000 -2.313
78.34000 2.600
78.36000 2.597
78.38000 1.009
78.40000 3.873
78.42000 5.368
78.44000 1.716
78.46000 1.982
78.48000 2.374
78.50000 6.039
78.52000 6.589
78.54000 3.896
78.56000 2.015
78.58000 5.744
78.60000 5.666
78.62000 9.182
78.64000 6.041
78.66000 8.003
78.68000 8.981
78.70000 8.797
78.72000 9.791
78.74000 6.850
78.76000 3.887
78.78000 1.322
78.80000 5.474
78.82000 2.681
78.84000 3.314
78.86000 5.321
78.88000 4.724
78.90000 7.451
78.92000 6.630
78.94000 2.614
78.96000 -0.840
78.98000 1.951
79.00000 3.065
79.02000 -0.345
79.04000 1.290
79.06000 5.862
79.08000 6.764
79.10000 6.035
79.12000 2.384
79.14000 5.374
79.16000 2.383
79.18000 -0.365
79.20000 0.956
79.22000 0.430
79.24000 6.556
79.26000 5.045
79.28000 4.837
79.30000 7.799
79.32000 6.933
79.34000 2.951
79.36000 1.482
79.38000 -0.244
79.40000 2.281
79.42000 1.018
79.44000 -0.937
79.46000 0.709
79.48000 -1.228
79.50000 -0.403
79.52000 1.735
79.54000 4.623
79.56000 5.680
79.58000 2.419
79.60000 1.732
79.62000 1.640
79.64000 -0.146
79.66000 -0.497
79.68000 6.010
79.70000 3.760
79.72000 0.514
79.74000 2.096
79.76000 3.289
79.78000 4.566
79.80000 5.748
79.82000 2.155
79.84000 -1.094
79.86000 0.760
79.88000 2.268
79.90000 5.934
79.92000 6.729
79.94000 2.751
79.96000 3.175
79.98000 5.490
80.00000 1.709
80.02000 3.527
80.04000 4.360
80.06000 4.712
80.08000 3.412
80.10000 2.421
80.12000 7.938
80.14000 5.897
80.16000 -2.424
80.18000 3.632
80.20000 5.829
80.22000 4.153
80.24000 9.267
80.26000 6.797
80.28000 3.684
80.30000 7.455
80.32000 11.411
80.34000 9.192
80.36000 10.683
80.38000 7.787
80.40000 3.153
80.42000 4.130
80.44000 6.874
80.46000 7.799
80.48000 11.694
80.50000 6.519
80.52000 6.101
80.54000 9.780
80.56000 5.207
80.58000 6.191
80.60000 8.690
80.62000 11.136
80.64000 5.946
80.66000 5.670
80.68000 1.259
80.70000 5.244
80.72000 4.603
80.74000 4.005
80.76000 8.702
80.78000 12.999
80.80000 9.116
80.82000 7.304
80.84000 8.522
80.86000 10.777
80.88000 9.445
80.90000 7.945
80.92000 9.197
80.94000 9.296
80.96000 9.538
80.98000 12.072
81.00000 4.880
81.02000 5.298
81.04000 9.459
81.06000 11.731
81.08000 8.746
81.10000 14.313
81.12000 13.468
81.14000 14.180
81.16000 11.724
81.18000 13.523
81.20000 12.590
81.22000 12.389
81.24000 13.469
81.26000 14.925
81.28000 18.326
81.30000 16.938
81.32000 16.057
81.34000 17.810
81.36000 16.635
81.38000 18.267
81.40000 18.128
81.42000 16.208
81.44000 12.611
81.46000 14.862
81.48000 24.701
81.50000 23.854
81.52000 22.780
81.54000 18.552
81.56000 21.598
81.58000 19.397
81.60000 11.880
81.62000 13.429
81.64000 19.379
81.66000 22.555
81.68000 23.598
81.70000 22.068
81.72000 27.522
81.74000 27.380
81.76000 25.039
81.78000 23.578
81.80000 25.811
81.82000 27.794
81.84000 21.963
81.86000 27.452
81.88000 27.553
81.90000 30.842
81.92000 25.376
81.94000 20.935
81.96000 25.447
81.98000 23.327
82.00000 24.754
82.02000 26.980
82.04000 26.935
82.06000 29.024
82.08000 26.037
82.10000 25.687
82.12000 28.831
82.14000 25.916
82.16000 26.196
82.18000 27.479
82.20000 33.523
82.22000 35.483
82.24000 25.664
82.26000 29.999
82.28000 26.927
82.30000 25.068
82.32000 21.727
82.34000 26.082
82.36000 29.068
82.38000 32.829
82.40000 25.410
82.42000 23.432
82.44000 21.725
82.46000 26.588
82.48000 22.485
82.50000 24.454
82.52000 23.377
82.54000 24.539
82.56000 31.071
82.58000 25.573
82.60000 27.747
82.62000 21.122
82.64000 22.633
82.66000 25.161
82.68000 22.482
82.70000 18.275
82.72000 20.972
82.74000 19.654
82.76000 18.859
82.78000 17.696
82.80000 17.962
82.82000 17.346
82.84000 20.760
82.86000 19.154
82.88000 17.256
82.90000 16.849
82.92000 19.402
82.94000 15.446
82.96000 14.245
82.98000 17.982
83.00000 14.424
83.02000 13.465
83.04000 12.188
83.06000 12.622
83.08000 12.520
83.10000 9.441
83.12000 9.877
83.14000 9.085
83.16000 10.618
83.18000 8.687
83.20000 11.174
83.22000 10.761
83.24000 11.203
83.26000 10.684
83.28000 7.934
83.30000 7.477
83.32000 13.475
83.34000 14.200
83.36000 11.735
83.38000 10.237
83.40000 11.515
83.42000 10.502
83.44000 6.590
83.46000 4.017
83.48000 3.712
83.50000 8.616
83.52000 11.168
83.54000 7.892
83.56000 9.236
83.58000 4.403
83.60000 4.207
83.62000 12.833
83.64000 9.409
83.66000 6.586
83.68000 4.366
83.70000 3.832
83.72000 4.473
83.74000 2.252
83.76000 -0.152
83.78000 1.713
83.80000 6.704
83.82000 1.325
83.84000 -2.465
83.86000 2.038
83.88000 7.063
83.90000 6.281
83.92000 6.364
83.94000 3.502
83.96000 6.632
83.98000 5.447
84.00000 3.352
84.02000 4.205
84.04000 4.249
84.06000 2.102
84.08000 1.308
84.10000 1.421
84.12000 -0.412
84.14000 -1.366
84.16000 1.270
84.18000 6.694
84.20000 3.845
84.22000 5.856
84.24000 5.861
84.26000 5.927
84.28000 1.516
84.30000 2.950
84.32000 0.775
84.34000 -2.462
84.36000 0.132
84.38000 2.349
84.40000 5.487
84.42000 3.678
84.44000 1.790
84.46000 2.920
84.48000 -0.118
84.50000 -0.234
84.52000 -1.214
84.54000 -2.458
84.56000 0.081
84.58000 3.324
84.60000 3.003
84.62000 -0.226
84.64000 2.845
84.66000 4.157
84.68000 2.957
84.70000 3.197
84.72000 3.938
84.74000 8.031
84.76000 8.426
84.78000 7.936
84.80000 2.092
84.82000 0.323
84.84000 2.565
84.86000 4.067
84.88000 -0.080
84.90000 2.088
84.92000 -1.073
84.94000 4.092
84.96000 2.719
84.98000 3.263
85.00000 -0.055
85.02000 0.965
85.04000 3.422
85.06000 -0.354
85.08000 1.767
85.10000 -0.110
85.12000 -1.031
85.14000 1.915
85.16000 2.001
85.18000 0.953
85.20000 2.264
85.22000 3.787
85.24000 3.434
85.26000 3.497
85.28000 3.380
85.30000 5.772
85.32000 5.183
85.34000 3.567
85.36000 4.267
85.38000 4.408
85.40000 7.112
85.42000 4.650
85.44000 3.937
85.46000 3.771
85.48000 6.042
85.50000 6.205
85.52000 5.581
85.54000 7.725
85.56000 6.530
85.58000 5.736
85.60000 7.450
85.62000 7.589
85.64000 4.207
85.66000 5.242
85.68000 8.998
85.70000 10.831
85.72000 7.766
85.74000 8.811
85.76000 11.460
85.78000 5.032
85.80000 9.898
85.82000 10.578
85.84000 13.178
85.86000 15.843
85.88000 15.217
85.90000 13.591
85.92000 12.981
85.94000 13.599
85.96000 16.459
85.98000 15.554
86.00000 14.759
86.02000 15.360
86.04000 17.074
86.06000 12.014
86.08000 14.180
86.10000 19.005
86.12000 18.481
86.14000 13.002
86.16000 15.689
86.18000 19.770
86.20000 19.586
86.22000 17.565
86.24000 18.517
86.26000 18.429
86.28000 16.391
86.30000 20.666
86.32000 20.945
86.34000 16.238
86.36000 20.742
86.38000 21.357
86.40000 24.536
86.42000 26.917
86.44000 21.000
86.46000 18.421
86.48000 19.808
86.50000 21.983
86.52000 22.675
86.54000 21.109
86.56000 20.666
86.58000 20.240
86.60000 16.696
86.62000 14.156
86.64000 16.245
86.66000 24.362
86.68000 24.880
86.70000 23.094
86.72000 20.626
86.74000 20.383
86.76000 17.484
86.78000 14.676
86.80000 20.028
86.82000 19.189
86.84000 17.109
86.86000 12.017
86.88000 15.652
86.90000 18.113
86.92000 14.904
86.94000 13.621
86.96000 15.035
86.98000 12.687
87.00000 10.777
87.02000 11.276
87.04000 12.730
87.06000 16.054
87.08000 12.592
87.10000 14.936
87.12000 10.766
87.14000 9.822
87.16000 14.499
87.18000 10.031
87.20000 10.922
87.22000 8.266
87.24000 5.924
87.26000 7.348
87.28000 3.005
87.30000 0.905
87.32000 8.384
87.34000 12.020
87.36000 15.362
87.38000 11.611
87.40000 5.447
87.42000 5.226
87.44000 4.450
87.46000 2.229
87.48000 5.861
87.50000 8.102
87.52000 5.482
87.54000 3.502
87.56000 3.890
87.58000 8.970
87.60000 6.958
87.62000 4.819
87.64000 0.330
87.66000 2.804
87.68000 5.313
87.70000 1.582
87.72000 -1.539
87.74000 0.783
87.76000 2.503
87.78000 1.687
87.80000 1.180
87.82000 1.093
87.84000 1.638
87.86000 1.976
87.88000 3.135
87.90000 2.215
87.92000 4.958
87.94000 0.208
87.96000 1.683
87.98000 1.685
88.00000 0.768
88.02000 0.365
88.04000 -2.303
88.06000 0.556
88.08000 1.281
88.10000 3.507
88.12000 5.381
88.14000 1.882
88.16000 7.404
88.18000 5.271
88.20000 -1.354
88.22000 3.517
88.24000 2.977
88.26000 2.664
88.28000 1.901
88.30000 3.172
88.32000 2.838
88.34000 3.872
88.36000 4.346
88.38000 2.150
88.40000 3.035
88.42000 4.848
88.44000 2.323
88.46000 5.980
88.48000 5.469
88.50000 3.647
88.52000 3.847
88.54000 2.093
88.56000 -0.593
88.58000 1.828
88.60000 1.503
88.62000 2.612
88.64000 3.604
88.66000 5.023
88.68000 4.937
88.70000 3.978
88.72000 3.109
88.74000 2.109
88.76000 2.048
88.78000 1.474
88.80000 3.036
88.82000 0.890
88.84000 1.532
88.86000 1.191
88.88000 3.950
88.90000 3.302
88.92000 0.282
88.94000 -2.171
88.96000 5.003
88.98000 8.102
89.00000 5.880
89.02000 5.149
89.04000 7.916
89.06000 3.731
89.08000 1.892
89.10000 0.430
89.12000 2.265
89.14000 5.483
89.16000 4.032
89.18000 1.119
89.20000 2.515
89.22000 7.217
89.24000 10.756
89.26000 8.046
89.28000 5.216
89.30000 3.449
89.32000 4.435
89.34000 8.431
89.36000 5.311
89.38000 3.830
89.40000 4.234
89.42000 8.282
89.44000 11.942
89.46000 12.646
89.48000 8.577
89.50000 5.624
89.52000 0.683
89.54000 -2.154
89.56000 -1.593
89.58000 0.211
89.60000 3.412
89.62000 7.706
89.64000 4.636
89.66000 2.488
89.68000 0.945
89.70000 -0.334
89.72000 0.460
89.74000 -1.045
89.76000 1.043
89.78000 7.552
89.80000 6.575
89.82000 3.778
89.84000 3.047
89.86000 2.622
89.88000 5.388
89.90000 9.328
89.92000 5.829
89.94000 8.603
89.96000 7.890
89.98000 3.733
90.00000 2.833
90.02000 5.577
90.04000 6.837
90.06000 1.907
90.08000 -1.418
90.10000 2.728
90.12000 1.812
90.14000 3.757
90.16000 4.667
90.18000 5.196
90.20000 5.324
90.22000 6.048
90.24000 5.711
90.26000 3.988
90.28000 1.516
90.30000 0.511
90.32000 4.516
90.34000 2.306
90.36000 2.516
90.38000 0.988
90.40000 3.346
90.42000 6.699
90.44000 2.146
90.46000 0.967
90.48000 4.893
90.50000 5.907
90.52000 4.533
90.54000 5.616
90.56000 4.240
90.58000 0.569
90.60000 1.870
90.62000 3.923
90.64000 6.340
90.66000 -2.168
90.68000 -1.773
90.70000 3.549
90.72000 6.942
90.74000 6.883
90.76000 0.350
90.78000 -0.057
90.80000 1.130
90.82000 3.278
90.84000 4.346
90.86000 3.356
90.88000 4.574
90.90000 0.448
90.92000 0.733
90.94000 2.887
90.96000 2.894
90.98000 2.073
91.00000 4.249
91.02000 4.420
91.04000 3.977
91.06000 5.672
91.08000 -0.691
91.10000 -1.898
91.12000 -0.801
91.14000 6.432
91.16000 7.526
91.18000 9.572
91.20000 6.583
91.22000 0.526
91.24000 2.089
91.26000 4.160
91.28000 1.495
91.30000 2.109
91.32000 5.216
91.34000 2.795
91.36000 2.494
91.38000 1.717
91.40000 0.852
91.42000 3.693
91.44000 1.727
91.46000 3.518
91.48000 5.084
91.50000 1.824
91.52000 5.240
91.54000 2.853
91.56000 3.742
91.58000 4.623
91.60000 5.681
91.62000 0.262
91.64000 2.810
91.66000 2.729
91.68000 1.436
91.70000 4.764
91.72000 3.868
91.74000 7.234
91.76000 7.751
91.78000 2.870
91.80000 2.256
91.82000 2.612
91.84000 6.233
91.86000 10.482
91.88000 7.266
91.90000 -1.477
91.92000 -2.149
91.94000 0.396
91.96000 4.784
91.98000 7.355
92.00000 2.812
92.02000 2.778
92.04000 11.786
92.06000 6.593
92.08000 4.103
92.10000 3.844
92.12000 5.195
92.14000 2.218
92.16000 1.066
92.18000 7.566
92.20000 4.239
92.22000 2.449
92.24000 4.589
92.26000 3.616
92.28000 3.763
92.30000 6.723
92.32000 5.795
92.34000 6.233
92.36000 2.585
92.38000 4.669
92.40000 6.617
92.42000 3.499
92.44000 1.849
92.46000 6.679
92.48000 -0.693
92.50000 0.362
92.52000 1.066
92.54000 4.763
92.56000 4.883
92.58000 2.593
92.60000 3.264
92.62000 6.070
92.64000 6.747
92.66000 3.783
92.68000 2.639
92.70000 4.272
92.72000 6.781
92.74000 7.130
92.76000 4.187
92.78000 3.840
92.80000 1.196
92.82000 2.824
92.84000 5.009
92.86000 4.124
92.88000 6.766
92.90000 8.372
92.92000 0.606
92.94000 4.943
92.96000 5.515
92.98000 4.175
93.00000 4.769
93.02000 3.626
93.04000 5.191
93.06000 4.286
93.08000 -2.185
93.10000 -0.180
93.12000 6.379
93.14000 1.741
93.16000 4.999
93.18000 2.268
93.20000 -0.642
93.22000 7.029
93.24000 4.092
93.26000 4.252
93.28000 1.140
93.30000 -0.983
93.32000 2.782
93.34000 8.645
93.36000 7.663
93.38000 -2.194
93.40000 1.804
93.42000 2.761
93.44000 3.798
93.46000 1.487
93.48000 -2.030
93.50000 5.129
93.52000 6.504
93.54000 3.769
93.56000 1.292
93.58000 -2.002
93.60000 1.276
93.62000 2.122
93.64000 6.201
93.66000 7.523
93.68000 5.721
93.70000 7.459
93.72000 7.290
93.74000 7.812
93.76000 3.411
93.78000 1.408
93.80000 3.050
93.82000 1.907
93.84000 1.917
93.86000 -0.915
93.88000 -0.683
93.90000 2.910
93.92000 0.744
93.94000 1.823
93.96000 -1.590
93.98000 1.718
94.00000 1.420
94.02000 1.577
94.04000 2.710
94.06000 3.393
94.08000 4.377
94.10000 7.843
94.12000 9.125
94.14000 3.252
94.16000 5.351
94.18000 2.989
94.20000 -0.487
94.22000 0.174
94.24000 3.088
94.26000 7.688
94.28000 1.732
94.30000 -2.203
94.32000 -1.264
94.34000 0.559
94.36000 1.345
94.38000 1.289
94.40000 3.716
94.42000 6.675
94.44000 6.325
94.46000 2.422
94.48000 0.444
94.50000 0.418
94.52000 0.987
94.54000 2.914
94.56000 2.918
94.58000 1.028
94.60000 1.385
94.62000 5.535
94.64000 4.030
94.66000 0.054
94.68000 3.772
94.70000 2.929
94.72000 8.843
94.74000 4.762
94.76000 1.130
94.78000 2.196
94.80000 3.703
94.82000 8.424
94.84000 5.919
94.86000 1.272
94.88000 3.427
94.90000 5.468
94.92000 5.196
94.94000 4.411
94.96000 1.932
94.98000 4.215
95.00000 4.250
95.02000 1.324
95.04000 5.504
95.06000 2.475
95.08000 6.285
95.10000 6.009
95.12000 3.227
95.14000 5.224
95.16000 4.745
95.18000 1.638
95.20000 3.057
95.22000 2.643
95.24000 0.237
95.26000 0.617
95.28000 3.908
95.30000 6.795
95.32000 3.932
95.34000 2.589
95.36000 -2.174
95.38000 1.435
95.40000 5.060
95.42000 7.032
95.44000 7.360
95.46000 7.277
95.48000 7.824
95.50000 6.015
95.52000 0.513
95.54000 2.519
95.56000 4.238
95.58000 3.943
95.60000 5.606
95.62000 4.459
95.64000 7.677
95.66000 6.574
95.68000 2.151
95.70000 2.810
95.72000 0.332
95.74000 -2.150
95.76000 -2.033
95.78000 2.035
95.80000 7.294
95.82000 8.827
95.84000 7.635
95.86000 5.461
95.88000 7.021
95.90000 9.794
95.92000 6.905
95.94000 1.537
95.96000 -0.814
95.98000 6.916
96.00000 7.507
96.02000 6.878
96.04000 9.942
96.06000 10.405
96.08000 5.652
96.10000 2.838
96.12000 4.775
96.14000 2.966
96.16000 1.053
96.18000 3.944
96.20000 0.899
96.22000 4.919
96.24000 7.478
96.26000 12.883
96.28000 10.430
96.30000 9.486
96.32000 9.732
96.34000 7.242
96.36000 5.716
96.38000 -0.549
96.40000 5.621
96.42000 7.737
96.44000 5.467
96.46000 6.733
96.48000 10.371
96.50000 2.676
96.52000 -1.613
96.54000 0.956
96.56000 1.956
96.58000 0.010
96.60000 3.658
96.62000 6.288
96.64000 3.430
96.66000 2.208
96.68000 -1.904
96.70000 0.286
96.72000 1.744
96.74000 9.258
96.76000 4.939
96.78000 5.234
96.80000 3.898
96.82000 5.693
96.84000 9.038
96.86000 4.230
96.88000 0.959
96.90000 2.572
96.92000 -1.753
96.94000 3.379
96.96000 11.329
96.98000 8.873
97.00000 4.788
97.02000 6.745
97.04000 8.728
97.06000 3.349
97.08000 -0.345
97.10000 -1.506
97.12000 2.234
97.14000 -0.267
97.16000 -0.874
97.18000 0.822
97.20000 1.366
97.22000 9.136
97.24000 11.842
97.26000 9.340
97.28000 3.199
97.30000 -1.829
97.32000 -1.288
97.34000 5.459
97.36000 10.073
97.38000 13.728
97.40000 4.976
97.42000 5.183
97.44000 7.278
97.46000 3.218
97.48000 3.219
97.50000 6.660
97.52000 7.984
97.54000 6.247
97.56000 10.244
97.58000 5.173
97.60000 3.901
97.62000 7.469
97.64000 3.299
97.66000 2.265
97.68000 1.348
97.70000 7.002
97.72000 10.455
97.74000 3.921
97.76000 4.221
97.78000 4.780
97.80000 5.807
97.82000 2.245
97.84000 5.058
97.86000 7.363
97.88000 5.407
97.90000 3.274
97.92000 -2.113
97.94000 1.562
97.96000 4.692
97.98000 4.373
98.00000 7.056
98.02000 10.360
98.04000 10.408
98.06000 7.567
98.08000 5.637
98.10000 3.364
98.12000 4.877
98.14000 6.954
98.16000 4.553
98.18000 6.707
98.20000 12.867
98.22000 13.018
98.24000 4.068
98.26000 4.346
98.28000 1.631
98.30000 3.068
98.32000 5.818
98.34000 0.946
98.36000 6.566
98.38000 3.240
98.40000 1.021
98.42000 2.350
98.44000 4.189
98.46000 4.999
98.48000 9.188
98.50000 1.232
98.52000 1.455
98.54000 7.573
98.56000 9.801
98.58000 16.640
98.60000 8.484
98.62000 -0.121
98.64000 6.451
98.66000 3.769
98.68000 0.962
98.70000 6.902
98.72000 12.377
98.74000 12.678
98.76000 6.116
98.78000 10.777
98.80000 3.318
98.82000 2.062
98.84000 -0.366
98.86000 5.300
98.88000 3.788
98.90000 7.566
98.92000 5.665
98.94000 2.318
98.96000 8.437
98.98000 7.118
99.00000 8.079
99.02000 0.835
99.04000 -2.124
99.06000 2.736
99.08000 14.550
99.10000 13.211
99.12000 18.822
99.14000 11.868
99.16000 8.766
99.18000 7.377
99.20000 4.459
99.22000 8.560
99.24000 0.313
99.26000 -0.736
99.28000 0.162
99.30000 3.985
99.32000 6.520
99.34000 5.696
99.36000 -1.369
99.38000 -0.983
99.40000 8.312
99.42000 7.723
99.44000 3.818
99.46000 2.455
99.48000 2.703
99.50000 -1.618
99.52000 0.814
99.54000 3.288
99.56000 8.299
99.58000 5.170
99.60000 8.075
99.62000 7.438
99.64000 9.320
99.66000 12.164
99.68000 7.286
99.70000 5.508
99.72000 4.988
99.74000 2.186
99.76000 9.519
99.78000 8.905
99.80000 9.350
99.82000 5.879
99.84000 4.130
99.86000 3.916
99.88000 2.880
99.90000 -2.211
99.92000 1.590
99.94000 1.276
99.96000 -2.222
99.98000 0.000
