'Id: "0011387" Comment: "Integrate frame 0011387_Au-Ir-Rh_Rh-rich_XRD-Mapping-062-0000.gfrmwith cursor Wedge Cursor #5" Operator: "B?rgel" Anode: "Cu" Wavelength: "1.5406" Scantype: "2Theta (TwoTheta)" TimePerStep: "1" X: "-13.5" Y: "-22.5" Z: "5.95" 
10.00000 0.000
10.02000 -4.257
10.04000 -4.233
10.06000 3.687
10.08000 21.202
10.10000 34.930
10.12000 25.084
10.14000 18.395
10.16000 19.550
10.18000 11.397
10.20000 8.721
10.22000 6.568
10.24000 16.932
10.26000 13.850
10.28000 16.795
10.30000 37.423
10.32000 29.055
10.34000 18.102
10.36000 22.854
10.38000 -0.548
10.40000 14.913
10.42000 27.681
10.44000 31.815
10.46000 9.952
10.48000 -4.282
10.50000 3.012
10.52000 22.120
10.54000 27.970
10.56000 12.816
10.58000 19.932
10.60000 18.985
10.62000 20.072
10.64000 27.798
10.66000 13.248
10.68000 -4.303
10.70000 -2.593
10.72000 -3.700
10.74000 9.905
10.76000 17.229
10.78000 16.554
10.80000 13.513
10.82000 8.841
10.84000 15.331
10.86000 6.329
10.88000 12.765
10.90000 20.571
10.92000 25.256
10.94000 22.451
10.96000 2.280
10.98000 15.672
11.00000 21.886
11.02000 20.299
11.04000 12.625
11.06000 8.106
11.08000 10.466
11.10000 8.262
11.12000 1.799
11.14000 8.470
11.16000 22.678
11.18000 15.226
11.20000 2.719
11.22000 9.861
11.24000 26.563
11.26000 15.418
11.28000 5.693
11.30000 0.865
11.32000 10.383
11.34000 15.250
11.36000 15.422
11.38000 13.232
11.40000 3.566
11.42000 12.424
11.44000 12.162
11.46000 20.909
11.48000 12.817
11.50000 14.126
11.52000 8.119
11.54000 4.516
11.56000 8.480
11.58000 19.683
11.60000 23.053
11.62000 -4.344
11.64000 4.411
11.66000 14.021
11.68000 18.020
11.70000 13.706
11.72000 14.322
11.74000 17.310
11.76000 8.908
11.78000 2.932
11.80000 12.044
11.82000 14.867
11.84000 0.632
11.86000 -1.129
11.88000 12.050
11.90000 12.401
11.92000 4.395
11.94000 1.744
11.96000 3.992
11.98000 -2.203
12.00000 2.868
12.02000 15.217
12.04000 5.231
12.06000 11.536
12.08000 3.557
12.10000 -1.690
12.12000 1.450
12.14000 5.361
12.16000 15.412
12.18000 10.730
12.20000 2.179
12.22000 6.095
12.24000 1.090
12.26000 1.881
12.28000 12.674
12.30000 6.012
12.32000 10.199
12.34000 8.217
12.36000 14.440
12.38000 18.384
12.40000 9.000
12.42000 12.764
12.44000 25.774
12.46000 22.999
12.48000 3.632
12.50000 -4.248
12.52000 1.337
12.54000 6.503
12.56000 2.954
12.58000 5.300
12.60000 12.920
12.62000 14.902
12.64000 12.893
12.66000 2.292
12.68000 -2.322
12.70000 13.919
12.72000 15.853
12.74000 8.357
12.76000 4.943
12.78000 0.665
12.80000 10.017
12.82000 13.436
12.84000 6.883
12.86000 -4.450
12.88000 5.980
12.90000 21.794
12.92000 12.477
12.94000 -0.833
12.96000 5.718
12.98000 17.202
13.00000 18.220
13.02000 11.439
13.04000 12.479
13.06000 2.785
13.08000 -0.660
13.10000 6.773
13.12000 18.224
13.14000 16.848
13.16000 8.480
13.18000 6.572
13.20000 10.301
13.22000 2.817
13.24000 3.490
13.26000 9.102
13.28000 8.807
13.30000 6.208
13.32000 1.965
13.34000 1.920
13.36000 8.288
13.38000 6.634
13.40000 13.183
13.42000 7.877
13.44000 2.888
13.46000 -0.539
13.48000 2.532
13.50000 3.392
13.52000 3.658
13.54000 11.020
13.56000 9.862
13.58000 11.952
13.60000 5.423
13.62000 1.764
13.64000 -4.116
13.66000 17.718
13.68000 14.717
13.70000 7.144
13.72000 -2.057
13.74000 0.541
13.76000 2.892
13.78000 12.332
13.80000 13.416
13.82000 17.376
13.84000 23.129
13.86000 17.256
13.88000 10.547
13.90000 6.043
13.92000 1.229
13.94000 4.176
13.96000 6.388
13.98000 8.581
14.00000 5.082
14.02000 5.842
14.04000 0.313
14.06000 4.226
14.08000 1.256
14.10000 -4.241
14.12000 8.224
14.14000 6.890
14.16000 4.349
14.18000 12.065
14.20000 13.159
14.22000 8.619
14.24000 9.421
14.26000 14.030
14.28000 10.015
14.30000 11.433
14.32000 16.221
14.34000 14.759
14.36000 8.759
14.38000 4.409
14.40000 -4.455
14.42000 -2.494
14.44000 2.044
14.46000 -0.204
14.48000 1.445
14.50000 5.112
14.52000 9.743
14.54000 7.995
14.56000 0.349
14.58000 1.526
14.60000 8.999
14.62000 4.974
14.64000 7.276
14.66000 6.736
14.68000 11.670
14.70000 8.030
14.72000 6.743
14.74000 0.323
14.76000 2.032
14.78000 6.228
14.80000 13.082
14.82000 23.611
14.84000 13.237
14.86000 6.518
14.88000 -0.043
14.90000 5.147
14.92000 10.090
14.94000 9.986
14.96000 4.390
14.98000 12.198
15.00000 8.576
15.02000 10.668
15.04000 10.490
15.06000 12.585
15.08000 12.467
15.10000 9.603
15.12000 7.695
15.14000 5.630
15.16000 -2.449
15.18000 -1.314
15.20000 3.586
15.22000 7.399
15.24000 12.456
15.26000 14.457
15.28000 8.205
15.30000 10.089
15.32000 12.797
15.34000 16.277
15.36000 15.573
15.38000 10.385
15.40000 8.339
15.42000 11.651
15.44000 11.043
15.46000 8.758
15.48000 8.398
15.50000 7.558
15.52000 12.111
15.54000 14.749
15.56000 16.326
15.58000 13.621
15.60000 16.414
15.62000 14.124
15.64000 15.144
15.66000 10.053
15.68000 4.790
15.70000 8.821
15.72000 6.114
15.74000 6.888
15.76000 8.357
15.78000 9.236
15.80000 11.639
15.82000 13.979
15.84000 11.745
15.86000 10.907
15.88000 11.414
15.90000 8.179
15.92000 15.475
15.94000 15.654
15.96000 7.417
15.98000 6.556
16.00000 5.059
16.02000 -4.332
16.04000 -2.047
16.06000 -3.067
16.08000 8.072
16.10000 10.133
16.12000 9.889
16.14000 14.990
16.16000 18.796
16.18000 6.357
16.20000 10.765
16.22000 15.022
16.24000 11.519
16.26000 10.105
16.28000 10.918
16.30000 11.230
16.32000 12.381
16.34000 6.006
16.36000 14.012
16.38000 19.924
16.40000 3.794
16.42000 0.892
16.44000 7.798
16.46000 6.354
16.48000 14.414
16.50000 10.910
16.52000 3.383
16.54000 9.130
16.56000 8.804
16.58000 9.507
16.60000 9.567
16.62000 10.043
16.64000 6.480
16.66000 5.193
16.68000 3.550
16.70000 3.957
16.72000 12.348
16.74000 8.673
16.76000 6.363
16.78000 11.025
16.80000 9.017
16.82000 11.089
16.84000 9.290
16.86000 2.836
16.88000 8.796
16.90000 10.912
16.92000 12.167
16.94000 12.021
16.96000 9.199
16.98000 7.667
17.00000 7.624
17.02000 7.876
17.04000 2.624
17.06000 8.248
17.08000 14.295
17.10000 13.358
17.12000 2.342
17.14000 1.183
17.16000 9.731
17.18000 8.985
17.20000 7.520
17.22000 -3.989
17.24000 -2.244
17.26000 0.246
17.28000 3.858
17.30000 6.540
17.32000 9.365
17.34000 10.687
17.36000 14.491
17.38000 11.361
17.40000 7.907
17.42000 7.640
17.44000 10.295
17.46000 15.190
17.48000 10.585
17.50000 8.109
17.52000 12.936
17.54000 10.270
17.56000 5.949
17.58000 4.577
17.60000 2.485
17.62000 9.747
17.64000 7.640
17.66000 3.733
17.68000 5.413
17.70000 9.505
17.72000 11.387
17.74000 7.725
17.76000 8.119
17.78000 3.371
17.80000 3.405
17.82000 6.077
17.84000 7.648
17.86000 4.682
17.88000 -4.306
17.90000 5.284
17.92000 7.955
17.94000 9.754
17.96000 4.949
17.98000 2.306
18.00000 10.103
18.02000 -0.926
18.04000 4.489
18.06000 2.156
18.08000 0.722
18.10000 4.993
18.12000 6.998
18.14000 0.143
18.16000 2.818
18.18000 4.270
18.20000 2.041
18.22000 8.722
18.24000 3.434
18.26000 4.333
18.28000 8.382
18.30000 2.536
18.32000 1.260
18.34000 8.146
18.36000 10.601
18.38000 1.447
18.40000 3.905
18.42000 4.065
18.44000 -2.291
18.46000 1.098
18.48000 6.437
18.50000 5.310
18.52000 3.690
18.54000 6.102
18.56000 7.660
18.58000 5.358
18.60000 -2.670
18.62000 0.336
18.64000 7.268
18.66000 12.449
18.68000 10.800
18.70000 1.613
18.72000 -4.258
18.74000 2.383
18.76000 6.143
18.78000 9.382
18.80000 2.369
18.82000 -1.840
18.84000 2.028
18.86000 8.088
18.88000 6.167
18.90000 6.155
18.92000 8.087
18.94000 7.876
18.96000 3.041
18.98000 6.888
19.00000 8.638
19.02000 2.701
19.04000 0.758
19.06000 4.151
19.08000 4.721
19.10000 5.762
19.12000 7.051
19.14000 2.343
19.16000 6.131
19.18000 10.138
19.20000 12.678
19.22000 13.020
19.24000 4.687
19.26000 8.956
19.28000 6.055
19.30000 9.668
19.32000 4.350
19.34000 3.941
19.36000 3.682
19.38000 9.679
19.40000 8.703
19.42000 3.781
19.44000 1.152
19.46000 4.385
19.48000 4.536
19.50000 12.830
19.52000 9.360
19.54000 8.619
19.56000 10.770
19.58000 11.439
19.60000 10.904
19.62000 11.183
19.64000 5.079
19.66000 4.617
19.68000 4.870
19.70000 2.907
19.72000 10.929
19.74000 12.733
19.76000 -0.329
19.78000 5.761
19.80000 11.199
19.82000 4.370
19.84000 3.999
19.86000 -4.173
19.88000 2.731
19.90000 4.272
19.92000 0.855
19.94000 -0.804
19.96000 2.651
19.98000 5.241
20.00000 2.124
20.02000 7.924
20.04000 4.694
20.06000 4.816
20.08000 7.641
20.10000 8.886
20.12000 -1.753
20.14000 -4.157
20.16000 8.553
20.18000 6.560
20.20000 4.346
20.22000 9.416
20.24000 3.059
20.26000 -3.050
20.28000 0.728
20.30000 7.399
20.32000 13.413
20.34000 14.704
20.36000 12.806
20.38000 9.073
20.40000 6.043
20.42000 1.485
20.44000 9.780
20.46000 8.700
20.48000 6.884
20.50000 12.077
20.52000 7.033
20.54000 6.729
20.56000 5.677
20.58000 9.114
20.60000 12.580
20.62000 8.259
20.64000 4.312
20.66000 0.946
20.68000 9.173
20.70000 4.399
20.72000 6.560
20.74000 10.581
20.76000 7.834
20.78000 10.217
20.80000 7.524
20.82000 9.172
20.84000 15.476
20.86000 4.057
20.88000 0.075
20.90000 1.855
20.92000 4.036
20.94000 3.451
20.96000 2.705
20.98000 3.754
21.00000 7.694
21.02000 -0.044
21.04000 7.750
21.06000 11.557
21.08000 5.978
21.10000 -4.121
21.12000 -1.372
21.14000 -0.480
21.16000 -1.297
21.18000 2.690
21.20000 4.116
21.22000 0.499
21.24000 2.828
21.26000 4.350
21.28000 -0.546
21.30000 -1.848
21.32000 -0.596
21.34000 0.063
21.36000 1.796
21.38000 5.880
21.40000 6.815
21.42000 3.707
21.44000 -0.669
21.46000 9.334
21.48000 3.894
21.50000 0.613
21.52000 0.466
21.54000 7.304
21.56000 10.708
21.58000 4.431
21.60000 2.392
21.62000 7.396
21.64000 8.042
21.66000 7.676
21.68000 8.493
21.70000 1.670
21.72000 6.079
21.74000 1.663
21.76000 11.119
21.78000 5.688
21.80000 -0.135
21.82000 0.018
21.84000 2.996
21.86000 -0.090
21.88000 2.443
21.90000 4.216
21.92000 4.067
21.94000 8.420
21.96000 5.260
21.98000 8.417
22.00000 9.279
22.02000 6.960
22.04000 8.332
22.06000 7.254
22.08000 5.191
22.10000 4.940
22.12000 0.854
22.14000 5.796
22.16000 6.858
22.18000 7.309
22.20000 4.368
22.22000 4.139
22.24000 3.125
22.26000 3.836
22.28000 5.260
22.30000 1.352
22.32000 0.510
22.34000 4.370
22.36000 9.579
22.38000 13.231
22.40000 10.637
22.42000 -2.064
22.44000 -1.831
22.46000 8.645
22.48000 8.544
22.50000 9.122
22.52000 12.054
22.54000 11.562
22.56000 4.580
22.58000 3.239
22.60000 3.919
22.62000 1.303
22.64000 3.161
22.66000 7.881
22.68000 13.967
22.70000 12.031
22.72000 9.111
22.74000 3.735
22.76000 4.211
22.78000 8.282
22.80000 7.551
22.82000 7.212
22.84000 7.449
22.86000 5.841
22.88000 5.388
22.90000 6.405
22.92000 8.914
22.94000 8.521
22.96000 4.757
22.98000 -3.962
23.00000 -2.077
23.02000 7.550
23.04000 7.654
23.06000 6.068
23.08000 9.180
23.10000 7.869
23.12000 8.519
23.14000 14.294
23.16000 12.651
23.18000 6.385
23.20000 9.209
23.22000 14.746
23.24000 12.728
23.26000 9.481
23.28000 5.464
23.30000 4.849
23.32000 8.656
23.34000 9.396
23.36000 3.908
23.38000 4.457
23.40000 9.549
23.42000 9.115
23.44000 10.085
23.46000 5.906
23.48000 6.659
23.50000 11.583
23.52000 8.840
23.54000 4.404
23.56000 2.657
23.58000 11.376
23.60000 9.002
23.62000 5.568
23.64000 5.315
23.66000 -0.437
23.68000 4.173
23.70000 6.321
23.72000 2.290
23.74000 5.347
23.76000 6.153
23.78000 5.629
23.80000 5.647
23.82000 4.929
23.84000 1.619
23.86000 2.017
23.88000 2.482
23.90000 1.024
23.92000 0.667
23.94000 -2.383
23.96000 -1.169
23.98000 -1.195
24.00000 -0.972
24.02000 1.232
24.04000 0.280
24.06000 5.817
24.08000 4.966
24.10000 7.062
24.12000 0.628
24.14000 -1.547
24.16000 2.596
24.18000 7.180
24.20000 4.096
24.22000 9.309
24.24000 5.149
24.26000 -2.566
24.28000 -1.792
24.30000 1.124
24.32000 -0.525
24.34000 -2.499
24.36000 -2.320
24.38000 -0.589
24.40000 7.813
24.42000 4.402
24.44000 -0.424
24.46000 -0.185
24.48000 -0.619
24.50000 5.904
24.52000 7.577
24.54000 4.665
24.56000 8.488
24.58000 14.114
24.60000 11.527
24.62000 8.624
24.64000 2.959
24.66000 3.475
24.68000 7.252
24.70000 4.614
24.72000 0.106
24.74000 -1.468
24.76000 -3.925
24.78000 -1.003
24.80000 4.758
24.82000 4.836
24.84000 3.236
24.86000 4.928
24.88000 1.331
24.90000 2.917
24.92000 1.298
24.94000 2.561
24.96000 0.518
24.98000 -0.412
25.00000 2.448
25.02000 -0.307
25.04000 -1.550
25.06000 -1.689
25.08000 0.209
25.10000 8.391
25.12000 6.545
25.14000 -2.446
25.16000 0.520
25.18000 3.242
25.20000 -1.186
25.22000 0.344
25.24000 -3.909
25.26000 -2.318
25.28000 6.558
25.30000 6.880
25.32000 3.237
25.34000 2.411
25.36000 6.821
25.38000 8.503
25.40000 0.548
25.42000 -3.614
25.44000 -0.713
25.46000 3.628
25.48000 0.078
25.50000 1.723
25.52000 0.826
25.54000 5.476
25.56000 4.000
25.58000 -3.680
25.60000 -2.535
25.62000 4.371
25.64000 4.522
25.66000 6.399
25.68000 5.567
25.70000 3.589
25.72000 -3.690
25.74000 -3.577
25.76000 0.342
25.78000 2.505
25.80000 -0.404
25.82000 0.926
25.84000 2.576
25.86000 3.656
25.88000 -1.891
25.90000 -1.236
25.92000 4.466
25.94000 8.737
25.96000 3.989
25.98000 2.499
26.00000 7.295
26.02000 2.877
26.04000 4.975
26.06000 5.135
26.08000 0.727
26.10000 1.351
26.12000 0.993
26.14000 -1.659
26.16000 -3.843
26.18000 4.533
26.20000 0.592
26.22000 0.332
26.24000 4.229
26.26000 6.179
26.28000 2.678
26.30000 0.359
26.32000 -0.337
26.34000 7.663
26.36000 3.699
26.38000 0.532
26.40000 -3.552
26.42000 5.529
26.44000 9.331
26.46000 4.495
26.48000 4.029
26.50000 3.974
26.52000 1.494
26.54000 -0.192
26.56000 1.169
26.58000 4.595
26.60000 3.241
26.62000 1.852
26.64000 -0.181
26.66000 4.406
26.68000 2.453
26.70000 0.353
26.72000 4.420
26.74000 6.935
26.76000 7.616
26.78000 10.914
26.80000 10.753
26.82000 4.146
26.84000 -1.182
26.86000 0.728
26.88000 2.141
26.90000 0.943
26.92000 3.802
26.94000 0.073
26.96000 5.456
26.98000 3.263
27.00000 3.441
27.02000 1.732
27.04000 3.060
27.06000 3.770
27.08000 2.409
27.10000 2.872
27.12000 -0.758
27.14000 -3.797
27.16000 1.582
27.18000 6.084
27.20000 0.667
27.22000 0.433
27.24000 5.482
27.26000 5.235
27.28000 1.585
27.30000 4.239
27.32000 5.634
27.34000 1.901
27.36000 0.772
27.38000 1.034
27.40000 6.904
27.42000 6.249
27.44000 3.323
27.46000 0.835
27.48000 -0.744
27.50000 6.644
27.52000 3.959
27.54000 2.716
27.56000 3.455
27.58000 1.974
27.60000 1.567
27.62000 -1.374
27.64000 -3.754
27.66000 2.773
27.68000 3.191
27.70000 2.733
27.72000 2.705
27.74000 1.424
27.76000 5.859
27.78000 6.517
27.80000 6.925
27.82000 6.775
27.84000 0.901
27.86000 5.863
27.88000 9.721
27.90000 8.281
27.92000 5.896
27.94000 7.027
27.96000 5.491
27.98000 2.757
28.00000 -1.693
28.02000 -0.461
28.04000 2.646
28.06000 -2.622
28.08000 1.055
28.10000 -1.673
28.12000 0.960
28.14000 0.044
28.16000 5.123
28.18000 -0.182
28.20000 -1.478
28.22000 -1.480
28.24000 0.952
28.26000 2.123
28.28000 1.487
28.30000 -0.064
28.32000 1.612
28.34000 2.104
28.36000 2.327
28.38000 6.248
28.40000 1.668
28.42000 2.310
28.44000 4.486
28.46000 4.940
28.48000 2.841
28.50000 1.849
28.52000 0.720
28.54000 0.685
28.56000 0.973
28.58000 0.843
28.60000 0.273
28.62000 -1.373
28.64000 5.695
28.66000 6.740
28.68000 4.135
28.70000 4.792
28.72000 2.245
28.74000 -3.003
28.76000 -3.244
28.78000 4.445
28.80000 4.191
28.82000 2.148
28.84000 -0.539
28.86000 -2.809
28.88000 -1.079
28.90000 -3.707
28.92000 -0.430
28.94000 4.369
28.96000 0.811
28.98000 1.479
29.00000 -0.109
29.02000 3.658
29.04000 5.414
29.06000 6.355
29.08000 8.451
29.10000 9.475
29.12000 7.183
29.14000 1.869
29.16000 0.299
29.18000 -1.547
29.20000 -2.099
29.22000 -2.832
29.24000 3.187
29.26000 4.923
29.28000 3.577
29.30000 -0.911
29.32000 0.629
29.34000 -0.179
29.36000 -1.862
29.38000 -2.362
29.40000 0.937
29.42000 3.297
29.44000 6.837
29.46000 3.508
29.48000 0.710
29.50000 0.021
29.52000 1.270
29.54000 6.233
29.56000 2.761
29.58000 5.597
29.60000 5.019
29.62000 -0.662
29.64000 0.011
29.66000 3.946
29.68000 5.147
29.70000 1.464
29.72000 -1.997
29.74000 -0.858
29.76000 2.028
29.78000 2.917
29.80000 4.099
29.82000 -1.715
29.84000 -0.214
29.86000 1.458
29.88000 0.862
29.90000 2.201
29.92000 7.248
29.94000 2.141
29.96000 2.742
29.98000 1.316
30.00000 1.881
30.02000 0.580
30.04000 1.446
30.06000 0.870
30.08000 0.855
30.10000 9.935
30.12000 8.274
30.14000 7.119
30.16000 4.443
30.18000 -3.631
30.20000 -3.396
30.22000 1.470
30.24000 6.091
30.26000 3.688
30.28000 0.510
30.30000 3.434
30.32000 2.035
30.34000 2.960
30.36000 3.627
30.38000 2.400
30.40000 1.628
30.42000 -3.173
30.44000 0.646
30.46000 3.295
30.48000 5.441
30.50000 2.020
30.52000 -1.459
30.54000 3.921
30.56000 6.556
30.58000 5.213
30.60000 5.037
30.62000 5.549
30.64000 4.233
30.66000 0.571
30.68000 -1.612
30.70000 2.882
30.72000 5.733
30.74000 4.520
30.76000 4.825
30.78000 10.142
30.80000 3.886
30.82000 2.634
30.84000 -0.011
30.86000 0.457
30.88000 1.410
30.90000 4.552
30.92000 3.695
30.94000 -0.119
30.96000 -0.538
30.98000 -0.794
31.00000 0.592
31.02000 1.990
31.04000 4.783
31.06000 6.191
31.08000 3.678
31.10000 2.856
31.12000 3.138
31.14000 -0.357
31.16000 -1.973
31.18000 -1.793
31.20000 5.045
31.22000 5.284
31.24000 1.241
31.26000 -1.582
31.28000 -0.900
31.30000 0.096
31.32000 3.564
31.34000 2.055
31.36000 1.211
31.38000 0.438
31.40000 -3.593
31.42000 -2.037
31.44000 0.580
31.46000 -0.147
31.48000 -0.198
31.50000 4.972
31.52000 4.193
31.54000 5.868
31.56000 0.566
31.58000 -1.632
31.60000 0.400
31.62000 0.471
31.64000 -3.579
31.66000 -1.954
31.68000 3.970
31.70000 1.445
31.72000 -0.023
31.74000 1.706
31.76000 5.670
31.78000 3.534
31.80000 -1.587
31.82000 -1.309
31.84000 1.236
31.86000 3.147
31.88000 1.317
31.90000 0.290
31.92000 2.576
31.94000 6.458
31.96000 6.898
31.98000 3.000
32.00000 1.740
32.02000 -1.076
32.04000 0.982
32.06000 3.996
32.08000 3.528
32.10000 0.460
32.12000 1.216
32.14000 3.311
32.16000 1.554
32.18000 4.791
32.20000 4.398
32.22000 7.346
32.24000 8.191
32.26000 2.733
32.28000 1.870
32.30000 1.008
32.32000 3.424
32.34000 -0.729
32.36000 3.234
32.38000 4.898
32.40000 4.263
32.42000 0.195
32.44000 2.142
32.46000 2.900
32.48000 7.373
32.50000 4.209
32.52000 6.212
32.54000 4.704
32.56000 1.884
32.58000 6.246
32.60000 0.850
32.62000 -3.494
32.64000 1.296
32.66000 -0.943
32.68000 2.531
32.70000 4.273
32.72000 7.556
32.74000 7.757
32.76000 0.899
32.78000 1.959
32.80000 7.008
32.82000 10.213
32.84000 5.959
32.86000 3.858
32.88000 3.274
32.90000 4.774
32.92000 8.206
32.94000 0.267
32.96000 0.034
32.98000 5.992
33.00000 3.770
33.02000 2.955
33.04000 2.138
33.06000 6.497
33.08000 3.713
33.10000 2.520
33.12000 0.669
33.14000 -0.229
33.16000 -1.653
33.18000 6.007
33.20000 7.654
33.22000 5.728
33.24000 4.474
33.26000 -0.696
33.28000 2.245
33.30000 4.378
33.32000 6.193
33.34000 5.527
33.36000 1.775
33.38000 0.362
33.40000 0.560
33.42000 1.244
33.44000 1.064
33.46000 2.503
33.48000 5.632
33.50000 7.993
33.52000 9.709
33.54000 5.478
33.56000 5.902
33.58000 1.085
33.60000 5.436
33.62000 7.690
33.64000 7.433
33.66000 9.091
33.68000 4.134
33.70000 2.917
33.72000 4.383
33.74000 5.230
33.76000 3.662
33.78000 1.959
33.80000 2.678
33.82000 2.840
33.84000 -3.495
33.86000 -2.916
33.88000 4.860
33.90000 7.166
33.92000 8.789
33.94000 2.986
33.96000 1.186
33.98000 5.183
34.00000 1.260
34.02000 0.841
34.04000 0.688
34.06000 2.271
34.08000 -1.788
34.10000 -1.082
34.12000 1.645
34.14000 5.578
34.16000 7.173
34.18000 2.065
34.20000 2.026
34.22000 2.427
34.24000 0.632
34.26000 2.491
34.28000 -2.134
34.30000 -1.345
34.32000 -3.492
34.34000 -3.443
34.36000 -1.238
34.38000 3.504
34.40000 5.300
34.42000 1.198
34.44000 2.680
34.46000 1.832
34.48000 1.679
34.50000 -1.901
34.52000 -0.701
34.54000 -2.322
34.56000 0.362
34.58000 -0.762
34.60000 -0.280
34.62000 -0.149
34.64000 0.491
34.66000 -0.452
34.68000 -3.110
34.70000 -0.203
34.72000 4.377
34.74000 1.155
34.76000 0.568
34.78000 -0.972
34.80000 -3.479
34.82000 1.539
34.84000 3.450
34.86000 0.180
34.88000 1.602
34.90000 5.548
34.92000 4.503
34.94000 -0.834
34.96000 0.325
34.98000 -2.298
35.00000 1.828
35.02000 4.101
35.04000 -0.473
35.06000 0.669
35.08000 4.587
35.10000 7.674
35.12000 1.768
35.14000 -0.344
35.16000 1.595
35.18000 4.752
35.20000 1.362
35.22000 0.976
35.24000 -1.055
35.26000 -0.043
35.28000 3.423
35.30000 1.908
35.32000 1.188
35.34000 0.797
35.36000 1.042
35.38000 4.053
35.40000 3.444
35.42000 -0.225
35.44000 -2.962
35.46000 -2.976
35.48000 -2.727
35.50000 2.557
35.52000 1.755
35.54000 -3.484
35.56000 -2.139
35.58000 1.677
35.60000 2.190
35.62000 -0.289
35.64000 3.995
35.66000 3.759
35.68000 1.515
35.70000 -2.162
35.72000 1.151
35.74000 -1.561
35.76000 -1.152
35.78000 2.268
35.80000 -0.447
35.82000 -3.161
35.84000 -3.135
35.86000 -0.134
35.88000 6.060
35.90000 5.855
35.92000 -2.272
35.94000 -0.567
35.96000 -2.281
35.98000 1.133
36.00000 -0.779
36.02000 -3.471
36.04000 -0.756
36.06000 0.170
36.08000 2.822
36.10000 2.748
36.12000 2.615
36.14000 7.838
36.16000 2.771
36.18000 1.131
36.20000 -0.726
36.22000 3.807
36.24000 6.610
36.26000 3.526
36.28000 1.475
36.30000 1.250
36.32000 1.378
36.34000 3.338
36.36000 3.115
36.38000 3.111
36.40000 0.115
36.42000 -2.488
36.44000 0.785
36.46000 2.233
36.48000 0.965
36.50000 3.065
36.52000 3.857
36.54000 -2.224
36.56000 -0.423
36.58000 -2.569
36.60000 1.692
36.62000 -1.526
36.64000 -3.480
36.66000 3.669
36.68000 3.310
36.70000 5.150
36.72000 3.565
36.74000 2.948
36.76000 1.889
36.78000 3.109
36.80000 0.377
36.82000 -1.087
36.84000 0.852
36.86000 1.490
36.88000 -0.526
36.90000 0.864
36.92000 -2.463
36.94000 1.129
36.96000 4.463
36.98000 -2.141
37.00000 -2.900
37.02000 1.801
37.04000 3.104
37.06000 7.197
37.08000 6.179
37.10000 0.015
37.12000 -1.517
37.14000 -0.434
37.16000 -1.008
37.18000 0.262
37.20000 0.827
37.22000 2.840
37.24000 4.411
37.26000 3.535
37.28000 -3.186
37.30000 -1.348
37.32000 -0.656
37.34000 -1.375
37.36000 -2.600
37.38000 -3.519
37.40000 1.240
37.42000 -0.978
37.44000 5.762
37.46000 3.202
37.48000 -0.430
37.50000 0.668
37.52000 4.129
37.54000 1.495
37.56000 -1.475
37.58000 -3.525
37.60000 1.412
37.62000 1.506
37.64000 -1.028
37.66000 -0.618
37.68000 -0.549
37.70000 -2.465
37.72000 3.318
37.74000 1.240
37.76000 1.961
37.78000 1.976
37.80000 6.210
37.82000 2.791
37.84000 -1.966
37.86000 0.126
37.88000 2.893
37.90000 2.726
37.92000 1.447
37.94000 5.147
37.96000 2.406
37.98000 1.618
38.00000 2.294
38.02000 7.347
38.04000 6.862
38.06000 3.448
38.08000 11.252
38.10000 12.644
38.12000 9.784
38.14000 9.681
38.16000 9.236
38.18000 11.361
38.20000 12.777
38.22000 7.870
38.24000 10.151
38.26000 12.471
38.28000 12.753
38.30000 15.707
38.32000 18.159
38.34000 17.350
38.36000 16.397
38.38000 11.699
38.40000 10.834
38.42000 11.136
38.44000 14.319
38.46000 13.793
38.48000 17.546
38.50000 17.887
38.52000 17.071
38.54000 17.195
38.56000 19.881
38.58000 15.469
38.60000 18.244
38.62000 17.456
38.64000 18.430
38.66000 15.195
38.68000 12.318
38.70000 16.507
38.72000 24.968
38.74000 20.884
38.76000 22.981
38.78000 25.600
38.80000 25.860
38.82000 24.039
38.84000 29.160
38.86000 31.084
38.88000 25.139
38.90000 25.174
38.92000 29.840
38.94000 32.656
38.96000 29.559
38.98000 28.065
39.00000 28.964
39.02000 28.055
39.04000 33.348
39.06000 33.402
39.08000 33.613
39.10000 35.536
39.12000 38.417
39.14000 38.853
39.16000 43.422
39.18000 45.495
39.20000 41.498
39.22000 44.225
39.24000 49.119
39.26000 49.165
39.28000 52.510
39.30000 51.030
39.32000 48.097
39.34000 54.210
39.36000 60.875
39.38000 58.954
39.40000 61.063
39.42000 69.130
39.44000 68.492
39.46000 70.674
39.48000 78.012
39.50000 88.962
39.52000 89.217
39.54000 92.858
39.56000 93.783
39.58000 96.083
39.60000 103.356
39.62000 107.657
39.64000 120.925
39.66000 129.333
39.68000 128.171
39.70000 137.933
39.72000 151.099
39.74000 159.879
39.76000 169.656
39.78000 181.172
39.80000 192.126
39.82000 200.801
39.84000 218.161
39.86000 231.927
39.88000 244.749
39.90000 268.798
39.92000 286.169
39.94000 307.765
39.96000 328.458
39.98000 355.577
40.00000 376.952
40.02000 407.937
40.04000 441.282
40.06000 475.496
40.08000 498.072
40.10000 537.145
40.12000 585.426
40.14000 612.593
40.16000 647.886
40.18000 693.812
40.20000 744.649
40.22000 777.708
40.24000 830.792
40.26000 869.252
40.28000 901.236
40.30000 932.347
40.32000 972.711
40.34000 1007.202
40.36000 1030.310
40.38000 1070.036
40.40000 1092.042
40.42000 1102.166
40.44000 1128.083
40.46000 1149.363
40.48000 1145.330
40.50000 1137.013
40.52000 1125.351
40.54000 1117.412
40.56000 1118.818
40.58000 1096.973
40.60000 1085.089
40.62000 1062.262
40.64000 1028.940
40.66000 1006.041
40.68000 958.191
40.70000 918.089
40.72000 900.007
40.74000 871.001
40.76000 839.294
40.78000 815.460
40.80000 789.214
40.82000 742.198
40.84000 704.964
40.86000 680.075
40.88000 651.319
40.90000 616.998
40.92000 581.579
40.94000 548.063
40.96000 524.850
40.98000 492.589
41.00000 465.439
41.02000 433.329
41.04000 412.620
41.06000 392.208
41.08000 374.479
41.10000 354.910
41.12000 332.774
41.14000 306.808
41.16000 293.189
41.18000 278.420
41.20000 256.380
41.22000 247.332
41.24000 238.646
41.26000 228.557
41.28000 209.613
41.30000 191.864
41.32000 185.974
41.34000 176.797
41.36000 165.502
41.38000 158.704
41.40000 150.659
41.42000 145.180
41.44000 137.599
41.46000 132.347
41.48000 123.848
41.50000 119.389
41.52000 114.179
41.54000 104.977
41.56000 97.238
41.58000 96.328
41.60000 95.776
41.62000 90.111
41.64000 87.809
41.66000 80.207
41.68000 75.741
41.70000 73.849
41.72000 74.320
41.74000 72.359
41.76000 70.248
41.78000 68.190
41.80000 62.236
41.82000 60.794
41.84000 56.538
41.86000 52.519
41.88000 49.857
41.90000 50.335
41.92000 45.241
41.94000 42.065
41.96000 44.731
41.98000 41.849
42.00000 38.822
42.02000 35.993
42.04000 37.237
42.06000 40.068
42.08000 32.671
42.10000 32.791
42.12000 31.897
42.14000 28.056
42.16000 27.609
42.18000 28.578
42.20000 20.670
42.22000 25.032
42.24000 28.657
42.26000 19.684
42.28000 21.947
42.30000 19.940
42.32000 18.342
42.34000 21.262
42.36000 22.365
42.38000 21.961
42.40000 19.597
42.42000 20.635
42.44000 19.845
42.46000 11.368
42.48000 11.195
42.50000 13.585
42.52000 11.728
42.54000 9.254
42.56000 11.146
42.58000 11.218
42.60000 11.473
42.62000 10.074
42.64000 10.327
42.66000 11.267
42.68000 7.743
42.70000 6.553
42.72000 7.296
42.74000 3.655
42.76000 2.757
42.78000 6.069
42.80000 6.589
42.82000 6.166
42.84000 2.895
42.86000 3.485
42.88000 6.187
42.90000 5.682
42.92000 1.650
42.94000 0.021
42.96000 -3.491
42.98000 0.630
43.00000 1.035
43.02000 4.088
43.04000 2.279
43.06000 5.652
43.08000 2.976
43.10000 1.211
43.12000 1.916
43.14000 1.651
43.16000 1.952
43.18000 -0.455
43.20000 0.270
43.22000 -2.710
43.24000 -2.334
43.26000 1.390
43.28000 0.816
43.30000 -2.086
43.32000 -3.424
43.34000 0.754
43.36000 2.514
43.38000 2.351
43.40000 3.168
43.42000 3.000
43.44000 5.088
43.46000 8.346
43.48000 5.470
43.50000 1.040
43.52000 -1.681
43.54000 -1.464
43.56000 0.313
43.58000 -0.798
43.60000 -3.375
43.62000 -1.942
43.64000 -1.319
43.66000 -0.279
43.68000 1.121
43.70000 -0.864
43.72000 -0.307
43.74000 -1.432
43.76000 -1.159
43.78000 -1.225
43.80000 -2.769
43.82000 -2.806
43.84000 -0.336
43.86000 -0.921
43.88000 2.087
43.90000 -0.963
43.92000 -2.587
43.94000 2.335
43.96000 1.075
43.98000 -3.020
44.00000 0.134
44.02000 1.491
44.04000 4.573
44.06000 3.998
44.08000 0.776
44.10000 -2.225
44.12000 -2.621
44.14000 3.436
44.16000 3.493
44.18000 -0.566
44.20000 -2.529
44.22000 -2.433
44.24000 -0.189
44.26000 4.075
44.28000 3.416
44.30000 2.297
44.32000 2.006
44.34000 5.911
44.36000 5.646
44.38000 3.363
44.40000 -3.233
44.42000 -2.706
44.44000 2.149
44.46000 6.591
44.48000 1.233
44.50000 -1.342
44.52000 0.975
44.54000 3.349
44.56000 -0.975
44.58000 -0.014
44.60000 0.031
44.62000 -1.872
44.64000 1.300
44.66000 3.932
44.68000 4.723
44.70000 2.854
44.72000 3.607
44.74000 2.731
44.76000 5.174
44.78000 4.429
44.80000 5.141
44.82000 4.875
44.84000 5.296
44.86000 4.126
44.88000 5.475
44.90000 3.276
44.92000 1.339
44.94000 0.412
44.96000 -3.220
44.98000 1.450
45.00000 7.377
45.02000 3.951
45.04000 -1.832
45.06000 -2.259
45.08000 1.840
45.10000 3.918
45.12000 4.291
45.14000 1.196
45.16000 -1.952
45.18000 -1.031
45.20000 0.483
45.22000 2.005
45.24000 0.522
45.26000 5.695
45.28000 7.969
45.30000 8.539
45.32000 6.138
45.34000 5.856
45.36000 1.109
45.38000 2.094
45.40000 3.219
45.42000 1.496
45.44000 1.336
45.46000 5.539
45.48000 7.628
45.50000 6.839
45.52000 5.058
45.54000 5.706
45.56000 7.029
45.58000 6.215
45.60000 5.118
45.62000 5.835
45.64000 8.252
45.66000 9.467
45.68000 12.442
45.70000 9.417
45.72000 9.531
45.74000 10.425
45.76000 10.589
45.78000 7.223
45.80000 8.469
45.82000 5.903
45.84000 7.699
45.86000 8.404
45.88000 7.990
45.90000 7.512
45.92000 10.634
45.94000 10.071
45.96000 12.436
45.98000 11.993
46.00000 15.271
46.02000 16.941
46.04000 16.737
46.06000 19.465
46.08000 17.494
46.10000 18.843
46.12000 19.753
46.14000 18.870
46.16000 19.278
46.18000 23.809
46.20000 26.320
46.22000 25.375
46.24000 26.524
46.26000 29.218
46.28000 29.468
46.30000 32.362
46.32000 38.233
46.34000 39.641
46.36000 41.377
46.38000 42.176
46.40000 44.166
46.42000 40.875
46.44000 43.668
46.46000 48.116
46.48000 59.126
46.50000 61.119
46.52000 57.145
46.54000 59.046
46.56000 61.900
46.58000 61.956
46.60000 66.085
46.62000 70.846
46.64000 71.791
46.66000 81.856
46.68000 84.608
46.70000 86.793
46.72000 89.302
46.74000 87.506
46.76000 92.327
46.78000 101.028
46.80000 110.257
46.82000 110.969
46.84000 111.552
46.86000 114.058
46.88000 121.030
46.90000 128.815
46.92000 134.213
46.94000 132.460
46.96000 141.233
46.98000 141.602
47.00000 143.948
47.02000 151.505
47.04000 151.768
47.06000 151.900
47.08000 154.187
47.10000 162.068
47.12000 157.757
47.14000 147.979
47.16000 150.346
47.18000 152.249
47.20000 149.311
47.22000 151.804
47.24000 152.549
47.26000 143.144
47.28000 138.985
47.30000 131.100
47.32000 131.001
47.34000 127.348
47.36000 123.748
47.38000 121.610
47.40000 121.344
47.42000 117.304
47.44000 110.092
47.46000 105.283
47.48000 103.106
47.50000 100.023
47.52000 96.624
47.54000 91.895
47.56000 85.376
47.58000 76.323
47.60000 73.219
47.62000 73.499
47.64000 71.628
47.66000 65.176
47.68000 62.013
47.70000 62.521
47.72000 64.750
47.74000 58.572
47.76000 50.552
47.78000 44.823
47.80000 46.191
47.82000 42.853
47.84000 41.244
47.86000 38.950
47.88000 37.678
47.90000 38.604
47.92000 30.930
47.94000 28.346
47.96000 27.106
47.98000 25.574
48.00000 29.568
48.02000 27.518
48.04000 21.772
48.06000 19.126
48.08000 20.912
48.10000 22.636
48.12000 19.818
48.14000 13.433
48.16000 14.735
48.18000 14.975
48.20000 10.037
48.22000 13.563
48.24000 18.119
48.26000 13.534
48.28000 11.172
48.30000 7.498
48.32000 8.594
48.34000 10.929
48.36000 9.080
48.38000 9.679
48.40000 6.802
48.42000 6.072
48.44000 3.134
48.46000 0.994
48.48000 4.205
48.50000 6.206
48.52000 5.850
48.54000 5.355
48.56000 1.933
48.58000 5.112
48.60000 8.508
48.62000 5.106
48.64000 2.776
48.66000 4.181
48.68000 6.346
48.70000 6.699
48.72000 6.063
48.74000 6.257
48.76000 6.437
48.78000 8.178
48.80000 0.500
48.82000 -2.774
48.84000 -2.609
48.86000 -1.588
48.88000 4.417
48.90000 1.685
48.92000 6.766
48.94000 4.080
48.96000 0.793
48.98000 1.784
49.00000 5.191
49.02000 5.563
49.04000 8.032
49.06000 4.859
49.08000 3.642
49.10000 1.750
49.12000 -1.685
49.14000 -2.700
49.16000 -0.383
49.18000 -2.289
49.20000 0.836
49.22000 3.484
49.24000 1.416
49.26000 -1.665
49.28000 0.377
49.30000 2.614
49.32000 2.355
49.34000 3.963
49.36000 5.692
49.38000 1.577
49.40000 0.442
49.42000 1.797
49.44000 -1.004
49.46000 -2.255
49.48000 2.070
49.50000 3.506
49.52000 -1.352
49.54000 -2.649
49.56000 -0.528
49.58000 1.845
49.60000 0.464
49.62000 -0.356
49.64000 1.215
49.66000 -0.960
49.68000 1.754
49.70000 -0.757
49.72000 1.725
49.74000 1.608
49.76000 1.368
49.78000 -0.955
49.80000 0.947
49.82000 1.757
49.84000 -0.026
49.86000 -2.606
49.88000 0.549
49.90000 2.850
49.92000 -0.087
49.94000 2.643
49.96000 2.687
49.98000 0.740
50.00000 -0.867
50.02000 -2.589
50.04000 -0.965
50.06000 -2.043
50.08000 0.361
50.10000 3.034
50.12000 1.707
50.14000 4.455
50.16000 3.960
50.18000 -0.346
50.20000 -0.272
50.22000 2.342
50.24000 3.409
50.26000 2.579
50.28000 2.360
50.30000 0.182
50.32000 -0.588
50.34000 -0.580
50.36000 2.452
50.38000 1.476
50.40000 5.717
50.42000 2.907
50.44000 5.303
50.46000 4.844
50.48000 2.482
50.50000 3.833
50.52000 2.917
50.54000 4.551
50.56000 -0.381
50.58000 -1.567
50.60000 -2.536
50.62000 3.203
50.64000 5.521
50.66000 1.410
50.68000 3.311
50.70000 -0.073
50.72000 0.317
50.74000 0.897
50.76000 4.489
50.78000 2.975
50.80000 0.990
50.82000 0.159
50.84000 -0.601
50.86000 5.659
50.88000 4.049
50.90000 -0.655
50.92000 2.707
50.94000 2.329
50.96000 -0.119
50.98000 -0.579
51.00000 4.128
51.02000 2.486
51.04000 0.699
51.06000 2.498
51.08000 2.843
51.10000 0.961
51.12000 5.389
51.14000 3.984
51.16000 2.391
51.18000 2.194
51.20000 3.655
51.22000 4.970
51.24000 3.610
51.26000 1.351
51.28000 0.349
51.30000 2.917
51.32000 1.496
51.34000 0.005
51.36000 -2.507
51.38000 1.203
51.40000 -0.773
51.42000 -0.175
51.44000 -0.242
51.46000 0.989
51.48000 2.543
51.50000 7.657
51.52000 5.004
51.54000 2.086
51.56000 2.732
51.58000 5.358
51.60000 6.662
51.62000 2.400
51.64000 1.496
51.66000 -0.480
51.68000 -0.813
51.70000 -0.714
51.72000 -0.867
51.74000 -2.488
51.76000 3.402
51.78000 1.192
51.80000 -2.040
51.82000 1.665
51.84000 3.046
51.86000 2.931
51.88000 4.497
51.90000 0.880
51.92000 1.695
51.94000 2.088
51.96000 -1.143
51.98000 7.188
52.00000 5.985
52.02000 1.725
52.04000 0.591
52.06000 1.675
52.08000 2.076
52.10000 1.067
52.12000 -0.009
52.14000 1.668
52.16000 0.812
52.18000 1.372
52.20000 3.203
52.22000 3.342
52.24000 2.777
52.26000 3.949
52.28000 6.644
52.30000 1.866
52.32000 -2.468
52.34000 0.907
52.36000 2.083
52.38000 4.319
52.40000 1.448
52.42000 -1.360
52.44000 -1.812
52.46000 1.990
52.48000 1.008
52.50000 -1.609
52.52000 3.804
52.54000 2.785
52.56000 0.084
52.58000 3.418
52.60000 3.362
52.62000 3.721
52.64000 3.781
52.66000 1.945
52.68000 2.188
52.70000 2.047
52.72000 3.064
52.74000 -0.072
52.76000 3.151
52.78000 0.919
52.80000 -1.202
52.82000 -0.431
52.84000 1.844
52.86000 2.290
52.88000 0.337
52.90000 2.579
52.92000 4.705
52.94000 3.373
52.96000 2.891
52.98000 5.879
53.00000 4.538
53.02000 1.594
53.04000 3.455
53.06000 1.359
53.08000 2.184
53.10000 2.651
53.12000 0.864
53.14000 -2.422
53.16000 1.855
53.18000 3.316
53.20000 4.317
53.22000 3.992
53.24000 2.398
53.26000 3.190
53.28000 3.555
53.30000 1.285
53.32000 -1.223
53.34000 1.531
53.36000 6.564
53.38000 4.289
53.40000 -1.123
53.42000 -1.022
53.44000 2.196
53.46000 8.308
53.48000 7.476
53.50000 1.679
53.52000 2.580
53.54000 1.753
53.56000 1.026
53.58000 2.776
53.60000 2.870
53.62000 4.410
53.64000 3.308
53.66000 0.298
53.68000 1.124
53.70000 3.134
53.72000 2.596
53.74000 6.189
53.76000 7.246
53.78000 10.391
53.80000 8.303
53.82000 3.846
53.84000 3.498
53.86000 3.059
53.88000 3.812
53.90000 1.925
53.92000 4.931
53.94000 5.355
53.96000 5.501
53.98000 1.855
54.00000 -2.365
54.02000 4.008
54.04000 6.360
54.06000 2.800
54.08000 2.641
54.10000 4.721
54.12000 7.497
54.14000 7.044
54.16000 6.513
54.18000 2.368
54.20000 2.811
54.22000 4.072
54.24000 2.897
54.26000 0.287
54.28000 3.514
54.30000 0.609
54.32000 1.755
54.34000 2.783
54.36000 1.844
54.38000 3.146
54.40000 4.372
54.42000 3.134
54.44000 5.707
54.46000 1.833
54.48000 3.016
54.50000 4.277
54.52000 3.502
54.54000 6.130
54.56000 2.344
54.58000 5.266
54.60000 6.891
54.62000 5.515
54.64000 1.140
54.66000 3.910
54.68000 4.335
54.70000 0.903
54.72000 -1.245
54.74000 2.129
54.76000 2.507
54.78000 1.772
54.80000 1.416
54.82000 3.397
54.84000 -0.585
54.86000 3.857
54.88000 1.537
54.90000 -1.182
54.92000 0.125
54.94000 -0.248
54.96000 2.985
54.98000 0.386
55.00000 -0.615
55.02000 2.109
55.04000 5.332
55.06000 5.434
55.08000 2.898
55.10000 -1.451
55.12000 -2.380
55.14000 0.684
55.16000 0.477
55.18000 -0.567
55.20000 3.833
55.22000 5.114
55.24000 0.265
55.26000 -0.265
55.28000 1.878
55.30000 1.033
55.32000 2.184
55.34000 3.425
55.36000 -0.829
55.38000 0.243
55.40000 -0.830
55.42000 1.882
55.44000 4.247
55.46000 3.836
55.48000 0.588
55.50000 3.358
55.52000 3.656
55.54000 2.575
55.56000 2.288
55.58000 0.732
55.60000 1.483
55.62000 0.656
55.64000 2.670
55.66000 2.597
55.68000 3.596
55.70000 2.589
55.72000 3.638
55.74000 2.836
55.76000 4.157
55.78000 0.931
55.80000 -2.370
55.82000 -0.429
55.84000 3.227
55.86000 0.223
55.88000 -0.305
55.90000 -1.111
55.92000 1.265
55.94000 1.851
55.96000 0.476
55.98000 1.917
56.00000 -0.422
56.02000 2.390
56.04000 5.173
56.06000 3.035
56.08000 2.677
56.10000 1.218
56.12000 1.636
56.14000 2.636
56.16000 4.971
56.18000 1.483
56.20000 1.627
56.22000 3.158
56.24000 3.014
56.26000 5.393
56.28000 1.743
56.30000 0.874
56.32000 2.022
56.34000 3.362
56.36000 2.993
56.38000 1.881
56.40000 2.173
56.42000 0.592
56.44000 4.131
56.46000 2.593
56.48000 3.883
56.50000 6.582
56.52000 -0.111
56.54000 -1.056
56.56000 -2.311
56.58000 0.295
56.60000 2.015
56.62000 -0.479
56.64000 0.136
56.66000 -0.563
56.68000 2.292
56.70000 5.285
56.72000 5.111
56.74000 3.722
56.76000 5.018
56.78000 6.232
56.80000 4.698
56.82000 1.999
56.84000 2.603
56.86000 5.173
56.88000 5.167
56.90000 3.502
56.92000 1.543
56.94000 2.229
56.96000 -0.922
56.98000 0.269
57.00000 2.333
57.02000 3.207
57.04000 3.543
57.06000 3.074
57.08000 1.387
57.10000 -1.306
57.12000 -1.014
57.14000 -2.312
57.16000 0.361
57.18000 0.398
57.20000 -1.282
57.22000 0.663
57.24000 0.346
57.26000 4.363
57.28000 5.607
57.30000 1.672
57.32000 2.480
57.34000 0.782
57.36000 1.094
57.38000 -1.046
57.40000 -2.312
57.42000 0.450
57.44000 2.291
57.46000 1.301
57.48000 -1.951
57.50000 -2.266
57.52000 -0.504
57.54000 -0.252
57.56000 1.797
57.58000 4.708
57.60000 3.156
57.62000 2.479
57.64000 1.949
57.66000 1.606
57.68000 1.315
57.70000 3.848
57.72000 4.849
57.74000 0.065
57.76000 -0.542
57.78000 -1.832
57.80000 -0.855
57.82000 -0.923
57.84000 -1.623
57.86000 -1.797
57.88000 0.937
57.90000 2.332
57.92000 0.767
57.94000 1.944
57.96000 0.714
57.98000 1.435
58.00000 3.743
58.02000 -0.028
58.04000 -1.048
58.06000 2.158
58.08000 -0.594
58.10000 -0.313
58.12000 0.160
58.14000 3.349
58.16000 0.142
58.18000 4.724
58.20000 3.942
58.22000 -0.219
58.24000 -0.543
58.26000 -1.351
58.28000 -1.355
58.30000 0.574
58.32000 -0.742
58.34000 -2.300
58.36000 1.315
58.38000 2.469
58.40000 2.860
58.42000 3.359
58.44000 0.204
58.46000 4.371
58.48000 -0.059
58.50000 -2.300
58.52000 0.582
58.54000 2.563
58.56000 0.698
58.58000 -2.300
58.60000 -1.333
58.62000 2.101
58.64000 3.174
58.66000 3.761
58.68000 3.169
58.70000 1.893
58.72000 0.159
58.74000 -1.059
58.76000 2.205
58.78000 -1.727
58.80000 -2.303
58.82000 -2.021
58.84000 -1.977
58.86000 1.522
58.88000 5.129
58.90000 0.768
58.92000 -0.553
58.94000 1.946
58.96000 0.563
58.98000 -0.338
59.00000 -0.092
59.02000 1.307
59.04000 -0.006
59.06000 1.297
59.08000 0.323
59.10000 -0.436
59.12000 -2.304
59.14000 -0.843
59.16000 -1.747
59.18000 -1.581
59.20000 0.417
59.22000 2.123
59.24000 0.477
59.26000 -2.302
59.28000 -0.470
59.30000 0.660
59.32000 1.362
59.34000 1.134
59.36000 -0.783
59.38000 0.576
59.40000 -1.898
59.42000 -0.564
59.44000 2.504
59.46000 0.051
59.48000 0.017
59.50000 -1.835
59.52000 -0.781
59.54000 0.238
59.56000 -0.600
59.58000 -1.590
59.60000 -1.212
59.62000 0.087
59.64000 -0.793
59.66000 -0.398
59.68000 -0.883
59.70000 2.349
59.72000 0.211
59.74000 -0.090
59.76000 3.827
59.78000 1.979
59.80000 4.420
59.82000 4.010
59.84000 2.996
59.86000 0.777
59.88000 -2.269
59.90000 -1.764
59.92000 -1.212
59.94000 1.262
59.96000 3.906
59.98000 3.138
60.00000 2.408
60.02000 0.855
60.04000 2.231
60.06000 1.290
60.08000 -1.179
60.10000 -0.320
60.12000 2.174
60.14000 1.115
60.16000 -0.381
60.18000 0.013
60.20000 0.248
60.22000 0.341
60.24000 -1.542
60.26000 1.048
60.28000 2.749
60.30000 2.292
60.32000 -1.085
60.34000 -1.544
60.36000 -1.681
60.38000 0.995
60.40000 2.032
60.42000 1.734
60.44000 6.328
60.46000 5.465
60.48000 5.154
60.50000 6.742
60.52000 1.272
60.54000 -0.314
60.56000 -0.954
60.58000 3.041
60.60000 2.493
60.62000 2.905
60.64000 3.002
60.66000 -0.657
60.68000 1.912
60.70000 2.765
60.72000 4.578
60.74000 6.071
60.76000 3.457
60.78000 0.348
60.80000 -0.359
60.82000 -1.965
60.84000 -0.616
60.86000 0.768
60.88000 1.131
60.90000 1.020
60.92000 0.602
60.94000 -0.263
60.96000 2.821
60.98000 -0.179
61.00000 1.212
61.02000 -2.207
61.04000 -1.336
61.06000 3.931
61.08000 4.042
61.10000 4.983
61.12000 2.408
61.14000 1.447
61.16000 3.597
61.18000 3.813
61.20000 2.166
61.22000 2.315
61.24000 3.518
61.26000 3.236
61.28000 3.798
61.30000 1.050
61.32000 -2.178
61.34000 0.783
61.36000 3.934
61.38000 6.652
61.40000 8.784
61.42000 4.976
61.44000 4.115
61.46000 5.119
61.48000 5.279
61.50000 0.602
61.52000 -0.945
61.54000 0.283
61.56000 0.486
61.58000 2.473
61.60000 5.346
61.62000 4.187
61.64000 5.382
61.66000 5.076
61.68000 1.928
61.70000 -2.159
61.72000 0.553
61.74000 3.641
61.76000 2.374
61.78000 1.338
61.80000 4.009
61.82000 2.508
61.84000 2.602
61.86000 4.058
61.88000 5.366
61.90000 2.896
61.92000 2.180
61.94000 1.692
61.96000 -0.158
61.98000 -1.143
62.00000 -0.424
62.02000 2.261
62.04000 0.721
62.06000 0.840
62.08000 2.092
62.10000 5.597
62.12000 2.963
62.14000 3.054
62.16000 -0.169
62.18000 0.157
62.20000 1.403
62.22000 3.716
62.24000 1.719
62.26000 -0.329
62.28000 -2.171
62.30000 2.094
62.32000 2.850
62.34000 1.190
62.36000 0.588
62.38000 1.128
62.40000 2.260
62.42000 3.335
62.44000 1.719
62.46000 2.780
62.48000 4.370
62.50000 2.136
62.52000 0.123
62.54000 4.505
62.56000 1.584
62.58000 3.340
62.60000 3.392
62.62000 1.346
62.64000 -1.975
62.66000 1.516
62.68000 4.110
62.70000 2.443
62.72000 2.067
62.74000 2.945
62.76000 2.591
62.78000 -0.243
62.80000 0.257
62.82000 1.935
62.84000 0.709
62.86000 2.541
62.88000 0.843
62.90000 -1.089
62.92000 -2.185
62.94000 -0.790
62.96000 0.687
62.98000 3.856
63.00000 1.700
63.02000 1.016
63.04000 0.697
63.06000 -2.141
63.08000 0.970
63.10000 2.841
63.12000 -1.048
63.14000 -0.963
63.16000 -2.093
63.18000 -0.200
63.20000 2.355
63.22000 -0.033
63.24000 -1.128
63.26000 -0.119
63.28000 -0.952
63.30000 -0.882
63.32000 -0.753
63.34000 1.754
63.36000 2.341
63.38000 0.037
63.40000 -0.792
63.42000 0.073
63.44000 -1.764
63.46000 0.577
63.48000 1.356
63.50000 2.341
63.52000 0.462
63.54000 -1.186
63.56000 -2.178
63.58000 0.949
63.60000 1.612
63.62000 -0.722
63.64000 -1.113
63.66000 0.788
63.68000 0.343
63.70000 -0.998
63.72000 0.285
63.74000 0.684
63.76000 0.561
63.78000 -0.994
63.80000 -0.494
63.82000 -0.691
63.84000 -0.836
63.86000 -1.290
63.88000 0.723
63.90000 1.739
63.92000 0.750
63.94000 -0.008
63.96000 1.310
63.98000 2.063
64.00000 2.541
64.02000 4.268
64.04000 1.592
64.06000 1.673
64.08000 -1.327
64.10000 -2.158
64.12000 0.689
64.14000 1.061
64.16000 0.246
64.18000 -0.946
64.20000 2.028
64.22000 3.108
64.24000 0.374
64.26000 -1.756
64.28000 1.150
64.30000 0.130
64.32000 -0.042
64.34000 -0.152
64.36000 0.539
64.38000 0.506
64.40000 0.590
64.42000 0.194
64.44000 -2.149
64.46000 -1.617
64.48000 2.098
64.50000 2.840
64.52000 -0.767
64.54000 -1.038
64.56000 -0.441
64.58000 0.687
64.60000 2.010
64.62000 3.490
64.64000 3.187
64.66000 1.663
64.68000 0.604
64.70000 0.065
64.72000 -1.072
64.74000 -0.526
64.76000 -2.149
64.78000 -1.580
64.80000 1.462
64.82000 1.875
64.84000 0.967
64.86000 1.903
64.88000 -0.194
64.90000 -0.479
64.92000 1.561
64.94000 4.757
64.96000 1.618
64.98000 0.378
65.00000 1.481
65.02000 -0.745
65.04000 -2.151
65.06000 -2.051
65.08000 -1.266
65.10000 -0.238
65.12000 1.556
65.14000 2.571
65.16000 -0.377
65.18000 -1.289
65.20000 -1.307
65.22000 0.533
65.24000 1.173
65.26000 0.691
65.28000 1.813
65.30000 1.485
65.32000 0.226
65.34000 -1.007
65.36000 -1.340
65.38000 2.246
65.40000 2.581
65.42000 1.104
65.44000 -0.891
65.46000 -2.144
65.48000 0.581
65.50000 1.133
65.52000 0.584
65.54000 0.864
65.56000 -1.065
65.58000 -1.468
65.60000 -1.045
65.62000 0.127
65.64000 2.055
65.66000 2.508
65.68000 1.880
65.70000 1.057
65.72000 -1.085
65.74000 0.275
65.76000 3.106
65.78000 0.849
65.80000 1.207
65.82000 0.607
65.84000 -0.601
65.86000 3.021
65.88000 1.163
65.90000 0.567
65.92000 1.465
65.94000 2.137
65.96000 2.230
65.98000 1.291
66.00000 -0.135
66.02000 -2.089
66.04000 -2.118
66.06000 -1.146
66.08000 -1.118
66.10000 0.882
66.12000 -0.069
66.14000 -0.157
66.16000 1.263
66.18000 2.746
66.20000 0.071
66.22000 1.406
66.24000 2.546
66.26000 2.799
66.28000 1.319
66.30000 0.614
66.32000 2.764
66.34000 0.008
66.36000 -0.928
66.38000 0.093
66.40000 0.423
66.42000 1.743
66.44000 3.355
66.46000 -0.766
66.48000 -0.266
66.50000 3.350
66.52000 2.904
66.54000 2.097
66.56000 1.519
66.58000 3.046
66.60000 3.643
66.62000 2.458
66.64000 1.852
66.66000 0.282
66.68000 -0.475
66.70000 0.504
66.72000 1.824
66.74000 1.128
66.76000 -0.361
66.78000 -2.115
66.80000 -1.318
66.82000 -1.409
66.84000 -0.800
66.86000 1.225
66.88000 1.058
66.90000 -0.296
66.92000 0.445
66.94000 -0.754
66.96000 -0.926
66.98000 -1.328
67.00000 2.569
67.02000 -0.289
67.04000 -0.023
67.06000 1.456
67.08000 1.852
67.10000 1.292
67.12000 -1.887
67.14000 -0.112
67.16000 3.123
67.18000 1.771
67.20000 -0.080
67.22000 -0.226
67.24000 -0.360
67.26000 0.335
67.28000 0.369
67.30000 3.041
67.32000 5.233
67.34000 1.728
67.36000 0.700
67.38000 0.210
67.40000 -0.782
67.42000 -1.227
67.44000 -2.127
67.46000 0.643
67.48000 0.668
67.50000 1.020
67.52000 2.608
67.54000 1.298
67.56000 -0.321
67.58000 0.836
67.60000 2.672
67.62000 2.396
67.64000 1.265
67.66000 2.904
67.68000 3.346
67.70000 3.900
67.72000 4.571
67.74000 4.125
67.76000 2.249
67.78000 1.409
67.80000 1.073
67.82000 0.829
67.84000 -0.009
67.86000 0.837
67.88000 1.551
67.90000 0.002
67.92000 1.589
67.94000 1.348
67.96000 2.317
67.98000 1.348
68.00000 1.031
68.02000 4.681
68.04000 1.430
68.06000 2.681
68.08000 5.952
68.10000 4.472
68.12000 4.016
68.14000 4.289
68.16000 4.013
68.18000 4.769
68.20000 6.301
68.22000 6.528
68.24000 8.942
68.26000 8.069
68.28000 7.078
68.30000 7.320
68.32000 7.298
68.34000 8.878
68.36000 11.330
68.38000 11.472
68.40000 11.449
68.42000 11.776
68.44000 11.248
68.46000 14.649
68.48000 14.059
68.50000 14.254
68.52000 18.879
68.54000 18.857
68.56000 17.791
68.58000 19.158
68.60000 19.424
68.62000 23.952
68.64000 23.173
68.66000 24.596
68.68000 27.704
68.70000 27.285
68.72000 25.239
68.74000 21.682
68.76000 24.870
68.78000 27.056
68.80000 26.530
68.82000 26.136
68.84000 28.828
68.86000 27.605
68.88000 24.378
68.90000 26.665
68.92000 31.387
68.94000 32.110
68.96000 29.193
68.98000 24.591
69.00000 27.475
69.02000 27.650
69.04000 29.282
69.06000 28.057
69.08000 24.976
69.10000 20.027
69.12000 21.702
69.14000 21.747
69.16000 20.780
69.18000 21.930
69.20000 21.089
69.22000 22.044
69.24000 22.414
69.26000 17.393
69.28000 17.737
69.30000 15.529
69.32000 15.054
69.34000 17.758
69.36000 16.068
69.38000 13.336
69.40000 12.634
69.42000 13.503
69.44000 13.207
69.46000 9.005
69.48000 12.298
69.50000 11.568
69.52000 9.186
69.54000 8.051
69.56000 9.728
69.58000 8.678
69.60000 9.410
69.62000 5.702
69.64000 4.309
69.66000 2.749
69.68000 4.544
69.70000 6.158
69.72000 2.984
69.74000 4.817
69.76000 4.427
69.78000 4.755
69.80000 5.161
69.82000 2.625
69.84000 0.462
69.86000 1.695
69.88000 2.078
69.90000 2.133
69.92000 0.844
69.94000 0.489
69.96000 0.889
69.98000 2.603
70.00000 2.630
70.02000 4.599
70.04000 1.975
70.06000 0.058
70.08000 1.025
70.10000 1.064
70.12000 -0.433
70.14000 -0.021
70.16000 -0.793
70.18000 -1.898
70.20000 -2.050
70.22000 -1.263
70.24000 -0.002
70.26000 -0.080
70.28000 4.143
70.30000 1.447
70.32000 0.029
70.34000 3.783
70.36000 1.211
70.38000 0.481
70.40000 1.676
70.42000 1.781
70.44000 0.172
70.46000 0.642
70.48000 2.122
70.50000 2.557
70.52000 3.325
70.54000 1.496
70.56000 0.580
70.58000 1.653
70.60000 -0.251
70.62000 0.882
70.64000 -1.996
70.66000 -0.226
70.68000 -1.391
70.70000 0.166
70.72000 3.305
70.74000 3.834
70.76000 2.342
70.78000 0.920
70.80000 0.520
70.82000 0.221
70.84000 -1.289
70.86000 1.943
70.88000 3.135
70.90000 -1.966
70.92000 1.005
70.94000 2.471
70.96000 2.595
70.98000 0.924
71.00000 2.475
71.02000 -1.152
71.04000 -1.750
71.06000 0.038
71.08000 2.218
71.10000 5.255
71.12000 2.947
71.14000 3.149
71.16000 0.917
71.18000 -0.196
71.20000 2.510
71.22000 -0.071
71.24000 -1.607
71.26000 -0.922
71.28000 -1.943
71.30000 -0.026
71.32000 1.532
71.34000 0.028
71.36000 1.526
71.38000 0.178
71.40000 1.896
71.42000 0.266
71.44000 -1.470
71.46000 0.755
71.48000 4.000
71.50000 0.734
71.52000 0.423
71.54000 -0.696
71.56000 -0.448
71.58000 1.738
71.60000 -0.774
71.62000 -1.320
71.64000 -1.936
71.66000 -0.744
71.68000 3.415
71.70000 2.517
71.72000 0.357
71.74000 0.226
71.76000 0.565
71.78000 1.110
71.80000 0.869
71.82000 0.827
71.84000 0.867
71.86000 1.280
71.88000 -0.328
71.90000 2.774
71.92000 3.400
71.94000 1.654
71.96000 0.468
71.98000 1.703
72.00000 3.225
72.02000 0.306
72.04000 -0.315
72.06000 -0.082
72.08000 1.523
72.10000 1.290
72.12000 -0.244
72.14000 1.570
72.16000 1.244
72.18000 -1.260
72.20000 -1.898
72.22000 0.181
72.24000 -0.075
72.26000 0.271
72.28000 2.649
72.30000 -0.370
72.32000 -1.895
72.34000 0.544
72.36000 3.194
72.38000 3.480
72.40000 2.874
72.42000 3.807
72.44000 3.865
72.46000 2.663
72.48000 1.340
72.50000 -0.160
72.52000 1.018
72.54000 2.757
72.56000 0.883
72.58000 -0.713
72.60000 -1.178
72.62000 0.154
72.64000 0.691
72.66000 0.383
72.68000 0.624
72.70000 0.181
72.72000 0.761
72.74000 1.162
72.76000 -0.222
72.78000 -0.343
72.80000 -1.657
72.82000 -0.579
72.84000 -0.313
72.86000 0.794
72.88000 0.995
72.90000 4.155
72.92000 2.619
72.94000 1.106
72.96000 -0.769
72.98000 -0.726
73.00000 0.533
73.02000 2.128
73.04000 0.859
73.06000 -0.597
73.08000 -1.890
73.10000 -0.750
73.12000 1.362
73.14000 0.559
73.16000 1.428
73.18000 1.977
73.20000 2.274
73.22000 1.036
73.24000 1.266
73.26000 -0.806
73.28000 -1.883
73.30000 0.654
73.32000 1.296
73.34000 0.429
73.36000 1.514
73.38000 2.287
73.40000 2.980
73.42000 0.507
73.44000 4.465
73.46000 2.003
73.48000 -0.950
73.50000 -1.403
73.52000 0.234
73.54000 0.841
73.56000 1.570
73.58000 -0.586
73.60000 2.159
73.62000 3.146
73.64000 1.480
73.66000 3.726
73.68000 3.186
73.70000 2.139
73.72000 2.080
73.74000 0.270
73.76000 -1.849
73.78000 -0.313
73.80000 1.753
73.82000 1.314
73.84000 2.836
73.86000 3.935
73.88000 3.625
73.90000 1.144
73.92000 0.712
73.94000 0.899
73.96000 2.715
73.98000 4.750
74.00000 1.257
74.02000 1.456
74.04000 1.081
74.06000 0.836
74.08000 2.516
74.10000 3.153
74.12000 4.675
74.14000 3.271
74.16000 4.255
74.18000 4.004
74.20000 4.799
74.22000 1.759
74.24000 2.020
74.26000 3.906
74.28000 5.813
74.30000 4.345
74.32000 2.221
74.34000 -1.795
74.36000 0.940
74.38000 3.723
74.40000 4.271
74.42000 2.616
74.44000 2.924
74.46000 2.578
74.48000 2.045
74.50000 4.444
74.52000 5.268
74.54000 3.125
74.56000 -0.074
74.58000 -1.293
74.60000 -0.153
74.62000 2.359
74.64000 4.294
74.66000 3.544
74.68000 2.526
74.70000 3.804
74.72000 3.670
74.74000 2.742
74.76000 1.071
74.78000 2.139
74.80000 3.820
74.82000 4.191
74.84000 2.382
74.86000 2.937
74.88000 3.939
74.90000 2.401
74.92000 1.094
74.94000 1.032
74.96000 3.100
74.98000 4.200
75.00000 3.146
75.02000 3.112
75.04000 1.824
75.06000 2.328
75.08000 3.348
75.10000 1.090
75.12000 0.627
75.14000 2.557
75.16000 4.613
75.18000 3.114
75.20000 0.598
75.22000 1.644
75.24000 1.069
75.26000 1.997
75.28000 0.665
75.30000 -1.799
75.32000 -1.385
75.34000 -1.014
75.36000 1.937
75.38000 3.472
75.40000 3.069
75.42000 2.493
75.44000 1.993
75.46000 0.374
75.48000 3.111
75.50000 3.156
75.52000 3.613
75.54000 3.550
75.56000 3.910
75.58000 4.486
75.60000 3.772
75.62000 3.976
75.64000 4.005
75.66000 2.257
75.68000 1.362
75.70000 0.912
75.72000 2.139
75.74000 1.669
75.76000 2.697
75.78000 1.394
75.80000 -0.485
75.82000 -0.407
75.84000 -1.816
75.86000 -0.239
75.88000 2.322
75.90000 5.186
75.92000 2.410
75.94000 3.203
75.96000 3.386
75.98000 3.142
76.00000 4.745
76.02000 5.002
76.04000 4.641
76.06000 4.553
76.08000 2.329
76.10000 1.276
76.12000 1.358
76.14000 1.975
76.16000 1.576
76.18000 1.786
76.20000 3.348
76.22000 3.821
76.24000 0.833
76.26000 3.750
76.28000 3.451
76.30000 5.158
76.32000 4.786
76.34000 0.715
76.36000 1.047
76.38000 2.245
76.40000 0.748
76.42000 -1.823
76.44000 1.731
76.46000 4.715
76.48000 4.019
76.50000 3.563
76.52000 3.373
76.54000 4.816
76.56000 3.669
76.58000 2.899
76.60000 2.410
76.62000 2.591
76.64000 1.291
76.66000 -0.988
76.68000 3.446
76.70000 1.708
76.72000 -0.890
76.74000 -1.821
76.76000 -1.460
76.78000 2.744
76.80000 2.972
76.82000 5.279
76.84000 3.901
76.86000 4.422
76.88000 0.788
76.90000 -0.298
76.92000 2.805
76.94000 3.705
76.96000 4.158
76.98000 2.863
77.00000 4.814
77.02000 3.325
77.04000 1.783
77.06000 1.656
77.08000 2.654
77.10000 3.170
77.12000 4.295
77.14000 1.449
77.16000 1.271
77.18000 1.002
77.20000 2.643
77.22000 3.789
77.24000 1.164
77.26000 -0.721
77.28000 -1.578
77.30000 0.624
77.32000 0.065
77.34000 2.188
77.36000 3.564
77.38000 0.213
77.40000 -0.542
77.42000 2.814
77.44000 0.656
77.46000 1.410
77.48000 1.195
77.50000 0.891
77.52000 1.487
77.54000 3.118
77.56000 1.784
77.58000 1.606
77.60000 1.882
77.62000 1.161
77.64000 1.907
77.66000 1.875
77.68000 2.722
77.70000 2.407
77.72000 -0.559
77.74000 -1.389
77.76000 1.055
77.78000 -0.105
77.80000 -0.063
77.82000 1.359
77.84000 -1.874
77.86000 3.128
77.88000 3.630
77.90000 1.673
77.92000 1.160
77.94000 1.080
77.96000 1.980
77.98000 1.602
78.00000 -0.945
78.02000 -1.348
78.04000 0.472
78.06000 1.649
78.08000 -1.095
78.10000 0.374
78.12000 0.618
78.14000 2.051
78.16000 0.122
78.18000 1.909
78.20000 1.294
78.22000 3.554
78.24000 2.764
78.26000 1.826
78.28000 1.602
78.30000 2.997
78.32000 -0.111
78.34000 -0.132
78.36000 0.759
78.38000 0.547
78.40000 2.981
78.42000 1.297
78.44000 -0.776
78.46000 -1.875
78.48000 1.377
78.50000 2.151
78.52000 1.106
78.54000 1.539
78.56000 3.229
78.58000 2.820
78.60000 2.278
78.62000 2.309
78.64000 -0.432
78.66000 1.311
78.68000 2.528
78.70000 3.783
78.72000 1.614
78.74000 1.174
78.76000 0.302
78.78000 3.228
78.80000 3.339
78.82000 1.853
78.84000 5.622
78.86000 2.592
78.88000 1.398
78.90000 -1.007
78.92000 3.780
78.94000 3.007
78.96000 1.559
78.98000 -0.538
79.00000 0.157
79.02000 2.404
79.04000 -0.409
79.06000 -1.881
79.08000 1.053
79.10000 0.560
79.12000 4.074
79.14000 3.330
79.16000 2.232
79.18000 2.787
79.20000 3.603
79.22000 1.828
79.24000 4.135
79.26000 3.734
79.28000 3.646
79.30000 2.301
79.32000 3.433
79.34000 3.372
79.36000 3.149
79.38000 1.471
79.40000 2.616
79.42000 1.692
79.44000 0.825
79.46000 -1.876
79.48000 -0.421
79.50000 2.906
79.52000 1.892
79.54000 3.307
79.56000 0.039
79.58000 0.198
79.60000 1.786
79.62000 1.900
79.64000 0.825
79.66000 -0.349
79.68000 1.281
79.70000 3.507
79.72000 4.903
79.74000 1.738
79.76000 -1.264
79.78000 -0.680
79.80000 0.747
79.82000 -0.020
79.84000 3.765
79.86000 1.310
79.88000 -0.099
79.90000 1.347
79.92000 2.233
79.94000 1.707
79.96000 -0.418
79.98000 0.883
80.00000 1.422
80.02000 -0.268
80.04000 -1.879
80.06000 -1.052
80.08000 1.344
80.10000 1.327
80.12000 1.210
80.14000 -0.085
80.16000 0.675
80.18000 -0.008
80.20000 0.839
80.22000 1.435
80.24000 1.930
80.26000 0.117
80.28000 1.311
80.30000 0.591
80.32000 -1.350
80.34000 1.271
80.36000 0.275
80.38000 1.887
80.40000 3.941
80.42000 1.068
80.44000 -1.216
80.46000 0.374
80.48000 1.548
80.50000 1.857
80.52000 0.309
80.54000 0.909
80.56000 0.625
80.58000 2.253
80.60000 -1.525
80.62000 -0.482
80.64000 -0.206
80.66000 -0.796
80.68000 0.244
80.70000 1.006
80.72000 3.127
80.74000 0.856
80.76000 -1.936
80.78000 -1.148
80.80000 1.497
80.82000 4.655
80.84000 2.887
80.86000 3.409
80.88000 3.845
80.90000 3.411
80.92000 1.826
80.94000 0.075
80.96000 -0.102
80.98000 0.851
81.00000 0.234
81.02000 -1.929
81.04000 -0.105
81.06000 1.399
81.08000 3.149
81.10000 0.522
81.12000 2.108
81.14000 0.243
81.16000 3.689
81.18000 6.996
81.20000 6.264
81.22000 4.992
81.24000 1.515
81.26000 2.737
81.28000 -0.762
81.30000 0.021
81.32000 2.689
81.34000 2.669
81.36000 4.815
81.38000 2.947
81.40000 -0.318
81.42000 -0.541
81.44000 1.166
81.46000 3.214
81.48000 2.960
81.50000 3.624
81.52000 4.609
81.54000 2.073
81.56000 4.349
81.58000 6.103
81.60000 4.816
81.62000 2.340
81.64000 3.798
81.66000 5.732
81.68000 1.446
81.70000 -0.219
81.72000 0.983
81.74000 -2.016
81.76000 -1.530
81.78000 4.459
81.80000 5.072
81.82000 6.403
81.84000 7.605
81.86000 5.759
81.88000 5.372
81.90000 7.585
81.92000 3.601
81.94000 3.834
81.96000 3.011
81.98000 0.926
82.00000 1.925
82.02000 5.933
82.04000 8.488
82.06000 6.902
82.08000 6.856
82.10000 6.298
82.12000 8.190
82.14000 9.530
82.16000 10.238
82.18000 9.106
82.20000 9.937
82.22000 8.637
82.24000 12.953
82.26000 10.134
82.28000 10.847
82.30000 11.909
82.32000 13.453
82.34000 14.988
82.36000 18.187
82.38000 17.235
82.40000 17.219
82.42000 14.999
82.44000 20.347
82.46000 20.589
82.48000 19.160
82.50000 19.856
82.52000 18.816
82.54000 20.309
82.56000 29.500
82.58000 30.362
82.60000 25.305
82.62000 25.651
82.64000 30.564
82.66000 30.975
82.68000 31.934
82.70000 31.192
82.72000 27.364
82.74000 32.282
82.76000 33.821
82.78000 37.314
82.80000 40.329
82.82000 43.833
82.84000 45.601
82.86000 41.960
82.88000 44.595
82.90000 45.748
82.92000 45.458
82.94000 44.860
82.96000 49.450
82.98000 53.519
83.00000 49.073
83.02000 48.059
83.04000 48.066
83.06000 47.844
83.08000 49.767
83.10000 51.807
83.12000 54.509
83.14000 53.956
83.16000 48.826
83.18000 53.871
83.20000 49.993
83.22000 51.411
83.24000 50.850
83.26000 54.431
83.28000 51.546
83.30000 49.094
83.32000 47.394
83.34000 46.683
83.36000 44.466
83.38000 44.598
83.40000 45.770
83.42000 38.959
83.44000 38.303
83.46000 42.781
83.48000 42.689
83.50000 36.243
83.52000 35.718
83.54000 35.798
83.56000 32.416
83.58000 27.244
83.60000 31.747
83.62000 30.518
83.64000 26.217
83.66000 28.361
83.68000 28.743
83.70000 27.462
83.72000 24.181
83.74000 23.690
83.76000 22.787
83.78000 24.135
83.80000 21.545
83.82000 23.425
83.84000 21.216
83.86000 18.620
83.88000 18.222
83.90000 19.666
83.92000 17.303
83.94000 17.263
83.96000 15.295
83.98000 14.121
84.00000 11.346
84.02000 12.007
84.04000 12.793
84.06000 14.782
84.08000 10.618
84.10000 7.177
84.12000 8.413
84.14000 9.552
84.16000 8.353
84.18000 9.398
84.20000 9.545
84.22000 9.208
84.24000 11.279
84.26000 9.446
84.28000 5.576
84.30000 5.393
84.32000 5.853
84.34000 7.859
84.36000 8.188
84.38000 6.698
84.40000 5.884
84.42000 5.422
84.44000 4.230
84.46000 5.610
84.48000 5.442
84.50000 3.200
84.52000 3.127
84.54000 3.230
84.56000 3.598
84.58000 0.935
84.60000 1.020
84.62000 2.886
84.64000 4.226
84.66000 4.120
84.68000 2.773
84.70000 0.322
84.72000 2.858
84.74000 3.947
84.76000 4.311
84.78000 2.193
84.80000 4.434
84.82000 3.379
84.84000 2.970
84.86000 1.174
84.88000 0.932
84.90000 3.541
84.92000 5.481
84.94000 1.756
84.96000 1.314
84.98000 -0.142
85.00000 0.878
85.02000 0.393
85.04000 1.753
85.06000 1.318
85.08000 3.998
85.10000 3.854
85.12000 7.102
85.14000 4.714
85.16000 5.124
85.18000 0.182
85.20000 -1.927
85.22000 -1.187
85.24000 1.881
85.26000 2.580
85.28000 1.394
85.30000 2.293
85.32000 0.028
85.34000 -0.048
85.36000 0.534
85.38000 1.732
85.40000 1.495
85.42000 3.224
85.44000 5.055
85.46000 3.615
85.48000 2.576
85.50000 3.351
85.52000 2.879
85.54000 2.015
85.56000 2.187
85.58000 2.170
85.60000 -0.891
85.62000 2.946
85.64000 0.783
85.66000 -1.248
85.68000 -1.600
85.70000 0.351
85.72000 0.443
85.74000 0.451
85.76000 0.245
85.78000 1.143
85.80000 1.180
85.82000 -0.730
85.84000 1.517
85.86000 -0.817
85.88000 -0.071
85.90000 -0.846
85.92000 3.378
85.94000 6.241
85.96000 4.846
85.98000 3.270
86.00000 -1.939
86.02000 0.595
86.04000 2.705
86.06000 1.049
86.08000 2.266
86.10000 2.803
86.12000 4.022
86.14000 3.515
86.16000 1.754
86.18000 2.491
86.20000 0.936
86.22000 2.332
86.24000 2.315
86.26000 5.409
86.28000 2.556
86.30000 2.928
86.32000 1.702
86.34000 0.258
86.36000 -1.984
86.38000 1.941
86.40000 2.663
86.42000 0.185
86.44000 -0.125
86.46000 0.025
86.48000 1.824
86.50000 2.907
86.52000 2.219
86.54000 -0.061
86.56000 2.309
86.58000 5.112
86.60000 4.328
86.62000 5.855
86.64000 2.321
86.66000 3.212
86.68000 6.222
86.70000 12.450
86.72000 7.720
86.74000 4.896
86.76000 6.780
86.78000 6.922
86.80000 9.647
86.82000 8.659
86.84000 7.733
86.86000 9.669
86.88000 7.950
86.90000 8.918
86.92000 10.360
86.94000 8.226
86.96000 10.348
86.98000 15.167
87.00000 16.699
87.02000 16.091
87.04000 14.439
87.06000 15.485
87.08000 14.661
87.10000 19.180
87.12000 20.517
87.14000 18.899
87.16000 15.748
87.18000 23.336
87.20000 20.471
87.22000 18.317
87.24000 13.984
87.26000 19.121
87.28000 20.977
87.30000 19.535
87.32000 22.059
87.34000 21.692
87.36000 22.559
87.38000 23.004
87.40000 26.313
87.42000 28.856
87.44000 25.935
87.46000 26.929
87.48000 25.853
87.50000 26.811
87.52000 24.721
87.54000 24.245
87.56000 26.049
87.58000 24.242
87.60000 26.877
87.62000 26.756
87.64000 27.385
87.66000 29.499
87.68000 29.959
87.70000 25.179
87.72000 27.448
87.74000 26.764
87.76000 23.396
87.78000 25.211
87.80000 25.224
87.82000 23.723
87.84000 23.884
87.86000 23.903
87.88000 21.373
87.90000 22.563
87.92000 22.349
87.94000 20.650
87.96000 23.783
87.98000 21.684
88.00000 20.106
88.02000 16.229
88.04000 17.476
88.06000 16.611
88.08000 16.279
88.10000 16.952
88.12000 19.520
88.14000 16.824
88.16000 12.708
88.18000 12.469
88.20000 11.373
88.22000 10.032
88.24000 12.334
88.26000 13.948
88.28000 10.486
88.30000 5.325
88.32000 7.422
88.34000 6.546
88.36000 8.971
88.38000 9.312
88.40000 9.280
88.42000 9.457
88.44000 6.202
88.46000 3.591
88.48000 4.879
88.50000 5.571
88.52000 6.773
88.54000 5.813
88.56000 5.023
88.58000 6.672
88.60000 0.883
88.62000 3.771
88.64000 4.577
88.66000 2.638
88.68000 3.087
88.70000 4.084
88.72000 3.759
88.74000 3.636
88.76000 3.664
88.78000 -0.533
88.80000 -1.789
88.82000 -0.433
88.84000 4.330
88.86000 8.826
88.88000 5.590
88.90000 -0.121
88.92000 -0.236
88.94000 1.403
88.96000 1.216
88.98000 -0.973
89.00000 2.195
89.02000 2.373
89.04000 3.115
89.06000 2.742
89.08000 3.235
89.10000 1.073
89.12000 -1.856
89.14000 -0.063
89.16000 0.250
89.18000 5.206
89.20000 6.556
89.22000 3.368
89.24000 2.074
89.26000 3.696
89.28000 3.357
89.30000 2.375
89.32000 1.397
89.34000 3.921
89.36000 6.060
89.38000 3.898
89.40000 1.071
89.42000 1.261
89.44000 1.645
89.46000 1.579
89.48000 1.926
89.50000 0.571
89.52000 -0.844
89.54000 0.200
89.56000 1.908
89.58000 2.897
89.60000 1.582
89.62000 1.352
89.64000 1.855
89.66000 1.315
89.68000 2.087
89.70000 4.814
89.72000 5.845
89.74000 2.029
89.76000 -1.763
89.78000 -1.383
89.80000 1.218
89.82000 2.110
89.84000 -1.113
89.86000 2.030
89.88000 2.674
89.90000 3.247
89.92000 3.325
89.94000 1.712
89.96000 1.506
89.98000 2.859
90.00000 3.256
90.02000 1.817
90.04000 1.768
90.06000 4.699
90.08000 5.090
90.10000 4.745
90.12000 4.041
90.14000 0.163
90.16000 1.255
90.18000 -1.743
90.20000 1.082
90.22000 0.602
90.24000 0.230
90.26000 1.144
90.28000 3.275
90.30000 6.002
90.32000 4.577
90.34000 3.911
90.36000 3.376
90.38000 4.016
90.40000 3.171
90.42000 0.341
90.44000 0.521
90.46000 2.045
90.48000 -0.807
90.50000 -0.088
90.52000 0.409
90.54000 -0.289
90.56000 1.402
90.58000 1.117
90.60000 -0.725
90.62000 -0.395
90.64000 0.378
90.66000 1.941
90.68000 -0.454
90.70000 -1.777
90.72000 3.360
90.74000 4.001
90.76000 2.469
90.78000 1.982
90.80000 2.728
90.82000 1.925
90.84000 1.747
90.86000 2.338
90.88000 3.644
90.90000 3.278
90.92000 2.450
90.94000 3.343
90.96000 2.393
90.98000 1.993
91.00000 1.856
91.02000 0.770
91.04000 1.686
91.06000 0.621
91.08000 0.107
91.10000 -0.600
91.12000 1.206
91.14000 3.066
91.16000 1.540
91.18000 0.044
91.20000 0.440
91.22000 1.463
91.24000 1.939
91.26000 1.459
91.28000 0.421
91.30000 1.296
91.32000 2.207
91.34000 1.310
91.36000 3.448
91.38000 2.935
91.40000 2.626
91.42000 1.955
91.44000 -0.422
91.46000 -0.542
91.48000 0.331
91.50000 3.301
91.52000 2.666
91.54000 0.738
91.56000 3.543
91.58000 2.804
91.60000 -1.107
91.62000 0.005
91.64000 1.460
91.66000 1.142
91.68000 1.646
91.70000 2.422
91.72000 4.843
91.74000 4.358
91.76000 1.640
91.78000 -1.739
91.80000 2.067
91.82000 2.758
91.84000 0.957
91.86000 2.742
91.88000 3.255
91.90000 1.963
91.92000 2.311
91.94000 0.264
91.96000 2.743
91.98000 6.790
92.00000 4.123
92.02000 3.204
92.04000 1.780
92.06000 0.846
92.08000 -1.753
92.10000 0.042
92.12000 -0.395
92.14000 0.367
92.16000 4.179
92.18000 7.556
92.20000 2.833
92.22000 3.387
92.24000 0.259
92.26000 -1.267
92.28000 -1.004
92.30000 0.746
92.32000 2.681
92.34000 2.093
92.36000 1.332
92.38000 2.583
92.40000 1.177
92.42000 4.416
92.44000 3.721
92.46000 0.126
92.48000 0.188
92.50000 0.183
92.52000 -0.918
92.54000 0.611
92.56000 2.330
92.58000 0.843
92.60000 1.159
92.62000 1.901
92.64000 2.331
92.66000 2.571
92.68000 2.242
92.70000 2.125
92.72000 0.940
92.74000 1.638
92.76000 2.583
92.78000 2.445
92.80000 -0.032
92.82000 1.342
92.84000 3.662
92.86000 1.698
92.88000 0.598
92.90000 -1.751
92.92000 0.761
92.94000 3.389
92.96000 2.094
92.98000 1.160
93.00000 1.248
93.02000 2.736
93.04000 0.969
93.06000 -0.712
93.08000 1.548
93.10000 -0.284
93.12000 -0.061
93.14000 0.204
93.16000 1.177
93.18000 2.044
93.20000 3.865
93.22000 3.736
93.24000 2.160
93.26000 1.741
93.28000 1.096
93.30000 0.385
93.32000 0.915
93.34000 1.228
93.36000 1.773
93.38000 3.234
93.40000 1.414
93.42000 -1.545
93.44000 2.397
93.46000 3.161
93.48000 0.374
93.50000 1.143
93.52000 0.867
93.54000 -0.158
93.56000 -0.078
93.58000 2.286
93.60000 0.732
93.62000 0.952
93.64000 1.062
93.66000 3.692
93.68000 -0.466
93.70000 0.713
93.72000 2.419
93.74000 0.650
93.76000 0.583
93.78000 0.331
93.80000 3.223
93.82000 4.235
93.84000 4.141
93.86000 1.746
93.88000 -0.612
93.90000 -1.772
93.92000 -0.303
93.94000 -1.562
93.96000 1.036
93.98000 1.154
94.00000 1.876
94.02000 1.812
94.04000 -0.917
94.06000 -0.652
94.08000 -0.126
94.10000 -0.249
94.12000 0.429
94.14000 -1.242
94.16000 -0.496
94.18000 -0.342
94.20000 0.217
94.22000 2.678
94.24000 3.369
94.26000 1.093
94.28000 -1.423
94.30000 -0.957
94.32000 -0.893
94.34000 -0.864
94.36000 -0.122
94.38000 0.086
94.40000 1.244
94.42000 1.859
94.44000 0.798
94.46000 1.697
94.48000 3.076
94.50000 2.154
94.52000 4.762
94.54000 3.723
94.56000 4.479
94.58000 4.439
94.60000 3.640
94.62000 5.496
94.64000 1.825
94.66000 1.722
94.68000 2.663
94.70000 -0.977
94.72000 -0.472
94.74000 5.466
94.76000 4.368
94.78000 1.832
94.80000 -0.793
94.82000 -0.438
94.84000 3.089
94.86000 5.923
94.88000 4.921
94.90000 2.069
94.92000 1.242
94.94000 -0.504
94.96000 -1.768
94.98000 0.180
95.00000 1.508
95.02000 0.513
95.04000 3.750
95.06000 1.906
95.08000 2.354
95.10000 -0.009
95.12000 1.391
95.14000 4.000
95.16000 1.788
95.18000 2.070
95.20000 0.662
95.22000 5.006
95.24000 4.953
95.26000 5.182
95.28000 3.490
95.30000 1.841
95.32000 4.156
95.34000 3.386
95.36000 2.664
95.38000 3.763
95.40000 2.723
95.42000 1.615
95.44000 1.610
95.46000 1.119
95.48000 0.081
95.50000 1.497
95.52000 3.136
95.54000 1.314
95.56000 -0.855
95.58000 2.821
95.60000 4.418
95.62000 4.048
95.64000 2.639
95.66000 3.352
95.68000 4.978
95.70000 4.722
95.72000 0.954
95.74000 -1.765
95.76000 -0.115
95.78000 1.155
95.80000 0.667
95.82000 0.539
95.84000 1.255
95.86000 0.692
95.88000 -0.584
95.90000 -1.341
95.92000 -1.758
95.94000 1.153
95.96000 3.337
95.98000 1.613
96.00000 2.700
96.02000 2.693
96.04000 4.587
96.06000 5.995
96.08000 5.499
96.10000 6.755
96.12000 5.478
96.14000 2.123
96.16000 2.086
96.18000 0.495
96.20000 1.939
96.22000 0.951
96.24000 2.411
96.26000 1.137
96.28000 0.436
96.30000 0.955
96.32000 0.069
96.34000 -0.065
96.36000 0.433
96.38000 3.182
96.40000 3.520
96.42000 1.200
96.44000 3.221
96.46000 1.424
96.48000 1.166
96.50000 1.688
96.52000 5.385
96.54000 6.109
96.56000 6.020
96.58000 2.211
96.60000 1.132
96.62000 0.042
96.64000 4.045
96.66000 1.127
96.68000 1.277
96.70000 2.982
96.72000 4.238
96.74000 4.259
96.76000 4.362
96.78000 3.006
96.80000 0.943
96.82000 3.500
96.84000 6.973
96.86000 5.445
96.88000 5.607
96.90000 4.772
96.92000 6.894
96.94000 4.006
96.96000 2.178
96.98000 -0.872
97.00000 0.877
97.02000 0.486
97.04000 2.236
97.06000 4.313
97.08000 4.781
97.10000 1.912
97.12000 -1.727
97.14000 2.258
97.16000 4.213
97.18000 4.268
97.20000 2.051
97.22000 4.313
97.24000 2.919
97.26000 2.424
97.28000 -0.201
97.30000 0.515
97.32000 2.562
97.34000 -0.227
97.36000 2.660
97.38000 2.431
97.40000 -0.134
97.42000 6.332
97.44000 4.437
97.46000 2.218
97.48000 0.723
97.50000 0.673
97.52000 1.691
97.54000 3.588
97.56000 -0.961
97.58000 -1.758
97.60000 0.495
97.62000 1.330
97.64000 0.867
97.66000 1.059
97.68000 1.276
97.70000 7.915
97.72000 4.446
97.74000 3.254
97.76000 5.224
97.78000 1.334
97.80000 1.674
97.82000 1.030
97.84000 1.389
97.86000 2.240
97.88000 -1.650
97.90000 1.439
97.92000 2.148
97.94000 1.962
97.96000 1.984
97.98000 -1.769
98.00000 -1.279
98.02000 1.343
98.04000 4.021
98.06000 2.441
98.08000 2.866
98.10000 1.835
98.12000 1.110
98.14000 1.876
98.16000 -1.065
98.18000 2.036
98.20000 3.003
98.22000 13.346
98.24000 4.825
98.26000 4.514
98.28000 5.581
98.30000 2.829
98.32000 3.167
98.34000 3.455
98.36000 2.845
98.38000 3.063
98.40000 1.350
98.42000 -0.338
98.44000 -0.148
98.46000 1.089
98.48000 2.569
98.50000 5.315
98.52000 4.374
98.54000 0.460
98.56000 1.232
98.58000 -0.064
98.60000 -0.273
98.62000 -0.435
98.64000 -1.067
98.66000 4.451
98.68000 4.998
98.70000 3.298
98.72000 -0.365
98.74000 -0.877
98.76000 4.540
98.78000 5.595
98.80000 2.292
98.82000 0.126
98.84000 -0.998
98.86000 -0.721
98.88000 4.328
98.90000 4.865
98.92000 3.492
98.94000 1.204
98.96000 3.055
98.98000 2.289
99.00000 4.445
99.02000 -1.720
99.04000 4.157
99.06000 2.519
99.08000 4.734
99.10000 2.464
99.12000 5.120
99.14000 5.463
99.16000 4.083
99.18000 3.039
99.20000 3.617
99.22000 0.746
99.24000 3.813
99.26000 6.748
99.28000 7.839
99.30000 4.585
99.32000 4.758
99.34000 8.520
99.36000 3.003
99.38000 -1.519
99.40000 2.730
99.42000 5.839
99.44000 -1.350
99.46000 3.717
99.48000 2.107
99.50000 1.337
99.52000 2.316
99.54000 4.347
99.56000 1.625
99.58000 -1.691
99.60000 -1.694
99.62000 1.638
99.64000 4.810
99.66000 9.651
99.68000 8.071
99.70000 3.170
99.72000 8.297
99.74000 2.142
99.76000 3.394
99.78000 1.354
99.80000 5.065
99.82000 4.866
99.84000 5.558
99.86000 0.711
99.88000 1.669
99.90000 6.619
99.92000 1.648
99.94000 4.276
99.96000 2.531
99.98000 0.000
