'Id: "0011389" Comment: "Integrate frame 0011389_Au-Ir-Rh_Au-Rich_XRD_Mapping-270-0000.gfrmwith cursor Wedge Cursor #5" Operator: "B?rgel" Anode: "Cu" Wavelength: "1.5406" Scantype: "2Theta (TwoTheta)" TimePerStep: "1" X: "4.5" Y: "22.5" Z: "5.95" 
10.00000 0.000
10.02000 12.614
10.04000 -4.264
10.06000 1.778
10.08000 2.933
10.10000 -1.205
10.12000 -3.085
10.14000 2.345
10.16000 -1.895
10.18000 7.424
10.20000 6.196
10.22000 3.870
10.24000 1.812
10.26000 -1.704
10.28000 -1.600
10.30000 3.642
10.32000 9.503
10.34000 1.846
10.36000 -4.241
10.38000 1.327
10.40000 13.627
10.42000 29.356
10.44000 8.364
10.46000 12.689
10.48000 21.063
10.50000 13.463
10.52000 0.795
10.54000 3.845
10.56000 7.206
10.58000 9.055
10.60000 19.243
10.62000 8.794
10.64000 6.209
10.66000 14.474
10.68000 3.486
10.70000 12.029
10.72000 16.539
10.74000 17.293
10.76000 -4.250
10.78000 1.950
10.80000 7.586
10.82000 0.177
10.84000 5.392
10.86000 16.177
10.88000 15.385
10.90000 13.048
10.92000 18.652
10.94000 9.714
10.96000 7.958
10.98000 5.113
11.00000 1.788
11.02000 1.773
11.04000 17.154
11.06000 9.376
11.08000 10.411
11.10000 9.312
11.12000 12.154
11.14000 11.257
11.16000 10.066
11.18000 19.477
11.20000 15.445
11.22000 11.353
11.24000 22.245
11.26000 21.115
11.28000 -4.604
11.30000 -0.070
11.32000 15.338
11.34000 26.458
11.36000 23.725
11.38000 15.318
11.40000 17.627
11.42000 15.519
11.44000 17.313
11.46000 12.383
11.48000 6.575
11.50000 6.771
11.52000 17.508
11.54000 18.627
11.56000 10.643
11.58000 13.856
11.60000 11.691
11.62000 11.723
11.64000 15.425
11.66000 16.932
11.68000 19.221
11.70000 22.421
11.72000 15.983
11.74000 28.637
11.76000 8.992
11.78000 9.212
11.80000 15.992
11.82000 6.903
11.84000 7.862
11.86000 17.522
11.88000 16.958
11.90000 20.069
11.92000 28.229
11.94000 22.093
11.96000 19.340
11.98000 13.604
12.00000 16.017
12.02000 11.199
12.04000 12.511
12.06000 13.479
12.08000 14.081
12.10000 18.562
12.12000 17.411
12.14000 10.233
12.16000 6.874
12.18000 10.274
12.20000 27.366
12.22000 7.389
12.24000 3.870
12.26000 14.074
12.28000 20.397
12.30000 16.526
12.32000 5.497
12.34000 2.687
12.36000 9.784
12.38000 22.685
12.40000 17.749
12.42000 14.492
12.44000 18.665
12.46000 16.717
12.48000 12.251
12.50000 14.515
12.52000 7.616
12.54000 17.267
12.56000 13.305
12.58000 21.441
12.60000 25.517
12.62000 13.782
12.64000 14.152
12.66000 15.048
12.68000 21.315
12.70000 25.602
12.72000 21.418
12.74000 21.415
12.76000 14.014
12.78000 8.465
12.80000 5.244
12.82000 7.725
12.84000 13.351
12.86000 14.874
12.88000 19.615
12.90000 25.448
12.92000 22.365
12.94000 22.926
12.96000 22.559
12.98000 22.949
13.00000 18.183
13.02000 14.233
13.04000 28.986
13.06000 29.238
13.08000 20.094
13.10000 11.045
13.12000 2.303
13.14000 13.050
13.16000 18.042
13.18000 15.824
13.20000 16.171
13.22000 28.365
13.24000 9.565
13.26000 6.157
13.28000 4.051
13.30000 6.605
13.32000 9.972
13.34000 20.400
13.36000 10.892
13.38000 12.724
13.40000 8.807
13.42000 11.674
13.44000 23.852
13.46000 20.787
13.48000 15.502
13.50000 10.182
13.52000 16.769
13.54000 22.066
13.56000 25.388
13.58000 14.878
13.60000 11.750
13.62000 12.868
13.64000 21.291
13.66000 8.090
13.68000 12.444
13.70000 25.293
13.72000 13.350
13.74000 4.325
13.76000 6.787
13.78000 12.704
13.80000 10.467
13.82000 -3.187
13.84000 -2.908
13.86000 4.439
13.88000 6.884
13.90000 6.200
13.92000 18.466
13.94000 13.092
13.96000 7.382
13.98000 9.104
14.00000 15.318
14.02000 20.499
14.04000 15.196
14.06000 12.860
14.08000 14.225
14.10000 12.492
14.12000 5.080
14.14000 10.727
14.16000 11.603
14.18000 6.415
14.20000 9.715
14.22000 13.684
14.24000 10.981
14.26000 5.128
14.28000 2.829
14.30000 9.332
14.32000 13.566
14.34000 13.295
14.36000 17.395
14.38000 10.148
14.40000 12.471
14.42000 15.597
14.44000 20.401
14.46000 14.743
14.48000 7.777
14.50000 8.852
14.52000 11.109
14.54000 15.155
14.56000 9.471
14.58000 4.772
14.60000 5.534
14.62000 12.980
14.64000 20.846
14.66000 6.497
14.68000 9.988
14.70000 12.740
14.72000 12.797
14.74000 10.818
14.76000 4.162
14.78000 5.445
14.80000 9.792
14.82000 2.159
14.84000 -1.048
14.86000 4.678
14.88000 10.703
14.90000 10.072
14.92000 1.104
14.94000 9.521
14.96000 18.847
14.98000 11.242
15.00000 16.019
15.02000 13.196
15.04000 7.052
15.06000 2.578
15.08000 5.461
15.10000 7.228
15.12000 5.235
15.14000 4.611
15.16000 5.717
15.18000 5.834
15.20000 7.856
15.22000 8.507
15.24000 14.460
15.26000 19.090
15.28000 13.479
15.30000 9.217
15.32000 0.921
15.34000 1.654
15.36000 10.281
15.38000 18.712
15.40000 12.431
15.42000 5.531
15.44000 8.256
15.46000 12.533
15.48000 6.968
15.50000 6.484
15.52000 6.898
15.54000 3.702
15.56000 16.261
15.58000 14.524
15.60000 17.917
15.62000 10.324
15.64000 15.276
15.66000 13.874
15.68000 9.464
15.70000 5.568
15.72000 4.929
15.74000 6.199
15.76000 7.398
15.78000 4.159
15.80000 5.984
15.82000 8.621
15.84000 6.452
15.86000 9.704
15.88000 3.054
15.90000 2.014
15.92000 -4.465
15.94000 2.974
15.96000 10.341
15.98000 11.278
16.00000 12.742
16.02000 5.945
16.04000 9.659
16.06000 5.747
16.08000 4.488
16.10000 13.996
16.12000 15.765
16.14000 13.543
16.16000 9.600
16.18000 15.671
16.20000 13.143
16.22000 8.753
16.24000 7.020
16.26000 9.530
16.28000 7.337
16.30000 2.415
16.32000 -0.079
16.34000 3.798
16.36000 4.960
16.38000 3.716
16.40000 -0.325
16.42000 0.906
16.44000 5.559
16.46000 11.953
16.48000 13.832
16.50000 5.987
16.52000 3.262
16.54000 1.723
16.56000 3.039
16.58000 6.737
16.60000 6.413
16.62000 6.453
16.64000 0.813
16.66000 -1.566
16.68000 8.087
16.70000 1.773
16.72000 1.613
16.74000 1.310
16.76000 4.346
16.78000 -2.414
16.80000 -0.071
16.82000 1.531
16.84000 4.522
16.86000 8.344
16.88000 15.952
16.90000 18.780
16.92000 13.847
16.94000 13.517
16.96000 2.598
16.98000 -0.201
17.00000 4.178
17.02000 10.016
17.04000 3.914
17.06000 3.634
17.08000 5.666
17.10000 4.010
17.12000 5.978
17.14000 8.700
17.16000 4.263
17.18000 6.283
17.20000 9.680
17.22000 6.335
17.24000 5.132
17.26000 12.491
17.28000 9.940
17.30000 10.365
17.32000 13.575
17.34000 3.688
17.36000 3.515
17.38000 7.972
17.40000 4.550
17.42000 1.539
17.44000 5.826
17.46000 4.308
17.48000 -1.291
17.50000 -1.730
17.52000 3.786
17.54000 4.895
17.56000 2.806
17.58000 6.546
17.60000 9.686
17.62000 -0.257
17.64000 2.320
17.66000 9.334
17.68000 4.549
17.70000 -2.929
17.72000 7.258
17.74000 17.246
17.76000 5.199
17.78000 6.457
17.80000 1.386
17.82000 3.765
17.84000 8.285
17.86000 0.826
17.88000 3.725
17.90000 -4.393
17.92000 -3.464
17.94000 5.269
17.96000 7.457
17.98000 7.028
18.00000 5.444
18.02000 7.959
18.04000 4.614
18.06000 1.762
18.08000 -2.804
18.10000 6.822
18.12000 9.044
18.14000 3.686
18.16000 1.238
18.18000 1.872
18.20000 1.509
18.22000 -0.740
18.24000 4.161
18.26000 9.118
18.28000 14.178
18.30000 9.522
18.32000 1.507
18.34000 2.714
18.36000 5.396
18.38000 2.824
18.40000 4.362
18.42000 0.763
18.44000 1.623
18.46000 6.604
18.48000 2.703
18.50000 4.249
18.52000 -1.331
18.54000 -4.346
18.56000 -0.268
18.58000 -0.963
18.60000 6.274
18.62000 3.806
18.64000 4.520
18.66000 1.674
18.68000 -0.090
18.70000 -0.762
18.72000 5.400
18.74000 4.040
18.76000 1.355
18.78000 7.802
18.80000 4.598
18.82000 -4.334
18.84000 -3.126
18.86000 9.922
18.88000 11.789
18.90000 10.414
18.92000 8.833
18.94000 3.196
18.96000 -3.085
18.98000 5.519
19.00000 12.862
19.02000 9.380
19.04000 2.000
19.06000 5.931
19.08000 4.272
19.10000 1.830
19.12000 2.834
19.14000 -3.512
19.16000 2.279
19.18000 9.450
19.20000 11.435
19.22000 3.449
19.24000 2.417
19.26000 0.433
19.28000 1.996
19.30000 7.984
19.32000 8.216
19.34000 5.248
19.36000 2.082
19.38000 -1.070
19.40000 -0.666
19.42000 6.325
19.44000 6.414
19.46000 -4.016
19.48000 0.653
19.50000 8.894
19.52000 5.342
19.54000 9.080
19.56000 8.467
19.58000 2.041
19.60000 -3.035
19.62000 1.519
19.64000 3.556
19.66000 9.639
19.68000 10.513
19.70000 6.233
19.72000 4.893
19.74000 4.329
19.76000 9.331
19.78000 7.569
19.80000 1.863
19.82000 -2.843
19.84000 4.877
19.86000 0.847
19.88000 -4.274
19.90000 0.232
19.92000 4.772
19.94000 1.359
19.96000 0.328
19.98000 6.299
20.00000 4.340
20.02000 3.636
20.04000 2.516
20.06000 8.649
20.08000 7.354
20.10000 2.788
20.12000 0.834
20.14000 5.880
20.16000 3.195
20.18000 4.261
20.20000 8.639
20.22000 5.028
20.24000 11.297
20.26000 9.747
20.28000 5.477
20.30000 1.429
20.32000 5.765
20.34000 4.034
20.36000 3.267
20.38000 -1.039
20.40000 6.349
20.42000 5.084
20.44000 4.270
20.46000 4.485
20.48000 -4.235
20.50000 -0.311
20.52000 -0.467
20.54000 1.155
20.56000 -4.233
20.58000 -1.063
20.60000 1.823
20.62000 4.269
20.64000 7.893
20.66000 10.534
20.68000 10.435
20.70000 0.399
20.72000 2.102
20.74000 0.384
20.76000 3.617
20.78000 8.474
20.80000 7.551
20.82000 5.383
20.84000 3.269
20.86000 7.507
20.88000 1.946
20.90000 2.800
20.92000 1.670
20.94000 8.511
20.96000 11.038
20.98000 3.023
21.00000 -1.994
21.02000 4.730
21.04000 5.167
21.06000 6.765
21.08000 1.848
21.10000 0.118
21.12000 -2.946
21.14000 -0.920
21.16000 -3.494
21.18000 -1.046
21.20000 5.864
21.22000 7.092
21.24000 1.421
21.26000 2.183
21.28000 5.724
21.30000 4.270
21.32000 4.841
21.34000 1.906
21.36000 0.240
21.38000 -0.927
21.40000 -1.226
21.42000 -1.305
21.44000 -1.052
21.46000 3.473
21.48000 3.415
21.50000 4.328
21.52000 7.755
21.54000 5.702
21.56000 4.595
21.58000 1.908
21.60000 -0.827
21.62000 -2.384
21.64000 3.654
21.66000 9.006
21.68000 0.967
21.70000 -1.439
21.72000 1.900
21.74000 2.120
21.76000 6.535
21.78000 2.505
21.80000 -1.319
21.82000 6.873
21.84000 1.527
21.86000 -2.038
21.88000 7.151
21.90000 5.362
21.92000 0.947
21.94000 0.642
21.96000 1.625
21.98000 -3.711
22.00000 -0.313
22.02000 0.454
22.04000 -0.297
22.06000 0.929
22.08000 -4.171
22.10000 -1.918
22.12000 4.380
22.14000 7.527
22.16000 4.607
22.18000 3.572
22.20000 -1.253
22.22000 2.898
22.24000 1.558
22.26000 -0.097
22.28000 2.975
22.30000 -0.410
22.32000 0.957
22.34000 4.631
22.36000 4.719
22.38000 5.274
22.40000 2.359
22.42000 2.817
22.44000 6.162
22.46000 -0.099
22.48000 0.484
22.50000 5.627
22.52000 5.857
22.54000 3.524
22.56000 2.649
22.58000 2.173
22.60000 1.746
22.62000 -1.634
22.64000 -0.306
22.66000 1.265
22.68000 1.418
22.70000 -1.693
22.72000 0.772
22.74000 -1.582
22.76000 3.817
22.78000 7.736
22.80000 7.422
22.82000 1.869
22.84000 -2.349
22.86000 -0.380
22.88000 5.404
22.90000 9.128
22.92000 9.842
22.94000 6.946
22.96000 3.642
22.98000 7.687
23.00000 3.470
23.02000 -3.753
23.04000 2.494
23.06000 5.403
23.08000 2.144
23.10000 4.242
23.12000 1.916
23.14000 1.111
23.16000 5.630
23.18000 8.998
23.20000 1.521
23.22000 -4.070
23.24000 2.850
23.26000 8.742
23.28000 3.874
23.30000 5.271
23.32000 6.800
23.34000 4.683
23.36000 4.816
23.38000 3.481
23.40000 6.999
23.42000 3.966
23.44000 5.055
23.46000 1.851
23.48000 -2.424
23.50000 1.813
23.52000 2.290
23.54000 3.929
23.56000 3.298
23.58000 1.811
23.60000 4.598
23.62000 8.839
23.64000 7.398
23.66000 3.318
23.68000 4.649
23.70000 12.239
23.72000 10.089
23.74000 6.047
23.76000 0.318
23.78000 2.422
23.80000 0.813
23.82000 3.430
23.84000 6.059
23.86000 2.768
23.88000 -0.697
23.90000 -3.967
23.92000 -0.785
23.94000 0.041
23.96000 0.676
23.98000 -1.857
24.00000 4.078
24.02000 5.938
24.04000 2.404
24.06000 1.704
24.08000 2.197
24.10000 2.335
24.12000 4.052
24.14000 2.906
24.16000 -0.567
24.18000 2.193
24.20000 5.734
24.22000 2.904
24.24000 3.212
24.26000 4.875
24.28000 2.369
24.30000 0.411
24.32000 5.616
24.34000 4.346
24.36000 4.292
24.38000 6.524
24.40000 4.269
24.42000 2.738
24.44000 2.867
24.46000 1.985
24.48000 -1.034
24.50000 4.946
24.52000 0.772
24.54000 -3.693
24.56000 -3.623
24.58000 1.983
24.60000 3.704
24.62000 8.678
24.64000 5.495
24.66000 -4.021
24.68000 -0.218
24.70000 7.048
24.72000 5.108
24.74000 10.732
24.76000 10.495
24.78000 5.751
24.80000 -3.604
24.82000 0.821
24.84000 1.565
24.86000 4.304
24.88000 6.600
24.90000 1.774
24.92000 0.461
24.94000 1.727
24.96000 0.822
24.98000 5.246
25.00000 4.236
25.02000 5.362
25.04000 4.661
25.06000 2.117
25.08000 4.936
25.10000 2.690
25.12000 1.305
25.14000 2.995
25.16000 5.258
25.18000 -0.407
25.20000 -0.595
25.22000 -0.437
25.24000 -2.807
25.26000 -0.354
25.28000 3.906
25.30000 5.664
25.32000 5.305
25.34000 1.603
25.36000 2.187
25.38000 1.140
25.40000 1.704
25.42000 0.665
25.44000 1.948
25.46000 3.246
25.48000 2.137
25.50000 -2.937
25.52000 -1.550
25.54000 0.797
25.56000 4.489
25.58000 5.732
25.60000 -1.863
25.62000 0.057
25.64000 3.776
25.66000 0.241
25.68000 -3.017
25.70000 -0.414
25.72000 -0.120
25.74000 1.703
25.76000 3.788
25.78000 9.332
25.80000 5.230
25.82000 1.799
25.84000 10.013
25.86000 6.209
25.88000 -0.662
25.90000 3.722
25.92000 1.568
25.94000 6.052
25.96000 5.376
25.98000 11.185
26.00000 7.970
26.02000 -0.954
26.04000 -0.799
26.06000 0.208
26.08000 -2.604
26.10000 -0.518
26.12000 -3.401
26.14000 -3.928
26.16000 2.292
26.18000 4.070
26.20000 4.865
26.22000 3.116
26.24000 1.438
26.26000 1.601
26.28000 0.913
26.30000 6.346
26.32000 9.076
26.34000 -0.025
26.36000 0.885
26.38000 1.693
26.40000 -1.380
26.42000 4.160
26.44000 1.647
26.46000 2.099
26.48000 4.575
26.50000 7.494
26.52000 5.055
26.54000 8.207
26.56000 8.186
26.58000 9.297
26.60000 2.133
26.62000 2.122
26.64000 0.526
26.66000 -0.944
26.68000 2.458
26.70000 1.179
26.72000 -0.566
26.74000 2.683
26.76000 2.322
26.78000 8.615
26.80000 6.527
26.82000 4.088
26.84000 2.681
26.86000 1.340
26.88000 2.924
26.90000 0.858
26.92000 -1.310
26.94000 5.028
26.96000 -0.140
26.98000 1.320
27.00000 3.125
27.02000 4.652
27.04000 7.199
27.06000 6.299
27.08000 3.716
27.10000 2.185
27.12000 5.358
27.14000 1.331
27.16000 0.563
27.18000 -1.734
27.20000 2.412
27.22000 9.283
27.24000 5.671
27.26000 3.527
27.28000 -2.633
27.30000 -2.547
27.32000 -0.303
27.34000 -1.483
27.36000 1.903
27.38000 3.503
27.40000 9.384
27.42000 5.515
27.44000 1.428
27.46000 0.619
27.48000 4.336
27.50000 4.448
27.52000 7.193
27.54000 5.101
27.56000 4.996
27.58000 6.793
27.60000 5.950
27.62000 4.542
27.64000 5.205
27.66000 5.250
27.68000 6.432
27.70000 6.660
27.72000 5.955
27.74000 3.377
27.76000 -3.817
27.78000 1.232
27.80000 3.492
27.82000 0.387
27.84000 1.768
27.86000 0.541
27.88000 2.615
27.90000 0.779
27.92000 3.350
27.94000 3.932
27.96000 4.530
27.98000 6.411
28.00000 10.150
28.02000 8.103
28.04000 7.802
28.06000 5.164
28.08000 -1.321
28.10000 0.663
28.12000 2.960
28.14000 5.283
28.16000 3.919
28.18000 3.203
28.20000 3.201
28.22000 5.428
28.24000 4.563
28.26000 4.109
28.28000 5.759
28.30000 3.839
28.32000 6.883
28.34000 8.423
28.36000 6.683
28.38000 7.655
28.40000 5.001
28.42000 3.744
28.44000 7.806
28.46000 5.163
28.48000 2.477
28.50000 5.425
28.52000 8.873
28.54000 10.975
28.56000 11.786
28.58000 5.532
28.60000 1.883
28.62000 -0.968
28.64000 1.963
28.66000 8.553
28.68000 4.454
28.70000 0.061
28.72000 4.308
28.74000 2.801
28.76000 1.976
28.78000 0.516
28.80000 7.674
28.82000 10.766
28.84000 4.183
28.86000 0.972
28.88000 1.790
28.90000 2.376
28.92000 5.647
28.94000 0.732
28.96000 -0.034
28.98000 7.489
29.00000 1.935
29.02000 3.850
29.04000 4.107
29.06000 1.314
29.08000 -0.162
29.10000 3.515
29.12000 -2.031
29.14000 3.483
29.16000 6.074
29.18000 7.318
29.20000 -0.904
29.22000 -3.769
29.24000 -0.733
29.26000 5.552
29.28000 3.497
29.30000 1.695
29.32000 1.317
29.34000 6.947
29.36000 6.691
29.38000 6.068
29.40000 2.591
29.42000 4.264
29.44000 3.007
29.46000 1.319
29.48000 3.405
29.50000 4.051
29.52000 -0.864
29.54000 5.979
29.56000 12.522
29.58000 4.604
29.60000 1.216
29.62000 -2.917
29.64000 3.262
29.66000 0.155
29.68000 0.904
29.70000 -1.737
29.72000 -2.207
29.74000 1.548
29.76000 5.026
29.78000 4.665
29.80000 -1.220
29.82000 3.158
29.84000 2.640
29.86000 0.735
29.88000 4.509
29.90000 4.279
29.92000 5.164
29.94000 5.673
29.96000 3.869
29.98000 0.340
30.00000 -1.307
30.02000 2.989
30.04000 9.270
30.06000 5.279
30.08000 -0.012
30.10000 -0.593
30.12000 5.413
30.14000 2.743
30.16000 2.330
30.18000 0.274
30.20000 1.860
30.22000 4.901
30.24000 5.983
30.26000 4.586
30.28000 0.603
30.30000 0.150
30.32000 7.732
30.34000 6.674
30.36000 3.052
30.38000 3.182
30.40000 4.815
30.42000 3.884
30.44000 5.356
30.46000 6.450
30.48000 0.646
30.50000 -1.382
30.52000 5.480
30.54000 4.664
30.56000 -3.723
30.58000 0.845
30.60000 11.609
30.62000 6.205
30.64000 6.198
30.66000 3.560
30.68000 -0.323
30.70000 1.551
30.72000 2.014
30.74000 0.784
30.76000 4.988
30.78000 3.333
30.80000 0.538
30.82000 6.342
30.84000 3.976
30.86000 4.348
30.88000 4.637
30.90000 1.001
30.92000 -0.986
30.94000 -3.677
30.96000 -0.774
30.98000 0.114
31.00000 1.706
31.02000 3.968
31.04000 2.230
31.06000 0.980
31.08000 4.288
31.10000 2.857
31.12000 7.265
31.14000 6.761
31.16000 5.280
31.18000 3.646
31.20000 3.392
31.22000 2.705
31.24000 5.205
31.26000 3.638
31.28000 6.443
31.30000 2.805
31.32000 0.429
31.34000 0.092
31.36000 2.183
31.38000 1.615
31.40000 2.920
31.42000 4.155
31.44000 1.610
31.46000 5.680
31.48000 3.584
31.50000 1.554
31.52000 0.870
31.54000 0.423
31.56000 2.879
31.58000 1.756
31.60000 -0.523
31.62000 4.548
31.64000 7.252
31.66000 5.122
31.68000 -0.211
31.70000 -1.265
31.72000 -1.357
31.74000 -0.892
31.76000 1.511
31.78000 -1.190
31.80000 -0.437
31.82000 4.465
31.84000 1.493
31.86000 -3.672
31.88000 1.938
31.90000 3.528
31.92000 4.508
31.94000 -0.049
31.96000 1.222
31.98000 5.107
32.00000 4.757
32.02000 5.792
32.04000 -0.507
32.06000 -2.017
32.08000 4.803
32.10000 6.012
32.12000 5.216
32.14000 2.189
32.16000 3.504
32.18000 2.130
32.20000 -1.079
32.22000 0.807
32.24000 5.852
32.26000 5.129
32.28000 5.320
32.30000 5.065
32.32000 5.368
32.34000 4.564
32.36000 1.095
32.38000 1.424
32.40000 -0.954
32.42000 2.065
32.44000 1.578
32.46000 -3.357
32.48000 -1.216
32.50000 2.938
32.52000 0.271
32.54000 3.352
32.56000 8.260
32.58000 9.734
32.60000 6.861
32.62000 1.799
32.64000 0.941
32.66000 2.899
32.68000 4.004
32.70000 0.913
32.72000 1.817
32.74000 0.848
32.76000 0.883
32.78000 -1.547
32.80000 -3.641
32.82000 2.434
32.84000 -0.214
32.86000 -1.389
32.88000 3.897
32.90000 3.017
32.92000 3.225
32.94000 3.924
32.96000 3.758
32.98000 3.320
33.00000 -3.653
33.02000 3.379
33.04000 8.957
33.06000 7.651
33.08000 3.746
33.10000 3.296
33.12000 7.080
33.14000 3.389
33.16000 1.033
33.18000 2.800
33.20000 5.840
33.22000 6.923
33.24000 4.327
33.26000 5.067
33.28000 0.086
33.30000 4.039
33.32000 6.849
33.34000 3.515
33.36000 -3.652
33.38000 2.439
33.40000 2.998
33.42000 4.854
33.44000 4.850
33.46000 4.174
33.48000 10.908
33.50000 8.988
33.52000 5.207
33.54000 2.053
33.56000 5.538
33.58000 -1.877
33.60000 -0.041
33.62000 5.140
33.64000 5.309
33.66000 2.029
33.68000 5.647
33.70000 1.573
33.72000 2.563
33.74000 2.061
33.76000 4.358
33.78000 5.212
33.80000 0.533
33.82000 -0.551
33.84000 2.429
33.86000 6.524
33.88000 9.409
33.90000 6.667
33.92000 1.494
33.94000 3.540
33.96000 2.336
33.98000 1.540
34.00000 0.592
34.02000 4.145
34.04000 3.163
34.06000 5.280
34.08000 5.199
34.10000 3.948
34.12000 6.775
34.14000 8.013
34.16000 5.185
34.18000 3.910
34.20000 7.340
34.22000 -0.291
34.24000 2.292
34.26000 5.374
34.28000 -2.182
34.30000 0.249
34.32000 3.057
34.34000 4.685
34.36000 -1.602
34.38000 -1.384
34.40000 2.982
34.42000 0.694
34.44000 0.434
34.46000 2.488
34.48000 1.450
34.50000 0.443
34.52000 4.386
34.54000 7.014
34.56000 -1.807
34.58000 -3.634
34.60000 1.543
34.62000 -2.031
34.64000 -3.319
34.66000 0.531
34.68000 3.322
34.70000 -0.319
34.72000 5.112
34.74000 5.564
34.76000 4.167
34.78000 -0.676
34.80000 -1.282
34.82000 -0.170
34.84000 0.935
34.86000 -2.871
34.88000 -0.462
34.90000 -2.160
34.92000 3.127
34.94000 4.538
34.96000 -3.625
34.98000 -1.813
35.00000 2.469
35.02000 4.729
35.04000 5.043
35.06000 1.298
35.08000 -0.329
35.10000 0.231
35.12000 3.255
35.14000 5.000
35.16000 3.480
35.18000 1.495
35.20000 3.758
35.22000 1.365
35.24000 2.321
35.26000 4.688
35.28000 -1.977
35.30000 -3.613
35.32000 -1.328
35.34000 -2.674
35.36000 -1.636
35.38000 0.092
35.40000 2.040
35.42000 1.537
35.44000 4.140
35.46000 7.305
35.48000 7.507
35.50000 1.026
35.52000 2.115
35.54000 3.300
35.56000 -0.272
35.58000 -0.032
35.60000 5.682
35.62000 8.090
35.64000 5.440
35.66000 7.921
35.68000 8.288
35.70000 8.837
35.72000 6.873
35.74000 -0.105
35.76000 1.342
35.78000 3.801
35.80000 3.133
35.82000 3.921
35.84000 2.745
35.86000 1.387
35.88000 2.677
35.90000 5.399
35.92000 8.082
35.94000 -3.017
35.96000 -0.904
35.98000 3.294
36.00000 -0.649
36.02000 -1.106
36.04000 -2.700
36.06000 1.998
36.08000 3.209
36.10000 3.497
36.12000 3.016
36.14000 2.301
36.16000 4.711
36.18000 4.529
36.20000 -3.378
36.22000 -0.565
36.24000 3.489
36.26000 4.747
36.28000 2.442
36.30000 -3.652
36.32000 2.051
36.34000 0.101
36.36000 1.327
36.38000 3.089
36.40000 6.946
36.42000 4.652
36.44000 5.343
36.46000 6.852
36.48000 7.285
36.50000 6.703
36.52000 3.288
36.54000 1.993
36.56000 2.279
36.58000 2.083
36.60000 3.778
36.62000 7.475
36.64000 6.212
36.66000 6.811
36.68000 8.700
36.70000 10.285
36.72000 7.665
36.74000 5.385
36.76000 7.420
36.78000 10.699
36.80000 12.983
36.82000 10.985
36.84000 7.661
36.86000 6.471
36.88000 3.990
36.90000 8.452
36.92000 10.416
36.94000 8.580
36.96000 9.325
36.98000 12.916
37.00000 13.086
37.02000 11.502
37.04000 11.020
37.06000 15.652
37.08000 10.483
37.10000 8.130
37.12000 10.218
37.14000 6.517
37.16000 10.955
37.18000 19.526
37.20000 14.791
37.22000 9.614
37.24000 13.055
37.26000 16.678
37.28000 11.577
37.30000 10.597
37.32000 12.350
37.34000 18.070
37.36000 17.711
37.38000 16.493
37.40000 14.341
37.42000 11.493
37.44000 20.252
37.46000 21.847
37.48000 19.857
37.50000 16.651
37.52000 15.611
37.54000 23.119
37.56000 20.918
37.58000 22.111
37.60000 21.558
37.62000 20.423
37.64000 19.807
37.66000 26.118
37.68000 31.079
37.70000 23.768
37.72000 23.503
37.74000 23.654
37.76000 22.696
37.78000 25.796
37.80000 23.191
37.82000 27.242
37.84000 31.809
37.86000 33.030
37.88000 32.279
37.90000 30.366
37.92000 31.930
37.94000 37.217
37.96000 36.852
37.98000 33.662
38.00000 33.032
38.02000 34.074
38.04000 37.331
38.06000 35.870
38.08000 39.546
38.10000 41.476
38.12000 46.667
38.14000 45.395
38.16000 50.681
38.18000 58.135
38.20000 58.082
38.22000 58.149
38.24000 57.414
38.26000 57.699
38.28000 62.682
38.30000 63.996
38.32000 65.256
38.34000 66.264
38.36000 69.407
38.38000 69.506
38.40000 78.086
38.42000 85.662
38.44000 90.744
38.46000 92.523
38.48000 95.758
38.50000 103.325
38.52000 110.530
38.54000 111.333
38.56000 114.587
38.58000 124.233
38.60000 131.399
38.62000 141.874
38.64000 154.050
38.66000 156.828
38.68000 166.955
38.70000 175.155
38.72000 191.002
38.74000 196.286
38.76000 199.468
38.78000 211.878
38.80000 222.994
38.82000 241.064
38.84000 255.009
38.86000 272.471
38.88000 288.241
38.90000 294.493
38.92000 307.819
38.94000 323.070
38.96000 333.257
38.98000 339.280
39.00000 344.900
39.02000 360.717
39.04000 373.950
39.06000 382.044
39.08000 383.322
39.10000 391.859
39.12000 400.532
39.14000 391.162
39.16000 386.510
39.18000 394.120
39.20000 385.938
39.22000 382.129
39.24000 369.118
39.26000 358.453
39.28000 344.686
39.30000 332.918
39.32000 316.663
39.34000 308.418
39.36000 295.057
39.38000 288.986
39.40000 269.805
39.42000 259.158
39.44000 243.851
39.46000 234.149
39.48000 212.719
39.50000 201.658
39.52000 190.056
39.54000 182.571
39.56000 172.292
39.58000 166.688
39.60000 152.506
39.62000 145.804
39.64000 132.260
39.66000 119.329
39.68000 115.221
39.70000 111.516
39.72000 109.446
39.74000 98.970
39.76000 95.101
39.78000 85.267
39.80000 81.190
39.82000 78.975
39.84000 74.659
39.86000 74.561
39.88000 63.160
39.90000 65.161
39.92000 65.040
39.94000 57.441
39.96000 53.074
39.98000 53.587
40.00000 49.285
40.02000 43.122
40.04000 47.325
40.06000 42.689
40.08000 36.164
40.10000 39.997
40.12000 40.078
40.14000 40.050
40.16000 30.684
40.18000 32.388
40.20000 32.953
40.22000 31.710
40.24000 32.341
40.26000 24.863
40.28000 21.183
40.30000 21.481
40.32000 23.441
40.34000 24.558
40.36000 24.184
40.38000 24.265
40.40000 22.449
40.42000 20.805
40.44000 16.297
40.46000 16.642
40.48000 18.309
40.50000 21.474
40.52000 20.737
40.54000 16.443
40.56000 11.387
40.58000 14.020
40.60000 12.588
40.62000 15.077
40.64000 19.185
40.66000 18.999
40.68000 17.541
40.70000 15.656
40.72000 16.905
40.74000 13.706
40.76000 13.193
40.78000 12.399
40.80000 15.385
40.82000 12.387
40.84000 8.056
40.86000 7.130
40.88000 10.787
40.90000 11.680
40.92000 11.500
40.94000 9.248
40.96000 9.874
40.98000 7.217
41.00000 11.876
41.02000 9.311
41.04000 11.026
41.06000 8.572
41.08000 6.016
41.10000 1.831
41.12000 4.146
41.14000 7.041
41.16000 9.541
41.18000 5.495
41.20000 2.107
41.22000 3.915
41.24000 3.033
41.26000 1.536
41.28000 2.509
41.30000 6.543
41.32000 9.651
41.34000 6.049
41.36000 5.687
41.38000 1.730
41.40000 -3.456
41.42000 -1.970
41.44000 3.298
41.46000 4.443
41.48000 5.738
41.50000 4.987
41.52000 -0.210
41.54000 1.677
41.56000 1.803
41.58000 -1.635
41.60000 -0.908
41.62000 0.521
41.64000 0.720
41.66000 0.478
41.68000 -0.613
41.70000 1.893
41.72000 3.802
41.74000 4.697
41.76000 8.699
41.78000 7.672
41.80000 3.603
41.82000 0.870
41.84000 0.950
41.86000 -0.876
41.88000 -2.022
41.90000 -1.389
41.92000 1.382
41.94000 -0.756
41.96000 -0.081
41.98000 -0.208
42.00000 1.293
42.02000 2.798
42.04000 3.362
42.06000 2.285
42.08000 0.448
42.10000 1.662
42.12000 -2.558
42.14000 -2.131
42.16000 -3.080
42.18000 -2.610
42.20000 -0.414
42.22000 -2.341
42.24000 -0.091
42.26000 3.495
42.28000 3.055
42.30000 0.444
42.32000 -1.670
42.34000 -0.827
42.36000 -1.496
42.38000 2.276
42.40000 -0.864
42.42000 1.458
42.44000 2.401
42.46000 0.842
42.48000 -3.333
42.50000 -2.955
42.52000 4.024
42.54000 2.623
42.56000 1.346
42.58000 2.011
42.60000 1.240
42.62000 1.365
42.64000 0.617
42.66000 0.452
42.68000 -0.878
42.70000 5.731
42.72000 7.396
42.74000 3.865
42.76000 2.004
42.78000 1.984
42.80000 4.746
42.82000 0.702
42.84000 -3.287
42.86000 -1.786
42.88000 0.883
42.90000 2.945
42.92000 -0.088
42.94000 3.171
42.96000 3.407
42.98000 0.921
43.00000 1.372
43.02000 0.227
43.04000 1.961
43.06000 1.122
43.08000 -1.163
43.10000 1.280
43.12000 0.745
43.14000 2.983
43.16000 1.694
43.18000 2.636
43.20000 -1.563
43.22000 -2.198
43.24000 1.579
43.26000 1.840
43.28000 -3.265
43.30000 -2.254
43.32000 2.459
43.34000 0.615
43.36000 0.618
43.38000 0.623
43.40000 2.429
43.42000 0.200
43.44000 -0.504
43.46000 -0.228
43.48000 2.296
43.50000 2.418
43.52000 1.990
43.54000 3.023
43.56000 -0.075
43.58000 0.523
43.60000 -0.045
43.62000 1.911
43.64000 -1.132
43.66000 -0.863
43.68000 -0.338
43.70000 0.804
43.72000 -0.120
43.74000 -2.028
43.76000 -2.923
43.78000 1.130
43.80000 1.751
43.82000 1.496
43.84000 -2.404
43.86000 -1.092
43.88000 -0.019
43.90000 -0.918
43.92000 -1.131
43.94000 2.527
43.96000 2.835
43.98000 -3.234
44.00000 -2.512
44.02000 -1.412
44.04000 1.369
44.06000 2.614
44.08000 1.550
44.10000 -1.641
44.12000 0.802
44.14000 1.263
44.16000 0.280
44.18000 2.150
44.20000 1.324
44.22000 1.559
44.24000 1.999
44.26000 3.811
44.28000 2.329
44.30000 0.825
44.32000 -0.897
44.34000 2.567
44.36000 5.942
44.38000 4.682
44.40000 2.489
44.42000 6.696
44.44000 11.928
44.46000 11.902
44.48000 6.581
44.50000 9.523
44.52000 8.434
44.54000 7.280
44.56000 7.706
44.58000 4.618
44.60000 5.887
44.62000 6.932
44.64000 7.457
44.66000 5.911
44.68000 8.721
44.70000 8.184
44.72000 11.746
44.74000 15.492
44.76000 15.630
44.78000 18.081
44.80000 18.378
44.82000 22.416
44.84000 20.010
44.86000 21.392
44.88000 30.158
44.90000 23.051
44.92000 24.676
44.94000 25.995
44.96000 25.829
44.98000 25.160
45.00000 26.252
45.02000 26.092
45.04000 34.202
45.06000 35.119
45.08000 34.742
45.10000 36.875
45.12000 42.037
45.14000 41.094
45.16000 45.012
45.18000 45.468
45.20000 45.560
45.22000 46.168
45.24000 49.592
45.26000 49.699
45.28000 53.773
45.30000 58.746
45.32000 58.804
45.34000 59.465
45.36000 62.335
45.38000 67.587
45.40000 67.922
45.42000 72.542
45.44000 70.549
45.46000 68.589
45.48000 71.348
45.50000 73.160
45.52000 81.297
45.54000 85.042
45.56000 85.239
45.58000 83.216
45.60000 85.928
45.62000 89.951
45.64000 91.276
45.66000 91.516
45.68000 90.410
45.70000 89.372
45.72000 88.559
45.74000 87.697
45.76000 87.652
45.78000 84.222
45.80000 92.167
45.82000 92.021
45.84000 89.494
45.86000 81.416
45.88000 78.742
45.90000 82.081
45.92000 82.437
45.94000 77.561
45.96000 74.339
45.98000 74.301
46.00000 73.717
46.02000 70.085
46.04000 67.586
46.06000 60.119
46.08000 58.416
46.10000 56.526
46.12000 58.347
46.14000 52.413
46.16000 48.704
46.18000 43.329
46.20000 43.900
46.22000 41.236
46.24000 40.356
46.26000 37.943
46.28000 36.277
46.30000 34.019
46.32000 30.919
46.34000 29.470
46.36000 25.795
46.38000 28.999
46.40000 28.611
46.42000 22.839
46.44000 20.847
46.46000 23.979
46.48000 23.223
46.50000 19.468
46.52000 19.926
46.54000 18.163
46.56000 15.659
46.58000 13.595
46.60000 14.031
46.62000 15.456
46.64000 10.922
46.66000 6.786
46.68000 11.476
46.70000 11.944
46.72000 11.161
46.74000 12.018
46.76000 11.102
46.78000 8.998
46.80000 8.237
46.82000 6.615
46.84000 3.579
46.86000 5.267
46.88000 2.159
46.90000 0.650
46.92000 3.873
46.94000 2.908
46.96000 1.405
46.98000 -0.411
47.00000 4.286
47.02000 7.153
47.04000 6.641
47.06000 2.665
47.08000 4.728
47.10000 3.320
47.12000 2.333
47.14000 5.643
47.16000 5.016
47.18000 2.152
47.20000 3.789
47.22000 4.926
47.24000 6.123
47.26000 1.188
47.28000 1.467
47.30000 5.049
47.32000 3.634
47.34000 1.996
47.36000 1.889
47.38000 4.090
47.40000 6.477
47.42000 2.833
47.44000 6.774
47.46000 5.252
47.48000 -0.755
47.50000 -2.764
47.52000 1.485
47.54000 -0.054
47.56000 1.614
47.58000 1.842
47.60000 0.349
47.62000 1.844
47.64000 -0.221
47.66000 -2.749
47.68000 -0.221
47.70000 4.967
47.72000 3.801
47.74000 7.158
47.76000 10.014
47.78000 5.635
47.80000 5.380
47.82000 2.448
47.84000 -0.673
47.86000 -0.391
47.88000 1.546
47.90000 1.194
47.92000 0.264
47.94000 0.886
47.96000 3.844
47.98000 5.122
48.00000 6.692
48.02000 4.280
48.04000 3.253
48.06000 0.739
48.08000 1.504
48.10000 1.493
48.12000 -2.412
48.14000 -0.864
48.16000 -1.180
48.18000 0.408
48.20000 2.435
48.22000 1.105
48.24000 3.902
48.26000 3.461
48.28000 -0.126
48.30000 -1.789
48.32000 0.491
48.34000 0.786
48.36000 2.236
48.38000 2.314
48.40000 0.993
48.42000 2.713
48.44000 2.330
48.46000 3.156
48.48000 4.825
48.50000 3.929
48.52000 2.741
48.54000 -0.003
48.56000 0.669
48.58000 -2.705
48.60000 -2.139
48.62000 -1.676
48.64000 1.181
48.66000 3.393
48.68000 -0.040
48.70000 0.449
48.72000 0.565
48.74000 3.007
48.76000 6.093
48.78000 3.261
48.80000 -0.159
48.82000 0.214
48.84000 1.146
48.86000 3.319
48.88000 2.047
48.90000 1.042
48.92000 0.426
48.94000 0.107
48.96000 -0.993
48.98000 2.416
49.00000 5.476
49.02000 4.458
49.04000 1.174
49.06000 -0.444
49.08000 0.367
49.10000 -1.338
49.12000 2.052
49.14000 3.729
49.16000 3.868
49.18000 1.491
49.20000 -1.050
49.22000 0.402
49.24000 -0.619
49.26000 -2.644
49.28000 -0.285
49.30000 4.636
49.32000 1.196
49.34000 -1.111
49.36000 1.270
49.38000 -1.830
49.40000 -0.084
49.42000 1.141
49.44000 -2.258
49.46000 -0.910
49.48000 1.711
49.50000 2.792
49.52000 2.859
49.54000 1.000
49.56000 0.118
49.58000 4.016
49.60000 3.578
49.62000 3.315
49.64000 3.140
49.66000 2.571
49.68000 2.608
49.70000 3.853
49.72000 0.626
49.74000 0.329
49.76000 2.880
49.78000 3.508
49.80000 -0.036
49.82000 4.499
49.84000 6.375
49.86000 2.705
49.88000 3.751
49.90000 1.846
49.92000 1.425
49.94000 5.646
49.96000 4.467
49.98000 -0.037
50.00000 1.631
50.02000 2.930
50.04000 1.948
50.06000 1.853
50.08000 1.215
50.10000 -0.692
50.12000 0.233
50.14000 4.316
50.16000 2.548
50.18000 0.400
50.20000 0.192
50.22000 2.175
50.24000 -0.987
50.26000 -2.615
50.28000 -2.064
50.30000 -1.122
50.32000 1.952
50.34000 6.736
50.36000 10.077
50.38000 4.718
50.40000 0.541
50.42000 1.124
50.44000 1.455
50.46000 3.202
50.48000 5.304
50.50000 1.056
50.52000 -1.548
50.54000 -1.253
50.56000 2.128
50.58000 1.866
50.60000 1.530
50.62000 2.236
50.64000 -1.027
50.66000 1.796
50.68000 -0.771
50.70000 1.211
50.72000 1.654
50.74000 3.464
50.76000 4.096
50.78000 -1.175
50.80000 -0.460
50.82000 1.059
50.84000 2.825
50.86000 1.499
50.88000 4.899
50.90000 5.798
50.92000 2.328
50.94000 3.487
50.96000 5.709
50.98000 2.861
51.00000 1.632
51.02000 -2.559
51.04000 0.574
51.06000 1.785
51.08000 0.696
51.10000 4.135
51.12000 4.383
51.14000 5.491
51.16000 1.857
51.18000 -0.773
51.20000 5.009
51.22000 2.799
51.24000 2.952
51.26000 0.825
51.28000 1.563
51.30000 3.254
51.32000 6.529
51.34000 7.227
51.36000 2.596
51.38000 4.564
51.40000 3.042
51.42000 2.144
51.44000 2.134
51.46000 1.670
51.48000 5.004
51.50000 5.572
51.52000 6.050
51.54000 5.575
51.56000 5.111
51.58000 4.028
51.60000 5.919
51.62000 4.849
51.64000 3.489
51.66000 3.716
51.68000 1.591
51.70000 0.245
51.72000 1.539
51.74000 2.993
51.76000 1.503
51.78000 -0.110
51.80000 -0.399
51.82000 0.951
51.84000 0.095
51.86000 -2.092
51.88000 -2.545
51.90000 -0.979
51.92000 2.337
51.94000 5.900
51.96000 5.221
51.98000 1.868
52.00000 6.351
52.02000 4.327
52.04000 4.273
52.06000 5.097
52.08000 4.340
52.10000 3.446
52.12000 4.161
52.14000 1.250
52.16000 1.211
52.18000 2.538
52.20000 1.094
52.22000 -1.457
52.24000 -1.063
52.26000 -2.099
52.28000 2.566
52.30000 1.199
52.32000 4.189
52.34000 0.238
52.36000 0.267
52.38000 1.614
52.40000 6.681
52.42000 4.957
52.44000 4.021
52.46000 3.951
52.48000 2.947
52.50000 2.101
52.52000 1.933
52.54000 -1.156
52.56000 2.479
52.58000 -1.401
52.60000 -0.073
52.62000 3.082
52.64000 4.925
52.66000 3.581
52.68000 0.910
52.70000 1.079
52.72000 3.943
52.74000 0.346
52.76000 -0.003
52.78000 1.788
52.80000 2.349
52.82000 4.141
52.84000 5.916
52.86000 2.808
52.88000 -0.916
52.90000 -2.004
52.92000 1.806
52.94000 2.673
52.96000 4.240
52.98000 5.650
53.00000 -0.236
53.02000 2.177
53.04000 4.044
53.06000 3.980
53.08000 1.135
53.10000 3.416
53.12000 2.999
53.14000 3.481
53.16000 4.508
53.18000 2.836
53.20000 -1.060
53.22000 0.687
53.24000 5.546
53.26000 -1.286
53.28000 0.631
53.30000 7.341
53.32000 2.200
53.34000 2.179
53.36000 2.923
53.38000 2.271
53.40000 4.744
53.42000 5.048
53.44000 0.352
53.46000 -2.509
53.48000 -0.999
53.50000 -0.945
53.52000 -0.774
53.54000 -0.249
53.56000 0.356
53.58000 -0.962
53.60000 -0.305
53.62000 0.001
53.64000 3.988
53.66000 4.108
53.68000 4.262
53.70000 5.510
53.72000 5.249
53.74000 5.304
53.76000 4.426
53.78000 2.590
53.80000 3.012
53.82000 0.496
53.84000 -0.501
53.86000 4.558
53.88000 5.522
53.90000 6.084
53.92000 4.750
53.94000 3.109
53.96000 2.008
53.98000 4.794
54.00000 7.744
54.02000 4.579
54.04000 6.110
54.06000 3.281
54.08000 0.338
54.10000 2.508
54.12000 5.987
54.14000 3.414
54.16000 3.094
54.18000 4.732
54.20000 6.835
54.22000 5.485
54.24000 4.099
54.26000 0.637
54.28000 -2.233
54.30000 -1.843
54.32000 2.163
54.34000 4.499
54.36000 4.558
54.38000 4.027
54.40000 3.704
54.42000 0.629
54.44000 8.095
54.46000 5.521
54.48000 0.737
54.50000 0.581
54.52000 -0.087
54.54000 -2.466
54.56000 1.658
54.58000 1.577
54.60000 4.219
54.62000 4.848
54.64000 4.914
54.66000 3.129
54.68000 1.915
54.70000 4.097
54.72000 4.014
54.74000 1.353
54.76000 4.140
54.78000 5.345
54.80000 3.172
54.82000 1.553
54.84000 4.811
54.86000 4.582
54.88000 6.255
54.90000 4.005
54.92000 -2.452
54.94000 -0.745
54.96000 0.821
54.98000 6.235
55.00000 6.654
55.02000 2.825
55.04000 1.843
55.06000 3.837
55.08000 2.840
55.10000 5.008
55.12000 4.201
55.14000 2.893
55.16000 0.929
55.18000 3.732
55.20000 3.518
55.22000 0.576
55.24000 -0.182
55.26000 -2.055
55.28000 -0.176
55.30000 3.030
55.32000 3.898
55.34000 1.163
55.36000 1.183
55.38000 1.900
55.40000 -0.369
55.42000 2.237
55.44000 4.255
55.46000 6.947
55.48000 4.950
55.50000 3.084
55.52000 0.159
55.54000 3.760
55.56000 5.182
55.58000 6.139
55.60000 3.391
55.62000 1.809
55.64000 1.924
55.66000 2.546
55.68000 3.212
55.70000 3.324
55.72000 7.332
55.74000 7.402
55.76000 5.846
55.78000 3.652
55.80000 3.512
55.82000 2.773
55.84000 1.153
55.86000 6.203
55.88000 4.768
55.90000 1.474
55.92000 2.329
55.94000 2.044
55.96000 -0.126
55.98000 0.925
56.00000 2.590
56.02000 -0.074
56.04000 1.874
56.06000 5.852
56.08000 5.711
56.10000 -0.240
56.12000 0.139
56.14000 5.170
56.16000 6.236
56.18000 4.954
56.20000 2.887
56.22000 -1.932
56.24000 -1.102
56.26000 1.425
56.28000 6.820
56.30000 6.606
56.32000 1.777
56.34000 0.950
56.36000 2.304
56.38000 7.798
56.40000 5.479
56.42000 1.027
56.44000 0.611
56.46000 3.819
56.48000 2.834
56.50000 -0.867
56.52000 4.514
56.54000 6.445
56.56000 5.238
56.58000 3.580
56.60000 -2.424
56.62000 0.046
56.64000 2.641
56.66000 2.336
56.68000 0.757
56.70000 0.160
56.72000 3.848
56.74000 2.849
56.76000 -0.733
56.78000 -0.751
56.80000 5.527
56.82000 4.013
56.84000 3.795
56.86000 3.159
56.88000 3.176
56.90000 4.745
56.92000 3.039
56.94000 1.098
56.96000 0.221
56.98000 4.582
57.00000 6.117
57.02000 4.570
57.04000 2.029
57.06000 3.472
57.08000 6.910
57.10000 6.593
57.12000 7.701
57.14000 6.242
57.16000 2.546
57.18000 0.238
57.20000 1.665
57.22000 3.895
57.24000 0.839
57.26000 -0.481
57.28000 -1.399
57.30000 -2.223
57.32000 -0.279
57.34000 0.410
57.36000 4.607
57.38000 6.638
57.40000 5.256
57.42000 3.096
57.44000 0.794
57.46000 3.595
57.48000 3.746
57.50000 2.217
57.52000 4.294
57.54000 6.031
57.56000 2.643
57.58000 2.663
57.60000 5.062
57.62000 4.085
57.64000 0.760
57.66000 -0.640
57.68000 0.762
57.70000 -1.254
57.72000 -2.387
57.74000 -0.632
57.76000 2.583
57.78000 0.859
57.80000 2.151
57.82000 4.286
57.84000 3.882
57.86000 3.959
57.88000 5.483
57.90000 0.194
57.92000 3.525
57.94000 4.477
57.96000 2.369
57.98000 1.727
58.00000 3.374
58.02000 2.379
58.04000 2.073
58.06000 0.356
58.08000 3.129
58.10000 5.882
58.12000 5.718
58.14000 1.678
58.16000 1.379
58.18000 4.862
58.20000 3.447
58.22000 3.824
58.24000 1.685
58.26000 2.103
58.28000 3.204
58.30000 4.156
58.32000 0.471
58.34000 0.053
58.36000 0.615
58.38000 4.537
58.40000 4.811
58.42000 3.394
58.44000 4.052
58.46000 4.067
58.48000 3.863
58.50000 1.824
58.52000 2.402
58.54000 1.686
58.56000 3.088
58.58000 -1.027
58.60000 0.429
58.62000 1.801
58.64000 5.585
58.66000 6.304
58.68000 1.336
58.70000 6.233
58.72000 7.760
58.74000 7.073
58.76000 1.963
58.78000 2.566
58.80000 -0.577
58.82000 -2.094
58.84000 2.597
58.86000 1.758
58.88000 -2.351
58.90000 -0.862
58.92000 0.343
58.94000 3.346
58.96000 4.936
58.98000 1.662
59.00000 1.839
59.02000 0.433
59.04000 1.967
59.06000 2.440
59.08000 2.220
59.10000 2.390
59.12000 3.559
59.14000 2.772
59.16000 0.396
59.18000 2.333
59.20000 2.617
59.22000 3.924
59.24000 3.592
59.26000 6.812
59.28000 1.616
59.30000 -2.344
59.32000 -0.659
59.34000 3.950
59.36000 0.660
59.38000 2.799
59.40000 3.883
59.42000 0.495
59.44000 1.163
59.46000 3.263
59.48000 4.307
59.50000 3.606
59.52000 3.160
59.54000 6.816
59.56000 4.291
59.58000 5.260
59.60000 1.988
59.62000 -0.915
59.64000 -0.531
59.66000 0.064
59.68000 2.167
59.70000 1.388
59.72000 2.029
59.74000 5.154
59.76000 7.517
59.78000 6.670
59.80000 4.931
59.82000 0.407
59.84000 0.826
59.86000 0.202
59.88000 0.832
59.90000 0.202
59.92000 3.697
59.94000 2.823
59.96000 0.056
59.98000 3.207
60.00000 1.544
60.02000 -2.333
60.04000 0.535
60.06000 4.363
60.08000 3.084
60.10000 2.053
60.12000 0.446
60.14000 3.883
60.16000 3.993
60.18000 1.835
60.20000 0.050
60.22000 0.051
60.24000 2.258
60.26000 3.438
60.28000 1.704
60.30000 2.574
60.32000 3.835
60.34000 2.452
60.36000 0.716
60.38000 2.093
60.40000 0.590
60.42000 1.713
60.44000 2.722
60.46000 2.927
60.48000 -1.134
60.50000 -2.333
60.52000 -1.442
60.54000 1.513
60.56000 2.614
60.58000 1.284
60.60000 3.758
60.62000 1.782
60.64000 -1.480
60.66000 -1.086
60.68000 -0.924
60.70000 -0.888
60.72000 1.632
60.74000 2.246
60.76000 -0.608
60.78000 -1.760
60.80000 -0.869
60.82000 0.191
60.84000 0.116
60.86000 4.112
60.88000 3.228
60.90000 1.308
60.92000 2.004
60.94000 3.129
60.96000 2.561
60.98000 -0.724
61.00000 2.034
61.02000 4.742
61.04000 1.409
61.06000 -0.232
61.08000 -1.188
61.10000 -1.301
61.12000 1.491
61.14000 2.572
61.16000 0.095
61.18000 0.438
61.20000 1.823
61.22000 0.579
61.24000 6.082
61.26000 4.760
61.28000 -0.275
61.30000 0.365
61.32000 2.629
61.34000 1.314
61.36000 -1.039
61.38000 -1.609
61.40000 -0.558
61.42000 -1.754
61.44000 -1.363
61.46000 2.831
61.48000 1.684
61.50000 1.370
61.52000 1.325
61.54000 -0.763
61.56000 -0.398
61.58000 1.790
61.60000 2.953
61.62000 4.655
61.64000 3.087
61.66000 3.997
61.68000 0.828
61.70000 -2.277
61.72000 0.189
61.74000 2.101
61.76000 1.956
61.78000 4.424
61.80000 4.885
61.82000 2.636
61.84000 1.237
61.86000 2.695
61.88000 3.015
61.90000 3.870
61.92000 1.138
61.94000 2.616
61.96000 1.541
61.98000 2.214
62.00000 1.392
62.02000 1.130
62.04000 -0.153
62.06000 2.875
62.08000 1.166
62.10000 1.976
62.12000 2.120
62.14000 1.921
62.16000 -0.115
62.18000 -0.477
62.20000 1.633
62.22000 2.058
62.24000 0.664
62.26000 -1.737
62.28000 1.667
62.30000 2.773
62.32000 4.032
62.34000 4.038
62.36000 3.036
62.38000 2.022
62.40000 2.521
62.42000 3.344
62.44000 -0.390
62.46000 5.918
62.48000 4.590
62.50000 2.918
62.52000 0.837
62.54000 3.115
62.56000 4.386
62.58000 1.157
62.60000 3.282
62.62000 3.402
62.64000 -0.392
62.66000 -2.038
62.68000 -0.557
62.70000 0.053
62.72000 0.771
62.74000 4.309
62.76000 4.974
62.78000 2.464
62.80000 0.418
62.82000 1.870
62.84000 0.393
62.86000 -1.105
62.88000 -0.316
62.90000 3.036
62.92000 0.413
62.94000 -2.238
62.96000 0.219
62.98000 3.105
63.00000 3.785
63.02000 0.934
63.04000 -0.535
63.06000 1.572
63.08000 2.699
63.10000 -1.646
63.12000 -1.531
63.14000 1.195
63.16000 0.144
63.18000 -2.226
63.20000 0.023
63.22000 2.484
63.24000 4.377
63.26000 3.472
63.28000 4.520
63.30000 4.415
63.32000 1.716
63.34000 3.242
63.36000 2.193
63.38000 1.521
63.40000 1.304
63.42000 1.697
63.44000 0.600
63.46000 0.148
63.48000 4.110
63.50000 5.865
63.52000 4.188
63.54000 3.694
63.56000 3.839
63.58000 2.906
63.60000 1.386
63.62000 2.241
63.64000 0.704
63.66000 0.818
63.68000 2.648
63.70000 2.361
63.72000 1.984
63.74000 3.152
63.76000 1.729
63.78000 -0.527
63.80000 3.813
63.82000 2.578
63.84000 0.402
63.86000 2.894
63.88000 1.521
63.90000 1.995
63.92000 2.337
63.94000 4.039
63.96000 3.143
63.98000 1.267
64.00000 1.880
64.02000 2.688
64.04000 1.482
64.06000 -1.477
64.08000 -1.026
64.10000 2.073
64.12000 3.258
64.14000 2.002
64.16000 1.802
64.18000 0.466
64.20000 -0.696
64.22000 2.586
64.24000 3.929
64.26000 0.407
64.28000 2.922
64.30000 -0.566
64.32000 -0.220
64.34000 2.334
64.36000 2.097
64.38000 -1.416
64.40000 -1.305
64.42000 -1.192
64.44000 -1.037
64.46000 1.758
64.48000 3.173
64.50000 3.583
64.52000 3.520
64.54000 0.834
64.56000 -2.097
64.58000 -1.767
64.60000 -0.128
64.62000 2.111
64.64000 -0.502
64.66000 -0.314
64.68000 -2.253
64.70000 -1.251
64.72000 3.529
64.74000 0.875
64.76000 1.469
64.78000 0.604
64.80000 0.315
64.82000 1.972
64.84000 -0.557
64.86000 1.459
64.88000 2.956
64.90000 -0.553
64.92000 -0.559
64.94000 0.765
64.96000 1.574
64.98000 1.107
65.00000 -2.073
65.02000 -1.510
65.04000 -0.128
65.06000 -0.309
65.08000 0.473
65.10000 0.605
65.12000 0.617
65.14000 2.478
65.16000 -0.063
65.18000 -0.531
65.20000 -0.194
65.22000 -1.932
65.24000 -1.726
65.26000 3.010
65.28000 1.391
65.30000 -1.213
65.32000 -2.281
65.34000 0.791
65.36000 1.322
65.38000 -0.964
65.40000 0.476
65.42000 1.476
65.44000 -0.754
65.46000 -0.794
65.48000 -0.553
65.50000 1.802
65.52000 4.536
65.54000 2.719
65.56000 3.357
65.58000 3.091
65.60000 1.713
65.62000 -0.151
65.64000 -0.043
65.66000 -1.548
65.68000 -0.925
65.70000 -0.097
65.72000 -0.567
65.74000 -1.133
65.76000 1.633
65.78000 0.780
65.80000 1.386
65.82000 -0.062
65.84000 0.276
65.86000 1.075
65.88000 2.552
65.90000 5.634
65.92000 5.293
65.94000 2.976
65.96000 2.004
65.98000 1.688
66.00000 3.558
66.02000 3.647
66.04000 2.203
66.06000 0.263
66.08000 1.413
66.10000 2.666
66.12000 4.951
66.14000 7.102
66.16000 4.898
66.18000 6.241
66.20000 4.243
66.22000 4.944
66.24000 7.691
66.26000 12.095
66.28000 8.197
66.30000 6.088
66.32000 6.209
66.34000 8.033
66.36000 6.750
66.38000 5.886
66.40000 5.747
66.42000 3.957
66.44000 6.297
66.46000 9.067
66.48000 6.002
66.50000 7.115
66.52000 7.475
66.54000 4.945
66.56000 4.317
66.58000 5.439
66.60000 4.133
66.62000 2.956
66.64000 2.225
66.66000 4.805
66.68000 4.749
66.70000 4.478
66.72000 5.872
66.74000 7.228
66.76000 7.298
66.78000 6.226
66.80000 6.434
66.82000 5.419
66.84000 6.804
66.86000 6.090
66.88000 7.339
66.90000 2.687
66.92000 4.112
66.94000 3.072
66.96000 4.010
66.98000 4.517
67.00000 3.705
67.02000 3.953
67.04000 4.043
67.06000 0.691
67.08000 2.213
67.10000 0.149
67.12000 2.110
67.14000 -0.143
67.16000 1.907
67.18000 1.248
67.20000 1.578
67.22000 -1.138
67.24000 0.756
67.26000 2.577
67.28000 3.315
67.30000 -1.297
67.32000 -1.021
67.34000 0.591
67.36000 1.716
67.38000 2.146
67.40000 0.137
67.42000 -0.199
67.44000 0.108
67.46000 2.895
67.48000 2.605
67.50000 0.207
67.52000 -0.033
67.54000 0.566
67.56000 2.073
67.58000 1.206
67.60000 -0.961
67.62000 -2.194
67.64000 -0.407
67.66000 0.583
67.68000 0.193
67.70000 2.293
67.72000 3.092
67.74000 1.211
67.76000 2.029
67.78000 2.844
67.80000 -1.966
67.82000 -2.174
67.84000 -1.509
67.86000 -1.770
67.88000 -1.842
67.90000 1.629
67.92000 -0.059
67.94000 1.554
67.96000 2.017
67.98000 1.966
68.00000 1.714
68.02000 3.236
68.04000 1.043
68.06000 1.635
68.08000 2.334
68.10000 1.453
68.12000 -0.460
68.14000 1.152
68.16000 0.092
68.18000 1.144
68.20000 1.452
68.22000 -2.074
68.24000 -1.790
68.26000 -1.895
68.28000 0.866
68.30000 2.110
68.32000 1.685
68.34000 1.801
68.36000 1.502
68.38000 -0.700
68.40000 -1.174
68.42000 -0.913
68.44000 -1.437
68.46000 1.693
68.48000 1.065
68.50000 2.731
68.52000 -0.522
68.54000 -0.862
68.56000 -2.146
68.58000 -1.247
68.60000 1.430
68.62000 1.360
68.64000 0.879
68.66000 -0.548
68.68000 -1.492
68.70000 -1.411
68.72000 -0.710
68.74000 0.067
68.76000 0.993
68.78000 0.953
68.80000 -0.489
68.82000 -1.329
68.84000 -0.479
68.86000 -1.130
68.88000 -1.128
68.90000 -2.126
68.92000 -1.132
68.94000 -1.850
68.96000 0.863
68.98000 1.959
69.00000 0.124
69.02000 0.084
69.04000 0.885
69.06000 2.801
69.08000 1.904
69.10000 0.036
69.12000 -0.808
69.14000 -0.217
69.16000 1.037
69.18000 0.832
69.20000 -0.810
69.22000 -1.265
69.24000 -0.438
69.26000 1.573
69.28000 1.868
69.30000 0.997
69.32000 1.284
69.34000 0.723
69.36000 1.616
69.38000 2.133
69.40000 2.345
69.42000 0.411
69.44000 -1.299
69.46000 -2.103
69.48000 0.924
69.50000 0.397
69.52000 -0.975
69.54000 1.432
69.56000 0.077
69.58000 -0.584
69.60000 0.747
69.62000 1.520
69.64000 -1.410
69.66000 -2.029
69.68000 0.510
69.70000 -0.665
69.72000 -0.715
69.74000 0.620
69.76000 -0.395
69.78000 -1.061
69.80000 2.973
69.82000 3.046
69.84000 1.835
69.86000 -0.567
69.88000 -0.362
69.90000 0.938
69.92000 -1.045
69.94000 -1.093
69.96000 -0.613
69.98000 -0.739
70.00000 -2.098
70.02000 -0.753
70.04000 -1.327
70.06000 0.055
70.08000 -0.552
70.10000 0.964
70.12000 1.680
70.14000 -1.393
70.16000 -0.374
70.18000 -0.804
70.20000 1.013
70.22000 0.971
70.24000 -1.554
70.26000 -0.501
70.28000 0.376
70.30000 2.886
70.32000 2.304
70.34000 0.236
70.36000 1.657
70.38000 0.524
70.40000 0.731
70.42000 0.359
70.44000 0.349
70.46000 1.075
70.48000 -0.859
70.50000 -1.932
70.52000 1.919
70.54000 -0.152
70.56000 -0.163
70.58000 1.483
70.60000 -0.031
70.62000 0.458
70.64000 -0.432
70.66000 -0.546
70.68000 -0.572
70.70000 -1.904
70.72000 -0.105
70.74000 -0.114
70.76000 -0.525
70.78000 0.225
70.80000 -0.086
70.82000 1.734
70.84000 3.928
70.86000 1.528
70.88000 1.014
70.90000 2.655
70.92000 0.972
70.94000 0.826
70.96000 0.807
70.98000 4.268
71.00000 4.018
71.02000 1.175
71.04000 1.998
71.06000 3.448
71.08000 2.048
71.10000 -0.470
71.12000 -1.212
71.14000 -2.029
71.16000 -0.752
71.18000 2.929
71.20000 2.442
71.22000 3.202
71.24000 -0.180
71.26000 2.034
71.28000 2.846
71.30000 2.181
71.32000 6.318
71.34000 2.588
71.36000 2.949
71.38000 3.644
71.40000 3.055
71.42000 3.123
71.44000 3.350
71.46000 1.468
71.48000 1.527
71.50000 1.249
71.52000 1.984
71.54000 2.352
71.56000 -1.996
71.58000 -0.841
71.60000 2.631
71.62000 2.446
71.64000 1.266
71.66000 0.418
71.68000 -0.350
71.70000 1.091
71.72000 3.436
71.74000 2.369
71.76000 0.934
71.78000 1.197
71.80000 -1.599
71.82000 0.557
71.84000 2.737
71.86000 4.124
71.88000 6.497
71.90000 5.059
71.92000 -0.627
71.94000 -0.593
71.96000 0.957
71.98000 1.982
72.00000 3.276
72.02000 1.444
72.04000 1.356
72.06000 0.727
72.08000 0.101
72.10000 -0.094
72.12000 -1.421
72.14000 -1.227
72.16000 1.146
72.18000 -0.649
72.20000 0.726
72.22000 2.675
72.24000 1.993
72.26000 1.828
72.28000 -1.195
72.30000 3.590
72.32000 5.521
72.34000 1.997
72.36000 2.224
72.38000 1.352
72.40000 2.107
72.42000 1.443
72.44000 1.552
72.46000 1.921
72.48000 1.915
72.50000 1.235
72.52000 3.221
72.54000 4.704
72.56000 3.816
72.58000 1.965
72.60000 2.166
72.62000 1.340
72.64000 0.287
72.66000 1.464
72.68000 1.460
72.70000 0.217
72.72000 -0.998
72.74000 0.982
72.76000 0.123
72.78000 0.597
72.80000 1.164
72.82000 1.266
72.84000 0.438
72.86000 2.943
72.88000 2.050
72.90000 2.886
72.92000 3.199
72.94000 5.115
72.96000 2.866
72.98000 2.468
73.00000 4.962
73.02000 5.899
73.04000 4.217
73.06000 0.766
73.08000 -1.962
73.10000 1.291
73.12000 4.749
73.14000 1.267
73.16000 1.694
73.18000 2.751
73.20000 1.864
73.22000 1.624
73.24000 1.484
73.26000 -0.710
73.28000 0.006
73.30000 3.138
73.32000 1.884
73.34000 2.201
73.36000 3.689
73.38000 2.910
73.40000 1.145
73.42000 2.600
73.44000 3.586
73.46000 2.939
73.48000 0.732
73.50000 3.079
73.52000 2.247
73.54000 2.324
73.56000 2.674
73.58000 2.233
73.60000 1.679
73.62000 -0.206
73.64000 1.060
73.66000 1.555
73.68000 -1.213
73.70000 -1.958
73.72000 1.447
73.74000 6.382
73.76000 5.159
73.78000 0.348
73.80000 0.566
73.82000 1.618
73.84000 2.409
73.86000 5.349
73.88000 2.321
73.90000 1.770
73.92000 1.788
73.94000 2.783
73.96000 5.430
73.98000 2.101
74.00000 -0.320
74.02000 1.631
74.04000 3.381
74.06000 -0.014
74.08000 1.753
74.10000 3.636
74.12000 2.793
74.14000 2.283
74.16000 1.688
74.18000 0.859
74.20000 2.166
74.22000 0.806
74.24000 1.352
74.26000 3.352
74.28000 3.024
74.30000 3.190
74.32000 1.383
74.34000 -1.970
74.36000 2.164
74.38000 -0.500
74.40000 -0.519
74.42000 1.174
74.44000 2.600
74.46000 2.408
74.48000 1.385
74.50000 2.674
74.52000 0.207
74.54000 -0.297
74.56000 1.780
74.58000 2.078
74.60000 3.480
74.62000 2.431
74.64000 1.278
74.66000 -1.519
74.68000 -1.983
74.70000 -1.682
74.72000 0.498
74.74000 1.871
74.76000 2.712
74.78000 2.782
74.80000 1.151
74.82000 -0.653
74.84000 -0.373
74.86000 -0.927
74.88000 -0.421
74.90000 -0.139
74.92000 0.746
74.94000 -1.492
74.96000 -1.956
74.98000 -0.699
75.00000 2.702
75.02000 0.221
75.04000 -1.732
75.06000 -0.379
75.08000 -0.139
75.10000 0.277
75.12000 -1.527
75.14000 -1.988
75.16000 -0.382
75.18000 -0.421
75.20000 -0.475
75.22000 -0.203
75.24000 -0.924
75.26000 0.809
75.28000 2.685
75.30000 1.282
75.32000 -0.522
75.34000 -0.794
75.36000 -1.975
75.38000 -1.442
75.40000 -1.516
75.42000 -1.526
75.44000 0.246
75.46000 0.210
75.48000 1.799
75.50000 1.944
75.52000 2.433
75.54000 1.851
75.56000 2.682
75.58000 2.805
75.60000 -0.192
75.62000 0.070
75.64000 0.180
75.66000 0.808
75.68000 -1.013
75.70000 2.614
75.72000 4.039
75.74000 4.748
75.76000 4.214
75.78000 0.516
75.80000 1.810
75.82000 1.279
75.84000 0.432
75.86000 -0.094
75.88000 -0.181
75.90000 3.264
75.92000 2.078
75.94000 -2.006
75.96000 -0.995
75.98000 0.870
76.00000 -0.152
76.02000 0.313
76.04000 4.164
76.06000 4.748
76.08000 4.299
76.10000 5.137
76.12000 4.884
76.14000 0.789
76.16000 3.608
76.18000 4.408
76.20000 3.301
76.22000 1.448
76.24000 -1.091
76.26000 -1.842
76.28000 -1.727
76.30000 -0.437
76.32000 1.162
76.34000 0.733
76.36000 1.607
76.38000 3.594
76.40000 3.339
76.42000 0.041
76.44000 1.041
76.46000 1.740
76.48000 1.680
76.50000 -0.844
76.52000 -1.458
76.54000 -0.369
76.56000 1.136
76.58000 1.652
76.60000 4.666
76.62000 7.030
76.64000 2.535
76.66000 0.532
76.68000 0.023
76.70000 -1.076
76.72000 2.119
76.74000 2.444
76.76000 1.072
76.78000 -2.001
76.80000 3.009
76.82000 2.376
76.84000 1.003
76.86000 1.325
76.88000 -0.724
76.90000 2.747
76.92000 0.833
76.94000 -0.489
76.96000 0.719
76.98000 1.403
77.00000 0.843
77.02000 0.079
77.04000 -0.508
77.06000 4.066
77.08000 1.614
77.10000 0.482
77.12000 0.015
77.14000 2.671
77.16000 1.521
77.18000 3.099
77.20000 0.398
77.22000 -0.961
77.24000 0.323
77.26000 -0.166
77.28000 0.680
77.30000 2.520
77.32000 -0.311
77.34000 -2.041
77.36000 -1.712
77.38000 -0.147
77.40000 -0.503
77.42000 -0.944
77.44000 -0.078
77.46000 0.083
77.48000 0.361
77.50000 0.584
77.52000 1.828
77.54000 1.617
77.56000 2.643
77.58000 3.475
77.60000 1.319
77.62000 3.759
77.64000 3.078
77.66000 1.422
77.68000 2.521
77.70000 1.240
77.72000 2.381
77.74000 3.300
77.76000 2.463
77.78000 -0.047
77.80000 -1.998
77.82000 1.226
77.84000 3.645
77.86000 3.831
77.88000 0.375
77.90000 0.270
77.92000 0.815
77.94000 -1.304
77.96000 -2.069
77.98000 -0.066
78.00000 -0.342
78.02000 -2.074
78.04000 0.090
78.06000 1.719
78.08000 0.938
78.10000 1.665
78.12000 -1.688
78.14000 -0.255
78.16000 0.834
78.18000 -0.095
78.20000 -2.093
78.22000 1.225
78.24000 1.768
78.26000 -1.257
78.28000 0.576
78.30000 0.825
78.32000 0.911
78.34000 -1.397
78.36000 0.998
78.38000 3.841
78.40000 1.368
78.42000 -0.145
78.44000 0.982
78.46000 1.557
78.48000 -0.590
78.50000 2.132
78.52000 -1.323
78.54000 2.330
78.56000 1.742
78.58000 1.764
78.60000 0.661
78.62000 1.477
78.64000 2.441
78.66000 3.514
78.68000 1.239
78.70000 2.601
78.72000 2.171
78.74000 7.145
78.76000 3.825
78.78000 3.065
78.80000 0.974
78.82000 -0.353
78.84000 -0.672
78.86000 2.836
78.88000 4.467
78.90000 0.505
78.92000 0.769
78.94000 0.821
78.96000 6.116
78.98000 3.772
79.00000 2.376
79.02000 4.725
79.04000 6.941
79.06000 7.568
79.08000 4.172
79.10000 4.790
79.12000 7.527
79.14000 6.071
79.16000 3.465
79.18000 5.912
79.20000 6.053
79.22000 5.048
79.24000 6.171
79.26000 6.849
79.28000 2.513
79.30000 2.159
79.32000 5.027
79.34000 3.842
79.36000 7.329
79.38000 7.463
79.40000 9.678
79.42000 8.819
79.44000 7.881
79.46000 9.181
79.48000 6.575
79.50000 8.013
79.52000 12.854
79.54000 12.742
79.56000 12.879
79.58000 14.848
79.60000 18.741
79.62000 14.813
79.64000 11.606
79.66000 12.772
79.68000 13.833
79.70000 17.155
79.72000 18.177
79.74000 18.650
79.76000 17.703
79.78000 16.717
79.80000 18.024
79.82000 22.796
79.84000 19.633
79.86000 17.918
79.88000 19.892
79.90000 22.345
79.92000 21.959
79.94000 22.661
79.96000 21.830
79.98000 21.790
80.00000 23.939
80.02000 24.524
80.04000 22.224
80.06000 24.555
80.08000 21.672
80.10000 22.121
80.12000 24.525
80.14000 23.104
80.16000 22.807
80.18000 28.331
80.20000 26.016
80.22000 23.078
80.24000 19.632
80.26000 22.187
80.28000 24.736
80.30000 23.692
80.32000 23.177
80.34000 21.505
80.36000 24.236
80.38000 22.112
80.40000 20.765
80.42000 18.071
80.44000 15.504
80.46000 17.211
80.48000 15.218
80.50000 18.091
80.52000 19.057
80.54000 15.189
80.56000 16.062
80.58000 14.752
80.60000 12.357
80.62000 11.315
80.64000 8.143
80.66000 8.542
80.68000 11.450
80.70000 12.050
80.72000 11.590
80.74000 10.985
80.76000 12.023
80.78000 10.308
80.80000 6.198
80.82000 2.995
80.84000 8.060
80.86000 7.967
80.88000 8.349
80.90000 6.784
80.92000 6.499
80.94000 7.009
80.96000 8.314
80.98000 7.351
81.00000 7.210
81.02000 6.822
81.04000 3.942
81.06000 0.367
81.08000 5.302
81.10000 4.636
81.12000 5.650
81.14000 4.805
81.16000 5.667
81.18000 2.145
81.20000 1.145
81.22000 0.554
81.24000 3.079
81.26000 1.165
81.28000 -1.005
81.30000 0.456
81.32000 1.333
81.34000 2.724
81.36000 1.252
81.38000 -1.148
81.40000 1.675
81.42000 1.176
81.44000 1.998
81.46000 1.145
81.48000 -0.903
81.50000 0.611
81.52000 1.271
81.54000 1.727
81.56000 0.501
81.58000 2.978
81.60000 2.630
81.62000 2.115
81.64000 1.325
81.66000 0.696
81.68000 -2.219
81.70000 1.865
81.72000 2.591
81.74000 1.010
81.76000 3.287
81.78000 2.471
81.80000 1.664
81.82000 -0.277
81.84000 1.396
81.86000 1.565
81.88000 1.005
81.90000 3.041
81.92000 2.842
81.94000 1.789
81.96000 1.162
81.98000 -0.018
82.00000 2.590
82.02000 3.541
82.04000 6.624
82.06000 4.235
82.08000 2.496
82.10000 3.797
82.12000 3.228
82.14000 1.889
82.16000 -2.214
82.18000 -0.680
82.20000 1.551
82.22000 -1.870
82.24000 1.461
82.26000 0.295
82.28000 4.029
82.30000 4.653
82.32000 6.912
82.34000 3.311
82.36000 1.704
82.38000 3.658
82.40000 -2.134
82.42000 -0.811
82.44000 2.967
82.46000 1.275
82.48000 -0.669
82.50000 0.034
82.52000 3.904
82.54000 3.557
82.56000 4.162
82.58000 -1.953
82.60000 3.222
82.62000 3.388
82.64000 2.102
82.66000 2.004
82.68000 3.456
82.70000 3.446
82.72000 3.891
82.74000 -0.774
82.76000 2.767
82.78000 3.157
82.80000 2.487
82.82000 5.824
82.84000 7.017
82.86000 6.420
82.88000 8.945
82.90000 7.763
82.92000 6.748
82.94000 10.298
82.96000 7.237
82.98000 9.023
83.00000 10.365
83.02000 5.037
83.04000 5.278
83.06000 6.657
83.08000 9.303
83.10000 9.384
83.12000 9.516
83.14000 9.145
83.16000 9.739
83.18000 8.462
83.20000 10.424
83.22000 7.999
83.24000 8.525
83.26000 11.719
83.28000 10.889
83.30000 11.072
83.32000 11.763
83.34000 13.336
83.36000 17.739
83.38000 14.926
83.40000 14.868
83.42000 14.546
83.44000 17.135
83.46000 19.967
83.48000 21.748
83.50000 17.726
83.52000 19.632
83.54000 21.188
83.56000 21.671
83.58000 23.019
83.60000 22.638
83.62000 26.086
83.64000 27.808
83.66000 32.041
83.68000 33.922
83.70000 30.361
83.72000 32.284
83.74000 30.511
83.76000 29.310
83.78000 35.208
83.80000 36.255
83.82000 33.554
83.84000 33.705
83.86000 38.350
83.88000 38.239
83.90000 38.366
83.92000 36.960
83.94000 36.740
83.96000 38.017
83.98000 37.706
84.00000 43.140
84.02000 41.341
84.04000 38.348
84.06000 37.795
84.08000 35.793
84.10000 36.666
84.12000 37.314
84.14000 37.124
84.16000 37.746
84.18000 36.107
84.20000 34.722
84.22000 36.589
84.24000 39.535
84.26000 39.137
84.28000 35.274
84.30000 32.895
84.32000 28.034
84.34000 32.311
84.36000 32.807
84.38000 26.245
84.40000 27.363
84.42000 28.856
84.44000 27.590
84.46000 28.291
84.48000 27.633
84.50000 24.756
84.52000 23.544
84.54000 26.873
84.56000 21.648
84.58000 24.660
84.60000 25.136
84.62000 23.898
84.64000 19.917
84.66000 18.139
84.68000 16.727
84.70000 17.221
84.72000 15.103
84.74000 11.543
84.76000 11.901
84.78000 11.512
84.80000 11.972
84.82000 12.773
84.84000 9.828
84.86000 10.239
84.88000 7.525
84.90000 7.270
84.92000 8.605
84.94000 10.717
84.96000 7.285
84.98000 4.856
85.00000 2.248
85.02000 6.298
85.04000 7.582
85.06000 5.843
85.08000 3.405
85.10000 4.285
85.12000 2.620
85.14000 1.721
85.16000 6.567
85.18000 7.066
85.20000 3.000
85.22000 3.153
85.24000 -0.234
85.26000 2.345
85.28000 4.950
85.30000 4.544
85.32000 5.548
85.34000 3.655
85.36000 -0.785
85.38000 -0.548
85.40000 -0.047
85.42000 2.119
85.44000 0.012
85.46000 1.539
85.48000 2.311
85.50000 2.369
85.52000 2.576
85.54000 0.020
85.56000 -1.988
85.58000 -1.047
85.60000 1.561
85.62000 0.449
85.64000 2.533
85.66000 2.723
85.68000 4.421
85.70000 0.762
85.72000 0.998
85.74000 2.445
85.76000 1.471
85.78000 -0.019
85.80000 2.185
85.82000 3.995
85.84000 0.772
85.86000 3.968
85.88000 4.682
85.90000 4.015
85.92000 3.063
85.94000 4.740
85.96000 4.811
85.98000 3.673
86.00000 2.372
86.02000 2.328
86.04000 0.659
86.06000 0.638
86.08000 -0.127
86.10000 -0.381
86.12000 -0.466
86.14000 0.797
86.16000 2.690
86.18000 5.915
86.20000 4.401
86.22000 -0.048
86.24000 2.543
86.26000 5.119
86.28000 2.470
86.30000 2.137
86.32000 3.287
86.34000 3.220
86.36000 1.838
86.38000 1.675
86.40000 2.885
86.42000 -1.513
86.44000 -1.846
86.46000 2.672
86.48000 4.567
86.50000 7.505
86.52000 6.737
86.54000 6.260
86.56000 2.661
86.58000 0.897
86.60000 3.549
86.62000 3.621
86.64000 3.812
86.66000 3.363
86.68000 2.157
86.70000 4.113
86.72000 4.340
86.74000 2.973
86.76000 3.568
86.78000 2.200
86.80000 4.885
86.82000 4.222
86.84000 3.756
86.86000 2.095
86.88000 2.234
86.90000 1.990
86.92000 1.205
86.94000 4.220
86.96000 6.359
86.98000 5.221
87.00000 4.203
87.02000 0.915
87.04000 2.172
87.06000 0.261
87.08000 0.392
87.10000 0.028
87.12000 0.736
87.14000 0.314
87.16000 -1.017
87.18000 1.131
87.20000 2.392
87.22000 0.076
87.24000 1.366
87.26000 -0.390
87.28000 -0.688
87.30000 -0.856
87.32000 0.991
87.34000 -0.005
87.36000 1.371
87.38000 -0.108
87.40000 2.499
87.42000 1.379
87.44000 1.310
87.46000 1.559
87.48000 1.124
87.50000 0.327
87.52000 -1.048
87.54000 -1.080
87.56000 -0.227
87.58000 2.080
87.60000 0.732
87.62000 -0.383
87.64000 1.995
87.66000 0.571
87.68000 1.542
87.70000 1.958
87.72000 4.847
87.74000 3.928
87.76000 1.889
87.78000 -1.840
87.80000 0.372
87.82000 3.038
87.84000 1.401
87.86000 3.441
87.88000 2.543
87.90000 2.733
87.92000 3.494
87.94000 1.885
87.96000 4.178
87.98000 1.743
88.00000 -1.828
88.02000 -1.101
88.04000 1.200
88.06000 -0.902
88.08000 3.024
88.10000 4.576
88.12000 5.745
88.14000 8.365
88.16000 4.052
88.18000 3.017
88.20000 3.648
88.22000 2.381
88.24000 1.508
88.26000 1.029
88.28000 3.268
88.30000 3.621
88.32000 6.369
88.34000 4.743
88.36000 3.699
88.38000 1.949
88.40000 0.911
88.42000 -1.072
88.44000 3.095
88.46000 1.135
88.48000 -0.409
88.50000 1.961
88.52000 2.320
88.54000 2.870
88.56000 4.705
88.58000 2.245
88.60000 2.062
88.62000 1.948
88.64000 -1.225
88.66000 -0.741
88.68000 2.376
88.70000 2.549
88.72000 3.443
88.74000 2.362
88.76000 4.083
88.78000 1.582
88.80000 2.026
88.82000 2.919
88.84000 0.680
88.86000 -1.810
88.88000 1.901
88.90000 1.639
88.92000 3.210
88.94000 1.194
88.96000 0.911
88.98000 3.853
89.00000 6.703
89.02000 4.793
89.04000 4.430
89.06000 5.217
89.08000 2.853
89.10000 3.214
89.12000 1.249
89.14000 1.727
89.16000 4.984
89.18000 4.146
89.20000 4.021
89.22000 0.589
89.24000 0.039
89.26000 2.264
89.28000 2.245
89.30000 3.968
89.32000 2.894
89.34000 4.786
89.36000 4.505
89.38000 4.215
89.40000 1.521
89.42000 0.405
89.44000 2.428
89.46000 2.545
89.48000 3.629
89.50000 1.813
89.52000 1.311
89.54000 2.725
89.56000 3.955
89.58000 1.798
89.60000 5.505
89.62000 3.041
89.64000 3.731
89.66000 3.125
89.68000 4.464
89.70000 3.221
89.72000 3.366
89.74000 2.747
89.76000 1.854
89.78000 3.513
89.80000 1.212
89.82000 1.461
89.84000 1.727
89.86000 1.836
89.88000 3.121
89.90000 1.991
89.92000 1.331
89.94000 3.361
89.96000 5.207
89.98000 4.296
90.00000 2.630
90.02000 2.948
90.04000 3.813
90.06000 3.682
90.08000 1.859
90.10000 1.233
90.12000 2.912
90.14000 4.289
90.16000 0.271
90.18000 -1.795
90.20000 0.801
90.22000 3.917
90.24000 1.967
90.26000 -0.210
90.28000 2.409
90.30000 1.572
90.32000 2.313
90.34000 1.210
90.36000 0.833
90.38000 -1.060
90.40000 -1.274
90.42000 0.904
90.44000 1.909
90.46000 -0.228
90.48000 2.018
90.50000 2.256
90.52000 2.248
90.54000 0.915
90.56000 3.228
90.58000 0.752
90.60000 1.167
90.62000 2.412
90.64000 1.576
90.66000 0.216
90.68000 -0.686
90.70000 -1.080
90.72000 -1.387
90.74000 0.474
90.76000 0.163
90.78000 1.361
90.80000 6.135
90.82000 8.933
90.84000 3.476
90.86000 -1.351
90.88000 -1.567
90.90000 2.121
90.92000 1.755
90.94000 1.473
90.96000 5.117
90.98000 1.857
91.00000 1.581
91.02000 -1.492
91.04000 1.354
91.06000 3.489
91.08000 2.987
91.10000 3.512
91.12000 3.090
91.14000 3.540
91.16000 0.591
91.18000 -0.618
91.20000 1.543
91.22000 0.630
91.24000 2.580
91.26000 0.276
91.28000 0.508
91.30000 -0.150
91.32000 -1.003
91.34000 0.879
91.36000 1.504
91.38000 0.873
91.40000 1.989
91.42000 1.102
91.44000 -1.024
91.46000 1.639
91.48000 2.853
91.50000 3.102
91.52000 4.255
91.54000 1.838
91.56000 3.193
91.58000 4.261
91.60000 -0.932
91.62000 -1.442
91.64000 0.377
91.66000 -0.290
91.68000 1.468
91.70000 4.015
91.72000 3.571
91.74000 2.662
91.76000 7.779
91.78000 5.499
91.80000 4.753
91.82000 2.498
91.84000 4.526
91.86000 6.856
91.88000 3.863
91.90000 1.894
91.92000 3.737
91.94000 3.540
91.96000 1.377
91.98000 2.398
92.00000 0.924
92.02000 -1.177
92.04000 -1.827
92.06000 0.778
92.08000 3.084
92.10000 0.023
92.12000 1.276
92.14000 1.819
92.16000 3.178
92.18000 1.637
92.20000 3.029
92.22000 0.907
92.24000 -1.826
92.26000 -1.728
92.28000 1.391
92.30000 4.493
92.32000 1.340
92.34000 2.194
92.36000 4.256
92.38000 1.829
92.40000 0.793
92.42000 0.640
92.44000 1.315
92.46000 -0.609
92.48000 0.227
92.50000 -0.213
92.52000 1.258
92.54000 0.543
92.56000 0.838
92.58000 2.134
92.60000 1.376
92.62000 2.206
92.64000 5.577
92.66000 2.592
92.68000 5.396
92.70000 2.081
92.72000 3.808
92.74000 1.611
92.76000 1.653
92.78000 4.913
92.80000 4.480
92.82000 3.210
92.84000 3.873
92.86000 4.837
92.88000 3.887
92.90000 3.803
92.92000 1.665
92.94000 2.663
92.96000 -1.836
92.98000 -0.565
93.00000 -0.882
93.02000 2.184
93.04000 2.905
93.06000 0.342
93.08000 1.656
93.10000 5.191
93.12000 3.245
93.14000 2.581
93.16000 0.648
93.18000 3.060
93.20000 2.878
93.22000 1.864
93.24000 1.650
93.26000 3.654
93.28000 2.840
93.30000 0.500
93.32000 0.282
93.34000 0.639
93.36000 -0.387
93.38000 2.166
93.40000 1.411
93.42000 0.453
93.44000 0.477
93.46000 -0.265
93.48000 0.600
93.50000 2.098
93.52000 -0.885
93.54000 -0.375
93.56000 1.748
93.58000 4.688
93.60000 4.449
93.62000 3.913
93.64000 2.471
93.66000 2.355
93.68000 2.057
93.70000 3.254
93.72000 0.630
93.74000 2.342
93.76000 0.466
93.78000 2.348
93.80000 4.782
93.82000 1.968
93.84000 4.183
93.86000 4.316
93.88000 2.684
93.90000 2.483
93.92000 1.780
93.94000 2.927
93.96000 2.763
93.98000 -0.419
94.00000 -0.284
94.02000 -0.053
94.04000 1.969
94.06000 0.932
94.08000 -0.045
94.10000 1.143
94.12000 3.524
94.14000 4.319
94.16000 3.493
94.18000 7.125
94.20000 5.220
94.22000 2.583
94.24000 1.487
94.26000 6.057
94.28000 3.411
94.30000 0.104
94.32000 -1.863
94.34000 1.624
94.36000 -0.112
94.38000 0.370
94.40000 1.327
94.42000 1.342
94.44000 4.104
94.46000 4.274
94.48000 1.773
94.50000 0.984
94.52000 1.065
94.54000 1.945
94.56000 -0.141
94.58000 0.356
94.60000 0.945
94.62000 3.319
94.64000 2.516
94.66000 -0.392
94.68000 -1.441
94.70000 1.119
94.72000 2.951
94.74000 -0.347
94.76000 0.356
94.78000 1.020
94.80000 3.947
94.82000 3.539
94.84000 2.930
94.86000 2.154
94.88000 1.856
94.90000 2.437
94.92000 1.655
94.94000 -0.292
94.96000 -1.865
94.98000 -0.086
95.00000 2.970
95.02000 4.560
95.04000 3.904
95.06000 4.948
95.08000 3.410
95.10000 0.050
95.12000 -0.391
95.14000 1.807
95.16000 4.679
95.18000 1.882
95.20000 1.464
95.22000 5.012
95.24000 6.398
95.26000 2.473
95.28000 3.740
95.30000 5.558
95.32000 2.559
95.34000 0.572
95.36000 -1.642
95.38000 -1.728
95.40000 3.969
95.42000 1.860
95.44000 1.310
95.46000 1.442
95.48000 5.319
95.50000 3.639
95.52000 3.757
95.54000 -0.239
95.56000 1.235
95.58000 2.670
95.60000 4.273
95.62000 3.989
95.64000 3.085
95.66000 0.568
95.68000 1.416
95.70000 3.491
95.72000 1.722
95.74000 -1.021
95.76000 -0.379
95.78000 3.468
95.80000 0.518
95.82000 0.750
95.84000 1.361
95.86000 3.556
95.88000 2.827
95.90000 1.833
95.92000 2.328
95.94000 2.605
95.96000 6.097
95.98000 5.835
96.00000 4.675
96.02000 3.726
96.04000 0.660
96.06000 -1.693
96.08000 0.230
96.10000 0.915
96.12000 1.658
96.14000 0.422
96.16000 2.412
96.18000 2.545
96.20000 2.035
96.22000 5.021
96.24000 3.070
96.26000 2.889
96.28000 4.638
96.30000 4.999
96.32000 0.885
96.34000 1.181
96.36000 6.049
96.38000 3.635
96.40000 3.105
96.42000 3.257
96.44000 0.087
96.46000 3.341
96.48000 10.116
96.50000 6.205
96.52000 2.791
96.54000 5.722
96.56000 8.910
96.58000 7.582
96.60000 5.908
96.62000 5.422
96.64000 9.473
96.66000 7.682
96.68000 4.176
96.70000 2.131
96.72000 8.904
96.74000 6.156
96.76000 4.051
96.78000 4.651
96.80000 5.678
96.82000 4.982
96.84000 1.891
96.86000 -1.790
96.88000 1.535
96.90000 7.064
96.92000 5.650
96.94000 5.519
96.96000 2.756
96.98000 4.419
97.00000 5.601
97.02000 6.248
97.04000 5.410
97.06000 7.379
97.08000 6.372
97.10000 6.251
97.12000 4.224
97.14000 5.385
97.16000 0.815
97.18000 4.733
97.20000 12.098
97.22000 9.201
97.24000 7.724
97.26000 5.668
97.28000 4.035
97.30000 2.597
97.32000 4.333
97.34000 9.294
97.36000 5.300
97.38000 6.068
97.40000 4.468
97.42000 1.944
97.44000 0.871
97.46000 -1.217
97.48000 3.585
97.50000 3.819
97.52000 6.945
97.54000 7.428
97.56000 5.854
97.58000 5.116
97.60000 2.135
97.62000 0.336
97.64000 -1.805
97.66000 0.621
97.68000 -0.442
97.70000 4.116
97.72000 3.152
97.74000 0.237
97.76000 2.763
97.78000 4.422
97.80000 4.841
97.82000 5.425
97.84000 6.933
97.86000 8.386
97.88000 4.956
97.90000 0.231
97.92000 1.054
97.94000 1.779
97.96000 2.427
97.98000 4.635
98.00000 3.715
98.02000 6.630
98.04000 7.813
98.06000 4.403
98.08000 5.190
98.10000 4.273
98.12000 3.601
98.14000 3.822
98.16000 4.215
98.18000 3.689
98.20000 5.005
98.22000 3.512
98.24000 2.982
98.26000 -0.326
98.28000 1.011
98.30000 5.114
98.32000 2.732
98.34000 0.866
98.36000 6.653
98.38000 5.891
98.40000 1.323
98.42000 -0.878
98.44000 0.631
98.46000 5.084
98.48000 2.755
98.50000 10.376
98.52000 9.088
98.54000 9.313
98.56000 4.198
98.58000 2.485
98.60000 4.127
98.62000 8.318
98.64000 9.307
98.66000 7.429
98.68000 2.023
98.70000 4.929
98.72000 7.389
98.74000 9.713
98.76000 8.253
98.78000 5.753
98.80000 3.849
98.82000 7.282
98.84000 7.658
98.86000 0.972
98.88000 -1.762
98.90000 1.235
98.92000 7.601
98.94000 9.704
98.96000 7.987
98.98000 8.734
99.00000 7.042
99.02000 4.343
99.04000 11.683
99.06000 7.756
99.08000 3.971
99.10000 3.191
99.12000 2.157
99.14000 8.284
99.16000 6.786
99.18000 -0.113
99.20000 3.972
99.22000 5.575
99.24000 4.027
99.26000 3.867
99.28000 4.467
99.30000 9.848
99.32000 13.039
99.34000 7.365
99.36000 5.629
99.38000 8.537
99.40000 -1.516
99.42000 0.242
99.44000 -1.742
99.46000 2.964
99.48000 0.121
99.50000 2.736
99.52000 11.240
99.54000 10.078
99.56000 6.025
99.58000 5.681
99.60000 1.664
99.62000 5.877
99.64000 6.842
99.66000 5.213
99.68000 3.730
99.70000 2.714
99.72000 0.668
99.74000 1.291
99.76000 5.769
99.78000 4.465
99.80000 3.860
99.82000 8.587
99.84000 4.034
99.86000 4.167
99.88000 2.729
99.90000 4.278
99.92000 9.174
99.94000 8.470
99.96000 7.338
99.98000 0.000
