'Id: "0011387" Comment: "Integrate frame 0011387_Au-Ir-Rh_Rh-rich_XRD-Mapping-011-0000.gfrmwith cursor Wedge Cursor #5" Operator: "B?rgel" Anode: "Cu" Wavelength: "1.5406" Scantype: "2Theta (TwoTheta)" TimePerStep: "1" X: "-27" Y: "-36" Z: "5.95" 
10.00000 0.000
10.02000 10.235
10.04000 26.376
10.06000 28.490
10.08000 20.922
10.10000 13.012
10.12000 11.127
10.14000 36.645
10.16000 38.418
10.18000 31.953
10.20000 9.795
10.22000 14.508
10.24000 22.286
10.26000 24.119
10.28000 9.568
10.30000 -4.857
10.32000 6.111
10.34000 7.224
10.36000 14.141
10.38000 35.337
10.40000 25.022
10.42000 29.662
10.44000 47.553
10.46000 30.003
10.48000 10.084
10.50000 13.731
10.52000 26.562
10.54000 31.756
10.56000 28.962
10.58000 24.315
10.60000 30.047
10.62000 30.546
10.64000 15.643
10.66000 4.271
10.68000 10.492
10.70000 23.543
10.72000 14.891
10.74000 9.904
10.76000 20.414
10.78000 13.860
10.80000 11.297
10.82000 15.390
10.84000 17.834
10.86000 17.562
10.88000 20.679
10.90000 34.097
10.92000 33.583
10.94000 32.045
10.96000 2.964
10.98000 -4.759
11.00000 -1.611
11.02000 20.853
11.04000 41.571
11.06000 26.251
11.08000 21.288
11.10000 35.880
11.12000 19.122
11.14000 -1.844
11.16000 5.834
11.18000 18.195
11.20000 24.536
11.22000 23.252
11.24000 23.697
11.26000 14.731
11.28000 20.054
11.30000 21.683
11.32000 16.533
11.34000 8.757
11.36000 19.905
11.38000 13.379
11.40000 32.596
11.42000 42.705
11.44000 29.819
11.46000 20.069
11.48000 16.860
11.50000 2.006
11.52000 8.522
11.54000 9.344
11.56000 22.476
11.58000 25.480
11.60000 22.749
11.62000 21.270
11.64000 21.911
11.66000 9.930
11.68000 -4.783
11.70000 7.828
11.72000 23.476
11.74000 13.108
11.76000 7.115
11.78000 14.322
11.80000 12.394
11.82000 9.771
11.84000 16.730
11.86000 19.310
11.88000 17.175
11.90000 7.488
11.92000 27.577
11.94000 17.067
11.96000 15.154
11.98000 14.539
12.00000 18.795
12.02000 10.441
12.04000 13.094
12.06000 22.772
12.08000 27.136
12.10000 32.478
12.12000 19.592
12.14000 19.235
12.16000 10.105
12.18000 1.089
12.20000 4.781
12.22000 13.376
12.24000 14.055
12.26000 12.702
12.28000 21.948
12.30000 19.725
12.32000 10.234
12.34000 11.364
12.36000 14.675
12.38000 23.170
12.40000 34.706
12.42000 23.896
12.44000 19.755
12.46000 9.298
12.48000 -0.606
12.50000 5.693
12.52000 11.669
12.54000 7.468
12.56000 6.269
12.58000 8.420
12.60000 9.128
12.62000 0.419
12.64000 -0.655
12.66000 7.059
12.68000 4.296
12.70000 10.077
12.72000 16.571
12.74000 14.362
12.76000 17.317
12.78000 8.483
12.80000 19.380
12.82000 17.880
12.84000 20.173
12.86000 14.396
12.88000 10.558
12.90000 16.702
12.92000 11.681
12.94000 19.830
12.96000 15.681
12.98000 19.107
13.00000 29.099
13.02000 22.159
13.04000 13.111
13.06000 9.395
13.08000 16.866
13.10000 14.196
13.12000 11.452
13.14000 12.733
13.16000 15.512
13.18000 14.753
13.20000 7.646
13.22000 11.593
13.24000 16.485
13.26000 14.068
13.28000 11.404
13.30000 21.330
13.32000 21.735
13.34000 17.067
13.36000 20.351
13.38000 16.238
13.40000 12.701
13.42000 11.901
13.44000 15.646
13.46000 4.108
13.48000 10.783
13.50000 13.768
13.52000 -1.560
13.54000 3.536
13.56000 12.366
13.58000 13.888
13.60000 -0.831
13.62000 0.386
13.64000 12.470
13.66000 10.301
13.68000 7.498
13.70000 -4.798
13.72000 9.097
13.74000 5.057
13.76000 3.256
13.78000 15.120
13.80000 15.742
13.82000 12.090
13.84000 24.589
13.86000 11.359
13.88000 11.669
13.90000 18.093
13.92000 16.806
13.94000 10.520
13.96000 5.804
13.98000 12.090
14.00000 14.989
14.02000 10.377
14.04000 14.283
14.06000 15.680
14.08000 13.971
14.10000 4.500
14.12000 1.399
14.14000 2.467
14.16000 0.309
14.18000 7.789
14.20000 18.281
14.22000 26.333
14.24000 9.192
14.26000 12.475
14.28000 4.639
14.30000 13.287
14.32000 12.091
14.34000 8.689
14.36000 10.047
14.38000 13.653
14.40000 16.682
14.42000 11.127
14.44000 15.488
14.46000 13.044
14.48000 1.547
14.50000 1.358
14.52000 -4.789
14.54000 6.243
14.56000 9.350
14.58000 2.818
14.60000 10.917
14.62000 14.248
14.64000 15.036
14.66000 1.922
14.68000 7.479
14.70000 8.389
14.72000 7.600
14.74000 1.877
14.76000 1.397
14.78000 5.487
14.80000 13.158
14.82000 20.177
14.84000 7.236
14.86000 4.786
14.88000 -4.226
14.90000 -1.787
14.92000 7.410
14.94000 12.291
14.96000 16.365
14.98000 12.537
15.00000 22.256
15.02000 16.525
15.04000 9.766
15.06000 0.649
15.08000 3.534
15.10000 6.752
15.12000 2.345
15.14000 4.931
15.16000 13.432
15.18000 14.659
15.20000 12.639
15.22000 12.570
15.24000 20.196
15.26000 4.133
15.28000 9.158
15.30000 7.902
15.32000 0.613
15.34000 1.575
15.36000 4.501
15.38000 7.680
15.40000 3.563
15.42000 -2.817
15.44000 1.976
15.46000 6.582
15.48000 6.948
15.50000 3.993
15.52000 -4.419
15.54000 2.054
15.56000 -2.236
15.58000 8.351
15.60000 11.175
15.62000 9.147
15.64000 -1.342
15.66000 5.823
15.68000 6.141
15.70000 12.839
15.72000 4.030
15.74000 -0.978
15.76000 3.128
15.78000 0.792
15.80000 -2.718
15.82000 11.443
15.84000 8.583
15.86000 4.867
15.88000 3.801
15.90000 3.080
15.92000 1.450
15.94000 9.280
15.96000 6.435
15.98000 14.541
16.00000 5.718
16.02000 7.726
16.04000 17.057
16.06000 18.453
16.08000 12.123
16.10000 2.701
16.12000 2.105
16.14000 7.970
16.16000 8.132
16.18000 5.022
16.20000 4.310
16.22000 4.400
16.24000 12.117
16.26000 12.240
16.28000 4.900
16.30000 -3.274
16.32000 3.353
16.34000 2.002
16.36000 -3.292
16.38000 -1.506
16.40000 -4.711
16.42000 7.756
16.44000 2.635
16.46000 6.123
16.48000 -2.872
16.50000 1.346
16.52000 5.699
16.54000 0.647
16.56000 -1.080
16.58000 2.758
16.60000 1.528
16.62000 -2.847
16.64000 4.208
16.66000 15.027
16.68000 11.179
16.70000 7.792
16.72000 6.288
16.74000 3.082
16.76000 -1.630
16.78000 7.087
16.80000 9.712
16.82000 7.967
16.84000 9.625
16.86000 8.775
16.88000 7.766
16.90000 0.815
16.92000 1.300
16.94000 2.277
16.96000 3.775
16.98000 13.128
17.00000 12.784
17.02000 6.747
17.04000 4.988
17.06000 5.485
17.08000 12.234
17.10000 8.287
17.12000 9.297
17.14000 14.508
17.16000 8.842
17.18000 4.917
17.20000 4.723
17.22000 17.665
17.24000 7.492
17.26000 -4.214
17.28000 2.201
17.30000 3.518
17.32000 -0.615
17.34000 -0.589
17.36000 1.716
17.38000 0.758
17.40000 1.896
17.42000 -1.710
17.44000 0.133
17.46000 8.195
17.48000 9.452
17.50000 5.128
17.52000 7.984
17.54000 11.930
17.56000 21.805
17.58000 14.065
17.60000 -1.967
17.62000 -4.640
17.64000 -3.377
17.66000 8.858
17.68000 14.928
17.70000 12.068
17.72000 11.963
17.74000 6.637
17.76000 2.605
17.78000 9.893
17.80000 6.219
17.82000 0.207
17.84000 8.486
17.86000 9.268
17.88000 4.691
17.90000 7.511
17.92000 6.696
17.94000 7.800
17.96000 5.430
17.98000 4.680
18.00000 -1.130
18.02000 -3.421
18.04000 -0.292
18.06000 3.735
18.08000 7.035
18.10000 4.378
18.12000 4.205
18.14000 -4.556
18.16000 0.605
18.18000 6.668
18.20000 2.642
18.22000 -1.342
18.24000 5.734
18.26000 2.100
18.28000 4.820
18.30000 -3.493
18.32000 -1.683
18.34000 -1.068
18.36000 8.116
18.38000 2.893
18.40000 -2.202
18.42000 4.900
18.44000 2.846
18.46000 2.390
18.48000 -4.597
18.50000 -0.401
18.52000 10.310
18.54000 13.695
18.56000 6.724
18.58000 6.030
18.60000 -2.307
18.62000 0.724
18.64000 10.800
18.66000 12.022
18.68000 1.481
18.70000 -1.976
18.72000 3.124
18.74000 6.762
18.76000 7.250
18.78000 0.574
18.80000 -1.912
18.82000 0.414
18.84000 -2.197
18.86000 -1.402
18.88000 2.634
18.90000 7.712
18.92000 0.101
18.94000 -0.416
18.96000 6.322
18.98000 10.474
19.00000 5.041
19.02000 -0.341
19.04000 0.674
19.06000 4.867
19.08000 5.034
19.10000 2.477
19.12000 -1.058
19.14000 0.231
19.16000 0.891
19.18000 -2.769
19.20000 -2.465
19.22000 -4.560
19.24000 -4.192
19.26000 1.916
19.28000 13.681
19.30000 11.121
19.32000 8.735
19.34000 11.443
19.36000 7.637
19.38000 -1.901
19.40000 -4.455
19.42000 1.948
19.44000 8.228
19.46000 3.195
19.48000 -0.608
19.50000 -2.332
19.52000 6.794
19.54000 6.873
19.56000 0.257
19.58000 -0.443
19.60000 -1.108
19.62000 -1.040
19.64000 6.568
19.66000 3.511
19.68000 2.464
19.70000 4.025
19.72000 4.699
19.74000 -2.343
19.76000 -1.448
19.78000 0.736
19.80000 3.589
19.82000 0.912
19.84000 -2.735
19.86000 -2.115
19.88000 -2.462
19.90000 1.412
19.92000 3.047
19.94000 4.138
19.96000 0.923
19.98000 4.144
20.00000 8.439
20.02000 13.171
20.04000 15.422
20.06000 11.370
20.08000 0.860
20.10000 1.728
20.12000 7.929
20.14000 7.869
20.16000 7.560
20.18000 12.344
20.20000 6.133
20.22000 10.609
20.24000 6.693
20.26000 1.806
20.28000 -2.555
20.30000 -4.460
20.32000 -3.969
20.34000 -4.014
20.36000 -0.616
20.38000 6.074
20.40000 12.426
20.42000 9.137
20.44000 7.751
20.46000 6.506
20.48000 -3.101
20.50000 -4.446
20.52000 6.622
20.54000 13.989
20.56000 5.351
20.58000 5.077
20.60000 12.107
20.62000 6.001
20.64000 5.126
20.66000 3.866
20.68000 9.506
20.70000 2.688
20.72000 1.365
20.74000 5.993
20.76000 10.684
20.78000 14.595
20.80000 6.887
20.82000 13.298
20.84000 8.254
20.86000 -1.583
20.88000 3.479
20.90000 4.807
20.92000 -0.326
20.94000 1.805
20.96000 8.573
20.98000 5.080
21.00000 4.275
21.02000 7.158
21.04000 9.034
21.06000 0.690
21.08000 -4.409
21.10000 6.805
21.12000 7.710
21.14000 6.667
21.16000 0.665
21.18000 2.267
21.20000 5.404
21.22000 5.448
21.24000 9.546
21.26000 6.275
21.28000 1.358
21.30000 3.167
21.32000 10.234
21.34000 3.602
21.36000 1.461
21.38000 11.952
21.40000 16.205
21.42000 8.659
21.44000 0.262
21.46000 3.380
21.48000 3.650
21.50000 5.407
21.52000 6.856
21.54000 7.618
21.56000 5.590
21.58000 6.263
21.60000 4.999
21.62000 4.405
21.64000 6.432
21.66000 -0.680
21.68000 6.200
21.70000 9.972
21.72000 -0.842
21.74000 -0.428
21.76000 10.149
21.78000 5.261
21.80000 6.343
21.82000 9.696
21.84000 3.740
21.86000 0.002
21.88000 0.323
21.90000 6.552
21.92000 10.794
21.94000 7.564
21.96000 2.821
21.98000 1.914
22.00000 2.367
22.02000 -1.646
22.04000 -0.145
22.06000 7.386
22.08000 10.427
22.10000 2.232
22.12000 9.205
22.14000 3.458
22.16000 0.549
22.18000 5.293
22.20000 7.244
22.22000 5.602
22.24000 1.466
22.26000 1.019
22.28000 3.056
22.30000 -2.399
22.32000 -4.309
22.34000 5.576
22.36000 7.365
22.38000 10.856
22.40000 4.383
22.42000 6.689
22.44000 9.702
22.46000 7.923
22.48000 8.744
22.50000 4.025
22.52000 12.072
22.54000 7.866
22.56000 4.641
22.58000 -1.095
22.60000 7.075
22.62000 9.314
22.64000 8.128
22.66000 3.731
22.68000 6.025
22.70000 10.403
22.72000 -0.191
22.74000 -2.198
22.76000 3.367
22.78000 7.319
22.80000 4.493
22.82000 5.013
22.84000 2.390
22.86000 4.025
22.88000 5.677
22.90000 7.397
22.92000 0.931
22.94000 0.781
22.96000 4.115
22.98000 -0.713
23.00000 4.269
23.02000 4.686
23.04000 -1.000
23.06000 -2.361
23.08000 -0.080
23.10000 0.537
23.12000 1.414
23.14000 3.633
23.16000 3.818
23.18000 10.799
23.20000 14.892
23.22000 12.173
23.24000 10.866
23.26000 11.223
23.28000 4.939
23.30000 5.347
23.32000 3.780
23.34000 3.865
23.36000 -1.748
23.38000 -4.218
23.40000 6.199
23.42000 6.746
23.44000 5.620
23.46000 8.052
23.48000 4.015
23.50000 1.255
23.52000 5.195
23.54000 5.751
23.56000 5.486
23.58000 5.426
23.60000 5.141
23.62000 -0.692
23.64000 0.286
23.66000 0.339
23.68000 9.070
23.70000 10.568
23.72000 6.259
23.74000 7.151
23.76000 6.303
23.78000 4.057
23.80000 6.581
23.82000 4.723
23.84000 8.589
23.86000 4.772
23.88000 3.445
23.90000 9.280
23.92000 2.653
23.94000 0.261
23.96000 -4.197
23.98000 9.743
24.00000 13.413
24.02000 11.420
24.04000 10.190
24.06000 8.767
24.08000 6.393
24.10000 7.309
24.12000 6.721
24.14000 2.571
24.16000 2.363
24.18000 -2.042
24.20000 2.169
24.22000 4.252
24.24000 7.352
24.26000 9.456
24.28000 6.126
24.30000 1.278
24.32000 4.164
24.34000 6.136
24.36000 7.623
24.38000 1.634
24.40000 -0.143
24.42000 1.888
24.44000 4.300
24.46000 8.945
24.48000 13.429
24.50000 6.206
24.52000 -2.320
24.54000 1.478
24.56000 1.928
24.58000 -1.067
24.60000 1.773
24.62000 3.417
24.64000 3.904
24.66000 1.227
24.68000 -1.162
24.70000 2.362
24.72000 4.373
24.74000 0.045
24.76000 -0.647
24.78000 4.103
24.80000 2.159
24.82000 4.671
24.84000 4.081
24.86000 5.144
24.88000 2.442
24.90000 -2.317
24.92000 -1.862
24.94000 8.481
24.96000 1.003
24.98000 -0.336
25.00000 -3.355
25.02000 -2.122
25.04000 3.380
25.06000 5.265
25.08000 2.634
25.10000 -0.240
25.12000 0.277
25.14000 3.956
25.16000 -0.768
25.18000 0.927
25.20000 3.011
25.22000 -1.868
25.24000 -1.766
25.26000 3.084
25.28000 3.957
25.30000 -1.986
25.32000 -1.873
25.34000 -0.680
25.36000 -0.794
25.38000 -0.856
25.40000 -1.441
25.42000 8.312
25.44000 13.040
25.46000 6.682
25.48000 8.717
25.50000 6.119
25.52000 7.891
25.54000 7.026
25.56000 0.711
25.58000 -1.592
25.60000 6.304
25.62000 7.764
25.64000 2.314
25.66000 2.088
25.68000 1.583
25.70000 3.497
25.72000 -1.368
25.74000 0.354
25.76000 4.153
25.78000 2.217
25.80000 0.705
25.82000 3.549
25.84000 10.256
25.86000 6.492
25.88000 9.697
25.90000 6.726
25.92000 11.769
25.94000 13.473
25.96000 9.942
25.98000 2.823
26.00000 3.476
26.02000 3.316
26.04000 8.459
26.06000 3.844
26.08000 -3.250
26.10000 -4.097
26.12000 -3.504
26.14000 -2.635
26.16000 4.271
26.18000 6.695
26.20000 3.611
26.22000 0.234
26.24000 -3.854
26.26000 5.165
26.28000 11.354
26.30000 6.980
26.32000 -0.576
26.34000 -3.510
26.36000 -2.415
26.38000 2.616
26.40000 4.800
26.42000 5.765
26.44000 7.983
26.46000 9.776
26.48000 8.489
26.50000 5.697
26.52000 -3.507
26.54000 3.713
26.56000 5.775
26.58000 2.109
26.60000 0.994
26.62000 -3.879
26.64000 -0.757
26.66000 1.290
26.68000 1.065
26.70000 5.308
26.72000 4.911
26.74000 3.452
26.76000 1.740
26.78000 4.799
26.80000 0.426
26.82000 1.432
26.84000 3.399
26.86000 9.377
26.88000 3.249
26.90000 -1.004
26.92000 1.302
26.94000 0.423
26.96000 -2.179
26.98000 2.487
27.00000 5.319
27.02000 6.172
27.04000 0.748
27.06000 -2.031
27.08000 -1.765
27.10000 -1.237
27.12000 -0.128
27.14000 0.129
27.16000 1.087
27.18000 1.329
27.20000 5.597
27.22000 5.558
27.24000 -1.355
27.26000 -0.225
27.28000 0.438
27.30000 -3.805
27.32000 -0.917
27.34000 3.061
27.36000 3.642
27.38000 0.040
27.40000 -0.116
27.42000 2.231
27.44000 5.466
27.46000 4.338
27.48000 -0.357
27.50000 -4.042
27.52000 -3.483
27.54000 7.679
27.56000 9.348
27.58000 7.455
27.60000 8.393
27.62000 2.628
27.64000 -0.974
27.66000 8.142
27.68000 7.094
27.70000 5.565
27.72000 2.310
27.74000 7.845
27.76000 6.149
27.78000 3.544
27.80000 2.446
27.82000 1.862
27.84000 3.399
27.86000 9.225
27.88000 3.178
27.90000 -0.238
27.92000 5.093
27.94000 7.201
27.96000 2.273
27.98000 1.925
28.00000 1.882
28.02000 2.673
28.04000 4.581
28.06000 3.428
28.08000 1.576
28.10000 -3.015
28.12000 3.299
28.14000 10.387
28.16000 7.499
28.18000 5.862
28.20000 6.041
28.22000 8.580
28.24000 10.059
28.26000 5.090
28.28000 5.692
28.30000 3.252
28.32000 4.591
28.34000 6.504
28.36000 4.881
28.38000 0.534
28.40000 -3.963
28.42000 -2.617
28.44000 0.984
28.46000 9.366
28.48000 14.042
28.50000 14.130
28.52000 8.959
28.54000 7.242
28.56000 5.582
28.58000 7.166
28.60000 -3.939
28.62000 -1.110
28.64000 4.307
28.66000 2.801
28.68000 0.307
28.70000 -2.491
28.72000 4.364
28.74000 5.888
28.76000 4.070
28.78000 2.610
28.80000 -3.619
28.82000 1.767
28.84000 9.068
28.86000 3.790
28.88000 2.748
28.90000 9.370
28.92000 7.713
28.94000 0.040
28.96000 5.215
28.98000 1.737
29.00000 0.094
29.02000 2.310
29.04000 4.465
29.06000 8.145
29.08000 3.102
29.10000 1.416
29.12000 4.228
29.14000 5.063
29.16000 4.679
29.18000 4.300
29.20000 -0.990
29.22000 2.791
29.24000 2.700
29.26000 6.827
29.28000 6.197
29.30000 -0.386
29.32000 -0.716
29.34000 5.576
29.36000 -0.380
29.38000 6.088
29.40000 8.328
29.42000 3.748
29.44000 9.025
29.46000 9.003
29.48000 6.118
29.50000 1.742
29.52000 3.618
29.54000 1.764
29.56000 2.162
29.58000 0.309
29.60000 1.132
29.62000 -0.832
29.64000 -1.241
29.66000 -2.406
29.68000 -3.941
29.70000 -1.944
29.72000 1.072
29.74000 1.844
29.76000 6.176
29.78000 1.428
29.80000 -2.130
29.82000 4.961
29.84000 6.683
29.86000 2.725
29.88000 -0.853
29.90000 -3.441
29.92000 -1.307
29.94000 -0.723
29.96000 1.556
29.98000 3.933
30.00000 5.485
30.02000 4.004
30.04000 3.283
30.06000 3.646
30.08000 -2.814
30.10000 -2.656
30.12000 0.985
30.14000 0.948
30.16000 3.072
30.18000 8.425
30.20000 7.524
30.22000 7.976
30.24000 4.236
30.26000 0.289
30.28000 4.388
30.30000 1.370
30.32000 -1.411
30.34000 -2.434
30.36000 -1.794
30.38000 -1.511
30.40000 0.149
30.42000 0.729
30.44000 2.692
30.46000 5.998
30.48000 6.857
30.50000 2.097
30.52000 0.142
30.54000 -1.382
30.56000 -2.930
30.58000 -3.904
30.60000 -1.239
30.62000 4.112
30.64000 6.652
30.66000 2.355
30.68000 -1.123
30.70000 0.900
30.72000 -0.144
30.74000 -1.476
30.76000 0.164
30.78000 -0.376
30.80000 1.937
30.82000 0.417
30.84000 2.973
30.86000 2.974
30.88000 2.762
30.90000 1.559
30.92000 2.217
30.94000 4.492
30.96000 1.519
30.98000 4.942
31.00000 -1.020
31.02000 -3.404
31.04000 0.570
31.06000 4.180
31.08000 -0.921
31.10000 -2.514
31.12000 -0.637
31.14000 1.807
31.16000 5.667
31.18000 -1.419
31.20000 -3.854
31.22000 0.473
31.24000 0.863
31.26000 1.859
31.28000 3.642
31.30000 6.069
31.32000 4.547
31.34000 -1.309
31.36000 -2.558
31.38000 0.448
31.40000 -0.840
31.42000 0.860
31.44000 2.447
31.46000 -1.783
31.48000 -3.193
31.50000 1.879
31.52000 2.151
31.54000 -3.544
31.56000 -1.917
31.58000 1.276
31.60000 -3.654
31.62000 -2.608
31.64000 -0.467
31.66000 2.244
31.68000 -3.778
31.70000 2.723
31.72000 1.831
31.74000 3.728
31.76000 7.229
31.78000 0.348
31.80000 5.001
31.82000 10.523
31.84000 5.322
31.86000 0.849
31.88000 -3.814
31.90000 0.551
31.92000 -2.111
31.94000 -0.054
31.96000 1.884
31.98000 5.147
32.00000 4.703
32.02000 7.103
32.04000 4.656
32.06000 -0.182
32.08000 0.703
32.10000 -3.709
32.12000 -2.527
32.14000 2.798
32.16000 5.007
32.18000 3.489
32.20000 4.914
32.22000 4.458
32.24000 5.120
32.26000 4.289
32.28000 0.315
32.30000 0.484
32.32000 8.159
32.34000 2.967
32.36000 -0.166
32.38000 3.662
32.40000 -0.271
32.42000 -0.749
32.44000 -2.384
32.46000 6.084
32.48000 8.245
32.50000 3.650
32.52000 -3.794
32.54000 -1.350
32.56000 -0.520
32.58000 6.700
32.60000 3.640
32.62000 3.486
32.64000 6.057
32.66000 3.996
32.68000 -1.518
32.70000 -1.984
32.72000 -0.003
32.74000 -3.155
32.76000 -3.006
32.78000 2.288
32.80000 3.323
32.82000 5.938
32.84000 -1.758
32.86000 -2.806
32.88000 2.598
32.90000 5.374
32.92000 6.788
32.94000 -0.845
32.96000 -0.116
32.98000 4.611
33.00000 4.234
33.02000 4.483
33.04000 3.403
33.06000 3.917
33.08000 1.675
33.10000 -0.245
33.12000 4.745
33.14000 1.112
33.16000 5.050
33.18000 4.317
33.20000 8.175
33.22000 9.437
33.24000 7.063
33.26000 -3.739
33.28000 -3.479
33.30000 -1.605
33.32000 4.516
33.34000 6.567
33.36000 14.036
33.38000 8.022
33.40000 2.722
33.42000 7.214
33.44000 10.516
33.46000 10.303
33.48000 6.221
33.50000 11.802
33.52000 12.059
33.54000 7.879
33.56000 7.424
33.58000 1.593
33.60000 -1.757
33.62000 3.850
33.64000 5.355
33.66000 5.269
33.68000 2.189
33.70000 3.135
33.72000 2.910
33.74000 1.865
33.76000 4.331
33.78000 8.844
33.80000 8.819
33.82000 3.708
33.84000 8.565
33.86000 11.776
33.88000 9.202
33.90000 5.390
33.92000 -3.718
33.94000 0.232
33.96000 7.686
33.98000 8.204
34.00000 1.890
34.02000 6.390
34.04000 9.303
34.06000 7.860
34.08000 2.571
34.10000 1.097
34.12000 -3.226
34.14000 -3.705
34.16000 0.986
34.18000 6.165
34.20000 10.454
34.22000 7.189
34.24000 6.474
34.26000 3.774
34.28000 6.159
34.30000 8.119
34.32000 3.503
34.34000 8.284
34.36000 7.784
34.38000 1.780
34.40000 3.216
34.42000 7.230
34.44000 10.393
34.46000 10.224
34.48000 5.348
34.50000 4.006
34.52000 10.724
34.54000 9.022
34.56000 10.010
34.58000 11.252
34.60000 5.039
34.62000 1.669
34.64000 4.589
34.66000 5.010
34.68000 2.473
34.70000 4.770
34.72000 7.957
34.74000 8.609
34.76000 6.967
34.78000 6.140
34.80000 2.242
34.82000 0.692
34.84000 2.686
34.86000 5.278
34.88000 -0.730
34.90000 -1.187
34.92000 5.431
34.94000 9.668
34.96000 11.033
34.98000 6.527
35.00000 3.307
35.02000 4.418
35.04000 4.053
35.06000 -2.380
35.08000 -3.627
35.10000 -2.439
35.12000 2.536
35.14000 2.670
35.16000 -0.403
35.18000 8.174
35.20000 13.314
35.22000 9.834
35.24000 5.057
35.26000 5.715
35.28000 2.146
35.30000 9.721
35.32000 8.664
35.34000 3.482
35.36000 -1.016
35.38000 2.167
35.40000 1.123
35.42000 -2.616
35.44000 1.429
35.46000 2.287
35.48000 -0.278
35.50000 -1.353
35.52000 -1.882
35.54000 0.258
35.56000 -0.082
35.58000 -0.082
35.60000 1.668
35.62000 -0.713
35.64000 0.422
35.66000 5.357
35.68000 0.984
35.70000 2.426
35.72000 3.641
35.74000 4.451
35.76000 5.734
35.78000 8.399
35.80000 3.522
35.82000 0.251
35.84000 0.476
35.86000 2.526
35.88000 4.108
35.90000 1.644
35.92000 -0.745
35.94000 2.948
35.96000 -1.089
35.98000 -0.915
36.00000 0.916
36.02000 0.408
36.04000 -1.744
36.06000 3.693
36.08000 2.063
36.10000 3.062
36.12000 1.613
36.14000 0.926
36.16000 -2.196
36.18000 3.174
36.20000 7.804
36.22000 5.396
36.24000 2.102
36.26000 4.881
36.28000 6.814
36.30000 2.449
36.32000 -2.227
36.34000 -1.668
36.36000 6.779
36.38000 0.174
36.40000 1.358
36.42000 3.255
36.44000 -0.347
36.46000 -2.443
36.48000 1.039
36.50000 6.852
36.52000 4.202
36.54000 -2.815
36.56000 -3.680
36.58000 0.495
36.60000 -2.849
36.62000 -1.941
36.64000 5.781
36.66000 3.548
36.68000 -0.428
36.70000 -0.653
36.72000 2.839
36.74000 0.113
36.76000 -1.431
36.78000 -2.001
36.80000 2.369
36.82000 1.531
36.84000 3.459
36.86000 -1.962
36.88000 2.247
36.90000 3.242
36.92000 -0.999
36.94000 -0.607
36.96000 2.942
36.98000 1.644
37.00000 0.895
37.02000 3.022
37.04000 1.791
37.06000 0.076
37.08000 4.307
37.10000 5.011
37.12000 4.717
37.14000 2.093
37.16000 -0.153
37.18000 5.147
37.20000 -1.587
37.22000 -3.683
37.24000 1.878
37.26000 2.512
37.28000 2.216
37.30000 3.290
37.32000 -1.737
37.34000 -2.157
37.36000 -1.394
37.38000 1.409
37.40000 -0.987
37.42000 1.576
37.44000 7.220
37.46000 1.564
37.48000 1.964
37.50000 0.096
37.52000 2.326
37.54000 1.776
37.56000 5.367
37.58000 4.529
37.60000 -3.701
37.62000 -0.769
37.64000 5.304
37.66000 3.321
37.68000 2.628
37.70000 5.727
37.72000 9.729
37.74000 0.746
37.76000 -0.725
37.78000 3.983
37.80000 3.169
37.82000 0.196
37.84000 0.947
37.86000 1.742
37.88000 3.360
37.90000 5.460
37.92000 4.224
37.94000 2.592
37.96000 3.591
37.98000 3.964
38.00000 5.562
38.02000 2.795
38.04000 8.305
38.06000 6.702
38.08000 6.240
38.10000 10.749
38.12000 13.743
38.14000 7.484
38.16000 8.610
38.18000 14.673
38.20000 9.310
38.22000 11.234
38.24000 9.948
38.26000 5.618
38.28000 10.386
38.30000 14.658
38.32000 16.174
38.34000 13.506
38.36000 15.603
38.38000 13.072
38.40000 13.638
38.42000 16.898
38.44000 15.490
38.46000 16.443
38.48000 18.349
38.50000 19.927
38.52000 14.513
38.54000 15.153
38.56000 18.620
38.58000 20.860
38.60000 23.298
38.62000 19.564
38.64000 19.036
38.66000 23.384
38.68000 20.188
38.70000 17.651
38.72000 20.033
38.74000 19.405
38.76000 24.800
38.78000 26.565
38.80000 24.131
38.82000 26.777
38.84000 31.007
38.86000 30.391
38.88000 29.892
38.90000 29.679
38.92000 31.133
38.94000 34.185
38.96000 30.284
38.98000 24.099
39.00000 27.916
39.02000 32.171
39.04000 33.209
39.06000 40.933
39.08000 41.965
39.10000 42.091
39.12000 45.920
39.14000 44.724
39.16000 44.182
39.18000 40.125
39.20000 41.002
39.22000 48.760
39.24000 52.623
39.26000 55.261
39.28000 53.956
39.30000 55.595
39.32000 59.195
39.34000 61.276
39.36000 59.511
39.38000 66.607
39.40000 70.230
39.42000 67.651
39.44000 76.239
39.46000 82.106
39.48000 82.848
39.50000 89.409
39.52000 94.118
39.54000 98.639
39.56000 101.920
39.58000 109.644
39.60000 117.411
39.62000 124.556
39.64000 128.711
39.66000 139.263
39.68000 152.874
39.70000 166.091
39.72000 174.104
39.74000 187.988
39.76000 202.271
39.78000 216.732
39.80000 226.285
39.82000 246.387
39.84000 267.199
39.86000 287.533
39.88000 302.905
39.90000 332.296
39.92000 362.825
39.94000 391.742
39.96000 416.564
39.98000 445.256
40.00000 484.073
40.02000 517.358
40.04000 564.219
40.06000 609.254
40.08000 653.012
40.10000 697.438
40.12000 749.577
40.14000 807.231
40.16000 850.126
40.18000 906.843
40.20000 969.377
40.22000 1026.029
40.24000 1082.784
40.26000 1140.146
40.28000 1184.273
40.30000 1227.419
40.32000 1274.437
40.34000 1307.049
40.36000 1346.622
40.38000 1371.457
40.40000 1393.773
40.42000 1424.534
40.44000 1438.012
40.46000 1418.037
40.48000 1421.662
40.50000 1394.731
40.52000 1370.996
40.54000 1349.611
40.56000 1328.510
40.58000 1311.190
40.60000 1273.318
40.62000 1240.206
40.64000 1202.479
40.66000 1180.228
40.68000 1137.600
40.70000 1106.430
40.72000 1071.362
40.74000 1031.107
40.76000 993.044
40.78000 955.509
40.80000 910.318
40.82000 867.783
40.84000 842.019
40.86000 806.638
40.88000 763.171
40.90000 721.252
40.92000 687.176
40.94000 655.465
40.96000 623.586
40.98000 598.389
41.00000 573.086
41.02000 530.796
41.04000 501.664
41.06000 483.244
41.08000 460.701
41.10000 446.079
41.12000 424.343
41.14000 398.148
41.16000 364.302
41.18000 351.865
41.20000 346.404
41.22000 322.556
41.24000 304.607
41.26000 288.386
41.28000 267.557
41.30000 256.565
41.32000 244.185
41.34000 235.434
41.36000 224.982
41.38000 213.962
41.40000 210.047
41.42000 196.571
41.44000 191.238
41.46000 177.645
41.48000 169.279
41.50000 161.460
41.52000 152.963
41.54000 144.522
41.56000 138.838
41.58000 134.640
41.60000 129.600
41.62000 129.400
41.64000 128.813
41.66000 117.488
41.68000 107.452
41.70000 109.116
41.72000 105.912
41.74000 96.555
41.76000 93.199
41.78000 89.210
41.80000 91.997
41.82000 86.627
41.84000 81.538
41.86000 76.860
41.88000 73.413
41.90000 68.291
41.92000 64.625
41.94000 65.786
41.96000 67.840
41.98000 59.445
42.00000 56.980
42.02000 53.731
42.04000 54.455
42.06000 53.819
42.08000 49.637
42.10000 50.643
42.12000 51.825
42.14000 49.265
42.16000 45.091
42.18000 48.435
42.20000 44.113
42.22000 43.757
42.24000 40.669
42.26000 35.071
42.28000 35.656
42.30000 42.097
42.32000 34.130
42.34000 32.730
42.36000 35.805
42.38000 34.203
42.40000 25.540
42.42000 24.560
42.44000 26.738
42.46000 21.104
42.48000 19.526
42.50000 21.153
42.52000 20.742
42.54000 23.838
42.56000 17.793
42.58000 17.091
42.60000 16.515
42.62000 16.709
42.64000 18.605
42.66000 19.363
42.68000 18.842
42.70000 15.659
42.72000 9.797
42.74000 10.939
42.76000 13.027
42.78000 12.640
42.80000 15.148
42.82000 15.120
42.84000 15.083
42.86000 13.063
42.88000 11.388
42.90000 12.029
42.92000 10.914
42.94000 8.665
42.96000 5.889
42.98000 3.241
43.00000 4.995
43.02000 1.836
43.04000 3.401
43.06000 6.272
43.08000 4.894
43.10000 5.855
43.12000 9.351
43.14000 6.552
43.16000 4.563
43.18000 1.091
43.20000 5.399
43.22000 4.445
43.24000 1.900
43.26000 0.934
43.28000 1.013
43.30000 5.751
43.32000 5.886
43.34000 0.421
43.36000 -1.417
43.38000 -1.144
43.40000 1.578
43.42000 2.163
43.44000 1.015
43.46000 0.030
43.48000 0.547
43.50000 1.380
43.52000 -1.776
43.54000 -3.555
43.56000 -0.197
43.58000 5.178
43.60000 1.570
43.62000 -0.410
43.64000 3.445
43.66000 3.819
43.68000 1.595
43.70000 1.936
43.72000 1.414
43.74000 -1.279
43.76000 -1.963
43.78000 3.193
43.80000 4.377
43.82000 1.148
43.84000 -0.230
43.86000 1.763
43.88000 3.660
43.90000 3.024
43.92000 1.828
43.94000 2.764
43.96000 2.769
43.98000 -0.853
44.00000 3.795
44.02000 2.615
44.04000 -3.477
44.06000 -1.758
44.08000 1.325
44.10000 1.628
44.12000 -1.234
44.14000 -3.094
44.16000 -1.235
44.18000 -0.124
44.20000 -3.143
44.22000 -1.651
44.24000 -3.456
44.26000 -2.683
44.28000 -1.467
44.30000 -2.329
44.32000 -3.384
44.34000 0.069
44.36000 -1.682
44.38000 -2.203
44.40000 -3.178
44.42000 -3.438
44.44000 -1.775
44.46000 -1.095
44.48000 -2.187
44.50000 0.223
44.52000 -0.872
44.54000 0.834
44.56000 -1.446
44.58000 -2.229
44.60000 1.475
44.62000 -0.507
44.64000 -2.567
44.66000 -0.653
44.68000 -2.241
44.70000 -1.984
44.72000 -0.132
44.74000 -0.735
44.76000 2.880
44.78000 -1.179
44.80000 -1.208
44.82000 0.053
44.84000 -2.383
44.86000 0.559
44.88000 0.024
44.90000 -0.800
44.92000 0.326
44.94000 -1.267
44.96000 -1.856
44.98000 -3.042
45.00000 -3.358
45.02000 -1.499
45.04000 -1.384
45.06000 -2.185
45.08000 -0.568
45.10000 -1.160
45.12000 -0.730
45.14000 2.957
45.16000 2.121
45.18000 -0.942
45.20000 -3.345
45.22000 0.045
45.24000 2.974
45.26000 3.204
45.28000 4.138
45.30000 5.648
45.32000 1.139
45.34000 4.851
45.36000 2.036
45.38000 0.972
45.40000 2.263
45.42000 -0.646
45.44000 -0.157
45.46000 -0.739
45.48000 3.849
45.50000 2.667
45.52000 1.278
45.54000 4.599
45.56000 2.880
45.58000 5.941
45.60000 3.342
45.62000 5.967
45.64000 9.357
45.66000 4.316
45.68000 2.460
45.70000 3.214
45.72000 2.561
45.74000 3.825
45.76000 4.095
45.78000 7.891
45.80000 8.210
45.82000 7.539
45.84000 9.681
45.86000 13.701
45.88000 13.372
45.90000 9.173
45.92000 9.052
45.94000 10.419
45.96000 12.924
45.98000 12.970
46.00000 12.681
46.02000 13.792
46.04000 13.899
46.06000 16.934
46.08000 19.290
46.10000 20.646
46.12000 21.243
46.14000 18.252
46.16000 21.175
46.18000 20.269
46.20000 20.013
46.22000 27.543
46.24000 30.045
46.26000 26.974
46.28000 23.852
46.30000 24.749
46.32000 30.380
46.34000 30.495
46.36000 33.644
46.38000 36.900
46.40000 40.424
46.42000 48.651
46.44000 48.186
46.46000 44.060
46.48000 48.943
46.50000 53.977
46.52000 56.312
46.54000 54.499
46.56000 56.324
46.58000 54.875
46.60000 53.668
46.62000 56.994
46.64000 61.655
46.66000 66.519
46.68000 71.796
46.70000 75.455
46.72000 72.364
46.74000 77.111
46.76000 88.537
46.78000 93.535
46.80000 84.019
46.82000 87.603
46.84000 91.510
46.86000 100.940
46.88000 104.657
46.90000 110.086
46.92000 108.598
46.94000 108.497
46.96000 113.849
46.98000 119.652
47.00000 119.217
47.02000 119.470
47.04000 118.328
47.06000 121.508
47.08000 119.107
47.10000 119.911
47.12000 120.908
47.14000 122.318
47.16000 125.992
47.18000 125.430
47.20000 124.141
47.22000 123.287
47.24000 120.246
47.26000 112.521
47.28000 115.230
47.30000 112.515
47.32000 104.694
47.34000 101.234
47.36000 101.203
47.38000 103.240
47.40000 103.223
47.42000 97.415
47.44000 98.582
47.46000 94.360
47.48000 89.557
47.50000 84.520
47.52000 79.667
47.54000 80.024
47.56000 68.315
47.58000 63.016
47.60000 61.456
47.62000 66.255
47.64000 61.927
47.66000 56.578
47.68000 55.197
47.70000 51.869
47.72000 47.783
47.74000 47.602
47.76000 45.819
47.78000 37.433
47.80000 39.308
47.82000 34.451
47.84000 35.205
47.86000 33.667
47.88000 29.217
47.90000 27.511
47.92000 27.325
47.94000 27.143
47.96000 24.782
47.98000 24.056
48.00000 25.588
48.02000 19.355
48.04000 20.033
48.06000 18.855
48.08000 15.771
48.10000 16.266
48.12000 11.478
48.14000 10.269
48.16000 9.963
48.18000 10.917
48.20000 10.923
48.22000 10.643
48.24000 11.909
48.26000 10.172
48.28000 11.316
48.30000 10.727
48.32000 5.353
48.34000 5.443
48.36000 4.334
48.38000 2.629
48.40000 1.069
48.42000 3.786
48.44000 7.165
48.46000 3.479
48.48000 6.423
48.50000 10.028
48.52000 4.730
48.54000 4.946
48.56000 1.357
48.58000 -1.742
48.60000 1.436
48.62000 3.358
48.64000 3.929
48.66000 9.869
48.68000 5.510
48.70000 4.199
48.72000 5.785
48.74000 3.088
48.76000 2.980
48.78000 2.769
48.80000 1.501
48.82000 2.890
48.84000 3.121
48.86000 1.559
48.88000 -2.688
48.90000 1.120
48.92000 4.091
48.94000 6.345
48.96000 1.762
48.98000 4.719
49.00000 4.217
49.02000 -1.543
49.04000 -2.596
49.06000 3.092
49.08000 5.737
49.10000 3.725
49.12000 3.379
49.14000 2.743
49.16000 2.593
49.18000 2.865
49.20000 3.949
49.22000 3.056
49.24000 3.421
49.26000 0.477
49.28000 2.145
49.30000 0.378
49.32000 -0.960
49.34000 -2.597
49.36000 -0.749
49.38000 2.759
49.40000 0.438
49.42000 5.443
49.44000 6.831
49.46000 3.979
49.48000 1.214
49.50000 2.117
49.52000 -0.312
49.54000 5.866
49.56000 8.113
49.58000 3.150
49.60000 2.208
49.62000 4.647
49.64000 3.885
49.66000 3.905
49.68000 0.792
49.70000 2.927
49.72000 5.252
49.74000 3.469
49.76000 3.777
49.78000 1.604
49.80000 -2.551
49.82000 2.743
49.84000 2.429
49.86000 4.272
49.88000 -0.075
49.90000 0.126
49.92000 -0.521
49.94000 2.390
49.96000 1.813
49.98000 4.052
50.00000 4.470
50.02000 2.191
50.04000 0.591
50.06000 2.885
50.08000 3.740
50.10000 1.864
50.12000 4.022
50.14000 1.545
50.16000 4.895
50.18000 4.171
50.20000 3.102
50.22000 0.454
50.24000 2.281
50.26000 1.730
50.28000 0.776
50.30000 -0.834
50.32000 0.802
50.34000 3.039
50.36000 7.291
50.38000 2.540
50.40000 -2.464
50.42000 -0.537
50.44000 2.001
50.46000 3.305
50.48000 2.579
50.50000 -0.281
50.52000 -1.795
50.54000 2.558
50.56000 7.416
50.58000 4.945
50.60000 2.613
50.62000 0.289
50.64000 -1.248
50.66000 -0.327
50.68000 2.590
50.70000 1.551
50.72000 -2.217
50.74000 -2.132
50.76000 1.473
50.78000 2.488
50.80000 1.174
50.82000 1.808
50.84000 -0.107
50.86000 0.813
50.88000 0.001
50.90000 -2.463
50.92000 -0.649
50.94000 -0.933
50.96000 0.892
50.98000 5.971
51.00000 4.906
51.02000 1.631
51.04000 6.603
51.06000 5.951
51.08000 4.389
51.10000 3.391
51.12000 2.097
51.14000 -1.753
51.16000 -0.684
51.18000 2.408
51.20000 2.219
51.22000 3.103
51.24000 -2.438
51.26000 -2.460
51.28000 0.527
51.30000 0.587
51.32000 3.857
51.34000 1.283
51.36000 3.737
51.38000 2.863
51.40000 0.553
51.42000 1.349
51.44000 1.420
51.46000 2.763
51.48000 1.131
51.50000 0.136
51.52000 0.460
51.54000 -0.289
51.56000 0.759
51.58000 -1.046
51.60000 1.850
51.62000 6.167
51.64000 3.700
51.66000 1.433
51.68000 0.274
51.70000 -0.680
51.72000 3.459
51.74000 4.182
51.76000 2.970
51.78000 -0.061
51.80000 -0.759
51.82000 1.130
51.84000 0.406
51.86000 -1.511
51.88000 -0.532
51.90000 -0.933
51.92000 -1.872
51.94000 -0.060
51.96000 2.368
51.98000 1.934
52.00000 4.405
52.02000 1.052
52.04000 1.402
52.06000 -0.961
52.08000 0.090
52.10000 1.783
52.12000 -1.287
52.14000 0.506
52.16000 0.606
52.18000 0.345
52.20000 -2.397
52.22000 1.620
52.24000 3.179
52.26000 1.656
52.28000 4.457
52.30000 1.532
52.32000 2.778
52.34000 2.068
52.36000 3.277
52.38000 4.298
52.40000 0.770
52.42000 -1.374
52.44000 -0.365
52.46000 -1.423
52.48000 0.648
52.50000 -1.253
52.52000 0.738
52.54000 1.797
52.56000 1.360
52.58000 1.216
52.60000 0.800
52.62000 1.460
52.64000 2.662
52.66000 1.086
52.68000 2.159
52.70000 6.832
52.72000 4.801
52.74000 1.692
52.76000 -1.741
52.78000 1.118
52.80000 2.131
52.82000 1.212
52.84000 2.391
52.86000 4.009
52.88000 0.649
52.90000 1.100
52.92000 -0.364
52.94000 -1.828
52.96000 -2.395
52.98000 -1.455
53.00000 0.178
53.02000 1.888
53.04000 0.821
53.06000 -0.125
53.08000 0.181
53.10000 0.737
53.12000 3.378
53.14000 3.244
53.16000 1.555
53.18000 -0.888
53.20000 -0.301
53.22000 -0.674
53.24000 0.764
53.26000 2.928
53.28000 1.293
53.30000 3.224
53.32000 3.341
53.34000 -1.080
53.36000 1.768
53.38000 1.170
53.40000 -1.453
53.42000 -1.411
53.44000 -1.215
53.46000 -0.809
53.48000 -0.959
53.50000 2.005
53.52000 2.321
53.54000 0.464
53.56000 -0.800
53.58000 2.329
53.60000 -0.458
53.62000 0.718
53.64000 6.232
53.66000 4.460
53.68000 1.052
53.70000 0.302
53.72000 2.563
53.74000 0.826
53.76000 3.541
53.78000 1.533
53.80000 3.089
53.82000 1.619
53.84000 0.036
53.86000 0.375
53.88000 2.322
53.90000 0.089
53.92000 1.845
53.94000 0.103
53.96000 -1.545
53.98000 1.439
54.00000 2.868
54.02000 -2.380
54.04000 2.212
54.06000 3.723
54.08000 3.503
54.10000 0.859
54.12000 -0.084
54.14000 0.721
54.16000 -0.186
54.18000 -0.470
54.20000 1.966
54.22000 2.859
54.24000 2.666
54.26000 0.423
54.28000 -1.949
54.30000 -1.147
54.32000 3.056
54.34000 4.688
54.36000 -0.012
54.38000 0.585
54.40000 1.659
54.42000 0.200
54.44000 2.741
54.46000 4.748
54.48000 1.376
54.50000 -0.194
54.52000 -1.836
54.54000 0.026
54.56000 -1.886
54.58000 1.009
54.60000 3.967
54.62000 0.619
54.64000 -0.897
54.66000 -0.611
54.68000 -1.796
54.70000 -0.020
54.72000 -0.182
54.74000 0.493
54.76000 1.916
54.78000 3.105
54.80000 0.996
54.82000 -1.155
54.84000 1.149
54.86000 2.535
54.88000 5.733
54.90000 2.074
54.92000 -2.329
54.94000 -0.266
54.96000 -0.256
54.98000 0.548
55.00000 2.836
55.02000 1.715
55.04000 1.887
55.06000 1.755
55.08000 -0.101
55.10000 0.457
55.12000 1.304
55.14000 3.717
55.16000 1.471
55.18000 0.818
55.20000 3.658
55.22000 1.804
55.24000 -0.261
55.26000 1.678
55.28000 3.071
55.30000 3.879
55.32000 3.336
55.34000 4.359
55.36000 5.522
55.38000 1.701
55.40000 -0.376
55.42000 1.350
55.44000 3.696
55.46000 0.219
55.48000 2.835
55.50000 4.337
55.52000 3.367
55.54000 1.678
55.56000 2.660
55.58000 1.704
55.60000 2.619
55.62000 2.750
55.64000 2.491
55.66000 -0.022
55.68000 -2.309
55.70000 -0.800
55.72000 -0.593
55.74000 1.076
55.76000 -0.354
55.78000 2.143
55.80000 4.595
55.82000 -0.452
55.84000 -0.806
55.86000 0.902
55.88000 3.804
55.90000 1.727
55.92000 0.828
55.94000 0.820
55.96000 0.633
55.98000 0.504
56.00000 1.136
56.02000 -0.876
56.04000 4.045
56.06000 3.895
56.08000 2.404
56.10000 2.479
56.12000 0.468
56.14000 0.263
56.16000 -2.316
56.18000 1.571
56.20000 1.422
56.22000 4.002
56.24000 4.445
56.26000 1.968
56.28000 2.436
56.30000 2.044
56.32000 1.187
56.34000 0.523
56.36000 2.604
56.38000 2.947
56.40000 4.690
56.42000 3.727
56.44000 0.273
56.46000 1.677
56.48000 2.189
56.50000 -0.478
56.52000 -2.252
56.54000 -1.105
56.56000 1.816
56.58000 1.378
56.60000 -0.675
56.62000 0.904
56.64000 3.757
56.66000 4.187
56.68000 1.920
56.70000 0.024
56.72000 0.873
56.74000 0.813
56.76000 1.549
56.78000 0.905
56.80000 0.926
56.82000 -1.112
56.84000 2.763
56.86000 -2.187
56.88000 0.397
56.90000 2.066
56.92000 4.556
56.94000 4.570
56.96000 5.810
56.98000 2.225
57.00000 -1.438
57.02000 -2.274
57.04000 0.245
57.06000 2.005
57.08000 0.105
57.10000 -0.410
57.12000 3.170
57.14000 3.145
57.16000 0.580
57.18000 -0.982
57.20000 -2.267
57.22000 0.173
57.24000 2.995
57.26000 1.205
57.28000 2.053
57.30000 0.115
57.32000 0.318
57.34000 0.843
57.36000 1.333
57.38000 0.079
57.40000 0.483
57.42000 2.778
57.44000 0.384
57.46000 1.426
57.48000 3.014
57.50000 1.336
57.52000 2.406
57.54000 3.076
57.56000 0.178
57.58000 1.317
57.60000 4.360
57.62000 2.001
57.64000 2.882
57.66000 2.685
57.68000 0.197
57.70000 3.070
57.72000 0.850
57.74000 -0.180
57.76000 2.365
57.78000 0.652
57.80000 0.913
57.82000 0.430
57.84000 -0.544
57.86000 -0.576
57.88000 1.728
57.90000 1.189
57.92000 0.659
57.94000 -0.694
57.96000 0.684
57.98000 3.489
58.00000 6.386
58.02000 4.248
58.04000 0.300
58.06000 -0.342
58.08000 4.320
58.10000 7.330
58.12000 3.022
58.14000 1.825
58.16000 -2.221
58.18000 -1.501
58.20000 1.843
58.22000 2.063
58.24000 2.625
58.26000 -1.261
58.28000 -1.456
58.30000 -1.008
58.32000 1.852
58.34000 2.703
58.36000 4.402
58.38000 1.607
58.40000 1.856
58.42000 -2.228
58.44000 -1.811
58.46000 2.592
58.48000 0.498
58.50000 1.174
58.52000 0.944
58.54000 0.846
58.56000 2.612
58.58000 0.970
58.60000 -0.533
58.62000 -2.229
58.64000 2.342
58.66000 3.808
58.68000 3.036
58.70000 4.147
58.72000 3.692
58.74000 2.138
58.76000 2.696
58.78000 0.415
58.80000 1.689
58.82000 1.276
58.84000 2.013
58.86000 0.681
58.88000 -2.227
58.90000 -1.202
58.92000 0.335
58.94000 4.472
58.96000 1.929
58.98000 1.463
59.00000 -0.065
59.02000 0.091
59.04000 0.808
59.06000 1.306
59.08000 -0.427
59.10000 -0.459
59.12000 4.664
59.14000 0.560
59.16000 1.626
59.18000 1.365
59.20000 2.289
59.22000 -0.299
59.24000 2.101
59.26000 2.805
59.28000 2.374
59.30000 0.588
59.32000 0.522
59.34000 1.611
59.36000 2.849
59.38000 3.030
59.40000 0.493
59.42000 -2.201
59.44000 4.578
59.46000 3.870
59.48000 1.720
59.50000 0.190
59.52000 2.980
59.54000 2.790
59.56000 -0.230
59.58000 2.358
59.60000 4.819
59.62000 1.697
59.64000 1.823
59.66000 1.160
59.68000 -0.649
59.70000 -0.155
59.72000 0.148
59.74000 1.293
59.76000 1.109
59.78000 0.238
59.80000 -0.992
59.82000 -2.142
59.84000 -1.143
59.86000 1.322
59.88000 0.082
59.90000 1.827
59.92000 3.391
59.94000 1.848
59.96000 0.110
59.98000 0.198
60.00000 2.840
60.02000 1.619
60.04000 4.690
60.06000 4.061
60.08000 0.633
60.10000 -1.607
60.12000 -0.839
60.14000 1.741
60.16000 4.310
60.18000 0.883
60.20000 1.340
60.22000 3.017
60.24000 3.746
60.26000 1.070
60.28000 -0.202
60.30000 -2.160
60.32000 -1.887
60.34000 -1.657
60.36000 0.376
60.38000 0.271
60.40000 0.438
60.42000 -0.097
60.44000 2.641
60.46000 3.125
60.48000 1.204
60.50000 2.130
60.52000 4.605
60.54000 4.961
60.56000 2.427
60.58000 1.530
60.60000 2.158
60.62000 3.609
60.64000 3.232
60.66000 -2.118
60.68000 1.346
60.70000 4.165
60.72000 3.741
60.74000 2.861
60.76000 4.623
60.78000 5.346
60.80000 1.845
60.82000 0.176
60.84000 0.505
60.86000 3.011
60.88000 4.708
60.90000 4.253
60.92000 2.255
60.94000 6.170
60.96000 4.615
60.98000 7.303
61.00000 3.573
61.02000 0.501
61.04000 -1.274
61.06000 0.913
61.08000 2.388
61.10000 0.585
61.12000 1.532
61.14000 2.619
61.16000 0.065
61.18000 0.712
61.20000 1.916
61.22000 4.435
61.24000 0.540
61.26000 -0.354
61.28000 2.022
61.30000 2.402
61.32000 4.014
61.34000 1.842
61.36000 -0.686
61.38000 -1.152
61.40000 2.102
61.42000 3.997
61.44000 1.929
61.46000 3.714
61.48000 2.522
61.50000 1.165
61.52000 -0.138
61.54000 -0.349
61.56000 1.130
61.58000 1.867
61.60000 0.617
61.62000 1.454
61.64000 2.969
61.66000 3.399
61.68000 1.276
61.70000 -0.913
61.72000 -2.133
61.74000 3.802
61.76000 5.264
61.78000 5.964
61.80000 1.650
61.82000 1.737
61.84000 0.772
61.86000 -0.167
61.88000 0.387
61.90000 1.688
61.92000 -2.134
61.94000 -0.489
61.96000 0.786
61.98000 0.459
62.00000 -0.194
62.02000 -0.327
62.04000 -0.343
62.06000 -0.517
62.08000 -0.112
62.10000 -0.310
62.12000 -1.430
62.14000 1.663
62.16000 1.786
62.18000 0.880
62.20000 -1.071
62.22000 -0.496
62.24000 -0.302
62.26000 0.856
62.28000 -1.364
62.30000 -0.578
62.32000 1.130
62.34000 -0.858
62.36000 1.162
62.38000 3.235
62.40000 1.030
62.42000 0.707
62.44000 -1.595
62.46000 -0.304
62.48000 -1.313
62.50000 -0.868
62.52000 0.610
62.54000 0.091
62.56000 -2.137
62.58000 0.767
62.60000 2.277
62.62000 0.748
62.64000 1.440
62.66000 1.979
62.68000 2.272
62.70000 0.936
62.72000 0.523
62.74000 -0.479
62.76000 -0.764
62.78000 -2.138
62.80000 -1.464
62.82000 -0.572
62.84000 2.208
62.86000 1.521
62.88000 2.484
62.90000 -0.989
62.92000 -0.467
62.94000 0.428
62.96000 1.357
62.98000 3.802
63.00000 2.573
63.02000 0.356
63.04000 -1.373
63.06000 -0.061
63.08000 -1.244
63.10000 -1.459
63.12000 0.370
63.14000 -1.295
63.16000 0.201
63.18000 -0.828
63.20000 -0.238
63.22000 1.100
63.24000 -1.039
63.26000 -1.259
63.28000 -0.856
63.30000 0.147
63.32000 -1.070
63.34000 -0.112
63.36000 2.012
63.38000 0.988
63.40000 1.423
63.42000 -0.540
63.44000 1.114
63.46000 1.729
63.48000 -1.220
63.50000 -1.487
63.52000 0.905
63.54000 1.486
63.56000 0.896
63.58000 2.044
63.60000 0.358
63.62000 -0.342
63.64000 -1.102
63.66000 1.388
63.68000 1.989
63.70000 0.390
63.72000 0.096
63.74000 -0.062
63.76000 1.940
63.78000 -0.729
63.80000 -1.663
63.82000 0.299
63.84000 1.890
63.86000 2.277
63.88000 -1.175
63.90000 -2.121
63.92000 1.314
63.94000 1.474
63.96000 1.228
63.98000 1.251
64.00000 0.298
64.02000 1.402
64.04000 -0.387
64.06000 -1.269
64.08000 -0.648
64.10000 0.039
64.12000 -0.473
64.14000 1.819
64.16000 3.662
64.18000 4.363
64.20000 0.744
64.22000 2.254
64.24000 4.625
64.26000 2.898
64.28000 -0.817
64.30000 -2.104
64.32000 -0.937
64.34000 -1.935
64.36000 -2.103
64.38000 -1.138
64.40000 -0.451
64.42000 0.244
64.44000 3.244
64.46000 4.865
64.48000 5.389
64.50000 1.295
64.52000 1.908
64.54000 3.715
64.56000 3.470
64.58000 3.944
64.60000 5.091
64.62000 4.809
64.64000 1.832
64.66000 0.382
64.68000 1.459
64.70000 0.332
64.72000 0.933
64.74000 -0.087
64.76000 -1.454
64.78000 0.096
64.80000 -1.530
64.82000 -1.639
64.84000 -0.569
64.86000 1.869
64.88000 1.352
64.90000 1.419
64.92000 0.333
64.94000 1.699
64.96000 3.812
64.98000 5.467
65.00000 3.683
65.02000 0.728
65.04000 -2.084
65.06000 0.002
65.08000 2.357
65.10000 1.257
65.12000 0.252
65.14000 0.312
65.16000 -1.980
65.18000 0.595
65.20000 3.504
65.22000 1.056
65.24000 1.000
65.26000 -0.357
65.28000 1.285
65.30000 1.550
65.32000 2.476
65.34000 1.209
65.36000 0.894
65.38000 0.803
65.40000 3.089
65.42000 2.047
65.44000 3.612
65.46000 1.459
65.48000 0.196
65.50000 2.427
65.52000 2.546
65.54000 -0.011
65.56000 0.874
65.58000 -0.443
65.60000 0.449
65.62000 2.419
65.64000 4.150
65.66000 -0.941
65.68000 1.147
65.70000 3.297
65.72000 2.721
65.74000 -0.073
65.76000 0.592
65.78000 -1.281
65.80000 -0.602
65.82000 -1.274
65.84000 -2.116
65.86000 -0.388
65.88000 1.155
65.90000 2.050
65.92000 2.752
65.94000 0.262
65.96000 -2.119
65.98000 0.705
66.00000 -1.617
66.02000 0.024
66.04000 0.940
66.06000 1.211
66.08000 0.693
66.10000 1.669
66.12000 3.288
66.14000 0.055
66.16000 -0.902
66.18000 1.696
66.20000 1.048
66.22000 -0.564
66.24000 -0.687
66.26000 0.461
66.28000 -0.825
66.30000 -0.524
66.32000 1.012
66.34000 1.007
66.36000 2.715
66.38000 -0.153
66.40000 -2.113
66.42000 2.589
66.44000 3.504
66.46000 3.031
66.48000 0.738
66.50000 2.249
66.52000 1.326
66.54000 -0.853
66.56000 1.478
66.58000 2.158
66.60000 -0.741
66.62000 -2.125
66.64000 -1.756
66.66000 0.168
66.68000 -0.331
66.70000 -0.570
66.72000 0.414
66.74000 2.891
66.76000 2.706
66.78000 1.551
66.80000 0.807
66.82000 -0.454
66.84000 -1.049
66.86000 -1.410
66.88000 1.627
66.90000 -0.183
66.92000 -0.652
66.94000 -1.103
66.96000 -0.882
66.98000 2.016
67.00000 -1.274
67.02000 2.032
67.04000 2.670
67.06000 2.211
67.08000 -2.142
67.10000 -1.400
67.12000 1.445
67.14000 1.880
67.16000 -0.002
67.18000 0.135
67.20000 -1.090
67.22000 1.222
67.24000 0.461
67.26000 0.298
67.28000 0.384
67.30000 -2.155
67.32000 -1.856
67.34000 -1.375
67.36000 -1.543
67.38000 -1.471
67.40000 -1.580
67.42000 -1.414
67.44000 -2.163
67.46000 -0.884
67.48000 1.339
67.50000 3.856
67.52000 2.404
67.54000 0.381
67.56000 -0.283
67.58000 1.973
67.60000 -1.126
67.62000 0.579
67.64000 -1.053
67.66000 -1.224
67.68000 -1.343
67.70000 -1.453
67.72000 -1.231
67.74000 -0.103
67.76000 0.534
67.78000 0.388
67.80000 -0.993
67.82000 0.269
67.84000 -1.042
67.86000 -0.061
67.88000 0.195
67.90000 -0.367
67.92000 -2.175
67.94000 -1.503
67.96000 -2.177
67.98000 1.004
68.00000 1.942
68.02000 2.878
68.04000 1.935
68.06000 2.000
68.08000 2.868
68.10000 2.443
68.12000 1.646
68.14000 2.646
68.16000 2.680
68.18000 2.806
68.20000 4.841
68.22000 3.378
68.24000 2.005
68.26000 1.907
68.28000 3.137
68.30000 4.358
68.32000 6.025
68.34000 5.324
68.36000 4.480
68.38000 3.887
68.40000 2.457
68.42000 4.226
68.44000 3.293
68.46000 2.817
68.48000 4.593
68.50000 6.321
68.52000 9.202
68.54000 10.556
68.56000 7.931
68.58000 9.776
68.60000 9.661
68.62000 7.777
68.64000 9.410
68.66000 11.255
68.68000 10.910
68.70000 8.007
68.72000 8.023
68.74000 10.427
68.76000 12.763
68.78000 12.854
68.80000 9.923
68.82000 12.130
68.84000 12.479
68.86000 11.512
68.88000 10.845
68.90000 13.078
68.92000 13.207
68.94000 11.739
68.96000 9.560
68.98000 12.368
69.00000 12.437
69.02000 11.611
69.04000 11.600
69.06000 11.633
69.08000 10.266
69.10000 11.666
69.12000 11.746
69.14000 8.416
69.16000 7.852
69.18000 8.687
69.20000 11.787
69.22000 8.661
69.24000 5.306
69.26000 5.850
69.28000 8.868
69.30000 9.273
69.32000 7.720
69.34000 6.218
69.36000 6.538
69.38000 7.409
69.40000 5.224
69.42000 2.586
69.44000 3.163
69.46000 4.578
69.48000 6.873
69.50000 4.012
69.52000 3.194
69.54000 1.241
69.56000 2.627
69.58000 2.256
69.60000 3.881
69.62000 3.280
69.64000 2.169
69.66000 1.958
69.68000 1.525
69.70000 -0.817
69.72000 1.942
69.74000 2.845
69.76000 3.409
69.78000 2.750
69.80000 2.314
69.82000 0.338
69.84000 3.734
69.86000 0.245
69.88000 1.059
69.90000 1.221
69.92000 -0.503
69.94000 0.628
69.96000 3.807
69.98000 2.285
70.00000 -0.602
70.02000 -2.104
70.04000 -0.560
70.06000 1.926
70.08000 3.598
70.10000 5.556
70.12000 5.059
70.14000 2.281
70.16000 1.658
70.18000 0.146
70.20000 1.033
70.22000 -0.914
70.24000 2.327
70.26000 3.580
70.28000 0.580
70.30000 -0.865
70.32000 1.050
70.34000 1.531
70.36000 0.318
70.38000 2.060
70.40000 2.415
70.42000 1.624
70.44000 0.409
70.46000 1.692
70.48000 2.724
70.50000 2.585
70.52000 1.128
70.54000 1.070
70.56000 -1.392
70.58000 -2.053
70.60000 -1.932
70.62000 -2.050
70.64000 -0.039
70.66000 2.040
70.68000 1.136
70.70000 -2.049
70.72000 2.836
70.74000 3.278
70.76000 0.058
70.78000 0.532
70.80000 1.554
70.82000 1.646
70.84000 2.301
70.86000 2.070
70.88000 -2.038
70.90000 -1.057
70.92000 2.445
70.94000 2.976
70.96000 0.338
70.98000 1.223
71.00000 0.315
71.02000 0.503
71.04000 0.412
71.06000 1.715
71.08000 0.781
71.10000 1.459
71.12000 -0.850
71.14000 0.307
71.16000 -0.970
71.18000 0.345
71.20000 0.947
71.22000 2.547
71.24000 -2.029
71.26000 -1.168
71.28000 1.738
71.30000 0.258
71.32000 -0.876
71.34000 1.360
71.36000 1.690
71.38000 -0.890
71.40000 0.802
71.42000 1.256
71.44000 0.735
71.46000 -0.207
71.48000 -0.445
71.50000 0.554
71.52000 1.984
71.54000 2.446
71.56000 -0.618
71.58000 0.692
71.60000 0.525
71.62000 -1.633
71.64000 -1.934
71.66000 -0.117
71.68000 -0.391
71.70000 -1.954
71.72000 -0.291
71.74000 2.341
71.76000 0.759
71.78000 0.235
71.80000 1.394
71.82000 2.195
71.84000 0.511
71.86000 -1.102
71.88000 0.617
71.90000 1.188
71.92000 1.551
71.94000 0.648
71.96000 -1.934
71.98000 -0.741
72.00000 -1.611
72.02000 -1.978
72.04000 0.204
72.06000 1.215
72.08000 1.276
72.10000 -0.935
72.12000 2.085
72.14000 3.977
72.16000 0.652
72.18000 -0.502
72.20000 0.406
72.22000 -0.897
72.24000 2.238
72.26000 1.985
72.28000 0.946
72.30000 4.249
72.32000 1.981
72.34000 -0.380
72.36000 -1.536
72.38000 1.179
72.40000 2.637
72.42000 1.698
72.44000 2.519
72.46000 1.973
72.48000 2.541
72.50000 3.507
72.52000 1.252
72.54000 5.253
72.56000 4.032
72.58000 1.768
72.60000 2.900
72.62000 0.517
72.64000 -0.093
72.66000 -1.962
72.68000 0.039
72.70000 1.406
72.72000 3.711
72.74000 1.672
72.76000 0.433
72.78000 1.901
72.80000 2.565
72.82000 1.831
72.84000 -1.309
72.86000 -0.083
72.88000 -0.508
72.90000 1.824
72.92000 1.282
72.94000 2.561
72.96000 0.847
72.98000 0.525
73.00000 0.330
73.02000 2.008
73.04000 3.083
73.06000 0.497
73.08000 2.795
73.10000 4.282
73.12000 2.818
73.14000 0.713
73.16000 0.601
73.18000 -0.403
73.20000 -1.911
73.22000 -1.879
73.24000 -0.108
73.26000 0.153
73.28000 3.387
73.30000 4.887
73.32000 5.136
73.34000 3.646
73.36000 3.345
73.38000 -0.530
73.40000 1.359
73.42000 3.337
73.44000 4.080
73.46000 3.888
73.48000 1.763
73.50000 5.907
73.52000 4.007
73.54000 0.628
73.56000 2.972
73.58000 2.001
73.60000 3.023
73.62000 2.682
73.64000 2.107
73.66000 5.242
73.68000 1.905
73.70000 1.050
73.72000 2.569
73.74000 4.245
73.76000 1.146
73.78000 2.525
73.80000 0.055
73.82000 -0.654
73.84000 0.459
73.86000 2.790
73.88000 4.480
73.90000 3.562
73.92000 1.321
73.94000 0.492
73.96000 2.780
73.98000 -0.660
74.00000 2.474
74.02000 2.868
74.04000 2.439
74.06000 2.929
74.08000 -1.004
74.10000 -1.213
74.12000 1.210
74.14000 0.965
74.16000 0.790
74.18000 0.581
74.20000 0.346
74.22000 -1.885
74.24000 1.834
74.26000 4.641
74.28000 4.611
74.30000 1.553
74.32000 3.115
74.34000 3.505
74.36000 2.942
74.38000 1.878
74.40000 0.559
74.42000 1.905
74.44000 0.158
74.46000 0.922
74.48000 1.352
74.50000 -1.460
74.52000 -1.271
74.54000 -0.401
74.56000 2.430
74.58000 3.115
74.60000 3.332
74.62000 0.989
74.64000 2.574
74.66000 3.489
74.68000 1.887
74.70000 0.530
74.72000 1.977
74.74000 -0.429
74.76000 1.920
74.78000 1.074
74.80000 0.970
74.82000 3.134
74.84000 3.107
74.86000 1.857
74.88000 3.405
74.90000 2.661
74.92000 -0.776
74.94000 -0.530
74.96000 -1.321
74.98000 -1.949
75.00000 -0.276
75.02000 0.484
75.04000 -0.020
75.06000 2.696
75.08000 0.743
75.10000 -0.715
75.12000 -0.752
75.14000 -0.796
75.16000 -1.250
75.18000 -0.007
75.20000 0.122
75.22000 1.459
75.24000 0.035
75.26000 -0.766
75.28000 -1.175
75.30000 -0.248
75.32000 -0.638
75.34000 -1.341
75.36000 0.907
75.38000 1.784
75.40000 0.891
75.42000 -0.427
75.44000 1.007
75.46000 2.736
75.48000 1.630
75.50000 -1.960
75.52000 1.474
75.54000 5.231
75.56000 2.916
75.58000 2.410
75.60000 4.657
75.62000 4.693
75.64000 3.672
75.66000 0.024
75.68000 -0.575
75.70000 1.494
75.72000 -0.217
75.74000 1.571
75.76000 1.463
75.78000 1.706
75.80000 1.597
75.82000 -0.055
75.84000 0.586
75.86000 0.053
75.88000 1.380
75.90000 4.012
75.92000 4.382
75.94000 0.487
75.96000 0.081
75.98000 2.316
76.00000 0.539
76.02000 2.278
76.04000 0.303
76.06000 -0.496
76.08000 2.387
76.10000 2.463
76.12000 4.075
76.14000 -1.886
76.16000 -1.926
76.18000 0.055
76.20000 0.404
76.22000 -0.654
76.24000 -0.294
76.26000 -1.432
76.28000 0.923
76.30000 2.990
76.32000 2.906
76.34000 1.478
76.36000 0.300
76.38000 1.150
76.40000 4.261
76.42000 4.132
76.44000 4.816
76.46000 6.835
76.48000 4.334
76.50000 0.795
76.52000 4.664
76.54000 1.304
76.56000 1.108
76.58000 4.511
76.60000 1.071
76.62000 2.436
76.64000 0.816
76.66000 0.719
76.68000 2.541
76.70000 1.740
76.72000 -1.485
76.74000 -1.939
76.76000 -0.818
76.78000 3.006
76.80000 3.257
76.82000 -0.287
76.84000 1.179
76.86000 4.820
76.88000 2.473
76.90000 0.427
76.92000 -1.920
76.94000 2.371
76.96000 2.549
76.98000 1.306
77.00000 1.345
77.02000 0.338
77.04000 2.872
77.06000 2.568
77.08000 3.299
77.10000 1.530
77.12000 0.641
77.14000 0.575
77.16000 -0.065
77.18000 0.768
77.20000 0.208
77.22000 -0.103
77.24000 0.220
77.26000 3.156
77.28000 5.612
77.30000 5.201
77.32000 1.699
77.34000 -0.827
77.36000 -0.080
77.38000 2.096
77.40000 3.448
77.42000 2.693
77.44000 -0.684
77.46000 -1.976
77.48000 -1.418
77.50000 0.101
77.52000 2.364
77.54000 3.504
77.56000 0.378
77.58000 -0.668
77.60000 -0.511
77.62000 -0.833
77.64000 -1.096
77.66000 0.405
77.68000 1.697
77.70000 3.787
77.72000 2.861
77.74000 -1.690
77.76000 2.329
77.78000 1.862
77.80000 2.773
77.82000 -0.419
77.84000 -1.441
77.86000 2.604
77.88000 2.783
77.90000 1.874
77.92000 2.265
77.94000 -0.874
77.96000 -1.398
77.98000 1.508
78.00000 0.821
78.02000 2.533
78.04000 3.011
78.06000 0.697
78.08000 0.680
78.10000 3.494
78.12000 3.622
78.14000 5.059
78.16000 3.348
78.18000 1.391
78.20000 0.669
78.22000 -1.117
78.24000 -1.985
78.26000 2.233
78.28000 6.014
78.30000 1.982
78.32000 1.871
78.34000 0.803
78.36000 0.373
78.38000 1.527
78.40000 4.353
78.42000 5.108
78.44000 5.392
78.46000 -0.719
78.48000 -0.605
78.50000 3.927
78.52000 0.997
78.54000 -1.995
78.56000 0.901
78.58000 2.421
78.60000 -0.863
78.62000 0.514
78.64000 -1.600
78.66000 0.486
78.68000 0.739
78.70000 2.717
78.72000 2.408
78.74000 4.974
78.76000 -0.243
78.78000 -1.185
78.80000 -1.248
78.82000 -1.277
78.84000 -1.469
78.86000 0.634
78.88000 2.351
78.90000 -0.347
78.92000 0.591
78.94000 3.005
78.96000 1.761
78.98000 2.234
79.00000 -0.531
79.02000 -1.997
79.04000 0.185
79.06000 -0.544
79.08000 -0.410
79.10000 3.876
79.12000 2.383
79.14000 2.973
79.16000 2.215
79.18000 1.987
79.20000 1.786
79.22000 -0.337
79.24000 -1.544
79.26000 0.180
79.28000 -0.395
79.30000 -1.125
79.32000 -0.388
79.34000 -2.007
79.36000 -0.988
79.38000 2.062
79.40000 5.805
79.42000 0.980
79.44000 1.146
79.46000 3.205
79.48000 2.045
79.50000 -1.032
79.52000 -2.015
79.54000 -1.037
79.56000 -0.837
79.58000 -0.808
79.60000 -0.324
79.62000 0.031
79.64000 -1.618
79.66000 -0.047
79.68000 6.228
79.70000 5.525
79.72000 3.083
79.74000 6.327
79.76000 1.394
79.78000 1.535
79.80000 1.046
79.82000 0.565
79.84000 2.149
79.86000 3.282
79.88000 3.103
79.90000 2.268
79.92000 2.826
79.94000 1.211
79.96000 0.604
79.98000 1.321
80.00000 3.095
80.02000 2.055
80.04000 0.806
80.06000 -0.866
80.08000 0.110
80.10000 0.829
80.12000 -0.582
80.14000 2.189
80.16000 -1.165
80.18000 0.377
80.20000 3.265
80.22000 1.254
80.24000 1.423
80.26000 -0.958
80.28000 -2.024
80.30000 -0.771
80.32000 -1.596
80.34000 0.129
80.36000 0.835
80.38000 1.761
80.40000 2.922
80.42000 -0.139
80.44000 -0.792
80.46000 -0.234
80.48000 2.748
80.50000 3.030
80.52000 4.635
80.54000 2.413
80.56000 1.361
80.58000 -1.265
80.60000 -1.630
80.62000 -0.998
80.64000 0.023
80.66000 -0.620
80.68000 -1.603
80.70000 0.093
80.72000 3.673
80.74000 4.259
80.76000 1.766
80.78000 1.758
80.80000 2.817
80.82000 0.995
80.84000 2.457
80.86000 1.775
80.88000 3.281
80.90000 6.667
80.92000 6.416
80.94000 2.037
80.96000 1.407
80.98000 1.134
81.00000 -1.641
81.02000 -1.652
81.04000 -1.875
81.06000 -1.729
81.08000 -1.743
81.10000 4.660
81.12000 2.353
81.14000 1.905
81.16000 5.493
81.18000 3.166
81.20000 -0.181
81.22000 -2.100
81.24000 4.954
81.26000 4.475
81.28000 1.745
81.30000 4.298
81.32000 2.014
81.34000 0.915
81.36000 0.397
81.38000 2.745
81.40000 3.459
81.42000 -0.205
81.44000 2.011
81.46000 1.198
81.48000 5.012
81.50000 2.366
81.52000 -0.593
81.54000 -0.596
81.56000 -1.516
81.58000 3.250
81.60000 4.489
81.62000 1.726
81.64000 -0.168
81.66000 1.529
81.68000 2.171
81.70000 2.237
81.72000 3.565
81.74000 6.224
81.76000 2.485
81.78000 1.660
81.80000 4.750
81.82000 7.185
81.84000 3.346
81.86000 4.312
81.88000 4.623
81.90000 5.324
81.92000 7.142
81.94000 7.071
81.96000 8.120
81.98000 6.538
82.00000 1.856
82.02000 3.845
82.04000 6.606
82.06000 6.797
82.08000 7.712
82.10000 11.144
82.12000 13.376
82.14000 13.967
82.16000 9.927
82.18000 8.259
82.20000 12.752
82.22000 15.424
82.24000 16.689
82.26000 15.571
82.28000 13.135
82.30000 18.760
82.32000 15.707
82.34000 22.084
82.36000 24.019
82.38000 20.307
82.40000 20.441
82.42000 28.169
82.44000 26.723
82.46000 27.309
82.48000 29.439
82.50000 28.583
82.52000 31.523
82.54000 31.314
82.56000 33.546
82.58000 37.888
82.60000 40.647
82.62000 46.128
82.64000 43.672
82.66000 42.060
82.68000 36.088
82.70000 37.616
82.72000 44.650
82.74000 47.398
82.76000 51.445
82.78000 50.229
82.80000 52.626
82.82000 56.666
82.84000 56.305
82.86000 54.060
82.88000 52.150
82.90000 54.896
82.92000 62.100
82.94000 59.721
82.96000 56.089
82.98000 61.817
83.00000 63.772
83.02000 65.598
83.04000 63.149
83.06000 61.795
83.08000 59.961
83.10000 58.526
83.12000 58.561
83.14000 56.420
83.16000 61.477
83.18000 58.439
83.20000 56.081
83.22000 53.639
83.24000 50.427
83.26000 52.776
83.28000 51.432
83.30000 54.695
83.32000 56.994
83.34000 49.010
83.36000 46.784
83.38000 47.754
83.40000 48.172
83.42000 49.486
83.44000 46.853
83.46000 40.646
83.48000 37.254
83.50000 42.105
83.52000 43.713
83.54000 37.130
83.56000 35.633
83.58000 39.316
83.60000 33.499
83.62000 33.180
83.64000 30.671
83.66000 31.537
83.68000 32.478
83.70000 33.031
83.72000 32.126
83.74000 29.874
83.76000 24.734
83.78000 21.372
83.80000 26.425
83.82000 25.234
83.84000 23.196
83.86000 19.018
83.88000 19.307
83.90000 19.159
83.92000 20.992
83.94000 20.190
83.96000 14.993
83.98000 17.163
84.00000 12.979
84.02000 11.471
84.04000 13.057
84.06000 15.558
84.08000 14.265
84.10000 12.357
84.12000 11.451
84.14000 11.393
84.16000 12.929
84.18000 7.930
84.20000 6.924
84.22000 6.747
84.24000 9.224
84.26000 7.605
84.28000 6.075
84.30000 8.080
84.32000 5.952
84.34000 6.043
84.36000 3.226
84.38000 1.565
84.40000 3.826
84.42000 4.747
84.44000 3.599
84.46000 4.763
84.48000 3.459
84.50000 2.590
84.52000 3.891
84.54000 6.480
84.56000 4.091
84.58000 3.078
84.60000 4.810
84.62000 2.198
84.64000 -2.148
84.66000 0.583
84.68000 1.087
84.70000 0.642
84.72000 2.687
84.74000 4.743
84.76000 3.705
84.78000 2.821
84.80000 1.866
84.82000 3.767
84.84000 5.698
84.86000 -0.561
84.88000 -1.056
84.90000 1.152
84.92000 4.092
84.94000 3.108
84.96000 0.987
84.98000 1.969
85.00000 0.052
85.02000 -0.160
85.04000 1.176
85.06000 1.396
85.08000 -0.134
85.10000 -0.321
85.12000 0.220
85.14000 0.839
85.16000 0.976
85.18000 2.785
85.20000 2.235
85.22000 0.570
85.24000 0.903
85.26000 -1.609
85.28000 -1.624
85.30000 0.316
85.32000 -0.485
85.34000 -1.771
85.36000 0.709
85.38000 2.142
85.40000 2.770
85.42000 0.540
85.44000 -1.398
85.46000 0.393
85.48000 1.479
85.50000 0.032
85.52000 -0.613
85.54000 2.053
85.56000 3.428
85.58000 4.882
85.60000 6.122
85.62000 3.238
85.64000 5.858
85.66000 5.106
85.68000 4.168
85.70000 2.539
85.72000 -0.990
85.74000 -2.038
85.76000 1.846
85.78000 5.444
85.80000 5.374
85.82000 2.934
85.84000 2.924
85.86000 3.164
85.88000 1.564
85.90000 0.778
85.92000 1.062
85.94000 -0.309
85.96000 -1.204
85.98000 2.021
86.00000 0.838
86.02000 5.438
86.04000 0.961
86.06000 0.919
86.08000 3.330
86.10000 1.374
86.12000 2.755
86.14000 1.080
86.16000 1.847
86.18000 3.319
86.20000 4.671
86.22000 7.054
86.24000 3.973
86.26000 3.179
86.28000 2.851
86.30000 2.405
86.32000 -1.947
86.34000 -1.340
86.36000 1.175
86.38000 5.807
86.40000 6.217
86.42000 1.689
86.44000 3.363
86.46000 5.559
86.48000 4.255
86.50000 4.405
86.52000 3.164
86.54000 3.261
86.56000 4.719
86.58000 1.897
86.60000 4.888
86.62000 8.313
86.64000 10.756
86.66000 5.256
86.68000 3.087
86.70000 7.192
86.72000 9.921
86.74000 10.108
86.76000 11.844
86.78000 11.292
86.80000 9.259
86.82000 6.615
86.84000 9.562
86.86000 14.573
86.88000 13.844
86.90000 16.522
86.92000 17.707
86.94000 17.156
86.96000 16.217
86.98000 14.429
87.00000 16.819
87.02000 24.107
87.04000 24.823
87.06000 25.146
87.08000 22.540
87.10000 25.902
87.12000 22.833
87.14000 21.295
87.16000 23.116
87.18000 26.664
87.20000 27.179
87.22000 28.600
87.24000 26.403
87.26000 29.377
87.28000 29.783
87.30000 30.710
87.32000 32.406
87.34000 30.056
87.36000 31.294
87.38000 34.000
87.40000 33.340
87.42000 33.217
87.44000 31.481
87.46000 35.967
87.48000 36.057
87.50000 39.472
87.52000 35.479
87.54000 34.011
87.56000 30.891
87.58000 34.276
87.60000 34.413
87.62000 35.662
87.64000 28.035
87.66000 33.661
87.68000 35.708
87.70000 33.398
87.72000 27.138
87.74000 22.595
87.76000 26.661
87.78000 29.834
87.80000 30.560
87.82000 28.534
87.84000 29.698
87.86000 25.108
87.88000 20.863
87.90000 20.833
87.92000 25.517
87.94000 24.459
87.96000 23.924
87.98000 26.038
88.00000 20.219
88.02000 13.908
88.04000 17.037
88.06000 19.530
88.08000 17.116
88.10000 17.179
88.12000 16.016
88.14000 17.523
88.16000 17.920
88.18000 14.867
88.20000 13.532
88.22000 16.209
88.24000 14.546
88.26000 10.631
88.28000 10.567
88.30000 10.671
88.32000 8.243
88.34000 5.904
88.36000 3.978
88.38000 9.338
88.40000 10.405
88.42000 5.211
88.44000 9.169
88.46000 8.368
88.48000 8.201
88.50000 7.125
88.52000 3.999
88.54000 3.993
88.56000 9.010
88.58000 6.193
88.60000 3.088
88.62000 3.496
88.64000 5.433
88.66000 5.669
88.68000 1.260
88.70000 1.604
88.72000 1.938
88.74000 3.358
88.76000 7.610
88.78000 2.757
88.80000 -0.022
88.82000 1.235
88.84000 1.057
88.86000 0.719
88.88000 -0.595
88.90000 0.977
88.92000 3.826
88.94000 2.235
88.96000 0.169
88.98000 1.222
89.00000 -1.401
89.02000 -2.031
89.04000 2.182
89.06000 2.241
89.08000 1.330
89.10000 1.972
89.12000 -1.176
89.14000 1.937
89.16000 2.478
89.18000 0.914
89.20000 -0.397
89.22000 -0.371
89.24000 1.263
89.26000 0.404
89.28000 2.570
89.30000 0.664
89.32000 -0.223
89.34000 3.177
89.36000 3.574
89.38000 2.582
89.40000 1.262
89.42000 0.301
89.44000 1.349
89.46000 3.250
89.48000 1.287
89.50000 -1.947
89.52000 0.536
89.54000 1.977
89.56000 3.294
89.58000 2.542
89.60000 2.186
89.62000 0.175
89.64000 -0.008
89.66000 0.081
89.68000 3.772
89.70000 3.922
89.72000 3.398
89.74000 2.655
89.76000 1.655
89.78000 4.677
89.80000 3.471
89.82000 0.955
89.84000 3.859
89.86000 4.394
89.88000 4.425
89.90000 0.645
89.92000 0.187
89.94000 4.717
89.96000 4.035
89.98000 3.566
90.00000 1.455
90.02000 -1.848
90.04000 -0.681
90.06000 1.430
90.08000 2.736
90.10000 5.510
90.12000 8.359
90.14000 8.744
90.16000 6.923
90.18000 3.051
90.20000 3.574
90.22000 3.925
90.24000 1.779
90.26000 1.703
90.28000 3.734
90.30000 3.513
90.32000 5.500
90.34000 2.626
90.36000 3.039
90.38000 1.065
90.40000 -0.824
90.42000 -1.851
90.44000 -1.055
90.46000 1.839
90.48000 -0.498
90.50000 2.854
90.52000 3.402
90.54000 1.246
90.56000 0.310
90.58000 1.926
90.60000 3.697
90.62000 4.169
90.64000 4.313
90.66000 2.035
90.68000 4.392
90.70000 3.812
90.72000 1.730
90.74000 4.218
90.76000 2.874
90.78000 2.024
90.80000 3.717
90.82000 2.885
90.84000 0.987
90.86000 1.063
90.88000 -0.738
90.90000 0.551
90.92000 6.374
90.94000 -0.651
90.96000 -1.822
90.98000 1.864
91.00000 2.700
91.02000 2.070
91.04000 2.839
91.06000 1.117
91.08000 0.088
91.10000 2.330
91.12000 3.892
91.14000 4.497
91.16000 7.354
91.18000 4.129
91.20000 3.163
91.22000 3.875
91.24000 5.256
91.26000 7.426
91.28000 6.129
91.30000 7.384
91.32000 6.339
91.34000 4.120
91.36000 3.247
91.38000 1.410
91.40000 0.269
91.42000 4.751
91.44000 3.830
91.46000 1.261
91.48000 0.108
91.50000 0.561
91.52000 2.085
91.54000 2.528
91.56000 2.385
91.58000 3.321
91.60000 1.394
91.62000 4.083
91.64000 2.656
91.66000 3.221
91.68000 3.584
91.70000 3.916
91.72000 4.429
91.74000 3.165
91.76000 3.374
91.78000 3.127
91.80000 2.290
91.82000 4.016
91.84000 1.036
91.86000 4.526
91.88000 1.857
91.90000 1.846
91.92000 0.452
91.94000 -0.758
91.96000 -1.823
91.98000 -0.146
92.00000 3.624
92.02000 6.951
92.04000 4.364
92.06000 2.859
92.08000 5.342
92.10000 2.889
92.12000 1.926
92.14000 0.340
92.16000 3.772
92.18000 0.885
92.20000 3.483
92.22000 6.532
92.24000 6.626
92.26000 3.873
92.28000 2.184
92.30000 3.870
92.32000 4.057
92.34000 2.998
92.36000 4.931
92.38000 5.131
92.40000 4.858
92.42000 4.170
92.44000 1.123
92.46000 2.319
92.48000 4.206
92.50000 6.281
92.52000 1.931
92.54000 -0.643
92.56000 -1.008
92.58000 3.626
92.60000 0.354
92.62000 2.571
92.64000 3.753
92.66000 2.302
92.68000 5.154
92.70000 6.507
92.72000 2.564
92.74000 -0.733
92.76000 3.762
92.78000 2.688
92.80000 -0.216
92.82000 3.379
92.84000 3.018
92.86000 3.889
92.88000 3.860
92.90000 2.909
92.92000 3.348
92.94000 2.537
92.96000 3.044
92.98000 2.487
93.00000 2.381
93.02000 -0.763
93.04000 -1.848
93.06000 0.173
93.08000 4.717
93.10000 4.496
93.12000 2.978
93.14000 0.932
93.16000 2.133
93.18000 0.919
93.20000 2.575
93.22000 3.418
93.24000 3.218
93.26000 5.359
93.28000 3.626
93.30000 -0.122
93.32000 0.204
93.34000 1.650
93.36000 3.645
93.38000 -0.336
93.40000 -0.094
93.42000 3.201
93.44000 1.389
93.46000 4.602
93.48000 4.034
93.50000 3.234
93.52000 3.974
93.54000 -1.031
93.56000 0.946
93.58000 2.303
93.60000 0.252
93.62000 3.738
93.64000 2.391
93.66000 -0.412
93.68000 -1.101
93.70000 1.351
93.72000 2.444
93.74000 2.470
93.76000 4.900
93.78000 6.754
93.80000 2.722
93.82000 4.090
93.84000 3.407
93.86000 -1.882
93.88000 -0.134
93.90000 3.015
93.92000 3.258
93.94000 1.740
93.96000 -0.325
93.98000 1.462
94.00000 1.530
94.02000 -0.961
94.04000 4.304
94.06000 3.932
94.08000 3.492
94.10000 2.025
94.12000 2.100
94.14000 2.516
94.16000 -1.285
94.18000 0.591
94.20000 -1.070
94.22000 1.462
94.24000 1.720
94.26000 1.273
94.28000 2.215
94.30000 5.655
94.32000 5.280
94.34000 4.365
94.36000 5.348
94.38000 1.744
94.40000 0.032
94.42000 0.541
94.44000 1.714
94.46000 -0.971
94.48000 3.438
94.50000 1.341
94.52000 -0.445
94.54000 -0.483
94.56000 -1.244
94.58000 -0.596
94.60000 1.348
94.62000 1.013
94.64000 2.276
94.66000 3.926
94.68000 2.905
94.70000 0.345
94.72000 2.054
94.74000 1.342
94.76000 1.234
94.78000 -1.102
94.80000 -1.878
94.82000 4.298
94.84000 5.505
94.86000 3.867
94.88000 6.080
94.90000 5.981
94.92000 3.673
94.94000 3.615
94.96000 2.965
94.98000 -0.860
95.00000 1.390
95.02000 0.392
95.04000 2.058
95.06000 5.201
95.08000 4.069
95.10000 4.706
95.12000 2.699
95.14000 4.698
95.16000 5.253
95.18000 2.610
95.20000 1.007
95.22000 -0.450
95.24000 1.407
95.26000 1.129
95.28000 5.475
95.30000 2.010
95.32000 1.542
95.34000 1.949
95.36000 3.985
95.38000 6.181
95.40000 5.636
95.42000 2.462
95.44000 2.693
95.46000 2.392
95.48000 2.753
95.50000 4.550
95.52000 5.841
95.54000 5.174
95.56000 2.977
95.58000 4.900
95.60000 7.055
95.62000 5.422
95.64000 4.590
95.66000 5.863
95.68000 5.296
95.70000 5.272
95.72000 5.638
95.74000 8.291
95.76000 7.440
95.78000 6.104
95.80000 3.835
95.82000 4.202
95.84000 1.888
95.86000 -1.806
95.88000 2.684
95.90000 4.609
95.92000 9.082
95.94000 6.970
95.96000 6.309
95.98000 5.711
96.00000 6.840
96.02000 10.612
96.04000 9.893
96.06000 5.746
96.08000 9.716
96.10000 6.587
96.12000 6.927
96.14000 6.831
96.16000 6.148
96.18000 6.037
96.20000 6.148
96.22000 6.196
96.24000 6.207
96.26000 2.665
96.28000 0.934
96.30000 2.634
96.32000 5.319
96.34000 6.319
96.36000 3.147
96.38000 3.572
96.40000 4.585
96.42000 5.005
96.44000 5.295
96.46000 2.652
96.48000 3.488
96.50000 4.284
96.52000 5.531
96.54000 8.824
96.56000 7.649
96.58000 8.638
96.60000 7.592
96.62000 1.656
96.64000 0.580
96.66000 5.327
96.68000 7.551
96.70000 4.003
96.72000 1.190
96.74000 -0.645
96.76000 2.972
96.78000 5.006
96.80000 -0.546
96.82000 3.114
96.84000 2.663
96.86000 0.873
96.88000 5.804
96.90000 6.239
96.92000 3.872
96.94000 0.476
96.96000 3.771
96.98000 0.947
97.00000 4.196
97.02000 6.222
97.04000 5.706
97.06000 6.894
97.08000 5.589
97.10000 2.267
97.12000 2.541
97.14000 6.266
97.16000 3.272
97.18000 4.051
97.20000 3.101
97.22000 7.030
97.24000 10.431
97.26000 5.263
97.28000 4.021
97.30000 4.194
97.32000 4.605
97.34000 2.246
97.36000 5.991
97.38000 6.516
97.40000 10.152
97.42000 8.001
97.44000 0.637
97.46000 1.736
97.48000 0.716
97.50000 4.147
97.52000 1.848
97.54000 1.974
97.56000 7.041
97.58000 5.219
97.60000 3.903
97.62000 2.257
97.64000 1.054
97.66000 -1.805
97.68000 1.726
97.70000 3.620
97.72000 7.690
97.74000 1.906
97.76000 3.619
97.78000 2.030
97.80000 -0.021
97.82000 2.430
97.84000 2.117
97.86000 -1.002
97.88000 -0.192
97.90000 6.339
97.92000 7.124
97.94000 2.680
97.96000 4.579
97.98000 3.284
98.00000 2.910
98.02000 3.327
98.04000 6.547
98.06000 8.479
98.08000 8.927
98.10000 2.911
98.12000 -0.176
98.14000 -0.215
98.16000 4.594
98.18000 1.701
98.20000 -1.814
98.22000 -0.018
98.24000 4.355
98.26000 4.212
98.28000 3.071
98.30000 -0.501
98.32000 1.604
98.34000 2.593
98.36000 -1.439
98.38000 0.535
98.40000 4.007
98.42000 4.892
98.44000 5.059
98.46000 1.512
98.48000 2.261
98.50000 9.791
98.52000 3.704
98.54000 0.832
98.56000 2.820
98.58000 5.364
98.60000 9.502
98.62000 8.992
98.64000 2.710
98.66000 -1.251
98.68000 0.988
98.70000 4.592
98.72000 7.001
98.74000 10.147
98.76000 10.498
98.78000 7.086
98.80000 3.744
98.82000 10.882
98.84000 10.060
98.86000 7.982
98.88000 4.272
98.90000 1.212
98.92000 3.502
98.94000 4.998
98.96000 7.757
98.98000 9.183
99.00000 0.862
99.02000 3.887
99.04000 -0.162
99.06000 -1.794
99.08000 6.444
99.10000 7.164
99.12000 10.198
99.14000 4.767
99.16000 4.479
99.18000 3.145
99.20000 5.206
99.22000 7.188
99.24000 1.208
99.26000 4.489
99.28000 2.786
99.30000 6.478
99.32000 0.539
99.34000 6.682
99.36000 10.219
99.38000 7.378
99.40000 1.293
99.42000 7.638
99.44000 6.829
99.46000 6.731
99.48000 -1.790
99.50000 2.014
99.52000 5.623
99.54000 2.693
99.56000 9.365
99.58000 3.812
99.60000 6.971
99.62000 6.264
99.64000 7.161
99.66000 3.849
99.68000 4.463
99.70000 2.261
99.72000 0.796
99.74000 2.704
99.76000 3.239
99.78000 1.740
99.80000 5.299
99.82000 6.150
99.84000 6.031
99.86000 7.093
99.88000 1.528
99.90000 0.558
99.92000 -1.872
99.94000 2.277
99.96000 9.744
99.98000 0.000
