'Id: "0011388" Comment: "Integrate frame 0011388_Au-Ir-Rh_Rh-rich_XRD-Mapping-165-0000.gfrmwith cursor Wedge Cursor #5" Operator: "B?rgel" Anode: "Cu" Wavelength: "1.5406" Scantype: "2Theta (TwoTheta)" TimePerStep: "1" X: "-9" Y: "0" Z: "5.95" 
10.00000 0.000
10.02000 5.422
10.04000 -5.161
10.06000 7.715
10.08000 12.040
10.10000 26.608
10.12000 27.346
10.14000 32.222
10.16000 35.472
10.18000 36.068
10.20000 24.623
10.22000 24.507
10.24000 6.063
10.26000 -4.154
10.28000 9.658
10.30000 24.587
10.32000 25.439
10.34000 25.998
10.36000 16.028
10.38000 19.709
10.40000 13.359
10.42000 12.950
10.44000 24.873
10.46000 30.375
10.48000 27.737
10.50000 16.361
10.52000 20.865
10.54000 13.414
10.56000 20.039
10.58000 22.571
10.60000 8.623
10.62000 13.501
10.64000 16.698
10.66000 2.669
10.68000 10.357
10.70000 15.455
10.72000 5.117
10.74000 16.242
10.76000 32.405
10.78000 13.384
10.80000 4.424
10.82000 20.579
10.84000 20.090
10.86000 9.754
10.88000 -1.135
10.90000 9.304
10.92000 22.382
10.94000 22.618
10.96000 19.337
10.98000 24.099
11.00000 27.836
11.02000 18.980
11.04000 12.015
11.06000 11.896
11.08000 20.620
11.10000 6.206
11.12000 6.307
11.14000 13.063
11.16000 21.686
11.18000 22.462
11.20000 23.560
11.22000 8.909
11.24000 11.385
11.26000 14.379
11.28000 13.818
11.30000 10.889
11.32000 16.407
11.34000 3.725
11.36000 8.734
11.38000 14.286
11.40000 20.751
11.42000 22.433
11.44000 3.738
11.46000 8.113
11.48000 18.486
11.50000 16.419
11.52000 12.239
11.54000 13.711
11.56000 27.696
11.58000 27.035
11.60000 16.652
11.62000 17.292
11.64000 23.132
11.66000 19.445
11.68000 10.451
11.70000 16.860
11.72000 23.468
11.74000 15.961
11.76000 15.675
11.78000 20.061
11.80000 15.521
11.82000 13.712
11.84000 12.962
11.86000 14.523
11.88000 21.867
11.90000 17.964
11.92000 17.394
11.94000 14.987
11.96000 23.499
11.98000 12.539
12.00000 5.183
12.02000 15.637
12.04000 17.087
12.06000 20.799
12.08000 12.439
12.10000 12.777
12.12000 11.242
12.14000 1.919
12.16000 7.532
12.18000 23.870
12.20000 23.382
12.22000 4.360
12.24000 10.580
12.26000 11.245
12.28000 20.567
12.30000 11.175
12.32000 5.548
12.34000 -0.313
12.36000 7.778
12.38000 6.293
12.40000 4.204
12.42000 9.737
12.44000 20.378
12.46000 10.044
12.48000 12.138
12.50000 15.601
12.52000 15.349
12.54000 8.311
12.56000 8.329
12.58000 13.188
12.60000 14.834
12.62000 23.881
12.64000 19.123
12.66000 15.729
12.68000 14.416
12.70000 9.302
12.72000 8.784
12.74000 1.381
12.76000 9.226
12.78000 26.630
12.80000 34.550
12.82000 22.106
12.84000 5.389
12.86000 -1.163
12.88000 21.595
12.90000 22.493
12.92000 24.325
12.94000 21.681
12.96000 15.239
12.98000 13.487
13.00000 10.593
13.02000 10.286
13.04000 7.853
13.06000 9.235
13.08000 11.424
13.10000 12.019
13.12000 12.421
13.14000 17.774
13.16000 14.106
13.18000 19.936
13.20000 16.329
13.22000 12.849
13.24000 9.970
13.26000 21.374
13.28000 25.238
13.30000 28.849
13.32000 17.187
13.34000 12.157
13.36000 13.415
13.38000 9.210
13.40000 10.089
13.42000 8.940
13.44000 12.864
13.46000 8.398
13.48000 13.087
13.50000 16.729
13.52000 18.020
13.54000 10.834
13.56000 12.075
13.58000 16.173
13.60000 13.320
13.62000 19.062
13.64000 14.602
13.66000 14.910
13.68000 7.985
13.70000 4.381
13.72000 8.567
13.74000 19.350
13.76000 14.827
13.78000 2.810
13.80000 0.607
13.82000 7.922
13.84000 10.621
13.86000 10.652
13.88000 11.856
13.90000 16.749
13.92000 21.443
13.94000 12.263
13.96000 15.619
13.98000 15.924
14.00000 15.657
14.02000 15.827
14.04000 8.386
14.06000 8.778
14.08000 4.392
14.10000 7.916
14.12000 14.334
14.14000 27.252
14.16000 22.168
14.18000 13.318
14.20000 13.959
14.22000 15.584
14.24000 15.530
14.26000 10.656
14.28000 17.289
14.30000 10.213
14.32000 13.708
14.34000 6.952
14.36000 2.090
14.38000 7.096
14.40000 2.262
14.42000 12.502
14.44000 19.483
14.46000 14.910
14.48000 17.382
14.50000 9.044
14.52000 13.246
14.54000 11.532
14.56000 8.266
14.58000 8.490
14.60000 7.753
14.62000 10.464
14.64000 20.631
14.66000 16.966
14.68000 10.149
14.70000 8.487
14.72000 6.747
14.74000 -4.406
14.76000 12.847
14.78000 11.557
14.80000 5.684
14.82000 7.230
14.84000 18.487
14.86000 22.754
14.88000 12.422
14.90000 11.555
14.92000 14.808
14.94000 14.331
14.96000 3.520
14.98000 1.148
15.00000 3.140
15.02000 12.207
15.04000 19.068
15.06000 7.250
15.08000 11.355
15.10000 14.911
15.12000 14.832
15.14000 9.937
15.16000 6.049
15.18000 19.025
15.20000 19.317
15.22000 14.444
15.24000 1.126
15.26000 14.472
15.28000 17.087
15.30000 16.193
15.32000 6.977
15.34000 8.667
15.36000 9.271
15.38000 12.996
15.40000 12.826
15.42000 12.429
15.44000 13.359
15.46000 17.264
15.48000 12.902
15.50000 14.911
15.52000 20.332
15.54000 6.089
15.56000 11.868
15.58000 15.281
15.60000 16.587
15.62000 13.908
15.64000 7.163
15.66000 2.092
15.68000 9.222
15.70000 14.231
15.72000 10.899
15.74000 10.486
15.76000 7.346
15.78000 7.067
15.80000 11.795
15.82000 10.447
15.84000 9.805
15.86000 14.239
15.88000 9.876
15.90000 5.454
15.92000 7.918
15.94000 9.005
15.96000 8.491
15.98000 13.796
16.00000 8.450
16.02000 3.171
16.04000 9.621
16.06000 17.659
16.08000 7.526
16.10000 6.404
16.12000 8.909
16.14000 6.016
16.16000 2.046
16.18000 4.412
16.20000 -1.872
16.22000 -1.484
16.24000 -2.932
16.26000 1.935
16.28000 7.206
16.30000 5.829
16.32000 10.408
16.34000 12.932
16.36000 7.613
16.38000 9.966
16.40000 11.097
16.42000 12.644
16.44000 16.705
16.46000 14.816
16.48000 3.537
16.50000 10.052
16.52000 8.223
16.54000 7.914
16.56000 4.052
16.58000 4.454
16.60000 -3.019
16.62000 1.930
16.64000 10.767
16.66000 8.970
16.68000 4.456
16.70000 3.716
16.72000 4.015
16.74000 7.907
16.76000 8.794
16.78000 8.272
16.80000 13.918
16.82000 10.884
16.84000 3.793
16.86000 5.011
16.88000 -0.783
16.90000 -0.388
16.92000 -2.472
16.94000 2.789
16.96000 5.812
16.98000 12.200
17.00000 12.743
17.02000 12.178
17.04000 13.301
17.06000 15.782
17.08000 10.488
17.10000 12.194
17.12000 6.560
17.14000 8.331
17.16000 10.645
17.18000 14.657
17.20000 10.632
17.22000 9.164
17.24000 11.659
17.26000 3.770
17.28000 -0.730
17.30000 1.154
17.32000 9.589
17.34000 20.516
17.36000 14.223
17.38000 13.279
17.40000 15.372
17.42000 11.661
17.44000 12.308
17.46000 5.856
17.48000 9.342
17.50000 10.083
17.52000 18.644
17.54000 22.855
17.56000 16.844
17.58000 16.085
17.60000 11.604
17.62000 2.407
17.64000 -4.301
17.66000 -3.482
17.68000 -1.757
17.70000 4.313
17.72000 12.926
17.74000 12.450
17.76000 16.752
17.78000 17.890
17.80000 12.868
17.82000 5.835
17.84000 6.243
17.86000 9.948
17.88000 11.463
17.90000 6.988
17.92000 7.818
17.94000 17.349
17.96000 16.773
17.98000 12.554
18.00000 10.119
18.02000 2.242
18.04000 0.946
18.06000 4.914
18.08000 7.638
18.10000 9.657
18.12000 8.833
18.14000 9.158
18.16000 14.354
18.18000 11.380
18.20000 9.047
18.22000 10.076
18.24000 5.121
18.26000 3.159
18.28000 7.489
18.30000 12.972
18.32000 6.150
18.34000 0.621
18.36000 -2.304
18.38000 1.918
18.40000 6.090
18.42000 13.211
18.44000 20.295
18.46000 10.884
18.48000 6.715
18.50000 8.442
18.52000 10.848
18.54000 7.166
18.56000 -2.306
18.58000 -4.268
18.60000 0.766
18.62000 6.990
18.64000 7.633
18.66000 9.506
18.68000 13.852
18.70000 15.626
18.72000 6.708
18.74000 4.498
18.76000 5.169
18.78000 2.010
18.80000 3.578
18.82000 0.224
18.84000 1.872
18.86000 4.062
18.88000 10.785
18.90000 11.209
18.92000 9.065
18.94000 10.220
18.96000 8.596
18.98000 9.746
19.00000 12.916
19.02000 8.073
19.04000 8.669
19.06000 10.790
19.08000 8.111
19.10000 6.851
19.12000 2.596
19.14000 -3.711
19.16000 9.608
19.18000 9.384
19.20000 11.777
19.22000 9.413
19.24000 13.412
19.26000 7.936
19.28000 7.196
19.30000 10.679
19.32000 7.925
19.34000 6.917
19.36000 7.099
19.38000 7.476
19.40000 4.163
19.42000 -1.231
19.44000 -4.240
19.46000 4.293
19.48000 2.563
19.50000 2.642
19.52000 14.618
19.54000 7.188
19.56000 4.200
19.58000 1.378
19.60000 5.141
19.62000 13.875
19.64000 10.567
19.66000 7.293
19.68000 2.720
19.70000 4.928
19.72000 5.568
19.74000 4.183
19.76000 11.458
19.78000 12.995
19.80000 4.173
19.82000 2.702
19.84000 5.295
19.86000 8.890
19.88000 9.965
19.90000 12.391
19.92000 12.529
19.94000 2.561
19.96000 6.994
19.98000 5.297
20.00000 -2.043
20.02000 1.844
20.04000 8.523
20.06000 5.171
20.08000 4.915
20.10000 11.772
20.12000 7.036
20.14000 6.146
20.16000 3.580
20.18000 8.536
20.20000 5.160
20.22000 3.727
20.24000 6.243
20.26000 3.248
20.28000 4.251
20.30000 2.441
20.32000 14.670
20.34000 14.203
20.36000 14.450
20.38000 13.401
20.40000 2.076
20.42000 -4.185
20.44000 2.352
20.46000 10.349
20.48000 15.095
20.50000 8.505
20.52000 9.975
20.54000 8.423
20.56000 1.045
20.58000 -1.506
20.60000 2.577
20.62000 -0.108
20.64000 0.682
20.66000 -1.782
20.68000 -2.533
20.70000 3.375
20.72000 7.446
20.74000 11.353
20.76000 8.576
20.78000 5.054
20.80000 3.219
20.82000 5.822
20.84000 7.481
20.86000 5.982
20.88000 2.184
20.90000 4.802
20.92000 -0.622
20.94000 3.662
20.96000 4.501
20.98000 3.341
21.00000 3.888
21.02000 2.901
21.04000 0.763
21.06000 9.009
21.08000 2.998
21.10000 1.490
21.12000 6.074
21.14000 6.660
21.16000 11.469
21.18000 9.508
21.20000 9.616
21.22000 14.862
21.24000 9.402
21.26000 6.195
21.28000 3.948
21.30000 4.963
21.32000 7.035
21.34000 3.267
21.36000 0.996
21.38000 1.708
21.40000 3.709
21.42000 5.518
21.44000 0.819
21.46000 4.305
21.48000 3.809
21.50000 5.510
21.52000 3.584
21.54000 8.409
21.56000 5.411
21.58000 4.001
21.60000 5.454
21.62000 7.564
21.64000 6.203
21.66000 1.079
21.68000 0.685
21.70000 2.322
21.72000 5.506
21.74000 8.915
21.76000 7.419
21.78000 5.169
21.80000 -0.052
21.82000 5.135
21.84000 4.594
21.86000 8.678
21.88000 5.942
21.90000 9.072
21.92000 4.183
21.94000 1.110
21.96000 6.387
21.98000 10.206
22.00000 0.952
22.02000 4.095
22.04000 4.721
22.06000 -0.489
22.08000 -4.097
22.10000 1.573
22.12000 9.040
22.14000 6.791
22.16000 6.264
22.18000 4.478
22.20000 5.564
22.22000 4.150
22.24000 3.423
22.26000 3.106
22.28000 9.580
22.30000 1.500
22.32000 0.714
22.34000 2.723
22.36000 2.594
22.38000 7.500
22.40000 9.062
22.42000 4.074
22.44000 2.093
22.46000 5.876
22.48000 11.720
22.50000 6.705
22.52000 5.557
22.54000 9.943
22.56000 3.977
22.58000 4.754
22.60000 11.948
22.62000 7.082
22.64000 3.002
22.66000 7.048
22.68000 2.233
22.70000 6.517
22.72000 5.889
22.74000 3.052
22.76000 2.185
22.78000 9.249
22.80000 9.571
22.82000 4.396
22.84000 7.314
22.86000 9.036
22.88000 10.021
22.90000 10.724
22.92000 9.704
22.94000 4.592
22.96000 0.068
22.98000 2.123
23.00000 2.983
23.02000 -0.657
23.04000 6.388
23.06000 4.806
23.08000 2.449
23.10000 -0.306
23.12000 3.478
23.14000 3.707
23.16000 7.078
23.18000 6.228
23.20000 -0.259
23.22000 -2.682
23.24000 7.449
23.26000 3.025
23.28000 -1.080
23.30000 0.914
23.32000 -1.627
23.34000 0.652
23.36000 4.169
23.38000 2.283
23.40000 9.703
23.42000 15.664
23.44000 4.613
23.46000 -0.723
23.48000 1.415
23.50000 -0.372
23.52000 -2.257
23.54000 1.868
23.56000 6.450
23.58000 8.158
23.60000 4.481
23.62000 0.942
23.64000 3.023
23.66000 10.963
23.68000 14.210
23.70000 6.523
23.72000 1.210
23.74000 1.293
23.76000 6.391
23.78000 10.680
23.80000 8.801
23.82000 8.845
23.84000 9.926
23.86000 4.144
23.88000 2.718
23.90000 4.286
23.92000 1.451
23.94000 4.202
23.96000 11.970
23.98000 12.528
24.00000 6.212
24.02000 0.460
24.04000 -3.976
24.06000 3.837
24.08000 5.303
24.10000 5.858
24.12000 6.877
24.14000 8.760
24.16000 5.147
24.18000 2.437
24.20000 6.362
24.22000 6.559
24.24000 3.459
24.26000 6.876
24.28000 8.722
24.30000 3.643
24.32000 -1.289
24.34000 2.331
24.36000 6.141
24.38000 2.519
24.40000 0.781
24.42000 4.381
24.44000 5.212
24.46000 8.999
24.48000 3.181
24.50000 7.559
24.52000 5.997
24.54000 3.421
24.56000 1.465
24.58000 7.996
24.60000 8.688
24.62000 4.566
24.64000 1.965
24.66000 0.585
24.68000 6.779
24.70000 12.661
24.72000 6.949
24.74000 8.029
24.76000 8.374
24.78000 4.964
24.80000 4.562
24.82000 4.715
24.84000 1.719
24.86000 3.689
24.88000 7.631
24.90000 3.232
24.92000 2.140
24.94000 6.845
24.96000 7.891
24.98000 4.264
25.00000 -0.905
25.02000 -0.772
25.04000 1.026
25.06000 -0.229
25.08000 -0.271
25.10000 5.435
25.12000 6.695
25.14000 6.200
25.16000 0.443
25.18000 -1.816
25.20000 8.312
25.22000 10.409
25.24000 8.686
25.26000 9.934
25.28000 2.570
25.30000 0.798
25.32000 8.343
25.34000 8.065
25.36000 8.118
25.38000 7.341
25.40000 1.021
25.42000 0.512
25.44000 5.195
25.46000 6.252
25.48000 6.146
25.50000 4.691
25.52000 0.567
25.54000 -2.639
25.56000 -2.634
25.58000 -1.627
25.60000 -1.377
25.62000 0.193
25.64000 -0.176
25.66000 0.499
25.68000 -3.919
25.70000 -0.050
25.72000 5.451
25.74000 4.074
25.76000 2.816
25.78000 -0.577
25.80000 0.476
25.82000 -0.583
25.84000 -3.914
25.86000 -1.724
25.88000 -0.515
25.90000 -0.475
25.92000 2.051
25.94000 6.675
25.96000 4.463
25.98000 0.783
26.00000 1.796
26.02000 -1.510
26.04000 0.419
26.06000 5.836
26.08000 8.042
26.10000 7.158
26.12000 2.017
26.14000 -1.846
26.16000 0.948
26.18000 -2.978
26.20000 0.232
26.22000 3.841
26.24000 0.820
26.26000 -1.003
26.28000 4.443
26.30000 2.281
26.32000 3.355
26.34000 6.249
26.36000 3.450
26.38000 -3.895
26.40000 -2.207
26.42000 4.086
26.44000 4.208
26.46000 2.524
26.48000 -2.336
26.50000 -2.423
26.52000 0.012
26.54000 -2.361
26.56000 1.503
26.58000 0.291
26.60000 -0.099
26.62000 0.578
26.64000 3.991
26.66000 3.728
26.68000 -0.474
26.70000 3.114
26.72000 2.513
26.74000 1.094
26.76000 6.526
26.78000 7.436
26.80000 15.250
26.82000 7.974
26.84000 -2.327
26.86000 0.150
26.88000 3.003
26.90000 6.693
26.92000 3.941
26.94000 5.069
26.96000 -0.035
26.98000 0.394
27.00000 3.900
27.02000 4.344
27.04000 4.328
27.06000 2.810
27.08000 -0.235
27.10000 -1.947
27.12000 -3.217
27.14000 -3.850
27.16000 4.912
27.18000 3.498
27.20000 2.070
27.22000 5.909
27.24000 6.500
27.26000 2.849
27.28000 1.139
27.30000 2.238
27.32000 3.774
27.34000 2.028
27.36000 7.248
27.38000 5.874
27.40000 1.628
27.42000 -0.961
27.44000 0.216
27.46000 -1.315
27.48000 3.167
27.50000 3.657
27.52000 2.748
27.54000 0.423
27.56000 1.377
27.58000 6.889
27.60000 4.407
27.62000 3.367
27.64000 0.510
27.66000 -1.733
27.68000 -0.572
27.70000 3.987
27.72000 5.070
27.74000 1.425
27.76000 4.022
27.78000 8.388
27.80000 5.244
27.82000 -3.408
27.84000 0.275
27.86000 3.566
27.88000 1.032
27.90000 -1.599
27.92000 0.052
27.94000 -2.238
27.96000 -0.900
27.98000 -2.976
28.00000 1.749
28.02000 5.119
28.04000 4.704
28.06000 2.364
28.08000 1.642
28.10000 0.503
28.12000 1.912
28.14000 -3.120
28.16000 -3.821
28.18000 -1.748
28.20000 2.479
28.22000 6.590
28.24000 3.941
28.26000 1.549
28.28000 2.907
28.30000 -0.853
28.32000 2.011
28.34000 1.253
28.36000 0.742
28.38000 3.000
28.40000 2.055
28.42000 1.176
28.44000 -2.445
28.46000 0.867
28.48000 0.949
28.50000 3.806
28.52000 3.152
28.54000 1.348
28.56000 -2.851
28.58000 -2.057
28.60000 -0.809
28.62000 -2.798
28.64000 -3.769
28.66000 0.415
28.68000 2.460
28.70000 0.092
28.72000 0.111
28.74000 1.515
28.76000 -2.202
28.78000 -3.781
28.80000 0.373
28.82000 -1.084
28.84000 5.023
28.86000 -0.765
28.88000 -2.743
28.90000 -3.772
28.92000 -1.903
28.94000 3.881
28.96000 5.920
28.98000 5.278
29.00000 0.107
29.02000 -0.647
29.04000 -2.903
29.06000 -3.688
29.08000 0.198
29.10000 -1.720
29.12000 -0.647
29.14000 -1.171
29.16000 -2.290
29.18000 1.334
29.20000 4.206
29.22000 2.994
29.24000 4.614
29.26000 1.181
29.28000 -3.742
29.30000 -1.752
29.32000 -3.403
29.34000 -2.500
29.36000 0.554
29.38000 4.477
29.40000 3.449
29.42000 1.172
29.44000 -0.719
29.46000 -0.069
29.48000 4.864
29.50000 5.092
29.52000 3.229
29.54000 -2.934
29.56000 0.919
29.58000 6.873
29.60000 0.380
29.62000 -2.459
29.64000 -0.032
29.66000 0.995
29.68000 -0.958
29.70000 -0.303
29.72000 -0.220
29.74000 2.642
29.76000 3.409
29.78000 5.414
29.80000 2.774
29.82000 0.214
29.84000 -2.315
29.86000 -1.340
29.88000 2.548
29.90000 -1.905
29.92000 -3.059
29.94000 0.573
29.96000 0.687
29.98000 3.948
30.00000 6.765
30.02000 6.029
30.04000 3.988
30.06000 2.251
30.08000 -1.815
30.10000 4.948
30.12000 5.054
30.14000 3.270
30.16000 1.631
30.18000 5.234
30.20000 3.209
30.22000 3.498
30.24000 3.688
30.26000 3.832
30.28000 3.748
30.30000 5.317
30.32000 3.608
30.34000 6.833
30.36000 6.116
30.38000 6.073
30.40000 -0.370
30.42000 3.348
30.44000 5.879
30.46000 0.968
30.48000 -3.360
30.50000 2.925
30.52000 2.895
30.54000 7.324
30.56000 11.245
30.58000 5.999
30.60000 3.497
30.62000 7.862
30.64000 5.180
30.66000 2.896
30.68000 1.378
30.70000 4.842
30.72000 6.003
30.74000 0.336
30.76000 -3.260
30.78000 1.566
30.80000 8.734
30.82000 6.376
30.84000 -0.151
30.86000 2.380
30.88000 2.749
30.90000 0.783
30.92000 5.147
30.94000 6.092
30.96000 1.348
30.98000 4.614
31.00000 2.960
31.02000 2.485
31.04000 1.824
31.06000 3.431
31.08000 7.481
31.10000 7.853
31.12000 1.400
31.14000 3.098
31.16000 2.137
31.18000 5.322
31.20000 0.963
31.22000 0.894
31.24000 2.197
31.26000 6.442
31.28000 8.911
31.30000 6.308
31.32000 7.227
31.34000 3.857
31.36000 -0.165
31.38000 3.922
31.40000 0.187
31.42000 -3.584
31.44000 3.611
31.46000 8.525
31.48000 9.231
31.50000 7.243
31.52000 6.793
31.54000 8.167
31.56000 10.236
31.58000 12.488
31.60000 7.704
31.62000 6.545
31.64000 6.135
31.66000 5.876
31.68000 9.195
31.70000 9.639
31.72000 2.666
31.74000 1.150
31.76000 4.148
31.78000 5.116
31.80000 6.535
31.82000 4.345
31.84000 6.212
31.86000 2.992
31.88000 6.433
31.90000 8.531
31.92000 4.188
31.94000 4.317
31.96000 7.498
31.98000 6.524
32.00000 8.218
32.02000 6.637
32.04000 6.118
32.06000 9.220
32.08000 6.647
32.10000 5.317
32.12000 7.293
32.14000 7.524
32.16000 4.271
32.18000 -1.378
32.20000 -2.004
32.22000 -0.790
32.24000 -0.936
32.26000 0.772
32.28000 2.415
32.30000 0.327
32.32000 -0.806
32.34000 -0.170
32.36000 4.506
32.38000 2.475
32.40000 1.006
32.42000 2.071
32.44000 -1.843
32.46000 -0.515
32.48000 4.229
32.50000 0.632
32.52000 -1.692
32.54000 1.761
32.56000 3.106
32.58000 5.772
32.60000 3.742
32.62000 3.963
32.64000 10.011
32.66000 5.556
32.68000 1.494
32.70000 2.599
32.72000 8.424
32.74000 5.363
32.76000 0.670
32.78000 3.112
32.80000 5.330
32.82000 8.393
32.84000 7.925
32.86000 6.025
32.88000 3.265
32.90000 0.640
32.92000 5.042
32.94000 -1.317
32.96000 -3.561
32.98000 -0.725
33.00000 0.918
33.02000 6.638
33.04000 1.120
33.06000 3.666
33.08000 5.990
33.10000 4.751
33.12000 5.189
33.14000 10.778
33.16000 10.697
33.18000 5.374
33.20000 6.112
33.22000 8.513
33.24000 7.130
33.26000 3.455
33.28000 4.838
33.30000 4.278
33.32000 3.055
33.34000 3.074
33.36000 6.835
33.38000 10.355
33.40000 13.273
33.42000 7.167
33.44000 3.668
33.46000 5.428
33.48000 7.695
33.50000 3.062
33.52000 1.372
33.54000 5.315
33.56000 9.460
33.58000 7.394
33.60000 6.695
33.62000 2.994
33.64000 0.585
33.66000 -3.558
33.68000 1.105
33.70000 3.408
33.72000 1.388
33.74000 -1.025
33.76000 -0.891
33.78000 2.417
33.80000 3.231
33.82000 2.089
33.84000 1.589
33.86000 3.831
33.88000 4.178
33.90000 3.513
33.92000 5.145
33.94000 3.988
33.96000 0.540
33.98000 5.307
34.00000 0.193
34.02000 0.398
34.04000 0.737
34.06000 1.479
34.08000 2.253
34.10000 -0.042
34.12000 2.082
34.14000 7.601
34.16000 4.085
34.18000 3.556
34.20000 6.317
34.22000 2.675
34.24000 0.763
34.26000 3.093
34.28000 6.671
34.30000 4.417
34.32000 3.123
34.34000 1.546
34.36000 -0.629
34.38000 0.717
34.40000 2.106
34.42000 6.787
34.44000 0.934
34.46000 4.652
34.48000 1.144
34.50000 3.368
34.52000 5.877
34.54000 1.789
34.56000 -0.596
34.58000 -3.541
34.60000 -1.185
34.62000 -1.551
34.64000 2.483
34.66000 2.659
34.68000 -0.043
34.70000 -1.639
34.72000 0.182
34.74000 5.676
34.76000 3.675
34.78000 1.933
34.80000 -1.596
34.82000 2.908
34.84000 -0.569
34.86000 -2.116
34.88000 -0.328
34.90000 -0.071
34.92000 -0.758
34.94000 5.213
34.96000 2.645
34.98000 -0.705
35.00000 0.406
35.02000 -2.154
35.04000 -2.884
35.06000 -2.961
35.08000 2.316
35.10000 5.015
35.12000 4.726
35.14000 2.193
35.16000 -0.251
35.18000 -0.326
35.20000 0.642
35.22000 0.881
35.24000 0.327
35.26000 -2.126
35.28000 -2.029
35.30000 0.548
35.32000 0.719
35.34000 -3.338
35.36000 0.010
35.38000 2.101
35.40000 0.588
35.42000 -0.584
35.44000 -0.997
35.46000 -2.326
35.48000 -0.732
35.50000 4.069
35.52000 4.391
35.54000 -1.404
35.56000 -3.544
35.58000 -1.038
35.60000 1.584
35.62000 2.515
35.64000 -0.747
35.66000 3.689
35.68000 3.460
35.70000 5.074
35.72000 2.756
35.74000 -0.838
35.76000 0.550
35.78000 0.474
35.80000 -2.813
35.82000 0.092
35.84000 -1.116
35.86000 -3.278
35.88000 -2.971
35.90000 6.252
35.92000 2.898
35.94000 -3.089
35.96000 1.782
35.98000 1.747
36.00000 -3.432
36.02000 -1.019
36.04000 -0.306
36.06000 0.688
36.08000 0.112
36.10000 3.972
36.12000 3.937
36.14000 2.547
36.16000 5.406
36.18000 -0.684
36.20000 -3.537
36.22000 -1.235
36.24000 1.156
36.26000 -1.562
36.28000 -2.084
36.30000 0.319
36.32000 5.245
36.34000 2.906
36.36000 -0.010
36.38000 2.356
36.40000 -0.355
36.42000 1.413
36.44000 1.150
36.46000 5.443
36.48000 5.928
36.50000 3.073
36.52000 1.954
36.54000 4.543
36.56000 5.414
36.58000 6.698
36.60000 2.065
36.62000 2.473
36.64000 3.752
36.66000 7.420
36.68000 2.207
36.70000 5.207
36.72000 5.248
36.74000 0.076
36.76000 0.075
36.78000 -3.527
36.80000 -1.387
36.82000 4.946
36.84000 7.057
36.86000 3.135
36.88000 3.892
36.90000 3.211
36.92000 3.177
36.94000 5.293
36.96000 5.320
36.98000 4.489
37.00000 0.130
37.02000 -2.871
37.04000 0.772
37.06000 2.135
37.08000 0.402
37.10000 0.532
37.12000 -0.868
37.14000 3.155
37.16000 2.162
37.18000 2.730
37.20000 1.996
37.22000 2.463
37.24000 2.357
37.26000 4.384
37.28000 1.291
37.30000 -0.719
37.32000 -0.913
37.34000 1.492
37.36000 1.016
37.38000 4.208
37.40000 0.131
37.42000 2.434
37.44000 7.698
37.46000 2.413
37.48000 -3.594
37.50000 -0.617
37.52000 2.090
37.54000 1.283
37.56000 0.362
37.58000 4.784
37.60000 4.164
37.62000 7.013
37.64000 9.863
37.66000 10.616
37.68000 7.283
37.70000 4.052
37.72000 1.743
37.74000 2.716
37.76000 -0.774
37.78000 -3.621
37.80000 0.074
37.82000 1.066
37.84000 2.489
37.86000 4.987
37.88000 4.600
37.90000 4.492
37.92000 1.693
37.94000 10.086
37.96000 11.884
37.98000 14.162
38.00000 8.908
38.02000 7.657
38.04000 10.277
38.06000 6.355
38.08000 4.543
38.10000 6.209
38.12000 10.249
38.14000 9.837
38.16000 11.481
38.18000 8.698
38.20000 10.914
38.22000 10.717
38.24000 12.314
38.26000 11.712
38.28000 8.821
38.30000 5.808
38.32000 10.221
38.34000 16.504
38.36000 16.067
38.38000 14.284
38.40000 11.487
38.42000 13.764
38.44000 17.326
38.46000 18.930
38.48000 20.284
38.50000 19.083
38.52000 18.455
38.54000 16.734
38.56000 11.520
38.58000 16.901
38.60000 24.313
38.62000 24.214
38.64000 21.211
38.66000 20.073
38.68000 25.478
38.70000 25.421
38.72000 22.722
38.74000 21.256
38.76000 25.120
38.78000 23.072
38.80000 28.397
38.82000 25.886
38.84000 28.222
38.86000 29.837
38.88000 27.564
38.90000 27.967
38.92000 29.789
38.94000 32.741
38.96000 33.961
38.98000 34.334
39.00000 39.017
39.02000 40.193
39.04000 37.314
39.06000 40.113
39.08000 41.168
39.10000 43.708
39.12000 43.428
39.14000 42.613
39.16000 49.161
39.18000 51.419
39.20000 55.916
39.22000 59.196
39.24000 62.689
39.26000 62.258
39.28000 67.025
39.30000 71.725
39.32000 70.775
39.34000 75.306
39.36000 79.961
39.38000 80.246
39.40000 82.705
39.42000 85.734
39.44000 92.418
39.46000 95.430
39.48000 99.174
39.50000 102.618
39.52000 112.775
39.54000 117.707
39.56000 118.180
39.58000 122.480
39.60000 136.672
39.62000 144.306
39.64000 145.470
39.66000 145.320
39.68000 152.051
39.70000 167.124
39.72000 176.596
39.74000 180.552
39.76000 190.022
39.78000 193.313
39.80000 204.154
39.82000 216.992
39.84000 226.163
39.86000 240.632
39.88000 257.921
39.90000 268.547
39.92000 277.035
39.94000 286.342
39.96000 296.564
39.98000 315.531
40.00000 323.053
40.02000 331.781
40.04000 351.005
40.06000 374.642
40.08000 389.661
40.10000 396.226
40.12000 410.920
40.14000 427.697
40.16000 438.141
40.18000 447.133
40.20000 458.502
40.22000 468.080
40.24000 486.022
40.26000 491.860
40.28000 506.913
40.30000 514.728
40.32000 522.227
40.34000 522.449
40.36000 526.858
40.38000 534.699
40.40000 538.279
40.42000 537.423
40.44000 543.987
40.46000 546.973
40.48000 539.271
40.50000 527.456
40.52000 516.780
40.54000 519.037
40.56000 509.805
40.58000 500.052
40.60000 495.449
40.62000 477.108
40.64000 469.156
40.66000 459.602
40.68000 444.904
40.70000 428.839
40.72000 415.222
40.74000 413.535
40.76000 400.526
40.78000 380.729
40.80000 370.617
40.82000 355.772
40.84000 341.488
40.86000 321.823
40.88000 301.750
40.90000 287.206
40.92000 273.884
40.94000 261.908
40.96000 255.994
40.98000 246.471
41.00000 235.744
41.02000 227.517
41.04000 207.728
41.06000 189.705
41.08000 181.067
41.10000 169.054
41.12000 163.741
41.14000 166.930
41.16000 151.305
41.18000 143.462
41.20000 133.031
41.22000 122.433
41.24000 116.139
41.26000 109.151
41.28000 106.435
41.30000 103.925
41.32000 95.857
41.34000 95.861
41.36000 94.346
41.38000 86.633
41.40000 82.024
41.42000 77.103
41.44000 66.572
41.46000 67.621
41.48000 66.039
41.50000 60.025
41.52000 56.184
41.54000 50.193
41.56000 53.444
41.58000 57.780
41.60000 51.588
41.62000 45.397
41.64000 44.259
41.66000 39.109
41.68000 36.113
41.70000 36.165
41.72000 34.479
41.74000 34.319
41.76000 36.231
41.78000 32.287
41.80000 28.106
41.82000 26.226
41.84000 24.209
41.86000 23.940
41.88000 25.252
41.90000 19.742
41.92000 19.042
41.94000 20.167
41.96000 17.871
41.98000 19.913
42.00000 19.618
42.02000 23.393
42.04000 18.394
42.06000 16.056
42.08000 15.103
42.10000 14.689
42.12000 13.363
42.14000 11.272
42.16000 11.240
42.18000 9.690
42.20000 15.680
42.22000 15.076
42.24000 6.828
42.26000 5.956
42.28000 1.746
42.30000 5.962
42.32000 7.782
42.34000 5.547
42.36000 6.862
42.38000 6.892
42.40000 8.899
42.42000 10.188
42.44000 8.928
42.46000 7.191
42.48000 4.159
42.50000 3.815
42.52000 7.176
42.54000 5.994
42.56000 7.717
42.58000 9.556
42.60000 0.793
42.62000 5.008
42.64000 6.947
42.66000 5.180
42.68000 1.344
42.70000 0.221
42.72000 5.965
42.74000 6.773
42.76000 -0.517
42.78000 1.544
42.80000 1.906
42.82000 1.078
42.84000 2.760
42.86000 0.997
42.88000 0.477
42.90000 1.137
42.92000 2.037
42.94000 -1.339
42.96000 4.555
42.98000 0.570
43.00000 -2.486
43.02000 -2.450
43.04000 3.752
43.06000 6.437
43.08000 2.509
43.10000 4.040
43.12000 4.481
43.14000 3.692
43.16000 5.414
43.18000 3.807
43.20000 4.037
43.22000 1.594
43.24000 5.794
43.26000 1.488
43.28000 -0.678
43.30000 7.418
43.32000 5.343
43.34000 2.644
43.36000 -3.473
43.38000 2.077
43.40000 5.460
43.42000 0.600
43.44000 4.055
43.46000 4.558
43.48000 6.011
43.50000 0.142
43.52000 3.027
43.54000 1.821
43.56000 2.251
43.58000 2.344
43.60000 1.561
43.62000 4.808
43.64000 -0.744
43.66000 -3.154
43.68000 0.603
43.70000 -2.503
43.72000 -3.465
43.74000 -1.100
43.76000 -1.421
43.78000 0.068
43.80000 0.899
43.82000 -0.266
43.84000 2.034
43.86000 3.635
43.88000 0.752
43.90000 1.219
43.92000 0.126
43.94000 -1.982
43.96000 -1.183
43.98000 4.449
44.00000 6.228
44.02000 2.527
44.04000 3.787
44.06000 0.997
44.08000 1.769
44.10000 0.059
44.12000 -0.011
44.14000 -0.027
44.16000 0.731
44.18000 0.248
44.20000 -1.381
44.22000 -0.850
44.24000 0.224
44.26000 -2.527
44.28000 -0.107
44.30000 -2.260
44.32000 -0.374
44.34000 0.381
44.36000 -3.031
44.38000 -0.480
44.40000 -0.790
44.42000 0.347
44.44000 0.202
44.46000 2.253
44.48000 1.504
44.50000 0.260
44.52000 1.146
44.54000 -0.521
44.56000 0.688
44.58000 4.758
44.60000 4.990
44.62000 1.312
44.64000 -0.352
44.66000 -0.541
44.68000 1.838
44.70000 -0.332
44.72000 -2.184
44.74000 -3.469
44.76000 -0.337
44.78000 -0.791
44.80000 0.017
44.82000 -0.555
44.84000 3.259
44.86000 3.656
44.88000 2.169
44.90000 1.879
44.92000 3.687
44.94000 1.949
44.96000 0.656
44.98000 -0.298
45.00000 5.628
45.02000 6.081
45.04000 10.677
45.06000 6.278
45.08000 7.710
45.10000 9.480
45.12000 4.336
45.14000 5.294
45.16000 8.148
45.18000 9.082
45.20000 9.855
45.22000 7.853
45.24000 5.675
45.26000 6.445
45.28000 6.118
45.30000 2.666
45.32000 6.368
45.34000 11.017
45.36000 11.681
45.38000 11.494
45.40000 11.323
45.42000 10.861
45.44000 9.579
45.46000 13.099
45.48000 13.816
45.50000 14.701
45.52000 16.125
45.54000 18.190
45.56000 18.636
45.58000 14.222
45.60000 14.118
45.62000 16.674
45.64000 15.237
45.66000 14.459
45.68000 21.099
45.70000 17.756
45.72000 20.007
45.74000 22.212
45.76000 16.516
45.78000 23.802
45.80000 25.204
45.82000 24.303
45.84000 24.113
45.86000 25.017
45.88000 25.434
45.90000 24.384
45.92000 25.268
45.94000 29.437
45.96000 32.304
45.98000 28.817
46.00000 28.107
46.02000 33.134
46.04000 35.901
46.06000 36.559
46.08000 33.010
46.10000 31.824
46.12000 37.666
46.14000 42.761
46.16000 45.607
46.18000 39.624
46.20000 42.425
46.22000 45.823
46.24000 44.039
46.26000 50.926
46.28000 46.177
46.30000 50.054
46.32000 46.865
46.34000 49.043
46.36000 58.038
46.38000 50.688
46.40000 58.852
46.42000 55.794
46.44000 56.917
46.46000 55.424
46.48000 55.674
46.50000 56.977
46.52000 56.605
46.54000 60.217
46.56000 65.328
46.58000 67.470
46.60000 69.230
46.62000 72.837
46.64000 72.293
46.66000 68.908
46.68000 78.484
46.70000 77.737
46.72000 79.503
46.74000 81.725
46.76000 82.738
46.78000 80.661
46.80000 78.173
46.82000 79.418
46.84000 77.186
46.86000 82.140
46.88000 86.661
46.90000 88.780
46.92000 88.813
46.94000 76.913
46.96000 80.203
46.98000 86.505
47.00000 89.207
47.02000 85.284
47.04000 82.195
47.06000 77.970
47.08000 75.938
47.10000 77.511
47.12000 78.042
47.14000 82.874
47.16000 91.555
47.18000 94.175
47.20000 78.407
47.22000 76.447
47.24000 76.603
47.26000 76.151
47.28000 76.699
47.30000 84.490
47.32000 74.235
47.34000 66.794
47.36000 70.959
47.38000 67.567
47.40000 69.457
47.42000 64.574
47.44000 61.383
47.46000 61.095
47.48000 62.994
47.50000 65.912
47.52000 63.815
47.54000 63.513
47.56000 55.063
47.58000 60.048
47.60000 60.387
47.62000 57.126
47.64000 56.371
47.66000 47.304
47.68000 48.409
47.70000 48.512
47.72000 50.702
47.74000 48.238
47.76000 42.892
47.78000 45.044
47.80000 41.985
47.82000 39.901
47.84000 45.310
47.86000 42.120
47.88000 37.140
47.90000 28.935
47.92000 30.779
47.94000 29.503
47.96000 26.408
47.98000 25.440
48.00000 28.397
48.02000 24.809
48.04000 23.738
48.06000 23.781
48.08000 23.967
48.10000 28.894
48.12000 21.807
48.14000 19.387
48.16000 24.806
48.18000 25.792
48.20000 19.608
48.22000 15.682
48.24000 17.638
48.26000 16.335
48.28000 14.666
48.30000 16.405
48.32000 15.199
48.34000 10.115
48.36000 7.743
48.38000 12.682
48.40000 16.402
48.42000 17.480
48.44000 13.907
48.46000 14.983
48.48000 9.382
48.50000 12.492
48.52000 12.314
48.54000 6.534
48.56000 12.369
48.58000 13.019
48.60000 14.401
48.62000 8.598
48.64000 5.706
48.66000 3.658
48.68000 4.099
48.70000 5.265
48.72000 7.146
48.74000 3.738
48.76000 4.292
48.78000 8.985
48.80000 8.388
48.82000 11.047
48.84000 7.088
48.86000 0.485
48.88000 -0.036
48.90000 4.704
48.92000 6.257
48.94000 6.005
48.96000 9.216
48.98000 8.269
49.00000 7.925
49.02000 8.624
49.04000 8.239
49.06000 7.537
49.08000 4.666
49.10000 7.183
49.12000 5.696
49.14000 -3.027
49.16000 5.917
49.18000 8.586
49.20000 10.739
49.22000 12.709
49.24000 12.479
49.26000 5.871
49.28000 7.079
49.30000 4.988
49.32000 6.761
49.34000 1.472
49.36000 8.328
49.38000 3.318
49.40000 4.339
49.42000 5.397
49.44000 9.867
49.46000 3.520
49.48000 1.252
49.50000 2.011
49.52000 6.383
49.54000 7.569
49.56000 5.131
49.58000 3.809
49.60000 0.236
49.62000 -2.387
49.64000 -3.007
49.66000 4.472
49.68000 4.188
49.70000 3.861
49.72000 3.277
49.74000 6.638
49.76000 6.510
49.78000 9.077
49.80000 2.840
49.82000 5.934
49.84000 4.658
49.86000 3.302
49.88000 1.548
49.90000 1.376
49.92000 5.743
49.94000 4.095
49.96000 5.609
49.98000 6.103
50.00000 2.751
50.02000 -0.244
50.04000 0.510
50.06000 4.006
50.08000 4.375
50.10000 5.759
50.12000 5.367
50.14000 7.275
50.16000 5.230
50.18000 2.218
50.20000 1.005
50.22000 1.912
50.24000 6.821
50.26000 1.726
50.28000 4.103
50.30000 5.858
50.32000 5.279
50.34000 4.018
50.36000 3.399
50.38000 2.682
50.40000 9.456
50.42000 9.713
50.44000 8.030
50.46000 6.492
50.48000 6.915
50.50000 2.749
50.52000 0.337
50.54000 6.766
50.56000 8.780
50.58000 6.684
50.60000 1.671
50.62000 -0.518
50.64000 1.542
50.66000 4.199
50.68000 8.772
50.70000 4.542
50.72000 0.669
50.74000 3.351
50.76000 5.633
50.78000 4.457
50.80000 4.750
50.82000 -2.915
50.84000 -1.511
50.86000 2.919
50.88000 -0.133
50.90000 0.266
50.92000 2.081
50.94000 5.329
50.96000 3.022
50.98000 2.425
51.00000 4.855
51.02000 6.027
51.04000 6.132
51.06000 7.649
51.08000 3.816
51.10000 3.491
51.12000 9.217
51.14000 6.266
51.16000 4.519
51.18000 3.902
51.20000 5.769
51.22000 4.558
51.24000 5.904
51.26000 6.276
51.28000 5.605
51.30000 1.867
51.32000 -0.334
51.34000 5.136
51.36000 4.399
51.38000 8.004
51.40000 8.869
51.42000 10.432
51.44000 8.885
51.46000 5.349
51.48000 4.642
51.50000 7.987
51.52000 10.934
51.54000 5.702
51.56000 3.212
51.58000 4.666
51.60000 2.425
51.62000 6.003
51.64000 7.417
51.66000 7.346
51.68000 10.070
51.70000 8.509
51.72000 1.751
51.74000 -2.841
51.76000 6.466
51.78000 12.058
51.80000 6.758
51.82000 8.059
51.84000 4.140
51.86000 4.848
51.88000 2.473
51.90000 4.716
51.92000 2.426
51.94000 1.717
51.96000 4.173
51.98000 5.179
52.00000 6.495
52.02000 5.223
52.04000 2.721
52.06000 8.776
52.08000 11.622
52.10000 7.688
52.12000 4.615
52.14000 4.273
52.16000 4.040
52.18000 7.716
52.20000 8.630
52.22000 4.548
52.24000 3.278
52.26000 -2.058
52.28000 0.815
52.30000 1.591
52.32000 3.003
52.34000 2.037
52.36000 7.522
52.38000 5.177
52.40000 3.044
52.42000 3.626
52.44000 5.085
52.46000 3.127
52.48000 0.382
52.50000 1.161
52.52000 0.259
52.54000 0.264
52.56000 5.496
52.58000 3.655
52.60000 4.193
52.62000 3.446
52.64000 0.851
52.66000 4.585
52.68000 1.306
52.70000 -1.768
52.72000 -2.173
52.74000 2.992
52.76000 6.173
52.78000 10.281
52.80000 3.095
52.82000 0.584
52.84000 2.362
52.86000 4.428
52.88000 4.248
52.90000 3.506
52.92000 1.125
52.94000 -1.825
52.96000 4.879
52.98000 8.080
53.00000 4.991
53.02000 7.637
53.04000 9.443
53.06000 8.435
53.08000 4.609
53.10000 6.830
53.12000 4.377
53.14000 0.156
53.16000 -0.065
53.18000 3.596
53.20000 0.865
53.22000 3.572
53.24000 7.887
53.26000 8.608
53.28000 6.257
53.30000 3.314
53.32000 0.979
53.34000 5.486
53.36000 4.604
53.38000 8.087
53.40000 6.921
53.42000 4.945
53.44000 4.871
53.46000 -0.469
53.48000 -0.515
53.50000 1.523
53.52000 3.728
53.54000 0.866
53.56000 4.866
53.58000 1.474
53.60000 1.532
53.62000 -2.861
53.64000 -2.266
53.66000 1.677
53.68000 0.102
53.70000 -0.270
53.72000 -0.920
53.74000 -0.002
53.76000 0.754
53.78000 1.988
53.80000 4.588
53.82000 4.118
53.84000 3.447
53.86000 -0.073
53.88000 2.426
53.90000 1.877
53.92000 7.672
53.94000 4.021
53.96000 0.640
53.98000 -1.247
54.00000 2.712
54.02000 2.485
54.04000 -0.111
54.06000 5.018
54.08000 5.117
54.10000 3.855
54.12000 -0.226
54.14000 1.148
54.16000 4.130
54.18000 3.544
54.20000 0.187
54.22000 0.649
54.24000 5.769
54.26000 7.678
54.28000 2.989
54.30000 2.519
54.32000 -0.443
54.34000 -1.605
54.36000 1.086
54.38000 -0.068
54.40000 4.885
54.42000 2.316
54.44000 1.655
54.46000 5.925
54.48000 2.947
54.50000 0.764
54.52000 2.639
54.54000 7.526
54.56000 5.337
54.58000 1.372
54.60000 3.360
54.62000 5.033
54.64000 8.446
54.66000 8.632
54.68000 2.643
54.70000 3.442
54.72000 3.903
54.74000 4.841
54.76000 6.059
54.78000 1.574
54.80000 3.228
54.82000 4.470
54.84000 8.505
54.86000 7.338
54.88000 5.756
54.90000 8.161
54.92000 8.532
54.94000 4.183
54.96000 4.224
54.98000 5.723
55.00000 7.000
55.02000 10.839
55.04000 11.442
55.06000 9.126
55.08000 8.842
55.10000 1.767
55.12000 -2.336
55.14000 -2.737
55.16000 6.761
55.18000 3.140
55.20000 4.810
55.22000 6.701
55.24000 11.828
55.26000 10.120
55.28000 6.089
55.30000 8.307
55.32000 8.667
55.34000 7.942
55.36000 8.971
55.38000 7.471
55.40000 4.713
55.42000 4.909
55.44000 2.407
55.46000 3.117
55.48000 3.794
55.50000 0.715
55.52000 4.631
55.54000 2.059
55.56000 4.459
55.58000 8.743
55.60000 11.242
55.62000 6.664
55.64000 2.821
55.66000 6.208
55.68000 3.696
55.70000 6.321
55.72000 8.725
55.74000 6.290
55.76000 3.316
55.78000 3.841
55.80000 3.581
55.82000 2.985
55.84000 4.879
55.86000 3.445
55.88000 0.893
55.90000 4.118
55.92000 4.685
55.94000 5.299
55.96000 4.328
55.98000 6.935
56.00000 7.130
56.02000 5.309
56.04000 8.631
56.06000 5.350
56.08000 3.349
56.10000 3.905
56.12000 6.326
56.14000 4.506
56.16000 5.819
56.18000 7.103
56.20000 6.759
56.22000 3.808
56.24000 10.028
56.26000 6.222
56.28000 5.203
56.30000 4.818
56.32000 8.353
56.34000 9.335
56.36000 6.866
56.38000 5.876
56.40000 5.807
56.42000 1.052
56.44000 4.067
56.46000 7.372
56.48000 3.293
56.50000 3.501
56.52000 3.933
56.54000 10.682
56.56000 7.827
56.58000 5.199
56.60000 -2.722
56.62000 1.802
56.64000 4.664
56.66000 4.161
56.68000 5.714
56.70000 8.479
56.72000 2.465
56.74000 2.519
56.76000 4.978
56.78000 2.763
56.80000 -0.876
56.82000 5.826
56.84000 10.231
56.86000 3.375
56.88000 5.155
56.90000 3.925
56.92000 2.550
56.94000 3.168
56.96000 4.959
56.98000 8.378
57.00000 3.730
57.02000 2.161
57.04000 1.221
57.06000 2.149
57.08000 -0.680
57.10000 0.363
57.12000 -0.760
57.14000 6.008
57.16000 8.114
57.18000 4.251
57.20000 4.766
57.22000 3.151
57.24000 2.728
57.26000 2.902
57.28000 4.893
57.30000 4.672
57.32000 4.336
57.34000 4.275
57.36000 8.095
57.38000 0.192
57.40000 1.472
57.42000 2.694
57.44000 4.087
57.46000 1.365
57.48000 1.024
57.50000 3.466
57.52000 6.045
57.54000 5.494
57.56000 6.174
57.58000 4.468
57.60000 9.437
57.62000 4.714
57.64000 3.199
57.66000 3.202
57.68000 3.424
57.70000 6.371
57.72000 5.177
57.74000 -0.838
57.76000 3.908
57.78000 7.677
57.80000 5.109
57.82000 3.779
57.84000 -0.455
57.86000 0.485
57.88000 2.734
57.90000 7.859
57.92000 5.352
57.94000 7.877
57.96000 9.588
57.98000 9.032
58.00000 7.715
58.02000 2.572
58.04000 -1.611
58.06000 -2.684
58.08000 2.728
58.10000 6.367
58.12000 4.932
58.14000 1.544
58.16000 -0.947
58.18000 -2.238
58.20000 0.094
58.22000 4.919
58.24000 7.261
58.26000 6.295
58.28000 9.562
58.30000 1.536
58.32000 0.503
58.34000 3.248
58.36000 4.804
58.38000 3.057
58.40000 6.399
58.42000 7.986
58.44000 12.336
58.46000 5.417
58.48000 2.004
58.50000 7.001
58.52000 5.502
58.54000 2.155
58.56000 1.236
58.58000 6.291
58.60000 7.226
58.62000 3.459
58.64000 3.020
58.66000 5.917
58.68000 2.769
58.70000 4.676
58.72000 6.287
58.74000 2.292
58.76000 4.834
58.78000 6.453
58.80000 7.477
58.82000 0.516
58.84000 6.942
58.86000 6.083
58.88000 1.424
58.90000 5.496
58.92000 1.361
58.94000 1.258
58.96000 1.447
58.98000 2.664
59.00000 6.849
59.02000 3.539
59.04000 1.011
59.06000 3.047
59.08000 2.966
59.10000 2.164
59.12000 1.702
59.14000 4.210
59.16000 5.713
59.18000 2.251
59.20000 -0.651
59.22000 3.075
59.24000 7.415
59.26000 2.468
59.28000 4.677
59.30000 2.099
59.32000 0.121
59.34000 -0.757
59.36000 -2.302
59.38000 -2.636
59.40000 -2.352
59.42000 -1.697
59.44000 3.913
59.46000 7.352
59.48000 0.584
59.50000 0.470
59.52000 1.471
59.54000 4.735
59.56000 5.687
59.58000 8.120
59.60000 4.496
59.62000 4.402
59.64000 5.121
59.66000 5.178
59.68000 2.687
59.70000 5.232
59.72000 8.785
59.74000 4.940
59.76000 1.434
59.78000 6.244
59.80000 5.672
59.82000 2.533
59.84000 5.884
59.86000 6.408
59.88000 6.009
59.90000 4.268
59.92000 6.533
59.94000 10.461
59.96000 7.902
59.98000 10.433
60.00000 11.013
60.02000 5.427
60.04000 8.424
60.06000 9.807
60.08000 7.156
60.10000 3.730
60.12000 7.944
60.14000 2.628
60.16000 -2.555
60.18000 5.425
60.20000 6.965
60.22000 7.411
60.24000 8.213
60.26000 10.734
60.28000 9.706
60.30000 8.997
60.32000 2.328
60.34000 2.542
60.36000 6.503
60.38000 7.634
60.40000 6.590
60.42000 5.216
60.44000 1.573
60.46000 3.139
60.48000 6.024
60.50000 5.292
60.52000 2.637
60.54000 0.101
60.56000 5.084
60.58000 1.853
60.60000 1.246
60.62000 5.189
60.64000 3.048
60.66000 5.228
60.68000 6.689
60.70000 8.363
60.72000 5.295
60.74000 4.332
60.76000 2.658
60.78000 2.510
60.80000 1.204
60.82000 -0.002
60.84000 1.434
60.86000 5.181
60.88000 1.481
60.90000 -2.576
60.92000 0.524
60.94000 5.104
60.96000 8.136
60.98000 6.883
61.00000 2.364
61.02000 1.274
61.04000 7.470
61.06000 5.361
61.08000 1.111
61.10000 0.048
61.12000 3.721
61.14000 5.006
61.16000 1.051
61.18000 -2.128
61.20000 -2.588
61.22000 -1.029
61.24000 2.989
61.26000 5.543
61.28000 5.513
61.30000 1.948
61.32000 0.213
61.34000 5.381
61.36000 4.030
61.38000 1.563
61.40000 -1.937
61.42000 4.067
61.44000 4.873
61.46000 3.255
61.48000 2.520
61.50000 2.304
61.52000 3.734
61.54000 0.207
61.56000 -2.220
61.58000 1.911
61.60000 1.117
61.62000 1.853
61.64000 1.221
61.66000 -2.044
61.68000 -0.849
61.70000 -2.596
61.72000 0.569
61.74000 4.506
61.76000 4.646
61.78000 4.376
61.80000 4.746
61.82000 2.094
61.84000 -0.228
61.86000 0.741
61.88000 1.228
61.90000 0.631
61.92000 2.511
61.94000 -2.597
61.96000 -0.648
61.98000 -0.696
62.00000 -0.345
62.02000 1.054
62.04000 3.762
62.06000 3.299
62.08000 3.404
62.10000 3.700
62.12000 1.101
62.14000 3.147
62.16000 0.286
62.18000 2.406
62.20000 1.604
62.22000 1.894
62.24000 3.194
62.26000 2.413
62.28000 1.398
62.30000 0.773
62.32000 2.192
62.34000 0.386
62.36000 -1.548
62.38000 1.618
62.40000 -0.711
62.42000 1.968
62.44000 1.008
62.46000 0.769
62.48000 0.481
62.50000 -1.926
62.52000 -0.034
62.54000 -0.745
62.56000 0.115
62.58000 -2.449
62.60000 -0.638
62.62000 1.401
62.64000 1.751
62.66000 -2.043
62.68000 3.906
62.70000 7.505
62.72000 3.135
62.74000 4.385
62.76000 1.838
62.78000 4.779
62.80000 6.692
62.82000 4.047
62.84000 4.334
62.86000 2.331
62.88000 4.030
62.90000 1.252
62.92000 4.702
62.94000 5.213
62.96000 9.562
62.98000 8.891
63.00000 1.826
63.02000 3.834
63.04000 1.585
63.06000 0.843
63.08000 1.080
63.10000 -1.374
63.12000 0.770
63.14000 0.773
63.16000 -0.279
63.18000 -1.166
63.20000 0.746
63.22000 -1.175
63.24000 -2.543
63.26000 2.462
63.28000 5.176
63.30000 7.617
63.32000 8.584
63.34000 8.229
63.36000 8.850
63.38000 5.209
63.40000 5.362
63.42000 6.821
63.44000 7.443
63.46000 6.738
63.48000 5.426
63.50000 -0.327
63.52000 0.092
63.54000 -0.986
63.56000 2.220
63.58000 -0.549
63.60000 3.734
63.62000 8.327
63.64000 6.784
63.66000 6.023
63.68000 5.700
63.70000 3.364
63.72000 0.038
63.74000 1.149
63.76000 0.300
63.78000 2.817
63.80000 1.996
63.82000 4.909
63.84000 3.936
63.86000 5.955
63.88000 5.101
63.90000 0.736
63.92000 1.707
63.94000 0.087
63.96000 4.155
63.98000 4.540
64.00000 4.655
64.02000 3.712
64.04000 2.036
64.06000 6.683
64.08000 3.301
64.10000 3.140
64.12000 1.187
64.14000 -1.245
64.16000 2.173
64.18000 3.904
64.20000 0.469
64.22000 -0.128
64.24000 3.504
64.26000 5.276
64.28000 4.052
64.30000 1.860
64.32000 -0.935
64.34000 -0.494
64.36000 -2.606
64.38000 -1.796
64.40000 2.234
64.42000 1.877
64.44000 2.441
64.46000 3.752
64.48000 2.039
64.50000 -0.122
64.52000 0.346
64.54000 0.158
64.56000 0.185
64.58000 -0.775
64.60000 -2.329
64.62000 -2.432
64.64000 0.857
64.66000 1.761
64.68000 2.982
64.70000 0.170
64.72000 -1.870
64.74000 -2.107
64.76000 -1.465
64.78000 -0.963
64.80000 0.833
64.82000 3.884
64.84000 -2.413
64.86000 -2.383
64.88000 0.285
64.90000 2.817
64.92000 -1.648
64.94000 -1.631
64.96000 2.880
64.98000 -0.260
65.00000 0.123
65.02000 5.166
65.04000 2.880
65.06000 -1.036
65.08000 0.033
65.10000 2.119
65.12000 1.003
65.14000 -2.044
65.16000 -2.499
65.18000 -2.441
65.20000 -2.607
65.22000 -0.273
65.24000 0.794
65.26000 -1.897
65.28000 1.732
65.30000 2.564
65.32000 -1.559
65.34000 -0.620
65.36000 -0.103
65.38000 -1.824
65.40000 -0.160
65.42000 0.858
65.44000 3.593
65.46000 3.010
65.48000 0.252
65.50000 2.755
65.52000 0.509
65.54000 2.765
65.56000 2.319
65.58000 1.624
65.60000 2.108
65.62000 -1.513
65.64000 -2.603
65.66000 0.913
65.68000 1.179
65.70000 -0.391
65.72000 -0.839
65.74000 -1.808
65.76000 -0.653
65.78000 2.184
65.80000 1.360
65.82000 -0.482
65.84000 2.196
65.86000 3.340
65.88000 -1.157
65.90000 -1.724
65.92000 1.378
65.94000 1.441
65.96000 3.499
65.98000 1.250
66.00000 0.265
66.02000 -0.878
66.04000 -2.626
66.06000 1.055
66.08000 0.770
66.10000 1.175
66.12000 1.822
66.14000 3.480
66.16000 6.954
66.18000 2.066
66.20000 0.362
66.22000 1.260
66.24000 0.575
66.26000 -1.413
66.28000 -1.702
66.30000 2.687
66.32000 4.857
66.34000 3.003
66.36000 3.488
66.38000 -1.420
66.40000 -1.531
66.42000 2.641
66.44000 -0.051
66.46000 0.537
66.48000 -0.098
66.50000 -1.251
66.52000 2.680
66.54000 3.292
66.56000 1.957
66.58000 1.812
66.60000 -0.310
66.62000 -2.649
66.64000 0.696
66.66000 0.055
66.68000 3.463
66.70000 2.905
66.72000 1.655
66.74000 0.418
66.76000 -0.280
66.78000 2.464
66.80000 3.527
66.82000 3.511
66.84000 0.076
66.86000 -0.696
66.88000 -1.694
66.90000 -0.148
66.92000 0.276
66.94000 -0.691
66.96000 -2.404
66.98000 3.927
67.00000 2.113
67.02000 5.365
67.04000 1.870
67.06000 -0.238
67.08000 1.954
67.10000 2.081
67.12000 5.285
67.14000 7.733
67.16000 7.137
67.18000 3.919
67.20000 3.126
67.22000 4.984
67.24000 5.396
67.26000 4.013
67.28000 6.317
67.30000 2.676
67.32000 -0.158
67.34000 -0.878
67.36000 -0.178
67.38000 4.852
67.40000 6.737
67.42000 7.088
67.44000 4.746
67.46000 4.958
67.48000 7.825
67.50000 8.413
67.52000 5.872
67.54000 3.903
67.56000 1.759
67.58000 4.571
67.60000 10.016
67.62000 3.716
67.64000 2.366
67.66000 1.756
67.68000 3.659
67.70000 6.874
67.72000 9.835
67.74000 11.826
67.76000 13.615
67.78000 15.130
67.80000 14.569
67.82000 10.247
67.84000 7.140
67.86000 10.242
67.88000 13.081
67.90000 18.620
67.92000 14.033
67.94000 11.605
67.96000 14.367
67.98000 14.784
68.00000 11.865
68.02000 13.148
68.04000 13.570
68.06000 18.139
68.08000 17.621
68.10000 12.476
68.12000 11.964
68.14000 13.920
68.16000 11.482
68.18000 13.229
68.20000 15.134
68.22000 14.991
68.24000 18.794
68.26000 22.348
68.28000 24.319
68.30000 19.362
68.32000 21.262
68.34000 19.801
68.36000 18.714
68.38000 18.178
68.40000 19.924
68.42000 18.241
68.44000 18.580
68.46000 20.759
68.48000 21.168
68.50000 24.303
68.52000 24.538
68.54000 22.490
68.56000 19.652
68.58000 21.871
68.60000 19.705
68.62000 24.832
68.64000 26.616
68.66000 20.686
68.68000 22.042
68.70000 21.322
68.72000 20.328
68.74000 19.745
68.76000 21.809
68.78000 22.864
68.80000 22.180
68.82000 21.501
68.84000 26.449
68.86000 24.271
68.88000 22.228
68.90000 21.631
68.92000 18.614
68.94000 21.065
68.96000 21.640
68.98000 19.419
69.00000 18.285
69.02000 17.111
69.04000 19.748
69.06000 19.290
69.08000 19.149
69.10000 13.744
69.12000 15.549
69.14000 15.392
69.16000 13.380
69.18000 15.224
69.20000 14.015
69.22000 19.066
69.24000 14.318
69.26000 13.048
69.28000 10.641
69.30000 6.467
69.32000 11.602
69.34000 14.144
69.36000 10.935
69.38000 6.923
69.40000 13.136
69.42000 13.163
69.44000 6.239
69.46000 10.112
69.48000 6.819
69.50000 8.400
69.52000 6.358
69.54000 4.851
69.56000 3.700
69.58000 4.394
69.60000 9.335
69.62000 8.935
69.64000 7.018
69.66000 8.074
69.68000 6.600
69.70000 3.931
69.72000 5.455
69.74000 8.516
69.76000 4.433
69.78000 1.435
69.80000 1.151
69.82000 1.403
69.84000 7.321
69.86000 7.538
69.88000 2.897
69.90000 3.751
69.92000 -0.950
69.94000 -2.043
69.96000 3.754
69.98000 2.820
70.00000 2.740
70.02000 2.614
70.04000 2.218
70.06000 2.717
70.08000 -0.659
70.10000 5.537
70.12000 6.014
70.14000 5.065
70.16000 -0.733
70.18000 -1.137
70.20000 3.170
70.22000 1.889
70.24000 2.233
70.26000 4.345
70.28000 1.393
70.30000 0.531
70.32000 3.658
70.34000 2.812
70.36000 0.594
70.38000 0.143
70.40000 1.127
70.42000 1.746
70.44000 2.014
70.46000 -0.105
70.48000 0.853
70.50000 -1.827
70.52000 0.036
70.54000 1.933
70.56000 4.077
70.58000 4.204
70.60000 4.026
70.62000 1.668
70.64000 2.178
70.66000 0.935
70.68000 0.188
70.70000 -1.214
70.72000 2.622
70.74000 5.313
70.76000 6.386
70.78000 1.050
70.80000 2.475
70.82000 -0.650
70.84000 2.417
70.86000 3.541
70.88000 -0.340
70.90000 1.080
70.92000 1.412
70.94000 4.470
70.96000 3.504
70.98000 2.167
71.00000 -2.468
71.02000 1.495
71.04000 5.466
71.06000 3.471
71.08000 1.915
71.10000 4.844
71.12000 3.939
71.14000 2.832
71.16000 4.689
71.18000 5.802
71.20000 3.983
71.22000 7.101
71.24000 2.695
71.26000 2.129
71.28000 3.891
71.30000 2.256
71.32000 3.800
71.34000 5.723
71.36000 6.919
71.38000 1.486
71.40000 2.164
71.42000 3.222
71.44000 1.601
71.46000 1.936
71.48000 0.316
71.50000 0.183
71.52000 1.607
71.54000 -0.800
71.56000 3.098
71.58000 3.029
71.60000 4.384
71.62000 1.648
71.64000 -0.485
71.66000 -1.122
71.68000 3.261
71.70000 4.333
71.72000 3.273
71.74000 2.884
71.76000 2.811
71.78000 1.596
71.80000 1.462
71.82000 0.636
71.84000 0.898
71.86000 -2.436
71.88000 -1.818
71.90000 1.698
71.92000 1.242
71.94000 5.861
71.96000 8.565
71.98000 10.377
72.00000 3.660
72.02000 3.309
72.04000 2.675
72.06000 1.004
72.08000 6.769
72.10000 1.182
72.12000 -2.059
72.14000 3.564
72.16000 3.155
72.18000 -0.201
72.20000 3.508
72.22000 3.167
72.24000 4.580
72.26000 3.506
72.28000 -0.397
72.30000 -0.503
72.32000 5.011
72.34000 6.372
72.36000 1.815
72.38000 1.961
72.40000 -1.280
72.42000 0.608
72.44000 2.143
72.46000 3.204
72.48000 3.062
72.50000 0.247
72.52000 -0.938
72.54000 2.137
72.56000 0.142
72.58000 0.231
72.60000 -0.031
72.62000 0.213
72.64000 5.030
72.66000 0.586
72.68000 -0.132
72.70000 7.434
72.72000 6.503
72.74000 4.865
72.76000 5.496
72.78000 3.097
72.80000 0.113
72.82000 3.409
72.84000 6.807
72.86000 3.342
72.88000 2.665
72.90000 6.126
72.92000 5.144
72.94000 1.749
72.96000 -0.755
72.98000 2.704
73.00000 4.633
73.02000 4.645
73.04000 1.259
73.06000 -0.638
73.08000 1.306
73.10000 2.192
73.12000 -2.375
73.14000 0.910
73.16000 3.784
73.18000 2.265
73.20000 1.355
73.22000 0.790
73.24000 7.081
73.26000 6.881
73.28000 4.412
73.30000 4.212
73.32000 6.660
73.34000 4.726
73.36000 1.488
73.38000 2.490
73.40000 5.235
73.42000 4.411
73.44000 4.082
73.46000 5.422
73.48000 5.961
73.50000 3.751
73.52000 1.795
73.54000 -2.369
73.56000 -2.197
73.58000 4.478
73.60000 6.046
73.62000 5.926
73.64000 10.548
73.66000 7.139
73.68000 2.874
73.70000 1.273
73.72000 3.357
73.74000 3.311
73.76000 2.337
73.78000 6.765
73.80000 11.840
73.82000 10.032
73.84000 1.031
73.86000 -1.094
73.88000 0.720
73.90000 1.293
73.92000 0.629
73.94000 0.593
73.96000 3.227
73.98000 6.829
74.00000 6.927
74.02000 4.923
74.04000 2.733
74.06000 2.710
74.08000 2.331
74.10000 3.518
74.12000 5.065
74.14000 4.214
74.16000 4.815
74.18000 3.927
74.20000 3.096
74.22000 0.769
74.24000 0.325
74.26000 3.222
74.28000 2.055
74.30000 -1.295
74.32000 2.581
74.34000 1.800
74.36000 2.779
74.38000 1.728
74.40000 2.841
74.42000 2.873
74.44000 3.427
74.46000 2.600
74.48000 0.840
74.50000 2.634
74.52000 1.608
74.54000 5.392
74.56000 5.634
74.58000 1.268
74.60000 2.137
74.62000 5.522
74.64000 6.953
74.66000 9.460
74.68000 5.727
74.70000 1.635
74.72000 -2.369
74.74000 -0.527
74.76000 1.359
74.78000 1.288
74.80000 4.683
74.82000 4.753
74.84000 2.421
74.86000 3.295
74.88000 3.202
74.90000 1.636
74.92000 3.604
74.94000 7.004
74.96000 4.308
74.98000 6.522
75.00000 2.090
75.02000 1.065
75.04000 -0.165
75.06000 3.991
75.08000 7.616
75.10000 6.018
75.12000 6.024
75.14000 -2.388
75.16000 -1.470
75.18000 3.744
75.20000 1.703
75.22000 0.073
75.24000 5.914
75.26000 3.544
75.28000 0.278
75.30000 -0.112
75.32000 -0.674
75.34000 0.008
75.36000 1.866
75.38000 0.629
75.40000 0.232
75.42000 0.401
75.44000 0.099
75.46000 -0.095
75.48000 -0.398
75.50000 4.856
75.52000 3.765
75.54000 1.656
75.56000 -1.525
75.58000 0.421
75.60000 1.915
75.62000 2.538
75.64000 1.323
75.66000 1.352
75.68000 2.653
75.70000 6.211
75.72000 5.558
75.74000 6.033
75.76000 2.779
75.78000 -2.397
75.80000 1.039
75.82000 1.695
75.84000 0.776
75.86000 4.946
75.88000 7.043
75.90000 3.016
75.92000 4.129
75.94000 2.578
75.96000 1.392
75.98000 4.859
76.00000 2.974
76.02000 0.480
76.04000 0.851
76.06000 4.151
76.08000 3.734
76.10000 4.034
76.12000 2.738
76.14000 1.622
76.16000 2.442
76.18000 1.470
76.20000 1.217
76.22000 0.732
76.24000 0.573
76.26000 -1.409
76.28000 1.953
76.30000 -1.967
76.32000 -0.684
76.34000 -2.351
76.36000 0.486
76.38000 0.505
76.40000 0.173
76.42000 5.061
76.44000 1.468
76.46000 3.672
76.48000 2.509
76.50000 1.965
76.52000 5.204
76.54000 3.184
76.56000 1.419
76.58000 2.062
76.60000 5.918
76.62000 5.235
76.64000 4.949
76.66000 4.654
76.68000 2.351
76.70000 -1.028
76.72000 0.606
76.74000 -2.417
76.76000 0.288
76.78000 4.526
76.80000 5.374
76.82000 -0.697
76.84000 -0.404
76.86000 7.125
76.88000 6.250
76.90000 1.898
76.92000 -2.342
76.94000 -0.863
76.96000 2.830
76.98000 1.993
77.00000 1.184
77.02000 1.108
77.04000 1.553
77.06000 0.744
77.08000 0.177
77.10000 0.110
77.12000 -0.699
77.14000 1.744
77.16000 -2.077
77.18000 2.842
77.20000 5.542
77.22000 3.161
77.24000 4.028
77.26000 -0.294
77.28000 4.887
77.30000 2.602
77.32000 1.512
77.34000 3.683
77.36000 7.231
77.38000 11.224
77.40000 3.487
77.42000 -0.336
77.44000 1.842
77.46000 4.650
77.48000 5.849
77.50000 3.492
77.52000 1.175
77.54000 2.121
77.56000 1.868
77.58000 3.664
77.60000 4.920
77.62000 3.222
77.64000 1.373
77.66000 1.086
77.68000 6.660
77.70000 -0.438
77.72000 1.900
77.74000 2.794
77.76000 3.948
77.78000 3.744
77.80000 -0.916
77.82000 2.272
77.84000 7.638
77.86000 6.433
77.88000 6.079
77.90000 6.891
77.92000 3.938
77.94000 -0.481
77.96000 -1.608
77.98000 4.788
78.00000 1.066
78.02000 -2.406
78.04000 1.986
78.06000 3.432
78.08000 1.755
78.10000 5.675
78.12000 6.748
78.14000 5.068
78.16000 2.768
78.18000 0.936
78.20000 5.301
78.22000 5.461
78.24000 3.930
78.26000 6.434
78.28000 7.659
78.30000 2.158
78.32000 2.235
78.34000 6.362
78.36000 5.849
78.38000 8.048
78.40000 4.326
78.42000 3.129
78.44000 -1.687
78.46000 0.308
78.48000 4.589
78.50000 1.595
78.52000 0.995
78.54000 4.892
78.56000 5.993
78.58000 2.734
78.60000 0.415
78.62000 4.216
78.64000 6.955
78.66000 2.539
78.68000 1.543
78.70000 -2.432
78.72000 0.577
78.74000 5.637
78.76000 5.432
78.78000 6.139
78.80000 2.474
78.82000 2.804
78.84000 -0.146
78.86000 2.738
78.88000 -0.739
78.90000 -1.444
78.92000 -2.445
78.94000 -0.010
78.96000 -1.317
78.98000 0.354
79.00000 1.945
79.02000 0.669
79.04000 3.552
79.06000 6.452
79.08000 5.434
79.10000 7.208
79.12000 7.946
79.14000 3.160
79.16000 3.051
79.18000 -1.120
79.20000 -0.522
79.22000 0.067
79.24000 -0.091
79.26000 3.335
79.28000 5.075
79.30000 2.057
79.32000 3.641
79.34000 0.116
79.36000 -1.877
79.38000 -0.392
79.40000 -1.274
79.42000 -1.852
79.44000 2.504
79.46000 6.549
79.48000 4.694
79.50000 1.967
79.52000 6.657
79.54000 2.870
79.56000 1.577
79.58000 -1.467
79.60000 0.143
79.62000 -2.490
79.64000 -2.491
79.66000 1.090
79.68000 2.388
79.70000 0.849
79.72000 -0.390
79.74000 -0.142
79.76000 -0.381
79.78000 2.989
79.80000 3.195
79.82000 1.468
79.84000 1.490
79.86000 3.730
79.88000 4.580
79.90000 -0.980
79.92000 -1.096
79.94000 1.546
79.96000 2.767
79.98000 2.691
80.00000 0.188
80.02000 -2.512
80.04000 -0.822
80.06000 1.854
80.08000 1.171
80.10000 5.579
80.12000 -0.111
80.14000 1.995
80.16000 5.851
80.18000 2.538
80.20000 -2.013
80.22000 3.883
80.24000 4.182
80.26000 2.679
80.28000 -0.764
80.30000 3.555
80.32000 -1.490
80.34000 -2.537
80.36000 -0.536
80.38000 2.930
80.40000 0.832
80.42000 1.858
80.44000 2.617
80.46000 2.775
80.48000 4.753
80.50000 5.353
80.52000 1.726
80.54000 4.064
80.56000 1.242
80.58000 -0.032
80.60000 2.064
80.62000 1.291
80.64000 -2.573
80.66000 1.030
80.68000 0.362
80.70000 2.250
80.72000 -0.634
80.74000 0.326
80.76000 2.032
80.78000 5.680
80.80000 2.002
80.82000 4.447
80.84000 4.596
80.86000 5.060
80.88000 3.185
80.90000 -2.108
80.92000 0.243
80.94000 8.348
80.96000 5.350
80.98000 7.715
81.00000 7.811
81.02000 2.957
81.04000 6.839
81.06000 6.938
81.08000 5.754
81.10000 5.602
81.12000 5.534
81.14000 2.628
81.16000 1.516
81.18000 -0.467
81.20000 0.532
81.22000 4.472
81.24000 -0.509
81.26000 1.125
81.28000 4.281
81.30000 3.906
81.32000 0.572
81.34000 -1.493
81.36000 -0.773
81.38000 -0.097
81.40000 2.103
81.42000 3.422
81.44000 3.956
81.46000 5.112
81.48000 4.646
81.50000 6.701
81.52000 4.995
81.54000 6.307
81.56000 8.716
81.58000 7.419
81.60000 5.574
81.62000 6.930
81.64000 9.235
81.66000 4.884
81.68000 7.470
81.70000 5.323
81.72000 3.534
81.74000 7.403
81.76000 8.827
81.78000 7.932
81.80000 6.707
81.82000 13.529
81.84000 9.802
81.86000 9.475
81.88000 10.405
81.90000 11.770
81.92000 11.153
81.94000 8.394
81.96000 6.577
81.98000 15.718
82.00000 12.868
82.02000 7.395
82.04000 13.377
82.06000 13.217
82.08000 12.710
82.10000 17.697
82.12000 16.172
82.14000 8.540
82.16000 5.093
82.18000 8.693
82.20000 9.780
82.22000 9.914
82.24000 17.134
82.26000 20.113
82.28000 19.228
82.30000 14.329
82.32000 15.693
82.34000 17.930
82.36000 19.722
82.38000 24.255
82.40000 22.625
82.42000 17.544
82.44000 17.208
82.46000 14.458
82.48000 16.066
82.50000 21.201
82.52000 22.868
82.54000 16.734
82.56000 20.598
82.58000 22.635
82.60000 25.534
82.62000 25.065
82.64000 21.772
82.66000 22.335
82.68000 19.904
82.70000 16.337
82.72000 16.225
82.74000 20.944
82.76000 24.423
82.78000 25.331
82.80000 23.468
82.82000 25.669
82.84000 25.869
82.86000 22.735
82.88000 22.077
82.90000 28.658
82.92000 30.989
82.94000 24.644
82.96000 24.824
82.98000 21.350
83.00000 24.651
83.02000 25.173
83.04000 28.998
83.06000 26.289
83.08000 22.674
83.10000 30.242
83.12000 28.886
83.14000 22.290
83.16000 23.824
83.18000 18.739
83.20000 18.456
83.22000 23.158
83.24000 23.716
83.26000 28.853
83.28000 27.330
83.30000 21.369
83.32000 22.651
83.34000 16.590
83.36000 18.344
83.38000 18.692
83.40000 12.502
83.42000 18.916
83.44000 20.988
83.46000 12.363
83.48000 17.151
83.50000 15.403
83.52000 16.327
83.54000 18.912
83.56000 18.784
83.58000 17.819
83.60000 11.105
83.62000 7.456
83.64000 6.392
83.66000 6.327
83.68000 10.716
83.70000 12.178
83.72000 12.958
83.74000 11.764
83.76000 11.788
83.78000 6.335
83.80000 10.072
83.82000 10.729
83.84000 6.288
83.86000 8.134
83.88000 7.661
83.90000 8.286
83.92000 11.545
83.94000 9.270
83.96000 3.124
83.98000 7.411
84.00000 12.167
84.02000 10.706
84.04000 5.640
84.06000 5.204
84.08000 7.602
84.10000 5.668
84.12000 4.219
84.14000 1.393
84.16000 3.561
84.18000 -2.401
84.20000 0.065
84.22000 4.907
84.24000 5.966
84.26000 -0.254
84.28000 0.680
84.30000 2.376
84.32000 3.645
84.34000 3.077
84.36000 0.526
84.38000 1.361
84.40000 3.490
84.42000 4.097
84.44000 0.807
84.46000 -0.565
84.48000 1.893
84.50000 3.710
84.52000 3.965
84.54000 0.962
84.56000 -2.423
84.58000 -1.005
84.60000 1.903
84.62000 1.574
84.64000 -2.552
84.66000 4.808
84.68000 4.355
84.70000 0.832
84.72000 0.985
84.74000 0.712
84.76000 -2.388
84.78000 0.925
84.80000 2.666
84.82000 2.863
84.84000 3.182
84.86000 5.240
84.88000 1.892
84.90000 2.745
84.92000 -2.204
84.94000 0.413
84.96000 3.398
84.98000 2.043
85.00000 -1.396
85.02000 2.745
85.04000 2.925
85.06000 2.661
85.08000 6.485
85.10000 5.208
85.12000 1.938
85.14000 0.788
85.16000 3.827
85.18000 1.972
85.20000 0.761
85.22000 2.167
85.24000 -2.480
85.26000 -0.193
85.28000 7.036
85.30000 4.852
85.32000 -0.469
85.34000 -2.307
85.36000 4.290
85.38000 5.938
85.40000 2.337
85.42000 0.702
85.44000 0.806
85.46000 3.225
85.48000 -1.554
85.50000 -2.498
85.52000 -0.337
85.54000 -0.219
85.56000 3.403
85.58000 6.235
85.60000 0.522
85.62000 4.943
85.64000 8.141
85.66000 4.544
85.68000 2.184
85.70000 1.414
85.72000 -0.022
85.74000 4.928
85.76000 2.361
85.78000 3.659
85.80000 1.606
85.82000 -0.829
85.84000 2.471
85.86000 -2.181
85.88000 0.418
85.90000 1.624
85.92000 0.452
85.94000 -0.170
85.96000 0.595
85.98000 1.225
86.00000 -1.938
86.02000 1.794
86.04000 6.720
86.06000 3.522
86.08000 -0.802
86.10000 -0.279
86.12000 0.752
86.14000 1.080
86.16000 0.154
86.18000 2.779
86.20000 3.156
86.22000 -1.261
86.24000 1.296
86.26000 5.175
86.28000 4.058
86.30000 1.840
86.32000 3.264
86.34000 5.568
86.36000 3.353
86.38000 9.848
86.40000 9.147
86.42000 3.113
86.44000 4.979
86.46000 11.030
86.48000 10.044
86.50000 5.654
86.52000 1.393
86.54000 6.042
86.56000 5.643
86.58000 6.707
86.60000 7.891
86.62000 6.037
86.64000 7.171
86.66000 8.407
86.68000 9.379
86.70000 5.950
86.72000 3.874
86.74000 7.729
86.76000 6.273
86.78000 10.152
86.80000 10.865
86.82000 8.073
86.84000 6.161
86.86000 6.739
86.88000 10.019
86.90000 7.990
86.92000 12.198
86.94000 12.216
86.96000 18.031
86.98000 17.040
87.00000 14.627
87.02000 11.936
87.04000 14.948
87.06000 17.123
87.08000 18.156
87.10000 11.878
87.12000 12.065
87.14000 18.539
87.16000 18.170
87.18000 12.842
87.20000 17.142
87.22000 15.136
87.24000 15.154
87.26000 15.312
87.28000 16.496
87.30000 14.197
87.32000 18.298
87.34000 16.185
87.36000 13.826
87.38000 11.951
87.40000 12.787
87.42000 18.857
87.44000 17.727
87.46000 16.502
87.48000 20.686
87.50000 25.357
87.52000 23.615
87.54000 13.694
87.56000 10.722
87.58000 14.126
87.60000 18.454
87.62000 12.732
87.64000 16.303
87.66000 14.422
87.68000 16.103
87.70000 16.161
87.72000 15.025
87.74000 10.134
87.76000 11.135
87.78000 8.437
87.80000 10.430
87.82000 15.264
87.84000 13.359
87.86000 18.327
87.88000 15.737
87.90000 15.156
87.92000 11.079
87.94000 15.177
87.96000 8.801
87.98000 9.290
88.00000 8.369
88.02000 9.607
88.04000 13.418
88.06000 12.740
88.08000 15.465
88.10000 13.590
88.12000 11.056
88.14000 6.961
88.16000 2.565
88.18000 6.210
88.20000 4.852
88.22000 3.137
88.24000 5.228
88.26000 7.711
88.28000 6.660
88.30000 5.578
88.32000 4.395
88.34000 3.178
88.36000 4.103
88.38000 6.476
88.40000 9.322
88.42000 8.101
88.44000 4.962
88.46000 8.968
88.48000 7.609
88.50000 8.834
88.52000 2.298
88.54000 5.079
88.56000 7.202
88.58000 0.385
88.60000 1.621
88.62000 2.982
88.64000 7.198
88.66000 3.568
88.68000 0.110
88.70000 1.630
88.72000 -0.426
88.74000 -0.474
88.76000 -2.403
88.78000 -0.830
88.80000 2.648
88.82000 1.513
88.84000 5.344
88.86000 6.836
88.88000 6.664
88.90000 6.667
88.92000 2.310
88.94000 0.080
88.96000 0.262
88.98000 0.750
89.00000 2.147
89.02000 1.839
89.04000 7.184
89.06000 5.869
89.08000 2.740
89.10000 -1.399
89.12000 2.534
89.14000 0.401
89.16000 2.415
89.18000 1.157
89.20000 4.562
89.22000 7.609
89.24000 7.861
89.26000 4.339
89.28000 -0.768
89.30000 -0.202
89.32000 0.021
89.34000 -2.311
89.36000 5.689
89.38000 9.206
89.40000 9.913
89.42000 7.018
89.44000 6.676
89.46000 4.934
89.48000 8.211
89.50000 7.805
89.52000 5.981
89.54000 3.279
89.56000 3.286
89.58000 6.878
89.60000 0.766
89.62000 -0.610
89.64000 2.611
89.66000 5.127
89.68000 2.139
89.70000 0.832
89.72000 -2.311
89.74000 -1.851
89.76000 3.051
89.78000 6.860
89.80000 1.786
89.82000 -1.909
89.84000 -1.391
89.86000 -0.506
89.88000 3.995
89.90000 4.435
89.92000 3.083
89.94000 3.176
89.96000 0.837
89.98000 -0.537
90.00000 0.941
90.02000 3.745
90.04000 3.653
90.06000 0.568
90.08000 1.990
90.10000 1.612
90.12000 -1.920
90.14000 1.148
90.16000 2.172
90.18000 0.200
90.20000 4.116
90.22000 0.062
90.24000 2.239
90.26000 4.873
90.28000 -0.513
90.30000 -0.252
90.32000 -2.301
90.34000 -2.301
90.36000 1.351
90.38000 -0.182
90.40000 0.760
90.42000 2.682
90.44000 1.693
90.46000 3.577
90.48000 7.991
90.50000 3.261
90.52000 1.337
90.54000 4.091
90.56000 0.992
90.58000 -0.336
90.60000 3.175
90.62000 2.780
90.64000 1.235
90.66000 0.009
90.68000 1.954
90.70000 2.426
90.72000 1.148
90.74000 -2.299
90.76000 1.020
90.78000 3.747
90.80000 2.969
90.82000 -0.505
90.84000 1.421
90.86000 3.566
90.88000 3.379
90.90000 -0.517
90.92000 2.211
90.94000 1.136
90.96000 0.367
90.98000 1.114
91.00000 7.849
91.02000 5.983
91.04000 3.316
91.06000 -2.290
91.08000 -0.936
91.10000 3.548
91.12000 1.567
91.14000 1.034
91.16000 2.471
91.18000 1.972
91.20000 3.055
91.22000 3.132
91.24000 0.253
91.26000 -1.025
91.28000 1.948
91.30000 2.684
91.32000 -1.864
91.34000 -0.459
91.36000 1.489
91.38000 0.782
91.40000 -0.893
91.42000 -1.654
91.44000 1.004
91.46000 0.132
91.48000 0.200
91.50000 0.759
91.52000 0.135
91.54000 0.192
91.56000 3.009
91.58000 -2.145
91.60000 -1.944
91.62000 -1.362
91.64000 -2.293
91.66000 2.727
91.68000 4.948
91.70000 2.411
91.72000 4.415
91.74000 2.467
91.76000 4.609
91.78000 1.257
91.80000 -0.400
91.82000 3.434
91.84000 5.655
91.86000 1.003
91.88000 1.078
91.90000 -0.395
91.92000 -0.342
91.94000 5.981
91.96000 6.857
91.98000 -0.225
92.00000 -1.113
92.02000 2.024
92.04000 4.597
92.06000 -0.345
92.08000 1.686
92.10000 0.906
92.12000 4.483
92.14000 4.732
92.16000 2.828
92.18000 5.295
92.20000 1.392
92.22000 1.308
92.24000 6.100
92.26000 7.154
92.28000 4.838
92.30000 5.894
92.32000 1.437
92.34000 -0.200
92.36000 7.027
92.38000 6.827
92.40000 4.029
92.42000 9.426
92.44000 6.452
92.46000 2.037
92.48000 4.762
92.50000 7.193
92.52000 4.464
92.54000 5.278
92.56000 2.612
92.58000 -0.358
92.60000 1.433
92.62000 -0.879
92.64000 0.916
92.66000 2.987
92.68000 6.041
92.70000 5.342
92.72000 4.551
92.74000 0.759
92.76000 0.959
92.78000 3.863
92.80000 2.223
92.82000 5.856
92.84000 -1.637
92.86000 -0.997
92.88000 -2.263
92.90000 0.623
92.92000 2.691
92.94000 1.241
92.96000 1.787
92.98000 4.578
93.00000 6.426
93.02000 4.969
93.04000 5.473
93.06000 6.496
93.08000 4.493
93.10000 4.708
93.12000 2.340
93.14000 -1.207
93.16000 4.219
93.18000 4.041
93.20000 -0.578
93.22000 3.006
93.24000 8.521
93.26000 10.555
93.28000 12.417
93.30000 4.615
93.32000 6.464
93.34000 4.666
93.36000 6.896
93.38000 6.009
93.40000 7.268
93.42000 11.289
93.44000 10.344
93.46000 6.589
93.48000 7.694
93.50000 6.714
93.52000 -0.617
93.54000 -2.228
93.56000 6.308
93.58000 10.136
93.60000 8.602
93.62000 6.628
93.64000 5.373
93.66000 1.417
93.68000 3.540
93.70000 3.809
93.72000 10.389
93.74000 4.631
93.76000 6.738
93.78000 5.818
93.80000 -2.238
93.82000 2.784
93.84000 6.617
93.86000 4.347
93.88000 8.173
93.90000 5.787
93.92000 0.898
93.94000 7.779
93.96000 2.545
93.98000 -0.037
94.00000 2.461
94.02000 5.300
94.04000 6.040
94.06000 7.039
94.08000 5.814
94.10000 2.682
94.12000 3.566
94.14000 4.332
94.16000 2.177
94.18000 0.431
94.20000 5.215
94.22000 7.781
94.24000 2.843
94.26000 1.537
94.28000 5.265
94.30000 1.156
94.32000 -2.057
94.34000 2.755
94.36000 6.603
94.38000 2.367
94.40000 0.270
94.42000 3.932
94.44000 0.335
94.46000 -0.971
94.48000 2.369
94.50000 5.483
94.52000 2.952
94.54000 2.969
94.56000 1.373
94.58000 1.365
94.60000 0.438
94.62000 0.516
94.64000 4.685
94.66000 3.438
94.68000 3.197
94.70000 5.455
94.72000 8.912
94.74000 2.170
94.76000 -0.792
94.78000 5.964
94.80000 2.125
94.82000 2.662
94.84000 4.135
94.86000 2.706
94.88000 0.908
94.90000 4.083
94.92000 2.464
94.94000 5.511
94.96000 7.777
94.98000 8.392
95.00000 8.661
95.02000 10.846
95.04000 11.770
95.06000 9.745
95.08000 4.679
95.10000 5.230
95.12000 1.556
95.14000 6.314
95.16000 10.057
95.18000 5.385
95.20000 -1.191
95.22000 -2.290
95.24000 5.550
95.26000 8.823
95.28000 8.069
95.30000 2.191
95.32000 1.099
95.34000 2.241
95.36000 3.333
95.38000 1.623
95.40000 3.393
95.42000 1.511
95.44000 -0.071
95.46000 1.086
95.48000 0.742
95.50000 3.786
95.52000 3.075
95.54000 5.452
95.56000 3.715
95.58000 4.703
95.60000 6.024
95.62000 5.498
95.64000 5.580
95.66000 3.357
95.68000 2.917
95.70000 4.898
95.72000 9.064
95.74000 5.892
95.76000 6.197
95.78000 6.740
95.80000 7.636
95.82000 6.137
95.84000 8.673
95.86000 7.901
95.88000 3.759
95.90000 9.640
95.92000 7.054
95.94000 3.643
95.96000 1.125
95.98000 6.763
96.00000 10.942
96.02000 9.033
96.04000 7.030
96.06000 -0.551
96.08000 1.959
96.10000 3.081
96.12000 6.882
96.14000 6.666
96.16000 2.263
96.18000 2.482
96.20000 4.164
96.22000 6.120
96.24000 0.960
96.26000 6.338
96.28000 8.910
96.30000 0.988
96.32000 0.148
96.34000 8.603
96.36000 10.526
96.38000 10.753
96.40000 8.158
96.42000 6.253
96.44000 2.701
96.46000 5.978
96.48000 8.565
96.50000 5.343
96.52000 10.921
96.54000 13.551
96.56000 10.392
96.58000 7.823
96.60000 2.639
96.62000 9.313
96.64000 4.887
96.66000 3.702
96.68000 -2.296
96.70000 2.594
96.72000 1.897
96.74000 3.317
96.76000 7.075
96.78000 2.484
96.80000 2.256
96.82000 3.592
96.84000 1.069
96.86000 2.724
96.88000 4.410
96.90000 2.456
96.92000 2.820
96.94000 3.046
96.96000 6.621
96.98000 3.292
97.00000 1.975
97.02000 3.573
97.04000 0.744
97.06000 2.244
97.08000 3.926
97.10000 3.361
97.12000 -1.182
97.14000 0.796
97.16000 2.452
97.18000 2.694
97.20000 6.243
97.22000 3.578
97.24000 6.439
97.26000 12.418
97.28000 8.652
97.30000 5.413
97.32000 5.163
97.34000 10.994
97.36000 15.778
97.38000 11.742
97.40000 10.675
97.42000 4.607
97.44000 4.781
97.46000 -0.407
97.48000 -2.235
97.50000 5.927
97.52000 11.303
97.54000 8.301
97.56000 0.716
97.58000 7.888
97.60000 10.234
97.62000 6.136
97.64000 9.805
97.66000 9.449
97.68000 9.417
97.70000 10.979
97.72000 8.151
97.74000 5.536
97.76000 3.610
97.78000 1.510
97.80000 4.959
97.82000 4.613
97.84000 5.343
97.86000 8.647
97.88000 3.949
97.90000 5.299
97.92000 5.132
97.94000 3.434
97.96000 1.388
97.98000 2.015
98.00000 2.557
98.02000 5.686
98.04000 9.883
98.06000 4.577
98.08000 2.498
98.10000 -0.610
98.12000 -2.243
98.14000 -0.685
98.16000 1.136
98.18000 12.214
98.20000 11.295
98.22000 1.658
98.24000 4.047
98.26000 5.339
98.28000 0.178
98.30000 -0.606
98.32000 4.657
98.34000 5.872
98.36000 10.521
98.38000 3.641
98.40000 4.159
98.42000 5.690
98.44000 2.079
98.46000 5.642
98.48000 8.825
98.50000 6.552
98.52000 7.377
98.54000 6.827
98.56000 1.791
98.58000 -0.569
98.60000 1.693
98.62000 5.991
98.64000 11.719
98.66000 6.452
98.68000 4.502
98.70000 1.721
98.72000 6.758
98.74000 5.622
98.76000 5.752
98.78000 10.013
98.80000 2.163
98.82000 3.450
98.84000 6.765
98.86000 2.952
98.88000 11.047
98.90000 -0.893
98.92000 7.158
98.94000 10.585
98.96000 5.717
98.98000 11.322
99.00000 10.945
99.02000 4.256
99.04000 -1.275
99.06000 -2.210
99.08000 5.102
99.10000 2.624
99.12000 11.143
99.14000 13.067
99.16000 11.615
99.18000 6.223
99.20000 10.428
99.22000 5.263
99.24000 0.570
99.26000 0.625
99.28000 0.558
99.30000 5.366
99.32000 5.690
99.34000 0.710
99.36000 2.924
99.38000 0.165
99.40000 -2.110
99.42000 1.826
99.44000 10.126
99.46000 9.723
99.48000 2.669
99.50000 -1.488
99.52000 7.038
99.54000 3.940
99.56000 4.499
99.58000 2.492
99.60000 14.302
99.62000 6.747
99.64000 2.101
99.66000 -1.838
99.68000 -2.275
99.70000 0.638
99.72000 5.960
99.74000 4.893
99.76000 6.200
99.78000 4.499
99.80000 5.535
99.82000 10.824
99.84000 9.114
99.86000 10.271
99.88000 9.061
99.90000 2.692
99.92000 -0.293
99.94000 -2.309
99.96000 -2.356
99.98000 0.000
