'Id: "0011388" Comment: "Integrate frame 0011388_Au-Ir-Rh_Rh-rich_XRD-Mapping-080-0000.gfrmwith cursor Wedge Cursor #5" Operator: "B?rgel" Anode: "Cu" Wavelength: "1.5406" Scantype: "2Theta (TwoTheta)" TimePerStep: "1" X: "-18" Y: "-18" Z: "5.95" 
10.00000 0.000
10.02000 3.668
10.04000 -4.430
10.06000 -2.445
10.08000 -1.427
10.10000 9.651
10.12000 6.221
10.14000 9.728
10.16000 10.974
10.18000 0.603
10.20000 -3.611
10.22000 -1.683
10.24000 5.098
10.26000 6.326
10.28000 12.496
10.30000 19.185
10.32000 21.168
10.34000 7.167
10.36000 2.354
10.38000 -4.348
10.40000 7.412
10.42000 25.480
10.44000 25.791
10.46000 25.108
10.48000 15.160
10.50000 8.445
10.52000 -1.238
10.54000 13.542
10.56000 2.048
10.58000 16.256
10.60000 20.853
10.62000 19.224
10.64000 12.286
10.66000 8.150
10.68000 4.555
10.70000 6.875
10.72000 12.205
10.74000 18.792
10.76000 23.469
10.78000 19.689
10.80000 8.812
10.82000 7.106
10.84000 4.033
10.86000 11.889
10.88000 16.934
10.90000 18.704
10.92000 6.062
10.94000 7.656
10.96000 13.922
10.98000 11.557
11.00000 7.501
11.02000 10.509
11.04000 15.007
11.06000 26.144
11.08000 22.680
11.10000 22.749
11.12000 8.640
11.14000 1.533
11.16000 11.935
11.18000 25.009
11.20000 23.674
11.22000 7.778
11.24000 12.843
11.26000 12.394
11.28000 4.469
11.30000 3.568
11.32000 13.206
11.34000 9.974
11.36000 25.270
11.38000 10.854
11.40000 12.470
11.42000 13.664
11.44000 12.136
11.46000 16.987
11.48000 9.522
11.50000 -4.403
11.52000 7.411
11.54000 10.548
11.56000 8.450
11.58000 11.291
11.60000 8.268
11.62000 6.772
11.64000 6.863
11.66000 3.392
11.68000 13.445
11.70000 25.485
11.72000 10.640
11.74000 7.847
11.76000 12.870
11.78000 24.680
11.80000 14.412
11.82000 10.794
11.84000 18.427
11.86000 8.243
11.88000 6.240
11.90000 8.015
11.92000 14.256
11.94000 12.360
11.96000 12.975
11.98000 13.913
12.00000 3.948
12.02000 11.015
12.04000 12.192
12.06000 7.847
12.08000 16.539
12.10000 15.229
12.12000 1.345
12.14000 2.790
12.16000 10.449
12.18000 8.844
12.20000 12.388
12.22000 20.685
12.24000 26.617
12.26000 20.120
12.28000 8.013
12.30000 14.343
12.32000 10.295
12.34000 1.998
12.36000 3.956
12.38000 -2.929
12.40000 5.706
12.42000 8.029
12.44000 6.798
12.46000 0.435
12.48000 7.477
12.50000 13.672
12.52000 8.327
12.54000 6.558
12.56000 6.095
12.58000 15.927
12.60000 5.666
12.62000 0.201
12.64000 9.396
12.66000 11.384
12.68000 2.757
12.70000 8.621
12.72000 11.918
12.74000 11.604
12.76000 4.337
12.78000 11.555
12.80000 7.216
12.82000 8.079
12.84000 17.997
12.86000 10.655
12.88000 10.407
12.90000 16.510
12.92000 17.680
12.94000 7.435
12.96000 7.018
12.98000 2.298
13.00000 8.669
13.02000 4.872
13.04000 4.680
13.06000 1.469
13.08000 12.275
13.10000 8.968
13.12000 9.657
13.14000 13.887
13.16000 13.696
13.18000 9.762
13.20000 17.815
13.22000 11.496
13.24000 16.079
13.26000 3.095
13.28000 6.354
13.30000 10.406
13.32000 14.727
13.34000 18.758
13.36000 17.874
13.38000 10.163
13.40000 5.660
13.42000 13.717
13.44000 16.666
13.46000 14.236
13.48000 7.249
13.50000 3.083
13.52000 9.310
13.54000 6.787
13.56000 4.861
13.58000 9.416
13.60000 4.696
13.62000 2.809
13.64000 3.612
13.66000 2.269
13.68000 9.531
13.70000 12.746
13.72000 2.196
13.74000 11.227
13.76000 11.603
13.78000 9.434
13.80000 2.179
13.82000 -0.714
13.84000 -4.479
13.86000 1.808
13.88000 3.111
13.90000 4.372
13.92000 14.584
13.94000 3.138
13.96000 9.495
13.98000 8.470
14.00000 -1.219
14.02000 5.130
14.04000 6.059
14.06000 2.414
14.08000 8.433
14.10000 18.683
14.12000 12.236
14.14000 8.730
14.16000 4.784
14.18000 3.608
14.20000 5.609
14.22000 -0.619
14.24000 3.543
14.26000 8.227
14.28000 2.986
14.30000 0.679
14.32000 12.171
14.34000 9.123
14.36000 10.153
14.38000 10.052
14.40000 2.737
14.42000 10.807
14.44000 12.951
14.46000 7.060
14.48000 8.108
14.50000 5.453
14.52000 15.959
14.54000 7.030
14.56000 1.998
14.58000 7.581
14.60000 6.994
14.62000 3.932
14.64000 0.439
14.66000 5.004
14.68000 7.169
14.70000 6.305
14.72000 4.118
14.74000 3.143
14.76000 7.378
14.78000 3.932
14.80000 5.415
14.82000 19.178
14.84000 15.903
14.86000 9.306
14.88000 6.894
14.90000 10.482
14.92000 0.727
14.94000 0.685
14.96000 5.373
14.98000 3.479
15.00000 11.662
15.02000 12.288
15.04000 6.374
15.06000 8.799
15.08000 4.202
15.10000 7.414
15.12000 14.358
15.14000 11.177
15.16000 8.901
15.18000 7.801
15.20000 3.894
15.22000 3.238
15.24000 9.167
15.26000 11.919
15.28000 8.209
15.30000 21.991
15.32000 17.064
15.34000 14.485
15.36000 16.106
15.38000 14.236
15.40000 -0.658
15.42000 -1.906
15.44000 4.753
15.46000 4.575
15.48000 5.071
15.50000 3.425
15.52000 0.227
15.54000 -1.196
15.56000 6.343
15.58000 6.304
15.60000 8.220
15.62000 7.052
15.64000 10.510
15.66000 7.545
15.68000 11.089
15.70000 3.380
15.72000 8.817
15.74000 11.584
15.76000 9.399
15.78000 4.900
15.80000 1.502
15.82000 13.429
15.84000 10.073
15.86000 7.411
15.88000 5.775
15.90000 8.140
15.92000 4.015
15.94000 2.055
15.96000 3.577
15.98000 3.845
16.00000 14.059
16.02000 11.097
16.04000 14.919
16.06000 14.608
16.08000 4.079
16.10000 6.672
16.12000 6.033
16.14000 7.168
16.16000 8.697
16.18000 5.784
16.20000 10.698
16.22000 12.543
16.24000 16.673
16.26000 9.198
16.28000 8.130
16.30000 3.096
16.32000 7.891
16.34000 6.816
16.36000 7.323
16.38000 11.364
16.40000 17.071
16.42000 15.726
16.44000 10.486
16.46000 3.300
16.48000 -3.186
16.50000 6.261
16.52000 12.839
16.54000 -1.464
16.56000 -4.343
16.58000 6.659
16.60000 13.637
16.62000 19.623
16.64000 13.544
16.66000 10.881
16.68000 10.310
16.70000 10.338
16.72000 7.641
16.74000 6.489
16.76000 5.051
16.78000 10.977
16.80000 6.942
16.82000 4.841
16.84000 9.302
16.86000 12.368
16.88000 10.171
16.90000 4.516
16.92000 7.361
16.94000 15.510
16.96000 9.241
16.98000 11.397
17.00000 13.639
17.02000 20.356
17.04000 17.403
17.06000 14.614
17.08000 6.194
17.10000 5.395
17.12000 -4.141
17.14000 0.203
17.16000 7.093
17.18000 8.137
17.20000 5.749
17.22000 7.985
17.24000 11.218
17.26000 9.547
17.28000 13.817
17.30000 15.781
17.32000 9.667
17.34000 5.666
17.36000 8.040
17.38000 14.840
17.40000 16.182
17.42000 13.593
17.44000 12.806
17.46000 7.769
17.48000 12.460
17.50000 3.450
17.52000 4.475
17.54000 10.031
17.56000 2.245
17.58000 1.498
17.60000 4.606
17.62000 4.883
17.64000 5.311
17.66000 13.046
17.68000 3.481
17.70000 -4.314
17.72000 5.787
17.74000 14.135
17.76000 6.456
17.78000 0.756
17.80000 -1.207
17.82000 5.088
17.84000 11.392
17.86000 10.602
17.88000 9.013
17.90000 6.531
17.92000 -0.562
17.94000 0.833
17.96000 6.742
17.98000 4.842
18.00000 6.764
18.02000 7.932
18.04000 0.965
18.06000 -0.715
18.08000 2.342
18.10000 11.017
18.12000 11.165
18.14000 6.215
18.16000 5.979
18.18000 4.603
18.20000 10.758
18.22000 8.945
18.24000 8.225
18.26000 9.975
18.28000 11.311
18.30000 14.917
18.32000 4.431
18.34000 6.640
18.36000 10.709
18.38000 8.988
18.40000 3.438
18.42000 8.119
18.44000 8.192
18.46000 11.501
18.48000 7.524
18.50000 7.827
18.52000 5.630
18.54000 5.170
18.56000 4.197
18.58000 3.175
18.60000 10.839
18.62000 4.837
18.64000 4.856
18.66000 4.809
18.68000 2.141
18.70000 5.878
18.72000 1.339
18.74000 -3.837
18.76000 -4.251
18.78000 4.577
18.80000 11.244
18.82000 12.729
18.84000 9.329
18.86000 4.513
18.88000 5.864
18.90000 7.020
18.92000 8.982
18.94000 2.302
18.96000 5.043
18.98000 3.663
19.00000 4.287
19.02000 3.232
19.04000 5.864
19.06000 1.433
19.08000 5.206
19.10000 7.206
19.12000 1.975
19.14000 3.106
19.16000 0.238
19.18000 0.327
19.20000 3.049
19.22000 5.632
19.24000 2.405
19.26000 -0.670
19.28000 0.352
19.30000 10.601
19.32000 6.329
19.34000 6.202
19.36000 10.443
19.38000 4.613
19.40000 0.224
19.42000 1.223
19.44000 -2.637
19.46000 -3.077
19.48000 3.883
19.50000 3.428
19.52000 5.350
19.54000 -0.164
19.56000 4.530
19.58000 7.810
19.60000 5.550
19.62000 1.898
19.64000 6.517
19.66000 2.936
19.68000 2.680
19.70000 4.522
19.72000 -4.237
19.74000 -1.030
19.76000 4.167
19.78000 11.361
19.80000 8.068
19.82000 8.010
19.84000 4.419
19.86000 9.715
19.88000 15.449
19.90000 13.425
19.92000 11.402
19.94000 3.499
19.96000 1.862
19.98000 -2.164
20.00000 1.051
20.02000 -0.216
20.04000 0.725
20.06000 7.970
20.08000 7.577
20.10000 2.272
20.12000 9.883
20.14000 5.845
20.16000 -2.756
20.18000 1.978
20.20000 -4.220
20.22000 3.320
20.24000 10.824
20.26000 5.025
20.28000 0.542
20.30000 -0.477
20.32000 5.130
20.34000 5.689
20.36000 4.134
20.38000 2.960
20.40000 2.764
20.42000 -0.470
20.44000 0.351
20.46000 1.102
20.48000 5.797
20.50000 1.734
20.52000 2.649
20.54000 0.552
20.56000 4.296
20.58000 2.485
20.60000 1.370
20.62000 1.480
20.64000 -1.339
20.66000 -3.196
20.68000 -0.924
20.70000 8.419
20.72000 3.118
20.74000 -0.073
20.76000 7.718
20.78000 4.434
20.80000 2.760
20.82000 2.676
20.84000 -1.606
20.86000 1.135
20.88000 -1.370
20.90000 -3.840
20.92000 3.927
20.94000 2.715
20.96000 0.291
20.98000 3.622
21.00000 1.928
21.02000 2.903
21.04000 3.728
21.06000 -0.584
21.08000 2.926
21.10000 0.526
21.12000 0.341
21.14000 -2.729
21.16000 -4.160
21.18000 -2.206
21.20000 -0.143
21.22000 6.670
21.24000 2.091
21.26000 2.122
21.28000 -1.404
21.30000 -0.109
21.32000 2.906
21.34000 8.570
21.36000 5.787
21.38000 -0.016
21.40000 -4.145
21.42000 -0.396
21.44000 1.610
21.46000 3.555
21.48000 3.129
21.50000 4.880
21.52000 10.503
21.54000 7.402
21.56000 5.177
21.58000 4.721
21.60000 4.444
21.62000 4.217
21.64000 7.435
21.66000 7.372
21.68000 6.573
21.70000 0.263
21.72000 -0.772
21.74000 7.600
21.76000 11.028
21.78000 7.489
21.80000 5.033
21.82000 6.611
21.84000 4.610
21.86000 -0.732
21.88000 -2.711
21.90000 0.444
21.92000 3.723
21.94000 7.022
21.96000 10.151
21.98000 8.869
22.00000 2.379
22.02000 -1.305
22.04000 -1.107
22.06000 5.058
22.08000 -1.217
22.10000 1.550
22.12000 1.720
22.14000 1.252
22.16000 2.692
22.18000 -0.419
22.20000 -3.027
22.22000 0.833
22.24000 6.975
22.26000 -3.206
22.28000 -0.360
22.30000 -1.492
22.32000 -1.819
22.34000 0.309
22.36000 7.752
22.38000 10.242
22.40000 10.904
22.42000 5.736
22.44000 3.148
22.46000 3.045
22.48000 5.361
22.50000 -0.467
22.52000 5.504
22.54000 6.458
22.56000 1.111
22.58000 -1.644
22.60000 3.452
22.62000 6.717
22.64000 5.414
22.66000 11.025
22.68000 8.447
22.70000 9.179
22.72000 7.626
22.74000 7.720
22.76000 8.819
22.78000 4.259
22.80000 3.143
22.82000 4.902
22.84000 6.343
22.86000 -4.052
22.88000 -2.477
22.90000 -4.048
22.92000 1.598
22.94000 4.712
22.96000 8.981
22.98000 5.654
23.00000 1.102
23.02000 1.603
23.04000 4.786
23.06000 2.016
23.08000 0.935
23.10000 -0.644
23.12000 5.087
23.14000 6.651
23.16000 0.315
23.18000 -0.155
23.20000 2.326
23.22000 4.256
23.24000 5.228
23.26000 6.463
23.28000 4.000
23.30000 9.702
23.32000 8.046
23.34000 -1.578
23.36000 7.644
23.38000 11.309
23.40000 7.771
23.42000 3.570
23.44000 2.288
23.46000 -3.004
23.48000 1.189
23.50000 4.083
23.52000 5.385
23.54000 5.767
23.56000 2.856
23.58000 3.762
23.60000 7.805
23.62000 4.882
23.64000 4.019
23.66000 7.106
23.68000 11.879
23.70000 6.720
23.72000 -3.993
23.74000 0.189
23.76000 3.801
23.78000 4.750
23.80000 2.020
23.82000 9.126
23.84000 1.726
23.86000 8.673
23.88000 10.667
23.90000 5.673
23.92000 2.620
23.94000 5.748
23.96000 7.212
23.98000 9.611
24.00000 5.733
24.02000 3.845
24.04000 3.726
24.06000 5.094
24.08000 4.766
24.10000 5.693
24.12000 7.926
24.14000 5.153
24.16000 4.019
24.18000 0.000
24.20000 3.369
24.22000 6.622
24.24000 7.162
24.26000 4.460
24.28000 8.398
24.30000 3.647
24.32000 -1.059
24.34000 2.016
24.36000 8.477
24.38000 9.164
24.40000 7.666
24.42000 6.899
24.44000 0.356
24.46000 4.586
24.48000 6.666
24.50000 13.887
24.52000 10.977
24.54000 6.225
24.56000 1.992
24.58000 6.007
24.60000 10.678
24.62000 12.348
24.64000 4.547
24.66000 7.616
24.68000 10.043
24.70000 11.112
24.72000 11.395
24.74000 12.777
24.76000 4.834
24.78000 4.266
24.80000 6.298
24.82000 9.312
24.84000 13.405
24.86000 11.611
24.88000 12.746
24.90000 12.495
24.92000 10.374
24.94000 2.329
24.96000 7.958
24.98000 -0.689
25.00000 -3.873
25.02000 2.503
25.04000 6.919
25.06000 9.984
25.08000 10.662
25.10000 5.858
25.12000 7.801
25.14000 7.553
25.16000 2.134
25.18000 2.707
25.20000 2.405
25.22000 4.757
25.24000 8.439
25.26000 10.108
25.28000 9.756
25.30000 8.518
25.32000 6.461
25.34000 8.859
25.36000 10.042
25.38000 4.885
25.40000 1.801
25.42000 2.139
25.44000 9.028
25.46000 8.444
25.48000 4.932
25.50000 4.123
25.52000 5.105
25.54000 7.632
25.56000 8.541
25.58000 9.606
25.60000 8.137
25.62000 5.980
25.64000 10.424
25.66000 4.391
25.68000 6.528
25.70000 7.897
25.72000 2.223
25.74000 -1.669
25.76000 2.236
25.78000 -3.044
25.80000 3.571
25.82000 9.601
25.84000 5.731
25.86000 4.506
25.88000 4.468
25.90000 8.474
25.92000 10.761
25.94000 4.937
25.96000 -2.369
25.98000 -1.472
26.00000 5.231
26.02000 6.868
26.04000 1.910
26.06000 5.670
26.08000 6.611
26.10000 7.714
26.12000 13.598
26.14000 9.090
26.16000 2.300
26.18000 0.371
26.20000 0.528
26.22000 5.190
26.24000 8.313
26.26000 10.157
26.28000 8.565
26.30000 2.664
26.32000 4.408
26.34000 1.565
26.36000 0.143
26.38000 5.788
26.40000 6.715
26.42000 6.549
26.44000 7.790
26.46000 6.183
26.48000 8.709
26.50000 4.916
26.52000 6.132
26.54000 3.284
26.56000 4.388
26.58000 7.643
26.60000 10.606
26.62000 11.065
26.64000 7.567
26.66000 0.526
26.68000 3.310
26.70000 3.155
26.72000 9.334
26.74000 5.944
26.76000 6.982
26.78000 6.996
26.80000 7.622
26.82000 7.106
26.84000 6.168
26.86000 9.428
26.88000 7.748
26.90000 2.155
26.92000 -1.204
26.94000 -3.809
26.96000 2.282
26.98000 7.250
27.00000 4.017
27.02000 0.892
27.04000 5.052
27.06000 3.485
27.08000 4.375
27.10000 5.302
27.12000 6.112
27.14000 9.764
27.16000 11.651
27.18000 7.803
27.20000 6.871
27.22000 8.086
27.24000 6.297
27.26000 2.531
27.28000 4.625
27.30000 1.244
27.32000 0.636
27.34000 4.107
27.36000 4.210
27.38000 8.619
27.40000 2.797
27.42000 1.887
27.44000 3.637
27.46000 0.297
27.48000 2.016
27.50000 0.751
27.52000 1.848
27.54000 1.678
27.56000 1.528
27.58000 5.654
27.60000 9.979
27.62000 0.158
27.64000 -2.138
27.66000 2.918
27.68000 1.633
27.70000 2.612
27.72000 5.876
27.74000 4.987
27.76000 7.558
27.78000 4.190
27.80000 2.307
27.82000 5.879
27.84000 1.457
27.86000 1.765
27.88000 1.741
27.90000 1.518
27.92000 1.059
27.94000 0.312
27.96000 0.407
27.98000 -0.152
28.00000 1.426
28.02000 0.207
28.04000 -2.989
28.06000 1.560
28.08000 -0.891
28.10000 -1.826
28.12000 -0.090
28.14000 -3.770
28.16000 1.374
28.18000 3.593
28.20000 1.314
28.22000 6.866
28.24000 4.772
28.26000 0.893
28.28000 2.939
28.30000 -0.128
28.32000 0.247
28.34000 -1.604
28.36000 -1.964
28.38000 1.491
28.40000 3.077
28.42000 4.395
28.44000 3.393
28.46000 0.053
28.48000 2.717
28.50000 3.810
28.52000 6.998
28.54000 2.117
28.56000 -0.048
28.58000 5.938
28.60000 4.315
28.62000 1.784
28.64000 1.370
28.66000 3.131
28.68000 2.166
28.70000 1.178
28.72000 8.793
28.74000 5.987
28.76000 3.567
28.78000 1.411
28.80000 0.826
28.82000 1.997
28.84000 5.113
28.86000 5.834
28.88000 6.522
28.90000 1.181
28.92000 -1.367
28.94000 -0.742
28.96000 4.319
28.98000 1.007
29.00000 -0.180
29.02000 -0.409
29.04000 0.479
29.06000 1.038
29.08000 2.671
29.10000 1.024
29.12000 -0.721
29.14000 -2.187
29.16000 -0.438
29.18000 0.344
29.20000 4.343
29.22000 5.055
29.24000 -1.946
29.26000 -3.728
29.28000 -1.656
29.30000 3.447
29.32000 6.107
29.34000 0.999
29.36000 0.025
29.38000 1.820
29.40000 -0.915
29.42000 4.373
29.44000 4.923
29.46000 3.196
29.48000 1.295
29.50000 2.520
29.52000 0.558
29.54000 -3.714
29.56000 -0.318
29.58000 -1.378
29.60000 -2.809
29.62000 0.343
29.64000 3.458
29.66000 3.169
29.68000 2.332
29.70000 1.309
29.72000 2.207
29.74000 2.604
29.76000 5.391
29.78000 9.623
29.80000 8.140
29.82000 3.858
29.84000 0.244
29.86000 1.947
29.88000 1.420
29.90000 -0.268
29.92000 -3.183
29.94000 -1.903
29.96000 2.815
29.98000 7.344
30.00000 6.734
30.02000 2.164
30.04000 0.712
30.06000 4.616
30.08000 2.232
30.10000 -0.288
30.12000 2.645
30.14000 0.320
30.16000 -1.874
30.18000 0.734
30.20000 1.983
30.22000 4.394
30.24000 7.174
30.26000 2.187
30.28000 -3.678
30.30000 0.753
30.32000 2.670
30.34000 -0.325
30.36000 -3.077
30.38000 -1.304
30.40000 2.477
30.42000 -0.157
30.44000 -0.116
30.46000 3.517
30.48000 0.233
30.50000 0.582
30.52000 1.305
30.54000 2.895
30.56000 -0.689
30.58000 2.073
30.60000 4.957
30.62000 -0.103
30.64000 3.258
30.66000 3.824
30.68000 4.969
30.70000 4.584
30.72000 3.536
30.74000 4.034
30.76000 2.986
30.78000 -1.060
30.80000 -0.985
30.82000 0.560
30.84000 -0.184
30.86000 1.986
30.88000 3.504
30.90000 0.298
30.92000 5.590
30.94000 0.708
30.96000 -0.698
30.98000 2.994
31.00000 1.896
31.02000 2.109
31.04000 1.826
31.06000 5.866
31.08000 2.051
31.10000 6.512
31.12000 7.708
31.14000 5.451
31.16000 4.735
31.18000 3.737
31.20000 7.675
31.22000 3.600
31.24000 0.843
31.26000 2.432
31.28000 1.609
31.30000 1.420
31.32000 7.998
31.34000 6.371
31.36000 1.478
31.38000 -0.567
31.40000 -3.609
31.42000 4.680
31.44000 9.956
31.46000 8.916
31.48000 1.564
31.50000 0.974
31.52000 1.512
31.54000 -0.851
31.56000 3.717
31.58000 0.502
31.60000 0.420
31.62000 5.031
31.64000 2.447
31.66000 0.601
31.68000 4.092
31.70000 6.707
31.72000 0.514
31.74000 3.350
31.76000 3.662
31.78000 2.367
31.80000 2.603
31.82000 4.747
31.84000 1.716
31.86000 -0.515
31.88000 -1.412
31.90000 0.807
31.92000 2.508
31.94000 3.403
31.96000 6.534
31.98000 2.359
32.00000 2.589
32.02000 5.063
32.04000 3.982
32.06000 -0.738
32.08000 3.570
32.10000 5.329
32.12000 -0.084
32.14000 -3.586
32.16000 0.335
32.18000 8.141
32.20000 6.175
32.22000 0.303
32.24000 -0.002
32.26000 2.542
32.28000 1.330
32.30000 1.454
32.32000 0.324
32.34000 1.302
32.36000 1.476
32.38000 3.204
32.40000 0.603
32.42000 -1.992
32.44000 0.958
32.46000 3.136
32.48000 4.084
32.50000 -0.101
32.52000 0.211
32.54000 1.922
32.56000 -0.091
32.58000 -2.844
32.60000 -3.112
32.62000 0.947
32.64000 -0.654
32.66000 -3.083
32.68000 0.054
32.70000 1.003
32.72000 1.294
32.74000 2.053
32.76000 3.901
32.78000 4.009
32.80000 0.738
32.82000 -1.600
32.84000 0.591
32.86000 4.688
32.88000 3.269
32.90000 5.107
32.92000 3.609
32.94000 2.090
32.96000 0.533
32.98000 -0.450
33.00000 0.648
33.02000 0.277
33.04000 0.039
33.06000 -2.292
33.08000 3.660
33.10000 -0.842
33.12000 -3.562
33.14000 -0.224
33.16000 1.090
33.18000 4.032
33.20000 7.571
33.22000 5.346
33.24000 1.041
33.26000 3.513
33.28000 5.262
33.30000 9.506
33.32000 11.121
33.34000 10.846
33.36000 5.273
33.38000 1.277
33.40000 2.876
33.42000 1.373
33.44000 0.182
33.46000 -0.608
33.48000 5.059
33.50000 7.616
33.52000 2.174
33.54000 -2.214
33.56000 -1.234
33.58000 2.061
33.60000 2.881
33.62000 2.221
33.64000 1.884
33.66000 2.126
33.68000 2.903
33.70000 2.244
33.72000 2.735
33.74000 3.064
33.76000 8.360
33.78000 8.582
33.80000 6.819
33.82000 6.123
33.84000 6.513
33.86000 3.806
33.88000 -2.182
33.90000 -1.329
33.92000 2.050
33.94000 3.575
33.96000 1.497
33.98000 -1.549
34.00000 1.219
34.02000 0.499
34.04000 2.397
34.06000 1.785
34.08000 1.185
34.10000 1.759
34.12000 -1.301
34.14000 -0.553
34.16000 1.224
34.18000 1.381
34.20000 -2.275
34.22000 -1.548
34.24000 4.141
34.26000 8.131
34.28000 3.586
34.30000 3.687
34.32000 3.796
34.34000 3.234
34.36000 2.168
34.38000 1.372
34.40000 -0.224
34.42000 0.839
34.44000 3.023
34.46000 3.824
34.48000 5.978
34.50000 0.477
34.52000 2.356
34.54000 -2.389
34.56000 -0.417
34.58000 3.014
34.60000 0.077
34.62000 0.260
34.64000 1.382
34.66000 1.913
34.68000 2.441
34.70000 -3.067
34.72000 0.573
34.74000 -0.265
34.76000 4.508
34.78000 4.085
34.80000 0.575
34.82000 -1.494
34.84000 -0.776
34.86000 -2.409
34.88000 -0.077
34.90000 2.434
34.92000 3.345
34.94000 2.801
34.96000 1.932
34.98000 -0.955
35.00000 -0.633
35.02000 2.257
35.04000 -1.258
35.06000 -3.500
35.08000 -0.223
35.10000 1.568
35.12000 2.860
35.14000 1.592
35.16000 4.248
35.18000 -2.095
35.20000 -2.069
35.22000 3.316
35.24000 0.731
35.26000 4.651
35.28000 7.447
35.30000 4.614
35.32000 0.326
35.34000 0.723
35.36000 0.492
35.38000 4.355
35.40000 3.814
35.42000 -0.357
35.44000 -3.491
35.46000 -2.499
35.48000 2.316
35.50000 6.623
35.52000 8.004
35.54000 -0.566
35.56000 -0.982
35.58000 0.889
35.60000 4.314
35.62000 3.702
35.64000 5.171
35.66000 1.489
35.68000 0.799
35.70000 -0.641
35.72000 -3.483
35.74000 1.155
35.76000 8.721
35.78000 7.994
35.80000 1.452
35.82000 1.672
35.84000 6.733
35.86000 1.138
35.88000 0.070
35.90000 0.455
35.92000 2.624
35.94000 2.604
35.96000 -0.432
35.98000 3.639
36.00000 4.911
36.02000 0.819
36.04000 -1.803
36.06000 1.716
36.08000 1.968
36.10000 4.561
36.12000 7.501
36.14000 4.386
36.16000 4.691
36.18000 6.725
36.20000 3.595
36.22000 2.197
36.24000 1.665
36.26000 -0.356
36.28000 -3.488
36.30000 4.113
36.32000 4.747
36.34000 2.587
36.36000 0.565
36.38000 0.969
36.40000 0.762
36.42000 -0.537
36.44000 0.223
36.46000 3.148
36.48000 4.159
36.50000 1.763
36.52000 1.001
36.54000 1.461
36.56000 3.300
36.58000 6.948
36.60000 8.096
36.62000 4.065
36.64000 2.446
36.66000 -2.522
36.68000 -0.626
36.70000 -1.610
36.72000 -1.193
36.74000 -1.267
36.76000 1.372
36.78000 -0.906
36.80000 -2.348
36.82000 1.853
36.84000 0.410
36.86000 3.658
36.88000 3.587
36.90000 3.385
36.92000 3.112
36.94000 0.725
36.96000 2.111
36.98000 3.957
37.00000 -2.910
37.02000 -0.512
37.04000 -3.559
37.06000 -3.131
37.08000 1.384
37.10000 2.992
37.12000 -0.201
37.14000 -0.248
37.16000 -0.288
37.18000 0.948
37.20000 1.142
37.22000 0.695
37.24000 -0.325
37.26000 -1.166
37.28000 -0.236
37.30000 1.941
37.32000 1.913
37.34000 0.507
37.36000 -1.914
37.38000 -3.584
37.40000 -3.525
37.42000 -1.455
37.44000 -2.851
37.46000 -1.505
37.48000 -0.757
37.50000 2.530
37.52000 2.148
37.54000 0.417
37.56000 -2.136
37.58000 0.112
37.60000 4.005
37.62000 0.541
37.64000 -3.124
37.66000 -3.605
37.68000 1.930
37.70000 4.243
37.72000 -0.528
37.74000 3.648
37.76000 5.289
37.78000 -0.605
37.80000 -1.886
37.82000 4.319
37.84000 8.990
37.86000 2.139
37.88000 -1.888
37.90000 -0.083
37.92000 1.000
37.94000 2.501
37.96000 4.716
37.98000 5.198
38.00000 4.460
38.02000 8.638
38.04000 6.994
38.06000 5.323
38.08000 7.454
38.10000 9.038
38.12000 6.128
38.14000 5.428
38.16000 8.921
38.18000 8.585
38.20000 4.378
38.22000 6.764
38.24000 4.723
38.26000 3.049
38.28000 5.207
38.30000 6.658
38.32000 6.195
38.34000 3.725
38.36000 7.299
38.38000 8.194
38.40000 9.577
38.42000 7.723
38.44000 9.454
38.46000 9.520
38.48000 7.632
38.50000 9.602
38.52000 13.159
38.54000 14.368
38.56000 14.836
38.58000 8.018
38.60000 12.819
38.62000 14.400
38.64000 14.293
38.66000 18.354
38.68000 15.453
38.70000 14.394
38.72000 12.266
38.74000 17.378
38.76000 22.841
38.78000 12.465
38.80000 17.382
38.82000 21.620
38.84000 20.337
38.86000 20.017
38.88000 20.917
38.90000 22.710
38.92000 24.488
38.94000 20.106
38.96000 25.193
38.98000 27.359
39.00000 28.753
39.02000 28.448
39.04000 27.311
39.06000 25.275
39.08000 26.870
39.10000 29.131
39.12000 30.852
39.14000 33.229
39.16000 31.254
39.18000 37.376
39.20000 42.685
39.22000 41.526
39.24000 45.449
39.26000 43.831
39.28000 45.817
39.30000 48.975
39.32000 51.254
39.34000 50.351
39.36000 57.751
39.38000 57.133
39.40000 61.144
39.42000 64.951
39.44000 68.183
39.46000 69.961
39.48000 76.166
39.50000 73.702
39.52000 73.092
39.54000 78.270
39.56000 85.968
39.58000 91.355
39.60000 92.074
39.62000 95.515
39.64000 97.053
39.66000 103.704
39.68000 110.813
39.70000 120.262
39.72000 126.122
39.74000 132.357
39.76000 141.725
39.78000 140.084
39.80000 151.288
39.82000 164.266
39.84000 173.173
39.86000 179.433
39.88000 193.295
39.90000 201.346
39.92000 207.992
39.94000 214.787
39.96000 227.026
39.98000 239.143
40.00000 248.311
40.02000 262.020
40.04000 279.357
40.06000 293.704
40.08000 308.653
40.10000 323.218
40.12000 329.088
40.14000 349.732
40.16000 363.249
40.18000 380.287
40.20000 393.188
40.22000 412.384
40.24000 430.351
40.26000 456.926
40.28000 459.425
40.30000 464.682
40.32000 486.434
40.34000 501.649
40.36000 511.211
40.38000 519.246
40.40000 528.187
40.42000 544.539
40.44000 544.105
40.46000 543.803
40.48000 563.761
40.50000 567.755
40.52000 567.333
40.54000 558.615
40.56000 552.658
40.58000 550.184
40.60000 550.490
40.62000 548.944
40.64000 540.301
40.66000 528.848
40.68000 516.536
40.70000 501.014
40.72000 501.210
40.74000 484.936
40.76000 466.090
40.78000 454.968
40.80000 437.719
40.82000 417.699
40.84000 399.924
40.86000 390.196
40.88000 377.574
40.90000 368.811
40.92000 355.084
40.94000 325.608
40.96000 316.541
40.98000 308.670
41.00000 297.191
41.02000 277.494
41.04000 254.542
41.06000 243.909
41.08000 237.447
41.10000 230.094
41.12000 213.083
41.14000 202.846
41.16000 188.221
41.18000 176.711
41.20000 170.778
41.22000 162.789
41.24000 152.749
41.26000 143.570
41.28000 140.033
41.30000 136.368
41.32000 128.622
41.34000 122.382
41.36000 112.238
41.38000 104.797
41.40000 94.440
41.42000 98.838
41.44000 97.822
41.46000 87.699
41.48000 74.344
41.50000 72.152
41.52000 71.519
41.54000 66.451
41.56000 63.049
41.58000 60.170
41.60000 57.265
41.62000 57.020
41.64000 52.449
41.66000 47.991
41.68000 49.711
41.70000 45.541
41.72000 44.601
41.74000 42.627
41.76000 34.802
41.78000 33.736
41.80000 35.151
41.82000 35.569
41.84000 32.303
41.86000 31.190
41.88000 29.240
41.90000 27.810
41.92000 24.174
41.94000 26.610
41.96000 27.037
41.98000 23.450
42.00000 23.021
42.02000 17.584
42.04000 18.412
42.06000 16.045
42.08000 16.787
42.10000 14.791
42.12000 17.738
42.14000 10.558
42.16000 13.409
42.18000 13.118
42.20000 18.303
42.22000 20.995
42.24000 15.597
42.26000 13.608
42.28000 10.409
42.30000 13.428
42.32000 10.437
42.34000 8.280
42.36000 9.670
42.38000 6.831
42.40000 9.730
42.42000 10.317
42.44000 8.170
42.46000 1.123
42.48000 1.791
42.50000 2.229
42.52000 6.218
42.54000 4.961
42.56000 6.025
42.58000 6.819
42.60000 7.742
42.62000 8.141
42.64000 1.819
42.66000 2.109
42.68000 1.772
42.70000 0.395
42.72000 3.844
42.74000 4.454
42.76000 5.019
42.78000 2.860
42.80000 -3.571
42.82000 -2.436
42.84000 -1.183
42.86000 -1.965
42.88000 -0.556
42.90000 4.910
42.92000 4.188
42.94000 4.209
42.96000 5.015
42.98000 3.933
43.00000 6.468
43.02000 2.258
43.04000 -0.402
43.06000 2.533
43.08000 -0.235
43.10000 -0.092
43.12000 -0.161
43.14000 0.747
43.16000 -0.177
43.18000 -1.283
43.20000 -2.165
43.22000 2.252
43.24000 2.866
43.26000 1.475
43.28000 4.543
43.30000 -0.400
43.32000 0.398
43.34000 3.436
43.36000 1.080
43.38000 -1.469
43.40000 2.116
43.42000 4.194
43.44000 6.026
43.46000 4.837
43.48000 1.883
43.50000 -0.027
43.52000 1.052
43.54000 3.735
43.56000 2.188
43.58000 2.080
43.60000 -0.316
43.62000 -1.162
43.64000 -1.501
43.66000 -0.641
43.68000 2.691
43.70000 4.161
43.72000 2.893
43.74000 1.420
43.76000 2.025
43.78000 -3.441
43.80000 0.988
43.82000 4.816
43.84000 8.949
43.86000 7.879
43.88000 4.237
43.90000 0.729
43.92000 0.353
43.94000 1.277
43.96000 -2.718
43.98000 0.106
44.00000 8.134
44.02000 7.505
44.04000 4.908
44.06000 5.470
44.08000 -0.082
44.10000 2.222
44.12000 5.310
44.14000 2.514
44.16000 2.762
44.18000 7.084
44.20000 7.212
44.22000 1.287
44.24000 2.779
44.26000 3.827
44.28000 4.786
44.30000 2.942
44.32000 -1.519
44.34000 -0.973
44.36000 4.466
44.38000 0.179
44.40000 -0.390
44.42000 7.586
44.44000 9.939
44.46000 4.230
44.48000 0.284
44.50000 0.250
44.52000 -3.408
44.54000 0.160
44.56000 -0.663
44.58000 2.441
44.60000 3.204
44.62000 6.284
44.64000 8.251
44.66000 10.552
44.68000 3.682
44.70000 0.576
44.72000 2.359
44.74000 5.648
44.76000 2.460
44.78000 -0.316
44.80000 -0.691
44.82000 3.829
44.84000 3.086
44.86000 -0.245
44.88000 -1.880
44.90000 2.748
44.92000 3.456
44.94000 6.759
44.96000 8.361
44.98000 7.285
45.00000 3.785
45.02000 2.401
45.04000 6.876
45.06000 1.076
45.08000 -3.403
45.10000 4.045
45.12000 7.489
45.14000 5.225
45.16000 5.049
45.18000 7.340
45.20000 5.628
45.22000 5.377
45.24000 5.977
45.26000 4.250
45.28000 8.063
45.30000 9.480
45.32000 6.755
45.34000 9.505
45.36000 10.098
45.38000 8.042
45.40000 8.056
45.42000 8.757
45.44000 8.367
45.46000 8.043
45.48000 4.369
45.50000 0.281
45.52000 10.976
45.54000 19.285
45.56000 17.789
45.58000 15.257
45.60000 18.657
45.62000 12.796
45.64000 18.709
45.66000 17.284
45.68000 11.716
45.70000 12.560
45.72000 17.934
45.74000 15.952
45.76000 18.446
45.78000 20.248
45.80000 17.632
45.82000 18.044
45.84000 18.828
45.86000 18.181
45.88000 18.121
45.90000 21.985
45.92000 21.783
45.94000 20.467
45.96000 18.437
45.98000 26.515
46.00000 32.005
46.02000 30.278
46.04000 26.856
46.06000 25.565
46.08000 29.133
46.10000 30.151
46.12000 29.357
46.14000 25.301
46.16000 27.374
46.18000 29.683
46.20000 31.460
46.22000 33.884
46.24000 35.447
46.26000 38.700
46.28000 39.747
46.30000 38.717
46.32000 37.708
46.34000 42.041
46.36000 51.707
46.38000 51.663
46.40000 50.067
46.42000 58.278
46.44000 51.908
46.46000 43.438
46.48000 46.760
46.50000 51.909
46.52000 62.682
46.54000 59.384
46.56000 57.745
46.58000 54.848
46.60000 58.469
46.62000 58.685
46.64000 68.818
46.66000 65.089
46.68000 58.411
46.70000 67.744
46.72000 67.136
46.74000 71.291
46.76000 74.727
46.78000 77.694
46.80000 74.109
46.82000 74.976
46.84000 73.659
46.86000 76.306
46.88000 77.288
46.90000 82.778
46.92000 87.564
46.94000 87.339
46.96000 86.416
46.98000 82.356
47.00000 84.522
47.02000 84.857
47.04000 83.161
47.06000 84.362
47.08000 82.576
47.10000 85.268
47.12000 76.366
47.14000 74.694
47.16000 79.237
47.18000 86.944
47.20000 89.104
47.22000 78.836
47.24000 81.520
47.26000 84.480
47.28000 83.932
47.30000 84.699
47.32000 90.715
47.34000 87.623
47.36000 85.227
47.38000 84.780
47.40000 80.165
47.42000 72.253
47.44000 74.323
47.46000 69.162
47.48000 68.308
47.50000 67.007
47.52000 67.074
47.54000 72.519
47.56000 68.668
47.58000 58.565
47.60000 60.465
47.62000 61.593
47.64000 61.805
47.66000 55.459
47.68000 53.365
47.70000 55.515
47.72000 53.480
47.74000 48.632
47.76000 42.976
47.78000 43.407
47.80000 41.986
47.82000 42.049
47.84000 43.068
47.86000 46.380
47.88000 43.228
47.90000 45.322
47.92000 38.157
47.94000 34.445
47.96000 34.417
47.98000 30.943
48.00000 32.944
48.02000 29.994
48.04000 25.549
48.06000 23.463
48.08000 23.659
48.10000 23.488
48.12000 25.771
48.14000 24.521
48.16000 19.960
48.18000 19.316
48.20000 22.273
48.22000 23.740
48.24000 21.777
48.26000 15.413
48.28000 17.328
48.30000 13.576
48.32000 12.878
48.34000 10.688
48.36000 9.411
48.38000 13.233
48.40000 14.896
48.42000 18.272
48.44000 14.494
48.46000 10.842
48.48000 6.450
48.50000 6.530
48.52000 10.436
48.54000 9.915
48.56000 7.444
48.58000 10.318
48.60000 10.284
48.62000 8.157
48.64000 9.055
48.66000 9.779
48.68000 9.817
48.70000 8.704
48.72000 9.099
48.74000 6.644
48.76000 5.632
48.78000 5.070
48.80000 11.292
48.82000 7.005
48.84000 6.656
48.86000 4.871
48.88000 6.980
48.90000 5.590
48.92000 10.488
48.94000 5.474
48.96000 2.871
48.98000 2.846
49.00000 5.259
49.02000 5.186
49.04000 4.838
49.06000 -3.081
49.08000 -1.653
49.10000 2.139
49.12000 1.873
49.14000 1.142
49.16000 -1.934
49.18000 1.499
49.20000 1.227
49.22000 2.927
49.24000 1.368
49.26000 0.561
49.28000 1.284
49.30000 4.529
49.32000 -0.830
49.34000 0.310
49.36000 2.280
49.38000 -1.179
49.40000 -0.274
49.42000 5.582
49.44000 0.013
49.46000 -3.018
49.48000 -1.200
49.50000 6.658
49.52000 7.430
49.54000 7.170
49.56000 5.177
49.58000 3.208
49.60000 2.174
49.62000 -0.492
49.64000 3.075
49.66000 5.386
49.68000 5.843
49.70000 1.788
49.72000 4.126
49.74000 6.559
49.76000 -0.152
49.78000 -2.961
49.80000 -1.079
49.82000 2.560
49.84000 -0.046
49.86000 1.675
49.88000 3.845
49.90000 5.379
49.92000 -0.593
49.94000 3.277
49.96000 6.758
49.98000 3.099
50.00000 1.744
50.02000 -0.823
50.04000 -0.683
50.06000 0.063
50.08000 5.059
50.10000 8.217
50.12000 9.457
50.14000 6.420
50.16000 2.910
50.18000 5.504
50.20000 0.226
50.22000 4.499
50.24000 2.135
50.26000 -1.845
50.28000 -1.557
50.30000 1.180
50.32000 3.875
50.34000 3.374
50.36000 5.084
50.38000 2.897
50.40000 4.131
50.42000 1.472
50.44000 -1.258
50.46000 3.339
50.48000 0.574
50.50000 1.255
50.52000 2.020
50.54000 4.230
50.56000 3.758
50.58000 2.409
50.60000 1.518
50.62000 1.783
50.64000 1.205
50.66000 3.400
50.68000 1.019
50.70000 2.128
50.72000 4.046
50.74000 4.620
50.76000 4.547
50.78000 2.247
50.80000 4.443
50.82000 4.248
50.84000 4.377
50.86000 2.426
50.88000 2.948
50.90000 3.033
50.92000 3.373
50.94000 8.193
50.96000 3.164
50.98000 1.846
51.00000 -2.872
51.02000 -0.460
51.04000 3.036
51.06000 4.261
51.08000 3.317
51.10000 2.926
51.12000 4.073
51.14000 3.231
51.16000 3.484
51.18000 5.808
51.20000 3.072
51.22000 6.390
51.24000 7.197
51.26000 5.450
51.28000 2.672
51.30000 4.095
51.32000 3.245
51.34000 4.301
51.36000 -2.717
51.38000 -2.115
51.40000 -0.620
51.42000 2.824
51.44000 1.759
51.46000 4.650
51.48000 2.787
51.50000 4.911
51.52000 4.328
51.54000 0.188
51.56000 -2.537
51.58000 -2.847
51.60000 -1.403
51.62000 6.580
51.64000 5.072
51.66000 4.631
51.68000 3.979
51.70000 6.940
51.72000 9.212
51.74000 2.919
51.76000 3.358
51.78000 1.599
51.80000 -0.856
51.82000 2.842
51.84000 8.458
51.86000 5.680
51.88000 5.389
51.90000 5.542
51.92000 1.018
51.94000 -1.542
51.96000 -2.295
51.98000 0.645
52.00000 2.225
52.02000 5.384
52.04000 5.797
52.06000 6.505
52.08000 4.838
52.10000 1.963
52.12000 1.610
52.14000 0.180
52.16000 5.168
52.18000 0.209
52.20000 -0.903
52.22000 1.711
52.24000 5.587
52.26000 7.784
52.28000 1.506
52.30000 6.526
52.32000 6.038
52.34000 4.169
52.36000 -0.231
52.38000 -2.824
52.40000 2.867
52.42000 1.479
52.44000 2.378
52.46000 3.199
52.48000 0.238
52.50000 1.810
52.52000 2.767
52.54000 1.499
52.56000 3.797
52.58000 4.778
52.60000 2.160
52.62000 4.134
52.64000 5.074
52.66000 6.463
52.68000 3.312
52.70000 -1.346
52.72000 -1.424
52.74000 -0.457
52.76000 -0.402
52.78000 -0.526
52.80000 1.056
52.82000 -2.201
52.84000 -0.204
52.86000 1.661
52.88000 2.093
52.90000 -1.169
52.92000 -2.806
52.94000 -0.104
52.96000 5.054
52.98000 6.267
53.00000 3.233
53.02000 4.612
53.04000 6.910
53.06000 6.269
53.08000 1.897
53.10000 -0.103
53.12000 0.833
53.14000 4.133
53.16000 4.806
53.18000 3.391
53.20000 3.441
53.22000 4.620
53.24000 7.336
53.26000 6.126
53.28000 5.320
53.30000 0.752
53.32000 0.605
53.34000 2.296
53.36000 4.710
53.38000 2.501
53.40000 0.890
53.42000 1.141
53.44000 2.804
53.46000 1.075
53.48000 -1.924
53.50000 3.317
53.52000 2.787
53.54000 2.384
53.56000 0.118
53.58000 0.350
53.60000 -0.551
53.62000 -1.639
53.64000 0.868
53.66000 3.508
53.68000 5.466
53.70000 2.840
53.72000 1.219
53.74000 0.801
53.76000 4.567
53.78000 1.949
53.80000 1.415
53.82000 -0.095
53.84000 3.120
53.86000 3.774
53.88000 1.150
53.90000 4.057
53.92000 4.657
53.94000 3.276
53.96000 3.621
53.98000 1.192
54.00000 2.205
54.02000 1.534
54.04000 -2.784
54.06000 1.010
54.08000 5.414
54.10000 0.224
54.12000 1.870
54.14000 1.262
54.16000 2.501
54.18000 2.552
54.20000 1.788
54.22000 5.683
54.24000 5.830
54.26000 0.139
54.28000 -1.211
54.30000 -2.775
54.32000 -0.943
54.34000 3.027
54.36000 2.649
54.38000 0.519
54.40000 2.512
54.42000 4.110
54.44000 2.572
54.46000 4.753
54.48000 -0.074
54.50000 3.442
54.52000 5.892
54.54000 3.835
54.56000 4.334
54.58000 7.481
54.60000 -0.384
54.62000 4.057
54.64000 7.362
54.66000 7.129
54.68000 6.454
54.70000 3.179
54.72000 -0.039
54.74000 3.904
54.76000 -1.809
54.78000 2.838
54.80000 1.536
54.82000 -1.954
54.84000 -2.755
54.86000 -0.818
54.88000 4.783
54.90000 2.206
54.92000 0.472
54.94000 2.118
54.96000 2.117
54.98000 5.351
55.00000 4.888
55.02000 2.885
55.04000 3.148
55.06000 4.474
55.08000 6.349
55.10000 3.005
55.12000 -0.353
55.14000 -0.047
55.16000 2.660
55.18000 0.383
55.20000 -2.745
55.22000 0.685
55.24000 0.020
55.26000 -0.560
55.28000 2.659
55.30000 5.426
55.32000 3.479
55.34000 -0.036
55.36000 -2.706
55.38000 -0.420
55.40000 1.295
55.42000 0.448
55.44000 1.667
55.46000 0.718
55.48000 2.640
55.50000 0.375
55.52000 4.052
55.54000 3.969
55.56000 3.143
55.58000 3.395
55.60000 1.323
55.62000 0.253
55.64000 -0.870
55.66000 0.381
55.68000 2.384
55.70000 2.172
55.72000 -0.449
55.74000 6.872
55.76000 12.683
55.78000 5.693
55.80000 4.484
55.82000 3.655
55.84000 1.879
55.86000 5.165
55.88000 2.927
55.90000 3.251
55.92000 4.025
55.94000 2.162
55.96000 1.619
55.98000 1.648
56.00000 0.776
56.02000 3.959
56.04000 3.788
56.06000 4.657
56.08000 6.224
56.10000 4.181
56.12000 3.187
56.14000 0.751
56.16000 1.927
56.18000 5.094
56.20000 3.261
56.22000 0.629
56.24000 1.903
56.26000 4.075
56.28000 2.592
56.30000 0.738
56.32000 -2.714
56.34000 4.088
56.36000 -0.071
56.38000 2.259
56.40000 4.716
56.42000 2.841
56.44000 2.811
56.46000 5.110
56.48000 -0.660
56.50000 -0.621
56.52000 -2.434
56.54000 0.481
56.56000 1.515
56.58000 1.706
56.60000 4.834
56.62000 5.332
56.64000 3.682
56.66000 6.841
56.68000 6.075
56.70000 8.040
56.72000 4.003
56.74000 4.699
56.76000 3.313
56.78000 1.244
56.80000 1.145
56.82000 2.261
56.84000 5.699
56.86000 2.302
56.88000 -0.571
56.90000 1.781
56.92000 2.342
56.94000 4.650
56.96000 2.403
56.98000 2.609
57.00000 6.835
57.02000 3.080
57.04000 3.149
57.06000 5.999
57.08000 2.912
57.10000 5.040
57.12000 1.208
57.14000 -2.036
57.16000 0.954
57.18000 1.757
57.20000 -0.081
57.22000 0.183
57.24000 3.573
57.26000 1.201
57.28000 4.613
57.30000 9.055
57.32000 3.769
57.34000 4.382
57.36000 5.465
57.38000 4.161
57.40000 6.181
57.42000 3.768
57.44000 5.422
57.46000 2.176
57.48000 1.670
57.50000 4.694
57.52000 8.652
57.54000 5.271
57.56000 2.879
57.58000 2.707
57.60000 5.882
57.62000 4.285
57.64000 4.588
57.66000 3.765
57.68000 4.651
57.70000 3.043
57.72000 2.964
57.74000 2.618
57.76000 0.928
57.78000 2.086
57.80000 -0.448
57.82000 -0.577
57.84000 4.239
57.86000 6.122
57.88000 6.431
57.90000 3.601
57.92000 -0.164
57.94000 -2.632
57.96000 1.008
57.98000 0.146
58.00000 3.399
58.02000 10.369
58.04000 7.226
58.06000 8.707
58.08000 7.865
58.10000 7.740
58.12000 3.766
58.14000 7.225
58.16000 5.599
58.18000 5.804
58.20000 4.201
58.22000 5.932
58.24000 9.209
58.26000 7.872
58.28000 4.700
58.30000 2.059
58.32000 7.230
58.34000 7.793
58.36000 5.570
58.38000 4.158
58.40000 3.649
58.42000 8.129
58.44000 7.941
58.46000 10.389
58.48000 14.370
58.50000 9.639
58.52000 7.809
58.54000 4.362
58.56000 1.374
58.58000 -2.590
58.60000 2.505
58.62000 2.658
58.64000 6.404
58.66000 5.618
58.68000 5.630
58.70000 5.505
58.72000 5.408
58.74000 9.321
58.76000 6.694
58.78000 0.385
58.80000 -0.176
58.82000 4.759
58.84000 5.541
58.86000 4.762
58.88000 4.807
58.90000 2.713
58.92000 3.622
58.94000 -0.301
58.96000 4.132
58.98000 3.940
59.00000 4.947
59.02000 4.399
59.04000 2.457
59.06000 3.696
59.08000 0.534
59.10000 3.761
59.12000 4.542
59.14000 5.502
59.16000 6.154
59.18000 6.456
59.20000 5.560
59.22000 2.302
59.24000 2.429
59.26000 4.916
59.28000 -0.213
59.30000 2.466
59.32000 3.520
59.34000 3.563
59.36000 -0.262
59.38000 0.789
59.40000 2.295
59.42000 3.403
59.44000 1.130
59.46000 -1.060
59.48000 -2.608
59.50000 -0.650
59.52000 1.950
59.54000 2.279
59.56000 4.363
59.58000 4.200
59.60000 4.587
59.62000 2.441
59.64000 1.190
59.66000 -1.404
59.68000 -1.114
59.70000 3.057
59.72000 0.673
59.74000 1.521
59.76000 4.433
59.78000 2.856
59.80000 2.515
59.82000 2.194
59.84000 3.925
59.86000 6.048
59.88000 2.209
59.90000 2.674
59.92000 2.358
59.94000 2.169
59.96000 4.631
59.98000 -0.724
60.00000 -2.460
60.02000 1.475
60.04000 1.577
60.06000 2.633
60.08000 2.675
60.10000 2.140
60.12000 2.858
60.14000 0.288
60.16000 0.249
60.18000 0.433
60.20000 1.003
60.22000 1.381
60.24000 6.045
60.26000 5.103
60.28000 2.770
60.30000 2.208
60.32000 6.268
60.34000 6.019
60.36000 0.254
60.38000 1.289
60.40000 1.630
60.42000 0.392
60.44000 -0.413
60.46000 0.351
60.48000 3.900
60.50000 3.540
60.52000 -1.043
60.54000 -2.571
60.56000 3.779
60.58000 2.523
60.60000 -0.017
60.62000 1.789
60.64000 0.411
60.66000 2.803
60.68000 3.153
60.70000 6.825
60.72000 2.099
60.74000 0.231
60.76000 6.124
60.78000 7.750
60.80000 4.604
60.82000 2.254
60.84000 4.302
60.86000 8.362
60.88000 4.576
60.90000 1.108
60.92000 2.085
60.94000 2.715
60.96000 -0.035
60.98000 0.243
61.00000 0.710
61.02000 1.987
61.04000 4.940
61.06000 4.957
61.08000 0.490
61.10000 2.008
61.12000 1.577
61.14000 3.702
61.16000 2.160
61.18000 3.903
61.20000 6.536
61.22000 6.874
61.24000 4.890
61.26000 -1.858
61.28000 0.455
61.30000 0.066
61.32000 0.221
61.34000 0.590
61.36000 1.064
61.38000 2.858
61.40000 2.341
61.42000 -2.547
61.44000 2.886
61.46000 5.679
61.48000 3.006
61.50000 2.554
61.52000 3.908
61.54000 3.640
61.56000 5.795
61.58000 7.640
61.60000 11.021
61.62000 12.100
61.64000 7.536
61.66000 0.956
61.68000 -2.542
61.70000 -1.135
61.72000 4.025
61.74000 1.428
61.76000 0.341
61.78000 2.050
61.80000 -0.273
61.82000 4.405
61.84000 4.342
61.86000 2.092
61.88000 -1.087
61.90000 0.062
61.92000 2.144
61.94000 4.670
61.96000 5.186
61.98000 3.278
62.00000 4.141
62.02000 2.007
62.04000 3.241
62.06000 6.403
62.08000 2.713
62.10000 2.871
62.12000 1.155
62.14000 2.749
62.16000 2.942
62.18000 1.986
62.20000 3.727
62.22000 3.163
62.24000 4.843
62.26000 2.692
62.28000 1.866
62.30000 2.949
62.32000 1.224
62.34000 0.239
62.36000 -0.604
62.38000 1.323
62.40000 0.185
62.42000 1.767
62.44000 5.964
62.46000 0.053
62.48000 1.964
62.50000 2.199
62.52000 0.113
62.54000 2.397
62.56000 3.261
62.58000 2.627
62.60000 6.543
62.62000 3.461
62.64000 0.243
62.66000 -2.212
62.68000 -0.647
62.70000 4.885
62.72000 3.350
62.74000 1.078
62.76000 1.780
62.78000 1.538
62.80000 0.855
62.82000 4.113
62.84000 3.049
62.86000 1.171
62.88000 -0.935
62.90000 -0.559
62.92000 0.985
62.94000 0.300
62.96000 4.358
62.98000 4.561
63.00000 5.866
63.02000 9.125
63.04000 6.839
63.06000 2.568
63.08000 2.942
63.10000 3.571
63.12000 5.622
63.14000 4.851
63.16000 3.651
63.18000 3.243
63.20000 5.061
63.22000 5.703
63.24000 -2.492
63.26000 -1.641
63.28000 -0.447
63.30000 3.638
63.32000 3.743
63.34000 3.944
63.36000 2.654
63.38000 2.490
63.40000 4.423
63.42000 6.937
63.44000 7.973
63.46000 7.425
63.48000 3.581
63.50000 4.095
63.52000 3.663
63.54000 6.315
63.56000 1.598
63.58000 0.751
63.60000 3.419
63.62000 2.945
63.64000 3.225
63.66000 2.865
63.68000 -2.164
63.70000 1.418
63.72000 2.648
63.74000 2.319
63.76000 2.391
63.78000 2.103
63.80000 3.690
63.82000 8.135
63.84000 3.576
63.86000 5.738
63.88000 9.751
63.90000 5.276
63.92000 3.405
63.94000 3.146
63.96000 -0.649
63.98000 -0.742
64.00000 0.865
64.02000 5.405
64.04000 3.184
64.06000 2.353
64.08000 -2.522
64.10000 -0.554
64.12000 1.748
64.14000 0.328
64.16000 2.588
64.18000 0.813
64.20000 0.883
64.22000 -0.191
64.24000 2.256
64.26000 -1.770
64.28000 -0.657
64.30000 -0.312
64.32000 3.684
64.34000 6.517
64.36000 4.965
64.38000 2.955
64.40000 -1.512
64.42000 -0.399
64.44000 3.736
64.46000 -0.683
64.48000 -1.688
64.50000 1.704
64.52000 2.013
64.54000 4.022
64.56000 3.973
64.58000 3.206
64.60000 1.364
64.62000 -2.534
64.64000 -2.125
64.66000 -0.373
64.68000 2.179
64.70000 1.546
64.72000 1.151
64.74000 3.086
64.76000 4.537
64.78000 -0.456
64.80000 -2.029
64.82000 -2.108
64.84000 -0.012
64.86000 1.854
64.88000 2.124
64.90000 2.777
64.92000 3.848
64.94000 6.160
64.96000 6.990
64.98000 4.428
65.00000 7.895
65.02000 2.218
65.04000 0.352
65.06000 1.913
65.08000 5.388
65.10000 4.926
65.12000 3.106
65.14000 3.665
65.16000 -1.079
65.18000 0.222
65.20000 -0.234
65.22000 1.308
65.24000 -0.250
65.26000 0.809
65.28000 3.791
65.30000 2.961
65.32000 0.109
65.34000 1.928
65.36000 5.378
65.38000 2.802
65.40000 -0.562
65.42000 2.528
65.44000 4.738
65.46000 0.704
65.48000 -1.075
65.50000 -0.162
65.52000 -2.533
65.54000 -0.560
65.56000 1.684
65.58000 7.377
65.60000 4.212
65.62000 1.362
65.64000 1.061
65.66000 0.959
65.68000 -0.806
65.70000 -1.014
65.72000 2.076
65.74000 0.687
65.76000 1.590
65.78000 2.182
65.80000 0.595
65.82000 2.525
65.84000 0.066
65.86000 1.639
65.88000 3.472
65.90000 3.343
65.92000 2.573
65.94000 6.019
65.96000 3.153
65.98000 6.562
66.00000 5.914
66.02000 0.661
66.04000 -0.271
66.06000 1.898
66.08000 3.578
66.10000 1.967
66.12000 2.078
66.14000 2.554
66.16000 2.023
66.18000 0.049
66.20000 -2.548
66.22000 -2.549
66.24000 0.430
66.26000 3.991
66.28000 5.809
66.30000 1.175
66.32000 0.937
66.34000 0.195
66.36000 3.899
66.38000 3.801
66.40000 2.147
66.42000 -2.560
66.44000 0.391
66.46000 -0.871
66.48000 2.869
66.50000 2.597
66.52000 0.251
66.54000 4.163
66.56000 3.898
66.58000 2.944
66.60000 1.664
66.62000 1.209
66.64000 2.537
66.66000 2.675
66.68000 -0.192
66.70000 -1.488
66.72000 0.070
66.74000 0.827
66.76000 1.040
66.78000 1.960
66.80000 3.675
66.82000 2.774
66.84000 0.540
66.86000 -2.599
66.88000 -1.587
66.90000 -1.231
66.92000 -0.431
66.94000 -1.352
66.96000 -0.229
66.98000 -1.354
67.00000 -2.447
67.02000 2.378
67.04000 3.237
67.06000 6.627
67.08000 4.750
67.10000 3.119
67.12000 0.310
67.14000 -0.702
67.16000 -0.721
67.18000 3.615
67.20000 3.122
67.22000 2.961
67.24000 0.574
67.26000 -0.256
67.28000 -1.755
67.30000 3.427
67.32000 0.997
67.34000 0.270
67.36000 1.275
67.38000 -1.790
67.40000 1.313
67.42000 -0.254
67.44000 -0.750
67.46000 4.328
67.48000 0.862
67.50000 6.509
67.52000 5.598
67.54000 4.095
67.56000 3.677
67.58000 6.415
67.60000 4.352
67.62000 -0.200
67.64000 -1.247
67.66000 3.274
67.68000 6.015
67.70000 1.327
67.72000 3.336
67.74000 4.416
67.76000 7.347
67.78000 6.791
67.80000 1.918
67.82000 3.354
67.84000 7.968
67.86000 8.271
67.88000 7.811
67.90000 8.292
67.92000 8.362
67.94000 8.919
67.96000 9.635
67.98000 8.250
68.00000 12.539
68.02000 8.241
68.04000 6.436
68.06000 7.096
68.08000 10.275
68.10000 8.534
68.12000 12.649
68.14000 14.051
68.16000 10.192
68.18000 10.008
68.20000 12.674
68.22000 10.000
68.24000 12.882
68.26000 16.887
68.28000 19.223
68.30000 15.665
68.32000 12.642
68.34000 13.929
68.36000 10.805
68.38000 10.104
68.40000 14.764
68.42000 17.327
68.44000 16.928
68.46000 16.972
68.48000 19.882
68.50000 25.208
68.52000 23.004
68.54000 24.447
68.56000 20.259
68.58000 19.535
68.60000 19.882
68.62000 17.757
68.64000 23.500
68.66000 24.396
68.68000 23.268
68.70000 21.838
68.72000 24.354
68.74000 22.896
68.76000 23.355
68.78000 23.407
68.80000 23.233
68.82000 22.777
68.84000 22.419
68.86000 21.040
68.88000 21.870
68.90000 24.203
68.92000 24.051
68.94000 21.706
68.96000 21.099
68.98000 19.783
69.00000 19.085
69.02000 22.346
69.04000 22.750
69.06000 19.030
69.08000 19.872
69.10000 22.063
69.12000 22.769
69.14000 19.531
69.16000 15.007
69.18000 18.389
69.20000 16.848
69.22000 17.297
69.24000 19.260
69.26000 19.976
69.28000 19.174
69.30000 16.158
69.32000 12.611
69.34000 13.577
69.36000 12.636
69.38000 16.082
69.40000 21.106
69.42000 16.026
69.44000 9.511
69.46000 10.313
69.48000 10.160
69.50000 9.793
69.52000 9.453
69.54000 8.078
69.56000 10.465
69.58000 12.229
69.60000 9.652
69.62000 7.465
69.64000 6.825
69.66000 4.972
69.68000 6.550
69.70000 12.680
69.72000 6.688
69.74000 4.060
69.76000 8.385
69.78000 5.192
69.80000 -0.103
69.82000 0.068
69.84000 5.914
69.86000 8.502
69.88000 7.367
69.90000 2.831
69.92000 2.831
69.94000 2.340
69.96000 4.161
69.98000 4.559
70.00000 3.691
70.02000 4.691
70.04000 4.020
70.06000 2.721
70.08000 4.105
70.10000 3.416
70.12000 0.003
70.14000 -0.646
70.16000 -0.041
70.18000 4.031
70.20000 4.449
70.22000 4.882
70.24000 1.464
70.26000 3.231
70.28000 3.369
70.30000 1.942
70.32000 -0.414
70.34000 0.035
70.36000 3.589
70.38000 3.018
70.40000 0.917
70.42000 -2.496
70.44000 0.588
70.46000 -0.038
70.48000 0.386
70.50000 1.299
70.52000 2.837
70.54000 1.828
70.56000 5.112
70.58000 2.501
70.60000 3.649
70.62000 2.674
70.64000 2.777
70.66000 1.822
70.68000 -0.466
70.70000 -2.138
70.72000 5.600
70.74000 6.888
70.76000 -1.249
70.78000 2.102
70.80000 6.423
70.82000 5.190
70.84000 6.937
70.86000 5.516
70.88000 4.581
70.90000 4.025
70.92000 1.733
70.94000 2.109
70.96000 -0.442
70.98000 -2.448
71.00000 -1.328
71.02000 1.682
71.04000 2.465
71.06000 2.202
71.08000 3.609
71.10000 4.082
71.12000 3.788
71.14000 5.358
71.16000 5.903
71.18000 3.947
71.20000 2.701
71.22000 1.293
71.24000 0.033
71.26000 4.692
71.28000 3.956
71.30000 3.316
71.32000 3.225
71.34000 2.384
71.36000 2.853
71.38000 6.510
71.40000 8.219
71.42000 5.365
71.44000 2.103
71.46000 2.611
71.48000 1.420
71.50000 -1.074
71.52000 -0.390
71.54000 2.799
71.56000 3.881
71.58000 2.799
71.60000 2.951
71.62000 5.575
71.64000 3.764
71.66000 3.860
71.68000 3.856
71.70000 0.099
71.72000 3.739
71.74000 1.256
71.76000 -2.404
71.78000 -1.831
71.80000 3.490
71.82000 0.734
71.84000 1.900
71.86000 5.975
71.88000 8.342
71.90000 5.633
71.92000 1.446
71.94000 -1.952
71.96000 -1.967
71.98000 -2.298
72.00000 1.915
72.02000 6.114
72.04000 6.881
72.06000 1.950
72.08000 0.746
72.10000 2.550
72.12000 -0.662
72.14000 3.371
72.16000 2.511
72.18000 2.161
72.20000 2.809
72.22000 -2.239
72.24000 1.147
72.26000 2.331
72.28000 2.479
72.30000 2.526
72.32000 4.618
72.34000 1.822
72.36000 2.741
72.38000 8.038
72.40000 3.351
72.42000 -0.234
72.44000 1.235
72.46000 5.063
72.48000 7.901
72.50000 7.351
72.52000 3.846
72.54000 2.107
72.56000 4.633
72.58000 3.483
72.60000 2.709
72.62000 4.694
72.64000 9.395
72.66000 6.700
72.68000 7.025
72.70000 7.578
72.72000 7.031
72.74000 2.916
72.76000 2.036
72.78000 0.539
72.80000 4.302
72.82000 6.169
72.84000 4.641
72.86000 5.541
72.88000 5.324
72.90000 2.470
72.92000 2.972
72.94000 0.443
72.96000 -2.322
72.98000 3.783
73.00000 4.451
73.02000 6.514
73.04000 1.154
73.06000 3.696
73.08000 3.692
73.10000 1.889
73.12000 0.243
73.14000 3.603
73.16000 6.992
73.18000 8.046
73.20000 8.305
73.22000 4.676
73.24000 7.037
73.26000 6.081
73.28000 4.817
73.30000 11.199
73.32000 7.394
73.34000 4.979
73.36000 3.317
73.38000 3.835
73.40000 7.803
73.42000 3.691
73.44000 4.788
73.46000 1.537
73.48000 2.398
73.50000 1.814
73.52000 5.282
73.54000 2.154
73.56000 5.871
73.58000 7.047
73.60000 7.262
73.62000 0.289
73.64000 2.968
73.66000 5.052
73.68000 6.668
73.70000 -0.928
73.72000 5.191
73.74000 4.951
73.76000 4.698
73.78000 3.514
73.80000 2.923
73.82000 4.626
73.84000 0.294
73.86000 0.702
73.88000 0.529
73.90000 1.808
73.92000 0.544
73.94000 0.980
73.96000 3.100
73.98000 2.603
74.00000 4.802
74.02000 4.536
74.04000 1.950
74.06000 0.912
74.08000 2.990
74.10000 1.501
74.12000 6.852
74.14000 6.759
74.16000 4.074
74.18000 1.640
74.20000 2.379
74.22000 1.672
74.24000 -0.774
74.26000 0.750
74.28000 8.454
74.30000 5.046
74.32000 2.044
74.34000 6.320
74.36000 2.874
74.38000 -2.337
74.40000 -1.196
74.42000 -1.787
74.44000 -1.192
74.46000 9.759
74.48000 9.139
74.50000 3.280
74.52000 2.316
74.54000 4.546
74.56000 3.077
74.58000 2.778
74.60000 3.461
74.62000 4.646
74.64000 2.691
74.66000 4.261
74.68000 3.627
74.70000 6.645
74.72000 3.507
74.74000 3.502
74.76000 4.414
74.78000 4.044
74.80000 3.726
74.82000 3.584
74.84000 2.049
74.86000 3.749
74.88000 3.351
74.90000 1.408
74.92000 0.646
74.94000 2.533
74.96000 2.676
74.98000 2.344
75.00000 -1.676
75.02000 -1.660
75.04000 -2.329
75.06000 -0.115
75.08000 1.108
75.10000 3.511
75.12000 1.985
75.14000 4.737
75.16000 6.384
75.18000 7.466
75.20000 6.167
75.22000 3.886
75.24000 5.968
75.26000 3.180
75.28000 0.290
75.30000 0.641
75.32000 3.479
75.34000 1.228
75.36000 2.592
75.38000 1.859
75.40000 -2.342
75.42000 -1.450
75.44000 -0.166
75.46000 3.612
75.48000 1.535
75.50000 2.035
75.52000 1.105
75.54000 3.087
75.56000 1.808
75.58000 2.194
75.60000 1.295
75.62000 1.126
75.64000 -0.063
75.66000 1.811
75.68000 3.054
75.70000 4.137
75.72000 -0.152
75.74000 1.331
75.76000 2.552
75.78000 0.395
75.80000 -0.054
75.82000 0.897
75.84000 2.436
75.86000 3.675
75.88000 6.621
75.90000 8.120
75.92000 6.718
75.94000 6.505
75.96000 5.920
75.98000 3.002
76.00000 1.313
76.02000 -0.119
76.04000 1.481
76.06000 3.233
76.08000 1.468
76.10000 -0.756
76.12000 1.229
76.14000 -0.243
76.16000 -0.267
76.18000 5.141
76.20000 2.000
76.22000 0.707
76.24000 3.542
76.26000 2.689
76.28000 1.376
76.30000 1.112
76.32000 3.778
76.34000 5.396
76.36000 4.955
76.38000 3.877
76.40000 3.190
76.42000 4.196
76.44000 6.850
76.46000 5.899
76.48000 3.604
76.50000 3.968
76.52000 4.553
76.54000 2.845
76.56000 7.549
76.58000 5.749
76.60000 4.926
76.62000 6.873
76.64000 7.824
76.66000 8.962
76.68000 3.304
76.70000 3.344
76.72000 3.683
76.74000 3.287
76.76000 7.071
76.78000 7.616
76.80000 2.112
76.82000 5.390
76.84000 -0.555
76.86000 2.012
76.88000 4.486
76.90000 7.633
76.92000 5.211
76.94000 2.268
76.96000 5.842
76.98000 7.081
77.00000 4.441
77.02000 2.043
77.04000 -2.320
77.06000 5.889
77.08000 4.347
77.10000 5.494
77.12000 7.074
77.14000 9.092
77.16000 6.108
77.18000 7.748
77.20000 2.347
77.22000 3.216
77.24000 5.009
77.26000 4.394
77.28000 1.807
77.30000 1.697
77.32000 3.336
77.34000 1.700
77.36000 2.891
77.38000 3.339
77.40000 5.719
77.42000 0.839
77.44000 3.140
77.46000 5.015
77.48000 1.870
77.50000 4.038
77.52000 3.791
77.54000 3.433
77.56000 3.377
77.58000 4.029
77.60000 6.055
77.62000 7.988
77.64000 8.748
77.66000 4.757
77.68000 5.378
77.70000 6.091
77.72000 11.495
77.74000 4.016
77.76000 3.124
77.78000 5.539
77.80000 6.291
77.82000 10.514
77.84000 3.234
77.86000 2.420
77.88000 5.630
77.90000 0.650
77.92000 0.418
77.94000 -0.695
77.96000 3.379
77.98000 4.779
78.00000 0.876
78.02000 1.957
78.04000 3.163
78.06000 1.555
78.08000 2.320
78.10000 5.029
78.12000 7.857
78.14000 3.506
78.16000 7.454
78.18000 4.333
78.20000 6.103
78.22000 2.700
78.24000 1.141
78.26000 2.399
78.28000 0.316
78.30000 3.071
78.32000 6.278
78.34000 6.479
78.36000 6.718
78.38000 3.096
78.40000 4.003
78.42000 2.228
78.44000 1.789
78.46000 5.475
78.48000 4.090
78.50000 -0.068
78.52000 0.649
78.54000 1.307
78.56000 -2.380
78.58000 -1.070
78.60000 1.247
78.62000 0.140
78.64000 -0.287
78.66000 2.811
78.68000 2.995
78.70000 2.053
78.72000 3.079
78.74000 4.550
78.76000 5.308
78.78000 5.238
78.80000 -1.890
78.82000 2.134
78.84000 3.171
78.86000 2.624
78.88000 5.477
78.90000 4.977
78.92000 4.617
78.94000 1.484
78.96000 2.289
78.98000 7.233
79.00000 6.847
79.02000 5.021
79.04000 -2.232
79.06000 0.503
79.08000 4.323
79.10000 11.266
79.12000 6.145
79.14000 3.075
79.16000 3.761
79.18000 4.449
79.20000 1.141
79.22000 6.815
79.24000 6.160
79.26000 5.214
79.28000 5.013
79.30000 4.437
79.32000 4.050
79.34000 1.736
79.36000 2.039
79.38000 3.711
79.40000 4.452
79.42000 8.747
79.44000 5.038
79.46000 4.086
79.48000 3.314
79.50000 4.945
79.52000 6.047
79.54000 0.599
79.56000 0.834
79.58000 4.701
79.60000 6.114
79.62000 8.930
79.64000 4.266
79.66000 0.820
79.68000 4.209
79.70000 2.981
79.72000 1.033
79.74000 1.737
79.76000 3.213
79.78000 9.613
79.80000 10.591
79.82000 4.586
79.84000 4.232
79.86000 2.857
79.88000 3.149
79.90000 -2.373
79.92000 -1.019
79.94000 5.968
79.96000 7.942
79.98000 7.560
80.00000 9.075
80.02000 8.695
80.04000 7.091
80.06000 7.529
80.08000 2.887
80.10000 5.836
80.12000 6.183
80.14000 8.798
80.16000 7.295
80.18000 6.609
80.20000 8.860
80.22000 5.848
80.24000 3.938
80.26000 2.109
80.28000 2.990
80.30000 3.238
80.32000 4.060
80.34000 3.100
80.36000 5.816
80.38000 2.269
80.40000 -2.434
80.42000 1.947
80.44000 3.512
80.46000 5.231
80.48000 9.178
80.50000 8.595
80.52000 3.020
80.54000 7.041
80.56000 6.061
80.58000 7.008
80.60000 6.208
80.62000 2.564
80.64000 2.453
80.66000 3.798
80.68000 6.170
80.70000 3.967
80.72000 6.529
80.74000 -0.155
80.76000 -0.087
80.78000 3.243
80.80000 7.778
80.82000 8.488
80.84000 2.595
80.86000 -2.478
80.88000 4.104
80.90000 5.161
80.92000 0.855
80.94000 -2.169
80.96000 1.702
80.98000 0.061
81.00000 2.684
81.02000 0.095
81.04000 2.556
81.06000 1.396
81.08000 2.742
81.10000 -0.827
81.12000 6.745
81.14000 9.828
81.16000 4.033
81.18000 5.000
81.20000 5.006
81.22000 2.968
81.24000 3.030
81.26000 3.431
81.28000 3.003
81.30000 2.021
81.32000 2.000
81.34000 3.842
81.36000 7.592
81.38000 8.718
81.40000 5.235
81.42000 6.564
81.44000 3.466
81.46000 4.056
81.48000 3.078
81.50000 4.880
81.52000 7.266
81.54000 8.243
81.56000 8.256
81.58000 7.583
81.60000 3.339
81.62000 0.897
81.64000 3.377
81.66000 3.015
81.68000 0.274
81.70000 4.697
81.72000 9.074
81.74000 9.988
81.76000 4.156
81.78000 7.504
81.80000 7.025
81.82000 5.268
81.84000 7.362
81.86000 9.141
81.88000 6.706
81.90000 5.927
81.92000 6.813
81.94000 6.265
81.96000 7.331
81.98000 6.753
82.00000 14.900
82.02000 13.859
82.04000 13.240
82.06000 8.755
82.08000 5.714
82.10000 2.742
82.12000 11.053
82.14000 14.281
82.16000 9.757
82.18000 8.156
82.20000 11.682
82.22000 14.089
82.24000 15.794
82.26000 11.324
82.28000 7.050
82.30000 11.302
82.32000 15.500
82.34000 15.605
82.36000 22.031
82.38000 16.944
82.40000 14.177
82.42000 17.551
82.44000 20.035
82.46000 20.929
82.48000 20.091
82.50000 19.401
82.52000 21.744
82.54000 23.195
82.56000 22.436
82.58000 17.560
82.60000 17.319
82.62000 23.883
82.64000 25.508
82.66000 25.550
82.68000 24.124
82.70000 27.901
82.72000 21.146
82.74000 18.969
82.76000 22.307
82.78000 29.617
82.80000 26.293
82.82000 29.043
82.84000 29.121
82.86000 30.077
82.88000 28.018
82.90000 22.183
82.92000 23.848
82.94000 25.720
82.96000 24.949
82.98000 27.001
83.00000 27.793
83.02000 26.185
83.04000 30.808
83.06000 29.347
83.08000 26.101
83.10000 31.708
83.12000 28.513
83.14000 29.111
83.16000 31.413
83.18000 26.957
83.20000 19.529
83.22000 23.879
83.24000 24.385
83.26000 28.288
83.28000 24.677
83.30000 28.666
83.32000 29.777
83.34000 32.088
83.36000 31.579
83.38000 26.641
83.40000 23.432
83.42000 24.131
83.44000 24.734
83.46000 17.392
83.48000 22.320
83.50000 25.158
83.52000 26.513
83.54000 23.909
83.56000 21.946
83.58000 25.400
83.60000 23.660
83.62000 21.235
83.64000 21.159
83.66000 18.312
83.68000 21.361
83.70000 18.636
83.72000 15.822
83.74000 18.903
83.76000 18.766
83.78000 20.708
83.80000 20.318
83.82000 12.747
83.84000 14.008
83.86000 12.480
83.88000 10.566
83.90000 9.122
83.92000 7.959
83.94000 9.100
83.96000 10.653
83.98000 14.211
84.00000 16.031
84.02000 17.366
84.04000 12.911
84.06000 11.692
84.08000 9.888
84.10000 10.541
84.12000 12.321
84.14000 9.608
84.16000 5.258
84.18000 7.167
84.20000 9.717
84.22000 14.461
84.24000 17.667
84.26000 12.633
84.28000 8.932
84.30000 7.661
84.32000 7.376
84.34000 4.388
84.36000 5.396
84.38000 2.741
84.40000 6.071
84.42000 9.112
84.44000 9.973
84.46000 10.812
84.48000 10.196
84.50000 6.132
84.52000 6.022
84.54000 5.944
84.56000 9.630
84.58000 8.990
84.60000 3.280
84.62000 4.933
84.64000 3.457
84.66000 4.732
84.68000 5.348
84.70000 3.059
84.72000 4.222
84.74000 2.527
84.76000 6.587
84.78000 2.218
84.80000 2.589
84.82000 -0.443
84.84000 3.311
84.86000 5.289
84.88000 4.093
84.90000 2.519
84.92000 3.417
84.94000 6.239
84.96000 1.259
84.98000 3.122
85.00000 4.639
85.02000 6.294
85.04000 -0.697
85.06000 1.146
85.08000 2.031
85.10000 1.583
85.12000 1.250
85.14000 3.002
85.16000 3.756
85.18000 2.743
85.20000 2.941
85.22000 6.650
85.24000 7.092
85.26000 3.880
85.28000 0.731
85.30000 -1.304
85.32000 1.078
85.34000 0.788
85.36000 2.339
85.38000 5.259
85.40000 -2.386
85.42000 -0.945
85.44000 2.678
85.46000 5.118
85.48000 8.194
85.50000 5.426
85.52000 5.787
85.54000 9.850
85.56000 5.700
85.58000 3.415
85.60000 7.911
85.62000 3.644
85.64000 2.826
85.66000 4.847
85.68000 2.358
85.70000 3.055
85.72000 4.395
85.74000 3.741
85.76000 6.456
85.78000 3.702
85.80000 5.547
85.82000 3.514
85.84000 3.702
85.86000 -1.763
85.88000 4.775
85.90000 0.566
85.92000 2.975
85.94000 3.618
85.96000 8.407
85.98000 7.146
86.00000 9.334
86.02000 8.551
86.04000 5.718
86.06000 6.203
86.08000 3.487
86.10000 3.076
86.12000 7.638
86.14000 9.254
86.16000 6.096
86.18000 5.182
86.20000 2.665
86.22000 0.392
86.24000 -1.811
86.26000 -2.439
86.28000 1.613
86.30000 2.748
86.32000 3.531
86.34000 4.033
86.36000 7.024
86.38000 6.851
86.40000 6.684
86.42000 6.484
86.44000 4.554
86.46000 5.546
86.48000 6.473
86.50000 5.833
86.52000 7.099
86.54000 3.675
86.56000 0.800
86.58000 10.738
86.60000 12.271
86.62000 4.332
86.64000 5.303
86.66000 7.938
86.68000 10.324
86.70000 13.813
86.72000 11.673
86.74000 9.499
86.76000 2.250
86.78000 4.973
86.80000 14.708
86.82000 14.130
86.84000 11.949
86.86000 7.124
86.88000 12.942
86.90000 8.679
86.92000 8.125
86.94000 8.867
86.96000 21.143
86.98000 20.701
87.00000 12.029
87.02000 9.798
87.04000 13.218
87.06000 9.564
87.08000 10.703
87.10000 10.543
87.12000 12.309
87.14000 14.875
87.16000 16.404
87.18000 16.937
87.20000 15.919
87.22000 14.669
87.24000 18.008
87.26000 19.904
87.28000 20.539
87.30000 19.112
87.32000 19.433
87.34000 22.856
87.36000 20.688
87.38000 17.381
87.40000 14.040
87.42000 18.961
87.44000 22.715
87.46000 21.484
87.48000 19.541
87.50000 17.284
87.52000 19.615
87.54000 20.044
87.56000 21.617
87.58000 21.214
87.60000 21.524
87.62000 22.317
87.64000 20.243
87.66000 19.583
87.68000 17.751
87.70000 16.827
87.72000 18.502
87.74000 25.492
87.76000 28.063
87.78000 25.683
87.80000 21.851
87.82000 21.294
87.84000 24.424
87.86000 21.427
87.88000 20.362
87.90000 24.014
87.92000 17.286
87.94000 15.917
87.96000 15.852
87.98000 12.113
88.00000 13.080
88.02000 12.107
88.04000 12.119
88.06000 13.856
88.08000 18.933
88.10000 16.052
88.12000 12.162
88.14000 10.969
88.16000 11.553
88.18000 14.940
88.20000 17.066
88.22000 15.727
88.24000 14.447
88.26000 11.878
88.28000 8.267
88.30000 6.061
88.32000 12.465
88.34000 15.953
88.36000 10.659
88.38000 8.824
88.40000 8.971
88.42000 12.970
88.44000 11.454
88.46000 11.593
88.48000 10.175
88.50000 7.949
88.52000 9.869
88.54000 4.806
88.56000 0.316
88.58000 9.239
88.60000 7.974
88.62000 6.350
88.64000 9.269
88.66000 9.597
88.68000 10.231
88.70000 10.396
88.72000 7.626
88.74000 6.596
88.76000 5.893
88.78000 1.691
88.80000 -2.382
88.82000 2.770
88.84000 7.045
88.86000 3.998
88.88000 -0.603
88.90000 0.551
88.92000 0.743
88.94000 2.132
88.96000 6.096
88.98000 5.259
89.00000 4.759
89.02000 5.477
89.04000 4.739
89.06000 6.383
89.08000 2.960
89.10000 3.399
89.12000 6.787
89.14000 5.609
89.16000 2.386
89.18000 -1.076
89.20000 0.954
89.22000 5.464
89.24000 3.693
89.26000 5.705
89.28000 5.678
89.30000 2.368
89.32000 0.636
89.34000 6.048
89.36000 3.175
89.38000 1.454
89.40000 5.758
89.42000 2.957
89.44000 3.380
89.46000 3.267
89.48000 4.292
89.50000 1.494
89.52000 0.314
89.54000 1.585
89.56000 1.800
89.58000 -0.134
89.60000 -0.226
89.62000 -0.855
89.64000 2.994
89.66000 3.361
89.68000 -2.267
89.70000 0.029
89.72000 3.568
89.74000 7.277
89.76000 4.998
89.78000 4.029
89.80000 5.225
89.82000 7.339
89.84000 4.775
89.86000 4.729
89.88000 0.646
89.90000 0.651
89.92000 3.992
89.94000 6.921
89.96000 4.411
89.98000 3.874
90.00000 6.657
90.02000 7.760
90.04000 7.838
90.06000 8.094
90.08000 5.496
90.10000 2.678
90.12000 3.043
90.14000 7.964
90.16000 8.552
90.18000 3.071
90.20000 -2.220
90.22000 0.646
90.24000 2.871
90.26000 4.009
90.28000 5.390
90.30000 1.737
90.32000 0.260
90.34000 5.069
90.36000 6.968
90.38000 2.217
90.40000 1.324
90.42000 2.425
90.44000 2.566
90.46000 2.987
90.48000 3.559
90.50000 4.605
90.52000 3.878
90.54000 2.658
90.56000 3.031
90.58000 5.942
90.60000 8.323
90.62000 5.080
90.64000 -2.186
90.66000 -0.538
90.68000 3.691
90.70000 4.454
90.72000 7.054
90.74000 8.332
90.76000 4.862
90.78000 4.674
90.80000 5.658
90.82000 6.026
90.84000 3.768
90.86000 2.531
90.88000 7.299
90.90000 4.224
90.92000 3.213
90.94000 2.711
90.96000 1.969
90.98000 1.858
91.00000 9.967
91.02000 4.349
91.04000 2.554
91.06000 -1.050
91.08000 -1.022
91.10000 4.112
91.12000 3.058
91.14000 7.339
91.16000 6.733
91.18000 0.283
91.20000 1.753
91.22000 6.814
91.24000 6.837
91.26000 4.151
91.28000 1.649
91.30000 2.916
91.32000 0.716
91.34000 3.087
91.36000 7.728
91.38000 5.339
91.40000 3.596
91.42000 3.097
91.44000 0.802
91.46000 4.174
91.48000 3.808
91.50000 7.915
91.52000 5.580
91.54000 2.556
91.56000 3.871
91.58000 4.193
91.60000 7.575
91.62000 7.074
91.64000 10.503
91.66000 10.042
91.68000 8.232
91.70000 7.542
91.72000 6.506
91.74000 0.461
91.76000 3.590
91.78000 2.412
91.80000 -2.177
91.82000 4.065
91.84000 7.206
91.86000 8.719
91.88000 7.297
91.90000 10.094
91.92000 8.055
91.94000 3.367
91.96000 6.102
91.98000 8.197
92.00000 7.289
92.02000 5.451
92.04000 6.832
92.06000 9.907
92.08000 7.648
92.10000 1.523
92.12000 4.216
92.14000 7.637
92.16000 6.259
92.18000 2.662
92.20000 6.629
92.22000 1.709
92.24000 3.465
92.26000 4.278
92.28000 4.637
92.30000 5.270
92.32000 5.842
92.34000 3.581
92.36000 -2.187
92.38000 3.172
92.40000 4.498
92.42000 6.832
92.44000 6.457
92.46000 3.570
92.48000 5.599
92.50000 4.925
92.52000 7.458
92.54000 9.230
92.56000 7.429
92.58000 8.680
92.60000 3.628
92.62000 0.041
92.64000 1.965
92.66000 5.766
92.68000 6.639
92.70000 5.908
92.72000 2.966
92.74000 0.832
92.76000 6.084
92.78000 4.649
92.80000 9.016
92.82000 10.927
92.84000 5.349
92.86000 3.276
92.88000 2.364
92.90000 3.189
92.92000 1.982
92.94000 3.411
92.96000 2.873
92.98000 3.758
93.00000 4.235
93.02000 5.904
93.04000 4.731
93.06000 0.028
93.08000 -2.246
93.10000 0.707
93.12000 0.152
93.14000 2.819
93.16000 0.506
93.18000 0.473
93.20000 7.268
93.22000 6.955
93.24000 7.612
93.26000 12.776
93.28000 6.340
93.30000 -0.886
93.32000 -1.494
93.34000 0.527
93.36000 0.781
93.38000 2.884
93.40000 5.347
93.42000 9.474
93.44000 8.102
93.46000 1.701
93.48000 -2.122
93.50000 -2.269
93.52000 4.434
93.54000 2.174
93.56000 3.978
93.58000 1.213
93.60000 5.053
93.62000 2.067
93.64000 -0.040
93.66000 1.648
93.68000 0.280
93.70000 -0.547
93.72000 0.924
93.74000 2.224
93.76000 2.835
93.78000 1.009
93.80000 5.994
93.82000 3.269
93.84000 -0.764
93.86000 3.394
93.88000 9.586
93.90000 8.109
93.92000 5.449
93.94000 -0.048
93.96000 0.082
93.98000 2.601
94.00000 1.450
94.02000 1.162
94.04000 0.421
94.06000 0.630
94.08000 0.393
94.10000 0.677
94.12000 3.384
94.14000 6.749
94.16000 6.869
94.18000 4.415
94.20000 4.026
94.22000 2.331
94.24000 0.876
94.26000 2.934
94.28000 1.371
94.30000 0.268
94.32000 -0.101
94.34000 -2.162
94.36000 0.505
94.38000 3.950
94.40000 1.672
94.42000 3.938
94.44000 1.967
94.46000 -2.274
94.48000 0.595
94.50000 4.714
94.52000 3.079
94.54000 4.270
94.56000 2.680
94.58000 4.511
94.60000 5.585
94.62000 3.224
94.64000 4.391
94.66000 3.879
94.68000 1.237
94.70000 2.885
94.72000 3.472
94.74000 3.394
94.76000 3.520
94.78000 4.895
94.80000 3.741
94.82000 5.275
94.84000 7.914
94.86000 5.903
94.88000 6.146
94.90000 6.202
94.92000 4.811
94.94000 6.508
94.96000 7.518
94.98000 1.487
95.00000 3.150
95.02000 2.220
95.04000 2.497
95.06000 6.449
95.08000 5.931
95.10000 4.016
95.12000 4.250
95.14000 3.758
95.16000 3.512
95.18000 6.223
95.20000 3.034
95.22000 3.473
95.24000 2.032
95.26000 0.071
95.28000 5.747
95.30000 5.888
95.32000 5.646
95.34000 6.347
95.36000 6.078
95.38000 0.736
95.40000 1.058
95.42000 -1.302
95.44000 1.510
95.46000 1.215
95.48000 1.461
95.50000 2.250
95.52000 -2.279
95.54000 -1.396
95.56000 4.124
95.58000 1.685
95.60000 0.546
95.62000 1.317
95.64000 5.299
95.66000 6.444
95.68000 8.210
95.70000 6.057
95.72000 5.868
95.74000 7.874
95.76000 4.405
95.78000 3.301
95.80000 0.198
95.82000 3.154
95.84000 1.908
95.86000 3.967
95.88000 1.986
95.90000 -0.835
95.92000 -1.651
95.94000 -2.262
95.96000 3.601
95.98000 1.558
96.00000 2.618
96.02000 6.112
96.04000 7.282
96.06000 4.025
96.08000 6.117
96.10000 13.272
96.12000 7.253
96.14000 -1.419
96.16000 3.926
96.18000 7.371
96.20000 5.499
96.22000 3.680
96.24000 1.429
96.26000 5.654
96.28000 6.572
96.30000 3.542
96.32000 0.536
96.34000 3.624
96.36000 4.140
96.38000 0.930
96.40000 -1.326
96.42000 2.496
96.44000 3.382
96.46000 2.243
96.48000 5.320
96.50000 4.791
96.52000 9.584
96.54000 7.871
96.56000 12.063
96.58000 10.294
96.60000 5.723
96.62000 4.253
96.64000 6.407
96.66000 2.728
96.68000 8.695
96.70000 10.237
96.72000 4.512
96.74000 4.447
96.76000 5.961
96.78000 6.310
96.80000 7.171
96.82000 6.028
96.84000 4.779
96.86000 7.236
96.88000 5.768
96.90000 5.117
96.92000 10.672
96.94000 6.702
96.96000 11.158
96.98000 6.625
97.00000 3.137
97.02000 4.233
97.04000 11.007
97.06000 12.971
97.08000 13.835
97.10000 6.417
97.12000 2.780
97.14000 2.161
97.16000 3.483
97.18000 5.437
97.20000 7.514
97.22000 4.274
97.24000 4.682
97.26000 5.489
97.28000 15.340
97.30000 7.275
97.32000 6.222
97.34000 7.223
97.36000 13.827
97.38000 15.533
97.40000 12.200
97.42000 3.865
97.44000 -2.122
97.46000 1.988
97.48000 7.207
97.50000 5.839
97.52000 12.262
97.54000 10.914
97.56000 12.746
97.58000 15.013
97.60000 10.235
97.62000 7.710
97.64000 8.972
97.66000 2.078
97.68000 3.932
97.70000 8.673
97.72000 8.685
97.74000 9.855
97.76000 7.021
97.78000 7.398
97.80000 8.534
97.82000 7.107
97.84000 10.248
97.86000 10.134
97.88000 15.639
97.90000 10.558
97.92000 11.922
97.94000 4.591
97.96000 4.774
97.98000 8.734
98.00000 10.453
98.02000 10.698
98.04000 9.195
98.06000 13.422
98.08000 12.409
98.10000 5.779
98.12000 7.829
98.14000 10.323
98.16000 13.821
98.18000 14.193
98.20000 16.184
98.22000 6.792
98.24000 -0.572
98.26000 3.026
98.28000 2.818
98.30000 -0.812
98.32000 8.301
98.34000 7.427
98.36000 9.686
98.38000 14.013
98.40000 13.746
98.42000 11.476
98.44000 7.301
98.46000 3.534
98.48000 5.381
98.50000 9.625
98.52000 13.626
98.54000 5.550
98.56000 7.634
98.58000 10.596
98.60000 1.249
98.62000 -2.127
98.64000 7.520
98.66000 13.996
98.68000 18.262
98.70000 8.364
98.72000 4.925
98.74000 0.867
98.76000 5.127
98.78000 8.158
98.80000 7.667
98.82000 9.510
98.84000 13.507
98.86000 8.113
98.88000 6.636
98.90000 9.071
98.92000 7.709
98.94000 7.738
98.96000 3.331
98.98000 7.943
99.00000 8.355
99.02000 1.543
99.04000 0.020
99.06000 3.056
99.08000 3.241
99.10000 5.394
99.12000 14.036
99.14000 10.493
99.16000 9.081
99.18000 6.911
99.20000 13.177
99.22000 21.885
99.24000 15.525
99.26000 0.998
99.28000 11.492
99.30000 15.093
99.32000 20.460
99.34000 15.394
99.36000 10.766
99.38000 6.914
99.40000 3.711
99.42000 9.080
99.44000 0.919
99.46000 4.849
99.48000 9.608
99.50000 -2.354
99.52000 1.496
99.54000 6.520
99.56000 4.530
99.58000 11.528
99.60000 1.247
99.62000 5.573
99.64000 10.114
99.66000 8.887
99.68000 14.703
99.70000 4.600
99.72000 13.658
99.74000 6.349
99.76000 1.717
99.78000 8.287
99.80000 6.429
99.82000 6.538
99.84000 8.310
99.86000 -2.245
99.88000 -0.985
99.90000 -1.523
99.92000 7.824
99.94000 10.915
99.96000 -5.497
99.98000 0.000
