'Id: "0011387" Comment: "Integrate frame 0011387_Au-Ir-Rh_Rh-rich_XRD-Mapping-001-0000.gfrmwith cursor Wedge Cursor #5" Operator: "B?rgel" Anode: "Cu" Wavelength: "1.5406" Scantype: "2Theta (TwoTheta)" TimePerStep: "1" X: "-18" Y: "-40.5" Z: "5.95" 
10.00000 0.000
10.02000 -5.020
10.04000 2.399
10.06000 9.290
10.08000 12.849
10.10000 0.416
10.12000 5.046
10.14000 17.741
10.16000 -4.972
10.18000 2.266
10.20000 13.851
10.22000 17.729
10.24000 25.423
10.26000 20.669
10.28000 13.210
10.30000 24.561
10.32000 20.246
10.34000 1.250
10.36000 4.273
10.38000 3.940
10.40000 14.388
10.42000 28.346
10.44000 19.144
10.46000 2.900
10.48000 5.986
10.50000 6.807
10.52000 25.861
10.54000 25.818
10.56000 33.556
10.58000 26.038
10.60000 34.714
10.62000 29.867
10.64000 17.970
10.66000 24.392
10.68000 8.208
10.70000 -0.781
10.72000 5.022
10.74000 19.374
10.76000 30.872
10.78000 28.397
10.80000 31.433
10.82000 19.581
10.84000 4.851
10.86000 20.840
10.88000 25.452
10.90000 8.079
10.92000 -4.848
10.94000 12.777
10.96000 23.979
10.98000 18.631
11.00000 10.539
11.02000 18.789
11.04000 19.700
11.06000 15.423
11.08000 25.038
11.10000 28.427
11.12000 29.682
11.14000 13.384
11.16000 14.837
11.18000 11.933
11.20000 12.588
11.22000 6.027
11.24000 13.473
11.26000 8.676
11.28000 28.093
11.30000 13.375
11.32000 6.976
11.34000 9.255
11.36000 23.900
11.38000 19.133
11.40000 26.247
11.42000 7.317
11.44000 8.330
11.46000 8.096
11.48000 3.761
11.50000 14.253
11.52000 18.507
11.54000 20.887
11.56000 19.065
11.58000 21.383
11.60000 5.494
11.62000 3.206
11.64000 21.496
11.66000 19.546
11.68000 12.751
11.70000 24.277
11.72000 16.349
11.74000 13.168
11.76000 13.528
11.78000 26.061
11.80000 8.642
11.82000 2.142
11.84000 6.882
11.86000 5.984
11.88000 14.594
11.90000 15.749
11.92000 11.265
11.94000 18.601
11.96000 13.945
11.98000 12.212
12.00000 14.457
12.02000 12.155
12.04000 1.395
12.06000 3.966
12.08000 5.819
12.10000 9.865
12.12000 12.981
12.14000 2.135
12.16000 4.345
12.18000 16.605
12.20000 9.669
12.22000 3.943
12.24000 10.768
12.26000 11.674
12.28000 16.059
12.30000 16.182
12.32000 1.329
12.34000 16.228
12.36000 6.541
12.38000 -0.140
12.40000 6.560
12.42000 12.381
12.44000 5.202
12.46000 4.888
12.48000 9.178
12.50000 4.175
12.52000 15.880
12.54000 24.394
12.56000 18.341
12.58000 28.330
12.60000 26.446
12.62000 5.213
12.64000 -0.457
12.66000 6.077
12.68000 14.360
12.70000 8.560
12.72000 0.296
12.74000 -0.201
12.76000 5.113
12.78000 2.312
12.80000 8.974
12.82000 13.685
12.84000 5.568
12.86000 19.238
12.88000 9.890
12.90000 8.572
12.92000 18.302
12.94000 3.293
12.96000 3.940
12.98000 14.740
13.00000 20.417
13.02000 9.431
13.04000 10.419
13.06000 0.887
13.08000 -1.094
13.10000 6.077
13.12000 8.326
13.14000 12.528
13.16000 18.288
13.18000 20.171
13.20000 15.455
13.22000 24.869
13.24000 18.687
13.26000 13.020
13.28000 10.892
13.30000 15.757
13.32000 8.719
13.34000 10.760
13.36000 22.860
13.38000 10.376
13.40000 2.470
13.42000 5.621
13.44000 10.930
13.46000 16.957
13.48000 9.206
13.50000 7.913
13.52000 6.977
13.54000 4.617
13.56000 9.970
13.58000 4.532
13.60000 -0.125
13.62000 7.299
13.64000 9.963
13.66000 9.724
13.68000 11.528
13.70000 4.949
13.72000 16.488
13.74000 12.745
13.76000 11.230
13.78000 22.489
13.80000 12.881
13.82000 4.081
13.84000 -4.848
13.86000 -2.984
13.88000 11.328
13.90000 10.479
13.92000 4.658
13.94000 13.798
13.96000 16.613
13.98000 13.962
14.00000 17.814
14.02000 11.816
14.04000 9.849
14.06000 23.753
14.08000 18.047
14.10000 14.378
14.12000 14.276
14.14000 11.472
14.16000 4.883
14.18000 16.485
14.20000 16.532
14.22000 22.857
14.24000 18.054
14.26000 7.323
14.28000 4.379
14.30000 17.599
14.32000 12.037
14.34000 4.830
14.36000 10.814
14.38000 9.642
14.40000 15.826
14.42000 9.494
14.44000 6.045
14.46000 9.381
14.48000 13.893
14.50000 7.727
14.52000 12.187
14.54000 3.859
14.56000 6.873
14.58000 9.561
14.60000 7.787
14.62000 9.342
14.64000 21.278
14.66000 17.951
14.68000 14.867
14.70000 8.475
14.72000 1.131
14.74000 6.955
14.76000 15.760
14.78000 17.613
14.80000 13.021
14.82000 15.924
14.84000 19.164
14.86000 22.579
14.88000 17.003
14.90000 16.491
14.92000 10.242
14.94000 1.361
14.96000 5.232
14.98000 -1.236
15.00000 -3.814
15.02000 -4.777
15.04000 16.046
15.06000 19.939
15.08000 20.306
15.10000 14.130
15.12000 2.646
15.14000 -3.260
15.16000 12.511
15.18000 13.048
15.20000 16.548
15.22000 16.335
15.24000 11.762
15.26000 -2.504
15.28000 5.834
15.30000 3.341
15.32000 13.871
15.34000 16.094
15.36000 2.769
15.38000 6.312
15.40000 2.045
15.42000 -1.249
15.44000 9.434
15.46000 14.117
15.48000 19.085
15.50000 9.590
15.52000 10.613
15.54000 5.888
15.56000 2.396
15.58000 5.850
15.60000 1.204
15.62000 2.211
15.64000 8.823
15.66000 11.460
15.68000 2.146
15.70000 5.008
15.72000 5.720
15.74000 6.183
15.76000 1.086
15.78000 3.402
15.80000 3.251
15.82000 2.171
15.84000 6.779
15.86000 2.354
15.88000 6.208
15.90000 2.394
15.92000 4.031
15.94000 1.464
15.96000 3.829
15.98000 5.398
16.00000 -3.167
16.02000 5.554
16.04000 1.824
16.06000 0.690
16.08000 9.682
16.10000 5.109
16.12000 3.688
16.14000 7.869
16.16000 8.636
16.18000 10.983
16.20000 7.104
16.22000 5.412
16.24000 9.146
16.26000 7.596
16.28000 14.480
16.30000 10.822
16.32000 9.272
16.34000 6.798
16.36000 1.392
16.38000 0.686
16.40000 4.798
16.42000 -1.922
16.44000 -2.259
16.46000 -1.517
16.48000 7.841
16.50000 6.652
16.52000 8.125
16.54000 13.754
16.56000 8.086
16.58000 4.396
16.60000 4.549
16.62000 6.424
16.64000 5.549
16.66000 14.822
16.68000 6.169
16.70000 3.235
16.72000 15.961
16.74000 8.163
16.76000 3.879
16.78000 -2.634
16.80000 -1.114
16.82000 10.443
16.84000 15.873
16.86000 13.854
16.88000 5.836
16.90000 -2.168
16.92000 -1.300
16.94000 5.491
16.96000 3.465
16.98000 12.601
17.00000 10.668
17.02000 -3.597
17.04000 -1.200
17.06000 4.773
17.08000 2.480
17.10000 7.160
17.12000 3.877
17.14000 -2.543
17.16000 1.248
17.18000 -1.017
17.20000 -2.141
17.22000 -0.318
17.24000 4.628
17.26000 10.203
17.28000 13.513
17.30000 3.269
17.32000 5.553
17.34000 -0.880
17.36000 3.491
17.38000 6.551
17.40000 2.085
17.42000 1.151
17.44000 -2.896
17.46000 -0.029
17.48000 5.460
17.50000 5.275
17.52000 9.500
17.54000 5.971
17.56000 1.704
17.58000 12.439
17.60000 19.190
17.62000 11.186
17.64000 4.545
17.66000 8.607
17.68000 19.116
17.70000 17.449
17.72000 6.919
17.74000 8.638
17.76000 7.287
17.78000 0.722
17.80000 -2.083
17.82000 3.527
17.84000 2.970
17.86000 4.436
17.88000 9.628
17.90000 6.413
17.92000 4.810
17.94000 13.113
17.96000 10.452
17.98000 18.654
18.00000 15.449
18.02000 0.730
18.04000 9.358
18.06000 2.994
18.08000 11.410
18.10000 11.468
18.12000 11.517
18.14000 10.501
18.16000 13.750
18.18000 -0.581
18.20000 -4.591
18.22000 4.361
18.24000 11.446
18.26000 13.560
18.28000 15.551
18.30000 8.557
18.32000 7.513
18.34000 5.120
18.36000 2.846
18.38000 3.335
18.40000 10.290
18.42000 8.123
18.44000 15.529
18.46000 11.257
18.48000 6.566
18.50000 2.394
18.52000 2.096
18.54000 2.489
18.56000 3.568
18.58000 -0.986
18.60000 1.240
18.62000 7.426
18.64000 16.635
18.66000 15.529
18.68000 9.538
18.70000 5.029
18.72000 6.641
18.74000 3.475
18.76000 7.690
18.78000 15.486
18.80000 15.144
18.82000 14.117
18.84000 8.970
18.86000 10.342
18.88000 15.589
18.90000 19.243
18.92000 18.143
18.94000 13.264
18.96000 15.359
18.98000 5.065
19.00000 3.923
19.02000 6.759
19.04000 9.954
19.06000 13.328
19.08000 3.449
19.10000 -4.521
19.12000 1.141
19.14000 0.639
19.16000 -0.684
19.18000 7.016
19.20000 15.880
19.22000 11.421
19.24000 11.400
19.26000 11.844
19.28000 8.579
19.30000 4.669
19.32000 7.454
19.34000 11.665
19.36000 9.376
19.38000 10.211
19.40000 3.324
19.42000 0.265
19.44000 1.862
19.46000 9.003
19.48000 10.347
19.50000 11.982
19.52000 11.711
19.54000 9.812
19.56000 2.949
19.58000 4.132
19.60000 5.162
19.62000 8.581
19.64000 9.563
19.66000 1.203
19.68000 -3.088
19.70000 4.052
19.72000 4.191
19.74000 1.939
19.76000 2.507
19.78000 0.916
19.80000 -1.828
19.82000 4.550
19.84000 4.281
19.86000 5.696
19.88000 1.348
19.90000 3.478
19.92000 2.477
19.94000 3.526
19.96000 13.405
19.98000 15.200
20.00000 3.593
20.02000 4.550
20.04000 5.103
20.06000 -2.150
20.08000 3.328
20.10000 12.810
20.12000 8.001
20.14000 4.230
20.16000 5.348
20.18000 7.864
20.20000 -0.036
20.22000 -0.904
20.24000 -4.475
20.26000 -0.691
20.28000 2.049
20.30000 -2.455
20.32000 1.547
20.34000 2.334
20.36000 6.546
20.38000 7.809
20.40000 6.677
20.42000 5.939
20.44000 3.840
20.46000 3.908
20.48000 6.649
20.50000 -2.640
20.52000 -1.397
20.54000 -2.364
20.56000 4.249
20.58000 6.244
20.60000 1.599
20.62000 4.376
20.64000 6.900
20.66000 9.223
20.68000 11.913
20.70000 12.680
20.72000 7.040
20.74000 5.973
20.76000 4.128
20.78000 6.263
20.80000 6.435
20.82000 1.601
20.84000 -0.569
20.86000 -0.550
20.88000 -3.329
20.90000 11.341
20.92000 10.285
20.94000 13.863
20.96000 11.703
20.98000 4.222
21.00000 4.631
21.02000 6.128
21.04000 1.581
21.06000 -0.367
21.08000 -0.229
21.10000 0.941
21.12000 6.349
21.14000 -1.742
21.16000 2.222
21.18000 1.682
21.20000 -4.403
21.22000 2.226
21.24000 3.976
21.26000 6.602
21.28000 5.662
21.30000 8.667
21.32000 5.293
21.34000 11.699
21.36000 4.468
21.38000 3.334
21.40000 4.512
21.42000 3.149
21.44000 9.201
21.46000 3.682
21.48000 2.180
21.50000 4.902
21.52000 3.097
21.54000 2.236
21.56000 2.289
21.58000 0.423
21.60000 3.249
21.62000 5.362
21.64000 12.209
21.66000 8.805
21.68000 1.376
21.70000 0.389
21.72000 -4.392
21.74000 -3.699
21.76000 1.150
21.78000 1.323
21.80000 8.531
21.82000 12.982
21.84000 8.704
21.86000 7.306
21.88000 6.470
21.90000 2.941
21.92000 -1.123
21.94000 7.064
21.96000 9.485
21.98000 11.038
22.00000 4.408
22.02000 1.234
22.04000 -2.336
22.06000 4.916
22.08000 11.813
22.10000 13.274
22.12000 6.541
22.14000 5.784
22.16000 0.221
22.18000 -0.175
22.20000 3.689
22.22000 3.474
22.24000 -3.859
22.26000 1.371
22.28000 1.418
22.30000 -1.810
22.32000 -1.071
22.34000 9.073
22.36000 7.049
22.38000 -2.466
22.40000 -1.242
22.42000 -2.296
22.44000 3.314
22.46000 8.269
22.48000 5.213
22.50000 -0.967
22.52000 -3.193
22.54000 2.465
22.56000 0.974
22.58000 4.754
22.60000 6.685
22.62000 9.919
22.64000 0.590
22.66000 -2.582
22.68000 3.332
22.70000 0.223
22.72000 5.501
22.74000 7.346
22.76000 3.111
22.78000 6.341
22.80000 2.031
22.82000 -4.322
22.84000 0.461
22.86000 3.505
22.88000 5.230
22.90000 7.812
22.92000 4.869
22.94000 -1.622
22.96000 -2.390
22.98000 1.148
23.00000 3.438
23.02000 -1.600
23.04000 0.402
23.06000 -3.927
23.08000 0.363
23.10000 2.513
23.12000 4.347
23.14000 8.863
23.16000 10.691
23.18000 8.672
23.20000 7.329
23.22000 6.415
23.24000 2.817
23.26000 6.752
23.28000 11.332
23.30000 5.347
23.32000 3.870
23.34000 -1.617
23.36000 -0.762
23.38000 6.815
23.40000 2.771
23.42000 -1.400
23.44000 -2.633
23.46000 4.730
23.48000 12.203
23.50000 6.315
23.52000 6.714
23.54000 3.387
23.56000 2.744
23.58000 8.535
23.60000 3.456
23.62000 -2.004
23.64000 1.698
23.66000 0.606
23.68000 3.985
23.70000 13.982
23.72000 9.959
23.74000 5.506
23.76000 3.048
23.78000 4.418
23.80000 0.145
23.82000 -1.463
23.84000 1.905
23.86000 3.115
23.88000 2.649
23.90000 -4.214
23.92000 3.343
23.94000 -2.371
23.96000 0.971
23.98000 7.748
24.00000 3.248
24.02000 5.806
24.04000 6.536
24.06000 12.867
24.08000 7.158
24.10000 4.109
24.12000 0.501
24.14000 -0.436
24.16000 -4.238
24.18000 -3.031
24.20000 2.433
24.22000 4.160
24.24000 7.960
24.26000 1.776
24.28000 2.077
24.30000 -2.061
24.32000 4.110
24.34000 10.143
24.36000 6.767
24.38000 15.965
24.40000 10.879
24.42000 1.866
24.44000 0.469
24.46000 -0.784
24.48000 3.724
24.50000 3.695
24.52000 2.921
24.54000 0.943
24.56000 -1.051
24.58000 1.590
24.60000 2.245
24.62000 6.980
24.64000 9.345
24.66000 -0.421
24.68000 2.967
24.70000 7.396
24.72000 2.899
24.74000 6.225
24.76000 6.465
24.78000 0.635
24.80000 4.000
24.82000 6.112
24.84000 1.714
24.86000 7.802
24.88000 13.639
24.90000 10.503
24.92000 3.522
24.94000 0.894
24.96000 2.539
24.98000 8.407
25.00000 13.802
25.02000 8.288
25.04000 0.793
25.06000 -0.746
25.08000 6.144
25.10000 13.285
25.12000 5.630
25.14000 -1.918
25.16000 -4.139
25.18000 -3.885
25.20000 1.102
25.22000 1.453
25.24000 5.735
25.26000 9.506
25.28000 6.953
25.30000 1.942
25.32000 -0.150
25.34000 2.264
25.36000 7.799
25.38000 9.704
25.40000 10.053
25.42000 10.495
25.44000 8.052
25.46000 2.659
25.48000 4.554
25.50000 12.728
25.52000 10.825
25.54000 6.296
25.56000 10.131
25.58000 1.052
25.60000 -2.728
25.62000 2.086
25.64000 3.631
25.66000 -0.707
25.68000 1.643
25.70000 6.334
25.72000 3.816
25.74000 3.343
25.76000 -0.589
25.78000 -3.370
25.80000 5.535
25.82000 4.507
25.84000 3.222
25.86000 2.455
25.88000 4.572
25.90000 2.990
25.92000 4.503
25.94000 4.964
25.96000 -1.602
25.98000 1.272
26.00000 -0.332
26.02000 -2.900
26.04000 0.229
26.06000 2.377
26.08000 -1.055
26.10000 1.641
26.12000 -2.055
26.14000 -0.365
26.16000 -1.136
26.18000 4.419
26.20000 4.277
26.22000 2.053
26.24000 1.684
26.26000 7.091
26.28000 -1.307
26.30000 4.239
26.32000 5.551
26.34000 8.151
26.36000 7.586
26.38000 5.464
26.40000 9.261
26.42000 8.658
26.44000 4.640
26.46000 4.362
26.48000 -2.049
26.50000 3.922
26.52000 3.565
26.54000 -0.910
26.56000 7.540
26.58000 7.933
26.60000 0.871
26.62000 3.020
26.64000 2.312
26.66000 -0.680
26.68000 -4.097
26.70000 -2.027
26.72000 0.694
26.74000 5.693
26.76000 7.711
26.78000 4.081
26.80000 1.204
26.82000 6.667
26.84000 4.183
26.86000 3.104
26.88000 4.032
26.90000 6.573
26.92000 7.270
26.94000 9.823
26.96000 4.045
26.98000 5.892
27.00000 5.068
27.02000 1.157
27.04000 -3.245
27.06000 1.561
27.08000 8.358
27.10000 7.767
27.12000 8.321
27.14000 6.005
27.16000 8.196
27.18000 9.175
27.20000 7.671
27.22000 6.559
27.24000 8.463
27.26000 7.537
27.28000 10.443
27.30000 10.157
27.32000 2.573
27.34000 -0.588
27.36000 1.666
27.38000 2.200
27.40000 1.582
27.42000 3.575
27.44000 4.272
27.46000 5.114
27.48000 2.096
27.50000 -4.045
27.52000 0.698
27.54000 4.532
27.56000 4.058
27.58000 -0.348
27.60000 5.831
27.62000 7.086
27.64000 7.928
27.66000 4.860
27.68000 3.002
27.70000 3.082
27.72000 3.105
27.74000 3.964
27.76000 6.574
27.78000 2.810
27.80000 -0.176
27.82000 2.650
27.84000 3.400
27.86000 -2.136
27.88000 0.467
27.90000 5.195
27.92000 1.368
27.94000 0.566
27.96000 -2.176
27.98000 -0.132
28.00000 3.636
28.02000 5.278
28.04000 7.980
28.06000 6.562
28.08000 -0.992
28.10000 -2.204
28.12000 -1.439
28.14000 -2.034
28.16000 1.706
28.18000 1.777
28.20000 2.711
28.22000 3.072
28.24000 6.469
28.26000 2.512
28.28000 -0.810
28.30000 2.240
28.32000 2.805
28.34000 7.183
28.36000 7.585
28.38000 4.256
28.40000 -2.163
28.42000 0.348
28.44000 3.145
28.46000 4.749
28.48000 -0.245
28.50000 2.488
28.52000 1.648
28.54000 6.882
28.56000 6.588
28.58000 1.315
28.60000 3.246
28.62000 3.856
28.64000 7.758
28.66000 8.788
28.68000 6.908
28.70000 6.557
28.72000 4.033
28.74000 5.356
28.76000 5.021
28.78000 3.453
28.80000 3.562
28.82000 3.238
28.84000 3.392
28.86000 0.511
28.88000 2.664
28.90000 2.871
28.92000 1.172
28.94000 8.010
28.96000 6.648
28.98000 9.660
29.00000 8.735
29.02000 4.143
29.04000 -0.383
29.06000 -2.180
29.08000 -1.910
29.10000 4.714
29.12000 6.517
29.14000 5.406
29.16000 10.545
29.18000 11.049
29.20000 6.529
29.22000 7.341
29.24000 5.750
29.26000 2.000
29.28000 -3.931
29.30000 2.609
29.32000 8.275
29.34000 7.961
29.36000 12.005
29.38000 8.910
29.40000 3.891
29.42000 5.967
29.44000 2.867
29.46000 0.702
29.48000 0.260
29.50000 3.481
29.52000 -0.693
29.54000 5.080
29.56000 1.830
29.58000 -3.208
29.60000 2.864
29.62000 1.281
29.64000 2.448
29.66000 3.790
29.68000 1.881
29.70000 2.148
29.72000 4.592
29.74000 2.622
29.76000 -1.157
29.78000 -3.160
29.80000 1.418
29.82000 2.367
29.84000 2.448
29.86000 2.758
29.88000 1.388
29.90000 3.085
29.92000 2.011
29.94000 0.227
29.96000 0.504
29.98000 1.840
30.00000 3.290
30.02000 6.912
30.04000 9.065
30.06000 4.035
30.08000 1.482
30.10000 4.803
30.12000 4.325
30.14000 3.076
30.16000 4.581
30.18000 5.007
30.20000 1.224
30.22000 2.274
30.24000 1.086
30.26000 1.964
30.28000 7.664
30.30000 1.022
30.32000 -0.051
30.34000 1.633
30.36000 4.525
30.38000 7.243
30.40000 7.292
30.42000 3.947
30.44000 3.310
30.46000 2.970
30.48000 2.211
30.50000 1.657
30.52000 6.250
30.54000 4.271
30.56000 0.948
30.58000 5.087
30.60000 6.377
30.62000 0.888
30.64000 -1.142
30.66000 2.701
30.68000 -3.894
30.70000 2.391
30.72000 6.280
30.74000 9.194
30.76000 7.889
30.78000 2.950
30.80000 1.421
30.82000 3.857
30.84000 3.895
30.86000 -3.055
30.88000 0.279
30.90000 6.025
30.92000 6.673
30.94000 3.887
30.96000 0.644
30.98000 3.797
31.00000 1.742
31.02000 3.051
31.04000 3.634
31.06000 6.672
31.08000 10.885
31.10000 5.216
31.12000 3.555
31.14000 9.692
31.16000 6.230
31.18000 2.781
31.20000 0.593
31.22000 -0.714
31.24000 5.006
31.26000 2.300
31.28000 2.886
31.30000 6.026
31.32000 7.622
31.34000 8.219
31.36000 -0.968
31.38000 -2.051
31.40000 2.195
31.42000 5.144
31.44000 0.097
31.46000 0.037
31.48000 4.901
31.50000 3.920
31.52000 5.929
31.54000 6.148
31.56000 -0.262
31.58000 1.475
31.60000 7.636
31.62000 5.870
31.64000 2.767
31.66000 1.805
31.68000 -1.200
31.70000 -3.831
31.72000 5.163
31.74000 -0.658
31.76000 0.009
31.78000 3.272
31.80000 7.065
31.82000 5.328
31.84000 3.777
31.86000 9.689
31.88000 10.414
31.90000 10.884
31.92000 6.566
31.94000 -2.784
31.96000 1.442
31.98000 1.082
32.00000 -3.821
32.02000 -1.807
32.04000 -1.984
32.06000 0.049
32.08000 0.260
32.10000 2.434
32.12000 5.930
32.14000 2.963
32.16000 0.605
32.18000 0.391
32.20000 0.897
32.22000 7.743
32.24000 8.112
32.26000 6.400
32.28000 -0.835
32.30000 -1.830
32.32000 0.203
32.34000 0.328
32.36000 -0.434
32.38000 3.343
32.40000 4.619
32.42000 2.931
32.44000 -0.017
32.46000 -1.554
32.48000 -0.009
32.50000 3.138
32.52000 -0.162
32.54000 -1.465
32.56000 -1.682
32.58000 -1.831
32.60000 -1.291
32.62000 1.159
32.64000 -3.792
32.66000 2.928
32.68000 8.620
32.70000 5.685
32.72000 6.402
32.74000 7.356
32.76000 1.634
32.78000 1.730
32.80000 4.462
32.82000 5.738
32.84000 6.157
32.86000 1.944
32.88000 0.836
32.90000 3.105
32.92000 8.290
32.94000 -3.066
32.96000 2.548
32.98000 5.989
33.00000 4.586
33.02000 2.401
33.04000 0.483
33.06000 3.967
33.08000 2.362
33.10000 6.061
33.12000 6.781
33.14000 8.292
33.16000 5.186
33.18000 0.439
33.20000 4.286
33.22000 4.880
33.24000 9.461
33.26000 8.283
33.28000 5.042
33.30000 5.134
33.32000 7.013
33.34000 3.704
33.36000 13.535
33.38000 9.838
33.40000 4.057
33.42000 4.623
33.44000 8.152
33.46000 6.265
33.48000 7.045
33.50000 5.438
33.52000 -0.229
33.54000 0.544
33.56000 4.521
33.58000 1.754
33.60000 -2.445
33.62000 5.682
33.64000 2.240
33.66000 2.655
33.68000 2.020
33.70000 0.374
33.72000 -0.358
33.74000 3.735
33.76000 -1.632
33.78000 -1.085
33.80000 6.957
33.82000 6.270
33.84000 3.815
33.86000 1.849
33.88000 3.341
33.90000 2.489
33.92000 4.422
33.94000 2.643
33.96000 10.675
33.98000 3.205
34.00000 5.414
34.02000 8.944
34.04000 12.805
34.06000 8.777
34.08000 5.332
34.10000 7.817
34.12000 7.317
34.14000 11.310
34.16000 14.318
34.18000 10.457
34.20000 4.135
34.22000 6.917
34.24000 3.786
34.26000 -0.560
34.28000 -3.716
34.30000 2.026
34.32000 2.870
34.34000 2.357
34.36000 2.027
34.38000 7.633
34.40000 4.012
34.42000 -1.451
34.44000 4.847
34.46000 3.763
34.48000 2.829
34.50000 4.480
34.52000 4.536
34.54000 3.965
34.56000 1.660
34.58000 0.071
34.60000 -1.212
34.62000 -0.111
34.64000 -2.425
34.66000 4.261
34.68000 9.133
34.70000 7.168
34.72000 4.591
34.74000 5.843
34.76000 -0.897
34.78000 -3.248
34.80000 -2.983
34.82000 -2.126
34.84000 3.312
34.86000 1.479
34.88000 5.579
34.90000 8.584
34.92000 11.314
34.94000 5.515
34.96000 0.740
34.98000 2.789
35.00000 4.019
35.02000 2.282
35.04000 -3.664
35.06000 1.398
35.08000 2.774
35.10000 4.503
35.12000 4.852
35.14000 8.036
35.16000 3.875
35.18000 4.954
35.20000 9.294
35.22000 13.793
35.24000 9.918
35.26000 3.460
35.28000 2.626
35.30000 -3.540
35.32000 4.292
35.34000 7.946
35.36000 2.213
35.38000 1.182
35.40000 11.250
35.42000 11.835
35.44000 13.214
35.46000 11.440
35.48000 6.899
35.50000 3.432
35.52000 4.034
35.54000 -0.302
35.56000 -3.655
35.58000 1.542
35.60000 7.003
35.62000 7.728
35.64000 8.936
35.66000 3.261
35.68000 -0.940
35.70000 1.017
35.72000 0.203
35.74000 4.482
35.76000 5.707
35.78000 2.042
35.80000 0.566
35.82000 1.608
35.84000 8.377
35.86000 8.015
35.88000 8.622
35.90000 9.409
35.92000 7.975
35.94000 3.376
35.96000 3.600
35.98000 3.791
36.00000 11.672
36.02000 3.856
36.04000 3.868
36.06000 8.024
36.08000 9.112
36.10000 8.194
36.12000 3.649
36.14000 6.162
36.16000 1.333
36.18000 -0.378
36.20000 -0.455
36.22000 3.308
36.24000 3.195
36.26000 -3.420
36.28000 -3.651
36.30000 0.966
36.32000 3.646
36.34000 3.157
36.36000 6.866
36.38000 2.485
36.40000 2.136
36.42000 6.488
36.44000 5.426
36.46000 6.928
36.48000 5.682
36.50000 5.633
36.52000 2.972
36.54000 7.880
36.56000 10.945
36.58000 8.079
36.60000 5.878
36.62000 5.042
36.64000 7.670
36.66000 7.366
36.68000 3.761
36.70000 3.528
36.72000 3.592
36.74000 2.023
36.76000 1.454
36.78000 6.068
36.80000 6.860
36.82000 3.083
36.84000 -1.156
36.86000 -3.670
36.88000 -0.918
36.90000 -1.815
36.92000 -0.344
36.94000 0.065
36.96000 3.499
36.98000 3.545
37.00000 1.863
37.02000 5.483
37.04000 3.676
37.06000 4.786
37.08000 0.948
37.10000 2.361
37.12000 9.214
37.14000 10.101
37.16000 0.378
37.18000 -3.683
37.20000 -2.822
37.22000 1.220
37.24000 2.666
37.26000 4.866
37.28000 2.027
37.30000 0.640
37.32000 1.446
37.34000 -1.380
37.36000 -3.448
37.38000 -3.062
37.40000 -1.840
37.42000 -1.452
37.44000 -3.714
37.46000 4.003
37.48000 1.641
37.50000 0.445
37.52000 3.550
37.54000 3.811
37.56000 0.947
37.58000 0.707
37.60000 -1.659
37.62000 -0.293
37.64000 1.740
37.66000 0.646
37.68000 1.459
37.70000 -1.672
37.72000 -1.212
37.74000 -0.502
37.76000 4.212
37.78000 6.781
37.80000 8.165
37.82000 5.349
37.84000 4.372
37.86000 0.270
37.88000 -2.105
37.90000 -3.783
37.92000 -1.640
37.94000 3.580
37.96000 6.460
37.98000 10.169
38.00000 7.247
38.02000 6.011
38.04000 3.438
38.06000 4.072
38.08000 3.604
38.10000 2.864
38.12000 4.763
38.14000 6.182
38.16000 6.003
38.18000 8.913
38.20000 8.307
38.22000 9.691
38.24000 12.839
38.26000 13.371
38.28000 11.576
38.30000 8.638
38.32000 12.076
38.34000 13.633
38.36000 13.479
38.38000 13.414
38.40000 15.048
38.42000 14.805
38.44000 13.077
38.46000 18.184
38.48000 15.974
38.50000 12.393
38.52000 20.374
38.54000 19.367
38.56000 14.141
38.58000 19.992
38.60000 19.296
38.62000 17.550
38.64000 13.843
38.66000 17.756
38.68000 18.188
38.70000 24.350
38.72000 22.472
38.74000 21.486
38.76000 25.878
38.78000 23.477
38.80000 21.275
38.82000 20.367
38.84000 22.751
38.86000 20.067
38.88000 24.931
38.90000 28.194
38.92000 25.681
38.94000 26.301
38.96000 30.137
38.98000 30.201
39.00000 26.549
39.02000 31.647
39.04000 32.015
39.06000 33.366
39.08000 33.390
39.10000 37.928
39.12000 41.747
39.14000 44.994
39.16000 41.950
39.18000 47.230
39.20000 41.829
39.22000 40.850
39.24000 42.648
39.26000 46.578
39.28000 48.428
39.30000 54.764
39.32000 56.983
39.34000 56.042
39.36000 59.718
39.38000 64.546
39.40000 69.092
39.42000 72.872
39.44000 71.671
39.46000 83.160
39.48000 83.815
39.50000 88.096
39.52000 95.994
39.54000 97.328
39.56000 101.579
39.58000 114.247
39.60000 116.709
39.62000 116.478
39.64000 131.102
39.66000 139.183
39.68000 148.840
39.70000 156.913
39.72000 172.001
39.74000 186.357
39.76000 198.877
39.78000 214.379
39.80000 220.234
39.82000 236.181
39.84000 247.855
39.86000 274.359
39.88000 299.141
39.90000 327.016
39.92000 355.753
39.94000 374.997
39.96000 407.315
39.98000 443.452
40.00000 476.352
40.02000 498.527
40.04000 540.961
40.06000 592.221
40.08000 637.315
40.10000 677.993
40.12000 736.396
40.14000 793.042
40.16000 832.361
40.18000 892.246
40.20000 954.948
40.22000 1009.726
40.24000 1072.607
40.26000 1124.224
40.28000 1176.421
40.30000 1216.728
40.32000 1252.074
40.34000 1300.345
40.36000 1348.271
40.38000 1383.290
40.40000 1407.640
40.42000 1412.212
40.44000 1424.593
40.46000 1415.719
40.48000 1426.389
40.50000 1411.765
40.52000 1389.825
40.54000 1367.099
40.56000 1343.549
40.58000 1307.699
40.60000 1297.071
40.62000 1258.112
40.64000 1225.150
40.66000 1193.937
40.68000 1142.457
40.70000 1109.369
40.72000 1057.608
40.74000 1020.011
40.76000 987.242
40.78000 947.915
40.80000 918.476
40.82000 879.253
40.84000 835.681
40.86000 797.069
40.88000 751.877
40.90000 722.509
40.92000 691.817
40.94000 659.882
40.96000 618.383
40.98000 601.228
41.00000 567.940
41.02000 547.241
41.04000 514.938
41.06000 488.024
41.08000 462.632
41.10000 435.293
41.12000 415.216
41.14000 404.607
41.16000 376.743
41.18000 358.775
41.20000 339.746
41.22000 317.398
41.24000 299.291
41.26000 286.323
41.28000 275.675
41.30000 268.335
41.32000 255.474
41.34000 243.296
41.36000 225.062
41.38000 218.197
41.40000 208.325
41.42000 197.380
41.44000 189.814
41.46000 178.340
41.48000 172.396
41.50000 160.743
41.52000 146.269
41.54000 145.079
41.56000 145.406
41.58000 133.768
41.60000 122.869
41.62000 121.753
41.64000 118.878
41.66000 110.516
41.68000 112.920
41.70000 113.219
41.72000 108.094
41.74000 100.856
41.76000 92.078
41.78000 85.894
41.80000 82.933
41.82000 84.167
41.84000 78.307
41.86000 74.770
41.88000 69.389
41.90000 67.706
41.92000 69.673
41.94000 64.133
41.96000 61.199
41.98000 60.565
42.00000 57.409
42.02000 54.368
42.04000 49.579
42.06000 51.740
42.08000 53.769
42.10000 48.551
42.12000 48.847
42.14000 49.003
42.16000 44.414
42.18000 43.945
42.20000 45.855
42.22000 41.248
42.24000 35.984
42.26000 39.067
42.28000 35.534
42.30000 35.306
42.32000 28.969
42.34000 25.900
42.36000 27.572
42.38000 27.600
42.40000 25.797
42.42000 25.394
42.44000 27.982
42.46000 23.660
42.48000 21.091
42.50000 25.257
42.52000 23.298
42.54000 24.380
42.56000 18.384
42.58000 17.441
42.60000 20.412
42.62000 16.172
42.64000 18.812
42.66000 17.980
42.68000 14.035
42.70000 16.010
42.72000 13.849
42.74000 12.961
42.76000 13.797
42.78000 12.843
42.80000 13.839
42.82000 15.649
42.84000 12.606
42.86000 10.850
42.88000 7.192
42.90000 7.597
42.92000 8.524
42.94000 7.396
42.96000 11.089
42.98000 10.108
43.00000 7.444
43.02000 5.391
43.04000 7.903
43.06000 5.877
43.08000 8.230
43.10000 8.634
43.12000 11.181
43.14000 7.988
43.16000 3.609
43.18000 4.205
43.20000 4.210
43.22000 3.859
43.24000 4.712
43.26000 3.369
43.28000 3.833
43.30000 3.085
43.32000 -0.381
43.34000 -1.778
43.36000 2.285
43.38000 2.776
43.40000 2.506
43.42000 -0.456
43.44000 2.739
43.46000 -0.317
43.48000 -0.047
43.50000 0.730
43.52000 3.872
43.54000 1.243
43.56000 1.342
43.58000 0.031
43.60000 0.962
43.62000 3.954
43.64000 4.542
43.66000 1.986
43.68000 2.171
43.70000 0.217
43.72000 0.914
43.74000 2.755
43.76000 -0.222
43.78000 1.461
43.80000 -2.970
43.82000 0.708
43.84000 4.285
43.86000 1.158
43.88000 1.255
43.90000 -3.454
43.92000 2.391
43.94000 4.477
43.96000 3.287
43.98000 1.511
44.00000 1.726
44.02000 -1.440
44.04000 -2.858
44.06000 1.932
44.08000 4.576
44.10000 4.671
44.12000 0.751
44.14000 2.001
44.16000 -0.090
44.18000 -0.583
44.20000 -1.199
44.22000 -0.272
44.24000 -2.604
44.26000 -0.249
44.28000 4.307
44.30000 5.526
44.32000 1.122
44.34000 -3.414
44.36000 -0.826
44.38000 0.874
44.40000 -0.699
44.42000 -0.508
44.44000 0.868
44.46000 -1.722
44.48000 -0.061
44.50000 3.253
44.52000 5.305
44.54000 0.148
44.56000 -0.244
44.58000 -0.634
44.60000 -2.504
44.62000 -1.332
44.64000 2.435
44.66000 1.769
44.68000 1.004
44.70000 2.595
44.72000 -0.786
44.74000 2.280
44.76000 1.931
44.78000 1.917
44.80000 0.594
44.82000 0.079
44.84000 -3.360
44.86000 2.643
44.88000 5.557
44.90000 3.030
44.92000 2.442
44.94000 -3.347
44.96000 -0.763
44.98000 1.030
45.00000 3.633
45.02000 0.567
45.04000 -2.119
45.06000 -1.907
45.08000 -0.984
45.10000 2.115
45.12000 4.825
45.14000 4.967
45.16000 2.580
45.18000 4.850
45.20000 5.739
45.22000 -1.578
45.24000 -3.341
45.26000 -1.531
45.28000 1.202
45.30000 -2.587
45.32000 -0.415
45.34000 2.487
45.36000 2.602
45.38000 -1.495
45.40000 -1.027
45.42000 -1.631
45.44000 1.526
45.46000 3.731
45.48000 2.280
45.50000 -1.579
45.52000 -0.845
45.54000 4.031
45.56000 6.930
45.58000 1.044
45.60000 1.994
45.62000 4.322
45.64000 4.251
45.66000 3.333
45.68000 3.257
45.70000 6.008
45.72000 7.198
45.74000 6.557
45.76000 7.975
45.78000 5.519
45.80000 6.588
45.82000 8.216
45.84000 6.741
45.86000 9.472
45.88000 4.840
45.90000 6.426
45.92000 9.429
45.94000 11.183
45.96000 10.733
45.98000 13.226
46.00000 12.874
46.02000 16.739
46.04000 16.233
46.06000 11.704
46.08000 16.771
46.10000 17.825
46.12000 17.172
46.14000 16.558
46.16000 21.035
46.18000 22.211
46.20000 23.713
46.22000 25.093
46.24000 20.799
46.26000 25.791
46.28000 24.461
46.30000 22.714
46.32000 26.963
46.34000 25.603
46.36000 31.369
46.38000 34.626
46.40000 31.869
46.42000 32.175
46.44000 34.487
46.46000 34.370
46.48000 36.668
46.50000 41.723
46.52000 47.364
46.54000 51.572
46.56000 50.936
46.58000 49.390
46.60000 49.784
46.62000 54.343
46.64000 58.823
46.66000 58.153
46.68000 56.483
46.70000 66.925
46.72000 69.896
46.74000 71.424
46.76000 76.585
46.78000 76.836
46.80000 82.483
46.82000 81.125
46.84000 80.661
46.86000 82.042
46.88000 82.510
46.90000 85.852
46.92000 91.304
46.94000 100.815
46.96000 100.476
46.98000 101.086
47.00000 96.452
47.02000 98.942
47.04000 109.199
47.06000 107.798
47.08000 100.611
47.10000 107.708
47.12000 114.776
47.14000 110.640
47.16000 102.750
47.18000 109.406
47.20000 108.209
47.22000 106.260
47.24000 108.567
47.26000 106.384
47.28000 99.033
47.30000 92.075
47.32000 92.803
47.34000 93.919
47.36000 87.850
47.38000 83.230
47.40000 89.788
47.42000 91.075
47.44000 84.012
47.46000 87.268
47.48000 77.436
47.50000 72.175
47.52000 72.473
47.54000 66.947
47.56000 60.610
47.58000 59.285
47.60000 57.008
47.62000 56.171
47.64000 54.040
47.66000 56.805
47.68000 52.755
47.70000 46.322
47.72000 43.166
47.74000 41.308
47.76000 35.283
47.78000 33.689
47.80000 33.586
47.82000 32.779
47.84000 32.393
47.86000 33.211
47.88000 29.112
47.90000 29.722
47.92000 28.747
47.94000 25.393
47.96000 23.677
47.98000 18.095
48.00000 20.584
48.02000 15.605
48.04000 15.990
48.06000 14.504
48.08000 16.683
48.10000 16.134
48.12000 12.899
48.14000 12.232
48.16000 14.288
48.18000 11.378
48.20000 8.742
48.22000 9.245
48.24000 11.663
48.26000 8.567
48.28000 6.585
48.30000 7.638
48.32000 4.739
48.34000 5.699
48.36000 7.610
48.38000 3.344
48.40000 2.924
48.42000 4.191
48.44000 1.704
48.46000 -2.323
48.48000 1.618
48.50000 6.978
48.52000 5.742
48.54000 4.051
48.56000 -0.212
48.58000 -1.638
48.60000 4.401
48.62000 6.137
48.64000 2.441
48.66000 3.061
48.68000 -0.996
48.70000 0.787
48.72000 4.525
48.74000 2.223
48.76000 2.000
48.78000 -0.148
48.80000 1.882
48.82000 0.893
48.84000 0.487
48.86000 0.085
48.88000 -2.688
48.90000 -1.169
48.92000 0.583
48.94000 -2.201
48.96000 -1.979
48.98000 0.911
49.00000 -0.981
49.02000 -0.412
49.04000 -1.834
49.06000 0.715
49.08000 5.393
49.10000 3.774
49.12000 2.207
49.14000 2.320
49.16000 0.866
49.18000 -1.937
49.20000 -2.586
49.22000 0.526
49.24000 0.782
49.26000 1.430
49.28000 4.045
49.30000 2.662
49.32000 0.657
49.34000 -0.387
49.36000 1.731
49.38000 2.306
49.40000 2.147
49.42000 5.385
49.44000 6.379
49.46000 3.071
49.48000 0.956
49.50000 3.288
49.52000 -1.667
49.54000 0.813
49.56000 2.790
49.58000 5.189
49.60000 2.871
49.62000 0.107
49.64000 1.289
49.66000 2.400
49.68000 4.704
49.70000 3.027
49.72000 4.936
49.74000 8.133
49.76000 5.219
49.78000 1.387
49.80000 -0.140
49.82000 2.279
49.84000 4.516
49.86000 4.097
49.88000 2.588
49.90000 -0.909
49.92000 -1.153
49.94000 -2.505
49.96000 1.637
49.98000 3.816
50.00000 3.014
50.02000 2.493
50.04000 0.280
50.06000 0.137
50.08000 0.679
50.10000 -0.354
50.12000 1.766
50.14000 2.911
50.16000 4.544
50.18000 -1.032
50.20000 -1.096
50.22000 0.448
50.24000 2.300
50.26000 5.144
50.28000 2.082
50.30000 3.583
50.32000 5.076
50.34000 3.175
50.36000 -2.339
50.38000 1.251
50.40000 1.832
50.42000 -0.063
50.44000 0.630
50.46000 -1.477
50.48000 0.354
50.50000 3.202
50.52000 1.160
50.54000 1.289
50.56000 2.627
50.58000 3.605
50.60000 3.313
50.62000 3.063
50.64000 0.852
50.66000 -1.429
50.68000 -1.758
50.70000 0.522
50.72000 2.210
50.74000 3.722
50.76000 0.045
50.78000 1.474
50.80000 1.990
50.82000 -1.372
50.84000 3.339
50.86000 1.732
50.88000 -1.152
50.90000 -2.106
50.92000 -2.458
50.94000 -0.719
50.96000 0.765
50.98000 -0.732
51.00000 -0.118
51.02000 0.135
51.04000 0.163
51.06000 -0.830
51.08000 1.458
51.10000 1.530
51.12000 0.027
51.14000 -0.100
51.16000 -0.287
51.18000 0.342
51.20000 1.140
51.22000 3.483
51.24000 3.482
51.26000 -1.119
51.28000 1.979
51.30000 2.486
51.32000 3.679
51.34000 3.086
51.36000 0.447
51.38000 -2.046
51.40000 0.801
51.42000 1.392
51.44000 -1.377
51.46000 2.077
51.48000 1.169
51.50000 2.066
51.52000 2.043
51.54000 2.923
51.56000 5.627
51.58000 3.759
51.60000 -2.043
51.62000 -2.418
51.64000 0.881
51.66000 0.218
51.68000 3.772
51.70000 1.871
51.72000 2.811
51.74000 2.420
51.76000 3.547
51.78000 1.591
51.80000 0.401
51.82000 2.393
51.84000 3.279
51.86000 0.958
51.88000 -0.893
51.90000 -2.411
51.92000 1.809
51.94000 3.021
51.96000 2.814
51.98000 -1.317
52.00000 -1.021
52.02000 -1.611
52.04000 1.275
52.06000 2.250
52.08000 -0.147
52.10000 1.829
52.12000 5.220
52.14000 5.828
52.16000 1.186
52.18000 -2.357
52.20000 3.012
52.22000 2.482
52.24000 4.782
52.26000 4.412
52.28000 1.302
52.30000 1.314
52.32000 -0.689
52.34000 -0.160
52.36000 0.832
52.38000 0.447
52.40000 -1.191
52.42000 -0.935
52.44000 1.611
52.46000 -1.372
52.48000 -2.396
52.50000 -0.866
52.52000 0.067
52.54000 -1.092
52.56000 0.228
52.58000 1.217
52.60000 -0.332
52.62000 0.286
52.64000 0.792
52.66000 3.823
52.68000 6.109
52.70000 5.775
52.72000 2.107
52.74000 3.710
52.76000 1.451
52.78000 3.205
52.80000 2.227
52.82000 -0.577
52.84000 -0.887
52.86000 1.585
52.88000 3.994
52.90000 3.963
52.92000 2.206
52.94000 -1.699
52.96000 -1.481
52.98000 3.153
53.00000 0.748
53.02000 -1.676
53.04000 -1.001
53.06000 -0.360
53.08000 -1.764
53.10000 -0.123
53.12000 1.721
53.14000 1.758
53.16000 1.529
53.18000 0.011
53.20000 -2.260
53.22000 -1.252
53.24000 1.208
53.26000 2.927
53.28000 5.240
53.30000 2.620
53.32000 0.328
53.34000 -2.387
53.36000 3.256
53.38000 2.900
53.40000 0.214
53.42000 -1.577
53.44000 -0.229
53.46000 -1.056
53.48000 -2.385
53.50000 0.562
53.52000 0.442
53.54000 0.081
53.56000 -0.653
53.58000 -2.383
53.60000 1.795
53.62000 0.027
53.64000 0.972
53.66000 2.531
53.68000 3.453
53.70000 -1.834
53.72000 -0.283
53.74000 -0.422
53.76000 -1.760
53.78000 0.443
53.80000 1.227
53.82000 -2.184
53.84000 0.483
53.86000 0.434
53.88000 1.251
53.90000 2.109
53.92000 0.694
53.94000 1.717
53.96000 -0.370
53.98000 1.100
54.00000 -0.626
54.02000 0.954
54.04000 -0.325
54.06000 2.526
54.08000 1.617
54.10000 1.106
54.12000 -1.471
54.14000 0.613
54.16000 0.642
54.18000 0.745
54.20000 -0.208
54.22000 2.498
54.24000 -1.440
54.26000 -0.432
54.28000 -0.066
54.30000 -2.358
54.32000 0.595
54.34000 0.388
54.36000 1.286
54.38000 2.386
54.40000 -0.223
54.42000 0.010
54.44000 1.027
54.46000 0.158
54.48000 -0.971
54.50000 3.258
54.52000 2.849
54.54000 2.299
54.56000 5.162
54.58000 2.227
54.60000 1.015
54.62000 0.098
54.64000 0.231
54.66000 2.019
54.68000 0.183
54.70000 1.648
54.72000 -1.427
54.74000 2.705
54.76000 2.316
54.78000 -0.892
54.80000 -0.335
54.82000 0.946
54.84000 1.309
54.86000 0.734
54.88000 -0.191
54.90000 -0.671
54.92000 0.399
54.94000 -0.282
54.96000 1.410
54.98000 -0.004
55.00000 -0.913
55.02000 2.704
55.04000 4.830
55.06000 2.615
55.08000 -2.316
55.10000 0.173
55.12000 3.944
55.14000 3.744
55.16000 1.604
55.18000 3.210
55.20000 2.538
55.22000 0.253
55.24000 0.578
55.26000 -0.306
55.28000 2.390
55.30000 3.605
55.32000 3.286
55.34000 -0.288
55.36000 -1.070
55.38000 -1.390
55.40000 0.179
55.42000 1.988
55.44000 6.147
55.46000 3.697
55.48000 -1.507
55.50000 -1.211
55.52000 0.752
55.54000 1.793
55.56000 0.310
55.58000 3.255
55.60000 5.525
55.62000 3.309
55.64000 -1.244
55.66000 1.056
55.68000 0.736
55.70000 -1.899
55.72000 -1.705
55.74000 2.460
55.76000 4.629
55.78000 1.590
55.80000 0.270
55.82000 0.263
55.84000 1.255
55.86000 2.163
55.88000 1.875
55.90000 2.310
55.92000 4.023
55.94000 1.334
55.96000 0.772
55.98000 0.426
56.00000 -2.300
56.02000 0.302
56.04000 -1.871
56.06000 -0.564
56.08000 0.696
56.10000 0.084
56.12000 -1.508
56.14000 -1.875
56.16000 -0.158
56.18000 4.301
56.20000 3.273
56.22000 0.488
56.24000 -1.495
56.26000 -0.058
56.28000 3.741
56.30000 -0.503
56.32000 -2.220
56.34000 -0.927
56.36000 -1.260
56.38000 0.950
56.40000 1.665
56.42000 1.581
56.44000 3.305
56.46000 2.577
56.48000 2.926
56.50000 2.325
56.52000 3.813
56.54000 3.112
56.56000 0.203
56.58000 1.451
56.60000 1.195
56.62000 2.782
56.64000 1.581
56.66000 0.341
56.68000 -0.660
56.70000 -0.670
56.72000 0.943
56.74000 6.012
56.76000 6.437
56.78000 4.902
56.80000 1.636
56.82000 -0.039
56.84000 2.225
56.86000 1.601
56.88000 4.061
56.90000 1.241
56.92000 0.705
56.94000 2.120
56.96000 1.037
56.98000 1.182
57.00000 -0.415
57.02000 0.598
57.04000 1.744
57.06000 2.398
57.08000 0.461
57.10000 0.445
57.12000 1.929
57.14000 2.876
57.16000 3.605
57.18000 1.196
57.20000 2.156
57.22000 2.853
57.24000 2.155
57.26000 4.489
57.28000 3.297
57.30000 2.960
57.32000 0.449
57.34000 1.741
57.36000 4.080
57.38000 2.915
57.40000 4.031
57.42000 4.682
57.44000 1.079
57.46000 -2.195
57.48000 0.369
57.50000 3.367
57.52000 3.657
57.54000 5.315
57.56000 5.394
57.58000 1.918
57.60000 0.626
57.62000 -0.560
57.64000 1.044
57.66000 2.857
57.68000 2.598
57.70000 3.274
57.72000 6.049
57.74000 3.934
57.76000 1.722
57.78000 0.712
57.80000 2.513
57.82000 6.003
57.84000 2.718
57.86000 2.835
57.88000 4.400
57.90000 2.538
57.92000 3.311
57.94000 2.048
57.96000 4.372
57.98000 4.048
58.00000 -2.181
58.02000 -0.866
58.04000 4.185
58.06000 1.621
58.08000 0.823
58.10000 5.586
58.12000 6.235
58.14000 4.497
58.16000 3.252
58.18000 1.008
58.20000 -1.820
58.22000 1.247
58.24000 5.641
58.26000 4.631
58.28000 3.896
58.30000 4.158
58.32000 4.799
58.34000 1.693
58.36000 -0.360
58.38000 0.850
58.40000 1.711
58.42000 -1.490
58.44000 -0.545
58.46000 2.468
58.48000 2.893
58.50000 0.704
58.52000 -0.065
58.54000 0.703
58.56000 3.070
58.58000 3.996
58.60000 3.948
58.62000 2.128
58.64000 3.348
58.66000 3.813
58.68000 2.310
58.70000 2.933
58.72000 2.673
58.74000 1.071
58.76000 3.046
58.78000 0.225
58.80000 2.047
58.82000 4.017
58.84000 3.306
58.86000 2.180
58.88000 3.454
58.90000 3.305
58.92000 0.887
58.94000 0.667
58.96000 1.160
58.98000 1.889
59.00000 5.785
59.02000 4.873
59.04000 3.105
59.06000 1.220
59.08000 2.758
59.10000 4.412
59.12000 2.060
59.14000 2.864
59.16000 5.394
59.18000 4.095
59.20000 0.943
59.22000 2.027
59.24000 1.225
59.26000 0.599
59.28000 2.408
59.30000 3.177
59.32000 2.392
59.34000 -0.698
59.36000 0.136
59.38000 2.314
59.40000 0.925
59.42000 -2.169
59.44000 0.851
59.46000 0.287
59.48000 -1.003
59.50000 0.117
59.52000 2.494
59.54000 1.398
59.56000 -0.730
59.58000 2.379
59.60000 4.039
59.62000 5.098
59.64000 1.427
59.66000 0.294
59.68000 1.348
59.70000 2.835
59.72000 3.006
59.74000 0.467
59.76000 -1.285
59.78000 -1.052
59.80000 -0.681
59.82000 1.546
59.84000 1.452
59.86000 1.949
59.88000 2.809
59.90000 3.955
59.92000 3.717
59.94000 2.870
59.96000 2.787
59.98000 1.938
60.00000 0.448
60.02000 0.115
60.04000 -1.273
60.06000 -0.760
60.08000 0.143
60.10000 2.778
60.12000 0.329
60.14000 -2.152
60.16000 -0.164
60.18000 1.419
60.20000 2.025
60.22000 5.283
60.24000 5.588
60.26000 2.907
60.28000 2.670
60.30000 2.195
60.32000 0.525
60.34000 1.881
60.36000 2.068
60.38000 5.810
60.40000 6.120
60.42000 2.494
60.44000 -0.547
60.46000 -1.079
60.48000 -0.792
60.50000 1.404
60.52000 2.996
60.54000 1.669
60.56000 2.649
60.58000 3.716
60.60000 5.483
60.62000 4.597
60.64000 5.260
60.66000 1.528
60.68000 0.324
60.70000 0.784
60.72000 1.194
60.74000 2.874
60.76000 1.373
60.78000 2.526
60.80000 5.199
60.82000 3.875
60.84000 2.112
60.86000 2.392
60.88000 1.668
60.90000 0.295
60.92000 1.091
60.94000 3.975
60.96000 3.433
60.98000 2.860
61.00000 4.491
61.02000 5.675
61.04000 -2.092
61.06000 0.222
61.08000 1.955
61.10000 1.637
61.12000 2.066
61.14000 2.223
61.16000 1.724
61.18000 4.726
61.20000 6.270
61.22000 2.311
61.24000 3.341
61.26000 5.516
61.28000 4.249
61.30000 3.741
61.32000 4.158
61.34000 2.437
61.36000 2.887
61.38000 4.323
61.40000 4.376
61.42000 0.855
61.44000 4.209
61.46000 6.730
61.48000 3.410
61.50000 -0.007
61.52000 -0.203
61.54000 -2.064
61.56000 0.466
61.58000 3.629
61.60000 5.928
61.62000 2.408
61.64000 2.518
61.66000 3.371
61.68000 3.207
61.70000 3.384
61.72000 1.525
61.74000 3.172
61.76000 4.281
61.78000 4.913
61.80000 3.715
61.82000 4.579
61.84000 3.423
61.86000 1.934
61.88000 -1.847
61.90000 0.330
61.92000 3.017
61.94000 5.756
61.96000 3.723
61.98000 2.215
62.00000 3.985
62.02000 2.711
62.04000 1.319
62.06000 -2.089
62.08000 1.017
62.10000 -0.488
62.12000 -1.177
62.14000 -1.443
62.16000 0.023
62.18000 2.671
62.20000 1.643
62.22000 3.054
62.24000 4.432
62.26000 4.131
62.28000 2.761
62.30000 0.748
62.32000 3.385
62.34000 2.439
62.36000 4.145
62.38000 1.743
62.40000 -0.029
62.42000 2.061
62.44000 2.705
62.46000 1.202
62.48000 -2.103
62.50000 1.683
62.52000 1.327
62.54000 -0.305
62.56000 0.911
62.58000 4.414
62.60000 3.074
62.62000 3.069
62.64000 4.018
62.66000 2.459
62.68000 2.037
62.70000 2.778
62.72000 -0.181
62.74000 -2.029
62.76000 0.389
62.78000 0.377
62.80000 5.147
62.82000 3.647
62.84000 2.236
62.86000 2.727
62.88000 2.144
62.90000 2.491
62.92000 0.061
62.94000 0.960
62.96000 0.966
62.98000 -2.103
63.00000 0.492
63.02000 2.346
63.04000 1.017
63.06000 1.064
63.08000 3.277
63.10000 3.931
63.12000 3.110
63.14000 2.117
63.16000 0.086
63.18000 0.482
63.20000 2.589
63.22000 3.367
63.24000 3.060
63.26000 1.350
63.28000 2.917
63.30000 2.642
63.32000 1.684
63.34000 0.444
63.36000 1.940
63.38000 2.231
63.40000 2.488
63.42000 1.781
63.44000 0.763
63.46000 -1.816
63.48000 -0.445
63.50000 0.262
63.52000 -0.797
63.54000 0.125
63.56000 -2.095
63.58000 0.382
63.60000 2.942
63.62000 2.084
63.64000 -1.440
63.66000 0.040
63.68000 0.635
63.70000 0.486
63.72000 1.775
63.74000 1.516
63.76000 1.921
63.78000 1.490
63.80000 0.726
63.82000 4.780
63.84000 3.304
63.86000 4.740
63.88000 1.642
63.90000 -2.080
63.92000 0.373
63.94000 -0.938
63.96000 -0.645
63.98000 1.466
64.00000 3.478
64.02000 3.351
64.04000 3.410
64.06000 3.927
64.08000 1.051
64.10000 -2.084
64.12000 1.042
64.14000 1.545
64.16000 3.594
64.18000 4.004
64.20000 0.577
64.22000 1.283
64.24000 0.402
64.26000 1.198
64.28000 4.519
64.30000 4.192
64.32000 2.356
64.34000 3.271
64.36000 2.467
64.38000 1.029
64.40000 3.096
64.42000 3.732
64.44000 0.593
64.46000 -0.691
64.48000 -0.927
64.50000 1.816
64.52000 2.247
64.54000 1.163
64.56000 -2.093
64.58000 -1.355
64.60000 -1.078
64.62000 -1.406
64.64000 1.578
64.66000 0.169
64.68000 -0.374
64.70000 -0.844
64.72000 -1.455
64.74000 1.397
64.76000 0.716
64.78000 1.280
64.80000 2.821
64.82000 0.289
64.84000 -1.286
64.86000 -1.241
64.88000 1.139
64.90000 1.357
64.92000 -2.102
64.94000 -0.745
64.96000 -0.819
64.98000 -1.533
65.00000 0.396
65.02000 0.291
65.04000 1.212
65.06000 1.357
65.08000 1.001
65.10000 0.188
65.12000 -0.338
65.14000 -2.030
65.16000 -1.760
65.18000 -1.107
65.20000 -0.748
65.22000 -1.944
65.24000 -1.419
65.26000 -0.080
65.28000 -0.641
65.30000 1.120
65.32000 -2.116
65.34000 -1.651
65.36000 0.120
65.38000 -0.450
65.40000 2.956
65.42000 3.099
65.44000 1.747
65.46000 2.158
65.48000 -0.763
65.50000 0.195
65.52000 1.543
65.54000 0.709
65.56000 2.798
65.58000 0.929
65.60000 -0.257
65.62000 0.411
65.64000 -0.190
65.66000 -1.065
65.68000 1.153
65.70000 1.026
65.72000 1.673
65.74000 4.439
65.76000 4.001
65.78000 1.376
65.80000 -0.700
65.82000 -0.534
65.84000 -2.116
65.86000 -1.527
65.88000 0.290
65.90000 -0.419
65.92000 -1.170
65.94000 2.199
65.96000 2.028
65.98000 0.328
66.00000 -0.693
66.02000 -1.134
66.04000 -0.746
66.06000 -1.351
66.08000 -1.202
66.10000 -1.130
66.12000 -0.219
66.14000 0.711
66.16000 0.418
66.18000 0.391
66.20000 -0.132
66.22000 -0.069
66.24000 -0.368
66.26000 -1.843
66.28000 -1.313
66.30000 -0.910
66.32000 0.375
66.34000 -0.552
66.36000 -2.123
66.38000 -1.329
66.40000 0.479
66.42000 -0.533
66.44000 -0.539
66.46000 -1.022
66.48000 -0.932
66.50000 0.435
66.52000 0.766
66.54000 1.267
66.56000 -0.888
66.58000 -1.985
66.60000 -1.887
66.62000 -0.775
66.64000 0.293
66.66000 -1.031
66.68000 -1.604
66.70000 -1.369
66.72000 -1.757
66.74000 1.133
66.76000 0.489
66.78000 -0.819
66.80000 -0.467
66.82000 0.914
66.84000 -0.789
66.86000 0.162
66.88000 0.654
66.90000 0.756
66.92000 3.790
66.94000 2.770
66.96000 1.382
66.98000 0.839
67.00000 1.360
67.02000 -0.877
67.04000 1.069
67.06000 1.579
67.08000 0.635
67.10000 -1.006
67.12000 0.999
67.14000 1.105
67.16000 0.714
67.18000 1.125
67.20000 -0.619
67.22000 0.187
67.24000 -0.465
67.26000 -1.505
67.28000 1.212
67.30000 0.949
67.32000 1.554
67.34000 1.386
67.36000 1.735
67.38000 -0.061
67.40000 4.894
67.42000 2.839
67.44000 -2.077
67.46000 -1.888
67.48000 -0.676
67.50000 -0.549
67.52000 0.778
67.54000 -0.733
67.56000 1.068
67.58000 0.317
67.60000 1.920
67.62000 3.025
67.64000 2.290
67.66000 1.708
67.68000 2.285
67.70000 0.318
67.72000 0.604
67.74000 1.647
67.76000 0.945
67.78000 -0.436
67.80000 -2.112
67.82000 -1.838
67.84000 -1.141
67.86000 -1.413
67.88000 -0.198
67.90000 1.733
67.92000 1.717
67.94000 1.170
67.96000 3.409
67.98000 3.725
68.00000 4.892
68.02000 2.460
68.04000 2.055
68.06000 4.348
68.08000 4.245
68.10000 0.590
68.12000 3.054
68.14000 4.050
68.16000 2.520
68.18000 1.085
68.20000 4.011
68.22000 5.491
68.24000 3.021
68.26000 2.763
68.28000 4.038
68.30000 3.481
68.32000 1.762
68.34000 3.347
68.36000 4.766
68.38000 5.084
68.40000 3.348
68.42000 5.363
68.44000 4.993
68.46000 4.503
68.48000 6.224
68.50000 11.039
68.52000 11.213
68.54000 10.805
68.56000 11.663
68.58000 7.628
68.60000 5.001
68.62000 6.347
68.64000 7.538
68.66000 7.653
68.68000 8.677
68.70000 11.772
68.72000 12.314
68.74000 13.916
68.76000 12.882
68.78000 10.842
68.80000 11.558
68.82000 12.831
68.84000 14.327
68.86000 14.667
68.88000 14.155
68.90000 12.578
68.92000 13.092
68.94000 12.945
68.96000 12.128
68.98000 12.242
69.00000 9.844
69.02000 10.698
69.04000 9.363
69.06000 9.275
69.08000 11.021
69.10000 10.355
69.12000 11.714
69.14000 10.337
69.16000 8.097
69.18000 9.645
69.20000 8.746
69.22000 9.521
69.24000 8.096
69.26000 5.723
69.28000 6.268
69.30000 6.477
69.32000 8.560
69.34000 7.847
69.36000 6.990
69.38000 4.911
69.40000 5.567
69.42000 3.928
69.44000 2.527
69.46000 3.285
69.48000 3.505
69.50000 3.087
69.52000 1.754
69.54000 2.975
69.56000 1.945
69.58000 4.542
69.60000 2.929
69.62000 0.418
69.64000 1.079
69.66000 0.733
69.68000 -0.375
69.70000 1.015
69.72000 -0.899
69.74000 -1.752
69.76000 -0.891
69.78000 0.442
69.80000 -1.239
69.82000 -1.739
69.84000 -0.217
69.86000 0.159
69.88000 1.315
69.90000 1.116
69.92000 0.589
69.94000 0.317
69.96000 1.137
69.98000 -0.416
70.00000 0.025
70.02000 0.144
70.04000 -0.872
70.06000 -0.918
70.08000 0.145
70.10000 -1.909
70.12000 -2.086
70.14000 -0.736
70.16000 -1.958
70.18000 -0.058
70.20000 0.271
70.22000 0.711
70.24000 3.120
70.26000 0.945
70.28000 -0.039
70.30000 -0.710
70.32000 -0.045
70.34000 -1.421
70.36000 2.286
70.38000 1.118
70.40000 3.550
70.42000 1.990
70.44000 1.207
70.46000 0.177
70.48000 -2.040
70.50000 1.625
70.52000 3.679
70.54000 1.219
70.56000 -1.535
70.58000 -1.761
70.60000 -0.495
70.62000 -0.931
70.64000 -0.283
70.66000 -1.294
70.68000 -0.611
70.70000 2.450
70.72000 -0.071
70.74000 -0.388
70.76000 -1.971
70.78000 0.281
70.80000 0.966
70.82000 0.006
70.84000 0.208
70.86000 -1.486
70.88000 -1.552
70.90000 0.670
70.92000 3.358
70.94000 1.661
70.96000 0.163
70.98000 1.272
71.00000 1.568
71.02000 4.067
71.04000 0.679
71.06000 -0.545
71.08000 -1.417
71.10000 1.315
71.12000 0.637
71.14000 0.579
71.16000 1.175
71.18000 2.376
71.20000 -1.042
71.22000 -1.716
71.24000 -1.042
71.26000 1.332
71.28000 2.938
71.30000 3.939
71.32000 3.509
71.34000 1.189
71.36000 1.056
71.38000 2.201
71.40000 -1.955
71.42000 0.333
71.44000 -1.083
71.46000 -1.191
71.48000 -0.643
71.50000 2.446
71.52000 2.999
71.54000 1.985
71.56000 1.871
71.58000 3.943
71.60000 3.592
71.62000 2.374
71.64000 2.472
71.66000 3.950
71.68000 2.030
71.70000 1.174
71.72000 1.624
71.74000 -1.950
71.76000 0.262
71.78000 2.991
71.80000 4.400
71.82000 1.572
71.84000 2.418
71.86000 2.692
71.88000 1.809
71.90000 1.626
71.92000 1.470
71.94000 2.376
71.96000 1.010
71.98000 0.182
72.00000 1.460
72.02000 2.571
72.04000 2.415
72.06000 1.409
72.08000 -1.055
72.10000 -0.350
72.12000 -0.259
72.14000 0.507
72.16000 1.900
72.18000 0.641
72.20000 0.780
72.22000 1.609
72.24000 3.877
72.26000 2.276
72.28000 2.936
72.30000 3.038
72.32000 1.686
72.34000 -1.319
72.36000 0.882
72.38000 3.183
72.40000 1.952
72.42000 3.236
72.44000 5.311
72.46000 5.637
72.48000 4.596
72.50000 -0.169
72.52000 1.328
72.54000 -1.904
72.56000 0.255
72.58000 3.542
72.60000 2.450
72.62000 2.128
72.64000 3.228
72.66000 1.647
72.68000 4.518
72.70000 5.441
72.72000 3.845
72.74000 0.878
72.76000 1.852
72.78000 2.362
72.80000 2.271
72.82000 1.550
72.84000 2.465
72.86000 2.849
72.88000 2.681
72.90000 0.546
72.92000 2.031
72.94000 0.539
72.96000 0.011
72.98000 -1.900
73.00000 -0.338
73.02000 3.292
73.04000 2.331
73.06000 0.882
73.08000 -0.272
73.10000 2.183
73.12000 4.580
73.14000 5.242
73.16000 6.273
73.18000 4.053
73.20000 2.633
73.22000 0.353
73.24000 1.058
73.26000 0.491
73.28000 -1.608
73.30000 -1.894
73.32000 1.583
73.34000 2.235
73.36000 3.401
73.38000 4.046
73.40000 3.110
73.42000 2.783
73.44000 5.508
73.46000 -1.149
73.48000 -1.680
73.50000 0.880
73.52000 6.495
73.54000 5.293
73.56000 -1.264
73.58000 -1.397
73.60000 0.288
73.62000 1.808
73.64000 2.847
73.66000 2.187
73.68000 3.546
73.70000 2.299
73.72000 3.715
73.74000 0.061
73.76000 -1.709
73.78000 2.200
73.80000 1.057
73.82000 0.590
73.84000 2.367
73.86000 2.060
73.88000 1.037
73.90000 1.163
73.92000 1.537
73.94000 -0.616
73.96000 1.193
73.98000 1.457
74.00000 1.807
74.02000 3.974
74.04000 1.297
74.06000 0.475
74.08000 0.154
74.10000 1.495
74.12000 4.814
74.14000 3.128
74.16000 -1.908
74.18000 -1.886
74.20000 1.354
74.22000 0.293
74.24000 -1.061
74.26000 1.610
74.28000 2.185
74.30000 2.814
74.32000 3.751
74.34000 2.873
74.36000 3.165
74.38000 1.160
74.40000 2.403
74.42000 0.120
74.44000 -0.426
74.46000 3.306
74.48000 3.583
74.50000 -0.167
74.52000 0.496
74.54000 3.040
74.56000 3.516
74.58000 2.205
74.60000 1.581
74.62000 0.543
74.64000 0.945
74.66000 2.400
74.68000 2.813
74.70000 2.492
74.72000 1.432
74.74000 0.527
74.76000 -0.687
74.78000 -1.921
74.80000 -0.182
74.82000 3.813
74.84000 -0.465
74.86000 0.303
74.88000 0.073
74.90000 0.990
74.92000 3.454
74.94000 3.284
74.96000 4.357
74.98000 3.966
75.00000 2.852
75.02000 3.874
75.04000 4.522
75.06000 -0.431
75.08000 -0.490
75.10000 1.029
75.12000 -0.174
75.14000 -1.912
75.16000 1.107
75.18000 2.302
75.20000 3.865
75.22000 1.809
75.24000 2.110
75.26000 0.281
75.28000 1.179
75.30000 0.570
75.32000 0.117
75.34000 1.953
75.36000 -1.682
75.38000 -1.540
75.40000 -0.320
75.42000 1.112
75.44000 2.331
75.46000 -1.128
75.48000 -0.553
75.50000 2.701
75.52000 1.585
75.54000 -0.557
75.56000 0.125
75.58000 1.006
75.60000 -0.357
75.62000 -1.913
75.64000 0.692
75.66000 2.637
75.68000 3.435
75.70000 2.228
75.72000 3.767
75.74000 3.604
75.76000 3.359
75.78000 3.718
75.80000 1.838
75.82000 -0.460
75.84000 0.746
75.86000 0.060
75.88000 1.847
75.90000 1.552
75.92000 3.185
75.94000 1.051
75.96000 2.664
75.98000 1.690
76.00000 2.290
76.02000 1.568
76.04000 0.257
76.06000 -0.311
76.08000 2.550
76.10000 4.071
76.12000 1.937
76.14000 -1.472
76.16000 0.490
76.18000 2.004
76.20000 2.725
76.22000 3.206
76.24000 0.571
76.26000 0.347
76.28000 2.333
76.30000 3.951
76.32000 -0.538
76.34000 -0.697
76.36000 0.575
76.38000 0.571
76.40000 3.339
76.42000 1.842
76.44000 1.417
76.46000 1.395
76.48000 -0.135
76.50000 1.179
76.52000 1.271
76.54000 -0.580
76.56000 0.887
76.58000 -0.310
76.60000 -0.210
76.62000 0.369
76.64000 0.197
76.66000 2.541
76.68000 3.174
76.70000 1.586
76.72000 -0.742
76.74000 2.067
76.76000 3.676
76.78000 5.215
76.80000 4.617
76.82000 3.137
76.84000 3.528
76.86000 4.558
76.88000 5.269
76.90000 4.105
76.92000 2.096
76.94000 -1.916
76.96000 -0.336
76.98000 5.963
77.00000 7.402
77.02000 3.930
77.04000 -0.108
77.06000 0.916
77.08000 4.009
77.10000 6.837
77.12000 6.140
77.14000 4.051
77.16000 1.928
77.18000 3.178
77.20000 4.720
77.22000 3.508
77.24000 1.102
77.26000 1.654
77.28000 3.167
77.30000 1.790
77.32000 4.079
77.34000 6.180
77.36000 1.779
77.38000 -0.024
77.40000 4.433
77.42000 2.789
77.44000 2.005
77.46000 1.417
77.48000 1.500
77.50000 -0.836
77.52000 0.513
77.54000 2.638
77.56000 4.201
77.58000 2.487
77.60000 4.429
77.62000 3.971
77.64000 -0.193
77.66000 -1.950
77.68000 2.796
77.70000 3.516
77.72000 0.640
77.74000 1.622
77.76000 2.104
77.78000 0.987
77.80000 0.253
77.82000 -1.965
77.84000 2.371
77.86000 1.295
77.88000 1.426
77.90000 3.417
77.92000 2.571
77.94000 0.146
77.96000 1.319
77.98000 0.508
78.00000 2.859
78.02000 2.627
78.04000 2.576
78.06000 1.328
78.08000 -0.145
78.10000 0.511
78.12000 0.429
78.14000 -0.582
78.16000 -0.183
78.18000 -1.278
78.20000 2.353
78.22000 0.852
78.24000 0.752
78.26000 2.685
78.28000 1.654
78.30000 1.753
78.32000 0.630
78.34000 -0.960
78.36000 -0.595
78.38000 1.131
78.40000 -1.379
78.42000 0.292
78.44000 -1.292
78.46000 -1.312
78.48000 2.674
78.50000 2.529
78.52000 3.222
78.54000 2.179
78.56000 1.957
78.58000 0.804
78.60000 1.776
78.62000 -0.305
78.64000 0.135
78.66000 -1.056
78.68000 2.328
78.70000 3.730
78.72000 2.571
78.74000 0.459
78.76000 -1.151
78.78000 0.455
78.80000 -1.993
78.82000 1.381
78.84000 0.871
78.86000 4.366
78.88000 3.961
78.90000 3.262
78.92000 1.921
78.94000 -0.788
78.96000 0.188
78.98000 -1.012
79.00000 -1.263
79.02000 0.141
79.04000 1.955
79.06000 3.044
79.08000 2.496
79.10000 1.174
79.12000 -0.612
79.14000 -0.810
79.16000 1.887
79.18000 2.055
79.20000 1.153
79.22000 -1.971
79.24000 -1.932
79.26000 1.375
79.28000 2.859
79.30000 0.498
79.32000 0.888
79.34000 1.558
79.36000 1.576
79.38000 -1.906
79.40000 -0.340
79.42000 2.280
79.44000 0.164
79.46000 3.883
79.48000 3.047
79.50000 4.734
79.52000 3.063
79.54000 1.829
79.56000 -1.448
79.58000 -0.975
79.60000 -0.074
79.62000 0.217
79.64000 0.130
79.66000 5.006
79.68000 4.513
79.70000 2.352
79.72000 3.830
79.74000 4.039
79.76000 3.882
79.78000 0.145
79.80000 -1.989
79.82000 0.441
79.84000 5.625
79.86000 3.595
79.88000 0.035
79.90000 -0.342
79.92000 -0.307
79.94000 -1.587
79.96000 0.567
79.98000 4.315
80.00000 0.669
80.02000 1.011
80.04000 1.823
80.06000 0.325
80.08000 2.677
80.10000 3.957
80.12000 3.851
80.14000 2.012
80.16000 1.428
80.18000 2.203
80.20000 2.168
80.22000 1.076
80.24000 0.123
80.26000 3.017
80.28000 2.559
80.30000 -1.534
80.32000 -0.907
80.34000 0.953
80.36000 0.828
80.38000 2.444
80.40000 4.408
80.42000 4.727
80.44000 1.785
80.46000 2.951
80.48000 3.143
80.50000 1.734
80.52000 0.781
80.54000 2.449
80.56000 5.272
80.58000 6.661
80.60000 5.725
80.62000 2.988
80.64000 2.214
80.66000 2.736
80.68000 -1.470
80.70000 -0.198
80.72000 3.240
80.74000 3.466
80.76000 0.574
80.78000 4.082
80.80000 1.265
80.82000 3.153
80.84000 6.578
80.86000 3.996
80.88000 3.547
80.90000 2.234
80.92000 -0.331
80.94000 0.833
80.96000 -1.089
80.98000 -0.508
81.00000 1.903
81.02000 0.311
81.04000 1.428
81.06000 4.219
81.08000 5.039
81.10000 6.633
81.12000 3.010
81.14000 0.852
81.16000 1.770
81.18000 2.219
81.20000 0.921
81.22000 -2.016
81.24000 3.026
81.26000 5.296
81.28000 6.877
81.30000 3.353
81.32000 4.339
81.34000 5.181
81.36000 5.142
81.38000 8.006
81.40000 5.554
81.42000 2.017
81.44000 4.909
81.46000 3.210
81.48000 3.821
81.50000 5.334
81.52000 7.359
81.54000 6.324
81.56000 0.173
81.58000 2.735
81.60000 4.432
81.62000 3.607
81.64000 2.614
81.66000 3.243
81.68000 4.117
81.70000 6.150
81.72000 3.238
81.74000 2.901
81.76000 5.168
81.78000 7.551
81.80000 7.858
81.82000 6.398
81.84000 7.167
81.86000 6.483
81.88000 5.030
81.90000 8.231
81.92000 6.289
81.94000 5.957
81.96000 7.882
81.98000 10.342
82.00000 11.580
82.02000 8.232
82.04000 10.579
82.06000 9.780
82.08000 12.127
82.10000 9.512
82.12000 9.412
82.14000 10.195
82.16000 10.230
82.18000 11.275
82.20000 14.129
82.22000 15.843
82.24000 14.994
82.26000 16.701
82.28000 13.398
82.30000 14.091
82.32000 15.531
82.34000 16.405
82.36000 18.855
82.38000 19.561
82.40000 21.912
82.42000 22.004
82.44000 26.133
82.46000 30.225
82.48000 28.196
82.50000 23.898
82.52000 29.058
82.54000 31.062
82.56000 31.601
82.58000 33.525
82.60000 35.323
82.62000 33.155
82.64000 33.962
82.66000 39.127
82.68000 43.241
82.70000 45.785
82.72000 43.763
82.74000 42.866
82.76000 40.582
82.78000 43.294
82.80000 47.577
82.82000 46.753
82.84000 49.271
82.86000 48.058
82.88000 51.135
82.90000 45.656
82.92000 49.442
82.94000 51.492
82.96000 52.252
82.98000 52.034
83.00000 56.109
83.02000 58.237
83.04000 52.732
83.06000 50.303
83.08000 55.763
83.10000 58.935
83.12000 58.246
83.14000 57.384
83.16000 57.161
83.18000 53.890
83.20000 52.464
83.22000 52.171
83.24000 55.142
83.26000 55.452
83.28000 54.760
83.30000 56.820
83.32000 56.928
83.34000 49.954
83.36000 44.731
83.38000 47.196
83.40000 47.279
83.42000 43.270
83.44000 39.844
83.46000 42.173
83.48000 41.278
83.50000 37.349
83.52000 35.381
83.54000 32.708
83.56000 36.832
83.58000 38.496
83.60000 35.338
83.62000 32.301
83.64000 35.018
83.66000 32.959
83.68000 29.210
83.70000 27.226
83.72000 26.207
83.74000 27.959
83.76000 25.338
83.78000 23.470
83.80000 19.545
83.82000 20.583
83.84000 22.203
83.86000 20.596
83.88000 18.910
83.90000 22.941
83.92000 23.864
83.94000 18.453
83.96000 19.347
83.98000 13.244
84.00000 12.660
84.02000 11.038
84.04000 12.338
84.06000 13.466
84.08000 9.845
84.10000 10.771
84.12000 5.890
84.14000 8.225
84.16000 10.110
84.18000 6.798
84.20000 6.944
84.22000 5.130
84.24000 4.813
84.26000 8.298
84.28000 9.906
84.30000 8.840
84.32000 7.869
84.34000 1.272
84.36000 4.479
84.38000 5.643
84.40000 6.557
84.42000 7.265
84.44000 3.439
84.46000 1.899
84.48000 0.596
84.50000 0.879
84.52000 0.015
84.54000 -1.707
84.56000 3.452
84.58000 4.940
84.60000 4.368
84.62000 1.816
84.64000 -0.560
84.66000 0.782
84.68000 -0.207
84.70000 1.274
84.72000 2.371
84.74000 3.799
84.76000 2.090
84.78000 2.487
84.80000 3.536
84.82000 -0.795
84.84000 -1.740
84.86000 -1.959
84.88000 -2.115
84.90000 -0.350
84.92000 3.658
84.94000 3.333
84.96000 -0.548
84.98000 0.234
85.00000 1.300
85.02000 0.524
85.04000 1.516
85.06000 2.854
85.08000 3.434
85.10000 1.144
85.12000 1.669
85.14000 0.949
85.16000 3.014
85.18000 2.165
85.20000 -0.372
85.22000 -0.783
85.24000 -0.501
85.26000 1.966
85.28000 1.434
85.30000 -0.155
85.32000 -2.065
85.34000 -1.485
85.36000 2.816
85.38000 4.686
85.40000 3.626
85.42000 2.656
85.44000 1.724
85.46000 0.353
85.48000 -0.408
85.50000 -1.363
85.52000 0.982
85.54000 1.982
85.56000 -0.418
85.58000 -1.898
85.60000 0.202
85.62000 1.954
85.64000 0.705
85.66000 2.133
85.68000 -0.318
85.70000 -0.984
85.72000 -0.455
85.74000 -0.363
85.76000 -0.718
85.78000 2.285
85.80000 1.606
85.82000 0.296
85.84000 0.476
85.86000 1.690
85.88000 -0.221
85.90000 -0.379
85.92000 -1.460
85.94000 -2.053
85.96000 -0.116
85.98000 1.520
86.00000 2.343
86.02000 -1.285
86.04000 0.799
86.06000 1.697
86.08000 2.600
86.10000 3.086
86.12000 1.501
86.14000 1.077
86.16000 1.131
86.18000 2.589
86.20000 -0.539
86.22000 -2.073
86.24000 2.552
86.26000 3.344
86.28000 2.330
86.30000 1.179
86.32000 1.950
86.34000 0.971
86.36000 0.853
86.38000 -0.311
86.40000 1.316
86.42000 2.620
86.44000 2.093
86.46000 3.778
86.48000 4.766
86.50000 6.027
86.52000 4.717
86.54000 6.051
86.56000 3.889
86.58000 5.511
86.60000 6.814
86.62000 7.395
86.64000 10.120
86.66000 10.483
86.68000 7.032
86.70000 7.411
86.72000 10.555
86.74000 11.762
86.76000 10.528
86.78000 11.429
86.80000 8.634
86.82000 10.380
86.84000 12.350
86.86000 13.470
86.88000 13.534
86.90000 12.062
86.92000 14.149
86.94000 14.882
86.96000 11.897
86.98000 19.173
87.00000 22.231
87.02000 22.975
87.04000 19.392
87.06000 19.943
87.08000 21.380
87.10000 19.504
87.12000 23.958
87.14000 27.318
87.16000 22.830
87.18000 20.286
87.20000 20.226
87.22000 21.472
87.24000 26.730
87.26000 27.743
87.28000 25.554
87.30000 24.044
87.32000 24.503
87.34000 22.893
87.36000 26.795
87.38000 30.051
87.40000 32.593
87.42000 30.994
87.44000 31.316
87.46000 35.385
87.48000 36.051
87.50000 32.991
87.52000 35.266
87.54000 32.090
87.56000 30.123
87.58000 31.431
87.60000 29.511
87.62000 27.095
87.64000 28.843
87.66000 30.135
87.68000 31.973
87.70000 26.789
87.72000 30.693
87.74000 30.857
87.76000 27.810
87.78000 26.804
87.80000 28.912
87.82000 28.858
87.84000 24.883
87.86000 25.958
87.88000 24.958
87.90000 25.985
87.92000 26.139
87.94000 23.338
87.96000 23.009
87.98000 25.254
88.00000 28.387
88.02000 24.829
88.04000 22.037
88.06000 21.379
88.08000 19.543
88.10000 21.637
88.12000 18.653
88.14000 14.797
88.16000 17.403
88.18000 15.289
88.20000 16.481
88.22000 13.645
88.24000 15.844
88.26000 13.783
88.28000 15.765
88.30000 16.288
88.32000 13.347
88.34000 11.132
88.36000 12.233
88.38000 9.710
88.40000 7.357
88.42000 7.500
88.44000 11.607
88.46000 8.561
88.48000 8.171
88.50000 9.197
88.52000 7.784
88.54000 7.011
88.56000 5.661
88.58000 7.067
88.60000 8.824
88.62000 8.188
88.64000 1.965
88.66000 2.425
88.68000 7.364
88.70000 6.194
88.72000 5.305
88.74000 6.852
88.76000 6.741
88.78000 9.388
88.80000 6.227
88.82000 5.196
88.84000 7.399
88.86000 8.465
88.88000 7.352
88.90000 3.909
88.92000 4.700
88.94000 3.814
88.96000 4.498
88.98000 3.749
89.00000 5.308
89.02000 6.616
89.04000 4.638
89.06000 2.096
89.08000 6.061
89.10000 7.168
89.12000 5.369
89.14000 6.339
89.16000 8.219
89.18000 5.251
89.20000 5.361
89.22000 5.956
89.24000 5.574
89.26000 5.204
89.28000 3.932
89.30000 7.725
89.32000 9.691
89.34000 4.167
89.36000 -1.833
89.38000 4.071
89.40000 3.385
89.42000 2.985
89.44000 5.345
89.46000 4.671
89.48000 3.955
89.50000 1.475
89.52000 2.712
89.54000 2.657
89.56000 5.173
89.58000 5.985
89.60000 2.846
89.62000 1.306
89.64000 4.594
89.66000 3.469
89.68000 6.456
89.70000 3.128
89.72000 2.480
89.74000 2.591
89.76000 4.208
89.78000 4.597
89.80000 4.532
89.82000 2.930
89.84000 0.697
89.86000 1.801
89.88000 -0.989
89.90000 1.506
89.92000 3.761
89.94000 3.548
89.96000 4.661
89.98000 2.802
90.00000 0.123
90.02000 0.354
90.04000 1.895
90.06000 3.403
90.08000 0.428
90.10000 3.258
90.12000 2.991
90.14000 -0.579
90.16000 1.087
90.18000 4.421
90.20000 1.728
90.22000 0.842
90.24000 1.886
90.26000 1.316
90.28000 4.150
90.30000 6.796
90.32000 1.380
90.34000 -0.650
90.36000 3.322
90.38000 1.046
90.40000 0.371
90.42000 2.512
90.44000 4.007
90.46000 1.037
90.48000 1.231
90.50000 4.645
90.52000 1.428
90.54000 0.449
90.56000 -0.115
90.58000 1.365
90.60000 3.686
90.62000 4.094
90.64000 3.600
90.66000 0.504
90.68000 -1.844
90.70000 0.009
90.72000 -0.554
90.74000 -0.389
90.76000 1.037
90.78000 0.174
90.80000 2.488
90.82000 5.561
90.84000 5.605
90.86000 2.490
90.88000 0.664
90.90000 -0.155
90.92000 -1.427
90.94000 0.992
90.96000 1.290
90.98000 1.151
91.00000 1.326
91.02000 0.566
91.04000 0.387
91.06000 4.043
91.08000 3.596
91.10000 6.490
91.12000 6.271
91.14000 3.272
91.16000 2.818
91.18000 5.845
91.20000 1.746
91.22000 1.217
91.24000 2.734
91.26000 0.435
91.28000 -1.794
91.30000 2.752
91.32000 5.211
91.34000 4.110
91.36000 3.342
91.38000 2.060
91.40000 1.280
91.42000 0.759
91.44000 2.187
91.46000 3.617
91.48000 1.113
91.50000 4.071
91.52000 4.137
91.54000 5.349
91.56000 3.772
91.58000 3.335
91.60000 8.837
91.62000 7.162
91.64000 0.868
91.66000 2.333
91.68000 0.241
91.70000 1.164
91.72000 2.678
91.74000 -0.248
91.76000 2.220
91.78000 4.381
91.80000 5.815
91.82000 1.955
91.84000 4.803
91.86000 0.681
91.88000 -1.826
91.90000 -0.527
91.92000 0.030
91.94000 3.203
91.96000 3.286
91.98000 3.002
92.00000 3.452
92.02000 1.685
92.04000 3.210
92.06000 3.282
92.08000 2.767
92.10000 1.101
92.12000 -0.846
92.14000 0.420
92.16000 0.582
92.18000 4.104
92.20000 3.915
92.22000 3.015
92.24000 -1.091
92.26000 0.705
92.28000 0.128
92.30000 -1.853
92.32000 1.544
92.34000 1.806
92.36000 4.857
92.38000 2.210
92.40000 -0.079
92.42000 1.447
92.44000 0.214
92.46000 0.803
92.48000 -1.418
92.50000 2.700
92.52000 4.741
92.54000 2.153
92.56000 -0.950
92.58000 -1.607
92.60000 2.163
92.62000 1.628
92.64000 0.217
92.66000 0.555
92.68000 0.332
92.70000 1.112
92.72000 2.871
92.74000 0.182
92.76000 -0.683
92.78000 -0.474
92.80000 -0.517
92.82000 1.026
92.84000 4.130
92.86000 3.298
92.88000 3.360
92.90000 3.031
92.92000 -0.497
92.94000 -0.712
92.96000 1.546
92.98000 1.416
93.00000 1.942
93.02000 3.617
93.04000 4.085
93.06000 1.350
93.08000 2.861
93.10000 2.341
93.12000 5.365
93.14000 0.946
93.16000 4.030
93.18000 5.527
93.20000 2.753
93.22000 1.498
93.24000 1.764
93.26000 3.520
93.28000 2.256
93.30000 3.609
93.32000 1.277
93.34000 4.450
93.36000 3.428
93.38000 3.389
93.40000 -0.023
93.42000 -1.822
93.44000 4.190
93.46000 4.567
93.48000 4.011
93.50000 3.943
93.52000 2.126
93.54000 2.458
93.56000 0.942
93.58000 2.460
93.60000 0.859
93.62000 0.947
93.64000 3.307
93.66000 5.559
93.68000 3.378
93.70000 1.780
93.72000 3.578
93.74000 2.199
93.76000 -1.283
93.78000 -0.128
93.80000 -1.702
93.82000 0.181
93.84000 1.686
93.86000 0.789
93.88000 0.260
93.90000 2.527
93.92000 2.128
93.94000 4.142
93.96000 2.839
93.98000 2.568
94.00000 1.939
94.02000 3.533
94.04000 3.612
94.06000 5.208
94.08000 3.032
94.10000 1.388
94.12000 -0.049
94.14000 -1.081
94.16000 -0.895
94.18000 -1.035
94.20000 -1.861
94.22000 0.719
94.24000 1.043
94.26000 1.260
94.28000 2.546
94.30000 2.865
94.32000 6.992
94.34000 1.343
94.36000 -1.548
94.38000 -0.503
94.40000 0.004
94.42000 1.082
94.44000 4.515
94.46000 5.002
94.48000 2.418
94.50000 1.366
94.52000 1.587
94.54000 2.958
94.56000 2.053
94.58000 3.003
94.60000 5.801
94.62000 1.550
94.64000 -1.592
94.66000 -1.852
94.68000 -0.105
94.70000 -0.322
94.72000 5.146
94.74000 5.996
94.76000 6.795
94.78000 5.229
94.80000 6.614
94.82000 6.853
94.84000 4.766
94.86000 3.407
94.88000 2.583
94.90000 2.146
94.92000 2.548
94.94000 2.103
94.96000 2.478
94.98000 2.842
95.00000 2.070
95.02000 6.898
95.04000 4.568
95.06000 4.280
95.08000 0.305
95.10000 0.715
95.12000 4.619
95.14000 5.613
95.16000 8.011
95.18000 6.059
95.20000 2.620
95.22000 5.775
95.24000 6.699
95.26000 5.745
95.28000 1.772
95.30000 1.394
95.32000 0.765
95.34000 2.582
95.36000 3.744
95.38000 4.149
95.40000 -1.862
95.42000 -1.388
95.44000 7.059
95.46000 4.834
95.48000 4.177
95.50000 1.733
95.52000 2.313
95.54000 4.525
95.56000 5.330
95.58000 3.044
95.60000 2.250
95.62000 2.252
95.64000 4.400
95.66000 3.463
95.68000 1.945
95.70000 6.375
95.72000 0.812
95.74000 0.872
95.76000 -0.552
95.78000 2.069
95.80000 3.671
95.82000 3.929
95.84000 4.922
95.86000 4.537
95.88000 -0.282
95.90000 -0.059
95.92000 -0.624
95.94000 3.082
95.96000 5.257
95.98000 3.135
96.00000 3.026
96.02000 3.007
96.04000 -0.162
96.06000 0.363
96.08000 3.181
96.10000 2.218
96.12000 2.882
96.14000 1.067
96.16000 5.130
96.18000 4.411
96.20000 2.350
96.22000 2.873
96.24000 4.794
96.26000 -1.897
96.28000 2.846
96.30000 1.437
96.32000 3.276
96.34000 3.686
96.36000 5.465
96.38000 3.527
96.40000 -0.807
96.42000 -1.850
96.44000 0.252
96.46000 0.179
96.48000 3.694
96.50000 -0.796
96.52000 -0.958
96.54000 3.995
96.56000 5.883
96.58000 2.785
96.60000 3.580
96.62000 2.195
96.64000 1.895
96.66000 4.685
96.68000 0.807
96.70000 1.658
96.72000 3.070
96.74000 1.841
96.76000 1.926
96.78000 2.713
96.80000 3.557
96.82000 1.478
96.84000 4.117
96.86000 3.177
96.88000 -0.142
96.90000 -1.895
96.92000 0.690
96.94000 -1.201
96.96000 3.555
96.98000 3.710
97.00000 4.273
97.02000 1.260
97.04000 1.139
97.06000 0.454
97.08000 0.774
97.10000 2.872
97.12000 -0.017
97.14000 1.633
97.16000 6.399
97.18000 1.936
97.20000 1.617
97.22000 3.378
97.24000 5.683
97.26000 4.433
97.28000 0.425
97.30000 3.434
97.32000 5.370
97.34000 1.436
97.36000 -0.730
97.38000 -1.868
97.40000 1.146
97.42000 4.446
97.44000 5.538
97.46000 5.633
97.48000 1.326
97.50000 1.360
97.52000 4.629
97.54000 7.533
97.56000 3.134
97.58000 4.134
97.60000 6.268
97.62000 1.141
97.64000 0.144
97.66000 4.171
97.68000 2.717
97.70000 -1.434
97.72000 1.639
97.74000 0.459
97.76000 -1.834
97.78000 -1.273
97.80000 1.972
97.82000 2.191
97.84000 4.007
97.86000 5.872
97.88000 6.574
97.90000 4.837
97.92000 5.568
97.94000 0.225
97.96000 -1.829
97.98000 -0.833
98.00000 4.111
98.02000 6.735
98.04000 14.921
98.06000 7.925
98.08000 4.440
98.10000 2.982
98.12000 4.668
98.14000 0.154
98.16000 -1.238
98.18000 -1.822
98.20000 6.345
98.22000 9.767
98.24000 1.904
98.26000 0.780
98.28000 3.930
98.30000 7.190
98.32000 4.579
98.34000 3.059
98.36000 -0.883
98.38000 -1.821
98.40000 1.310
98.42000 5.960
98.44000 6.877
98.46000 10.750
98.48000 3.459
98.50000 6.234
98.52000 4.864
98.54000 3.570
98.56000 2.521
98.58000 6.159
98.60000 6.380
98.62000 2.208
98.64000 6.177
98.66000 6.071
98.68000 5.883
98.70000 1.447
98.72000 1.732
98.74000 2.261
98.76000 0.421
98.78000 8.327
98.80000 8.746
98.82000 6.790
98.84000 1.970
98.86000 0.634
98.88000 2.789
98.90000 4.842
98.92000 5.345
98.94000 3.901
98.96000 3.374
98.98000 9.428
99.00000 3.296
99.02000 -1.560
99.04000 4.389
99.06000 2.329
99.08000 1.055
99.10000 4.136
99.12000 6.674
99.14000 8.080
99.16000 7.572
99.18000 7.216
99.20000 2.477
99.22000 -1.803
99.24000 4.310
99.26000 10.334
99.28000 9.000
99.30000 11.188
99.32000 5.621
99.34000 3.527
99.36000 -1.352
99.38000 2.391
99.40000 1.873
99.42000 1.625
99.44000 -1.815
99.46000 3.777
99.48000 6.487
99.50000 3.716
99.52000 2.666
99.54000 3.478
99.56000 4.239
99.58000 5.219
99.60000 4.075
99.62000 4.954
99.64000 2.400
99.66000 6.486
99.68000 2.008
99.70000 1.193
99.72000 3.226
99.74000 2.194
99.76000 6.820
99.78000 9.141
99.80000 6.597
99.82000 1.623
99.84000 6.005
99.86000 1.623
99.88000 -1.735
99.90000 -1.834
99.92000 5.744
99.94000 4.111
99.96000 -2.079
99.98000 0.000
