'Id: "0011387" Comment: "Integrate frame 0011387_Au-Ir-Rh_Rh-rich_XRD-Mapping-194-0000.gfrmwith cursor Wedge Cursor #5" Operator: "B?rgel" Anode: "Cu" Wavelength: "1.5406" Scantype: "2Theta (TwoTheta)" TimePerStep: "1" X: "27" Y: "4.5" Z: "5.95" 
10.00000 0.000
10.02000 4.199
10.04000 -3.679
10.06000 -3.632
10.08000 3.572
10.10000 10.341
10.12000 6.781
10.14000 -4.061
10.16000 5.987
10.18000 15.640
10.20000 9.343
10.22000 10.868
10.24000 15.043
10.26000 15.629
10.28000 16.997
10.30000 15.617
10.32000 20.909
10.34000 13.625
10.36000 14.522
10.38000 7.986
10.40000 13.316
10.42000 20.661
10.44000 27.578
10.46000 12.214
10.48000 25.868
10.50000 24.991
10.52000 12.369
10.54000 6.728
10.56000 11.582
10.58000 14.122
10.60000 21.452
10.62000 26.235
10.64000 28.120
10.66000 14.352
10.68000 14.425
10.70000 22.729
10.72000 19.124
10.74000 26.985
10.76000 15.325
10.78000 12.022
10.80000 11.239
10.82000 16.029
10.84000 28.639
10.86000 26.426
10.88000 31.447
10.90000 32.230
10.92000 31.670
10.94000 25.144
10.96000 28.432
10.98000 29.043
11.00000 27.469
11.02000 34.799
11.04000 31.939
11.06000 29.475
11.08000 32.928
11.10000 27.346
11.12000 34.104
11.14000 41.501
11.16000 34.687
11.18000 32.625
11.20000 33.215
11.22000 32.581
11.24000 28.270
11.26000 36.090
11.28000 31.059
11.30000 23.565
11.32000 25.654
11.34000 30.408
11.36000 25.063
11.38000 25.916
11.40000 26.330
11.42000 29.828
11.44000 31.679
11.46000 28.623
11.48000 24.602
11.50000 27.207
11.52000 29.006
11.54000 24.048
11.56000 29.081
11.58000 30.666
11.60000 31.747
11.62000 42.852
11.64000 40.068
11.66000 34.258
11.68000 30.109
11.70000 25.424
11.72000 26.686
11.74000 24.299
11.76000 26.046
11.78000 23.122
11.80000 30.740
11.82000 29.140
11.84000 28.322
11.86000 43.771
11.88000 38.055
11.90000 33.030
11.92000 35.213
11.94000 42.261
11.96000 36.795
11.98000 40.735
12.00000 28.981
12.02000 26.046
12.04000 32.822
12.06000 33.861
12.08000 34.061
12.10000 36.055
12.12000 25.512
12.14000 23.505
12.16000 26.586
12.18000 22.964
12.20000 35.650
12.22000 45.279
12.24000 52.370
12.26000 39.559
12.28000 37.794
12.30000 38.751
12.32000 30.532
12.34000 37.196
12.36000 41.607
12.38000 40.049
12.40000 36.998
12.42000 28.127
12.44000 32.971
12.46000 35.823
12.48000 37.646
12.50000 41.194
12.52000 41.373
12.54000 34.467
12.56000 35.799
12.58000 39.386
12.60000 36.965
12.62000 33.463
12.64000 37.540
12.66000 32.867
12.68000 40.461
12.70000 34.757
12.72000 25.473
12.74000 30.258
12.76000 38.280
12.78000 41.418
12.80000 33.401
12.82000 33.408
12.84000 27.555
12.86000 30.175
12.88000 39.572
12.90000 42.308
12.92000 32.140
12.94000 40.062
12.96000 41.789
12.98000 42.518
13.00000 36.313
13.02000 21.939
13.04000 35.419
13.06000 42.607
13.08000 35.128
13.10000 34.011
13.12000 34.590
13.14000 36.918
13.16000 40.925
13.18000 38.255
13.20000 45.180
13.22000 40.663
13.24000 28.370
13.26000 26.894
13.28000 33.458
13.30000 39.821
13.32000 44.417
13.34000 43.049
13.36000 34.643
13.38000 37.595
13.40000 44.105
13.42000 37.319
13.44000 28.742
13.46000 31.544
13.48000 32.505
13.50000 33.401
13.52000 29.964
13.54000 24.508
13.56000 20.326
13.58000 25.031
13.60000 22.965
13.62000 24.093
13.64000 28.360
13.66000 30.395
13.68000 32.238
13.70000 30.168
13.72000 25.823
13.74000 11.203
13.76000 22.108
13.78000 27.510
13.80000 23.004
13.82000 34.739
13.84000 24.880
13.86000 23.381
13.88000 23.894
13.90000 32.995
13.92000 33.601
13.94000 23.888
13.96000 24.947
13.98000 26.536
14.00000 23.133
14.02000 28.285
14.04000 26.627
14.06000 32.644
14.08000 23.110
14.10000 25.132
14.12000 33.027
14.14000 26.251
14.16000 23.443
14.18000 17.860
14.20000 18.165
14.22000 30.301
14.24000 34.989
14.26000 37.712
14.28000 26.947
14.30000 25.449
14.32000 25.835
14.34000 23.257
14.36000 21.778
14.38000 28.040
14.40000 21.313
14.42000 14.479
14.44000 32.713
14.46000 31.139
14.48000 22.564
14.50000 21.835
14.52000 23.070
14.54000 13.509
14.56000 26.843
14.58000 24.473
14.60000 14.777
14.62000 21.863
14.64000 25.647
14.66000 24.955
14.68000 21.938
14.70000 21.918
14.72000 15.575
14.74000 9.581
14.76000 24.120
14.78000 21.861
14.80000 17.374
14.82000 18.003
14.84000 21.579
14.86000 16.948
14.88000 21.764
14.90000 16.963
14.92000 20.411
14.94000 20.148
14.96000 18.848
14.98000 17.193
15.00000 17.384
15.02000 11.952
15.04000 6.447
15.06000 16.461
15.08000 20.058
15.10000 15.363
15.12000 17.189
15.14000 20.422
15.16000 10.244
15.18000 25.192
15.20000 28.750
15.22000 9.946
15.24000 10.296
15.26000 17.718
15.28000 20.780
15.30000 15.213
15.32000 23.155
15.34000 23.882
15.36000 18.679
15.38000 22.974
15.40000 22.212
15.42000 14.979
15.44000 13.394
15.46000 16.625
15.48000 12.383
15.50000 12.899
15.52000 22.600
15.54000 22.480
15.56000 15.079
15.58000 16.455
15.60000 24.199
15.62000 19.143
15.64000 19.488
15.66000 16.247
15.68000 17.078
15.70000 20.095
15.72000 16.547
15.74000 11.706
15.76000 7.858
15.78000 15.295
15.80000 14.285
15.82000 14.792
15.84000 13.123
15.86000 12.353
15.88000 8.820
15.90000 17.056
15.92000 21.355
15.94000 15.811
15.96000 9.797
15.98000 20.780
16.00000 12.794
16.02000 7.814
16.04000 15.307
16.06000 15.323
16.08000 13.758
16.10000 13.469
16.12000 10.043
16.14000 10.285
16.16000 16.008
16.18000 16.775
16.20000 9.928
16.22000 10.667
16.24000 11.872
16.26000 14.676
16.28000 17.983
16.30000 12.711
16.32000 14.619
16.34000 19.031
16.36000 10.023
16.38000 10.256
16.40000 7.140
16.42000 4.425
16.44000 7.532
16.46000 8.691
16.48000 14.540
16.50000 10.100
16.52000 12.546
16.54000 9.316
16.56000 12.311
16.58000 10.275
16.60000 16.241
16.62000 8.804
16.64000 9.333
16.66000 9.780
16.68000 12.314
16.70000 14.962
16.72000 12.761
16.74000 12.542
16.76000 11.891
16.78000 2.119
16.80000 9.300
16.82000 10.627
16.84000 12.960
16.86000 11.112
16.88000 11.139
16.90000 12.363
16.92000 9.425
16.94000 8.069
16.96000 5.495
16.98000 2.485
17.00000 6.695
17.02000 6.923
17.04000 1.661
17.06000 5.223
17.08000 14.926
17.10000 14.354
17.12000 14.055
17.14000 9.125
17.16000 12.849
17.18000 11.597
17.20000 5.319
17.22000 7.916
17.24000 13.223
17.26000 12.920
17.28000 12.523
17.30000 8.513
17.32000 7.300
17.34000 11.638
17.36000 9.366
17.38000 10.881
17.40000 3.722
17.42000 7.763
17.44000 20.001
17.46000 13.258
17.48000 9.580
17.50000 6.206
17.52000 8.458
17.54000 13.331
17.56000 8.058
17.58000 9.021
17.60000 8.329
17.62000 7.209
17.64000 13.529
17.66000 13.346
17.68000 8.235
17.70000 0.361
17.72000 -3.361
17.74000 4.503
17.76000 4.897
17.78000 7.823
17.80000 4.564
17.82000 2.279
17.84000 4.326
17.86000 6.093
17.88000 9.802
17.90000 8.837
17.92000 10.240
17.94000 8.058
17.96000 6.075
17.98000 3.480
18.00000 9.833
18.02000 13.516
18.04000 9.010
18.06000 8.959
18.08000 3.154
18.10000 1.441
18.12000 7.546
18.14000 5.068
18.16000 0.844
18.18000 9.584
18.20000 3.757
18.22000 -0.412
18.24000 -0.513
18.26000 5.842
18.28000 4.522
18.30000 7.531
18.32000 8.188
18.34000 1.370
18.36000 -1.444
18.38000 -2.528
18.40000 2.910
18.42000 9.283
18.44000 9.380
18.46000 11.297
18.48000 6.115
18.50000 9.895
18.52000 12.250
18.54000 12.657
18.56000 9.275
18.58000 2.361
18.60000 -0.176
18.62000 4.730
18.64000 1.664
18.66000 4.091
18.68000 8.496
18.70000 4.878
18.72000 2.916
18.74000 3.233
18.76000 4.107
18.78000 4.804
18.80000 8.769
18.82000 11.636
18.84000 8.818
18.86000 8.402
18.88000 0.120
18.90000 2.280
18.92000 5.075
18.94000 3.666
18.96000 3.921
18.98000 9.780
19.00000 10.118
19.02000 8.527
19.04000 7.435
19.06000 9.777
19.08000 9.792
19.10000 5.949
19.12000 5.067
19.14000 -4.258
19.16000 -3.750
19.18000 -1.632
19.20000 4.853
19.22000 13.875
19.24000 8.444
19.26000 5.350
19.28000 7.781
19.30000 9.283
19.32000 5.869
19.34000 7.151
19.36000 6.125
19.38000 6.138
19.40000 7.270
19.42000 0.768
19.44000 -3.710
19.46000 -4.241
19.48000 2.848
19.50000 8.908
19.52000 4.767
19.54000 10.078
19.56000 9.850
19.58000 3.019
19.60000 3.538
19.62000 2.993
19.64000 6.479
19.66000 10.199
19.68000 9.563
19.70000 0.517
19.72000 2.436
19.74000 6.489
19.76000 7.874
19.78000 3.659
19.80000 -1.840
19.82000 1.482
19.84000 5.418
19.86000 12.743
19.88000 10.469
19.90000 6.616
19.92000 6.883
19.94000 14.359
19.96000 6.823
19.98000 2.947
20.00000 4.420
20.02000 0.958
20.04000 -4.211
20.06000 0.864
20.08000 5.076
20.10000 2.289
20.12000 5.661
20.14000 7.578
20.16000 10.975
20.18000 14.252
20.20000 13.703
20.22000 6.714
20.24000 3.842
20.26000 4.527
20.28000 -0.864
20.30000 3.878
20.32000 6.851
20.34000 4.232
20.36000 4.324
20.38000 5.847
20.40000 5.732
20.42000 5.163
20.44000 5.605
20.46000 2.023
20.48000 -1.988
20.50000 0.466
20.52000 2.382
20.54000 1.298
20.56000 4.759
20.58000 1.450
20.60000 12.087
20.62000 14.036
20.64000 6.993
20.66000 -0.220
20.68000 0.434
20.70000 3.536
20.72000 1.669
20.74000 -2.625
20.76000 0.332
20.78000 4.248
20.80000 10.270
20.82000 7.420
20.84000 -0.266
20.86000 3.075
20.88000 4.571
20.90000 3.193
20.92000 1.718
20.94000 -3.061
20.96000 -2.954
20.98000 3.820
21.00000 0.869
21.02000 1.602
21.04000 3.646
21.06000 3.858
21.08000 0.539
21.10000 -0.945
21.12000 2.054
21.14000 5.157
21.16000 3.449
21.18000 2.060
21.20000 2.786
21.22000 2.372
21.24000 0.643
21.26000 8.225
21.28000 11.352
21.30000 10.008
21.32000 3.957
21.34000 4.397
21.36000 4.618
21.38000 -1.876
21.40000 7.683
21.42000 8.138
21.44000 6.179
21.46000 6.547
21.48000 7.459
21.50000 6.407
21.52000 4.011
21.54000 4.968
21.56000 4.760
21.58000 0.991
21.60000 7.646
21.62000 6.282
21.64000 7.429
21.66000 0.930
21.68000 -3.428
21.70000 0.405
21.72000 2.573
21.74000 8.207
21.76000 8.095
21.78000 7.788
21.80000 8.135
21.82000 8.150
21.84000 0.595
21.86000 2.183
21.88000 3.545
21.90000 4.108
21.92000 8.562
21.94000 5.357
21.96000 -2.556
21.98000 4.364
22.00000 6.259
22.02000 5.690
22.04000 2.839
22.06000 -1.254
22.08000 -4.114
22.10000 -2.500
22.12000 5.246
22.14000 7.293
22.16000 2.933
22.18000 -0.198
22.20000 1.796
22.22000 10.167
22.24000 10.147
22.26000 3.071
22.28000 2.430
22.30000 -1.653
22.32000 0.374
22.34000 3.394
22.36000 11.219
22.38000 12.108
22.40000 8.359
22.42000 9.636
22.44000 6.062
22.46000 -1.527
22.48000 -0.602
22.50000 4.409
22.52000 6.454
22.54000 3.608
22.56000 -4.090
22.58000 1.217
22.60000 3.476
22.62000 9.686
22.64000 7.480
22.66000 8.899
22.68000 6.230
22.70000 6.903
22.72000 8.201
22.74000 7.410
22.76000 8.151
22.78000 5.523
22.80000 6.787
22.82000 6.962
22.84000 6.386
22.86000 4.417
22.88000 2.021
22.90000 7.897
22.92000 5.852
22.94000 5.759
22.96000 7.681
22.98000 0.971
23.00000 -0.011
23.02000 1.303
23.04000 2.536
23.06000 7.369
23.08000 7.957
23.10000 2.103
23.12000 3.658
23.14000 6.579
23.16000 5.778
23.18000 -3.316
23.20000 -3.109
23.22000 -1.742
23.24000 2.261
23.26000 5.440
23.28000 2.543
23.30000 2.812
23.32000 -0.322
23.34000 2.534
23.36000 2.947
23.38000 3.890
23.40000 4.324
23.42000 6.437
23.44000 8.098
23.46000 9.101
23.48000 0.516
23.50000 3.316
23.52000 0.678
23.54000 4.204
23.56000 4.237
23.58000 3.569
23.60000 5.507
23.62000 7.550
23.64000 5.530
23.66000 8.640
23.68000 5.071
23.70000 3.203
23.72000 -0.677
23.74000 -1.893
23.76000 2.329
23.78000 3.173
23.80000 2.600
23.82000 4.338
23.84000 3.778
23.86000 1.137
23.88000 -4.023
23.90000 1.280
23.92000 2.316
23.94000 -1.288
23.96000 -0.587
23.98000 3.278
24.00000 4.253
24.02000 6.869
24.04000 5.223
24.06000 1.068
24.08000 -2.222
24.10000 -1.051
24.12000 0.780
24.14000 -1.641
24.16000 0.004
24.18000 5.230
24.20000 8.286
24.22000 6.878
24.24000 -0.096
24.26000 -4.005
24.28000 0.374
24.30000 8.529
24.32000 0.827
24.34000 -1.537
24.36000 4.936
24.38000 4.330
24.40000 2.788
24.42000 2.392
24.44000 -1.689
24.46000 -0.924
24.48000 -0.681
24.50000 0.101
24.52000 0.994
24.54000 4.119
24.56000 6.467
24.58000 9.620
24.60000 5.188
24.62000 2.792
24.64000 7.156
24.66000 0.436
24.68000 -1.060
24.70000 7.439
24.72000 2.040
24.74000 0.800
24.76000 4.386
24.78000 1.503
24.80000 0.550
24.82000 0.536
24.84000 -0.642
24.86000 2.207
24.88000 5.844
24.90000 6.482
24.92000 6.825
24.94000 0.848
24.96000 5.175
24.98000 5.251
25.00000 1.195
25.02000 -1.392
25.04000 0.942
25.06000 2.857
25.08000 -0.279
25.10000 -3.011
25.12000 1.537
25.14000 -2.304
25.16000 -3.455
25.18000 -1.424
25.20000 0.433
25.22000 -0.286
25.24000 0.792
25.26000 -1.620
25.28000 0.119
25.30000 -0.689
25.32000 4.956
25.34000 7.931
25.36000 1.897
25.38000 -2.722
25.40000 -1.562
25.42000 3.422
25.44000 4.281
25.46000 -2.052
25.48000 -0.064
25.50000 -2.724
25.52000 -3.679
25.54000 -3.926
25.56000 -3.574
25.58000 -1.503
25.60000 2.141
25.62000 3.498
25.64000 -3.007
25.66000 1.713
25.68000 2.169
25.70000 3.326
25.72000 1.853
25.74000 2.885
25.76000 3.012
25.78000 -0.955
25.80000 -1.479
25.82000 0.420
25.84000 3.979
25.86000 5.682
25.88000 3.120
25.90000 -2.899
25.92000 0.097
25.94000 2.994
25.96000 2.726
25.98000 -0.169
26.00000 2.173
26.02000 2.986
26.04000 -0.556
26.06000 -0.256
26.08000 0.622
26.10000 1.248
26.12000 2.247
26.14000 -2.957
26.16000 -0.324
26.18000 2.090
26.20000 3.657
26.22000 4.421
26.24000 5.061
26.26000 3.900
26.28000 2.664
26.30000 3.671
26.32000 0.013
26.34000 4.150
26.36000 5.894
26.38000 4.386
26.40000 -0.253
26.42000 -1.583
26.44000 -1.169
26.46000 -1.341
26.48000 -3.746
26.50000 0.414
26.52000 4.689
26.54000 6.690
26.56000 7.392
26.58000 4.505
26.60000 0.589
26.62000 1.639
26.64000 1.961
26.66000 5.703
26.68000 -0.802
26.70000 -3.880
26.72000 -3.739
26.74000 -3.229
26.76000 1.031
26.78000 3.670
26.80000 1.766
26.82000 3.538
26.84000 4.563
26.86000 2.561
26.88000 -2.223
26.90000 -3.223
26.92000 -0.524
26.94000 2.460
26.96000 2.291
26.98000 -1.355
27.00000 2.377
27.02000 1.122
27.04000 -3.053
27.06000 0.461
27.08000 -1.148
27.10000 0.703
27.12000 -0.047
27.14000 3.774
27.16000 7.645
27.18000 2.507
27.20000 -0.097
27.22000 0.919
27.24000 0.796
27.26000 -0.912
27.28000 -1.065
27.30000 0.965
27.32000 5.932
27.34000 7.971
27.36000 5.349
27.38000 -1.701
27.40000 1.567
27.42000 1.646
27.44000 2.095
27.46000 3.499
27.48000 3.169
27.50000 7.843
27.52000 4.099
27.54000 4.350
27.56000 5.072
27.58000 7.356
27.60000 6.871
27.62000 5.445
27.64000 -1.267
27.66000 4.593
27.68000 5.993
27.70000 0.842
27.72000 4.231
27.74000 5.927
27.76000 4.033
27.78000 1.978
27.80000 8.434
27.82000 8.454
27.84000 7.519
27.86000 7.085
27.88000 3.356
27.90000 4.022
27.92000 2.642
27.94000 -2.097
27.96000 -1.111
27.98000 -0.720
28.00000 5.362
28.02000 7.508
28.04000 5.693
28.06000 4.984
28.08000 2.601
28.10000 0.541
28.12000 3.847
28.14000 3.664
28.16000 0.487
28.18000 5.757
28.20000 5.573
28.22000 1.299
28.24000 4.616
28.26000 -3.445
28.28000 -3.757
28.30000 2.445
28.32000 4.766
28.34000 8.529
28.36000 7.026
28.38000 7.037
28.40000 5.833
28.42000 7.796
28.44000 7.724
28.46000 8.127
28.48000 15.307
28.50000 11.067
28.52000 1.060
28.54000 2.554
28.56000 2.520
28.58000 5.820
28.60000 8.147
28.62000 3.322
28.64000 5.201
28.66000 3.677
28.68000 2.758
28.70000 0.119
28.72000 -0.347
28.74000 -0.416
28.76000 -0.336
28.78000 1.880
28.80000 8.545
28.82000 6.337
28.84000 2.188
28.86000 3.029
28.88000 3.293
28.90000 0.023
28.92000 -0.442
28.94000 1.489
28.96000 -0.319
28.98000 4.739
29.00000 3.967
29.02000 4.231
29.04000 5.189
29.06000 3.608
29.08000 1.065
29.10000 4.241
29.12000 2.126
29.14000 2.409
29.16000 2.837
29.18000 7.770
29.20000 8.374
29.22000 5.175
29.24000 -0.748
29.26000 3.882
29.28000 4.973
29.30000 4.757
29.32000 4.186
29.34000 1.914
29.36000 1.392
29.38000 -2.439
29.40000 -3.714
29.42000 -0.093
29.44000 0.144
29.46000 4.421
29.48000 4.425
29.50000 3.206
29.52000 7.361
29.54000 7.581
29.56000 8.810
29.58000 8.666
29.60000 3.728
29.62000 6.500
29.64000 7.240
29.66000 9.696
29.68000 4.851
29.70000 3.938
29.72000 1.813
29.74000 -1.713
29.76000 5.348
29.78000 1.626
29.80000 -3.678
29.82000 0.535
29.84000 4.531
29.86000 5.044
29.88000 4.717
29.90000 0.466
29.92000 0.623
29.94000 6.158
29.96000 5.188
29.98000 1.136
30.00000 3.438
30.02000 2.531
30.04000 0.218
30.06000 -1.127
30.08000 4.611
30.10000 2.998
30.12000 -0.968
30.14000 1.822
30.16000 3.628
30.18000 5.725
30.20000 2.854
30.22000 3.877
30.24000 6.001
30.26000 0.584
30.28000 -0.162
30.30000 3.591
30.32000 8.293
30.34000 5.510
30.36000 4.872
30.38000 6.622
30.40000 6.780
30.42000 6.027
30.44000 9.400
30.46000 9.147
30.48000 6.401
30.50000 4.060
30.52000 3.189
30.54000 2.154
30.56000 5.184
30.58000 10.819
30.60000 14.215
30.62000 8.151
30.64000 5.781
30.66000 5.747
30.68000 6.772
30.70000 11.508
30.72000 6.916
30.74000 6.410
30.76000 10.575
30.78000 8.497
30.80000 6.668
30.82000 -0.753
30.84000 -3.603
30.86000 1.987
30.88000 2.600
30.90000 2.407
30.92000 0.087
30.94000 2.439
30.96000 6.732
30.98000 7.999
31.00000 4.362
31.02000 3.663
31.04000 0.706
31.06000 0.584
31.08000 6.857
31.10000 1.705
31.12000 0.386
31.14000 3.656
31.16000 3.582
31.18000 3.349
31.20000 8.121
31.22000 11.452
31.24000 14.438
31.26000 9.319
31.28000 3.039
31.30000 1.083
31.32000 3.794
31.34000 3.211
31.36000 7.159
31.38000 6.448
31.40000 3.587
31.42000 5.799
31.44000 3.041
31.46000 1.783
31.48000 6.296
31.50000 7.719
31.52000 6.554
31.54000 6.521
31.56000 1.608
31.58000 2.551
31.60000 8.660
31.62000 7.621
31.64000 4.796
31.66000 9.453
31.68000 2.870
31.70000 1.864
31.72000 1.009
31.74000 3.015
31.76000 -2.983
31.78000 -1.829
31.80000 2.793
31.82000 4.266
31.84000 5.983
31.86000 3.453
31.88000 -0.641
31.90000 0.969
31.92000 4.545
31.94000 5.462
31.96000 6.791
31.98000 2.365
32.00000 3.737
32.02000 2.727
32.04000 0.233
32.06000 2.355
32.08000 4.435
32.10000 1.929
32.12000 -0.304
32.14000 -1.532
32.16000 4.346
32.18000 3.351
32.20000 3.664
32.22000 2.356
32.24000 8.598
32.26000 5.421
32.28000 2.904
32.30000 3.785
32.32000 -0.011
32.34000 6.781
32.36000 0.161
32.38000 0.213
32.40000 0.634
32.42000 1.293
32.44000 0.064
32.46000 1.758
32.48000 5.302
32.50000 2.762
32.52000 4.270
32.54000 3.379
32.56000 -0.163
32.58000 -2.056
32.60000 -3.578
32.62000 -1.574
32.64000 0.223
32.66000 0.177
32.68000 3.716
32.70000 8.547
32.72000 -0.713
32.74000 -1.457
32.76000 0.650
32.78000 1.102
32.80000 2.566
32.82000 4.462
32.84000 4.660
32.86000 5.097
32.88000 1.890
32.90000 2.757
32.92000 -0.051
32.94000 -0.437
32.96000 1.310
32.98000 4.399
33.00000 3.334
33.02000 0.108
33.04000 5.208
33.06000 2.844
33.08000 -0.016
33.10000 -3.221
33.12000 -0.107
33.14000 1.424
33.16000 -1.078
33.18000 -0.589
33.20000 3.277
33.22000 0.013
33.24000 -0.069
33.26000 -0.965
33.28000 -0.672
33.30000 1.343
33.32000 4.660
33.34000 -2.228
33.36000 0.630
33.38000 2.398
33.40000 -0.054
33.42000 3.594
33.44000 9.012
33.46000 7.866
33.48000 1.731
33.50000 2.010
33.52000 2.356
33.54000 1.415
33.56000 4.805
33.58000 6.625
33.60000 0.672
33.62000 1.775
33.64000 6.561
33.66000 3.278
33.68000 2.316
33.70000 -1.506
33.72000 -2.639
33.74000 0.334
33.76000 -3.580
33.78000 0.903
33.80000 2.561
33.82000 0.950
33.84000 -1.256
33.86000 2.471
33.88000 4.991
33.90000 0.534
33.92000 0.147
33.94000 -0.084
33.96000 1.544
33.98000 -0.202
34.00000 -0.199
34.02000 2.929
34.04000 1.205
34.06000 0.629
34.08000 0.443
34.10000 1.436
34.12000 5.533
34.14000 5.703
34.16000 5.586
34.18000 2.205
34.20000 -1.494
34.22000 -2.120
34.24000 -0.490
34.26000 2.255
34.28000 3.010
34.30000 -0.692
34.32000 0.699
34.34000 -2.966
34.36000 1.710
34.38000 3.905
34.40000 4.267
34.42000 1.656
34.44000 1.197
34.46000 2.957
34.48000 -0.445
34.50000 0.958
34.52000 2.567
34.54000 0.830
34.56000 4.042
34.58000 5.734
34.60000 3.818
34.62000 1.820
34.64000 0.516
34.66000 -0.698
34.68000 -1.594
34.70000 0.352
34.72000 4.251
34.74000 2.965
34.76000 -3.064
34.78000 -3.529
34.80000 6.254
34.82000 7.840
34.84000 -1.194
34.86000 -1.074
34.88000 0.053
34.90000 -0.730
34.92000 1.054
34.94000 4.045
34.96000 7.118
34.98000 5.473
35.00000 5.771
35.02000 5.663
35.04000 3.197
35.06000 -0.294
35.08000 -1.573
35.10000 -1.977
35.12000 1.512
35.14000 -3.504
35.16000 -1.564
35.18000 3.741
35.20000 2.385
35.22000 0.217
35.24000 1.066
35.26000 4.840
35.28000 8.956
35.30000 8.998
35.32000 7.229
35.34000 7.006
35.36000 4.952
35.38000 -1.907
35.40000 5.617
35.42000 6.730
35.44000 3.070
35.46000 -1.597
35.48000 3.052
35.50000 3.606
35.52000 3.494
35.54000 2.504
35.56000 -0.057
35.58000 4.359
35.60000 2.379
35.62000 -1.291
35.64000 3.255
35.66000 7.229
35.68000 -1.238
35.70000 1.438
35.72000 7.969
35.74000 2.689
35.76000 5.440
35.78000 7.712
35.80000 0.690
35.82000 0.040
35.84000 4.258
35.86000 2.421
35.88000 3.638
35.90000 3.072
35.92000 6.958
35.94000 5.782
35.96000 4.167
35.98000 4.952
36.00000 6.126
36.02000 3.689
36.04000 1.334
36.06000 -0.080
36.08000 -3.507
36.10000 -1.285
36.12000 3.149
36.14000 0.465
36.16000 1.306
36.18000 3.345
36.20000 1.085
36.22000 4.633
36.24000 5.970
36.26000 3.934
36.28000 5.176
36.30000 2.266
36.32000 5.078
36.34000 4.460
36.36000 3.271
36.38000 1.708
36.40000 0.910
36.42000 0.042
36.44000 -2.092
36.46000 2.025
36.48000 3.069
36.50000 5.449
36.52000 -0.687
36.54000 -3.519
36.56000 -1.188
36.58000 4.031
36.60000 3.763
36.62000 4.399
36.64000 1.127
36.66000 2.218
36.68000 -0.673
36.70000 1.346
36.72000 2.001
36.74000 4.889
36.76000 2.856
36.78000 1.211
36.80000 2.548
36.82000 8.360
36.84000 1.268
36.86000 -3.530
36.88000 1.543
36.90000 6.851
36.92000 6.174
36.94000 8.478
36.96000 3.861
36.98000 1.462
37.00000 3.327
37.02000 -2.704
37.04000 -0.349
37.06000 -1.457
37.08000 3.365
37.10000 5.660
37.12000 3.204
37.14000 4.241
37.16000 0.147
37.18000 0.655
37.20000 2.655
37.22000 1.701
37.24000 2.894
37.26000 3.793
37.28000 2.569
37.30000 0.055
37.32000 -3.543
37.34000 0.969
37.36000 -3.509
37.38000 3.058
37.40000 3.781
37.42000 7.508
37.44000 5.293
37.46000 1.571
37.48000 0.333
37.50000 -0.541
37.52000 -0.818
37.54000 0.913
37.56000 4.203
37.58000 5.493
37.60000 5.659
37.62000 5.998
37.64000 3.503
37.66000 -0.599
37.68000 2.580
37.70000 3.241
37.72000 5.890
37.74000 4.805
37.76000 2.464
37.78000 8.615
37.80000 1.687
37.82000 0.356
37.84000 6.702
37.86000 5.927
37.88000 4.334
37.90000 1.896
37.92000 2.125
37.94000 3.143
37.96000 3.332
37.98000 4.725
38.00000 7.402
38.02000 13.558
38.04000 8.111
38.06000 5.484
38.08000 10.911
38.10000 10.810
38.12000 17.860
38.14000 12.790
38.16000 8.363
38.18000 6.834
38.20000 9.596
38.22000 11.503
38.24000 10.939
38.26000 13.296
38.28000 11.910
38.30000 16.321
38.32000 14.938
38.34000 11.177
38.36000 11.361
38.38000 17.558
38.40000 15.179
38.42000 16.041
38.44000 15.161
38.46000 17.786
38.48000 15.879
38.50000 17.257
38.52000 16.179
38.54000 14.803
38.56000 13.556
38.58000 17.749
38.60000 18.972
38.62000 18.753
38.64000 18.045
38.66000 18.713
38.68000 19.868
38.70000 25.660
38.72000 26.678
38.74000 22.239
38.76000 20.804
38.78000 27.220
38.80000 24.438
38.82000 21.084
38.84000 21.421
38.86000 22.591
38.88000 22.562
38.90000 21.695
38.92000 24.649
38.94000 21.149
38.96000 29.478
38.98000 29.749
39.00000 31.191
39.02000 36.004
39.04000 35.926
39.06000 34.513
39.08000 35.639
39.10000 42.369
39.12000 44.906
39.14000 39.519
39.16000 41.523
39.18000 42.603
39.20000 44.776
39.22000 49.436
39.24000 52.694
39.26000 52.833
39.28000 59.157
39.30000 57.162
39.32000 59.759
39.34000 61.008
39.36000 65.080
39.38000 68.290
39.40000 76.607
39.42000 82.670
39.44000 78.242
39.46000 79.170
39.48000 81.461
39.50000 88.350
39.52000 100.442
39.54000 103.109
39.56000 103.346
39.58000 107.919
39.60000 113.232
39.62000 118.402
39.64000 121.933
39.66000 127.746
39.68000 130.105
39.70000 144.465
39.72000 154.009
39.74000 162.542
39.76000 171.751
39.78000 175.193
39.80000 179.306
39.82000 189.539
39.84000 207.994
39.86000 228.903
39.88000 240.693
39.90000 253.243
39.92000 266.184
39.94000 272.438
39.96000 294.884
39.98000 307.386
40.00000 322.391
40.02000 339.404
40.04000 357.657
40.06000 371.822
40.08000 389.865
40.10000 402.979
40.12000 417.607
40.14000 442.406
40.16000 465.998
40.18000 478.974
40.20000 492.291
40.22000 508.028
40.24000 528.091
40.26000 541.590
40.28000 558.284
40.30000 562.451
40.32000 571.851
40.34000 588.352
40.36000 597.905
40.38000 602.319
40.40000 601.981
40.42000 597.425
40.44000 602.971
40.46000 596.743
40.48000 595.527
40.50000 587.432
40.52000 579.098
40.54000 568.542
40.56000 565.905
40.58000 543.416
40.60000 535.755
40.62000 516.439
40.64000 509.888
40.66000 497.046
40.68000 475.387
40.70000 463.063
40.72000 441.319
40.74000 432.009
40.76000 412.807
40.78000 396.110
40.80000 384.237
40.82000 369.527
40.84000 351.457
40.86000 322.814
40.88000 305.504
40.90000 291.134
40.92000 282.401
40.94000 273.417
40.96000 256.971
40.98000 248.776
41.00000 237.915
41.02000 218.939
41.04000 207.991
41.06000 192.371
41.08000 187.420
41.10000 175.562
41.12000 159.058
41.14000 155.286
41.16000 145.555
41.18000 141.024
41.20000 134.811
41.22000 130.231
41.24000 121.515
41.26000 111.643
41.28000 104.835
41.30000 101.481
41.32000 96.216
41.34000 95.645
41.36000 95.510
41.38000 90.220
41.40000 80.645
41.42000 82.840
41.44000 75.003
41.46000 66.445
41.48000 63.934
41.50000 65.045
41.52000 66.254
41.54000 62.915
41.56000 54.765
41.58000 54.367
41.60000 54.221
41.62000 45.663
41.64000 44.427
41.66000 48.026
41.68000 43.306
41.70000 39.571
41.72000 40.655
41.74000 33.405
41.76000 36.196
41.78000 28.378
41.80000 29.450
41.82000 33.719
41.84000 29.854
41.86000 26.533
41.88000 23.594
41.90000 23.420
41.92000 21.079
41.94000 18.715
41.96000 14.962
41.98000 14.905
42.00000 12.475
42.02000 15.776
42.04000 15.164
42.06000 14.082
42.08000 14.017
42.10000 13.619
42.12000 10.950
42.14000 10.247
42.16000 11.725
42.18000 10.953
42.20000 12.707
42.22000 12.893
42.24000 10.758
42.26000 9.835
42.28000 8.987
42.30000 6.004
42.32000 7.185
42.34000 7.606
42.36000 9.791
42.38000 9.763
42.40000 7.053
42.42000 4.219
42.44000 7.680
42.46000 9.584
42.48000 7.816
42.50000 6.613
42.52000 6.739
42.54000 9.108
42.56000 5.722
42.58000 5.194
42.60000 6.230
42.62000 -2.931
42.64000 -3.539
42.66000 -2.333
42.68000 0.866
42.70000 0.252
42.72000 1.350
42.74000 1.781
42.76000 5.504
42.78000 6.137
42.80000 4.410
42.82000 2.788
42.84000 1.020
42.86000 -2.202
42.88000 0.424
42.90000 1.845
42.92000 1.812
42.94000 -1.779
42.96000 0.557
42.98000 0.783
43.00000 3.228
43.02000 1.710
43.04000 1.336
43.06000 1.969
43.08000 -0.234
43.10000 0.813
43.12000 -1.907
43.14000 1.219
43.16000 3.345
43.18000 0.919
43.20000 2.300
43.22000 -0.558
43.24000 -1.884
43.26000 0.203
43.28000 2.239
43.30000 -1.926
43.32000 1.011
43.34000 0.529
43.36000 2.934
43.38000 -0.751
43.40000 1.361
43.42000 0.799
43.44000 -0.018
43.46000 1.902
43.48000 3.572
43.50000 1.362
43.52000 0.867
43.54000 -3.407
43.56000 -3.404
43.58000 3.078
43.60000 1.974
43.62000 1.413
43.64000 0.777
43.66000 2.360
43.68000 -0.707
43.70000 0.013
43.72000 6.176
43.74000 5.646
43.76000 1.741
43.78000 3.040
43.80000 1.596
43.82000 -1.287
43.84000 -0.439
43.86000 0.826
43.88000 1.730
43.90000 -0.234
43.92000 0.478
43.94000 0.579
43.96000 -0.085
43.98000 -1.033
44.00000 3.604
44.02000 3.795
44.04000 5.621
44.06000 4.480
44.08000 3.800
44.10000 3.182
44.12000 -0.629
44.14000 -3.354
44.16000 -2.057
44.18000 1.008
44.20000 -0.971
44.22000 -1.828
44.24000 3.087
44.26000 5.142
44.28000 3.180
44.30000 2.039
44.32000 3.229
44.34000 1.027
44.36000 3.424
44.38000 6.021
44.40000 0.447
44.42000 -2.356
44.44000 -1.770
44.46000 0.916
44.48000 4.921
44.50000 7.760
44.52000 5.315
44.54000 1.316
44.56000 1.993
44.58000 3.163
44.60000 0.180
44.62000 -3.338
44.64000 -0.384
44.66000 1.829
44.68000 3.093
44.70000 3.842
44.72000 1.641
44.74000 -0.876
44.76000 5.062
44.78000 1.773
44.80000 -0.070
44.82000 2.390
44.84000 5.873
44.86000 6.508
44.88000 6.453
44.90000 3.822
44.92000 1.934
44.94000 1.411
44.96000 -0.428
44.98000 0.380
45.00000 2.749
45.02000 2.871
45.04000 3.977
45.06000 1.972
45.08000 -0.239
45.10000 0.067
45.12000 1.401
45.14000 5.624
45.16000 4.743
45.18000 4.280
45.20000 -0.676
45.22000 1.622
45.24000 3.397
45.26000 5.459
45.28000 6.659
45.30000 9.827
45.32000 8.744
45.34000 6.433
45.36000 5.170
45.38000 5.435
45.40000 1.921
45.42000 0.140
45.44000 6.952
45.46000 10.132
45.48000 9.518
45.50000 10.283
45.52000 13.799
45.54000 8.770
45.56000 4.665
45.58000 11.787
45.60000 13.292
45.62000 15.464
45.64000 17.266
45.66000 12.617
45.68000 11.647
45.70000 14.524
45.72000 16.134
45.74000 15.598
45.76000 20.230
45.78000 19.053
45.80000 17.608
45.82000 21.662
45.84000 17.785
45.86000 17.239
45.88000 16.944
45.90000 21.427
45.92000 20.750
45.94000 23.435
45.96000 24.396
45.98000 26.007
46.00000 18.704
46.02000 24.088
46.04000 26.459
46.06000 27.392
46.08000 31.060
46.10000 33.800
46.12000 30.077
46.14000 29.268
46.16000 29.335
46.18000 40.042
46.20000 40.888
46.22000 38.222
46.24000 42.367
46.26000 45.053
46.28000 44.883
46.30000 45.895
46.32000 45.905
46.34000 50.448
46.36000 48.804
46.38000 51.064
46.40000 54.715
46.42000 55.910
46.44000 55.208
46.46000 60.357
46.48000 65.164
46.50000 66.576
46.52000 64.280
46.54000 66.445
46.56000 69.062
46.58000 64.887
46.60000 72.765
46.62000 74.412
46.64000 78.022
46.66000 75.503
46.68000 80.808
46.70000 80.814
46.72000 79.288
46.74000 85.230
46.76000 89.022
46.78000 91.066
46.80000 91.015
46.82000 95.172
46.84000 96.601
46.86000 90.223
46.88000 96.226
46.90000 94.689
46.92000 96.497
46.94000 98.693
46.96000 96.771
46.98000 100.542
47.00000 105.326
47.02000 103.883
47.04000 104.196
47.06000 99.976
47.08000 95.428
47.10000 97.883
47.12000 94.979
47.14000 99.728
47.16000 99.624
47.18000 98.138
47.20000 92.265
47.22000 90.488
47.24000 91.365
47.26000 90.834
47.28000 90.684
47.30000 90.878
47.32000 86.684
47.34000 89.091
47.36000 92.594
47.38000 89.568
47.40000 87.039
47.42000 75.247
47.44000 64.703
47.46000 73.078
47.48000 73.849
47.50000 73.017
47.52000 69.127
47.54000 63.540
47.56000 58.545
47.58000 61.728
47.60000 62.342
47.62000 64.194
47.64000 60.932
47.66000 54.975
47.68000 52.331
47.70000 50.259
47.72000 49.084
47.74000 50.044
47.76000 43.363
47.78000 45.496
47.80000 40.409
47.82000 32.712
47.84000 37.795
47.86000 40.445
47.88000 38.890
47.90000 37.007
47.92000 28.680
47.94000 28.083
47.96000 27.916
47.98000 22.686
48.00000 23.039
48.02000 27.995
48.04000 25.605
48.06000 20.862
48.08000 18.478
48.10000 20.500
48.12000 24.552
48.14000 24.778
48.16000 24.409
48.18000 20.302
48.20000 14.362
48.22000 14.876
48.24000 12.350
48.26000 11.772
48.28000 13.656
48.30000 15.594
48.32000 13.002
48.34000 4.866
48.36000 5.294
48.38000 4.054
48.40000 4.988
48.42000 4.554
48.44000 8.659
48.46000 10.327
48.48000 8.899
48.50000 5.406
48.52000 3.187
48.54000 4.778
48.56000 6.754
48.58000 3.516
48.60000 4.250
48.62000 2.725
48.64000 7.353
48.66000 7.134
48.68000 4.436
48.70000 2.631
48.72000 6.015
48.74000 5.641
48.76000 4.534
48.78000 6.239
48.80000 6.519
48.82000 3.881
48.84000 -1.527
48.86000 3.808
48.88000 9.311
48.90000 7.838
48.92000 4.908
48.94000 4.912
48.96000 5.699
48.98000 4.895
49.00000 3.158
49.02000 3.915
49.04000 7.258
49.06000 4.782
49.08000 2.622
49.10000 0.208
49.12000 -2.902
49.14000 -0.114
49.16000 3.051
49.18000 4.164
49.20000 6.259
49.22000 8.790
49.24000 7.716
49.26000 7.798
49.28000 2.381
49.30000 6.724
49.32000 2.801
49.34000 2.471
49.36000 2.183
49.38000 2.784
49.40000 1.766
49.42000 2.432
49.44000 8.284
49.46000 4.154
49.48000 -1.063
49.50000 -0.457
49.52000 4.895
49.54000 3.499
49.56000 -2.626
49.58000 -0.800
49.60000 2.425
49.62000 3.193
49.64000 4.414
49.66000 4.511
49.68000 1.469
49.70000 0.633
49.72000 0.305
49.74000 4.804
49.76000 2.561
49.78000 1.070
49.80000 3.669
49.82000 3.550
49.84000 3.802
49.86000 4.097
49.88000 -1.822
49.90000 -1.649
49.92000 0.050
49.94000 3.639
49.96000 2.198
49.98000 3.223
50.00000 1.194
50.02000 -0.309
50.04000 -2.820
50.06000 1.238
50.08000 1.173
50.10000 -0.726
50.12000 1.100
50.14000 3.273
50.16000 -0.746
50.18000 3.148
50.20000 -0.086
50.22000 -1.539
50.24000 -0.265
50.26000 2.031
50.28000 1.827
50.30000 3.193
50.32000 2.522
50.34000 1.020
50.36000 -1.107
50.38000 0.459
50.40000 -1.500
50.42000 4.711
50.44000 1.335
50.46000 -0.084
50.48000 -0.411
50.50000 0.823
50.52000 1.622
50.54000 0.257
50.56000 1.191
50.58000 2.293
50.60000 1.458
50.62000 0.474
50.64000 2.316
50.66000 1.774
50.68000 1.874
50.70000 -1.209
50.72000 -0.061
50.74000 -0.025
50.76000 4.157
50.78000 3.526
50.80000 6.039
50.82000 6.875
50.84000 0.989
50.86000 -0.413
50.88000 -2.771
50.90000 4.904
50.92000 0.240
50.94000 1.077
50.96000 3.924
50.98000 5.954
51.00000 4.563
51.02000 7.751
51.04000 -0.251
51.06000 2.058
51.08000 4.635
51.10000 2.111
51.12000 1.462
51.14000 -0.951
51.16000 -1.949
51.18000 0.505
51.20000 3.309
51.22000 0.803
51.24000 -0.630
51.26000 -1.409
51.28000 -2.453
51.30000 -2.649
51.32000 -0.259
51.34000 0.548
51.36000 1.642
51.38000 -0.273
51.40000 -2.737
51.42000 -1.665
51.44000 1.494
51.46000 -0.953
51.48000 -1.933
51.50000 -1.494
51.52000 1.437
51.54000 1.419
51.56000 3.733
51.58000 2.198
51.60000 -1.442
51.62000 -1.127
51.64000 0.579
51.66000 0.643
51.68000 2.881
51.70000 6.612
51.72000 1.901
51.74000 2.992
51.76000 5.029
51.78000 5.029
51.80000 3.374
51.82000 3.927
51.84000 4.495
51.86000 3.063
51.88000 6.386
51.90000 2.695
51.92000 5.388
51.94000 5.448
51.96000 5.032
51.98000 0.916
52.00000 -0.294
52.02000 5.785
52.04000 5.796
52.06000 4.347
52.08000 1.459
52.10000 2.168
52.12000 5.906
52.14000 1.054
52.16000 -0.493
52.18000 -1.540
52.20000 -2.674
52.22000 3.900
52.24000 4.176
52.26000 1.951
52.28000 4.395
52.30000 -0.602
52.32000 5.136
52.34000 1.389
52.36000 0.904
52.38000 5.514
52.40000 5.937
52.42000 5.313
52.44000 8.099
52.46000 1.669
52.48000 5.956
52.50000 7.311
52.52000 4.267
52.54000 0.747
52.56000 5.094
52.58000 5.075
52.60000 5.450
52.62000 3.978
52.64000 4.626
52.66000 -0.269
52.68000 0.661
52.70000 3.908
52.72000 8.879
52.74000 7.717
52.76000 4.851
52.78000 5.349
52.80000 6.497
52.82000 3.782
52.84000 6.560
52.86000 6.238
52.88000 9.880
52.90000 7.750
52.92000 4.455
52.94000 3.628
52.96000 2.043
52.98000 -2.617
53.00000 3.206
53.02000 3.956
53.04000 6.889
53.06000 5.736
53.08000 7.495
53.10000 8.124
53.12000 6.610
53.14000 9.484
53.16000 11.120
53.18000 4.520
53.20000 2.283
53.22000 4.969
53.24000 2.206
53.26000 0.536
53.28000 2.750
53.30000 2.549
53.32000 6.141
53.34000 5.533
53.36000 7.303
53.38000 6.343
53.40000 4.425
53.42000 10.668
53.44000 5.950
53.46000 4.680
53.48000 7.189
53.50000 6.267
53.52000 6.321
53.54000 3.629
53.56000 3.210
53.58000 4.209
53.60000 1.521
53.62000 2.000
53.64000 6.696
53.66000 9.677
53.68000 6.827
53.70000 1.124
53.72000 -2.597
53.74000 1.881
53.76000 9.415
53.78000 8.121
53.80000 7.478
53.82000 8.042
53.84000 5.248
53.86000 8.368
53.88000 6.482
53.90000 3.612
53.92000 0.586
53.94000 2.814
53.96000 4.521
53.98000 6.934
54.00000 1.409
54.02000 0.588
54.04000 0.234
54.06000 3.222
54.08000 6.461
54.10000 5.057
54.12000 6.955
54.14000 2.127
54.16000 3.562
54.18000 2.189
54.20000 2.011
54.22000 3.550
54.24000 4.771
54.26000 7.530
54.28000 11.502
54.30000 8.379
54.32000 6.558
54.34000 6.074
54.36000 0.633
54.38000 -0.759
54.40000 0.382
54.42000 2.850
54.44000 3.746
54.46000 4.252
54.48000 0.794
54.50000 1.052
54.52000 0.878
54.54000 0.884
54.56000 2.248
54.58000 4.625
54.60000 1.784
54.62000 1.496
54.64000 2.990
54.66000 5.435
54.68000 2.489
54.70000 0.526
54.72000 -1.881
54.74000 0.728
54.76000 2.319
54.78000 -1.075
54.80000 1.660
54.82000 -1.252
54.84000 0.061
54.86000 0.885
54.88000 0.447
54.90000 3.711
54.92000 2.868
54.94000 5.835
54.96000 3.875
54.98000 2.707
55.00000 3.974
55.02000 1.804
55.04000 -2.184
55.06000 -1.643
55.08000 -0.161
55.10000 4.545
55.12000 2.116
55.14000 3.826
55.16000 2.530
55.18000 -0.576
55.20000 2.787
55.22000 4.486
55.24000 5.848
55.26000 5.548
55.28000 3.472
55.30000 2.990
55.32000 0.027
55.34000 0.831
55.36000 4.945
55.38000 2.765
55.40000 -1.283
55.42000 -2.403
55.44000 -2.615
55.46000 1.026
55.48000 0.068
55.50000 0.211
55.52000 0.409
55.54000 1.116
55.56000 -0.106
55.58000 0.703
55.60000 4.318
55.62000 5.764
55.64000 0.675
55.66000 -0.681
55.68000 2.891
55.70000 4.370
55.72000 1.012
55.74000 -1.438
55.76000 0.937
55.78000 2.665
55.80000 -0.133
55.82000 -1.169
55.84000 2.853
55.86000 -0.980
55.88000 -1.064
55.90000 0.930
55.92000 1.523
55.94000 3.561
55.96000 1.642
55.98000 1.239
56.00000 0.209
56.02000 -0.833
56.04000 4.575
56.06000 4.680
56.08000 1.285
56.10000 0.993
56.12000 3.467
56.14000 4.126
56.16000 4.252
56.18000 -0.608
56.20000 -1.463
56.22000 -0.099
56.24000 1.160
56.26000 5.165
56.28000 5.280
56.30000 1.927
56.32000 -1.106
56.34000 -1.969
56.36000 -1.855
56.38000 -0.999
56.40000 0.516
56.42000 2.690
56.44000 5.327
56.46000 0.943
56.48000 3.877
56.50000 2.991
56.52000 0.886
56.54000 1.072
56.56000 2.641
56.58000 3.681
56.60000 2.989
56.62000 4.426
56.64000 6.577
56.66000 5.355
56.68000 5.929
56.70000 6.715
56.72000 5.979
56.74000 3.572
56.76000 5.202
56.78000 0.254
56.80000 -0.617
56.82000 -2.411
56.84000 -0.555
56.86000 -0.119
56.88000 1.228
56.90000 4.071
56.92000 2.830
56.94000 -2.535
56.96000 3.647
56.98000 6.223
57.00000 4.643
57.02000 0.223
57.04000 3.939
57.06000 8.054
57.08000 7.169
57.10000 3.613
57.12000 3.737
57.14000 3.740
57.16000 3.359
57.18000 4.030
57.20000 0.948
57.22000 -0.223
57.24000 -1.478
57.26000 4.361
57.28000 7.764
57.30000 3.656
57.32000 0.016
57.34000 1.488
57.36000 2.897
57.38000 2.028
57.40000 -0.094
57.42000 1.333
57.44000 3.007
57.46000 5.890
57.48000 5.020
57.50000 -2.510
57.52000 1.224
57.54000 3.661
57.56000 1.491
57.58000 2.462
57.60000 5.086
57.62000 5.619
57.64000 -1.372
57.66000 2.408
57.68000 5.292
57.70000 2.706
57.72000 1.443
57.74000 0.228
57.76000 3.899
57.78000 5.493
57.80000 5.291
57.82000 3.571
57.84000 3.900
57.86000 2.831
57.88000 1.424
57.90000 0.252
57.92000 1.757
57.94000 -0.211
57.96000 0.349
57.98000 6.546
58.00000 9.119
58.02000 4.653
58.04000 5.120
58.06000 3.079
58.08000 -0.215
58.10000 -0.045
58.12000 2.252
58.14000 2.237
58.16000 3.571
58.18000 1.746
58.20000 3.038
58.22000 4.182
58.24000 2.838
58.26000 -1.508
58.28000 -0.266
58.30000 -0.025
58.32000 -0.286
58.34000 -0.723
58.36000 0.334
58.38000 0.772
58.40000 0.661
58.42000 -2.537
58.44000 1.899
58.46000 3.718
58.48000 2.996
58.50000 1.786
58.52000 -0.106
58.54000 1.200
58.56000 -0.927
58.58000 -0.137
58.60000 -1.925
58.62000 -1.604
58.64000 0.377
58.66000 0.541
58.68000 2.649
58.70000 -1.139
58.72000 -0.456
58.74000 0.109
58.76000 -1.436
58.78000 -1.411
58.80000 0.149
58.82000 2.312
58.84000 6.380
58.86000 3.033
58.88000 -0.547
58.90000 -2.493
58.92000 -0.677
58.94000 2.654
58.96000 4.973
58.98000 3.429
59.00000 2.810
59.02000 2.796
59.04000 7.048
59.06000 4.648
59.08000 2.118
59.10000 0.963
59.12000 1.543
59.14000 0.705
59.16000 0.730
59.18000 5.456
59.20000 3.410
59.22000 1.391
59.24000 -0.225
59.26000 -1.208
59.28000 -0.080
59.30000 -0.395
59.32000 -0.797
59.34000 0.500
59.36000 0.083
59.38000 2.515
59.40000 3.498
59.42000 1.758
59.44000 1.727
59.46000 -1.877
59.48000 0.238
59.50000 -0.175
59.52000 -2.500
59.54000 0.240
59.56000 0.101
59.58000 3.685
59.60000 0.773
59.62000 0.246
59.64000 0.874
59.66000 -0.645
59.68000 -0.174
59.70000 4.611
59.72000 2.026
59.74000 -1.862
59.76000 -0.529
59.78000 -0.028
59.80000 -1.164
59.82000 0.394
59.84000 3.570
59.86000 2.568
59.88000 -1.023
59.90000 6.562
59.92000 5.344
59.94000 -0.228
59.96000 -1.918
59.98000 0.396
60.00000 1.883
60.02000 5.456
60.04000 3.608
60.06000 2.410
60.08000 4.882
60.10000 4.003
60.12000 1.722
60.14000 1.306
60.16000 1.279
60.18000 6.075
60.20000 6.321
60.22000 3.292
60.24000 2.359
60.26000 3.631
60.28000 2.007
60.30000 1.054
60.32000 2.794
60.34000 5.533
60.36000 4.604
60.38000 -2.181
60.40000 0.459
60.42000 7.260
60.44000 6.927
60.46000 8.482
60.48000 8.589
60.50000 6.231
60.52000 6.004
60.54000 5.841
60.56000 0.655
60.58000 -2.407
60.60000 3.624
60.62000 5.571
60.64000 3.457
60.66000 2.149
60.68000 0.754
60.70000 2.445
60.72000 1.944
60.74000 2.621
60.76000 4.898
60.78000 4.878
60.80000 4.057
60.82000 4.229
60.84000 4.384
60.86000 6.054
60.88000 4.263
60.90000 6.314
60.92000 9.648
60.94000 7.183
60.96000 5.839
60.98000 2.158
61.00000 1.394
61.02000 3.360
61.04000 5.194
61.06000 4.279
61.08000 7.161
61.10000 3.728
61.12000 -1.373
61.14000 2.625
61.16000 5.309
61.18000 4.494
61.20000 2.130
61.22000 0.787
61.24000 0.891
61.26000 4.029
61.28000 3.013
61.30000 -0.567
61.32000 2.524
61.34000 3.220
61.36000 -0.538
61.38000 0.773
61.40000 1.561
61.42000 0.297
61.44000 -0.627
61.46000 -2.422
61.48000 0.695
61.50000 7.049
61.52000 5.857
61.54000 0.350
61.56000 1.086
61.58000 3.629
61.60000 2.495
61.62000 3.831
61.64000 -0.172
61.66000 -0.344
61.68000 0.427
61.70000 2.113
61.72000 -0.323
61.74000 3.332
61.76000 1.690
61.78000 2.006
61.80000 2.921
61.82000 3.635
61.84000 4.065
61.86000 3.350
61.88000 -0.194
61.90000 -1.661
61.92000 1.078
61.94000 0.690
61.96000 1.530
61.98000 1.443
62.00000 2.082
62.02000 1.463
62.04000 2.400
62.06000 0.639
62.08000 1.875
62.10000 7.037
62.12000 1.771
62.14000 1.578
62.16000 1.271
62.18000 4.359
62.20000 2.074
62.22000 2.451
62.24000 3.441
62.26000 6.149
62.28000 4.727
62.30000 2.019
62.32000 -0.370
62.34000 2.745
62.36000 0.173
62.38000 -2.395
62.40000 -0.523
62.42000 -1.198
62.44000 -1.624
62.46000 -0.499
62.48000 4.463
62.50000 4.380
62.52000 1.995
62.54000 -0.962
62.56000 1.503
62.58000 1.607
62.60000 2.541
62.62000 0.609
62.64000 0.598
62.66000 0.077
62.68000 0.784
62.70000 0.348
62.72000 1.748
62.74000 3.219
62.76000 2.562
62.78000 3.572
62.80000 2.528
62.82000 3.027
62.84000 3.146
62.86000 0.334
62.88000 0.435
62.90000 0.864
62.92000 -2.219
62.94000 -0.100
62.96000 -1.303
62.98000 1.948
63.00000 3.214
63.02000 4.495
63.04000 2.035
63.06000 1.401
63.08000 1.932
63.10000 1.641
63.12000 3.579
63.14000 4.549
63.16000 5.469
63.18000 3.210
63.20000 5.317
63.22000 6.564
63.24000 2.126
63.26000 0.714
63.28000 -2.417
63.30000 0.506
63.32000 4.250
63.34000 6.095
63.36000 1.486
63.38000 2.550
63.40000 2.082
63.42000 1.267
63.44000 1.396
63.46000 1.923
63.48000 4.069
63.50000 0.147
63.52000 -1.855
63.54000 1.086
63.56000 3.078
63.58000 0.597
63.60000 2.390
63.62000 0.611
63.64000 2.787
63.66000 -0.105
63.68000 -0.232
63.70000 3.883
63.72000 3.908
63.74000 0.951
63.76000 -0.211
63.78000 -0.988
63.80000 0.881
63.82000 3.393
63.84000 3.236
63.86000 1.553
63.88000 4.202
63.90000 3.007
63.92000 1.187
63.94000 2.233
63.96000 -2.415
63.98000 0.585
64.00000 3.781
64.02000 3.836
64.04000 -0.012
64.06000 0.657
64.08000 0.778
64.10000 0.233
64.12000 2.871
64.14000 0.605
64.16000 0.445
64.18000 0.479
64.20000 0.022
64.22000 4.077
64.24000 4.671
64.26000 1.601
64.28000 3.232
64.30000 1.710
64.32000 5.190
64.34000 4.203
64.36000 0.213
64.38000 1.164
64.40000 3.516
64.42000 4.064
64.44000 2.923
64.46000 -0.425
64.48000 -1.107
64.50000 2.979
64.52000 6.191
64.54000 6.319
64.56000 2.060
64.58000 2.025
64.60000 0.810
64.62000 0.133
64.64000 0.740
64.66000 0.943
64.68000 -0.718
64.70000 2.896
64.72000 5.128
64.74000 3.575
64.76000 2.520
64.78000 1.088
64.80000 1.893
64.82000 1.764
64.84000 0.152
64.86000 3.246
64.88000 3.249
64.90000 3.355
64.92000 2.688
64.94000 3.016
64.96000 2.719
64.98000 2.886
65.00000 5.040
65.02000 -2.401
65.04000 -0.074
65.06000 3.148
65.08000 2.536
65.10000 2.736
65.12000 4.267
65.14000 3.672
65.16000 2.754
65.18000 1.347
65.20000 4.064
65.22000 3.911
65.24000 1.865
65.26000 3.293
65.28000 2.785
65.30000 1.753
65.32000 0.091
65.34000 -0.075
65.36000 2.346
65.38000 2.363
65.40000 1.779
65.42000 2.102
65.44000 0.186
65.46000 -2.222
65.48000 0.175
65.50000 3.970
65.52000 6.232
65.54000 3.614
65.56000 0.803
65.58000 1.598
65.60000 3.757
65.62000 2.214
65.64000 5.037
65.66000 6.337
65.68000 4.531
65.70000 3.115
65.72000 5.140
65.74000 1.589
65.76000 -2.400
65.78000 -0.882
65.80000 4.040
65.82000 1.792
65.84000 1.207
65.86000 0.659
65.88000 4.089
65.90000 5.874
65.92000 3.956
65.94000 1.070
65.96000 2.492
65.98000 1.105
66.00000 1.796
66.02000 1.047
66.04000 2.536
66.06000 1.215
66.08000 0.847
66.10000 0.915
66.12000 0.706
66.14000 3.251
66.16000 4.469
66.18000 3.886
66.20000 3.906
66.22000 2.563
66.24000 2.313
66.26000 -0.244
66.28000 0.720
66.30000 0.096
66.32000 -0.049
66.34000 0.606
66.36000 2.400
66.38000 0.558
66.40000 -1.837
66.42000 0.150
66.44000 -0.651
66.46000 0.227
66.48000 -0.568
66.50000 0.481
66.52000 0.674
66.54000 3.234
66.56000 2.017
66.58000 0.545
66.60000 -0.853
66.62000 2.179
66.64000 0.830
66.66000 -0.156
66.68000 -1.551
66.70000 1.248
66.72000 2.640
66.74000 4.351
66.76000 4.532
66.78000 4.808
66.80000 3.460
66.82000 3.980
66.84000 3.781
66.86000 0.398
66.88000 1.286
66.90000 1.651
66.92000 4.627
66.94000 4.946
66.96000 2.820
66.98000 3.671
67.00000 3.021
67.02000 2.057
67.04000 2.781
67.06000 1.314
67.08000 0.897
67.10000 1.119
67.12000 4.527
67.14000 2.135
67.16000 -2.460
67.18000 -2.192
67.20000 4.791
67.22000 4.894
67.24000 5.935
67.26000 6.725
67.28000 4.102
67.30000 2.626
67.32000 1.496
67.34000 2.744
67.36000 5.220
67.38000 6.517
67.40000 5.556
67.42000 6.482
67.44000 4.515
67.46000 2.592
67.48000 4.970
67.50000 5.992
67.52000 4.018
67.54000 7.603
67.56000 6.796
67.58000 9.131
67.60000 6.042
67.62000 4.114
67.64000 5.163
67.66000 5.468
67.68000 6.772
67.70000 2.965
67.72000 5.801
67.74000 7.245
67.76000 6.649
67.78000 7.830
67.80000 9.312
67.82000 11.114
67.84000 10.581
67.86000 9.919
67.88000 8.991
67.90000 8.062
67.92000 9.695
67.94000 8.135
67.96000 4.201
67.98000 8.627
68.00000 9.602
68.02000 11.604
68.04000 12.737
68.06000 11.809
68.08000 11.837
68.10000 10.517
68.12000 15.455
68.14000 14.238
68.16000 15.822
68.18000 14.488
68.20000 15.328
68.22000 16.212
68.24000 15.624
68.26000 16.008
68.28000 18.125
68.30000 17.729
68.32000 15.843
68.34000 18.632
68.36000 18.202
68.38000 18.634
68.40000 21.385
68.42000 23.627
68.44000 18.001
68.46000 19.209
68.48000 24.524
68.50000 23.376
68.52000 21.376
68.54000 24.104
68.56000 26.718
68.58000 25.444
68.60000 25.605
68.62000 28.941
68.64000 27.317
68.66000 27.815
68.68000 29.175
68.70000 26.939
68.72000 27.657
68.74000 25.841
68.76000 24.679
68.78000 27.817
68.80000 27.839
68.82000 26.312
68.84000 21.961
68.86000 26.310
68.88000 28.609
68.90000 25.592
68.92000 28.147
68.94000 29.334
68.96000 25.381
68.98000 22.923
69.00000 25.900
69.02000 26.481
69.04000 23.617
69.06000 20.971
69.08000 24.621
69.10000 24.641
69.12000 20.994
69.14000 19.369
69.16000 20.488
69.18000 20.549
69.20000 20.306
69.22000 19.953
69.24000 17.406
69.26000 14.726
69.28000 12.153
69.30000 14.351
69.32000 12.542
69.34000 14.271
69.36000 12.509
69.38000 16.126
69.40000 14.603
69.42000 8.940
69.44000 15.336
69.46000 16.413
69.48000 13.961
69.50000 11.808
69.52000 10.669
69.54000 12.124
69.56000 13.331
69.58000 10.663
69.60000 8.453
69.62000 9.750
69.64000 8.546
69.66000 6.623
69.68000 6.496
69.70000 3.713
69.72000 6.458
69.74000 10.353
69.76000 6.725
69.78000 6.869
69.80000 6.317
69.82000 6.821
69.84000 3.875
69.86000 3.523
69.88000 7.251
69.90000 4.589
69.92000 -0.044
69.94000 2.263
69.96000 1.273
69.98000 2.441
70.00000 4.080
70.02000 1.029
70.04000 2.973
70.06000 2.108
70.08000 3.193
70.10000 0.831
70.12000 1.644
70.14000 4.599
70.16000 2.597
70.18000 -1.060
70.20000 0.716
70.22000 -2.399
70.24000 -0.520
70.26000 0.024
70.28000 -1.556
70.30000 1.876
70.32000 3.347
70.34000 2.147
70.36000 0.501
70.38000 0.519
70.40000 0.822
70.42000 3.914
70.44000 4.089
70.46000 -0.491
70.48000 1.302
70.50000 -0.181
70.52000 3.979
70.54000 3.584
70.56000 4.117
70.58000 1.741
70.60000 -0.465
70.62000 2.240
70.64000 -0.735
70.66000 -1.732
70.68000 3.810
70.70000 6.834
70.72000 5.576
70.74000 5.311
70.76000 -1.104
70.78000 -0.101
70.80000 1.603
70.82000 1.799
70.84000 1.127
70.86000 1.567
70.88000 -1.073
70.90000 -0.252
70.92000 0.761
70.94000 1.532
70.96000 0.896
70.98000 1.466
71.00000 3.293
71.02000 1.965
71.04000 3.368
71.06000 3.245
71.08000 2.414
71.10000 -2.335
71.12000 -1.370
71.14000 0.662
71.16000 1.310
71.18000 5.163
71.20000 7.224
71.22000 2.314
71.24000 -0.040
71.26000 4.828
71.28000 5.091
71.30000 4.267
71.32000 5.199
71.34000 5.527
71.36000 2.527
71.38000 2.262
71.40000 5.238
71.42000 2.070
71.44000 0.183
71.46000 5.238
71.48000 5.388
71.50000 2.476
71.52000 3.494
71.54000 3.067
71.56000 4.724
71.58000 7.217
71.60000 4.395
71.62000 2.328
71.64000 4.609
71.66000 3.542
71.68000 5.910
71.70000 4.378
71.72000 1.772
71.74000 2.263
71.76000 3.596
71.78000 6.502
71.80000 5.192
71.82000 4.311
71.84000 1.235
71.86000 2.042
71.88000 6.095
71.90000 1.922
71.92000 -2.232
71.94000 2.010
71.96000 4.362
71.98000 6.140
72.00000 6.588
72.02000 3.923
72.04000 8.502
72.06000 6.718
72.08000 5.676
72.10000 5.515
72.12000 4.998
72.14000 7.976
72.16000 9.948
72.18000 4.188
72.20000 -0.346
72.22000 3.091
72.24000 9.548
72.26000 8.815
72.28000 1.208
72.30000 0.442
72.32000 1.513
72.34000 3.480
72.36000 3.638
72.38000 4.919
72.40000 4.638
72.42000 -0.472
72.44000 1.105
72.46000 1.596
72.48000 3.463
72.50000 6.110
72.52000 3.912
72.54000 2.422
72.56000 4.924
72.58000 3.440
72.60000 5.376
72.62000 2.306
72.64000 2.937
72.66000 4.302
72.68000 3.431
72.70000 2.997
72.72000 1.790
72.74000 1.913
72.76000 -0.396
72.78000 -0.953
72.80000 5.974
72.82000 4.866
72.84000 3.677
72.86000 0.885
72.88000 -2.248
72.90000 0.621
72.92000 2.962
72.94000 2.939
72.96000 0.458
72.98000 1.871
73.00000 0.752
73.02000 -0.307
73.04000 1.421
73.06000 1.874
73.08000 2.176
73.10000 4.783
73.12000 0.383
73.14000 3.963
73.16000 6.175
73.18000 5.862
73.20000 0.212
73.22000 3.994
73.24000 1.421
73.26000 4.027
73.28000 4.972
73.30000 0.495
73.32000 3.501
73.34000 1.582
73.36000 2.834
73.38000 2.314
73.40000 1.269
73.42000 0.346
73.44000 -2.231
73.46000 0.465
73.48000 3.749
73.50000 1.231
73.52000 3.432
73.54000 0.429
73.56000 -1.470
73.58000 -0.783
73.60000 0.302
73.62000 1.915
73.64000 -2.228
73.66000 -1.619
73.68000 2.221
73.70000 7.802
73.72000 6.469
73.74000 3.011
73.76000 4.015
73.78000 5.067
73.80000 3.209
73.82000 1.395
73.84000 -1.383
73.86000 -0.744
73.88000 6.197
73.90000 6.133
73.92000 1.193
73.94000 1.309
73.96000 1.447
73.98000 2.443
74.00000 3.617
74.02000 3.335
74.04000 3.354
74.06000 5.991
74.08000 1.853
74.10000 -0.278
74.12000 0.396
74.14000 2.655
74.16000 4.862
74.18000 1.208
74.20000 1.297
74.22000 0.502
74.24000 2.499
74.26000 5.130
74.28000 4.076
74.30000 1.166
74.32000 -1.632
74.34000 1.545
74.36000 0.266
74.38000 1.109
74.40000 2.618
74.42000 4.003
74.44000 4.077
74.46000 6.466
74.48000 4.042
74.50000 3.831
74.52000 3.838
74.54000 5.068
74.56000 5.502
74.58000 5.287
74.60000 4.835
74.62000 1.929
74.64000 -2.199
74.66000 -1.695
74.68000 4.523
74.70000 3.496
74.72000 1.576
74.74000 4.121
74.76000 2.340
74.78000 3.569
74.80000 7.150
74.82000 6.200
74.84000 3.741
74.86000 2.787
74.88000 3.925
74.90000 7.323
74.92000 3.063
74.94000 2.439
74.96000 3.247
74.98000 1.869
75.00000 1.126
75.02000 3.818
75.04000 4.514
75.06000 0.584
75.08000 -0.464
75.10000 0.693
75.12000 3.771
75.14000 4.997
75.16000 0.047
75.18000 -0.341
75.20000 2.565
75.22000 1.894
75.24000 3.333
75.26000 6.106
75.28000 4.328
75.30000 1.211
75.32000 1.665
75.34000 3.669
75.36000 1.984
75.38000 2.560
75.40000 0.384
75.42000 3.358
75.44000 3.154
75.46000 1.106
75.48000 1.023
75.50000 1.235
75.52000 1.614
75.54000 -2.220
75.56000 -0.524
75.58000 -0.009
75.60000 2.219
75.62000 1.190
75.64000 0.867
75.66000 1.789
75.68000 0.924
75.70000 0.962
75.72000 3.368
75.74000 1.636
75.76000 1.747
75.78000 1.212
75.80000 1.151
75.82000 3.444
75.84000 2.127
75.86000 1.323
75.88000 1.934
75.90000 0.114
75.92000 1.051
75.94000 0.502
75.96000 1.926
75.98000 1.717
76.00000 0.013
76.02000 0.902
76.04000 3.993
76.06000 3.358
76.08000 2.593
76.10000 3.409
76.12000 5.085
76.14000 2.303
76.16000 1.784
76.18000 1.192
76.20000 1.914
76.22000 4.476
76.24000 8.763
76.26000 4.612
76.28000 4.321
76.30000 5.608
76.32000 4.059
76.34000 1.182
76.36000 -2.228
76.38000 0.012
76.40000 0.418
76.42000 0.510
76.44000 2.230
76.46000 4.098
76.48000 3.247
76.50000 3.490
76.52000 3.439
76.54000 3.035
76.56000 2.374
76.58000 1.648
76.60000 2.599
76.62000 2.433
76.64000 -1.096
76.66000 -2.234
76.68000 -0.366
76.70000 0.687
76.72000 3.729
76.74000 2.753
76.76000 1.744
76.78000 3.586
76.80000 5.292
76.82000 6.149
76.84000 1.822
76.86000 -1.927
76.88000 2.476
76.90000 8.025
76.92000 8.419
76.94000 3.119
76.96000 1.478
76.98000 1.327
77.00000 5.159
77.02000 2.460
77.04000 2.027
77.06000 2.268
77.08000 -0.259
77.10000 -0.491
77.12000 -2.251
77.14000 1.700
77.16000 4.233
77.18000 0.335
77.20000 -0.101
77.22000 -1.088
77.24000 1.966
77.26000 4.450
77.28000 1.435
77.30000 2.674
77.32000 0.698
77.34000 -1.533
77.36000 1.375
77.38000 2.726
77.40000 4.021
77.42000 -0.670
77.44000 2.519
77.46000 -0.537
77.48000 1.253
77.50000 3.027
77.52000 4.141
77.54000 3.431
77.56000 4.701
77.58000 4.640
77.60000 6.331
77.62000 1.078
77.64000 -2.259
77.66000 1.758
77.68000 4.440
77.70000 2.624
77.72000 1.989
77.74000 3.214
77.76000 2.215
77.78000 3.697
77.80000 5.586
77.82000 5.188
77.84000 -0.982
77.86000 1.302
77.88000 1.155
77.90000 2.394
77.92000 2.263
77.94000 1.109
77.96000 -1.633
77.98000 0.041
78.00000 1.083
78.02000 -0.562
78.04000 3.489
78.06000 -0.072
78.08000 -2.268
78.10000 0.848
78.12000 0.973
78.14000 1.707
78.16000 5.873
78.18000 5.278
78.20000 -0.162
78.22000 2.098
78.24000 1.173
78.26000 0.080
78.28000 1.454
78.30000 -0.025
78.32000 -2.271
78.34000 0.450
78.36000 2.020
78.38000 6.671
78.40000 5.334
78.42000 0.851
78.44000 0.284
78.46000 -0.860
78.48000 0.936
78.50000 5.382
78.52000 7.375
78.54000 3.485
78.56000 1.723
78.58000 0.707
78.60000 3.152
78.62000 1.836
78.64000 0.544
78.66000 1.905
78.68000 0.546
78.70000 2.114
78.72000 2.777
78.74000 0.760
78.76000 2.418
78.78000 0.627
78.80000 -2.279
78.82000 2.327
78.84000 5.082
78.86000 1.404
78.88000 0.133
78.90000 6.061
78.92000 2.199
78.94000 3.110
78.96000 3.242
78.98000 5.508
79.00000 1.936
79.02000 -1.651
79.04000 -0.966
79.06000 1.085
79.08000 -0.418
79.10000 3.613
79.12000 3.135
79.14000 1.858
79.16000 3.037
79.18000 2.951
79.20000 5.924
79.22000 3.921
79.24000 3.075
79.26000 1.975
79.28000 3.353
79.30000 2.632
79.32000 3.545
79.34000 4.889
79.36000 5.281
79.38000 0.191
79.40000 0.011
79.42000 -2.284
79.44000 0.707
79.46000 3.526
79.48000 6.165
79.50000 7.980
79.52000 5.179
79.54000 5.131
79.56000 1.486
79.58000 4.336
79.60000 5.002
79.62000 5.228
79.64000 10.777
79.66000 8.233
79.68000 5.870
79.70000 2.839
79.72000 1.103
79.74000 2.654
79.76000 4.889
79.78000 0.728
79.80000 0.029
79.82000 1.961
79.84000 7.612
79.86000 7.987
79.88000 3.210
79.90000 1.499
79.92000 3.167
79.94000 6.125
79.96000 3.514
79.98000 2.703
80.00000 0.425
80.02000 4.497
80.04000 8.885
80.06000 2.917
80.08000 -2.290
80.10000 1.762
80.12000 0.036
80.14000 0.284
80.16000 0.735
80.18000 -1.515
80.20000 -2.299
80.22000 1.616
80.24000 4.809
80.26000 7.644
80.28000 7.382
80.30000 0.056
80.32000 1.124
80.34000 2.842
80.36000 6.234
80.38000 5.809
80.40000 4.362
80.42000 0.261
80.44000 0.694
80.46000 1.786
80.48000 5.160
80.50000 0.865
80.52000 1.764
80.54000 3.120
80.56000 0.334
80.58000 4.253
80.60000 5.201
80.62000 4.384
80.64000 4.051
80.66000 5.682
80.68000 3.849
80.70000 5.411
80.72000 4.088
80.74000 1.933
80.76000 2.241
80.78000 2.860
80.80000 3.285
80.82000 -2.376
80.84000 -1.341
80.86000 2.841
80.88000 3.580
80.90000 7.019
80.92000 6.674
80.94000 1.866
80.96000 -1.078
80.98000 -1.401
81.00000 4.440
81.02000 3.160
81.04000 -0.903
81.06000 2.049
81.08000 2.551
81.10000 2.036
81.12000 1.987
81.14000 0.362
81.16000 1.328
81.18000 4.123
81.20000 3.908
81.22000 0.696
81.24000 -0.177
81.26000 -0.460
81.28000 -0.213
81.30000 0.880
81.32000 2.189
81.34000 1.830
81.36000 0.492
81.38000 2.674
81.40000 3.792
81.42000 2.900
81.44000 3.190
81.46000 1.943
81.48000 1.708
81.50000 4.730
81.52000 10.250
81.54000 7.141
81.56000 8.061
81.58000 5.680
81.60000 4.992
81.62000 5.801
81.64000 3.361
81.66000 8.942
81.68000 0.762
81.70000 4.495
81.72000 5.371
81.74000 5.653
81.76000 13.009
81.78000 11.792
81.80000 7.111
81.82000 8.868
81.84000 7.144
81.86000 11.544
81.88000 6.092
81.90000 7.744
81.92000 8.024
81.94000 5.875
81.96000 10.154
81.98000 9.627
82.00000 8.064
82.02000 7.858
82.04000 10.249
82.06000 14.458
82.08000 11.663
82.10000 13.107
82.12000 14.196
82.14000 11.934
82.16000 10.641
82.18000 12.094
82.20000 13.548
82.22000 16.003
82.24000 16.220
82.26000 19.549
82.28000 15.659
82.30000 12.988
82.32000 13.131
82.34000 16.184
82.36000 16.179
82.38000 20.784
82.40000 26.338
82.42000 31.047
82.44000 26.261
82.46000 22.645
82.48000 23.519
82.50000 25.324
82.52000 21.607
82.54000 22.864
82.56000 19.293
82.58000 24.778
82.60000 27.104
82.62000 23.736
82.64000 23.395
82.66000 23.139
82.68000 24.690
82.70000 31.616
82.72000 30.906
82.74000 28.247
82.76000 31.170
82.78000 38.262
82.80000 39.573
82.82000 39.456
82.84000 38.607
82.86000 37.821
82.88000 28.290
82.90000 32.024
82.92000 31.935
82.94000 31.267
82.96000 30.178
82.98000 34.941
83.00000 31.547
83.02000 31.929
83.04000 33.164
83.06000 33.966
83.08000 34.160
83.10000 34.455
83.12000 38.090
83.14000 40.238
83.16000 37.812
83.18000 33.172
83.20000 31.631
83.22000 34.201
83.24000 32.832
83.26000 32.340
83.28000 38.524
83.30000 32.007
83.32000 25.705
83.34000 29.615
83.36000 32.773
83.38000 31.397
83.40000 24.316
83.42000 24.224
83.44000 28.869
83.46000 31.972
83.48000 31.182
83.50000 30.482
83.52000 26.270
83.54000 19.877
83.56000 24.276
83.58000 28.824
83.60000 21.194
83.62000 19.680
83.64000 22.154
83.66000 20.334
83.68000 21.101
83.70000 20.340
83.72000 19.440
83.74000 18.759
83.76000 17.422
83.78000 19.336
83.80000 20.917
83.82000 15.165
83.84000 13.871
83.86000 13.457
83.88000 16.421
83.90000 16.878
83.92000 19.784
83.94000 15.051
83.96000 10.561
83.98000 8.635
84.00000 14.352
84.02000 16.285
84.04000 12.503
84.06000 6.179
84.08000 7.584
84.10000 12.232
84.12000 10.093
84.14000 9.025
84.16000 6.618
84.18000 8.650
84.20000 9.202
84.22000 9.675
84.24000 8.040
84.26000 6.134
84.28000 2.519
84.30000 8.407
84.32000 7.492
84.34000 3.874
84.36000 2.585
84.38000 3.633
84.40000 5.500
84.42000 1.357
84.44000 2.897
84.46000 7.150
84.48000 6.005
84.50000 5.418
84.52000 1.733
84.54000 2.394
84.56000 1.423
84.58000 1.307
84.60000 4.744
84.62000 4.268
84.64000 2.499
84.66000 1.437
84.68000 -0.251
84.70000 0.707
84.72000 4.646
84.74000 5.814
84.76000 3.013
84.78000 3.022
84.80000 5.988
84.82000 4.900
84.84000 3.175
84.86000 1.009
84.88000 4.354
84.90000 4.031
84.92000 -0.448
84.94000 1.778
84.96000 4.263
84.98000 4.824
85.00000 5.023
85.02000 6.282
85.04000 5.150
85.06000 1.078
85.08000 4.415
85.10000 3.849
85.12000 2.428
85.14000 2.801
85.16000 3.627
85.18000 4.094
85.20000 2.985
85.22000 -2.259
85.24000 4.972
85.26000 6.373
85.28000 6.388
85.30000 5.696
85.32000 4.893
85.34000 4.069
85.36000 3.453
85.38000 3.481
85.40000 2.297
85.42000 4.258
85.44000 5.540
85.46000 0.606
85.48000 -1.713
85.50000 2.981
85.52000 6.244
85.54000 3.483
85.56000 -0.219
85.58000 -0.191
85.60000 0.272
85.62000 -1.139
85.64000 -1.254
85.66000 -0.359
85.68000 2.049
85.70000 4.909
85.72000 3.305
85.74000 3.868
85.76000 5.566
85.78000 -2.299
85.80000 -1.717
85.82000 -0.312
85.84000 3.295
85.86000 2.643
85.88000 3.444
85.90000 0.285
85.92000 -0.805
85.94000 0.838
85.96000 3.232
85.98000 4.060
86.00000 2.891
86.02000 1.562
86.04000 0.773
86.06000 3.241
86.08000 5.987
86.10000 5.650
86.12000 0.441
86.14000 0.062
86.16000 2.233
86.18000 7.159
86.20000 3.781
86.22000 4.194
86.24000 -1.340
86.26000 0.790
86.28000 1.510
86.30000 3.058
86.32000 3.175
86.34000 3.100
86.36000 6.596
86.38000 7.963
86.40000 7.891
86.42000 2.361
86.44000 6.841
86.46000 6.218
86.48000 5.720
86.50000 5.840
86.52000 8.258
86.54000 8.364
86.56000 8.215
86.58000 5.049
86.60000 2.853
86.62000 4.228
86.64000 7.354
86.66000 4.813
86.68000 9.421
86.70000 8.964
86.72000 7.671
86.74000 7.530
86.76000 5.917
86.78000 7.044
86.80000 7.353
86.82000 6.471
86.84000 11.916
86.86000 10.410
86.88000 7.300
86.90000 8.637
86.92000 11.194
86.94000 8.649
86.96000 10.585
86.98000 15.975
87.00000 18.284
87.02000 19.094
87.04000 16.006
87.06000 17.776
87.08000 18.904
87.10000 17.101
87.12000 13.629
87.14000 13.562
87.16000 13.740
87.18000 19.696
87.20000 21.985
87.22000 20.077
87.24000 21.678
87.26000 19.424
87.28000 18.911
87.30000 17.219
87.32000 18.623
87.34000 26.688
87.36000 22.318
87.38000 21.300
87.40000 24.065
87.42000 22.047
87.44000 23.483
87.46000 23.380
87.48000 23.740
87.50000 25.193
87.52000 17.688
87.54000 18.953
87.56000 20.826
87.58000 20.221
87.60000 23.117
87.62000 17.938
87.64000 12.965
87.66000 13.059
87.68000 15.494
87.70000 18.008
87.72000 16.866
87.74000 20.270
87.76000 20.692
87.78000 15.548
87.80000 16.989
87.82000 20.974
87.84000 16.023
87.86000 13.607
87.88000 11.448
87.90000 14.581
87.92000 8.607
87.94000 9.220
87.96000 8.633
87.98000 15.548
88.00000 17.230
88.02000 16.205
88.04000 13.128
88.06000 12.901
88.08000 11.912
88.10000 15.838
88.12000 8.353
88.14000 8.035
88.16000 6.337
88.18000 7.126
88.20000 6.389
88.22000 4.045
88.24000 3.915
88.26000 5.288
88.28000 5.516
88.30000 7.758
88.32000 12.485
88.34000 11.510
88.36000 6.200
88.38000 5.366
88.40000 8.754
88.42000 7.482
88.44000 6.382
88.46000 1.891
88.48000 8.485
88.50000 9.335
88.52000 7.201
88.54000 5.076
88.56000 8.052
88.58000 6.432
88.60000 4.110
88.62000 3.695
88.64000 1.326
88.66000 -2.225
88.68000 -0.928
88.70000 -0.119
88.72000 5.283
88.74000 8.319
88.76000 3.911
88.78000 -0.333
88.80000 0.893
88.82000 5.941
88.84000 4.947
88.86000 1.192
88.88000 1.645
88.90000 6.101
88.92000 7.091
88.94000 6.170
88.96000 2.652
88.98000 3.783
89.00000 0.918
89.02000 2.084
89.04000 2.904
89.06000 2.123
89.08000 2.613
89.10000 4.179
89.12000 5.214
89.14000 -1.489
89.16000 0.283
89.18000 1.602
89.20000 1.781
89.22000 4.086
89.24000 0.884
89.26000 -2.169
89.28000 0.153
89.30000 3.632
89.32000 3.463
89.34000 4.945
89.36000 1.804
89.38000 -2.168
89.40000 1.159
89.42000 -0.545
89.44000 2.328
89.46000 3.324
89.48000 2.527
89.50000 2.122
89.52000 5.717
89.54000 2.089
89.56000 0.732
89.58000 4.598
89.60000 0.678
89.62000 1.211
89.64000 -2.155
89.66000 -1.214
89.68000 2.069
89.70000 1.688
89.72000 -0.448
89.74000 0.708
89.76000 3.061
89.78000 0.786
89.80000 0.281
89.82000 2.408
89.84000 0.201
89.86000 0.731
89.88000 2.032
89.90000 0.577
89.92000 1.483
89.94000 6.202
89.96000 7.313
89.98000 7.773
90.00000 9.072
90.02000 6.384
90.04000 0.128
90.06000 -1.009
90.08000 0.303
90.10000 0.977
90.12000 1.221
90.14000 -2.137
90.16000 0.713
90.18000 5.086
90.20000 4.362
90.22000 4.766
90.24000 2.335
90.26000 1.701
90.28000 -0.754
90.30000 0.643
90.32000 2.833
90.34000 6.687
90.36000 4.898
90.38000 0.698
90.40000 0.380
90.42000 2.026
90.44000 4.345
90.46000 0.602
90.48000 5.082
90.50000 3.814
90.52000 -0.426
90.54000 -1.507
90.56000 2.508
90.58000 2.603
90.60000 3.104
90.62000 1.875
90.64000 -0.764
90.66000 0.179
90.68000 3.320
90.70000 0.891
90.72000 -1.215
90.74000 0.030
90.76000 4.738
90.78000 2.923
90.80000 0.723
90.82000 3.281
90.84000 2.722
90.86000 0.275
90.88000 -1.019
90.90000 -2.117
90.92000 -0.905
90.94000 2.343
90.96000 1.540
90.98000 0.854
91.00000 1.551
91.02000 6.136
91.04000 2.706
91.06000 4.940
91.08000 6.843
91.10000 6.336
91.12000 7.340
91.14000 2.038
91.16000 2.995
91.18000 6.211
91.20000 3.574
91.22000 1.387
91.24000 0.082
91.26000 3.165
91.28000 3.933
91.30000 -0.010
91.32000 -0.704
91.34000 0.321
91.36000 0.113
91.38000 2.230
91.40000 5.140
91.42000 3.081
91.44000 -2.117
91.46000 -1.895
91.48000 0.230
91.50000 1.230
91.52000 6.746
91.54000 5.184
91.56000 3.651
91.58000 7.060
91.60000 9.365
91.62000 6.433
91.64000 3.474
91.66000 3.901
91.68000 6.950
91.70000 4.581
91.72000 2.260
91.74000 0.349
91.76000 2.813
91.78000 5.252
91.80000 4.600
91.82000 4.558
91.84000 4.695
91.86000 3.392
91.88000 4.071
91.90000 5.487
91.92000 0.335
91.94000 1.621
91.96000 1.810
91.98000 5.052
92.00000 6.252
92.02000 0.043
92.04000 -2.104
92.06000 1.202
92.08000 7.036
92.10000 4.884
92.12000 1.325
92.14000 2.749
92.16000 7.641
92.18000 6.673
92.20000 4.106
92.22000 9.311
92.24000 5.238
92.26000 5.576
92.28000 0.575
92.30000 2.489
92.32000 6.411
92.34000 6.716
92.36000 6.321
92.38000 4.468
92.40000 5.240
92.42000 4.382
92.44000 3.365
92.46000 1.874
92.48000 2.604
92.50000 4.967
92.52000 3.638
92.54000 -2.117
92.56000 -0.468
92.58000 3.105
92.60000 1.947
92.62000 2.294
92.64000 0.344
92.66000 0.401
92.68000 1.846
92.70000 4.252
92.72000 6.238
92.74000 4.031
92.76000 0.636
92.78000 2.938
92.80000 -0.686
92.82000 1.628
92.84000 3.817
92.86000 5.511
92.88000 2.836
92.90000 4.658
92.92000 7.348
92.94000 8.947
92.96000 5.746
92.98000 4.337
93.00000 2.749
93.02000 6.018
93.04000 7.055
93.06000 1.250
93.08000 4.964
93.10000 3.343
93.12000 6.341
93.14000 5.587
93.16000 2.860
93.18000 2.444
93.20000 2.864
93.22000 2.631
93.24000 4.396
93.26000 2.143
93.28000 -2.134
93.30000 2.268
93.32000 -0.364
93.34000 -0.820
93.36000 1.201
93.38000 2.682
93.40000 2.500
93.42000 4.061
93.44000 2.214
93.46000 2.652
93.48000 -0.810
93.50000 0.528
93.52000 2.576
93.54000 4.928
93.56000 4.950
93.58000 7.956
93.60000 3.739
93.62000 0.151
93.64000 -0.494
93.66000 1.845
93.68000 -1.738
93.70000 -2.009
93.72000 4.045
93.74000 2.077
93.76000 4.580
93.78000 8.238
93.80000 6.166
93.82000 1.351
93.84000 -2.034
93.86000 -1.709
93.88000 -1.678
93.90000 -0.588
93.92000 -2.115
93.94000 1.595
93.96000 0.365
93.98000 1.847
94.00000 3.371
94.02000 4.242
94.04000 3.857
94.06000 3.492
94.08000 3.896
94.10000 1.116
94.12000 4.636
94.14000 2.705
94.16000 1.172
94.18000 1.936
94.20000 6.567
94.22000 6.791
94.24000 1.995
94.26000 0.409
94.28000 5.271
94.30000 8.658
94.32000 2.375
94.34000 1.737
94.36000 4.181
94.38000 5.040
94.40000 5.313
94.42000 3.808
94.44000 1.350
94.46000 -1.371
94.48000 2.089
94.50000 1.924
94.52000 1.919
94.54000 2.556
94.56000 1.753
94.58000 4.886
94.60000 2.421
94.62000 3.797
94.64000 2.856
94.66000 0.262
94.68000 1.278
94.70000 -0.163
94.72000 -1.954
94.74000 -2.138
94.76000 -1.406
94.78000 3.567
94.80000 4.050
94.82000 4.801
94.84000 3.831
94.86000 5.644
94.88000 1.851
94.90000 2.931
94.92000 4.330
94.94000 5.280
94.96000 6.822
94.98000 3.792
95.00000 0.592
95.02000 0.057
95.04000 2.807
95.06000 6.225
95.08000 5.521
95.10000 2.376
95.12000 2.217
95.14000 3.302
95.16000 1.775
95.18000 3.925
95.20000 5.821
95.22000 9.418
95.24000 8.421
95.26000 5.114
95.28000 5.018
95.30000 4.594
95.32000 6.355
95.34000 3.216
95.36000 6.053
95.38000 6.371
95.40000 5.867
95.42000 2.428
95.44000 2.957
95.46000 3.822
95.48000 4.120
95.50000 3.853
95.52000 6.229
95.54000 8.355
95.56000 3.783
95.58000 4.963
95.60000 2.520
95.62000 -0.214
95.64000 3.071
95.66000 5.930
95.68000 4.277
95.70000 3.548
95.72000 4.571
95.74000 7.771
95.76000 5.397
95.78000 3.655
95.80000 4.111
95.82000 4.797
95.84000 3.441
95.86000 5.657
95.88000 8.774
95.90000 4.653
95.92000 1.469
95.94000 5.899
95.96000 6.685
95.98000 5.604
96.00000 9.405
96.02000 12.971
96.04000 9.327
96.06000 8.491
96.08000 9.715
96.10000 2.893
96.12000 -2.063
96.14000 1.429
96.16000 4.599
96.18000 4.945
96.20000 3.682
96.22000 -0.820
96.24000 8.012
96.26000 9.553
96.28000 11.699
96.30000 10.417
96.32000 3.472
96.34000 5.721
96.36000 9.652
96.38000 8.364
96.40000 11.210
96.42000 11.327
96.44000 10.113
96.46000 9.022
96.48000 8.771
96.50000 9.390
96.52000 7.750
96.54000 6.560
96.56000 5.364
96.58000 6.093
96.60000 5.730
96.62000 6.073
96.64000 7.558
96.66000 4.628
96.68000 6.514
96.70000 10.033
96.72000 8.392
96.74000 9.478
96.76000 8.409
96.78000 6.830
96.80000 6.217
96.82000 6.964
96.84000 8.899
96.86000 9.719
96.88000 9.633
96.90000 14.729
96.92000 9.932
96.94000 6.832
96.96000 9.648
96.98000 4.567
97.00000 2.022
97.02000 4.481
97.04000 5.506
97.06000 4.919
97.08000 6.986
97.10000 7.625
97.12000 0.757
97.14000 -1.752
97.16000 5.043
97.18000 6.193
97.20000 -2.056
97.22000 3.562
97.24000 9.760
97.26000 7.395
97.28000 5.929
97.30000 2.490
97.32000 3.123
97.34000 4.761
97.36000 5.198
97.38000 10.485
97.40000 13.036
97.42000 5.397
97.44000 4.154
97.46000 5.154
97.48000 3.764
97.50000 0.162
97.52000 5.287
97.54000 4.480
97.56000 6.794
97.58000 6.042
97.60000 7.348
97.62000 12.482
97.64000 7.024
97.66000 7.225
97.68000 4.205
97.70000 3.111
97.72000 7.442
97.74000 10.219
97.76000 7.711
97.78000 8.836
97.80000 -0.036
97.82000 -0.407
97.84000 4.642
97.86000 10.791
97.88000 3.404
97.90000 5.655
97.92000 8.372
97.94000 7.512
97.96000 -2.322
97.98000 3.126
98.00000 6.956
98.02000 5.733
98.04000 11.784
98.06000 2.997
98.08000 0.392
98.10000 0.482
98.12000 2.126
98.14000 4.824
98.16000 4.609
98.18000 -2.065
98.20000 1.395
98.22000 0.279
98.24000 2.177
98.26000 1.011
98.28000 3.409
98.30000 4.488
98.32000 9.427
98.34000 6.730
98.36000 7.368
98.38000 8.930
98.40000 2.570
98.42000 4.378
98.44000 4.196
98.46000 9.156
98.48000 7.352
98.50000 12.216
98.52000 11.087
98.54000 6.748
98.56000 -1.684
98.58000 2.723
98.60000 5.743
98.62000 2.305
98.64000 4.314
98.66000 3.175
98.68000 1.123
98.70000 12.518
98.72000 8.179
98.74000 -0.826
98.76000 1.120
98.78000 6.206
98.80000 12.589
98.82000 7.063
98.84000 6.032
98.86000 2.359
98.88000 3.751
98.90000 4.094
98.92000 5.954
98.94000 7.984
98.96000 -0.095
98.98000 -1.377
99.00000 7.932
99.02000 4.843
99.04000 6.480
99.06000 10.924
99.08000 16.561
99.10000 14.618
99.12000 6.829
99.14000 12.113
99.16000 6.732
99.18000 5.216
99.20000 3.356
99.22000 7.115
99.24000 16.228
99.26000 17.895
99.28000 12.482
99.30000 8.024
99.32000 8.976
99.34000 7.860
99.36000 5.470
99.38000 9.124
99.40000 9.814
99.42000 13.019
99.44000 10.754
99.46000 10.331
99.48000 12.945
99.50000 9.030
99.52000 7.564
99.54000 4.870
99.56000 8.545
99.58000 5.654
99.60000 7.454
99.62000 6.219
99.64000 9.327
99.66000 8.499
99.68000 4.995
99.70000 -2.843
99.72000 4.112
99.74000 4.762
99.76000 2.036
99.78000 8.188
99.80000 6.753
99.82000 4.365
99.84000 1.849
99.86000 4.801
99.88000 -2.217
99.90000 0.503
99.92000 2.600
99.94000 1.718
99.96000 3.206
99.98000 0.000
