'Id: "0011387" Comment: "Integrate frame 0011387_Au-Ir-Rh_Rh-rich_XRD-Mapping-116-0000.gfrmwith cursor Wedge Cursor #5" Operator: "B?rgel" Anode: "Cu" Wavelength: "1.5406" Scantype: "2Theta (TwoTheta)" TimePerStep: "1" X: "-40.5" Y: "-9" Z: "5.95" 
10.00000 0.000
10.02000 2.926
10.04000 11.028
10.06000 17.783
10.08000 20.151
10.10000 -8.572
10.12000 1.425
10.14000 1.326
10.16000 -0.830
10.18000 2.851
10.20000 3.690
10.22000 1.517
10.24000 -0.761
10.26000 -4.133
10.28000 7.229
10.30000 21.148
10.32000 14.818
10.34000 9.446
10.36000 -0.688
10.38000 -1.218
10.40000 0.271
10.42000 8.893
10.44000 17.588
10.46000 13.516
10.48000 4.979
10.50000 17.608
10.52000 8.960
10.54000 6.034
10.56000 9.680
10.58000 18.124
10.60000 18.994
10.62000 1.552
10.64000 12.016
10.66000 10.584
10.68000 17.439
10.70000 -0.769
10.72000 6.084
10.74000 15.437
10.76000 13.619
10.78000 5.586
10.80000 0.125
10.82000 3.946
10.84000 10.206
10.86000 7.186
10.88000 13.545
10.90000 21.770
10.92000 17.713
10.94000 15.386
10.96000 24.334
10.98000 20.457
11.00000 14.856
11.02000 10.884
11.04000 16.547
11.06000 23.760
11.08000 30.724
11.10000 23.728
11.12000 12.794
11.14000 -0.599
11.16000 6.667
11.18000 25.131
11.20000 17.778
11.22000 17.535
11.24000 5.201
11.26000 13.518
11.28000 10.404
11.30000 2.652
11.32000 2.488
11.34000 4.308
11.36000 7.808
11.38000 14.589
11.40000 13.553
11.42000 5.982
11.44000 13.418
11.46000 17.106
11.48000 6.571
11.50000 5.894
11.52000 13.439
11.54000 3.786
11.56000 2.504
11.58000 21.400
11.60000 8.400
11.62000 -7.203
11.64000 13.339
11.66000 22.259
11.68000 10.151
11.70000 6.275
11.72000 8.681
11.74000 21.169
11.76000 27.964
11.78000 17.145
11.80000 6.368
11.82000 3.725
11.84000 4.634
11.86000 1.973
11.88000 11.687
11.90000 9.872
11.92000 10.335
11.94000 17.270
11.96000 12.669
11.98000 4.955
12.00000 23.740
12.02000 26.006
12.04000 7.013
12.06000 8.959
12.08000 3.269
12.10000 7.190
12.12000 4.656
12.14000 -4.495
12.16000 1.388
12.18000 2.453
12.20000 -3.743
12.22000 12.396
12.24000 16.646
12.26000 8.620
12.28000 2.806
12.30000 -2.557
12.32000 6.987
12.34000 -3.015
12.36000 -1.397
12.38000 15.666
12.40000 10.637
12.42000 11.544
12.44000 9.547
12.46000 3.220
12.48000 14.394
12.50000 2.854
12.52000 14.319
12.54000 10.900
12.56000 -0.176
12.58000 9.424
12.60000 8.048
12.62000 5.840
12.64000 10.709
12.66000 13.879
12.68000 14.828
12.70000 15.524
12.72000 11.109
12.74000 5.695
12.76000 9.071
12.78000 15.115
12.80000 10.705
12.82000 5.203
12.84000 11.666
12.86000 16.267
12.88000 14.245
12.90000 13.262
12.92000 14.307
12.94000 2.634
12.96000 0.134
12.98000 6.371
13.00000 6.358
13.02000 6.699
13.04000 6.402
13.06000 2.622
13.08000 7.553
13.10000 11.597
13.12000 9.476
13.14000 10.164
13.16000 16.602
13.18000 15.992
13.20000 12.692
13.22000 15.242
13.24000 5.469
13.26000 6.428
13.28000 8.830
13.30000 8.657
13.32000 2.694
13.34000 11.017
13.36000 9.584
13.38000 5.197
13.40000 8.475
13.42000 -2.726
13.44000 7.751
13.46000 4.438
13.48000 4.660
13.50000 9.157
13.52000 17.421
13.54000 15.553
13.56000 7.490
13.58000 -2.081
13.60000 -0.931
13.62000 3.037
13.64000 3.749
13.66000 6.935
13.68000 5.451
13.70000 -2.626
13.72000 -3.908
13.74000 -1.482
13.76000 4.635
13.78000 3.063
13.80000 10.638
13.82000 7.012
13.84000 0.345
13.86000 1.059
13.88000 6.836
13.90000 12.556
13.92000 9.013
13.94000 7.745
13.96000 3.457
13.98000 -4.499
14.00000 5.451
14.02000 10.589
14.04000 4.969
14.06000 8.839
14.08000 13.017
14.10000 5.701
14.12000 6.352
14.14000 10.123
14.16000 8.386
14.18000 4.345
14.20000 3.232
14.22000 6.047
14.24000 4.446
14.26000 4.010
14.28000 11.402
14.30000 5.965
14.32000 0.144
14.34000 7.837
14.36000 12.572
14.38000 8.575
14.40000 14.256
14.42000 6.813
14.44000 2.350
14.46000 19.644
14.48000 14.943
14.50000 7.381
14.52000 4.630
14.54000 2.867
14.56000 -0.688
14.58000 5.286
14.60000 0.724
14.62000 6.770
14.64000 1.076
14.66000 7.833
14.68000 3.820
14.70000 0.977
14.72000 5.394
14.74000 8.615
14.76000 12.068
14.78000 14.064
14.80000 9.463
14.82000 2.679
14.84000 0.115
14.86000 2.977
14.88000 2.423
14.90000 3.745
14.92000 -1.100
14.94000 3.897
14.96000 5.015
14.98000 3.918
15.00000 5.622
15.02000 0.781
15.04000 8.437
15.06000 10.528
15.08000 1.572
15.10000 0.351
15.12000 -0.433
15.14000 2.887
15.16000 2.677
15.18000 0.392
15.20000 10.176
15.22000 7.745
15.24000 12.478
15.26000 11.755
15.28000 6.393
15.30000 16.439
15.32000 9.216
15.34000 8.432
15.36000 6.247
15.38000 -4.447
15.40000 5.406
15.42000 15.610
15.44000 15.422
15.46000 10.074
15.48000 7.480
15.50000 2.207
15.52000 8.783
15.54000 17.492
15.56000 7.163
15.58000 9.190
15.60000 6.391
15.62000 4.515
15.64000 13.040
15.66000 6.385
15.68000 -1.776
15.70000 2.537
15.72000 3.317
15.74000 4.062
15.76000 -0.195
15.78000 -1.856
15.80000 15.927
15.82000 11.197
15.84000 8.867
15.86000 1.443
15.88000 1.271
15.90000 1.201
15.92000 8.540
15.94000 10.162
15.96000 14.759
15.98000 11.272
16.00000 -4.087
16.02000 -2.795
16.04000 -0.833
16.06000 3.408
16.08000 6.780
16.10000 1.710
16.12000 3.784
16.14000 1.802
16.16000 8.870
16.18000 5.577
16.20000 4.871
16.22000 -2.040
16.24000 7.273
16.26000 4.174
16.28000 -3.397
16.30000 -0.829
16.32000 2.836
16.34000 -4.394
16.36000 4.290
16.38000 -0.313
16.40000 2.457
16.42000 6.860
16.44000 12.042
16.46000 18.646
16.48000 13.589
16.50000 5.282
16.52000 4.404
16.54000 6.650
16.56000 10.424
16.58000 6.393
16.60000 -1.588
16.62000 7.010
16.64000 6.117
16.66000 7.917
16.68000 6.366
16.70000 -3.135
16.72000 -1.754
16.74000 4.528
16.76000 5.034
16.78000 4.398
16.80000 -1.748
16.82000 7.933
16.84000 8.111
16.86000 5.798
16.88000 11.944
16.90000 13.015
16.92000 12.366
16.94000 7.515
16.96000 13.115
16.98000 13.865
17.00000 12.736
17.02000 13.543
17.04000 9.004
17.06000 4.987
17.08000 7.786
17.10000 2.446
17.12000 2.698
17.14000 14.819
17.16000 10.164
17.18000 5.675
17.20000 3.839
17.22000 0.804
17.24000 -4.338
17.26000 4.063
17.28000 11.840
17.30000 7.853
17.32000 4.553
17.34000 4.445
17.36000 4.411
17.38000 9.417
17.40000 4.462
17.42000 1.059
17.44000 13.363
17.46000 12.670
17.48000 8.735
17.50000 9.715
17.52000 6.595
17.54000 3.719
17.56000 4.969
17.58000 9.280
17.60000 5.454
17.62000 1.996
17.64000 6.443
17.66000 4.337
17.68000 -0.719
17.70000 7.317
17.72000 13.103
17.74000 5.779
17.76000 4.957
17.78000 5.480
17.80000 4.442
17.82000 2.666
17.84000 10.938
17.86000 12.871
17.88000 14.367
17.90000 8.310
17.92000 7.817
17.94000 7.353
17.96000 7.062
17.98000 10.022
18.00000 8.985
18.02000 8.646
18.04000 5.605
18.06000 5.291
18.08000 2.612
18.10000 5.482
18.12000 13.233
18.14000 13.363
18.16000 11.128
18.18000 11.635
18.20000 12.107
18.22000 8.812
18.24000 6.431
18.26000 5.869
18.28000 9.701
18.30000 12.614
18.32000 6.817
18.34000 1.582
18.36000 -1.161
18.38000 4.862
18.40000 3.146
18.42000 -0.697
18.44000 2.239
18.46000 7.918
18.48000 3.807
18.50000 7.195
18.52000 3.738
18.54000 6.605
18.56000 -1.340
18.58000 4.913
18.60000 8.454
18.62000 8.079
18.64000 9.857
18.66000 -0.052
18.68000 0.084
18.70000 -0.468
18.72000 -1.405
18.74000 -4.248
18.76000 6.524
18.78000 11.705
18.80000 5.022
18.82000 4.056
18.84000 10.552
18.86000 8.978
18.88000 8.010
18.90000 8.924
18.92000 8.004
18.94000 3.843
18.96000 6.130
18.98000 6.292
19.00000 6.929
19.02000 5.985
19.04000 0.069
19.06000 0.482
19.08000 4.144
19.10000 3.459
19.12000 10.229
19.14000 3.492
19.16000 3.952
19.18000 6.204
19.20000 -0.951
19.22000 -4.220
19.24000 1.581
19.26000 9.162
19.28000 8.508
19.30000 8.432
19.32000 4.362
19.34000 0.529
19.36000 3.652
19.38000 2.963
19.40000 -1.153
19.42000 -2.139
19.44000 6.233
19.46000 10.921
19.48000 9.833
19.50000 -0.503
19.52000 4.548
19.54000 6.860
19.56000 7.907
19.58000 5.920
19.60000 5.638
19.62000 0.282
19.64000 2.359
19.66000 -0.657
19.68000 1.623
19.70000 6.578
19.72000 11.933
19.74000 6.562
19.76000 5.818
19.78000 8.055
19.80000 9.545
19.82000 6.184
19.84000 -0.409
19.86000 1.205
19.88000 1.438
19.90000 -0.264
19.92000 2.341
19.94000 8.486
19.96000 1.692
19.98000 2.613
20.00000 10.318
20.02000 3.143
20.04000 -1.242
20.06000 -2.617
20.08000 5.407
20.10000 6.488
20.12000 1.224
20.14000 0.169
20.16000 0.893
20.18000 -4.078
20.20000 0.711
20.22000 3.866
20.24000 3.352
20.26000 5.898
20.28000 0.391
20.30000 2.302
20.32000 1.474
20.34000 1.540
20.36000 2.804
20.38000 1.836
20.40000 5.761
20.42000 6.139
20.44000 3.822
20.46000 0.755
20.48000 2.943
20.50000 3.229
20.52000 2.416
20.54000 2.766
20.56000 1.774
20.58000 3.386
20.60000 5.838
20.62000 0.106
20.64000 -0.773
20.66000 4.141
20.68000 3.885
20.70000 4.391
20.72000 -4.154
20.74000 -2.851
20.76000 -2.182
20.78000 5.797
20.80000 8.105
20.82000 5.257
20.84000 6.097
20.86000 6.782
20.88000 6.454
20.90000 5.800
20.92000 6.022
20.94000 13.687
20.96000 4.905
20.98000 -0.625
21.00000 -3.256
21.02000 6.700
21.04000 1.905
21.06000 -0.461
21.08000 5.204
21.10000 6.290
21.12000 -0.330
21.14000 -2.181
21.16000 -3.853
21.18000 -1.545
21.20000 -3.948
21.22000 1.675
21.24000 -1.602
21.26000 -2.754
21.28000 3.549
21.30000 8.287
21.32000 6.433
21.34000 2.596
21.36000 0.054
21.38000 0.957
21.40000 -4.137
21.42000 -1.560
21.44000 6.274
21.46000 10.776
21.48000 9.731
21.50000 1.694
21.52000 3.431
21.54000 7.995
21.56000 6.646
21.58000 9.137
21.60000 3.636
21.62000 -2.718
21.64000 3.425
21.66000 -0.329
21.68000 -0.483
21.70000 0.474
21.72000 3.108
21.74000 3.066
21.76000 3.513
21.78000 4.997
21.80000 4.177
21.82000 2.093
21.84000 2.256
21.86000 4.539
21.88000 -0.111
21.90000 2.300
21.92000 4.585
21.94000 8.114
21.96000 6.251
21.98000 8.009
22.00000 7.825
22.02000 2.968
22.04000 5.309
22.06000 1.213
22.08000 -0.396
22.10000 2.912
22.12000 -2.056
22.14000 0.028
22.16000 1.611
22.18000 3.095
22.20000 5.726
22.22000 1.311
22.24000 4.673
22.26000 1.545
22.28000 2.133
22.30000 5.914
22.32000 5.508
22.34000 5.429
22.36000 7.946
22.38000 4.135
22.40000 3.217
22.42000 7.518
22.44000 5.560
22.46000 3.142
22.48000 8.490
22.50000 4.896
22.52000 -0.974
22.54000 -0.905
22.56000 -2.544
22.58000 5.004
22.60000 9.089
22.62000 7.145
22.64000 4.476
22.66000 1.484
22.68000 -3.442
22.70000 -3.317
22.72000 -4.042
22.74000 4.250
22.76000 2.846
22.78000 0.673
22.80000 6.981
22.82000 3.819
22.84000 0.358
22.86000 -1.752
22.88000 1.974
22.90000 3.283
22.92000 5.422
22.94000 6.660
22.96000 4.429
22.98000 -2.764
23.00000 1.265
23.02000 6.679
23.04000 3.755
23.06000 2.338
23.08000 0.170
23.10000 -0.441
23.12000 2.300
23.14000 1.916
23.16000 2.436
23.18000 -3.036
23.20000 1.270
23.22000 6.522
23.24000 7.331
23.26000 8.076
23.28000 8.035
23.30000 6.223
23.32000 5.484
23.34000 1.455
23.36000 3.160
23.38000 6.058
23.40000 1.319
23.42000 7.265
23.44000 3.050
23.46000 4.224
23.48000 7.716
23.50000 2.851
23.52000 -1.256
23.54000 0.128
23.56000 5.627
23.58000 0.986
23.60000 4.294
23.62000 7.756
23.64000 12.194
23.66000 6.115
23.68000 5.112
23.70000 0.170
23.72000 3.464
23.74000 7.363
23.76000 8.187
23.78000 3.005
23.80000 0.478
23.82000 3.089
23.84000 3.563
23.86000 6.041
23.88000 7.080
23.90000 4.636
23.92000 1.314
23.94000 -1.902
23.96000 2.252
23.98000 4.366
24.00000 4.512
24.02000 1.178
24.04000 -3.965
24.06000 2.669
24.08000 5.285
24.10000 0.412
24.12000 -3.021
24.14000 -2.296
24.16000 -2.619
24.18000 4.485
24.20000 5.687
24.22000 6.813
24.24000 -0.562
24.26000 2.690
24.28000 -0.390
24.30000 4.142
24.32000 5.764
24.34000 5.053
24.36000 1.179
24.38000 5.049
24.40000 11.262
24.42000 7.660
24.44000 6.382
24.46000 15.471
24.48000 12.866
24.50000 2.900
24.52000 -3.793
24.54000 -2.348
24.56000 3.228
24.58000 5.632
24.60000 -1.264
24.62000 -3.924
24.64000 1.066
24.66000 3.966
24.68000 8.053
24.70000 6.250
24.72000 3.452
24.74000 7.406
24.76000 6.936
24.78000 5.017
24.80000 -1.698
24.82000 0.683
24.84000 7.902
24.86000 4.233
24.88000 3.097
24.90000 -0.086
24.92000 1.407
24.94000 2.827
24.96000 1.517
24.98000 8.574
25.00000 6.880
25.02000 3.568
25.04000 4.527
25.06000 7.498
25.08000 7.919
25.10000 4.879
25.12000 2.682
25.14000 6.080
25.16000 2.508
25.18000 -2.598
25.20000 -3.909
25.22000 4.809
25.24000 3.951
25.26000 3.688
25.28000 -0.853
25.30000 2.506
25.32000 5.701
25.34000 2.345
25.36000 2.843
25.38000 4.409
25.40000 6.674
25.42000 1.680
25.44000 -2.119
25.46000 2.326
25.48000 6.355
25.50000 5.062
25.52000 4.872
25.54000 -0.768
25.56000 5.416
25.58000 7.989
25.60000 4.586
25.62000 7.411
25.64000 9.608
25.66000 7.327
25.68000 5.037
25.70000 3.185
25.72000 -3.885
25.74000 -0.137
25.76000 3.508
25.78000 9.365
25.80000 4.172
25.82000 5.907
25.84000 4.444
25.86000 2.249
25.88000 1.676
25.90000 4.931
25.92000 12.372
25.94000 9.201
25.96000 7.424
25.98000 2.516
26.00000 1.693
26.02000 5.424
26.04000 9.762
26.06000 5.567
26.08000 5.010
26.10000 4.782
26.12000 1.765
26.14000 -1.591
26.16000 0.576
26.18000 3.296
26.20000 2.821
26.22000 -0.139
26.24000 -0.029
26.26000 3.002
26.28000 0.855
26.30000 5.042
26.32000 5.423
26.34000 2.021
26.36000 -1.971
26.38000 0.738
26.40000 5.861
26.42000 3.046
26.44000 3.362
26.46000 5.502
26.48000 6.856
26.50000 7.753
26.52000 4.937
26.54000 7.265
26.56000 1.663
26.58000 -3.822
26.60000 1.998
26.62000 1.246
26.64000 4.884
26.66000 8.276
26.68000 3.810
26.70000 3.572
26.72000 8.975
26.74000 10.825
26.76000 7.785
26.78000 8.296
26.80000 11.437
26.82000 10.445
26.84000 4.879
26.86000 4.336
26.88000 6.756
26.90000 6.717
26.92000 1.326
26.94000 -1.740
26.96000 -3.812
26.98000 3.823
27.00000 4.452
27.02000 7.422
27.04000 9.045
27.06000 10.490
27.08000 8.001
27.10000 0.792
27.12000 3.611
27.14000 6.996
27.16000 4.256
27.18000 6.085
27.20000 -0.301
27.22000 2.844
27.24000 5.307
27.26000 -1.451
27.28000 -0.582
27.30000 0.407
27.32000 1.787
27.34000 -2.935
27.36000 -1.131
27.38000 2.286
27.40000 6.016
27.42000 8.876
27.44000 -1.257
27.46000 -3.499
27.48000 4.318
27.50000 4.188
27.52000 -1.253
27.54000 -3.719
27.56000 -1.411
27.58000 -0.269
27.60000 3.008
27.62000 4.117
27.64000 3.046
27.66000 4.788
27.68000 2.549
27.70000 5.094
27.72000 1.000
27.74000 1.631
27.76000 5.475
27.78000 4.860
27.80000 4.140
27.82000 1.022
27.84000 1.084
27.86000 4.309
27.88000 3.640
27.90000 0.704
27.92000 -1.063
27.94000 -3.775
27.96000 0.919
27.98000 2.817
28.00000 0.371
28.02000 2.473
28.04000 1.837
28.06000 -0.857
28.08000 0.284
28.10000 1.280
28.12000 -1.851
28.14000 1.500
28.16000 1.914
28.18000 3.153
28.20000 0.808
28.22000 3.288
28.24000 0.699
28.26000 2.081
28.28000 2.566
28.30000 0.928
28.32000 -0.170
28.34000 -1.733
28.36000 0.655
28.38000 0.607
28.40000 3.515
28.42000 3.172
28.44000 2.908
28.46000 6.494
28.48000 3.598
28.50000 0.553
28.52000 -2.955
28.54000 -1.965
28.56000 2.946
28.58000 1.522
28.60000 3.114
28.62000 7.392
28.64000 2.310
28.66000 0.505
28.68000 0.919
28.70000 3.307
28.72000 2.319
28.74000 -0.544
28.76000 -0.902
28.78000 -3.723
28.80000 3.065
28.82000 4.061
28.84000 0.894
28.86000 3.048
28.88000 1.239
28.90000 0.925
28.92000 2.220
28.94000 0.284
28.96000 -2.756
28.98000 -0.915
29.00000 6.926
29.02000 5.405
29.04000 2.657
29.06000 -0.560
29.08000 0.944
29.10000 0.677
29.12000 0.907
29.14000 3.471
29.16000 -1.488
29.18000 -2.540
29.20000 0.347
29.22000 1.513
29.24000 3.458
29.26000 6.350
29.28000 4.086
29.30000 -2.462
29.32000 1.201
29.34000 -1.132
29.36000 -1.401
29.38000 1.163
29.40000 2.048
29.42000 -1.325
29.44000 -3.692
29.46000 -1.326
29.48000 0.110
29.50000 0.580
29.52000 3.959
29.54000 3.834
29.56000 0.422
29.58000 -1.171
29.60000 3.559
29.62000 8.483
29.64000 3.428
29.66000 6.283
29.68000 6.140
29.70000 -0.251
29.72000 0.829
29.74000 -0.086
29.76000 1.145
29.78000 -1.570
29.80000 0.626
29.82000 2.674
29.84000 2.148
29.86000 1.417
29.88000 3.395
29.90000 5.006
29.92000 0.506
29.94000 2.584
29.96000 2.900
29.98000 3.665
30.00000 4.021
30.02000 1.369
30.04000 0.070
30.06000 0.260
30.08000 3.626
30.10000 1.970
30.12000 3.232
30.14000 4.231
30.16000 4.786
30.18000 2.216
30.20000 2.126
30.22000 6.841
30.24000 4.182
30.26000 0.737
30.28000 5.996
30.30000 6.467
30.32000 1.974
30.34000 2.181
30.36000 3.663
30.38000 6.728
30.40000 3.564
30.42000 0.836
30.44000 4.034
30.46000 4.395
30.48000 2.126
30.50000 -3.631
30.52000 -2.840
30.54000 -0.909
30.56000 0.751
30.58000 3.471
30.60000 3.791
30.62000 6.718
30.64000 4.516
30.66000 0.753
30.68000 5.351
30.70000 2.781
30.72000 -2.736
30.74000 -0.854
30.76000 3.712
30.78000 5.425
30.80000 1.114
30.82000 1.600
30.84000 5.163
30.86000 2.106
30.88000 2.434
30.90000 1.635
30.92000 0.157
30.94000 0.968
30.96000 2.805
30.98000 5.741
31.00000 3.612
31.02000 -3.614
31.04000 -0.064
31.06000 0.409
31.08000 0.264
31.10000 0.799
31.12000 1.998
31.14000 1.934
31.16000 3.125
31.18000 4.912
31.20000 5.526
31.22000 2.563
31.24000 -2.556
31.26000 -0.259
31.28000 -1.220
31.30000 2.042
31.32000 2.547
31.34000 4.249
31.36000 2.022
31.38000 2.906
31.40000 4.033
31.42000 1.255
31.44000 3.707
31.46000 3.896
31.48000 3.969
31.50000 2.728
31.52000 -0.282
31.54000 -2.534
31.56000 -0.135
31.58000 4.895
31.60000 4.397
31.62000 4.505
31.64000 6.333
31.66000 6.114
31.68000 3.333
31.70000 -0.240
31.72000 -1.593
31.74000 -0.693
31.76000 4.300
31.78000 1.413
31.80000 0.878
31.82000 1.211
31.84000 4.050
31.86000 7.869
31.88000 9.023
31.90000 6.597
31.92000 5.254
31.94000 2.488
31.96000 8.998
31.98000 6.688
32.00000 3.176
32.02000 8.096
32.04000 3.287
32.06000 6.266
32.08000 9.550
32.10000 4.877
32.12000 -2.310
32.14000 -3.536
32.16000 0.047
32.18000 2.052
32.20000 0.073
32.22000 3.643
32.24000 2.977
32.26000 3.183
32.28000 0.905
32.30000 2.924
32.32000 5.340
32.34000 2.021
32.36000 2.456
32.38000 2.995
32.40000 3.508
32.42000 2.890
32.44000 5.868
32.46000 5.119
32.48000 1.651
32.50000 -1.853
32.52000 2.486
32.54000 4.168
32.56000 7.945
32.58000 8.078
32.60000 4.081
32.62000 8.679
32.64000 11.378
32.66000 2.959
32.68000 -0.009
32.70000 4.549
32.72000 3.676
32.74000 2.719
32.76000 0.845
32.78000 -2.251
32.80000 -0.713
32.82000 0.430
32.84000 -0.156
32.86000 0.523
32.88000 0.168
32.90000 -0.700
32.92000 5.696
32.94000 3.420
32.96000 -0.106
32.98000 1.535
33.00000 0.744
33.02000 1.735
33.04000 2.897
33.06000 2.578
33.08000 4.295
33.10000 6.923
33.12000 7.033
33.14000 3.620
33.16000 -0.273
33.18000 1.280
33.20000 2.739
33.22000 1.904
33.24000 -2.255
33.26000 5.914
33.28000 2.398
33.30000 0.190
33.32000 1.602
33.34000 1.325
33.36000 -3.518
33.38000 -1.168
33.40000 0.504
33.42000 4.553
33.44000 3.235
33.46000 0.763
33.48000 1.961
33.50000 2.944
33.52000 1.930
33.54000 -3.516
33.56000 -0.475
33.58000 4.583
33.60000 0.240
33.62000 1.925
33.64000 1.766
33.66000 -0.959
33.68000 4.534
33.70000 3.019
33.72000 0.397
33.74000 1.043
33.76000 0.211
33.78000 2.538
33.80000 6.212
33.82000 7.246
33.84000 3.469
33.86000 2.334
33.88000 0.916
33.90000 -2.794
33.92000 4.302
33.94000 -0.002
33.96000 0.276
33.98000 -1.511
34.00000 1.826
34.02000 3.792
34.04000 3.060
34.06000 3.046
34.08000 0.665
34.10000 6.346
34.12000 6.328
34.14000 0.545
34.16000 0.056
34.18000 0.018
34.20000 3.945
34.22000 5.832
34.24000 8.793
34.26000 7.701
34.28000 4.921
34.30000 3.406
34.32000 -0.746
34.34000 -3.500
34.36000 2.729
34.38000 3.088
34.40000 1.097
34.42000 1.307
34.44000 5.994
34.46000 1.009
34.48000 0.843
34.50000 4.457
34.52000 8.123
34.54000 6.911
34.56000 4.565
34.58000 3.349
34.60000 -1.077
34.62000 1.832
34.64000 3.527
34.66000 -1.534
34.68000 -2.798
34.70000 -2.499
34.72000 0.487
34.74000 -3.479
34.76000 -2.232
34.78000 -0.136
34.80000 5.127
34.82000 5.047
34.84000 7.416
34.86000 6.555
34.88000 5.529
34.90000 5.410
34.92000 5.583
34.94000 2.065
34.96000 4.011
34.98000 2.842
35.00000 1.571
35.02000 4.226
35.04000 2.595
35.06000 1.218
35.08000 4.514
35.10000 7.111
35.12000 4.930
35.14000 3.241
35.16000 2.865
35.18000 4.612
35.20000 3.131
35.22000 3.181
35.24000 2.897
35.26000 5.076
35.28000 0.899
35.30000 -2.246
35.32000 -3.451
35.34000 3.632
35.36000 8.246
35.38000 6.406
35.40000 8.687
35.42000 9.617
35.44000 4.635
35.46000 2.978
35.48000 6.807
35.50000 6.254
35.52000 6.506
35.54000 3.859
35.56000 1.057
35.58000 3.493
35.60000 6.812
35.62000 8.273
35.64000 6.561
35.66000 5.657
35.68000 8.555
35.70000 13.028
35.72000 5.853
35.74000 0.470
35.76000 -3.434
35.78000 -2.317
35.80000 2.282
35.82000 6.801
35.84000 7.345
35.86000 2.376
35.88000 3.958
35.90000 1.010
35.92000 0.326
35.94000 3.046
35.96000 1.236
35.98000 1.999
36.00000 2.833
36.02000 5.001
36.04000 7.667
36.06000 7.616
36.08000 3.202
36.10000 2.115
36.12000 3.250
36.14000 6.072
36.16000 5.041
36.18000 4.975
36.20000 6.662
36.22000 10.673
36.24000 7.554
36.26000 -3.437
36.28000 2.448
36.30000 2.468
36.32000 4.703
36.34000 5.731
36.36000 2.878
36.38000 1.292
36.40000 2.935
36.42000 4.816
36.44000 6.235
36.46000 4.523
36.48000 3.275
36.50000 8.666
36.52000 3.924
36.54000 0.578
36.56000 1.670
36.58000 2.903
36.60000 5.500
36.62000 4.175
36.64000 1.815
36.66000 3.654
36.68000 -1.242
36.70000 2.985
36.72000 2.474
36.74000 3.840
36.76000 2.381
36.78000 3.162
36.80000 2.026
36.82000 2.100
36.84000 -1.645
36.86000 2.374
36.88000 6.365
36.90000 -0.936
36.92000 -2.472
36.94000 0.701
36.96000 1.483
36.98000 3.848
37.00000 1.396
37.02000 -0.937
37.04000 1.670
37.06000 -1.729
37.08000 -2.741
37.10000 -2.185
37.12000 -1.735
37.14000 -0.140
37.16000 0.274
37.18000 6.074
37.20000 1.853
37.22000 -0.030
37.24000 -3.523
37.26000 -0.885
37.28000 5.129
37.30000 1.440
37.32000 0.701
37.34000 -3.170
37.36000 -2.220
37.38000 -1.860
37.40000 -3.472
37.42000 -3.540
37.44000 2.405
37.46000 2.232
37.48000 3.210
37.50000 3.352
37.52000 -2.094
37.54000 -3.556
37.56000 4.199
37.58000 4.448
37.60000 3.462
37.62000 -1.270
37.64000 0.180
37.66000 0.381
37.68000 -1.192
37.70000 -2.152
37.72000 -3.017
37.74000 1.134
37.76000 0.603
37.78000 4.693
37.80000 6.655
37.82000 2.717
37.84000 1.739
37.86000 3.314
37.88000 4.133
37.90000 4.522
37.92000 0.989
37.94000 3.986
37.96000 7.212
37.98000 8.647
38.00000 7.742
38.02000 6.553
38.04000 6.731
38.06000 7.195
38.08000 0.231
38.10000 1.062
38.12000 8.328
38.14000 9.460
38.16000 11.407
38.18000 12.661
38.20000 10.050
38.22000 10.681
38.24000 9.521
38.26000 9.831
38.28000 11.647
38.30000 14.541
38.32000 17.070
38.34000 20.265
38.36000 14.108
38.38000 11.391
38.40000 10.765
38.42000 16.809
38.44000 20.400
38.46000 22.867
38.48000 17.632
38.50000 13.817
38.52000 14.083
38.54000 19.242
38.56000 15.593
38.58000 11.945
38.60000 13.860
38.62000 14.333
38.64000 23.270
38.66000 25.909
38.68000 23.852
38.70000 23.784
38.72000 20.123
38.74000 16.686
38.76000 19.084
38.78000 21.162
38.80000 24.590
38.82000 24.788
38.84000 24.854
38.86000 31.819
38.88000 30.273
38.90000 28.172
38.92000 30.392
38.94000 34.393
38.96000 31.484
38.98000 34.173
39.00000 33.750
39.02000 36.743
39.04000 38.960
39.06000 45.469
39.08000 45.784
39.10000 44.097
39.12000 41.055
39.14000 40.833
39.16000 45.940
39.18000 47.667
39.20000 52.721
39.22000 56.613
39.24000 59.638
39.26000 60.074
39.28000 56.725
39.30000 57.556
39.32000 64.873
39.34000 63.329
39.36000 70.279
39.38000 79.084
39.40000 79.812
39.42000 79.803
39.44000 85.147
39.46000 88.761
39.48000 98.185
39.50000 102.371
39.52000 108.245
39.54000 112.958
39.56000 116.397
39.58000 118.908
39.60000 129.090
39.62000 138.533
39.64000 149.243
39.66000 149.786
39.68000 160.528
39.70000 171.202
39.72000 180.319
39.74000 197.381
39.76000 204.087
39.78000 218.097
39.80000 235.210
39.82000 249.148
39.84000 264.729
39.86000 288.710
39.88000 302.508
39.90000 332.498
39.92000 354.823
39.94000 372.564
39.96000 399.796
39.98000 425.754
40.00000 453.728
40.02000 494.202
40.04000 529.562
40.06000 549.224
40.08000 594.550
40.10000 647.497
40.12000 681.683
40.14000 719.255
40.16000 752.085
40.18000 806.046
40.20000 859.751
40.22000 893.081
40.24000 920.446
40.26000 955.882
40.28000 997.861
40.30000 1021.842
40.32000 1038.814
40.34000 1069.068
40.36000 1095.502
40.38000 1128.928
40.40000 1136.978
40.42000 1131.760
40.44000 1135.881
40.46000 1134.320
40.48000 1126.507
40.50000 1100.716
40.52000 1094.130
40.54000 1081.714
40.56000 1061.770
40.58000 1028.218
40.60000 996.117
40.62000 970.877
40.64000 946.406
40.66000 912.538
40.68000 874.401
40.70000 834.537
40.72000 801.895
40.74000 777.741
40.76000 741.004
40.78000 703.085
40.80000 675.195
40.82000 649.652
40.84000 614.777
40.86000 574.531
40.88000 535.114
40.90000 508.068
40.92000 482.355
40.94000 452.751
40.96000 420.256
40.98000 404.824
41.00000 391.822
41.02000 366.061
41.04000 338.371
41.06000 314.662
41.08000 301.376
41.10000 285.224
41.12000 258.775
41.14000 244.961
41.16000 235.703
41.18000 229.510
41.20000 209.823
41.22000 202.689
41.24000 192.530
41.26000 184.586
41.28000 178.932
41.30000 166.535
41.32000 150.511
41.34000 141.837
41.36000 135.337
41.38000 126.102
41.40000 120.230
41.42000 114.694
41.44000 111.639
41.46000 110.925
41.48000 103.222
41.50000 94.686
41.52000 90.371
41.54000 90.543
41.56000 81.618
41.58000 79.690
41.60000 78.691
41.62000 71.260
41.64000 70.584
41.66000 64.535
41.68000 60.059
41.70000 58.535
41.72000 60.844
41.74000 59.894
41.76000 55.761
41.78000 51.515
41.80000 51.003
41.82000 45.508
41.84000 42.736
41.86000 43.283
41.88000 44.943
41.90000 40.136
41.92000 36.483
41.94000 30.562
41.96000 32.622
41.98000 31.004
42.00000 28.717
42.02000 27.006
42.04000 26.091
42.06000 29.540
42.08000 31.853
42.10000 28.451
42.12000 24.949
42.14000 20.595
42.16000 19.838
42.18000 18.045
42.20000 26.273
42.22000 20.569
42.24000 18.264
42.26000 15.542
42.28000 15.128
42.30000 13.929
42.32000 12.183
42.34000 8.846
42.36000 14.027
42.38000 16.516
42.40000 17.384
42.42000 10.609
42.44000 10.369
42.46000 17.225
42.48000 14.264
42.50000 9.464
42.52000 11.237
42.54000 10.643
42.56000 9.829
42.58000 10.280
42.60000 7.573
42.62000 8.593
42.64000 7.670
42.66000 7.808
42.68000 11.122
42.70000 8.647
42.72000 6.203
42.74000 3.737
42.76000 8.748
42.78000 12.130
42.80000 8.253
42.82000 3.544
42.84000 4.222
42.86000 1.850
42.88000 4.040
42.90000 7.068
42.92000 7.834
42.94000 8.266
42.96000 7.713
42.98000 8.092
43.00000 6.338
43.02000 4.530
43.04000 5.469
43.06000 1.947
43.08000 2.007
43.10000 4.152
43.12000 6.370
43.14000 3.906
43.16000 4.291
43.18000 2.097
43.20000 -3.453
43.22000 2.780
43.24000 4.683
43.26000 5.164
43.28000 4.186
43.30000 5.784
43.32000 4.331
43.34000 -0.343
43.36000 -2.250
43.38000 -0.435
43.40000 1.847
43.42000 2.649
43.44000 -0.013
43.46000 0.923
43.48000 1.902
43.50000 3.140
43.52000 2.896
43.54000 2.755
43.56000 0.481
43.58000 2.260
43.60000 2.048
43.62000 2.739
43.64000 3.952
43.66000 -0.679
43.68000 1.420
43.70000 5.589
43.72000 3.306
43.74000 2.161
43.76000 3.408
43.78000 1.981
43.80000 -0.993
43.82000 -0.093
43.84000 0.388
43.86000 3.914
43.88000 4.031
43.90000 -0.174
43.92000 -1.392
43.94000 -0.311
43.96000 2.863
43.98000 0.820
44.00000 -0.402
44.02000 1.514
44.04000 1.906
44.06000 1.087
44.08000 -1.046
44.10000 -2.364
44.12000 -1.576
44.14000 3.432
44.16000 5.063
44.18000 2.289
44.20000 4.167
44.22000 7.219
44.24000 7.489
44.26000 1.809
44.28000 0.081
44.30000 0.801
44.32000 5.182
44.34000 7.257
44.36000 3.241
44.38000 -0.035
44.40000 -3.263
44.42000 3.974
44.44000 4.906
44.46000 2.297
44.48000 1.171
44.50000 1.101
44.52000 2.775
44.54000 2.544
44.56000 1.986
44.58000 0.473
44.60000 -1.396
44.62000 -0.096
44.64000 -1.082
44.66000 -0.931
44.68000 -1.467
44.70000 -0.220
44.72000 2.430
44.74000 2.364
44.76000 6.254
44.78000 5.380
44.80000 4.356
44.82000 3.505
44.84000 2.322
44.86000 7.704
44.88000 4.793
44.90000 4.276
44.92000 4.308
44.94000 -0.258
44.96000 0.750
44.98000 4.822
45.00000 5.302
45.02000 0.487
45.04000 1.933
45.06000 0.994
45.08000 1.664
45.10000 -0.418
45.12000 4.416
45.14000 3.035
45.16000 6.086
45.18000 5.947
45.20000 2.937
45.22000 3.029
45.24000 2.901
45.26000 3.658
45.28000 3.074
45.30000 2.476
45.32000 4.336
45.34000 -0.520
45.36000 3.131
45.38000 3.410
45.40000 3.818
45.42000 4.972
45.44000 4.069
45.46000 1.022
45.48000 2.493
45.50000 5.822
45.52000 9.582
45.54000 9.902
45.56000 5.694
45.58000 5.482
45.60000 6.436
45.62000 5.040
45.64000 5.617
45.66000 8.224
45.68000 7.045
45.70000 6.907
45.72000 9.582
45.74000 13.960
45.76000 11.392
45.78000 13.992
45.80000 15.715
45.82000 15.747
45.84000 17.908
45.86000 17.846
45.88000 16.345
45.90000 17.605
45.92000 18.718
45.94000 20.554
45.96000 25.264
45.98000 25.644
46.00000 26.598
46.02000 23.691
46.04000 28.348
46.06000 30.233
46.08000 27.715
46.10000 30.013
46.12000 31.729
46.14000 35.288
46.16000 34.481
46.18000 38.633
46.20000 44.374
46.22000 39.723
46.24000 39.353
46.26000 40.882
46.28000 48.916
46.30000 53.364
46.32000 53.632
46.34000 54.312
46.36000 55.287
46.38000 57.365
46.40000 61.218
46.42000 65.151
46.44000 72.677
46.46000 73.083
46.48000 74.543
46.50000 83.128
46.52000 83.588
46.54000 88.105
46.56000 92.172
46.58000 99.977
46.60000 105.780
46.62000 106.180
46.64000 112.576
46.66000 121.511
46.68000 124.465
46.70000 131.974
46.72000 143.826
46.74000 144.693
46.76000 150.827
46.78000 155.988
46.80000 160.782
46.82000 167.757
46.84000 181.435
46.86000 183.088
46.88000 191.415
46.90000 189.252
46.92000 189.756
46.94000 195.845
46.96000 205.830
46.98000 205.225
47.00000 204.047
47.02000 206.349
47.04000 215.079
47.06000 214.375
47.08000 210.522
47.10000 211.286
47.12000 206.667
47.14000 199.226
47.16000 201.615
47.18000 207.863
47.20000 200.542
47.22000 186.001
47.24000 182.519
47.26000 176.328
47.28000 172.955
47.30000 168.815
47.32000 159.952
47.34000 154.145
47.36000 148.345
47.38000 149.053
47.40000 140.211
47.42000 131.928
47.44000 121.843
47.46000 106.351
47.48000 103.043
47.50000 102.765
47.52000 101.773
47.54000 97.112
47.56000 89.330
47.58000 85.913
47.60000 82.082
47.62000 75.214
47.64000 71.671
47.66000 71.747
47.68000 69.062
47.70000 63.879
47.72000 58.575
47.74000 55.472
47.76000 49.821
47.78000 43.125
47.80000 42.835
47.82000 43.574
47.84000 42.645
47.86000 40.870
47.88000 38.569
47.90000 35.451
47.92000 34.388
47.94000 34.941
47.96000 30.898
47.98000 27.709
48.00000 30.124
48.02000 22.383
48.04000 22.648
48.06000 20.636
48.08000 19.640
48.10000 19.498
48.12000 20.388
48.14000 18.813
48.16000 13.481
48.18000 11.996
48.20000 11.752
48.22000 12.914
48.24000 10.475
48.26000 11.084
48.28000 12.682
48.30000 10.624
48.32000 9.508
48.34000 14.673
48.36000 13.781
48.38000 6.867
48.40000 5.314
48.42000 8.746
48.44000 11.428
48.46000 7.757
48.48000 7.254
48.50000 5.159
48.52000 5.279
48.54000 3.932
48.56000 3.810
48.58000 5.779
48.60000 9.361
48.62000 6.228
48.64000 -2.291
48.66000 -2.873
48.68000 2.126
48.70000 5.429
48.72000 2.023
48.74000 -0.287
48.76000 4.842
48.78000 3.776
48.80000 -0.814
48.82000 3.269
48.84000 4.932
48.86000 6.097
48.88000 4.544
48.90000 2.950
48.92000 1.887
48.94000 5.281
48.96000 1.331
48.98000 -2.664
49.00000 3.587
49.02000 3.444
49.04000 2.872
49.06000 1.614
49.08000 5.408
49.10000 4.960
49.12000 2.477
49.14000 1.211
49.16000 3.098
49.18000 6.139
49.20000 3.330
49.22000 0.316
49.24000 -2.749
49.26000 4.945
49.28000 5.728
49.30000 2.078
49.32000 3.016
49.34000 0.918
49.36000 3.314
49.38000 4.169
49.40000 6.796
49.42000 9.900
49.44000 7.257
49.46000 1.668
49.48000 1.357
49.50000 2.376
49.52000 2.127
49.54000 0.284
49.56000 2.139
49.58000 3.123
49.60000 1.568
49.62000 2.506
49.64000 0.434
49.66000 1.491
49.68000 1.977
49.70000 1.292
49.72000 -0.602
49.74000 -0.207
49.76000 -2.690
49.78000 -1.781
49.80000 -0.724
49.82000 1.305
49.84000 5.072
49.86000 1.937
49.88000 -1.843
49.90000 -0.390
49.92000 -0.735
49.94000 2.715
49.96000 -0.002
49.98000 -0.652
50.00000 5.688
50.02000 2.674
50.04000 3.738
50.06000 4.253
50.08000 1.506
50.10000 -0.403
50.12000 -0.493
50.14000 1.001
50.16000 1.157
50.18000 -2.275
50.20000 -2.635
50.22000 2.531
50.24000 4.990
50.26000 0.787
50.28000 2.817
50.30000 3.483
50.32000 6.516
50.34000 2.895
50.36000 2.635
50.38000 5.764
50.40000 1.534
50.42000 3.528
50.44000 4.055
50.46000 -2.190
50.48000 -1.747
50.50000 1.340
50.52000 2.395
50.54000 2.396
50.56000 4.973
50.58000 3.186
50.60000 -1.555
50.62000 2.046
50.64000 4.179
50.66000 4.153
50.68000 3.777
50.70000 3.605
50.72000 6.684
50.74000 5.625
50.76000 1.130
50.78000 -2.061
50.80000 0.649
50.82000 3.219
50.84000 3.569
50.86000 3.753
50.88000 5.769
50.90000 4.477
50.92000 2.531
50.94000 1.846
50.96000 2.733
50.98000 1.955
51.00000 1.111
51.02000 1.935
51.04000 2.292
51.06000 -2.534
51.08000 5.249
51.10000 7.332
51.12000 7.593
51.14000 6.917
51.16000 1.724
51.18000 1.869
51.20000 3.097
51.22000 1.910
51.24000 -1.074
51.26000 3.537
51.28000 5.582
51.30000 3.972
51.32000 2.948
51.34000 5.318
51.36000 4.523
51.38000 2.588
51.40000 2.754
51.42000 2.044
51.44000 0.585
51.46000 2.421
51.48000 1.084
51.50000 1.575
51.52000 6.223
51.54000 2.108
51.56000 -0.837
51.58000 -1.292
51.60000 -0.063
51.62000 -0.819
51.64000 -0.750
51.66000 1.861
51.68000 0.776
51.70000 -0.888
51.72000 4.008
51.74000 4.271
51.76000 4.801
51.78000 2.029
51.80000 -0.520
51.82000 0.872
51.84000 0.453
51.86000 2.356
51.88000 -0.231
51.90000 -0.130
51.92000 0.696
51.94000 3.585
51.96000 1.258
51.98000 -0.229
52.00000 3.811
52.02000 6.308
52.04000 1.549
52.06000 2.169
52.08000 -2.016
52.10000 -0.554
52.12000 0.978
52.14000 2.528
52.16000 -1.729
52.18000 2.583
52.20000 3.673
52.22000 -0.007
52.24000 2.091
52.26000 1.476
52.28000 3.042
52.30000 -1.346
52.32000 -1.790
52.34000 0.367
52.36000 1.491
52.38000 3.325
52.40000 4.396
52.42000 3.728
52.44000 5.413
52.46000 0.860
52.48000 2.011
52.50000 -1.171
52.52000 -0.052
52.54000 0.697
52.56000 2.059
52.58000 4.128
52.60000 2.139
52.62000 0.876
52.64000 1.297
52.66000 -1.401
52.68000 -2.505
52.70000 -1.502
52.72000 -1.169
52.74000 1.906
52.76000 2.220
52.78000 0.951
52.80000 -1.166
52.82000 1.055
52.84000 -0.809
52.86000 0.032
52.88000 5.039
52.90000 3.903
52.92000 2.454
52.94000 0.166
52.96000 3.947
52.98000 2.220
53.00000 -2.285
53.02000 -1.669
53.04000 1.394
53.06000 4.806
53.08000 5.272
53.10000 3.836
53.12000 -2.471
53.14000 2.852
53.16000 4.490
53.18000 4.470
53.20000 3.755
53.22000 4.241
53.24000 4.637
53.26000 1.667
53.28000 0.395
53.30000 -0.674
53.32000 1.393
53.34000 2.928
53.36000 6.677
53.38000 0.429
53.40000 -0.848
53.42000 1.099
53.44000 2.877
53.46000 5.945
53.48000 4.053
53.50000 -1.609
53.52000 0.327
53.54000 2.533
53.56000 1.587
53.58000 -0.235
53.60000 -1.804
53.62000 0.103
53.64000 2.572
53.66000 1.628
53.68000 2.794
53.70000 1.664
53.72000 1.876
53.74000 4.406
53.76000 3.620
53.78000 1.363
53.80000 -0.710
53.82000 -0.596
53.84000 3.068
53.86000 4.842
53.88000 3.229
53.90000 0.696
53.92000 0.679
53.94000 2.747
53.96000 4.531
53.98000 0.078
54.00000 -2.464
54.02000 -0.221
54.04000 -0.558
54.06000 -0.764
54.08000 2.932
54.10000 5.066
54.12000 5.296
54.14000 4.361
54.16000 1.994
54.18000 0.801
54.20000 -0.122
54.22000 0.753
54.24000 2.795
54.26000 1.082
54.28000 -1.441
54.30000 -2.457
54.32000 0.444
54.34000 0.037
54.36000 1.888
54.38000 0.921
54.40000 0.823
54.42000 0.593
54.44000 4.086
54.46000 5.811
54.48000 5.631
54.50000 1.840
54.52000 -0.347
54.54000 2.343
54.56000 0.730
54.58000 0.625
54.60000 1.568
54.62000 3.810
54.64000 3.808
54.66000 2.476
54.68000 0.435
54.70000 -0.262
54.72000 2.066
54.74000 -2.440
54.76000 1.397
54.78000 1.168
54.80000 -1.506
54.82000 0.569
54.84000 0.726
54.86000 1.513
54.88000 0.864
54.90000 0.751
54.92000 3.746
54.94000 0.342
54.96000 -2.428
54.98000 0.513
55.00000 4.261
55.02000 6.949
55.04000 3.552
55.06000 3.844
55.08000 4.540
55.10000 2.001
55.12000 0.879
55.14000 1.796
55.16000 2.719
55.18000 4.686
55.20000 3.419
55.22000 2.559
55.24000 4.505
55.26000 3.871
55.28000 0.123
55.30000 4.053
55.32000 5.007
55.34000 3.653
55.36000 2.389
55.38000 -0.755
55.40000 0.707
55.42000 1.118
55.44000 -2.397
55.46000 0.326
55.48000 0.427
55.50000 4.808
55.52000 6.858
55.54000 3.764
55.56000 5.124
55.58000 4.786
55.60000 3.741
55.62000 1.042
55.64000 0.813
55.66000 1.849
55.68000 3.745
55.70000 -0.697
55.72000 -0.137
55.74000 1.929
55.76000 2.259
55.78000 2.269
55.80000 3.020
55.82000 3.858
55.84000 2.806
55.86000 2.226
55.88000 4.521
55.90000 4.466
55.92000 2.997
55.94000 2.103
55.96000 4.522
55.98000 5.310
56.00000 5.184
56.02000 5.187
56.04000 6.852
56.06000 1.967
56.08000 -0.293
56.10000 -0.120
56.12000 -2.354
56.14000 -1.355
56.16000 4.154
56.18000 4.991
56.20000 2.786
56.22000 0.485
56.24000 3.071
56.26000 4.796
56.28000 2.899
56.30000 1.127
56.32000 -1.322
56.34000 3.021
56.36000 8.706
56.38000 5.379
56.40000 3.592
56.42000 1.519
56.44000 5.724
56.46000 3.476
56.48000 3.484
56.50000 3.586
56.52000 1.511
56.54000 5.023
56.56000 8.584
56.58000 4.425
56.60000 2.934
56.62000 1.781
56.64000 -1.145
56.66000 0.667
56.68000 3.255
56.70000 2.361
56.72000 1.822
56.74000 -0.500
56.76000 2.045
56.78000 1.332
56.80000 -0.321
56.82000 5.121
56.84000 4.334
56.86000 4.942
56.88000 2.257
56.90000 2.501
56.92000 2.973
56.94000 3.529
56.96000 3.295
56.98000 3.423
57.00000 -1.997
57.02000 0.518
57.04000 0.355
57.06000 0.761
57.08000 3.762
57.10000 0.471
57.12000 -0.213
57.14000 5.620
57.16000 7.912
57.18000 5.418
57.20000 1.593
57.22000 1.999
57.24000 2.334
57.26000 2.946
57.28000 1.420
57.30000 3.761
57.32000 3.085
57.34000 0.399
57.36000 1.185
57.38000 2.190
57.40000 1.351
57.42000 1.674
57.44000 -2.143
57.46000 -0.501
57.48000 2.692
57.50000 -0.206
57.52000 1.157
57.54000 2.375
57.56000 3.591
57.58000 3.218
57.60000 2.287
57.62000 0.981
57.64000 6.097
57.66000 4.006
57.68000 2.663
57.70000 2.745
57.72000 3.419
57.74000 2.784
57.76000 1.390
57.78000 -1.365
57.80000 -0.354
57.82000 5.815
57.84000 3.621
57.86000 1.587
57.88000 4.601
57.90000 3.380
57.92000 -2.302
57.94000 -1.720
57.96000 2.279
57.98000 4.669
58.00000 5.578
58.02000 4.066
58.04000 5.265
58.06000 -0.558
58.08000 -0.472
58.10000 4.329
58.12000 3.998
58.14000 1.061
58.16000 0.208
58.18000 -0.132
58.20000 -2.297
58.22000 5.877
58.24000 8.140
58.26000 3.557
58.28000 3.027
58.30000 1.498
58.32000 5.075
58.34000 3.430
58.36000 4.598
58.38000 6.799
58.40000 4.849
58.42000 4.844
58.44000 6.023
58.46000 6.143
58.48000 1.928
58.50000 3.719
58.52000 2.919
58.54000 1.098
58.56000 2.577
58.58000 4.378
58.60000 2.848
58.62000 3.375
58.64000 2.840
58.66000 5.572
58.68000 4.338
58.70000 -0.346
58.72000 0.330
58.74000 3.402
58.76000 5.343
58.78000 3.235
58.80000 0.951
58.82000 0.315
58.84000 1.192
58.86000 0.448
58.88000 -2.315
58.90000 0.405
58.92000 3.520
58.94000 2.559
58.96000 1.871
58.98000 2.831
59.00000 0.958
59.02000 -1.897
59.04000 0.611
59.06000 0.147
59.08000 -0.385
59.10000 2.116
59.12000 1.718
59.14000 2.877
59.16000 -0.403
59.18000 -0.862
59.20000 -0.278
59.22000 0.224
59.24000 -0.281
59.26000 -2.310
59.28000 1.282
59.30000 1.807
59.32000 1.202
59.34000 0.475
59.36000 -2.316
59.38000 0.347
59.40000 0.385
59.42000 0.395
59.44000 2.723
59.46000 1.541
59.48000 -1.101
59.50000 -0.383
59.52000 1.926
59.54000 2.917
59.56000 1.339
59.58000 4.305
59.60000 2.996
59.62000 2.946
59.64000 3.083
59.66000 1.368
59.68000 -1.147
59.70000 -0.891
59.72000 -2.114
59.74000 1.963
59.76000 2.516
59.78000 4.945
59.80000 5.003
59.82000 -0.463
59.84000 -2.046
59.86000 1.816
59.88000 1.361
59.90000 2.860
59.92000 3.228
59.94000 5.301
59.96000 5.164
59.98000 1.357
60.00000 3.771
60.02000 6.085
60.04000 6.396
60.06000 0.560
60.08000 -0.617
60.10000 2.100
60.12000 3.372
60.14000 4.150
60.16000 5.711
60.18000 1.946
60.20000 3.069
60.22000 5.090
60.24000 5.627
60.26000 0.648
60.28000 -2.266
60.30000 0.274
60.32000 3.281
60.34000 2.083
60.36000 0.502
60.38000 -2.257
60.40000 0.828
60.42000 4.733
60.44000 4.050
60.46000 2.119
60.48000 2.256
60.50000 3.957
60.52000 1.431
60.54000 0.354
60.56000 -2.244
60.58000 3.150
60.60000 5.963
60.62000 3.124
60.64000 -0.909
60.66000 -1.785
60.68000 0.075
60.70000 1.586
60.72000 3.726
60.74000 2.376
60.76000 1.366
60.78000 1.770
60.80000 2.230
60.82000 1.486
60.84000 2.305
60.86000 3.883
60.88000 3.065
60.90000 2.316
60.92000 1.676
60.94000 4.109
60.96000 4.336
60.98000 3.256
61.00000 0.180
61.02000 -1.751
61.04000 -2.242
61.06000 5.057
61.08000 6.826
61.10000 4.078
61.12000 5.993
61.14000 2.651
61.16000 0.059
61.18000 -0.276
61.20000 -1.281
61.22000 2.684
61.24000 3.827
61.26000 3.279
61.28000 3.017
61.30000 0.700
61.32000 0.578
61.34000 0.274
61.36000 0.243
61.38000 2.088
61.40000 5.220
61.42000 3.089
61.44000 4.200
61.46000 -0.972
61.48000 1.858
61.50000 1.338
61.52000 2.227
61.54000 1.340
61.56000 3.460
61.58000 3.979
61.60000 3.067
61.62000 4.904
61.64000 3.971
61.66000 5.621
61.68000 3.705
61.70000 3.679
61.72000 3.451
61.74000 2.333
61.76000 -0.436
61.78000 -0.969
61.80000 -2.208
61.82000 -0.491
61.84000 0.036
61.86000 0.533
61.88000 3.266
61.90000 4.201
61.92000 3.224
61.94000 3.584
61.96000 1.177
61.98000 0.971
62.00000 4.120
62.02000 0.921
62.04000 -1.659
62.06000 1.919
62.08000 0.554
62.10000 2.858
62.12000 2.552
62.14000 0.125
62.16000 2.418
62.18000 3.084
62.20000 1.001
62.22000 2.275
62.24000 3.958
62.26000 0.286
62.28000 -2.206
62.30000 1.383
62.32000 2.343
62.34000 1.016
62.36000 2.464
62.38000 0.716
62.40000 3.661
62.42000 5.315
62.44000 1.317
62.46000 -0.351
62.48000 3.206
62.50000 5.227
62.52000 2.727
62.54000 4.784
62.56000 4.141
62.58000 3.081
62.60000 0.176
62.62000 -0.030
62.64000 3.777
62.66000 4.107
62.68000 0.452
62.70000 0.777
62.72000 3.235
62.74000 2.560
62.76000 0.360
62.78000 3.022
62.80000 2.705
62.82000 2.510
62.84000 0.552
62.86000 0.113
62.88000 -2.197
62.90000 0.854
62.92000 1.606
62.94000 0.157
62.96000 1.621
62.98000 5.215
63.00000 1.745
63.02000 0.210
63.04000 -0.541
63.06000 3.069
63.08000 3.613
63.10000 1.028
63.12000 2.374
63.14000 3.109
63.16000 3.811
63.18000 1.815
63.20000 0.331
63.22000 4.894
63.24000 3.265
63.26000 -0.142
63.28000 0.718
63.30000 1.551
63.32000 -1.338
63.34000 1.331
63.36000 4.109
63.38000 1.206
63.40000 1.525
63.42000 0.269
63.44000 -2.200
63.46000 -0.267
63.48000 3.999
63.50000 3.359
63.52000 2.144
63.54000 1.785
63.56000 0.224
63.58000 2.833
63.60000 1.675
63.62000 -1.900
63.64000 -1.499
63.66000 2.752
63.68000 1.066
63.70000 -2.202
63.72000 -0.433
63.74000 -0.364
63.76000 0.854
63.78000 1.129
63.80000 2.881
63.82000 1.400
63.84000 -0.610
63.86000 1.547
63.88000 2.005
63.90000 2.586
63.92000 2.145
63.94000 2.975
63.96000 3.517
63.98000 2.747
64.00000 4.511
64.02000 2.630
64.04000 -1.536
64.06000 -1.109
64.08000 0.495
64.10000 2.623
64.12000 1.434
64.14000 4.794
64.16000 4.790
64.18000 2.737
64.20000 2.462
64.22000 1.832
64.24000 2.470
64.26000 -0.358
64.28000 -2.188
64.30000 0.533
64.32000 3.229
64.34000 1.939
64.36000 0.120
64.38000 -0.547
64.40000 1.416
64.42000 0.761
64.44000 0.526
64.46000 2.628
64.48000 2.986
64.50000 -1.054
64.52000 -2.079
64.54000 -0.575
64.56000 2.426
64.58000 -1.182
64.60000 0.727
64.62000 1.470
64.64000 1.200
64.66000 0.178
64.68000 1.066
64.70000 0.536
64.72000 -0.667
64.74000 -1.396
64.76000 0.851
64.78000 -0.737
64.80000 -0.358
64.82000 0.173
64.84000 1.893
64.86000 2.691
64.88000 1.559
64.90000 3.140
64.92000 0.539
64.94000 1.504
64.96000 -0.088
64.98000 -1.470
65.00000 -0.352
65.02000 1.706
65.04000 2.264
65.06000 2.668
65.08000 2.368
65.10000 4.361
65.12000 5.085
65.14000 3.204
65.16000 1.862
65.18000 1.652
65.20000 1.754
65.22000 1.600
65.24000 2.295
65.26000 2.268
65.28000 0.216
65.30000 -2.160
65.32000 -1.502
65.34000 0.773
65.36000 1.420
65.38000 0.379
65.40000 0.490
65.42000 0.678
65.44000 3.481
65.46000 1.178
65.48000 1.339
65.50000 0.880
65.52000 -1.667
65.54000 -0.223
65.56000 2.662
65.58000 0.083
65.60000 -1.124
65.62000 -1.115
65.64000 -0.760
65.66000 0.184
65.68000 -0.733
65.70000 -0.885
65.72000 -2.171
65.74000 -1.819
65.76000 1.251
65.78000 0.766
65.80000 0.066
65.82000 1.425
65.84000 -0.863
65.86000 -0.004
65.88000 -0.490
65.90000 1.226
65.92000 1.280
65.94000 1.315
65.96000 0.852
65.98000 0.779
66.00000 -2.148
66.02000 -0.131
66.04000 1.277
66.06000 -0.553
66.08000 0.734
66.10000 -1.289
66.12000 0.212
66.14000 1.980
66.16000 3.233
66.18000 1.103
66.20000 -0.932
66.22000 2.621
66.24000 1.772
66.26000 1.608
66.28000 3.256
66.30000 2.470
66.32000 1.804
66.34000 0.746
66.36000 0.529
66.38000 1.723
66.40000 -1.075
66.42000 0.730
66.44000 0.372
66.46000 -2.167
66.48000 0.487
66.50000 2.387
66.52000 0.486
66.54000 -1.608
66.56000 0.657
66.58000 -0.380
66.60000 0.188
66.62000 0.111
66.64000 1.332
66.66000 -0.492
66.68000 -0.653
66.70000 -0.830
66.72000 -2.147
66.74000 -1.832
66.76000 0.334
66.78000 -0.090
66.80000 -0.810
66.82000 -1.978
66.84000 1.606
66.86000 1.511
66.88000 1.455
66.90000 0.015
66.92000 -1.915
66.94000 -0.683
66.96000 1.168
66.98000 -0.051
67.00000 -0.935
67.02000 1.178
67.04000 0.804
67.06000 -0.846
67.08000 -0.383
67.10000 0.031
67.12000 1.144
67.14000 0.469
67.16000 0.052
67.18000 -0.814
67.20000 -1.448
67.22000 -0.057
67.24000 -2.203
67.26000 -0.791
67.28000 -2.175
67.30000 0.022
67.32000 0.093
67.34000 -1.452
67.36000 -1.697
67.38000 -0.939
67.40000 0.167
67.42000 -0.268
67.44000 -0.388
67.46000 0.809
67.48000 1.501
67.50000 0.906
67.52000 -0.600
67.54000 1.398
67.56000 2.079
67.58000 0.833
67.60000 0.242
67.62000 0.653
67.64000 1.402
67.66000 0.464
67.68000 1.958
67.70000 3.411
67.72000 4.458
67.74000 2.945
67.76000 0.962
67.78000 0.743
67.80000 1.207
67.82000 4.101
67.84000 4.481
67.86000 4.715
67.88000 4.237
67.90000 5.370
67.92000 5.663
67.94000 4.403
67.96000 4.351
67.98000 4.904
68.00000 4.374
68.02000 5.890
68.04000 4.403
68.06000 6.591
68.08000 6.970
68.10000 7.154
68.12000 9.520
68.14000 7.978
68.16000 8.997
68.18000 10.843
68.20000 10.652
68.22000 10.331
68.24000 14.035
68.26000 12.475
68.28000 11.908
68.30000 12.608
68.32000 16.439
68.34000 13.956
68.36000 16.628
68.38000 13.376
68.40000 15.001
68.42000 18.906
68.44000 20.419
68.46000 23.221
68.48000 23.391
68.50000 21.599
68.52000 20.399
68.54000 23.634
68.56000 23.589
68.58000 21.878
68.60000 20.529
68.62000 18.208
68.64000 20.935
68.66000 24.837
68.68000 28.304
68.70000 30.359
68.72000 29.449
68.74000 27.555
68.76000 27.914
68.78000 29.956
68.80000 29.974
68.82000 27.757
68.84000 29.080
68.86000 26.002
68.88000 26.591
68.90000 27.132
68.92000 29.191
68.94000 27.732
68.96000 26.104
68.98000 24.827
69.00000 20.176
69.02000 21.803
69.04000 22.150
69.06000 22.037
69.08000 19.793
69.10000 18.999
69.12000 22.127
69.14000 21.090
69.16000 14.990
69.18000 16.311
69.20000 15.880
69.22000 16.613
69.24000 15.083
69.26000 16.093
69.28000 13.011
69.30000 11.958
69.32000 10.562
69.34000 10.877
69.36000 12.844
69.38000 10.690
69.40000 8.977
69.42000 7.974
69.44000 4.800
69.46000 4.895
69.48000 7.301
69.50000 8.210
69.52000 9.331
69.54000 7.800
69.56000 5.992
69.58000 4.336
69.60000 3.407
69.62000 4.815
69.64000 6.540
69.66000 1.889
69.68000 3.483
69.70000 5.210
69.72000 3.440
69.74000 2.097
69.76000 1.730
69.78000 0.757
69.80000 0.394
69.82000 3.003
69.84000 2.505
69.86000 1.529
69.88000 1.864
69.90000 0.869
69.92000 0.726
69.94000 -0.737
69.96000 0.422
69.98000 2.316
70.00000 0.929
70.02000 1.764
70.04000 0.471
70.06000 0.235
70.08000 2.029
70.10000 0.656
70.12000 2.316
70.14000 3.512
70.16000 0.970
70.18000 1.112
70.20000 2.561
70.22000 1.775
70.24000 1.394
70.26000 3.962
70.28000 4.111
70.30000 2.502
70.32000 -2.053
70.34000 1.114
70.36000 1.873
70.38000 3.967
70.40000 3.585
70.42000 1.503
70.44000 1.834
70.46000 1.646
70.48000 3.441
70.50000 2.008
70.52000 2.790
70.54000 1.130
70.56000 -0.342
70.58000 0.045
70.60000 -0.969
70.62000 -0.083
70.64000 1.986
70.66000 2.537
70.68000 -1.574
70.70000 -0.427
70.72000 1.544
70.74000 0.275
70.76000 -0.912
70.78000 -0.786
70.80000 -0.968
70.82000 -0.020
70.84000 -1.411
70.86000 -2.036
70.88000 -0.209
70.90000 -0.323
70.92000 0.172
70.94000 2.699
70.96000 2.430
70.98000 -1.431
71.00000 -1.302
71.02000 0.009
71.04000 1.167
71.06000 0.238
71.08000 1.645
71.10000 -0.103
71.12000 1.681
71.14000 -0.573
71.16000 0.529
71.18000 -0.712
71.20000 3.707
71.22000 3.151
71.24000 1.400
71.26000 1.514
71.28000 1.759
71.30000 2.041
71.32000 1.123
71.34000 -1.850
71.36000 -1.618
71.38000 0.610
71.40000 -0.607
71.42000 -0.255
71.44000 0.831
71.46000 -0.065
71.48000 3.509
71.50000 3.700
71.52000 1.710
71.54000 -0.292
71.56000 -1.262
71.58000 -0.248
71.60000 2.132
71.62000 1.452
71.64000 2.769
71.66000 0.869
71.68000 -0.242
71.70000 0.007
71.72000 2.029
71.74000 2.127
71.76000 -1.107
71.78000 -1.947
71.80000 0.302
71.82000 -0.245
71.84000 -0.524
71.86000 0.885
71.88000 1.374
71.90000 1.897
71.92000 2.820
71.94000 2.406
71.96000 3.479
71.98000 3.721
72.00000 1.742
72.02000 -1.538
72.04000 2.821
72.06000 4.763
72.08000 4.761
72.10000 1.883
72.12000 0.116
72.14000 2.928
72.16000 1.007
72.18000 -0.777
72.20000 1.830
72.22000 -1.441
72.24000 -1.924
72.26000 0.501
72.28000 3.293
72.30000 2.159
72.32000 3.124
72.34000 2.651
72.36000 -0.782
72.38000 -1.509
72.40000 -1.283
72.42000 1.115
72.44000 1.134
72.46000 -0.855
72.48000 -0.017
72.50000 -0.342
72.52000 0.569
72.54000 1.014
72.56000 1.692
72.58000 -0.142
72.60000 -1.446
72.62000 -1.308
72.64000 -0.929
72.66000 -1.829
72.68000 0.142
72.70000 0.558
72.72000 1.405
72.74000 -0.602
72.76000 -1.066
72.78000 2.459
72.80000 0.146
72.82000 -0.918
72.84000 1.379
72.86000 1.989
72.88000 0.551
72.90000 0.087
72.92000 0.976
72.94000 1.814
72.96000 -1.657
72.98000 -1.095
73.00000 -0.423
73.02000 1.360
73.04000 1.066
73.06000 3.470
73.08000 7.512
73.10000 5.649
73.12000 2.429
73.14000 2.973
73.16000 1.411
73.18000 -1.896
73.20000 -0.327
73.22000 -0.017
73.24000 2.961
73.26000 3.892
73.28000 3.112
73.30000 4.466
73.32000 0.109
73.34000 1.621
73.36000 1.541
73.38000 1.123
73.40000 0.098
73.42000 2.943
73.44000 4.201
73.46000 0.367
73.48000 -1.875
73.50000 0.610
73.52000 -0.382
73.54000 1.019
73.56000 1.515
73.58000 3.840
73.60000 4.816
73.62000 2.298
73.64000 2.318
73.66000 0.425
73.68000 0.261
73.70000 1.020
73.72000 -0.395
73.74000 3.262
73.76000 2.510
73.78000 1.004
73.80000 -0.048
73.82000 -1.021
73.84000 0.097
73.86000 0.365
73.88000 1.361
73.90000 1.159
73.92000 3.971
73.94000 6.350
73.96000 2.665
73.98000 2.059
74.00000 1.248
74.02000 2.315
74.04000 2.172
74.06000 -0.718
74.08000 -0.810
74.10000 -1.901
74.12000 -1.713
74.14000 0.366
74.16000 1.491
74.18000 1.227
74.20000 1.772
74.22000 0.239
74.24000 0.293
74.26000 1.116
74.28000 4.202
74.30000 4.103
74.32000 0.648
74.34000 0.145
74.36000 0.915
74.38000 0.273
74.40000 0.922
74.42000 3.282
74.44000 4.743
74.46000 4.685
74.48000 1.774
74.50000 1.673
74.52000 3.257
74.54000 1.073
74.56000 2.686
74.58000 0.438
74.60000 0.661
74.62000 2.765
74.64000 4.609
74.66000 4.104
74.68000 1.033
74.70000 3.922
74.72000 5.464
74.74000 4.825
74.76000 0.125
74.78000 1.456
74.80000 3.120
74.82000 2.974
74.84000 2.764
74.86000 1.394
74.88000 -0.154
74.90000 -0.855
74.92000 -0.877
74.94000 -0.155
74.96000 1.591
74.98000 -0.663
75.00000 0.161
75.02000 0.535
75.04000 3.482
75.06000 4.715
75.08000 3.795
75.10000 -0.406
75.12000 -1.862
75.14000 1.016
75.16000 3.166
75.18000 3.452
75.20000 2.414
75.22000 2.570
75.24000 4.019
75.26000 2.232
75.28000 1.089
75.30000 -1.847
75.32000 -0.360
75.34000 5.190
75.36000 4.805
75.38000 3.173
75.40000 2.968
75.42000 2.676
75.44000 5.668
75.46000 5.129
75.48000 2.816
75.50000 0.830
75.52000 0.154
75.54000 1.032
75.56000 0.083
75.58000 1.681
75.60000 0.345
75.62000 0.254
75.64000 -0.065
75.66000 1.208
75.68000 1.294
75.70000 3.277
75.72000 -0.963
75.74000 -0.566
75.76000 -1.695
75.78000 -0.371
75.80000 0.128
75.82000 0.576
75.84000 0.945
75.86000 2.453
75.88000 2.023
75.90000 1.911
75.92000 3.447
75.94000 -0.051
75.96000 0.009
75.98000 -1.599
76.00000 -1.489
76.02000 -0.660
76.04000 -1.901
76.06000 -1.402
76.08000 0.015
76.10000 2.867
76.12000 -0.014
76.14000 -0.360
76.16000 -0.282
76.18000 0.399
76.20000 1.837
76.22000 -1.599
76.24000 -0.265
76.26000 1.829
76.28000 4.323
76.30000 3.287
76.32000 1.943
76.34000 2.943
76.36000 2.781
76.38000 4.204
76.40000 2.032
76.42000 2.724
76.44000 2.121
76.46000 4.282
76.48000 2.373
76.50000 -1.274
76.52000 -1.902
76.54000 1.998
76.56000 2.333
76.58000 0.127
76.60000 2.868
76.62000 4.557
76.64000 3.412
76.66000 2.679
76.68000 0.205
76.70000 -0.860
76.72000 -0.087
76.74000 1.795
76.76000 -0.071
76.78000 -0.288
76.80000 1.814
76.82000 -0.170
76.84000 1.660
76.86000 0.789
76.88000 1.613
76.90000 -0.604
76.92000 -1.583
76.94000 0.406
76.96000 0.723
76.98000 0.517
77.00000 -1.352
77.02000 2.538
77.04000 2.264
77.06000 0.377
77.08000 1.220
77.10000 -0.891
77.12000 -0.115
77.14000 -0.080
77.16000 1.883
77.18000 -0.663
77.20000 -1.481
77.22000 0.694
77.24000 2.568
77.26000 1.089
77.28000 0.835
77.30000 -0.239
77.32000 2.040
77.34000 4.276
77.36000 2.339
77.38000 1.292
77.40000 1.630
77.42000 2.005
77.44000 0.903
77.46000 3.098
77.48000 1.135
77.50000 3.791
77.52000 3.803
77.54000 0.516
77.56000 0.330
77.58000 -1.908
77.60000 0.045
77.62000 1.124
77.64000 0.012
77.66000 0.378
77.68000 1.277
77.70000 2.871
77.72000 2.854
77.74000 3.864
77.76000 1.770
77.78000 -1.897
77.80000 0.937
77.82000 1.258
77.84000 2.254
77.86000 1.366
77.88000 0.089
77.90000 1.730
77.92000 3.292
77.94000 1.277
77.96000 3.287
77.98000 1.544
78.00000 2.293
78.02000 -1.356
78.04000 0.172
78.06000 3.881
78.08000 2.926
78.10000 3.115
78.12000 -0.256
78.14000 1.203
78.16000 2.646
78.18000 3.008
78.20000 3.827
78.22000 1.450
78.24000 2.473
78.26000 3.573
78.28000 -0.103
78.30000 -1.231
78.32000 2.039
78.34000 1.805
78.36000 0.605
78.38000 0.567
78.40000 3.727
78.42000 3.583
78.44000 3.723
78.46000 -0.522
78.48000 4.081
78.50000 4.669
78.52000 3.903
78.54000 2.936
78.56000 0.900
78.58000 4.281
78.60000 2.617
78.62000 -1.912
78.64000 -0.145
78.66000 1.797
78.68000 0.020
78.70000 2.303
78.72000 -0.048
78.74000 0.176
78.76000 0.728
78.78000 1.827
78.80000 3.823
78.82000 1.325
78.84000 2.945
78.86000 1.941
78.88000 2.864
78.90000 0.276
78.92000 2.280
78.94000 1.426
78.96000 2.291
78.98000 3.085
79.00000 2.735
79.02000 3.014
79.04000 2.153
79.06000 1.639
79.08000 2.160
79.10000 2.636
79.12000 0.032
79.14000 3.019
79.16000 0.973
79.18000 2.671
79.20000 1.763
79.22000 1.552
79.24000 0.300
79.26000 0.227
79.28000 1.225
79.30000 -0.295
79.32000 2.414
79.34000 1.749
79.36000 -1.934
79.38000 1.627
79.40000 2.479
79.42000 3.898
79.44000 -0.322
79.46000 1.213
79.48000 4.366
79.50000 6.987
79.52000 4.330
79.54000 4.173
79.56000 1.977
79.58000 2.725
79.60000 3.132
79.62000 3.504
79.64000 1.887
79.66000 3.268
79.68000 1.542
79.70000 1.982
79.72000 1.379
79.74000 1.774
79.76000 0.965
79.78000 1.996
79.80000 1.530
79.82000 1.479
79.84000 -0.742
79.86000 -1.021
79.88000 1.292
79.90000 2.497
79.92000 1.007
79.94000 1.669
79.96000 1.437
79.98000 1.378
80.00000 1.113
80.02000 -0.377
80.04000 4.379
80.06000 3.648
80.08000 5.059
80.10000 3.282
80.12000 3.175
80.14000 3.339
80.16000 -1.324
80.18000 0.903
80.20000 1.345
80.22000 0.796
80.24000 3.895
80.26000 4.245
80.28000 5.568
80.30000 5.790
80.32000 3.365
80.34000 0.840
80.36000 4.741
80.38000 3.481
80.40000 -1.936
80.42000 -0.547
80.44000 2.624
80.46000 3.602
80.48000 3.704
80.50000 2.170
80.52000 0.117
80.54000 -0.486
80.56000 -0.544
80.58000 -0.914
80.60000 2.202
80.62000 2.531
80.64000 1.294
80.66000 2.218
80.68000 2.523
80.70000 0.225
80.72000 0.944
80.74000 1.080
80.76000 -0.262
80.78000 0.846
80.80000 0.681
80.82000 2.262
80.84000 3.088
80.86000 4.477
80.88000 3.445
80.90000 2.493
80.92000 2.797
80.94000 3.253
80.96000 3.110
80.98000 -1.342
81.00000 -1.801
81.02000 -1.064
81.04000 1.860
81.06000 1.158
81.08000 0.019
81.10000 0.081
81.12000 -2.067
81.14000 -0.313
81.16000 2.899
81.18000 2.158
81.20000 0.507
81.22000 -1.379
81.24000 -0.737
81.26000 -0.676
81.28000 5.179
81.30000 2.015
81.32000 1.165
81.34000 -2.095
81.36000 3.028
81.38000 1.088
81.40000 -0.610
81.42000 -0.661
81.44000 1.474
81.46000 1.017
81.48000 -0.886
81.50000 -0.113
81.52000 2.015
81.54000 2.584
81.56000 2.313
81.58000 -0.415
81.60000 0.356
81.62000 1.344
81.64000 0.677
81.66000 0.544
81.68000 2.504
81.70000 4.196
81.72000 1.674
81.74000 1.608
81.76000 0.881
81.78000 5.543
81.80000 6.001
81.82000 2.484
81.84000 3.897
81.86000 7.313
81.88000 4.558
81.90000 4.598
81.92000 6.022
81.94000 5.397
81.96000 6.106
81.98000 6.230
82.00000 8.957
82.02000 8.336
82.04000 10.793
82.06000 10.346
82.08000 12.366
82.10000 11.122
82.12000 12.024
82.14000 12.938
82.16000 13.411
82.18000 15.800
82.20000 15.697
82.22000 13.049
82.24000 15.861
82.26000 18.889
82.28000 17.701
82.30000 19.019
82.32000 21.108
82.34000 23.711
82.36000 21.270
82.38000 20.631
82.40000 21.961
82.42000 25.379
82.44000 30.374
82.46000 29.894
82.48000 29.687
82.50000 31.375
82.52000 32.445
82.54000 31.270
82.56000 32.171
82.58000 35.569
82.60000 34.160
82.62000 34.178
82.64000 39.185
82.66000 42.601
82.68000 42.654
82.70000 40.925
82.72000 38.464
82.74000 41.996
82.76000 48.257
82.78000 46.948
82.80000 47.956
82.82000 45.454
82.84000 41.938
82.86000 44.777
82.88000 46.923
82.90000 50.051
82.92000 57.131
82.94000 52.272
82.96000 53.888
82.98000 55.259
83.00000 56.595
83.02000 48.351
83.04000 44.152
83.06000 46.068
83.08000 44.386
83.10000 49.829
83.12000 49.314
83.14000 46.088
83.16000 43.243
83.18000 42.653
83.20000 44.058
83.22000 42.153
83.24000 43.057
83.26000 39.228
83.28000 42.254
83.30000 40.218
83.32000 38.933
83.34000 35.187
83.36000 33.892
83.38000 35.819
83.40000 31.133
83.42000 30.479
83.44000 32.042
83.46000 29.840
83.48000 28.535
83.50000 26.783
83.52000 25.892
83.54000 32.117
83.56000 27.311
83.58000 23.013
83.60000 19.986
83.62000 19.295
83.64000 18.674
83.66000 17.819
83.68000 17.154
83.70000 15.117
83.72000 18.093
83.74000 19.692
83.76000 15.931
83.78000 14.420
83.80000 10.902
83.82000 9.396
83.84000 11.323
83.86000 12.396
83.88000 11.566
83.90000 9.264
83.92000 10.169
83.94000 13.525
83.96000 8.550
83.98000 10.255
84.00000 11.018
84.02000 10.454
84.04000 8.678
84.06000 7.774
84.08000 7.274
84.10000 9.518
84.12000 5.346
84.14000 4.953
84.16000 4.433
84.18000 1.738
84.20000 3.674
84.22000 5.456
84.24000 3.746
84.26000 2.120
84.28000 2.332
84.30000 0.928
84.32000 0.947
84.34000 3.549
84.36000 2.409
84.38000 1.874
84.40000 0.183
84.42000 0.369
84.44000 3.070
84.46000 3.031
84.48000 5.678
84.50000 5.988
84.52000 4.633
84.54000 5.133
84.56000 2.402
84.58000 -1.205
84.60000 0.412
84.62000 1.605
84.64000 -0.098
84.66000 -2.059
84.68000 -1.835
84.70000 0.367
84.72000 -1.410
84.74000 -1.348
84.76000 0.622
84.78000 3.460
84.80000 4.020
84.82000 0.994
84.84000 1.588
84.86000 4.266
84.88000 4.550
84.90000 3.154
84.92000 -0.001
84.94000 -2.006
84.96000 1.220
84.98000 3.828
85.00000 3.702
85.02000 1.475
85.04000 0.810
85.06000 1.153
85.08000 1.683
85.10000 2.031
85.12000 1.402
85.14000 -0.431
85.16000 1.448
85.18000 0.475
85.20000 1.561
85.22000 3.178
85.24000 4.152
85.26000 3.748
85.28000 2.328
85.30000 1.643
85.32000 3.292
85.34000 2.118
85.36000 -0.907
85.38000 -0.032
85.40000 -1.681
85.42000 -1.916
85.44000 -1.006
85.46000 0.158
85.48000 2.830
85.50000 1.638
85.52000 1.529
85.54000 0.131
85.56000 1.466
85.58000 2.898
85.60000 6.909
85.62000 3.469
85.64000 1.081
85.66000 -0.514
85.68000 -0.940
85.70000 0.535
85.72000 2.916
85.74000 1.878
85.76000 -1.991
85.78000 1.955
85.80000 1.910
85.82000 3.702
85.84000 1.967
85.86000 1.460
85.88000 3.198
85.90000 5.062
85.92000 4.671
85.94000 2.485
85.96000 -0.454
85.98000 -0.790
86.00000 1.571
86.02000 0.889
86.04000 7.318
86.06000 2.965
86.08000 0.906
86.10000 0.066
86.12000 2.393
86.14000 0.802
86.16000 1.303
86.18000 0.362
86.20000 0.771
86.22000 2.946
86.24000 3.668
86.26000 4.943
86.28000 7.382
86.30000 4.784
86.32000 4.061
86.34000 2.515
86.36000 3.388
86.38000 4.233
86.40000 6.620
86.42000 5.357
86.44000 5.516
86.46000 6.781
86.48000 8.094
86.50000 4.967
86.52000 7.801
86.54000 5.621
86.56000 9.123
86.58000 6.593
86.60000 8.148
86.62000 7.861
86.64000 9.935
86.66000 10.147
86.68000 9.546
86.70000 10.310
86.72000 13.400
86.74000 13.177
86.76000 12.726
86.78000 14.828
86.80000 12.836
86.82000 14.353
86.84000 16.439
86.86000 14.625
86.88000 12.992
86.90000 15.687
86.92000 16.642
86.94000 15.280
86.96000 18.929
86.98000 20.456
87.00000 22.522
87.02000 20.253
87.04000 22.991
87.06000 29.944
87.08000 23.577
87.10000 25.568
87.12000 26.590
87.14000 26.654
87.16000 27.368
87.18000 29.473
87.20000 27.607
87.22000 27.898
87.24000 30.612
87.26000 25.350
87.28000 27.945
87.30000 32.099
87.32000 33.972
87.34000 34.745
87.36000 37.547
87.38000 31.518
87.40000 30.310
87.42000 28.902
87.44000 28.473
87.46000 34.924
87.48000 31.976
87.50000 29.645
87.52000 29.710
87.54000 26.422
87.56000 26.080
87.58000 28.949
87.60000 31.394
87.62000 27.850
87.64000 28.802
87.66000 27.355
87.68000 29.400
87.70000 22.979
87.72000 23.236
87.74000 21.980
87.76000 26.446
87.78000 25.567
87.80000 23.131
87.82000 22.851
87.84000 22.733
87.86000 20.066
87.88000 20.773
87.90000 18.809
87.92000 18.797
87.94000 16.157
87.96000 14.291
87.98000 12.647
88.00000 14.674
88.02000 13.147
88.04000 11.688
88.06000 11.990
88.08000 12.983
88.10000 10.896
88.12000 10.793
88.14000 7.979
88.16000 10.399
88.18000 9.249
88.20000 5.192
88.22000 8.704
88.24000 10.733
88.26000 8.093
88.28000 6.670
88.30000 6.801
88.32000 7.466
88.34000 8.161
88.36000 7.407
88.38000 4.239
88.40000 6.307
88.42000 4.781
88.44000 3.552
88.46000 7.177
88.48000 8.760
88.50000 7.536
88.52000 4.684
88.54000 0.977
88.56000 -2.003
88.58000 2.310
88.60000 4.981
88.62000 2.500
88.64000 0.252
88.66000 0.246
88.68000 0.918
88.70000 0.661
88.72000 2.625
88.74000 -0.305
88.76000 -1.829
88.78000 2.122
88.80000 0.756
88.82000 0.932
88.84000 2.113
88.86000 2.988
88.88000 2.121
88.90000 0.025
88.92000 -0.073
88.94000 -0.593
88.96000 -0.565
88.98000 1.280
89.00000 1.592
89.02000 1.899
89.04000 2.273
89.06000 1.515
89.08000 -0.124
89.10000 -1.928
89.12000 0.546
89.14000 -0.387
89.16000 3.527
89.18000 1.071
89.20000 -0.321
89.22000 0.264
89.24000 0.746
89.26000 0.656
89.28000 -0.906
89.30000 -1.399
89.32000 1.678
89.34000 1.111
89.36000 -0.841
89.38000 -1.471
89.40000 -1.115
89.42000 2.291
89.44000 0.044
89.46000 -0.294
89.48000 -0.258
89.50000 0.175
89.52000 -0.952
89.54000 -1.865
89.56000 -0.162
89.58000 0.350
89.60000 1.141
89.62000 1.888
89.64000 2.998
89.66000 2.305
89.68000 3.275
89.70000 0.389
89.72000 0.801
89.74000 -1.143
89.76000 0.327
89.78000 3.429
89.80000 1.575
89.82000 -0.850
89.84000 1.153
89.86000 5.238
89.88000 4.124
89.90000 3.500
89.92000 2.105
89.94000 2.760
89.96000 2.339
89.98000 3.265
90.00000 4.105
90.02000 1.793
90.04000 -0.360
90.06000 1.785
90.08000 2.622
90.10000 2.979
90.12000 -0.727
90.14000 0.779
90.16000 0.973
90.18000 1.492
90.20000 1.517
90.22000 -0.035
90.24000 0.863
90.26000 -0.118
90.28000 -1.381
90.30000 -1.828
90.32000 -0.561
90.34000 -0.085
90.36000 0.587
90.38000 1.669
90.40000 1.378
90.42000 0.504
90.44000 -0.471
90.46000 2.990
90.48000 3.947
90.50000 2.368
90.52000 1.611
90.54000 0.279
90.56000 0.905
90.58000 0.991
90.60000 0.592
90.62000 -0.304
90.64000 -1.825
90.66000 -0.899
90.68000 -0.680
90.70000 0.746
90.72000 2.225
90.74000 2.443
90.76000 3.951
90.78000 1.937
90.80000 1.771
90.82000 0.763
90.84000 2.643
90.86000 1.306
90.88000 1.529
90.90000 1.249
90.92000 0.911
90.94000 3.959
90.96000 3.035
90.98000 1.889
91.00000 1.313
91.02000 -1.722
91.04000 -1.247
91.06000 2.072
91.08000 1.315
91.10000 -0.034
91.12000 -1.007
91.14000 -1.797
91.16000 -0.667
91.18000 1.429
91.20000 -0.094
91.22000 1.181
91.24000 2.591
91.26000 3.450
91.28000 5.639
91.30000 3.881
91.32000 -0.815
91.34000 -0.265
91.36000 0.330
91.38000 3.650
91.40000 1.320
91.42000 1.514
91.44000 0.179
91.46000 -0.831
91.48000 0.759
91.50000 3.487
91.52000 2.502
91.54000 -1.692
91.56000 1.298
91.58000 1.565
91.60000 1.867
91.62000 1.764
91.64000 4.126
91.66000 2.943
91.68000 0.631
91.70000 1.179
91.72000 1.122
91.74000 2.172
91.76000 4.172
91.78000 1.267
91.80000 0.253
91.82000 2.417
91.84000 2.936
91.86000 6.265
91.88000 4.209
91.90000 4.380
91.92000 3.724
91.94000 3.131
91.96000 3.059
91.98000 2.156
92.00000 0.922
92.02000 0.972
92.04000 2.057
92.06000 2.208
92.08000 1.457
92.10000 0.532
92.12000 2.211
92.14000 2.556
92.16000 -1.793
92.18000 1.641
92.20000 1.924
92.22000 3.615
92.24000 1.354
92.26000 1.404
92.28000 0.473
92.30000 1.882
92.32000 1.643
92.34000 5.198
92.36000 3.799
92.38000 3.471
92.40000 2.490
92.42000 -0.522
92.44000 1.660
92.46000 2.379
92.48000 1.551
92.50000 0.166
92.52000 3.186
92.54000 4.611
92.56000 0.595
92.58000 2.008
92.60000 3.100
92.62000 2.637
92.64000 5.711
92.66000 4.614
92.68000 2.812
92.70000 1.368
92.72000 0.677
92.74000 -0.383
92.76000 2.909
92.78000 1.012
92.80000 2.795
92.82000 3.368
92.84000 2.229
92.86000 2.417
92.88000 2.170
92.90000 0.639
92.92000 0.983
92.94000 0.472
92.96000 3.389
92.98000 3.094
93.00000 4.608
93.02000 2.208
93.04000 -1.783
93.06000 0.400
93.08000 4.072
93.10000 5.644
93.12000 3.420
93.14000 2.571
93.16000 2.695
93.18000 -0.660
93.20000 1.238
93.22000 0.994
93.24000 6.737
93.26000 2.873
93.28000 -1.311
93.30000 0.627
93.32000 1.752
93.34000 2.327
93.36000 2.857
93.38000 0.411
93.40000 0.658
93.42000 2.407
93.44000 2.926
93.46000 3.666
93.48000 3.391
93.50000 0.611
93.52000 1.984
93.54000 1.713
93.56000 -0.348
93.58000 -0.285
93.60000 -0.581
93.62000 3.113
93.64000 4.756
93.66000 4.518
93.68000 4.363
93.70000 3.514
93.72000 1.446
93.74000 3.029
93.76000 -0.066
93.78000 0.011
93.80000 -1.806
93.82000 3.924
93.84000 3.064
93.86000 2.960
93.88000 -0.649
93.90000 0.838
93.92000 1.771
93.94000 0.704
93.96000 1.570
93.98000 1.444
94.00000 0.722
94.02000 0.876
94.04000 2.514
94.06000 1.939
94.08000 2.079
94.10000 -0.951
94.12000 2.929
94.14000 3.246
94.16000 -0.935
94.18000 1.726
94.20000 3.837
94.22000 2.559
94.24000 2.996
94.26000 3.189
94.28000 2.514
94.30000 0.754
94.32000 0.137
94.34000 0.723
94.36000 4.488
94.38000 2.915
94.40000 -0.465
94.42000 -1.201
94.44000 -1.828
94.46000 0.635
94.48000 2.574
94.50000 1.458
94.52000 0.446
94.54000 -1.783
94.56000 0.138
94.58000 -0.150
94.60000 -0.184
94.62000 3.300
94.64000 3.891
94.66000 3.676
94.68000 0.860
94.70000 0.546
94.72000 3.469
94.74000 2.533
94.76000 3.006
94.78000 1.898
94.80000 3.038
94.82000 0.999
94.84000 1.141
94.86000 0.840
94.88000 0.736
94.90000 -0.326
94.92000 -1.139
94.94000 -1.624
94.96000 3.623
94.98000 1.387
95.00000 0.781
95.02000 3.244
95.04000 2.564
95.06000 2.340
95.08000 1.738
95.10000 2.372
95.12000 2.857
95.14000 1.833
95.16000 0.338
95.18000 -0.711
95.20000 -0.596
95.22000 0.730
95.24000 2.138
95.26000 0.419
95.28000 0.832
95.30000 2.342
95.32000 0.613
95.34000 -0.198
95.36000 0.683
95.38000 1.138
95.40000 -0.887
95.42000 -0.540
95.44000 0.810
95.46000 1.067
95.48000 -1.830
95.50000 -0.538
95.52000 3.688
95.54000 2.657
95.56000 1.784
95.58000 0.904
95.60000 1.065
95.62000 -0.518
95.64000 2.270
95.66000 2.078
95.68000 1.337
95.70000 -1.028
95.72000 -0.854
95.74000 1.243
95.76000 0.667
95.78000 -0.284
95.80000 1.298
95.82000 1.540
95.84000 -1.127
95.86000 1.261
95.88000 2.711
95.90000 2.872
95.92000 0.785
95.94000 -1.152
95.96000 0.480
95.98000 2.195
96.00000 0.389
96.02000 0.871
96.04000 2.273
96.06000 0.613
96.08000 2.004
96.10000 4.985
96.12000 2.717
96.14000 5.096
96.16000 4.697
96.18000 2.743
96.20000 2.057
96.22000 4.841
96.24000 0.242
96.26000 1.738
96.28000 3.425
96.30000 -0.112
96.32000 -1.780
96.34000 0.153
96.36000 5.081
96.38000 1.756
96.40000 4.734
96.42000 3.452
96.44000 5.975
96.46000 4.863
96.48000 0.752
96.50000 1.098
96.52000 1.257
96.54000 -0.494
96.56000 3.307
96.58000 4.861
96.60000 2.314
96.62000 -1.787
96.64000 -1.202
96.66000 2.490
96.68000 6.129
96.70000 3.288
96.72000 1.314
96.74000 2.727
96.76000 4.632
96.78000 7.463
96.80000 3.425
96.82000 6.013
96.84000 5.915
96.86000 4.451
96.88000 8.314
96.90000 4.595
96.92000 8.152
96.94000 1.315
96.96000 -0.211
96.98000 0.585
97.00000 3.371
97.02000 9.736
97.04000 4.633
97.06000 2.170
97.08000 1.886
97.10000 3.087
97.12000 4.631
97.14000 3.722
97.16000 4.263
97.18000 1.706
97.20000 3.995
97.22000 4.756
97.24000 7.482
97.26000 4.919
97.28000 3.360
97.30000 0.664
97.32000 0.627
97.34000 5.600
97.36000 3.302
97.38000 3.210
97.40000 5.293
97.42000 2.492
97.44000 3.468
97.46000 2.738
97.48000 2.724
97.50000 3.585
97.52000 6.035
97.54000 6.628
97.56000 5.604
97.58000 3.502
97.60000 3.593
97.62000 4.776
97.64000 4.253
97.66000 -1.763
97.68000 -0.377
97.70000 2.090
97.72000 3.528
97.74000 2.035
97.76000 4.514
97.78000 2.157
97.80000 0.787
97.82000 -1.759
97.84000 -0.622
97.86000 0.374
97.88000 4.473
97.90000 9.009
97.92000 4.921
97.94000 5.220
97.96000 3.730
97.98000 2.666
98.00000 4.324
98.02000 4.457
98.04000 4.107
98.06000 2.329
98.08000 0.071
98.10000 -0.837
98.12000 0.140
98.14000 -0.715
98.16000 0.813
98.18000 6.761
98.20000 3.865
98.22000 4.419
98.24000 -0.107
98.26000 2.346
98.28000 2.085
98.30000 3.749
98.32000 4.202
98.34000 3.602
98.36000 2.163
98.38000 1.939
98.40000 3.754
98.42000 2.443
98.44000 -0.594
98.46000 1.668
98.48000 6.353
98.50000 5.212
98.52000 6.959
98.54000 1.659
98.56000 -0.797
98.58000 1.078
98.60000 -0.065
98.62000 1.963
98.64000 0.259
98.66000 3.251
98.68000 6.093
98.70000 0.943
98.72000 3.678
98.74000 6.089
98.76000 -1.781
98.78000 5.510
98.80000 8.565
98.82000 8.467
98.84000 3.862
98.86000 0.604
98.88000 0.190
98.90000 4.007
98.92000 9.423
98.94000 8.126
98.96000 6.625
98.98000 3.479
99.00000 0.537
99.02000 1.856
99.04000 3.893
99.06000 2.928
99.08000 1.221
99.10000 2.975
99.12000 5.688
99.14000 -1.332
99.16000 -0.364
99.18000 1.834
99.20000 0.372
99.22000 -0.767
99.24000 7.953
99.26000 5.318
99.28000 2.271
99.30000 6.993
99.32000 7.769
99.34000 4.308
99.36000 -1.144
99.38000 -1.721
99.40000 -0.726
99.42000 5.405
99.44000 7.245
99.46000 4.773
99.48000 4.094
99.50000 9.144
99.52000 5.155
99.54000 0.301
99.56000 2.679
99.58000 2.524
99.60000 8.521
99.62000 2.705
99.64000 -2.996
99.66000 5.872
99.68000 6.188
99.70000 6.648
99.72000 1.461
99.74000 0.176
99.76000 6.347
99.78000 8.817
99.80000 5.189
99.82000 -1.830
99.84000 0.403
99.86000 8.744
99.88000 2.234
99.90000 3.199
99.92000 3.632
99.94000 2.433
99.96000 1.917
99.98000 0.000
