'Id: "0011389" Comment: "Integrate frame 0011389_Au-Ir-Rh_Au-Rich_XRD_Mapping-275-0000.gfrmwith cursor Wedge Cursor #5" Operator: "B?rgel" Anode: "Cu" Wavelength: "1.5406" Scantype: "2Theta (TwoTheta)" TimePerStep: "1" X: "27" Y: "22.5" Z: "5.95" 
10.00000 0.000
10.02000 -1.545
10.04000 -3.755
10.06000 1.207
10.08000 -1.010
10.10000 -3.735
10.12000 12.174
10.14000 23.890
10.16000 2.651
10.18000 9.289
10.20000 2.668
10.22000 -1.669
10.24000 -3.740
10.26000 1.803
10.28000 25.670
10.30000 21.165
10.32000 10.774
10.34000 3.787
10.36000 -0.129
10.38000 16.078
10.40000 14.619
10.42000 8.530
10.44000 -3.993
10.46000 21.620
10.48000 18.267
10.50000 12.557
10.52000 13.419
10.54000 13.448
10.56000 10.990
10.58000 21.583
10.60000 13.264
10.62000 7.059
10.64000 18.131
10.66000 22.205
10.68000 17.789
10.70000 13.951
10.72000 11.379
10.74000 11.921
10.76000 10.412
10.78000 14.736
10.80000 24.758
10.82000 16.443
10.84000 18.461
10.86000 10.431
10.88000 14.002
10.90000 28.753
10.92000 22.470
10.94000 9.425
10.96000 6.762
10.98000 14.387
11.00000 28.288
11.02000 18.005
11.04000 25.734
11.06000 34.996
11.08000 30.851
11.10000 13.188
11.12000 7.510
11.14000 9.912
11.16000 16.840
11.18000 21.018
11.20000 16.422
11.22000 25.656
11.24000 18.171
11.26000 25.758
11.28000 18.156
11.30000 22.036
11.32000 28.051
11.34000 18.043
11.36000 15.515
11.38000 23.047
11.40000 25.373
11.42000 16.964
11.44000 16.945
11.46000 16.061
11.48000 12.495
11.50000 10.413
11.52000 12.264
11.54000 23.875
11.56000 32.724
11.58000 30.303
11.60000 22.333
11.62000 20.034
11.64000 15.998
11.66000 17.019
11.68000 19.175
11.70000 22.938
11.72000 22.728
11.74000 26.838
11.76000 31.337
11.78000 24.328
11.80000 27.890
11.82000 25.122
11.84000 14.125
11.86000 20.789
11.88000 21.613
11.90000 20.098
11.92000 25.159
11.94000 36.914
11.96000 36.224
11.98000 33.539
12.00000 25.149
12.02000 31.339
12.04000 25.374
12.06000 23.001
12.08000 28.914
12.10000 32.759
12.12000 33.291
12.14000 22.212
12.16000 17.261
12.18000 19.040
12.20000 23.163
12.22000 29.051
12.24000 32.222
12.26000 27.490
12.28000 30.799
12.30000 28.243
12.32000 27.001
12.34000 17.132
12.36000 24.871
12.38000 26.275
12.40000 37.564
12.42000 23.360
12.44000 29.087
12.46000 31.128
12.48000 20.079
12.50000 18.473
12.52000 22.987
12.54000 20.079
12.56000 24.990
12.58000 28.166
12.60000 27.515
12.62000 44.579
12.64000 49.949
12.66000 36.428
12.68000 31.510
12.70000 23.657
12.72000 24.834
12.74000 22.575
12.76000 23.079
12.78000 28.547
12.80000 23.191
12.82000 32.612
12.84000 40.836
12.86000 35.955
12.88000 24.987
12.90000 28.187
12.92000 29.858
12.94000 28.298
12.96000 24.778
12.98000 23.347
13.00000 29.198
13.02000 36.116
13.04000 26.426
13.06000 25.623
13.08000 28.433
13.10000 30.451
13.12000 22.847
13.14000 30.726
13.16000 26.225
13.18000 18.184
13.20000 22.575
13.22000 35.578
13.24000 44.061
13.26000 25.969
13.28000 14.961
13.30000 33.096
13.32000 28.943
13.34000 31.883
13.36000 29.418
13.38000 21.207
13.40000 23.699
13.42000 23.726
13.44000 18.390
13.46000 22.547
13.48000 19.800
13.50000 26.432
13.52000 30.850
13.54000 38.110
13.56000 34.974
13.58000 36.391
13.60000 38.381
13.62000 33.255
13.64000 22.938
13.66000 21.066
13.68000 22.242
13.70000 20.321
13.72000 22.546
13.74000 30.052
13.76000 27.645
13.78000 24.226
13.80000 21.273
13.82000 20.784
13.84000 20.853
13.86000 23.989
13.88000 17.379
13.90000 18.898
13.92000 21.678
13.94000 10.659
13.96000 20.883
13.98000 22.844
14.00000 19.943
14.02000 20.631
14.04000 21.417
14.06000 20.373
14.08000 29.335
14.10000 22.836
14.12000 19.759
14.14000 28.316
14.16000 34.828
14.18000 30.692
14.20000 36.022
14.22000 30.483
14.24000 22.172
14.26000 17.501
14.28000 17.857
14.30000 18.157
14.32000 22.816
14.34000 23.055
14.36000 25.704
14.38000 19.386
14.40000 16.257
14.42000 11.406
14.44000 16.012
14.46000 23.641
14.48000 12.679
14.50000 14.102
14.52000 20.415
14.54000 15.060
14.56000 9.188
14.58000 17.778
14.60000 20.322
14.62000 15.515
14.64000 12.364
14.66000 14.537
14.68000 22.378
14.70000 33.994
14.72000 17.324
14.74000 14.439
14.76000 18.502
14.78000 18.706
14.80000 27.447
14.82000 21.492
14.84000 10.887
14.86000 12.243
14.88000 19.240
14.90000 15.083
14.92000 14.760
14.94000 15.577
14.96000 16.919
14.98000 17.507
15.00000 8.759
15.02000 16.422
15.04000 14.683
15.06000 10.815
15.08000 17.041
15.10000 14.652
15.12000 13.105
15.14000 15.895
15.16000 12.860
15.18000 18.836
15.20000 15.322
15.22000 13.123
15.24000 13.210
15.26000 9.920
15.28000 9.882
15.30000 5.086
15.32000 10.206
15.34000 20.053
15.36000 17.216
15.38000 24.311
15.40000 27.244
15.42000 15.257
15.44000 20.842
15.46000 19.989
15.48000 16.573
15.50000 14.526
15.52000 15.979
15.54000 13.498
15.56000 13.988
15.58000 4.834
15.60000 1.345
15.62000 14.527
15.64000 13.771
15.66000 11.983
15.68000 10.390
15.70000 9.301
15.72000 10.850
15.74000 11.006
15.76000 8.457
15.78000 9.781
15.80000 11.885
15.82000 11.934
15.84000 23.305
15.86000 21.462
15.88000 16.440
15.90000 11.668
15.92000 14.810
15.94000 17.534
15.96000 17.058
15.98000 15.613
16.00000 21.126
16.02000 18.904
16.04000 13.546
16.06000 5.508
16.08000 1.751
16.10000 4.223
16.12000 16.131
16.14000 18.511
16.16000 19.051
16.18000 8.571
16.20000 2.212
16.22000 8.366
16.24000 17.504
16.26000 24.581
16.28000 8.044
16.30000 6.549
16.32000 8.186
16.34000 14.813
16.36000 20.838
16.38000 15.458
16.40000 9.785
16.42000 5.945
16.44000 -0.239
16.46000 3.667
16.48000 2.014
16.50000 1.068
16.52000 6.527
16.54000 3.662
16.56000 2.784
16.58000 7.800
16.60000 7.833
16.62000 4.169
16.64000 8.648
16.66000 4.745
16.68000 6.681
16.70000 3.933
16.72000 3.312
16.74000 5.110
16.76000 4.889
16.78000 -0.754
16.80000 4.196
16.82000 11.188
16.84000 13.155
16.86000 7.563
16.88000 8.371
16.90000 11.214
16.92000 20.156
16.94000 13.697
16.96000 2.898
16.98000 6.440
17.00000 9.568
17.02000 20.070
17.04000 17.108
17.06000 6.862
17.08000 10.451
17.10000 -2.089
17.12000 -0.198
17.14000 -1.923
17.16000 -1.036
17.18000 8.240
17.20000 14.077
17.22000 8.947
17.24000 6.704
17.26000 4.216
17.28000 3.410
17.30000 7.865
17.32000 13.021
17.34000 6.358
17.36000 6.572
17.38000 13.248
17.40000 9.033
17.42000 6.484
17.44000 6.082
17.46000 9.641
17.48000 12.096
17.50000 6.354
17.52000 8.512
17.54000 9.382
17.56000 9.140
17.58000 3.749
17.60000 4.000
17.62000 8.525
17.64000 8.415
17.66000 1.489
17.68000 2.714
17.70000 6.895
17.72000 5.331
17.74000 0.071
17.76000 -0.432
17.78000 0.606
17.80000 8.433
17.82000 1.905
17.84000 -4.400
17.86000 -3.773
17.88000 1.875
17.90000 7.506
17.92000 4.873
17.94000 4.619
17.96000 5.761
17.98000 7.386
18.00000 8.452
18.02000 10.895
18.04000 6.493
18.06000 1.603
18.08000 1.669
18.10000 8.245
18.12000 10.257
18.14000 13.490
18.16000 3.954
18.18000 -0.979
18.20000 2.795
18.22000 8.739
18.24000 5.554
18.26000 8.249
18.28000 4.539
18.30000 0.872
18.32000 0.937
18.34000 10.290
18.36000 3.266
18.38000 -1.780
18.40000 2.239
18.42000 1.446
18.44000 1.300
18.46000 5.036
18.48000 2.508
18.50000 7.150
18.52000 6.879
18.54000 2.699
18.56000 2.540
18.58000 2.136
18.60000 1.435
18.62000 -0.732
18.64000 -0.732
18.66000 7.837
18.68000 9.050
18.70000 4.966
18.72000 1.822
18.74000 2.713
18.76000 6.449
18.78000 3.947
18.80000 -4.351
18.82000 1.005
18.84000 1.732
18.86000 2.191
18.88000 5.880
18.90000 5.811
18.92000 8.501
18.94000 13.882
18.96000 6.773
18.98000 3.396
19.00000 8.210
19.02000 4.538
19.04000 2.469
19.06000 3.761
19.08000 4.972
19.10000 7.141
19.12000 3.689
19.14000 8.669
19.16000 10.920
19.18000 1.523
19.20000 -2.289
19.22000 -4.320
19.24000 1.497
19.26000 7.592
19.28000 2.422
19.30000 -2.277
19.32000 -1.220
19.34000 4.389
19.36000 4.523
19.38000 1.460
19.40000 -2.409
19.42000 -1.353
19.44000 -0.336
19.46000 3.518
19.48000 0.120
19.50000 2.846
19.52000 7.130
19.54000 11.968
19.56000 7.017
19.58000 0.879
19.60000 9.087
19.62000 13.125
19.64000 8.644
19.66000 8.261
19.68000 4.842
19.70000 9.517
19.72000 7.596
19.74000 4.664
19.76000 1.325
19.78000 7.354
19.80000 3.077
19.82000 0.774
19.84000 2.440
19.86000 4.793
19.88000 3.780
19.90000 5.555
19.92000 11.645
19.94000 9.344
19.96000 6.311
19.98000 4.786
20.00000 4.930
20.02000 8.757
20.04000 10.764
20.06000 7.952
20.08000 0.073
20.10000 -4.235
20.12000 0.988
20.14000 2.217
20.16000 4.514
20.18000 5.476
20.20000 8.858
20.22000 11.128
20.24000 9.228
20.26000 4.122
20.28000 8.717
20.30000 11.196
20.32000 17.206
20.34000 7.135
20.36000 8.551
20.38000 5.553
20.40000 1.115
20.42000 8.026
20.44000 14.354
20.46000 22.222
20.48000 13.784
20.50000 4.509
20.52000 3.084
20.54000 9.680
20.56000 11.311
20.58000 8.591
20.60000 9.218
20.62000 8.375
20.64000 10.883
20.66000 11.771
20.68000 10.492
20.70000 6.687
20.72000 -0.016
20.74000 8.093
20.76000 13.475
20.78000 11.122
20.80000 1.206
20.82000 5.660
20.84000 7.116
20.86000 3.744
20.88000 8.088
20.90000 16.265
20.92000 13.366
20.94000 7.270
20.96000 5.980
20.98000 2.388
21.00000 2.264
21.02000 3.138
21.04000 5.037
21.06000 6.584
21.08000 7.559
21.10000 4.944
21.12000 1.038
21.14000 1.582
21.16000 1.606
21.18000 2.226
21.20000 5.823
21.22000 3.376
21.24000 2.636
21.26000 8.676
21.28000 5.053
21.30000 7.787
21.32000 8.289
21.34000 3.401
21.36000 -1.659
21.38000 -4.157
21.40000 3.515
21.42000 9.650
21.44000 13.460
21.46000 14.240
21.48000 10.994
21.50000 3.709
21.52000 7.848
21.54000 9.162
21.56000 9.978
21.58000 11.089
21.60000 6.263
21.62000 3.432
21.64000 1.163
21.66000 4.992
21.68000 11.419
21.70000 9.887
21.72000 5.655
21.74000 4.958
21.76000 11.782
21.78000 15.605
21.80000 14.343
21.82000 5.046
21.84000 -0.892
21.86000 7.022
21.88000 9.754
21.90000 2.209
21.92000 1.726
21.94000 3.726
21.96000 1.895
21.98000 6.406
22.00000 5.409
22.02000 -1.112
22.04000 10.394
22.06000 11.233
22.08000 11.341
22.10000 11.293
22.12000 11.434
22.14000 9.694
22.16000 5.641
22.18000 12.049
22.20000 4.764
22.22000 0.211
22.24000 3.542
22.26000 5.224
22.28000 10.733
22.30000 13.648
22.32000 9.432
22.34000 14.230
22.36000 10.395
22.38000 3.099
22.40000 7.548
22.42000 8.979
22.44000 7.080
22.46000 15.088
22.48000 10.639
22.50000 4.179
22.52000 -3.000
22.54000 0.138
22.56000 10.459
22.58000 8.037
22.60000 5.572
22.62000 6.403
22.64000 5.799
22.66000 5.266
22.68000 6.890
22.70000 8.192
22.72000 2.183
22.74000 7.755
22.76000 13.215
22.78000 3.502
22.80000 7.990
22.82000 6.395
22.84000 7.690
22.86000 3.571
22.88000 -4.089
22.90000 2.031
22.92000 2.548
22.94000 2.395
22.96000 1.738
22.98000 8.317
23.00000 16.122
23.02000 9.737
23.04000 3.603
23.06000 3.099
23.08000 6.984
23.10000 8.049
23.12000 7.662
23.14000 6.728
23.16000 7.988
23.18000 -2.977
23.20000 -4.070
23.22000 0.146
23.24000 10.456
23.26000 13.687
23.28000 8.107
23.30000 9.937
23.32000 9.457
23.34000 4.211
23.36000 7.945
23.38000 10.713
23.40000 4.490
23.42000 4.740
23.44000 9.741
23.46000 6.283
23.48000 6.552
23.50000 0.699
23.52000 -2.569
23.54000 4.624
23.56000 15.466
23.58000 13.186
23.60000 6.630
23.62000 5.301
23.64000 5.343
23.66000 5.718
23.68000 4.157
23.70000 7.862
23.72000 5.405
23.74000 4.871
23.76000 10.422
23.78000 8.222
23.80000 2.614
23.82000 0.896
23.84000 -1.973
23.86000 -3.219
23.88000 -1.848
23.90000 1.096
23.92000 6.622
23.94000 6.927
23.96000 5.110
23.98000 6.699
24.00000 1.065
24.02000 1.326
24.04000 5.410
24.06000 0.855
24.08000 2.273
24.10000 0.064
24.12000 1.912
24.14000 1.507
24.16000 2.982
24.18000 -0.032
24.20000 2.396
24.22000 -1.706
24.24000 4.152
24.26000 3.439
24.28000 0.762
24.30000 1.720
24.32000 4.614
24.34000 0.989
24.36000 3.593
24.38000 2.430
24.40000 1.985
24.42000 -1.682
24.44000 -1.914
24.46000 -2.955
24.48000 4.555
24.50000 0.534
24.52000 1.133
24.54000 7.189
24.56000 10.274
24.58000 7.197
24.60000 3.073
24.62000 0.255
24.64000 2.828
24.66000 -1.755
24.68000 0.698
24.70000 -2.983
24.72000 2.393
24.74000 -0.084
24.76000 0.256
24.78000 6.466
24.80000 3.473
24.82000 2.551
24.84000 4.051
24.86000 4.648
24.88000 -0.988
24.90000 1.570
24.92000 -0.535
24.94000 -0.470
24.96000 3.427
24.98000 7.093
25.00000 6.390
25.02000 8.057
25.04000 1.272
25.06000 3.490
25.08000 3.054
25.10000 4.040
25.12000 5.983
25.14000 2.915
25.16000 -2.297
25.18000 -1.975
25.20000 0.202
25.22000 2.380
25.24000 0.996
25.26000 -1.613
25.28000 1.076
25.30000 1.673
25.32000 4.012
25.34000 7.666
25.36000 4.469
25.38000 1.120
25.40000 7.985
25.42000 3.103
25.44000 4.379
25.46000 5.576
25.48000 4.711
25.50000 4.089
25.52000 0.853
25.54000 3.367
25.56000 4.756
25.58000 4.465
25.60000 9.932
25.62000 6.616
25.64000 7.060
25.66000 1.561
25.68000 5.361
25.70000 11.612
25.72000 8.624
25.74000 7.667
25.76000 7.510
25.78000 9.577
25.80000 1.706
25.82000 2.906
25.84000 5.354
25.86000 4.536
25.88000 4.180
25.90000 -3.919
25.92000 -0.984
25.94000 7.292
25.96000 7.880
25.98000 9.788
26.00000 4.715
26.02000 5.901
26.04000 4.149
26.06000 9.345
26.08000 9.924
26.10000 14.097
26.12000 10.129
26.14000 2.030
26.16000 -3.377
26.18000 4.483
26.20000 6.819
26.22000 10.852
26.24000 9.592
26.26000 6.527
26.28000 7.212
26.30000 6.432
26.32000 3.048
26.34000 2.972
26.36000 5.746
26.38000 3.254
26.40000 -0.941
26.42000 3.811
26.44000 6.684
26.46000 5.008
26.48000 2.912
26.50000 3.602
26.52000 -3.714
26.54000 2.146
26.56000 6.021
26.58000 2.617
26.60000 1.681
26.62000 5.167
26.64000 6.640
26.66000 1.548
26.68000 -0.846
26.70000 3.201
26.72000 4.729
26.74000 4.203
26.76000 5.994
26.78000 -0.337
26.80000 2.227
26.82000 7.866
26.84000 12.433
26.86000 10.827
26.88000 3.164
26.90000 0.096
26.92000 -1.151
26.94000 1.113
26.96000 2.433
26.98000 5.300
27.00000 5.033
27.02000 9.779
27.04000 6.081
27.06000 1.187
27.08000 -1.106
27.10000 -1.307
27.12000 -1.289
27.14000 1.458
27.16000 2.333
27.18000 7.000
27.20000 3.347
27.22000 -0.504
27.24000 0.404
27.26000 -1.854
27.28000 4.252
27.30000 2.573
27.32000 7.772
27.34000 1.914
27.36000 -2.283
27.38000 4.489
27.40000 5.455
27.42000 5.552
27.44000 4.458
27.46000 -0.370
27.48000 -1.039
27.50000 3.174
27.52000 4.011
27.54000 4.260
27.56000 6.749
27.58000 10.130
27.60000 2.359
27.62000 2.473
27.64000 0.876
27.66000 4.461
27.68000 4.808
27.70000 11.210
27.72000 5.168
27.74000 3.605
27.76000 0.009
27.78000 3.297
27.80000 0.590
27.82000 4.293
27.84000 2.562
27.86000 2.970
27.88000 2.278
27.90000 3.969
27.92000 1.722
27.94000 4.153
27.96000 7.147
27.98000 5.717
28.00000 4.190
28.02000 7.890
28.04000 6.854
28.06000 1.045
28.08000 1.911
28.10000 5.014
28.12000 3.301
28.14000 0.100
28.16000 0.168
28.18000 0.980
28.20000 -0.760
28.22000 -3.838
28.24000 0.679
28.26000 7.002
28.28000 5.660
28.30000 -0.108
28.32000 1.888
28.34000 3.824
28.36000 0.204
28.38000 2.153
28.40000 2.097
28.42000 2.281
28.44000 10.607
28.46000 5.550
28.48000 0.416
28.50000 1.698
28.52000 1.958
28.54000 2.329
28.56000 0.599
28.58000 2.113
28.60000 3.365
28.62000 5.696
28.64000 3.557
28.66000 -0.858
28.68000 1.375
28.70000 4.477
28.72000 6.046
28.74000 0.625
28.76000 -0.788
28.78000 4.480
28.80000 3.086
28.82000 0.685
28.84000 -0.707
28.86000 -1.524
28.88000 1.702
28.90000 3.459
28.92000 3.264
28.94000 0.019
28.96000 2.526
28.98000 3.709
29.00000 1.602
29.02000 5.573
29.04000 4.402
29.06000 3.798
29.08000 1.408
29.10000 1.976
29.12000 2.763
29.14000 8.135
29.16000 8.747
29.18000 1.180
29.20000 -3.807
29.22000 -2.028
29.24000 -0.734
29.26000 -1.970
29.28000 -3.113
29.30000 -1.240
29.32000 0.041
29.34000 0.632
29.36000 8.807
29.38000 3.954
29.40000 1.232
29.42000 0.818
29.44000 -0.121
29.46000 0.436
29.48000 -1.079
29.50000 -3.790
29.52000 1.536
29.54000 3.448
29.56000 1.119
29.58000 -1.993
29.60000 -2.767
29.62000 -0.067
29.64000 1.453
29.66000 6.802
29.68000 5.929
29.70000 3.146
29.72000 2.174
29.74000 2.804
29.76000 3.422
29.78000 -0.459
29.80000 3.906
29.82000 5.237
29.84000 2.485
29.86000 3.801
29.88000 9.079
29.90000 3.646
29.92000 -2.222
29.94000 -1.097
29.96000 0.104
29.98000 1.467
30.00000 -0.256
30.02000 0.795
30.04000 0.441
30.06000 -0.456
30.08000 -1.374
30.10000 3.208
30.12000 1.690
30.14000 2.485
30.16000 0.498
30.18000 -0.201
30.20000 3.142
30.22000 -1.111
30.24000 2.609
30.26000 -0.101
30.28000 -0.820
30.30000 -3.767
30.32000 -2.567
30.34000 6.149
30.36000 5.493
30.38000 0.800
30.40000 4.188
30.42000 4.973
30.44000 2.917
30.46000 4.071
30.48000 0.293
30.50000 -3.757
30.52000 3.706
30.54000 2.431
30.56000 3.709
30.58000 4.931
30.60000 5.414
30.62000 0.991
30.64000 0.958
30.66000 2.268
30.68000 5.802
30.70000 7.577
30.72000 4.571
30.74000 2.068
30.76000 0.884
30.78000 4.418
30.80000 2.857
30.82000 -0.403
30.84000 -0.306
30.86000 4.139
30.88000 3.498
30.90000 3.918
30.92000 -0.958
30.94000 1.127
30.96000 -2.792
30.98000 -1.195
31.00000 0.163
31.02000 -2.056
31.04000 -1.655
31.06000 0.501
31.08000 0.860
31.10000 0.742
31.12000 -0.347
31.14000 -1.560
31.16000 1.757
31.18000 1.021
31.20000 2.977
31.22000 2.389
31.24000 1.308
31.26000 0.157
31.28000 -2.461
31.30000 -3.108
31.32000 -2.948
31.34000 1.827
31.36000 7.104
31.38000 2.185
31.40000 0.456
31.42000 5.331
31.44000 8.415
31.46000 4.921
31.48000 1.508
31.50000 3.564
31.52000 3.802
31.54000 1.557
31.56000 1.912
31.58000 2.030
31.60000 3.815
31.62000 6.118
31.64000 7.517
31.66000 4.537
31.68000 -1.159
31.70000 -1.845
31.72000 -3.694
31.74000 1.381
31.76000 2.739
31.78000 4.088
31.80000 5.404
31.82000 7.522
31.84000 3.376
31.86000 4.217
31.88000 1.804
31.90000 4.976
31.92000 1.797
31.94000 0.842
31.96000 2.550
31.98000 5.129
32.00000 6.331
32.02000 1.636
32.04000 -0.157
32.06000 1.521
32.08000 -3.656
32.10000 -3.671
32.12000 2.335
32.14000 6.225
32.16000 6.653
32.18000 2.588
32.20000 2.861
32.22000 0.941
32.24000 1.491
32.26000 1.492
32.28000 5.255
32.30000 1.817
32.32000 4.199
32.34000 2.904
32.36000 7.450
32.38000 4.894
32.40000 6.742
32.42000 5.066
32.44000 5.642
32.46000 1.172
32.48000 1.738
32.50000 -1.920
32.52000 0.576
32.54000 4.915
32.56000 5.162
32.58000 3.461
32.60000 3.270
32.62000 4.700
32.64000 3.650
32.66000 2.252
32.68000 -2.289
32.70000 -2.584
32.72000 -2.841
32.74000 -1.556
32.76000 -1.641
32.78000 -0.187
32.80000 2.280
32.82000 1.398
32.84000 1.578
32.86000 -3.671
32.88000 -0.154
32.90000 1.775
32.92000 -1.498
32.94000 -1.602
32.96000 2.614
32.98000 0.892
33.00000 0.611
33.02000 -1.951
33.04000 -2.331
33.06000 -3.578
33.08000 0.529
33.10000 6.372
33.12000 4.209
33.14000 -2.278
33.16000 3.918
33.18000 0.659
33.20000 -0.335
33.22000 5.711
33.24000 1.416
33.26000 1.663
33.28000 1.690
33.30000 4.069
33.32000 6.971
33.34000 2.882
33.36000 3.036
33.38000 5.354
33.40000 6.410
33.42000 6.866
33.44000 3.677
33.46000 1.850
33.48000 -0.587
33.50000 2.359
33.52000 2.633
33.54000 0.062
33.56000 3.641
33.58000 2.073
33.60000 3.900
33.62000 4.636
33.64000 4.802
33.66000 1.834
33.68000 7.552
33.70000 9.563
33.72000 5.125
33.74000 2.166
33.76000 1.707
33.78000 2.204
33.80000 3.320
33.82000 3.339
33.84000 2.058
33.86000 3.172
33.88000 7.310
33.90000 6.478
33.92000 -0.005
33.94000 1.285
33.96000 -0.739
33.98000 1.698
34.00000 3.565
34.02000 8.663
34.04000 6.145
34.06000 4.662
34.08000 0.236
34.10000 -2.763
34.12000 1.390
34.14000 2.295
34.16000 3.695
34.18000 3.879
34.20000 0.794
34.22000 3.886
34.24000 4.590
34.26000 4.332
34.28000 2.385
34.30000 2.875
34.32000 -0.618
34.34000 -0.895
34.36000 1.605
34.38000 6.437
34.40000 7.788
34.42000 4.643
34.44000 -0.654
34.46000 2.010
34.48000 4.933
34.50000 0.854
34.52000 0.961
34.54000 1.756
34.56000 -3.646
34.58000 -1.032
34.60000 3.206
34.62000 0.738
34.64000 0.715
34.66000 3.214
34.68000 4.873
34.70000 2.846
34.72000 6.269
34.74000 6.774
34.76000 1.993
34.78000 2.902
34.80000 6.057
34.82000 4.923
34.84000 4.512
34.86000 3.600
34.88000 -0.413
34.90000 -0.114
34.92000 -1.477
34.94000 4.848
34.96000 -2.120
34.98000 1.447
35.00000 5.421
35.02000 6.521
35.04000 8.924
35.06000 7.401
35.08000 2.241
35.10000 0.958
35.12000 4.603
35.14000 2.203
35.16000 3.105
35.18000 1.234
35.20000 -3.617
35.22000 1.681
35.24000 1.899
35.26000 3.085
35.28000 5.272
35.30000 1.105
35.32000 2.127
35.34000 6.298
35.36000 -0.322
35.38000 -0.311
35.40000 1.595
35.42000 4.175
35.44000 3.891
35.46000 2.030
35.48000 -0.408
35.50000 0.144
35.52000 -0.976
35.54000 0.487
35.56000 0.519
35.58000 -1.359
35.60000 -0.674
35.62000 2.887
35.64000 4.516
35.66000 -2.582
35.68000 -1.009
35.70000 4.667
35.72000 7.168
35.74000 5.165
35.76000 -1.191
35.78000 -0.039
35.80000 -1.324
35.82000 0.798
35.84000 2.668
35.86000 4.496
35.88000 -2.123
35.90000 -2.845
35.92000 -0.211
35.94000 2.272
35.96000 3.006
35.98000 1.127
36.00000 6.465
36.02000 2.855
36.04000 -1.992
36.06000 0.100
36.08000 2.506
36.10000 1.785
36.12000 1.373
36.14000 0.385
36.16000 2.230
36.18000 1.400
36.20000 -0.677
36.22000 1.315
36.24000 0.833
36.26000 -2.032
36.28000 -2.331
36.30000 -3.678
36.32000 -0.980
36.34000 2.582
36.36000 4.543
36.38000 2.008
36.40000 1.859
36.42000 1.982
36.44000 -1.504
36.46000 -0.802
36.48000 0.824
36.50000 1.999
36.52000 6.125
36.54000 3.214
36.56000 4.122
36.58000 7.847
36.60000 5.660
36.62000 5.223
36.64000 1.772
36.66000 1.811
36.68000 4.275
36.70000 3.912
36.72000 5.166
36.74000 7.236
36.76000 3.745
36.78000 1.456
36.80000 1.771
36.82000 -0.687
36.84000 2.574
36.86000 3.260
36.88000 0.013
36.90000 -3.102
36.92000 -3.704
36.94000 1.790
36.96000 6.649
36.98000 5.134
37.00000 6.329
37.02000 5.885
37.04000 2.156
37.06000 4.328
37.08000 6.385
37.10000 2.344
37.12000 3.484
37.14000 7.594
37.16000 8.790
37.18000 8.484
37.20000 9.726
37.22000 8.856
37.24000 10.989
37.26000 11.336
37.28000 11.549
37.30000 15.131
37.32000 7.888
37.34000 9.023
37.36000 5.979
37.38000 8.154
37.40000 15.768
37.42000 17.028
37.44000 11.943
37.46000 14.534
37.48000 17.597
37.50000 12.007
37.52000 13.515
37.54000 13.080
37.56000 15.580
37.58000 15.525
37.60000 15.901
37.62000 19.800
37.64000 16.815
37.66000 17.850
37.68000 19.809
37.70000 15.311
37.72000 14.106
37.74000 17.494
37.76000 19.472
37.78000 17.694
37.80000 18.220
37.82000 19.926
37.84000 23.408
37.86000 25.841
37.88000 24.499
37.90000 22.243
37.92000 22.024
37.94000 25.437
37.96000 22.060
37.98000 25.717
38.00000 23.716
38.02000 25.121
38.04000 26.036
38.06000 23.411
38.08000 26.078
38.10000 32.419
38.12000 32.852
38.14000 35.482
38.16000 37.382
38.18000 43.668
38.20000 43.184
38.22000 41.283
38.24000 37.796
38.26000 41.120
38.28000 45.916
38.30000 48.467
38.32000 47.082
38.34000 48.425
38.36000 48.028
38.38000 50.459
38.40000 54.601
38.42000 54.482
38.44000 62.275
38.46000 68.411
38.48000 66.422
38.50000 65.597
38.52000 70.473
38.54000 74.210
38.56000 76.381
38.58000 83.108
38.60000 87.131
38.62000 91.055
38.64000 101.084
38.66000 105.178
38.68000 104.303
38.70000 109.670
38.72000 114.400
38.74000 118.672
38.76000 124.754
38.78000 131.220
38.80000 142.031
38.82000 143.091
38.84000 152.279
38.86000 165.341
38.88000 181.461
38.90000 192.581
38.92000 197.615
38.94000 202.638
38.96000 223.979
38.98000 231.489
39.00000 246.602
39.02000 258.179
39.04000 276.010
39.06000 289.765
39.08000 306.096
39.10000 320.419
39.12000 339.622
39.14000 360.327
39.16000 385.867
39.18000 401.281
39.20000 411.788
39.22000 426.458
39.24000 438.697
39.26000 458.106
39.28000 465.924
39.30000 484.175
39.32000 499.070
39.34000 504.234
39.36000 507.560
39.38000 510.972
39.40000 519.630
39.42000 520.657
39.44000 524.374
39.46000 524.900
39.48000 510.876
39.50000 492.377
39.52000 483.049
39.54000 476.319
39.56000 459.617
39.58000 453.385
39.60000 441.481
39.62000 418.437
39.64000 395.776
39.66000 378.091
39.68000 359.472
39.70000 342.866
39.72000 325.375
39.74000 310.431
39.76000 297.977
39.78000 274.694
39.80000 259.280
39.82000 241.828
39.84000 229.925
39.86000 213.674
39.88000 199.503
39.90000 192.819
39.92000 181.257
39.94000 162.874
39.96000 152.316
39.98000 142.483
40.00000 136.659
40.02000 131.043
40.04000 119.696
40.06000 118.166
40.08000 113.382
40.10000 100.885
40.12000 93.764
40.14000 90.159
40.16000 81.628
40.18000 75.816
40.20000 68.975
40.22000 64.010
40.24000 68.774
40.26000 67.309
40.28000 61.957
40.30000 54.344
40.32000 52.374
40.34000 45.968
40.36000 42.334
40.38000 45.532
40.40000 45.359
40.42000 42.792
40.44000 40.777
40.46000 38.429
40.48000 34.260
40.50000 33.760
40.52000 29.927
40.54000 26.766
40.56000 26.112
40.58000 28.089
40.60000 26.451
40.62000 26.078
40.64000 20.334
40.66000 19.032
40.68000 19.963
40.70000 20.008
40.72000 18.200
40.74000 18.683
40.76000 20.422
40.78000 18.606
40.80000 17.850
40.82000 16.364
40.84000 15.573
40.86000 14.304
40.88000 15.872
40.90000 12.642
40.92000 13.292
40.94000 13.847
40.96000 12.459
40.98000 10.368
41.00000 12.026
41.02000 14.400
41.04000 11.582
41.06000 8.704
41.08000 8.656
41.10000 6.086
41.12000 4.063
41.14000 2.718
41.16000 9.281
41.18000 8.594
41.20000 5.284
41.22000 7.142
41.24000 8.826
41.26000 5.593
41.28000 8.659
41.30000 9.158
41.32000 10.946
41.34000 7.761
41.36000 5.115
41.38000 7.296
41.40000 6.003
41.42000 5.026
41.44000 3.556
41.46000 1.972
41.48000 3.571
41.50000 2.161
41.52000 1.558
41.54000 1.710
41.56000 3.150
41.58000 -0.510
41.60000 1.777
41.62000 5.987
41.64000 0.752
41.66000 -0.252
41.68000 1.362
41.70000 1.414
41.72000 3.410
41.74000 3.078
41.76000 3.977
41.78000 2.472
41.80000 2.817
41.82000 2.758
41.84000 -0.650
41.86000 1.361
41.88000 1.203
41.90000 0.896
41.92000 -0.144
41.94000 -1.720
41.96000 -3.341
41.98000 -1.710
42.00000 -0.861
42.02000 1.039
42.04000 2.432
42.06000 3.921
42.08000 3.590
42.10000 1.715
42.12000 4.766
42.14000 1.604
42.16000 4.294
42.18000 4.519
42.20000 1.019
42.22000 -3.306
42.24000 -1.434
42.26000 -1.738
42.28000 1.800
42.30000 1.714
42.32000 1.993
42.34000 -1.513
42.36000 -2.405
42.38000 -0.645
42.40000 6.132
42.42000 7.500
42.44000 3.838
42.46000 1.660
42.48000 -0.324
42.50000 3.074
42.52000 1.199
42.54000 1.297
42.56000 -0.899
42.58000 -2.114
42.60000 1.774
42.62000 3.372
42.64000 1.048
42.66000 -0.357
42.68000 0.769
42.70000 4.083
42.72000 5.801
42.74000 -0.776
42.76000 -1.616
42.78000 1.496
42.80000 1.704
42.82000 -1.791
42.84000 -1.829
42.86000 0.434
42.88000 1.128
42.90000 1.787
42.92000 2.846
42.94000 5.995
42.96000 3.504
42.98000 -1.003
43.00000 -3.206
43.02000 -0.455
43.04000 2.509
43.06000 3.477
43.08000 1.545
43.10000 1.608
43.12000 -0.722
43.14000 -2.873
43.16000 0.024
43.18000 1.385
43.20000 0.104
43.22000 -2.112
43.24000 1.202
43.26000 -2.199
43.28000 -0.409
43.30000 -0.092
43.32000 1.057
43.34000 1.504
43.36000 -1.778
43.38000 -2.194
43.40000 -1.049
43.42000 -0.104
43.44000 0.872
43.46000 0.456
43.48000 0.350
43.50000 1.017
43.52000 1.129
43.54000 3.129
43.56000 5.411
43.58000 3.126
43.60000 -0.195
43.62000 -3.167
43.64000 -2.480
43.66000 -1.663
43.68000 -0.233
43.70000 1.620
43.72000 1.227
43.74000 -0.600
43.76000 -1.434
43.78000 -2.349
43.80000 -3.155
43.82000 -1.782
43.84000 -0.221
43.86000 0.065
43.88000 -0.344
43.90000 0.802
43.92000 -2.039
43.94000 -1.648
43.96000 -0.667
43.98000 -0.084
44.00000 0.289
44.02000 -2.670
44.04000 -2.291
44.06000 -2.408
44.08000 0.150
44.10000 -1.223
44.12000 -2.421
44.14000 1.198
44.16000 0.001
44.18000 0.333
44.20000 2.126
44.22000 1.134
44.24000 -0.081
44.26000 -0.739
44.28000 -1.834
44.30000 0.591
44.32000 -1.340
44.34000 -1.038
44.36000 -1.332
44.38000 -3.133
44.40000 -0.355
44.42000 1.300
44.44000 3.393
44.46000 4.359
44.48000 2.335
44.50000 2.510
44.52000 0.458
44.54000 2.330
44.56000 0.768
44.58000 4.899
44.60000 4.356
44.62000 4.935
44.64000 4.134
44.66000 2.637
44.68000 -0.326
44.70000 4.049
44.72000 7.680
44.74000 2.892
44.76000 2.309
44.78000 8.432
44.80000 7.790
44.82000 6.542
44.84000 5.307
44.86000 6.663
44.88000 4.618
44.90000 5.708
44.92000 8.465
44.94000 7.993
44.96000 7.537
44.98000 9.012
45.00000 10.478
45.02000 9.891
45.04000 10.379
45.06000 9.355
45.08000 11.650
45.10000 14.372
45.12000 14.667
45.14000 19.386
45.16000 18.567
45.18000 19.468
45.20000 17.163
45.22000 15.722
45.24000 17.782
45.26000 17.765
45.28000 18.441
45.30000 20.645
45.32000 24.928
45.34000 28.262
45.36000 29.219
45.38000 26.932
45.40000 30.933
45.42000 31.974
45.44000 32.440
45.46000 33.850
45.48000 29.615
45.50000 29.453
45.52000 32.236
45.54000 36.070
45.56000 35.860
45.58000 39.637
45.60000 41.459
45.62000 38.390
45.64000 42.601
45.66000 46.696
45.68000 47.561
45.70000 44.966
45.72000 45.812
45.74000 50.805
45.76000 51.371
45.78000 56.194
45.80000 59.525
45.82000 59.123
45.84000 61.726
45.86000 60.227
45.88000 61.439
45.90000 62.730
45.92000 63.000
45.94000 66.178
45.96000 64.981
45.98000 64.763
46.00000 69.014
46.02000 65.285
46.04000 64.129
46.06000 67.389
46.08000 67.166
46.10000 67.081
46.12000 71.766
46.14000 67.740
46.16000 65.988
46.18000 64.900
46.20000 67.965
46.22000 58.277
46.24000 60.334
46.26000 64.103
46.28000 66.439
46.30000 63.821
46.32000 58.791
46.34000 58.103
46.36000 60.505
46.38000 58.689
46.40000 58.923
46.42000 52.321
46.44000 50.613
46.46000 47.093
46.48000 45.375
46.50000 44.753
46.52000 45.146
46.54000 45.467
46.56000 39.981
46.58000 38.999
46.60000 37.270
46.62000 35.192
46.64000 34.784
46.66000 27.680
46.68000 27.651
46.70000 26.256
46.72000 26.512
46.74000 23.902
46.76000 25.537
46.78000 25.819
46.80000 22.822
46.82000 17.286
46.84000 16.457
46.86000 15.933
46.88000 17.763
46.90000 18.638
46.92000 16.433
46.94000 13.062
46.96000 9.622
46.98000 9.787
47.00000 10.240
47.02000 9.671
47.04000 7.622
47.06000 5.427
47.08000 9.679
47.10000 11.636
47.12000 5.104
47.14000 5.169
47.16000 7.082
47.18000 4.580
47.20000 2.249
47.22000 1.584
47.24000 2.494
47.26000 4.065
47.28000 5.242
47.30000 5.464
47.32000 0.794
47.34000 1.718
47.36000 5.494
47.38000 3.813
47.40000 4.501
47.42000 4.649
47.44000 1.708
47.46000 0.710
47.48000 3.934
47.50000 1.286
47.52000 -0.403
47.54000 3.059
47.56000 1.848
47.58000 1.920
47.60000 1.977
47.62000 0.452
47.64000 1.235
47.66000 -2.342
47.68000 -0.530
47.70000 0.608
47.72000 -2.703
47.74000 -0.913
47.76000 0.055
47.78000 1.409
47.80000 2.321
47.82000 2.708
47.84000 4.423
47.86000 3.634
47.88000 2.379
47.90000 -2.245
47.92000 -0.477
47.94000 -2.681
47.96000 2.107
47.98000 6.814
48.00000 4.263
48.02000 2.543
48.04000 -0.836
48.06000 0.911
48.08000 -0.936
48.10000 -1.109
48.12000 -0.276
48.14000 -0.406
48.16000 4.779
48.18000 3.528
48.20000 1.464
48.22000 -1.066
48.24000 2.310
48.26000 -0.836
48.28000 -2.648
48.30000 0.059
48.32000 1.298
48.34000 -1.806
48.36000 1.131
48.38000 1.334
48.40000 -1.163
48.42000 -2.582
48.44000 -2.630
48.46000 0.094
48.48000 2.925
48.50000 1.747
48.52000 3.212
48.54000 1.758
48.56000 0.946
48.58000 -1.994
48.60000 -0.531
48.62000 3.656
48.64000 2.702
48.66000 2.076
48.68000 0.320
48.70000 -1.582
48.72000 -0.160
48.74000 -0.190
48.76000 -0.996
48.78000 -0.941
48.80000 0.473
48.82000 -0.524
48.84000 1.433
48.86000 0.138
48.88000 -0.849
48.90000 1.267
48.92000 4.263
48.94000 1.440
48.96000 -2.143
48.98000 -0.241
49.00000 2.529
49.02000 1.140
49.04000 2.713
49.06000 1.089
49.08000 1.495
49.10000 1.413
49.12000 2.214
49.14000 1.576
49.16000 0.603
49.18000 1.746
49.20000 -2.118
49.22000 -2.326
49.24000 2.214
49.26000 -1.347
49.28000 -0.163
49.30000 2.672
49.32000 3.531
49.34000 3.344
49.36000 2.732
49.38000 3.310
49.40000 4.599
49.42000 1.973
49.44000 -2.552
49.46000 0.302
49.48000 1.781
49.50000 2.832
49.52000 2.304
49.54000 2.871
49.56000 0.046
49.58000 0.449
49.60000 1.785
49.62000 3.792
49.64000 3.467
49.66000 6.582
49.68000 0.853
49.70000 -0.161
49.72000 0.350
49.74000 -1.319
49.76000 -0.568
49.78000 -1.680
49.80000 -0.359
49.82000 -0.173
49.84000 -1.673
49.86000 -2.524
49.88000 0.744
49.90000 2.888
49.92000 2.501
49.94000 4.394
49.96000 3.348
49.98000 3.500
50.00000 1.873
50.02000 0.401
50.04000 -1.163
50.06000 -0.533
50.08000 2.181
50.10000 2.663
50.12000 0.392
50.14000 0.249
50.16000 -0.463
50.18000 3.714
50.20000 2.521
50.22000 2.558
50.24000 -1.058
50.26000 0.919
50.28000 2.959
50.30000 2.990
50.32000 0.504
50.34000 2.863
50.36000 3.683
50.38000 0.829
50.40000 4.992
50.42000 2.757
50.44000 1.859
50.46000 2.770
50.48000 0.075
50.50000 -2.492
50.52000 -0.174
50.54000 0.791
50.56000 3.108
50.58000 3.120
50.60000 5.444
50.62000 -0.175
50.64000 -0.427
50.66000 3.524
50.68000 4.165
50.70000 4.996
50.72000 2.344
50.74000 -2.482
50.76000 -0.033
50.78000 2.340
50.80000 1.918
50.82000 -0.362
50.84000 2.236
50.86000 4.305
50.88000 0.702
50.90000 -1.360
50.92000 2.936
50.94000 3.406
50.96000 2.372
50.98000 3.047
51.00000 4.321
51.02000 4.097
51.04000 2.174
51.06000 4.917
51.08000 7.097
51.10000 4.440
51.12000 -0.856
51.14000 -0.410
51.16000 4.231
51.18000 3.891
51.20000 0.653
51.22000 4.090
51.24000 3.606
51.26000 5.725
51.28000 6.703
51.30000 2.654
51.32000 0.279
51.34000 -0.662
51.36000 3.072
51.38000 2.161
51.40000 2.442
51.42000 2.019
51.44000 0.091
51.46000 -2.352
51.48000 -2.103
51.50000 -0.385
51.52000 1.746
51.54000 3.290
51.56000 2.421
51.58000 4.421
51.60000 1.596
51.62000 -1.026
51.64000 -0.933
51.66000 1.523
51.68000 2.246
51.70000 3.818
51.72000 2.777
51.74000 -2.467
51.76000 2.236
51.78000 3.639
51.80000 3.068
51.82000 0.449
51.84000 1.868
51.86000 3.926
51.88000 2.889
51.90000 2.485
51.92000 1.764
51.94000 1.328
51.96000 -0.171
51.98000 0.242
52.00000 -0.225
52.02000 2.533
52.04000 1.836
52.06000 -1.341
52.08000 -1.014
52.10000 1.491
52.12000 0.993
52.14000 0.770
52.16000 -1.019
52.18000 0.085
52.20000 4.067
52.22000 3.105
52.24000 5.268
52.26000 4.903
52.28000 1.491
52.30000 -0.047
52.32000 1.038
52.34000 -0.109
52.36000 -2.335
52.38000 -2.460
52.40000 2.156
52.42000 2.826
52.44000 2.317
52.46000 0.953
52.48000 2.106
52.50000 -1.551
52.52000 -0.288
52.54000 -1.659
52.56000 -1.103
52.58000 2.445
52.60000 2.266
52.62000 -0.492
52.64000 -0.565
52.66000 2.822
52.68000 -0.082
52.70000 2.053
52.72000 6.151
52.74000 0.429
52.76000 1.187
52.78000 2.418
52.80000 0.674
52.82000 -0.347
52.84000 2.146
52.86000 3.280
52.88000 0.568
52.90000 0.377
52.92000 7.248
52.94000 7.269
52.96000 1.992
52.98000 1.089
53.00000 0.574
53.02000 -0.601
53.04000 0.533
53.06000 -1.455
53.08000 0.321
53.10000 1.132
53.12000 1.901
53.14000 3.810
53.16000 3.461
53.18000 0.038
53.20000 -0.196
53.22000 3.783
53.24000 4.562
53.26000 5.191
53.28000 2.081
53.30000 1.092
53.32000 1.622
53.34000 -2.418
53.36000 2.515
53.38000 2.586
53.40000 3.070
53.42000 -1.004
53.44000 -0.652
53.46000 -0.905
53.48000 2.736
53.50000 0.742
53.52000 0.128
53.54000 1.335
53.56000 2.909
53.58000 2.762
53.60000 3.407
53.62000 4.627
53.64000 2.162
53.66000 1.839
53.68000 0.710
53.70000 1.968
53.72000 2.472
53.74000 0.145
53.76000 2.815
53.78000 1.033
53.80000 -0.711
53.82000 -1.429
53.84000 1.757
53.86000 4.440
53.88000 2.828
53.90000 -0.423
53.92000 -0.864
53.94000 1.053
53.96000 2.187
53.98000 6.326
54.00000 2.265
54.02000 -0.954
54.04000 -0.342
54.06000 2.812
54.08000 4.790
54.10000 2.596
54.12000 -0.251
54.14000 1.914
54.16000 1.135
54.18000 2.122
54.20000 4.306
54.22000 7.667
54.24000 4.625
54.26000 -0.194
54.28000 1.416
54.30000 3.634
54.32000 -0.193
54.34000 -1.837
54.36000 -0.311
54.38000 0.734
54.40000 2.246
54.42000 1.456
54.44000 -1.059
54.46000 0.045
54.48000 2.492
54.50000 1.354
54.52000 -0.552
54.54000 1.141
54.56000 0.830
54.58000 1.720
54.60000 4.103
54.62000 5.567
54.64000 6.356
54.66000 5.209
54.68000 5.164
54.70000 3.851
54.72000 7.741
54.74000 3.698
54.76000 3.043
54.78000 6.504
54.80000 6.521
54.82000 1.413
54.84000 -2.371
54.86000 2.121
54.88000 2.642
54.90000 2.896
54.92000 1.053
54.94000 1.321
54.96000 -1.595
54.98000 -0.197
55.00000 0.447
55.02000 3.843
55.04000 2.895
55.06000 0.670
55.08000 1.478
55.10000 0.131
55.12000 2.669
55.14000 3.548
55.16000 2.483
55.18000 2.212
55.20000 -0.959
55.22000 -2.367
55.24000 0.885
55.26000 3.316
55.28000 3.704
55.30000 2.194
55.32000 1.034
55.34000 4.157
55.36000 2.134
55.38000 -0.396
55.40000 -0.598
55.42000 0.289
55.44000 1.997
55.46000 2.382
55.48000 4.083
55.50000 3.478
55.52000 5.878
55.54000 2.211
55.56000 -0.368
55.58000 -2.063
55.60000 4.801
55.62000 3.135
55.64000 -1.840
55.66000 -2.128
55.68000 -2.365
55.70000 0.286
55.72000 0.032
55.74000 1.293
55.76000 4.134
55.78000 2.745
55.80000 0.992
55.82000 2.444
55.84000 2.236
55.86000 1.334
55.88000 0.757
55.90000 2.603
55.92000 4.056
55.94000 4.700
55.96000 4.745
55.98000 3.937
56.00000 2.214
56.02000 2.737
56.04000 4.203
56.06000 0.706
56.08000 2.143
56.10000 1.001
56.12000 -0.623
56.14000 1.315
56.16000 1.862
56.18000 0.297
56.20000 -2.367
56.22000 -1.595
56.24000 -1.005
56.26000 1.637
56.28000 3.203
56.30000 3.011
56.32000 2.018
56.34000 2.622
56.36000 0.192
56.38000 -0.050
56.40000 2.134
56.42000 8.070
56.44000 2.945
56.46000 1.554
56.48000 -1.068
56.50000 -0.687
56.52000 -0.451
56.54000 -1.062
56.56000 -0.012
56.58000 3.007
56.60000 0.413
56.62000 -0.043
56.64000 1.320
56.66000 2.845
56.68000 3.020
56.70000 5.405
56.72000 3.114
56.74000 3.535
56.76000 2.700
56.78000 -1.146
56.80000 2.697
56.82000 1.781
56.84000 2.313
56.86000 -0.268
56.88000 0.986
56.90000 4.739
56.92000 1.758
56.94000 1.577
56.96000 2.194
56.98000 -2.337
57.00000 -0.782
57.02000 -0.070
57.04000 3.035
57.06000 1.102
57.08000 1.720
57.10000 -0.824
57.12000 -1.463
57.14000 -0.281
57.16000 -0.376
57.18000 2.373
57.20000 3.336
57.22000 3.750
57.24000 3.913
57.26000 3.771
57.28000 0.160
57.30000 -1.301
57.32000 1.904
57.34000 3.080
57.36000 -1.607
57.38000 -1.175
57.40000 1.518
57.42000 2.488
57.44000 0.284
57.46000 1.987
57.48000 4.317
57.50000 4.289
57.52000 2.284
57.54000 2.334
57.56000 1.971
57.58000 5.604
57.60000 3.429
57.62000 -0.420
57.64000 1.689
57.66000 2.962
57.68000 3.048
57.70000 0.411
57.72000 0.383
57.74000 0.157
57.76000 0.128
57.78000 5.271
57.80000 7.917
57.82000 4.954
57.84000 2.496
57.86000 7.023
57.88000 3.705
57.90000 0.943
57.92000 2.267
57.94000 0.348
57.96000 1.903
57.98000 2.629
58.00000 2.748
58.02000 1.164
58.04000 1.805
58.06000 2.704
58.08000 1.617
58.10000 0.909
58.12000 2.991
58.14000 3.815
58.16000 1.296
58.18000 -0.085
58.20000 1.600
58.22000 2.398
58.24000 -0.360
58.26000 -1.715
58.28000 -2.267
58.30000 -0.986
58.32000 -0.520
58.34000 0.443
58.36000 -1.238
58.38000 1.149
58.40000 1.326
58.42000 2.850
58.44000 3.769
58.46000 3.143
58.48000 2.734
58.50000 2.883
58.52000 3.547
58.54000 2.862
58.56000 1.191
58.58000 2.491
58.60000 1.923
58.62000 0.763
58.64000 2.419
58.66000 3.656
58.68000 8.512
58.70000 2.980
58.72000 4.664
58.74000 3.764
58.76000 3.402
58.78000 3.840
58.80000 3.747
58.82000 5.425
58.84000 3.013
58.86000 2.787
58.88000 1.810
58.90000 3.022
58.92000 3.749
58.94000 4.453
58.96000 4.500
58.98000 4.179
59.00000 0.954
59.02000 0.547
59.04000 3.751
59.06000 4.338
59.08000 4.629
59.10000 4.693
59.12000 2.067
59.14000 2.575
59.16000 2.440
59.18000 0.068
59.20000 -2.230
59.22000 0.851
59.24000 4.231
59.26000 6.223
59.28000 6.253
59.30000 4.315
59.32000 1.775
59.34000 4.804
59.36000 3.558
59.38000 -0.215
59.40000 -0.156
59.42000 -0.069
59.44000 0.370
59.46000 3.163
59.48000 3.973
59.50000 2.238
59.52000 2.393
59.54000 2.103
59.56000 5.280
59.58000 3.333
59.60000 0.517
59.62000 1.491
59.64000 2.740
59.66000 5.703
59.68000 2.168
59.70000 -0.947
59.72000 1.543
59.74000 1.157
59.76000 1.566
59.78000 0.717
59.80000 1.271
59.82000 2.388
59.84000 3.765
59.86000 0.579
59.88000 0.559
59.90000 0.658
59.92000 1.275
59.94000 3.601
59.96000 0.791
59.98000 -0.741
60.00000 2.624
60.02000 3.261
60.04000 4.922
60.06000 4.394
60.08000 4.125
60.10000 1.994
60.12000 3.854
60.14000 2.870
60.16000 0.850
60.18000 4.127
60.20000 5.305
60.22000 5.729
60.24000 4.178
60.26000 4.431
60.28000 1.070
60.30000 2.976
60.32000 4.483
60.34000 2.229
60.36000 3.110
60.38000 -1.246
60.40000 -2.212
60.42000 2.790
60.44000 3.872
60.46000 1.442
60.48000 3.100
60.50000 6.783
60.52000 6.993
60.54000 1.504
60.56000 0.339
60.58000 0.804
60.60000 0.323
60.62000 -0.106
60.64000 0.033
60.66000 2.218
60.68000 5.156
60.70000 2.515
60.72000 0.695
60.74000 0.823
60.76000 -1.988
60.78000 -0.608
60.80000 -0.631
60.82000 -1.196
60.84000 1.764
60.86000 2.993
60.88000 4.475
60.90000 0.394
60.92000 -0.584
60.94000 0.458
60.96000 0.604
60.98000 -2.226
61.00000 -1.774
61.02000 5.120
61.04000 6.718
61.06000 4.984
61.08000 2.262
61.10000 1.996
61.12000 0.706
61.14000 0.126
61.16000 1.927
61.18000 2.461
61.20000 2.068
61.22000 0.984
61.24000 2.186
61.26000 2.003
61.28000 1.090
61.30000 -0.832
61.32000 0.446
61.34000 2.289
61.36000 5.403
61.38000 2.911
61.40000 2.684
61.42000 7.278
61.44000 4.912
61.46000 3.648
61.48000 3.378
61.50000 2.394
61.52000 0.756
61.54000 0.731
61.56000 -2.219
61.58000 0.015
61.60000 2.206
61.62000 0.232
61.64000 2.929
61.66000 0.694
61.68000 -1.601
61.70000 -1.897
61.72000 0.749
61.74000 0.452
61.76000 0.320
61.78000 0.680
61.80000 1.251
61.82000 -0.279
61.84000 2.016
61.86000 0.915
61.88000 -0.141
61.90000 -1.937
61.92000 -0.920
61.94000 1.083
61.96000 1.868
61.98000 -1.180
62.00000 0.090
62.02000 0.151
62.04000 -0.364
62.06000 0.100
62.08000 -1.616
62.10000 2.857
62.12000 4.568
62.14000 -0.023
62.16000 1.550
62.18000 0.637
62.20000 -1.490
62.22000 -2.192
62.24000 -0.784
62.26000 -0.728
62.28000 -1.333
62.30000 0.761
62.32000 -0.872
62.34000 -0.951
62.36000 2.243
62.38000 3.065
62.40000 4.080
62.42000 3.439
62.44000 1.039
62.46000 -1.108
62.48000 -0.023
62.50000 -0.519
62.52000 0.114
62.54000 1.387
62.56000 1.504
62.58000 1.253
62.60000 4.293
62.62000 2.207
62.64000 -1.961
62.66000 -0.913
62.68000 1.762
62.70000 0.894
62.72000 1.181
62.74000 2.488
62.76000 3.411
62.78000 2.173
62.80000 1.201
62.82000 0.232
62.84000 4.377
62.86000 3.069
62.88000 0.358
62.90000 0.276
62.92000 0.429
62.94000 0.420
62.96000 0.844
62.98000 -1.181
63.00000 0.037
63.02000 -1.002
63.04000 0.770
63.06000 4.330
63.08000 0.197
63.10000 2.057
63.12000 2.343
63.14000 3.571
63.16000 1.089
63.18000 0.634
63.20000 -0.446
63.22000 2.021
63.24000 0.068
63.26000 0.378
63.28000 2.472
63.30000 1.558
63.32000 1.162
63.34000 3.067
63.36000 0.235
63.38000 -2.160
63.40000 2.766
63.42000 3.390
63.44000 2.813
63.46000 2.794
63.48000 -1.130
63.50000 0.440
63.52000 2.491
63.54000 1.952
63.56000 2.328
63.58000 1.083
63.60000 0.581
63.62000 3.399
63.64000 3.970
63.66000 2.255
63.68000 0.009
63.70000 0.023
63.72000 -1.370
63.74000 0.486
63.76000 -0.176
63.78000 4.121
63.80000 7.866
63.82000 4.724
63.84000 3.751
63.86000 0.540
63.88000 -0.917
63.90000 1.170
63.92000 0.943
63.94000 1.233
63.96000 0.960
63.98000 2.964
64.00000 1.103
64.02000 -1.520
64.04000 0.754
64.06000 1.283
64.08000 -1.085
64.10000 -0.903
64.12000 -1.939
64.14000 -1.083
64.16000 -1.767
64.18000 -0.601
64.20000 3.419
64.22000 5.463
64.24000 3.713
64.26000 -0.132
64.28000 -0.081
64.30000 2.273
64.32000 4.355
64.34000 1.769
64.36000 1.225
64.38000 -1.137
64.40000 -1.882
64.42000 -0.310
64.44000 0.891
64.46000 1.938
64.48000 2.872
64.50000 -0.075
64.52000 2.076
64.54000 2.743
64.56000 3.882
64.58000 0.072
64.60000 -0.377
64.62000 0.739
64.64000 2.700
64.66000 3.953
64.68000 5.104
64.70000 4.089
64.72000 1.356
64.74000 2.057
64.76000 0.782
64.78000 0.604
64.80000 -2.163
64.82000 -0.358
64.84000 2.470
64.86000 3.593
64.88000 0.393
64.90000 2.273
64.92000 2.680
64.94000 2.071
64.96000 0.800
64.98000 0.556
65.00000 -0.019
65.02000 2.001
65.04000 1.585
65.06000 1.996
65.08000 4.301
65.10000 1.528
65.12000 3.970
65.14000 2.235
65.16000 1.707
65.18000 3.504
65.20000 3.198
65.22000 2.886
65.24000 3.091
65.26000 1.556
65.28000 -0.176
65.30000 -0.228
65.32000 -0.469
65.34000 1.261
65.36000 1.569
65.38000 2.022
65.40000 -1.098
65.42000 -0.788
65.44000 3.832
65.46000 1.921
65.48000 1.469
65.50000 -2.177
65.52000 -0.946
65.54000 -0.407
65.56000 -0.545
65.58000 0.027
65.60000 0.805
65.62000 1.785
65.64000 3.294
65.66000 1.518
65.68000 0.127
65.70000 -0.630
65.72000 1.312
65.74000 0.416
65.76000 -0.763
65.78000 1.121
65.80000 1.740
65.82000 0.894
65.84000 0.873
65.86000 2.720
65.88000 2.262
65.90000 3.874
65.92000 4.156
65.94000 3.927
65.96000 2.391
65.98000 0.816
66.00000 -0.235
66.02000 1.734
66.04000 2.517
66.06000 0.666
66.08000 -0.036
66.10000 -0.758
66.12000 -0.250
66.14000 1.608
66.16000 2.976
66.18000 5.285
66.20000 1.142
66.22000 -1.087
66.24000 3.371
66.26000 6.068
66.28000 4.039
66.30000 1.918
66.32000 2.355
66.34000 1.740
66.36000 2.547
66.38000 2.846
66.40000 0.086
66.42000 2.506
66.44000 3.769
66.46000 5.085
66.48000 3.469
66.50000 4.066
66.52000 7.973
66.54000 5.432
66.56000 2.090
66.58000 2.876
66.60000 2.036
66.62000 3.150
66.64000 4.577
66.66000 4.700
66.68000 4.576
66.70000 7.140
66.72000 7.880
66.74000 6.613
66.76000 6.327
66.78000 3.539
66.80000 6.098
66.82000 7.540
66.84000 7.068
66.86000 9.001
66.88000 8.022
66.90000 9.851
66.92000 16.069
66.94000 12.291
66.96000 10.677
66.98000 9.646
67.00000 7.667
67.02000 9.965
67.04000 9.382
67.06000 9.655
67.08000 9.108
67.10000 10.001
67.12000 8.591
67.14000 7.247
67.16000 9.366
67.18000 9.539
67.20000 7.875
67.22000 8.591
67.24000 6.900
67.26000 6.457
67.28000 6.740
67.30000 7.169
67.32000 8.777
67.34000 8.273
67.36000 8.149
67.38000 8.025
67.40000 7.368
67.42000 6.697
67.44000 4.843
67.46000 4.227
67.48000 6.412
67.50000 4.587
67.52000 3.745
67.54000 1.358
67.56000 1.383
67.58000 2.578
67.60000 0.587
67.62000 1.105
67.64000 2.759
67.66000 2.101
67.68000 2.602
67.70000 -0.166
67.72000 -1.943
67.74000 2.519
67.76000 3.487
67.78000 2.280
67.80000 0.763
67.82000 0.921
67.84000 1.802
67.86000 0.378
67.88000 -1.382
67.90000 -1.371
67.92000 0.943
67.94000 0.851
67.96000 -0.083
67.98000 -1.974
68.00000 -1.400
68.02000 1.779
68.04000 1.405
68.06000 -0.735
68.08000 -1.265
68.10000 0.903
68.12000 0.870
68.14000 2.114
68.16000 0.502
68.18000 -0.805
68.20000 0.684
68.22000 0.686
68.24000 0.174
68.26000 1.109
68.28000 0.106
68.30000 -0.556
68.32000 0.325
68.34000 1.535
68.36000 1.608
68.38000 -0.627
68.40000 -1.653
68.42000 -2.085
68.44000 -0.622
68.46000 0.197
68.48000 0.920
68.50000 -0.018
68.52000 -0.739
68.54000 0.669
68.56000 0.936
68.58000 0.724
68.60000 -1.367
68.62000 -1.108
68.64000 -1.916
68.66000 -0.635
68.68000 0.085
68.70000 -1.513
68.72000 -0.542
68.74000 0.075
68.76000 1.290
68.78000 -1.838
68.80000 -1.263
68.82000 -0.063
68.84000 -0.358
68.86000 -0.572
68.88000 0.742
68.90000 2.707
68.92000 0.700
68.94000 1.380
68.96000 0.109
68.98000 0.986
69.00000 -0.900
69.02000 -1.254
69.04000 -1.420
69.06000 0.380
69.08000 -2.047
69.10000 -0.038
69.12000 1.071
69.14000 0.602
69.16000 0.741
69.18000 -1.612
69.20000 -0.290
69.22000 0.740
69.24000 3.250
69.26000 1.812
69.28000 0.144
69.30000 -1.410
69.32000 0.551
69.34000 1.378
69.36000 3.906
69.38000 2.363
69.40000 -0.065
69.42000 -0.527
69.44000 -1.245
69.46000 -0.125
69.48000 1.245
69.50000 1.616
69.52000 -0.680
69.54000 -0.051
69.56000 1.347
69.58000 2.355
69.60000 1.019
69.62000 -1.995
69.64000 1.969
69.66000 2.004
69.68000 -0.026
69.70000 0.695
69.72000 0.136
69.74000 -1.866
69.76000 1.186
69.78000 -1.145
69.80000 1.465
69.82000 0.803
69.84000 1.688
69.86000 0.218
69.88000 1.136
69.90000 0.215
69.92000 -0.155
69.94000 -1.093
69.96000 1.041
69.98000 1.773
70.00000 2.037
70.02000 2.562
70.04000 3.486
70.06000 0.515
70.08000 1.955
70.10000 1.824
70.12000 0.834
70.14000 -1.988
70.16000 0.171
70.18000 -0.415
70.20000 1.894
70.22000 3.198
70.24000 1.331
70.26000 0.381
70.28000 1.215
70.30000 0.521
70.32000 -0.787
70.34000 2.490
70.36000 2.949
70.38000 1.683
70.40000 -1.155
70.42000 -0.388
70.44000 1.031
70.46000 0.566
70.48000 1.164
70.50000 2.772
70.52000 1.704
70.54000 2.087
70.56000 1.027
70.58000 -0.579
70.60000 1.165
70.62000 0.872
70.64000 1.360
70.66000 -1.571
70.68000 0.144
70.70000 1.370
70.72000 2.488
70.74000 3.976
70.76000 0.792
70.78000 0.693
70.80000 -0.666
70.82000 1.972
70.84000 4.204
70.86000 2.421
70.88000 -1.185
70.90000 -0.586
70.92000 -1.219
70.94000 -1.954
70.96000 -0.726
70.98000 -1.270
71.00000 0.273
71.02000 1.606
71.04000 0.432
71.06000 -1.601
71.08000 -0.758
71.10000 1.260
71.12000 3.912
71.14000 2.373
71.16000 0.297
71.18000 0.972
71.20000 1.385
71.22000 0.969
71.24000 0.350
71.26000 -1.612
71.28000 -1.548
71.30000 -0.317
71.32000 3.247
71.34000 5.790
71.36000 2.416
71.38000 1.600
71.40000 0.422
71.42000 0.961
71.44000 -0.675
71.46000 -1.599
71.48000 2.326
71.50000 1.384
71.52000 5.065
71.54000 6.087
71.56000 2.083
71.58000 -0.576
71.60000 0.862
71.62000 2.476
71.64000 0.389
71.66000 0.258
71.68000 0.256
71.70000 1.508
71.72000 0.958
71.74000 2.184
71.76000 0.686
71.78000 -0.889
71.80000 -0.152
71.82000 -1.147
71.84000 1.520
71.86000 1.975
71.88000 0.629
71.90000 0.276
71.92000 -1.622
71.94000 0.246
71.96000 -1.104
71.98000 -1.928
72.00000 1.572
72.02000 0.720
72.04000 0.690
72.06000 0.767
72.08000 0.602
72.10000 2.415
72.12000 -0.090
72.14000 0.696
72.16000 0.262
72.18000 -1.208
72.20000 2.359
72.22000 1.298
72.24000 3.438
72.26000 1.942
72.28000 1.255
72.30000 -0.133
72.32000 -1.906
72.34000 0.040
72.36000 1.074
72.38000 1.158
72.40000 1.631
72.42000 3.533
72.44000 -1.092
72.46000 1.414
72.48000 2.038
72.50000 1.603
72.52000 0.066
72.54000 -1.031
72.56000 -0.012
72.58000 0.416
72.60000 -0.326
72.62000 3.581
72.64000 2.644
72.66000 1.115
72.68000 1.076
72.70000 0.967
72.72000 4.844
72.74000 3.288
72.76000 2.160
72.78000 2.247
72.80000 1.072
72.82000 1.705
72.84000 2.791
72.86000 3.153
72.88000 3.309
72.90000 1.088
72.92000 2.138
72.94000 1.312
72.96000 3.159
72.98000 1.320
73.00000 2.438
73.02000 2.272
73.04000 3.043
73.06000 2.156
73.08000 2.631
73.10000 2.042
73.12000 0.943
73.14000 -1.859
73.16000 -0.246
73.18000 1.330
73.20000 2.672
73.22000 3.924
73.24000 5.658
73.26000 2.977
73.28000 2.769
73.30000 2.036
73.32000 4.357
73.34000 4.207
73.36000 3.002
73.38000 2.018
73.40000 0.236
73.42000 2.812
73.44000 0.430
73.46000 0.910
73.48000 2.641
73.50000 0.791
73.52000 -0.051
73.54000 2.031
73.56000 3.461
73.58000 3.006
73.60000 1.210
73.62000 3.426
73.64000 1.509
73.66000 -0.311
73.68000 1.330
73.70000 3.375
73.72000 3.548
73.74000 4.373
73.76000 3.883
73.78000 3.645
73.80000 1.623
73.82000 1.584
73.84000 2.517
73.86000 1.943
73.88000 0.927
73.90000 2.277
73.92000 1.533
73.94000 1.852
73.96000 2.578
73.98000 2.403
74.00000 1.674
74.02000 -1.878
74.04000 -1.100
74.06000 -1.627
74.08000 0.859
74.10000 0.541
74.12000 1.006
74.14000 0.753
74.16000 0.768
74.18000 -1.612
74.20000 -1.210
74.22000 0.178
74.24000 2.443
74.26000 3.591
74.28000 4.775
74.30000 0.265
74.32000 -1.889
74.34000 1.127
74.36000 0.989
74.38000 1.755
74.40000 0.460
74.42000 1.286
74.44000 2.350
74.46000 2.869
74.48000 2.577
74.50000 3.191
74.52000 0.639
74.54000 -0.474
74.56000 -1.103
74.58000 0.648
74.60000 2.056
74.62000 2.121
74.64000 2.074
74.66000 1.872
74.68000 2.179
74.70000 -0.873
74.72000 2.486
74.74000 0.997
74.76000 -0.195
74.78000 0.112
74.80000 0.312
74.82000 2.407
74.84000 2.036
74.86000 0.957
74.88000 2.005
74.90000 0.782
74.92000 1.099
74.94000 1.656
74.96000 0.608
74.98000 1.125
75.00000 0.611
75.02000 -1.884
75.04000 -0.955
75.06000 0.099
75.08000 3.756
75.10000 2.260
75.12000 2.365
75.14000 1.496
75.16000 1.247
75.18000 0.883
75.20000 -0.514
75.22000 2.964
75.24000 3.600
75.26000 -0.564
75.28000 -0.357
75.30000 1.297
75.32000 3.504
75.34000 5.295
75.36000 1.473
75.38000 1.416
75.40000 1.031
75.42000 -0.609
75.44000 -0.535
75.46000 -0.176
75.48000 0.033
75.50000 0.660
75.52000 -0.005
75.54000 -0.612
75.56000 0.477
75.58000 3.097
75.60000 0.232
75.62000 0.822
75.64000 0.981
75.66000 0.906
75.68000 1.431
75.70000 3.822
75.72000 4.308
75.74000 4.202
75.76000 3.116
75.78000 1.131
75.80000 -0.161
75.82000 3.586
75.84000 5.003
75.86000 2.518
75.88000 1.614
75.90000 4.108
75.92000 2.497
75.94000 1.257
75.96000 -1.718
75.98000 -1.119
76.00000 -1.875
76.02000 0.230
76.04000 3.212
76.06000 3.429
76.08000 3.516
76.10000 0.502
76.12000 -0.044
76.14000 3.838
76.16000 4.676
76.18000 4.321
76.20000 0.642
76.22000 2.988
76.24000 2.754
76.26000 4.305
76.28000 1.591
76.30000 2.598
76.32000 2.503
76.34000 0.796
76.36000 1.658
76.38000 2.743
76.40000 3.222
76.42000 2.485
76.44000 -0.017
76.46000 1.882
76.48000 2.089
76.50000 -0.204
76.52000 -1.171
76.54000 1.616
76.56000 1.017
76.58000 0.533
76.60000 0.914
76.62000 -0.320
76.64000 0.369
76.66000 2.763
76.68000 2.004
76.70000 1.802
76.72000 1.343
76.74000 0.368
76.76000 4.660
76.78000 5.438
76.80000 1.524
76.82000 3.276
76.84000 5.815
76.86000 2.179
76.88000 2.419
76.90000 0.504
76.92000 -0.167
76.94000 0.657
76.96000 1.019
76.98000 -1.597
77.00000 0.602
77.02000 -0.303
77.04000 1.282
77.06000 4.245
77.08000 1.710
77.10000 1.083
77.12000 2.117
77.14000 2.180
77.16000 4.579
77.18000 4.911
77.20000 3.897
77.22000 1.386
77.24000 1.461
77.26000 1.963
77.28000 -0.198
77.30000 -1.917
77.32000 -0.791
77.34000 0.030
77.36000 1.630
77.38000 1.548
77.40000 3.344
77.42000 1.122
77.44000 -0.107
77.46000 1.187
77.48000 3.195
77.50000 0.450
77.52000 -1.922
77.54000 0.758
77.56000 1.948
77.58000 3.694
77.60000 2.894
77.62000 4.463
77.64000 3.228
77.66000 5.116
77.68000 3.308
77.70000 3.938
77.72000 1.283
77.74000 2.143
77.76000 -1.658
77.78000 -0.092
77.80000 0.574
77.82000 1.004
77.84000 2.580
77.86000 2.705
77.88000 2.461
77.90000 -0.632
77.92000 0.752
77.94000 1.435
77.96000 0.864
77.98000 0.737
78.00000 1.982
78.02000 2.134
78.04000 1.451
78.06000 2.033
78.08000 1.659
78.10000 -0.480
78.12000 -1.163
78.14000 -1.199
78.16000 0.127
78.18000 -0.250
78.20000 0.918
78.22000 2.206
78.24000 4.693
78.26000 0.786
78.28000 0.811
78.30000 0.146
78.32000 -0.728
78.34000 -0.649
78.36000 0.290
78.38000 1.535
78.40000 1.788
78.42000 0.105
78.44000 0.610
78.46000 0.926
78.48000 -0.559
78.50000 -1.974
78.52000 -0.380
78.54000 3.395
78.56000 1.789
78.58000 2.237
78.60000 0.930
78.62000 1.676
78.64000 1.685
78.66000 0.084
78.68000 0.812
78.70000 3.017
78.72000 -0.169
78.74000 0.329
78.76000 -0.054
78.78000 -1.279
78.80000 -1.697
78.82000 0.260
78.84000 1.217
78.86000 1.787
78.88000 1.049
78.90000 -0.211
78.92000 -0.494
78.94000 2.108
78.96000 1.246
78.98000 -2.022
79.00000 3.433
79.02000 1.606
79.04000 1.434
79.06000 -0.747
79.08000 -0.647
79.10000 -0.219
79.12000 -0.207
79.14000 -1.068
79.16000 -2.008
79.18000 -0.379
79.20000 -1.465
79.22000 -0.874
79.24000 2.307
79.26000 4.313
79.28000 4.054
79.30000 0.662
79.32000 0.914
79.34000 4.195
79.36000 4.284
79.38000 3.903
79.40000 3.086
79.42000 3.106
79.44000 -0.021
79.46000 0.425
79.48000 3.590
79.50000 -2.082
79.52000 0.647
79.54000 3.082
79.56000 1.787
79.58000 2.276
79.60000 3.504
79.62000 1.341
79.64000 1.425
79.66000 2.351
79.68000 4.145
79.70000 3.514
79.72000 1.448
79.74000 4.079
79.76000 4.892
79.78000 2.085
79.80000 1.787
79.82000 0.184
79.84000 0.102
79.86000 3.927
79.88000 2.222
79.90000 3.699
79.92000 5.407
79.94000 1.109
79.96000 3.284
79.98000 7.346
80.00000 6.595
80.02000 4.400
80.04000 4.368
80.06000 4.149
80.08000 9.680
80.10000 9.548
80.12000 9.862
80.14000 7.400
80.16000 8.873
80.18000 10.772
80.20000 9.103
80.22000 7.962
80.24000 8.432
80.26000 9.397
80.28000 9.986
80.30000 12.198
80.32000 10.369
80.34000 10.114
80.36000 14.377
80.38000 13.946
80.40000 12.715
80.42000 12.907
80.44000 12.838
80.46000 9.989
80.48000 8.038
80.50000 10.113
80.52000 11.438
80.54000 9.298
80.56000 11.730
80.58000 13.000
80.60000 18.218
80.62000 17.358
80.64000 13.316
80.66000 12.087
80.68000 12.342
80.70000 13.957
80.72000 17.354
80.74000 21.893
80.76000 21.620
80.78000 19.758
80.80000 18.132
80.82000 20.309
80.84000 18.838
80.86000 20.638
80.88000 19.213
80.90000 20.395
80.92000 22.585
80.94000 23.872
80.96000 21.459
80.98000 19.115
81.00000 17.456
81.02000 20.486
81.04000 20.047
81.06000 19.025
81.08000 20.645
81.10000 18.924
81.12000 19.281
81.14000 20.390
81.16000 19.260
81.18000 16.003
81.20000 16.890
81.22000 15.256
81.24000 15.715
81.26000 16.805
81.28000 14.986
81.30000 12.574
81.32000 12.590
81.34000 12.989
81.36000 15.441
81.38000 16.542
81.40000 11.880
81.42000 13.045
81.44000 11.806
81.46000 9.707
81.48000 12.264
81.50000 13.078
81.52000 8.238
81.54000 9.583
81.56000 7.972
81.58000 8.638
81.60000 6.937
81.62000 5.538
81.64000 9.612
81.66000 12.226
81.68000 9.848
81.70000 7.989
81.72000 5.387
81.74000 3.431
81.76000 4.578
81.78000 6.584
81.80000 3.914
81.82000 3.849
81.84000 1.496
81.86000 2.083
81.88000 3.750
81.90000 2.710
81.92000 3.517
81.94000 2.234
81.96000 2.590
81.98000 5.891
82.00000 4.896
82.02000 4.167
82.04000 3.296
82.06000 2.449
82.08000 2.955
82.10000 5.788
82.12000 3.729
82.14000 3.739
82.16000 5.460
82.18000 1.767
82.20000 -0.467
82.22000 -0.255
82.24000 3.099
82.26000 3.866
82.28000 2.752
82.30000 3.121
82.32000 3.049
82.34000 1.983
82.36000 3.125
82.38000 1.240
82.40000 2.553
82.42000 0.007
82.44000 -1.305
82.46000 -2.086
82.48000 -1.215
82.50000 1.049
82.52000 1.421
82.54000 0.217
82.56000 1.557
82.58000 4.321
82.60000 3.531
82.62000 -1.018
82.64000 0.198
82.66000 1.538
82.68000 1.906
82.70000 -0.290
82.72000 -1.403
82.74000 -2.073
82.76000 0.930
82.78000 -0.094
82.80000 1.746
82.82000 0.940
82.84000 3.076
82.86000 0.781
82.88000 2.150
82.90000 0.871
82.92000 -1.131
82.94000 1.510
82.96000 0.804
82.98000 0.086
83.00000 3.155
83.02000 4.449
83.04000 0.399
83.06000 -0.001
83.08000 0.307
83.10000 0.693
83.12000 4.814
83.14000 3.454
83.16000 4.356
83.18000 1.592
83.20000 2.753
83.22000 0.993
83.24000 -0.570
83.26000 -1.602
83.28000 -1.077
83.30000 -1.045
83.32000 -2.073
83.34000 1.450
83.36000 3.807
83.38000 3.609
83.40000 5.820
83.42000 4.256
83.44000 2.314
83.46000 1.977
83.48000 -0.743
83.50000 -0.488
83.52000 -0.213
83.54000 0.644
83.56000 1.158
83.58000 2.130
83.60000 2.653
83.62000 1.184
83.64000 1.322
83.66000 4.364
83.68000 5.374
83.70000 4.036
83.72000 3.821
83.74000 4.355
83.76000 4.226
83.78000 5.518
83.80000 3.976
83.82000 4.438
83.84000 5.860
83.86000 5.570
83.88000 4.018
83.90000 4.212
83.92000 8.405
83.94000 10.563
83.96000 8.165
83.98000 5.425
84.00000 5.346
84.02000 7.360
84.04000 9.724
84.06000 9.341
84.08000 9.358
84.10000 10.433
84.12000 8.784
84.14000 8.773
84.16000 10.130
84.18000 8.450
84.20000 10.150
84.22000 15.074
84.24000 15.289
84.26000 10.807
84.28000 9.105
84.30000 11.406
84.32000 11.554
84.34000 10.311
84.36000 15.230
84.38000 13.359
84.40000 16.586
84.42000 17.165
84.44000 17.575
84.46000 15.736
84.48000 14.652
84.50000 14.452
84.52000 15.839
84.54000 16.098
84.56000 15.707
84.58000 14.814
84.60000 14.832
84.62000 13.409
84.64000 16.203
84.66000 20.580
84.68000 21.214
84.70000 22.572
84.72000 20.301
84.74000 20.905
84.76000 21.338
84.78000 19.337
84.80000 17.493
84.82000 17.278
84.84000 20.253
84.86000 21.385
84.88000 19.381
84.90000 16.646
84.92000 17.937
84.94000 18.853
84.96000 18.716
84.98000 17.180
85.00000 14.694
85.02000 14.704
85.04000 14.032
85.06000 15.269
85.08000 16.777
85.10000 16.969
85.12000 13.433
85.14000 13.770
85.16000 14.557
85.18000 12.573
85.20000 14.017
85.22000 14.258
85.24000 13.841
85.26000 10.171
85.28000 11.474
85.30000 10.337
85.32000 8.434
85.34000 6.803
85.36000 6.122
85.38000 7.930
85.40000 9.214
85.42000 8.462
85.44000 5.439
85.46000 7.781
85.48000 5.136
85.50000 5.907
85.52000 4.925
85.54000 5.665
85.56000 5.964
85.58000 7.856
85.60000 8.485
85.62000 5.405
85.64000 2.891
85.66000 4.373
85.68000 2.591
85.70000 1.572
85.72000 1.113
85.74000 -1.959
85.76000 2.045
85.78000 2.148
85.80000 3.359
85.82000 1.875
85.84000 0.835
85.86000 0.082
85.88000 0.403
85.90000 -0.325
85.92000 -0.528
85.94000 1.692
85.96000 2.764
85.98000 1.232
86.00000 -0.160
86.02000 -0.267
86.04000 0.572
86.06000 2.489
86.08000 1.276
86.10000 -0.061
86.12000 0.343
86.14000 -0.223
86.16000 -1.891
86.18000 -1.202
86.20000 0.986
86.22000 3.266
86.24000 1.998
86.26000 0.294
86.28000 -1.688
86.30000 -1.455
86.32000 0.368
86.34000 -0.495
86.36000 3.339
86.38000 1.673
86.40000 4.583
86.42000 1.880
86.44000 4.025
86.46000 1.600
86.48000 -0.577
86.50000 0.023
86.52000 1.013
86.54000 1.436
86.56000 2.114
86.58000 1.894
86.60000 0.419
86.62000 -1.067
86.64000 -0.294
86.66000 0.338
86.68000 1.530
86.70000 1.805
86.72000 2.487
86.74000 -0.895
86.76000 0.072
86.78000 4.365
86.80000 1.851
86.82000 2.303
86.84000 2.221
86.86000 1.873
86.88000 2.076
86.90000 1.498
86.92000 1.901
86.94000 0.274
86.96000 -1.410
86.98000 -1.768
87.00000 1.147
87.02000 4.055
87.04000 2.977
87.06000 1.830
87.08000 2.447
87.10000 3.060
87.12000 5.242
87.14000 2.110
87.16000 0.472
87.18000 0.999
87.20000 2.754
87.22000 0.210
87.24000 -1.745
87.26000 0.909
87.28000 3.485
87.30000 1.584
87.32000 2.102
87.34000 0.954
87.36000 -1.349
87.38000 -1.148
87.40000 -0.660
87.42000 1.219
87.44000 2.817
87.46000 2.342
87.48000 3.279
87.50000 1.844
87.52000 0.708
87.54000 1.923
87.56000 -0.236
87.58000 0.976
87.60000 3.110
87.62000 2.534
87.64000 3.567
87.66000 2.250
87.68000 0.536
87.70000 1.042
87.72000 1.102
87.74000 1.325
87.76000 -0.113
87.78000 1.738
87.80000 1.118
87.82000 2.134
87.84000 1.034
87.86000 0.786
87.88000 1.838
87.90000 2.545
87.92000 -0.202
87.94000 1.216
87.96000 1.982
87.98000 1.885
88.00000 1.909
88.02000 3.407
88.04000 -0.394
88.06000 -1.404
88.08000 1.265
88.10000 3.446
88.12000 1.709
88.14000 -0.037
88.16000 1.215
88.18000 3.422
88.20000 3.313
88.22000 2.778
88.24000 3.194
88.26000 2.267
88.28000 -0.240
88.30000 -0.333
88.32000 2.332
88.34000 2.108
88.36000 2.587
88.38000 0.985
88.40000 1.571
88.42000 0.416
88.44000 -0.218
88.46000 -1.751
88.48000 0.391
88.50000 3.476
88.52000 3.276
88.54000 2.620
88.56000 4.884
88.58000 2.036
88.60000 -1.309
88.62000 -1.495
88.64000 1.496
88.66000 3.282
88.68000 1.957
88.70000 -1.200
88.72000 1.770
88.74000 1.613
88.76000 0.181
88.78000 0.060
88.80000 -0.834
88.82000 0.035
88.84000 0.403
88.86000 -0.085
88.88000 1.192
88.90000 2.047
88.92000 -0.010
88.94000 -1.760
88.96000 0.656
88.98000 2.041
89.00000 2.194
89.02000 1.320
89.04000 -0.302
89.06000 2.015
89.08000 0.282
89.10000 1.063
89.12000 2.555
89.14000 1.706
89.16000 0.851
89.18000 0.259
89.20000 1.605
89.22000 4.551
89.24000 1.802
89.26000 0.429
89.28000 1.684
89.30000 -1.434
89.32000 -0.051
89.34000 1.568
89.36000 1.882
89.38000 -0.669
89.40000 0.481
89.42000 3.143
89.44000 2.615
89.46000 1.109
89.48000 0.370
89.50000 1.906
89.52000 0.971
89.54000 0.756
89.56000 3.125
89.58000 0.606
89.60000 0.283
89.62000 -0.548
89.64000 0.765
89.66000 4.974
89.68000 6.043
89.70000 0.110
89.72000 -1.756
89.74000 -0.386
89.76000 1.681
89.78000 1.540
89.80000 1.868
89.82000 2.747
89.84000 1.969
89.86000 -0.151
89.88000 0.442
89.90000 1.650
89.92000 2.641
89.94000 1.198
89.96000 0.706
89.98000 -0.696
90.00000 -1.063
90.02000 -0.256
90.04000 0.110
90.06000 1.465
90.08000 1.345
90.10000 3.937
90.12000 1.607
90.14000 -0.004
90.16000 -0.648
90.18000 1.300
90.20000 -1.178
90.22000 0.807
90.24000 -0.101
90.26000 -0.677
90.28000 0.501
90.30000 4.148
90.32000 3.425
90.34000 0.206
90.36000 -1.631
90.38000 -1.393
90.40000 -0.698
90.42000 0.140
90.44000 2.141
90.46000 2.842
90.48000 2.854
90.50000 2.017
90.52000 1.254
90.54000 0.728
90.56000 1.244
90.58000 2.647
90.60000 3.386
90.62000 4.390
90.64000 4.091
90.66000 3.388
90.68000 5.137
90.70000 2.745
90.72000 1.541
90.74000 0.698
90.76000 1.332
90.78000 -0.921
90.80000 0.465
90.82000 -1.010
90.84000 -0.249
90.86000 0.374
90.88000 -1.748
90.90000 0.281
90.92000 2.825
90.94000 2.892
90.96000 4.967
90.98000 6.097
91.00000 4.453
91.02000 2.117
91.04000 -0.936
91.06000 -1.701
91.08000 0.604
91.10000 2.559
91.12000 1.117
91.14000 1.827
91.16000 3.740
91.18000 1.753
91.20000 1.770
91.22000 1.866
91.24000 3.156
91.26000 5.172
91.28000 5.286
91.30000 1.719
91.32000 3.613
91.34000 4.584
91.36000 3.712
91.38000 -0.043
91.40000 -1.077
91.42000 0.922
91.44000 2.892
91.46000 3.257
91.48000 5.342
91.50000 4.422
91.52000 3.847
91.54000 1.481
91.56000 2.852
91.58000 1.055
91.60000 0.224
91.62000 1.603
91.64000 3.931
91.66000 5.466
91.68000 5.026
91.70000 3.051
91.72000 1.380
91.74000 4.204
91.76000 6.336
91.78000 3.540
91.80000 3.100
91.82000 0.208
91.84000 1.592
91.86000 1.880
91.88000 5.081
91.90000 2.075
91.92000 1.869
91.94000 2.220
91.96000 0.703
91.98000 0.283
92.00000 2.008
92.02000 0.129
92.04000 -1.727
92.06000 -0.987
92.08000 0.178
92.10000 -0.501
92.12000 1.487
92.14000 2.608
92.16000 4.223
92.18000 6.993
92.20000 4.323
92.22000 3.083
92.24000 2.470
92.26000 2.392
92.28000 1.344
92.30000 1.690
92.32000 3.252
92.34000 1.176
92.36000 0.500
92.38000 4.255
92.40000 3.553
92.42000 1.560
92.44000 0.879
92.46000 -0.880
92.48000 -0.381
92.50000 1.679
92.52000 4.102
92.54000 6.499
92.56000 6.183
92.58000 4.660
92.60000 4.473
92.62000 4.877
92.64000 3.418
92.66000 3.156
92.68000 0.501
92.70000 -0.806
92.72000 -1.750
92.74000 3.474
92.76000 0.413
92.78000 1.672
92.80000 2.470
92.82000 2.334
92.84000 4.566
92.86000 7.533
92.88000 5.946
92.90000 3.686
92.92000 1.781
92.94000 2.319
92.96000 0.527
92.98000 -0.012
93.00000 -1.750
93.02000 1.261
93.04000 1.859
93.06000 -0.309
93.08000 -0.414
93.10000 -1.629
93.12000 0.738
93.14000 5.006
93.16000 5.091
93.18000 3.270
93.20000 4.055
93.22000 1.064
93.24000 3.961
93.26000 2.179
93.28000 -0.867
93.30000 -0.275
93.32000 3.260
93.34000 3.410
93.36000 -0.476
93.38000 2.498
93.40000 1.951
93.42000 0.274
93.44000 -0.936
93.46000 2.142
93.48000 2.338
93.50000 4.192
93.52000 1.934
93.54000 -0.699
93.56000 1.278
93.58000 -0.241
93.60000 0.456
93.62000 4.736
93.64000 -0.067
93.66000 0.426
93.68000 2.612
93.70000 1.500
93.72000 1.024
93.74000 1.084
93.76000 3.419
93.78000 2.036
93.80000 2.332
93.82000 2.516
93.84000 3.780
93.86000 5.863
93.88000 4.772
93.90000 1.333
93.92000 0.225
93.94000 2.306
93.96000 1.397
93.98000 3.644
94.00000 3.479
94.02000 4.320
94.04000 1.698
94.06000 1.808
94.08000 3.017
94.10000 5.098
94.12000 6.022
94.14000 3.991
94.16000 2.541
94.18000 3.889
94.20000 4.998
94.22000 5.285
94.24000 2.891
94.26000 5.207
94.28000 1.469
94.30000 1.040
94.32000 4.009
94.34000 2.572
94.36000 -0.155
94.38000 -1.739
94.40000 -0.118
94.42000 4.659
94.44000 6.118
94.46000 4.037
94.48000 1.651
94.50000 1.616
94.52000 0.438
94.54000 -0.804
94.56000 1.386
94.58000 3.318
94.60000 3.326
94.62000 3.705
94.64000 4.620
94.66000 4.633
94.68000 5.009
94.70000 6.873
94.72000 5.235
94.74000 0.154
94.76000 2.021
94.78000 3.510
94.80000 0.562
94.82000 3.026
94.84000 5.239
94.86000 6.258
94.88000 7.072
94.90000 2.831
94.92000 -1.734
94.94000 -1.164
94.96000 -0.325
94.98000 -0.112
95.00000 2.292
95.02000 5.840
95.04000 4.175
95.06000 0.736
95.08000 3.625
95.10000 0.082
95.12000 4.208
95.14000 4.023
95.16000 2.633
95.18000 5.130
95.20000 4.201
95.22000 3.169
95.24000 2.577
95.26000 2.808
95.28000 3.547
95.30000 2.273
95.32000 0.086
95.34000 0.494
95.36000 2.731
95.38000 2.306
95.40000 0.241
95.42000 0.532
95.44000 1.438
95.46000 1.622
95.48000 2.025
95.50000 2.411
95.52000 2.003
95.54000 3.148
95.56000 1.322
95.58000 3.119
95.60000 2.593
95.62000 -1.759
95.64000 -1.699
95.66000 2.405
95.68000 6.386
95.70000 4.198
95.72000 2.673
95.74000 0.411
95.76000 2.968
95.78000 3.608
95.80000 1.469
95.82000 -0.321
95.84000 3.483
95.86000 -0.430
95.88000 -1.775
95.90000 1.734
95.92000 4.295
95.94000 2.129
95.96000 3.020
95.98000 2.235
96.00000 0.748
96.02000 1.703
96.04000 2.237
96.06000 1.944
96.08000 3.205
96.10000 5.366
96.12000 4.799
96.14000 1.723
96.16000 0.844
96.18000 1.488
96.20000 1.825
96.22000 3.966
96.24000 1.258
96.26000 5.041
96.28000 4.100
96.30000 -0.360
96.32000 1.180
96.34000 1.517
96.36000 2.073
96.38000 0.458
96.40000 1.852
96.42000 1.732
96.44000 3.298
96.46000 3.300
96.48000 5.403
96.50000 1.870
96.52000 0.781
96.54000 2.710
96.56000 0.231
96.58000 0.745
96.60000 2.604
96.62000 4.009
96.64000 3.184
96.66000 4.631
96.68000 2.718
96.70000 3.546
96.72000 2.268
96.74000 -1.788
96.76000 -1.140
96.78000 1.056
96.80000 1.126
96.82000 1.906
96.84000 1.506
96.86000 -1.001
96.88000 4.608
96.90000 7.262
96.92000 -0.416
96.94000 0.229
96.96000 5.198
96.98000 0.918
97.00000 -0.064
97.02000 1.589
97.04000 1.815
97.06000 1.740
97.08000 0.828
97.10000 -0.114
97.12000 1.620
97.14000 1.568
97.16000 4.019
97.18000 3.943
97.20000 2.436
97.22000 -0.316
97.24000 3.209
97.26000 0.478
97.28000 -1.684
97.30000 -0.280
97.32000 2.130
97.34000 4.492
97.36000 4.491
97.38000 2.228
97.40000 1.275
97.42000 2.068
97.44000 -0.898
97.46000 0.202
97.48000 0.470
97.50000 3.857
97.52000 7.065
97.54000 5.806
97.56000 6.909
97.58000 4.524
97.60000 3.870
97.62000 7.961
97.64000 6.253
97.66000 4.723
97.68000 2.420
97.70000 4.102
97.72000 2.180
97.74000 2.815
97.76000 4.905
97.78000 -0.479
97.80000 -1.731
97.82000 -0.858
97.84000 -1.253
97.86000 1.963
97.88000 5.345
97.90000 4.045
97.92000 2.466
97.94000 1.919
97.96000 -0.786
97.98000 -0.493
98.00000 4.327
98.02000 2.662
98.04000 0.183
98.06000 0.679
98.08000 4.985
98.10000 3.269
98.12000 0.486
98.14000 -0.169
98.16000 -1.262
98.18000 1.402
98.20000 4.064
98.22000 5.879
98.24000 1.575
98.26000 -1.717
98.28000 1.291
98.30000 2.482
98.32000 3.046
98.34000 2.627
98.36000 5.508
98.38000 4.835
98.40000 4.216
98.42000 3.470
98.44000 3.072
98.46000 4.077
98.48000 -0.230
98.50000 5.276
98.52000 6.030
98.54000 3.961
98.56000 2.750
98.58000 -1.710
98.60000 4.264
98.62000 8.740
98.64000 7.363
98.66000 1.414
98.68000 0.936
98.70000 2.707
98.72000 4.438
98.74000 5.485
98.76000 7.601
98.78000 9.239
98.80000 9.319
98.82000 4.569
98.84000 5.292
98.86000 4.228
98.88000 -0.929
98.90000 -1.086
98.92000 -1.724
98.94000 3.180
98.96000 8.481
98.98000 7.636
99.00000 4.786
99.02000 3.917
99.04000 4.572
99.06000 4.380
99.08000 2.729
99.10000 2.192
99.12000 3.363
99.14000 7.687
99.16000 5.986
99.18000 1.861
99.20000 2.752
99.22000 5.290
99.24000 0.539
99.26000 4.370
99.28000 5.836
99.30000 6.267
99.32000 2.023
99.34000 6.388
99.36000 -1.297
99.38000 2.449
99.40000 3.203
99.42000 7.148
99.44000 4.262
99.46000 6.286
99.48000 5.065
99.50000 8.060
99.52000 11.160
99.54000 1.515
99.56000 -1.754
99.58000 -1.560
99.60000 5.488
99.62000 4.131
99.64000 1.312
99.66000 9.557
99.68000 4.720
99.70000 4.934
99.72000 4.043
99.74000 0.544
99.76000 0.932
99.78000 2.683
99.80000 11.532
99.82000 6.393
99.84000 10.386
99.86000 6.927
99.88000 0.269
99.90000 2.296
99.92000 2.645
99.94000 7.282
99.96000 -2.966
99.98000 0.000
