'Id: "0011389" Comment: "Integrate frame 0011389_Au-Ir-Rh_Au-Rich_XRD_Mapping-162-0000.gfrmwith cursor Wedge Cursor #5" Operator: "B?rgel" Anode: "Cu" Wavelength: "1.5406" Scantype: "2Theta (TwoTheta)" TimePerStep: "1" X: "-22.5" Y: "0" Z: "5.95" 
10.00000 0.000
10.02000 4.137
10.04000 10.280
10.06000 6.742
10.08000 -4.347
10.10000 6.663
10.12000 18.277
10.14000 29.626
10.16000 13.253
10.18000 4.738
10.20000 19.389
10.22000 6.876
10.24000 1.772
10.26000 19.626
10.28000 24.898
10.30000 24.711
10.32000 35.141
10.34000 11.414
10.36000 3.419
10.38000 4.028
10.40000 14.139
10.42000 27.394
10.44000 15.218
10.46000 17.342
10.48000 12.473
10.50000 10.193
10.52000 12.074
10.54000 21.093
10.56000 15.505
10.58000 13.626
10.60000 21.536
10.62000 39.964
10.64000 33.029
10.66000 12.933
10.68000 11.909
10.70000 15.895
10.72000 10.270
10.74000 20.068
10.76000 38.777
10.78000 35.655
10.80000 25.928
10.82000 14.926
10.84000 -11.431
10.86000 5.992
10.88000 12.641
10.90000 5.608
10.92000 22.232
10.94000 27.559
10.96000 18.423
10.98000 21.896
11.00000 17.392
11.02000 18.203
11.04000 23.348
11.06000 16.605
11.08000 16.882
11.10000 18.198
11.12000 12.646
11.14000 14.911
11.16000 20.250
11.18000 20.589
11.20000 26.751
11.22000 15.088
11.24000 16.694
11.26000 27.887
11.28000 23.411
11.30000 26.708
11.32000 16.788
11.34000 24.287
11.36000 12.759
11.38000 21.115
11.40000 17.826
11.42000 11.080
11.44000 7.922
11.46000 22.447
11.48000 20.584
11.50000 10.541
11.52000 12.101
11.54000 13.757
11.56000 26.661
11.58000 26.982
11.60000 17.326
11.62000 21.796
11.64000 24.228
11.66000 14.669
11.68000 17.559
11.70000 16.208
11.72000 16.977
11.74000 13.106
11.76000 12.263
11.78000 8.955
11.80000 6.128
11.82000 5.894
11.84000 13.821
11.86000 15.061
11.88000 3.827
11.90000 4.309
11.92000 14.177
11.94000 4.379
11.96000 1.159
11.98000 15.411
12.00000 18.580
12.02000 21.538
12.04000 33.233
12.06000 25.018
12.08000 24.336
12.10000 14.885
12.12000 9.012
12.14000 15.634
12.16000 11.673
12.18000 12.169
12.20000 18.912
12.22000 20.629
12.24000 21.379
12.26000 16.596
12.28000 23.516
12.30000 22.113
12.32000 8.172
12.34000 2.802
12.36000 15.319
12.38000 4.718
12.40000 2.533
12.42000 9.917
12.44000 20.160
12.46000 16.004
12.48000 5.770
12.50000 17.365
12.52000 16.672
12.54000 6.627
12.56000 -0.122
12.58000 9.549
12.60000 27.247
12.62000 28.591
12.64000 23.394
12.66000 8.887
12.68000 15.673
12.70000 28.972
12.72000 21.637
12.74000 10.488
12.76000 7.340
12.78000 11.494
12.80000 7.055
12.82000 8.845
12.84000 25.409
12.86000 24.563
12.88000 16.098
12.90000 11.180
12.92000 11.656
12.94000 18.779
12.96000 14.270
12.98000 14.496
13.00000 16.305
13.02000 15.237
13.04000 10.510
13.06000 17.182
13.08000 13.212
13.10000 17.523
13.12000 19.052
13.14000 7.210
13.16000 18.177
13.18000 15.311
13.20000 2.317
13.22000 3.358
13.24000 4.860
13.26000 4.013
13.28000 3.174
13.30000 14.319
13.32000 9.706
13.34000 10.948
13.36000 11.657
13.38000 6.953
13.40000 4.238
13.42000 13.458
13.44000 20.035
13.46000 15.391
13.48000 11.981
13.50000 16.762
13.52000 19.475
13.54000 16.855
13.56000 15.549
13.58000 14.947
13.60000 9.839
13.62000 9.628
13.64000 6.151
13.66000 10.968
13.68000 11.721
13.70000 3.056
13.72000 -0.899
13.74000 -3.068
13.76000 17.325
13.78000 20.639
13.80000 15.141
13.82000 5.328
13.84000 7.254
13.86000 6.349
13.88000 9.626
13.90000 19.493
13.92000 3.039
13.94000 -2.466
13.96000 8.636
13.98000 5.625
14.00000 4.747
14.02000 11.155
14.04000 4.140
14.06000 -4.061
14.08000 11.463
14.10000 12.921
14.12000 10.226
14.14000 8.004
14.16000 13.078
14.18000 10.204
14.20000 2.876
14.22000 2.491
14.24000 6.685
14.26000 -4.480
14.28000 3.580
14.30000 5.357
14.32000 -3.190
14.34000 2.801
14.36000 8.304
14.38000 7.276
14.40000 9.632
14.42000 4.817
14.44000 6.442
14.46000 5.547
14.48000 10.076
14.50000 12.354
14.52000 7.242
14.54000 2.414
14.56000 3.805
14.58000 4.244
14.60000 0.763
14.62000 18.555
14.64000 14.550
14.66000 11.546
14.68000 6.385
14.70000 2.115
14.72000 14.943
14.74000 17.207
14.76000 16.200
14.78000 9.888
14.80000 7.696
14.82000 15.359
14.84000 9.905
14.86000 8.640
14.88000 5.557
14.90000 5.160
14.92000 -4.147
14.94000 3.772
14.96000 3.734
14.98000 3.109
15.00000 15.427
15.02000 7.867
15.04000 11.889
15.06000 11.536
15.08000 9.717
15.10000 6.660
15.12000 10.270
15.14000 10.793
15.16000 3.235
15.18000 3.382
15.20000 10.247
15.22000 13.018
15.24000 6.663
15.26000 -0.928
15.28000 7.104
15.30000 19.079
15.32000 19.349
15.34000 13.636
15.36000 9.976
15.38000 5.509
15.40000 6.635
15.42000 6.755
15.44000 5.342
15.46000 10.347
15.48000 16.957
15.50000 11.138
15.52000 10.363
15.54000 5.595
15.56000 0.725
15.58000 0.827
15.60000 2.658
15.62000 4.155
15.64000 3.279
15.66000 8.031
15.68000 4.475
15.70000 2.318
15.72000 5.015
15.74000 2.954
15.76000 1.822
15.78000 13.619
15.80000 13.252
15.82000 16.224
15.84000 14.374
15.86000 10.933
15.88000 11.498
15.90000 6.570
15.92000 -3.353
15.94000 3.166
15.96000 5.012
15.98000 0.461
16.00000 -4.421
16.02000 -0.543
16.04000 4.104
16.06000 4.035
16.08000 9.683
16.10000 6.586
16.12000 2.647
16.14000 4.146
16.16000 5.586
16.18000 11.082
16.20000 13.624
16.22000 5.020
16.24000 -1.823
16.26000 4.253
16.28000 7.352
16.30000 13.699
16.32000 17.036
16.34000 15.453
16.36000 9.905
16.38000 11.596
16.40000 5.596
16.42000 7.864
16.44000 17.466
16.46000 9.224
16.48000 -1.158
16.50000 9.488
16.52000 11.291
16.54000 0.984
16.56000 1.121
16.58000 2.304
16.60000 9.650
16.62000 12.933
16.64000 13.841
16.66000 8.336
16.68000 5.067
16.70000 3.236
16.72000 14.335
16.74000 9.998
16.76000 10.514
16.78000 9.885
16.80000 6.483
16.82000 13.088
16.84000 13.031
16.86000 7.756
16.88000 15.747
16.90000 18.973
16.92000 13.384
16.94000 6.807
16.96000 8.112
16.98000 7.546
17.00000 2.919
17.02000 3.424
17.04000 5.734
17.06000 2.954
17.08000 7.506
17.10000 10.928
17.12000 7.716
17.14000 8.470
17.16000 14.240
17.18000 10.695
17.20000 7.760
17.22000 6.671
17.24000 11.173
17.26000 9.291
17.28000 9.028
17.30000 13.512
17.32000 6.955
17.34000 8.759
17.36000 12.361
17.38000 13.494
17.40000 11.772
17.42000 5.004
17.44000 8.886
17.46000 7.190
17.48000 7.027
17.50000 9.101
17.52000 8.300
17.54000 11.730
17.56000 7.149
17.58000 5.915
17.60000 2.299
17.62000 11.146
17.64000 13.411
17.66000 12.466
17.68000 3.411
17.70000 -4.327
17.72000 11.878
17.74000 8.236
17.76000 2.615
17.78000 6.770
17.80000 2.614
17.82000 5.613
17.84000 8.335
17.86000 6.689
17.88000 7.973
17.90000 10.933
17.92000 14.172
17.94000 18.787
17.96000 13.307
17.98000 18.439
18.00000 18.816
18.02000 12.971
18.04000 4.676
18.06000 3.867
18.08000 4.504
18.10000 3.447
18.12000 8.549
18.14000 3.003
18.16000 -1.306
18.18000 1.526
18.20000 2.763
18.22000 6.585
18.24000 11.906
18.26000 0.823
18.28000 7.202
18.30000 7.618
18.32000 7.767
18.34000 8.362
18.36000 9.375
18.38000 7.079
18.40000 9.356
18.42000 2.256
18.44000 1.543
18.46000 0.652
18.48000 0.012
18.50000 -2.108
18.52000 -1.484
18.54000 3.188
18.56000 7.227
18.58000 1.170
18.60000 -1.989
18.62000 -1.714
18.64000 2.985
18.66000 8.505
18.68000 6.197
18.70000 6.683
18.72000 -1.984
18.74000 -0.952
18.76000 3.369
18.78000 -1.186
18.80000 3.478
18.82000 7.045
18.84000 9.454
18.86000 10.090
18.88000 8.517
18.90000 8.197
18.92000 9.264
18.94000 3.511
18.96000 12.423
18.98000 16.319
19.00000 14.610
19.02000 4.204
19.04000 4.767
19.06000 4.430
19.08000 6.208
19.10000 6.229
19.12000 7.181
19.14000 7.930
19.16000 1.719
19.18000 5.365
19.20000 10.841
19.22000 7.062
19.24000 3.675
19.26000 4.843
19.28000 9.648
19.30000 12.671
19.32000 7.739
19.34000 6.543
19.36000 3.573
19.38000 4.824
19.40000 10.941
19.42000 3.039
19.44000 2.741
19.46000 7.515
19.48000 9.666
19.50000 18.355
19.52000 12.050
19.54000 5.171
19.56000 7.231
19.58000 8.885
19.60000 4.521
19.62000 9.127
19.64000 11.328
19.66000 8.085
19.68000 -4.205
19.70000 0.583
19.72000 6.636
19.74000 19.992
19.76000 7.973
19.78000 -2.100
19.80000 7.419
19.82000 5.711
19.84000 4.473
19.86000 5.915
19.88000 9.913
19.90000 8.377
19.92000 6.996
19.94000 8.544
19.96000 6.796
19.98000 -0.616
20.00000 3.774
20.02000 8.200
20.04000 2.572
20.06000 4.839
20.08000 6.397
20.10000 9.810
20.12000 9.892
20.14000 3.786
20.16000 2.527
20.18000 2.028
20.20000 2.991
20.22000 10.379
20.24000 7.925
20.26000 3.766
20.28000 3.659
20.30000 9.555
20.32000 10.499
20.34000 4.905
20.36000 9.101
20.38000 0.484
20.40000 4.377
20.42000 1.877
20.44000 13.003
20.46000 19.362
20.48000 12.226
20.50000 -0.066
20.52000 1.814
20.54000 1.729
20.56000 5.634
20.58000 13.936
20.60000 13.645
20.62000 9.546
20.64000 7.984
20.66000 3.646
20.68000 4.645
20.70000 5.836
20.72000 5.444
20.74000 5.159
20.76000 1.461
20.78000 0.739
20.80000 0.300
20.82000 -4.171
20.84000 0.142
20.86000 7.401
20.88000 3.774
20.90000 0.846
20.92000 -1.294
20.94000 3.216
20.96000 4.802
20.98000 0.458
21.00000 5.805
21.02000 11.197
21.04000 7.189
21.06000 1.429
21.08000 -0.690
21.10000 3.249
21.12000 3.489
21.14000 1.662
21.16000 -1.936
21.18000 6.042
21.20000 7.551
21.22000 5.331
21.24000 1.452
21.26000 2.973
21.28000 0.307
21.30000 5.868
21.32000 6.596
21.34000 5.154
21.36000 6.598
21.38000 6.635
21.40000 7.675
21.42000 2.226
21.44000 2.776
21.46000 -1.949
21.48000 -4.148
21.50000 0.002
21.52000 5.716
21.54000 9.180
21.56000 2.189
21.58000 6.623
21.60000 11.146
21.62000 12.945
21.64000 6.627
21.66000 3.204
21.68000 7.708
21.70000 5.002
21.72000 1.326
21.74000 -2.550
21.76000 5.507
21.78000 5.981
21.80000 -1.125
21.82000 -0.397
21.84000 -1.393
21.86000 2.994
21.88000 2.233
21.90000 1.475
21.92000 2.169
21.94000 3.889
21.96000 2.360
21.98000 0.966
22.00000 1.257
22.02000 4.169
22.04000 4.119
22.06000 5.453
22.08000 -0.122
22.10000 -1.636
22.12000 2.007
22.14000 6.962
22.16000 6.337
22.18000 2.872
22.20000 5.029
22.22000 -0.756
22.24000 -0.239
22.26000 2.828
22.28000 3.207
22.30000 0.541
22.32000 -2.254
22.34000 -2.987
22.36000 1.520
22.38000 4.540
22.40000 -2.119
22.42000 4.091
22.44000 6.760
22.46000 6.162
22.48000 8.006
22.50000 4.606
22.52000 6.102
22.54000 1.717
22.56000 1.322
22.58000 -0.699
22.60000 -2.200
22.62000 5.397
22.64000 1.951
22.66000 -1.519
22.68000 -2.248
22.70000 -2.151
22.72000 0.003
22.74000 -1.276
22.76000 -2.545
22.78000 4.650
22.80000 5.905
22.82000 6.942
22.84000 6.000
22.86000 4.041
22.88000 -1.684
22.90000 -3.383
22.92000 2.932
22.94000 6.901
22.96000 8.407
22.98000 4.164
23.00000 0.324
23.02000 0.527
23.04000 -1.333
23.06000 -0.151
23.08000 4.749
23.10000 0.498
23.12000 2.933
23.14000 3.767
23.16000 5.517
23.18000 2.791
23.20000 2.272
23.22000 8.855
23.24000 8.041
23.26000 6.882
23.28000 1.671
23.30000 1.746
23.32000 -2.500
23.34000 0.300
23.36000 3.533
23.38000 3.378
23.40000 6.740
23.42000 7.192
23.44000 3.674
23.46000 0.669
23.48000 7.124
23.50000 2.453
23.52000 7.107
23.54000 4.128
23.56000 1.790
23.58000 4.709
23.60000 9.679
23.62000 13.112
23.64000 6.812
23.66000 7.692
23.68000 9.456
23.70000 9.939
23.72000 5.076
23.74000 -2.059
23.76000 -3.437
23.78000 -4.018
23.80000 -3.123
23.82000 1.364
23.84000 3.982
23.86000 -2.155
23.88000 5.686
23.90000 9.186
23.92000 2.153
23.94000 0.061
23.96000 -0.179
23.98000 6.918
24.00000 7.615
24.02000 10.506
24.04000 10.376
24.06000 1.318
24.08000 -3.243
24.10000 1.758
24.12000 4.144
24.14000 3.531
24.16000 5.382
24.18000 7.481
24.20000 7.751
24.22000 8.495
24.24000 9.614
24.26000 3.611
24.28000 0.600
24.30000 0.748
24.32000 1.766
24.34000 3.975
24.36000 3.203
24.38000 3.358
24.40000 -1.480
24.42000 -0.580
24.44000 0.028
24.46000 1.832
24.48000 1.786
24.50000 -0.291
24.52000 0.956
24.54000 4.855
24.56000 3.254
24.58000 0.866
24.60000 0.777
24.62000 1.846
24.64000 0.036
24.66000 4.257
24.68000 0.817
24.70000 -2.192
24.72000 3.017
24.74000 5.716
24.76000 3.606
24.78000 -3.972
24.80000 -1.998
24.82000 9.722
24.84000 3.873
24.86000 4.830
24.88000 9.025
24.90000 5.505
24.92000 -2.504
24.94000 0.062
24.96000 5.625
24.98000 2.847
25.00000 1.137
25.02000 5.725
25.04000 10.966
25.06000 4.205
25.08000 5.618
25.10000 2.199
25.12000 -3.410
25.14000 -2.868
25.16000 4.166
25.18000 4.088
25.20000 -2.140
25.22000 -1.625
25.24000 3.482
25.26000 8.155
25.28000 4.335
25.30000 6.230
25.32000 4.458
25.34000 4.317
25.36000 10.277
25.38000 8.982
25.40000 3.822
25.42000 2.263
25.44000 2.746
25.46000 6.175
25.48000 3.160
25.50000 -2.434
25.52000 -3.925
25.54000 1.460
25.56000 7.172
25.58000 2.549
25.60000 2.359
25.62000 3.478
25.64000 7.902
25.66000 12.042
25.68000 6.152
25.70000 1.919
25.72000 9.363
25.74000 8.308
25.76000 4.987
25.78000 0.599
25.80000 4.696
25.82000 6.159
25.84000 0.416
25.86000 -3.120
25.88000 -1.074
25.90000 3.566
25.92000 3.177
25.94000 4.930
25.96000 1.329
25.98000 0.413
26.00000 -1.240
26.02000 2.569
26.04000 1.056
26.06000 -2.423
26.08000 -2.087
26.10000 1.509
26.12000 -3.888
26.14000 4.075
26.16000 10.344
26.18000 4.269
26.20000 0.490
26.22000 4.268
26.24000 8.241
26.26000 3.776
26.28000 3.435
26.30000 -1.314
26.32000 0.884
26.34000 5.447
26.36000 3.381
26.38000 6.438
26.40000 9.033
26.42000 10.557
26.44000 3.268
26.46000 2.617
26.48000 4.744
26.50000 -2.337
26.52000 -0.963
26.54000 4.455
26.56000 0.307
26.58000 -1.044
26.60000 0.446
26.62000 -0.688
26.64000 3.825
26.66000 0.748
26.68000 1.608
26.70000 5.283
26.72000 4.174
26.74000 5.014
26.76000 7.508
26.78000 6.786
26.80000 5.499
26.82000 1.750
26.84000 0.029
26.86000 3.206
26.88000 3.295
26.90000 -0.128
26.92000 -0.042
26.94000 1.916
26.96000 3.837
26.98000 2.415
27.00000 -0.072
27.02000 -2.036
27.04000 0.935
27.06000 2.934
27.08000 2.529
27.10000 6.845
27.12000 7.420
27.14000 1.627
27.16000 3.742
27.18000 6.526
27.20000 -0.102
27.22000 0.929
27.24000 5.172
27.26000 2.278
27.28000 0.336
27.30000 2.822
27.32000 1.849
27.34000 -0.043
27.36000 1.369
27.38000 4.974
27.40000 5.361
27.42000 4.615
27.44000 7.159
27.46000 7.249
27.48000 3.694
27.50000 1.290
27.52000 1.421
27.54000 1.108
27.56000 3.857
27.58000 5.035
27.60000 4.645
27.62000 5.555
27.64000 7.487
27.66000 8.196
27.68000 2.114
27.70000 2.685
27.72000 4.060
27.74000 2.738
27.76000 5.713
27.78000 10.317
27.80000 3.316
27.82000 0.303
27.84000 -1.031
27.86000 0.939
27.88000 9.655
27.90000 3.997
27.92000 4.860
27.94000 8.564
27.96000 6.671
27.98000 4.048
28.00000 1.558
28.02000 4.622
28.04000 11.225
28.06000 9.248
28.08000 4.436
28.10000 4.398
28.12000 4.810
28.14000 2.570
28.16000 2.566
28.18000 7.836
28.20000 0.803
28.22000 4.013
28.24000 4.863
28.26000 0.044
28.28000 -1.809
28.30000 3.896
28.32000 4.775
28.34000 5.650
28.36000 -3.588
28.38000 -1.102
28.40000 7.841
28.42000 8.024
28.44000 11.997
28.46000 4.781
28.48000 -0.008
28.50000 -3.749
28.52000 3.325
28.54000 2.953
28.56000 0.558
28.58000 1.403
28.60000 0.845
28.62000 2.692
28.64000 6.245
28.66000 5.725
28.68000 1.253
28.70000 1.167
28.72000 -0.424
28.74000 0.050
28.76000 2.132
28.78000 4.605
28.80000 4.458
28.82000 4.588
28.84000 9.390
28.86000 6.644
28.88000 2.168
28.90000 4.243
28.92000 4.825
28.94000 -0.307
28.96000 1.199
28.98000 7.609
29.00000 6.479
29.02000 6.407
29.04000 4.451
29.06000 5.275
29.08000 7.904
29.10000 1.018
29.12000 -3.717
29.14000 0.024
29.16000 6.021
29.18000 5.775
29.20000 0.684
29.22000 3.344
29.24000 4.786
29.26000 7.111
29.28000 3.456
29.30000 8.721
29.32000 5.715
29.34000 6.073
29.36000 5.489
29.38000 3.029
29.40000 4.176
29.42000 8.292
29.44000 8.890
29.46000 7.360
29.48000 2.159
29.50000 4.208
29.52000 6.083
29.54000 5.183
29.56000 4.894
29.58000 6.821
29.60000 5.200
29.62000 4.425
29.64000 0.516
29.66000 0.299
29.68000 6.411
29.70000 5.560
29.72000 5.257
29.74000 6.088
29.76000 5.151
29.78000 6.861
29.80000 5.156
29.82000 2.872
29.84000 3.292
29.86000 5.483
29.88000 8.842
29.90000 1.633
29.92000 1.590
29.94000 -1.072
29.96000 6.141
29.98000 7.374
30.00000 9.551
30.02000 10.451
30.04000 6.725
30.06000 8.756
30.08000 3.859
30.10000 3.933
30.12000 9.334
30.14000 3.744
30.16000 1.247
30.18000 0.331
30.20000 -3.694
30.22000 1.476
30.24000 0.212
30.26000 -0.972
30.28000 1.787
30.30000 6.194
30.32000 10.223
30.34000 7.228
30.36000 -1.114
30.38000 2.922
30.40000 3.760
30.42000 2.590
30.44000 3.303
30.46000 3.469
30.48000 2.101
30.50000 3.079
30.52000 1.846
30.54000 2.524
30.56000 9.839
30.58000 7.257
30.60000 4.768
30.62000 3.558
30.64000 2.252
30.66000 3.318
30.68000 7.628
30.70000 6.554
30.72000 6.711
30.74000 6.448
30.76000 2.776
30.78000 0.102
30.80000 -3.671
30.82000 1.617
30.84000 3.455
30.86000 3.867
30.88000 -0.325
30.90000 2.959
30.92000 3.779
30.94000 0.179
30.96000 -2.215
30.98000 -2.029
31.00000 3.994
31.02000 3.063
31.04000 -1.408
31.06000 -0.140
31.08000 2.012
31.10000 2.688
31.12000 -3.664
31.14000 -2.920
31.16000 -0.543
31.18000 3.968
31.20000 1.907
31.22000 1.370
31.24000 3.934
31.26000 3.829
31.28000 6.043
31.30000 7.527
31.32000 2.977
31.34000 4.375
31.36000 4.743
31.38000 3.216
31.40000 1.471
31.42000 -1.535
31.44000 0.943
31.46000 2.130
31.48000 1.327
31.50000 0.181
31.52000 0.904
31.54000 2.675
31.56000 1.330
31.58000 3.676
31.60000 3.429
31.62000 4.634
31.64000 3.317
31.66000 3.893
31.68000 -2.569
31.70000 1.386
31.72000 4.031
31.74000 3.415
31.76000 -0.715
31.78000 -0.882
31.80000 4.135
31.82000 3.421
31.84000 2.872
31.86000 0.754
31.88000 3.481
31.90000 3.757
31.92000 3.812
31.94000 6.767
31.96000 8.886
31.98000 8.269
32.00000 -0.951
32.02000 -0.530
32.04000 0.164
32.06000 3.257
32.08000 2.318
32.10000 3.084
32.12000 7.937
32.14000 2.343
32.16000 1.498
32.18000 5.369
32.20000 -0.782
32.22000 -3.098
32.24000 -1.367
32.26000 2.271
32.28000 4.595
32.30000 2.792
32.32000 3.398
32.34000 -3.611
32.36000 1.071
32.38000 1.394
32.40000 2.254
32.42000 1.674
32.44000 2.201
32.46000 4.111
32.48000 2.892
32.50000 3.219
32.52000 3.467
32.54000 3.189
32.56000 7.006
32.58000 6.378
32.60000 4.741
32.62000 3.392
32.64000 5.249
32.66000 1.612
32.68000 -0.318
32.70000 0.822
32.72000 4.054
32.74000 3.418
32.76000 2.618
32.78000 3.825
32.80000 -1.288
32.82000 1.185
32.84000 0.348
32.86000 -3.603
32.88000 -0.031
32.90000 2.699
32.92000 -2.936
32.94000 -1.840
32.96000 -2.138
32.98000 -0.033
33.00000 -0.950
33.02000 2.571
33.04000 2.736
33.06000 -0.413
33.08000 0.985
33.10000 1.738
33.12000 0.576
33.14000 5.818
33.16000 6.797
33.18000 -2.341
33.20000 -0.323
33.22000 2.064
33.24000 1.013
33.26000 8.196
33.28000 0.609
33.30000 1.148
33.32000 4.775
33.34000 8.180
33.36000 4.626
33.38000 2.033
33.40000 4.049
33.42000 5.679
33.44000 5.846
33.46000 5.127
33.48000 1.789
33.50000 5.745
33.52000 2.252
33.54000 1.648
33.56000 0.005
33.58000 2.818
33.60000 2.504
33.62000 9.110
33.64000 5.127
33.66000 3.251
33.68000 8.237
33.70000 4.518
33.72000 3.393
33.74000 3.437
33.76000 2.310
33.78000 0.047
33.80000 1.683
33.82000 2.151
33.84000 0.477
33.86000 0.086
33.88000 -2.189
33.90000 3.096
33.92000 7.346
33.94000 5.535
33.96000 3.438
33.98000 2.304
34.00000 1.295
34.02000 4.350
34.04000 3.592
34.06000 5.375
34.08000 6.248
34.10000 -0.859
34.12000 1.569
34.14000 8.783
34.16000 8.862
34.18000 8.439
34.20000 4.311
34.22000 0.531
34.24000 1.002
34.26000 4.992
34.28000 2.761
34.30000 7.209
34.32000 8.720
34.34000 4.901
34.36000 5.139
34.38000 4.432
34.40000 4.338
34.42000 1.687
34.44000 -1.046
34.46000 1.323
34.48000 -0.941
34.50000 0.514
34.52000 5.543
34.54000 5.676
34.56000 1.821
34.58000 1.144
34.60000 1.289
34.62000 0.188
34.64000 -3.564
34.66000 -1.073
34.68000 4.107
34.70000 3.611
34.72000 6.741
34.74000 6.811
34.76000 9.491
34.78000 6.151
34.80000 2.509
34.82000 6.391
34.84000 8.538
34.86000 10.430
34.88000 4.552
34.90000 3.813
34.92000 9.909
34.94000 4.324
34.96000 -2.366
34.98000 -1.760
35.00000 -2.010
35.02000 2.704
35.04000 4.706
35.06000 5.301
35.08000 2.000
35.10000 0.194
35.12000 2.209
35.14000 1.071
35.16000 -0.373
35.18000 0.470
35.20000 -0.749
35.22000 -1.738
35.24000 1.365
35.26000 0.171
35.28000 3.003
35.30000 1.243
35.32000 2.415
35.34000 2.412
35.36000 3.238
35.38000 -2.857
35.40000 2.386
35.42000 4.158
35.44000 8.172
35.46000 6.623
35.48000 1.525
35.50000 0.789
35.52000 4.530
35.54000 7.744
35.56000 6.084
35.58000 1.186
35.60000 5.696
35.62000 6.837
35.64000 1.507
35.66000 4.607
35.68000 6.924
35.70000 5.729
35.72000 0.093
35.74000 -3.064
35.76000 1.054
35.78000 -1.654
35.80000 4.014
35.82000 -1.124
35.84000 1.978
35.86000 0.375
35.88000 -3.598
35.90000 0.784
35.92000 2.018
35.94000 -0.267
35.96000 2.602
35.98000 1.527
36.00000 0.307
36.02000 1.983
36.04000 -0.325
36.06000 -3.612
36.08000 3.127
36.10000 9.095
36.12000 6.632
36.14000 6.000
36.16000 2.747
36.18000 3.714
36.20000 2.303
36.22000 1.586
36.24000 -3.176
36.26000 -1.497
36.28000 0.799
36.30000 2.251
36.32000 5.869
36.34000 3.337
36.36000 0.363
36.38000 -0.072
36.40000 -0.384
36.42000 0.590
36.44000 2.568
36.46000 -0.216
36.48000 4.687
36.50000 7.168
36.52000 4.679
36.54000 -0.264
36.56000 -0.656
36.58000 1.168
36.60000 3.081
36.62000 5.396
36.64000 5.380
36.66000 5.017
36.68000 2.257
36.70000 1.303
36.72000 3.424
36.74000 3.367
36.76000 7.338
36.78000 7.012
36.80000 3.450
36.82000 0.835
36.84000 4.432
36.86000 5.939
36.88000 5.394
36.90000 6.190
36.92000 4.984
36.94000 3.451
36.96000 4.350
36.98000 1.066
37.00000 1.810
37.02000 -0.461
37.04000 5.223
37.06000 5.166
37.08000 5.431
37.10000 2.309
37.12000 5.748
37.14000 9.149
37.16000 9.801
37.18000 10.084
37.20000 4.938
37.22000 7.790
37.24000 11.365
37.26000 12.207
37.28000 13.676
37.30000 10.121
37.32000 8.537
37.34000 6.712
37.36000 8.320
37.38000 6.501
37.40000 8.947
37.42000 14.508
37.44000 9.980
37.46000 7.881
37.48000 14.205
37.50000 11.738
37.52000 9.177
37.54000 13.186
37.56000 15.201
37.58000 12.970
37.60000 13.623
37.62000 17.607
37.64000 22.462
37.66000 24.878
37.68000 17.314
37.70000 19.049
37.72000 16.149
37.74000 23.599
37.76000 23.829
37.78000 16.381
37.80000 14.478
37.82000 25.465
37.84000 23.720
37.86000 19.624
37.88000 19.099
37.90000 20.732
37.92000 23.798
37.94000 24.699
37.96000 26.213
37.98000 32.545
38.00000 33.477
38.02000 31.759
38.04000 28.919
38.06000 38.980
38.08000 36.384
38.10000 32.778
38.12000 33.327
38.14000 35.739
38.16000 40.580
38.18000 39.788
38.20000 39.005
38.22000 50.420
38.24000 47.543
38.26000 42.850
38.28000 44.537
38.30000 52.030
38.32000 53.414
38.34000 56.379
38.36000 57.422
38.38000 60.871
38.40000 63.600
38.42000 66.524
38.44000 64.307
38.46000 74.472
38.48000 75.155
38.50000 78.526
38.52000 79.347
38.54000 83.996
38.56000 88.213
38.58000 95.256
38.60000 96.756
38.62000 106.414
38.64000 115.334
38.66000 121.268
38.68000 122.309
38.70000 133.917
38.72000 139.858
38.74000 147.669
38.76000 154.114
38.78000 168.942
38.80000 175.871
38.82000 182.675
38.84000 195.601
38.86000 209.062
38.88000 227.421
38.90000 244.093
38.92000 253.511
38.94000 270.459
38.96000 275.164
38.98000 288.679
39.00000 303.721
39.02000 318.000
39.04000 331.920
39.06000 347.319
39.08000 345.917
39.10000 357.721
39.12000 369.362
39.14000 368.263
39.16000 378.614
39.18000 396.053
39.20000 393.847
39.22000 394.557
39.24000 393.441
39.26000 391.292
39.28000 388.664
39.30000 379.701
39.32000 372.387
39.34000 370.804
39.36000 363.786
39.38000 355.168
39.40000 342.574
39.42000 328.531
39.44000 320.177
39.46000 314.704
39.48000 296.013
39.50000 280.788
39.52000 280.789
39.54000 263.021
39.56000 249.073
39.58000 239.677
39.60000 219.655
39.62000 200.931
39.64000 189.171
39.66000 179.272
39.68000 167.861
39.70000 153.883
39.72000 148.646
39.74000 143.069
39.76000 129.400
39.78000 122.498
39.80000 120.546
39.82000 109.310
39.84000 96.292
39.86000 93.157
39.88000 88.480
39.90000 87.057
39.92000 82.127
39.94000 75.802
39.96000 66.865
39.98000 64.860
40.00000 59.560
40.02000 61.273
40.04000 56.619
40.06000 52.436
40.08000 50.332
40.10000 51.588
40.12000 49.828
40.14000 45.886
40.16000 39.582
40.18000 33.439
40.20000 33.671
40.22000 34.057
40.24000 33.663
40.26000 37.184
40.28000 34.756
40.30000 31.749
40.32000 29.718
40.34000 26.897
40.36000 25.033
40.38000 25.055
40.40000 24.496
40.42000 23.543
40.44000 24.902
40.46000 25.900
40.48000 19.989
40.50000 17.669
40.52000 16.738
40.54000 12.526
40.56000 13.565
40.58000 13.347
40.60000 15.418
40.62000 16.685
40.64000 17.613
40.66000 14.854
40.68000 11.585
40.70000 15.788
40.72000 15.418
40.74000 11.830
40.76000 11.608
40.78000 13.143
40.80000 11.909
40.82000 10.172
40.84000 5.304
40.86000 6.291
40.88000 9.196
40.90000 6.616
40.92000 5.332
40.94000 7.285
40.96000 9.028
40.98000 8.639
41.00000 6.154
41.02000 5.501
41.04000 7.949
41.06000 9.674
41.08000 6.265
41.10000 5.524
41.12000 6.861
41.14000 7.189
41.16000 4.859
41.18000 1.101
41.20000 4.287
41.22000 5.102
41.24000 3.787
41.26000 3.630
41.28000 1.211
41.30000 -0.070
41.32000 1.741
41.34000 5.217
41.36000 5.711
41.38000 4.494
41.40000 1.511
41.42000 5.307
41.44000 4.721
41.46000 2.523
41.48000 3.358
41.50000 4.446
41.52000 1.237
41.54000 1.894
41.56000 3.104
41.58000 0.417
41.60000 0.496
41.62000 -0.473
41.64000 5.870
41.66000 7.090
41.68000 6.850
41.70000 1.097
41.72000 -1.411
41.74000 1.936
41.76000 1.507
41.78000 2.853
41.80000 1.453
41.82000 -0.442
41.84000 -2.131
41.86000 1.659
41.88000 3.726
41.90000 0.185
41.92000 -1.189
41.94000 3.367
41.96000 3.511
41.98000 2.718
42.00000 3.233
42.02000 2.459
42.04000 0.420
42.06000 1.595
42.08000 6.156
42.10000 2.456
42.12000 1.037
42.14000 -0.624
42.16000 2.163
42.18000 1.386
42.20000 -2.944
42.22000 -0.341
42.24000 3.797
42.26000 7.103
42.28000 6.660
42.30000 3.779
42.32000 -1.113
42.34000 1.641
42.36000 2.199
42.38000 -2.224
42.40000 2.516
42.42000 4.661
42.44000 6.919
42.46000 5.422
42.48000 3.867
42.50000 1.996
42.52000 1.459
42.54000 -0.952
42.56000 -3.301
42.58000 -1.996
42.60000 0.337
42.62000 1.907
42.64000 5.353
42.66000 5.787
42.68000 2.944
42.70000 2.058
42.72000 2.104
42.74000 0.336
42.76000 4.330
42.78000 7.030
42.80000 2.760
42.82000 -0.195
42.84000 -3.272
42.86000 1.542
42.88000 6.700
42.90000 0.425
42.92000 -1.097
42.94000 3.080
42.96000 5.363
42.98000 4.959
43.00000 2.470
43.02000 0.147
43.04000 1.314
43.06000 2.197
43.08000 3.717
43.10000 3.979
43.12000 1.631
43.14000 -3.243
43.16000 0.546
43.18000 1.035
43.20000 0.778
43.22000 -1.530
43.24000 -0.740
43.26000 2.178
43.28000 1.507
43.30000 -0.427
43.32000 -0.206
43.34000 1.627
43.36000 2.068
43.38000 0.461
43.40000 -3.081
43.42000 -1.907
43.44000 -1.649
43.46000 -0.021
43.48000 -0.738
43.50000 1.870
43.52000 -0.419
43.54000 -1.744
43.56000 -2.780
43.58000 0.642
43.60000 -1.384
43.62000 0.451
43.64000 1.583
43.66000 -0.154
43.68000 -1.924
43.70000 0.978
43.72000 1.509
43.74000 1.501
43.76000 1.148
43.78000 3.095
43.80000 3.919
43.82000 3.633
43.84000 1.254
43.86000 -3.212
43.88000 -2.165
43.90000 1.552
43.92000 1.270
43.94000 -1.731
43.96000 -3.179
43.98000 -0.664
44.00000 1.016
44.02000 2.510
44.04000 -0.077
44.06000 -1.563
44.08000 -1.326
44.10000 -0.947
44.12000 0.193
44.14000 0.812
44.16000 1.245
44.18000 0.901
44.20000 0.445
44.22000 0.012
44.24000 -2.705
44.26000 -0.771
44.28000 2.811
44.30000 4.937
44.32000 7.856
44.34000 3.330
44.36000 2.350
44.38000 3.772
44.40000 3.702
44.42000 2.269
44.44000 3.261
44.46000 7.579
44.48000 4.344
44.50000 4.782
44.52000 2.580
44.54000 3.717
44.56000 2.361
44.58000 2.603
44.60000 1.860
44.62000 6.579
44.64000 10.070
44.66000 8.067
44.68000 9.835
44.70000 7.993
44.72000 13.009
44.74000 10.373
44.76000 11.682
44.78000 11.485
44.80000 11.761
44.82000 12.888
44.84000 9.290
44.86000 6.761
44.88000 6.522
44.90000 8.837
44.92000 12.294
44.94000 16.057
44.96000 13.977
44.98000 14.423
45.00000 15.686
45.02000 19.365
45.04000 19.009
45.06000 20.798
45.08000 18.512
45.10000 17.909
45.12000 16.171
45.14000 22.495
45.16000 26.939
45.18000 27.117
45.20000 28.419
45.22000 29.215
45.24000 31.736
45.26000 30.361
45.28000 34.354
45.30000 33.970
45.32000 35.402
45.34000 39.606
45.36000 36.973
45.38000 37.678
45.40000 45.631
45.42000 42.841
45.44000 48.507
45.46000 48.976
45.48000 52.110
45.50000 50.310
45.52000 54.564
45.54000 59.408
45.56000 58.799
45.58000 55.967
45.60000 58.246
45.62000 61.116
45.64000 57.750
45.66000 59.000
45.68000 58.762
45.70000 66.104
45.72000 70.946
45.74000 66.111
45.76000 64.011
45.78000 69.146
45.80000 68.120
45.82000 67.893
45.84000 68.990
45.86000 68.916
45.88000 68.869
45.90000 72.345
45.92000 66.598
45.94000 68.196
45.96000 67.420
45.98000 65.427
46.00000 64.342
46.02000 61.418
46.04000 56.399
46.06000 54.380
46.08000 55.697
46.10000 52.606
46.12000 52.998
46.14000 47.417
46.16000 45.170
46.18000 48.178
46.20000 45.021
46.22000 44.397
46.24000 44.240
46.26000 37.133
46.28000 40.050
46.30000 35.481
46.32000 32.350
46.34000 30.468
46.36000 26.805
46.38000 28.666
46.40000 29.283
46.42000 23.522
46.44000 21.930
46.46000 22.221
46.48000 22.783
46.50000 21.912
46.52000 20.067
46.54000 17.471
46.56000 17.185
46.58000 14.317
46.60000 15.265
46.62000 12.781
46.64000 8.807
46.66000 7.796
46.68000 6.300
46.70000 10.951
46.72000 7.197
46.74000 5.090
46.76000 3.210
46.78000 3.475
46.80000 6.329
46.82000 7.940
46.84000 5.528
46.86000 7.231
46.88000 6.771
46.90000 4.519
46.92000 2.703
46.94000 1.829
46.96000 -0.160
46.98000 -0.291
47.00000 3.105
47.02000 0.701
47.04000 0.996
47.06000 3.736
47.08000 1.835
47.10000 4.406
47.12000 7.200
47.14000 3.702
47.16000 3.823
47.18000 -2.453
47.20000 1.098
47.22000 1.569
47.24000 4.016
47.26000 1.881
47.28000 1.416
47.30000 -1.514
47.32000 -2.854
47.34000 -1.850
47.36000 -1.478
47.38000 -2.845
47.40000 -0.655
47.42000 1.207
47.44000 0.272
47.46000 -1.279
47.48000 1.901
47.50000 4.450
47.52000 5.160
47.54000 0.495
47.56000 -0.714
47.58000 1.417
47.60000 -0.552
47.62000 2.398
47.64000 0.954
47.66000 1.558
47.68000 3.010
47.70000 3.334
47.72000 5.807
47.74000 0.104
47.76000 -0.925
47.78000 -1.460
47.80000 1.900
47.82000 2.908
47.84000 6.088
47.86000 4.908
47.88000 8.763
47.90000 2.552
47.92000 1.618
47.94000 1.652
47.96000 6.297
47.98000 2.941
48.00000 -0.541
48.02000 -2.750
48.04000 -2.275
48.06000 0.718
48.08000 -1.204
48.10000 -0.140
48.12000 2.794
48.14000 2.828
48.16000 -0.251
48.18000 1.132
48.20000 3.471
48.22000 3.689
48.24000 7.673
48.26000 6.144
48.28000 3.225
48.30000 2.641
48.32000 3.667
48.34000 6.115
48.36000 6.243
48.38000 0.173
48.40000 -2.592
48.42000 -2.179
48.44000 2.486
48.46000 5.137
48.48000 5.120
48.50000 0.736
48.52000 3.327
48.54000 1.563
48.56000 4.234
48.58000 7.127
48.60000 3.453
48.62000 2.734
48.64000 -0.393
48.66000 3.420
48.68000 5.687
48.70000 7.006
48.72000 2.582
48.74000 -0.985
48.76000 0.915
48.78000 -0.321
48.80000 0.395
48.82000 3.529
48.84000 5.566
48.86000 0.777
48.88000 -2.355
48.90000 4.475
48.92000 6.149
48.94000 5.909
48.96000 3.817
48.98000 1.459
49.00000 0.999
49.02000 3.042
49.04000 2.059
49.06000 0.654
49.08000 2.435
49.10000 2.107
49.12000 1.807
49.14000 8.930
49.16000 14.454
49.18000 8.451
49.20000 2.045
49.22000 -2.640
49.24000 -0.237
49.26000 4.197
49.28000 8.893
49.30000 10.765
49.32000 10.320
49.34000 4.191
49.36000 4.142
49.38000 8.351
49.40000 4.670
49.42000 4.910
49.44000 5.473
49.46000 4.107
49.48000 2.945
49.50000 3.083
49.52000 1.732
49.54000 4.128
49.56000 5.956
49.58000 -1.010
49.60000 1.449
49.62000 4.347
49.64000 5.726
49.66000 4.399
49.68000 1.848
49.70000 6.106
49.72000 6.544
49.74000 4.095
49.76000 3.422
49.78000 6.096
49.80000 8.280
49.82000 6.783
49.84000 6.306
49.86000 5.552
49.88000 2.830
49.90000 4.328
49.92000 2.849
49.94000 3.459
49.96000 5.825
49.98000 5.210
50.00000 4.491
50.02000 1.708
50.04000 2.622
50.06000 3.967
50.08000 1.375
50.10000 3.664
50.12000 4.422
50.14000 4.764
50.16000 2.765
50.18000 -0.010
50.20000 -0.523
50.22000 -2.473
50.24000 4.520
50.26000 3.987
50.28000 0.478
50.30000 1.210
50.32000 3.298
50.34000 4.046
50.36000 6.105
50.38000 5.903
50.40000 3.513
50.42000 2.636
50.44000 1.897
50.46000 0.119
50.48000 2.257
50.50000 4.180
50.52000 1.416
50.54000 -2.597
50.56000 3.484
50.58000 4.622
50.60000 3.433
50.62000 3.625
50.64000 2.566
50.66000 4.215
50.68000 4.208
50.70000 1.961
50.72000 2.071
50.74000 4.103
50.76000 3.354
50.78000 2.445
50.80000 2.843
50.82000 5.235
50.84000 6.589
50.86000 2.757
50.88000 4.160
50.90000 6.006
50.92000 5.311
50.94000 4.240
50.96000 2.401
50.98000 2.619
51.00000 2.054
51.02000 2.236
51.04000 4.679
51.06000 4.571
51.08000 3.443
51.10000 1.339
51.12000 1.937
51.14000 4.565
51.16000 2.299
51.18000 1.564
51.20000 -0.788
51.22000 -0.156
51.24000 -0.328
51.26000 -0.140
51.28000 -2.064
51.30000 -1.867
51.32000 2.137
51.34000 1.873
51.36000 2.767
51.38000 0.931
51.40000 1.271
51.42000 3.432
51.44000 1.801
51.46000 -0.458
51.48000 2.286
51.50000 -0.531
51.52000 0.489
51.54000 4.707
51.56000 1.664
51.58000 0.879
51.60000 -0.299
51.62000 -0.051
51.64000 1.796
51.66000 2.283
51.68000 3.133
51.70000 0.862
51.72000 0.963
51.74000 5.183
51.76000 2.718
51.78000 1.421
51.80000 -0.233
51.82000 -0.685
51.84000 -0.230
51.86000 3.424
51.88000 1.578
51.90000 1.379
51.92000 3.461
51.94000 2.851
51.96000 3.649
51.98000 2.226
52.00000 3.936
52.02000 3.158
52.04000 1.605
52.06000 0.189
52.08000 2.009
52.10000 2.866
52.12000 0.929
52.14000 1.802
52.16000 3.926
52.18000 4.246
52.20000 2.766
52.22000 0.946
52.24000 0.296
52.26000 -2.571
52.28000 -0.660
52.30000 1.492
52.32000 0.321
52.34000 3.565
52.36000 4.848
52.38000 1.424
52.40000 0.355
52.42000 5.667
52.44000 2.714
52.46000 1.561
52.48000 2.664
52.50000 -0.168
52.52000 -0.538
52.54000 0.368
52.56000 -0.561
52.58000 1.569
52.60000 3.903
52.62000 4.452
52.64000 2.574
52.66000 3.388
52.68000 7.024
52.70000 5.574
52.72000 3.488
52.74000 5.909
52.76000 7.618
52.78000 4.918
52.80000 2.924
52.82000 -2.542
52.84000 -1.486
52.86000 1.776
52.88000 2.821
52.90000 3.741
52.92000 2.361
52.94000 1.801
52.96000 3.823
52.98000 2.129
53.00000 -1.511
53.02000 -1.041
53.04000 -0.013
53.06000 -0.593
53.08000 0.136
53.10000 -0.999
53.12000 3.593
53.14000 6.761
53.16000 1.506
53.18000 3.781
53.20000 3.249
53.22000 -2.260
53.24000 3.642
53.26000 3.399
53.28000 0.868
53.30000 1.474
53.32000 4.295
53.34000 1.827
53.36000 0.277
53.38000 2.750
53.40000 1.683
53.42000 -0.989
53.44000 2.230
53.46000 1.297
53.48000 -0.254
53.50000 1.275
53.52000 1.474
53.54000 0.142
53.56000 2.229
53.58000 1.386
53.60000 -1.048
53.62000 4.990
53.64000 5.865
53.66000 3.555
53.68000 1.309
53.70000 0.812
53.72000 4.148
53.74000 4.282
53.76000 1.144
53.78000 -0.499
53.80000 -0.443
53.82000 -2.260
53.84000 -2.527
53.86000 -1.407
53.88000 2.536
53.90000 -1.341
53.92000 0.503
53.94000 1.782
53.96000 3.956
53.98000 2.407
54.00000 2.213
54.02000 3.710
54.04000 6.182
54.06000 4.946
54.08000 0.581
54.10000 0.551
54.12000 -0.716
54.14000 4.031
54.16000 3.668
54.18000 6.936
54.20000 6.211
54.22000 1.341
54.24000 0.599
54.26000 3.049
54.28000 1.191
54.30000 0.601
54.32000 1.765
54.34000 0.593
54.36000 4.690
54.38000 -0.034
54.40000 1.352
54.42000 3.930
54.44000 4.331
54.46000 3.318
54.48000 1.892
54.50000 0.573
54.52000 0.763
54.54000 1.361
54.56000 3.515
54.58000 -0.812
54.60000 0.821
54.62000 2.805
54.64000 1.950
54.66000 3.933
54.68000 2.968
54.70000 3.755
54.72000 5.822
54.74000 4.587
54.76000 2.500
54.78000 -0.679
54.80000 0.416
54.82000 -0.861
54.84000 1.213
54.86000 0.708
54.88000 -1.977
54.90000 -1.305
54.92000 1.035
54.94000 0.375
54.96000 1.107
54.98000 -0.563
55.00000 -0.232
55.02000 1.538
55.04000 3.678
55.06000 2.240
55.08000 1.795
55.10000 3.174
55.12000 0.969
55.14000 2.904
55.16000 3.583
55.18000 -2.498
55.20000 0.387
55.22000 0.141
55.24000 0.400
55.26000 1.381
55.28000 4.768
55.30000 4.821
55.32000 3.669
55.34000 4.213
55.36000 1.114
55.38000 -0.799
55.40000 -0.290
55.42000 -1.077
55.44000 3.757
55.46000 2.379
55.48000 -0.644
55.50000 -2.489
55.52000 1.738
55.54000 0.860
55.56000 1.501
55.58000 -1.034
55.60000 -0.666
55.62000 0.985
55.64000 1.003
55.66000 3.729
55.68000 2.959
55.70000 -0.502
55.72000 1.161
55.74000 1.882
55.76000 0.592
55.78000 1.010
55.80000 1.378
55.82000 0.197
55.84000 5.751
55.86000 1.913
55.88000 1.798
55.90000 1.186
55.92000 0.654
55.94000 3.158
55.96000 4.007
55.98000 4.958
56.00000 4.349
56.02000 1.413
56.04000 0.318
56.06000 -0.905
56.08000 2.594
56.10000 -0.110
56.12000 2.128
56.14000 6.970
56.16000 4.964
56.18000 4.023
56.20000 1.937
56.22000 1.460
56.24000 2.957
56.26000 0.348
56.28000 -0.567
56.30000 2.924
56.32000 2.495
56.34000 4.111
56.36000 5.889
56.38000 7.388
56.40000 5.396
56.42000 4.766
56.44000 5.216
56.46000 5.841
56.48000 4.602
56.50000 4.463
56.52000 4.122
56.54000 3.956
56.56000 3.372
56.58000 1.135
56.60000 -2.423
56.62000 -0.990
56.64000 3.802
56.66000 6.130
56.68000 3.248
56.70000 3.397
56.72000 3.510
56.74000 5.180
56.76000 4.458
56.78000 3.390
56.80000 3.573
56.82000 4.412
56.84000 2.930
56.86000 2.107
56.88000 2.201
56.90000 6.569
56.92000 6.299
56.94000 2.278
56.96000 2.567
56.98000 6.013
57.00000 5.333
57.02000 0.545
57.04000 1.684
57.06000 2.780
57.08000 -0.535
57.10000 -0.095
57.12000 -2.399
57.14000 1.458
57.16000 5.560
57.18000 0.304
57.20000 1.357
57.22000 -0.085
57.24000 4.877
57.26000 3.855
57.28000 0.559
57.30000 -1.943
57.32000 2.502
57.34000 -1.744
57.36000 1.614
57.38000 3.161
57.40000 2.789
57.42000 3.726
57.44000 3.213
57.46000 2.589
57.48000 4.356
57.50000 -1.387
57.52000 1.806
57.54000 1.754
57.56000 0.261
57.58000 1.668
57.60000 2.289
57.62000 1.281
57.64000 0.692
57.66000 5.026
57.68000 1.945
57.70000 3.325
57.72000 2.670
57.74000 2.053
57.76000 4.801
57.78000 3.348
57.80000 0.463
57.82000 2.795
57.84000 1.494
57.86000 1.237
57.88000 2.688
57.90000 5.371
57.92000 5.891
57.94000 4.191
57.96000 2.364
57.98000 4.114
58.00000 4.285
58.02000 2.383
58.04000 4.049
58.06000 3.994
58.08000 2.530
58.10000 1.383
58.12000 -0.429
58.14000 2.326
58.16000 2.929
58.18000 1.377
58.20000 -0.130
58.22000 3.924
58.24000 6.491
58.26000 2.824
58.28000 0.779
58.30000 2.130
58.32000 5.313
58.34000 3.782
58.36000 -2.373
58.38000 0.501
58.40000 4.774
58.42000 1.998
58.44000 1.356
58.46000 1.703
58.48000 1.164
58.50000 -0.967
58.52000 -2.186
58.54000 2.170
58.56000 2.770
58.58000 0.274
58.60000 1.198
58.62000 2.385
58.64000 3.474
58.66000 0.664
58.68000 1.096
58.70000 6.476
58.72000 1.643
58.74000 5.435
58.76000 5.689
58.78000 2.544
58.80000 6.487
58.82000 5.677
58.84000 0.791
58.86000 5.715
58.88000 9.455
58.90000 8.641
58.92000 4.705
58.94000 2.431
58.96000 5.421
58.98000 4.822
59.00000 4.431
59.02000 0.207
59.04000 -0.343
59.06000 1.714
59.08000 3.182
59.10000 3.617
59.12000 3.217
59.14000 1.312
59.16000 2.208
59.18000 1.988
59.20000 1.660
59.22000 4.166
59.24000 2.017
59.26000 -0.536
59.28000 -2.358
59.30000 -1.215
59.32000 -1.412
59.34000 1.040
59.36000 1.465
59.38000 1.161
59.40000 4.538
59.42000 7.013
59.44000 4.649
59.46000 4.529
59.48000 4.964
59.50000 5.845
59.52000 7.188
59.54000 1.786
59.56000 2.229
59.58000 4.458
59.60000 3.033
59.62000 3.052
59.64000 4.933
59.66000 3.690
59.68000 -0.352
59.70000 1.482
59.72000 3.505
59.74000 3.303
59.76000 5.133
59.78000 2.076
59.80000 2.415
59.82000 1.985
59.84000 2.351
59.86000 4.541
59.88000 3.704
59.90000 1.194
59.92000 -2.357
59.94000 -2.045
59.96000 1.230
59.98000 1.275
60.00000 2.243
60.02000 3.913
60.04000 0.839
60.06000 5.044
60.08000 4.470
60.10000 2.728
60.12000 1.199
60.14000 1.603
60.16000 1.412
60.18000 0.888
60.20000 4.847
60.22000 2.742
60.24000 -0.589
60.26000 -2.129
60.28000 -1.573
60.30000 -0.488
60.32000 -0.923
60.34000 2.777
60.36000 4.219
60.38000 1.852
60.40000 1.585
60.42000 0.406
60.44000 -0.492
60.46000 1.315
60.48000 1.530
60.50000 4.810
60.52000 2.824
60.54000 2.616
60.56000 1.444
60.58000 -2.342
60.60000 -0.981
60.62000 -0.403
60.64000 2.468
60.66000 4.031
60.68000 0.782
60.70000 0.495
60.72000 0.150
60.74000 2.670
60.76000 2.625
60.78000 1.139
60.80000 1.124
60.82000 1.387
60.84000 1.126
60.86000 3.549
60.88000 1.550
60.90000 3.606
60.92000 5.829
60.94000 5.571
60.96000 2.830
60.98000 -1.206
61.00000 1.317
61.02000 -0.155
61.04000 -2.330
61.06000 0.363
61.08000 5.050
61.10000 2.915
61.12000 1.754
61.14000 3.352
61.16000 6.006
61.18000 4.374
61.20000 2.565
61.22000 -0.371
61.24000 -0.635
61.26000 1.742
61.28000 3.378
61.30000 5.685
61.32000 3.261
61.34000 1.245
61.36000 0.969
61.38000 2.072
61.40000 3.945
61.42000 1.058
61.44000 1.575
61.46000 1.292
61.48000 0.079
61.50000 1.068
61.52000 0.499
61.54000 -0.805
61.56000 1.157
61.58000 0.104
61.60000 -1.719
61.62000 -1.678
61.64000 3.370
61.66000 -0.147
61.68000 -0.553
61.70000 -0.018
61.72000 2.307
61.74000 0.751
61.76000 5.457
61.78000 3.118
61.80000 1.198
61.82000 4.107
61.84000 3.052
61.86000 3.953
61.88000 5.968
61.90000 3.590
61.92000 1.940
61.94000 1.158
61.96000 2.233
61.98000 3.124
62.00000 3.061
62.02000 -0.163
62.04000 -2.275
62.06000 0.582
62.08000 -1.830
62.10000 1.803
62.12000 0.041
62.14000 0.802
62.16000 2.156
62.18000 4.513
62.20000 1.999
62.22000 0.722
62.24000 2.678
62.26000 3.637
62.28000 0.256
62.30000 -0.473
62.32000 -1.112
62.34000 1.586
62.36000 5.331
62.38000 1.408
62.40000 1.643
62.42000 2.641
62.44000 2.627
62.46000 2.545
62.48000 2.815
62.50000 -0.663
62.52000 -0.328
62.54000 2.050
62.56000 -0.474
62.58000 -0.430
62.60000 1.056
62.62000 -0.499
62.64000 -1.094
62.66000 0.597
62.68000 3.254
62.70000 1.868
62.72000 0.944
62.74000 2.128
62.76000 1.256
62.78000 2.831
62.80000 1.707
62.82000 -1.582
62.84000 -0.290
62.86000 0.612
62.88000 1.871
62.90000 -0.338
62.92000 2.251
62.94000 0.056
62.96000 -0.531
62.98000 -0.612
63.00000 -1.523
63.02000 -2.246
63.04000 -0.468
63.06000 3.038
63.08000 2.925
63.10000 1.529
63.12000 1.113
63.14000 2.538
63.16000 5.526
63.18000 2.442
63.20000 1.738
63.22000 2.129
63.24000 2.284
63.26000 0.205
63.28000 0.274
63.30000 0.914
63.32000 2.680
63.34000 0.344
63.36000 1.122
63.38000 4.267
63.40000 3.369
63.42000 -0.488
63.44000 1.208
63.46000 0.852
63.48000 0.701
63.50000 3.861
63.52000 5.782
63.54000 2.424
63.56000 0.488
63.58000 -0.647
63.60000 -1.390
63.62000 -0.624
63.64000 4.065
63.66000 1.784
63.68000 0.137
63.70000 -2.255
63.72000 -0.521
63.74000 1.003
63.76000 6.402
63.78000 2.598
63.80000 -0.016
63.82000 3.181
63.84000 1.826
63.86000 0.383
63.88000 2.654
63.90000 -0.121
63.92000 0.915
63.94000 3.022
63.96000 2.100
63.98000 0.932
64.00000 0.866
64.02000 -2.250
64.04000 -0.590
64.06000 2.450
64.08000 4.328
64.10000 2.825
64.12000 2.491
64.14000 3.449
64.16000 3.327
64.18000 5.202
64.20000 7.366
64.22000 3.877
64.24000 4.615
64.26000 0.870
64.28000 -1.243
64.30000 1.160
64.32000 2.109
64.34000 2.610
64.36000 -1.175
64.38000 -0.345
64.40000 2.359
64.42000 0.089
64.44000 -2.262
64.46000 -1.868
64.48000 2.106
64.50000 1.872
64.52000 1.521
64.54000 1.959
64.56000 3.103
64.58000 1.380
64.60000 -0.809
64.62000 1.715
64.64000 1.202
64.66000 -1.361
64.68000 -0.774
64.70000 -1.959
64.72000 1.213
64.74000 1.529
64.76000 1.956
64.78000 -1.591
64.80000 0.838
64.82000 2.465
64.84000 0.264
64.86000 -2.186
64.88000 -1.713
64.90000 -2.268
64.92000 -0.847
64.94000 0.133
64.96000 1.171
64.98000 4.153
65.00000 2.354
65.02000 1.978
65.04000 -0.335
65.06000 -0.270
65.08000 -0.517
65.10000 0.980
65.12000 1.012
65.14000 0.762
65.16000 0.844
65.18000 2.469
65.20000 2.378
65.22000 0.786
65.24000 1.104
65.26000 0.824
65.28000 1.834
65.30000 -0.734
65.32000 3.492
65.34000 0.359
65.36000 2.238
65.38000 1.858
65.40000 4.270
65.42000 3.694
65.44000 0.716
65.46000 -0.320
65.48000 -0.026
65.50000 0.735
65.52000 -0.299
65.54000 2.303
65.56000 4.085
65.58000 3.789
65.60000 0.773
65.62000 1.277
65.64000 -2.190
65.66000 1.371
65.68000 2.553
65.70000 0.850
65.72000 -2.273
65.74000 0.390
65.76000 0.338
65.78000 4.086
65.80000 1.842
65.82000 1.170
65.84000 1.045
65.86000 2.217
65.88000 2.929
65.90000 0.859
65.92000 0.983
65.94000 2.725
65.96000 4.482
65.98000 3.294
66.00000 1.374
66.02000 -0.386
66.04000 -0.395
66.06000 2.686
66.08000 0.723
66.10000 0.944
66.12000 2.127
66.14000 1.554
66.16000 3.347
66.18000 2.681
66.20000 1.500
66.22000 1.141
66.24000 2.148
66.26000 5.240
66.28000 2.826
66.30000 3.487
66.32000 1.951
66.34000 2.051
66.36000 0.450
66.38000 2.280
66.40000 2.358
66.42000 1.138
66.44000 1.970
66.46000 0.984
66.48000 3.385
66.50000 4.963
66.52000 3.800
66.54000 4.831
66.56000 4.947
66.58000 4.318
66.60000 4.730
66.62000 4.411
66.64000 4.891
66.66000 4.326
66.68000 3.117
66.70000 2.963
66.72000 4.772
66.74000 0.937
66.76000 2.043
66.78000 7.058
66.80000 6.552
66.82000 5.697
66.84000 5.602
66.86000 4.440
66.88000 5.040
66.90000 4.490
66.92000 7.391
66.94000 6.025
66.96000 3.742
66.98000 5.405
67.00000 4.279
67.02000 4.674
67.04000 3.207
67.06000 3.509
67.08000 5.400
67.10000 3.652
67.12000 1.917
67.14000 4.700
67.16000 5.001
67.18000 2.364
67.20000 0.786
67.22000 2.382
67.24000 2.533
67.26000 1.858
67.28000 -1.211
67.30000 0.524
67.32000 -0.505
67.34000 -0.708
67.36000 0.627
67.38000 4.936
67.40000 2.010
67.42000 1.407
67.44000 0.608
67.46000 2.414
67.48000 1.167
67.50000 0.177
67.52000 2.364
67.54000 1.555
67.56000 1.392
67.58000 3.995
67.60000 0.997
67.62000 0.484
67.64000 4.096
67.66000 4.080
67.68000 2.994
67.70000 1.031
67.72000 -1.550
67.74000 -1.164
67.76000 0.687
67.78000 0.786
67.80000 -0.934
67.82000 -0.846
67.84000 -0.038
67.86000 0.093
67.88000 1.424
67.90000 1.310
67.92000 2.925
67.94000 2.522
67.96000 2.428
67.98000 1.691
68.00000 -0.279
68.02000 1.658
68.04000 5.187
68.06000 1.787
68.08000 -2.137
68.10000 0.363
68.12000 1.693
68.14000 1.456
68.16000 3.601
68.18000 2.653
68.20000 2.840
68.22000 0.317
68.24000 -0.852
68.26000 0.506
68.28000 0.626
68.30000 -1.028
68.32000 1.300
68.34000 0.684
68.36000 -0.163
68.38000 2.591
68.40000 3.556
68.42000 1.307
68.44000 1.245
68.46000 0.665
68.48000 2.841
68.50000 0.453
68.52000 0.165
68.54000 1.011
68.56000 1.511
68.58000 0.947
68.60000 1.443
68.62000 -0.713
68.64000 -0.515
68.66000 2.583
68.68000 1.974
68.70000 2.308
68.72000 1.560
68.74000 0.660
68.76000 2.093
68.78000 3.667
68.80000 3.823
68.82000 3.809
68.84000 1.328
68.86000 -0.330
68.88000 1.191
68.90000 3.378
68.92000 2.410
68.94000 5.493
68.96000 2.573
68.98000 1.747
69.00000 3.284
69.02000 2.464
69.04000 3.025
69.06000 0.649
69.08000 0.712
69.10000 2.675
69.12000 2.080
69.14000 2.550
69.16000 2.765
69.18000 1.786
69.20000 0.728
69.22000 2.560
69.24000 2.089
69.26000 2.744
69.28000 2.788
69.30000 1.528
69.32000 1.692
69.34000 -0.371
69.36000 0.975
69.38000 0.780
69.40000 2.132
69.42000 0.444
69.44000 -1.295
69.46000 -1.142
69.48000 1.158
69.50000 6.080
69.52000 1.029
69.54000 -2.084
69.56000 -0.329
69.58000 -0.542
69.60000 3.309
69.62000 3.692
69.64000 2.521
69.66000 1.146
69.68000 -0.579
69.70000 -1.492
69.72000 -0.771
69.74000 1.894
69.76000 2.586
69.78000 2.184
69.80000 1.878
69.82000 0.521
69.84000 1.069
69.86000 2.342
69.88000 0.100
69.90000 -0.390
69.92000 1.746
69.94000 -0.077
69.96000 -0.123
69.98000 0.584
70.00000 -0.556
70.02000 1.160
70.04000 -0.145
70.06000 -1.457
70.08000 0.924
70.10000 3.579
70.12000 1.898
70.14000 3.613
70.16000 3.529
70.18000 -0.849
70.20000 -0.115
70.22000 1.395
70.24000 0.240
70.26000 1.930
70.28000 2.469
70.30000 0.575
70.32000 0.441
70.34000 1.612
70.36000 0.221
70.38000 0.372
70.40000 -1.511
70.42000 -1.891
70.44000 -0.345
70.46000 1.465
70.48000 2.818
70.50000 1.924
70.52000 2.806
70.54000 3.432
70.56000 -0.770
70.58000 1.344
70.60000 0.491
70.62000 -0.075
70.64000 1.373
70.66000 1.942
70.68000 2.242
70.70000 2.544
70.72000 2.125
70.74000 -1.087
70.76000 0.178
70.78000 1.492
70.80000 1.784
70.82000 1.455
70.84000 -1.473
70.86000 0.348
70.88000 0.935
70.90000 -0.965
70.92000 -0.102
70.94000 0.037
70.96000 3.361
70.98000 3.117
71.00000 0.145
71.02000 -0.079
71.04000 1.459
71.06000 2.306
71.08000 0.163
71.10000 1.221
71.12000 -1.392
71.14000 -2.063
71.16000 -2.024
71.18000 0.278
71.20000 0.127
71.22000 1.834
71.24000 -0.287
71.26000 1.045
71.28000 -1.002
71.30000 0.948
71.32000 2.533
71.34000 1.032
71.36000 -0.703
71.38000 -0.584
71.40000 -1.480
71.42000 1.545
71.44000 2.714
71.46000 1.247
71.48000 -1.721
71.50000 -1.366
71.52000 -0.431
71.54000 1.867
71.56000 0.793
71.58000 3.690
71.60000 3.941
71.62000 0.812
71.64000 0.445
71.66000 2.707
71.68000 4.034
71.70000 0.814
71.72000 0.609
71.74000 1.190
71.76000 0.381
71.78000 -0.385
71.80000 1.570
71.82000 3.293
71.84000 1.575
71.86000 -0.692
71.88000 1.911
71.90000 3.424
71.92000 2.435
71.94000 -0.529
71.96000 1.417
71.98000 3.142
72.00000 0.971
72.02000 2.380
72.04000 3.261
72.06000 -0.789
72.08000 1.161
72.10000 1.437
72.12000 1.694
72.14000 1.916
72.16000 -1.402
72.18000 -0.291
72.20000 4.229
72.22000 1.924
72.24000 -1.115
72.26000 -1.809
72.28000 -0.558
72.30000 0.526
72.32000 2.192
72.34000 0.841
72.36000 3.365
72.38000 5.149
72.40000 3.751
72.42000 -1.978
72.44000 -1.294
72.46000 0.543
72.48000 -1.313
72.50000 -1.000
72.52000 2.284
72.54000 0.122
72.56000 1.326
72.58000 0.886
72.60000 2.004
72.62000 2.266
72.64000 2.873
72.66000 0.838
72.68000 4.075
72.70000 4.626
72.72000 2.102
72.74000 1.679
72.76000 5.732
72.78000 2.166
72.80000 3.300
72.82000 4.282
72.84000 0.709
72.86000 0.017
72.88000 2.034
72.90000 0.552
72.92000 3.951
72.94000 3.819
72.96000 4.672
72.98000 2.656
73.00000 -0.848
73.02000 1.579
73.04000 3.428
73.06000 9.686
73.08000 6.389
73.10000 2.348
73.12000 1.637
73.14000 -0.097
73.16000 2.094
73.18000 3.872
73.20000 3.498
73.22000 4.544
73.24000 1.288
73.26000 5.345
73.28000 3.252
73.30000 3.911
73.32000 4.206
73.34000 5.263
73.36000 2.251
73.38000 -1.943
73.40000 0.297
73.42000 -0.079
73.44000 4.909
73.46000 3.173
73.48000 3.725
73.50000 1.847
73.52000 3.480
73.54000 3.762
73.56000 1.074
73.58000 -0.518
73.60000 2.067
73.62000 1.442
73.64000 -0.704
73.66000 -1.203
73.68000 0.031
73.70000 -1.501
73.72000 1.988
73.74000 3.036
73.76000 1.567
73.78000 4.371
73.80000 4.266
73.82000 -0.046
73.84000 -0.899
73.86000 -0.695
73.88000 0.121
73.90000 -1.256
73.92000 1.663
73.94000 0.184
73.96000 -0.647
73.98000 -1.248
74.00000 -1.772
74.02000 1.871
74.04000 0.443
74.06000 1.675
74.08000 4.977
74.10000 4.110
74.12000 1.581
74.14000 0.122
74.16000 1.732
74.18000 0.976
74.20000 0.545
74.22000 1.739
74.24000 0.033
74.26000 -0.523
74.28000 0.704
74.30000 1.713
74.32000 -1.654
74.34000 -1.370
74.36000 0.778
74.38000 2.215
74.40000 1.882
74.42000 0.924
74.44000 0.643
74.46000 -1.469
74.48000 -1.193
74.50000 0.703
74.52000 2.861
74.54000 1.903
74.56000 -1.260
74.58000 -0.269
74.60000 0.570
74.62000 1.039
74.64000 1.669
74.66000 2.096
74.68000 3.399
74.70000 0.763
74.72000 -0.215
74.74000 -0.859
74.76000 1.226
74.78000 1.874
74.80000 3.014
74.82000 0.063
74.84000 1.311
74.86000 2.561
74.88000 3.012
74.90000 3.302
74.92000 0.142
74.94000 0.245
74.96000 -0.130
74.98000 0.151
75.00000 -0.488
75.02000 -0.087
75.04000 1.955
75.06000 1.746
75.08000 1.804
75.10000 1.853
75.12000 2.461
75.14000 3.291
75.16000 2.303
75.18000 2.409
75.20000 2.677
75.22000 0.730
75.24000 0.012
75.26000 0.112
75.28000 0.921
75.30000 -1.990
75.32000 -1.221
75.34000 1.816
75.36000 1.169
75.38000 1.605
75.40000 2.417
75.42000 0.767
75.44000 0.318
75.46000 -0.088
75.48000 0.039
75.50000 -0.738
75.52000 -1.717
75.54000 1.576
75.56000 2.388
75.58000 2.885
75.60000 3.376
75.62000 -0.032
75.64000 -1.721
75.66000 2.335
75.68000 2.576
75.70000 2.958
75.72000 -0.070
75.74000 -0.727
75.76000 -1.158
75.78000 0.949
75.80000 0.157
75.82000 2.071
75.84000 1.723
75.86000 2.794
75.88000 1.147
75.90000 -0.194
75.92000 0.066
75.94000 2.048
75.96000 -0.218
75.98000 -1.934
76.00000 0.601
76.02000 0.277
76.04000 -1.831
76.06000 -0.476
76.08000 0.863
76.10000 4.016
76.12000 3.513
76.14000 0.491
76.16000 -0.655
76.18000 -0.517
76.20000 -0.515
76.22000 -2.023
76.24000 -0.271
76.26000 0.617
76.28000 3.507
76.30000 3.441
76.32000 2.487
76.34000 1.945
76.36000 0.970
76.38000 0.090
76.40000 3.068
76.42000 1.212
76.44000 -0.704
76.46000 2.043
76.48000 3.043
76.50000 1.795
76.52000 2.677
76.54000 2.255
76.56000 3.036
76.58000 1.092
76.60000 -0.048
76.62000 -0.739
76.64000 1.041
76.66000 0.676
76.68000 0.390
76.70000 1.080
76.72000 0.325
76.74000 -1.481
76.76000 0.198
76.78000 0.635
76.80000 3.882
76.82000 1.171
76.84000 -0.035
76.86000 -2.045
76.88000 0.360
76.90000 0.352
76.92000 0.792
76.94000 1.161
76.96000 2.246
76.98000 1.633
77.00000 0.899
77.02000 2.574
77.04000 3.083
77.06000 2.205
77.08000 -0.240
77.10000 1.527
77.12000 2.942
77.14000 2.890
77.16000 2.129
77.18000 2.763
77.20000 1.269
77.22000 -1.829
77.24000 -2.054
77.26000 -0.465
77.28000 0.382
77.30000 1.115
77.32000 1.699
77.34000 2.607
77.36000 -0.091
77.38000 1.286
77.40000 1.435
77.42000 -0.863
77.44000 -1.822
77.46000 0.582
77.48000 3.429
77.50000 2.551
77.52000 2.060
77.54000 2.514
77.56000 0.618
77.58000 1.564
77.60000 1.218
77.62000 0.884
77.64000 0.834
77.66000 2.807
77.68000 2.167
77.70000 1.734
77.72000 2.390
77.74000 0.096
77.76000 0.534
77.78000 3.064
77.80000 1.673
77.82000 1.695
77.84000 3.003
77.86000 3.348
77.88000 5.233
77.90000 4.718
77.92000 0.091
77.94000 3.752
77.96000 2.770
77.98000 3.642
78.00000 2.933
78.02000 4.811
78.04000 2.349
78.06000 5.754
78.08000 6.661
78.10000 5.763
78.12000 5.601
78.14000 4.134
78.16000 2.362
78.18000 4.170
78.20000 0.596
78.22000 -2.039
78.24000 0.425
78.26000 3.107
78.28000 4.118
78.30000 4.746
78.32000 3.839
78.34000 3.217
78.36000 1.853
78.38000 2.527
78.40000 2.001
78.42000 2.267
78.44000 -1.819
78.46000 3.112
78.48000 0.251
78.50000 2.195
78.52000 2.820
78.54000 4.711
78.56000 5.004
78.58000 2.883
78.60000 -0.891
78.62000 -0.394
78.64000 -1.546
78.66000 1.612
78.68000 -1.076
78.70000 -0.438
78.72000 2.578
78.74000 1.899
78.76000 4.974
78.78000 3.760
78.80000 5.898
78.82000 2.457
78.84000 4.326
78.86000 5.241
78.88000 2.935
78.90000 2.665
78.92000 1.824
78.94000 5.703
78.96000 4.100
78.98000 -1.088
79.00000 -1.082
79.02000 1.307
79.04000 2.788
79.06000 4.597
79.08000 2.873
79.10000 0.663
79.12000 3.997
79.14000 5.302
79.16000 1.481
79.18000 1.049
79.20000 4.836
79.22000 5.786
79.24000 4.452
79.26000 2.209
79.28000 2.932
79.30000 0.151
79.32000 1.806
79.34000 0.858
79.36000 4.282
79.38000 3.375
79.40000 5.221
79.42000 6.021
79.44000 5.919
79.46000 5.072
79.48000 5.883
79.50000 6.990
79.52000 6.306
79.54000 5.184
79.56000 9.460
79.58000 13.368
79.60000 11.753
79.62000 13.027
79.64000 9.482
79.66000 12.768
79.68000 11.918
79.70000 10.769
79.72000 11.535
79.74000 11.235
79.76000 9.930
79.78000 10.762
79.80000 12.409
79.82000 11.937
79.84000 9.409
79.86000 6.166
79.88000 7.465
79.90000 11.980
79.92000 11.437
79.94000 13.794
79.96000 18.310
79.98000 13.996
80.00000 14.608
80.02000 16.525
80.04000 14.227
80.06000 14.632
80.08000 15.538
80.10000 14.947
80.12000 14.561
80.14000 14.531
80.16000 15.817
80.18000 13.899
80.20000 13.641
80.22000 15.164
80.24000 18.187
80.26000 18.061
80.28000 18.491
80.30000 18.018
80.32000 18.773
80.34000 17.049
80.36000 20.661
80.38000 19.632
80.40000 14.596
80.42000 11.677
80.44000 13.353
80.46000 18.119
80.48000 14.624
80.50000 13.834
80.52000 16.844
80.54000 15.549
80.56000 11.628
80.58000 12.097
80.60000 10.263
80.62000 10.522
80.64000 14.289
80.66000 14.798
80.68000 10.638
80.70000 15.114
80.72000 16.869
80.74000 13.059
80.76000 14.310
80.78000 11.359
80.80000 8.925
80.82000 13.900
80.84000 15.141
80.86000 11.056
80.88000 8.924
80.90000 6.358
80.92000 8.245
80.94000 5.978
80.96000 6.735
80.98000 9.343
81.00000 5.964
81.02000 0.044
81.04000 3.968
81.06000 6.295
81.08000 2.961
81.10000 5.740
81.12000 5.516
81.14000 5.127
81.16000 3.448
81.18000 2.881
81.20000 6.229
81.22000 4.105
81.24000 3.151
81.26000 3.309
81.28000 1.177
81.30000 5.518
81.32000 2.504
81.34000 0.816
81.36000 4.159
81.38000 4.800
81.40000 4.818
81.42000 0.497
81.44000 0.536
81.46000 2.049
81.48000 1.958
81.50000 1.682
81.52000 2.757
81.54000 0.894
81.56000 0.885
81.58000 1.818
81.60000 3.696
81.62000 -0.245
81.64000 -2.222
81.66000 -1.319
81.68000 -1.851
81.70000 -1.326
81.72000 3.335
81.74000 7.178
81.76000 3.052
81.78000 -0.321
81.80000 0.699
81.82000 4.359
81.84000 2.082
81.86000 1.369
81.88000 -0.380
81.90000 0.096
81.92000 -0.778
81.94000 3.996
81.96000 3.207
81.98000 -1.592
82.00000 -2.226
82.02000 -0.401
82.04000 -0.481
82.06000 0.814
82.08000 0.175
82.10000 0.819
82.12000 3.484
82.14000 1.534
82.16000 0.593
82.18000 1.475
82.20000 -0.539
82.22000 0.914
82.24000 2.149
82.26000 2.579
82.28000 1.703
82.30000 0.958
82.32000 0.478
82.34000 1.919
82.36000 -2.210
82.38000 -0.035
82.40000 0.173
82.42000 -0.398
82.44000 -0.716
82.46000 -0.207
82.48000 -0.973
82.50000 -1.595
82.52000 -2.083
82.54000 0.816
82.56000 -0.058
82.58000 0.039
82.60000 1.663
82.62000 -0.220
82.64000 0.418
82.66000 -0.850
82.68000 -2.261
82.70000 1.436
82.72000 4.956
82.74000 3.414
82.76000 3.182
82.78000 1.911
82.80000 0.443
82.82000 1.460
82.84000 0.922
82.86000 -2.051
82.88000 -0.052
82.90000 5.297
82.92000 5.526
82.94000 4.283
82.96000 4.083
82.98000 5.823
83.00000 3.693
83.02000 5.450
83.04000 3.389
83.06000 6.115
83.08000 6.248
83.10000 4.048
83.12000 5.099
83.14000 6.941
83.16000 6.019
83.18000 3.345
83.20000 6.843
83.22000 11.793
83.24000 7.810
83.26000 8.860
83.28000 10.560
83.30000 10.516
83.32000 9.957
83.34000 11.803
83.36000 7.842
83.38000 10.748
83.40000 13.234
83.42000 13.534
83.44000 12.556
83.46000 13.977
83.48000 12.965
83.50000 13.681
83.52000 12.948
83.54000 14.163
83.56000 16.567
83.58000 14.975
83.60000 15.038
83.62000 16.051
83.64000 17.647
83.66000 21.431
83.68000 21.779
83.70000 24.385
83.72000 23.491
83.74000 25.374
83.76000 30.691
83.78000 26.237
83.80000 22.334
83.82000 27.902
83.84000 31.371
83.86000 32.723
83.88000 31.619
83.90000 30.617
83.92000 31.313
83.94000 27.570
83.96000 28.882
83.98000 30.228
84.00000 34.401
84.02000 36.078
84.04000 36.327
84.06000 38.165
84.08000 37.649
84.10000 38.080
84.12000 39.457
84.14000 34.142
84.16000 34.922
84.18000 40.501
84.20000 37.628
84.22000 39.506
84.24000 40.099
84.26000 39.582
84.28000 42.509
84.30000 37.256
84.32000 32.194
84.34000 34.292
84.36000 35.521
84.38000 39.608
84.40000 36.846
84.42000 34.702
84.44000 30.764
84.46000 31.655
84.48000 31.028
84.50000 29.115
84.52000 31.774
84.54000 28.277
84.56000 28.861
84.58000 23.986
84.60000 24.503
84.62000 26.852
84.64000 25.300
84.66000 22.621
84.68000 21.259
84.70000 20.322
84.72000 15.531
84.74000 17.923
84.76000 17.817
84.78000 15.125
84.80000 12.120
84.82000 13.717
84.84000 15.735
84.86000 14.173
84.88000 12.071
84.90000 10.968
84.92000 10.022
84.94000 12.956
84.96000 7.065
84.98000 6.849
85.00000 8.463
85.02000 10.604
85.04000 8.481
85.06000 5.126
85.08000 8.338
85.10000 10.259
85.12000 10.507
85.14000 5.428
85.16000 2.604
85.18000 1.706
85.20000 1.120
85.22000 2.388
85.24000 4.415
85.26000 6.012
85.28000 3.677
85.30000 2.665
85.32000 0.971
85.34000 0.775
85.36000 4.047
85.38000 4.200
85.40000 7.875
85.42000 7.741
85.44000 4.685
85.46000 2.753
85.48000 2.302
85.50000 2.260
85.52000 1.590
85.54000 0.685
85.56000 1.475
85.58000 0.041
85.60000 1.152
85.62000 0.394
85.64000 3.572
85.66000 2.181
85.68000 -1.311
85.70000 -0.127
85.72000 1.554
85.74000 1.119
85.76000 -0.934
85.78000 0.393
85.80000 0.335
85.82000 -1.666
85.84000 -2.019
85.86000 -1.786
85.88000 -1.541
85.90000 0.521
85.92000 1.763
85.94000 1.848
85.96000 3.647
85.98000 1.846
86.00000 1.650
86.02000 2.476
86.04000 3.662
86.06000 2.062
86.08000 0.608
86.10000 -0.407
86.12000 0.478
86.14000 -0.786
86.16000 0.281
86.18000 1.708
86.20000 0.158
86.22000 2.872
86.24000 2.219
86.26000 2.285
86.28000 1.282
86.30000 -0.184
86.32000 -0.561
86.34000 -0.674
86.36000 1.719
86.38000 4.263
86.40000 5.041
86.42000 3.423
86.44000 -0.074
86.46000 -1.665
86.48000 -1.398
86.50000 -1.956
86.52000 -0.428
86.54000 0.045
86.56000 0.289
86.58000 0.894
86.60000 1.659
86.62000 2.592
86.64000 1.222
86.66000 -0.445
86.68000 0.536
86.70000 6.548
86.72000 2.423
86.74000 -0.536
86.76000 1.068
86.78000 -0.189
86.80000 2.284
86.82000 -1.628
86.84000 -1.752
86.86000 2.827
86.88000 2.436
86.90000 0.342
86.92000 2.188
86.94000 2.783
86.96000 1.793
86.98000 -1.759
87.00000 -0.413
87.02000 0.854
87.04000 1.601
87.06000 0.294
87.08000 -1.242
87.10000 0.143
87.12000 0.805
87.14000 3.309
87.16000 2.727
87.18000 0.727
87.20000 1.698
87.22000 1.545
87.24000 2.613
87.26000 2.868
87.28000 2.811
87.30000 2.640
87.32000 0.825
87.34000 -1.874
87.36000 -0.100
87.38000 0.757
87.40000 2.126
87.42000 2.285
87.44000 2.362
87.46000 4.463
87.48000 5.059
87.50000 4.350
87.52000 4.349
87.54000 3.279
87.56000 2.839
87.58000 4.253
87.60000 2.139
87.62000 0.656
87.64000 2.012
87.66000 2.536
87.68000 0.537
87.70000 0.940
87.72000 2.482
87.74000 2.461
87.76000 4.792
87.78000 3.131
87.80000 4.528
87.82000 3.578
87.84000 2.417
87.86000 1.261
87.88000 2.303
87.90000 -0.996
87.92000 0.762
87.94000 0.576
87.96000 2.226
87.98000 1.051
88.00000 0.283
88.02000 1.443
88.04000 -0.406
88.06000 -0.728
88.08000 0.634
88.10000 3.636
88.12000 2.044
88.14000 0.582
88.16000 4.757
88.18000 -0.343
88.20000 1.547
88.22000 1.144
88.24000 1.293
88.26000 0.861
88.28000 1.922
88.30000 0.233
88.32000 2.167
88.34000 1.387
88.36000 1.062
88.38000 1.251
88.40000 2.409
88.42000 5.006
88.44000 0.310
88.46000 0.488
88.48000 0.019
88.50000 -0.241
88.52000 -0.490
88.54000 1.806
88.56000 2.352
88.58000 0.176
88.60000 0.831
88.62000 2.013
88.64000 3.548
88.66000 1.594
88.68000 1.224
88.70000 -1.575
88.72000 0.786
88.74000 1.275
88.76000 1.575
88.78000 1.051
88.80000 0.680
88.82000 0.116
88.84000 0.072
88.86000 1.460
88.88000 4.202
88.90000 5.440
88.92000 5.082
88.94000 2.430
88.96000 4.585
88.98000 4.236
89.00000 2.373
89.02000 3.107
89.04000 4.981
89.06000 2.601
89.08000 1.002
89.10000 -1.835
89.12000 1.311
89.14000 -0.055
89.16000 3.275
89.18000 5.271
89.20000 2.068
89.22000 1.420
89.24000 3.750
89.26000 4.195
89.28000 3.642
89.30000 5.768
89.32000 3.827
89.34000 4.328
89.36000 4.717
89.38000 2.804
89.40000 3.082
89.42000 1.342
89.44000 3.245
89.46000 4.402
89.48000 1.886
89.50000 1.771
89.52000 1.733
89.54000 3.804
89.56000 -1.046
89.58000 -0.241
89.60000 1.064
89.62000 1.039
89.64000 4.717
89.66000 1.493
89.68000 5.556
89.70000 6.279
89.72000 5.221
89.74000 5.074
89.76000 4.687
89.78000 2.155
89.80000 0.026
89.82000 2.059
89.84000 2.098
89.86000 6.174
89.88000 4.925
89.90000 2.039
89.92000 -1.838
89.94000 -1.791
89.96000 -0.802
89.98000 1.841
90.00000 2.452
90.02000 1.015
90.04000 1.250
90.06000 0.227
90.08000 -0.009
90.10000 2.830
90.12000 3.077
90.14000 2.217
90.16000 4.052
90.18000 0.820
90.20000 3.538
90.22000 0.301
90.24000 2.687
90.26000 4.404
90.28000 1.592
90.30000 1.343
90.32000 -0.713
90.34000 2.202
90.36000 7.467
90.38000 3.733
90.40000 3.406
90.42000 2.703
90.44000 1.796
90.46000 2.952
90.48000 3.121
90.50000 -0.026
90.52000 0.497
90.54000 2.024
90.56000 2.880
90.58000 3.103
90.60000 6.201
90.62000 5.135
90.64000 4.852
90.66000 7.544
90.68000 3.307
90.70000 6.000
90.72000 5.714
90.74000 4.987
90.76000 3.066
90.78000 3.595
90.80000 1.316
90.82000 1.407
90.84000 0.340
90.86000 -1.833
90.88000 -0.071
90.90000 -0.060
90.92000 0.254
90.94000 0.472
90.96000 3.005
90.98000 0.353
91.00000 1.270
91.02000 2.511
91.04000 1.358
91.06000 3.718
91.08000 1.435
91.10000 1.151
91.12000 1.232
91.14000 1.611
91.16000 5.217
91.18000 1.562
91.20000 3.842
91.22000 3.645
91.24000 0.620
91.26000 2.865
91.28000 2.773
91.30000 4.199
91.32000 3.396
91.34000 0.396
91.36000 3.212
91.38000 1.442
91.40000 2.079
91.42000 2.090
91.44000 1.584
91.46000 -0.358
91.48000 5.300
91.50000 5.604
91.52000 1.959
91.54000 -0.590
91.56000 1.698
91.58000 2.395
91.60000 2.750
91.62000 2.115
91.64000 -1.146
91.66000 0.400
91.68000 1.528
91.70000 2.932
91.72000 2.382
91.74000 -0.471
91.76000 -1.439
91.78000 0.750
91.80000 2.244
91.82000 0.295
91.84000 -1.404
91.86000 3.274
91.88000 2.196
91.90000 1.388
91.92000 -0.792
91.94000 -1.862
91.96000 0.855
91.98000 3.910
92.00000 1.832
92.02000 2.515
92.04000 2.690
92.06000 5.117
92.08000 4.934
92.10000 1.181
92.12000 1.174
92.14000 0.462
92.16000 1.269
92.18000 1.143
92.20000 0.350
92.22000 2.122
92.24000 0.292
92.26000 2.245
92.28000 3.618
92.30000 2.426
92.32000 1.018
92.34000 2.074
92.36000 2.331
92.38000 2.878
92.40000 1.850
92.42000 2.320
92.44000 3.616
92.46000 3.094
92.48000 -1.208
92.50000 -0.803
92.52000 4.040
92.54000 2.493
92.56000 1.137
92.58000 5.228
92.60000 5.572
92.62000 3.331
92.64000 5.012
92.66000 2.571
92.68000 -0.301
92.70000 0.364
92.72000 0.893
92.74000 -1.836
92.76000 3.542
92.78000 5.719
92.80000 4.605
92.82000 5.964
92.84000 3.857
92.86000 6.105
92.88000 4.867
92.90000 3.004
92.92000 4.618
92.94000 7.290
92.96000 5.336
92.98000 3.111
93.00000 5.751
93.02000 5.911
93.04000 6.669
93.06000 5.647
93.08000 6.326
93.10000 0.504
93.12000 0.395
93.14000 -1.812
93.16000 4.764
93.18000 4.003
93.20000 3.744
93.22000 6.072
93.24000 6.066
93.26000 4.962
93.28000 3.942
93.30000 2.682
93.32000 2.746
93.34000 4.908
93.36000 5.101
93.38000 4.658
93.40000 2.494
93.42000 0.467
93.44000 2.267
93.46000 5.802
93.48000 9.562
93.50000 2.043
93.52000 4.036
93.54000 3.253
93.56000 2.061
93.58000 4.852
93.60000 5.736
93.62000 5.878
93.64000 5.933
93.66000 1.931
93.68000 1.231
93.70000 0.668
93.72000 0.124
93.74000 0.017
93.76000 3.779
93.78000 4.455
93.80000 2.977
93.82000 3.568
93.84000 -0.887
93.86000 0.728
93.88000 -1.017
93.90000 3.382
93.92000 6.019
93.94000 6.763
93.96000 5.736
93.98000 4.042
94.00000 1.230
94.02000 0.956
94.04000 4.962
94.06000 6.881
94.08000 4.331
94.10000 2.396
94.12000 4.737
94.14000 1.315
94.16000 3.921
94.18000 1.492
94.20000 0.556
94.22000 1.979
94.24000 3.005
94.26000 0.421
94.28000 2.758
94.30000 2.299
94.32000 2.447
94.34000 3.068
94.36000 4.211
94.38000 2.030
94.40000 2.673
94.42000 2.970
94.44000 1.685
94.46000 2.748
94.48000 2.740
94.50000 3.381
94.52000 2.454
94.54000 2.948
94.56000 0.685
94.58000 -1.501
94.60000 -1.877
94.62000 0.596
94.64000 0.861
94.66000 2.045
94.68000 -0.710
94.70000 -0.871
94.72000 2.817
94.74000 2.081
94.76000 1.657
94.78000 1.400
94.80000 1.294
94.82000 0.771
94.84000 -0.536
94.86000 1.307
94.88000 1.544
94.90000 1.463
94.92000 1.698
94.94000 1.004
94.96000 0.652
94.98000 0.878
95.00000 3.031
95.02000 2.726
95.04000 2.072
95.06000 0.880
95.08000 5.529
95.10000 5.529
95.12000 5.026
95.14000 6.415
95.16000 2.705
95.18000 1.102
95.20000 1.037
95.22000 3.113
95.24000 0.117
95.26000 2.563
95.28000 0.399
95.30000 1.644
95.32000 0.167
95.34000 -0.975
95.36000 3.018
95.38000 7.705
95.40000 3.485
95.42000 4.644
95.44000 1.236
95.46000 1.027
95.48000 4.126
95.50000 3.695
95.52000 4.383
95.54000 2.968
95.56000 3.551
95.58000 2.764
95.60000 -0.613
95.62000 2.452
95.64000 0.972
95.66000 1.248
95.68000 3.759
95.70000 5.699
95.72000 4.749
95.74000 -0.614
95.76000 2.882
95.78000 7.536
95.80000 0.328
95.82000 -1.870
95.84000 2.921
95.86000 4.000
95.88000 4.006
95.90000 0.780
95.92000 2.542
95.94000 1.004
95.96000 0.457
95.98000 1.555
96.00000 0.959
96.02000 -1.296
96.04000 1.542
96.06000 5.142
96.08000 -1.867
96.10000 1.453
96.12000 5.935
96.14000 2.905
96.16000 3.531
96.18000 3.614
96.20000 3.382
96.22000 1.553
96.24000 4.596
96.26000 3.892
96.28000 2.703
96.30000 1.932
96.32000 -0.014
96.34000 2.865
96.36000 5.280
96.38000 2.485
96.40000 3.930
96.42000 1.693
96.44000 -1.128
96.46000 2.475
96.48000 1.786
96.50000 2.276
96.52000 2.757
96.54000 2.646
96.56000 1.086
96.58000 1.603
96.60000 -1.860
96.62000 0.505
96.64000 1.104
96.66000 3.169
96.68000 4.771
96.70000 1.064
96.72000 5.311
96.74000 4.321
96.76000 3.971
96.78000 2.413
96.80000 3.772
96.82000 5.564
96.84000 5.776
96.86000 5.784
96.88000 2.984
96.90000 1.268
96.92000 1.294
96.94000 0.791
96.96000 0.834
96.98000 1.393
97.00000 0.751
97.02000 2.529
97.04000 3.054
97.06000 5.059
97.08000 5.985
97.10000 4.743
97.12000 0.979
97.14000 0.381
97.16000 0.351
97.18000 -0.800
97.20000 3.851
97.22000 4.446
97.24000 2.330
97.26000 1.804
97.28000 4.270
97.30000 1.256
97.32000 0.906
97.34000 1.678
97.36000 5.455
97.38000 2.031
97.40000 0.252
97.42000 4.103
97.44000 5.050
97.46000 2.029
97.48000 0.679
97.50000 5.223
97.52000 5.576
97.54000 1.495
97.56000 -0.021
97.58000 -0.675
97.60000 2.065
97.62000 1.497
97.64000 2.057
97.66000 2.780
97.68000 1.531
97.70000 2.005
97.72000 6.299
97.74000 3.891
97.76000 0.040
97.78000 2.126
97.80000 1.920
97.82000 0.757
97.84000 -1.852
97.86000 0.881
97.88000 5.818
97.90000 5.172
97.92000 2.892
97.94000 3.683
97.96000 6.617
97.98000 2.710
98.00000 1.100
98.02000 4.501
98.04000 3.970
98.06000 4.178
98.08000 6.096
98.10000 7.827
98.12000 5.150
98.14000 2.263
98.16000 6.963
98.18000 4.431
98.20000 4.645
98.22000 1.732
98.24000 4.641
98.26000 4.280
98.28000 3.473
98.30000 8.059
98.32000 7.258
98.34000 3.134
98.36000 2.148
98.38000 2.330
98.40000 -0.340
98.42000 3.353
98.44000 0.071
98.46000 -0.666
98.48000 5.810
98.50000 7.236
98.52000 4.022
98.54000 1.674
98.56000 4.310
98.58000 5.884
98.60000 4.277
98.62000 5.858
98.64000 5.692
98.66000 3.562
98.68000 4.057
98.70000 1.467
98.72000 -1.809
98.74000 1.507
98.76000 1.499
98.78000 3.773
98.80000 3.901
98.82000 0.527
98.84000 2.050
98.86000 2.252
98.88000 2.163
98.90000 1.270
98.92000 4.914
98.94000 2.332
98.96000 3.423
98.98000 6.294
99.00000 4.477
99.02000 4.792
99.04000 5.727
99.06000 4.276
99.08000 2.223
99.10000 3.926
99.12000 0.439
99.14000 6.389
99.16000 10.558
99.18000 4.310
99.20000 4.163
99.22000 1.287
99.24000 4.098
99.26000 3.198
99.28000 4.350
99.30000 9.831
99.32000 5.901
99.34000 -1.571
99.36000 2.272
99.38000 3.222
99.40000 2.475
99.42000 4.099
99.44000 3.383
99.46000 7.369
99.48000 8.845
99.50000 11.436
99.52000 9.078
99.54000 9.700
99.56000 5.182
99.58000 13.437
99.60000 12.965
99.62000 9.733
99.64000 6.235
99.66000 8.677
99.68000 6.676
99.70000 -1.758
99.72000 1.047
99.74000 5.418
99.76000 6.793
99.78000 2.713
99.80000 2.077
99.82000 4.245
99.84000 4.880
99.86000 3.390
99.88000 1.237
99.90000 -3.199
99.92000 5.277
99.94000 6.360
99.96000 8.669
99.98000 0.000
