'Id: "0011387" Comment: "Integrate frame 0011387_Au-Ir-Rh_Rh-rich_XRD-Mapping-316-0000.gfrmwith cursor Wedge Cursor #5" Operator: "B?rgel" Anode: "Cu" Wavelength: "1.5406" Scantype: "2Theta (TwoTheta)" TimePerStep: "1" X: "-4.5" Y: "36" Z: "5.95" 
10.00000 0.000
10.02000 11.590
10.04000 -4.353
10.06000 0.168
10.08000 12.174
10.10000 20.622
10.12000 39.388
10.14000 24.859
10.16000 7.092
10.18000 -0.052
10.20000 18.729
10.22000 11.272
10.24000 3.976
10.26000 18.871
10.28000 16.019
10.30000 26.231
10.32000 32.207
10.34000 28.147
10.36000 28.448
10.38000 11.283
10.40000 19.251
10.42000 21.625
10.44000 12.140
10.46000 8.620
10.48000 -4.373
10.50000 2.005
10.52000 20.342
10.54000 12.519
10.56000 15.045
10.58000 29.538
10.60000 12.557
10.62000 15.922
10.64000 10.124
10.66000 8.210
10.68000 9.097
10.70000 2.599
10.72000 5.811
10.74000 0.507
10.76000 4.642
10.78000 14.471
10.80000 7.513
10.82000 9.745
10.84000 6.945
10.86000 13.508
10.88000 14.226
10.90000 18.709
10.92000 18.983
10.94000 16.847
10.96000 13.712
10.98000 2.321
11.00000 15.524
11.02000 27.805
11.04000 19.309
11.06000 21.205
11.08000 24.657
11.10000 12.185
11.12000 15.554
11.14000 12.491
11.16000 10.573
11.18000 12.221
11.20000 14.508
11.22000 23.424
11.24000 11.185
11.26000 20.745
11.28000 24.376
11.30000 19.495
11.32000 8.023
11.34000 8.820
11.36000 7.315
11.38000 18.390
11.40000 29.907
11.42000 20.017
11.44000 8.952
11.46000 2.525
11.48000 7.204
11.50000 7.178
11.52000 6.661
11.54000 6.273
11.56000 4.426
11.58000 -4.432
11.60000 12.919
11.62000 10.950
11.64000 7.270
11.66000 8.221
11.68000 20.530
11.70000 17.531
11.72000 14.696
11.74000 20.817
11.76000 16.866
11.78000 18.323
11.80000 8.759
11.82000 5.129
11.84000 13.255
11.86000 6.543
11.88000 4.981
11.90000 12.446
11.92000 10.357
11.94000 5.885
11.96000 16.754
11.98000 16.513
12.00000 12.172
12.02000 6.182
12.04000 11.291
12.06000 15.008
12.08000 16.778
12.10000 13.565
12.12000 12.978
12.14000 19.071
12.16000 22.712
12.18000 20.442
12.20000 12.169
12.22000 10.350
12.24000 7.414
12.26000 7.891
12.28000 15.798
12.30000 22.201
12.32000 24.733
12.34000 6.600
12.36000 4.240
12.38000 8.078
12.40000 11.443
12.42000 20.657
12.44000 5.861
12.46000 16.179
12.48000 23.675
12.50000 24.425
12.52000 19.273
12.54000 19.201
12.56000 18.516
12.58000 19.485
12.60000 19.755
12.62000 17.909
12.64000 9.364
12.66000 2.967
12.68000 10.371
12.70000 0.245
12.72000 13.459
12.74000 15.859
12.76000 11.092
12.78000 15.830
12.80000 22.018
12.82000 19.225
12.84000 5.284
12.86000 8.229
12.88000 11.079
12.90000 19.504
12.92000 23.452
12.94000 12.451
12.96000 17.754
12.98000 15.404
13.00000 9.961
13.02000 13.705
13.04000 7.161
13.06000 11.341
13.08000 7.782
13.10000 2.725
13.12000 15.677
13.14000 21.417
13.16000 16.463
13.18000 13.123
13.20000 12.799
13.22000 11.561
13.24000 14.565
13.26000 10.517
13.28000 8.174
13.30000 -0.018
13.32000 10.422
13.34000 8.539
13.36000 13.021
13.38000 11.742
13.40000 17.023
13.42000 17.924
13.44000 10.308
13.46000 8.540
13.48000 11.422
13.50000 11.782
13.52000 13.640
13.54000 11.532
13.56000 6.192
13.58000 21.739
13.60000 18.070
13.62000 10.913
13.64000 17.634
13.66000 6.109
13.68000 14.696
13.70000 13.209
13.72000 5.422
13.74000 5.743
13.76000 10.574
13.78000 20.649
13.80000 20.237
13.82000 18.300
13.84000 9.737
13.86000 17.691
13.88000 15.505
13.90000 14.809
13.92000 23.451
13.94000 14.423
13.96000 7.305
13.98000 3.632
14.00000 15.380
14.02000 17.091
14.04000 15.208
14.06000 16.511
14.08000 15.403
14.10000 13.475
14.12000 15.535
14.14000 10.020
14.16000 5.270
14.18000 11.392
14.20000 19.210
14.22000 16.324
14.24000 15.871
14.26000 19.400
14.28000 13.137
14.30000 7.016
14.32000 0.743
14.34000 7.034
14.36000 11.712
14.38000 16.709
14.40000 12.907
14.42000 11.984
14.44000 11.321
14.46000 9.692
14.48000 9.474
14.50000 17.081
14.52000 20.925
14.54000 12.288
14.56000 14.263
14.58000 16.797
14.60000 2.633
14.62000 -4.437
14.64000 5.039
14.66000 19.629
14.68000 12.116
14.70000 4.423
14.72000 15.383
14.74000 20.757
14.76000 30.681
14.78000 23.851
14.80000 10.622
14.82000 19.015
14.84000 25.411
14.86000 11.225
14.88000 13.416
14.90000 6.614
14.92000 5.026
14.94000 6.319
14.96000 11.718
14.98000 6.108
15.00000 8.439
15.02000 7.058
15.04000 11.206
15.06000 10.296
15.08000 8.404
15.10000 4.318
15.12000 19.853
15.14000 16.369
15.16000 6.119
15.18000 10.403
15.20000 5.468
15.22000 1.437
15.24000 5.827
15.26000 15.363
15.28000 8.232
15.30000 3.622
15.32000 10.137
15.34000 -3.424
15.36000 6.691
15.38000 9.954
15.40000 7.281
15.42000 1.898
15.44000 4.635
15.46000 8.870
15.48000 5.144
15.50000 5.963
15.52000 10.016
15.54000 12.497
15.56000 1.348
15.58000 -1.212
15.60000 1.513
15.62000 1.373
15.64000 9.598
15.66000 8.218
15.68000 8.084
15.70000 8.463
15.72000 9.488
15.74000 7.795
15.76000 14.309
15.78000 13.339
15.80000 0.977
15.82000 7.326
15.84000 6.985
15.86000 4.492
15.88000 5.255
15.90000 4.361
15.92000 4.134
15.94000 3.263
15.96000 3.696
15.98000 12.088
16.00000 8.111
16.02000 6.320
16.04000 4.287
16.06000 -2.569
16.08000 9.270
16.10000 8.777
16.12000 0.270
16.14000 2.048
16.16000 -0.543
16.18000 4.335
16.20000 4.024
16.22000 6.157
16.24000 4.276
16.26000 8.973
16.28000 9.548
16.30000 14.236
16.32000 13.266
16.34000 15.701
16.36000 14.168
16.38000 10.455
16.40000 7.172
16.42000 4.580
16.44000 -0.848
16.46000 3.199
16.48000 8.064
16.50000 3.205
16.52000 5.103
16.54000 6.822
16.56000 6.155
16.58000 11.813
16.60000 3.634
16.62000 1.535
16.64000 6.200
16.66000 4.236
16.68000 5.058
16.70000 11.570
16.72000 10.439
16.74000 9.051
16.76000 5.628
16.78000 1.323
16.80000 1.527
16.82000 5.094
16.84000 3.897
16.86000 6.711
16.88000 5.510
16.90000 4.736
16.92000 8.449
16.94000 6.521
16.96000 6.836
16.98000 6.463
17.00000 4.507
17.02000 1.565
17.04000 5.356
17.06000 8.329
17.08000 11.166
17.10000 2.738
17.12000 3.429
17.14000 0.853
17.16000 -3.674
17.18000 5.592
17.20000 2.879
17.22000 0.877
17.24000 1.706
17.26000 1.083
17.28000 5.849
17.30000 6.401
17.32000 5.530
17.34000 3.230
17.36000 7.102
17.38000 10.931
17.40000 0.564
17.42000 2.595
17.44000 6.983
17.46000 4.873
17.48000 -4.412
17.50000 -2.849
17.52000 6.014
17.54000 1.346
17.56000 4.423
17.58000 12.724
17.60000 13.690
17.62000 4.293
17.64000 0.902
17.66000 1.829
17.68000 0.136
17.70000 -2.750
17.72000 2.983
17.74000 5.711
17.76000 7.184
17.78000 4.588
17.80000 2.892
17.82000 -1.961
17.84000 2.504
17.86000 -0.738
17.88000 5.860
17.90000 3.342
17.92000 6.365
17.94000 5.898
17.96000 2.431
17.98000 9.858
18.00000 7.076
18.02000 8.586
18.04000 10.279
18.06000 6.988
18.08000 3.075
18.10000 4.417
18.12000 6.703
18.14000 6.109
18.16000 -2.004
18.18000 -1.989
18.20000 -1.133
18.22000 -4.373
18.24000 -2.947
18.26000 -4.340
18.28000 0.673
18.30000 9.643
18.32000 8.784
18.34000 1.138
18.36000 6.689
18.38000 5.563
18.40000 10.515
18.42000 12.252
18.44000 5.436
18.46000 -0.511
18.48000 -0.494
18.50000 6.652
18.52000 10.051
18.54000 6.790
18.56000 7.276
18.58000 0.798
18.60000 0.893
18.62000 -3.010
18.64000 -3.095
18.66000 4.042
18.68000 4.503
18.70000 1.991
18.72000 -0.869
18.74000 2.532
18.76000 3.116
18.78000 2.846
18.80000 3.272
18.82000 8.537
18.84000 7.633
18.86000 7.880
18.88000 8.256
18.90000 2.729
18.92000 4.727
18.94000 9.309
18.96000 4.027
18.98000 4.230
19.00000 6.605
19.02000 3.729
19.04000 3.395
19.06000 6.457
19.08000 11.826
19.10000 4.513
19.12000 -4.312
19.14000 0.103
19.16000 0.711
19.18000 2.098
19.20000 1.285
19.22000 -0.043
19.24000 -2.461
19.26000 1.348
19.28000 0.246
19.30000 -2.232
19.32000 -1.422
19.34000 1.051
19.36000 2.602
19.38000 4.257
19.40000 4.857
19.42000 11.576
19.44000 8.877
19.46000 1.775
19.48000 7.593
19.50000 6.308
19.52000 4.508
19.54000 -3.063
19.56000 0.722
19.58000 3.180
19.60000 3.690
19.62000 -3.266
19.64000 0.318
19.66000 8.755
19.68000 5.858
19.70000 -0.643
19.72000 2.497
19.74000 5.645
19.76000 -2.816
19.78000 -1.256
19.80000 -1.763
19.82000 2.464
19.84000 3.063
19.86000 -0.006
19.88000 5.946
19.90000 7.387
19.92000 4.586
19.94000 0.589
19.96000 1.809
19.98000 7.728
20.00000 4.060
20.02000 0.681
20.04000 6.211
20.06000 6.644
20.08000 9.671
20.10000 11.841
20.12000 10.027
20.14000 5.838
20.16000 8.870
20.18000 4.780
20.20000 5.531
20.22000 9.030
20.24000 8.571
20.26000 5.884
20.28000 7.385
20.30000 5.414
20.32000 4.592
20.34000 6.632
20.36000 -0.202
20.38000 4.326
20.40000 13.245
20.42000 7.568
20.44000 5.386
20.46000 8.769
20.48000 11.790
20.50000 13.541
20.52000 12.194
20.54000 10.515
20.56000 16.178
20.58000 10.698
20.60000 12.735
20.62000 14.525
20.64000 9.014
20.66000 7.756
20.68000 11.095
20.70000 1.842
20.72000 -4.179
20.74000 3.612
20.76000 4.177
20.78000 3.029
20.80000 4.867
20.82000 4.533
20.84000 1.891
20.86000 8.890
20.88000 11.119
20.90000 4.146
20.92000 5.465
20.94000 5.606
20.96000 11.567
20.98000 13.361
21.00000 9.116
21.02000 8.309
21.04000 12.543
21.06000 13.620
21.08000 11.668
21.10000 7.706
21.12000 6.080
21.14000 2.395
21.16000 4.410
21.18000 5.338
21.20000 8.652
21.22000 2.347
21.24000 1.994
21.26000 7.553
21.28000 12.527
21.30000 4.479
21.32000 5.723
21.34000 10.348
21.36000 7.630
21.38000 5.570
21.40000 13.520
21.42000 12.376
21.44000 1.069
21.46000 1.578
21.48000 8.573
21.50000 5.339
21.52000 4.215
21.54000 7.511
21.56000 11.927
21.58000 5.541
21.60000 9.471
21.62000 18.401
21.64000 9.264
21.66000 2.713
21.68000 7.101
21.70000 8.128
21.72000 9.508
21.74000 4.231
21.76000 8.211
21.78000 5.927
21.80000 10.088
21.82000 3.165
21.84000 5.065
21.86000 0.854
21.88000 7.764
21.90000 9.995
21.92000 12.267
21.94000 7.604
21.96000 4.903
21.98000 7.601
22.00000 4.961
22.02000 6.480
22.04000 3.633
22.06000 5.124
22.08000 -0.610
22.10000 7.285
22.12000 12.295
22.14000 7.727
22.16000 3.050
22.18000 3.171
22.20000 11.678
22.22000 11.400
22.24000 5.922
22.26000 1.952
22.28000 4.339
22.30000 2.492
22.32000 -3.940
22.34000 -4.122
22.36000 2.097
22.38000 -0.443
22.40000 7.824
22.42000 6.730
22.44000 8.707
22.46000 9.235
22.48000 5.795
22.50000 7.888
22.52000 5.293
22.54000 6.104
22.56000 2.770
22.58000 2.515
22.60000 8.600
22.62000 10.052
22.64000 7.169
22.66000 6.665
22.68000 1.579
22.70000 2.016
22.72000 1.570
22.74000 10.641
22.76000 3.667
22.78000 3.974
22.80000 5.754
22.82000 8.881
22.84000 11.867
22.86000 5.924
22.88000 8.354
22.90000 13.079
22.92000 9.617
22.94000 0.860
22.96000 4.599
22.98000 10.824
23.00000 5.674
23.02000 -4.085
23.04000 4.575
23.06000 3.504
23.08000 1.051
23.10000 4.500
23.12000 6.225
23.14000 8.941
23.16000 -1.689
23.18000 1.500
23.20000 1.992
23.22000 2.647
23.24000 8.351
23.26000 10.943
23.28000 8.960
23.30000 2.947
23.32000 1.513
23.34000 -0.334
23.36000 9.967
23.38000 3.179
23.40000 4.064
23.42000 3.909
23.44000 1.284
23.46000 0.000
23.48000 3.816
23.50000 4.737
23.52000 4.283
23.54000 6.307
23.56000 7.522
23.58000 0.592
23.60000 -0.481
23.62000 1.313
23.64000 6.617
23.66000 10.239
23.68000 11.817
23.70000 10.912
23.72000 5.385
23.74000 5.127
23.76000 11.920
23.78000 -0.406
23.80000 -3.529
23.82000 3.798
23.84000 5.134
23.86000 4.005
23.88000 3.699
23.90000 -0.971
23.92000 0.058
23.94000 1.242
23.96000 1.409
23.98000 3.823
24.00000 10.379
24.02000 4.079
24.04000 1.612
24.06000 10.893
24.08000 9.309
24.10000 5.567
24.12000 6.722
24.14000 4.144
24.16000 -0.395
24.18000 1.068
24.20000 1.456
24.22000 1.016
24.24000 -4.022
24.26000 1.967
24.28000 6.019
24.30000 5.461
24.32000 -1.034
24.34000 -2.202
24.36000 4.799
24.38000 9.181
24.40000 10.569
24.42000 11.699
24.44000 6.662
24.46000 3.711
24.48000 2.745
24.50000 4.101
24.52000 -3.444
24.54000 3.003
24.56000 5.352
24.58000 -1.348
24.60000 -4.007
24.62000 -3.556
24.64000 2.653
24.66000 6.981
24.68000 4.008
24.70000 6.126
24.72000 5.870
24.74000 1.029
24.76000 2.527
24.78000 3.287
24.80000 1.604
24.82000 -0.090
24.84000 0.878
24.86000 -0.190
24.88000 1.764
24.90000 6.769
24.92000 5.423
24.94000 3.472
24.96000 4.190
24.98000 7.354
25.00000 4.104
25.02000 5.643
25.04000 4.480
25.06000 2.928
25.08000 -1.228
25.10000 1.283
25.12000 1.902
25.14000 2.363
25.16000 1.263
25.18000 1.383
25.20000 1.128
25.22000 6.322
25.24000 7.560
25.26000 2.227
25.28000 -2.908
25.30000 -1.366
25.32000 0.591
25.34000 -3.678
25.36000 -3.347
25.38000 2.040
25.40000 4.777
25.42000 5.229
25.44000 2.269
25.46000 3.992
25.48000 3.515
25.50000 4.571
25.52000 2.420
25.54000 0.397
25.56000 1.575
25.58000 2.926
25.60000 5.328
25.62000 0.994
25.64000 -0.801
25.66000 -3.883
25.68000 -3.955
25.70000 1.140
25.72000 2.990
25.74000 6.399
25.76000 1.453
25.78000 3.434
25.80000 6.063
25.82000 2.334
25.84000 -0.973
25.86000 -1.970
25.88000 -0.805
25.90000 0.631
25.92000 1.868
25.94000 1.281
25.96000 0.718
25.98000 5.388
26.00000 9.057
26.02000 4.420
26.04000 -3.886
26.06000 1.677
26.08000 4.409
26.10000 -0.899
26.12000 2.338
26.14000 1.921
26.16000 4.180
26.18000 5.921
26.20000 4.600
26.22000 9.528
26.24000 8.411
26.26000 9.193
26.28000 8.926
26.30000 3.755
26.32000 7.628
26.34000 4.762
26.36000 4.663
26.38000 8.506
26.40000 8.454
26.42000 1.874
26.44000 0.201
26.46000 -2.340
26.48000 -3.885
26.50000 -2.866
26.52000 0.770
26.54000 8.119
26.56000 7.322
26.58000 6.209
26.60000 4.406
26.62000 4.831
26.64000 6.795
26.66000 7.363
26.68000 4.177
26.70000 1.352
26.72000 3.717
26.74000 5.405
26.76000 8.930
26.78000 2.543
26.80000 7.011
26.82000 4.564
26.84000 4.809
26.86000 4.810
26.88000 2.077
26.90000 5.302
26.92000 2.368
26.94000 -0.611
26.96000 4.196
26.98000 4.049
27.00000 11.698
27.02000 6.309
27.04000 1.920
27.06000 7.902
27.08000 6.365
27.10000 3.130
27.12000 0.022
27.14000 3.773
27.16000 6.311
27.18000 3.749
27.20000 -0.240
27.22000 -1.879
27.24000 1.114
27.26000 2.920
27.28000 6.816
27.30000 8.098
27.32000 0.762
27.34000 1.258
27.36000 6.411
27.38000 1.798
27.40000 1.669
27.42000 6.845
27.44000 2.517
27.46000 0.847
27.48000 0.869
27.50000 4.823
27.52000 9.279
27.54000 9.475
27.56000 7.215
27.58000 4.278
27.60000 -1.591
27.62000 2.867
27.64000 5.869
27.66000 4.016
27.68000 4.271
27.70000 7.507
27.72000 7.031
27.74000 7.880
27.76000 5.843
27.78000 1.870
27.80000 1.455
27.82000 8.879
27.84000 3.081
27.86000 2.230
27.88000 1.472
27.90000 3.612
27.92000 5.341
27.94000 -0.214
27.96000 0.919
27.98000 1.300
28.00000 1.953
28.02000 3.261
28.04000 3.246
28.06000 4.822
28.08000 2.573
28.10000 6.339
28.12000 9.796
28.14000 7.990
28.16000 8.648
28.18000 5.530
28.20000 6.085
28.22000 4.506
28.24000 4.332
28.26000 10.720
28.28000 9.610
28.30000 2.809
28.32000 -3.806
28.34000 0.032
28.36000 -0.635
28.38000 -0.399
28.40000 -0.417
28.42000 2.548
28.44000 4.345
28.46000 5.579
28.48000 3.918
28.50000 -0.641
28.52000 4.613
28.54000 0.356
28.56000 -1.900
28.58000 4.437
28.60000 5.903
28.62000 7.080
28.64000 9.620
28.66000 7.426
28.68000 3.368
28.70000 7.257
28.72000 6.480
28.74000 3.139
28.76000 3.259
28.78000 3.536
28.80000 5.085
28.82000 11.961
28.84000 7.885
28.86000 3.987
28.88000 -0.089
28.90000 5.959
28.92000 4.128
28.94000 4.681
28.96000 6.506
28.98000 8.709
29.00000 6.521
29.02000 -1.524
29.04000 -3.743
29.06000 0.932
29.08000 9.160
29.10000 8.738
29.12000 6.248
29.14000 1.082
29.16000 7.095
29.18000 3.657
29.20000 1.902
29.22000 2.845
29.24000 3.321
29.26000 3.537
29.28000 1.597
29.30000 -1.687
29.32000 3.571
29.34000 2.445
29.36000 5.732
29.38000 5.016
29.40000 7.288
29.42000 4.569
29.44000 6.033
29.46000 5.101
29.48000 1.443
29.50000 6.612
29.52000 11.042
29.54000 4.064
29.56000 0.728
29.58000 4.961
29.60000 7.594
29.62000 2.259
29.64000 5.716
29.66000 7.737
29.68000 7.106
29.70000 5.734
29.72000 1.240
29.74000 1.644
29.76000 0.676
29.78000 3.518
29.80000 5.474
29.82000 4.388
29.84000 8.755
29.86000 6.661
29.88000 0.315
29.90000 0.531
29.92000 4.560
29.94000 7.269
29.96000 3.818
29.98000 6.858
30.00000 5.941
30.02000 5.721
30.04000 10.076
30.06000 8.758
30.08000 1.549
30.10000 -3.705
30.12000 -2.616
30.14000 1.821
30.16000 -0.148
30.18000 4.544
30.20000 3.973
30.22000 0.660
30.24000 2.606
30.26000 5.064
30.28000 11.993
30.30000 8.252
30.32000 2.815
30.34000 1.703
30.36000 5.951
30.38000 6.562
30.40000 0.955
30.42000 2.232
30.44000 1.199
30.46000 7.726
30.48000 6.738
30.50000 0.567
30.52000 2.611
30.54000 0.466
30.56000 1.351
30.58000 0.845
30.60000 0.449
30.62000 2.048
30.64000 7.694
30.66000 2.648
30.68000 7.703
30.70000 8.068
30.72000 3.221
30.74000 2.164
30.76000 3.579
30.78000 5.078
30.80000 -0.146
30.82000 1.413
30.84000 4.338
30.86000 6.001
30.88000 2.565
30.90000 -2.115
30.92000 0.944
30.94000 0.220
30.96000 -2.271
30.98000 -3.677
31.00000 2.684
31.02000 7.829
31.04000 2.846
31.06000 1.275
31.08000 6.607
31.10000 -3.567
31.12000 -1.521
31.14000 -1.192
31.16000 -2.678
31.18000 0.639
31.20000 -0.002
31.22000 -1.058
31.24000 5.674
31.26000 5.537
31.28000 -2.202
31.30000 1.026
31.32000 -0.651
31.34000 -3.661
31.36000 0.129
31.38000 2.425
31.40000 0.802
31.42000 -2.454
31.44000 -1.643
31.46000 5.702
31.48000 7.716
31.50000 0.737
31.52000 -3.034
31.54000 -1.008
31.56000 0.782
31.58000 3.509
31.60000 2.797
31.62000 4.180
31.64000 -0.900
31.66000 7.385
31.68000 3.228
31.70000 4.320
31.72000 3.798
31.74000 0.558
31.76000 -3.540
31.78000 -1.649
31.80000 -3.642
31.82000 1.062
31.84000 2.738
31.86000 2.035
31.88000 5.250
31.90000 1.997
31.92000 -0.076
31.94000 -1.083
31.96000 2.077
31.98000 0.968
32.00000 4.244
32.02000 4.057
32.04000 2.770
32.06000 0.048
32.08000 -1.261
32.10000 -1.781
32.12000 -0.307
32.14000 -1.172
32.16000 0.999
32.18000 1.470
32.20000 2.936
32.22000 3.511
32.24000 1.578
32.26000 4.085
32.28000 2.617
32.30000 0.376
32.32000 2.896
32.34000 8.658
32.36000 5.025
32.38000 -2.767
32.40000 -3.348
32.42000 3.194
32.44000 -0.218
32.46000 5.824
32.48000 1.040
32.50000 -2.525
32.52000 -1.593
32.54000 -1.369
32.56000 -3.626
32.58000 -2.410
32.60000 -0.110
32.62000 -1.264
32.64000 -2.798
32.66000 -1.091
32.68000 -0.285
32.70000 -2.275
32.72000 -2.202
32.74000 1.302
32.76000 1.384
32.78000 0.597
32.80000 1.355
32.82000 4.228
32.84000 5.180
32.86000 -0.279
32.88000 -1.954
32.90000 -1.062
32.92000 2.455
32.94000 4.662
32.96000 1.465
32.98000 0.196
33.00000 -0.587
33.02000 3.869
33.04000 5.101
33.06000 -2.070
33.08000 1.555
33.10000 4.606
33.12000 1.356
33.14000 1.029
33.16000 0.351
33.18000 2.915
33.20000 4.710
33.22000 -2.742
33.24000 0.949
33.26000 4.271
33.28000 1.546
33.30000 0.803
33.32000 -1.204
33.34000 -0.582
33.36000 3.390
33.38000 4.290
33.40000 4.693
33.42000 5.670
33.44000 4.557
33.46000 8.620
33.48000 1.395
33.50000 3.122
33.52000 3.241
33.54000 -0.634
33.56000 -0.520
33.58000 1.594
33.60000 4.956
33.62000 7.537
33.64000 7.627
33.66000 4.155
33.68000 6.479
33.70000 4.810
33.72000 7.539
33.74000 6.735
33.76000 0.996
33.78000 1.905
33.80000 3.849
33.82000 4.379
33.84000 2.152
33.86000 2.794
33.88000 -1.190
33.90000 3.421
33.92000 2.570
33.94000 2.077
33.96000 1.587
33.98000 -3.586
34.00000 0.175
34.02000 3.139
34.04000 3.947
34.06000 3.400
34.08000 0.948
34.10000 0.261
34.12000 0.363
34.14000 3.915
34.16000 6.415
34.18000 7.055
34.20000 6.690
34.22000 5.854
34.24000 5.397
34.26000 2.772
34.28000 3.400
34.30000 5.359
34.32000 1.691
34.34000 3.072
34.36000 4.349
34.38000 -0.415
34.40000 -1.169
34.42000 1.075
34.44000 -0.386
34.46000 -3.584
34.48000 -1.174
34.50000 0.237
34.52000 0.825
34.54000 0.021
34.56000 1.979
34.58000 1.939
34.60000 1.705
34.62000 -0.808
34.64000 -1.943
34.66000 -1.258
34.68000 3.190
34.70000 11.178
34.72000 2.833
34.74000 -2.088
34.76000 1.069
34.78000 3.438
34.80000 0.854
34.82000 1.847
34.84000 1.491
34.86000 2.591
34.88000 -3.577
34.90000 0.789
34.92000 3.093
34.94000 5.763
34.96000 3.288
34.98000 4.364
35.00000 3.636
35.02000 8.663
35.04000 4.868
35.06000 -2.013
35.08000 -1.975
35.10000 2.392
35.12000 3.872
35.14000 3.705
35.16000 -0.264
35.18000 -2.314
35.20000 1.520
35.22000 0.932
35.24000 2.425
35.26000 3.423
35.28000 2.013
35.30000 0.735
35.32000 -0.417
35.34000 0.223
35.36000 1.765
35.38000 0.545
35.40000 3.481
35.42000 -0.902
35.44000 -0.875
35.46000 -1.410
35.48000 -2.893
35.50000 -0.638
35.52000 -3.584
35.54000 -0.904
35.56000 1.600
35.58000 -3.410
35.60000 1.368
35.62000 5.958
35.64000 4.456
35.66000 -3.121
35.68000 -2.176
35.70000 2.440
35.72000 3.997
35.74000 -0.193
35.76000 1.419
35.78000 4.724
35.80000 3.471
35.82000 2.473
35.84000 -1.090
35.86000 0.154
35.88000 1.697
35.90000 1.203
35.92000 1.906
35.94000 0.117
35.96000 -1.465
35.98000 -2.921
36.00000 -0.430
36.02000 -1.807
36.04000 0.418
36.06000 6.123
36.08000 -2.176
36.10000 0.179
36.12000 0.912
36.14000 4.806
36.16000 8.021
36.18000 6.165
36.20000 6.743
36.22000 5.247
36.24000 3.737
36.26000 -0.156
36.28000 -3.566
36.30000 -0.594
36.32000 -0.747
36.34000 -2.427
36.36000 -2.987
36.38000 -0.266
36.40000 3.142
36.42000 3.483
36.44000 7.139
36.46000 8.524
36.48000 7.160
36.50000 2.654
36.52000 0.538
36.54000 3.002
36.56000 -0.873
36.58000 5.592
36.60000 6.822
36.62000 -1.095
36.64000 5.918
36.66000 7.746
36.68000 4.213
36.70000 2.564
36.72000 3.139
36.74000 0.701
36.76000 2.000
36.78000 4.720
36.80000 1.513
36.82000 -0.203
36.84000 -0.161
36.86000 5.901
36.88000 3.294
36.90000 1.198
36.92000 0.639
36.94000 -3.636
36.96000 1.817
36.98000 3.449
37.00000 1.975
37.02000 1.671
37.04000 5.784
37.06000 1.394
37.08000 2.770
37.10000 5.971
37.12000 4.890
37.14000 1.629
37.16000 -1.493
37.18000 3.527
37.20000 4.455
37.22000 0.396
37.24000 4.195
37.26000 5.005
37.28000 9.333
37.30000 5.054
37.32000 0.689
37.34000 3.411
37.36000 3.945
37.38000 4.702
37.40000 7.227
37.42000 1.722
37.44000 6.695
37.46000 6.772
37.48000 4.605
37.50000 4.343
37.52000 8.485
37.54000 8.115
37.56000 9.064
37.58000 10.421
37.60000 6.926
37.62000 5.865
37.64000 5.796
37.66000 8.510
37.68000 5.600
37.70000 8.607
37.72000 14.756
37.74000 12.756
37.76000 11.913
37.78000 9.614
37.80000 12.700
37.82000 15.272
37.84000 15.485
37.86000 13.425
37.88000 18.787
37.90000 19.305
37.92000 15.602
37.94000 15.867
37.96000 16.389
37.98000 17.755
38.00000 15.804
38.02000 15.593
38.04000 14.534
38.06000 15.036
38.08000 19.255
38.10000 17.945
38.12000 15.577
38.14000 15.217
38.16000 16.982
38.18000 19.953
38.20000 20.987
38.22000 27.324
38.24000 31.297
38.26000 28.063
38.28000 25.639
38.30000 28.184
38.32000 32.156
38.34000 30.342
38.36000 33.583
38.38000 33.793
38.40000 35.052
38.42000 35.012
38.44000 34.862
38.46000 43.133
38.48000 42.105
38.50000 39.775
38.52000 46.818
38.54000 44.353
38.56000 44.618
38.58000 48.866
38.60000 52.366
38.62000 57.544
38.64000 62.261
38.66000 60.913
38.68000 63.816
38.70000 64.799
38.72000 69.835
38.74000 71.543
38.76000 71.686
38.78000 75.229
38.80000 77.382
38.82000 81.279
38.84000 86.450
38.86000 87.871
38.88000 88.903
38.90000 92.194
38.92000 98.930
38.94000 104.172
38.96000 110.801
38.98000 105.287
39.00000 115.181
39.02000 125.751
39.04000 135.865
39.06000 138.702
39.08000 139.821
39.10000 152.762
39.12000 163.559
39.14000 163.506
39.16000 167.296
39.18000 166.221
39.20000 180.791
39.22000 190.348
39.24000 198.579
39.26000 204.211
39.28000 218.247
39.30000 229.844
39.32000 239.286
39.34000 254.910
39.36000 275.089
39.38000 276.824
39.40000 288.535
39.42000 307.640
39.44000 322.182
39.46000 343.738
39.48000 353.196
39.50000 371.074
39.52000 385.226
39.54000 408.585
39.56000 426.467
39.58000 451.195
39.60000 472.041
39.62000 491.144
39.64000 516.787
39.66000 541.883
39.68000 552.489
39.70000 574.459
39.72000 597.412
39.74000 603.858
39.76000 622.638
39.78000 643.150
39.80000 658.638
39.82000 677.880
39.84000 692.348
39.86000 690.315
39.88000 708.708
39.90000 721.361
39.92000 726.810
39.94000 722.831
39.96000 717.496
39.98000 723.979
40.00000 713.873
40.02000 704.962
40.04000 701.017
40.06000 685.159
40.08000 679.202
40.10000 670.610
40.12000 661.052
40.14000 627.138
40.16000 599.418
40.18000 587.816
40.20000 568.376
40.22000 550.614
40.24000 535.036
40.26000 518.443
40.28000 502.596
40.30000 469.609
40.32000 437.156
40.34000 416.048
40.36000 407.061
40.38000 389.326
40.40000 365.859
40.42000 352.448
40.44000 331.792
40.46000 311.444
40.48000 303.130
40.50000 286.645
40.52000 270.638
40.54000 251.630
40.56000 246.198
40.58000 232.778
40.60000 211.456
40.62000 202.080
40.64000 188.713
40.66000 175.441
40.68000 165.888
40.70000 161.000
40.72000 152.710
40.74000 138.469
40.76000 134.679
40.78000 130.500
40.80000 121.504
40.82000 114.766
40.84000 107.684
40.86000 99.296
40.88000 98.272
40.90000 89.240
40.92000 81.683
40.94000 81.386
40.96000 80.064
40.98000 71.923
41.00000 69.080
41.02000 66.255
41.04000 56.494
41.06000 55.920
41.08000 58.812
41.10000 51.382
41.12000 47.123
41.14000 44.365
41.16000 45.025
41.18000 42.937
41.20000 37.069
41.22000 34.445
41.24000 29.043
41.26000 31.322
41.28000 36.630
41.30000 36.122
41.32000 29.743
41.34000 29.098
41.36000 26.723
41.38000 28.631
41.40000 29.350
41.42000 26.093
41.44000 23.129
41.46000 21.399
41.48000 21.777
41.50000 19.949
41.52000 24.058
41.54000 16.745
41.56000 11.617
41.58000 17.170
41.60000 16.692
41.62000 13.947
41.64000 17.340
41.66000 14.840
41.68000 17.585
41.70000 20.982
41.72000 18.759
41.74000 19.231
41.76000 13.717
41.78000 7.832
41.80000 10.964
41.82000 10.323
41.84000 11.815
41.86000 9.444
41.88000 8.385
41.90000 8.334
41.92000 11.813
41.94000 9.135
41.96000 7.287
41.98000 4.756
42.00000 3.405
42.02000 4.395
42.04000 5.524
42.06000 10.572
42.08000 9.753
42.10000 7.508
42.12000 8.797
42.14000 4.247
42.16000 8.681
42.18000 11.796
42.20000 7.060
42.22000 7.239
42.24000 10.681
42.26000 4.705
42.28000 1.251
42.30000 1.965
42.32000 2.735
42.34000 5.217
42.36000 4.113
42.38000 5.399
42.40000 7.026
42.42000 7.471
42.44000 4.883
42.46000 1.444
42.48000 5.425
42.50000 3.312
42.52000 4.412
42.54000 2.610
42.56000 4.034
42.58000 4.273
42.60000 0.191
42.62000 -3.401
42.64000 -1.374
42.66000 1.023
42.68000 3.710
42.70000 6.802
42.72000 6.706
42.74000 9.331
42.76000 4.738
42.78000 2.997
42.80000 3.993
42.82000 5.004
42.84000 1.816
42.86000 2.651
42.88000 1.224
42.90000 5.857
42.92000 6.012
42.94000 0.523
42.96000 6.213
42.98000 5.009
43.00000 4.041
43.02000 5.095
43.04000 7.801
43.06000 7.565
43.08000 1.091
43.10000 3.482
43.12000 5.204
43.14000 5.596
43.16000 5.915
43.18000 2.787
43.20000 0.089
43.22000 0.111
43.24000 5.503
43.26000 5.664
43.28000 4.296
43.30000 3.083
43.32000 3.883
43.34000 3.513
43.36000 5.402
43.38000 3.197
43.40000 3.346
43.42000 2.384
43.44000 -0.359
43.46000 -3.337
43.48000 0.377
43.50000 4.032
43.52000 5.829
43.54000 2.352
43.56000 1.917
43.58000 4.485
43.60000 3.220
43.62000 3.807
43.64000 3.961
43.66000 0.674
43.68000 -2.377
43.70000 -0.407
43.72000 0.229
43.74000 0.411
43.76000 -1.004
43.78000 1.455
43.80000 6.541
43.82000 2.543
43.84000 1.066
43.86000 -0.004
43.88000 -1.501
43.90000 0.847
43.92000 2.178
43.94000 1.564
43.96000 2.896
43.98000 4.060
44.00000 1.641
44.02000 -1.510
44.04000 1.121
44.06000 -0.591
44.08000 3.352
44.10000 3.825
44.12000 4.018
44.14000 2.361
44.16000 5.491
44.18000 5.475
44.20000 3.041
44.22000 3.361
44.24000 -1.163
44.26000 0.354
44.28000 -1.395
44.30000 -0.403
44.32000 3.013
44.34000 1.129
44.36000 1.085
44.38000 -0.742
44.40000 0.335
44.42000 -2.003
44.44000 -3.342
44.46000 -0.661
44.48000 0.964
44.50000 3.561
44.52000 5.958
44.54000 2.786
44.56000 3.431
44.58000 6.054
44.60000 -0.458
44.62000 -0.281
44.64000 6.881
44.66000 3.550
44.68000 -3.339
44.70000 -1.649
44.72000 3.129
44.74000 2.628
44.76000 8.863
44.78000 9.405
44.80000 6.767
44.82000 3.424
44.84000 4.643
44.86000 4.376
44.88000 5.480
44.90000 4.297
44.92000 4.965
44.94000 8.999
44.96000 9.072
44.98000 12.126
45.00000 12.132
45.02000 9.111
45.04000 7.296
45.06000 11.343
45.08000 9.287
45.10000 8.133
45.12000 11.055
45.14000 8.063
45.16000 11.588
45.18000 18.035
45.20000 19.441
45.22000 17.006
45.24000 18.032
45.26000 19.739
45.28000 21.747
45.30000 20.003
45.32000 14.098
45.34000 14.578
45.36000 21.521
45.38000 23.290
45.40000 23.683
45.42000 19.466
45.44000 21.168
45.46000 21.982
45.48000 22.798
45.50000 23.961
45.52000 26.819
45.54000 29.242
45.56000 25.979
45.58000 27.074
45.60000 27.852
45.62000 26.010
45.64000 30.936
45.66000 38.254
45.68000 27.564
45.70000 31.336
45.72000 36.852
45.74000 38.835
45.76000 44.621
45.78000 42.546
45.80000 46.006
45.82000 49.995
45.84000 47.227
45.86000 48.893
45.88000 48.928
45.90000 54.092
45.92000 53.008
45.94000 56.872
45.96000 55.378
45.98000 56.179
46.00000 58.091
46.02000 58.799
46.04000 65.325
46.06000 70.148
46.08000 68.168
46.10000 68.669
46.12000 72.812
46.14000 75.967
46.16000 78.178
46.18000 78.560
46.20000 75.210
46.22000 74.917
46.24000 71.041
46.26000 77.366
46.28000 82.684
46.30000 86.180
46.32000 94.874
46.34000 98.859
46.36000 94.784
46.38000 98.778
46.40000 101.197
46.42000 99.045
46.44000 105.574
46.46000 104.859
46.48000 106.960
46.50000 105.072
46.52000 103.987
46.54000 104.763
46.56000 104.932
46.58000 114.151
46.60000 117.899
46.62000 120.832
46.64000 111.672
46.66000 109.696
46.68000 106.245
46.70000 111.581
46.72000 114.591
46.74000 111.469
46.76000 110.216
46.78000 106.325
46.80000 106.519
46.82000 98.484
46.84000 102.750
46.86000 106.717
46.88000 98.458
46.90000 101.290
46.92000 101.883
46.94000 93.246
46.96000 90.613
46.98000 85.487
47.00000 84.601
47.02000 87.577
47.04000 84.422
47.06000 82.535
47.08000 74.474
47.10000 75.083
47.12000 70.403
47.14000 71.483
47.16000 70.042
47.18000 65.881
47.20000 62.414
47.22000 57.508
47.24000 55.478
47.26000 55.796
47.28000 54.315
47.30000 46.546
47.32000 46.965
47.34000 43.746
47.36000 41.804
47.38000 41.693
47.40000 35.203
47.42000 31.572
47.44000 34.469
47.46000 34.358
47.48000 33.851
47.50000 33.353
47.52000 22.362
47.54000 22.324
47.56000 24.813
47.58000 29.400
47.60000 31.139
47.62000 23.321
47.64000 20.411
47.66000 22.950
47.68000 17.761
47.70000 15.621
47.72000 15.639
47.74000 17.507
47.76000 17.412
47.78000 16.396
47.80000 10.869
47.82000 9.078
47.84000 9.701
47.86000 5.985
47.88000 6.511
47.90000 5.137
47.92000 5.469
47.94000 3.426
47.96000 1.379
47.98000 6.787
48.00000 1.717
48.02000 0.442
48.04000 3.800
48.06000 4.494
48.08000 4.659
48.10000 3.958
48.12000 2.433
48.14000 1.643
48.16000 0.262
48.18000 -0.535
48.20000 3.873
48.22000 5.841
48.24000 3.855
48.26000 3.617
48.28000 1.762
48.30000 3.525
48.32000 -1.045
48.34000 2.915
48.36000 8.234
48.38000 5.369
48.40000 3.956
48.42000 5.338
48.44000 1.174
48.46000 -0.327
48.48000 1.581
48.50000 3.037
48.52000 4.452
48.54000 4.229
48.56000 0.750
48.58000 1.806
48.60000 1.127
48.62000 5.798
48.64000 -1.987
48.66000 -0.872
48.68000 3.194
48.70000 5.309
48.72000 4.015
48.74000 1.169
48.76000 1.933
48.78000 0.139
48.80000 0.744
48.82000 1.671
48.84000 2.715
48.86000 3.715
48.88000 5.599
48.90000 2.222
48.92000 -2.861
48.94000 6.997
48.96000 10.431
48.98000 5.199
49.00000 6.091
49.02000 3.660
49.04000 3.254
49.06000 2.849
49.08000 1.945
49.10000 -0.314
49.12000 4.800
49.14000 4.272
49.16000 1.504
49.18000 5.172
49.20000 -0.695
49.22000 3.331
49.24000 0.925
49.26000 1.456
49.28000 -0.281
49.30000 -2.822
49.32000 0.988
49.34000 1.686
49.36000 -1.280
49.38000 -2.101
49.40000 0.729
49.42000 0.063
49.44000 1.964
49.46000 4.582
49.48000 3.336
49.50000 0.766
49.52000 3.485
49.54000 4.566
49.56000 2.434
49.58000 5.288
49.60000 2.453
49.62000 3.430
49.64000 5.738
49.66000 8.155
49.68000 10.464
49.70000 7.247
49.72000 4.575
49.74000 1.000
49.76000 0.789
49.78000 6.483
49.80000 6.420
49.82000 -2.777
49.84000 -2.606
49.86000 1.978
49.88000 2.965
49.90000 4.342
49.92000 4.706
49.94000 7.288
49.96000 7.073
49.98000 7.442
50.00000 6.810
50.02000 4.306
50.04000 2.770
50.06000 1.769
50.08000 3.592
50.10000 1.904
50.12000 2.674
50.14000 0.740
50.16000 -1.985
50.18000 -1.871
50.20000 -2.371
50.22000 0.800
50.24000 2.549
50.26000 1.967
50.28000 1.293
50.30000 -2.301
50.32000 -2.765
50.34000 0.422
50.36000 0.249
50.38000 1.596
50.40000 2.529
50.42000 1.828
50.44000 1.886
50.46000 1.157
50.48000 2.864
50.50000 3.889
50.52000 1.894
50.54000 -1.677
50.56000 3.704
50.58000 2.279
50.60000 1.281
50.62000 1.173
50.64000 -0.207
50.66000 2.589
50.68000 1.708
50.70000 -0.924
50.72000 4.481
50.74000 9.256
50.76000 6.262
50.78000 1.796
50.80000 3.834
50.82000 2.846
50.84000 -1.100
50.86000 0.781
50.88000 0.617
50.90000 3.901
50.92000 8.992
50.94000 8.531
50.96000 2.329
50.98000 3.112
51.00000 4.564
51.02000 0.449
51.04000 -2.723
51.06000 -1.306
51.08000 0.976
51.10000 -0.012
51.12000 0.954
51.14000 2.436
51.16000 5.226
51.18000 5.926
51.20000 2.600
51.22000 -0.710
51.24000 3.043
51.26000 4.451
51.28000 2.520
51.30000 3.534
51.32000 5.738
51.34000 3.915
51.36000 0.424
51.38000 2.551
51.40000 0.285
51.42000 0.386
51.44000 -1.014
51.46000 1.341
51.48000 -0.363
51.50000 3.386
51.52000 5.783
51.54000 3.994
51.56000 1.749
51.58000 0.970
51.60000 1.510
51.62000 -1.546
51.64000 2.674
51.66000 5.743
51.68000 2.184
51.70000 -0.975
51.72000 1.158
51.74000 0.713
51.76000 0.251
51.78000 2.881
51.80000 4.420
51.82000 2.207
51.84000 -2.185
51.86000 -0.190
51.88000 4.965
51.90000 7.187
51.92000 3.626
51.94000 6.338
51.96000 3.636
51.98000 3.016
52.00000 1.637
52.02000 -0.328
52.04000 -1.752
52.06000 0.449
52.08000 -2.696
52.10000 -0.371
52.12000 -0.936
52.14000 2.652
52.16000 0.601
52.18000 0.674
52.20000 4.625
52.22000 1.563
52.24000 2.064
52.26000 2.389
52.28000 1.263
52.30000 -0.571
52.32000 3.114
52.34000 3.503
52.36000 1.152
52.38000 4.207
52.40000 1.234
52.42000 1.850
52.44000 2.144
52.46000 4.310
52.48000 -0.307
52.50000 2.551
52.52000 1.764
52.54000 2.857
52.56000 2.290
52.58000 2.325
52.60000 0.276
52.62000 2.412
52.64000 6.484
52.66000 1.582
52.68000 -2.089
52.70000 0.169
52.72000 3.201
52.74000 2.079
52.76000 3.267
52.78000 4.545
52.80000 7.715
52.82000 0.983
52.84000 -2.660
52.86000 2.353
52.88000 5.583
52.90000 0.724
52.92000 1.877
52.94000 4.247
52.96000 3.468
52.98000 1.739
53.00000 1.636
53.02000 4.595
53.04000 5.868
53.06000 1.038
53.08000 -0.216
53.10000 1.355
53.12000 3.721
53.14000 4.822
53.16000 2.447
53.18000 -0.105
53.20000 3.282
53.22000 1.486
53.24000 2.046
53.26000 0.542
53.28000 2.033
53.30000 4.414
53.32000 2.207
53.34000 -0.129
53.36000 -1.135
53.38000 -0.980
53.40000 -2.178
53.42000 2.081
53.44000 2.642
53.46000 2.217
53.48000 2.239
53.50000 0.096
53.52000 0.998
53.54000 0.322
53.56000 3.175
53.58000 -1.248
53.60000 -0.059
53.62000 1.364
53.64000 0.596
53.66000 -0.762
53.68000 2.982
53.70000 2.928
53.72000 0.769
53.74000 1.176
53.76000 1.139
53.78000 0.479
53.80000 1.920
53.82000 0.082
53.84000 -1.251
53.86000 1.942
53.88000 2.654
53.90000 4.307
53.92000 5.073
53.94000 4.112
53.96000 3.328
53.98000 -1.026
54.00000 1.634
54.02000 1.171
54.04000 0.841
54.06000 4.540
54.08000 4.614
54.10000 2.023
54.12000 -0.941
54.14000 2.776
54.16000 1.845
54.18000 5.281
54.20000 3.808
54.22000 5.089
54.24000 3.387
54.26000 2.185
54.28000 3.961
54.30000 7.081
54.32000 6.683
54.34000 8.526
54.36000 8.282
54.38000 -0.489
54.40000 -2.585
54.42000 0.228
54.44000 -1.171
54.46000 3.323
54.48000 3.345
54.50000 2.736
54.52000 1.583
54.54000 5.791
54.56000 6.473
54.58000 5.516
54.60000 0.774
54.62000 0.960
54.64000 3.336
54.66000 3.016
54.68000 -0.372
54.70000 0.579
54.72000 1.377
54.74000 5.626
54.76000 5.540
54.78000 -1.033
54.80000 -0.144
54.82000 -2.326
54.84000 -2.582
54.86000 -2.379
54.88000 0.624
54.90000 -0.133
54.92000 5.671
54.94000 4.300
54.96000 0.080
54.98000 3.447
55.00000 6.632
55.02000 4.474
55.04000 1.567
55.06000 -0.107
55.08000 0.788
55.10000 3.457
55.12000 5.505
55.14000 2.688
55.16000 0.797
55.18000 2.809
55.20000 1.741
55.22000 -0.121
55.24000 -1.483
55.26000 -0.851
55.28000 3.016
55.30000 4.173
55.32000 -0.480
55.34000 -0.268
55.36000 1.571
55.38000 0.018
55.40000 0.875
55.42000 -1.890
55.44000 -0.976
55.46000 -1.904
55.48000 -1.330
55.50000 1.049
55.52000 2.426
55.54000 3.994
55.56000 -1.140
55.58000 -1.477
55.60000 -0.167
55.62000 -0.217
55.64000 0.613
55.66000 2.106
55.68000 2.757
55.70000 4.717
55.72000 3.650
55.74000 1.086
55.76000 2.173
55.78000 1.409
55.80000 -1.370
55.82000 -2.579
55.84000 -0.912
55.86000 -0.273
55.88000 -0.148
55.90000 5.683
55.92000 4.739
55.94000 2.814
55.96000 3.386
55.98000 4.442
56.00000 7.326
56.02000 4.885
56.04000 3.044
56.06000 0.937
56.08000 0.946
56.10000 1.043
56.12000 4.975
56.14000 1.832
56.16000 2.504
56.18000 4.362
56.20000 5.301
56.22000 6.615
56.24000 4.254
56.26000 0.173
56.28000 -1.290
56.30000 0.571
56.32000 5.057
56.34000 0.567
56.36000 -0.283
56.38000 3.895
56.40000 3.209
56.42000 3.689
56.44000 3.244
56.46000 4.714
56.48000 6.760
56.50000 7.978
56.52000 5.504
56.54000 3.612
56.56000 -2.535
56.58000 2.452
56.60000 3.582
56.62000 0.166
56.64000 0.475
56.66000 1.948
56.68000 1.047
56.70000 2.048
56.72000 5.412
56.74000 6.604
56.76000 11.020
56.78000 4.268
56.80000 0.117
56.82000 0.669
56.84000 2.792
56.86000 6.508
56.88000 4.126
56.90000 -1.847
56.92000 4.984
56.94000 5.974
56.96000 3.213
56.98000 1.709
57.00000 1.456
57.02000 3.132
57.04000 3.989
57.06000 4.141
57.08000 1.087
57.10000 1.547
57.12000 2.655
57.14000 0.304
57.16000 2.693
57.18000 1.058
57.20000 3.306
57.22000 2.033
57.24000 1.800
57.26000 -2.531
57.28000 3.113
57.30000 4.714
57.32000 3.811
57.34000 6.761
57.36000 4.365
57.38000 2.263
57.40000 6.049
57.42000 4.888
57.44000 4.286
57.46000 1.468
57.48000 -0.653
57.50000 0.376
57.52000 1.257
57.54000 2.909
57.56000 5.947
57.58000 6.697
57.60000 5.092
57.62000 2.730
57.64000 2.197
57.66000 3.619
57.68000 5.004
57.70000 3.432
57.72000 1.352
57.74000 1.107
57.76000 0.043
57.78000 -0.400
57.80000 0.777
57.82000 1.702
57.84000 2.611
57.86000 -1.986
57.88000 0.361
57.90000 4.446
57.92000 1.024
57.94000 4.242
57.96000 5.964
57.98000 4.468
58.00000 3.637
58.02000 2.245
58.04000 -0.971
58.06000 -2.523
58.08000 -0.511
58.10000 0.520
58.12000 1.657
58.14000 -1.001
58.16000 -1.837
58.18000 -0.312
58.20000 4.765
58.22000 4.289
58.24000 0.246
58.26000 1.731
58.28000 -0.257
58.30000 -0.981
58.32000 -1.641
58.34000 -0.533
58.36000 3.159
58.38000 2.880
58.40000 0.904
58.42000 0.804
58.44000 1.765
58.46000 4.787
58.48000 2.706
58.50000 2.298
58.52000 0.788
58.54000 1.122
58.56000 3.529
58.58000 3.332
58.60000 3.522
58.62000 0.115
58.64000 -2.404
58.66000 -0.448
58.68000 1.462
58.70000 4.216
58.72000 8.500
58.74000 3.418
58.76000 3.205
58.78000 3.281
58.80000 0.447
58.82000 0.043
58.84000 -2.087
58.86000 -2.484
58.88000 2.772
58.90000 4.008
58.92000 -0.867
58.94000 -2.477
58.96000 4.494
58.98000 3.409
59.00000 3.881
59.02000 1.161
59.04000 1.808
59.06000 2.103
59.08000 -0.135
59.10000 -2.484
59.12000 -0.914
59.14000 1.869
59.16000 0.002
59.18000 -0.006
59.20000 1.793
59.22000 3.024
59.24000 2.667
59.26000 2.648
59.28000 0.477
59.30000 1.775
59.32000 0.424
59.34000 1.359
59.36000 1.594
59.38000 4.361
59.40000 2.745
59.42000 -2.219
59.44000 0.151
59.46000 1.942
59.48000 2.010
59.50000 -1.522
59.52000 -0.356
59.54000 0.093
59.56000 1.479
59.58000 0.812
59.60000 -0.380
59.62000 -2.299
59.64000 -1.618
59.66000 0.638
59.68000 -1.797
59.70000 -1.766
59.72000 -1.563
59.74000 0.512
59.76000 -0.422
59.78000 -1.007
59.80000 5.066
59.82000 4.829
59.84000 2.683
59.86000 0.260
59.88000 -1.684
59.90000 1.068
59.92000 3.678
59.94000 2.424
59.96000 1.076
59.98000 6.094
60.00000 2.465
60.02000 -0.847
60.04000 -0.460
60.06000 1.796
60.08000 2.671
60.10000 4.311
60.12000 1.210
60.14000 -1.596
60.16000 2.672
60.18000 2.073
60.20000 0.265
60.22000 -0.259
60.24000 2.290
60.26000 3.634
60.28000 3.979
60.30000 -0.824
60.32000 1.023
60.34000 1.172
60.36000 0.710
60.38000 -2.479
60.40000 -0.261
60.42000 1.222
60.44000 0.241
60.46000 3.754
60.48000 3.118
60.50000 3.815
60.52000 0.108
60.54000 -0.817
60.56000 1.296
60.58000 1.604
60.60000 -1.140
60.62000 -1.874
60.64000 3.240
60.66000 2.472
60.68000 -0.459
60.70000 -1.900
60.72000 2.489
60.74000 1.414
60.76000 2.463
60.78000 4.796
60.80000 2.283
60.82000 1.453
60.84000 2.147
60.86000 2.213
60.88000 3.844
60.90000 2.931
60.92000 0.363
60.94000 1.581
60.96000 1.060
60.98000 1.089
61.00000 0.317
61.02000 -1.467
61.04000 0.583
61.06000 1.787
61.08000 2.158
61.10000 4.547
61.12000 1.158
61.14000 0.643
61.16000 0.565
61.18000 -1.845
61.20000 -0.159
61.22000 -0.406
61.24000 -2.453
61.26000 -1.272
61.28000 1.217
61.30000 2.976
61.32000 1.226
61.34000 -0.390
61.36000 3.012
61.38000 2.964
61.40000 0.724
61.42000 1.686
61.44000 1.266
61.46000 2.317
61.48000 3.142
61.50000 1.218
61.52000 -0.005
61.54000 -1.118
61.56000 -0.592
61.58000 -1.599
61.60000 -1.320
61.62000 -1.263
61.64000 -0.114
61.66000 3.869
61.68000 1.862
61.70000 3.048
61.72000 3.009
61.74000 1.874
61.76000 0.050
61.78000 -1.414
61.80000 -2.409
61.82000 -2.127
61.84000 1.826
61.86000 0.721
61.88000 3.907
61.90000 2.182
61.92000 0.210
61.94000 1.069
61.96000 2.302
61.98000 -0.530
62.00000 0.738
62.02000 3.770
62.04000 3.444
62.06000 1.528
62.08000 2.043
62.10000 5.357
62.12000 1.540
62.14000 2.108
62.16000 5.189
62.18000 3.957
62.20000 5.477
62.22000 4.070
62.24000 5.299
62.26000 4.121
62.28000 2.506
62.30000 -0.019
62.32000 -2.395
62.34000 1.031
62.36000 1.065
62.38000 0.753
62.40000 2.377
62.42000 1.225
62.44000 2.946
62.46000 3.041
62.48000 4.558
62.50000 5.541
62.52000 3.921
62.54000 4.959
62.56000 3.069
62.58000 3.138
62.60000 3.417
62.62000 3.064
62.64000 4.557
62.66000 3.603
62.68000 4.087
62.70000 4.079
62.72000 3.977
62.74000 4.070
62.76000 5.085
62.78000 2.230
62.80000 3.052
62.82000 3.064
62.84000 1.691
62.86000 1.494
62.88000 0.488
62.90000 0.966
62.92000 -1.271
62.94000 2.864
62.96000 2.158
62.98000 -0.431
63.00000 1.506
63.02000 2.996
63.04000 0.152
63.06000 -1.001
63.08000 -0.197
63.10000 -2.114
63.12000 -0.434
63.14000 1.685
63.16000 1.659
63.18000 -0.483
63.20000 -1.124
63.22000 0.018
63.24000 6.139
63.26000 2.591
63.28000 1.656
63.30000 1.104
63.32000 1.869
63.34000 1.146
63.36000 0.621
63.38000 1.092
63.40000 -0.550
63.42000 0.326
63.44000 -1.642
63.46000 1.652
63.48000 2.233
63.50000 1.951
63.52000 0.462
63.54000 1.321
63.56000 2.184
63.58000 -0.564
63.60000 -1.845
63.62000 0.520
63.64000 0.649
63.66000 3.526
63.68000 0.528
63.70000 2.752
63.72000 3.368
63.74000 0.859
63.76000 1.223
63.78000 3.092
63.80000 1.101
63.82000 -2.400
63.84000 -0.609
63.86000 1.381
63.88000 0.267
63.90000 0.824
63.92000 0.278
63.94000 0.520
63.96000 -1.770
63.98000 -1.648
64.00000 -0.661
64.02000 1.939
64.04000 4.730
64.06000 4.596
64.08000 1.931
64.10000 2.099
64.12000 -2.402
64.14000 5.494
64.16000 5.613
64.18000 3.160
64.20000 -0.677
64.22000 0.110
64.24000 1.243
64.26000 -1.980
64.28000 -2.155
64.30000 0.956
64.32000 2.735
64.34000 0.726
64.36000 1.143
64.38000 1.811
64.40000 1.398
64.42000 1.167
64.44000 -0.162
64.46000 2.842
64.48000 2.827
64.50000 1.827
64.52000 0.006
64.54000 -1.806
64.56000 0.004
64.58000 1.894
64.60000 3.136
64.62000 3.509
64.64000 3.284
64.66000 1.757
64.68000 5.158
64.70000 2.751
64.72000 1.078
64.74000 1.549
64.76000 0.516
64.78000 -1.712
64.80000 -1.590
64.82000 1.679
64.84000 1.506
64.86000 1.092
64.88000 1.755
64.90000 2.352
64.92000 1.637
64.94000 0.380
64.96000 -2.438
64.98000 0.228
65.00000 0.376
65.02000 0.659
65.04000 -2.045
65.06000 0.147
65.08000 0.480
65.10000 1.662
65.12000 2.545
65.14000 1.257
65.16000 1.429
65.18000 2.308
65.20000 4.157
65.22000 4.302
65.24000 3.968
65.26000 3.150
65.28000 2.624
65.30000 0.005
65.32000 0.335
65.34000 0.450
65.36000 -0.292
65.38000 -0.353
65.40000 3.057
65.42000 4.861
65.44000 2.696
65.46000 1.421
65.48000 4.127
65.50000 3.864
65.52000 3.704
65.54000 0.658
65.56000 -1.790
65.58000 3.741
65.60000 6.391
65.62000 5.971
65.64000 0.053
65.66000 2.129
65.68000 1.971
65.70000 -0.018
65.72000 1.254
65.74000 2.242
65.76000 0.039
65.78000 1.263
65.80000 3.319
65.82000 3.609
65.84000 4.180
65.86000 4.277
65.88000 5.336
65.90000 3.929
65.92000 2.408
65.94000 5.064
65.96000 1.738
65.98000 -2.450
66.00000 0.292
66.02000 4.369
66.04000 6.525
66.06000 3.558
66.08000 2.385
66.10000 -0.161
66.12000 1.291
66.14000 1.418
66.16000 2.630
66.18000 2.657
66.20000 5.702
66.22000 6.746
66.24000 2.502
66.26000 2.842
66.28000 0.905
66.30000 4.059
66.32000 2.992
66.34000 1.438
66.36000 5.397
66.38000 4.489
66.40000 0.908
66.42000 -0.231
66.44000 0.503
66.46000 -0.703
66.48000 -1.979
66.50000 -0.579
66.52000 -0.464
66.54000 3.356
66.56000 5.415
66.58000 5.172
66.60000 5.960
66.62000 4.462
66.64000 3.768
66.66000 3.055
66.68000 2.762
66.70000 4.670
66.72000 5.531
66.74000 3.797
66.76000 4.987
66.78000 9.372
66.80000 11.917
66.82000 6.755
66.84000 4.949
66.86000 6.597
66.88000 8.175
66.90000 9.383
66.92000 7.377
66.94000 5.973
66.96000 6.206
66.98000 5.305
67.00000 6.645
67.02000 9.882
67.04000 9.391
67.06000 9.750
67.08000 4.853
67.10000 2.352
67.12000 6.214
67.14000 9.502
67.16000 11.612
67.18000 11.293
67.20000 10.168
67.22000 11.510
67.24000 12.433
67.26000 13.188
67.28000 11.734
67.30000 11.259
67.32000 10.407
67.34000 9.722
67.36000 9.652
67.38000 13.018
67.40000 10.296
67.42000 13.712
67.44000 12.774
67.46000 13.344
67.48000 16.557
67.50000 18.184
67.52000 16.059
67.54000 13.812
67.56000 15.243
67.58000 15.779
67.60000 15.018
67.62000 16.875
67.64000 19.057
67.66000 18.046
67.68000 15.394
67.70000 18.848
67.72000 19.306
67.74000 20.931
67.76000 22.413
67.78000 23.025
67.80000 22.262
67.82000 18.819
67.84000 18.349
67.86000 23.083
67.88000 28.793
67.90000 25.718
67.92000 22.765
67.94000 23.239
67.96000 21.996
67.98000 19.786
68.00000 20.149
68.02000 18.723
68.04000 19.903
68.06000 20.996
68.08000 23.427
68.10000 21.769
68.12000 20.360
68.14000 22.019
68.16000 21.264
68.18000 20.775
68.20000 21.461
68.22000 20.263
68.24000 17.126
68.26000 18.852
68.28000 19.509
68.30000 20.551
68.32000 15.603
68.34000 14.731
68.36000 14.015
68.38000 15.105
68.40000 19.485
68.42000 18.300
68.44000 16.668
68.46000 17.493
68.48000 15.806
68.50000 16.478
68.52000 14.086
68.54000 12.680
68.56000 8.952
68.58000 11.560
68.60000 11.393
68.62000 11.453
68.64000 12.314
68.66000 10.943
68.68000 10.964
68.70000 10.229
68.72000 8.522
68.74000 8.438
68.76000 7.326
68.78000 5.300
68.80000 3.887
68.82000 5.056
68.84000 5.216
68.86000 5.805
68.88000 4.040
68.90000 6.115
68.92000 4.612
68.94000 1.514
68.96000 2.147
68.98000 6.907
69.00000 7.048
69.02000 6.602
69.04000 5.199
69.06000 3.543
69.08000 3.452
69.10000 3.126
69.12000 1.900
69.14000 1.076
69.16000 0.206
69.18000 -1.009
69.20000 1.845
69.22000 1.288
69.24000 -2.433
69.26000 -2.474
69.28000 -0.286
69.30000 3.213
69.32000 2.581
69.34000 -1.286
69.36000 -0.621
69.38000 3.462
69.40000 0.261
69.42000 -2.092
69.44000 -2.034
69.46000 0.415
69.48000 -0.981
69.50000 -0.592
69.52000 1.190
69.54000 -0.177
69.56000 0.764
69.58000 -2.292
69.60000 -1.840
69.62000 1.227
69.64000 5.835
69.66000 4.504
69.68000 1.829
69.70000 0.192
69.72000 0.514
69.74000 1.644
69.76000 2.787
69.78000 2.347
69.80000 1.568
69.82000 -0.364
69.84000 -2.270
69.86000 0.145
69.88000 0.301
69.90000 -2.394
69.92000 -0.520
69.94000 2.239
69.96000 4.793
69.98000 4.743
70.00000 1.393
70.02000 -2.262
70.04000 -0.237
70.06000 2.998
70.08000 2.148
70.10000 -2.093
70.12000 -2.361
70.14000 2.163
70.16000 -0.552
70.18000 2.197
70.20000 3.979
70.22000 4.138
70.24000 1.504
70.26000 0.379
70.28000 2.459
70.30000 -0.392
70.32000 0.385
70.34000 1.119
70.36000 3.647
70.38000 1.987
70.40000 -2.251
70.42000 -2.334
70.44000 0.224
70.46000 0.073
70.48000 -0.861
70.50000 1.418
70.52000 3.566
70.54000 2.026
70.56000 2.253
70.58000 1.758
70.60000 1.196
70.62000 2.983
70.64000 2.585
70.66000 -0.300
70.68000 1.047
70.70000 2.361
70.72000 0.796
70.74000 -0.766
70.76000 -0.938
70.78000 0.568
70.80000 5.496
70.82000 4.785
70.84000 -0.642
70.86000 -0.812
70.88000 1.495
70.90000 4.436
70.92000 4.728
70.94000 3.617
70.96000 3.389
70.98000 4.969
71.00000 2.243
71.02000 -2.315
71.04000 -1.393
71.06000 3.822
71.08000 8.026
71.10000 2.499
71.12000 -1.438
71.14000 -0.592
71.16000 1.771
71.18000 0.326
71.20000 0.809
71.22000 3.153
71.24000 3.869
71.26000 6.560
71.28000 2.238
71.30000 1.081
71.32000 0.434
71.34000 3.611
71.36000 2.343
71.38000 3.525
71.40000 1.443
71.42000 1.976
71.44000 2.968
71.46000 1.345
71.48000 3.918
71.50000 -0.992
71.52000 1.531
71.54000 1.949
71.56000 -2.289
71.58000 -1.062
71.60000 0.699
71.62000 3.093
71.64000 2.730
71.66000 -0.458
71.68000 3.282
71.70000 3.822
71.72000 2.756
71.74000 1.993
71.76000 1.988
71.78000 5.195
71.80000 3.980
71.82000 5.111
71.84000 4.610
71.86000 -0.861
71.88000 -1.365
71.90000 3.085
71.92000 6.433
71.94000 3.237
71.96000 3.095
71.98000 3.401
72.00000 4.642
72.02000 3.121
72.04000 4.575
72.06000 2.662
72.08000 -2.281
72.10000 1.952
72.12000 2.903
72.14000 -1.286
72.16000 -1.142
72.18000 1.750
72.20000 -0.221
72.22000 -2.281
72.24000 -2.197
72.26000 0.826
72.28000 0.499
72.30000 -0.662
72.32000 1.694
72.34000 2.938
72.36000 4.567
72.38000 1.838
72.40000 -1.388
72.42000 4.097
72.44000 0.926
72.46000 0.990
72.48000 3.510
72.50000 0.497
72.52000 -2.275
72.54000 -1.101
72.56000 1.460
72.58000 1.947
72.60000 0.926
72.62000 -0.481
72.64000 -0.477
72.66000 0.759
72.68000 2.288
72.70000 -1.645
72.72000 0.022
72.74000 -0.151
72.76000 -1.255
72.78000 -1.719
72.80000 -0.252
72.82000 4.190
72.84000 4.331
72.86000 1.673
72.88000 -0.099
72.90000 -1.285
72.92000 -1.008
72.94000 -1.023
72.96000 2.894
72.98000 0.314
73.00000 0.503
73.02000 -1.474
73.04000 -2.258
73.06000 -2.233
73.08000 -1.861
73.10000 1.796
73.12000 4.307
73.14000 2.389
73.16000 -1.685
73.18000 -1.116
73.20000 5.781
73.22000 7.400
73.24000 2.457
73.26000 0.872
73.28000 -0.298
73.30000 1.363
73.32000 1.416
73.34000 -1.196
73.36000 1.444
73.38000 1.260
73.40000 -1.111
73.42000 2.775
73.44000 5.744
73.46000 5.320
73.48000 2.030
73.50000 0.935
73.52000 2.969
73.54000 2.848
73.56000 6.938
73.58000 5.349
73.60000 5.780
73.62000 0.608
73.64000 0.249
73.66000 2.859
73.68000 4.016
73.70000 -0.045
73.72000 -0.096
73.74000 -2.153
73.76000 -0.245
73.78000 -2.237
73.80000 0.649
73.82000 1.138
73.84000 -0.999
73.86000 1.821
73.88000 1.458
73.90000 2.815
73.92000 0.705
73.94000 1.682
73.96000 5.431
73.98000 1.697
74.00000 -0.095
74.02000 1.077
74.04000 0.591
74.06000 2.814
74.08000 1.475
74.10000 1.363
74.12000 2.522
74.14000 1.003
74.16000 2.937
74.18000 1.535
74.20000 1.955
74.22000 2.745
74.24000 2.202
74.26000 2.540
74.28000 4.429
74.30000 2.981
74.32000 1.865
74.34000 5.058
74.36000 5.788
74.38000 5.761
74.40000 1.948
74.42000 1.320
74.44000 3.976
74.46000 1.634
74.48000 2.678
74.50000 1.004
74.52000 -0.688
74.54000 -0.902
74.56000 -0.594
74.58000 0.113
74.60000 1.365
74.62000 2.666
74.64000 0.871
74.66000 2.779
74.68000 1.403
74.70000 3.221
74.72000 0.063
74.74000 0.297
74.76000 4.151
74.78000 1.048
74.80000 2.492
74.82000 6.235
74.84000 3.089
74.86000 2.956
74.88000 1.706
74.90000 1.853
74.92000 4.559
74.94000 0.945
74.96000 -0.803
74.98000 0.057
75.00000 -2.215
75.02000 0.249
75.04000 -0.383
75.06000 -1.863
75.08000 2.677
75.10000 3.873
75.12000 5.164
75.14000 1.996
75.16000 4.876
75.18000 3.867
75.20000 3.779
75.22000 0.112
75.24000 -1.197
75.26000 1.984
75.28000 0.650
75.30000 0.494
75.32000 2.731
75.34000 2.550
75.36000 0.992
75.38000 2.677
75.40000 4.809
75.42000 1.709
75.44000 -2.183
75.46000 0.985
75.48000 2.008
75.50000 1.294
75.52000 1.004
75.54000 0.877
75.56000 4.149
75.58000 7.547
75.60000 0.952
75.62000 3.685
75.64000 1.482
75.66000 1.073
75.68000 3.497
75.70000 2.904
75.72000 4.103
75.74000 4.755
75.76000 1.531
75.78000 3.607
75.80000 2.157
75.82000 1.953
75.84000 0.269
75.86000 -1.770
75.88000 -0.555
75.90000 0.728
75.92000 4.692
75.94000 4.360
75.96000 4.578
75.98000 3.045
76.00000 0.293
76.02000 0.635
76.04000 4.275
76.06000 6.601
76.08000 2.764
76.10000 0.804
76.12000 0.740
76.14000 2.030
76.16000 0.169
76.18000 -1.478
76.20000 0.365
76.22000 3.542
76.24000 0.209
76.26000 4.094
76.28000 6.384
76.30000 4.442
76.32000 6.495
76.34000 2.928
76.36000 1.845
76.38000 1.491
76.40000 2.100
76.42000 2.120
76.44000 2.473
76.46000 3.931
76.48000 0.881
76.50000 2.285
76.52000 1.995
76.54000 1.281
76.56000 3.299
76.58000 3.100
76.60000 5.300
76.62000 2.881
76.64000 3.200
76.66000 5.546
76.68000 3.263
76.70000 5.640
76.72000 3.490
76.74000 4.378
76.76000 -2.223
76.78000 -1.330
76.80000 0.875
76.82000 4.377
76.84000 4.516
76.86000 -2.104
76.88000 -0.899
76.90000 3.048
76.92000 2.619
76.94000 2.828
76.96000 3.109
76.98000 3.075
77.00000 0.254
77.02000 0.877
77.04000 3.046
77.06000 1.471
77.08000 2.679
77.10000 4.681
77.12000 3.463
77.14000 5.192
77.16000 5.036
77.18000 7.668
77.20000 0.967
77.22000 -0.207
77.24000 2.316
77.26000 3.881
77.28000 1.844
77.30000 4.504
77.32000 4.644
77.34000 3.273
77.36000 0.326
77.38000 4.077
77.40000 7.266
77.42000 3.390
77.44000 3.078
77.46000 3.909
77.48000 2.706
77.50000 2.152
77.52000 1.826
77.54000 3.053
77.56000 1.295
77.58000 3.623
77.60000 4.551
77.62000 2.897
77.64000 3.121
77.66000 1.045
77.68000 -1.899
77.70000 2.084
77.72000 3.242
77.74000 5.645
77.76000 1.171
77.78000 4.304
77.80000 1.091
77.82000 -2.299
77.84000 -1.608
77.86000 2.140
77.88000 3.719
77.90000 2.426
77.92000 2.183
77.94000 1.127
77.96000 0.257
77.98000 1.813
78.00000 -0.485
78.02000 1.536
78.04000 2.160
78.06000 0.986
78.08000 0.249
78.10000 -0.924
78.12000 5.697
78.14000 8.640
78.16000 2.693
78.18000 3.030
78.20000 -0.035
78.22000 -1.077
78.24000 -0.014
78.26000 0.586
78.28000 -1.806
78.30000 -1.443
78.32000 1.196
78.34000 1.162
78.36000 0.379
78.38000 2.125
78.40000 4.796
78.42000 5.577
78.44000 1.829
78.46000 3.292
78.48000 4.388
78.50000 2.958
78.52000 1.538
78.54000 0.061
78.56000 -2.307
78.58000 -0.013
78.60000 2.022
78.62000 2.793
78.64000 3.753
78.66000 -0.236
78.68000 -0.251
78.70000 3.141
78.72000 2.370
78.74000 2.673
78.76000 5.781
78.78000 2.261
78.80000 -1.165
78.82000 2.231
78.84000 2.040
78.86000 1.235
78.88000 -0.103
78.90000 2.071
78.92000 -0.534
78.94000 1.197
78.96000 2.576
78.98000 3.692
79.00000 4.422
79.02000 3.374
79.04000 -2.207
79.06000 -2.341
79.08000 0.403
79.10000 2.991
79.12000 2.278
79.14000 0.046
79.16000 3.542
79.18000 0.694
79.20000 1.010
79.22000 -1.206
79.24000 2.293
79.26000 2.348
79.28000 0.900
79.30000 0.018
79.32000 1.896
79.34000 2.187
79.36000 1.312
79.38000 -0.001
79.40000 4.769
79.42000 0.022
79.44000 3.590
79.46000 0.778
79.48000 0.849
79.50000 3.373
79.52000 1.315
79.54000 1.329
79.56000 3.395
79.58000 1.632
79.60000 4.170
79.62000 2.679
79.64000 1.365
79.66000 -0.281
79.68000 -1.826
79.70000 0.286
79.72000 1.261
79.74000 3.005
79.76000 7.832
79.78000 5.123
79.80000 0.931
79.82000 -2.061
79.84000 -2.399
79.86000 -0.428
79.88000 -0.055
79.90000 1.883
79.92000 3.847
79.94000 -0.648
79.96000 -0.910
79.98000 2.776
80.00000 3.317
80.02000 4.282
80.04000 2.120
80.06000 4.700
80.08000 4.917
80.10000 2.804
80.12000 1.191
80.14000 5.225
80.16000 4.959
80.18000 7.125
80.20000 4.373
80.22000 2.726
80.24000 2.766
80.26000 4.194
80.28000 6.464
80.30000 8.220
80.32000 6.955
80.34000 4.556
80.36000 4.382
80.38000 5.640
80.40000 6.876
80.42000 -0.331
80.44000 2.904
80.46000 2.850
80.48000 1.934
80.50000 -0.918
80.52000 2.626
80.54000 3.540
80.56000 3.178
80.58000 0.708
80.60000 8.961
80.62000 7.033
80.64000 5.746
80.66000 4.224
80.68000 4.741
80.70000 2.505
80.72000 7.572
80.74000 2.399
80.76000 1.204
80.78000 1.252
80.80000 3.687
80.82000 6.637
80.84000 11.119
80.86000 11.593
80.88000 10.390
80.90000 9.788
80.92000 9.607
80.94000 9.239
80.96000 12.079
80.98000 12.438
81.00000 12.530
81.02000 8.486
81.04000 11.693
81.06000 7.934
81.08000 11.321
81.10000 16.095
81.12000 15.444
81.14000 12.117
81.16000 12.020
81.18000 14.920
81.20000 12.903
81.22000 14.954
81.24000 13.811
81.26000 11.237
81.28000 7.640
81.30000 13.442
81.32000 13.444
81.34000 13.837
81.36000 14.163
81.38000 17.414
81.40000 16.185
81.42000 15.242
81.44000 14.699
81.46000 15.535
81.48000 17.874
81.50000 23.070
81.52000 25.067
81.54000 23.007
81.56000 25.253
81.58000 22.059
81.60000 20.870
81.62000 22.601
81.64000 18.445
81.66000 21.104
81.68000 23.545
81.70000 23.388
81.72000 27.010
81.74000 23.791
81.76000 21.413
81.78000 19.603
81.80000 28.181
81.82000 24.162
81.84000 21.230
81.86000 24.112
81.88000 24.881
81.90000 24.966
81.92000 27.377
81.94000 26.167
81.96000 29.908
81.98000 31.871
82.00000 32.109
82.02000 29.955
82.04000 31.860
82.06000 29.092
82.08000 32.342
82.10000 30.868
82.12000 31.982
82.14000 29.030
82.16000 28.618
82.18000 32.198
82.20000 30.654
82.22000 29.069
82.24000 27.811
82.26000 26.336
82.28000 26.154
82.30000 27.166
82.32000 28.869
82.34000 23.157
82.36000 21.996
82.38000 29.524
82.40000 29.607
82.42000 23.297
82.44000 21.061
82.46000 19.528
82.48000 19.825
82.50000 25.324
82.52000 22.730
82.54000 19.811
82.56000 21.664
82.58000 26.936
82.60000 27.604
82.62000 19.315
82.64000 16.639
82.66000 18.611
82.68000 17.270
82.70000 18.256
82.72000 19.188
82.74000 19.180
82.76000 18.984
82.78000 17.319
82.80000 17.318
82.82000 15.858
82.84000 12.594
82.86000 16.658
82.88000 14.853
82.90000 15.864
82.92000 13.717
82.94000 15.917
82.96000 18.132
82.98000 11.701
83.00000 15.788
83.02000 13.512
83.04000 7.914
83.06000 7.894
83.08000 8.587
83.10000 7.959
83.12000 10.568
83.14000 10.421
83.16000 11.890
83.18000 9.284
83.20000 8.577
83.22000 9.094
83.24000 11.441
83.26000 7.940
83.28000 9.421
83.30000 10.187
83.32000 9.229
83.34000 9.119
83.36000 4.376
83.38000 4.583
83.40000 9.107
83.42000 4.648
83.44000 -2.438
83.46000 0.783
83.48000 5.127
83.50000 6.135
83.52000 4.635
83.54000 5.577
83.56000 5.873
83.58000 7.327
83.60000 4.744
83.62000 5.020
83.64000 3.551
83.66000 5.982
83.68000 5.673
83.70000 4.130
83.72000 2.642
83.74000 1.981
83.76000 1.929
83.78000 3.949
83.80000 2.575
83.82000 1.110
83.84000 0.085
83.86000 4.175
83.88000 4.151
83.90000 5.601
83.92000 4.755
83.94000 3.612
83.96000 5.330
83.98000 5.243
84.00000 7.125
84.02000 5.314
84.04000 1.582
84.06000 -1.654
84.08000 -2.052
84.10000 -0.493
84.12000 2.078
84.14000 5.142
84.16000 3.191
84.18000 4.989
84.20000 4.786
84.22000 2.178
84.24000 1.991
84.26000 0.094
84.28000 4.358
84.30000 4.007
84.32000 2.083
84.34000 -2.377
84.36000 0.288
84.38000 1.490
84.40000 1.109
84.42000 3.077
84.44000 3.939
84.46000 1.340
84.48000 -1.010
84.50000 2.416
84.52000 5.128
84.54000 2.602
84.56000 2.426
84.58000 -0.766
84.60000 1.976
84.62000 5.135
84.64000 4.665
84.66000 5.553
84.68000 7.912
84.70000 4.986
84.72000 0.975
84.74000 -0.242
84.76000 2.676
84.78000 7.104
84.80000 5.425
84.82000 1.479
84.84000 3.206
84.86000 5.140
84.88000 2.627
84.90000 0.384
84.92000 0.964
84.94000 4.254
84.96000 2.902
84.98000 5.484
85.00000 8.912
85.02000 3.169
85.04000 -0.164
85.06000 -0.956
85.08000 2.795
85.10000 5.386
85.12000 6.339
85.14000 2.658
85.16000 4.493
85.18000 6.055
85.20000 1.852
85.22000 1.696
85.24000 3.584
85.26000 8.139
85.28000 4.991
85.30000 6.402
85.32000 5.502
85.34000 8.770
85.36000 9.162
85.38000 7.579
85.40000 11.709
85.42000 6.341
85.44000 6.836
85.46000 8.735
85.48000 5.234
85.50000 7.236
85.52000 10.263
85.54000 10.875
85.56000 9.661
85.58000 5.641
85.60000 11.960
85.62000 14.711
85.64000 13.933
85.66000 11.179
85.68000 14.349
85.70000 16.604
85.72000 17.868
85.74000 14.778
85.76000 13.551
85.78000 15.535
85.80000 15.104
85.82000 18.576
85.84000 19.491
85.86000 22.430
85.88000 18.823
85.90000 15.728
85.92000 19.606
85.94000 21.275
85.96000 21.933
85.98000 22.452
86.00000 20.537
86.02000 23.538
86.04000 24.373
86.06000 21.454
86.08000 25.400
86.10000 26.376
86.12000 26.767
86.14000 25.269
86.16000 25.156
86.18000 22.753
86.20000 19.611
86.22000 21.735
86.24000 17.417
86.26000 18.010
86.28000 22.122
86.30000 23.100
86.32000 22.161
86.34000 24.086
86.36000 25.281
86.38000 24.877
86.40000 22.626
86.42000 16.422
86.44000 21.360
86.46000 19.510
86.48000 18.782
86.50000 18.345
86.52000 18.357
86.54000 18.509
86.56000 18.500
86.58000 16.475
86.60000 17.124
86.62000 14.526
86.64000 18.184
86.66000 17.414
86.68000 13.939
86.70000 13.107
86.72000 16.015
86.74000 13.164
86.76000 12.574
86.78000 12.769
86.80000 18.101
86.82000 16.578
86.84000 8.421
86.86000 14.471
86.88000 14.296
86.90000 5.389
86.92000 9.122
86.94000 10.211
86.96000 7.524
86.98000 2.584
87.00000 8.156
87.02000 8.768
87.04000 8.562
87.06000 7.666
87.08000 4.686
87.10000 8.567
87.12000 8.339
87.14000 3.945
87.16000 6.804
87.18000 5.292
87.20000 5.081
87.22000 5.809
87.24000 4.175
87.26000 7.087
87.28000 -1.293
87.30000 -1.507
87.32000 -1.837
87.34000 -1.137
87.36000 0.710
87.38000 1.251
87.40000 3.543
87.42000 5.279
87.44000 0.117
87.46000 2.310
87.48000 2.500
87.50000 4.235
87.52000 3.017
87.54000 1.712
87.56000 2.470
87.58000 2.435
87.60000 5.205
87.62000 6.406
87.64000 3.371
87.66000 3.579
87.68000 3.862
87.70000 3.735
87.72000 5.885
87.74000 4.627
87.76000 -0.194
87.78000 -1.151
87.80000 4.722
87.82000 3.569
87.84000 -0.395
87.86000 -2.232
87.88000 -1.834
87.90000 0.707
87.92000 2.627
87.94000 3.984
87.96000 4.529
87.98000 5.651
88.00000 4.909
88.02000 3.596
88.04000 3.795
88.06000 0.171
88.08000 2.286
88.10000 1.727
88.12000 0.546
88.14000 0.228
88.16000 -1.430
88.18000 1.893
88.20000 -2.164
88.22000 3.498
88.24000 3.626
88.26000 1.974
88.28000 2.457
88.30000 2.407
88.32000 1.952
88.34000 1.386
88.36000 4.342
88.38000 2.405
88.40000 1.557
88.42000 -0.481
88.44000 0.821
88.46000 0.162
88.48000 0.939
88.50000 2.471
88.52000 2.656
88.54000 2.012
88.56000 8.834
88.58000 3.386
88.60000 4.419
88.62000 4.362
88.64000 5.552
88.66000 4.377
88.68000 4.665
88.70000 8.643
88.72000 6.873
88.74000 0.765
88.76000 2.532
88.78000 4.330
88.80000 2.491
88.82000 5.207
88.84000 6.047
88.86000 4.985
88.88000 4.466
88.90000 7.385
88.92000 4.786
88.94000 5.712
88.96000 3.830
88.98000 1.192
89.00000 3.921
89.02000 4.449
89.04000 4.994
89.06000 4.946
89.08000 3.348
89.10000 0.307
89.12000 -2.062
89.14000 3.801
89.16000 4.357
89.18000 5.479
89.20000 -0.397
89.22000 3.071
89.24000 7.753
89.26000 8.226
89.28000 2.894
89.30000 5.823
89.32000 7.754
89.34000 5.100
89.36000 0.515
89.38000 3.421
89.40000 4.995
89.42000 1.899
89.44000 -0.389
89.46000 4.987
89.48000 3.717
89.50000 2.191
89.52000 7.302
89.54000 9.647
89.56000 6.799
89.58000 6.795
89.60000 0.756
89.62000 6.483
89.64000 4.040
89.66000 3.659
89.68000 -1.277
89.70000 -0.791
89.72000 3.285
89.74000 2.837
89.76000 3.653
89.78000 -0.224
89.80000 2.671
89.82000 8.036
89.84000 1.209
89.86000 -1.862
89.88000 0.323
89.90000 4.399
89.92000 1.943
89.94000 -0.559
89.96000 2.212
89.98000 2.969
90.00000 2.540
90.02000 3.091
90.04000 1.945
90.06000 2.950
90.08000 1.535
90.10000 4.557
90.12000 5.891
90.14000 3.972
90.16000 4.694
90.18000 3.132
90.20000 4.598
90.22000 7.641
90.24000 7.499
90.26000 5.879
90.28000 1.935
90.30000 2.576
90.32000 4.436
90.34000 2.399
90.36000 4.060
90.38000 1.113
90.40000 -2.107
90.42000 1.711
90.44000 3.055
90.46000 2.144
90.48000 4.374
90.50000 3.986
90.52000 2.946
90.54000 5.820
90.56000 6.489
90.58000 7.098
90.60000 5.151
90.62000 1.212
90.64000 0.882
90.66000 0.099
90.68000 -2.103
90.70000 -0.078
90.72000 -1.374
90.74000 -0.887
90.76000 0.610
90.78000 5.415
90.80000 1.723
90.82000 3.172
90.84000 1.403
90.86000 3.862
90.88000 3.696
90.90000 6.567
90.92000 4.253
90.94000 0.523
90.96000 0.739
90.98000 6.950
91.00000 7.615
91.02000 3.215
91.04000 7.108
91.06000 3.192
91.08000 0.667
91.10000 0.097
91.12000 1.509
91.14000 1.863
91.16000 5.765
91.18000 5.323
91.20000 4.245
91.22000 0.607
91.24000 2.488
91.26000 3.960
91.28000 2.778
91.30000 0.655
91.32000 0.911
91.34000 7.238
91.36000 9.722
91.38000 3.987
91.40000 0.874
91.42000 1.597
91.44000 4.999
91.46000 9.015
91.48000 6.584
91.50000 -2.098
91.52000 1.122
91.54000 4.570
91.56000 0.626
91.58000 -1.986
91.60000 2.901
91.62000 2.158
91.64000 2.636
91.66000 4.004
91.68000 7.260
91.70000 4.751
91.72000 4.279
91.74000 3.633
91.76000 1.992
91.78000 8.051
91.80000 6.507
91.82000 4.711
91.84000 3.496
91.86000 4.944
91.88000 4.362
91.90000 1.703
91.92000 -0.014
91.94000 3.422
91.96000 4.217
91.98000 4.187
92.00000 6.202
92.02000 2.194
92.04000 -0.211
92.06000 3.322
92.08000 1.882
92.10000 3.384
92.12000 3.360
92.14000 2.500
92.16000 3.396
92.18000 0.162
92.20000 -0.883
92.22000 2.788
92.24000 5.768
92.26000 6.005
92.28000 2.608
92.30000 4.834
92.32000 8.354
92.34000 6.760
92.36000 6.895
92.38000 3.707
92.40000 3.315
92.42000 -1.209
92.44000 -0.326
92.46000 -1.442
92.48000 0.461
92.50000 -1.421
92.52000 1.110
92.54000 -0.422
92.56000 2.744
92.58000 2.521
92.60000 5.277
92.62000 5.123
92.64000 1.747
92.66000 1.726
92.68000 1.692
92.70000 2.723
92.72000 0.407
92.74000 4.120
92.76000 5.477
92.78000 4.447
92.80000 5.117
92.82000 3.125
92.84000 0.062
92.86000 -1.796
92.88000 -0.914
92.90000 4.728
92.92000 3.230
92.94000 3.819
92.96000 8.463
92.98000 3.321
93.00000 5.660
93.02000 3.372
93.04000 2.925
93.06000 5.846
93.08000 6.549
93.10000 7.616
93.12000 0.598
93.14000 2.969
93.16000 2.742
93.18000 -0.743
93.20000 2.675
93.22000 -1.375
93.24000 -2.106
93.26000 0.811
93.28000 3.353
93.30000 7.269
93.32000 5.778
93.34000 3.820
93.36000 5.481
93.38000 1.106
93.40000 1.898
93.42000 3.735
93.44000 6.570
93.46000 4.177
93.48000 3.905
93.50000 4.853
93.52000 1.409
93.54000 2.180
93.56000 -1.334
93.58000 0.786
93.60000 6.649
93.62000 2.800
93.64000 5.346
93.66000 3.454
93.68000 2.661
93.70000 0.784
93.72000 0.832
93.74000 -0.597
93.76000 5.927
93.78000 4.784
93.80000 1.468
93.82000 3.037
93.84000 6.760
93.86000 2.428
93.88000 1.008
93.90000 3.300
93.92000 2.939
93.94000 7.411
93.96000 4.494
93.98000 6.046
94.00000 2.256
94.02000 -0.576
94.04000 1.105
94.06000 4.571
94.08000 1.238
94.10000 2.520
94.12000 7.187
94.14000 5.510
94.16000 0.550
94.18000 2.819
94.20000 5.186
94.22000 1.059
94.24000 2.365
94.26000 5.076
94.28000 4.495
94.30000 8.594
94.32000 6.078
94.34000 3.916
94.36000 3.982
94.38000 5.580
94.40000 3.193
94.42000 4.198
94.44000 6.033
94.46000 4.879
94.48000 3.520
94.50000 2.600
94.52000 5.729
94.54000 8.797
94.56000 3.772
94.58000 7.934
94.60000 6.025
94.62000 8.888
94.64000 6.608
94.66000 5.822
94.68000 4.006
94.70000 6.264
94.72000 5.384
94.74000 6.380
94.76000 6.155
94.78000 6.985
94.80000 9.797
94.82000 8.349
94.84000 7.948
94.86000 6.455
94.88000 9.882
94.90000 8.092
94.92000 2.891
94.94000 6.773
94.96000 8.342
94.98000 7.031
95.00000 5.116
95.02000 8.948
95.04000 2.913
95.06000 -2.024
95.08000 0.655
95.10000 4.668
95.12000 5.818
95.14000 11.774
95.16000 13.113
95.18000 6.458
95.20000 4.035
95.22000 8.123
95.24000 6.989
95.26000 6.643
95.28000 8.450
95.30000 10.882
95.32000 11.711
95.34000 7.955
95.36000 6.658
95.38000 8.390
95.40000 7.281
95.42000 8.856
95.44000 12.509
95.46000 10.611
95.48000 9.406
95.50000 6.188
95.52000 4.003
95.54000 3.921
95.56000 5.313
95.58000 5.748
95.60000 3.547
95.62000 1.630
95.64000 7.114
95.66000 8.302
95.68000 7.338
95.70000 7.043
95.72000 6.499
95.74000 4.055
95.76000 9.049
95.78000 6.379
95.80000 3.545
95.82000 0.233
95.84000 4.932
95.86000 9.253
95.88000 13.899
95.90000 8.933
95.92000 4.410
95.94000 6.975
95.96000 5.862
95.98000 7.456
96.00000 4.525
96.02000 2.226
96.04000 4.898
96.06000 1.176
96.08000 4.172
96.10000 3.420
96.12000 0.516
96.14000 -0.293
96.16000 3.990
96.18000 8.253
96.20000 2.469
96.22000 -0.394
96.24000 6.475
96.26000 7.409
96.28000 11.130
96.30000 12.052
96.32000 4.336
96.34000 6.437
96.36000 6.524
96.38000 3.503
96.40000 1.268
96.42000 1.299
96.44000 3.917
96.46000 5.039
96.48000 6.108
96.50000 4.177
96.52000 5.203
96.54000 6.810
96.56000 8.461
96.58000 9.186
96.60000 -0.479
96.62000 -2.093
96.64000 3.099
96.66000 2.891
96.68000 2.218
96.70000 4.775
96.72000 8.724
96.74000 9.380
96.76000 4.051
96.78000 2.966
96.80000 3.256
96.82000 9.672
96.84000 6.559
96.86000 1.938
96.88000 3.395
96.90000 3.437
96.92000 -1.063
96.94000 3.474
96.96000 3.647
96.98000 3.077
97.00000 6.772
97.02000 3.629
97.04000 4.858
97.06000 13.163
97.08000 12.596
97.10000 7.710
97.12000 2.164
97.14000 2.133
97.16000 6.406
97.18000 8.535
97.20000 2.734
97.22000 8.385
97.24000 4.212
97.26000 4.443
97.28000 2.822
97.30000 5.766
97.32000 8.297
97.34000 1.275
97.36000 1.549
97.38000 4.651
97.40000 3.759
97.42000 1.931
97.44000 1.678
97.46000 1.729
97.48000 2.390
97.50000 -0.732
97.52000 2.008
97.54000 5.648
97.56000 4.538
97.58000 3.501
97.60000 3.732
97.62000 2.445
97.64000 3.453
97.66000 0.510
97.68000 4.461
97.70000 5.778
97.72000 4.343
97.74000 2.748
97.76000 3.816
97.78000 2.354
97.80000 -0.185
97.82000 -2.107
97.84000 2.122
97.86000 5.723
97.88000 5.136
97.90000 7.178
97.92000 8.247
97.94000 1.085
97.96000 -0.831
97.98000 -2.102
98.00000 5.003
98.02000 5.338
98.04000 1.744
98.06000 7.422
98.08000 5.075
98.10000 1.608
98.12000 1.673
98.14000 7.838
98.16000 10.749
98.18000 8.106
98.20000 3.769
98.22000 1.864
98.24000 3.419
98.26000 5.169
98.28000 8.789
98.30000 9.686
98.32000 6.786
98.34000 2.814
98.36000 5.208
98.38000 4.771
98.40000 3.721
98.42000 0.586
98.44000 0.227
98.46000 -2.079
98.48000 6.793
98.50000 2.353
98.52000 0.909
98.54000 3.776
98.56000 2.492
98.58000 1.017
98.60000 3.637
98.62000 1.085
98.64000 5.028
98.66000 8.220
98.68000 4.400
98.70000 1.596
98.72000 0.696
98.74000 -1.797
98.76000 7.770
98.78000 3.997
98.80000 6.354
98.82000 9.724
98.84000 1.033
98.86000 3.532
98.88000 4.325
98.90000 4.649
98.92000 -2.047
98.94000 3.360
98.96000 7.313
98.98000 7.685
99.00000 5.515
99.02000 8.567
99.04000 3.793
99.06000 4.053
99.08000 11.053
99.10000 11.330
99.12000 9.342
99.14000 7.612
99.16000 0.023
99.18000 2.863
99.20000 10.639
99.22000 9.820
99.24000 10.278
99.26000 -1.650
99.28000 2.268
99.30000 1.605
99.32000 -2.010
99.34000 1.661
99.36000 -0.335
99.38000 4.052
99.40000 5.504
99.42000 5.514
99.44000 1.508
99.46000 0.526
99.48000 4.556
99.50000 -2.017
99.52000 2.522
99.54000 8.497
99.56000 6.189
99.58000 2.051
99.60000 8.776
99.62000 15.436
99.64000 7.168
99.66000 7.260
99.68000 7.411
99.70000 9.348
99.72000 6.222
99.74000 7.491
99.76000 2.610
99.78000 -0.335
99.80000 10.752
99.82000 5.498
99.84000 1.003
99.86000 4.213
99.88000 7.692
99.90000 7.495
99.92000 5.726
99.94000 5.261
99.96000 7.119
99.98000 0.000
