'Id: "0011389" Comment: "Integrate frame 0011389_Au-Ir-Rh_Au-Rich_XRD_Mapping-211-0000.gfrmwith cursor Wedge Cursor #5" Operator: "B?rgel" Anode: "Cu" Wavelength: "1.5406" Scantype: "2Theta (TwoTheta)" TimePerStep: "1" X: "9" Y: "9" Z: "5.95" 
10.00000 0.000
10.02000 -4.039
10.04000 -4.000
10.06000 10.041
10.08000 6.906
10.10000 8.356
10.12000 22.729
10.14000 20.436
10.16000 16.905
10.18000 15.909
10.20000 11.231
10.22000 -3.926
10.24000 5.397
10.26000 17.354
10.28000 13.031
10.30000 23.292
10.32000 28.112
10.34000 18.603
10.36000 8.660
10.38000 18.152
10.40000 24.393
10.42000 19.328
10.44000 28.749
10.46000 26.672
10.48000 24.081
10.50000 15.232
10.52000 22.827
10.54000 16.928
10.56000 18.569
10.58000 14.357
10.60000 21.190
10.62000 23.639
10.64000 32.526
10.66000 28.848
10.68000 19.986
10.70000 15.404
10.72000 14.795
10.74000 16.871
10.76000 25.924
10.78000 35.548
10.80000 25.180
10.82000 13.774
10.84000 18.826
10.86000 12.317
10.88000 3.156
10.90000 5.697
10.92000 22.592
10.94000 19.975
10.96000 19.246
10.98000 15.403
11.00000 21.044
11.02000 10.119
11.04000 14.843
11.06000 8.841
11.08000 13.973
11.10000 30.368
11.12000 17.595
11.14000 11.475
11.16000 18.059
11.18000 11.263
11.20000 6.869
11.22000 17.329
11.24000 17.833
11.26000 24.347
11.28000 18.259
11.30000 14.014
11.32000 17.734
11.34000 23.531
11.36000 19.854
11.38000 26.395
11.40000 18.717
11.42000 16.930
11.44000 11.597
11.46000 20.407
11.48000 20.387
11.50000 19.289
11.52000 16.864
11.54000 18.878
11.56000 34.143
11.58000 30.898
11.60000 32.549
11.62000 32.263
11.64000 23.644
11.66000 20.188
11.68000 20.534
11.70000 15.798
11.72000 14.492
11.74000 14.708
11.76000 17.261
11.78000 16.289
11.80000 17.218
11.82000 21.065
11.84000 19.387
11.86000 19.955
11.88000 20.191
11.90000 19.922
11.92000 18.434
11.94000 15.054
11.96000 22.490
11.98000 18.952
12.00000 23.325
12.02000 28.867
12.04000 23.104
12.06000 25.277
12.08000 31.408
12.10000 22.467
12.12000 22.080
12.14000 15.677
12.16000 19.123
12.18000 17.577
12.20000 12.019
12.22000 7.963
12.24000 10.391
12.26000 16.309
12.28000 17.091
12.30000 32.681
12.32000 29.176
12.34000 18.549
12.36000 23.247
12.38000 19.669
12.40000 19.268
12.42000 15.822
12.44000 25.202
12.46000 22.081
12.48000 33.100
12.50000 29.260
12.52000 19.992
12.54000 17.135
12.56000 17.159
12.58000 18.139
12.60000 24.895
12.62000 29.724
12.64000 27.814
12.66000 23.573
12.68000 24.340
12.70000 26.476
12.72000 31.755
12.74000 29.887
12.76000 21.113
12.78000 35.949
12.80000 24.578
12.82000 22.216
12.84000 32.179
12.86000 20.386
12.88000 21.006
12.90000 31.060
12.92000 28.196
12.94000 24.444
12.96000 32.049
12.98000 42.277
13.00000 28.154
13.02000 22.328
13.04000 32.914
13.06000 25.346
13.08000 20.151
13.10000 25.949
13.12000 25.478
13.14000 23.574
13.16000 25.143
13.18000 29.412
13.20000 33.721
13.22000 34.587
13.24000 26.483
13.26000 16.788
13.28000 17.599
13.30000 24.571
13.32000 31.584
13.34000 30.579
13.36000 21.904
13.38000 18.082
13.40000 29.726
13.42000 33.654
13.44000 28.295
13.46000 23.277
13.48000 24.377
13.50000 17.899
13.52000 20.599
13.54000 26.109
13.56000 19.155
13.58000 12.070
13.60000 29.402
13.62000 29.609
13.64000 29.613
13.66000 17.420
13.68000 10.809
13.70000 10.213
13.72000 10.154
13.74000 19.094
13.76000 11.336
13.78000 13.390
13.80000 17.018
13.82000 19.546
13.84000 22.466
13.86000 26.012
13.88000 27.786
13.90000 26.281
13.92000 19.628
13.94000 21.292
13.96000 26.036
13.98000 18.803
14.00000 11.837
14.02000 10.651
14.04000 19.321
14.06000 21.840
14.08000 15.348
14.10000 17.817
14.12000 19.836
14.14000 27.056
14.16000 22.498
14.18000 24.189
14.20000 21.269
14.22000 25.723
14.24000 22.246
14.26000 15.384
14.28000 14.451
14.30000 15.384
14.32000 20.192
14.34000 22.701
14.36000 21.154
14.38000 22.316
14.40000 20.385
14.42000 17.616
14.44000 28.594
14.46000 27.222
14.48000 18.945
14.50000 17.247
14.52000 25.835
14.54000 21.968
14.56000 18.392
14.58000 7.559
14.60000 17.642
14.62000 22.783
14.64000 21.520
14.66000 14.825
14.68000 19.834
14.70000 14.869
14.72000 15.275
14.74000 11.864
14.76000 17.620
14.78000 23.639
14.80000 17.567
14.82000 22.617
14.84000 26.277
14.86000 13.866
14.88000 12.038
14.90000 17.921
14.92000 19.561
14.94000 15.926
14.96000 18.323
14.98000 21.629
15.00000 21.896
15.02000 12.236
15.04000 9.644
15.06000 6.287
15.08000 21.539
15.10000 24.065
15.12000 20.802
15.14000 13.483
15.16000 16.788
15.18000 18.089
15.20000 23.489
15.22000 13.211
15.24000 20.093
15.26000 22.921
15.28000 12.255
15.30000 16.696
15.32000 11.945
15.34000 18.335
15.36000 24.909
15.38000 31.258
15.40000 29.473
15.42000 24.779
15.44000 25.221
15.46000 21.310
15.48000 14.151
15.50000 17.409
15.52000 20.541
15.54000 20.198
15.56000 18.719
15.58000 14.611
15.60000 19.707
15.62000 21.000
15.64000 14.042
15.66000 16.973
15.68000 20.039
15.70000 17.291
15.72000 16.664
15.74000 21.182
15.76000 13.058
15.78000 12.572
15.80000 24.352
15.82000 22.748
15.84000 14.053
15.86000 15.776
15.88000 12.231
15.90000 14.704
15.92000 9.511
15.94000 8.688
15.96000 13.440
15.98000 11.555
16.00000 18.239
16.02000 12.646
16.04000 8.771
16.06000 16.591
16.08000 11.781
16.10000 12.173
16.12000 15.422
16.14000 15.417
16.16000 14.650
16.18000 14.528
16.20000 20.255
16.22000 18.197
16.24000 8.655
16.26000 12.759
16.28000 8.355
16.30000 5.161
16.32000 7.026
16.34000 13.840
16.36000 11.611
16.38000 16.602
16.40000 11.794
16.42000 4.545
16.44000 13.177
16.46000 11.014
16.48000 10.783
16.50000 12.815
16.52000 13.084
16.54000 12.579
16.56000 12.495
16.58000 16.446
16.60000 7.485
16.62000 11.054
16.64000 16.683
16.66000 20.903
16.68000 19.583
16.70000 10.950
16.72000 20.979
16.74000 21.396
16.76000 19.259
16.78000 19.609
16.80000 15.652
16.82000 11.396
16.84000 15.032
16.86000 16.693
16.88000 11.126
16.90000 10.435
16.92000 7.308
16.94000 7.590
16.96000 17.274
16.98000 16.351
17.00000 3.298
17.02000 -4.335
17.04000 9.204
17.06000 11.692
17.08000 11.077
17.10000 15.454
17.12000 17.440
17.14000 10.115
17.16000 11.811
17.18000 13.469
17.20000 17.653
17.22000 19.519
17.24000 11.282
17.26000 14.215
17.28000 12.876
17.30000 15.554
17.32000 25.055
17.34000 22.465
17.36000 18.716
17.38000 11.549
17.40000 6.843
17.42000 10.856
17.44000 16.859
17.46000 15.358
17.48000 14.437
17.50000 16.085
17.52000 14.242
17.54000 18.949
17.56000 18.084
17.58000 12.864
17.60000 14.794
17.62000 11.662
17.64000 16.693
17.66000 18.396
17.68000 5.938
17.70000 2.108
17.72000 8.619
17.74000 10.132
17.76000 4.524
17.78000 5.939
17.80000 5.035
17.82000 6.312
17.84000 3.323
17.86000 -3.146
17.88000 6.603
17.90000 16.452
17.92000 15.769
17.94000 13.013
17.96000 9.430
17.98000 3.859
18.00000 2.671
18.02000 6.055
18.04000 3.946
18.06000 -1.618
18.08000 3.126
18.10000 4.842
18.12000 -1.869
18.14000 0.598
18.16000 4.372
18.18000 16.676
18.20000 11.090
18.22000 4.491
18.24000 8.780
18.26000 12.069
18.28000 11.832
18.30000 11.308
18.32000 16.993
18.34000 7.533
18.36000 2.556
18.38000 10.093
18.40000 10.716
18.42000 4.402
18.44000 -4.322
18.46000 6.822
18.48000 12.095
18.50000 8.371
18.52000 3.341
18.54000 -3.230
18.56000 7.151
18.58000 11.012
18.60000 7.263
18.62000 5.848
18.64000 5.861
18.66000 8.938
18.68000 9.606
18.70000 5.445
18.72000 -0.283
18.74000 3.345
18.76000 10.092
18.78000 6.872
18.80000 1.571
18.82000 1.788
18.84000 4.740
18.86000 4.787
18.88000 1.028
18.90000 6.359
18.92000 2.556
18.94000 5.034
18.96000 0.928
18.98000 0.194
19.00000 1.359
19.02000 -2.402
19.04000 0.360
19.06000 2.889
19.08000 2.346
19.10000 -3.148
19.12000 -2.553
19.14000 2.617
19.16000 3.488
19.18000 -0.096
19.20000 0.827
19.22000 5.852
19.24000 5.129
19.26000 3.419
19.28000 7.941
19.30000 6.001
19.32000 8.192
19.34000 4.923
19.36000 4.399
19.38000 3.159
19.40000 -1.791
19.42000 -2.980
19.44000 8.242
19.46000 2.867
19.48000 5.445
19.50000 6.566
19.52000 4.525
19.54000 5.273
19.56000 3.210
19.58000 7.419
19.60000 11.719
19.62000 6.888
19.64000 7.852
19.66000 4.751
19.68000 1.587
19.70000 -2.901
19.72000 -0.988
19.74000 2.556
19.76000 3.597
19.78000 1.613
19.80000 1.407
19.82000 3.826
19.84000 7.331
19.86000 4.774
19.88000 5.926
19.90000 3.379
19.92000 0.415
19.94000 3.928
19.96000 4.274
19.98000 3.370
20.00000 2.995
20.02000 -2.224
20.04000 2.477
20.06000 0.051
20.08000 -1.423
20.10000 2.460
20.12000 -2.617
20.14000 -0.984
20.16000 -0.353
20.18000 0.220
20.20000 -0.758
20.22000 -3.105
20.24000 -0.793
20.26000 5.465
20.28000 0.853
20.30000 -3.051
20.32000 7.893
20.34000 2.633
20.36000 -3.453
20.38000 -1.141
20.40000 7.636
20.42000 2.324
20.44000 2.796
20.46000 3.090
20.48000 2.884
20.50000 2.363
20.52000 -0.078
20.54000 -0.284
20.56000 3.241
20.58000 10.724
20.60000 9.075
20.62000 1.245
20.64000 0.085
20.66000 0.174
20.68000 4.879
20.70000 4.570
20.72000 3.186
20.74000 2.641
20.76000 4.745
20.78000 6.712
20.80000 4.782
20.82000 2.267
20.84000 4.068
20.86000 5.020
20.88000 6.836
20.90000 6.515
20.92000 3.688
20.94000 2.820
20.96000 8.781
20.98000 6.404
21.00000 5.545
21.02000 4.609
21.04000 0.033
21.06000 -4.181
21.08000 2.254
21.10000 12.186
21.12000 5.568
21.14000 3.675
21.16000 5.683
21.18000 12.086
21.20000 3.891
21.22000 0.649
21.24000 6.127
21.26000 8.212
21.28000 6.187
21.30000 2.425
21.32000 4.904
21.34000 0.704
21.36000 -2.149
21.38000 -1.511
21.40000 1.710
21.42000 -0.374
21.44000 2.108
21.46000 7.761
21.48000 10.500
21.50000 10.065
21.52000 14.296
21.54000 13.476
21.56000 3.568
21.58000 7.608
21.60000 2.319
21.62000 -4.135
21.64000 5.685
21.66000 11.815
21.68000 6.807
21.70000 9.769
21.72000 8.526
21.74000 17.459
21.76000 15.931
21.78000 12.091
21.80000 9.327
21.82000 -1.984
21.84000 2.907
21.86000 3.013
21.88000 6.195
21.90000 5.863
21.92000 10.575
21.94000 12.470
21.96000 4.062
21.98000 6.033
22.00000 8.208
22.02000 13.192
22.04000 4.798
22.06000 4.371
22.08000 4.097
22.10000 3.140
22.12000 7.681
22.14000 6.554
22.16000 4.528
22.18000 6.617
22.20000 7.974
22.22000 8.004
22.24000 5.323
22.26000 3.252
22.28000 8.039
22.30000 7.373
22.32000 5.384
22.34000 9.169
22.36000 4.930
22.38000 2.771
22.40000 11.510
22.42000 9.507
22.44000 0.449
22.46000 3.291
22.48000 11.847
22.50000 8.719
22.52000 3.803
22.54000 2.808
22.56000 2.520
22.58000 5.668
22.60000 7.337
22.62000 1.919
22.64000 -3.198
22.66000 -0.294
22.68000 5.117
22.70000 2.606
22.72000 5.694
22.74000 1.238
22.76000 7.279
22.78000 6.661
22.80000 6.542
22.82000 4.796
22.84000 -0.105
22.86000 -1.814
22.88000 -0.197
22.90000 0.446
22.92000 -4.083
22.94000 -1.381
22.96000 1.980
22.98000 7.940
23.00000 6.934
23.02000 8.206
23.04000 11.655
23.06000 2.773
23.08000 -2.563
23.10000 1.867
23.12000 1.206
23.14000 5.310
23.16000 2.061
23.18000 0.086
23.20000 0.318
23.22000 6.783
23.24000 14.216
23.26000 9.999
23.28000 7.714
23.30000 2.550
23.32000 -0.338
23.34000 4.643
23.36000 7.790
23.38000 4.130
23.40000 0.013
23.42000 1.451
23.44000 4.376
23.46000 9.690
23.48000 0.818
23.50000 4.807
23.52000 3.924
23.54000 0.034
23.56000 4.872
23.58000 8.510
23.60000 5.508
23.62000 2.492
23.64000 8.679
23.66000 12.519
23.68000 8.267
23.70000 0.321
23.72000 -1.828
23.74000 5.500
23.76000 5.888
23.78000 0.858
23.80000 7.846
23.82000 4.932
23.84000 -0.671
23.86000 3.611
23.88000 7.217
23.90000 5.174
23.92000 4.156
23.94000 9.841
23.96000 10.382
23.98000 6.904
24.00000 2.409
24.02000 2.280
24.04000 5.012
24.06000 4.412
24.08000 3.905
24.10000 2.341
24.12000 5.174
24.14000 8.445
24.16000 6.389
24.18000 4.721
24.20000 5.544
24.22000 5.091
24.24000 5.071
24.26000 5.764
24.28000 3.189
24.30000 2.425
24.32000 1.322
24.34000 7.313
24.36000 11.573
24.38000 11.884
24.40000 5.980
24.42000 -0.150
24.44000 -3.970
24.46000 -2.298
24.48000 5.823
24.50000 9.150
24.52000 7.723
24.54000 5.434
24.56000 7.830
24.58000 5.770
24.60000 7.115
24.62000 5.210
24.64000 1.994
24.66000 3.534
24.68000 4.049
24.70000 7.047
24.72000 9.155
24.74000 11.943
24.76000 8.570
24.78000 2.858
24.80000 4.549
24.82000 0.985
24.84000 1.820
24.86000 7.883
24.88000 5.363
24.90000 6.266
24.92000 2.401
24.94000 6.948
24.96000 5.992
24.98000 2.452
25.00000 5.450
25.02000 6.996
25.04000 2.499
25.06000 4.399
25.08000 7.758
25.10000 4.728
25.12000 6.645
25.14000 6.667
25.16000 9.918
25.18000 3.847
25.20000 1.952
25.22000 9.066
25.24000 9.759
25.26000 5.790
25.28000 3.588
25.30000 1.256
25.32000 4.780
25.34000 4.136
25.36000 6.683
25.38000 5.325
25.40000 9.187
25.42000 7.277
25.44000 0.717
25.46000 -2.865
25.48000 4.646
25.50000 4.800
25.52000 0.577
25.54000 -1.248
25.56000 2.833
25.58000 0.869
25.60000 3.889
25.62000 4.616
25.64000 7.288
25.66000 6.741
25.68000 7.610
25.70000 4.646
25.72000 0.746
25.74000 -0.803
25.76000 -0.762
25.78000 -3.604
25.80000 -1.498
25.82000 0.603
25.84000 1.502
25.86000 7.824
25.88000 7.426
25.90000 3.601
25.92000 3.807
25.94000 0.869
25.96000 -3.926
25.98000 1.182
26.00000 4.382
26.02000 -1.046
26.04000 1.149
26.06000 6.037
26.08000 8.848
26.10000 2.112
26.12000 3.647
26.14000 3.034
26.16000 5.990
26.18000 7.717
26.20000 3.989
26.22000 -1.828
26.24000 1.879
26.26000 5.636
26.28000 3.869
26.30000 4.691
26.32000 9.696
26.34000 8.644
26.36000 2.993
26.38000 -2.072
26.40000 -0.443
26.42000 0.883
26.44000 4.293
26.46000 3.239
26.48000 6.401
26.50000 5.709
26.52000 0.968
26.54000 0.822
26.56000 5.248
26.58000 3.632
26.60000 5.565
26.62000 5.228
26.64000 12.076
26.66000 8.868
26.68000 2.035
26.70000 3.710
26.72000 5.451
26.74000 4.009
26.76000 1.961
26.78000 7.144
26.80000 6.118
26.82000 5.415
26.84000 5.180
26.86000 8.867
26.88000 6.108
26.90000 3.456
26.92000 5.762
26.94000 7.433
26.96000 4.440
26.98000 -0.979
27.00000 0.471
27.02000 4.035
27.04000 1.427
27.06000 2.348
27.08000 0.735
27.10000 1.719
27.12000 0.392
27.14000 1.827
27.16000 5.584
27.18000 2.577
27.20000 -2.636
27.22000 2.919
27.24000 5.427
27.26000 2.557
27.28000 4.782
27.30000 2.540
27.32000 5.036
27.34000 -3.849
27.36000 -3.743
27.38000 1.325
27.40000 4.374
27.42000 7.759
27.44000 5.719
27.46000 2.861
27.48000 5.315
27.50000 7.919
27.52000 4.412
27.54000 1.174
27.56000 1.824
27.58000 2.983
27.60000 6.592
27.62000 -1.019
27.64000 -1.323
27.66000 6.418
27.68000 3.825
27.70000 4.856
27.72000 7.999
27.74000 8.053
27.76000 6.698
27.78000 5.810
27.80000 4.834
27.82000 3.359
27.84000 1.576
27.86000 1.233
27.88000 -1.645
27.90000 -1.434
27.92000 0.443
27.94000 4.197
27.96000 3.646
27.98000 2.820
28.00000 6.265
28.02000 6.400
28.04000 7.105
28.06000 6.219
28.08000 6.544
28.10000 5.471
28.12000 3.665
28.14000 6.321
28.16000 8.828
28.18000 0.715
28.20000 -3.789
28.22000 -1.484
28.24000 3.501
28.26000 8.190
28.28000 10.751
28.30000 5.875
28.32000 4.303
28.34000 8.994
28.36000 5.101
28.38000 4.547
28.40000 4.836
28.42000 5.840
28.44000 6.159
28.46000 4.597
28.48000 3.789
28.50000 2.267
28.52000 4.855
28.54000 9.085
28.56000 4.602
28.58000 -1.221
28.60000 -2.384
28.62000 0.213
28.64000 1.084
28.66000 2.623
28.68000 5.791
28.70000 9.045
28.72000 9.218
28.74000 5.256
28.76000 4.015
28.78000 4.963
28.80000 0.874
28.82000 3.124
28.84000 5.132
28.86000 3.804
28.88000 4.096
28.90000 7.163
28.92000 8.718
28.94000 8.161
28.96000 4.981
28.98000 6.962
29.00000 5.879
29.02000 0.679
29.04000 2.686
29.06000 4.735
29.08000 5.023
29.10000 7.586
29.12000 6.767
29.14000 1.794
29.16000 0.511
29.18000 2.177
29.20000 2.192
29.22000 3.580
29.24000 1.382
29.26000 7.649
29.28000 3.548
29.30000 7.246
29.32000 11.879
29.34000 3.770
29.36000 0.002
29.38000 3.504
29.40000 6.708
29.42000 2.142
29.44000 3.273
29.46000 0.252
29.48000 -1.208
29.50000 4.868
29.52000 5.615
29.54000 5.213
29.56000 4.462
29.58000 5.339
29.60000 5.866
29.62000 6.498
29.64000 2.855
29.66000 3.528
29.68000 0.978
29.70000 -3.274
29.72000 -3.373
29.74000 3.943
29.76000 6.741
29.78000 3.652
29.80000 4.712
29.82000 3.437
29.84000 2.856
29.86000 0.572
29.88000 -2.383
29.90000 1.078
29.92000 -1.379
29.94000 1.950
29.96000 1.954
29.98000 1.616
30.00000 0.667
30.02000 4.604
30.04000 7.582
30.06000 2.527
30.08000 0.432
30.10000 6.544
30.12000 -1.134
30.14000 3.552
30.16000 3.323
30.18000 6.147
30.20000 7.971
30.22000 6.232
30.24000 -1.129
30.26000 -3.703
30.28000 0.851
30.30000 2.773
30.32000 6.062
30.34000 6.552
30.36000 4.203
30.38000 4.468
30.40000 6.125
30.42000 4.900
30.44000 3.363
30.46000 4.287
30.48000 0.714
30.50000 3.791
30.52000 1.936
30.54000 9.345
30.56000 2.126
30.58000 6.839
30.60000 9.848
30.62000 4.260
30.64000 5.961
30.66000 8.022
30.68000 5.400
30.70000 5.577
30.72000 4.509
30.74000 5.017
30.76000 5.982
30.78000 2.134
30.80000 3.081
30.82000 6.877
30.84000 9.126
30.86000 3.373
30.88000 2.997
30.90000 6.634
30.92000 3.445
30.94000 6.201
30.96000 6.226
30.98000 2.677
31.00000 7.201
31.02000 10.024
31.04000 6.766
31.06000 4.610
31.08000 3.847
31.10000 3.586
31.12000 4.308
31.14000 0.158
31.16000 -2.813
31.18000 -0.906
31.20000 3.410
31.22000 6.066
31.24000 6.294
31.26000 6.728
31.28000 4.801
31.30000 0.035
31.32000 1.203
31.34000 3.545
31.36000 4.401
31.38000 10.203
31.40000 6.467
31.42000 1.587
31.44000 4.885
31.46000 8.320
31.48000 3.575
31.50000 2.757
31.52000 10.990
31.54000 7.586
31.56000 1.597
31.58000 2.701
31.60000 5.032
31.62000 9.183
31.64000 8.120
31.66000 -1.588
31.68000 -3.633
31.70000 3.248
31.72000 0.409
31.74000 1.665
31.76000 2.989
31.78000 1.640
31.80000 1.845
31.82000 4.092
31.84000 2.505
31.86000 -1.276
31.88000 5.074
31.90000 8.452
31.92000 5.642
31.94000 6.800
31.96000 6.703
31.98000 3.498
32.00000 -0.160
32.02000 3.620
32.04000 5.226
32.06000 7.305
32.08000 5.778
32.10000 1.853
32.12000 5.615
32.14000 5.899
32.16000 3.754
32.18000 7.145
32.20000 13.833
32.22000 9.809
32.24000 8.745
32.26000 5.393
32.28000 -0.250
32.30000 2.882
32.32000 6.047
32.34000 6.199
32.36000 5.300
32.38000 8.002
32.40000 9.239
32.42000 3.680
32.44000 3.750
32.46000 9.851
32.48000 9.574
32.50000 10.220
32.52000 9.453
32.54000 6.117
32.56000 1.120
32.58000 0.042
32.60000 8.083
32.62000 7.541
32.64000 1.098
32.66000 3.382
32.68000 8.230
32.70000 9.254
32.72000 6.996
32.74000 4.869
32.76000 11.839
32.78000 5.854
32.80000 3.582
32.82000 12.814
32.84000 6.899
32.86000 5.102
32.88000 4.883
32.90000 7.762
32.92000 4.549
32.94000 6.226
32.96000 2.967
32.98000 5.230
33.00000 2.326
33.02000 -3.587
33.04000 -0.297
33.06000 7.518
33.08000 4.235
33.10000 4.290
33.12000 4.447
33.14000 5.750
33.16000 8.303
33.18000 7.047
33.20000 3.012
33.22000 4.180
33.24000 7.633
33.26000 6.487
33.28000 5.131
33.30000 10.483
33.32000 10.021
33.34000 5.606
33.36000 6.011
33.38000 8.845
33.40000 7.847
33.42000 8.901
33.44000 10.100
33.46000 9.701
33.48000 10.226
33.50000 6.698
33.52000 4.919
33.54000 -0.133
33.56000 5.326
33.58000 7.297
33.60000 8.080
33.62000 10.226
33.64000 10.491
33.66000 6.830
33.68000 5.417
33.70000 7.314
33.72000 1.286
33.74000 -2.931
33.76000 1.720
33.78000 2.224
33.80000 -3.614
33.82000 -2.021
33.84000 1.881
33.86000 -0.728
33.88000 2.862
33.90000 6.321
33.92000 7.045
33.94000 5.904
33.96000 7.601
33.98000 10.536
34.00000 2.532
34.02000 6.744
34.04000 1.553
34.06000 1.107
34.08000 6.351
34.10000 7.460
34.12000 8.693
34.14000 8.673
34.16000 3.941
34.18000 1.323
34.20000 2.079
34.22000 4.816
34.24000 5.376
34.26000 4.330
34.28000 2.415
34.30000 4.844
34.32000 4.507
34.34000 7.014
34.36000 3.584
34.38000 0.279
34.40000 2.629
34.42000 0.921
34.44000 -2.643
34.46000 -2.474
34.48000 3.195
34.50000 0.822
34.52000 1.816
34.54000 2.825
34.56000 1.485
34.58000 -3.625
34.60000 -0.421
34.62000 0.372
34.64000 -2.320
34.66000 0.660
34.68000 4.379
34.70000 3.966
34.72000 2.841
34.74000 -0.819
34.76000 2.663
34.78000 5.285
34.80000 4.281
34.82000 3.595
34.84000 3.878
34.86000 1.801
34.88000 1.578
34.90000 1.565
34.92000 0.522
34.94000 -0.549
34.96000 0.743
34.98000 1.870
35.00000 6.456
35.02000 3.135
35.04000 1.762
35.06000 -0.723
35.08000 2.476
35.10000 -1.420
35.12000 -1.794
35.14000 1.453
35.16000 -0.862
35.18000 -2.440
35.20000 -1.348
35.22000 2.694
35.24000 3.985
35.26000 0.420
35.28000 -3.617
35.30000 -2.342
35.32000 3.318
35.34000 0.183
35.36000 2.886
35.38000 1.403
35.40000 3.259
35.42000 0.971
35.44000 0.701
35.46000 -0.570
35.48000 -3.377
35.50000 -0.455
35.52000 1.129
35.54000 -1.275
35.56000 -3.620
35.58000 2.784
35.60000 2.587
35.62000 1.764
35.64000 -0.318
35.66000 1.201
35.68000 1.362
35.70000 -3.623
35.72000 -0.708
35.74000 4.060
35.76000 4.472
35.78000 0.908
35.80000 3.076
35.82000 3.775
35.84000 -2.336
35.86000 -2.518
35.88000 0.905
35.90000 2.579
35.92000 0.520
35.94000 -0.495
35.96000 0.235
35.98000 -2.856
36.00000 -1.974
36.02000 4.041
36.04000 2.693
36.06000 1.537
36.08000 3.363
36.10000 4.245
36.12000 2.406
36.14000 6.430
36.16000 7.018
36.18000 1.187
36.20000 -1.261
36.22000 9.160
36.24000 7.899
36.26000 3.070
36.28000 1.742
36.30000 5.726
36.32000 3.954
36.34000 0.585
36.36000 2.602
36.38000 0.707
36.40000 -0.396
36.42000 0.040
36.44000 1.033
36.46000 2.681
36.48000 5.161
36.50000 4.401
36.52000 11.248
36.54000 5.362
36.56000 0.419
36.58000 0.915
36.60000 5.089
36.62000 3.742
36.64000 -1.623
36.66000 3.936
36.68000 7.169
36.70000 13.114
36.72000 6.050
36.74000 -3.627
36.76000 -0.761
36.78000 5.462
36.80000 4.663
36.82000 0.348
36.84000 3.900
36.86000 9.082
36.88000 9.301
36.90000 7.822
36.92000 8.267
36.94000 9.055
36.96000 11.198
36.98000 8.440
37.00000 7.173
37.02000 5.947
37.04000 6.865
37.06000 5.235
37.08000 8.751
37.10000 10.678
37.12000 10.229
37.14000 11.467
37.16000 8.704
37.18000 7.668
37.20000 9.847
37.22000 10.904
37.24000 12.023
37.26000 11.551
37.28000 12.833
37.30000 11.071
37.32000 13.647
37.34000 11.967
37.36000 14.475
37.38000 10.295
37.40000 11.005
37.42000 11.691
37.44000 11.789
37.46000 11.726
37.48000 18.740
37.50000 22.049
37.52000 17.288
37.54000 22.687
37.56000 23.132
37.58000 22.100
37.60000 23.890
37.62000 22.114
37.64000 14.334
37.66000 18.136
37.68000 23.628
37.70000 20.539
37.72000 22.798
37.74000 24.888
37.76000 23.068
37.78000 23.067
37.80000 21.321
37.82000 18.080
37.84000 19.933
37.86000 24.952
37.88000 24.706
37.90000 28.128
37.92000 30.569
37.94000 30.271
37.96000 31.640
37.98000 32.875
38.00000 36.481
38.02000 34.080
38.04000 34.881
38.06000 35.225
38.08000 34.601
38.10000 35.869
38.12000 39.652
38.14000 39.539
38.16000 37.543
38.18000 47.300
38.20000 46.955
38.22000 44.957
38.24000 47.160
38.26000 51.683
38.28000 51.991
38.30000 50.666
38.32000 53.806
38.34000 53.989
38.36000 56.166
38.38000 60.524
38.40000 63.249
38.42000 64.770
38.44000 64.190
38.46000 71.637
38.48000 75.779
38.50000 73.033
38.52000 84.724
38.54000 89.003
38.56000 91.150
38.58000 93.587
38.60000 98.896
38.62000 102.130
38.64000 110.070
38.66000 116.586
38.68000 117.494
38.70000 125.803
38.72000 133.630
38.74000 140.793
38.76000 147.702
38.78000 155.810
38.80000 165.367
38.82000 173.689
38.84000 185.512
38.86000 201.646
38.88000 209.690
38.90000 223.568
38.92000 234.288
38.94000 251.154
38.96000 268.544
38.98000 281.693
39.00000 289.953
39.02000 303.571
39.04000 321.877
39.06000 342.524
39.08000 351.225
39.10000 372.759
39.12000 384.407
39.14000 400.078
39.16000 419.977
39.18000 432.218
39.20000 445.425
39.22000 456.865
39.24000 468.047
39.26000 487.695
39.28000 497.326
39.30000 499.573
39.32000 502.640
39.34000 506.250
39.36000 504.579
39.38000 506.601
39.40000 499.877
39.42000 494.409
39.44000 483.174
39.46000 468.505
39.48000 460.000
39.50000 439.522
39.52000 429.885
39.54000 411.657
39.56000 387.092
39.58000 373.420
39.60000 364.373
39.62000 347.530
39.64000 322.983
39.66000 309.519
39.68000 292.266
39.70000 275.147
39.72000 262.809
39.74000 241.954
39.76000 231.111
39.78000 218.661
39.80000 201.745
39.82000 191.418
39.84000 176.773
39.86000 165.401
39.88000 155.291
39.90000 149.546
39.92000 143.889
39.94000 132.886
39.96000 120.976
39.98000 109.998
40.00000 104.769
40.02000 102.759
40.04000 93.510
40.06000 92.309
40.08000 82.712
40.10000 78.121
40.12000 74.601
40.14000 74.846
40.16000 72.063
40.18000 64.945
40.20000 60.267
40.22000 58.676
40.24000 53.777
40.26000 48.375
40.28000 45.238
40.30000 48.658
40.32000 47.653
40.34000 39.920
40.36000 39.541
40.38000 38.310
40.40000 39.521
40.42000 33.814
40.44000 37.276
40.46000 32.225
40.48000 30.123
40.50000 27.035
40.52000 22.217
40.54000 23.200
40.56000 23.830
40.58000 26.367
40.60000 24.792
40.62000 17.809
40.64000 19.116
40.66000 24.747
40.68000 23.351
40.70000 20.599
40.72000 18.300
40.74000 22.154
40.76000 18.599
40.78000 19.990
40.80000 17.972
40.82000 10.228
40.84000 14.537
40.86000 16.888
40.88000 12.834
40.90000 16.947
40.92000 18.637
40.94000 16.027
40.96000 15.318
40.98000 11.306
41.00000 13.644
41.02000 10.499
41.04000 7.651
41.06000 5.574
41.08000 4.732
41.10000 7.208
41.12000 11.435
41.14000 7.667
41.16000 8.437
41.18000 6.091
41.20000 6.389
41.22000 5.616
41.24000 4.438
41.26000 5.138
41.28000 8.857
41.30000 4.510
41.32000 4.600
41.34000 6.572
41.36000 8.070
41.38000 7.961
41.40000 7.222
41.42000 5.907
41.44000 7.454
41.46000 2.720
41.48000 1.181
41.50000 5.831
41.52000 5.358
41.54000 7.597
41.56000 8.318
41.58000 2.552
41.60000 1.414
41.62000 7.497
41.64000 3.528
41.66000 5.181
41.68000 7.727
41.70000 4.134
41.72000 0.817
41.74000 1.344
41.76000 3.885
41.78000 -0.505
41.80000 2.431
41.82000 3.709
41.84000 -0.650
41.86000 -2.495
41.88000 -1.478
41.90000 5.070
41.92000 3.616
41.94000 2.688
41.96000 1.120
41.98000 0.149
42.00000 3.193
42.02000 0.833
42.04000 -2.495
42.06000 -3.322
42.08000 3.075
42.10000 7.782
42.12000 6.549
42.14000 1.607
42.16000 3.604
42.18000 3.774
42.20000 3.300
42.22000 3.408
42.24000 5.264
42.26000 6.755
42.28000 6.106
42.30000 0.711
42.32000 0.316
42.34000 -0.108
42.36000 2.297
42.38000 4.167
42.40000 -1.195
42.42000 -0.605
42.44000 -0.661
42.46000 -0.469
42.48000 -1.746
42.50000 -1.680
42.52000 -1.776
42.54000 1.667
42.56000 4.973
42.58000 2.712
42.60000 2.202
42.62000 0.164
42.64000 2.486
42.66000 -1.034
42.68000 -2.857
42.70000 1.511
42.72000 2.938
42.74000 -1.628
42.76000 -0.007
42.78000 -2.537
42.80000 -3.253
42.82000 -2.851
42.84000 -0.696
42.86000 0.924
42.88000 5.354
42.90000 0.197
42.92000 -1.415
42.94000 1.680
42.96000 -1.320
42.98000 -1.993
43.00000 3.630
43.02000 4.245
43.04000 -0.454
43.06000 -3.225
43.08000 0.302
43.10000 2.470
43.12000 0.851
43.14000 3.041
43.16000 4.175
43.18000 1.732
43.20000 -1.682
43.22000 -1.343
43.24000 2.583
43.26000 0.557
43.28000 4.237
43.30000 5.970
43.32000 3.308
43.34000 1.647
43.36000 -0.338
43.38000 0.481
43.40000 0.827
43.42000 -0.446
43.44000 1.435
43.46000 1.264
43.48000 1.854
43.50000 1.797
43.52000 2.578
43.54000 1.755
43.56000 2.696
43.58000 0.286
43.60000 -1.619
43.62000 -0.370
43.64000 1.723
43.66000 5.174
43.68000 3.576
43.70000 2.557
43.72000 1.414
43.74000 -0.541
43.76000 0.203
43.78000 2.066
43.80000 1.973
43.82000 -3.147
43.84000 -1.285
43.86000 2.701
43.88000 1.891
43.90000 0.725
43.92000 2.113
43.94000 4.457
43.96000 4.756
43.98000 4.187
44.00000 3.464
44.02000 2.550
44.04000 2.360
44.06000 -2.322
44.08000 -0.741
44.10000 -0.904
44.12000 -1.363
44.14000 -1.070
44.16000 -1.796
44.18000 1.328
44.20000 4.807
44.22000 3.368
44.24000 1.138
44.26000 -0.167
44.28000 2.074
44.30000 6.203
44.32000 3.422
44.34000 3.722
44.36000 4.594
44.38000 3.703
44.40000 2.859
44.42000 -0.330
44.44000 2.537
44.46000 6.788
44.48000 0.988
44.50000 4.711
44.52000 6.355
44.54000 6.471
44.56000 6.879
44.58000 3.307
44.60000 3.651
44.62000 4.953
44.64000 6.810
44.66000 3.443
44.68000 6.289
44.70000 4.819
44.72000 5.304
44.74000 8.186
44.76000 9.857
44.78000 12.100
44.80000 8.442
44.82000 6.671
44.84000 6.344
44.86000 9.147
44.88000 12.657
44.90000 11.763
44.92000 9.515
44.94000 6.735
44.96000 7.187
44.98000 10.312
45.00000 15.711
45.02000 17.581
45.04000 15.631
45.06000 15.811
45.08000 15.406
45.10000 15.780
45.12000 16.136
45.14000 18.790
45.16000 19.778
45.18000 20.241
45.20000 20.003
45.22000 18.892
45.24000 20.881
45.26000 22.911
45.28000 22.624
45.30000 25.384
45.32000 27.485
45.34000 26.679
45.36000 27.507
45.38000 28.316
45.40000 32.389
45.42000 32.910
45.44000 37.985
45.46000 37.975
45.48000 37.592
45.50000 36.070
45.52000 40.147
45.54000 41.494
45.56000 38.770
45.58000 42.740
45.60000 50.369
45.62000 48.495
45.64000 48.565
45.66000 52.105
45.68000 50.962
45.70000 53.676
45.72000 58.820
45.74000 55.151
45.76000 60.244
45.78000 58.892
45.80000 60.146
45.82000 62.633
45.84000 67.098
45.86000 68.159
45.88000 67.666
45.90000 68.133
45.92000 66.198
45.94000 66.822
45.96000 66.595
45.98000 61.623
46.00000 64.282
46.02000 66.457
46.04000 65.641
46.06000 66.732
46.08000 64.118
46.10000 64.540
46.12000 66.385
46.14000 65.853
46.16000 63.778
46.18000 61.725
46.20000 58.358
46.22000 58.944
46.24000 59.405
46.26000 54.891
46.28000 50.785
46.30000 51.354
46.32000 45.997
46.34000 46.328
46.36000 49.518
46.38000 45.268
46.40000 44.087
46.42000 40.092
46.44000 39.462
46.46000 35.997
46.48000 36.007
46.50000 36.145
46.52000 37.234
46.54000 29.056
46.56000 28.931
46.58000 29.453
46.60000 27.561
46.62000 26.455
46.64000 26.097
46.66000 22.343
46.68000 22.083
46.70000 22.065
46.72000 17.552
46.74000 14.880
46.76000 14.812
46.78000 14.594
46.80000 15.412
46.82000 19.444
46.84000 14.583
46.86000 12.270
46.88000 11.223
46.90000 6.852
46.92000 6.498
46.94000 7.155
46.96000 9.838
46.98000 10.282
47.00000 8.867
47.02000 4.297
47.04000 3.248
47.06000 1.419
47.08000 3.956
47.10000 6.548
47.12000 7.118
47.14000 3.534
47.16000 5.521
47.18000 1.250
47.20000 0.889
47.22000 -0.218
47.24000 2.186
47.26000 4.104
47.28000 5.689
47.30000 2.251
47.32000 3.079
47.34000 5.019
47.36000 5.299
47.38000 3.672
47.40000 -1.035
47.42000 1.095
47.44000 2.967
47.46000 -1.636
47.48000 -2.739
47.50000 -0.423
47.52000 0.284
47.54000 0.491
47.56000 7.705
47.58000 9.989
47.60000 3.387
47.62000 1.696
47.64000 2.190
47.66000 2.136
47.68000 -0.155
47.70000 0.101
47.72000 3.035
47.74000 1.806
47.76000 0.763
47.78000 0.499
47.80000 -1.179
47.82000 1.921
47.84000 -0.257
47.86000 -0.821
47.88000 0.397
47.90000 1.922
47.92000 3.541
47.94000 3.888
47.96000 3.372
47.98000 -2.068
48.00000 0.754
48.02000 4.323
48.04000 -0.199
48.06000 0.757
48.08000 2.104
48.10000 1.322
48.12000 0.307
48.14000 -0.341
48.16000 -1.158
48.18000 -2.623
48.20000 -0.046
48.22000 -2.655
48.24000 -0.454
48.26000 1.133
48.28000 2.309
48.30000 1.190
48.32000 0.437
48.34000 -1.343
48.36000 0.986
48.38000 -0.277
48.40000 -0.275
48.42000 -0.455
48.44000 0.791
48.46000 1.522
48.48000 1.992
48.50000 4.599
48.52000 2.260
48.54000 1.127
48.56000 4.307
48.58000 2.571
48.60000 3.770
48.62000 -1.653
48.64000 -1.553
48.66000 -2.615
48.68000 1.058
48.70000 1.981
48.72000 0.456
48.74000 -2.612
48.76000 -1.997
48.78000 1.956
48.80000 4.262
48.82000 -0.825
48.84000 -0.872
48.86000 4.506
48.88000 2.401
48.90000 1.325
48.92000 3.180
48.94000 5.179
48.96000 1.978
48.98000 3.990
49.00000 2.860
49.02000 -0.429
49.04000 -2.453
49.06000 1.117
49.08000 1.663
49.10000 0.260
49.12000 0.595
49.14000 2.926
49.16000 2.104
49.18000 0.862
49.20000 -1.422
49.22000 -2.501
49.24000 2.820
49.26000 3.795
49.28000 1.310
49.30000 2.776
49.32000 2.319
49.34000 5.614
49.36000 3.242
49.38000 1.194
49.40000 0.783
49.42000 2.102
49.44000 1.778
49.46000 -0.475
49.48000 1.535
49.50000 0.070
49.52000 1.398
49.54000 -0.465
49.56000 1.163
49.58000 2.175
49.60000 2.861
49.62000 5.282
49.64000 4.299
49.66000 1.892
49.68000 2.439
49.70000 1.929
49.72000 -2.268
49.74000 -1.958
49.76000 -2.563
49.78000 0.558
49.80000 2.082
49.82000 2.477
49.84000 1.412
49.86000 -1.649
49.88000 -1.634
49.90000 2.854
49.92000 3.225
49.94000 2.571
49.96000 2.386
49.98000 1.051
50.00000 2.619
50.02000 2.869
50.04000 -1.039
50.06000 -1.080
50.08000 0.459
50.10000 4.912
50.12000 6.175
50.14000 1.940
50.16000 3.537
50.18000 3.296
50.20000 -0.035
50.22000 0.035
50.24000 -1.911
50.26000 1.005
50.28000 2.482
50.30000 3.419
50.32000 1.684
50.34000 -0.473
50.36000 0.395
50.38000 2.055
50.40000 3.784
50.42000 0.966
50.44000 1.158
50.46000 1.036
50.48000 3.339
50.50000 -0.015
50.52000 2.003
50.54000 1.656
50.56000 2.917
50.58000 0.372
50.60000 -2.548
50.62000 2.079
50.64000 -0.580
50.66000 -2.020
50.68000 -0.703
50.70000 -0.310
50.72000 0.024
50.74000 3.119
50.76000 1.151
50.78000 2.980
50.80000 1.128
50.82000 1.131
50.84000 0.052
50.86000 1.561
50.88000 5.101
50.90000 1.983
50.92000 1.069
50.94000 2.139
50.96000 2.630
50.98000 3.541
51.00000 -1.970
51.02000 -0.722
51.04000 4.281
51.06000 1.242
51.08000 3.268
51.10000 3.882
51.12000 -0.355
51.14000 -1.412
51.16000 2.125
51.18000 0.056
51.20000 -0.301
51.22000 2.720
51.24000 0.765
51.26000 -1.259
51.28000 -0.559
51.30000 3.445
51.32000 3.208
51.34000 2.437
51.36000 3.088
51.38000 4.064
51.40000 1.138
51.42000 -2.495
51.44000 -0.653
51.46000 1.860
51.48000 1.790
51.50000 5.367
51.52000 5.934
51.54000 3.980
51.56000 3.698
51.58000 3.499
51.60000 1.458
51.62000 -2.477
51.64000 0.026
51.66000 3.330
51.68000 4.538
51.70000 1.255
51.72000 1.728
51.74000 4.736
51.76000 3.964
51.78000 3.643
51.80000 0.209
51.82000 2.635
51.84000 2.069
51.86000 1.774
51.88000 1.547
51.90000 2.527
51.92000 4.213
51.94000 7.764
51.96000 7.430
51.98000 4.875
52.00000 2.980
52.02000 3.144
52.04000 0.468
52.06000 2.017
52.08000 3.998
52.10000 1.831
52.12000 0.087
52.14000 1.604
52.16000 0.446
52.18000 0.962
52.20000 3.911
52.22000 2.986
52.24000 -2.465
52.26000 -1.084
52.28000 2.250
52.30000 4.908
52.32000 2.106
52.34000 0.126
52.36000 2.217
52.38000 7.044
52.40000 5.014
52.42000 6.128
52.44000 5.279
52.46000 5.372
52.48000 5.268
52.50000 2.598
52.52000 4.589
52.54000 3.566
52.56000 1.735
52.58000 4.764
52.60000 2.325
52.62000 2.998
52.64000 4.852
52.66000 3.730
52.68000 4.941
52.70000 1.939
52.72000 6.662
52.74000 6.997
52.76000 3.861
52.78000 3.162
52.80000 4.752
52.82000 3.089
52.84000 -2.432
52.86000 -0.992
52.88000 2.481
52.90000 1.239
52.92000 3.702
52.94000 3.155
52.96000 1.913
52.98000 4.813
53.00000 5.028
53.02000 3.371
53.04000 2.569
53.06000 1.081
53.08000 2.031
53.10000 2.434
53.12000 -1.538
53.14000 -0.507
53.16000 8.847
53.18000 9.650
53.20000 2.436
53.22000 2.867
53.24000 5.799
53.26000 3.809
53.28000 6.618
53.30000 5.084
53.32000 2.529
53.34000 2.644
53.36000 5.509
53.38000 4.676
53.40000 3.768
53.42000 2.307
53.44000 2.225
53.46000 1.254
53.48000 2.946
53.50000 0.263
53.52000 4.137
53.54000 6.109
53.56000 4.176
53.58000 2.067
53.60000 2.134
53.62000 3.496
53.64000 6.609
53.66000 7.518
53.68000 3.877
53.70000 2.438
53.72000 2.682
53.74000 3.472
53.76000 3.911
53.78000 3.450
53.80000 4.194
53.82000 6.452
53.84000 8.574
53.86000 8.538
53.88000 5.860
53.90000 1.783
53.92000 2.207
53.94000 2.491
53.96000 -0.112
53.98000 1.177
54.00000 4.790
54.02000 1.459
54.04000 4.339
54.06000 5.194
54.08000 2.030
54.10000 2.163
54.12000 5.595
54.14000 7.798
54.16000 3.273
54.18000 -2.376
54.20000 2.538
54.22000 6.606
54.24000 3.452
54.26000 6.248
54.28000 8.111
54.30000 3.448
54.32000 2.636
54.34000 3.026
54.36000 0.476
54.38000 2.514
54.40000 1.718
54.42000 0.746
54.44000 1.961
54.46000 5.179
54.48000 0.406
54.50000 -1.674
54.52000 -0.860
54.54000 2.478
54.56000 5.553
54.58000 7.121
54.60000 2.828
54.62000 0.805
54.64000 5.271
54.66000 4.758
54.68000 2.572
54.70000 0.808
54.72000 0.302
54.74000 3.260
54.76000 5.167
54.78000 2.555
54.80000 3.641
54.82000 3.580
54.84000 3.805
54.86000 6.355
54.88000 6.329
54.90000 4.226
54.92000 5.465
54.94000 2.602
54.96000 -0.120
54.98000 1.151
55.00000 3.376
55.02000 3.650
55.04000 1.869
55.06000 2.342
55.08000 2.829
55.10000 1.048
55.12000 1.433
55.14000 3.007
55.16000 3.321
55.18000 2.597
55.20000 2.282
55.22000 3.835
55.24000 5.008
55.26000 4.053
55.28000 2.760
55.30000 4.103
55.32000 2.932
55.34000 0.955
55.36000 2.125
55.38000 3.083
55.40000 5.082
55.42000 1.349
55.44000 -0.811
55.46000 0.180
55.48000 -1.571
55.50000 0.373
55.52000 0.970
55.54000 0.624
55.56000 0.660
55.58000 6.025
55.60000 4.280
55.62000 1.846
55.64000 1.398
55.66000 1.505
55.68000 0.476
55.70000 4.665
55.72000 9.519
55.74000 5.799
55.76000 0.543
55.78000 1.740
55.80000 5.165
55.82000 3.354
55.84000 -1.710
55.86000 1.688
55.88000 5.415
55.90000 2.787
55.92000 2.064
55.94000 5.466
55.96000 3.887
55.98000 2.981
56.00000 4.684
56.02000 3.366
56.04000 3.276
56.06000 4.445
56.08000 3.630
56.10000 0.379
56.12000 1.299
56.14000 2.299
56.16000 2.512
56.18000 1.997
56.20000 4.894
56.22000 3.674
56.24000 4.783
56.26000 6.670
56.28000 3.787
56.30000 6.222
56.32000 4.221
56.34000 3.345
56.36000 2.413
56.38000 3.543
56.40000 5.154
56.42000 1.077
56.44000 1.482
56.46000 -2.309
56.48000 0.303
56.50000 4.397
56.52000 7.882
56.54000 8.588
56.56000 5.402
56.58000 8.413
56.60000 5.753
56.62000 2.343
56.64000 1.953
56.66000 3.736
56.68000 5.697
56.70000 5.766
56.72000 4.801
56.74000 5.314
56.76000 1.714
56.78000 -0.944
56.80000 2.776
56.82000 -0.911
56.84000 -0.430
56.86000 2.211
56.88000 2.160
56.90000 2.575
56.92000 1.580
56.94000 1.336
56.96000 0.675
56.98000 0.577
57.00000 3.707
57.02000 1.589
57.04000 1.323
57.06000 1.473
57.08000 4.387
57.10000 -0.293
57.12000 -1.024
57.14000 3.040
57.16000 2.077
57.18000 -0.393
57.20000 1.072
57.22000 1.204
57.24000 2.327
57.26000 6.437
57.28000 6.259
57.30000 5.735
57.32000 4.676
57.34000 1.332
57.36000 3.101
57.38000 4.185
57.40000 2.804
57.42000 4.507
57.44000 5.673
57.46000 0.571
57.48000 0.407
57.50000 1.437
57.52000 2.691
57.54000 3.044
57.56000 5.132
57.58000 4.006
57.60000 0.984
57.62000 -0.041
57.64000 2.633
57.66000 1.770
57.68000 3.218
57.70000 3.526
57.72000 5.902
57.74000 5.316
57.76000 3.657
57.78000 2.036
57.80000 1.674
57.82000 0.697
57.84000 -0.104
57.86000 0.439
57.88000 -2.305
57.90000 -0.824
57.92000 1.013
57.94000 2.982
57.96000 6.035
57.98000 0.997
58.00000 1.475
58.02000 2.603
58.04000 2.831
58.06000 2.424
58.08000 -0.784
58.10000 1.798
58.12000 3.198
58.14000 2.068
58.16000 -0.333
58.18000 4.733
58.20000 0.914
58.22000 0.662
58.24000 5.196
58.26000 6.251
58.28000 3.676
58.30000 3.607
58.32000 -0.051
58.34000 0.510
58.36000 0.454
58.38000 2.273
58.40000 2.936
58.42000 1.744
58.44000 0.992
58.46000 1.499
58.48000 3.679
58.50000 2.652
58.52000 2.872
58.54000 1.659
58.56000 0.408
58.58000 -2.303
58.60000 -0.250
58.62000 0.253
58.64000 4.136
58.66000 4.928
58.68000 5.235
58.70000 4.869
58.72000 3.276
58.74000 -0.589
58.76000 3.611
58.78000 3.563
58.80000 2.955
58.82000 3.294
58.84000 1.621
58.86000 1.420
58.88000 0.733
58.90000 5.388
58.92000 4.786
58.94000 2.487
58.96000 2.875
58.98000 5.132
59.00000 1.715
59.02000 0.136
59.04000 1.988
59.06000 5.536
59.08000 2.092
59.10000 -1.410
59.12000 -0.172
59.14000 4.237
59.16000 5.156
59.18000 2.486
59.20000 2.326
59.22000 1.779
59.24000 2.321
59.26000 3.617
59.28000 3.015
59.30000 0.981
59.32000 2.877
59.34000 0.926
59.36000 1.425
59.38000 1.757
59.40000 1.796
59.42000 1.666
59.44000 -1.966
59.46000 -2.295
59.48000 -1.470
59.50000 0.518
59.52000 3.725
59.54000 2.854
59.56000 5.538
59.58000 3.057
59.60000 2.942
59.62000 5.647
59.64000 5.194
59.66000 2.116
59.68000 1.473
59.70000 0.698
59.72000 2.501
59.74000 1.220
59.76000 -2.169
59.78000 -1.193
59.80000 0.483
59.82000 1.432
59.84000 1.864
59.86000 0.085
59.88000 -0.131
59.90000 -0.213
59.92000 -1.366
59.94000 1.813
59.96000 2.242
59.98000 0.789
60.00000 -0.722
60.02000 2.204
60.04000 2.017
60.06000 1.861
60.08000 2.217
60.10000 2.454
60.12000 3.794
60.14000 2.616
60.16000 0.683
60.18000 2.662
60.20000 -0.701
60.22000 3.489
60.24000 4.531
60.26000 -0.299
60.28000 -0.864
60.30000 1.944
60.32000 1.456
60.34000 4.718
60.36000 1.965
60.38000 -0.437
60.40000 -2.253
60.42000 -2.252
60.44000 -0.193
60.46000 -1.292
60.48000 0.602
60.50000 0.412
60.52000 3.205
60.54000 5.356
60.56000 3.497
60.58000 4.249
60.60000 2.537
60.62000 2.698
60.64000 0.287
60.66000 -1.147
60.68000 1.601
60.70000 2.017
60.72000 2.687
60.74000 1.313
60.76000 0.154
60.78000 0.850
60.80000 1.226
60.82000 -0.383
60.84000 -0.570
60.86000 1.770
60.88000 2.171
60.90000 2.816
60.92000 2.003
60.94000 2.928
60.96000 -0.999
60.98000 1.798
61.00000 -0.126
61.02000 0.930
61.04000 1.662
61.06000 -1.430
61.08000 -1.329
61.10000 -0.356
61.12000 0.207
61.14000 2.224
61.16000 2.297
61.18000 -0.097
61.20000 0.165
61.22000 1.832
61.24000 3.904
61.26000 2.688
61.28000 -0.521
61.30000 -2.241
61.32000 -0.580
61.34000 -0.219
61.36000 0.133
61.38000 -0.537
61.40000 -0.633
61.42000 -0.745
61.44000 0.368
61.46000 0.941
61.48000 0.043
61.50000 -0.292
61.52000 0.089
61.54000 -1.054
61.56000 0.143
61.58000 -1.350
61.60000 -0.670
61.62000 1.251
61.64000 0.624
61.66000 -0.065
61.68000 -1.090
61.70000 -0.121
61.72000 0.160
61.74000 -0.983
61.76000 3.120
61.78000 3.662
61.80000 1.584
61.82000 -0.619
61.84000 0.353
61.86000 0.556
61.88000 -1.410
61.90000 -2.000
61.92000 2.316
61.94000 2.777
61.96000 3.710
61.98000 0.182
62.00000 0.169
62.02000 2.900
62.04000 1.038
62.06000 0.692
62.08000 -0.970
62.10000 0.908
62.12000 -1.405
62.14000 -0.179
62.16000 1.264
62.18000 3.950
62.20000 1.411
62.22000 -2.212
62.24000 0.105
62.26000 1.985
62.28000 0.052
62.30000 3.224
62.32000 4.874
62.34000 3.741
62.36000 0.862
62.38000 -1.642
62.40000 -1.307
62.42000 0.317
62.44000 2.620
62.46000 2.952
62.48000 -1.183
62.50000 -0.298
62.52000 -2.137
62.54000 -0.127
62.56000 2.039
62.58000 1.621
62.60000 2.644
62.62000 2.120
62.64000 0.496
62.66000 1.063
62.68000 2.406
62.70000 1.987
62.72000 2.003
62.74000 2.228
62.76000 2.219
62.78000 3.572
62.80000 1.848
62.82000 -0.713
62.84000 -0.834
62.86000 -2.206
62.88000 -0.410
62.90000 1.787
62.92000 -1.368
62.94000 -1.364
62.96000 1.173
62.98000 1.281
63.00000 1.940
63.02000 1.233
63.04000 1.774
63.06000 4.729
63.08000 6.615
63.10000 2.678
63.12000 2.736
63.14000 0.290
63.16000 1.713
63.18000 0.330
63.20000 -2.211
63.22000 -1.998
63.24000 3.727
63.26000 3.684
63.28000 5.309
63.30000 1.403
63.32000 1.363
63.34000 -0.093
63.36000 -1.404
63.38000 -1.622
63.40000 1.599
63.42000 -0.316
63.44000 0.204
63.46000 -1.726
63.48000 2.547
63.50000 -1.061
63.52000 -1.940
63.54000 1.474
63.56000 1.407
63.58000 1.589
63.60000 0.645
63.62000 1.414
63.64000 0.694
63.66000 1.197
63.68000 2.776
63.70000 0.017
63.72000 -0.711
63.74000 0.225
63.76000 -1.819
63.78000 -1.074
63.80000 -1.360
63.82000 0.021
63.84000 -0.817
63.86000 -2.203
63.88000 1.257
63.90000 -0.812
63.92000 0.484
63.94000 1.514
63.96000 3.582
63.98000 4.246
64.00000 4.090
64.02000 2.163
64.04000 1.904
64.06000 2.417
64.08000 2.287
64.10000 2.353
64.12000 3.079
64.14000 3.269
64.16000 2.753
64.18000 1.092
64.20000 -1.252
64.22000 -1.196
64.24000 -1.254
64.26000 0.856
64.28000 4.288
64.30000 3.717
64.32000 4.984
64.34000 5.555
64.36000 2.175
64.38000 1.253
64.40000 0.799
64.42000 0.808
64.44000 2.422
64.46000 1.874
64.48000 1.815
64.50000 2.822
64.52000 2.891
64.54000 1.029
64.56000 -0.266
64.58000 0.851
64.60000 3.115
64.62000 0.428
64.64000 -2.183
64.66000 0.317
64.68000 1.140
64.70000 1.748
64.72000 1.835
64.74000 -0.764
64.76000 1.976
64.78000 3.158
64.80000 0.573
64.82000 1.909
64.84000 2.304
64.86000 1.232
64.88000 1.307
64.90000 2.378
64.92000 1.212
64.94000 -1.319
64.96000 -0.228
64.98000 0.269
65.00000 -0.005
65.02000 1.159
65.04000 1.903
65.06000 4.305
65.08000 5.042
65.10000 3.597
65.12000 -0.975
65.14000 1.592
65.16000 2.236
65.18000 0.956
65.20000 -0.196
65.22000 -0.944
65.24000 -1.752
65.26000 0.942
65.28000 -0.033
65.30000 0.021
65.32000 0.905
65.34000 0.887
65.36000 -0.086
65.38000 1.054
65.40000 3.417
65.42000 3.668
65.44000 1.375
65.46000 1.481
65.48000 0.826
65.50000 1.902
65.52000 -0.498
65.54000 -1.705
65.56000 -0.330
65.58000 0.405
65.60000 -2.192
65.62000 0.804
65.64000 2.231
65.66000 1.390
65.68000 2.325
65.70000 -0.267
65.72000 -0.453
65.74000 -1.640
65.76000 0.612
65.78000 -0.822
65.80000 -0.222
65.82000 1.480
65.84000 1.850
65.86000 2.422
65.88000 2.168
65.90000 1.820
65.92000 0.846
65.94000 2.134
65.96000 4.217
65.98000 4.163
66.00000 1.059
66.02000 -0.512
66.04000 1.417
66.06000 1.772
66.08000 1.109
66.10000 1.383
66.12000 1.142
66.14000 0.651
66.16000 1.722
66.18000 3.202
66.20000 3.545
66.22000 2.593
66.24000 4.065
66.26000 3.752
66.28000 2.260
66.30000 5.607
66.32000 4.361
66.34000 1.357
66.36000 5.440
66.38000 5.019
66.40000 4.194
66.42000 4.018
66.44000 3.112
66.46000 4.274
66.48000 5.822
66.50000 3.286
66.52000 5.476
66.54000 4.297
66.56000 5.148
66.58000 7.352
66.60000 7.786
66.62000 7.812
66.64000 8.603
66.66000 9.281
66.68000 7.771
66.70000 6.823
66.72000 5.924
66.74000 6.948
66.76000 9.010
66.78000 5.667
66.80000 6.540
66.82000 9.401
66.84000 7.436
66.86000 7.027
66.88000 8.695
66.90000 6.341
66.92000 6.458
66.94000 9.485
66.96000 6.640
66.98000 9.081
67.00000 12.229
67.02000 11.685
67.04000 6.859
67.06000 6.374
67.08000 7.733
67.10000 6.654
67.12000 7.027
67.14000 8.097
67.16000 7.558
67.18000 7.648
67.20000 6.340
67.22000 5.732
67.24000 6.305
67.26000 5.083
67.28000 4.308
67.30000 5.584
67.32000 5.084
67.34000 4.379
67.36000 3.549
67.38000 3.933
67.40000 5.191
67.42000 4.494
67.44000 2.500
67.46000 2.699
67.48000 5.174
67.50000 3.394
67.52000 1.951
67.54000 1.444
67.56000 0.756
67.58000 1.638
67.60000 2.703
67.62000 3.320
67.64000 3.040
67.66000 2.507
67.68000 2.570
67.70000 -0.773
67.72000 -0.263
67.74000 -0.425
67.76000 0.344
67.78000 1.315
67.80000 1.330
67.82000 -0.242
67.84000 1.116
67.86000 -2.144
67.88000 -0.629
67.90000 -1.503
67.92000 -1.004
67.94000 0.064
67.96000 1.327
67.98000 -0.885
68.00000 -0.848
68.02000 1.107
68.04000 1.320
68.06000 1.128
68.08000 -1.769
68.10000 -0.089
68.12000 4.414
68.14000 3.948
68.16000 1.617
68.18000 -0.194
68.20000 -0.995
68.22000 -1.439
68.24000 0.334
68.26000 1.228
68.28000 -0.582
68.30000 -1.631
68.32000 -2.111
68.34000 -0.425
68.36000 1.009
68.38000 -0.533
68.40000 -0.739
68.42000 -1.013
68.44000 1.013
68.46000 0.109
68.48000 1.359
68.50000 1.547
68.52000 -1.776
68.54000 -0.595
68.56000 -0.770
68.58000 0.063
68.60000 1.436
68.62000 1.604
68.64000 1.719
68.66000 -1.143
68.68000 -0.776
68.70000 -0.811
68.72000 -1.215
68.74000 -0.705
68.76000 1.737
68.78000 1.875
68.80000 1.233
68.82000 1.034
68.84000 1.097
68.86000 2.493
68.88000 1.076
68.90000 0.830
68.92000 1.584
68.94000 0.208
68.96000 -1.314
68.98000 -0.934
69.00000 -2.066
69.02000 -1.117
69.04000 -1.741
69.06000 -1.892
69.08000 0.504
69.10000 0.916
69.12000 0.261
69.14000 0.270
69.16000 -1.049
69.18000 1.351
69.20000 2.035
69.22000 1.765
69.24000 2.503
69.26000 2.111
69.28000 1.116
69.30000 0.435
69.32000 1.272
69.34000 0.295
69.36000 -0.532
69.38000 -0.724
69.40000 0.018
69.42000 -0.174
69.44000 1.629
69.46000 -0.103
69.48000 0.019
69.50000 -0.078
69.52000 0.822
69.54000 1.924
69.56000 1.759
69.58000 -0.245
69.60000 -1.211
69.62000 -0.285
69.64000 1.032
69.66000 1.113
69.68000 0.484
69.70000 -0.771
69.72000 -2.026
69.74000 0.100
69.76000 0.814
69.78000 0.288
69.80000 1.727
69.82000 2.774
69.84000 1.683
69.86000 -0.418
69.88000 0.416
69.90000 -0.461
69.92000 -0.318
69.94000 -0.950
69.96000 -1.798
69.98000 2.238
70.00000 4.726
70.02000 1.488
70.04000 -0.272
70.06000 -1.223
70.08000 0.330
70.10000 4.115
70.12000 3.729
70.14000 2.222
70.16000 -0.018
70.18000 -0.429
70.20000 -1.995
70.22000 1.070
70.24000 1.343
70.26000 1.573
70.28000 -1.172
70.30000 0.820
70.32000 1.277
70.34000 1.011
70.36000 1.064
70.38000 2.449
70.40000 2.694
70.42000 1.844
70.44000 -0.688
70.46000 1.673
70.48000 2.021
70.50000 1.676
70.52000 -0.354
70.54000 1.671
70.56000 0.832
70.58000 0.572
70.60000 2.129
70.62000 2.362
70.64000 1.117
70.66000 -0.525
70.68000 -1.074
70.70000 -0.925
70.72000 -1.401
70.74000 0.975
70.76000 3.221
70.78000 3.278
70.80000 3.961
70.82000 2.395
70.84000 0.907
70.86000 -0.396
70.88000 0.377
70.90000 0.393
70.92000 -0.688
70.94000 -1.538
70.96000 -1.995
70.98000 0.098
71.00000 -1.400
71.02000 -1.313
71.04000 1.108
71.06000 3.469
71.08000 2.782
71.10000 2.767
71.12000 0.708
71.14000 1.188
71.16000 1.380
71.18000 0.017
71.20000 0.269
71.22000 -0.445
71.24000 -0.476
71.26000 0.608
71.28000 -0.924
71.30000 -0.208
71.32000 2.260
71.34000 2.877
71.36000 1.494
71.38000 1.772
71.40000 -0.535
71.42000 0.274
71.44000 -0.487
71.46000 0.365
71.48000 0.718
71.50000 0.829
71.52000 2.237
71.54000 1.180
71.56000 1.039
71.58000 -1.150
71.60000 -1.702
71.62000 0.787
71.64000 -0.772
71.66000 0.235
71.68000 -1.965
71.70000 0.279
71.72000 0.778
71.74000 -1.322
71.76000 -1.182
71.78000 0.221
71.80000 2.085
71.82000 2.835
71.84000 2.649
71.86000 3.104
71.88000 0.334
71.90000 0.775
71.92000 -0.012
71.94000 -0.083
71.96000 -0.814
71.98000 -0.023
72.00000 -0.353
72.02000 -1.381
72.04000 -1.095
72.06000 2.049
72.08000 2.688
72.10000 -0.118
72.12000 -1.292
72.14000 0.473
72.16000 1.797
72.18000 -0.063
72.20000 1.614
72.22000 2.882
72.24000 3.518
72.26000 1.121
72.28000 1.215
72.30000 -1.128
72.32000 0.491
72.34000 1.475
72.36000 0.587
72.38000 -0.048
72.40000 1.911
72.42000 -0.785
72.44000 -0.528
72.46000 -1.034
72.48000 -1.140
72.50000 -0.704
72.52000 0.468
72.54000 -0.493
72.56000 1.841
72.58000 0.992
72.60000 -0.166
72.62000 0.499
72.64000 1.824
72.66000 1.791
72.68000 1.545
72.70000 1.904
72.72000 4.083
72.74000 4.352
72.76000 -0.461
72.78000 -1.929
72.80000 -1.024
72.82000 1.101
72.84000 3.646
72.86000 2.570
72.88000 1.374
72.90000 1.466
72.92000 0.637
72.94000 0.932
72.96000 -0.577
72.98000 -0.492
73.00000 0.103
73.02000 1.197
73.04000 0.898
73.06000 3.121
73.08000 0.814
73.10000 -1.913
73.12000 0.136
73.14000 2.045
73.16000 2.993
73.18000 3.234
73.20000 1.245
73.22000 2.468
73.24000 1.339
73.26000 0.312
73.28000 -1.229
73.30000 1.099
73.32000 1.050
73.34000 1.235
73.36000 -1.075
73.38000 -0.132
73.40000 2.136
73.42000 1.809
73.44000 -0.861
73.46000 1.459
73.48000 2.271
73.50000 0.381
73.52000 -1.572
73.54000 -0.021
73.56000 -1.092
73.58000 -0.451
73.60000 1.452
73.62000 2.325
73.64000 -0.515
73.66000 -0.326
73.68000 -0.801
73.70000 -0.339
73.72000 0.658
73.74000 1.248
73.76000 -1.837
73.78000 1.407
73.80000 3.591
73.82000 2.475
73.84000 4.095
73.86000 2.272
73.88000 0.753
73.90000 2.482
73.92000 1.193
73.94000 1.229
73.96000 1.476
73.98000 1.354
74.00000 2.450
74.02000 0.904
74.04000 1.543
74.06000 -0.291
74.08000 1.287
74.10000 3.153
74.12000 2.843
74.14000 -0.243
74.16000 -1.891
74.18000 0.536
74.20000 0.192
74.22000 4.656
74.24000 6.370
74.26000 3.386
74.28000 1.324
74.30000 1.099
74.32000 1.885
74.34000 3.317
74.36000 2.186
74.38000 0.217
74.40000 3.211
74.42000 3.875
74.44000 2.041
74.46000 3.017
74.48000 3.857
74.50000 2.357
74.52000 0.248
74.54000 -1.253
74.56000 -0.619
74.58000 0.460
74.60000 -0.590
74.62000 1.003
74.64000 0.027
74.66000 -0.588
74.68000 0.388
74.70000 2.253
74.72000 1.755
74.74000 -0.434
74.76000 0.572
74.78000 2.539
74.80000 4.053
74.82000 3.930
74.84000 2.437
74.86000 -1.895
74.88000 0.484
74.90000 4.148
74.92000 4.026
74.94000 1.442
74.96000 -1.878
74.98000 1.295
75.00000 1.255
75.02000 0.613
75.04000 -0.992
75.06000 1.590
75.08000 3.141
75.10000 3.860
75.12000 -0.081
75.14000 3.144
75.16000 0.455
75.18000 1.336
75.20000 0.556
75.22000 2.716
75.24000 4.579
75.26000 1.724
75.28000 0.405
75.30000 2.007
75.32000 2.237
75.34000 1.739
75.36000 1.868
75.38000 2.081
75.40000 0.660
75.42000 2.326
75.44000 1.821
75.46000 -0.613
75.48000 0.020
75.50000 -0.887
75.52000 -1.897
75.54000 0.500
75.56000 5.739
75.58000 7.649
75.60000 7.840
75.62000 2.780
75.64000 0.928
75.66000 -0.264
75.68000 1.650
75.70000 3.070
75.72000 2.053
75.74000 1.880
75.76000 0.792
75.78000 2.616
75.80000 3.724
75.82000 3.022
75.84000 0.882
75.86000 0.816
75.88000 2.859
75.90000 1.782
75.92000 2.755
75.94000 4.899
75.96000 1.791
75.98000 3.685
76.00000 2.375
76.02000 1.377
76.04000 1.867
76.06000 4.206
76.08000 3.797
76.10000 1.264
76.12000 3.694
76.14000 3.308
76.16000 0.127
76.18000 -1.880
76.20000 1.218
76.22000 4.805
76.24000 4.387
76.26000 1.579
76.28000 1.650
76.30000 2.813
76.32000 2.425
76.34000 1.917
76.36000 1.722
76.38000 2.347
76.40000 0.656
76.42000 1.803
76.44000 3.270
76.46000 4.802
76.48000 5.048
76.50000 6.805
76.52000 2.809
76.54000 2.234
76.56000 2.016
76.58000 3.091
76.60000 6.287
76.62000 5.415
76.64000 1.724
76.66000 1.698
76.68000 2.410
76.70000 -0.500
76.72000 1.785
76.74000 -0.240
76.76000 1.349
76.78000 -0.253
76.80000 -0.462
76.82000 4.249
76.84000 4.379
76.86000 1.877
76.88000 0.640
76.90000 1.977
76.92000 4.086
76.94000 3.495
76.96000 1.280
76.98000 0.759
77.00000 -0.404
77.02000 2.945
77.04000 2.903
77.06000 -1.916
77.08000 2.667
77.10000 3.139
77.12000 0.981
77.14000 1.702
77.16000 2.382
77.18000 5.906
77.20000 4.126
77.22000 1.177
77.24000 4.144
77.26000 5.278
77.28000 4.870
77.30000 0.937
77.32000 2.241
77.34000 1.786
77.36000 2.747
77.38000 2.210
77.40000 4.685
77.42000 4.084
77.44000 1.515
77.46000 1.004
77.48000 1.318
77.50000 0.158
77.52000 -0.700
77.54000 -1.228
77.56000 1.694
77.58000 2.767
77.60000 2.220
77.62000 1.474
77.64000 2.470
77.66000 2.779
77.68000 2.830
77.70000 2.233
77.72000 2.964
77.74000 0.252
77.76000 2.071
77.78000 1.818
77.80000 1.566
77.82000 -1.980
77.84000 -0.117
77.86000 -0.769
77.88000 0.057
77.90000 0.287
77.92000 -0.239
77.94000 0.261
77.96000 -0.400
77.98000 -1.991
78.00000 0.127
78.02000 1.050
78.04000 2.976
78.06000 2.356
78.08000 1.207
78.10000 0.623
78.12000 -0.702
78.14000 -0.865
78.16000 0.052
78.18000 1.157
78.20000 1.246
78.22000 1.851
78.24000 2.146
78.26000 4.356
78.28000 1.736
78.30000 1.408
78.32000 -1.011
78.34000 -0.336
78.36000 -2.011
78.38000 0.154
78.40000 -1.058
78.42000 1.104
78.44000 -0.987
78.46000 -1.609
78.48000 0.346
78.50000 1.164
78.52000 1.770
78.54000 1.287
78.56000 2.458
78.58000 1.315
78.60000 -1.371
78.62000 -0.023
78.64000 -0.761
78.66000 -1.090
78.68000 -0.652
78.70000 -1.327
78.72000 2.494
78.74000 -2.033
78.76000 -0.626
78.78000 2.543
78.80000 3.623
78.82000 -0.418
78.84000 -0.047
78.86000 -1.128
78.88000 1.233
78.90000 -0.295
78.92000 2.506
78.94000 -0.169
78.96000 0.513
78.98000 0.824
79.00000 -1.303
79.02000 1.801
79.04000 1.883
79.06000 2.074
79.08000 -0.774
79.10000 1.463
79.12000 2.426
79.14000 -0.969
79.16000 -1.167
79.18000 -1.090
79.20000 -1.355
79.22000 -1.695
79.24000 -2.090
79.26000 1.834
79.28000 1.508
79.30000 -0.541
79.32000 -0.170
79.34000 3.528
79.36000 5.715
79.38000 2.763
79.40000 1.790
79.42000 1.896
79.44000 0.414
79.46000 1.727
79.48000 1.838
79.50000 0.902
79.52000 3.885
79.54000 5.794
79.56000 3.124
79.58000 0.646
79.60000 2.429
79.62000 2.132
79.64000 2.253
79.66000 3.127
79.68000 6.381
79.70000 4.856
79.72000 3.022
79.74000 3.427
79.76000 8.011
79.78000 4.372
79.80000 2.315
79.82000 3.253
79.84000 6.329
79.86000 6.729
79.88000 3.089
79.90000 3.983
79.92000 7.085
79.94000 5.583
79.96000 7.139
79.98000 8.956
80.00000 9.947
80.02000 10.650
80.04000 11.095
80.06000 9.849
80.08000 8.111
80.10000 9.428
80.12000 10.487
80.14000 11.631
80.16000 12.408
80.18000 13.441
80.20000 13.346
80.22000 13.980
80.24000 13.149
80.26000 14.689
80.28000 11.957
80.30000 13.576
80.32000 15.856
80.34000 13.074
80.36000 10.668
80.38000 11.555
80.40000 16.976
80.42000 17.359
80.44000 14.682
80.46000 11.925
80.48000 11.529
80.50000 15.981
80.52000 20.348
80.54000 16.124
80.56000 17.475
80.58000 17.218
80.60000 16.872
80.62000 18.725
80.64000 15.733
80.66000 17.861
80.68000 18.398
80.70000 18.397
80.72000 18.550
80.74000 18.827
80.76000 22.226
80.78000 22.371
80.80000 18.452
80.82000 16.978
80.84000 18.960
80.86000 16.565
80.88000 17.071
80.90000 16.948
80.92000 13.932
80.94000 16.764
80.96000 16.552
80.98000 13.457
81.00000 11.847
81.02000 14.003
81.04000 15.918
81.06000 15.212
81.08000 14.122
81.10000 15.079
81.12000 11.824
81.14000 14.312
81.16000 16.331
81.18000 12.929
81.20000 10.869
81.22000 12.076
81.24000 10.670
81.26000 14.274
81.28000 13.928
81.30000 9.446
81.32000 8.518
81.34000 9.105
81.36000 9.788
81.38000 12.082
81.40000 11.101
81.42000 9.125
81.44000 4.105
81.46000 7.222
81.48000 6.472
81.50000 3.951
81.52000 5.312
81.54000 5.731
81.56000 3.997
81.58000 2.736
81.60000 3.720
81.62000 4.233
81.64000 1.316
81.66000 2.527
81.68000 1.974
81.70000 1.906
81.72000 1.372
81.74000 4.623
81.76000 3.689
81.78000 -2.111
81.80000 -1.209
81.82000 1.140
81.84000 -0.134
81.86000 -0.100
81.88000 -0.433
81.90000 2.128
81.92000 0.778
81.94000 4.411
81.96000 2.285
81.98000 3.142
82.00000 2.387
82.02000 2.774
82.04000 1.768
82.06000 0.476
82.08000 -2.068
82.10000 -2.142
82.12000 0.696
82.14000 2.468
82.16000 0.131
82.18000 -1.684
82.20000 2.776
82.22000 3.814
82.24000 2.862
82.26000 0.095
82.28000 -1.351
82.30000 -0.491
82.32000 -1.944
82.34000 -2.134
82.36000 1.537
82.38000 -0.239
82.40000 2.308
82.42000 4.293
82.44000 2.834
82.46000 -0.337
82.48000 -0.758
82.50000 -0.691
82.52000 0.053
82.54000 1.026
82.56000 2.934
82.58000 3.293
82.60000 5.206
82.62000 4.245
82.64000 0.484
82.66000 -1.342
82.68000 0.756
82.70000 -0.434
82.72000 -1.442
82.74000 -1.896
82.76000 0.030
82.78000 -2.108
82.80000 -0.171
82.82000 0.825
82.84000 -1.406
82.86000 -1.573
82.88000 0.261
82.90000 -0.533
82.92000 -0.761
82.94000 0.200
82.96000 -0.919
82.98000 -1.447
83.00000 -2.122
83.02000 -2.084
83.04000 0.320
83.06000 4.789
83.08000 1.637
83.10000 1.111
83.12000 3.705
83.14000 2.856
83.16000 2.629
83.18000 2.601
83.20000 3.586
83.22000 3.112
83.24000 1.592
83.26000 -1.547
83.28000 1.591
83.30000 -1.036
83.32000 3.773
83.34000 4.469
83.36000 3.107
83.38000 1.462
83.40000 4.341
83.42000 4.544
83.44000 3.115
83.46000 2.581
83.48000 5.580
83.50000 4.367
83.52000 4.446
83.54000 2.765
83.56000 4.255
83.58000 2.813
83.60000 1.461
83.62000 3.539
83.64000 6.974
83.66000 5.912
83.68000 6.496
83.70000 6.726
83.72000 5.671
83.74000 6.376
83.76000 6.440
83.78000 3.915
83.80000 7.851
83.82000 9.151
83.84000 7.987
83.86000 8.372
83.88000 9.874
83.90000 9.798
83.92000 8.992
83.94000 6.427
83.96000 11.715
83.98000 13.646
84.00000 15.132
84.02000 13.827
84.04000 13.343
84.06000 17.073
84.08000 18.732
84.10000 17.118
84.12000 17.330
84.14000 19.685
84.16000 19.743
84.18000 15.323
84.20000 17.221
84.22000 13.106
84.24000 19.076
84.26000 21.684
84.28000 20.618
84.30000 19.478
84.32000 23.607
84.34000 21.068
84.36000 19.808
84.38000 18.425
84.40000 17.865
84.42000 17.385
84.44000 21.640
84.46000 21.662
84.48000 21.674
84.50000 20.282
84.52000 19.045
84.54000 19.536
84.56000 18.740
84.58000 23.246
84.60000 20.449
84.62000 18.366
84.64000 22.521
84.66000 24.842
84.68000 21.988
84.70000 22.231
84.72000 19.379
84.74000 18.219
84.76000 20.514
84.78000 20.103
84.80000 22.312
84.82000 18.645
84.84000 16.475
84.86000 16.739
84.88000 16.813
84.90000 17.609
84.92000 19.560
84.94000 18.133
84.96000 17.115
84.98000 16.993
85.00000 14.276
85.02000 14.610
85.04000 14.616
85.06000 11.539
85.08000 13.844
85.10000 15.900
85.12000 16.134
85.14000 11.736
85.16000 12.524
85.18000 8.984
85.20000 10.339
85.22000 9.551
85.24000 7.127
85.26000 6.016
85.28000 6.796
85.30000 7.198
85.32000 7.603
85.34000 7.193
85.36000 5.941
85.38000 7.014
85.40000 3.655
85.42000 0.097
85.44000 1.792
85.46000 4.237
85.48000 5.309
85.50000 4.810
85.52000 2.146
85.54000 1.318
85.56000 1.935
85.58000 1.588
85.60000 3.775
85.62000 -1.340
85.64000 0.088
85.66000 2.053
85.68000 0.696
85.70000 0.940
85.72000 2.497
85.74000 4.592
85.76000 2.803
85.78000 1.835
85.80000 1.287
85.82000 1.967
85.84000 0.354
85.86000 3.528
85.88000 1.412
85.90000 -0.856
85.92000 -0.519
85.94000 0.114
85.96000 -0.804
85.98000 1.931
86.00000 3.473
86.02000 2.114
86.04000 4.255
86.06000 4.214
86.08000 1.363
86.10000 -1.918
86.12000 0.916
86.14000 2.178
86.16000 -0.200
86.18000 0.053
86.20000 1.434
86.22000 1.233
86.24000 -1.411
86.26000 0.065
86.28000 0.744
86.30000 -0.491
86.32000 0.729
86.34000 -1.467
86.36000 1.816
86.38000 2.726
86.40000 3.648
86.42000 1.333
86.44000 2.304
86.46000 -0.308
86.48000 -1.182
86.50000 0.103
86.52000 0.344
86.54000 1.735
86.56000 3.447
86.58000 1.159
86.60000 1.594
86.62000 0.453
86.64000 2.864
86.66000 0.835
86.68000 0.139
86.70000 1.112
86.72000 1.053
86.74000 -1.266
86.76000 -1.563
86.78000 -0.657
86.80000 -0.229
86.82000 1.398
86.84000 2.828
86.86000 1.956
86.88000 0.363
86.90000 0.999
86.92000 2.526
86.94000 0.022
86.96000 -0.052
86.98000 1.523
87.00000 2.684
87.02000 3.433
87.04000 2.696
87.06000 1.874
87.08000 -1.817
87.10000 -1.644
87.12000 2.246
87.14000 4.062
87.16000 2.237
87.18000 1.035
87.20000 2.298
87.22000 0.404
87.24000 -1.412
87.26000 -1.814
87.28000 -0.693
87.30000 0.591
87.32000 1.055
87.34000 2.538
87.36000 3.436
87.38000 1.952
87.40000 -1.049
87.42000 -0.995
87.44000 0.998
87.46000 1.511
87.48000 0.460
87.50000 -0.730
87.52000 -0.863
87.54000 2.608
87.56000 2.249
87.58000 0.587
87.60000 1.559
87.62000 2.317
87.64000 1.221
87.66000 0.875
87.68000 2.748
87.70000 2.160
87.72000 1.773
87.74000 2.916
87.76000 2.074
87.78000 1.525
87.80000 1.064
87.82000 0.450
87.84000 1.333
87.86000 0.566
87.88000 1.784
87.90000 2.910
87.92000 3.671
87.94000 1.344
87.96000 2.048
87.98000 2.435
88.00000 2.211
88.02000 1.254
88.04000 0.966
88.06000 1.844
88.08000 2.245
88.10000 0.495
88.12000 -0.567
88.14000 -0.381
88.16000 1.373
88.18000 0.700
88.20000 1.375
88.22000 0.546
88.24000 0.764
88.26000 1.795
88.28000 1.698
88.30000 0.249
88.32000 1.820
88.34000 2.093
88.36000 4.055
88.38000 3.836
88.40000 3.173
88.42000 2.692
88.44000 1.986
88.46000 0.918
88.48000 1.245
88.50000 5.756
88.52000 4.539
88.54000 0.860
88.56000 -1.736
88.58000 4.590
88.60000 4.841
88.62000 1.915
88.64000 3.471
88.66000 7.048
88.68000 4.466
88.70000 4.749
88.72000 2.790
88.74000 2.755
88.76000 3.203
88.78000 3.653
88.80000 1.419
88.82000 2.723
88.84000 4.213
88.86000 4.732
88.88000 4.806
88.90000 3.123
88.92000 3.693
88.94000 5.000
88.96000 1.813
88.98000 1.758
89.00000 2.276
89.02000 -0.052
89.04000 -0.736
89.06000 -0.643
89.08000 1.446
89.10000 0.201
89.12000 1.165
89.14000 4.157
89.16000 2.345
89.18000 -1.705
89.20000 1.534
89.22000 4.402
89.24000 0.949
89.26000 1.609
89.28000 1.410
89.30000 2.587
89.32000 2.547
89.34000 1.453
89.36000 1.962
89.38000 2.289
89.40000 2.880
89.42000 2.163
89.44000 2.200
89.46000 1.727
89.48000 -0.282
89.50000 1.306
89.52000 3.511
89.54000 1.513
89.56000 0.282
89.58000 0.471
89.60000 3.177
89.62000 0.532
89.64000 0.475
89.66000 3.910
89.68000 1.738
89.70000 1.316
89.72000 -0.550
89.74000 -0.963
89.76000 -1.364
89.78000 0.533
89.80000 0.997
89.82000 1.283
89.84000 0.676
89.86000 1.080
89.88000 2.750
89.90000 0.961
89.92000 -1.260
89.94000 -1.323
89.96000 1.825
89.98000 3.646
90.00000 2.776
90.02000 1.519
90.04000 -0.413
90.06000 -1.783
90.08000 -1.113
90.10000 0.781
90.12000 3.978
90.14000 2.573
90.16000 -1.663
90.18000 1.470
90.20000 1.699
90.22000 2.065
90.24000 3.065
90.26000 1.728
90.28000 -0.891
90.30000 -0.147
90.32000 0.690
90.34000 2.164
90.36000 2.235
90.38000 -0.017
90.40000 -0.289
90.42000 0.015
90.44000 1.148
90.46000 1.530
90.48000 1.370
90.50000 1.216
90.52000 1.241
90.54000 0.089
90.56000 3.115
90.58000 2.551
90.60000 -1.772
90.62000 0.249
90.64000 1.508
90.66000 4.369
90.68000 1.715
90.70000 4.547
90.72000 1.880
90.74000 1.884
90.76000 2.630
90.78000 2.266
90.80000 4.439
90.82000 5.455
90.84000 3.906
90.86000 3.104
90.88000 3.594
90.90000 3.163
90.92000 3.224
90.94000 3.112
90.96000 2.118
90.98000 1.477
91.00000 1.276
91.02000 4.733
91.04000 6.746
91.06000 5.032
91.08000 1.041
91.10000 -1.743
91.12000 -0.261
91.14000 1.265
91.16000 4.681
91.18000 6.888
91.20000 6.381
91.22000 5.369
91.24000 3.226
91.26000 3.572
91.28000 3.652
91.30000 1.951
91.32000 0.190
91.34000 3.273
91.36000 1.141
91.38000 0.704
91.40000 0.956
91.42000 2.529
91.44000 5.018
91.46000 3.367
91.48000 2.451
91.50000 5.679
91.52000 3.328
91.54000 1.216
91.56000 -0.880
91.58000 0.488
91.60000 3.042
91.62000 4.297
91.64000 3.789
91.66000 2.041
91.68000 5.707
91.70000 6.404
91.72000 0.796
91.74000 -1.748
91.76000 1.666
91.78000 1.214
91.80000 2.379
91.82000 3.709
91.84000 4.050
91.86000 9.526
91.88000 2.120
91.90000 1.383
91.92000 4.654
91.94000 3.742
91.96000 1.556
91.98000 -0.927
92.00000 -1.529
92.02000 2.343
92.04000 4.746
92.06000 3.568
92.08000 2.906
92.10000 3.504
92.12000 0.821
92.14000 1.051
92.16000 0.626
92.18000 -1.442
92.20000 1.896
92.22000 3.039
92.24000 3.180
92.26000 -1.733
92.28000 -0.559
92.30000 2.376
92.32000 3.653
92.34000 0.990
92.36000 -0.233
92.38000 0.700
92.40000 3.479
92.42000 -0.722
92.44000 -0.816
92.46000 1.192
92.48000 4.171
92.50000 3.190
92.52000 1.460
92.54000 1.831
92.56000 3.744
92.58000 4.895
92.60000 2.711
92.62000 0.534
92.64000 0.859
92.66000 2.124
92.68000 1.441
92.70000 1.162
92.72000 2.946
92.74000 3.120
92.76000 1.358
92.78000 0.736
92.80000 0.333
92.82000 2.606
92.84000 -0.526
92.86000 -0.616
92.88000 -0.232
92.90000 1.823
92.92000 2.320
92.94000 1.877
92.96000 0.256
92.98000 3.312
93.00000 2.088
93.02000 2.299
93.04000 3.975
93.06000 2.558
93.08000 3.094
93.10000 1.986
93.12000 3.891
93.14000 -0.199
93.16000 -1.352
93.18000 3.207
93.20000 7.167
93.22000 2.587
93.24000 4.165
93.26000 3.499
93.28000 1.247
93.30000 0.017
93.32000 0.001
93.34000 4.408
93.36000 -0.816
93.38000 5.313
93.40000 3.668
93.42000 -1.096
93.44000 0.900
93.46000 0.252
93.48000 3.967
93.50000 4.583
93.52000 3.047
93.54000 2.360
93.56000 0.679
93.58000 3.828
93.60000 4.726
93.62000 1.843
93.64000 2.655
93.66000 5.962
93.68000 5.161
93.70000 1.178
93.72000 -0.248
93.74000 0.329
93.76000 3.421
93.78000 3.516
93.80000 1.956
93.82000 -0.281
93.84000 2.008
93.86000 1.254
93.88000 -1.766
93.90000 -0.787
93.92000 4.855
93.94000 5.734
93.96000 2.518
93.98000 1.496
94.00000 3.125
94.02000 2.489
94.04000 5.100
94.06000 2.612
94.08000 -0.179
94.10000 1.733
94.12000 2.616
94.14000 4.959
94.16000 3.337
94.18000 2.710
94.20000 0.715
94.22000 2.304
94.24000 2.563
94.26000 3.571
94.28000 4.442
94.30000 6.217
94.32000 2.224
94.34000 1.057
94.36000 4.495
94.38000 2.121
94.40000 0.037
94.42000 -0.630
94.44000 1.251
94.46000 1.736
94.48000 0.177
94.50000 -1.725
94.52000 0.123
94.54000 2.617
94.56000 0.977
94.58000 1.671
94.60000 2.034
94.62000 0.313
94.64000 -0.129
94.66000 -0.151
94.68000 0.945
94.70000 1.726
94.72000 0.053
94.74000 -0.208
94.76000 1.211
94.78000 2.522
94.80000 4.885
94.82000 3.341
94.84000 1.943
94.86000 2.558
94.88000 2.071
94.90000 0.519
94.92000 0.470
94.94000 0.072
94.96000 -0.920
94.98000 -0.217
95.00000 3.030
95.02000 -1.645
95.04000 -0.082
95.06000 -0.851
95.08000 0.419
95.10000 0.718
95.12000 -0.500
95.14000 1.480
95.16000 -0.919
95.18000 -1.406
95.20000 1.476
95.22000 1.866
95.24000 0.854
95.26000 -1.820
95.28000 1.759
95.30000 5.199
95.32000 2.909
95.34000 0.199
95.36000 -0.810
95.38000 2.090
95.40000 2.986
95.42000 1.918
95.44000 0.519
95.46000 2.251
95.48000 4.786
95.50000 5.887
95.52000 0.976
95.54000 1.390
95.56000 1.229
95.58000 1.796
95.60000 1.230
95.62000 3.249
95.64000 6.102
95.66000 4.553
95.68000 2.366
95.70000 -1.546
95.72000 -0.545
95.74000 -0.327
95.76000 0.959
95.78000 3.924
95.80000 6.793
95.82000 3.759
95.84000 2.489
95.86000 -0.039
95.88000 0.498
95.90000 3.725
95.92000 3.563
95.94000 0.953
95.96000 0.850
95.98000 3.837
96.00000 2.438
96.02000 1.120
96.04000 3.199
96.06000 0.195
96.08000 -0.439
96.10000 2.822
96.12000 5.339
96.14000 5.611
96.16000 7.301
96.18000 5.784
96.20000 6.145
96.22000 5.915
96.24000 4.994
96.26000 2.671
96.28000 -1.779
96.30000 2.412
96.32000 2.824
96.34000 0.178
96.36000 1.954
96.38000 1.000
96.40000 0.339
96.42000 0.702
96.44000 1.084
96.46000 3.631
96.48000 1.686
96.50000 1.440
96.52000 3.665
96.54000 4.654
96.56000 3.728
96.58000 4.222
96.60000 -0.269
96.62000 1.586
96.64000 4.219
96.66000 2.853
96.68000 8.292
96.70000 8.088
96.72000 4.956
96.74000 3.270
96.76000 4.667
96.78000 2.827
96.80000 3.894
96.82000 3.489
96.84000 1.271
96.86000 4.815
96.88000 1.964
96.90000 3.756
96.92000 4.903
96.94000 6.321
96.96000 4.845
96.98000 1.178
97.00000 2.454
97.02000 5.081
97.04000 6.512
97.06000 7.877
97.08000 4.662
97.10000 -1.107
97.12000 4.178
97.14000 2.656
97.16000 2.382
97.18000 0.654
97.20000 3.414
97.22000 11.768
97.24000 14.348
97.26000 3.989
97.28000 2.122
97.30000 3.048
97.32000 4.820
97.34000 4.309
97.36000 8.019
97.38000 7.020
97.40000 2.410
97.42000 -1.087
97.44000 -1.740
97.46000 -1.353
97.48000 2.163
97.50000 6.472
97.52000 8.420
97.54000 7.977
97.56000 3.098
97.58000 3.709
97.60000 5.155
97.62000 4.281
97.64000 3.518
97.66000 0.263
97.68000 1.835
97.70000 2.661
97.72000 4.253
97.74000 4.056
97.76000 -0.994
97.78000 0.923
97.80000 2.853
97.82000 3.792
97.84000 2.486
97.86000 3.725
97.88000 2.598
97.90000 5.869
97.92000 4.957
97.94000 3.847
97.96000 2.523
97.98000 0.349
98.00000 6.548
98.02000 3.322
98.04000 3.042
98.06000 5.292
98.08000 4.098
98.10000 1.848
98.12000 -1.325
98.14000 5.265
98.16000 8.418
98.18000 5.565
98.20000 7.933
98.22000 -1.181
98.24000 4.052
98.26000 4.045
98.28000 3.286
98.30000 4.230
98.32000 4.929
98.34000 4.022
98.36000 3.511
98.38000 3.305
98.40000 2.732
98.42000 3.065
98.44000 7.255
98.46000 0.397
98.48000 -1.733
98.50000 0.307
98.52000 4.335
98.54000 -1.744
98.56000 -0.164
98.58000 3.609
98.60000 5.240
98.62000 4.352
98.64000 6.190
98.66000 7.138
98.68000 4.851
98.70000 2.942
98.72000 3.383
98.74000 -1.758
98.76000 -1.581
98.78000 2.399
98.80000 3.776
98.82000 6.913
98.84000 5.257
98.86000 2.530
98.88000 4.813
98.90000 4.481
98.92000 5.063
98.94000 7.947
98.96000 6.714
98.98000 6.714
99.00000 5.624
99.02000 2.164
99.04000 -1.773
99.06000 -0.592
99.08000 1.070
99.10000 2.843
99.12000 5.244
99.14000 6.899
99.16000 0.799
99.18000 -1.113
99.20000 3.400
99.22000 6.373
99.24000 5.422
99.26000 -0.916
99.28000 -0.013
99.30000 2.253
99.32000 2.190
99.34000 3.550
99.36000 5.720
99.38000 3.493
99.40000 4.149
99.42000 -1.202
99.44000 -0.489
99.46000 -0.897
99.48000 3.093
99.50000 -1.544
99.52000 -1.002
99.54000 3.977
99.56000 2.136
99.58000 -1.043
99.60000 2.796
99.62000 4.913
99.64000 -1.742
99.66000 0.170
99.68000 -1.821
99.70000 5.252
99.72000 0.361
99.74000 1.000
99.76000 -1.789
99.78000 5.105
99.80000 2.826
99.82000 -0.587
99.84000 0.004
99.86000 4.374
99.88000 6.121
99.90000 2.923
99.92000 11.085
99.94000 2.523
99.96000 -1.858
99.98000 0.000
