'Id: "0011387" Comment: "Integrate frame 0011387_Au-Ir-Rh_Rh-rich_XRD-Mapping-305-0000.gfrmwith cursor Wedge Cursor #5" Operator: "B?rgel" Anode: "Cu" Wavelength: "1.5406" Scantype: "2Theta (TwoTheta)" TimePerStep: "1" X: "9" Y: "31.5" Z: "5.95" 
10.00000 0.000
10.02000 -4.050
10.04000 5.111
10.06000 0.232
10.08000 16.842
10.10000 20.925
10.12000 21.623
10.14000 13.875
10.16000 14.541
10.18000 24.752
10.20000 17.030
10.22000 17.606
10.24000 18.288
10.26000 8.020
10.28000 21.216
10.30000 18.160
10.32000 32.884
10.34000 30.225
10.36000 25.025
10.38000 33.811
10.40000 18.236
10.42000 10.507
10.44000 13.098
10.46000 20.219
10.48000 26.418
10.50000 18.400
10.52000 20.238
10.54000 12.159
10.56000 6.027
10.58000 26.116
10.60000 17.450
10.62000 17.127
10.64000 11.870
10.66000 9.978
10.68000 22.966
10.70000 21.334
10.72000 17.116
10.74000 33.713
10.76000 23.586
10.78000 21.700
10.80000 21.930
10.82000 7.362
10.84000 16.785
10.86000 5.293
10.88000 0.205
10.90000 5.636
10.92000 5.512
10.94000 14.970
10.96000 30.111
10.98000 9.925
11.00000 8.287
11.02000 19.922
11.04000 19.000
11.06000 21.284
11.08000 24.926
11.10000 33.351
11.12000 24.286
11.14000 16.647
11.16000 7.167
11.18000 1.860
11.20000 9.927
11.22000 5.420
11.24000 7.094
11.26000 18.338
11.28000 10.988
11.30000 19.494
11.32000 15.035
11.34000 6.257
11.36000 2.213
11.38000 18.050
11.40000 30.605
11.42000 22.932
11.44000 25.731
11.46000 27.163
11.48000 20.086
11.50000 12.588
11.52000 15.629
11.54000 6.830
11.56000 14.213
11.58000 19.026
11.60000 16.758
11.62000 13.756
11.64000 7.267
11.66000 9.957
11.68000 14.205
11.70000 21.986
11.72000 17.945
11.74000 19.684
11.76000 20.489
11.78000 5.756
11.80000 -4.203
11.82000 15.785
11.84000 11.642
11.86000 -1.108
11.88000 6.269
11.90000 11.362
11.92000 16.697
11.94000 20.353
11.96000 20.666
11.98000 10.730
12.00000 17.942
12.02000 15.688
12.04000 13.502
12.06000 14.221
12.08000 11.379
12.10000 14.004
12.12000 14.281
12.14000 15.470
12.16000 10.360
12.18000 12.645
12.20000 13.721
12.22000 11.795
12.24000 18.860
12.26000 30.507
12.28000 30.085
12.30000 30.858
12.32000 21.084
12.34000 21.707
12.36000 10.620
12.38000 3.566
12.40000 8.878
12.42000 7.603
12.44000 15.656
12.46000 19.923
12.48000 23.928
12.50000 14.642
12.52000 15.600
12.54000 16.212
12.56000 24.749
12.58000 16.088
12.60000 7.804
12.62000 7.774
12.64000 16.199
12.66000 19.987
12.68000 8.622
12.70000 16.146
12.72000 26.854
12.74000 18.166
12.76000 14.789
12.78000 14.539
12.80000 15.858
12.82000 12.153
12.84000 11.795
12.86000 14.039
12.88000 15.161
12.90000 24.198
12.92000 18.572
12.94000 14.421
12.96000 13.144
12.98000 20.496
13.00000 16.428
13.02000 9.494
13.04000 15.457
13.06000 18.139
13.08000 10.775
13.10000 11.612
13.12000 11.698
13.14000 17.944
13.16000 19.816
13.18000 15.330
13.20000 5.277
13.22000 6.253
13.24000 21.426
13.26000 24.461
13.28000 20.677
13.30000 19.200
13.32000 9.893
13.34000 15.876
13.36000 13.741
13.38000 13.667
13.40000 4.364
13.42000 6.560
13.44000 12.373
13.46000 11.519
13.48000 11.926
13.50000 19.660
13.52000 21.076
13.54000 19.192
13.56000 18.358
13.58000 13.938
13.60000 3.239
13.62000 2.281
13.64000 2.191
13.66000 14.630
13.68000 7.790
13.70000 17.378
13.72000 17.409
13.74000 16.744
13.76000 9.202
13.78000 4.423
13.80000 8.934
13.82000 5.422
13.84000 5.699
13.86000 13.749
13.88000 15.314
13.90000 17.733
13.92000 8.894
13.94000 9.188
13.96000 10.695
13.98000 5.741
14.00000 2.754
14.02000 7.003
14.04000 15.880
14.06000 9.896
14.08000 6.766
14.10000 2.109
14.12000 14.613
14.14000 9.841
14.16000 8.768
14.18000 10.260
14.20000 0.418
14.22000 12.423
14.24000 17.980
14.26000 13.126
14.28000 23.629
14.30000 20.937
14.32000 10.440
14.34000 13.955
14.36000 19.376
14.38000 20.002
14.40000 13.582
14.42000 11.562
14.44000 13.203
14.46000 10.670
14.48000 15.153
14.50000 18.681
14.52000 17.302
14.54000 5.415
14.56000 10.300
14.58000 12.252
14.60000 9.703
14.62000 3.632
14.64000 5.034
14.66000 14.315
14.68000 16.807
14.70000 5.963
14.72000 -1.184
14.74000 1.505
14.76000 7.622
14.78000 9.492
14.80000 8.067
14.82000 6.173
14.84000 -0.004
14.86000 -4.475
14.88000 7.440
14.90000 10.348
14.92000 6.519
14.94000 1.700
14.96000 7.831
14.98000 10.331
15.00000 16.134
15.02000 20.182
15.04000 14.946
15.06000 8.766
15.08000 12.998
15.10000 19.414
15.12000 16.178
15.14000 13.307
15.16000 11.638
15.18000 13.579
15.20000 8.205
15.22000 7.649
15.24000 7.300
15.26000 19.826
15.28000 7.273
15.30000 6.563
15.32000 2.800
15.34000 10.925
15.36000 21.748
15.38000 18.759
15.40000 4.014
15.42000 5.023
15.44000 11.430
15.46000 8.423
15.48000 -1.206
15.50000 0.086
15.52000 5.733
15.54000 6.133
15.56000 4.179
15.58000 0.763
15.60000 9.976
15.62000 7.030
15.64000 7.375
15.66000 10.987
15.68000 9.753
15.70000 2.007
15.72000 0.609
15.74000 6.905
15.76000 14.526
15.78000 12.908
15.80000 5.839
15.82000 2.412
15.84000 8.774
15.86000 8.252
15.88000 9.567
15.90000 10.607
15.92000 9.772
15.94000 1.908
15.96000 0.256
15.98000 6.164
16.00000 11.016
16.02000 17.121
16.04000 20.724
16.06000 18.780
16.08000 11.059
16.10000 15.620
16.12000 12.174
16.14000 8.646
16.16000 1.580
16.18000 10.322
16.20000 14.545
16.22000 15.586
16.24000 14.913
16.26000 11.788
16.28000 15.371
16.30000 14.190
16.32000 7.716
16.34000 7.909
16.36000 1.841
16.38000 3.350
16.40000 9.274
16.42000 5.901
16.44000 12.694
16.46000 14.513
16.48000 15.371
16.50000 7.036
16.52000 -0.213
16.54000 9.637
16.56000 18.182
16.58000 18.118
16.60000 17.430
16.62000 16.874
16.64000 8.542
16.66000 13.115
16.68000 13.579
16.70000 10.488
16.72000 2.721
16.74000 6.086
16.76000 6.128
16.78000 6.325
16.80000 7.089
16.82000 -3.191
16.84000 -4.380
16.86000 12.315
16.88000 17.646
16.90000 22.322
16.92000 17.592
16.94000 11.598
16.96000 7.708
16.98000 9.702
17.00000 15.067
17.02000 19.935
17.04000 9.006
17.06000 12.919
17.08000 8.250
17.10000 4.083
17.12000 6.565
17.14000 7.884
17.16000 12.237
17.18000 13.761
17.20000 12.910
17.22000 6.399
17.24000 -1.542
17.26000 10.758
17.28000 23.372
17.30000 18.886
17.32000 13.671
17.34000 9.675
17.36000 13.161
17.38000 16.593
17.40000 12.410
17.42000 14.741
17.44000 8.928
17.46000 4.082
17.48000 8.511
17.50000 4.739
17.52000 -2.895
17.54000 4.417
17.56000 6.814
17.58000 8.903
17.60000 12.861
17.62000 15.221
17.64000 14.679
17.66000 1.122
17.68000 0.244
17.70000 8.968
17.72000 11.881
17.74000 7.119
17.76000 2.738
17.78000 -0.751
17.80000 4.352
17.82000 12.620
17.84000 7.632
17.86000 4.760
17.88000 10.072
17.90000 11.193
17.92000 11.286
17.94000 5.419
17.96000 4.517
17.98000 7.395
18.00000 14.832
18.02000 8.449
18.04000 9.422
18.06000 7.962
18.08000 4.420
18.10000 -0.417
18.12000 -1.079
18.14000 7.564
18.16000 14.930
18.18000 12.566
18.20000 6.865
18.22000 -2.044
18.24000 -2.312
18.26000 -2.073
18.28000 7.381
18.30000 14.386
18.32000 6.366
18.34000 2.225
18.36000 5.661
18.38000 4.591
18.40000 -0.526
18.42000 3.657
18.44000 1.970
18.46000 4.457
18.48000 6.316
18.50000 1.318
18.52000 -1.151
18.54000 -2.172
18.56000 -0.251
18.58000 2.937
18.60000 3.674
18.62000 2.820
18.64000 2.142
18.66000 -2.658
18.68000 0.035
18.70000 4.705
18.72000 5.814
18.74000 6.327
18.76000 8.201
18.78000 6.577
18.80000 8.401
18.82000 4.588
18.84000 1.563
18.86000 0.681
18.88000 6.050
18.90000 7.581
18.92000 7.230
18.94000 9.681
18.96000 6.861
18.98000 10.485
19.00000 11.696
19.02000 10.446
19.04000 8.025
19.06000 7.338
19.08000 7.147
19.10000 10.549
19.12000 3.094
19.14000 5.134
19.16000 5.354
19.18000 9.857
19.20000 3.582
19.22000 5.138
19.24000 10.835
19.26000 10.866
19.28000 4.954
19.30000 3.408
19.32000 2.312
19.34000 4.064
19.36000 14.666
19.38000 11.456
19.40000 7.062
19.42000 10.306
19.44000 11.431
19.46000 8.984
19.48000 1.735
19.50000 9.149
19.52000 9.419
19.54000 -1.553
19.56000 -2.713
19.58000 0.484
19.60000 -2.671
19.62000 -4.238
19.64000 0.352
19.66000 9.390
19.68000 9.590
19.70000 13.612
19.72000 8.586
19.74000 5.262
19.76000 5.446
19.78000 3.459
19.80000 4.726
19.82000 7.691
19.84000 5.707
19.86000 11.994
19.88000 10.188
19.90000 7.453
19.92000 3.118
19.94000 1.879
19.96000 9.372
19.98000 3.280
20.00000 -0.789
20.02000 -0.146
20.04000 6.499
20.06000 8.252
20.08000 4.191
20.10000 4.552
20.12000 3.698
20.14000 9.714
20.16000 6.487
20.18000 7.845
20.20000 3.961
20.22000 -4.226
20.24000 2.282
20.26000 0.132
20.28000 2.241
20.30000 7.852
20.32000 8.229
20.34000 6.369
20.36000 3.424
20.38000 6.868
20.40000 5.681
20.42000 6.387
20.44000 2.522
20.46000 -1.293
20.48000 -1.152
20.50000 5.535
20.52000 11.284
20.54000 11.709
20.56000 7.896
20.58000 4.674
20.60000 5.028
20.62000 1.502
20.64000 6.365
20.66000 4.963
20.68000 4.044
20.70000 7.051
20.72000 10.943
20.74000 8.168
20.76000 14.739
20.78000 11.108
20.80000 -0.994
20.82000 -0.885
20.84000 -4.208
20.86000 -3.541
20.88000 8.506
20.90000 2.100
20.92000 -1.309
20.94000 1.291
20.96000 5.295
20.98000 5.210
21.00000 1.204
21.02000 6.797
21.04000 13.129
21.06000 9.081
21.08000 7.966
21.10000 1.648
21.12000 1.398
21.14000 6.546
21.16000 8.376
21.18000 10.601
21.20000 8.826
21.22000 0.974
21.24000 -0.659
21.26000 7.152
21.28000 5.649
21.30000 -1.302
21.32000 -0.055
21.34000 8.980
21.36000 13.105
21.38000 6.001
21.40000 2.339
21.42000 2.160
21.44000 -4.185
21.46000 0.556
21.48000 -2.707
21.50000 2.073
21.52000 0.911
21.54000 -0.395
21.56000 4.590
21.58000 5.536
21.60000 0.271
21.62000 3.024
21.64000 5.381
21.66000 6.073
21.68000 6.234
21.70000 0.561
21.72000 8.464
21.74000 12.034
21.76000 10.065
21.78000 14.212
21.80000 8.664
21.82000 2.764
21.84000 3.898
21.86000 4.019
21.88000 3.425
21.90000 3.619
21.92000 3.187
21.94000 0.573
21.96000 3.502
21.98000 7.761
22.00000 4.166
22.02000 3.736
22.04000 3.992
22.06000 2.724
22.08000 -4.158
22.10000 -3.828
22.12000 -0.646
22.14000 3.963
22.16000 3.480
22.18000 3.190
22.20000 12.103
22.22000 7.392
22.24000 3.712
22.26000 3.971
22.28000 1.744
22.30000 2.623
22.32000 5.054
22.34000 5.230
22.36000 3.552
22.38000 6.440
22.40000 7.777
22.42000 1.442
22.44000 -2.993
22.46000 -2.343
22.48000 2.800
22.50000 4.105
22.52000 2.997
22.54000 -4.134
22.56000 0.534
22.58000 1.692
22.60000 3.788
22.62000 3.277
22.64000 7.132
22.66000 4.929
22.68000 1.112
22.70000 4.199
22.72000 6.009
22.74000 8.030
22.76000 4.316
22.78000 5.890
22.80000 4.033
22.82000 -2.169
22.84000 1.504
22.86000 3.561
22.88000 6.239
22.90000 3.949
22.92000 6.217
22.94000 2.905
22.96000 -0.182
22.98000 -0.663
23.00000 -1.060
23.02000 1.844
23.04000 1.001
23.06000 -1.424
23.08000 -3.738
23.10000 0.282
23.12000 5.084
23.14000 4.303
23.16000 5.566
23.18000 1.943
23.20000 -0.706
23.22000 3.632
23.24000 9.543
23.26000 11.975
23.28000 4.238
23.30000 2.247
23.32000 6.234
23.34000 5.074
23.36000 4.262
23.38000 2.250
23.40000 3.540
23.42000 4.438
23.44000 8.110
23.46000 1.625
23.48000 -4.069
23.50000 0.676
23.52000 2.057
23.54000 5.199
23.56000 2.695
23.58000 1.021
23.60000 5.766
23.62000 8.322
23.64000 5.943
23.66000 4.265
23.68000 6.474
23.70000 5.574
23.72000 0.380
23.74000 5.974
23.76000 2.364
23.78000 0.938
23.80000 -0.030
23.82000 3.209
23.84000 2.197
23.86000 3.400
23.88000 6.325
23.90000 4.734
23.92000 5.986
23.94000 3.957
23.96000 3.894
23.98000 4.960
24.00000 -1.760
24.02000 0.528
24.04000 9.164
24.06000 3.353
24.08000 1.955
24.10000 -1.002
24.12000 -4.032
24.14000 -1.418
24.16000 3.098
24.18000 6.433
24.20000 5.482
24.22000 12.178
24.24000 12.175
24.26000 5.987
24.28000 2.590
24.30000 0.413
24.32000 -0.487
24.34000 3.004
24.36000 5.646
24.38000 0.776
24.40000 -0.252
24.42000 0.878
24.44000 7.202
24.46000 11.473
24.48000 9.661
24.50000 5.216
24.52000 0.305
24.54000 1.098
24.56000 2.661
24.58000 3.039
24.60000 3.659
24.62000 3.018
24.64000 0.753
24.66000 4.549
24.68000 6.093
24.70000 1.978
24.72000 6.182
24.74000 5.692
24.76000 7.844
24.78000 -1.657
24.80000 -3.087
24.82000 5.732
24.84000 5.609
24.86000 6.617
24.88000 0.662
24.90000 4.300
24.92000 2.582
24.94000 2.387
24.96000 3.094
24.98000 4.625
25.00000 3.403
25.02000 -2.740
25.04000 -2.632
25.06000 1.410
25.08000 3.304
25.10000 -0.078
25.12000 1.550
25.14000 2.106
25.16000 1.201
25.18000 6.712
25.20000 10.948
25.22000 8.883
25.24000 4.431
25.26000 1.075
25.28000 3.885
25.30000 4.269
25.32000 -2.352
25.34000 4.921
25.36000 2.482
25.38000 0.418
25.40000 3.425
25.42000 2.124
25.44000 -2.743
25.46000 5.724
25.48000 5.883
25.50000 -0.101
25.52000 3.976
25.54000 9.736
25.56000 2.314
25.58000 9.225
25.60000 4.027
25.62000 1.018
25.64000 1.006
25.66000 -2.844
25.68000 -3.929
25.70000 6.112
25.72000 7.392
25.74000 2.701
25.76000 4.917
25.78000 10.085
25.80000 7.672
25.82000 1.695
25.84000 5.344
25.86000 10.280
25.88000 10.442
25.90000 7.418
25.92000 3.133
25.94000 2.324
25.96000 5.264
25.98000 7.792
26.00000 4.881
26.02000 3.935
26.04000 4.988
26.06000 9.141
26.08000 9.271
26.10000 9.680
26.12000 8.243
26.14000 10.204
26.16000 5.129
26.18000 6.414
26.20000 4.387
26.22000 5.869
26.24000 3.866
26.26000 7.060
26.28000 10.028
26.30000 7.873
26.32000 4.069
26.34000 -0.781
26.36000 -3.890
26.38000 8.745
26.40000 10.365
26.42000 5.199
26.44000 4.143
26.46000 1.629
26.48000 2.522
26.50000 6.883
26.52000 6.525
26.54000 8.060
26.56000 8.308
26.58000 5.871
26.60000 7.803
26.62000 7.700
26.64000 7.698
26.66000 6.084
26.68000 3.766
26.70000 1.998
26.72000 -1.355
26.74000 2.486
26.76000 4.260
26.78000 4.807
26.80000 7.948
26.82000 5.497
26.84000 8.721
26.86000 0.826
26.88000 1.118
26.90000 5.682
26.92000 4.155
26.94000 -0.027
26.96000 0.069
26.98000 1.155
27.00000 6.269
27.02000 2.227
27.04000 -0.595
27.06000 0.934
27.08000 8.546
27.10000 12.992
27.12000 2.750
27.14000 -1.703
27.16000 1.710
27.18000 6.604
27.20000 6.576
27.22000 -0.571
27.24000 -2.520
27.26000 1.120
27.28000 1.471
27.30000 3.498
27.32000 0.725
27.34000 2.897
27.36000 4.702
27.38000 1.298
27.40000 1.843
27.42000 0.774
27.44000 -1.461
27.46000 0.608
27.48000 -0.507
27.50000 -1.212
27.52000 2.933
27.54000 6.086
27.56000 3.699
27.58000 -2.790
27.60000 -1.717
27.62000 1.493
27.64000 4.502
27.66000 1.314
27.68000 9.904
27.70000 11.371
27.72000 6.271
27.74000 3.162
27.76000 1.628
27.78000 0.094
27.80000 -3.836
27.82000 0.815
27.84000 1.047
27.86000 4.586
27.88000 3.298
27.90000 1.415
27.92000 6.997
27.94000 5.031
27.96000 6.495
27.98000 2.225
28.00000 0.736
28.02000 1.085
28.04000 -2.107
28.06000 6.130
28.08000 9.408
28.10000 6.716
28.12000 5.428
28.14000 0.351
28.16000 0.567
28.18000 -1.108
28.20000 -1.290
28.22000 7.700
28.24000 5.510
28.26000 2.643
28.28000 1.842
28.30000 7.162
28.32000 4.380
28.34000 3.073
28.36000 4.984
28.38000 3.556
28.40000 3.909
28.42000 2.353
28.44000 0.876
28.46000 6.466
28.48000 7.828
28.50000 6.345
28.52000 7.257
28.54000 5.900
28.56000 5.504
28.58000 2.873
28.60000 0.892
28.62000 -1.427
28.64000 1.293
28.66000 2.385
28.68000 4.296
28.70000 8.310
28.72000 12.159
28.74000 7.581
28.76000 5.038
28.78000 4.769
28.80000 10.440
28.82000 9.453
28.84000 7.126
28.86000 9.570
28.88000 9.291
28.90000 8.417
28.92000 7.904
28.94000 4.978
28.96000 2.903
28.98000 -3.758
29.00000 -3.756
29.02000 -1.083
29.04000 2.349
29.06000 3.227
29.08000 2.942
29.10000 1.437
29.12000 -0.577
29.14000 0.434
29.16000 6.166
29.18000 5.003
29.20000 5.056
29.22000 3.750
29.24000 3.909
29.26000 2.543
29.28000 -2.761
29.30000 0.109
29.32000 2.052
29.34000 1.301
29.36000 8.475
29.38000 6.746
29.40000 2.610
29.42000 2.544
29.44000 5.027
29.46000 -0.115
29.48000 -0.244
29.50000 1.918
29.52000 4.340
29.54000 2.264
29.56000 1.988
29.58000 6.962
29.60000 3.473
29.62000 5.917
29.64000 7.051
29.66000 3.114
29.68000 2.762
29.70000 7.441
29.72000 6.473
29.74000 6.335
29.76000 15.242
29.78000 8.491
29.80000 6.740
29.82000 5.453
29.84000 7.015
29.86000 4.551
29.88000 4.358
29.90000 0.598
29.92000 -1.148
29.94000 2.563
29.96000 4.106
29.98000 5.819
30.00000 4.620
30.02000 3.823
30.04000 1.314
30.06000 3.927
30.08000 0.793
30.10000 0.246
30.12000 0.181
30.14000 2.137
30.16000 4.745
30.18000 2.129
30.20000 1.045
30.22000 3.697
30.24000 5.421
30.26000 3.612
30.28000 4.553
30.30000 5.442
30.32000 0.313
30.34000 2.104
30.36000 2.767
30.38000 0.928
30.40000 6.658
30.42000 10.119
30.44000 9.221
30.46000 8.459
30.48000 3.373
30.50000 -3.635
30.52000 -0.725
30.54000 6.918
30.56000 9.731
30.58000 8.129
30.60000 10.721
30.62000 9.660
30.64000 4.256
30.66000 2.123
30.68000 -0.700
30.70000 1.474
30.72000 6.006
30.74000 8.519
30.76000 10.366
30.78000 6.782
30.80000 3.484
30.82000 6.253
30.84000 6.423
30.86000 9.083
30.88000 10.648
30.90000 7.174
30.92000 2.554
30.94000 6.367
30.96000 4.809
30.98000 6.116
31.00000 8.734
31.02000 3.724
31.04000 -1.068
31.06000 2.464
31.08000 8.020
31.10000 4.231
31.12000 -1.404
31.14000 1.382
31.16000 1.479
31.18000 1.767
31.20000 5.042
31.22000 4.285
31.24000 3.346
31.26000 2.119
31.28000 4.977
31.30000 4.138
31.32000 4.544
31.34000 1.010
31.36000 0.943
31.38000 8.457
31.40000 3.009
31.42000 0.842
31.44000 4.458
31.46000 -2.106
31.48000 -1.763
31.50000 0.633
31.52000 0.563
31.54000 1.713
31.56000 0.144
31.58000 -3.653
31.60000 2.031
31.62000 5.371
31.64000 0.335
31.66000 -0.875
31.68000 0.606
31.70000 1.908
31.72000 4.385
31.74000 4.009
31.76000 -0.051
31.78000 3.086
31.80000 3.601
31.82000 0.659
31.84000 0.651
31.86000 -1.033
31.88000 2.524
31.90000 5.760
31.92000 2.897
31.94000 6.949
31.96000 7.000
31.98000 3.854
32.00000 3.272
32.02000 3.748
32.04000 3.450
32.06000 4.043
32.08000 0.160
32.10000 1.746
32.12000 2.486
32.14000 5.969
32.16000 5.393
32.18000 -2.466
32.20000 -2.399
32.22000 2.733
32.24000 -1.184
32.26000 3.472
32.28000 3.079
32.30000 0.298
32.32000 -0.038
32.34000 3.549
32.36000 1.610
32.38000 -0.660
32.40000 -1.967
32.42000 0.296
32.44000 -0.629
32.46000 2.868
32.48000 4.872
32.50000 -0.884
32.52000 -0.729
32.54000 4.625
32.56000 6.079
32.58000 2.096
32.60000 -3.630
32.62000 2.851
32.64000 3.413
32.66000 -1.487
32.68000 1.066
32.70000 7.544
32.72000 7.592
32.74000 6.673
32.76000 2.562
32.78000 -1.036
32.80000 -2.576
32.82000 0.106
32.84000 1.682
32.86000 2.355
32.88000 5.466
32.90000 4.427
32.92000 4.403
32.94000 0.288
32.96000 -2.333
32.98000 3.781
33.00000 3.340
33.02000 0.514
33.04000 2.147
33.06000 2.597
33.08000 0.132
33.10000 1.503
33.12000 8.558
33.14000 6.284
33.16000 2.116
33.18000 4.431
33.20000 1.818
33.22000 1.158
33.24000 7.121
33.26000 0.127
33.28000 -1.422
33.30000 3.079
33.32000 1.284
33.34000 2.226
33.36000 -2.007
33.38000 -0.362
33.40000 4.598
33.42000 0.492
33.44000 5.346
33.46000 6.911
33.48000 2.941
33.50000 -2.006
33.52000 -1.151
33.54000 4.792
33.56000 -0.721
33.58000 2.266
33.60000 6.520
33.62000 0.847
33.64000 -0.307
33.66000 4.772
33.68000 7.055
33.70000 3.028
33.72000 2.071
33.74000 5.252
33.76000 1.922
33.78000 5.089
33.80000 8.617
33.82000 7.361
33.84000 8.757
33.86000 4.205
33.88000 2.325
33.90000 3.198
33.92000 3.331
33.94000 5.266
33.96000 3.580
33.98000 4.073
34.00000 3.920
34.02000 -1.226
34.04000 -3.591
34.06000 1.373
34.08000 1.703
34.10000 6.437
34.12000 4.711
34.14000 9.741
34.16000 7.010
34.18000 -0.071
34.20000 1.536
34.22000 -2.708
34.24000 2.638
34.26000 2.455
34.28000 1.511
34.30000 6.463
34.32000 1.960
34.34000 3.833
34.36000 1.852
34.38000 -3.588
34.40000 -1.768
34.42000 4.432
34.44000 2.544
34.46000 2.091
34.48000 1.355
34.50000 4.479
34.52000 7.036
34.54000 -2.378
34.56000 1.737
34.58000 6.550
34.60000 6.462
34.62000 4.393
34.64000 3.434
34.66000 -1.531
34.68000 3.917
34.70000 3.698
34.72000 -0.687
34.74000 -1.799
34.76000 1.404
34.78000 -1.495
34.80000 0.340
34.82000 3.275
34.84000 0.717
34.86000 -0.055
34.88000 -0.051
34.90000 -1.958
34.92000 -2.951
34.94000 -0.295
34.96000 1.594
34.98000 6.625
35.00000 5.681
35.02000 4.471
35.04000 1.378
35.06000 4.613
35.08000 5.899
35.10000 -0.844
35.12000 0.571
35.14000 3.289
35.16000 4.301
35.18000 6.551
35.20000 2.667
35.22000 6.928
35.24000 4.786
35.26000 0.222
35.28000 2.520
35.30000 4.142
35.32000 -0.808
35.34000 -3.149
35.36000 -0.755
35.38000 1.084
35.40000 -3.559
35.42000 1.391
35.44000 2.409
35.46000 -2.775
35.48000 2.299
35.50000 1.507
35.52000 -1.170
35.54000 -3.556
35.56000 -0.062
35.58000 5.409
35.60000 4.733
35.62000 1.406
35.64000 2.689
35.66000 4.274
35.68000 1.575
35.70000 5.838
35.72000 3.349
35.74000 5.468
35.76000 8.084
35.78000 3.843
35.80000 3.868
35.82000 -1.864
35.84000 -3.566
35.86000 -1.790
35.88000 2.984
35.90000 -0.527
35.92000 2.769
35.94000 4.379
35.96000 2.561
35.98000 0.460
36.00000 5.577
36.02000 5.902
36.04000 1.821
36.06000 3.895
36.08000 2.221
36.10000 2.127
36.12000 1.770
36.14000 -0.234
36.16000 -0.613
36.18000 -0.134
36.20000 -0.344
36.22000 0.232
36.24000 3.192
36.26000 0.955
36.28000 2.022
36.30000 -0.145
36.32000 -2.124
36.34000 -1.970
36.36000 3.373
36.38000 6.079
36.40000 6.597
36.42000 2.493
36.44000 -2.015
36.46000 -0.469
36.48000 1.203
36.50000 2.596
36.52000 3.117
36.54000 2.711
36.56000 5.338
36.58000 5.988
36.60000 3.144
36.62000 -0.227
36.64000 1.890
36.66000 -3.590
36.68000 2.330
36.70000 3.167
36.72000 1.984
36.74000 3.288
36.76000 3.512
36.78000 2.808
36.80000 2.122
36.82000 1.707
36.84000 4.176
36.86000 8.215
36.88000 5.488
36.90000 3.883
36.92000 1.267
36.94000 -0.221
36.96000 -3.599
36.98000 0.419
37.00000 1.580
37.02000 -2.103
37.04000 3.928
37.06000 4.072
37.08000 5.652
37.10000 4.847
37.12000 2.469
37.14000 9.741
37.16000 8.917
37.18000 5.572
37.20000 6.736
37.22000 8.196
37.24000 8.292
37.26000 7.568
37.28000 4.631
37.30000 4.992
37.32000 4.251
37.34000 3.615
37.36000 2.403
37.38000 1.172
37.40000 0.535
37.42000 5.173
37.44000 2.975
37.46000 3.126
37.48000 -1.170
37.50000 -0.928
37.52000 2.698
37.54000 4.998
37.56000 3.133
37.58000 6.643
37.60000 7.705
37.62000 2.224
37.64000 8.303
37.66000 13.537
37.68000 10.330
37.70000 7.768
37.72000 5.461
37.74000 6.735
37.76000 8.869
37.78000 9.912
37.80000 10.029
37.82000 10.800
37.84000 6.362
37.86000 5.247
37.88000 9.050
37.90000 11.487
37.92000 13.775
37.94000 15.503
37.96000 10.586
37.98000 9.456
38.00000 12.871
38.02000 17.176
38.04000 15.468
38.06000 12.853
38.08000 17.635
38.10000 17.047
38.12000 20.730
38.14000 19.815
38.16000 18.132
38.18000 21.394
38.20000 18.084
38.22000 16.460
38.24000 17.474
38.26000 18.932
38.28000 22.016
38.30000 22.608
38.32000 26.385
38.34000 25.903
38.36000 26.470
38.38000 27.989
38.40000 23.104
38.42000 27.476
38.44000 31.779
38.46000 27.333
38.48000 25.721
38.50000 25.168
38.52000 26.224
38.54000 29.036
38.56000 30.938
38.58000 33.463
38.60000 34.488
38.62000 31.746
38.64000 37.921
38.66000 40.399
38.68000 43.826
38.70000 43.795
38.72000 44.118
38.74000 45.556
38.76000 50.674
38.78000 54.677
38.80000 60.043
38.82000 58.476
38.84000 60.473
38.86000 60.305
38.88000 58.976
38.90000 67.587
38.92000 73.560
38.94000 72.013
38.96000 72.035
38.98000 73.165
39.00000 71.670
39.02000 74.594
39.04000 81.473
39.06000 93.993
39.08000 95.611
39.10000 95.125
39.12000 99.757
39.14000 106.337
39.16000 109.435
39.18000 117.061
39.20000 122.767
39.22000 132.879
39.24000 134.018
39.26000 140.047
39.28000 146.061
39.30000 157.394
39.32000 160.883
39.34000 163.447
39.36000 165.711
39.38000 180.655
39.40000 194.428
39.42000 198.750
39.44000 213.128
39.46000 212.863
39.48000 234.079
39.50000 250.859
39.52000 267.443
39.54000 273.209
39.56000 289.945
39.58000 294.964
39.60000 314.682
39.62000 334.012
39.64000 342.564
39.66000 358.247
39.68000 372.805
39.70000 399.110
39.72000 414.519
39.74000 433.232
39.76000 451.754
39.78000 469.863
39.80000 490.022
39.82000 497.446
39.84000 513.016
39.86000 531.983
39.88000 547.473
39.90000 557.037
39.92000 577.204
39.94000 593.079
39.96000 598.377
39.98000 604.383
40.00000 610.022
40.02000 628.802
40.04000 635.054
40.06000 633.753
40.08000 636.713
40.10000 640.470
40.12000 633.201
40.14000 618.273
40.16000 618.227
40.18000 612.652
40.20000 594.017
40.22000 586.628
40.24000 575.455
40.26000 563.622
40.28000 544.209
40.30000 537.031
40.32000 517.505
40.34000 502.184
40.36000 483.673
40.38000 466.995
40.40000 452.803
40.42000 422.349
40.44000 412.009
40.46000 389.060
40.48000 381.531
40.50000 368.237
40.52000 341.986
40.54000 331.798
40.56000 314.905
40.58000 298.553
40.60000 285.264
40.62000 271.699
40.64000 251.803
40.66000 234.330
40.68000 221.294
40.70000 208.625
40.72000 196.098
40.74000 187.685
40.76000 182.229
40.78000 173.526
40.80000 163.424
40.82000 153.610
40.84000 145.225
40.86000 133.900
40.88000 124.925
40.90000 117.055
40.92000 113.551
40.94000 108.757
40.96000 108.678
40.98000 98.483
41.00000 93.909
41.02000 81.562
41.04000 77.818
41.06000 77.414
41.08000 72.891
41.10000 70.207
41.12000 68.445
41.14000 66.712
41.16000 59.317
41.18000 51.805
41.20000 49.084
41.22000 50.065
41.24000 45.967
41.26000 47.017
41.28000 45.605
41.30000 43.998
41.32000 41.593
41.34000 44.465
41.36000 44.947
41.38000 37.663
41.40000 33.497
41.42000 30.998
41.44000 23.854
41.46000 25.038
41.48000 23.025
41.50000 20.607
41.52000 22.760
41.54000 21.213
41.56000 24.053
41.58000 21.148
41.60000 22.254
41.62000 20.539
41.64000 17.443
41.66000 12.295
41.68000 13.751
41.70000 15.464
41.72000 16.798
41.74000 17.351
41.76000 15.023
41.78000 12.889
41.80000 15.037
41.82000 12.386
41.84000 10.188
41.86000 5.496
41.88000 4.926
41.90000 5.398
41.92000 6.865
41.94000 7.567
41.96000 7.797
41.98000 6.581
42.00000 6.917
42.02000 7.600
42.04000 8.617
42.06000 8.401
42.08000 7.256
42.10000 6.937
42.12000 4.531
42.14000 6.942
42.16000 7.695
42.18000 6.810
42.20000 4.878
42.22000 3.290
42.24000 3.092
42.26000 4.359
42.28000 -1.080
42.30000 -0.293
42.32000 3.104
42.34000 4.892
42.36000 4.707
42.38000 4.606
42.40000 5.142
42.42000 3.265
42.44000 2.584
42.46000 3.222
42.48000 -1.703
42.50000 -3.498
42.52000 3.113
42.54000 5.358
42.56000 2.964
42.58000 1.920
42.60000 1.517
42.62000 -0.004
42.64000 0.161
42.66000 2.846
42.68000 6.017
42.70000 1.976
42.72000 1.453
42.74000 -0.274
42.76000 0.977
42.78000 2.175
42.80000 -2.742
42.82000 -0.434
42.84000 -1.242
42.86000 -1.226
42.88000 -0.719
42.90000 1.267
42.92000 2.725
42.94000 4.283
42.96000 3.951
42.98000 2.507
43.00000 1.250
43.02000 0.305
43.04000 0.183
43.06000 1.246
43.08000 3.161
43.10000 2.863
43.12000 2.723
43.14000 2.063
43.16000 -1.921
43.18000 -3.427
43.20000 1.683
43.22000 1.389
43.24000 2.424
43.26000 1.545
43.28000 3.671
43.30000 5.333
43.32000 3.559
43.34000 1.688
43.36000 3.006
43.38000 -0.443
43.40000 3.956
43.42000 0.774
43.44000 -3.404
43.46000 -3.073
43.48000 -0.740
43.50000 2.385
43.52000 2.516
43.54000 2.970
43.56000 0.849
43.58000 0.826
43.60000 -0.386
43.62000 0.778
43.64000 -0.244
43.66000 -0.113
43.68000 2.845
43.70000 -0.728
43.72000 -2.153
43.74000 0.678
43.76000 0.960
43.78000 -0.206
43.80000 1.265
43.82000 -2.592
43.84000 -3.387
43.86000 -1.031
43.88000 2.316
43.90000 -0.039
43.92000 -1.603
43.94000 -3.001
43.96000 -2.301
43.98000 0.430
44.00000 -0.109
44.02000 0.116
44.04000 -1.954
44.06000 -3.380
44.08000 -2.471
44.10000 -0.949
44.12000 -1.272
44.14000 -2.039
44.16000 0.430
44.18000 2.087
44.20000 4.875
44.22000 2.386
44.24000 -0.117
44.26000 0.246
44.28000 -2.080
44.30000 0.018
44.32000 -3.378
44.34000 -0.778
44.36000 4.223
44.38000 2.944
44.40000 -2.856
44.42000 -0.404
44.44000 1.982
44.46000 -1.943
44.48000 2.229
44.50000 2.975
44.52000 2.722
44.54000 -0.167
44.56000 -0.224
44.58000 -1.400
44.60000 1.143
44.62000 4.730
44.64000 4.141
44.66000 3.401
44.68000 3.338
44.70000 1.053
44.72000 3.777
44.74000 1.433
44.76000 0.900
44.78000 4.331
44.80000 2.048
44.82000 6.245
44.84000 4.518
44.86000 6.302
44.88000 5.821
44.90000 6.948
44.92000 8.879
44.94000 11.978
44.96000 9.863
44.98000 7.887
45.00000 9.821
45.02000 7.876
45.04000 5.993
45.06000 5.310
45.08000 4.856
45.10000 4.476
45.12000 7.646
45.14000 8.258
45.16000 2.943
45.18000 11.582
45.20000 12.559
45.22000 11.612
45.24000 19.397
45.26000 13.752
45.28000 12.331
45.30000 10.684
45.32000 10.943
45.34000 10.932
45.36000 13.284
45.38000 16.083
45.40000 16.190
45.42000 17.590
45.44000 18.985
45.46000 16.143
45.48000 20.557
45.50000 19.581
45.52000 20.472
45.54000 21.584
45.56000 21.620
45.58000 23.151
45.60000 22.081
45.62000 23.574
45.64000 30.902
45.66000 29.730
45.68000 29.603
45.70000 30.617
45.72000 32.778
45.74000 31.212
45.76000 33.295
45.78000 34.728
45.80000 36.523
45.82000 36.625
45.84000 37.655
45.86000 39.284
45.88000 41.867
45.90000 39.328
45.92000 45.668
45.94000 46.467
45.96000 46.789
45.98000 50.627
46.00000 49.545
46.02000 49.745
46.04000 46.253
46.06000 51.658
46.08000 53.480
46.10000 53.973
46.12000 57.534
46.14000 63.525
46.16000 63.878
46.18000 67.020
46.20000 70.638
46.22000 68.288
46.24000 72.752
46.26000 73.501
46.28000 75.108
46.30000 83.979
46.32000 85.387
46.34000 79.735
46.36000 83.042
46.38000 84.228
46.40000 84.319
46.42000 88.336
46.44000 89.080
46.46000 97.677
46.48000 98.720
46.50000 99.665
46.52000 102.997
46.54000 106.214
46.56000 106.353
46.58000 97.052
46.60000 101.821
46.62000 102.112
46.64000 110.031
46.66000 109.338
46.68000 109.703
46.70000 105.901
46.72000 106.639
46.74000 108.174
46.76000 107.839
46.78000 109.051
46.80000 107.247
46.82000 107.931
46.84000 111.432
46.86000 108.836
46.88000 100.191
46.90000 96.479
46.92000 93.318
46.94000 98.611
46.96000 101.652
46.98000 98.939
47.00000 98.035
47.02000 94.416
47.04000 96.850
47.06000 101.913
47.08000 96.420
47.10000 86.274
47.12000 84.235
47.14000 79.762
47.16000 75.992
47.18000 77.635
47.20000 81.975
47.22000 81.453
47.24000 72.219
47.26000 69.239
47.28000 68.072
47.30000 63.870
47.32000 56.473
47.34000 56.209
47.36000 58.401
47.38000 55.904
47.40000 53.268
47.42000 53.526
47.44000 50.793
47.46000 44.972
47.48000 47.702
47.50000 49.836
47.52000 42.099
47.54000 40.439
47.56000 41.738
47.58000 39.297
47.60000 40.947
47.62000 36.804
47.64000 33.909
47.66000 28.695
47.68000 32.791
47.70000 31.865
47.72000 29.473
47.74000 20.898
47.76000 18.856
47.78000 22.257
47.80000 22.926
47.82000 20.816
47.84000 19.545
47.86000 16.476
47.88000 20.735
47.90000 9.206
47.92000 11.622
47.94000 12.720
47.96000 11.385
47.98000 12.464
48.00000 11.773
48.02000 11.140
48.04000 6.278
48.06000 12.105
48.08000 10.612
48.10000 11.645
48.12000 12.837
48.14000 9.657
48.16000 9.817
48.18000 7.573
48.20000 8.545
48.22000 9.872
48.24000 5.430
48.26000 5.906
48.28000 4.623
48.30000 4.313
48.32000 -0.023
48.34000 0.376
48.36000 -3.033
48.38000 5.917
48.40000 2.581
48.42000 0.543
48.44000 -0.770
48.46000 1.126
48.48000 4.809
48.50000 4.669
48.52000 0.541
48.54000 -1.021
48.56000 -0.528
48.58000 4.709
48.60000 3.699
48.62000 -0.660
48.64000 -0.395
48.66000 -0.866
48.68000 0.726
48.70000 -2.622
48.72000 1.019
48.74000 2.048
48.76000 4.082
48.78000 3.977
48.80000 1.548
48.82000 1.924
48.84000 6.451
48.86000 2.422
48.88000 -1.950
48.90000 -2.022
48.92000 -1.801
48.94000 3.150
48.96000 1.937
48.98000 0.423
49.00000 1.297
49.02000 2.988
49.04000 -1.223
49.06000 -0.530
49.08000 1.412
49.10000 4.674
49.12000 2.324
49.14000 -0.842
49.16000 -1.144
49.18000 -0.290
49.20000 1.412
49.22000 5.645
49.24000 -1.605
49.26000 0.274
49.28000 -0.924
49.30000 -1.351
49.32000 1.353
49.34000 5.286
49.36000 3.494
49.38000 5.872
49.40000 2.604
49.42000 4.893
49.44000 4.161
49.46000 7.668
49.48000 7.579
49.50000 4.808
49.52000 4.317
49.54000 1.278
49.56000 0.757
49.58000 -0.274
49.60000 4.175
49.62000 4.377
49.64000 3.596
49.66000 3.446
49.68000 6.763
49.70000 4.087
49.72000 0.293
49.74000 -2.790
49.76000 3.263
49.78000 7.456
49.80000 5.627
49.82000 3.857
49.84000 4.366
49.86000 5.169
49.88000 13.900
49.90000 8.564
49.92000 4.666
49.94000 2.653
49.96000 5.147
49.98000 7.168
50.00000 1.366
50.02000 2.920
50.04000 3.329
50.06000 6.185
50.08000 2.647
50.10000 3.224
50.12000 6.413
50.14000 4.029
50.16000 2.374
50.18000 2.284
50.20000 3.491
50.22000 4.892
50.24000 5.743
50.26000 1.468
50.28000 1.343
50.30000 6.013
50.32000 3.294
50.34000 -0.636
50.36000 3.498
50.38000 5.983
50.40000 2.766
50.42000 4.152
50.44000 4.593
50.46000 4.846
50.48000 0.697
50.50000 0.722
50.52000 0.128
50.54000 0.552
50.56000 2.429
50.58000 1.815
50.60000 7.071
50.62000 4.975
50.64000 3.698
50.66000 1.845
50.68000 -0.858
50.70000 0.993
50.72000 1.005
50.74000 3.223
50.76000 2.945
50.78000 5.731
50.80000 4.077
50.82000 4.391
50.84000 4.749
50.86000 4.474
50.88000 2.782
50.90000 4.250
50.92000 5.184
50.94000 5.046
50.96000 6.916
50.98000 6.407
51.00000 3.494
51.02000 0.874
51.04000 -1.998
51.06000 4.155
51.08000 6.273
51.10000 3.055
51.12000 3.325
51.14000 4.825
51.16000 3.499
51.18000 3.776
51.20000 5.854
51.22000 2.932
51.24000 4.968
51.26000 -1.912
51.28000 -1.130
51.30000 2.469
51.32000 -0.204
51.34000 4.665
51.36000 6.243
51.38000 4.762
51.40000 1.941
51.42000 -2.720
51.44000 1.133
51.46000 6.163
51.48000 5.703
51.50000 4.882
51.52000 5.018
51.54000 5.718
51.56000 5.597
51.58000 3.948
51.60000 4.424
51.62000 2.452
51.64000 3.880
51.66000 6.745
51.68000 2.436
51.70000 2.885
51.72000 5.616
51.74000 11.984
51.76000 12.052
51.78000 9.464
51.80000 6.095
51.82000 7.714
51.84000 2.342
51.86000 3.376
51.88000 1.802
51.90000 6.907
51.92000 9.652
51.94000 7.547
51.96000 4.359
51.98000 3.834
52.00000 3.831
52.02000 5.847
52.04000 6.403
52.06000 2.397
52.08000 3.175
52.10000 3.975
52.12000 4.951
52.14000 4.510
52.16000 3.555
52.18000 6.588
52.20000 6.104
52.22000 4.457
52.24000 3.531
52.26000 1.870
52.28000 2.635
52.30000 3.331
52.32000 0.864
52.34000 0.663
52.36000 2.722
52.38000 -2.676
52.40000 0.349
52.42000 1.732
52.44000 1.844
52.46000 2.623
52.48000 4.835
52.50000 0.829
52.52000 3.711
52.54000 2.944
52.56000 0.229
52.58000 6.992
52.60000 5.266
52.62000 3.055
52.64000 6.580
52.66000 5.626
52.68000 4.128
52.70000 4.830
52.72000 3.453
52.74000 2.118
52.76000 3.428
52.78000 0.020
52.80000 0.736
52.82000 1.526
52.84000 4.176
52.86000 1.785
52.88000 3.108
52.90000 0.359
52.92000 1.896
52.94000 4.475
52.96000 2.292
52.98000 4.394
53.00000 5.576
53.02000 1.391
53.04000 2.740
53.06000 1.576
53.08000 2.986
53.10000 2.540
53.12000 0.579
53.14000 7.153
53.16000 7.526
53.18000 2.894
53.20000 0.922
53.22000 2.995
53.24000 2.598
53.26000 1.628
53.28000 1.522
53.30000 1.433
53.32000 -0.305
53.34000 -2.673
53.36000 2.693
53.38000 1.975
53.40000 0.851
53.42000 -1.118
53.44000 -0.672
53.46000 3.553
53.48000 6.858
53.50000 5.419
53.52000 6.175
53.54000 4.448
53.56000 3.881
53.58000 5.574
53.60000 5.074
53.62000 1.016
53.64000 1.379
53.66000 1.460
53.68000 -0.586
53.70000 2.490
53.72000 7.078
53.74000 4.058
53.76000 7.568
53.78000 4.982
53.80000 5.482
53.82000 0.600
53.84000 3.451
53.86000 6.289
53.88000 5.495
53.90000 8.334
53.92000 6.194
53.94000 1.777
53.96000 -1.393
53.98000 3.178
54.00000 4.143
54.02000 4.519
54.04000 6.721
54.06000 3.993
54.08000 2.016
54.10000 4.831
54.12000 6.646
54.14000 7.684
54.16000 0.923
54.18000 1.048
54.20000 3.021
54.22000 4.387
54.24000 6.324
54.26000 7.557
54.28000 9.825
54.30000 7.040
54.32000 4.340
54.34000 2.197
54.36000 -2.607
54.38000 -0.578
54.40000 4.968
54.42000 1.007
54.44000 -0.917
54.46000 6.776
54.48000 2.293
54.50000 1.507
54.52000 1.852
54.54000 6.286
54.56000 3.675
54.58000 5.745
54.60000 6.702
54.62000 2.882
54.64000 3.285
54.66000 3.544
54.68000 4.020
54.70000 2.302
54.72000 1.709
54.74000 5.775
54.76000 5.458
54.78000 4.988
54.80000 5.341
54.82000 4.228
54.84000 4.100
54.86000 2.184
54.88000 2.262
54.90000 3.575
54.92000 1.732
54.94000 -0.581
54.96000 4.348
54.98000 3.646
55.00000 4.110
55.02000 -0.252
55.04000 -1.574
55.06000 2.468
55.08000 5.325
55.10000 5.509
55.12000 4.854
55.14000 1.491
55.16000 0.292
55.18000 -1.047
55.20000 -0.875
55.22000 2.600
55.24000 5.569
55.26000 2.445
55.28000 0.386
55.30000 2.397
55.32000 7.428
55.34000 4.598
55.36000 2.888
55.38000 3.175
55.40000 1.172
55.42000 0.928
55.44000 -2.621
55.46000 -1.000
55.48000 3.501
55.50000 3.504
55.52000 0.731
55.54000 4.154
55.56000 3.275
55.58000 0.550
55.60000 -0.969
55.62000 0.115
55.64000 0.225
55.66000 1.196
55.68000 3.190
55.70000 5.144
55.72000 1.501
55.74000 0.408
55.76000 1.221
55.78000 2.349
55.80000 4.571
55.82000 0.853
55.84000 0.273
55.86000 5.556
55.88000 5.854
55.90000 5.935
55.92000 2.987
55.94000 -2.379
55.96000 -0.408
55.98000 -0.151
56.00000 3.910
56.02000 4.373
56.04000 2.834
56.06000 0.524
56.08000 5.740
56.10000 3.463
56.12000 1.707
56.14000 -1.491
56.16000 3.186
56.18000 4.638
56.20000 1.582
56.22000 5.882
56.24000 1.933
56.26000 -1.573
56.28000 2.492
56.30000 -0.155
56.32000 -0.008
56.34000 -0.883
56.36000 2.393
56.38000 3.619
56.40000 2.492
56.42000 3.181
56.44000 4.188
56.46000 4.279
56.48000 -0.193
56.50000 1.270
56.52000 0.126
56.54000 1.311
56.56000 0.054
56.58000 3.840
56.60000 3.425
56.62000 1.247
56.64000 0.921
56.66000 3.886
56.68000 1.093
56.70000 4.084
56.72000 3.398
56.74000 1.743
56.76000 -0.952
56.78000 3.079
56.80000 5.869
56.82000 8.676
56.84000 6.480
56.86000 3.408
56.88000 3.978
56.90000 4.994
56.92000 1.531
56.94000 -1.248
56.96000 -0.504
56.98000 -2.569
57.00000 2.922
57.02000 5.178
57.04000 4.168
57.06000 0.486
57.08000 4.209
57.10000 3.437
57.12000 2.203
57.14000 5.056
57.16000 7.796
57.18000 2.045
57.20000 4.042
57.22000 5.435
57.24000 1.384
57.26000 1.352
57.28000 0.190
57.30000 2.241
57.32000 4.512
57.34000 4.339
57.36000 0.551
57.38000 0.283
57.40000 -2.566
57.42000 3.616
57.44000 5.914
57.46000 3.276
57.48000 3.661
57.50000 0.839
57.52000 -0.156
57.54000 -0.110
57.56000 0.225
57.58000 1.082
57.60000 -0.191
57.62000 4.049
57.64000 7.150
57.66000 5.264
57.68000 2.214
57.70000 8.197
57.72000 6.507
57.74000 4.990
57.76000 -0.054
57.78000 3.846
57.80000 7.191
57.82000 8.838
57.84000 10.214
57.86000 3.591
57.88000 -1.480
57.90000 2.496
57.92000 -2.549
57.94000 1.790
57.96000 7.370
57.98000 7.678
58.00000 7.965
58.02000 5.119
58.04000 3.068
58.06000 3.471
58.08000 5.910
58.10000 5.514
58.12000 1.402
58.14000 0.653
58.16000 1.190
58.18000 0.736
58.20000 3.434
58.22000 6.140
58.24000 5.233
58.26000 4.547
58.28000 7.186
58.30000 6.414
58.32000 2.649
58.34000 -2.543
58.36000 -2.518
58.38000 -1.286
58.40000 0.808
58.42000 4.192
58.44000 3.673
58.46000 4.626
58.48000 3.132
58.50000 2.579
58.52000 -1.363
58.54000 -2.120
58.56000 1.004
58.58000 0.187
58.60000 -0.346
58.62000 -2.107
58.64000 0.712
58.66000 0.031
58.68000 2.415
58.70000 1.892
58.72000 -0.778
58.74000 0.394
58.76000 -0.481
58.78000 -0.398
58.80000 -1.743
58.82000 2.553
58.84000 2.822
58.86000 3.266
58.88000 5.465
58.90000 0.840
58.92000 2.059
58.94000 5.172
58.96000 3.130
58.98000 2.439
59.00000 4.858
59.02000 4.493
59.04000 3.341
59.06000 4.353
59.08000 2.716
59.10000 -0.579
59.12000 -0.401
59.14000 0.268
59.16000 2.755
59.18000 1.522
59.20000 3.287
59.22000 4.092
59.24000 4.956
59.26000 1.996
59.28000 -1.232
59.30000 -0.465
59.32000 0.133
59.34000 1.733
59.36000 0.485
59.38000 0.420
59.40000 0.381
59.42000 3.029
59.44000 3.383
59.46000 3.089
59.48000 2.097
59.50000 -0.071
59.52000 0.440
59.54000 1.426
59.56000 5.101
59.58000 -0.483
59.60000 3.369
59.62000 3.350
59.64000 1.179
59.66000 -2.492
59.68000 -1.934
59.70000 -1.450
59.72000 0.277
59.74000 3.148
59.76000 4.775
59.78000 0.677
59.80000 -0.471
59.82000 0.692
59.84000 -2.477
59.86000 0.244
59.88000 6.226
59.90000 3.899
59.92000 1.460
59.94000 2.682
59.96000 7.514
59.98000 6.362
60.00000 0.588
60.02000 1.216
60.04000 1.076
60.06000 4.629
60.08000 5.659
60.10000 8.012
60.12000 8.111
60.14000 4.536
60.16000 7.509
60.18000 7.620
60.20000 4.486
60.22000 2.808
60.24000 1.411
60.26000 1.496
60.28000 0.867
60.30000 -2.452
60.32000 1.448
60.34000 5.153
60.36000 3.753
60.38000 7.095
60.40000 6.664
60.42000 3.174
60.44000 3.352
60.46000 6.944
60.48000 7.770
60.50000 6.293
60.52000 6.971
60.54000 3.594
60.56000 2.292
60.58000 1.362
60.60000 3.771
60.62000 3.802
60.64000 0.791
60.66000 1.267
60.68000 1.242
60.70000 1.350
60.72000 -0.310
60.74000 -0.151
60.76000 4.570
60.78000 5.367
60.80000 2.179
60.82000 -0.769
60.84000 2.678
60.86000 2.578
60.88000 0.897
60.90000 2.091
60.92000 1.926
60.94000 0.379
60.96000 1.838
60.98000 4.560
61.00000 3.791
61.02000 0.283
61.04000 1.181
61.06000 6.032
61.08000 9.213
61.10000 5.250
61.12000 2.867
61.14000 5.433
61.16000 4.202
61.18000 0.438
61.20000 0.772
61.22000 1.390
61.24000 5.234
61.26000 4.453
61.28000 0.738
61.30000 -0.054
61.32000 2.470
61.34000 3.206
61.36000 -0.785
61.38000 3.397
61.40000 2.353
61.42000 -2.448
61.44000 -0.431
61.46000 3.658
61.48000 0.618
61.50000 1.270
61.52000 5.822
61.54000 4.268
61.56000 1.640
61.58000 -2.440
61.60000 1.809
61.62000 0.257
61.64000 -0.173
61.66000 4.860
61.68000 5.943
61.70000 3.532
61.72000 6.309
61.74000 4.569
61.76000 1.255
61.78000 2.453
61.80000 2.790
61.82000 3.966
61.84000 1.511
61.86000 -0.656
61.88000 0.112
61.90000 0.006
61.92000 -1.167
61.94000 0.528
61.96000 3.763
61.98000 2.124
62.00000 6.104
62.02000 3.143
62.04000 0.512
62.06000 0.120
62.08000 -0.373
62.10000 0.093
62.12000 0.609
62.14000 1.332
62.16000 1.878
62.18000 5.862
62.20000 2.851
62.22000 0.223
62.24000 3.139
62.26000 3.804
62.28000 2.981
62.30000 4.554
62.32000 4.570
62.34000 4.683
62.36000 1.829
62.38000 -1.707
62.40000 -1.973
62.42000 -2.392
62.44000 -1.595
62.46000 -0.865
62.48000 3.617
62.50000 5.184
62.52000 5.040
62.54000 2.335
62.56000 3.783
62.58000 4.491
62.60000 4.962
62.62000 3.199
62.64000 2.875
62.66000 -0.549
62.68000 2.582
62.70000 3.836
62.72000 4.172
62.74000 3.360
62.76000 5.681
62.78000 6.231
62.80000 4.265
62.82000 4.607
62.84000 1.269
62.86000 -0.958
62.88000 0.154
62.90000 2.880
62.92000 1.366
62.94000 -0.563
62.96000 1.048
62.98000 -0.439
63.00000 -0.726
63.02000 -1.846
63.04000 -1.007
63.06000 2.370
63.08000 2.590
63.10000 1.839
63.12000 1.768
63.14000 -2.416
63.16000 -1.130
63.18000 1.158
63.20000 -0.420
63.22000 -0.788
63.24000 1.550
63.26000 2.972
63.28000 2.654
63.30000 6.116
63.32000 3.462
63.34000 2.897
63.36000 2.830
63.38000 1.552
63.40000 0.394
63.42000 1.899
63.44000 1.966
63.46000 4.786
63.48000 3.099
63.50000 4.221
63.52000 5.422
63.54000 6.820
63.56000 5.770
63.58000 4.313
63.60000 2.204
63.62000 -2.414
63.64000 -0.698
63.66000 4.371
63.68000 1.500
63.70000 0.738
63.72000 -0.318
63.74000 0.154
63.76000 0.338
63.78000 -0.816
63.80000 1.765
63.82000 3.084
63.84000 2.938
63.86000 2.843
63.88000 1.752
63.90000 0.120
63.92000 0.263
63.94000 0.144
63.96000 -2.076
63.98000 -1.929
64.00000 -2.246
64.02000 -0.177
64.04000 4.338
64.06000 2.656
64.08000 0.584
64.10000 -1.166
64.12000 -0.951
64.14000 3.249
64.16000 -0.546
64.18000 -1.081
64.20000 3.054
64.22000 1.049
64.24000 3.077
64.26000 0.986
64.28000 1.785
64.30000 0.178
64.32000 1.139
64.34000 1.254
64.36000 0.299
64.38000 4.483
64.40000 4.081
64.42000 2.652
64.44000 1.011
64.46000 3.894
64.48000 3.621
64.50000 1.839
64.52000 1.342
64.54000 3.661
64.56000 1.798
64.58000 -2.426
64.60000 -1.660
64.62000 -2.458
64.64000 -1.722
64.66000 0.210
64.68000 0.365
64.70000 0.289
64.72000 -0.754
64.74000 -0.080
64.76000 2.683
64.78000 4.798
64.80000 3.740
64.82000 4.571
64.84000 0.181
64.86000 -2.461
64.88000 1.041
64.90000 -0.143
64.92000 -0.444
64.94000 -1.024
64.96000 1.225
64.98000 0.079
65.00000 -0.420
65.02000 1.397
65.04000 -1.631
65.06000 -1.739
65.08000 -2.460
65.10000 0.572
65.12000 1.341
65.14000 -0.065
65.16000 0.568
65.18000 -1.325
65.20000 0.780
65.22000 -0.357
65.24000 2.661
65.26000 2.065
65.28000 1.749
65.30000 1.710
65.32000 0.797
65.34000 -1.563
65.36000 0.019
65.38000 -0.578
65.40000 4.889
65.42000 4.902
65.44000 1.736
65.46000 -0.018
65.48000 0.211
65.50000 -2.484
65.52000 -1.753
65.54000 2.178
65.56000 0.029
65.58000 1.662
65.60000 2.704
65.62000 1.769
65.64000 0.076
65.66000 -1.030
65.68000 0.691
65.70000 -1.505
65.72000 1.560
65.74000 2.634
65.76000 3.018
65.78000 3.041
65.80000 2.304
65.82000 1.059
65.84000 -0.968
65.86000 1.695
65.88000 0.216
65.90000 -0.002
65.92000 0.642
65.94000 4.642
65.96000 0.658
65.98000 -0.017
66.00000 2.115
66.02000 1.688
66.04000 0.139
66.06000 -0.302
66.08000 1.463
66.10000 4.194
66.12000 4.717
66.14000 3.545
66.16000 1.570
66.18000 0.615
66.20000 -1.250
66.22000 -2.457
66.24000 -1.769
66.26000 -2.513
66.28000 -0.508
66.30000 2.831
66.32000 3.058
66.34000 1.625
66.36000 -2.520
66.38000 2.337
66.40000 4.115
66.42000 4.382
66.44000 0.604
66.46000 0.405
66.48000 0.722
66.50000 1.861
66.52000 0.788
66.54000 0.930
66.56000 2.253
66.58000 2.869
66.60000 5.587
66.62000 3.158
66.64000 6.370
66.66000 3.923
66.68000 3.320
66.70000 1.962
66.72000 2.674
66.74000 1.932
66.76000 1.665
66.78000 4.095
66.80000 4.741
66.82000 4.673
66.84000 4.981
66.86000 5.506
66.88000 5.313
66.90000 2.177
66.92000 1.870
66.94000 3.022
66.96000 3.056
66.98000 5.259
67.00000 8.812
67.02000 8.976
67.04000 7.165
67.06000 5.918
67.08000 4.553
67.10000 6.188
67.12000 6.052
67.14000 5.065
67.16000 8.161
67.18000 8.639
67.20000 6.033
67.22000 4.946
67.24000 4.357
67.26000 7.779
67.28000 10.088
67.30000 8.595
67.32000 9.393
67.34000 8.258
67.36000 11.164
67.38000 11.302
67.40000 11.729
67.42000 13.356
67.44000 12.807
67.46000 10.983
67.48000 12.883
67.50000 15.242
67.52000 13.330
67.54000 16.457
67.56000 15.213
67.58000 12.311
67.60000 11.851
67.62000 11.531
67.64000 14.845
67.66000 17.794
67.68000 15.501
67.70000 14.806
67.72000 16.190
67.74000 14.859
67.76000 16.930
67.78000 21.136
67.80000 17.796
67.82000 18.246
67.84000 22.183
67.86000 22.384
67.88000 21.706
67.90000 19.727
67.92000 21.589
67.94000 24.302
67.96000 21.182
67.98000 20.060
68.00000 23.071
68.02000 23.984
68.04000 19.649
68.06000 22.092
68.08000 20.485
68.10000 25.809
68.12000 28.017
68.14000 23.423
68.16000 23.195
68.18000 26.244
68.20000 23.871
68.22000 21.417
68.24000 23.863
68.26000 22.202
68.28000 23.701
68.30000 24.444
68.32000 23.234
68.34000 21.829
68.36000 21.469
68.38000 22.264
68.40000 23.224
68.42000 23.703
68.44000 23.651
68.46000 25.055
68.48000 28.207
68.50000 22.224
68.52000 21.926
68.54000 22.164
68.56000 19.640
68.58000 19.217
68.60000 19.311
68.62000 18.382
68.64000 20.966
68.66000 20.037
68.68000 15.451
68.70000 14.509
68.72000 18.422
68.74000 17.359
68.76000 15.515
68.78000 11.677
68.80000 13.683
68.82000 11.532
68.84000 11.232
68.86000 11.236
68.88000 11.930
68.90000 12.609
68.92000 10.144
68.94000 9.404
68.96000 8.794
68.98000 12.742
69.00000 8.299
69.02000 10.645
69.04000 9.672
69.06000 8.175
69.08000 9.579
69.10000 7.227
69.12000 7.732
69.14000 7.751
69.16000 10.380
69.18000 7.162
69.20000 6.873
69.22000 3.300
69.24000 5.805
69.26000 6.095
69.28000 2.581
69.30000 3.481
69.32000 4.280
69.34000 1.929
69.36000 1.787
69.38000 -0.215
69.40000 4.728
69.42000 3.210
69.44000 2.340
69.46000 2.485
69.48000 0.080
69.50000 5.014
69.52000 4.310
69.54000 6.205
69.56000 5.541
69.58000 3.743
69.60000 4.775
69.62000 3.243
69.64000 3.695
69.66000 4.949
69.68000 4.377
69.70000 1.507
69.72000 0.578
69.74000 0.948
69.76000 2.017
69.78000 -1.661
69.80000 -0.976
69.82000 -2.420
69.84000 0.360
69.86000 1.874
69.88000 3.845
69.90000 4.636
69.92000 2.336
69.94000 4.375
69.96000 2.766
69.98000 3.383
70.00000 2.901
70.02000 -0.159
70.04000 0.362
70.06000 4.082
70.08000 6.578
70.10000 4.449
70.12000 4.730
70.14000 5.791
70.16000 2.058
70.18000 -0.408
70.20000 2.430
70.22000 2.149
70.24000 1.754
70.26000 2.169
70.28000 -1.880
70.30000 0.017
70.32000 4.217
70.34000 3.279
70.36000 2.417
70.38000 -1.369
70.40000 -2.336
70.42000 -1.406
70.44000 1.327
70.46000 5.975
70.48000 3.819
70.50000 2.864
70.52000 4.063
70.54000 5.416
70.56000 5.032
70.58000 3.512
70.60000 3.349
70.62000 5.988
70.64000 2.527
70.66000 -0.065
70.68000 3.375
70.70000 5.386
70.72000 -1.057
70.74000 1.159
70.76000 5.929
70.78000 0.624
70.80000 -0.683
70.82000 1.112
70.84000 1.252
70.86000 -0.198
70.88000 3.979
70.90000 2.472
70.92000 2.539
70.94000 1.537
70.96000 1.100
70.98000 3.594
71.00000 2.942
71.02000 4.037
71.04000 2.404
71.06000 4.142
71.08000 5.444
71.10000 2.658
71.12000 0.250
71.14000 -1.238
71.16000 1.944
71.18000 4.504
71.20000 -0.712
71.22000 3.732
71.24000 3.852
71.26000 3.243
71.28000 1.564
71.30000 -2.050
71.32000 -2.324
71.34000 2.081
71.36000 2.056
71.38000 1.381
71.40000 -1.009
71.42000 0.908
71.44000 3.363
71.46000 2.814
71.48000 -0.998
71.50000 0.286
71.52000 4.081
71.54000 2.890
71.56000 -0.994
71.58000 0.282
71.60000 3.123
71.62000 7.780
71.64000 6.099
71.66000 5.458
71.68000 4.012
71.70000 0.538
71.72000 -0.042
71.74000 -0.924
71.76000 -0.145
71.78000 1.190
71.80000 -0.925
71.82000 0.844
71.84000 -0.356
71.86000 1.516
71.88000 2.239
71.90000 1.913
71.92000 3.597
71.94000 0.904
71.96000 2.504
71.98000 2.296
72.00000 1.096
72.02000 1.036
72.04000 0.522
72.06000 -1.605
72.08000 -1.784
72.10000 3.298
72.12000 7.547
72.14000 4.832
72.16000 2.239
72.18000 0.744
72.20000 0.376
72.22000 1.135
72.24000 -1.962
72.26000 0.798
72.28000 1.382
72.30000 -0.201
72.32000 0.010
72.34000 4.499
72.36000 2.340
72.38000 4.001
72.40000 2.937
72.42000 -1.362
72.44000 5.595
72.46000 2.826
72.48000 -0.134
72.50000 -1.318
72.52000 -0.496
72.54000 -0.195
72.56000 -2.216
72.58000 1.455
72.60000 2.624
72.62000 0.736
72.64000 3.600
72.66000 4.083
72.68000 -0.989
72.70000 -0.707
72.72000 1.160
72.74000 1.021
72.76000 2.929
72.78000 0.258
72.80000 -1.536
72.82000 0.180
72.84000 -0.561
72.86000 -2.300
72.88000 -0.530
72.90000 0.333
72.92000 2.486
72.94000 3.068
72.96000 -1.661
72.98000 -1.650
73.00000 -1.454
73.02000 -1.170
73.04000 -0.610
73.06000 -1.097
73.08000 1.631
73.10000 4.145
73.12000 4.273
73.14000 4.391
73.16000 1.692
73.18000 4.232
73.20000 6.399
73.22000 1.417
73.24000 2.622
73.26000 4.125
73.28000 2.924
73.30000 2.209
73.32000 3.741
73.34000 3.023
73.36000 3.794
73.38000 -0.957
73.40000 -0.822
73.42000 3.189
73.44000 3.784
73.46000 2.482
73.48000 1.489
73.50000 2.702
73.52000 3.668
73.54000 4.504
73.56000 2.692
73.58000 0.594
73.60000 0.340
73.62000 -2.267
73.64000 1.884
73.66000 2.513
73.68000 0.739
73.70000 2.844
73.72000 1.862
73.74000 1.602
73.76000 3.087
73.78000 6.938
73.80000 3.640
73.82000 2.179
73.84000 1.150
73.86000 5.397
73.88000 1.038
73.90000 4.028
73.92000 2.695
73.94000 1.095
73.96000 4.337
73.98000 5.056
74.00000 3.870
74.02000 1.840
74.04000 0.037
74.06000 1.070
74.08000 -0.138
74.10000 2.248
74.12000 6.143
74.14000 5.517
74.16000 6.012
74.18000 4.498
74.20000 -0.572
74.22000 -2.235
74.24000 1.696
74.26000 3.155
74.28000 5.162
74.30000 4.372
74.32000 2.945
74.34000 0.121
74.36000 1.735
74.38000 4.115
74.40000 3.151
74.42000 3.970
74.44000 4.756
74.46000 1.883
74.48000 -1.493
74.50000 0.888
74.52000 2.429
74.54000 5.505
74.56000 0.657
74.58000 7.440
74.60000 5.607
74.62000 -0.583
74.64000 1.491
74.66000 2.706
74.68000 3.506
74.70000 6.321
74.72000 4.216
74.74000 5.048
74.76000 6.498
74.78000 2.419
74.80000 5.783
74.82000 5.365
74.84000 1.644
74.86000 -0.152
74.88000 1.074
74.90000 2.307
74.92000 2.617
74.94000 5.558
74.96000 4.645
74.98000 5.819
75.00000 6.122
75.02000 5.738
75.04000 6.058
75.06000 3.048
75.08000 6.006
75.10000 3.528
75.12000 1.416
75.14000 4.350
75.16000 4.173
75.18000 3.177
75.20000 2.048
75.22000 2.239
75.24000 4.485
75.26000 4.834
75.28000 1.940
75.30000 3.508
75.32000 4.913
75.34000 4.227
75.36000 2.695
75.38000 0.783
75.40000 -2.251
75.42000 -1.371
75.44000 -1.943
75.46000 2.094
75.48000 3.932
75.50000 1.460
75.52000 2.622
75.54000 2.484
75.56000 6.350
75.58000 7.142
75.60000 4.224
75.62000 2.603
75.64000 3.533
75.66000 4.306
75.68000 5.817
75.70000 4.287
75.72000 1.634
75.74000 -0.130
75.76000 0.584
75.78000 4.430
75.80000 5.836
75.82000 1.348
75.84000 0.147
75.86000 4.495
75.88000 9.579
75.90000 8.258
75.92000 2.638
75.94000 0.043
75.96000 -0.517
75.98000 -2.270
76.00000 -0.210
76.02000 3.955
76.04000 4.348
76.06000 5.693
76.08000 3.062
76.10000 1.392
76.12000 -1.311
76.14000 -0.868
76.16000 0.524
76.18000 -0.574
76.20000 2.958
76.22000 -0.161
76.24000 3.351
76.26000 3.166
76.28000 3.299
76.30000 5.228
76.32000 1.724
76.34000 -1.604
76.36000 -0.617
76.38000 0.964
76.40000 3.603
76.42000 -0.611
76.44000 1.155
76.46000 5.512
76.48000 4.893
76.50000 0.864
76.52000 3.490
76.54000 7.913
76.56000 5.202
76.58000 3.860
76.60000 1.168
76.62000 0.095
76.64000 -2.280
76.66000 2.966
76.68000 1.867
76.70000 3.604
76.72000 -1.290
76.74000 0.636
76.76000 2.154
76.78000 6.774
76.80000 3.877
76.82000 2.725
76.84000 3.903
76.86000 4.105
76.88000 2.889
76.90000 0.422
76.92000 1.450
76.94000 3.220
76.96000 0.058
76.98000 4.886
77.00000 4.754
77.02000 1.631
77.04000 4.652
77.06000 4.338
77.08000 6.161
77.10000 4.861
77.12000 2.654
77.14000 5.703
77.16000 7.933
77.18000 6.686
77.20000 3.383
77.22000 -0.726
77.24000 -0.455
77.26000 4.351
77.28000 0.804
77.30000 2.238
77.32000 3.010
77.34000 3.778
77.36000 0.828
77.38000 -1.258
77.40000 0.121
77.42000 5.067
77.44000 2.674
77.46000 -1.122
77.48000 4.384
77.50000 0.847
77.52000 1.953
77.54000 3.380
77.56000 1.798
77.58000 4.404
77.60000 1.626
77.62000 1.723
77.64000 3.001
77.66000 2.242
77.68000 1.877
77.70000 4.503
77.72000 5.073
77.74000 0.536
77.76000 2.479
77.78000 2.752
77.80000 2.710
77.82000 3.330
77.84000 -2.298
77.86000 -1.644
77.88000 5.024
77.90000 4.241
77.92000 1.423
77.94000 3.728
77.96000 5.236
77.98000 4.501
78.00000 0.429
78.02000 -0.347
78.04000 0.225
78.06000 2.631
78.08000 2.577
78.10000 2.664
78.12000 1.810
78.14000 2.239
78.16000 8.169
78.18000 5.058
78.20000 0.147
78.22000 -1.086
78.24000 1.675
78.26000 2.996
78.28000 2.622
78.30000 -1.983
78.32000 1.419
78.34000 2.919
78.36000 -0.044
78.38000 -0.311
78.40000 0.915
78.42000 3.267
78.44000 1.030
78.46000 1.165
78.48000 1.265
78.50000 5.123
78.52000 10.418
78.54000 8.679
78.56000 2.822
78.58000 5.783
78.60000 2.499
78.62000 0.769
78.64000 2.200
78.66000 2.859
78.68000 3.819
78.70000 1.655
78.72000 3.382
78.74000 1.681
78.76000 0.351
78.78000 3.120
78.80000 2.804
78.82000 0.495
78.84000 3.221
78.86000 2.990
78.88000 5.173
78.90000 1.114
78.92000 3.799
78.94000 1.904
78.96000 0.675
78.98000 3.509
79.00000 2.473
79.02000 3.198
79.04000 4.493
79.06000 1.828
79.08000 0.270
79.10000 -2.276
79.12000 -1.852
79.14000 0.112
79.16000 2.233
79.18000 -0.550
79.20000 -1.264
79.22000 3.915
79.24000 4.500
79.26000 2.019
79.28000 0.542
79.30000 1.613
79.32000 3.113
79.34000 2.017
79.36000 -2.341
79.38000 3.378
79.40000 5.664
79.42000 0.208
79.44000 1.143
79.46000 0.248
79.48000 -2.010
79.50000 2.373
79.52000 5.029
79.54000 4.810
79.56000 2.741
79.58000 4.356
79.60000 3.229
79.62000 4.344
79.64000 3.868
79.66000 2.750
79.68000 4.121
79.70000 10.089
79.72000 8.020
79.74000 2.379
79.76000 4.047
79.78000 3.522
79.80000 -0.913
79.82000 -1.850
79.84000 -0.971
79.86000 0.731
79.88000 1.584
79.90000 0.608
79.92000 0.859
79.94000 3.081
79.96000 -1.970
79.98000 -0.133
80.00000 1.320
80.02000 0.875
80.04000 3.665
80.06000 3.393
80.08000 2.166
80.10000 -0.699
80.12000 4.068
80.14000 3.935
80.16000 2.550
80.18000 1.969
80.20000 6.975
80.22000 3.426
80.24000 -2.401
80.26000 -2.403
80.28000 5.315
80.30000 6.021
80.32000 7.619
80.34000 2.257
80.36000 3.305
80.38000 6.271
80.40000 5.639
80.42000 11.927
80.44000 10.185
80.46000 7.964
80.48000 3.887
80.50000 5.323
80.52000 2.353
80.54000 3.840
80.56000 5.425
80.58000 7.911
80.60000 6.586
80.62000 5.739
80.64000 8.145
80.66000 6.914
80.68000 4.941
80.70000 5.868
80.72000 7.512
80.74000 9.300
80.76000 7.925
80.78000 4.876
80.80000 3.546
80.82000 5.651
80.84000 13.112
80.86000 7.715
80.88000 5.689
80.90000 5.702
80.92000 6.815
80.94000 10.489
80.96000 9.670
80.98000 6.547
81.00000 7.933
81.02000 13.759
81.04000 16.291
81.06000 12.278
81.08000 11.782
81.10000 8.582
81.12000 5.738
81.14000 8.007
81.16000 8.153
81.18000 8.989
81.20000 11.037
81.22000 10.522
81.24000 13.494
81.26000 13.993
81.28000 9.005
81.30000 10.624
81.32000 12.303
81.34000 16.562
81.36000 12.983
81.38000 18.633
81.40000 10.278
81.42000 13.491
81.44000 14.773
81.46000 13.364
81.48000 12.919
81.50000 18.346
81.52000 16.750
81.54000 17.423
81.56000 19.816
81.58000 17.424
81.60000 16.874
81.62000 14.723
81.64000 12.774
81.66000 13.707
81.68000 17.528
81.70000 15.501
81.72000 19.536
81.74000 17.933
81.76000 18.433
81.78000 23.345
81.80000 23.304
81.82000 25.125
81.84000 21.861
81.86000 18.320
81.88000 24.367
81.90000 21.971
81.92000 24.810
81.94000 27.099
81.96000 21.475
81.98000 23.780
82.00000 24.896
82.02000 29.956
82.04000 29.779
82.06000 29.523
82.08000 24.504
82.10000 24.869
82.12000 29.310
82.14000 31.278
82.16000 31.470
82.18000 32.936
82.20000 30.918
82.22000 29.520
82.24000 24.179
82.26000 27.015
82.28000 28.897
82.30000 27.142
82.32000 28.711
82.34000 28.608
82.36000 31.332
82.38000 28.859
82.40000 30.734
82.42000 28.546
82.44000 25.419
82.46000 27.925
82.48000 27.481
82.50000 29.802
82.52000 32.145
82.54000 29.469
82.56000 28.766
82.58000 28.283
82.60000 28.579
82.62000 25.498
82.64000 26.151
82.66000 27.692
82.68000 26.123
82.70000 22.297
82.72000 20.413
82.74000 19.115
82.76000 21.935
82.78000 26.144
82.80000 22.470
82.82000 24.925
82.84000 25.036
82.86000 19.847
82.88000 16.341
82.90000 15.653
82.92000 18.958
82.94000 18.808
82.96000 18.424
82.98000 17.346
83.00000 17.655
83.02000 14.820
83.04000 18.531
83.06000 19.986
83.08000 17.126
83.10000 10.613
83.12000 15.503
83.14000 18.702
83.16000 12.158
83.18000 10.407
83.20000 10.246
83.22000 10.287
83.24000 8.119
83.26000 9.783
83.28000 13.419
83.30000 13.564
83.32000 12.066
83.34000 10.701
83.36000 9.728
83.38000 6.351
83.40000 9.000
83.42000 5.911
83.44000 5.678
83.46000 5.951
83.48000 5.365
83.50000 7.219
83.52000 10.125
83.54000 9.946
83.56000 8.713
83.58000 7.213
83.60000 4.792
83.62000 4.666
83.64000 2.586
83.66000 2.368
83.68000 3.014
83.70000 3.881
83.72000 6.889
83.74000 3.736
83.76000 3.473
83.78000 5.784
83.80000 6.392
83.82000 0.698
83.84000 -0.647
83.86000 0.729
83.88000 2.046
83.90000 0.769
83.92000 -1.426
83.94000 -2.458
83.96000 0.006
83.98000 2.869
84.00000 -1.641
84.02000 -0.079
84.04000 -0.460
84.06000 1.744
84.08000 2.003
84.10000 3.685
84.12000 2.460
84.14000 6.618
84.16000 6.085
84.18000 5.158
84.20000 1.696
84.22000 3.434
84.24000 2.403
84.26000 3.316
84.28000 4.759
84.30000 1.768
84.32000 2.574
84.34000 -0.913
84.36000 -0.524
84.38000 2.493
84.40000 6.240
84.42000 3.758
84.44000 2.208
84.46000 1.232
84.48000 0.668
84.50000 0.095
84.52000 -0.450
84.54000 -0.678
84.56000 3.798
84.58000 5.061
84.60000 2.198
84.62000 4.307
84.64000 4.196
84.66000 2.151
84.68000 3.707
84.70000 3.683
84.72000 5.557
84.74000 6.194
84.76000 4.022
84.78000 3.184
84.80000 9.665
84.82000 6.345
84.84000 1.330
84.86000 2.840
84.88000 7.118
84.90000 10.327
84.92000 4.942
84.94000 -2.322
84.96000 2.565
84.98000 5.002
85.00000 0.727
85.02000 -2.186
85.04000 -1.268
85.06000 4.231
85.08000 2.680
85.10000 2.307
85.12000 4.419
85.14000 3.036
85.16000 4.759
85.18000 8.994
85.20000 5.039
85.22000 0.750
85.24000 2.210
85.26000 3.953
85.28000 5.065
85.30000 4.219
85.32000 7.229
85.34000 2.522
85.36000 0.047
85.38000 2.359
85.40000 5.759
85.42000 4.947
85.44000 8.015
85.46000 8.714
85.48000 7.862
85.50000 4.807
85.52000 4.718
85.54000 5.247
85.56000 7.277
85.58000 8.870
85.60000 10.679
85.62000 10.331
85.64000 7.630
85.66000 5.757
85.68000 5.803
85.70000 8.779
85.72000 11.697
85.74000 10.393
85.76000 9.983
85.78000 7.183
85.80000 1.422
85.82000 10.322
85.84000 11.530
85.86000 8.603
85.88000 4.369
85.90000 6.492
85.92000 11.284
85.94000 14.452
85.96000 11.039
85.98000 11.847
86.00000 16.341
86.02000 14.735
86.04000 6.805
86.06000 4.644
86.08000 12.401
86.10000 14.623
86.12000 16.546
86.14000 15.877
86.16000 18.597
86.18000 18.945
86.20000 15.747
86.22000 22.241
86.24000 19.045
86.26000 17.250
86.28000 16.777
86.30000 16.644
86.32000 15.442
86.34000 14.952
86.36000 15.835
86.38000 23.124
86.40000 21.082
86.42000 21.570
86.44000 22.683
86.46000 24.760
86.48000 27.227
86.50000 22.142
86.52000 14.768
86.54000 12.267
86.56000 15.049
86.58000 16.087
86.60000 18.787
86.62000 18.861
86.64000 18.781
86.66000 16.436
86.68000 15.794
86.70000 17.261
86.72000 20.510
86.74000 18.852
86.76000 14.364
86.78000 15.447
86.80000 19.755
86.82000 21.994
86.84000 16.303
86.86000 15.358
86.88000 15.147
86.90000 16.871
86.92000 18.470
86.94000 15.611
86.96000 16.615
86.98000 15.744
87.00000 14.998
87.02000 12.781
87.04000 15.497
87.06000 15.777
87.08000 11.472
87.10000 9.869
87.12000 10.607
87.14000 10.821
87.16000 9.979
87.18000 7.692
87.20000 7.626
87.22000 5.806
87.24000 5.835
87.26000 5.744
87.28000 9.213
87.30000 14.314
87.32000 6.037
87.34000 3.483
87.36000 1.812
87.38000 4.203
87.40000 5.685
87.42000 3.612
87.44000 4.150
87.46000 0.095
87.48000 -0.364
87.50000 4.506
87.52000 5.436
87.54000 3.053
87.56000 4.060
87.58000 -0.708
87.60000 0.885
87.62000 4.569
87.64000 7.684
87.66000 6.271
87.68000 0.077
87.70000 -1.453
87.72000 -1.678
87.74000 2.573
87.76000 5.854
87.78000 1.986
87.80000 2.361
87.82000 0.259
87.84000 -1.558
87.86000 -1.333
87.88000 1.314
87.90000 -0.774
87.92000 -2.300
87.94000 3.268
87.96000 2.659
87.98000 2.366
88.00000 3.011
88.02000 -0.103
88.04000 1.918
88.06000 6.868
88.08000 5.063
88.10000 2.154
88.12000 -2.275
88.14000 -0.408
88.16000 2.183
88.18000 1.947
88.20000 3.211
88.22000 1.221
88.24000 -0.542
88.26000 1.762
88.28000 -0.609
88.30000 -0.454
88.32000 -1.500
88.34000 -0.329
88.36000 1.585
88.38000 1.047
88.40000 -1.412
88.42000 -1.626
88.44000 -1.415
88.46000 4.181
88.48000 6.620
88.50000 5.998
88.52000 4.346
88.54000 -0.564
88.56000 -0.243
88.58000 -0.240
88.60000 -0.421
88.62000 -1.023
88.64000 -1.650
88.66000 2.461
88.68000 -2.217
88.70000 1.481
88.72000 3.773
88.74000 1.985
88.76000 4.327
88.78000 2.464
88.80000 1.619
88.82000 1.875
88.84000 3.139
88.86000 3.425
88.88000 4.268
88.90000 1.225
88.92000 1.170
88.94000 -2.186
88.96000 0.545
88.98000 4.340
89.00000 2.965
89.02000 -0.794
89.04000 0.757
89.06000 4.500
89.08000 4.424
89.10000 3.850
89.12000 3.945
89.14000 0.455
89.16000 1.313
89.18000 4.613
89.20000 2.037
89.22000 2.480
89.24000 0.860
89.26000 3.002
89.28000 4.315
89.30000 3.983
89.32000 1.757
89.34000 4.932
89.36000 3.089
89.38000 1.455
89.40000 2.408
89.42000 2.010
89.44000 2.521
89.46000 2.077
89.48000 2.071
89.50000 0.770
89.52000 1.843
89.54000 -2.149
89.56000 -2.149
89.58000 1.666
89.60000 3.967
89.62000 3.782
89.64000 -0.447
89.66000 -1.052
89.68000 4.143
89.70000 2.218
89.72000 -1.358
89.74000 -0.147
89.76000 1.668
89.78000 5.539
89.80000 2.099
89.82000 3.682
89.84000 2.026
89.86000 1.695
89.88000 4.944
89.90000 7.566
89.92000 6.120
89.94000 3.939
89.96000 2.435
89.98000 3.587
90.00000 5.686
90.02000 5.168
90.04000 3.622
90.06000 3.216
90.08000 4.630
90.10000 2.912
90.12000 -2.132
90.14000 1.333
90.16000 4.444
90.18000 3.765
90.20000 -0.177
90.22000 2.718
90.24000 2.085
90.26000 3.578
90.28000 3.427
90.30000 -0.426
90.32000 -0.966
90.34000 0.721
90.36000 6.621
90.38000 3.930
90.40000 2.885
90.42000 3.304
90.44000 0.164
90.46000 2.083
90.48000 5.338
90.50000 0.729
90.52000 5.679
90.54000 5.626
90.56000 5.321
90.58000 3.519
90.60000 0.431
90.62000 0.807
90.64000 2.997
90.66000 4.115
90.68000 3.177
90.70000 3.624
90.72000 5.212
90.74000 4.125
90.76000 2.158
90.78000 1.706
90.80000 -0.398
90.82000 1.730
90.84000 4.173
90.86000 0.716
90.88000 3.825
90.90000 6.372
90.92000 3.187
90.94000 -2.094
90.96000 2.729
90.98000 3.471
91.00000 -0.149
91.02000 0.754
91.04000 4.159
91.06000 5.150
91.08000 7.112
91.10000 4.995
91.12000 3.720
91.14000 6.925
91.16000 8.318
91.18000 2.960
91.20000 -1.434
91.22000 4.703
91.24000 4.665
91.26000 1.832
91.28000 4.397
91.30000 4.769
91.32000 4.221
91.34000 4.470
91.36000 3.145
91.38000 2.034
91.40000 3.935
91.42000 3.686
91.44000 2.932
91.46000 -1.998
91.48000 0.661
91.50000 2.972
91.52000 9.695
91.54000 12.338
91.56000 4.688
91.58000 2.171
91.60000 2.475
91.62000 1.363
91.64000 0.108
91.66000 4.227
91.68000 4.963
91.70000 4.286
91.72000 7.562
91.74000 3.711
91.76000 2.904
91.78000 4.125
91.80000 3.448
91.82000 4.512
91.84000 3.419
91.86000 4.202
91.88000 2.987
91.90000 4.374
91.92000 3.075
91.94000 0.176
91.96000 0.941
91.98000 5.554
92.00000 5.134
92.02000 5.365
92.04000 0.164
92.06000 -2.129
92.08000 2.186
92.10000 2.414
92.12000 1.050
92.14000 1.713
92.16000 4.816
92.18000 1.081
92.20000 4.417
92.22000 7.339
92.24000 2.164
92.26000 -0.739
92.28000 1.440
92.30000 4.596
92.32000 7.378
92.34000 6.238
92.36000 2.119
92.38000 2.063
92.40000 0.192
92.42000 -1.642
92.44000 2.398
92.46000 2.352
92.48000 2.413
92.50000 2.906
92.52000 2.535
92.54000 0.359
92.56000 1.167
92.58000 0.312
92.60000 3.396
92.62000 7.191
92.64000 2.847
92.66000 4.657
92.68000 1.807
92.70000 5.856
92.72000 3.217
92.74000 -0.145
92.76000 5.245
92.78000 3.052
92.80000 0.759
92.82000 -0.503
92.84000 5.679
92.86000 2.960
92.88000 -0.951
92.90000 1.383
92.92000 2.843
92.94000 8.207
92.96000 5.022
92.98000 -2.122
93.00000 -0.951
93.02000 1.452
93.04000 4.176
93.06000 -0.753
93.08000 -2.153
93.10000 1.316
93.12000 1.198
93.14000 6.538
93.16000 7.320
93.18000 2.529
93.20000 -0.350
93.22000 1.725
93.24000 2.159
93.26000 1.690
93.28000 3.399
93.30000 0.969
93.32000 -1.582
93.34000 0.016
93.36000 2.312
93.38000 -0.768
93.40000 3.643
93.42000 3.955
93.44000 3.831
93.46000 3.343
93.48000 0.619
93.50000 2.466
93.52000 0.912
93.54000 4.658
93.56000 2.468
93.58000 6.369
93.60000 4.041
93.62000 0.090
93.64000 0.224
93.66000 -1.635
93.68000 0.758
93.70000 1.991
93.72000 3.925
93.74000 1.832
93.76000 2.035
93.78000 4.061
93.80000 8.475
93.82000 10.031
93.84000 5.328
93.86000 1.159
93.88000 -0.344
93.90000 4.603
93.92000 1.397
93.94000 1.823
93.96000 4.299
93.98000 4.943
94.00000 4.605
94.02000 2.729
94.04000 0.688
94.06000 3.623
94.08000 2.490
94.10000 3.656
94.12000 5.881
94.14000 2.059
94.16000 -0.159
94.18000 3.316
94.20000 5.030
94.22000 5.767
94.24000 9.254
94.26000 6.870
94.28000 4.107
94.30000 -0.413
94.32000 1.690
94.34000 8.490
94.36000 6.024
94.38000 11.569
94.40000 5.286
94.42000 1.909
94.44000 -2.126
94.46000 -0.376
94.48000 1.132
94.50000 5.527
94.52000 8.362
94.54000 1.155
94.56000 -0.242
94.58000 -2.119
94.60000 4.432
94.62000 3.619
94.64000 3.713
94.66000 5.502
94.68000 6.048
94.70000 2.443
94.72000 3.766
94.74000 5.493
94.76000 11.856
94.78000 7.825
94.80000 3.617
94.82000 5.423
94.84000 7.756
94.86000 7.199
94.88000 10.426
94.90000 9.064
94.92000 2.028
94.94000 0.762
94.96000 4.396
94.98000 8.928
95.00000 8.108
95.02000 4.326
95.04000 7.553
95.06000 8.361
95.08000 4.758
95.10000 4.687
95.12000 5.602
95.14000 7.563
95.16000 5.492
95.18000 5.595
95.20000 6.011
95.22000 8.502
95.24000 8.026
95.26000 11.683
95.28000 9.702
95.30000 2.733
95.32000 -2.099
95.34000 3.652
95.36000 7.395
95.38000 4.792
95.40000 5.208
95.42000 6.235
95.44000 7.844
95.46000 6.195
95.48000 7.062
95.50000 11.517
95.52000 8.844
95.54000 6.550
95.56000 7.002
95.58000 1.966
95.60000 0.231
95.62000 -1.185
95.64000 4.648
95.66000 1.779
95.68000 2.795
95.70000 1.933
95.72000 9.224
95.74000 8.183
95.76000 5.178
95.78000 3.597
95.80000 5.308
95.82000 6.947
95.84000 6.503
95.86000 8.932
95.88000 8.262
95.90000 5.619
95.92000 1.644
95.94000 5.003
95.96000 5.704
95.98000 10.068
96.00000 7.234
96.02000 4.678
96.04000 5.615
96.06000 3.012
96.08000 0.631
96.10000 5.804
96.12000 7.367
96.14000 4.303
96.16000 7.346
96.18000 13.020
96.20000 11.084
96.22000 -0.418
96.24000 3.670
96.26000 3.370
96.28000 -2.125
96.30000 4.128
96.32000 3.917
96.34000 4.470
96.36000 5.917
96.38000 2.026
96.40000 3.975
96.42000 9.142
96.44000 7.695
96.46000 12.027
96.48000 7.349
96.50000 9.586
96.52000 4.644
96.54000 2.166
96.56000 1.758
96.58000 4.305
96.60000 7.075
96.62000 4.328
96.64000 3.923
96.66000 5.935
96.68000 6.918
96.70000 9.224
96.72000 8.517
96.74000 4.917
96.76000 2.374
96.78000 5.391
96.80000 1.163
96.82000 2.899
96.84000 1.160
96.86000 0.451
96.88000 2.082
96.90000 3.711
96.92000 5.311
96.94000 3.667
96.96000 2.645
96.98000 6.333
97.00000 9.960
97.02000 11.448
97.04000 7.884
97.06000 6.750
97.08000 5.580
97.10000 6.399
97.12000 1.760
97.14000 4.133
97.16000 5.523
97.18000 6.641
97.20000 8.220
97.22000 6.150
97.24000 5.985
97.26000 6.895
97.28000 6.317
97.30000 3.600
97.32000 6.088
97.34000 2.532
97.36000 4.296
97.38000 4.247
97.40000 2.808
97.42000 4.051
97.44000 1.291
97.46000 1.937
97.48000 3.512
97.50000 6.506
97.52000 9.243
97.54000 12.373
97.56000 6.767
97.58000 2.984
97.60000 7.592
97.62000 7.115
97.64000 1.790
97.66000 4.513
97.68000 6.832
97.70000 7.744
97.72000 2.759
97.74000 0.780
97.76000 7.248
97.78000 1.982
97.80000 -0.945
97.82000 7.255
97.84000 2.198
97.86000 0.785
97.88000 -0.205
97.90000 2.427
97.92000 -0.123
97.94000 3.892
97.96000 7.467
97.98000 9.019
98.00000 10.902
98.02000 3.718
98.04000 7.132
98.06000 8.660
98.08000 8.366
98.10000 2.000
98.12000 5.473
98.14000 6.983
98.16000 5.396
98.18000 4.714
98.20000 7.279
98.22000 7.940
98.24000 2.005
98.26000 2.363
98.28000 5.223
98.30000 7.997
98.32000 14.988
98.34000 16.841
98.36000 11.788
98.38000 11.167
98.40000 3.452
98.42000 -0.071
98.44000 0.905
98.46000 7.860
98.48000 5.474
98.50000 14.162
98.52000 8.908
98.54000 -2.045
98.56000 -0.115
98.58000 4.495
98.60000 2.391
98.62000 3.653
98.64000 11.760
98.66000 12.762
98.68000 5.420
98.70000 0.944
98.72000 0.595
98.74000 3.717
98.76000 3.910
98.78000 3.196
98.80000 -2.643
98.82000 7.430
98.84000 7.021
98.86000 2.434
98.88000 1.053
98.90000 2.832
98.92000 3.879
98.94000 4.573
98.96000 9.134
98.98000 7.869
99.00000 3.690
99.02000 2.461
99.04000 8.696
99.06000 6.624
99.08000 8.248
99.10000 6.196
99.12000 2.268
99.14000 4.296
99.16000 6.364
99.18000 4.055
99.20000 2.822
99.22000 3.909
99.24000 5.547
99.26000 4.637
99.28000 4.419
99.30000 10.604
99.32000 14.089
99.34000 9.176
99.36000 5.549
99.38000 1.693
99.40000 1.745
99.42000 7.303
99.44000 5.327
99.46000 17.636
99.48000 5.807
99.50000 2.391
99.52000 2.573
99.54000 8.008
99.56000 5.861
99.58000 -0.201
99.60000 3.830
99.62000 -2.151
99.64000 3.718
99.66000 8.456
99.68000 9.292
99.70000 1.362
99.72000 4.179
99.74000 3.389
99.76000 0.825
99.78000 4.548
99.80000 6.823
99.82000 10.497
99.84000 5.089
99.86000 -2.212
99.88000 -0.097
99.90000 3.886
99.92000 -0.061
99.94000 -2.322
99.96000 3.640
99.98000 0.000
