'Id: "0011387" Comment: "Integrate frame 0011387_Au-Ir-Rh_Rh-rich_XRD-Mapping-145-0000.gfrmwith cursor Wedge Cursor #5" Operator: "B?rgel" Anode: "Cu" Wavelength: "1.5406" Scantype: "2Theta (TwoTheta)" TimePerStep: "1" X: "-4.5" Y: "-4.5" Z: "5.95" 
10.00000 0.000
10.02000 -4.279
10.04000 -3.777
10.06000 -4.204
10.08000 -4.166
10.10000 11.934
10.12000 19.568
10.14000 22.141
10.16000 18.384
10.18000 1.790
10.20000 -4.169
10.22000 10.481
10.24000 23.343
10.26000 9.285
10.28000 16.984
10.30000 17.293
10.32000 9.099
10.34000 7.877
10.36000 14.375
10.38000 22.893
10.40000 6.756
10.42000 8.658
10.44000 12.110
10.46000 5.652
10.48000 18.258
10.50000 11.007
10.52000 5.098
10.54000 10.179
10.56000 13.002
10.58000 9.398
10.60000 6.677
10.62000 10.358
10.64000 2.289
10.66000 11.654
10.68000 4.806
10.70000 1.263
10.72000 3.368
10.74000 6.390
10.76000 16.473
10.78000 23.657
10.80000 12.652
10.82000 15.921
10.84000 3.923
10.86000 6.756
10.88000 5.379
10.90000 18.061
10.92000 8.737
10.94000 3.965
10.96000 11.226
10.98000 10.836
11.00000 -2.133
11.02000 -3.965
11.04000 -3.894
11.06000 8.158
11.08000 16.416
11.10000 13.547
11.12000 -1.989
11.14000 -4.274
11.16000 2.295
11.18000 11.626
11.20000 9.252
11.22000 3.567
11.24000 4.346
11.26000 14.176
11.28000 11.730
11.30000 7.164
11.32000 4.175
11.34000 13.712
11.36000 14.895
11.38000 16.058
11.40000 27.105
11.42000 20.248
11.44000 2.261
11.46000 -0.763
11.48000 5.072
11.50000 9.631
11.52000 7.770
11.54000 14.529
11.56000 18.981
11.58000 23.605
11.60000 17.437
11.62000 2.576
11.64000 12.696
11.66000 20.946
11.68000 16.492
11.70000 9.536
11.72000 17.377
11.74000 14.269
11.76000 13.686
11.78000 7.036
11.80000 3.952
11.82000 0.481
11.84000 -0.268
11.86000 10.818
11.88000 13.627
11.90000 23.511
11.92000 13.337
11.94000 5.437
11.96000 -5.110
11.98000 15.850
12.00000 20.071
12.02000 10.123
12.04000 7.663
12.06000 12.649
12.08000 14.789
12.10000 19.075
12.12000 10.108
12.14000 10.860
12.16000 8.711
12.18000 9.440
12.20000 16.780
12.22000 13.430
12.24000 12.754
12.26000 14.559
12.28000 5.606
12.30000 9.211
12.32000 6.358
12.34000 10.861
12.36000 15.116
12.38000 20.175
12.40000 9.201
12.42000 10.854
12.44000 21.524
12.46000 15.003
12.48000 18.688
12.50000 16.944
12.52000 19.370
12.54000 26.655
12.56000 21.362
12.58000 22.984
12.60000 11.290
12.62000 17.522
12.64000 19.185
12.66000 9.112
12.68000 5.013
12.70000 10.938
12.72000 8.835
12.74000 6.044
12.76000 6.101
12.78000 12.727
12.80000 10.326
12.82000 14.365
12.84000 16.282
12.86000 15.337
12.88000 7.384
12.90000 11.434
12.92000 13.012
12.94000 -0.398
12.96000 5.599
12.98000 17.861
13.00000 22.368
13.02000 10.056
13.04000 17.108
13.06000 23.859
13.08000 9.340
13.10000 14.368
13.12000 14.871
13.14000 11.082
13.16000 7.443
13.18000 11.173
13.20000 15.474
13.22000 14.842
13.24000 10.101
13.26000 6.142
13.28000 8.442
13.30000 20.490
13.32000 14.608
13.34000 12.890
13.36000 10.697
13.38000 11.546
13.40000 7.638
13.42000 3.570
13.44000 3.354
13.46000 2.059
13.48000 3.017
13.50000 10.418
13.52000 6.434
13.54000 1.986
13.56000 -3.064
13.58000 6.818
13.60000 10.453
13.62000 12.550
13.64000 15.767
13.66000 7.785
13.68000 11.107
13.70000 19.120
13.72000 17.607
13.74000 13.469
13.76000 12.796
13.78000 14.126
13.80000 13.102
13.82000 8.090
13.84000 5.662
13.86000 11.789
13.88000 14.088
13.90000 9.442
13.92000 6.040
13.94000 10.711
13.96000 1.313
13.98000 -1.246
14.00000 3.158
14.02000 -0.642
14.04000 1.102
14.06000 10.438
14.08000 8.714
14.10000 0.922
14.12000 6.406
14.14000 18.154
14.16000 6.604
14.18000 -4.456
14.20000 2.457
14.22000 11.433
14.24000 11.482
14.26000 8.143
14.28000 5.637
14.30000 12.621
14.32000 12.518
14.34000 10.219
14.36000 11.767
14.38000 9.522
14.40000 9.301
14.42000 6.814
14.44000 9.516
14.46000 14.238
14.48000 2.965
14.50000 -0.039
14.52000 7.679
14.54000 10.220
14.56000 6.614
14.58000 7.851
14.60000 10.356
14.62000 3.991
14.64000 -1.042
14.66000 7.044
14.68000 13.201
14.70000 7.394
14.72000 1.745
14.74000 -0.012
14.76000 0.715
14.78000 -2.609
14.80000 2.812
14.82000 9.117
14.84000 4.168
14.86000 -1.348
14.88000 6.466
14.90000 12.104
14.92000 12.728
14.94000 13.066
14.96000 8.274
14.98000 8.150
15.00000 9.578
15.02000 1.408
15.04000 9.763
15.06000 4.705
15.08000 10.421
15.10000 3.567
15.12000 9.235
15.14000 15.164
15.16000 12.162
15.18000 11.140
15.20000 -0.407
15.22000 2.253
15.24000 16.508
15.26000 14.146
15.28000 13.666
15.30000 14.383
15.32000 9.785
15.34000 0.436
15.36000 3.931
15.38000 16.479
15.40000 13.417
15.42000 4.548
15.44000 8.850
15.46000 2.613
15.48000 4.260
15.50000 10.446
15.52000 0.135
15.54000 -4.419
15.56000 2.966
15.58000 3.865
15.60000 15.649
15.62000 12.563
15.64000 15.397
15.66000 14.288
15.68000 12.949
15.70000 6.997
15.72000 0.298
15.74000 4.106
15.76000 4.833
15.78000 7.809
15.80000 5.177
15.82000 -1.904
15.84000 -0.637
15.86000 12.881
15.88000 9.727
15.90000 7.851
15.92000 2.699
15.94000 13.573
15.96000 10.059
15.98000 9.388
16.00000 5.353
16.02000 7.082
16.04000 0.950
16.06000 11.855
16.08000 7.594
16.10000 5.043
16.12000 5.441
16.14000 6.443
16.16000 8.405
16.18000 8.278
16.20000 7.004
16.22000 0.914
16.24000 4.513
16.26000 8.784
16.28000 6.436
16.30000 15.622
16.32000 15.045
16.34000 8.338
16.36000 1.912
16.38000 -3.071
16.40000 2.823
16.42000 3.473
16.44000 6.841
16.46000 8.390
16.48000 6.206
16.50000 3.709
16.52000 5.974
16.54000 10.181
16.56000 2.952
16.58000 2.529
16.60000 7.909
16.62000 4.236
16.64000 6.452
16.66000 5.276
16.68000 -2.109
16.70000 2.814
16.72000 10.756
16.74000 11.643
16.76000 13.064
16.78000 8.408
16.80000 11.525
16.82000 10.662
16.84000 11.872
16.86000 7.210
16.88000 7.423
16.90000 4.207
16.92000 8.156
16.94000 0.517
16.96000 2.811
16.98000 4.224
17.00000 -0.336
17.02000 -1.933
17.04000 2.844
17.06000 -2.895
17.08000 -4.383
17.10000 -0.667
17.12000 1.474
17.14000 -0.495
17.16000 5.936
17.18000 14.812
17.20000 9.470
17.22000 5.206
17.24000 10.531
17.26000 8.414
17.28000 4.145
17.30000 2.543
17.32000 2.116
17.34000 11.254
17.36000 10.686
17.38000 7.160
17.40000 11.132
17.42000 10.389
17.44000 3.469
17.46000 5.029
17.48000 13.700
17.50000 9.618
17.52000 4.676
17.54000 1.237
17.56000 3.569
17.58000 10.835
17.60000 4.349
17.62000 -4.349
17.64000 2.819
17.66000 5.739
17.68000 8.366
17.70000 2.613
17.72000 8.111
17.74000 10.821
17.76000 3.429
17.78000 -4.337
17.80000 0.435
17.82000 12.096
17.84000 13.468
17.86000 8.197
17.88000 3.602
17.90000 2.360
17.92000 -0.351
17.94000 -1.963
17.96000 -1.444
17.98000 4.946
18.00000 10.492
18.02000 3.891
18.04000 9.553
18.06000 10.035
18.08000 6.628
18.10000 7.703
18.12000 14.168
18.14000 10.832
18.16000 6.898
18.18000 10.718
18.20000 8.180
18.22000 8.058
18.24000 8.757
18.26000 -0.401
18.28000 6.604
18.30000 10.206
18.32000 3.229
18.34000 2.000
18.36000 1.601
18.38000 -0.022
18.40000 3.332
18.42000 8.004
18.44000 1.318
18.46000 1.265
18.48000 2.443
18.50000 6.940
18.52000 3.536
18.54000 1.759
18.56000 1.892
18.58000 7.027
18.60000 12.091
18.62000 11.561
18.64000 3.612
18.66000 5.719
18.68000 6.185
18.70000 11.289
18.72000 8.401
18.74000 6.715
18.76000 12.143
18.78000 6.432
18.80000 -0.259
18.82000 0.173
18.84000 4.279
18.86000 6.965
18.88000 6.058
18.90000 5.345
18.92000 5.186
18.94000 0.040
18.96000 4.361
18.98000 7.424
19.00000 1.505
19.02000 0.231
19.04000 -1.626
19.06000 1.313
19.08000 4.192
19.10000 -4.230
19.12000 -2.458
19.14000 5.481
19.16000 7.420
19.18000 3.553
19.20000 4.917
19.22000 8.722
19.24000 13.231
19.26000 9.649
19.28000 3.264
19.30000 8.522
19.32000 7.454
19.34000 7.215
19.36000 10.692
19.38000 11.224
19.40000 6.681
19.42000 7.742
19.44000 8.526
19.46000 7.117
19.48000 4.957
19.50000 1.031
19.52000 2.204
19.54000 2.308
19.56000 0.506
19.58000 2.664
19.60000 -4.212
19.62000 2.261
19.64000 5.333
19.66000 8.346
19.68000 6.919
19.70000 2.599
19.72000 4.108
19.74000 6.985
19.76000 4.124
19.78000 6.035
19.80000 7.834
19.82000 3.698
19.84000 4.880
19.86000 -0.167
19.88000 -0.610
19.90000 7.293
19.92000 8.963
19.94000 5.252
19.96000 8.814
19.98000 10.127
20.00000 8.844
20.02000 5.264
20.04000 1.838
20.06000 -2.032
20.08000 -4.185
20.10000 3.693
20.12000 0.389
20.14000 0.508
20.16000 1.647
20.18000 7.493
20.20000 11.037
20.22000 5.709
20.24000 3.548
20.26000 -0.295
20.28000 3.825
20.30000 7.597
20.32000 3.599
20.34000 -1.223
20.36000 2.107
20.38000 1.334
20.40000 4.203
20.42000 9.071
20.44000 12.721
20.46000 5.058
20.48000 6.805
20.50000 8.044
20.52000 5.586
20.54000 4.136
20.56000 5.879
20.58000 4.255
20.60000 4.789
20.62000 2.596
20.64000 -1.084
20.66000 7.775
20.68000 5.099
20.70000 2.780
20.72000 5.442
20.74000 4.582
20.76000 -2.747
20.78000 -0.330
20.80000 3.787
20.82000 7.124
20.84000 0.922
20.86000 3.774
20.88000 7.652
20.90000 8.656
20.92000 7.597
20.94000 6.058
20.96000 5.056
20.98000 6.356
21.00000 0.182
21.02000 2.908
21.04000 2.675
21.06000 8.643
21.08000 8.341
21.10000 7.181
21.12000 10.556
21.14000 0.738
21.16000 0.099
21.18000 -0.760
21.20000 4.284
21.22000 5.106
21.24000 4.828
21.26000 -1.319
21.28000 4.954
21.30000 4.083
21.32000 4.856
21.34000 6.983
21.36000 4.745
21.38000 -3.458
21.40000 -1.588
21.42000 -0.687
21.44000 0.638
21.46000 4.322
21.48000 7.650
21.50000 17.047
21.52000 8.612
21.54000 4.260
21.56000 0.737
21.58000 -4.112
21.60000 4.513
21.62000 7.726
21.64000 4.766
21.66000 4.994
21.68000 1.633
21.70000 7.265
21.72000 8.002
21.74000 3.592
21.76000 5.860
21.78000 2.872
21.80000 1.822
21.82000 -0.492
21.84000 2.494
21.86000 7.339
21.88000 12.194
21.90000 5.515
21.92000 8.015
21.94000 -0.568
21.96000 2.886
21.98000 1.183
22.00000 0.420
22.02000 8.770
22.04000 7.310
22.06000 1.738
22.08000 2.132
22.10000 4.425
22.12000 5.257
22.14000 6.314
22.16000 11.188
22.18000 7.188
22.20000 4.343
22.22000 9.930
22.24000 5.240
22.26000 -0.013
22.28000 -0.061
22.30000 0.001
22.32000 -0.932
22.34000 4.116
22.36000 1.234
22.38000 -0.136
22.40000 2.533
22.42000 4.934
22.44000 2.809
22.46000 5.453
22.48000 10.506
22.50000 8.112
22.52000 1.943
22.54000 5.239
22.56000 1.441
22.58000 2.705
22.60000 3.892
22.62000 3.162
22.64000 0.315
22.66000 -4.072
22.68000 -2.235
22.70000 0.693
22.72000 4.202
22.74000 4.272
22.76000 9.376
22.78000 4.393
22.80000 2.840
22.82000 2.254
22.84000 0.695
22.86000 0.651
22.88000 4.916
22.90000 5.569
22.92000 4.930
22.94000 6.009
22.96000 3.095
22.98000 1.783
23.00000 0.843
23.02000 2.673
23.04000 4.492
23.06000 3.545
23.08000 0.690
23.10000 -2.602
23.12000 -3.624
23.14000 -0.469
23.16000 5.039
23.18000 10.146
23.20000 5.949
23.22000 7.169
23.24000 9.258
23.26000 8.029
23.28000 8.663
23.30000 10.556
23.32000 8.648
23.34000 10.116
23.36000 12.300
23.38000 3.996
23.40000 1.822
23.42000 5.655
23.44000 8.865
23.46000 14.581
23.48000 10.147
23.50000 8.963
23.52000 6.426
23.54000 13.065
23.56000 10.156
23.58000 7.263
23.60000 10.149
23.62000 11.710
23.64000 4.309
23.66000 2.832
23.68000 1.218
23.70000 5.868
23.72000 1.280
23.74000 0.283
23.76000 4.915
23.78000 7.683
23.80000 7.169
23.82000 7.638
23.84000 4.199
23.86000 -3.960
23.88000 5.536
23.90000 7.713
23.92000 10.166
23.94000 9.599
23.96000 10.237
23.98000 5.625
24.00000 3.386
24.02000 3.707
24.04000 11.559
24.06000 14.019
24.08000 10.722
24.10000 4.935
24.12000 13.671
24.14000 9.730
24.16000 5.209
24.18000 -2.024
24.20000 -3.947
24.22000 0.970
24.24000 0.746
24.26000 1.552
24.28000 2.118
24.30000 1.293
24.32000 5.636
24.34000 4.341
24.36000 4.649
24.38000 6.911
24.40000 9.192
24.42000 5.569
24.44000 -0.048
24.46000 1.078
24.48000 5.106
24.50000 3.452
24.52000 6.435
24.54000 5.041
24.56000 2.023
24.58000 0.799
24.60000 4.450
24.62000 4.090
24.64000 1.533
24.66000 -3.939
24.68000 1.599
24.70000 3.991
24.72000 2.122
24.74000 4.405
24.76000 5.396
24.78000 5.523
24.80000 3.959
24.82000 1.621
24.84000 1.634
24.86000 2.002
24.88000 3.776
24.90000 7.786
24.92000 9.656
24.94000 10.145
24.96000 1.383
24.98000 0.857
25.00000 1.654
25.02000 2.533
25.04000 3.984
25.06000 4.305
25.08000 4.926
25.10000 4.726
25.12000 8.504
25.14000 0.415
25.16000 0.932
25.18000 9.182
25.20000 12.322
25.22000 4.143
25.24000 3.802
25.26000 4.831
25.28000 4.064
25.30000 2.392
25.32000 3.072
25.34000 4.150
25.36000 3.699
25.38000 -0.204
25.40000 -3.921
25.42000 -1.172
25.44000 4.662
25.46000 6.271
25.48000 -2.870
25.50000 1.596
25.52000 1.855
25.54000 3.129
25.56000 2.785
25.58000 3.027
25.60000 1.960
25.62000 4.220
25.64000 6.480
25.66000 1.169
25.68000 -0.298
25.70000 7.243
25.72000 8.771
25.74000 0.755
25.76000 4.519
25.78000 2.577
25.80000 4.734
25.82000 5.258
25.84000 5.039
25.86000 2.423
25.88000 1.678
25.90000 1.561
25.92000 -1.741
25.94000 5.292
25.96000 1.977
25.98000 -3.559
26.00000 -0.927
26.02000 4.223
26.04000 3.348
26.06000 -2.722
26.08000 -3.107
26.10000 -1.945
26.12000 -0.555
26.14000 2.419
26.16000 -0.091
26.18000 0.243
26.20000 -0.123
26.22000 -2.624
26.24000 1.700
26.26000 8.153
26.28000 7.393
26.30000 -3.873
26.32000 -0.343
26.34000 -0.480
26.36000 -1.914
26.38000 4.137
26.40000 9.151
26.42000 2.685
26.44000 -1.489
26.46000 1.459
26.48000 7.066
26.50000 7.179
26.52000 4.814
26.54000 0.425
26.56000 2.768
26.58000 2.003
26.60000 -0.279
26.62000 5.962
26.64000 3.741
26.66000 3.617
26.68000 8.264
26.70000 8.600
26.72000 8.143
26.74000 7.345
26.76000 -0.021
26.78000 -2.825
26.80000 -2.695
26.82000 2.994
26.84000 4.147
26.86000 5.660
26.88000 4.714
26.90000 1.669
26.92000 2.095
26.94000 3.735
26.96000 4.564
26.98000 8.377
27.00000 9.830
27.02000 4.918
27.04000 2.666
27.06000 3.732
27.08000 6.062
27.10000 7.904
27.12000 6.926
27.14000 2.661
27.16000 -0.693
27.18000 -3.436
27.20000 -3.826
27.22000 -3.004
27.24000 -2.761
27.26000 0.347
27.28000 1.618
27.30000 4.862
27.32000 6.524
27.34000 2.728
27.36000 4.406
27.38000 6.442
27.40000 8.356
27.42000 5.670
27.44000 -0.159
27.46000 -0.476
27.48000 4.336
27.50000 2.428
27.52000 3.081
27.54000 7.996
27.56000 5.066
27.58000 4.161
27.60000 2.979
27.62000 -2.803
27.64000 -1.204
27.66000 -0.194
27.68000 4.827
27.70000 3.078
27.72000 -1.422
27.74000 1.944
27.76000 1.339
27.78000 0.268
27.80000 0.980
27.82000 2.312
27.84000 1.252
27.86000 1.910
27.88000 -1.044
27.90000 -3.206
27.92000 -1.986
27.94000 0.492
27.96000 -0.243
27.98000 -3.798
28.00000 -0.159
28.02000 -2.574
28.04000 5.470
28.06000 5.442
28.08000 4.190
28.10000 1.332
28.12000 -0.821
28.14000 -3.089
28.16000 3.629
28.18000 4.092
28.20000 4.059
28.22000 1.897
28.24000 0.430
28.26000 3.256
28.28000 3.546
28.30000 0.384
28.32000 3.250
28.34000 1.910
28.36000 2.265
28.38000 0.845
28.40000 -2.063
28.42000 3.753
28.44000 5.793
28.46000 -2.564
28.48000 -3.768
28.50000 0.531
28.52000 -2.217
28.54000 -0.155
28.56000 6.320
28.58000 4.604
28.60000 4.083
28.62000 3.050
28.64000 4.894
28.66000 -0.589
28.68000 -3.340
28.70000 -2.603
28.72000 2.735
28.74000 4.069
28.76000 -0.846
28.78000 -1.127
28.80000 0.728
28.82000 1.995
28.84000 -0.483
28.86000 -1.518
28.88000 -0.253
28.90000 1.428
28.92000 2.517
28.94000 4.558
28.96000 5.228
28.98000 1.901
29.00000 -0.642
29.02000 1.129
29.04000 -1.260
29.06000 1.783
29.08000 0.176
29.10000 1.110
29.12000 3.690
29.14000 0.302
29.16000 2.402
29.18000 -0.604
29.20000 -0.234
29.22000 0.385
29.24000 -2.049
29.26000 -0.024
29.28000 1.179
29.30000 1.631
29.32000 2.127
29.34000 0.141
29.36000 1.453
29.38000 3.414
29.40000 0.362
29.42000 0.962
29.44000 3.695
29.46000 8.550
29.48000 5.107
29.50000 1.243
29.52000 -0.021
29.54000 0.653
29.56000 2.281
29.58000 0.811
29.60000 -0.903
29.62000 2.896
29.64000 0.116
29.66000 -0.059
29.68000 -1.762
29.70000 1.508
29.72000 1.999
29.74000 1.112
29.76000 7.200
29.78000 5.305
29.80000 3.323
29.82000 4.731
29.84000 5.208
29.86000 8.982
29.88000 4.692
29.90000 2.765
29.92000 2.848
29.94000 4.013
29.96000 2.481
29.98000 4.143
30.00000 4.594
30.02000 5.967
30.04000 2.013
30.06000 -3.638
30.08000 3.135
30.10000 5.018
30.12000 2.021
30.14000 1.491
30.16000 -0.695
30.18000 3.462
30.20000 5.898
30.22000 4.116
30.24000 5.871
30.26000 5.491
30.28000 5.468
30.30000 7.950
30.32000 0.572
30.34000 0.837
30.36000 -1.079
30.38000 4.616
30.40000 4.694
30.42000 4.083
30.44000 1.521
30.46000 6.980
30.48000 4.703
30.50000 2.732
30.52000 3.350
30.54000 3.817
30.56000 2.903
30.58000 5.378
30.60000 3.383
30.62000 3.150
30.64000 1.894
30.66000 3.133
30.68000 2.259
30.70000 2.504
30.72000 3.834
30.74000 3.276
30.76000 5.804
30.78000 6.336
30.80000 5.024
30.82000 1.238
30.84000 -1.160
30.86000 2.228
30.88000 0.745
30.90000 4.338
30.92000 2.315
30.94000 0.129
30.96000 1.285
30.98000 4.863
31.00000 5.085
31.02000 1.333
31.04000 -0.749
31.06000 -0.616
31.08000 -1.965
31.10000 0.723
31.12000 2.389
31.14000 3.419
31.16000 2.278
31.18000 -0.264
31.20000 -0.146
31.22000 4.899
31.24000 5.654
31.26000 2.541
31.28000 1.825
31.30000 2.204
31.32000 1.963
31.34000 2.724
31.36000 3.003
31.38000 1.629
31.40000 1.654
31.42000 2.354
31.44000 -0.793
31.46000 -3.606
31.48000 -0.849
31.50000 -0.097
31.52000 -2.926
31.54000 -2.985
31.56000 -3.380
31.58000 0.180
31.60000 5.163
31.62000 9.452
31.64000 9.930
31.66000 10.536
31.68000 7.586
31.70000 -0.053
31.72000 4.212
31.74000 8.235
31.76000 7.313
31.78000 4.777
31.80000 1.672
31.82000 2.810
31.84000 -0.817
31.86000 2.152
31.88000 -1.162
31.90000 -0.026
31.92000 5.452
31.94000 6.123
31.96000 5.163
31.98000 4.533
32.00000 3.480
32.02000 2.306
32.04000 2.540
32.06000 -3.593
32.08000 0.424
32.10000 2.537
32.12000 -3.120
32.14000 -1.730
32.16000 -1.157
32.18000 -0.360
32.20000 -0.341
32.22000 0.661
32.24000 1.549
32.26000 3.080
32.28000 1.594
32.30000 -0.627
32.32000 -3.321
32.34000 2.708
32.36000 3.718
32.38000 1.317
32.40000 -1.485
32.42000 5.717
32.44000 5.260
32.46000 4.039
32.48000 0.934
32.50000 0.776
32.52000 2.744
32.54000 5.815
32.56000 4.877
32.58000 2.856
32.60000 4.853
32.62000 6.125
32.64000 2.936
32.66000 1.689
32.68000 3.433
32.70000 0.601
32.72000 0.251
32.74000 -0.728
32.76000 1.806
32.78000 10.132
32.80000 8.306
32.82000 2.069
32.84000 1.901
32.86000 3.639
32.88000 -2.968
32.90000 -3.557
32.92000 -0.732
32.94000 -1.531
32.96000 5.567
32.98000 7.571
33.00000 4.216
33.02000 1.581
33.04000 0.904
33.06000 -0.628
33.08000 -2.782
33.10000 -1.291
33.12000 0.117
33.14000 0.469
33.16000 2.741
33.18000 7.697
33.20000 4.107
33.22000 1.994
33.24000 3.188
33.26000 4.563
33.28000 2.595
33.30000 2.891
33.32000 3.887
33.34000 7.188
33.36000 6.772
33.38000 2.438
33.40000 0.009
33.42000 -0.038
33.44000 4.833
33.46000 4.524
33.48000 1.078
33.50000 -1.227
33.52000 0.659
33.54000 5.350
33.56000 4.026
33.58000 2.936
33.60000 7.037
33.62000 6.934
33.64000 6.207
33.66000 8.145
33.68000 7.697
33.70000 3.690
33.72000 0.304
33.74000 0.116
33.76000 4.984
33.78000 4.566
33.80000 5.555
33.82000 5.315
33.84000 2.358
33.86000 -3.520
33.88000 0.160
33.90000 1.811
33.92000 9.227
33.94000 4.659
33.96000 -1.855
33.98000 2.533
34.00000 5.378
34.02000 1.331
34.04000 3.645
34.06000 6.684
34.08000 7.207
34.10000 4.408
34.12000 3.896
34.14000 6.556
34.16000 2.866
34.18000 1.723
34.20000 0.248
34.22000 1.142
34.24000 1.445
34.26000 0.868
34.28000 1.207
34.30000 3.272
34.32000 4.053
34.34000 1.920
34.36000 -1.303
34.38000 -0.139
34.40000 3.876
34.42000 2.645
34.44000 3.718
34.46000 2.132
34.48000 3.925
34.50000 5.454
34.52000 4.871
34.54000 4.195
34.56000 4.841
34.58000 4.009
34.60000 3.599
34.62000 0.636
34.64000 -3.510
34.66000 3.599
34.68000 8.229
34.70000 11.392
34.72000 7.278
34.74000 2.958
34.76000 -1.480
34.78000 4.375
34.80000 8.076
34.82000 9.289
34.84000 9.402
34.86000 3.984
34.88000 1.431
34.90000 -0.447
34.92000 -2.780
34.94000 0.413
34.96000 3.370
34.98000 -2.857
35.00000 1.580
35.02000 5.683
35.04000 7.092
35.06000 7.870
35.08000 6.647
35.10000 2.833
35.12000 5.003
35.14000 1.426
35.16000 0.697
35.18000 1.781
35.20000 -0.911
35.22000 -3.494
35.24000 -0.767
35.26000 -1.801
35.28000 -3.157
35.30000 2.472
35.32000 0.144
35.34000 -3.384
35.36000 -1.244
35.38000 -1.378
35.40000 -2.115
35.42000 -0.439
35.44000 0.570
35.46000 -0.577
35.48000 -3.450
35.50000 0.388
35.52000 0.648
35.54000 -0.973
35.56000 2.122
35.58000 3.330
35.60000 3.642
35.62000 5.076
35.64000 0.478
35.66000 -0.892
35.68000 -0.614
35.70000 -0.025
35.72000 1.758
35.74000 -0.354
35.76000 -3.030
35.78000 -1.032
35.80000 -2.397
35.82000 -3.134
35.84000 0.401
35.86000 -0.300
35.88000 3.033
35.90000 3.472
35.92000 3.627
35.94000 4.449
35.96000 -0.593
35.98000 -2.909
36.00000 -1.182
36.02000 -0.636
36.04000 -1.413
36.06000 -0.035
36.08000 -1.073
36.10000 1.167
36.12000 4.648
36.14000 7.349
36.16000 2.016
36.18000 -0.354
36.20000 1.427
36.22000 1.326
36.24000 1.375
36.26000 -2.899
36.28000 -1.340
36.30000 -1.015
36.32000 -1.192
36.34000 0.549
36.36000 3.084
36.38000 3.633
36.40000 1.659
36.42000 0.428
36.44000 -2.912
36.46000 0.494
36.48000 -2.105
36.50000 4.866
36.52000 6.284
36.54000 2.539
36.56000 4.168
36.58000 4.027
36.60000 1.080
36.62000 4.905
36.64000 5.955
36.66000 5.446
36.68000 4.026
36.70000 2.094
36.72000 1.073
36.74000 -1.641
36.76000 -3.502
36.78000 -0.237
36.80000 4.843
36.82000 3.090
36.84000 3.191
36.86000 4.065
36.88000 2.234
36.90000 -0.562
36.92000 -1.578
36.94000 0.600
36.96000 1.165
36.98000 -0.319
37.00000 3.511
37.02000 1.254
37.04000 2.903
37.06000 3.394
37.08000 0.068
37.10000 -2.646
37.12000 -3.540
37.14000 0.714
37.16000 -0.029
37.18000 2.981
37.20000 4.114
37.22000 3.049
37.24000 3.361
37.26000 2.129
37.28000 -0.335
37.30000 3.134
37.32000 3.633
37.34000 5.108
37.36000 -2.263
37.38000 1.092
37.40000 4.157
37.42000 1.492
37.44000 -3.568
37.46000 -0.005
37.48000 2.642
37.50000 -0.524
37.52000 -2.269
37.54000 2.007
37.56000 -2.556
37.58000 -1.052
37.60000 -0.745
37.62000 -3.591
37.64000 -1.662
37.66000 3.572
37.68000 3.529
37.70000 0.990
37.72000 0.996
37.74000 2.466
37.76000 1.299
37.78000 -1.137
37.80000 1.317
37.82000 2.848
37.84000 1.780
37.86000 3.688
37.88000 6.020
37.90000 5.166
37.92000 3.012
37.94000 2.124
37.96000 6.478
37.98000 10.265
38.00000 3.687
38.02000 2.429
38.04000 0.639
38.06000 8.578
38.08000 9.823
38.10000 12.760
38.12000 17.142
38.14000 12.214
38.16000 10.379
38.18000 7.216
38.20000 9.578
38.22000 3.869
38.24000 3.823
38.26000 6.828
38.28000 11.014
38.30000 13.996
38.32000 16.817
38.34000 17.401
38.36000 11.394
38.38000 11.906
38.40000 10.827
38.42000 9.950
38.44000 13.246
38.46000 15.638
38.48000 17.576
38.50000 14.858
38.52000 17.754
38.54000 20.348
38.56000 19.651
38.58000 21.506
38.60000 21.478
38.62000 18.351
38.64000 22.924
38.66000 27.388
38.68000 26.765
38.70000 21.630
38.72000 20.640
38.74000 24.594
38.76000 27.126
38.78000 26.809
38.80000 30.152
38.82000 29.027
38.84000 29.786
38.86000 28.488
38.88000 25.724
38.90000 26.570
38.92000 27.282
38.94000 28.812
38.96000 34.008
38.98000 33.364
39.00000 32.740
39.02000 31.573
39.04000 36.987
39.06000 43.969
39.08000 46.657
39.10000 40.495
39.12000 42.363
39.14000 44.560
39.16000 46.068
39.18000 45.630
39.20000 51.655
39.22000 55.668
39.24000 48.752
39.26000 48.618
39.28000 58.567
39.30000 64.245
39.32000 66.954
39.34000 75.452
39.36000 68.519
39.38000 72.475
39.40000 76.277
39.42000 82.410
39.44000 85.328
39.46000 85.453
39.48000 90.972
39.50000 98.583
39.52000 104.193
39.54000 113.109
39.56000 118.895
39.58000 121.394
39.60000 123.201
39.62000 137.965
39.64000 141.464
39.66000 146.492
39.68000 152.235
39.70000 166.996
39.72000 175.874
39.74000 181.619
39.76000 198.727
39.78000 204.486
39.80000 219.485
39.82000 236.897
39.84000 249.960
39.86000 261.639
39.88000 280.285
39.90000 303.845
39.92000 317.298
39.94000 339.804
39.96000 363.781
39.98000 379.327
40.00000 403.002
40.02000 432.094
40.04000 457.213
40.06000 475.841
40.08000 508.339
40.10000 537.693
40.12000 578.849
40.14000 602.267
40.16000 629.432
40.18000 641.859
40.20000 680.228
40.22000 713.004
40.24000 747.377
40.26000 771.713
40.28000 791.492
40.30000 805.858
40.32000 823.120
40.34000 835.718
40.36000 840.336
40.38000 857.305
40.40000 857.198
40.42000 866.173
40.44000 869.730
40.46000 865.743
40.48000 854.490
40.50000 849.147
40.52000 831.326
40.54000 820.480
40.56000 795.928
40.58000 779.037
40.60000 751.067
40.62000 734.282
40.64000 709.546
40.66000 684.099
40.68000 658.649
40.70000 635.950
40.72000 613.670
40.74000 578.947
40.76000 552.232
40.78000 526.270
40.80000 505.343
40.82000 477.124
40.84000 462.050
40.86000 448.173
40.88000 424.957
40.90000 403.725
40.92000 373.773
40.94000 353.990
40.96000 336.620
40.98000 314.156
41.00000 300.091
41.02000 288.848
41.04000 265.401
41.06000 250.417
41.08000 241.004
41.10000 222.981
41.12000 205.347
41.14000 193.904
41.16000 189.813
41.18000 181.736
41.20000 173.116
41.22000 160.042
41.24000 150.768
41.26000 145.904
41.28000 137.740
41.30000 133.338
41.32000 124.231
41.34000 122.458
41.36000 110.415
41.38000 109.276
41.40000 101.843
41.42000 93.590
41.44000 88.478
41.46000 92.602
41.48000 87.711
41.50000 78.606
41.52000 72.690
41.54000 69.284
41.56000 68.091
41.58000 64.478
41.60000 62.494
41.62000 57.579
41.64000 52.791
41.66000 50.756
41.68000 51.339
41.70000 51.338
41.72000 50.172
41.74000 50.692
41.76000 43.707
41.78000 40.095
41.80000 40.960
41.82000 38.722
41.84000 36.502
41.86000 34.005
41.88000 35.302
41.90000 34.829
41.92000 32.601
41.94000 30.321
41.96000 33.300
41.98000 30.761
42.00000 29.623
42.02000 26.069
42.04000 25.766
42.06000 20.812
42.08000 22.249
42.10000 18.567
42.12000 21.611
42.14000 21.265
42.16000 19.254
42.18000 18.664
42.20000 18.348
42.22000 17.164
42.24000 12.451
42.26000 10.586
42.28000 9.041
42.30000 8.248
42.32000 14.675
42.34000 13.308
42.36000 12.148
42.38000 10.512
42.40000 9.611
42.42000 12.148
42.44000 11.632
42.46000 7.647
42.48000 6.752
42.50000 9.777
42.52000 8.812
42.54000 10.114
42.56000 6.178
42.58000 3.050
42.60000 6.443
42.62000 9.905
42.64000 10.714
42.66000 5.813
42.68000 7.761
42.70000 10.763
42.72000 6.110
42.74000 3.345
42.76000 8.225
42.78000 4.980
42.80000 3.384
42.82000 6.195
42.84000 5.917
42.86000 4.691
42.88000 3.939
42.90000 4.802
42.92000 3.707
42.94000 3.544
42.96000 3.819
42.98000 6.437
43.00000 5.646
43.02000 2.909
43.04000 1.232
43.06000 2.558
43.08000 2.468
43.10000 -1.419
43.12000 0.964
43.14000 6.034
43.16000 7.422
43.18000 5.217
43.20000 -2.596
43.22000 -3.434
43.24000 -2.609
43.26000 0.888
43.28000 4.776
43.30000 2.384
43.32000 0.286
43.34000 4.215
43.36000 7.505
43.38000 6.575
43.40000 3.170
43.42000 3.500
43.44000 3.774
43.46000 3.529
43.48000 -0.856
43.50000 -1.897
43.52000 -2.596
43.54000 1.461
43.56000 1.632
43.58000 -0.521
43.60000 -1.956
43.62000 -0.595
43.64000 1.500
43.66000 2.257
43.68000 5.750
43.70000 1.679
43.72000 -2.432
43.74000 -0.370
43.76000 0.042
43.78000 -1.164
43.80000 -1.487
43.82000 0.539
43.84000 -0.112
43.86000 -1.351
43.88000 -2.165
43.90000 -1.795
43.92000 -3.382
43.94000 -0.888
43.96000 0.503
43.98000 1.213
44.00000 2.594
44.02000 0.215
44.04000 -1.995
44.06000 -2.717
44.08000 0.625
44.10000 2.634
44.12000 4.923
44.14000 2.938
44.16000 -0.230
44.18000 2.514
44.20000 -1.242
44.22000 0.002
44.24000 0.860
44.26000 0.885
44.28000 1.700
44.30000 0.635
44.32000 -1.653
44.34000 -0.491
44.36000 -0.713
44.38000 -2.421
44.40000 -2.379
44.42000 -1.024
44.44000 2.033
44.46000 -0.034
44.48000 -3.102
44.50000 -2.968
44.52000 -2.999
44.54000 -1.869
44.56000 2.896
44.58000 1.819
44.60000 -0.050
44.62000 -0.100
44.64000 2.079
44.66000 2.007
44.68000 0.819
44.70000 1.462
44.72000 2.693
44.74000 -0.054
44.76000 -1.369
44.78000 -3.309
44.80000 0.740
44.82000 1.928
44.84000 1.220
44.86000 -2.505
44.88000 -2.613
44.90000 0.089
44.92000 3.335
44.94000 1.612
44.96000 3.883
44.98000 6.150
45.00000 6.486
45.02000 2.491
45.04000 4.884
45.06000 6.654
45.08000 2.734
45.10000 0.897
45.12000 1.325
45.14000 5.208
45.16000 3.741
45.18000 3.059
45.20000 3.043
45.22000 1.265
45.24000 2.962
45.26000 6.576
45.28000 6.657
45.30000 2.520
45.32000 7.025
45.34000 7.716
45.36000 5.935
45.38000 5.038
45.40000 4.569
45.42000 7.811
45.44000 6.534
45.46000 10.386
45.48000 8.699
45.50000 6.614
45.52000 4.002
45.54000 4.826
45.56000 6.864
45.58000 10.114
45.60000 9.151
45.62000 17.190
45.64000 10.223
45.66000 4.593
45.68000 8.822
45.70000 8.859
45.72000 13.717
45.74000 14.475
45.76000 16.909
45.78000 19.130
45.80000 19.967
45.82000 17.808
45.84000 18.712
45.86000 19.946
45.88000 17.875
45.90000 14.277
45.92000 16.425
45.94000 17.463
45.96000 20.526
45.98000 21.420
46.00000 25.282
46.02000 25.589
46.04000 23.243
46.06000 28.136
46.08000 27.764
46.10000 32.117
46.12000 35.017
46.14000 28.960
46.16000 32.186
46.18000 39.761
46.20000 39.468
46.22000 44.033
46.24000 43.450
46.26000 38.655
46.28000 44.158
46.30000 46.510
46.32000 51.104
46.34000 56.741
46.36000 59.383
46.38000 60.889
46.40000 62.674
46.42000 66.639
46.44000 68.394
46.46000 72.984
46.48000 75.990
46.50000 74.930
46.52000 82.703
46.54000 80.906
46.56000 84.970
46.58000 90.714
46.60000 91.389
46.62000 96.339
46.64000 105.892
46.66000 103.252
46.68000 107.096
46.70000 115.059
46.72000 118.558
46.74000 119.414
46.76000 123.541
46.78000 133.485
46.80000 131.068
46.82000 132.874
46.84000 139.692
46.86000 138.826
46.88000 138.246
46.90000 145.868
46.92000 159.262
46.94000 150.288
46.96000 147.990
46.98000 144.419
47.00000 151.174
47.02000 152.167
47.04000 155.067
47.06000 153.708
47.08000 150.375
47.10000 150.714
47.12000 146.961
47.14000 143.118
47.16000 144.930
47.18000 143.813
47.20000 144.326
47.22000 137.075
47.24000 137.700
47.26000 138.212
47.28000 127.487
47.30000 128.318
47.32000 127.586
47.34000 119.496
47.36000 110.272
47.38000 111.900
47.40000 104.411
47.42000 105.621
47.44000 109.069
47.46000 101.059
47.48000 90.239
47.50000 87.011
47.52000 91.526
47.54000 90.269
47.56000 75.848
47.58000 68.882
47.60000 68.211
47.62000 69.241
47.64000 63.242
47.66000 62.457
47.68000 52.357
47.70000 52.718
47.72000 53.877
47.74000 45.207
47.76000 41.134
47.78000 42.171
47.80000 46.445
47.82000 47.296
47.84000 40.912
47.86000 33.711
47.88000 34.828
47.90000 34.858
47.92000 35.046
47.94000 31.630
47.96000 26.458
47.98000 18.991
48.00000 18.832
48.02000 16.003
48.04000 18.335
48.06000 21.606
48.08000 26.073
48.10000 22.357
48.12000 16.738
48.14000 17.549
48.16000 18.755
48.18000 19.252
48.20000 14.165
48.22000 10.606
48.24000 9.734
48.26000 7.637
48.28000 7.828
48.30000 6.475
48.32000 3.016
48.34000 8.330
48.36000 9.411
48.38000 8.903
48.40000 10.583
48.42000 5.593
48.44000 6.056
48.46000 5.809
48.48000 1.174
48.50000 3.103
48.52000 1.836
48.54000 3.070
48.56000 1.342
48.58000 5.655
48.60000 4.021
48.62000 3.737
48.64000 2.586
48.66000 -2.219
48.68000 -0.088
48.70000 1.262
48.72000 -2.950
48.74000 2.666
48.76000 4.417
48.78000 1.901
48.80000 -0.497
48.82000 1.509
48.84000 0.926
48.86000 1.181
48.88000 1.116
48.90000 3.245
48.92000 1.958
48.94000 5.425
48.96000 2.964
48.98000 2.493
49.00000 1.016
49.02000 3.219
49.04000 2.449
49.06000 -0.065
49.08000 3.053
49.10000 1.693
49.12000 -1.983
49.14000 -0.757
49.16000 3.606
49.18000 1.290
49.20000 -0.006
49.22000 1.282
49.24000 -1.144
49.26000 1.357
49.28000 -2.319
49.30000 -0.621
49.32000 6.078
49.34000 9.207
49.36000 3.904
49.38000 -0.148
49.40000 1.191
49.42000 1.901
49.44000 2.877
49.46000 -2.802
49.48000 0.456
49.50000 2.802
49.52000 1.886
49.54000 2.575
49.56000 3.734
49.58000 1.207
49.60000 1.008
49.62000 2.282
49.64000 1.896
49.66000 -2.508
49.68000 1.052
49.70000 4.121
49.72000 -1.050
49.74000 5.252
49.76000 7.928
49.78000 2.478
49.80000 -1.734
49.82000 4.955
49.84000 7.478
49.86000 4.859
49.88000 -2.210
49.90000 -0.992
49.92000 -2.754
49.94000 1.733
49.96000 4.437
49.98000 1.209
50.00000 0.246
50.02000 0.547
50.04000 2.817
50.06000 0.041
50.08000 0.102
50.10000 1.231
50.12000 3.271
50.14000 6.832
50.16000 1.890
50.18000 3.829
50.20000 7.038
50.22000 4.858
50.24000 2.898
50.26000 7.666
50.28000 6.287
50.30000 3.003
50.32000 4.414
50.34000 1.561
50.36000 0.433
50.38000 1.160
50.40000 1.629
50.42000 3.056
50.44000 2.915
50.46000 4.224
50.48000 0.038
50.50000 1.094
50.52000 2.733
50.54000 3.268
50.56000 3.522
50.58000 -0.339
50.60000 1.943
50.62000 1.898
50.64000 -0.270
50.66000 -1.244
50.68000 2.717
50.70000 2.032
50.72000 -1.115
50.74000 1.653
50.76000 -0.758
50.78000 -1.435
50.80000 2.961
50.82000 2.962
50.84000 1.043
50.86000 1.488
50.88000 0.731
50.90000 2.136
50.92000 2.230
50.94000 1.582
50.96000 -2.662
50.98000 1.521
51.00000 6.199
51.02000 4.378
51.04000 1.282
51.06000 -2.648
51.08000 2.507
51.10000 4.944
51.12000 0.964
51.14000 1.607
51.16000 3.352
51.18000 1.946
51.20000 0.399
51.22000 4.305
51.24000 -2.434
51.26000 1.588
51.28000 2.687
51.30000 -0.214
51.32000 2.224
51.34000 3.481
51.36000 1.023
51.38000 3.212
51.40000 5.940
51.42000 3.302
51.44000 0.658
51.46000 1.692
51.48000 4.081
51.50000 1.612
51.52000 0.273
51.54000 3.725
51.56000 2.391
51.58000 1.196
51.60000 2.206
51.62000 4.482
51.64000 5.473
51.66000 7.696
51.68000 3.338
51.70000 2.905
51.72000 3.251
51.74000 3.978
51.76000 5.546
51.78000 3.282
51.80000 0.860
51.82000 -0.519
51.84000 2.160
51.86000 1.344
51.88000 1.889
51.90000 1.448
51.92000 -0.943
51.94000 -0.471
51.96000 1.520
51.98000 -0.036
52.00000 -0.711
52.02000 -0.748
52.04000 4.119
52.06000 7.486
52.08000 0.543
52.10000 3.672
52.12000 0.651
52.14000 4.730
52.16000 5.975
52.18000 8.765
52.20000 6.521
52.22000 5.698
52.24000 2.175
52.26000 2.426
52.28000 3.410
52.30000 2.703
52.32000 2.734
52.34000 7.425
52.36000 0.866
52.38000 -0.496
52.40000 1.619
52.42000 -1.272
52.44000 -0.915
52.46000 4.939
52.48000 0.181
52.50000 -2.575
52.52000 0.719
52.54000 5.221
52.56000 2.359
52.58000 2.451
52.60000 -0.949
52.62000 0.085
52.64000 5.861
52.66000 1.753
52.68000 2.580
52.70000 1.940
52.72000 -1.474
52.74000 -0.293
52.76000 6.969
52.78000 8.526
52.80000 6.893
52.82000 9.755
52.84000 5.550
52.86000 0.778
52.88000 0.006
52.90000 3.150
52.92000 2.058
52.94000 0.540
52.96000 -0.999
52.98000 4.875
53.00000 6.593
53.02000 2.912
53.04000 3.874
53.06000 3.858
53.08000 8.553
53.10000 4.633
53.12000 2.233
53.14000 2.035
53.16000 1.297
53.18000 -1.884
53.20000 2.150
53.22000 2.346
53.24000 1.297
53.26000 2.344
53.28000 -2.571
53.30000 1.945
53.32000 2.404
53.34000 -0.386
53.36000 -0.502
53.38000 0.725
53.40000 2.339
53.42000 0.745
53.44000 0.459
53.46000 2.523
53.48000 0.579
53.50000 3.659
53.52000 4.776
53.54000 6.715
53.56000 5.819
53.58000 1.131
53.60000 0.230
53.62000 3.047
53.64000 1.289
53.66000 2.867
53.68000 1.400
53.70000 -2.569
53.72000 -0.908
53.74000 2.193
53.76000 0.914
53.78000 -0.028
53.80000 -1.405
53.82000 4.474
53.84000 0.805
53.86000 -1.588
53.88000 0.564
53.90000 0.467
53.92000 2.304
53.94000 3.613
53.96000 0.077
53.98000 -2.419
54.00000 -2.562
54.02000 -2.422
54.04000 -1.447
54.06000 4.207
54.08000 -0.025
54.10000 -1.390
54.12000 2.560
54.14000 4.861
54.16000 3.244
54.18000 2.051
54.20000 -1.754
54.22000 -1.496
54.24000 0.241
54.26000 5.718
54.28000 3.300
54.30000 3.634
54.32000 2.962
54.34000 5.636
54.36000 2.665
54.38000 0.550
54.40000 3.105
54.42000 0.321
54.44000 -2.542
54.46000 3.718
54.48000 0.321
54.50000 -1.680
54.52000 -0.479
54.54000 0.739
54.56000 3.250
54.58000 2.187
54.60000 2.118
54.62000 2.592
54.64000 4.427
54.66000 3.020
54.68000 3.321
54.70000 3.091
54.72000 0.043
54.74000 1.570
54.76000 3.407
54.78000 0.882
54.80000 2.170
54.82000 1.900
54.84000 4.615
54.86000 4.233
54.88000 5.145
54.90000 4.885
54.92000 4.021
54.94000 -0.309
54.96000 3.997
54.98000 4.031
55.00000 1.174
55.02000 1.279
55.04000 2.019
55.06000 -1.492
55.08000 -2.498
55.10000 0.359
55.12000 3.097
55.14000 7.309
55.16000 5.826
55.18000 1.633
55.20000 0.815
55.22000 2.078
55.24000 -0.105
55.26000 5.746
55.28000 7.064
55.30000 6.131
55.32000 5.252
55.34000 0.946
55.36000 2.814
55.38000 4.088
55.40000 1.999
55.42000 1.044
55.44000 2.025
55.46000 -0.504
55.48000 1.778
55.50000 3.570
55.52000 4.215
55.54000 3.634
55.56000 3.734
55.58000 3.683
55.60000 1.716
55.62000 0.944
55.64000 2.354
55.66000 1.076
55.68000 -0.546
55.70000 0.664
55.72000 0.592
55.74000 2.383
55.76000 3.282
55.78000 10.182
55.80000 12.014
55.82000 5.532
55.84000 2.199
55.86000 3.450
55.88000 5.592
55.90000 5.485
55.92000 2.232
55.94000 3.662
55.96000 6.059
55.98000 5.827
56.00000 4.808
56.02000 4.570
56.04000 2.644
56.06000 1.078
56.08000 2.359
56.10000 4.478
56.12000 2.774
56.14000 0.221
56.16000 3.182
56.18000 7.601
56.20000 1.970
56.22000 -0.558
56.24000 -2.466
56.26000 -0.361
56.28000 3.299
56.30000 3.799
56.32000 6.970
56.34000 3.324
56.36000 2.903
56.38000 1.982
56.40000 1.151
56.42000 3.422
56.44000 2.446
56.46000 3.408
56.48000 3.347
56.50000 2.320
56.52000 3.201
56.54000 2.822
56.56000 0.482
56.58000 0.209
56.60000 2.202
56.62000 4.669
56.64000 2.794
56.66000 2.012
56.68000 0.548
56.70000 3.420
56.72000 3.463
56.74000 5.870
56.76000 -2.261
56.78000 -0.030
56.80000 3.323
56.82000 5.027
56.84000 2.735
56.86000 6.390
56.88000 5.127
56.90000 3.632
56.92000 4.071
56.94000 0.370
56.96000 3.085
56.98000 3.115
57.00000 5.762
57.02000 4.862
57.04000 1.416
57.06000 3.061
57.08000 2.703
57.10000 0.612
57.12000 2.024
57.14000 5.135
57.16000 6.112
57.18000 5.737
57.20000 2.188
57.22000 -0.179
57.24000 1.847
57.26000 4.007
57.28000 1.671
57.30000 -2.142
57.32000 -0.341
57.34000 -2.436
57.36000 0.697
57.38000 2.812
57.40000 6.392
57.42000 6.373
57.44000 4.831
57.46000 2.717
57.48000 2.588
57.50000 2.430
57.52000 -2.436
57.54000 1.548
57.56000 3.763
57.58000 2.786
57.60000 -0.722
57.62000 2.221
57.64000 3.518
57.66000 1.097
57.68000 -0.715
57.70000 -0.555
57.72000 2.450
57.74000 2.423
57.76000 -0.383
57.78000 1.461
57.80000 3.335
57.82000 5.521
57.84000 5.116
57.86000 3.622
57.88000 1.257
57.90000 0.295
57.92000 0.159
57.94000 1.176
57.96000 0.810
57.98000 3.777
58.00000 4.105
58.02000 4.733
58.04000 1.484
58.06000 -0.587
58.08000 -2.425
58.10000 1.648
58.12000 4.282
58.14000 5.008
58.16000 3.429
58.18000 2.097
58.20000 3.123
58.22000 1.212
58.24000 3.981
58.26000 1.468
58.28000 2.640
58.30000 3.719
58.32000 2.891
58.34000 2.071
58.36000 2.159
58.38000 3.838
58.40000 0.297
58.42000 -2.113
58.44000 -2.414
58.46000 2.358
58.48000 3.483
58.50000 4.210
58.52000 5.407
58.54000 6.375
58.56000 5.188
58.58000 0.423
58.60000 2.423
58.62000 5.871
58.64000 5.309
58.66000 4.316
58.68000 2.632
58.70000 1.348
58.72000 1.635
58.74000 3.954
58.76000 0.858
58.78000 1.490
58.80000 0.981
58.82000 2.190
58.84000 4.420
58.86000 1.754
58.88000 1.094
58.90000 -0.051
58.92000 4.651
58.94000 5.812
58.96000 1.734
58.98000 1.285
59.00000 6.202
59.02000 3.996
59.04000 2.202
59.06000 3.142
59.08000 0.688
59.10000 2.258
59.12000 5.180
59.14000 5.904
59.16000 2.543
59.18000 -0.602
59.20000 1.076
59.22000 5.145
59.24000 2.599
59.26000 4.355
59.28000 5.462
59.30000 2.770
59.32000 0.173
59.34000 4.687
59.36000 0.970
59.38000 0.645
59.40000 2.632
59.42000 2.272
59.44000 1.512
59.46000 3.675
59.48000 4.351
59.50000 2.598
59.52000 -2.386
59.54000 -1.182
59.56000 1.382
59.58000 0.630
59.60000 -1.683
59.62000 2.111
59.64000 3.539
59.66000 3.442
59.68000 3.014
59.70000 3.241
59.72000 4.305
59.74000 5.298
59.76000 3.270
59.78000 0.995
59.80000 4.950
59.82000 3.011
59.84000 4.833
59.86000 6.064
59.88000 1.009
59.90000 2.488
59.92000 1.132
59.94000 3.679
59.96000 6.913
59.98000 3.755
60.00000 3.628
60.02000 4.145
60.04000 3.322
60.06000 5.087
60.08000 4.383
60.10000 1.782
60.12000 3.845
60.14000 3.208
60.16000 0.524
60.18000 -0.305
60.20000 0.027
60.22000 0.926
60.24000 7.269
60.26000 9.306
60.28000 4.813
60.30000 -1.047
60.32000 1.342
60.34000 7.192
60.36000 5.908
60.38000 5.340
60.40000 6.111
60.42000 3.011
60.44000 3.791
60.46000 -0.973
60.48000 -1.043
60.50000 -2.321
60.52000 1.348
60.54000 2.603
60.56000 3.273
60.58000 2.958
60.60000 4.303
60.62000 4.772
60.64000 5.415
60.66000 4.199
60.68000 3.322
60.70000 5.922
60.72000 7.622
60.74000 5.617
60.76000 3.021
60.78000 3.090
60.80000 1.454
60.82000 0.775
60.84000 1.370
60.86000 1.162
60.88000 0.711
60.90000 2.824
60.92000 4.665
60.94000 2.929
60.96000 2.066
60.98000 0.824
61.00000 2.931
61.02000 2.282
61.04000 -0.286
61.06000 -0.833
61.08000 1.179
61.10000 1.045
61.12000 1.890
61.14000 1.493
61.16000 2.369
61.18000 2.746
61.20000 1.195
61.22000 -0.724
61.24000 0.749
61.26000 3.927
61.28000 3.929
61.30000 2.351
61.32000 -0.646
61.34000 0.402
61.36000 2.934
61.38000 2.946
61.40000 3.326
61.42000 4.511
61.44000 4.474
61.46000 3.187
61.48000 0.225
61.50000 1.259
61.52000 0.070
61.54000 0.531
61.56000 2.398
61.58000 1.608
61.60000 0.317
61.62000 4.105
61.64000 3.820
61.66000 3.510
61.68000 3.785
61.70000 0.955
61.72000 -1.308
61.74000 0.221
61.76000 4.824
61.78000 3.276
61.80000 2.595
61.82000 4.323
61.84000 0.856
61.86000 0.410
61.88000 1.857
61.90000 2.444
61.92000 1.877
61.94000 3.225
61.96000 5.602
61.98000 1.981
62.00000 -0.557
62.02000 0.994
62.04000 0.572
62.06000 -2.337
62.08000 0.207
62.10000 -1.926
62.12000 1.387
62.14000 3.670
62.16000 3.657
62.18000 7.053
62.20000 1.583
62.22000 -1.050
62.24000 0.314
62.26000 1.672
62.28000 2.086
62.30000 2.193
62.32000 -1.076
62.34000 -0.883
62.36000 0.667
62.38000 1.674
62.40000 0.749
62.42000 4.078
62.44000 3.599
62.46000 0.849
62.48000 0.774
62.50000 1.571
62.52000 2.721
62.54000 2.660
62.56000 -2.105
62.58000 -2.314
62.60000 -0.492
62.62000 0.271
62.64000 0.646
62.66000 1.329
62.68000 3.330
62.70000 3.121
62.72000 1.263
62.74000 4.010
62.76000 1.938
62.78000 0.220
62.80000 3.717
62.82000 4.017
62.84000 2.882
62.86000 2.888
62.88000 0.483
62.90000 0.624
62.92000 2.772
62.94000 1.766
62.96000 -0.140
62.98000 3.333
63.00000 4.599
63.02000 3.250
63.04000 0.670
63.06000 5.194
63.08000 4.090
63.10000 2.229
63.12000 4.391
63.14000 5.287
63.16000 4.227
63.18000 4.700
63.20000 5.068
63.22000 5.069
63.24000 3.578
63.26000 2.538
63.28000 -1.058
63.30000 -0.023
63.32000 -2.294
63.34000 2.069
63.36000 1.912
63.38000 3.261
63.40000 3.224
63.42000 2.919
63.44000 2.991
63.46000 4.352
63.48000 2.519
63.50000 2.411
63.52000 3.030
63.54000 4.229
63.56000 4.846
63.58000 1.467
63.60000 1.809
63.62000 1.098
63.64000 -1.942
63.66000 -0.887
63.68000 0.656
63.70000 2.501
63.72000 0.862
63.74000 -0.551
63.76000 1.278
63.78000 2.010
63.80000 1.104
63.82000 -1.373
63.84000 0.217
63.86000 -2.264
63.88000 -2.329
63.90000 1.329
63.92000 1.224
63.94000 -0.900
63.96000 3.591
63.98000 3.440
64.00000 1.528
64.02000 0.543
64.04000 2.357
64.06000 3.462
64.08000 3.331
64.10000 5.357
64.12000 3.075
64.14000 2.241
64.16000 0.785
64.18000 -1.330
64.20000 -0.665
64.22000 -0.484
64.24000 0.005
64.26000 2.015
64.28000 2.456
64.30000 1.646
64.32000 -1.627
64.34000 -2.340
64.36000 -1.309
64.38000 1.309
64.40000 -0.504
64.42000 0.280
64.44000 2.457
64.46000 3.780
64.48000 -0.036
64.50000 -1.024
64.52000 1.796
64.54000 0.918
64.56000 -1.097
64.58000 0.519
64.60000 -1.110
64.62000 1.776
64.64000 0.397
64.66000 1.054
64.68000 -0.010
64.70000 -0.511
64.72000 -1.776
64.74000 0.222
64.76000 2.593
64.78000 -1.585
64.80000 -0.073
64.82000 0.534
64.84000 3.651
64.86000 1.293
64.88000 0.158
64.90000 -0.042
64.92000 -1.652
64.94000 1.179
64.96000 0.217
64.98000 2.544
65.00000 3.265
65.02000 2.642
65.04000 2.292
65.06000 1.475
65.08000 1.573
65.10000 -0.996
65.12000 -0.316
65.14000 -0.688
65.16000 -2.297
65.18000 1.465
65.20000 3.670
65.22000 2.945
65.24000 -0.149
65.26000 -0.071
65.28000 2.642
65.30000 -2.195
65.32000 0.438
65.34000 -0.626
65.36000 2.445
65.38000 2.370
65.40000 0.599
65.42000 -0.835
65.44000 -2.332
65.46000 2.823
65.48000 1.541
65.50000 1.017
65.52000 0.524
65.54000 0.883
65.56000 1.694
65.58000 1.237
65.60000 -0.774
65.62000 -1.173
65.64000 2.698
65.66000 4.308
65.68000 1.453
65.70000 2.020
65.72000 1.338
65.74000 2.426
65.76000 0.928
65.78000 -0.824
65.80000 1.806
65.82000 2.127
65.84000 0.769
65.86000 0.635
65.88000 1.133
65.90000 2.291
65.92000 2.481
65.94000 2.849
65.96000 -0.683
65.98000 1.244
66.00000 1.996
66.02000 4.587
66.04000 1.916
66.06000 0.012
66.08000 -0.894
66.10000 -0.716
66.12000 -0.970
66.14000 0.597
66.16000 1.431
66.18000 1.811
66.20000 -0.374
66.22000 0.274
66.24000 -0.059
66.26000 0.187
66.28000 0.270
66.30000 1.720
66.32000 -0.128
66.34000 0.235
66.36000 1.330
66.38000 0.289
66.40000 -0.466
66.42000 -0.434
66.44000 1.213
66.46000 4.592
66.48000 4.608
66.50000 3.266
66.52000 -0.373
66.54000 -1.855
66.56000 -2.358
66.58000 0.271
66.60000 0.047
66.62000 2.363
66.64000 1.165
66.66000 1.668
66.68000 2.754
66.70000 1.873
66.72000 0.914
66.74000 1.350
66.76000 3.312
66.78000 0.105
66.80000 1.364
66.82000 -0.902
66.84000 -0.156
66.86000 3.236
66.88000 3.290
66.90000 4.841
66.92000 2.221
66.94000 1.326
66.96000 1.386
66.98000 4.104
67.00000 3.862
67.02000 1.228
67.04000 -2.357
67.06000 3.389
67.08000 4.326
67.10000 4.557
67.12000 1.843
67.14000 4.676
67.16000 4.278
67.18000 -0.144
67.20000 -0.584
67.22000 -1.635
67.24000 0.693
67.26000 2.945
67.28000 6.079
67.30000 8.377
67.32000 4.764
67.34000 4.049
67.36000 1.830
67.38000 3.052
67.40000 3.259
67.42000 4.740
67.44000 0.821
67.46000 -0.765
67.48000 1.970
67.50000 3.525
67.52000 3.460
67.54000 0.666
67.56000 2.002
67.58000 2.510
67.60000 3.325
67.62000 5.366
67.64000 4.972
67.66000 3.426
67.68000 5.354
67.70000 7.937
67.72000 10.882
67.74000 11.158
67.76000 6.386
67.78000 5.397
67.80000 6.768
67.82000 10.407
67.84000 10.107
67.86000 8.415
67.88000 6.701
67.90000 7.191
67.92000 9.208
67.94000 7.036
67.96000 6.643
67.98000 8.579
68.00000 10.603
68.02000 11.343
68.04000 14.956
68.06000 15.482
68.08000 16.007
68.10000 15.007
68.12000 17.944
68.14000 16.796
68.16000 16.323
68.18000 16.179
68.20000 13.193
68.22000 18.702
68.24000 24.753
68.26000 23.131
68.28000 20.328
68.30000 18.953
68.32000 21.899
68.34000 24.944
68.36000 22.163
68.38000 21.859
68.40000 25.948
68.42000 29.452
68.44000 26.882
68.46000 29.902
68.48000 32.357
68.50000 31.026
68.52000 28.979
68.54000 33.042
68.56000 33.627
68.58000 34.499
68.60000 35.722
68.62000 32.381
68.64000 32.006
68.66000 32.485
68.68000 38.556
68.70000 38.381
68.72000 36.191
68.74000 35.781
68.76000 39.613
68.78000 36.564
68.80000 37.858
68.82000 37.598
68.84000 38.488
68.86000 34.938
68.88000 30.326
68.90000 35.747
68.92000 36.062
68.94000 33.121
68.96000 32.121
68.98000 34.277
69.00000 29.781
69.02000 32.154
69.04000 34.564
69.06000 33.138
69.08000 29.604
69.10000 26.116
69.12000 25.506
69.14000 25.705
69.16000 24.473
69.18000 24.326
69.20000 24.190
69.22000 24.377
69.24000 22.140
69.26000 17.277
69.28000 15.705
69.30000 18.840
69.32000 18.429
69.34000 17.093
69.36000 16.702
69.38000 17.147
69.40000 15.239
69.42000 10.238
69.44000 10.373
69.46000 11.394
69.48000 11.332
69.50000 13.029
69.52000 13.388
69.54000 11.592
69.56000 8.938
69.58000 8.016
69.60000 10.369
69.62000 9.917
69.64000 8.146
69.66000 8.620
69.68000 7.484
69.70000 4.693
69.72000 2.906
69.74000 5.666
69.76000 8.077
69.78000 7.025
69.80000 3.890
69.82000 4.570
69.84000 4.135
69.86000 2.961
69.88000 2.723
69.90000 1.553
69.92000 2.431
69.94000 0.356
69.96000 1.470
69.98000 4.131
70.00000 3.039
70.02000 -0.776
70.04000 1.584
70.06000 2.981
70.08000 -1.974
70.10000 3.919
70.12000 3.376
70.14000 3.089
70.16000 2.527
70.18000 2.430
70.20000 2.062
70.22000 -1.224
70.24000 1.292
70.26000 0.144
70.28000 -2.319
70.30000 -1.013
70.32000 0.485
70.34000 -0.344
70.36000 1.859
70.38000 2.114
70.40000 1.805
70.42000 0.854
70.44000 3.549
70.46000 1.073
70.48000 2.855
70.50000 0.036
70.52000 -1.855
70.54000 -0.469
70.56000 0.105
70.58000 1.495
70.60000 2.786
70.62000 -0.245
70.64000 -0.183
70.66000 2.780
70.68000 4.565
70.70000 1.069
70.72000 -0.557
70.74000 -1.064
70.76000 0.774
70.78000 -0.473
70.80000 0.971
70.82000 2.887
70.84000 2.886
70.86000 5.031
70.88000 2.149
70.90000 1.262
70.92000 -2.287
70.94000 1.166
70.96000 1.289
70.98000 3.086
71.00000 4.885
71.02000 0.172
71.04000 0.758
71.06000 -0.184
71.08000 0.712
71.10000 4.379
71.12000 -0.143
71.14000 0.126
71.16000 -2.277
71.18000 -0.930
71.20000 -1.153
71.22000 0.540
71.24000 -1.070
71.26000 -1.265
71.28000 1.755
71.30000 2.479
71.32000 3.020
71.34000 -0.753
71.36000 -1.626
71.38000 0.565
71.40000 -0.396
71.42000 -0.427
71.44000 -0.136
71.46000 -1.623
71.48000 -0.449
71.50000 1.401
71.52000 1.998
71.54000 -0.204
71.56000 0.245
71.58000 0.684
71.60000 1.517
71.62000 4.740
71.64000 4.307
71.66000 3.254
71.68000 2.394
71.70000 0.195
71.72000 -0.023
71.74000 2.317
71.76000 3.515
71.78000 1.763
71.80000 3.975
71.82000 3.652
71.84000 2.978
71.86000 1.705
71.88000 3.260
71.90000 4.699
71.92000 2.768
71.94000 -2.210
71.96000 1.674
71.98000 1.216
72.00000 1.009
72.02000 2.182
72.04000 2.749
72.06000 -1.063
72.08000 0.193
72.10000 3.227
72.12000 6.194
72.14000 2.370
72.16000 2.457
72.18000 -1.444
72.20000 -0.992
72.22000 3.633
72.24000 4.975
72.26000 4.984
72.28000 0.363
72.30000 -2.180
72.32000 -1.659
72.34000 1.379
72.36000 1.492
72.38000 1.204
72.40000 1.969
72.42000 1.444
72.44000 4.171
72.46000 5.500
72.48000 -0.252
72.50000 -0.671
72.52000 2.283
72.54000 3.002
72.56000 2.561
72.58000 3.943
72.60000 0.207
72.62000 0.494
72.64000 0.686
72.66000 2.397
72.68000 -2.154
72.70000 -0.798
72.72000 0.267
72.74000 2.818
72.76000 3.342
72.78000 1.209
72.80000 3.540
72.82000 5.377
72.84000 4.050
72.86000 5.787
72.88000 4.709
72.90000 3.815
72.92000 3.667
72.94000 3.181
72.96000 4.373
72.98000 2.565
73.00000 -0.679
73.02000 -2.017
73.04000 2.036
73.06000 4.832
73.08000 4.080
73.10000 2.562
73.12000 2.528
73.14000 2.145
73.16000 6.804
73.18000 4.510
73.20000 2.534
73.22000 -0.362
73.24000 4.316
73.26000 4.005
73.28000 1.350
73.30000 1.685
73.32000 1.031
73.34000 -1.397
73.36000 -0.798
73.38000 0.489
73.40000 2.166
73.42000 2.442
73.44000 -0.415
73.46000 -0.812
73.48000 -0.574
73.50000 -0.862
73.52000 1.096
73.54000 0.768
73.56000 2.849
73.58000 2.224
73.60000 2.113
73.62000 -0.168
73.64000 0.342
73.66000 1.362
73.68000 0.359
73.70000 -2.167
73.72000 0.603
73.74000 -0.706
73.76000 -1.116
73.78000 -0.426
73.80000 0.198
73.82000 -0.602
73.84000 1.364
73.86000 5.709
73.88000 2.125
73.90000 -1.489
73.92000 -2.159
73.94000 -0.774
73.96000 6.073
73.98000 5.463
74.00000 5.655
74.02000 3.800
74.04000 -1.416
74.06000 2.029
74.08000 2.679
74.10000 -1.075
74.12000 -0.587
74.14000 -1.129
74.16000 -0.722
74.18000 1.931
74.20000 -1.415
74.22000 -0.536
74.24000 0.634
74.26000 0.270
74.28000 0.249
74.30000 3.128
74.32000 -0.327
74.34000 4.915
74.36000 3.049
74.38000 1.905
74.40000 2.112
74.42000 1.848
74.44000 2.698
74.46000 2.238
74.48000 3.710
74.50000 -0.942
74.52000 1.604
74.54000 1.080
74.56000 3.091
74.58000 1.443
74.60000 0.009
74.62000 2.740
74.64000 7.593
74.66000 4.866
74.68000 5.250
74.70000 3.297
74.72000 1.134
74.74000 1.252
74.76000 4.265
74.78000 2.956
74.80000 2.844
74.82000 1.713
74.84000 1.719
74.86000 4.091
74.88000 1.608
74.90000 3.164
74.92000 2.753
74.94000 -1.956
74.96000 -2.138
74.98000 2.615
75.00000 2.204
75.02000 2.333
75.04000 5.700
75.06000 2.047
75.08000 2.336
75.10000 1.309
75.12000 5.181
75.14000 3.335
75.16000 1.239
75.18000 2.768
75.20000 3.166
75.22000 4.165
75.24000 -0.204
75.26000 1.446
75.28000 1.559
75.30000 1.693
75.32000 -1.231
75.34000 4.070
75.36000 5.090
75.38000 5.276
75.40000 4.637
75.42000 8.740
75.44000 7.708
75.46000 4.495
75.48000 2.836
75.50000 1.640
75.52000 -0.932
75.54000 0.536
75.56000 5.032
75.58000 2.220
75.60000 0.614
75.62000 4.160
75.64000 4.837
75.66000 1.718
75.68000 2.725
75.70000 4.731
75.72000 2.218
75.74000 0.741
75.76000 2.390
75.78000 4.698
75.80000 1.837
75.82000 -1.065
75.84000 2.370
75.86000 2.801
75.88000 0.417
75.90000 4.369
75.92000 9.929
75.94000 6.297
75.96000 0.197
75.98000 -2.148
76.00000 0.189
76.02000 1.990
76.04000 0.136
76.06000 -0.287
76.08000 3.379
76.10000 3.565
76.12000 1.763
76.14000 0.316
76.16000 -1.298
76.18000 1.836
76.20000 2.492
76.22000 7.814
76.24000 4.268
76.26000 0.871
76.28000 2.673
76.30000 -0.376
76.32000 1.066
76.34000 0.774
76.36000 3.070
76.38000 -0.413
76.40000 -2.151
76.42000 0.225
76.44000 3.451
76.46000 5.153
76.48000 3.174
76.50000 4.341
76.52000 -0.676
76.54000 -0.374
76.56000 4.152
76.58000 7.340
76.60000 3.581
76.62000 4.462
76.64000 9.712
76.66000 4.730
76.68000 2.249
76.70000 -1.470
76.72000 1.531
76.74000 -2.150
76.76000 4.479
76.78000 5.438
76.80000 6.050
76.82000 4.632
76.84000 6.287
76.86000 4.435
76.88000 2.455
76.90000 3.933
76.92000 2.147
76.94000 1.214
76.96000 -0.561
76.98000 1.009
77.00000 0.568
77.02000 2.316
77.04000 4.466
77.06000 3.190
77.08000 3.611
77.10000 8.029
77.12000 6.060
77.14000 5.522
77.16000 2.937
77.18000 5.869
77.20000 5.419
77.22000 3.069
77.24000 1.280
77.26000 3.792
77.28000 2.240
77.30000 6.165
77.32000 4.603
77.34000 3.470
77.36000 -0.510
77.38000 -1.458
77.40000 -0.079
77.42000 -2.182
77.44000 1.163
77.46000 2.070
77.48000 0.646
77.50000 3.464
77.52000 5.138
77.54000 0.762
77.56000 -1.034
77.58000 3.412
77.60000 4.925
77.62000 0.712
77.64000 5.628
77.66000 3.656
77.68000 0.344
77.70000 0.421
77.72000 2.596
77.74000 4.240
77.76000 3.815
77.78000 2.197
77.80000 0.936
77.82000 -1.802
77.84000 -1.055
77.86000 -2.185
77.88000 0.774
77.90000 2.907
77.92000 4.224
77.94000 3.339
77.96000 -0.051
77.98000 1.087
78.00000 2.244
78.02000 3.522
78.04000 3.380
78.06000 3.139
78.08000 1.088
78.10000 0.225
78.12000 0.875
78.14000 1.174
78.16000 3.425
78.18000 4.297
78.20000 4.352
78.22000 0.955
78.24000 0.427
78.26000 0.219
78.28000 0.403
78.30000 2.573
78.32000 0.674
78.34000 3.496
78.36000 6.824
78.38000 7.505
78.40000 5.541
78.42000 5.643
78.44000 3.521
78.46000 -0.071
78.48000 1.645
78.50000 6.685
78.52000 5.826
78.54000 1.684
78.56000 3.584
78.58000 2.194
78.60000 2.212
78.62000 2.359
78.64000 2.129
78.66000 2.200
78.68000 0.517
78.70000 -0.770
78.72000 1.487
78.74000 1.423
78.76000 3.133
78.78000 0.089
78.80000 -1.307
78.82000 0.288
78.84000 0.029
78.86000 1.819
78.88000 -0.219
78.90000 -0.271
78.92000 0.841
78.94000 5.265
78.96000 -0.017
78.98000 -1.127
79.00000 1.698
79.02000 0.874
79.04000 3.451
79.06000 2.951
79.08000 0.526
79.10000 -1.552
79.12000 -0.024
79.14000 2.203
79.16000 1.454
79.18000 -0.203
79.20000 5.633
79.22000 5.723
79.24000 6.012
79.26000 3.365
79.28000 3.267
79.30000 0.548
79.32000 -0.829
79.34000 0.180
79.36000 -0.924
79.38000 -1.450
79.40000 4.076
79.42000 1.586
79.44000 0.027
79.46000 1.570
79.48000 0.774
79.50000 3.285
79.52000 3.825
79.54000 2.936
79.56000 0.303
79.58000 3.336
79.60000 2.221
79.62000 3.387
79.64000 0.201
79.66000 0.571
79.68000 -2.192
79.70000 0.659
79.72000 3.979
79.74000 4.854
79.76000 3.782
79.78000 3.710
79.80000 6.447
79.82000 3.119
79.84000 1.622
79.86000 4.281
79.88000 3.938
79.90000 0.337
79.92000 -0.982
79.94000 2.195
79.96000 4.355
79.98000 3.538
80.00000 2.609
80.02000 -1.380
80.04000 -2.186
80.06000 3.438
80.08000 4.993
80.10000 6.630
80.12000 8.247
80.14000 7.844
80.16000 4.239
80.18000 3.526
80.20000 2.873
80.22000 2.918
80.24000 3.993
80.26000 2.620
80.28000 4.485
80.30000 6.740
80.32000 6.849
80.34000 6.561
80.36000 4.924
80.38000 5.023
80.40000 2.864
80.42000 0.069
80.44000 -0.194
80.46000 -2.161
80.48000 0.129
80.50000 2.865
80.52000 0.248
80.54000 -2.261
80.56000 1.006
80.58000 -0.101
80.60000 3.123
80.62000 1.845
80.64000 0.851
80.66000 1.381
80.68000 0.007
80.70000 0.611
80.72000 -1.712
80.74000 0.661
80.76000 4.894
80.78000 2.346
80.80000 -1.044
80.82000 -0.158
80.84000 2.452
80.86000 0.978
80.88000 3.332
80.90000 2.688
80.92000 1.322
80.94000 -2.328
80.96000 2.634
80.98000 3.410
81.00000 0.606
81.02000 0.098
81.04000 2.413
81.06000 -1.091
81.08000 -0.807
81.10000 -0.838
81.12000 -1.864
81.14000 2.532
81.16000 1.412
81.18000 2.475
81.20000 3.404
81.22000 2.122
81.24000 2.260
81.26000 2.374
81.28000 2.174
81.30000 3.506
81.32000 -0.399
81.34000 0.611
81.36000 0.506
81.38000 2.289
81.40000 3.810
81.42000 1.350
81.44000 2.362
81.46000 0.955
81.48000 1.096
81.50000 4.617
81.52000 7.036
81.54000 8.616
81.56000 7.033
81.58000 7.947
81.60000 7.919
81.62000 2.495
81.64000 1.440
81.66000 3.373
81.68000 1.390
81.70000 1.800
81.72000 3.843
81.74000 4.542
81.76000 2.957
81.78000 3.736
81.80000 5.946
81.82000 4.864
81.84000 8.568
81.86000 7.280
81.88000 8.432
81.90000 6.999
81.92000 9.319
81.94000 5.391
81.96000 3.403
81.98000 6.469
82.00000 8.169
82.02000 6.907
82.04000 13.549
82.06000 13.858
82.08000 17.419
82.10000 22.259
82.12000 18.860
82.14000 15.605
82.16000 16.379
82.18000 19.511
82.20000 22.143
82.22000 23.701
82.24000 16.446
82.26000 17.053
82.28000 21.268
82.30000 19.886
82.32000 22.577
82.34000 25.506
82.36000 26.787
82.38000 25.552
82.40000 22.583
82.42000 25.005
82.44000 23.918
82.46000 30.411
82.48000 26.485
82.50000 27.238
82.52000 33.268
82.54000 38.771
82.56000 34.468
82.58000 36.478
82.60000 35.781
82.62000 39.768
82.64000 43.970
82.66000 43.772
82.68000 44.627
82.70000 46.491
82.72000 46.528
82.74000 44.663
82.76000 46.775
82.78000 50.373
82.80000 50.869
82.82000 48.191
82.84000 50.581
82.86000 52.454
82.88000 53.714
82.90000 50.726
82.92000 51.327
82.94000 52.228
82.96000 52.830
82.98000 52.567
83.00000 55.150
83.02000 53.031
83.04000 49.580
83.06000 51.599
83.08000 51.218
83.10000 48.491
83.12000 45.584
83.14000 48.151
83.16000 51.455
83.18000 44.254
83.20000 49.022
83.22000 46.033
83.24000 42.498
83.26000 45.986
83.28000 45.478
83.30000 40.774
83.32000 38.203
83.34000 36.415
83.36000 35.701
83.38000 33.907
83.40000 38.017
83.42000 33.289
83.44000 33.468
83.46000 31.057
83.48000 27.435
83.50000 30.683
83.52000 33.757
83.54000 30.017
83.56000 28.201
83.58000 27.329
83.60000 21.931
83.62000 18.649
83.64000 17.404
83.66000 16.944
83.68000 22.133
83.70000 23.949
83.72000 20.924
83.74000 22.090
83.76000 16.220
83.78000 15.853
83.80000 14.656
83.82000 14.645
83.84000 13.969
83.86000 10.225
83.88000 7.410
83.90000 10.731
83.92000 11.128
83.94000 8.493
83.96000 7.121
83.98000 7.678
84.00000 8.554
84.02000 9.033
84.04000 10.186
84.06000 3.410
84.08000 8.726
84.10000 6.050
84.12000 6.113
84.14000 7.104
84.16000 5.843
84.18000 8.951
84.20000 3.985
84.22000 7.243
84.24000 9.705
84.26000 10.677
84.28000 3.568
84.30000 4.871
84.32000 7.317
84.34000 7.134
84.36000 4.336
84.38000 3.935
84.40000 1.555
84.42000 3.302
84.44000 5.693
84.46000 2.474
84.48000 3.153
84.50000 5.359
84.52000 1.529
84.54000 5.846
84.56000 2.941
84.58000 2.428
84.60000 -0.039
84.62000 5.081
84.64000 3.876
84.66000 1.255
84.68000 1.671
84.70000 1.064
84.72000 1.292
84.74000 0.979
84.76000 0.290
84.78000 1.472
84.80000 0.729
84.82000 1.511
84.84000 4.063
84.86000 0.242
84.88000 3.335
84.90000 3.915
84.92000 2.253
84.94000 0.775
84.96000 6.330
84.98000 3.576
85.00000 1.273
85.02000 -0.303
85.04000 -2.273
85.06000 0.653
85.08000 1.497
85.10000 1.862
85.12000 1.732
85.14000 1.186
85.16000 2.390
85.18000 4.569
85.20000 0.355
85.22000 2.306
85.24000 1.633
85.26000 2.048
85.28000 2.166
85.30000 -1.519
85.32000 3.960
85.34000 2.370
85.36000 -0.491
85.38000 0.203
85.40000 -0.996
85.42000 6.371
85.44000 5.746
85.46000 3.497
85.48000 2.868
85.50000 2.772
85.52000 6.403
85.54000 2.766
85.56000 -2.221
85.58000 3.264
85.60000 3.912
85.62000 2.839
85.64000 0.933
85.66000 -1.332
85.68000 -1.475
85.70000 4.207
85.72000 3.588
85.74000 2.278
85.76000 6.052
85.78000 5.305
85.80000 4.113
85.82000 3.353
85.84000 3.334
85.86000 0.482
85.88000 0.216
85.90000 2.287
85.92000 -2.257
85.94000 0.941
85.96000 3.356
85.98000 5.335
86.00000 3.185
86.02000 0.364
86.04000 -0.391
86.06000 -1.074
86.08000 -1.653
86.10000 0.505
86.12000 3.316
86.14000 4.935
86.16000 2.349
86.18000 4.659
86.20000 10.588
86.22000 5.748
86.24000 2.921
86.26000 2.489
86.28000 4.815
86.30000 2.850
86.32000 1.518
86.34000 4.275
86.36000 4.838
86.38000 6.779
86.40000 6.348
86.42000 5.833
86.44000 8.654
86.46000 7.070
86.48000 6.313
86.50000 7.024
86.52000 5.698
86.54000 7.662
86.56000 9.703
86.58000 5.349
86.60000 8.358
86.62000 10.308
86.64000 9.753
86.66000 7.305
86.68000 8.740
86.70000 8.638
86.72000 10.752
86.74000 10.149
86.76000 10.594
86.78000 13.138
86.80000 14.202
86.82000 17.295
86.84000 18.002
86.86000 19.723
86.88000 16.851
86.90000 16.622
86.92000 17.659
86.94000 17.095
86.96000 19.076
86.98000 18.133
87.00000 20.010
87.02000 19.777
87.04000 19.064
87.06000 20.503
87.08000 20.266
87.10000 23.540
87.12000 25.982
87.14000 27.985
87.16000 28.115
87.18000 28.512
87.20000 26.197
87.22000 20.609
87.24000 22.327
87.26000 27.144
87.28000 29.479
87.30000 28.877
87.32000 30.771
87.34000 31.671
87.36000 29.819
87.38000 30.764
87.40000 31.267
87.42000 33.274
87.44000 29.932
87.46000 26.960
87.48000 21.449
87.50000 23.274
87.52000 30.379
87.54000 29.151
87.56000 31.017
87.58000 29.040
87.60000 27.435
87.62000 27.719
87.64000 27.084
87.66000 24.264
87.68000 25.288
87.70000 21.876
87.72000 25.132
87.74000 23.187
87.76000 23.010
87.78000 26.083
87.80000 24.215
87.82000 25.939
87.84000 21.796
87.86000 25.928
87.88000 27.885
87.90000 22.116
87.92000 19.145
87.94000 20.840
87.96000 11.730
87.98000 7.904
88.00000 11.102
88.02000 15.017
88.04000 17.568
88.06000 16.810
88.08000 16.115
88.10000 15.329
88.12000 12.487
88.14000 9.983
88.16000 8.580
88.18000 7.682
88.20000 11.472
88.22000 15.157
88.24000 11.944
88.26000 13.480
88.28000 6.587
88.30000 7.889
88.32000 12.577
88.34000 12.601
88.36000 11.751
88.38000 10.703
88.40000 8.270
88.42000 7.245
88.44000 9.598
88.46000 8.482
88.48000 9.627
88.50000 8.520
88.52000 9.322
88.54000 5.484
88.56000 2.702
88.58000 6.236
88.60000 4.773
88.62000 3.139
88.64000 8.591
88.66000 10.260
88.68000 7.180
88.70000 5.680
88.72000 2.063
88.74000 0.733
88.76000 4.512
88.78000 3.326
88.80000 5.248
88.82000 4.674
88.84000 2.572
88.86000 2.390
88.88000 1.287
88.90000 0.506
88.92000 -2.103
88.94000 -2.123
88.96000 0.062
88.98000 5.661
89.00000 3.270
89.02000 2.996
89.04000 3.934
89.06000 1.317
89.08000 2.726
89.10000 3.638
89.12000 3.661
89.14000 4.632
89.16000 5.942
89.18000 2.197
89.20000 1.851
89.22000 5.464
89.24000 3.614
89.26000 3.256
89.28000 4.701
89.30000 4.409
89.32000 3.307
89.34000 1.570
89.36000 1.080
89.38000 0.614
89.40000 2.959
89.42000 4.311
89.44000 1.540
89.46000 0.192
89.48000 3.883
89.50000 2.777
89.52000 4.906
89.54000 4.053
89.56000 4.575
89.58000 4.544
89.60000 1.460
89.62000 5.264
89.64000 1.924
89.66000 2.289
89.68000 0.979
89.70000 -0.478
89.72000 0.668
89.74000 2.767
89.76000 0.671
89.78000 2.875
89.80000 1.372
89.82000 5.763
89.84000 5.332
89.86000 1.556
89.88000 0.692
89.90000 0.940
89.92000 2.365
89.94000 2.778
89.96000 1.425
89.98000 2.004
90.00000 1.471
90.02000 0.189
90.04000 3.111
90.06000 5.192
90.08000 2.852
90.10000 4.021
90.12000 2.412
90.14000 2.644
90.16000 1.853
90.18000 -2.047
90.20000 -0.504
90.22000 4.270
90.24000 -0.274
90.26000 1.085
90.28000 1.793
90.30000 5.673
90.32000 4.731
90.34000 6.254
90.36000 3.248
90.38000 -0.579
90.40000 2.704
90.42000 5.051
90.44000 4.004
90.46000 3.268
90.48000 4.340
90.50000 5.936
90.52000 5.215
90.54000 6.777
90.56000 7.974
90.58000 5.733
90.60000 6.767
90.62000 5.632
90.64000 3.361
90.66000 -2.058
90.68000 5.031
90.70000 9.273
90.72000 2.610
90.74000 1.129
90.76000 2.500
90.78000 -0.335
90.80000 1.639
90.82000 1.770
90.84000 2.774
90.86000 6.609
90.88000 4.561
90.90000 -0.196
90.92000 3.530
90.94000 3.420
90.96000 1.694
90.98000 -1.680
91.00000 3.239
91.02000 2.632
91.04000 2.695
91.06000 0.078
91.08000 4.306
91.10000 7.077
91.12000 3.090
91.14000 0.915
91.16000 1.685
91.18000 1.305
91.20000 3.240
91.22000 1.015
91.24000 -0.081
91.26000 -0.085
91.28000 -0.879
91.30000 -2.044
91.32000 1.419
91.34000 5.055
91.36000 1.635
91.38000 2.270
91.40000 5.227
91.42000 4.605
91.44000 4.221
91.46000 0.732
91.48000 4.410
91.50000 6.455
91.52000 6.461
91.54000 5.188
91.56000 2.893
91.58000 -0.749
91.60000 2.152
91.62000 -1.347
91.64000 -1.484
91.66000 0.635
91.68000 0.213
91.70000 1.155
91.72000 5.251
91.74000 7.519
91.76000 5.701
91.78000 6.578
91.80000 3.108
91.82000 6.016
91.84000 7.795
91.86000 7.233
91.88000 4.017
91.90000 -2.058
91.92000 -0.746
91.94000 3.164
91.96000 3.427
91.98000 2.300
92.00000 3.597
92.02000 4.194
92.04000 2.487
92.06000 1.132
92.08000 3.822
92.10000 6.173
92.12000 2.284
92.14000 4.857
92.16000 4.898
92.18000 5.494
92.20000 1.614
92.22000 -0.934
92.24000 -0.908
92.26000 0.789
92.28000 -1.437
92.30000 -0.091
92.32000 0.337
92.34000 7.792
92.36000 6.116
92.38000 5.295
92.40000 3.119
92.42000 1.955
92.44000 3.896
92.46000 5.480
92.48000 5.060
92.50000 2.233
92.52000 5.438
92.54000 8.753
92.56000 5.969
92.58000 3.048
92.60000 3.944
92.62000 1.985
92.64000 -1.083
92.66000 -1.054
92.68000 -2.030
92.70000 2.423
92.72000 7.270
92.74000 8.444
92.76000 6.719
92.78000 10.558
92.80000 6.347
92.82000 2.004
92.84000 5.155
92.86000 1.960
92.88000 0.510
92.90000 0.696
92.92000 0.701
92.94000 0.694
92.96000 -0.783
92.98000 4.223
93.00000 6.143
93.02000 5.119
93.04000 8.234
93.06000 5.298
93.08000 1.829
93.10000 0.287
93.12000 0.286
93.14000 -2.048
93.16000 0.740
93.18000 2.394
93.20000 4.967
93.22000 1.902
93.24000 1.274
93.26000 3.840
93.28000 1.177
93.30000 1.708
93.32000 4.066
93.34000 2.513
93.36000 4.369
93.38000 6.173
93.40000 7.681
93.42000 4.902
93.44000 1.208
93.46000 0.336
93.48000 2.312
93.50000 0.119
93.52000 3.383
93.54000 1.718
93.56000 1.347
93.58000 2.245
93.60000 1.943
93.62000 2.641
93.64000 0.353
93.66000 3.947
93.68000 2.845
93.70000 3.571
93.72000 5.231
93.74000 3.334
93.76000 6.387
93.78000 5.951
93.80000 2.410
93.82000 6.600
93.84000 4.718
93.86000 1.978
93.88000 1.648
93.90000 1.625
93.92000 -0.333
93.94000 -2.057
93.96000 1.018
93.98000 3.820
94.00000 1.808
94.02000 6.141
94.04000 7.900
94.06000 4.612
94.08000 0.323
94.10000 3.122
94.12000 1.251
94.14000 4.448
94.16000 4.073
94.18000 2.388
94.20000 1.626
94.22000 -0.222
94.24000 1.504
94.26000 1.884
94.28000 0.874
94.30000 2.802
94.32000 1.730
94.34000 3.528
94.36000 2.947
94.38000 2.130
94.40000 1.306
94.42000 0.315
94.44000 2.844
94.46000 5.237
94.48000 4.732
94.50000 4.893
94.52000 5.867
94.54000 2.584
94.56000 2.283
94.58000 2.740
94.60000 6.104
94.62000 7.317
94.64000 0.716
94.66000 4.116
94.68000 2.323
94.70000 2.300
94.72000 4.517
94.74000 2.990
94.76000 4.920
94.78000 6.469
94.80000 8.515
94.82000 3.900
94.84000 1.877
94.86000 4.262
94.88000 3.441
94.90000 2.347
94.92000 5.956
94.94000 3.620
94.96000 2.070
94.98000 4.023
95.00000 3.087
95.02000 6.344
95.04000 7.767
95.06000 3.988
95.08000 10.414
95.10000 13.113
95.12000 8.609
95.14000 7.075
95.16000 10.351
95.18000 5.562
95.20000 2.199
95.22000 1.859
95.24000 6.185
95.26000 9.129
95.28000 11.625
95.30000 14.668
95.32000 11.944
95.34000 8.245
95.36000 5.160
95.38000 7.513
95.40000 8.765
95.42000 7.209
95.44000 5.994
95.46000 9.769
95.48000 11.029
95.50000 10.379
95.52000 9.384
95.54000 9.626
95.56000 9.393
95.58000 1.794
95.60000 -1.917
95.62000 4.474
95.64000 10.495
95.66000 16.456
95.68000 9.744
95.70000 8.714
95.72000 3.758
95.74000 3.898
95.76000 6.914
95.78000 9.133
95.80000 3.247
95.82000 2.879
95.84000 5.675
95.86000 4.307
95.88000 7.580
95.90000 9.472
95.92000 8.632
95.94000 4.910
95.96000 9.766
95.98000 7.202
96.00000 12.991
96.02000 12.359
96.04000 9.849
96.06000 12.327
96.08000 9.334
96.10000 8.175
96.12000 9.334
96.14000 9.386
96.16000 8.278
96.18000 4.815
96.20000 5.538
96.22000 7.653
96.24000 8.823
96.26000 7.020
96.28000 5.229
96.30000 2.917
96.32000 6.577
96.34000 5.801
96.36000 2.607
96.38000 5.197
96.40000 6.549
96.42000 6.266
96.44000 7.241
96.46000 10.368
96.48000 8.096
96.50000 5.747
96.52000 7.695
96.54000 7.781
96.56000 9.459
96.58000 7.841
96.60000 4.646
96.62000 1.839
96.64000 7.862
96.66000 5.835
96.68000 5.502
96.70000 5.659
96.72000 5.105
96.74000 7.243
96.76000 4.700
96.78000 3.174
96.80000 7.999
96.82000 6.720
96.84000 5.537
96.86000 3.979
96.88000 4.264
96.90000 7.910
96.92000 4.760
96.94000 8.682
96.96000 7.620
96.98000 4.809
97.00000 3.745
97.02000 8.392
97.04000 5.752
97.06000 6.870
97.08000 1.669
97.10000 -2.023
97.12000 2.115
97.14000 6.059
97.16000 2.786
97.18000 -1.753
97.20000 1.250
97.22000 1.783
97.24000 6.411
97.26000 8.297
97.28000 8.255
97.30000 2.657
97.32000 4.065
97.34000 4.585
97.36000 3.594
97.38000 10.089
97.40000 9.642
97.42000 8.404
97.44000 11.084
97.46000 2.257
97.48000 -0.041
97.50000 -0.886
97.52000 3.584
97.54000 3.951
97.56000 6.451
97.58000 6.104
97.60000 3.734
97.62000 4.574
97.64000 3.152
97.66000 4.435
97.68000 3.258
97.70000 4.969
97.72000 8.448
97.74000 3.719
97.76000 3.404
97.78000 4.706
97.80000 2.290
97.82000 0.812
97.84000 0.175
97.86000 3.874
97.88000 1.962
97.90000 2.242
97.92000 10.483
97.94000 6.820
97.96000 4.934
97.98000 -0.499
98.00000 2.787
98.02000 4.426
98.04000 4.621
98.06000 3.797
98.08000 2.705
98.10000 3.166
98.12000 2.309
98.14000 3.865
98.16000 7.335
98.18000 6.908
98.20000 0.879
98.22000 2.760
98.24000 0.912
98.26000 5.348
98.28000 5.806
98.30000 4.744
98.32000 5.872
98.34000 7.190
98.36000 3.488
98.38000 4.286
98.40000 5.596
98.42000 3.778
98.44000 9.621
98.46000 11.480
98.48000 8.733
98.50000 5.786
98.52000 2.483
98.54000 4.300
98.56000 5.493
98.58000 -1.948
98.60000 3.462
98.62000 0.808
98.64000 4.121
98.66000 8.260
98.68000 18.847
98.70000 9.477
98.72000 3.740
98.74000 7.558
98.76000 4.595
98.78000 7.620
98.80000 0.418
98.82000 2.865
98.84000 6.152
98.86000 9.212
98.88000 5.195
98.90000 8.874
98.92000 6.048
98.94000 0.191
98.96000 4.554
98.98000 8.177
99.00000 13.109
99.02000 13.054
99.04000 8.359
99.06000 7.791
99.08000 11.822
99.10000 4.763
99.12000 0.661
99.14000 1.072
99.16000 2.565
99.18000 7.557
99.20000 3.427
99.22000 4.622
99.24000 6.531
99.26000 5.119
99.28000 10.329
99.30000 4.451
99.32000 1.768
99.34000 4.378
99.36000 7.234
99.38000 7.613
99.40000 11.444
99.42000 8.893
99.44000 14.834
99.46000 9.706
99.48000 8.247
99.50000 9.097
99.52000 10.810
99.54000 5.254
99.56000 11.070
99.58000 4.421
99.60000 1.528
99.62000 2.658
99.64000 2.565
99.66000 6.170
99.68000 3.170
99.70000 3.265
99.72000 4.474
99.74000 9.618
99.76000 6.065
99.78000 12.853
99.80000 12.412
99.82000 8.739
99.84000 6.029
99.86000 17.920
99.88000 11.210
99.90000 7.367
99.92000 16.248
99.94000 16.351
99.96000 5.484
99.98000 0.000
