'Id: "0011388" Comment: "Integrate frame 0011388_Au-Ir-Rh_Rh-rich_XRD-Mapping-290-0000.gfrmwith cursor Wedge Cursor #5" Operator: "B?rgel" Anode: "Cu" Wavelength: "1.5406" Scantype: "2Theta (TwoTheta)" TimePerStep: "1" X: "13.5" Y: "27" Z: "5.95" 
10.00000 0.000
10.02000 -4.146
10.04000 -2.047
10.06000 -2.872
10.08000 -4.002
10.10000 4.274
10.12000 6.492
10.14000 6.910
10.16000 0.796
10.18000 15.708
10.20000 1.956
10.22000 7.771
10.24000 9.543
10.26000 21.977
10.28000 29.621
10.30000 20.845
10.32000 15.098
10.34000 18.917
10.36000 4.430
10.38000 9.703
10.40000 13.668
10.42000 16.440
10.44000 12.188
10.46000 7.784
10.48000 17.846
10.50000 12.079
10.52000 5.949
10.54000 12.281
10.56000 15.237
10.58000 12.648
10.60000 5.442
10.62000 16.416
10.64000 21.361
10.66000 14.988
10.68000 12.474
10.70000 10.658
10.72000 17.996
10.74000 22.766
10.76000 24.732
10.78000 30.369
10.80000 6.196
10.82000 6.923
10.84000 9.676
10.86000 22.426
10.88000 23.014
10.90000 22.243
10.92000 22.963
10.94000 16.307
10.96000 14.249
10.98000 21.174
11.00000 9.405
11.02000 6.656
11.04000 -4.134
11.06000 11.947
11.08000 22.577
11.10000 26.299
11.12000 19.157
11.14000 10.120
11.16000 9.136
11.18000 15.048
11.20000 24.793
11.22000 17.804
11.24000 22.087
11.26000 27.122
11.28000 23.707
11.30000 23.410
11.32000 20.283
11.34000 17.846
11.36000 28.629
11.38000 35.095
11.40000 28.364
11.42000 16.841
11.44000 12.303
11.46000 15.836
11.48000 11.678
11.50000 8.399
11.52000 5.334
11.54000 12.660
11.56000 13.156
11.58000 20.816
11.60000 36.121
11.62000 21.530
11.64000 13.989
11.66000 5.108
11.68000 10.839
11.70000 10.290
11.72000 5.174
11.74000 9.740
11.76000 20.098
11.78000 17.495
11.80000 18.101
11.82000 14.385
11.84000 17.468
11.86000 16.867
11.88000 18.844
11.90000 29.195
11.92000 32.641
11.94000 23.272
11.96000 14.595
11.98000 23.388
12.00000 26.396
12.02000 30.334
12.04000 23.991
12.06000 21.777
12.08000 23.222
12.10000 20.921
12.12000 20.377
12.14000 12.763
12.16000 9.711
12.18000 9.917
12.20000 20.261
12.22000 23.897
12.24000 22.420
12.26000 18.622
12.28000 20.684
12.30000 11.208
12.32000 6.978
12.34000 12.276
12.36000 19.720
12.38000 29.749
12.40000 28.343
12.42000 20.228
12.44000 16.456
12.46000 20.271
12.48000 19.757
12.50000 25.501
12.52000 32.871
12.54000 28.102
12.56000 24.070
12.58000 23.714
12.60000 18.979
12.62000 18.757
12.64000 17.891
12.66000 13.340
12.68000 16.922
12.70000 18.207
12.72000 13.680
12.74000 20.871
12.76000 28.276
12.78000 28.409
12.80000 19.329
12.82000 20.964
12.84000 32.844
12.86000 34.695
12.88000 31.826
12.90000 19.687
12.92000 14.191
12.94000 9.768
12.96000 8.842
12.98000 9.107
13.00000 16.889
13.02000 22.080
13.04000 15.215
13.06000 7.363
13.08000 13.679
13.10000 11.539
13.12000 8.241
13.14000 12.390
13.16000 18.283
13.18000 25.597
13.20000 13.510
13.22000 11.194
13.24000 17.312
13.26000 19.803
13.28000 12.360
13.30000 17.137
13.32000 11.620
13.34000 14.284
13.36000 16.076
13.38000 18.922
13.40000 23.474
13.42000 16.078
13.44000 13.879
13.46000 7.423
13.48000 13.015
13.50000 31.865
13.52000 22.947
13.54000 16.550
13.56000 23.707
13.58000 19.962
13.60000 9.109
13.62000 3.126
13.64000 12.399
13.66000 15.065
13.68000 9.336
13.70000 12.589
13.72000 17.059
13.74000 16.956
13.76000 15.773
13.78000 11.179
13.80000 10.266
13.82000 12.638
13.84000 16.912
13.86000 11.259
13.88000 3.114
13.90000 15.513
13.92000 15.782
13.94000 14.445
13.96000 7.629
13.98000 2.708
14.00000 6.790
14.02000 19.960
14.04000 21.043
14.06000 12.663
14.08000 18.842
14.10000 17.900
14.12000 21.756
14.14000 12.006
14.16000 5.539
14.18000 3.633
14.20000 16.230
14.22000 17.222
14.24000 20.734
14.26000 17.927
14.28000 10.603
14.30000 17.278
14.32000 23.136
14.34000 12.280
14.36000 9.368
14.38000 16.154
14.40000 12.473
14.42000 16.077
14.44000 15.466
14.46000 9.394
14.48000 9.805
14.50000 7.983
14.52000 8.442
14.54000 7.660
14.56000 15.166
14.58000 16.619
14.60000 14.089
14.62000 4.713
14.64000 4.205
14.66000 10.668
14.68000 1.866
14.70000 4.657
14.72000 9.479
14.74000 7.680
14.76000 11.049
14.78000 17.872
14.80000 13.193
14.82000 8.912
14.84000 8.913
14.86000 13.726
14.88000 25.296
14.90000 22.805
14.92000 13.850
14.94000 15.482
14.96000 17.032
14.98000 9.600
15.00000 6.136
15.02000 4.029
15.04000 5.680
15.06000 9.314
15.08000 10.770
15.10000 13.263
15.12000 18.898
15.14000 16.943
15.16000 17.115
15.18000 20.104
15.20000 16.801
15.22000 13.025
15.24000 9.011
15.26000 6.428
15.28000 9.329
15.30000 4.095
15.32000 5.830
15.34000 3.963
15.36000 8.564
15.38000 11.698
15.40000 5.969
15.42000 7.880
15.44000 10.139
15.46000 10.622
15.48000 10.839
15.50000 7.730
15.52000 11.348
15.54000 2.400
15.56000 3.352
15.58000 -1.415
15.60000 7.564
15.62000 10.630
15.64000 14.574
15.66000 11.952
15.68000 3.930
15.70000 14.619
15.72000 8.419
15.74000 2.092
15.76000 1.177
15.78000 4.386
15.80000 4.745
15.82000 -1.801
15.84000 6.424
15.86000 4.634
15.88000 6.041
15.90000 1.917
15.92000 10.136
15.94000 8.519
15.96000 4.608
15.98000 2.851
16.00000 -4.457
16.02000 1.719
16.04000 12.773
16.06000 16.127
16.08000 6.690
16.10000 6.441
16.12000 2.852
16.14000 2.599
16.16000 6.311
16.18000 7.407
16.20000 8.338
16.22000 16.626
16.24000 13.647
16.26000 6.896
16.28000 8.549
16.30000 3.484
16.32000 1.129
16.34000 0.498
16.36000 7.770
16.38000 6.952
16.40000 2.907
16.42000 11.555
16.44000 13.562
16.46000 6.872
16.48000 3.752
16.50000 5.361
16.52000 6.405
16.54000 11.858
16.56000 5.961
16.58000 2.903
16.60000 6.919
16.62000 3.766
16.64000 8.105
16.66000 3.938
16.68000 10.369
16.70000 9.307
16.72000 7.998
16.74000 2.418
16.76000 3.740
16.78000 4.939
16.80000 5.297
16.82000 7.827
16.84000 13.629
16.86000 4.037
16.88000 -4.430
16.90000 3.157
16.92000 3.916
16.94000 7.201
16.96000 12.715
16.98000 8.195
17.00000 -2.969
17.02000 4.530
17.04000 2.711
17.06000 0.215
17.08000 4.229
17.10000 -4.026
17.12000 -3.687
17.14000 4.094
17.16000 3.291
17.18000 4.827
17.20000 -2.172
17.22000 5.433
17.24000 10.898
17.26000 7.521
17.28000 5.659
17.30000 4.007
17.32000 7.460
17.34000 6.373
17.36000 2.435
17.38000 14.252
17.40000 13.164
17.42000 12.464
17.44000 3.594
17.46000 1.299
17.48000 -0.058
17.50000 5.998
17.52000 9.669
17.54000 12.378
17.56000 9.466
17.58000 10.711
17.60000 11.199
17.62000 8.282
17.64000 -0.133
17.66000 5.783
17.68000 5.985
17.70000 5.388
17.72000 4.502
17.74000 3.475
17.76000 2.793
17.78000 -2.937
17.80000 3.116
17.82000 1.913
17.84000 -1.706
17.86000 0.812
17.88000 1.959
17.90000 7.919
17.92000 6.704
17.94000 4.278
17.96000 2.831
17.98000 0.652
18.00000 -0.502
18.02000 -2.401
18.04000 1.735
18.06000 -0.888
18.08000 8.940
18.10000 12.923
18.12000 16.458
18.14000 14.903
18.16000 7.909
18.18000 3.723
18.20000 1.778
18.22000 2.057
18.24000 5.425
18.26000 11.027
18.28000 14.193
18.30000 13.575
18.32000 17.329
18.34000 6.160
18.36000 3.810
18.38000 -3.090
18.40000 6.097
18.42000 15.660
18.44000 13.004
18.46000 13.321
18.48000 10.092
18.50000 6.952
18.52000 7.431
18.54000 -2.285
18.56000 5.086
18.58000 5.710
18.60000 6.283
18.62000 7.684
18.64000 2.756
18.66000 3.625
18.68000 3.120
18.70000 8.651
18.72000 9.374
18.74000 7.839
18.76000 10.185
18.78000 8.025
18.80000 6.739
18.82000 11.648
18.84000 11.082
18.86000 6.850
18.88000 9.235
18.90000 11.255
18.92000 13.828
18.94000 11.199
18.96000 5.383
18.98000 9.447
19.00000 3.606
19.02000 6.999
19.04000 11.180
19.06000 5.765
19.08000 1.063
19.10000 2.748
19.12000 1.333
19.14000 1.232
19.16000 11.988
19.18000 13.042
19.20000 13.417
19.22000 7.004
19.24000 -1.939
19.26000 -4.251
19.28000 5.531
19.30000 10.465
19.32000 8.442
19.34000 7.918
19.36000 7.468
19.38000 8.539
19.40000 4.114
19.42000 3.723
19.44000 9.795
19.46000 9.908
19.48000 11.503
19.50000 6.433
19.52000 8.649
19.54000 13.311
19.56000 18.508
19.58000 7.827
19.60000 9.289
19.62000 14.062
19.64000 9.690
19.66000 6.035
19.68000 10.717
19.70000 7.035
19.72000 12.088
19.74000 1.452
19.76000 -2.852
19.78000 4.394
19.80000 11.069
19.82000 10.964
19.84000 8.354
19.86000 9.745
19.88000 4.731
19.90000 6.567
19.92000 5.579
19.94000 7.488
19.96000 4.872
19.98000 8.109
20.00000 4.206
20.02000 2.615
20.04000 6.157
20.06000 5.222
20.08000 -1.339
20.10000 1.047
20.12000 4.221
20.14000 -0.192
20.16000 -4.231
20.18000 1.205
20.20000 6.130
20.22000 4.287
20.24000 4.308
20.26000 11.996
20.28000 15.257
20.30000 8.922
20.32000 4.758
20.34000 9.802
20.36000 16.003
20.38000 12.664
20.40000 6.965
20.42000 6.629
20.44000 3.679
20.46000 7.331
20.48000 -1.149
20.50000 -3.076
20.52000 -0.884
20.54000 -0.846
20.56000 8.721
20.58000 8.264
20.60000 12.035
20.62000 6.488
20.64000 -0.067
20.66000 -1.429
20.68000 3.989
20.70000 0.938
20.72000 2.721
20.74000 9.627
20.76000 4.009
20.78000 10.973
20.80000 8.914
20.82000 3.807
20.84000 0.475
20.86000 -1.797
20.88000 -3.890
20.90000 5.810
20.92000 5.007
20.94000 6.485
20.96000 5.860
20.98000 10.093
21.00000 7.949
21.02000 7.722
21.04000 5.402
21.06000 3.852
21.08000 0.346
21.10000 4.522
21.12000 6.336
21.14000 4.916
21.16000 9.074
21.18000 10.430
21.20000 0.554
21.22000 7.095
21.24000 6.550
21.26000 -1.478
21.28000 0.872
21.30000 -2.002
21.32000 -4.160
21.34000 1.466
21.36000 -1.120
21.38000 1.746
21.40000 7.525
21.42000 1.401
21.44000 1.929
21.46000 4.405
21.48000 9.695
21.50000 12.074
21.52000 10.470
21.54000 9.461
21.56000 4.803
21.58000 6.785
21.60000 9.376
21.62000 9.473
21.64000 13.725
21.66000 12.059
21.68000 13.613
21.70000 14.477
21.72000 11.180
21.74000 12.694
21.76000 14.093
21.78000 4.635
21.80000 4.864
21.82000 4.308
21.84000 4.592
21.86000 8.749
21.88000 14.206
21.90000 12.707
21.92000 9.143
21.94000 5.139
21.96000 2.643
21.98000 2.770
22.00000 9.006
22.02000 4.726
22.04000 5.304
22.06000 4.972
22.08000 7.825
22.10000 10.072
22.12000 13.032
22.14000 10.755
22.16000 12.096
22.18000 12.797
22.20000 10.498
22.22000 7.828
22.24000 12.283
22.26000 10.369
22.28000 7.837
22.30000 4.061
22.32000 2.037
22.34000 2.018
22.36000 9.685
22.38000 12.660
22.40000 1.575
22.42000 5.523
22.44000 11.594
22.46000 10.569
22.48000 8.272
22.50000 5.169
22.52000 3.928
22.54000 5.919
22.56000 3.222
22.58000 10.155
22.60000 1.641
22.62000 -4.089
22.64000 2.035
22.66000 8.154
22.68000 6.692
22.70000 7.395
22.72000 2.382
22.74000 1.999
22.76000 9.892
22.78000 8.853
22.80000 4.933
22.82000 1.610
22.84000 8.469
22.86000 10.087
22.88000 10.238
22.90000 8.902
22.92000 5.836
22.94000 2.367
22.96000 12.117
22.98000 5.518
23.00000 6.816
23.02000 7.375
23.04000 4.339
23.06000 -4.070
23.08000 0.178
23.10000 1.112
23.12000 9.686
23.14000 10.594
23.16000 5.454
23.18000 3.879
23.20000 4.095
23.22000 6.588
23.24000 12.282
23.26000 12.981
23.28000 5.025
23.30000 2.420
23.32000 7.015
23.34000 6.693
23.36000 2.197
23.38000 -0.867
23.40000 -0.641
23.42000 1.704
23.44000 7.472
23.46000 9.446
23.48000 5.334
23.50000 10.221
23.52000 2.254
23.54000 6.543
23.56000 6.795
23.58000 2.025
23.60000 -0.281
23.62000 6.489
23.64000 7.621
23.66000 5.863
23.68000 8.334
23.70000 6.350
23.72000 6.045
23.74000 6.033
23.76000 6.220
23.78000 14.968
23.80000 7.263
23.82000 -1.333
23.84000 -1.392
23.86000 0.040
23.88000 3.272
23.90000 -0.921
23.92000 0.599
23.94000 -0.371
23.96000 -1.242
23.98000 6.198
24.00000 4.956
24.02000 2.996
24.04000 5.364
24.06000 4.547
24.08000 6.649
24.10000 5.475
24.12000 3.862
24.14000 1.161
24.16000 0.298
24.18000 7.142
24.20000 5.430
24.22000 2.769
24.24000 1.856
24.26000 2.437
24.28000 2.790
24.30000 1.129
24.32000 3.658
24.34000 -1.511
24.36000 5.047
24.38000 13.619
24.40000 3.688
24.42000 0.438
24.44000 4.803
24.46000 6.578
24.48000 4.040
24.50000 -0.838
24.52000 0.052
24.54000 6.377
24.56000 2.355
24.58000 0.684
24.60000 -1.879
24.62000 -0.928
24.64000 1.576
24.66000 0.288
24.68000 2.651
24.70000 -0.388
24.72000 -3.263
24.74000 2.088
24.76000 -1.217
24.78000 -1.094
24.80000 1.084
24.82000 2.270
24.84000 1.580
24.86000 6.407
24.88000 4.481
24.90000 7.009
24.92000 -0.981
24.94000 0.683
24.96000 -3.989
24.98000 -1.834
25.00000 8.400
25.02000 11.451
25.04000 9.720
25.06000 4.664
25.08000 2.178
25.10000 1.125
25.12000 1.854
25.14000 -2.925
25.16000 -3.973
25.18000 2.102
25.20000 1.805
25.22000 -0.425
25.24000 -0.291
25.26000 -2.421
25.28000 -0.240
25.30000 1.933
25.32000 2.753
25.34000 5.632
25.36000 3.650
25.38000 2.709
25.40000 1.035
25.42000 5.451
25.44000 0.380
25.46000 -3.284
25.48000 -0.268
25.50000 2.500
25.52000 7.178
25.54000 6.660
25.56000 6.114
25.58000 9.333
25.60000 -0.542
25.62000 -2.108
25.64000 3.998
25.66000 -0.201
25.68000 0.289
25.70000 2.763
25.72000 5.179
25.74000 4.173
25.76000 2.989
25.78000 4.160
25.80000 5.011
25.82000 5.067
25.84000 -2.044
25.86000 -1.864
25.88000 -0.755
25.90000 0.746
25.92000 1.422
25.94000 1.660
25.96000 -1.419
25.98000 1.889
26.00000 -0.679
26.02000 -1.112
26.04000 1.876
26.06000 2.051
26.08000 4.045
26.10000 6.651
26.12000 8.964
26.14000 3.852
26.16000 2.621
26.18000 4.435
26.20000 2.375
26.22000 -3.196
26.24000 -2.086
26.26000 -1.596
26.28000 3.723
26.30000 0.942
26.32000 4.401
26.34000 4.483
26.36000 5.446
26.38000 5.762
26.40000 4.862
26.42000 -2.364
26.44000 7.472
26.46000 5.717
26.48000 3.116
26.50000 5.449
26.52000 14.149
26.54000 9.637
26.56000 5.245
26.58000 1.895
26.60000 3.064
26.62000 -0.561
26.64000 1.240
26.66000 -0.546
26.68000 6.286
26.70000 8.022
26.72000 2.517
26.74000 0.260
26.76000 -3.187
26.78000 4.780
26.80000 5.706
26.82000 2.717
26.84000 -3.895
26.86000 0.891
26.88000 4.400
26.90000 6.728
26.92000 5.322
26.94000 2.387
26.96000 -0.097
26.98000 -1.930
27.00000 4.429
27.02000 11.396
27.04000 10.072
27.06000 4.269
27.08000 6.392
27.10000 3.291
27.12000 4.391
27.14000 7.643
27.16000 7.658
27.18000 5.678
27.20000 6.989
27.22000 11.766
27.24000 8.638
27.26000 0.463
27.28000 3.240
27.30000 -0.915
27.32000 2.369
27.34000 3.326
27.36000 -3.873
27.38000 -2.510
27.40000 2.170
27.42000 -3.584
27.44000 0.433
27.46000 -0.108
27.48000 5.063
27.50000 8.783
27.52000 10.567
27.54000 5.312
27.56000 2.724
27.58000 0.838
27.60000 -2.045
27.62000 0.489
27.64000 2.798
27.66000 1.825
27.68000 4.692
27.70000 2.084
27.72000 4.407
27.74000 4.647
27.76000 0.428
27.78000 1.360
27.80000 0.324
27.82000 -1.357
27.84000 -0.324
27.86000 3.062
27.88000 7.042
27.90000 7.767
27.92000 4.663
27.94000 2.260
27.96000 2.612
27.98000 3.110
28.00000 -1.640
28.02000 -3.219
28.04000 -1.209
28.06000 4.244
28.08000 -3.843
28.10000 -2.298
28.12000 3.959
28.14000 6.373
28.16000 2.089
28.18000 -0.293
28.20000 -0.366
28.22000 2.984
28.24000 5.926
28.26000 9.529
28.28000 2.900
28.30000 -2.429
28.32000 0.461
28.34000 1.366
28.36000 1.582
28.38000 -1.249
28.40000 2.510
28.42000 5.894
28.44000 3.795
28.46000 5.378
28.48000 -0.247
28.50000 -2.629
28.52000 -0.898
28.54000 0.718
28.56000 2.443
28.58000 0.610
28.60000 -1.048
28.62000 3.235
28.64000 0.000
28.66000 -1.188
28.68000 0.622
28.70000 -3.706
28.72000 -3.449
28.74000 1.454
28.76000 2.319
28.78000 4.545
28.80000 2.725
28.82000 7.331
28.84000 5.927
28.86000 1.379
28.88000 3.719
28.90000 0.619
28.92000 0.387
28.94000 -2.695
28.96000 -2.580
28.98000 2.925
29.00000 1.537
29.02000 -3.198
29.04000 -2.076
29.06000 2.441
29.08000 1.164
29.10000 3.781
29.12000 -0.333
29.14000 -1.355
29.16000 -0.683
29.18000 -0.213
29.20000 -0.578
29.22000 2.110
29.24000 3.605
29.26000 4.649
29.28000 4.119
29.30000 9.846
29.32000 6.706
29.34000 9.139
29.36000 11.370
29.38000 8.712
29.40000 0.750
29.42000 0.652
29.44000 4.232
29.46000 4.051
29.48000 3.620
29.50000 5.115
29.52000 4.398
29.54000 3.108
29.56000 7.746
29.58000 6.921
29.60000 -0.377
29.62000 4.275
29.64000 3.414
29.66000 7.275
29.68000 1.168
29.70000 -0.920
29.72000 0.543
29.74000 -3.737
29.76000 1.034
29.78000 -0.729
29.80000 -3.735
29.82000 1.542
29.84000 3.983
29.86000 8.376
29.88000 7.257
29.90000 7.515
29.92000 3.720
29.94000 2.375
29.96000 4.101
29.98000 5.037
30.00000 5.119
30.02000 3.946
30.04000 2.814
30.06000 5.043
30.08000 6.529
30.10000 1.398
30.12000 -3.725
30.14000 -0.845
30.16000 5.911
30.18000 4.592
30.20000 7.640
30.22000 2.406
30.24000 -1.457
30.26000 1.360
30.28000 2.765
30.30000 2.180
30.32000 0.997
30.34000 0.405
30.36000 1.903
30.38000 4.186
30.40000 7.164
30.42000 5.586
30.44000 3.946
30.46000 5.260
30.48000 0.869
30.50000 -3.710
30.52000 0.855
30.54000 1.689
30.56000 -2.027
30.58000 2.368
30.60000 4.937
30.62000 2.400
30.64000 2.467
30.66000 1.049
30.68000 7.142
30.70000 7.089
30.72000 1.775
30.74000 -0.301
30.76000 2.613
30.78000 2.281
30.80000 1.305
30.82000 4.907
30.84000 7.655
30.86000 6.513
30.88000 3.958
30.90000 0.849
30.92000 1.435
30.94000 0.639
30.96000 1.402
30.98000 -1.202
31.00000 3.897
31.02000 0.909
31.04000 0.783
31.06000 3.589
31.08000 6.957
31.10000 7.789
31.12000 -3.687
31.14000 -2.584
31.16000 3.770
31.18000 1.201
31.20000 1.790
31.22000 5.839
31.24000 3.056
31.26000 4.582
31.28000 1.909
31.30000 -0.063
31.32000 1.360
31.34000 4.930
31.36000 7.115
31.38000 5.112
31.40000 1.089
31.42000 -2.374
31.44000 -0.606
31.46000 8.576
31.48000 12.397
31.50000 8.052
31.52000 3.921
31.54000 8.589
31.56000 10.234
31.58000 4.347
31.60000 0.854
31.62000 4.572
31.64000 8.482
31.66000 5.561
31.68000 6.440
31.70000 -0.620
31.72000 -2.276
31.74000 -3.661
31.76000 -1.536
31.78000 1.417
31.80000 -1.100
31.82000 -0.074
31.84000 -0.307
31.86000 -0.735
31.88000 -0.690
31.90000 0.300
31.92000 6.885
31.94000 9.468
31.96000 8.905
31.98000 7.461
32.00000 1.023
32.02000 0.875
32.04000 5.011
32.06000 2.361
32.08000 1.912
32.10000 -0.340
32.12000 0.210
32.14000 2.681
32.16000 -0.086
32.18000 2.375
32.20000 3.350
32.22000 5.921
32.24000 3.195
32.26000 2.498
32.28000 2.886
32.30000 4.916
32.32000 7.292
32.34000 7.652
32.36000 5.303
32.38000 6.599
32.40000 6.823
32.42000 6.680
32.44000 3.762
32.46000 4.403
32.48000 2.159
32.50000 2.119
32.52000 4.016
32.54000 2.627
32.56000 1.427
32.58000 2.452
32.60000 -3.631
32.62000 -1.010
32.64000 1.324
32.66000 2.817
32.68000 4.244
32.70000 5.296
32.72000 2.088
32.74000 0.505
32.76000 3.945
32.78000 4.095
32.80000 3.668
32.82000 0.689
32.84000 -1.898
32.86000 -1.706
32.88000 -0.990
32.90000 1.314
32.92000 3.843
32.94000 2.138
32.96000 2.553
32.98000 3.946
33.00000 3.902
33.02000 4.203
33.04000 3.088
33.06000 1.020
33.08000 1.426
33.10000 3.955
33.12000 6.030
33.14000 4.884
33.16000 0.257
33.18000 -3.252
33.20000 -2.041
33.22000 -0.016
33.24000 -0.167
33.26000 3.383
33.28000 3.677
33.30000 5.715
33.32000 9.194
33.34000 3.230
33.36000 -3.640
33.38000 -1.381
33.40000 2.701
33.42000 3.176
33.44000 6.957
33.46000 5.697
33.48000 4.640
33.50000 -0.323
33.52000 -1.410
33.54000 1.647
33.56000 3.389
33.58000 4.811
33.60000 0.563
33.62000 -0.739
33.64000 0.409
33.66000 -1.473
33.68000 0.216
33.70000 0.498
33.72000 1.381
33.74000 -1.816
33.76000 -3.641
33.78000 5.407
33.80000 2.524
33.82000 -3.384
33.84000 -0.939
33.86000 -0.051
33.88000 5.709
33.90000 5.328
33.92000 5.066
33.94000 1.576
33.96000 -0.441
33.98000 -1.926
34.00000 3.875
34.02000 4.543
34.04000 1.392
34.06000 -0.852
34.08000 3.716
34.10000 6.628
34.12000 7.266
34.14000 4.365
34.16000 0.330
34.18000 -1.103
34.20000 -0.419
34.22000 0.358
34.24000 4.757
34.26000 7.204
34.28000 4.594
34.30000 5.724
34.32000 -3.441
34.34000 -3.116
34.36000 0.037
34.38000 0.077
34.40000 3.720
34.42000 0.901
34.44000 -0.197
34.46000 2.571
34.48000 5.049
34.50000 2.226
34.52000 0.088
34.54000 -0.899
34.56000 1.798
34.58000 2.925
34.60000 0.383
34.62000 -0.042
34.64000 1.654
34.66000 3.711
34.68000 -0.948
34.70000 -2.671
34.72000 -0.446
34.74000 0.169
34.76000 -3.390
34.78000 -1.076
34.80000 0.944
34.82000 -0.529
34.84000 -0.291
34.86000 -2.575
34.88000 -2.457
34.90000 2.696
34.92000 1.635
34.94000 -2.769
34.96000 1.095
34.98000 0.074
35.00000 -0.212
35.02000 -0.548
35.04000 -2.151
35.06000 2.047
35.08000 0.464
35.10000 3.651
35.12000 1.772
35.14000 3.252
35.16000 -0.572
35.18000 -3.584
35.20000 1.287
35.22000 3.520
35.24000 0.420
35.26000 -2.223
35.28000 1.499
35.30000 2.552
35.32000 3.289
35.34000 2.785
35.36000 0.304
35.38000 3.635
35.40000 6.818
35.42000 5.937
35.44000 5.014
35.46000 0.054
35.48000 1.907
35.50000 1.842
35.52000 1.298
35.54000 -0.325
35.56000 0.312
35.58000 -0.582
35.60000 -2.001
35.62000 1.329
35.64000 1.335
35.66000 -0.111
35.68000 -1.011
35.70000 -2.405
35.72000 -0.391
35.74000 -0.503
35.76000 -1.630
35.78000 -0.455
35.80000 2.692
35.82000 5.366
35.84000 1.170
35.86000 1.649
35.88000 -3.591
35.90000 -3.226
35.92000 0.319
35.94000 2.349
35.96000 4.695
35.98000 4.520
36.00000 1.497
36.02000 1.277
36.04000 -0.602
36.06000 4.156
36.08000 -0.092
36.10000 0.704
36.12000 2.503
36.14000 0.432
36.16000 -0.010
36.18000 -0.918
36.20000 4.232
36.22000 1.310
36.24000 -1.244
36.26000 0.828
36.28000 0.037
36.30000 -1.762
36.32000 -1.164
36.34000 -2.363
36.36000 -0.732
36.38000 1.893
36.40000 -1.278
36.42000 -3.127
36.44000 -0.703
36.46000 2.329
36.48000 2.847
36.50000 2.288
36.52000 1.843
36.54000 1.772
36.56000 3.615
36.58000 -3.607
36.60000 -2.150
36.62000 -1.070
36.64000 0.067
36.66000 1.510
36.68000 -1.472
36.70000 -2.616
36.72000 1.023
36.74000 1.302
36.76000 2.796
36.78000 6.612
36.80000 3.796
36.82000 1.944
36.84000 1.175
36.86000 1.894
36.88000 2.941
36.90000 4.835
36.92000 -2.378
36.94000 3.400
36.96000 2.985
36.98000 -2.552
37.00000 -2.683
37.02000 -3.601
37.04000 0.432
37.06000 -2.814
37.08000 -3.359
37.10000 -0.939
37.12000 -3.575
37.14000 -1.678
37.16000 -0.902
37.18000 7.838
37.20000 8.057
37.22000 2.419
37.24000 1.879
37.26000 0.371
37.28000 -2.211
37.30000 -2.429
37.32000 -3.682
37.34000 -1.020
37.36000 -0.465
37.38000 2.447
37.40000 2.751
37.42000 2.929
37.44000 -1.350
37.46000 -3.407
37.48000 1.133
37.50000 5.890
37.52000 1.152
37.54000 -0.252
37.56000 -1.521
37.58000 3.054
37.60000 2.794
37.62000 -1.679
37.64000 0.899
37.66000 2.016
37.68000 3.452
37.70000 6.753
37.72000 8.227
37.74000 5.808
37.76000 0.142
37.78000 0.276
37.80000 3.137
37.82000 8.079
37.84000 3.732
37.86000 0.402
37.88000 7.312
37.90000 4.409
37.92000 4.197
37.94000 5.831
37.96000 8.002
37.98000 5.726
38.00000 7.348
38.02000 3.458
38.04000 9.437
38.06000 8.736
38.08000 8.199
38.10000 8.027
38.12000 11.501
38.14000 14.117
38.16000 17.047
38.18000 13.601
38.20000 13.417
38.22000 17.273
38.24000 14.611
38.26000 9.388
38.28000 10.001
38.30000 11.056
38.32000 11.805
38.34000 14.819
38.36000 19.875
38.38000 20.552
38.40000 18.920
38.42000 17.796
38.44000 16.621
38.46000 18.637
38.48000 24.102
38.50000 28.289
38.52000 25.032
38.54000 23.870
38.56000 23.505
38.58000 19.671
38.60000 23.825
38.62000 25.348
38.64000 25.127
38.66000 22.648
38.68000 19.879
38.70000 26.177
38.72000 27.328
38.74000 31.272
38.76000 31.729
38.78000 34.178
38.80000 31.141
38.82000 30.760
38.84000 32.475
38.86000 35.934
38.88000 34.056
38.90000 30.762
38.92000 34.047
38.94000 43.280
38.96000 43.275
38.98000 41.975
39.00000 47.485
39.02000 50.970
39.04000 52.855
39.06000 48.669
39.08000 50.514
39.10000 49.188
39.12000 56.385
39.14000 58.900
39.16000 58.364
39.18000 60.340
39.20000 68.971
39.22000 72.313
39.24000 76.125
39.26000 72.712
39.28000 76.989
39.30000 86.067
39.32000 97.700
39.34000 97.906
39.36000 95.121
39.38000 99.033
39.40000 101.962
39.42000 109.052
39.44000 114.463
39.46000 118.002
39.48000 122.191
39.50000 126.907
39.52000 136.176
39.54000 146.408
39.56000 149.641
39.58000 153.854
39.60000 166.122
39.62000 173.889
39.64000 180.512
39.66000 191.471
39.68000 210.458
39.70000 215.086
39.72000 217.457
39.74000 225.927
39.76000 233.841
39.78000 243.130
39.80000 257.786
39.82000 272.976
39.84000 291.630
39.86000 298.516
39.88000 317.283
39.90000 343.713
39.92000 356.966
39.94000 359.382
39.96000 369.915
39.98000 383.458
40.00000 401.383
40.02000 428.884
40.04000 450.286
40.06000 466.038
40.08000 485.326
40.10000 513.959
40.12000 530.347
40.14000 537.761
40.16000 538.366
40.18000 555.331
40.20000 568.568
40.22000 579.532
40.24000 604.577
40.26000 624.787
40.28000 638.638
40.30000 650.115
40.32000 647.584
40.34000 646.731
40.36000 653.278
40.38000 663.335
40.40000 659.908
40.42000 679.740
40.44000 680.057
40.46000 668.941
40.48000 666.557
40.50000 649.283
40.52000 643.070
40.54000 631.498
40.56000 626.861
40.58000 617.709
40.60000 601.149
40.62000 596.404
40.64000 576.552
40.66000 557.051
40.68000 541.167
40.70000 520.845
40.72000 503.513
40.74000 476.008
40.76000 455.428
40.78000 447.731
40.80000 427.685
40.82000 408.262
40.84000 385.701
40.86000 371.876
40.88000 359.952
40.90000 336.907
40.92000 323.340
40.94000 308.875
40.96000 290.983
40.98000 280.729
41.00000 264.712
41.02000 250.031
41.04000 235.942
41.06000 224.328
41.08000 217.781
41.10000 209.065
41.12000 200.280
41.14000 184.784
41.16000 184.980
41.18000 162.716
41.20000 154.063
41.22000 149.806
41.24000 137.886
41.26000 126.284
41.28000 123.801
41.30000 118.471
41.32000 114.554
41.34000 112.093
41.36000 115.951
41.38000 103.417
41.40000 93.824
41.42000 87.562
41.44000 79.742
41.46000 75.857
41.48000 72.370
41.50000 77.372
41.52000 64.408
41.54000 60.996
41.56000 63.738
41.58000 57.888
41.60000 55.119
41.62000 48.848
41.64000 46.869
41.66000 48.403
41.68000 43.364
41.70000 41.303
41.72000 34.137
41.74000 36.908
41.76000 36.892
41.78000 37.648
41.80000 38.031
41.82000 31.660
41.84000 28.693
41.86000 28.219
41.88000 29.034
41.90000 23.375
41.92000 21.723
41.94000 21.015
41.96000 25.722
41.98000 28.000
42.00000 24.177
42.02000 16.777
42.04000 14.197
42.06000 14.300
42.08000 14.134
42.10000 11.812
42.12000 14.471
42.14000 15.735
42.16000 13.928
42.18000 14.199
42.20000 12.495
42.22000 11.175
42.24000 13.516
42.26000 11.538
42.28000 11.208
42.30000 8.681
42.32000 7.707
42.34000 10.656
42.36000 6.144
42.38000 3.942
42.40000 6.089
42.42000 11.142
42.44000 7.858
42.46000 4.447
42.48000 5.471
42.50000 4.268
42.52000 6.211
42.54000 5.942
42.56000 7.221
42.58000 5.967
42.60000 5.677
42.62000 4.774
42.64000 3.825
42.66000 5.526
42.68000 3.377
42.70000 7.450
42.72000 9.474
42.74000 6.996
42.76000 1.615
42.78000 2.887
42.80000 3.179
42.82000 4.596
42.84000 4.258
42.86000 4.580
42.88000 5.976
42.90000 5.097
42.92000 3.135
42.94000 2.471
42.96000 3.672
42.98000 0.051
43.00000 -1.029
43.02000 -2.535
43.04000 -0.390
43.06000 6.990
43.08000 2.213
43.10000 -0.712
43.12000 0.548
43.14000 -3.242
43.16000 1.174
43.18000 4.091
43.20000 5.957
43.22000 5.374
43.24000 1.798
43.26000 -0.674
43.28000 3.293
43.30000 5.443
43.32000 2.225
43.34000 2.226
43.36000 2.663
43.38000 -3.543
43.40000 0.174
43.42000 5.172
43.44000 3.771
43.46000 3.724
43.48000 3.219
43.50000 -0.805
43.52000 -0.131
43.54000 -2.501
43.56000 -1.294
43.58000 5.788
43.60000 4.137
43.62000 1.941
43.64000 3.233
43.66000 -1.960
43.68000 -2.257
43.70000 11.077
43.72000 7.876
43.74000 0.618
43.76000 0.404
43.78000 -0.628
43.80000 2.175
43.82000 2.972
43.84000 3.672
43.86000 7.262
43.88000 4.161
43.90000 5.620
43.92000 7.115
43.94000 6.101
43.96000 3.478
43.98000 2.055
44.00000 4.686
44.02000 1.867
44.04000 3.184
44.06000 3.606
44.08000 5.220
44.10000 1.443
44.12000 0.976
44.14000 4.306
44.16000 6.393
44.18000 1.705
44.20000 -3.512
44.22000 -0.189
44.24000 2.881
44.26000 -1.499
44.28000 4.862
44.30000 9.708
44.32000 5.365
44.34000 0.429
44.36000 2.518
44.38000 0.504
44.40000 -3.500
44.42000 -1.281
44.44000 1.342
44.46000 3.942
44.48000 5.545
44.50000 8.180
44.52000 4.217
44.54000 7.495
44.56000 6.873
44.58000 -2.382
44.60000 -0.556
44.62000 1.223
44.64000 -1.697
44.66000 0.584
44.68000 6.994
44.70000 4.702
44.72000 3.667
44.74000 3.287
44.76000 5.695
44.78000 4.725
44.80000 7.424
44.82000 0.839
44.84000 4.934
44.86000 1.368
44.88000 0.240
44.90000 5.686
44.92000 3.080
44.94000 0.840
44.96000 2.296
44.98000 8.986
45.00000 5.392
45.02000 4.121
45.04000 6.108
45.06000 1.007
45.08000 7.032
45.10000 10.888
45.12000 4.849
45.14000 0.899
45.16000 1.831
45.18000 7.154
45.20000 6.165
45.22000 7.948
45.24000 9.100
45.26000 8.594
45.28000 11.485
45.30000 8.160
45.32000 9.443
45.34000 13.148
45.36000 13.132
45.38000 12.302
45.40000 10.449
45.42000 5.637
45.44000 8.630
45.46000 14.859
45.48000 16.998
45.50000 14.951
45.52000 14.555
45.54000 20.089
45.56000 20.802
45.58000 23.095
45.60000 24.085
45.62000 18.117
45.64000 13.947
45.66000 18.183
45.68000 20.979
45.70000 21.646
45.72000 24.841
45.74000 19.594
45.76000 21.161
45.78000 21.780
45.80000 24.336
45.82000 29.015
45.84000 30.789
45.86000 27.773
45.88000 26.185
45.90000 24.480
45.92000 29.247
45.94000 38.630
45.96000 32.273
45.98000 30.506
46.00000 31.550
46.02000 39.393
46.04000 35.743
46.06000 39.733
46.08000 40.861
46.10000 43.210
46.12000 45.615
46.14000 49.436
46.16000 47.384
46.18000 40.483
46.20000 44.324
46.22000 55.390
46.24000 53.093
46.26000 52.872
46.28000 48.492
46.30000 48.902
46.32000 51.175
46.34000 47.992
46.36000 53.438
46.38000 59.543
46.40000 65.840
46.42000 58.064
46.44000 63.312
46.46000 66.384
46.48000 64.351
46.50000 68.759
46.52000 65.354
46.54000 65.203
46.56000 68.392
46.58000 73.417
46.60000 71.895
46.62000 76.790
46.64000 78.725
46.66000 77.538
46.68000 77.475
46.70000 75.435
46.72000 78.319
46.74000 80.448
46.76000 81.183
46.78000 77.845
46.80000 80.520
46.82000 76.804
46.84000 74.229
46.86000 78.534
46.88000 74.599
46.90000 84.384
46.92000 86.099
46.94000 82.194
46.96000 83.048
46.98000 78.123
47.00000 80.474
47.02000 80.538
47.04000 79.208
47.06000 83.340
47.08000 91.813
47.10000 92.491
47.12000 81.236
47.14000 80.616
47.16000 82.431
47.18000 80.952
47.20000 76.171
47.22000 81.417
47.24000 84.509
47.26000 78.658
47.28000 73.958
47.30000 73.060
47.32000 67.829
47.34000 67.252
47.36000 70.062
47.38000 71.692
47.40000 68.773
47.42000 64.888
47.44000 63.330
47.46000 58.255
47.48000 57.676
47.50000 57.836
47.52000 52.311
47.54000 57.658
47.56000 55.453
47.58000 52.001
47.60000 45.905
47.62000 39.429
47.64000 43.281
47.66000 46.403
47.68000 49.070
47.70000 43.757
47.72000 46.907
47.74000 45.411
47.76000 34.085
47.78000 34.828
47.80000 37.704
47.82000 37.394
47.84000 47.214
47.86000 33.770
47.88000 26.757
47.90000 33.247
47.92000 25.859
47.94000 25.230
47.96000 20.668
47.98000 23.902
48.00000 28.678
48.02000 27.372
48.04000 22.130
48.06000 20.836
48.08000 16.479
48.10000 18.986
48.12000 23.372
48.14000 24.874
48.16000 18.267
48.18000 14.375
48.20000 14.256
48.22000 16.327
48.24000 16.974
48.26000 18.638
48.28000 19.203
48.30000 16.805
48.32000 10.140
48.34000 8.450
48.36000 11.262
48.38000 10.177
48.40000 3.515
48.42000 6.138
48.44000 12.322
48.46000 15.220
48.48000 12.017
48.50000 8.739
48.52000 6.738
48.54000 3.534
48.56000 9.451
48.58000 13.011
48.60000 9.074
48.62000 8.229
48.64000 10.998
48.66000 6.237
48.68000 3.223
48.70000 4.991
48.72000 10.793
48.74000 8.143
48.76000 -3.224
48.78000 1.288
48.80000 4.973
48.82000 3.419
48.84000 3.883
48.86000 5.837
48.88000 5.463
48.90000 2.434
48.92000 2.856
48.94000 3.027
48.96000 0.347
48.98000 3.341
49.00000 8.350
49.02000 4.732
49.04000 5.746
49.06000 5.321
49.08000 12.358
49.10000 10.591
49.12000 8.910
49.14000 7.083
49.16000 2.941
49.18000 6.115
49.20000 -1.544
49.22000 -3.137
49.24000 3.007
49.26000 9.476
49.28000 10.663
49.30000 12.775
49.32000 8.717
49.34000 2.460
49.36000 5.106
49.38000 5.958
49.40000 -0.460
49.42000 0.016
49.44000 5.120
49.46000 11.285
49.48000 6.689
49.50000 4.598
49.52000 1.937
49.54000 3.950
49.56000 4.264
49.58000 5.932
49.60000 5.889
49.62000 2.108
49.64000 2.834
49.66000 0.628
49.68000 3.704
49.70000 5.733
49.72000 3.426
49.74000 4.280
49.76000 3.478
49.78000 2.735
49.80000 2.036
49.82000 4.553
49.84000 3.630
49.86000 3.037
49.88000 1.308
49.90000 3.216
49.92000 -1.654
49.94000 -1.396
49.96000 3.383
49.98000 -0.615
50.00000 -2.800
50.02000 0.277
50.04000 -2.219
50.06000 -3.093
50.08000 3.142
50.10000 10.076
50.12000 1.958
50.14000 1.528
50.16000 5.053
50.18000 7.527
50.20000 5.717
50.22000 8.874
50.24000 9.223
50.26000 3.230
50.28000 -0.990
50.30000 2.460
50.32000 6.597
50.34000 7.896
50.36000 6.872
50.38000 5.915
50.40000 4.617
50.42000 -0.996
50.44000 -1.851
50.46000 4.302
50.48000 5.393
50.50000 2.015
50.52000 -2.873
50.54000 -2.852
50.56000 -1.905
50.58000 4.201
50.60000 9.194
50.62000 7.276
50.64000 2.174
50.66000 -0.437
50.68000 6.673
50.70000 4.031
50.72000 0.542
50.74000 3.784
50.76000 6.409
50.78000 4.224
50.80000 2.842
50.82000 1.373
50.84000 3.570
50.86000 2.179
50.88000 3.459
50.90000 1.322
50.92000 -3.033
50.94000 2.760
50.96000 6.822
50.98000 8.079
51.00000 3.439
51.02000 -1.183
51.04000 -2.521
51.06000 -0.253
51.08000 4.886
51.10000 11.964
51.12000 6.067
51.14000 2.937
51.16000 3.064
51.18000 3.696
51.20000 6.404
51.22000 3.291
51.24000 3.936
51.26000 2.437
51.28000 2.861
51.30000 2.189
51.32000 6.610
51.34000 9.514
51.36000 6.333
51.38000 2.988
51.40000 0.853
51.42000 2.132
51.44000 5.213
51.46000 6.056
51.48000 3.764
51.50000 9.106
51.52000 8.773
51.54000 4.478
51.56000 3.751
51.58000 -0.685
51.60000 -2.218
51.62000 -2.993
51.64000 0.081
51.66000 3.461
51.68000 0.474
51.70000 6.313
51.72000 9.622
51.74000 11.044
51.76000 6.335
51.78000 3.950
51.80000 9.015
51.82000 11.057
51.84000 8.102
51.86000 2.781
51.88000 -2.442
51.90000 -2.972
51.92000 -2.970
51.94000 0.749
51.96000 1.837
51.98000 2.379
52.00000 9.363
52.02000 7.746
52.04000 11.878
52.06000 9.676
52.08000 0.732
52.10000 0.520
52.12000 5.068
52.14000 6.579
52.16000 7.856
52.18000 9.293
52.20000 6.637
52.22000 8.930
52.24000 9.777
52.26000 2.905
52.28000 5.517
52.30000 0.426
52.32000 0.921
52.34000 7.463
52.36000 5.775
52.38000 6.602
52.40000 6.691
52.42000 3.585
52.44000 0.633
52.46000 3.292
52.48000 2.038
52.50000 3.552
52.52000 -0.568
52.54000 -1.806
52.56000 1.483
52.58000 3.803
52.60000 4.592
52.62000 5.195
52.64000 4.266
52.66000 3.228
52.68000 5.232
52.70000 3.949
52.72000 2.660
52.74000 3.559
52.76000 5.551
52.78000 2.898
52.80000 0.916
52.82000 3.321
52.84000 4.456
52.86000 2.124
52.88000 3.096
52.90000 1.666
52.92000 3.006
52.94000 5.275
52.96000 4.055
52.98000 8.872
53.00000 8.970
53.02000 5.274
53.04000 4.890
53.06000 6.723
53.08000 5.000
53.10000 2.097
53.12000 5.268
53.14000 10.114
53.16000 6.060
53.18000 1.450
53.20000 1.902
53.22000 4.655
53.24000 2.672
53.26000 -0.379
53.28000 -1.305
53.30000 0.538
53.32000 3.499
53.34000 1.364
53.36000 9.037
53.38000 5.202
53.40000 2.620
53.42000 -0.465
53.44000 5.013
53.46000 4.360
53.48000 -0.520
53.50000 4.853
53.52000 8.371
53.54000 4.898
53.56000 5.258
53.58000 6.198
53.60000 4.719
53.62000 -2.920
53.64000 2.715
53.66000 5.473
53.68000 3.260
53.70000 -1.907
53.72000 -0.821
53.74000 4.077
53.76000 7.959
53.78000 1.352
53.80000 2.950
53.82000 7.046
53.84000 4.923
53.86000 5.239
53.88000 1.720
53.90000 8.143
53.92000 3.316
53.94000 1.940
53.96000 6.925
53.98000 8.583
54.00000 4.404
54.02000 2.102
54.04000 4.167
54.06000 5.185
54.08000 5.935
54.10000 4.667
54.12000 2.363
54.14000 4.622
54.16000 5.111
54.18000 6.007
54.20000 7.702
54.22000 4.367
54.24000 -0.738
54.26000 6.118
54.28000 4.469
54.30000 5.479
54.32000 5.401
54.34000 0.665
54.36000 -2.902
54.38000 -0.293
54.40000 -2.494
54.42000 3.847
54.44000 3.888
54.46000 6.198
54.48000 8.104
54.50000 5.089
54.52000 7.222
54.54000 8.944
54.56000 2.852
54.58000 4.142
54.60000 4.980
54.62000 2.036
54.64000 6.323
54.66000 2.599
54.68000 4.656
54.70000 2.796
54.72000 -1.746
54.74000 -1.376
54.76000 -2.338
54.78000 -1.650
54.80000 -0.957
54.82000 0.632
54.84000 2.458
54.86000 2.689
54.88000 5.283
54.90000 3.695
54.92000 2.521
54.94000 0.236
54.96000 0.991
54.98000 1.921
55.00000 2.855
55.02000 3.604
55.04000 7.157
55.06000 9.046
55.08000 8.423
55.10000 2.752
55.12000 0.896
55.14000 2.821
55.16000 0.274
55.18000 -0.431
55.20000 -0.710
55.22000 -1.426
55.24000 -1.181
55.26000 2.308
55.28000 1.971
55.30000 2.632
55.32000 0.756
55.34000 1.952
55.36000 1.504
55.38000 3.800
55.40000 4.450
55.42000 3.992
55.44000 3.735
55.46000 2.877
55.48000 5.257
55.50000 0.011
55.52000 -0.767
55.54000 1.903
55.56000 2.061
55.58000 4.919
55.60000 7.843
55.62000 8.420
55.64000 5.199
55.66000 3.955
55.68000 0.489
55.70000 4.725
55.72000 2.754
55.74000 3.778
55.76000 2.177
55.78000 6.606
55.80000 0.025
55.82000 -0.725
55.84000 4.422
55.86000 2.187
55.88000 5.111
55.90000 1.079
55.92000 3.938
55.94000 7.445
55.96000 5.444
55.98000 0.562
56.00000 5.743
56.02000 1.074
56.04000 1.889
56.06000 3.791
56.08000 2.029
56.10000 1.600
56.12000 7.763
56.14000 8.754
56.16000 0.490
56.18000 -2.846
56.20000 1.802
56.22000 8.147
56.24000 8.159
56.26000 1.261
56.28000 -0.567
56.30000 1.130
56.32000 0.416
56.34000 3.196
56.36000 5.787
56.38000 2.394
56.40000 1.017
56.42000 3.626
56.44000 2.535
56.46000 5.026
56.48000 5.101
56.50000 5.925
56.52000 9.646
56.54000 3.347
56.56000 1.144
56.58000 2.658
56.60000 3.878
56.62000 -2.352
56.64000 -1.314
56.66000 2.951
56.68000 3.538
56.70000 3.857
56.72000 5.653
56.74000 -0.644
56.76000 -2.832
56.78000 9.236
56.80000 3.556
56.82000 0.778
56.84000 0.926
56.86000 4.623
56.88000 2.532
56.90000 -2.759
56.92000 -1.610
56.94000 1.908
56.96000 0.957
56.98000 1.143
57.00000 5.245
57.02000 4.460
57.04000 2.444
57.06000 2.631
57.08000 3.425
57.10000 5.119
57.12000 2.063
57.14000 0.654
57.16000 2.928
57.18000 5.084
57.20000 3.194
57.22000 -0.426
57.24000 -1.313
57.26000 4.183
57.28000 3.355
57.30000 1.910
57.32000 5.239
57.34000 -0.209
57.36000 -1.499
57.38000 0.525
57.40000 2.218
57.42000 -0.178
57.44000 -0.540
57.46000 0.638
57.48000 2.983
57.50000 3.244
57.52000 2.032
57.54000 5.789
57.56000 4.824
57.58000 3.804
57.60000 6.561
57.62000 5.583
57.64000 7.808
57.66000 7.870
57.68000 9.485
57.70000 7.141
57.72000 8.335
57.74000 5.446
57.76000 2.869
57.78000 3.207
57.80000 2.973
57.82000 10.100
57.84000 8.337
57.86000 5.363
57.88000 1.800
57.90000 -2.777
57.92000 3.031
57.94000 4.285
57.96000 3.999
57.98000 0.912
58.00000 5.981
58.02000 6.290
58.04000 0.643
58.06000 4.497
58.08000 4.496
58.10000 1.091
58.12000 1.071
58.14000 4.861
58.16000 8.522
58.18000 9.931
58.20000 6.204
58.22000 6.642
58.24000 4.942
58.26000 2.459
58.28000 3.578
58.30000 6.622
58.32000 3.517
58.34000 -1.075
58.36000 1.141
58.38000 7.715
58.40000 4.539
58.42000 -0.204
58.44000 -2.267
58.46000 3.680
58.48000 8.840
58.50000 3.126
58.52000 2.548
58.54000 1.070
58.56000 4.948
58.58000 1.334
58.60000 2.975
58.62000 1.626
58.64000 4.301
58.66000 6.823
58.68000 11.716
58.70000 7.776
58.72000 8.620
58.74000 6.709
58.76000 6.952
58.78000 5.302
58.80000 3.836
58.82000 0.728
58.84000 -1.743
58.86000 -2.737
58.88000 5.297
58.90000 3.664
58.92000 0.311
58.94000 1.561
58.96000 3.042
58.98000 4.551
59.00000 2.920
59.02000 4.105
59.04000 3.298
59.06000 1.080
59.08000 2.466
59.10000 2.357
59.12000 3.343
59.14000 4.174
59.16000 3.964
59.18000 4.062
59.20000 3.190
59.22000 2.896
59.24000 3.382
59.26000 -1.823
59.28000 0.825
59.30000 3.573
59.32000 0.646
59.34000 4.215
59.36000 0.323
59.38000 -0.125
59.40000 0.438
59.42000 1.811
59.44000 3.893
59.46000 7.506
59.48000 6.146
59.50000 3.652
59.52000 2.255
59.54000 3.650
59.56000 3.043
59.58000 3.901
59.60000 4.005
59.62000 4.790
59.64000 -1.830
59.66000 0.249
59.68000 7.321
59.70000 6.195
59.72000 1.841
59.74000 3.032
59.76000 8.132
59.78000 1.573
59.80000 2.047
59.82000 4.441
59.84000 4.800
59.86000 -0.218
59.88000 -1.899
59.90000 7.718
59.92000 3.572
59.94000 -1.219
59.96000 -1.016
59.98000 -0.187
60.00000 5.239
60.02000 9.678
60.04000 1.422
60.06000 0.385
60.08000 -2.631
60.10000 -0.381
60.12000 2.223
60.14000 7.332
60.16000 8.530
60.18000 3.183
60.20000 2.914
60.22000 3.873
60.24000 4.136
60.26000 0.848
60.28000 -1.885
60.30000 -0.856
60.32000 3.785
60.34000 6.081
60.36000 5.427
60.38000 3.238
60.40000 5.068
60.42000 3.390
60.44000 1.883
60.46000 2.187
60.48000 0.104
60.50000 0.976
60.52000 1.537
60.54000 -2.289
60.56000 -2.718
60.58000 1.838
60.60000 6.379
60.62000 4.671
60.64000 0.729
60.66000 2.441
60.68000 3.413
60.70000 4.326
60.72000 0.979
60.74000 -1.900
60.76000 -1.330
60.78000 2.871
60.80000 1.196
60.82000 3.780
60.84000 4.870
60.86000 5.588
60.88000 6.260
60.90000 3.997
60.92000 6.797
60.94000 5.739
60.96000 3.403
60.98000 3.045
61.00000 -1.808
61.02000 1.997
61.04000 1.776
61.06000 0.454
61.08000 -0.258
61.10000 -0.019
61.12000 1.322
61.14000 -1.742
61.16000 3.000
61.18000 3.176
61.20000 2.013
61.22000 1.128
61.24000 3.515
61.26000 3.737
61.28000 2.592
61.30000 2.369
61.32000 1.495
61.34000 2.266
61.36000 -0.191
61.38000 -2.674
61.40000 0.280
61.42000 0.918
61.44000 1.348
61.46000 1.737
61.48000 -0.687
61.50000 1.867
61.52000 1.552
61.54000 1.688
61.56000 3.734
61.58000 2.929
61.60000 4.970
61.62000 2.996
61.64000 0.669
61.66000 0.604
61.68000 5.410
61.70000 6.420
61.72000 3.791
61.74000 4.282
61.76000 5.175
61.78000 5.748
61.80000 5.737
61.82000 7.613
61.84000 2.767
61.86000 2.137
61.88000 0.073
61.90000 1.471
61.92000 5.537
61.94000 6.788
61.96000 3.827
61.98000 2.326
62.00000 2.544
62.02000 -2.183
62.04000 1.730
62.06000 5.002
62.08000 2.179
62.10000 2.123
62.12000 2.781
62.14000 2.481
62.16000 3.283
62.18000 3.033
62.20000 3.672
62.22000 4.406
62.24000 5.350
62.26000 3.677
62.28000 6.041
62.30000 5.769
62.32000 7.436
62.34000 4.990
62.36000 4.942
62.38000 2.886
62.40000 2.992
62.42000 5.782
62.44000 3.024
62.46000 2.549
62.48000 6.105
62.50000 1.190
62.52000 1.033
62.54000 -2.045
62.56000 1.870
62.58000 1.796
62.60000 3.861
62.62000 3.992
62.64000 3.860
62.66000 2.427
62.68000 5.115
62.70000 8.490
62.72000 5.575
62.74000 -0.608
62.76000 -1.969
62.78000 0.482
62.80000 -2.125
62.82000 4.850
62.84000 4.142
62.86000 3.377
62.88000 -0.979
62.90000 -2.648
62.92000 3.549
62.94000 7.623
62.96000 6.167
62.98000 2.672
63.00000 0.303
63.02000 2.410
63.04000 -0.242
63.06000 1.699
63.08000 2.984
63.10000 1.277
63.12000 4.585
63.14000 4.199
63.16000 3.411
63.18000 -1.555
63.20000 -2.663
63.22000 0.284
63.24000 3.486
63.26000 4.495
63.28000 -0.465
63.30000 3.717
63.32000 3.213
63.34000 -1.093
63.36000 -0.921
63.38000 -1.096
63.40000 3.994
63.42000 4.060
63.44000 3.883
63.46000 0.536
63.48000 1.108
63.50000 2.951
63.52000 1.694
63.54000 -0.597
63.56000 1.120
63.58000 5.402
63.60000 5.681
63.62000 -1.885
63.64000 1.279
63.66000 1.600
63.68000 0.125
63.70000 2.038
63.72000 2.420
63.74000 4.053
63.76000 5.649
63.78000 1.130
63.80000 0.697
63.82000 2.552
63.84000 3.673
63.86000 5.036
63.88000 2.890
63.90000 3.616
63.92000 -0.019
63.94000 -0.499
63.96000 0.331
63.98000 0.203
64.00000 5.060
64.02000 1.494
64.04000 3.363
64.06000 3.038
64.08000 -0.279
64.10000 1.772
64.12000 3.385
64.14000 1.016
64.16000 -0.719
64.18000 -1.387
64.20000 2.462
64.22000 2.434
64.24000 0.430
64.26000 -2.524
64.28000 0.270
64.30000 -1.734
64.32000 2.024
64.34000 -2.290
64.36000 1.842
64.38000 4.306
64.40000 3.598
64.42000 1.163
64.44000 1.353
64.46000 4.780
64.48000 6.562
64.50000 2.558
64.52000 -2.675
64.54000 1.453
64.56000 3.025
64.58000 3.111
64.60000 1.337
64.62000 2.784
64.64000 0.544
64.66000 -1.329
64.68000 0.221
64.70000 2.764
64.72000 0.906
64.74000 -2.169
64.76000 2.547
64.78000 3.909
64.80000 0.128
64.82000 4.224
64.84000 0.157
64.86000 -1.775
64.88000 -0.661
64.90000 -1.158
64.92000 0.716
64.94000 -1.294
64.96000 4.400
64.98000 4.067
65.00000 1.900
65.02000 1.807
65.04000 0.642
65.06000 -0.216
65.08000 3.211
65.10000 4.603
65.12000 1.909
65.14000 -0.059
65.16000 -1.935
65.18000 0.045
65.20000 -2.688
65.22000 0.819
65.24000 2.670
65.26000 1.735
65.28000 0.438
65.30000 3.208
65.32000 -0.319
65.34000 2.302
65.36000 3.451
65.38000 4.378
65.40000 3.941
65.42000 4.265
65.44000 2.013
65.46000 2.056
65.48000 -1.024
65.50000 2.285
65.52000 7.912
65.54000 6.110
65.56000 6.655
65.58000 2.905
65.60000 1.066
65.62000 -2.345
65.64000 1.147
65.66000 5.819
65.68000 7.549
65.70000 4.593
65.72000 1.523
65.74000 1.772
65.76000 -1.019
65.78000 -0.819
65.80000 -0.598
65.82000 2.142
65.84000 -0.066
65.86000 -2.686
65.88000 -2.552
65.90000 1.000
65.92000 0.555
65.94000 0.905
65.96000 1.200
65.98000 4.731
66.00000 3.615
66.02000 -2.586
66.04000 -1.182
66.06000 0.657
66.08000 2.588
66.10000 0.735
66.12000 2.427
66.14000 4.639
66.16000 5.574
66.18000 4.083
66.20000 1.769
66.22000 2.354
66.24000 6.198
66.26000 5.215
66.28000 4.845
66.30000 4.375
66.32000 2.325
66.34000 0.941
66.36000 -2.231
66.38000 -2.719
66.40000 0.610
66.42000 3.065
66.44000 2.436
66.46000 -0.356
66.48000 3.805
66.50000 5.752
66.52000 6.747
66.54000 0.275
66.56000 -0.911
66.58000 -2.737
66.60000 -1.108
66.62000 2.661
66.64000 3.623
66.66000 0.761
66.68000 0.906
66.70000 5.602
66.72000 1.703
66.74000 -2.219
66.76000 1.661
66.78000 3.962
66.80000 3.704
66.82000 1.405
66.84000 -0.124
66.86000 1.367
66.88000 0.643
66.90000 3.880
66.92000 3.100
66.94000 4.185
66.96000 4.516
66.98000 2.716
67.00000 4.896
67.02000 0.175
67.04000 -0.412
67.06000 3.434
67.08000 5.547
67.10000 3.831
67.12000 2.676
67.14000 4.132
67.16000 2.790
67.18000 3.581
67.20000 3.718
67.22000 8.505
67.24000 8.856
67.26000 5.145
67.28000 6.579
67.30000 3.365
67.32000 8.025
67.34000 8.997
67.36000 3.880
67.38000 5.634
67.40000 3.624
67.42000 3.470
67.44000 5.285
67.46000 4.850
67.48000 2.878
67.50000 3.722
67.52000 4.614
67.54000 5.426
67.56000 7.515
67.58000 9.959
67.60000 10.658
67.62000 6.185
67.64000 8.951
67.66000 9.437
67.68000 11.968
67.70000 10.549
67.72000 13.167
67.74000 7.608
67.76000 12.698
67.78000 16.385
67.80000 10.807
67.82000 13.801
67.84000 13.172
67.86000 11.215
67.88000 13.796
67.90000 15.688
67.92000 14.745
67.94000 18.619
67.96000 16.367
67.98000 14.127
68.00000 13.986
68.02000 13.915
68.04000 13.898
68.06000 11.262
68.08000 13.207
68.10000 18.247
68.12000 21.234
68.14000 23.429
68.16000 21.762
68.18000 19.356
68.20000 18.999
68.22000 17.349
68.24000 19.322
68.26000 22.549
68.28000 21.050
68.30000 19.232
68.32000 24.981
68.34000 24.100
68.36000 25.850
68.38000 24.062
68.40000 22.601
68.42000 25.809
68.44000 27.770
68.46000 26.364
68.48000 24.950
68.50000 25.093
68.52000 24.774
68.54000 26.159
68.56000 28.994
68.58000 29.003
68.60000 21.810
68.62000 24.459
68.64000 32.158
68.66000 32.599
68.68000 29.535
68.70000 25.848
68.72000 25.335
68.74000 26.048
68.76000 25.543
68.78000 21.688
68.80000 23.783
68.82000 24.536
68.84000 29.595
68.86000 23.850
68.88000 24.615
68.90000 27.199
68.92000 22.453
68.94000 19.649
68.96000 21.558
68.98000 25.457
69.00000 23.189
69.02000 20.135
69.04000 19.704
69.06000 24.151
69.08000 24.919
69.10000 22.487
69.12000 16.768
69.14000 16.674
69.16000 16.480
69.18000 17.032
69.20000 20.780
69.22000 16.413
69.24000 15.842
69.26000 17.712
69.28000 17.321
69.30000 19.296
69.32000 16.136
69.34000 15.920
69.36000 13.469
69.38000 14.548
69.40000 14.426
69.42000 6.735
69.44000 4.534
69.46000 10.727
69.48000 12.735
69.50000 14.438
69.52000 11.473
69.54000 7.517
69.56000 8.510
69.58000 9.166
69.60000 6.463
69.62000 4.401
69.64000 4.992
69.66000 8.292
69.68000 7.105
69.70000 4.719
69.72000 6.544
69.74000 1.573
69.76000 -0.291
69.78000 5.140
69.80000 6.042
69.82000 2.482
69.84000 2.370
69.86000 4.641
69.88000 3.007
69.90000 1.763
69.92000 1.535
69.94000 0.892
69.96000 3.982
69.98000 3.619
70.00000 3.558
70.02000 3.269
70.04000 7.533
70.06000 3.561
70.08000 -2.701
70.10000 -2.606
70.12000 1.355
70.14000 3.067
70.16000 1.386
70.18000 1.621
70.20000 1.233
70.22000 -1.132
70.24000 2.610
70.26000 1.511
70.28000 -1.540
70.30000 3.831
70.32000 3.933
70.34000 3.123
70.36000 4.170
70.38000 1.043
70.40000 0.263
70.42000 2.518
70.44000 2.897
70.46000 2.592
70.48000 10.046
70.50000 7.341
70.52000 1.617
70.54000 0.442
70.56000 2.258
70.58000 4.189
70.60000 1.195
70.62000 0.657
70.64000 -0.141
70.66000 -0.177
70.68000 -1.462
70.70000 7.177
70.72000 8.592
70.74000 4.514
70.76000 0.261
70.78000 2.044
70.80000 2.260
70.82000 5.550
70.84000 9.027
70.86000 6.212
70.88000 -2.575
70.90000 -0.955
70.92000 1.503
70.94000 4.441
70.96000 5.871
70.98000 4.532
71.00000 2.593
71.02000 1.016
71.04000 1.569
71.06000 2.583
71.08000 5.700
71.10000 4.045
71.12000 2.853
71.14000 4.641
71.16000 5.082
71.18000 4.020
71.20000 3.339
71.22000 1.584
71.24000 2.809
71.26000 0.564
71.28000 4.163
71.30000 8.681
71.32000 4.152
71.34000 1.802
71.36000 3.870
71.38000 4.253
71.40000 4.791
71.42000 0.336
71.44000 5.647
71.46000 1.877
71.48000 1.957
71.50000 6.317
71.52000 4.649
71.54000 5.635
71.56000 5.878
71.58000 4.712
71.60000 1.493
71.62000 -2.540
71.64000 -2.238
71.66000 3.084
71.68000 7.125
71.70000 5.615
71.72000 6.154
71.74000 -0.155
71.76000 0.401
71.78000 1.558
71.80000 6.054
71.82000 6.958
71.84000 5.091
71.86000 3.724
71.88000 0.538
71.90000 2.372
71.92000 3.696
71.94000 3.381
71.96000 -0.445
71.98000 -1.456
72.00000 5.730
72.02000 6.476
72.04000 5.577
72.06000 4.168
72.08000 0.122
72.10000 0.902
72.12000 -0.299
72.14000 2.837
72.16000 0.939
72.18000 2.546
72.20000 6.157
72.22000 3.963
72.24000 4.122
72.26000 -0.008
72.28000 -2.481
72.30000 0.932
72.32000 3.885
72.34000 8.298
72.36000 10.608
72.38000 9.577
72.40000 10.518
72.42000 5.343
72.44000 4.226
72.46000 3.816
72.48000 5.967
72.50000 4.513
72.52000 4.712
72.54000 3.345
72.56000 4.667
72.58000 1.437
72.60000 -0.696
72.62000 3.215
72.64000 2.197
72.66000 9.473
72.68000 8.017
72.70000 -0.143
72.72000 2.236
72.74000 2.414
72.76000 0.727
72.78000 2.131
72.80000 3.035
72.82000 -0.860
72.84000 1.080
72.86000 -2.481
72.88000 -0.152
72.90000 7.269
72.92000 1.672
72.94000 0.252
72.96000 -2.479
72.98000 4.083
73.00000 6.200
73.02000 6.019
73.04000 4.224
73.06000 3.591
73.08000 7.161
73.10000 3.730
73.12000 5.378
73.14000 5.888
73.16000 7.948
73.18000 6.253
73.20000 -1.304
73.22000 -2.288
73.24000 1.192
73.26000 3.436
73.28000 6.230
73.30000 3.588
73.32000 3.152
73.34000 2.974
73.36000 3.540
73.38000 8.249
73.40000 5.813
73.42000 4.610
73.44000 2.564
73.46000 1.940
73.48000 2.045
73.50000 2.493
73.52000 7.698
73.54000 3.812
73.56000 3.759
73.58000 6.911
73.60000 3.367
73.62000 6.271
73.64000 6.911
73.66000 1.227
73.68000 -0.032
73.70000 2.020
73.72000 8.460
73.74000 9.824
73.76000 3.198
73.78000 2.716
73.80000 -2.439
73.82000 -0.278
73.84000 1.285
73.86000 6.295
73.88000 11.381
73.90000 5.445
73.92000 3.492
73.94000 10.333
73.96000 5.270
73.98000 2.932
74.00000 2.346
74.02000 4.255
74.04000 5.410
74.06000 7.140
74.08000 7.703
74.10000 8.791
74.12000 6.310
74.14000 1.683
74.16000 4.115
74.18000 3.902
74.20000 2.407
74.22000 1.890
74.24000 -0.117
74.26000 -1.295
74.28000 4.239
74.30000 5.613
74.32000 5.669
74.34000 4.103
74.36000 3.380
74.38000 2.662
74.40000 6.401
74.42000 -0.031
74.44000 -0.087
74.46000 3.536
74.48000 3.540
74.50000 7.668
74.52000 3.923
74.54000 5.597
74.56000 2.513
74.58000 3.178
74.60000 0.579
74.62000 1.931
74.64000 -0.594
74.66000 -1.978
74.68000 0.352
74.70000 4.379
74.72000 -0.372
74.74000 2.137
74.76000 2.634
74.78000 7.430
74.80000 5.758
74.82000 4.767
74.84000 0.780
74.86000 5.173
74.88000 1.167
74.90000 2.162
74.92000 9.466
74.94000 7.034
74.96000 4.123
74.98000 2.511
75.00000 0.133
75.02000 -1.269
75.04000 -2.440
75.06000 2.295
75.08000 3.152
75.10000 0.503
75.12000 -0.769
75.14000 -0.053
75.16000 0.099
75.18000 7.332
75.20000 10.223
75.22000 4.934
75.24000 -1.479
75.26000 -0.664
75.28000 5.653
75.30000 4.424
75.32000 3.466
75.34000 -0.782
75.36000 1.033
75.38000 8.033
75.40000 7.139
75.42000 1.313
75.44000 1.112
75.46000 2.588
75.48000 -0.130
75.50000 -0.361
75.52000 1.679
75.54000 5.627
75.56000 5.324
75.58000 4.456
75.60000 1.257
75.62000 -0.851
75.64000 -1.091
75.66000 -1.915
75.68000 0.569
75.70000 8.400
75.72000 4.096
75.74000 1.923
75.76000 -1.207
75.78000 -0.962
75.80000 0.036
75.82000 0.173
75.84000 -0.125
75.86000 3.171
75.88000 3.583
75.90000 5.472
75.92000 4.184
75.94000 3.103
75.96000 3.773
75.98000 3.161
76.00000 4.357
76.02000 4.226
76.04000 2.255
76.06000 0.066
76.08000 5.191
76.10000 2.821
76.12000 5.273
76.14000 3.088
76.16000 2.508
76.18000 -0.459
76.20000 3.952
76.22000 6.068
76.24000 7.446
76.26000 4.237
76.28000 -1.522
76.30000 0.650
76.32000 1.420
76.34000 -0.960
76.36000 3.497
76.38000 4.153
76.40000 3.819
76.42000 1.522
76.44000 3.317
76.46000 6.772
76.48000 2.111
76.50000 1.012
76.52000 -2.496
76.54000 1.691
76.56000 1.470
76.58000 -2.380
76.60000 0.317
76.62000 0.845
76.64000 5.457
76.66000 8.310
76.68000 8.447
76.70000 4.725
76.72000 0.737
76.74000 0.253
76.76000 -2.497
76.78000 2.088
76.80000 4.583
76.82000 6.983
76.84000 0.608
76.86000 6.276
76.88000 5.268
76.90000 6.511
76.92000 4.215
76.94000 -0.972
76.96000 -1.364
76.98000 3.394
77.00000 3.246
77.02000 3.387
77.04000 4.066
77.06000 7.091
77.08000 2.944
77.10000 -0.897
77.12000 6.287
77.14000 8.557
77.16000 2.633
77.18000 4.192
77.20000 4.712
77.22000 6.523
77.24000 3.738
77.26000 -0.750
77.28000 -0.550
77.30000 1.110
77.32000 1.908
77.34000 4.923
77.36000 4.407
77.38000 4.048
77.40000 3.570
77.42000 2.125
77.44000 0.971
77.46000 2.495
77.48000 4.505
77.50000 1.787
77.52000 6.856
77.54000 8.740
77.56000 4.495
77.58000 4.662
77.60000 3.044
77.62000 1.379
77.64000 4.350
77.66000 -0.160
77.68000 1.700
77.70000 0.354
77.72000 4.168
77.74000 4.878
77.76000 6.307
77.78000 -0.083
77.80000 6.049
77.82000 5.423
77.84000 4.282
77.86000 5.557
77.88000 7.366
77.90000 4.876
77.92000 -1.510
77.94000 2.789
77.96000 2.037
77.98000 7.481
78.00000 1.474
78.02000 -0.052
78.04000 0.511
78.06000 5.020
78.08000 2.804
78.10000 1.388
78.12000 -1.928
78.14000 4.996
78.16000 7.825
78.18000 8.653
78.20000 8.464
78.22000 2.231
78.24000 3.812
78.26000 1.571
78.28000 0.845
78.30000 2.911
78.32000 5.418
78.34000 1.387
78.36000 1.620
78.38000 1.788
78.40000 -0.005
78.42000 5.132
78.44000 4.599
78.46000 4.316
78.48000 11.085
78.50000 5.679
78.52000 1.443
78.54000 2.503
78.56000 5.841
78.58000 4.877
78.60000 3.297
78.62000 4.754
78.64000 4.903
78.66000 11.378
78.68000 9.616
78.70000 6.845
78.72000 6.494
78.74000 4.093
78.76000 10.679
78.78000 -0.176
78.80000 -2.453
78.82000 2.097
78.84000 5.096
78.86000 2.854
78.88000 7.892
78.90000 9.342
78.92000 4.281
78.94000 4.912
78.96000 8.477
78.98000 6.195
79.00000 7.006
79.02000 6.364
79.04000 8.705
79.06000 6.421
79.08000 5.667
79.10000 8.591
79.12000 6.992
79.14000 5.158
79.16000 2.493
79.18000 3.899
79.20000 6.645
79.22000 11.685
79.24000 8.559
79.26000 8.098
79.28000 10.955
79.30000 10.013
79.32000 12.593
79.34000 16.359
79.36000 12.874
79.38000 10.751
79.40000 7.815
79.42000 5.694
79.44000 10.326
79.46000 8.502
79.48000 6.278
79.50000 12.748
79.52000 12.074
79.54000 13.907
79.56000 12.723
79.58000 0.860
79.60000 -2.469
79.62000 -0.072
79.64000 4.040
79.66000 9.758
79.68000 9.268
79.70000 6.907
79.72000 10.118
79.74000 12.355
79.76000 10.668
79.78000 12.053
79.80000 7.685
79.82000 6.667
79.84000 5.004
79.86000 6.459
79.88000 1.266
79.90000 -2.494
79.92000 3.249
79.94000 5.545
79.96000 9.392
79.98000 9.072
80.00000 13.053
80.02000 8.586
80.04000 5.162
80.06000 9.572
80.08000 10.758
80.10000 4.150
80.12000 6.896
80.14000 6.360
80.16000 3.567
80.18000 7.693
80.20000 9.393
80.22000 3.769
80.24000 4.641
80.26000 6.381
80.28000 4.995
80.30000 11.403
80.32000 7.913
80.34000 4.046
80.36000 8.508
80.38000 10.063
80.40000 7.921
80.42000 7.656
80.44000 3.199
80.46000 -0.109
80.48000 -2.566
80.50000 -0.366
80.52000 3.974
80.54000 3.944
80.56000 6.260
80.58000 10.314
80.60000 9.916
80.62000 7.220
80.64000 6.440
80.66000 6.779
80.68000 3.479
80.70000 1.814
80.72000 5.097
80.74000 9.537
80.76000 10.945
80.78000 6.068
80.80000 2.449
80.82000 -2.612
80.84000 1.323
80.86000 4.912
80.88000 8.349
80.90000 2.637
80.92000 2.941
80.94000 1.198
80.96000 4.063
80.98000 7.234
81.00000 2.012
81.02000 1.084
81.04000 5.852
81.06000 5.997
81.08000 6.360
81.10000 6.013
81.12000 7.967
81.14000 11.933
81.16000 11.909
81.18000 10.013
81.20000 5.420
81.22000 4.909
81.24000 11.991
81.26000 11.290
81.28000 4.130
81.30000 0.840
81.32000 2.822
81.34000 3.182
81.36000 5.928
81.38000 10.177
81.40000 10.284
81.42000 6.519
81.44000 9.583
81.46000 8.618
81.48000 7.011
81.50000 13.573
81.52000 13.344
81.54000 13.297
81.56000 8.738
81.58000 7.828
81.60000 10.368
81.62000 8.670
81.64000 10.753
81.66000 6.190
81.68000 8.473
81.70000 11.026
81.72000 12.480
81.74000 9.593
81.76000 4.464
81.78000 9.797
81.80000 10.282
81.82000 8.863
81.84000 16.563
81.86000 20.879
81.88000 22.014
81.90000 11.437
81.92000 12.388
81.94000 14.414
81.96000 14.701
81.98000 14.881
82.00000 19.233
82.02000 14.495
82.04000 10.598
82.06000 15.178
82.08000 17.238
82.10000 21.761
82.12000 15.072
82.14000 10.408
82.16000 13.702
82.18000 13.008
82.20000 15.435
82.22000 19.633
82.24000 18.610
82.26000 22.977
82.28000 26.931
82.30000 22.984
82.32000 30.324
82.34000 26.425
82.36000 20.824
82.38000 25.283
82.40000 23.036
82.42000 20.035
82.44000 19.812
82.46000 23.158
82.48000 22.177
82.50000 22.116
82.52000 25.399
82.54000 21.773
82.56000 23.005
82.58000 24.958
82.60000 18.788
82.62000 24.444
82.64000 29.725
82.66000 31.938
82.68000 23.753
82.70000 21.013
82.72000 24.173
82.74000 18.751
82.76000 17.735
82.78000 29.759
82.80000 27.150
82.82000 26.973
82.84000 31.517
82.86000 28.740
82.88000 30.756
82.90000 24.941
82.92000 24.930
82.94000 27.132
82.96000 24.774
82.98000 32.188
83.00000 30.402
83.02000 28.828
83.04000 27.028
83.06000 34.893
83.08000 34.240
83.10000 25.407
83.12000 28.246
83.14000 24.423
83.16000 28.296
83.18000 27.914
83.20000 30.667
83.22000 31.940
83.24000 35.750
83.26000 33.531
83.28000 27.296
83.30000 24.452
83.32000 23.275
83.34000 19.731
83.36000 19.065
83.38000 28.236
83.40000 26.131
83.42000 24.430
83.44000 24.204
83.46000 26.386
83.48000 26.161
83.50000 21.714
83.52000 20.442
83.54000 17.582
83.56000 24.872
83.58000 22.807
83.60000 18.271
83.62000 22.065
83.64000 21.764
83.66000 24.264
83.68000 20.319
83.70000 18.276
83.72000 14.757
83.74000 16.354
83.76000 18.728
83.78000 19.696
83.80000 15.806
83.82000 16.507
83.84000 17.237
83.86000 18.767
83.88000 18.852
83.90000 16.103
83.92000 11.357
83.94000 10.009
83.96000 11.222
83.98000 13.586
84.00000 12.841
84.02000 10.857
84.04000 10.361
84.06000 6.936
84.08000 7.397
84.10000 9.106
84.12000 10.428
84.14000 8.308
84.16000 6.612
84.18000 14.476
84.20000 14.090
84.22000 8.212
84.24000 5.547
84.26000 4.777
84.28000 5.482
84.30000 6.052
84.32000 7.500
84.34000 13.202
84.36000 9.250
84.38000 10.422
84.40000 7.301
84.42000 5.771
84.44000 5.730
84.46000 4.069
84.48000 2.693
84.50000 2.868
84.52000 4.280
84.54000 4.909
84.56000 3.732
84.58000 4.789
84.60000 2.316
84.62000 -1.953
84.64000 -2.450
84.66000 0.363
84.68000 -2.637
84.70000 2.064
84.72000 5.924
84.74000 0.813
84.76000 3.367
84.78000 5.076
84.80000 3.112
84.82000 11.439
84.84000 9.976
84.86000 4.203
84.88000 1.575
84.90000 2.346
84.92000 0.841
84.94000 4.981
84.96000 1.424
84.98000 -1.620
85.00000 1.085
85.02000 2.424
85.04000 0.532
85.06000 2.264
85.08000 3.705
85.10000 -1.383
85.12000 -1.441
85.14000 -2.065
85.16000 5.918
85.18000 7.905
85.20000 7.783
85.22000 2.420
85.24000 -2.584
85.26000 3.930
85.28000 2.447
85.30000 -1.934
85.32000 1.189
85.34000 0.547
85.36000 1.317
85.38000 3.329
85.40000 2.217
85.42000 -1.578
85.44000 2.106
85.46000 2.446
85.48000 1.936
85.50000 -0.082
85.52000 1.425
85.54000 2.213
85.56000 -0.695
85.58000 -2.342
85.60000 -1.771
85.62000 0.634
85.64000 -0.802
85.66000 -1.239
85.68000 1.373
85.70000 0.021
85.72000 -1.197
85.74000 -2.176
85.76000 4.161
85.78000 1.639
85.80000 -1.209
85.82000 1.369
85.84000 -0.209
85.86000 0.442
85.88000 0.575
85.90000 -2.272
85.92000 -2.632
85.94000 -1.556
85.96000 4.450
85.98000 3.043
86.00000 3.028
86.02000 0.945
86.04000 1.955
86.06000 1.725
86.08000 0.214
86.10000 0.001
86.12000 0.230
86.14000 0.182
86.16000 0.143
86.18000 -0.241
86.20000 3.842
86.22000 7.269
86.24000 5.123
86.26000 6.781
86.28000 1.998
86.30000 6.951
86.32000 14.822
86.34000 8.272
86.36000 8.837
86.38000 8.601
86.40000 6.056
86.42000 7.884
86.44000 11.745
86.46000 4.764
86.48000 3.121
86.50000 2.794
86.52000 3.048
86.54000 6.490
86.56000 1.936
86.58000 6.806
86.60000 10.329
86.62000 9.956
86.64000 6.595
86.66000 5.085
86.68000 5.175
86.70000 7.116
86.72000 3.934
86.74000 4.465
86.76000 10.888
86.78000 15.347
86.80000 14.678
86.82000 16.921
86.84000 14.930
86.86000 14.230
86.88000 14.352
86.90000 14.665
86.92000 18.091
86.94000 19.431
86.96000 19.190
86.98000 21.251
87.00000 21.973
87.02000 21.990
87.04000 24.080
87.06000 23.446
87.08000 18.326
87.10000 15.815
87.12000 19.325
87.14000 17.323
87.16000 22.929
87.18000 23.306
87.20000 21.137
87.22000 18.128
87.24000 20.619
87.26000 21.848
87.28000 16.795
87.30000 22.781
87.32000 24.115
87.34000 26.336
87.36000 23.149
87.38000 21.823
87.40000 20.429
87.42000 18.001
87.44000 18.829
87.46000 23.474
87.48000 28.132
87.50000 29.278
87.52000 30.579
87.54000 27.066
87.56000 23.149
87.58000 24.884
87.60000 29.136
87.62000 28.033
87.64000 27.098
87.66000 17.963
87.68000 20.159
87.70000 20.119
87.72000 25.827
87.74000 22.050
87.76000 18.697
87.78000 27.228
87.80000 25.555
87.82000 23.662
87.84000 25.146
87.86000 22.218
87.88000 15.145
87.90000 14.572
87.92000 18.522
87.94000 18.739
87.96000 17.740
87.98000 12.145
88.00000 11.494
88.02000 11.886
88.04000 14.569
88.06000 15.507
88.08000 9.617
88.10000 9.740
88.12000 17.965
88.14000 15.262
88.16000 6.351
88.18000 13.130
88.20000 13.885
88.22000 14.834
88.24000 12.355
88.26000 7.014
88.28000 6.707
88.30000 15.692
88.32000 12.949
88.34000 12.111
88.36000 12.255
88.38000 11.649
88.40000 9.028
88.42000 9.436
88.44000 11.065
88.46000 10.022
88.48000 1.971
88.50000 6.870
88.52000 10.223
88.54000 8.566
88.56000 3.202
88.58000 2.436
88.60000 -1.649
88.62000 -2.556
88.64000 4.407
88.66000 3.433
88.68000 4.868
88.70000 3.267
88.72000 1.730
88.74000 -0.194
88.76000 3.309
88.78000 6.373
88.80000 0.141
88.82000 1.134
88.84000 3.848
88.86000 -0.916
88.88000 0.902
88.90000 -0.245
88.92000 -1.954
88.94000 2.211
88.96000 -0.565
88.98000 0.329
89.00000 0.981
89.02000 -1.926
89.04000 -0.781
89.06000 6.793
89.08000 0.753
89.10000 -1.029
89.12000 -2.301
89.14000 -2.232
89.16000 5.839
89.18000 8.812
89.20000 5.199
89.22000 1.319
89.24000 3.289
89.26000 -1.972
89.28000 -1.001
89.30000 4.092
89.32000 5.068
89.34000 0.356
89.36000 1.431
89.38000 2.068
89.40000 3.668
89.42000 1.145
89.44000 -2.437
89.46000 -1.664
89.48000 1.608
89.50000 2.226
89.52000 -1.631
89.54000 3.941
89.56000 4.914
89.58000 4.604
89.60000 -1.261
89.62000 -1.050
89.64000 1.736
89.66000 2.277
89.68000 -1.140
89.70000 2.931
89.72000 2.704
89.74000 0.593
89.76000 1.417
89.78000 0.911
89.80000 -0.612
89.82000 2.912
89.84000 6.448
89.86000 4.564
89.88000 2.365
89.90000 7.382
89.92000 4.662
89.94000 5.589
89.96000 6.630
89.98000 7.548
90.00000 5.410
90.02000 3.797
90.04000 5.020
90.06000 1.180
90.08000 1.574
90.10000 6.040
90.12000 3.234
90.14000 -1.401
90.16000 -2.359
90.18000 2.348
90.20000 2.234
90.22000 2.783
90.24000 1.287
90.26000 2.453
90.28000 5.797
90.30000 8.158
90.32000 0.336
90.34000 -0.171
90.36000 1.032
90.38000 0.605
90.40000 3.533
90.42000 4.982
90.44000 6.492
90.46000 2.665
90.48000 3.939
90.50000 3.996
90.52000 1.517
90.54000 5.268
90.56000 5.045
90.58000 3.558
90.60000 5.610
90.62000 11.032
90.64000 10.165
90.66000 6.614
90.68000 8.254
90.70000 3.119
90.72000 1.228
90.74000 5.000
90.76000 8.992
90.78000 5.224
90.80000 5.105
90.82000 5.022
90.84000 4.030
90.86000 5.565
90.88000 -0.028
90.90000 2.629
90.92000 4.890
90.94000 4.515
90.96000 9.317
90.98000 4.864
91.00000 6.671
91.02000 8.427
91.04000 3.656
91.06000 6.265
91.08000 6.333
91.10000 2.113
91.12000 0.816
91.14000 5.798
91.16000 9.960
91.18000 2.361
91.20000 -2.234
91.22000 1.968
91.24000 7.471
91.26000 5.657
91.28000 10.037
91.30000 13.087
91.32000 10.446
91.34000 6.682
91.36000 6.621
91.38000 8.183
91.40000 7.502
91.42000 7.371
91.44000 5.949
91.46000 3.457
91.48000 6.958
91.50000 11.920
91.52000 5.359
91.54000 6.069
91.56000 6.918
91.58000 6.793
91.60000 4.966
91.62000 2.203
91.64000 1.645
91.66000 2.713
91.68000 3.126
91.70000 7.158
91.72000 5.156
91.74000 4.342
91.76000 3.829
91.78000 2.610
91.80000 7.035
91.82000 6.990
91.84000 10.455
91.86000 6.003
91.88000 6.982
91.90000 9.690
91.92000 6.652
91.94000 5.657
91.96000 6.945
91.98000 7.416
92.00000 3.189
92.02000 3.286
92.04000 6.047
92.06000 7.573
92.08000 8.432
92.10000 7.410
92.12000 2.211
92.14000 2.729
92.16000 5.694
92.18000 6.646
92.20000 3.208
92.22000 5.911
92.24000 6.660
92.26000 4.593
92.28000 8.292
92.30000 4.917
92.32000 6.854
92.34000 13.737
92.36000 11.294
92.38000 11.556
92.40000 7.927
92.42000 0.070
92.44000 2.467
92.46000 5.762
92.48000 8.438
92.50000 3.937
92.52000 8.063
92.54000 7.310
92.56000 6.032
92.58000 8.507
92.60000 7.789
92.62000 8.292
92.64000 8.031
92.66000 6.692
92.68000 0.368
92.70000 6.331
92.72000 4.540
92.74000 9.118
92.76000 7.212
92.78000 -2.333
92.80000 0.123
92.82000 0.090
92.84000 6.479
92.86000 9.194
92.88000 6.748
92.90000 9.597
92.92000 8.556
92.94000 3.309
92.96000 5.612
92.98000 5.988
93.00000 4.164
93.02000 1.312
93.04000 -0.449
93.06000 4.325
93.08000 4.839
93.10000 4.070
93.12000 6.013
93.14000 7.389
93.16000 1.190
93.18000 3.544
93.20000 4.920
93.22000 8.414
93.24000 5.222
93.26000 3.286
93.28000 3.380
93.30000 4.246
93.32000 3.076
93.34000 2.583
93.36000 6.772
93.38000 10.928
93.40000 7.710
93.42000 3.046
93.44000 7.793
93.46000 4.349
93.48000 2.196
93.50000 5.393
93.52000 1.970
93.54000 -2.334
93.56000 1.630
93.58000 4.792
93.60000 6.589
93.62000 7.303
93.64000 7.013
93.66000 8.795
93.68000 2.921
93.70000 6.045
93.72000 3.714
93.74000 3.554
93.76000 -2.104
93.78000 -0.631
93.80000 1.685
93.82000 0.728
93.84000 3.950
93.86000 1.363
93.88000 1.576
93.90000 3.518
93.92000 4.672
93.94000 4.630
93.96000 8.646
93.98000 6.500
94.00000 2.239
94.02000 -1.641
94.04000 6.378
94.06000 5.029
94.08000 1.232
94.10000 -0.733
94.12000 2.690
94.14000 4.006
94.16000 5.335
94.18000 4.386
94.20000 4.287
94.22000 4.307
94.24000 3.209
94.26000 8.617
94.28000 2.059
94.30000 3.614
94.32000 2.377
94.34000 6.421
94.36000 5.730
94.38000 7.967
94.40000 2.672
94.42000 1.214
94.44000 1.199
94.46000 -1.810
94.48000 -1.030
94.50000 4.002
94.52000 2.908
94.54000 4.089
94.56000 3.198
94.58000 2.601
94.60000 -0.644
94.62000 -1.483
94.64000 7.662
94.66000 5.079
94.68000 5.684
94.70000 12.331
94.72000 14.627
94.74000 7.775
94.76000 2.287
94.78000 -2.323
94.80000 0.584
94.82000 4.567
94.84000 2.858
94.86000 7.265
94.88000 8.759
94.90000 5.328
94.92000 8.902
94.94000 7.308
94.96000 4.690
94.98000 5.069
95.00000 -0.054
95.02000 7.710
95.04000 8.315
95.06000 4.008
95.08000 2.287
95.10000 -0.101
95.12000 6.765
95.14000 5.388
95.16000 1.289
95.18000 0.929
95.20000 4.368
95.22000 2.131
95.24000 3.262
95.26000 4.778
95.28000 8.130
95.30000 4.960
95.32000 6.263
95.34000 6.679
95.36000 11.389
95.38000 10.401
95.40000 9.045
95.42000 14.598
95.44000 7.687
95.46000 -0.185
95.48000 1.441
95.50000 2.700
95.52000 8.492
95.54000 8.126
95.56000 6.677
95.58000 2.248
95.60000 4.024
95.62000 5.507
95.64000 1.083
95.66000 -2.340
95.68000 2.088
95.70000 -0.395
95.72000 4.608
95.74000 5.783
95.76000 12.047
95.78000 6.642
95.80000 2.664
95.82000 1.625
95.84000 6.276
95.86000 7.899
95.88000 2.043
95.90000 4.161
95.92000 5.096
95.94000 5.303
95.96000 5.614
95.98000 8.324
96.00000 10.365
96.02000 12.440
96.04000 7.896
96.06000 2.058
96.08000 0.982
96.10000 8.636
96.12000 11.430
96.14000 11.892
96.16000 7.674
96.18000 8.520
96.20000 5.268
96.22000 6.980
96.24000 6.651
96.26000 6.230
96.28000 4.896
96.30000 16.457
96.32000 13.103
96.34000 7.274
96.36000 10.172
96.38000 9.529
96.40000 11.872
96.42000 9.977
96.44000 7.829
96.46000 2.977
96.48000 2.232
96.50000 0.805
96.52000 9.517
96.54000 9.953
96.56000 6.338
96.58000 2.504
96.60000 0.224
96.62000 -2.080
96.64000 -2.317
96.66000 4.783
96.68000 9.240
96.70000 4.515
96.72000 7.834
96.74000 4.485
96.76000 5.249
96.78000 4.420
96.80000 10.307
96.82000 8.694
96.84000 5.626
96.86000 3.983
96.88000 3.588
96.90000 5.671
96.92000 7.425
96.94000 14.421
96.96000 12.742
96.98000 4.157
97.00000 3.887
97.02000 10.289
97.04000 5.617
97.06000 1.609
97.08000 0.345
97.10000 2.645
97.12000 -1.770
97.14000 -1.105
97.16000 5.899
97.18000 6.717
97.20000 10.795
97.22000 10.546
97.24000 6.815
97.26000 10.717
97.28000 6.377
97.30000 6.144
97.32000 1.188
97.34000 -0.098
97.36000 4.294
97.38000 7.302
97.40000 5.636
97.42000 4.720
97.44000 0.485
97.46000 5.030
97.48000 3.346
97.50000 0.479
97.52000 1.604
97.54000 9.139
97.56000 3.835
97.58000 4.613
97.60000 8.346
97.62000 4.579
97.64000 1.261
97.66000 3.948
97.68000 2.904
97.70000 4.495
97.72000 3.866
97.74000 9.010
97.76000 6.292
97.78000 5.408
97.80000 0.133
97.82000 -2.319
97.84000 2.330
97.86000 0.291
97.88000 4.062
97.90000 3.458
97.92000 -0.621
97.94000 -0.109
97.96000 1.756
97.98000 3.506
98.00000 0.689
98.02000 -2.315
98.04000 -2.118
98.06000 6.912
98.08000 8.546
98.10000 7.310
98.12000 6.051
98.14000 4.140
98.16000 5.583
98.18000 5.941
98.20000 8.418
98.22000 6.486
98.24000 -1.197
98.26000 1.326
98.28000 4.699
98.30000 1.319
98.32000 4.796
98.34000 13.807
98.36000 5.591
98.38000 6.122
98.40000 4.853
98.42000 7.168
98.44000 7.480
98.46000 0.914
98.48000 5.839
98.50000 1.542
98.52000 3.681
98.54000 1.534
98.56000 -2.320
98.58000 3.669
98.60000 3.399
98.62000 6.886
98.64000 11.578
98.66000 5.739
98.68000 5.409
98.70000 12.452
98.72000 9.321
98.74000 11.602
98.76000 1.527
98.78000 -2.140
98.80000 7.974
98.82000 13.799
98.84000 9.318
98.86000 0.954
98.88000 9.989
98.90000 11.015
98.92000 9.390
98.94000 10.401
98.96000 5.509
98.98000 5.330
99.00000 4.288
99.02000 -2.077
99.04000 -2.305
99.06000 6.397
99.08000 7.927
99.10000 4.470
99.12000 6.812
99.14000 9.837
99.16000 2.223
99.18000 6.254
99.20000 8.647
99.22000 5.566
99.24000 2.802
99.26000 0.513
99.28000 5.766
99.30000 6.491
99.32000 3.140
99.34000 7.870
99.36000 9.369
99.38000 12.420
99.40000 3.307
99.42000 0.894
99.44000 8.292
99.46000 8.194
99.48000 -3.213
99.50000 3.526
99.52000 6.151
99.54000 6.563
99.56000 9.504
99.58000 0.652
99.60000 12.956
99.62000 8.532
99.64000 4.881
99.66000 3.308
99.68000 -0.747
99.70000 -1.363
99.72000 7.433
99.74000 6.171
99.76000 -2.306
99.78000 4.210
99.80000 14.209
99.82000 7.925
99.84000 6.950
99.86000 -0.919
99.88000 7.927
99.90000 12.661
99.92000 11.168
99.94000 3.506
99.96000 -2.420
99.98000 0.000
