'Id: "0011389" Comment: "Integrate frame 0011389_Au-Ir-Rh_Au-Rich_XRD_Mapping-245-0000.gfrmwith cursor Wedge Cursor #5" Operator: "B?rgel" Anode: "Cu" Wavelength: "1.5406" Scantype: "2Theta (TwoTheta)" TimePerStep: "1" X: "-22.5" Y: "18" Z: "5.95" 
10.00000 0.000
10.02000 -4.583
10.04000 7.651
10.06000 6.372
10.08000 12.896
10.10000 -0.073
10.12000 2.591
10.14000 0.501
10.16000 12.806
10.18000 15.202
10.20000 8.317
10.22000 -3.813
10.24000 6.333
10.26000 21.828
10.28000 22.040
10.30000 13.291
10.32000 -4.482
10.34000 -3.491
10.36000 16.756
10.38000 14.840
10.40000 5.938
10.42000 19.196
10.44000 34.788
10.46000 25.262
10.48000 4.255
10.50000 12.172
10.52000 5.430
10.54000 -3.238
10.56000 -3.758
10.58000 16.628
10.60000 17.908
10.62000 24.299
10.64000 22.528
10.66000 21.232
10.68000 17.608
10.70000 24.696
10.72000 10.615
10.74000 10.413
10.76000 20.304
10.78000 13.408
10.80000 2.411
10.82000 -1.315
10.84000 -2.942
10.86000 -4.473
10.88000 4.870
10.90000 17.576
10.92000 16.573
10.94000 17.005
10.96000 20.085
10.98000 19.322
11.00000 25.813
11.02000 17.961
11.04000 17.527
11.06000 16.094
11.08000 7.373
11.10000 23.415
11.12000 22.730
11.14000 14.827
11.16000 0.957
11.18000 14.144
11.20000 24.979
11.22000 28.236
11.24000 30.240
11.26000 22.238
11.28000 15.154
11.30000 15.693
11.32000 29.774
11.34000 20.035
11.36000 7.590
11.38000 6.768
11.40000 8.324
11.42000 19.952
11.44000 21.548
11.46000 3.579
11.48000 2.349
11.50000 -2.854
11.52000 2.863
11.54000 15.648
11.56000 21.023
11.58000 19.165
11.60000 19.269
11.62000 14.537
11.64000 3.340
11.66000 -4.487
11.68000 10.497
11.70000 18.136
11.72000 10.351
11.74000 4.791
11.76000 0.119
11.78000 5.875
11.80000 5.478
11.82000 11.853
11.84000 16.054
11.86000 8.794
11.88000 5.418
11.90000 8.460
11.92000 15.620
11.94000 9.904
11.96000 14.641
11.98000 17.249
12.00000 16.632
12.02000 13.018
12.04000 8.521
12.06000 15.152
12.08000 19.463
12.10000 7.415
12.12000 9.071
12.14000 8.314
12.16000 7.952
12.18000 6.380
12.20000 12.694
12.22000 13.698
12.24000 14.686
12.26000 8.152
12.28000 3.408
12.30000 1.656
12.32000 11.026
12.34000 8.579
12.36000 2.849
12.38000 7.481
12.40000 10.436
12.42000 9.439
12.44000 14.332
12.46000 16.203
12.48000 17.607
12.50000 12.936
12.52000 1.751
12.54000 10.623
12.56000 15.253
12.58000 18.283
12.60000 9.763
12.62000 5.088
12.64000 10.257
12.66000 2.912
12.68000 -1.652
12.70000 1.966
12.72000 7.264
12.74000 -0.659
12.76000 3.108
12.78000 7.270
12.80000 5.980
12.82000 1.563
12.84000 1.614
12.86000 11.321
12.88000 9.289
12.90000 -0.543
12.92000 13.911
12.94000 12.814
12.96000 14.567
12.98000 12.060
13.00000 3.281
13.02000 3.068
13.04000 12.456
13.06000 12.466
13.08000 1.283
13.10000 0.702
13.12000 12.963
13.14000 18.531
13.16000 11.388
13.18000 5.168
13.20000 13.865
13.22000 6.101
13.24000 -1.654
13.26000 -1.336
13.28000 -3.361
13.30000 9.771
13.32000 14.386
13.34000 20.329
13.36000 19.886
13.38000 11.757
13.40000 16.358
13.42000 22.397
13.44000 25.557
13.46000 17.278
13.48000 17.817
13.50000 13.234
13.52000 11.315
13.54000 17.708
13.56000 21.906
13.58000 10.499
13.60000 6.585
13.62000 7.709
13.64000 4.309
13.66000 1.567
13.68000 4.537
13.70000 15.743
13.72000 5.489
13.74000 6.154
13.76000 4.843
13.78000 13.594
13.80000 14.816
13.82000 25.202
13.84000 23.278
13.86000 10.182
13.88000 4.437
13.90000 15.389
13.92000 11.333
13.94000 0.868
13.96000 7.799
13.98000 -2.321
14.00000 0.756
14.02000 -1.622
14.04000 6.296
14.06000 4.981
14.08000 2.053
14.10000 10.254
14.12000 19.841
14.14000 10.225
14.16000 5.333
14.18000 0.623
14.20000 4.423
14.22000 11.163
14.24000 7.187
14.26000 1.946
14.28000 1.805
14.30000 4.812
14.32000 4.031
14.34000 0.773
14.36000 0.222
14.38000 7.435
14.40000 7.723
14.42000 9.987
14.44000 8.142
14.46000 6.891
14.48000 1.146
14.50000 8.750
14.52000 11.886
14.54000 13.014
14.56000 0.523
14.58000 10.321
14.60000 11.443
14.62000 -1.548
14.64000 -0.438
14.66000 4.033
14.68000 -0.596
14.70000 1.735
14.72000 0.620
14.74000 -4.527
14.76000 -1.051
14.78000 1.811
14.80000 6.526
14.82000 7.806
14.84000 10.801
14.86000 5.932
14.88000 -2.389
14.90000 -2.764
14.92000 6.623
14.94000 15.155
14.96000 12.743
14.98000 8.147
15.00000 7.808
15.02000 7.269
15.04000 2.868
15.06000 2.226
15.08000 4.492
15.10000 11.538
15.12000 11.731
15.14000 12.159
15.16000 10.512
15.18000 16.627
15.20000 6.795
15.22000 5.933
15.24000 6.864
15.26000 -0.989
15.28000 6.360
15.30000 12.190
15.32000 8.134
15.34000 -0.048
15.36000 3.786
15.38000 10.058
15.40000 9.979
15.42000 12.520
15.44000 8.454
15.46000 5.141
15.48000 6.444
15.50000 11.914
15.52000 1.908
15.54000 1.946
15.56000 8.090
15.58000 9.620
15.60000 5.462
15.62000 3.404
15.64000 8.203
15.66000 10.442
15.68000 14.430
15.70000 13.659
15.72000 6.696
15.74000 7.194
15.76000 6.778
15.78000 8.816
15.80000 7.523
15.82000 7.704
15.84000 3.668
15.86000 3.770
15.88000 1.377
15.90000 -1.558
15.92000 9.395
15.94000 -4.473
15.96000 -3.572
15.98000 5.290
16.00000 9.741
16.02000 3.724
16.04000 5.055
16.06000 8.579
16.08000 9.834
16.10000 11.551
16.12000 9.132
16.14000 4.305
16.16000 8.780
16.18000 12.631
16.20000 12.892
16.22000 6.290
16.24000 2.626
16.26000 2.902
16.28000 1.334
16.30000 2.540
16.32000 2.112
16.34000 7.408
16.36000 5.402
16.38000 6.207
16.40000 5.273
16.42000 5.671
16.44000 3.994
16.46000 0.813
16.48000 2.477
16.50000 5.878
16.52000 8.907
16.54000 10.591
16.56000 3.021
16.58000 1.236
16.60000 4.805
16.62000 9.292
16.64000 6.466
16.66000 4.907
16.68000 -0.229
16.70000 6.320
16.72000 9.031
16.74000 1.206
16.76000 0.462
16.78000 -1.217
16.80000 -2.494
16.82000 -3.688
16.84000 6.279
16.86000 6.400
16.88000 6.080
16.90000 0.902
16.92000 2.864
16.94000 3.138
16.96000 4.526
16.98000 4.406
17.00000 7.791
17.02000 11.711
17.04000 7.819
17.06000 7.999
17.08000 8.183
17.10000 3.306
17.12000 1.145
17.14000 -1.923
17.16000 -1.207
17.18000 9.110
17.20000 3.449
17.22000 5.831
17.24000 7.750
17.26000 0.940
17.28000 2.417
17.30000 4.260
17.32000 5.506
17.34000 13.908
17.36000 0.093
17.38000 3.196
17.40000 0.940
17.42000 1.978
17.44000 8.323
17.46000 7.540
17.48000 11.784
17.50000 13.358
17.52000 13.956
17.54000 9.184
17.56000 9.987
17.58000 4.109
17.60000 7.458
17.62000 0.472
17.64000 -3.158
17.66000 -3.052
17.68000 -0.913
17.70000 6.171
17.72000 6.717
17.74000 7.133
17.76000 0.114
17.78000 0.220
17.80000 6.906
17.82000 1.439
17.84000 -4.030
17.86000 2.235
17.88000 5.382
17.90000 0.509
17.92000 3.826
17.94000 3.476
17.96000 8.234
17.98000 9.747
18.00000 9.283
18.02000 3.261
18.04000 6.231
18.06000 7.310
18.08000 10.480
18.10000 1.513
18.12000 6.986
18.14000 12.253
18.16000 4.313
18.18000 2.796
18.20000 4.993
18.22000 -0.183
18.24000 -4.363
18.26000 -0.731
18.28000 0.285
18.30000 4.854
18.32000 10.824
18.34000 4.515
18.36000 4.429
18.38000 1.705
18.40000 -3.135
18.42000 -1.452
18.44000 -2.571
18.46000 2.988
18.48000 4.536
18.50000 4.820
18.52000 5.240
18.54000 1.988
18.56000 -1.379
18.58000 4.609
18.60000 12.209
18.62000 3.445
18.64000 1.278
18.66000 2.062
18.68000 3.255
18.70000 10.351
18.72000 9.851
18.74000 2.872
18.76000 4.009
18.78000 6.430
18.80000 6.436
18.82000 5.585
18.84000 1.337
18.86000 1.129
18.88000 4.115
18.90000 1.278
18.92000 -0.314
18.94000 -1.227
18.96000 4.111
18.98000 11.498
19.00000 6.248
19.02000 -0.961
19.04000 3.385
19.06000 1.936
19.08000 -0.941
19.10000 10.360
19.12000 12.527
19.14000 0.243
19.16000 1.270
19.18000 -2.762
19.20000 -3.071
19.22000 3.864
19.24000 2.970
19.26000 2.521
19.28000 6.858
19.30000 7.876
19.32000 3.187
19.34000 -0.644
19.36000 0.796
19.38000 -2.889
19.40000 -0.539
19.42000 9.337
19.44000 3.232
19.46000 4.728
19.48000 7.916
19.50000 6.403
19.52000 5.486
19.54000 4.383
19.56000 5.358
19.58000 4.756
19.60000 7.142
19.62000 2.390
19.64000 4.218
19.66000 5.980
19.68000 12.945
19.70000 10.472
19.72000 1.898
19.74000 -4.286
19.76000 1.212
19.78000 0.520
19.80000 3.517
19.82000 8.101
19.84000 6.658
19.86000 2.943
19.88000 -2.985
19.90000 -2.046
19.92000 -1.450
19.94000 2.257
19.96000 -2.354
19.98000 -3.059
20.00000 -1.320
20.02000 9.882
20.04000 10.012
20.06000 -1.868
20.08000 -0.900
20.10000 5.795
20.12000 9.450
20.14000 2.101
20.16000 1.422
20.18000 -0.170
20.20000 2.142
20.22000 -1.911
20.24000 1.973
20.26000 0.760
20.28000 -1.624
20.30000 -1.273
20.32000 3.149
20.34000 1.412
20.36000 -2.148
20.38000 6.356
20.40000 13.742
20.42000 7.303
20.44000 3.295
20.46000 -0.393
20.48000 -3.533
20.50000 0.918
20.52000 3.311
20.54000 5.222
20.56000 0.997
20.58000 3.667
20.60000 7.352
20.62000 2.370
20.64000 2.688
20.66000 2.740
20.68000 7.340
20.70000 8.620
20.72000 9.646
20.74000 11.858
20.76000 7.777
20.78000 9.293
20.80000 1.741
20.82000 -3.725
20.84000 -0.272
20.86000 -0.214
20.88000 0.254
20.90000 -0.206
20.92000 1.404
20.94000 0.824
20.96000 0.589
20.98000 3.455
21.00000 -1.408
21.02000 -2.274
21.04000 6.151
21.06000 3.118
21.08000 -1.066
21.10000 -1.190
21.12000 -4.193
21.14000 0.525
21.16000 1.645
21.18000 1.398
21.20000 6.793
21.22000 3.537
21.24000 11.365
21.26000 11.052
21.28000 2.654
21.30000 3.364
21.32000 7.633
21.34000 2.765
21.36000 2.803
21.38000 2.988
21.40000 2.578
21.42000 3.362
21.44000 2.180
21.46000 1.624
21.48000 -0.239
21.50000 5.692
21.52000 7.451
21.54000 4.680
21.56000 2.905
21.58000 8.782
21.60000 7.780
21.62000 3.401
21.64000 2.629
21.66000 5.325
21.68000 7.690
21.70000 3.884
21.72000 3.438
21.74000 10.274
21.76000 7.248
21.78000 3.175
21.80000 9.630
21.82000 2.563
21.84000 8.708
21.86000 2.599
21.88000 -3.079
21.90000 -4.144
21.92000 10.445
21.94000 14.029
21.96000 6.630
21.98000 6.150
22.00000 8.972
22.02000 0.565
22.04000 1.629
22.06000 5.626
22.08000 4.114
22.10000 9.540
22.12000 9.088
22.14000 6.015
22.16000 3.702
22.18000 1.691
22.20000 3.662
22.22000 -1.254
22.24000 -2.544
22.26000 0.925
22.28000 6.254
22.30000 0.835
22.32000 1.694
22.34000 4.267
22.36000 1.187
22.38000 4.109
22.40000 7.763
22.42000 6.445
22.44000 5.305
22.46000 2.983
22.48000 2.888
22.50000 3.291
22.52000 4.363
22.54000 0.573
22.56000 5.207
22.58000 7.376
22.60000 12.113
22.62000 6.075
22.64000 0.985
22.66000 9.262
22.68000 2.595
22.70000 5.364
22.72000 2.622
22.74000 4.573
22.76000 7.091
22.78000 -0.309
22.80000 -0.252
22.82000 2.624
22.84000 1.713
22.86000 -0.666
22.88000 4.623
22.90000 9.229
22.92000 8.483
22.94000 7.429
22.96000 -1.037
22.98000 -3.105
23.00000 -4.078
23.02000 -2.123
23.04000 1.613
23.06000 9.435
23.08000 7.756
23.10000 -1.168
23.12000 3.236
23.14000 6.279
23.16000 13.497
23.18000 10.544
23.20000 6.070
23.22000 0.442
23.24000 -2.905
23.26000 -0.708
23.28000 4.676
23.30000 7.953
23.32000 1.928
23.34000 3.006
23.36000 4.642
23.38000 2.790
23.40000 1.787
23.42000 6.311
23.44000 10.350
23.46000 9.567
23.48000 4.989
23.50000 4.668
23.52000 4.403
23.54000 -3.743
23.56000 0.996
23.58000 0.976
23.60000 5.747
23.62000 6.047
23.64000 6.986
23.66000 2.701
23.68000 4.389
23.70000 -0.393
23.72000 -2.597
23.74000 4.366
23.76000 0.837
23.78000 3.924
23.80000 3.994
23.82000 3.473
23.84000 3.086
23.86000 8.020
23.88000 2.261
23.90000 -4.035
23.92000 3.507
23.94000 6.629
23.96000 3.935
23.98000 6.880
24.00000 2.452
24.02000 6.093
24.04000 3.159
24.06000 1.752
24.08000 1.278
24.10000 2.538
24.12000 4.064
24.14000 7.000
24.16000 0.833
24.18000 2.483
24.20000 4.788
24.22000 7.052
24.24000 8.602
24.26000 1.703
24.28000 -2.004
24.30000 0.489
24.32000 1.603
24.34000 4.262
24.36000 3.995
24.38000 6.040
24.40000 2.435
24.42000 -2.191
24.44000 -3.522
24.46000 3.389
24.48000 1.676
24.50000 -1.615
24.52000 -1.495
24.54000 3.247
24.56000 1.614
24.58000 0.433
24.60000 1.149
24.62000 1.668
24.64000 3.886
24.66000 -2.429
24.68000 3.540
24.70000 7.507
24.72000 9.365
24.74000 7.923
24.76000 14.651
24.78000 12.735
24.80000 9.442
24.82000 7.163
24.84000 -0.984
24.86000 -3.968
24.88000 0.673
24.90000 7.038
24.92000 7.356
24.94000 5.154
24.96000 0.933
24.98000 6.102
25.00000 8.037
25.02000 5.608
25.04000 1.890
25.06000 0.980
25.08000 -1.624
25.10000 -3.691
25.12000 3.160
25.14000 6.324
25.16000 3.282
25.18000 2.401
25.20000 3.172
25.22000 -3.099
25.24000 -1.556
25.26000 4.898
25.28000 3.699
25.30000 2.313
25.32000 3.386
25.34000 2.662
25.36000 0.904
25.38000 7.459
25.40000 4.187
25.42000 3.211
25.44000 7.045
25.46000 8.476
25.48000 1.625
25.50000 -0.324
25.52000 0.696
25.54000 8.632
25.56000 2.638
25.58000 3.908
25.60000 7.401
25.62000 -0.129
25.64000 2.536
25.66000 5.922
25.68000 3.580
25.70000 7.224
25.72000 6.500
25.74000 1.056
25.76000 2.030
25.78000 2.804
25.80000 -0.444
25.82000 -1.090
25.84000 3.053
25.86000 2.996
25.88000 2.328
25.90000 7.170
25.92000 7.440
25.94000 8.354
25.96000 2.011
25.98000 1.770
26.00000 4.829
26.02000 2.395
26.04000 8.484
26.06000 6.070
26.08000 2.776
26.10000 6.099
26.12000 9.608
26.14000 11.727
26.16000 8.180
26.18000 9.429
26.20000 4.337
26.22000 -0.799
26.24000 -3.910
26.26000 -1.428
26.28000 5.013
26.30000 2.183
26.32000 -1.814
26.34000 1.622
26.36000 3.919
26.38000 5.557
26.40000 8.293
26.42000 3.171
26.44000 2.029
26.46000 1.935
26.48000 5.347
26.50000 3.863
26.52000 -1.494
26.54000 8.334
26.56000 5.821
26.58000 3.700
26.60000 4.981
26.62000 5.050
26.64000 1.406
26.66000 0.090
26.68000 1.746
26.70000 5.478
26.72000 5.362
26.74000 2.040
26.76000 -2.497
26.78000 -1.785
26.80000 5.385
26.82000 4.893
26.84000 5.060
26.86000 -2.400
26.88000 0.893
26.90000 1.401
26.92000 2.963
26.94000 2.019
26.96000 1.444
26.98000 0.968
27.00000 1.981
27.02000 3.265
27.04000 4.432
27.06000 2.694
27.08000 0.193
27.10000 0.738
27.12000 -0.930
27.14000 -1.528
27.16000 0.749
27.18000 0.561
27.20000 1.970
27.22000 5.743
27.24000 8.084
27.26000 8.885
27.28000 4.337
27.30000 1.415
27.32000 1.650
27.34000 1.698
27.36000 3.808
27.38000 2.992
27.40000 1.400
27.42000 1.364
27.44000 6.784
27.46000 5.423
27.48000 0.691
27.50000 2.488
27.52000 -0.575
27.54000 -1.503
27.56000 0.872
27.58000 2.190
27.60000 1.348
27.62000 3.170
27.64000 2.243
27.66000 -1.485
27.68000 0.252
27.70000 2.670
27.72000 0.419
27.74000 0.953
27.76000 3.213
27.78000 2.680
27.80000 -0.753
27.82000 -2.029
27.84000 0.683
27.86000 2.352
27.88000 2.159
27.90000 -0.743
27.92000 -2.521
27.94000 2.118
27.96000 4.306
27.98000 -3.149
28.00000 -1.945
28.02000 1.472
28.04000 3.895
28.06000 3.724
28.08000 1.010
28.10000 -0.338
28.12000 -0.255
28.14000 1.882
28.16000 2.719
28.18000 5.616
28.20000 1.407
28.22000 -3.816
28.24000 -2.125
28.26000 3.224
28.28000 4.979
28.30000 6.296
28.32000 5.941
28.34000 1.281
28.36000 0.061
28.38000 -2.193
28.40000 0.854
28.42000 0.206
28.44000 3.594
28.46000 -3.396
28.48000 -3.425
28.50000 3.682
28.52000 -2.459
28.54000 -3.801
28.56000 -3.218
28.58000 0.834
28.60000 7.181
28.62000 4.053
28.64000 2.279
28.66000 0.272
28.68000 -0.114
28.70000 1.574
28.72000 6.298
28.74000 4.818
28.76000 1.262
28.78000 0.120
28.80000 3.246
28.82000 -3.646
28.84000 -1.141
28.86000 3.362
28.88000 2.410
28.90000 0.260
28.92000 -0.893
28.94000 5.421
28.96000 4.476
28.98000 5.355
29.00000 2.696
29.02000 0.464
29.04000 1.894
29.06000 0.951
29.08000 1.893
29.10000 -3.014
29.12000 0.586
29.14000 0.097
29.16000 -0.011
29.18000 -0.200
29.20000 -3.712
29.22000 -0.604
29.24000 2.974
29.26000 3.149
29.28000 1.953
29.30000 3.057
29.32000 0.496
29.34000 -1.045
29.36000 1.009
29.38000 0.321
29.40000 2.639
29.42000 -0.774
29.44000 0.090
29.46000 2.468
29.48000 4.304
29.50000 7.551
29.52000 1.058
29.54000 -2.602
29.56000 -0.317
29.58000 0.435
29.60000 2.493
29.62000 -0.562
29.64000 -1.759
29.66000 2.891
29.68000 4.419
29.70000 0.953
29.72000 -3.400
29.74000 3.208
29.76000 2.744
29.78000 -2.559
29.80000 -3.749
29.82000 -1.398
29.84000 4.774
29.86000 3.557
29.88000 2.833
29.90000 3.278
29.92000 -0.680
29.94000 -0.960
29.96000 -0.045
29.98000 -1.155
30.00000 2.323
30.02000 4.073
30.04000 7.844
30.06000 3.489
30.08000 -2.730
30.10000 0.434
30.12000 3.238
30.14000 2.472
30.16000 0.364
30.18000 -1.348
30.20000 3.275
30.22000 3.935
30.24000 0.453
30.26000 -1.724
30.28000 -1.777
30.30000 4.195
30.32000 4.306
30.34000 -1.550
30.36000 -2.587
30.38000 -0.868
30.40000 -3.738
30.42000 -0.859
30.44000 2.173
30.46000 3.404
30.48000 -0.452
30.50000 -0.686
30.52000 -1.023
30.54000 4.339
30.56000 0.447
30.58000 0.423
30.60000 -1.069
30.62000 0.947
30.64000 1.118
30.66000 1.456
30.68000 1.661
30.70000 3.252
30.72000 1.436
30.74000 2.356
30.76000 1.516
30.78000 -0.425
30.80000 -0.527
30.82000 3.290
30.84000 0.719
30.86000 -0.997
30.88000 -0.095
30.90000 0.183
30.92000 0.499
30.94000 2.291
30.96000 2.344
30.98000 1.324
31.00000 0.171
31.02000 1.379
31.04000 -0.969
31.06000 -2.676
31.08000 -1.810
31.10000 -3.095
31.12000 -0.570
31.14000 2.465
31.16000 7.091
31.18000 1.753
31.20000 0.325
31.22000 4.249
31.24000 0.923
31.26000 -3.702
31.28000 3.237
31.30000 1.470
31.32000 -2.106
31.34000 1.507
31.36000 -1.787
31.38000 -3.588
31.40000 -3.671
31.42000 0.736
31.44000 1.214
31.46000 -3.645
31.48000 1.727
31.50000 2.443
31.52000 3.468
31.54000 0.595
31.56000 -0.750
31.58000 0.422
31.60000 -0.396
31.62000 -3.687
31.64000 -0.246
31.66000 -2.929
31.68000 1.868
31.70000 2.021
31.72000 -3.252
31.74000 0.335
31.76000 0.949
31.78000 2.527
31.80000 -0.834
31.82000 1.092
31.84000 3.857
31.86000 3.649
31.88000 2.376
31.90000 7.515
31.92000 0.778
31.94000 -0.047
31.96000 0.490
31.98000 4.798
32.00000 6.830
32.02000 6.858
32.04000 2.402
32.06000 -1.210
32.08000 6.678
32.10000 4.950
32.12000 1.683
32.14000 0.832
32.16000 1.032
32.18000 -2.401
32.20000 -3.587
32.22000 -1.954
32.24000 1.683
32.26000 4.275
32.28000 1.607
32.30000 3.122
32.32000 3.032
32.34000 1.673
32.36000 1.840
32.38000 3.107
32.40000 3.046
32.42000 -1.282
32.44000 -3.639
32.46000 -0.171
32.48000 0.879
32.50000 3.997
32.52000 -2.336
32.54000 -1.749
32.56000 6.416
32.58000 6.672
32.60000 2.476
32.62000 -3.632
32.64000 -2.510
32.66000 -0.660
32.68000 -0.579
32.70000 0.200
32.72000 0.844
32.74000 0.084
32.76000 -2.580
32.78000 2.204
32.80000 0.717
32.82000 2.578
32.84000 6.159
32.86000 -2.693
32.88000 -1.475
32.90000 2.181
32.92000 0.627
32.94000 0.328
32.96000 -0.618
32.98000 5.446
33.00000 7.038
33.02000 6.539
33.04000 2.705
33.06000 -0.477
33.08000 -2.082
33.10000 -1.131
33.12000 1.731
33.14000 3.974
33.16000 1.901
33.18000 -1.232
33.20000 -3.624
33.22000 -1.815
33.24000 -1.826
33.26000 -0.619
33.28000 0.862
33.30000 1.038
33.32000 3.903
33.34000 4.286
33.36000 -0.066
33.38000 2.673
33.40000 3.945
33.42000 2.274
33.44000 1.435
33.46000 6.199
33.48000 9.609
33.50000 10.256
33.52000 5.730
33.54000 6.752
33.56000 1.780
33.58000 1.567
33.60000 3.588
33.62000 6.039
33.64000 4.089
33.66000 -3.619
33.68000 -0.390
33.70000 3.059
33.72000 7.513
33.74000 4.813
33.76000 8.104
33.78000 5.633
33.80000 2.042
33.82000 2.938
33.84000 1.150
33.86000 4.724
33.88000 8.184
33.90000 7.915
33.92000 4.836
33.94000 2.327
33.96000 3.102
33.98000 2.789
34.00000 3.791
34.02000 2.918
34.04000 0.693
34.06000 3.919
34.08000 2.741
34.10000 3.999
34.12000 5.615
34.14000 3.822
34.16000 2.762
34.18000 1.557
34.20000 5.626
34.22000 4.886
34.24000 5.915
34.26000 5.357
34.28000 7.095
34.30000 1.008
34.32000 3.289
34.34000 5.025
34.36000 -2.036
34.38000 -3.343
34.40000 -0.353
34.42000 4.093
34.44000 1.374
34.46000 -2.831
34.48000 0.160
34.50000 3.124
34.52000 0.682
34.54000 0.899
34.56000 0.170
34.58000 2.452
34.60000 6.622
34.62000 6.312
34.64000 2.855
34.66000 0.885
34.68000 3.316
34.70000 3.232
34.72000 3.060
34.74000 3.815
34.76000 -0.265
34.78000 4.828
34.80000 6.752
34.82000 8.051
34.84000 8.746
34.86000 0.643
34.88000 3.683
34.90000 3.727
34.92000 2.537
34.94000 2.666
34.96000 -1.591
34.98000 2.735
35.00000 3.859
35.02000 6.331
35.04000 2.988
35.06000 -2.240
35.08000 0.232
35.10000 1.562
35.12000 -3.600
35.14000 0.436
35.16000 6.524
35.18000 0.513
35.20000 -1.259
35.22000 -2.761
35.24000 0.670
35.26000 5.588
35.28000 5.455
35.30000 3.933
35.32000 0.613
35.34000 1.535
35.36000 1.108
35.38000 3.228
35.40000 5.316
35.42000 7.516
35.44000 6.731
35.46000 2.429
35.48000 4.333
35.50000 1.510
35.52000 5.366
35.54000 2.402
35.56000 0.474
35.58000 0.761
35.60000 -1.686
35.62000 -3.601
35.64000 -2.691
35.66000 0.206
35.68000 4.480
35.70000 8.698
35.72000 4.734
35.74000 1.240
35.76000 6.003
35.78000 7.324
35.80000 5.379
35.82000 3.943
35.84000 6.225
35.86000 4.773
35.88000 0.071
35.90000 1.582
35.92000 1.803
35.94000 1.307
35.96000 0.967
35.98000 4.392
36.00000 5.692
36.02000 -2.791
36.04000 1.145
36.06000 2.029
36.08000 3.284
36.10000 5.215
36.12000 1.018
36.14000 5.103
36.16000 5.498
36.18000 6.202
36.20000 6.340
36.22000 5.331
36.24000 -1.159
36.26000 -1.612
36.28000 5.930
36.30000 7.852
36.32000 4.834
36.34000 1.706
36.36000 1.554
36.38000 2.311
36.40000 2.909
36.42000 1.303
36.44000 4.562
36.46000 7.083
36.48000 1.341
36.50000 2.099
36.52000 3.179
36.54000 3.901
36.56000 6.378
36.58000 3.867
36.60000 4.809
36.62000 10.593
36.64000 10.610
36.66000 8.046
36.68000 4.030
36.70000 11.515
36.72000 13.057
36.74000 5.759
36.76000 6.260
36.78000 8.550
36.80000 8.047
36.82000 5.051
36.84000 7.228
36.86000 9.077
36.88000 10.976
36.90000 5.874
36.92000 9.218
36.94000 13.224
36.96000 9.037
36.98000 2.161
37.00000 10.652
37.02000 12.416
37.04000 10.966
37.06000 10.113
37.08000 10.626
37.10000 9.479
37.12000 14.378
37.14000 12.231
37.16000 11.111
37.18000 16.677
37.20000 18.458
37.22000 17.952
37.24000 12.730
37.26000 13.225
37.28000 13.640
37.30000 15.719
37.32000 10.566
37.34000 12.110
37.36000 16.123
37.38000 19.308
37.40000 20.994
37.42000 21.739
37.44000 22.425
37.46000 19.172
37.48000 16.597
37.50000 21.690
37.52000 23.261
37.54000 18.077
37.56000 16.995
37.58000 22.763
37.60000 27.582
37.62000 27.823
37.64000 31.309
37.66000 27.769
37.68000 25.526
37.70000 27.280
37.72000 25.839
37.74000 27.850
37.76000 30.835
37.78000 30.230
37.80000 31.011
37.82000 35.923
37.84000 35.155
37.86000 32.679
37.88000 34.578
37.90000 41.299
37.92000 36.949
37.94000 34.828
37.96000 38.954
37.98000 41.336
38.00000 38.921
38.02000 40.608
38.04000 41.175
38.06000 43.024
38.08000 45.667
38.10000 46.248
38.12000 54.926
38.14000 59.503
38.16000 60.704
38.18000 61.218
38.20000 65.068
38.22000 68.225
38.24000 64.714
38.26000 66.458
38.28000 70.041
38.30000 77.030
38.32000 86.514
38.34000 87.203
38.36000 86.127
38.38000 90.250
38.40000 92.195
38.42000 100.125
38.44000 106.844
38.46000 110.560
38.48000 118.864
38.50000 129.215
38.52000 136.125
38.54000 145.613
38.56000 152.681
38.58000 165.754
38.60000 171.230
38.62000 183.756
38.64000 192.159
38.66000 204.430
38.68000 218.350
38.70000 226.381
38.72000 238.572
38.74000 251.721
38.76000 261.346
38.78000 277.445
38.80000 284.607
38.82000 296.503
38.84000 303.856
38.86000 312.161
38.88000 319.198
38.90000 323.612
38.92000 327.302
38.94000 329.860
38.96000 321.391
38.98000 319.642
39.00000 331.194
39.02000 328.300
39.04000 318.996
39.06000 314.059
39.08000 308.594
39.10000 303.921
39.12000 293.654
39.14000 279.822
39.16000 261.720
39.18000 257.125
39.20000 246.940
39.22000 236.641
39.24000 224.137
39.26000 215.858
39.28000 206.724
39.30000 195.593
39.32000 180.233
39.34000 168.890
39.36000 159.532
39.38000 157.652
39.40000 146.024
39.42000 130.369
39.44000 130.069
39.46000 125.396
39.48000 111.475
39.50000 104.526
39.52000 101.435
39.54000 93.937
39.56000 90.931
39.58000 83.081
39.60000 70.139
39.62000 68.901
39.64000 69.366
39.66000 67.572
39.68000 63.105
39.70000 57.681
39.72000 59.179
39.74000 58.271
39.76000 48.294
39.78000 50.793
39.80000 50.295
39.82000 44.475
39.84000 39.376
39.86000 39.065
39.88000 37.126
39.90000 38.650
39.92000 37.198
39.94000 35.714
39.96000 38.115
39.98000 35.798
40.00000 29.804
40.02000 24.553
40.04000 23.215
40.06000 23.394
40.08000 23.056
40.10000 26.097
40.12000 27.785
40.14000 24.302
40.16000 22.973
40.18000 21.311
40.20000 22.051
40.22000 17.168
40.24000 18.353
40.26000 13.545
40.28000 16.834
40.30000 16.353
40.32000 14.898
40.34000 14.679
40.36000 13.896
40.38000 18.778
40.40000 16.838
40.42000 14.398
40.44000 11.423
40.46000 12.847
40.48000 13.904
40.50000 15.834
40.52000 16.123
40.54000 10.762
40.56000 6.863
40.58000 5.006
40.60000 2.248
40.62000 2.754
40.64000 9.147
40.66000 9.557
40.68000 6.062
40.70000 7.452
40.72000 5.274
40.74000 10.226
40.76000 10.134
40.78000 9.150
40.80000 3.838
40.82000 0.520
40.84000 3.999
40.86000 4.646
40.88000 5.760
40.90000 5.343
40.92000 8.144
40.94000 4.748
40.96000 3.108
40.98000 2.880
41.00000 4.233
41.02000 3.699
41.04000 2.912
41.06000 4.379
41.08000 4.898
41.10000 6.436
41.12000 7.710
41.14000 2.278
41.16000 2.831
41.18000 4.915
41.20000 0.928
41.22000 1.988
41.24000 0.831
41.26000 0.603
41.28000 1.717
41.30000 3.336
41.32000 2.719
41.34000 1.707
41.36000 2.050
41.38000 3.465
41.40000 4.125
41.42000 -0.606
41.44000 1.561
41.46000 1.290
41.48000 2.066
41.50000 4.745
41.52000 9.724
41.54000 4.682
41.56000 -2.477
41.58000 -3.486
41.60000 0.132
41.62000 0.038
41.64000 2.623
41.66000 -0.595
41.68000 -1.080
41.70000 0.552
41.72000 -2.088
41.74000 -3.464
41.76000 -0.368
41.78000 -0.754
41.80000 -1.762
41.82000 2.366
41.84000 3.305
41.86000 1.085
41.88000 1.059
41.90000 1.382
41.92000 1.585
41.94000 -2.862
41.96000 -0.859
41.98000 0.822
42.00000 -2.465
42.02000 -2.119
42.04000 1.430
42.06000 1.472
42.08000 -2.550
42.10000 1.416
42.12000 0.339
42.14000 -0.407
42.16000 1.154
42.18000 3.797
42.20000 2.130
42.22000 2.733
42.24000 1.652
42.26000 -0.199
42.28000 0.311
42.30000 1.699
42.32000 3.895
42.34000 5.089
42.36000 4.792
42.38000 6.530
42.40000 6.710
42.42000 5.461
42.44000 2.354
42.46000 4.439
42.48000 1.877
42.50000 -1.363
42.52000 -0.165
42.54000 3.357
42.56000 3.498
42.58000 3.395
42.60000 -1.361
42.62000 0.831
42.64000 -0.040
42.66000 0.621
42.68000 5.554
42.70000 1.847
42.72000 4.130
42.74000 3.235
42.76000 3.984
42.78000 5.282
42.80000 3.150
42.82000 4.430
42.84000 4.131
42.86000 5.950
42.88000 4.723
42.90000 -1.352
42.92000 -3.264
42.94000 -0.146
42.96000 4.060
42.98000 5.546
43.00000 3.865
43.02000 3.195
43.04000 2.047
43.06000 6.480
43.08000 2.662
43.10000 5.131
43.12000 8.364
43.14000 5.040
43.16000 3.972
43.18000 4.910
43.20000 5.852
43.22000 5.726
43.24000 5.728
43.26000 4.470
43.28000 4.299
43.30000 6.732
43.32000 6.655
43.34000 4.865
43.36000 6.134
43.38000 8.057
43.40000 7.553
43.42000 5.230
43.44000 4.316
43.46000 3.084
43.48000 3.053
43.50000 1.565
43.52000 0.997
43.54000 2.565
43.56000 2.104
43.58000 0.109
43.60000 -1.054
43.62000 0.887
43.64000 0.653
43.66000 1.254
43.68000 2.223
43.70000 4.896
43.72000 5.937
43.74000 2.687
43.76000 3.108
43.78000 1.844
43.80000 1.465
43.82000 2.491
43.84000 5.097
43.86000 4.728
43.88000 5.973
43.90000 8.146
43.92000 8.788
43.94000 8.210
43.96000 5.604
43.98000 3.995
44.00000 2.612
44.02000 2.669
44.04000 6.309
44.06000 7.308
44.08000 4.219
44.10000 2.477
44.12000 7.066
44.14000 6.110
44.16000 1.629
44.18000 8.108
44.20000 10.091
44.22000 8.549
44.24000 7.485
44.26000 9.038
44.28000 10.281
44.30000 8.157
44.32000 7.906
44.34000 10.082
44.36000 9.038
44.38000 5.556
44.40000 8.466
44.42000 10.425
44.44000 11.886
44.46000 15.167
44.48000 15.181
44.50000 15.144
44.52000 15.693
44.54000 17.345
44.56000 16.375
44.58000 19.353
44.60000 21.499
44.62000 22.242
44.64000 24.697
44.66000 24.543
44.68000 21.963
44.70000 24.299
44.72000 23.387
44.74000 23.198
44.76000 24.273
44.78000 29.817
44.80000 34.574
44.82000 37.749
44.84000 41.884
44.86000 38.759
44.88000 41.506
44.90000 40.083
44.92000 44.610
44.94000 51.742
44.96000 51.482
44.98000 53.478
45.00000 57.450
45.02000 56.453
45.04000 57.487
45.06000 57.137
45.08000 65.497
45.10000 73.112
45.12000 72.593
45.14000 74.572
45.16000 74.784
45.18000 77.458
45.20000 75.942
45.22000 81.725
45.24000 83.210
45.26000 87.331
45.28000 83.497
45.30000 91.746
45.32000 93.125
45.34000 96.825
45.36000 96.619
45.38000 92.648
45.40000 96.079
45.42000 98.497
45.44000 100.467
45.46000 96.253
45.48000 98.300
45.50000 100.078
45.52000 102.289
45.54000 101.082
45.56000 97.370
45.58000 92.746
45.60000 86.719
45.62000 89.379
45.64000 90.065
45.66000 84.737
45.68000 80.387
45.70000 76.223
45.72000 73.287
45.74000 72.839
45.76000 65.612
45.78000 66.339
45.80000 68.709
45.82000 63.003
45.84000 59.192
45.86000 56.490
45.88000 52.801
45.90000 50.862
45.92000 47.724
45.94000 46.037
45.96000 43.218
45.98000 35.899
46.00000 31.898
46.02000 33.940
46.04000 35.932
46.06000 30.809
46.08000 26.489
46.10000 25.172
46.12000 22.458
46.14000 21.684
46.16000 20.636
46.18000 19.755
46.20000 15.592
46.22000 18.586
46.24000 19.051
46.26000 19.123
46.28000 13.937
46.30000 12.991
46.32000 15.770
46.34000 18.374
46.36000 14.073
46.38000 13.434
46.40000 9.605
46.42000 9.995
46.44000 12.267
46.46000 11.529
46.48000 8.770
46.50000 9.665
46.52000 6.096
46.54000 6.769
46.56000 7.980
46.58000 6.809
46.60000 3.951
46.62000 3.832
46.64000 4.058
46.66000 4.522
46.68000 4.435
46.70000 1.926
46.72000 2.295
46.74000 1.948
46.76000 3.205
46.78000 5.696
46.80000 4.798
46.82000 1.102
46.84000 3.716
46.86000 5.379
46.88000 4.620
46.90000 -2.890
46.92000 -1.543
46.94000 5.002
46.96000 1.129
46.98000 1.401
47.00000 0.206
47.02000 1.895
47.04000 2.304
47.06000 -2.862
47.08000 -0.746
47.10000 4.312
47.12000 -0.251
47.14000 1.053
47.16000 1.915
47.18000 -1.012
47.20000 -2.388
47.22000 2.698
47.24000 -0.775
47.26000 3.785
47.28000 2.068
47.30000 4.343
47.32000 0.082
47.34000 1.589
47.36000 0.956
47.38000 0.017
47.40000 3.124
47.42000 1.912
47.44000 -0.009
47.46000 -1.918
47.48000 -2.809
47.50000 1.913
47.52000 2.941
47.54000 2.458
47.56000 3.168
47.58000 3.852
47.60000 4.412
47.62000 -1.773
47.64000 -1.007
47.66000 2.087
47.68000 6.291
47.70000 2.510
47.72000 4.903
47.74000 4.625
47.76000 4.131
47.78000 0.877
47.80000 2.487
47.82000 4.355
47.84000 2.977
47.86000 0.079
47.88000 0.720
47.90000 2.485
47.92000 1.298
47.94000 5.064
47.96000 3.659
47.98000 3.491
48.00000 2.402
48.02000 2.436
48.04000 1.778
48.06000 3.440
48.08000 -0.148
48.10000 -0.733
48.12000 6.246
48.14000 3.162
48.16000 1.515
48.18000 2.897
48.20000 0.078
48.22000 0.091
48.24000 1.827
48.26000 1.290
48.28000 1.486
48.30000 -2.763
48.32000 -0.776
48.34000 2.331
48.36000 0.959
48.38000 1.077
48.40000 4.538
48.42000 2.801
48.44000 0.735
48.46000 1.366
48.48000 5.674
48.50000 2.711
48.52000 5.710
48.54000 5.874
48.56000 5.194
48.58000 3.287
48.60000 2.288
48.62000 0.781
48.64000 3.246
48.66000 6.133
48.68000 6.984
48.70000 3.073
48.72000 -0.618
48.74000 2.017
48.76000 1.305
48.78000 1.876
48.80000 4.140
48.82000 -0.239
48.84000 3.381
48.86000 4.022
48.88000 0.118
48.90000 5.130
48.92000 1.585
48.94000 -2.146
48.96000 0.895
48.98000 4.522
49.00000 2.988
49.02000 1.042
49.04000 -0.332
49.06000 0.304
49.08000 2.288
49.10000 2.741
49.12000 2.828
49.14000 0.577
49.16000 -0.848
49.18000 0.883
49.20000 -1.753
49.22000 -2.703
49.24000 3.715
49.26000 2.937
49.28000 2.222
49.30000 8.325
49.32000 0.378
49.34000 -0.508
49.36000 -0.347
49.38000 -1.634
49.40000 -0.852
49.42000 3.446
49.44000 3.931
49.46000 4.063
49.48000 6.317
49.50000 6.733
49.52000 6.389
49.54000 5.776
49.56000 0.648
49.58000 2.077
49.60000 1.065
49.62000 0.132
49.64000 1.117
49.66000 6.609
49.68000 5.470
49.70000 4.608
49.72000 -2.656
49.74000 -1.171
49.76000 1.679
49.78000 1.876
49.80000 4.119
49.82000 4.931
49.84000 3.921
49.86000 7.393
49.88000 7.507
49.90000 6.233
49.92000 1.196
49.94000 1.306
49.96000 2.130
49.98000 1.824
50.00000 5.149
50.02000 6.193
50.04000 2.498
50.06000 3.095
50.08000 4.069
50.10000 5.419
50.12000 0.067
50.14000 -0.851
50.16000 3.117
50.18000 2.656
50.20000 0.401
50.22000 1.246
50.24000 1.746
50.26000 6.329
50.28000 6.867
50.30000 2.333
50.32000 3.623
50.34000 1.557
50.36000 0.833
50.38000 5.109
50.40000 9.960
50.42000 4.844
50.44000 -1.360
50.46000 1.123
50.48000 1.159
50.50000 4.518
50.52000 0.404
50.54000 0.715
50.56000 -0.313
50.58000 1.379
50.60000 -1.523
50.62000 -2.665
50.64000 -2.420
50.66000 -2.460
50.68000 -2.393
50.70000 1.132
50.72000 -0.274
50.74000 -1.293
50.76000 -1.556
50.78000 1.973
50.80000 -0.887
50.82000 -0.919
50.84000 -1.527
50.86000 0.109
50.88000 1.564
50.90000 1.350
50.92000 1.418
50.94000 3.481
50.96000 1.808
50.98000 2.538
51.00000 -0.915
51.02000 2.751
51.04000 2.475
51.06000 1.904
51.08000 0.592
51.10000 4.830
51.12000 6.902
51.14000 5.355
51.16000 -1.467
51.18000 -0.068
51.20000 0.400
51.22000 4.353
51.24000 1.494
51.26000 1.282
51.28000 -0.850
51.30000 0.039
51.32000 -1.261
51.34000 1.149
51.36000 0.772
51.38000 -0.369
51.40000 -0.904
51.42000 3.570
51.44000 1.620
51.46000 1.857
51.48000 6.007
51.50000 -2.639
51.52000 -0.372
51.54000 0.848
51.56000 1.810
51.58000 7.407
51.60000 4.574
51.62000 3.986
51.64000 2.715
51.66000 0.387
51.68000 3.475
51.70000 3.950
51.72000 3.986
51.74000 3.767
51.76000 -1.688
51.78000 -0.481
51.80000 2.871
51.82000 1.714
51.84000 1.995
51.86000 0.614
51.88000 -1.352
51.90000 -1.158
51.92000 -0.408
51.94000 0.662
51.96000 4.979
51.98000 6.123
52.00000 6.077
52.02000 1.445
52.04000 2.008
52.06000 1.207
52.08000 2.502
52.10000 -0.405
52.12000 -2.606
52.14000 -1.515
52.16000 -0.476
52.18000 1.261
52.20000 0.014
52.22000 0.978
52.24000 -0.706
52.26000 3.488
52.28000 3.180
52.30000 3.075
52.32000 -0.247
52.34000 2.137
52.36000 1.739
52.38000 4.078
52.40000 6.348
52.42000 2.549
52.44000 0.194
52.46000 -1.657
52.48000 3.539
52.50000 3.483
52.52000 3.826
52.54000 1.616
52.56000 -0.261
52.58000 2.939
52.60000 3.725
52.62000 2.413
52.64000 2.222
52.66000 -0.237
52.68000 1.859
52.70000 1.887
52.72000 3.553
52.74000 1.884
52.76000 4.040
52.78000 3.314
52.80000 4.288
52.82000 2.927
52.84000 3.440
52.86000 4.205
52.88000 -1.050
52.90000 -2.595
52.92000 2.621
52.94000 2.794
52.96000 4.030
52.98000 4.738
53.00000 4.013
53.02000 5.851
53.04000 3.328
53.06000 0.608
53.08000 5.952
53.10000 4.196
53.12000 1.702
53.14000 4.991
53.16000 4.744
53.18000 3.089
53.20000 2.725
53.22000 1.567
53.24000 3.887
53.26000 1.363
53.28000 -2.016
53.30000 -2.278
53.32000 2.752
53.34000 0.786
53.36000 1.024
53.38000 -0.879
53.40000 -2.236
53.42000 3.478
53.44000 4.069
53.46000 3.688
53.48000 -0.309
53.50000 3.200
53.52000 3.398
53.54000 1.310
53.56000 -2.578
53.58000 1.576
53.60000 3.341
53.62000 2.758
53.64000 2.624
53.66000 1.425
53.68000 1.136
53.70000 9.552
53.72000 7.604
53.74000 2.614
53.76000 0.876
53.78000 -0.284
53.80000 0.118
53.82000 0.796
53.84000 1.437
53.86000 2.840
53.88000 4.152
53.90000 0.229
53.92000 0.219
53.94000 -1.390
53.96000 -0.461
53.98000 -2.033
54.00000 3.486
54.02000 4.770
54.04000 3.238
54.06000 1.548
54.08000 1.571
54.10000 1.934
54.12000 3.211
54.14000 0.998
54.16000 -1.916
54.18000 -2.545
54.20000 -1.933
54.22000 2.698
54.24000 3.733
54.26000 1.999
54.28000 -0.033
54.30000 1.271
54.32000 3.179
54.34000 -1.310
54.36000 0.124
54.38000 0.827
54.40000 0.817
54.42000 2.102
54.44000 4.758
54.46000 4.632
54.48000 4.076
54.50000 1.295
54.52000 -1.445
54.54000 2.083
54.56000 3.538
54.58000 4.232
54.60000 7.692
54.62000 5.130
54.64000 2.995
54.66000 1.681
54.68000 3.980
54.70000 3.948
54.72000 5.212
54.74000 2.573
54.76000 0.745
54.78000 1.981
54.80000 1.053
54.82000 -2.539
54.84000 0.579
54.86000 2.900
54.88000 4.106
54.90000 5.825
54.92000 1.251
54.94000 -0.819
54.96000 -0.945
54.98000 2.838
55.00000 2.172
55.02000 1.819
55.04000 -0.267
55.06000 2.604
55.08000 4.861
55.10000 1.798
55.12000 6.347
55.14000 4.544
55.16000 2.340
55.18000 1.013
55.20000 1.483
55.22000 1.935
55.24000 -0.575
55.26000 3.195
55.28000 -0.363
55.30000 0.117
55.32000 3.320
55.34000 6.719
55.36000 2.487
55.38000 0.824
55.40000 6.141
55.42000 5.248
55.44000 1.282
55.46000 2.584
55.48000 1.547
55.50000 7.255
55.52000 10.310
55.54000 5.935
55.56000 0.224
55.58000 1.054
55.60000 1.648
55.62000 3.102
55.64000 3.245
55.66000 3.977
55.68000 5.655
55.70000 4.249
55.72000 6.893
55.74000 5.561
55.76000 0.717
55.78000 2.457
55.80000 1.963
55.82000 2.047
55.84000 -0.742
55.86000 2.208
55.88000 6.694
55.90000 5.462
55.92000 3.467
55.94000 4.156
55.96000 5.780
55.98000 4.044
56.00000 0.511
56.02000 4.876
56.04000 3.004
56.06000 2.958
56.08000 3.359
56.10000 5.553
56.12000 3.075
56.14000 2.212
56.16000 4.976
56.18000 6.541
56.20000 4.855
56.22000 2.174
56.24000 7.336
56.26000 6.100
56.28000 6.883
56.30000 5.681
56.32000 3.937
56.34000 2.941
56.36000 8.249
56.38000 6.227
56.40000 3.070
56.42000 0.682
56.44000 1.572
56.46000 0.786
56.48000 2.405
56.50000 0.849
56.52000 1.102
56.54000 3.582
56.56000 6.237
56.58000 2.868
56.60000 6.872
56.62000 5.997
56.64000 2.433
56.66000 -0.323
56.68000 -2.446
56.70000 2.746
56.72000 4.945
56.74000 7.907
56.76000 6.696
56.78000 9.713
56.80000 8.136
56.82000 6.809
56.84000 3.703
56.86000 6.485
56.88000 2.027
56.90000 2.997
56.92000 4.331
56.94000 5.886
56.96000 5.682
56.98000 4.720
57.00000 3.945
57.02000 2.835
57.04000 2.816
57.06000 4.916
57.08000 3.068
57.10000 4.319
57.12000 2.873
57.14000 -1.201
57.16000 0.178
57.18000 1.605
57.20000 2.875
57.22000 0.712
57.24000 4.103
57.26000 3.106
57.28000 5.750
57.30000 4.212
57.32000 2.605
57.34000 5.447
57.36000 1.820
57.38000 1.337
57.40000 2.233
57.42000 5.727
57.44000 5.140
57.46000 2.133
57.48000 -0.730
57.50000 0.468
57.52000 2.631
57.54000 3.176
57.56000 2.106
57.58000 4.190
57.60000 2.674
57.62000 2.226
57.64000 2.343
57.66000 0.772
57.68000 1.626
57.70000 1.563
57.72000 3.429
57.74000 1.161
57.76000 1.609
57.78000 2.835
57.80000 0.035
57.82000 -2.459
57.84000 0.307
57.86000 -1.550
57.88000 -1.487
57.90000 2.089
57.92000 4.175
57.94000 1.359
57.96000 0.238
57.98000 2.845
58.00000 4.741
58.02000 3.616
58.04000 -1.031
58.06000 1.360
58.08000 2.789
58.10000 4.887
58.12000 5.584
58.14000 5.467
58.16000 3.167
58.18000 1.507
58.20000 0.936
58.22000 -0.687
58.24000 1.886
58.26000 -0.134
58.28000 1.862
58.30000 6.616
58.32000 3.767
58.34000 1.427
58.36000 1.124
58.38000 1.426
58.40000 1.226
58.42000 0.088
58.44000 3.517
58.46000 2.926
58.48000 1.926
58.50000 2.485
58.52000 5.384
58.54000 6.219
58.56000 0.834
58.58000 1.787
58.60000 -0.071
58.62000 -2.161
58.64000 0.383
58.66000 2.764
58.68000 2.373
58.70000 2.407
58.72000 -2.441
58.74000 -0.290
58.76000 3.790
58.78000 3.254
58.80000 1.036
58.82000 1.683
58.84000 -0.520
58.86000 -2.065
58.88000 0.685
58.90000 -0.638
58.92000 0.089
58.94000 0.590
58.96000 1.677
58.98000 0.096
59.00000 4.653
59.02000 1.416
59.04000 0.340
59.06000 -0.370
59.08000 -0.278
59.10000 1.176
59.12000 -0.561
59.14000 -2.078
59.16000 1.856
59.18000 0.999
59.20000 0.088
59.22000 2.860
59.24000 5.123
59.26000 3.745
59.28000 2.355
59.30000 3.436
59.32000 0.752
59.34000 0.931
59.36000 2.966
59.38000 4.657
59.40000 1.399
59.42000 2.115
59.44000 2.898
59.46000 2.925
59.48000 4.804
59.50000 3.437
59.52000 1.001
59.54000 3.312
59.56000 6.123
59.58000 7.105
59.60000 5.171
59.62000 0.271
59.64000 -0.130
59.66000 2.104
59.68000 1.603
59.70000 3.227
59.72000 2.615
59.74000 -2.162
59.76000 -1.599
59.78000 1.879
59.80000 1.758
59.82000 0.472
59.84000 0.920
59.86000 1.582
59.88000 -2.377
59.90000 -0.298
59.92000 3.875
59.94000 3.069
59.96000 4.513
59.98000 2.084
60.00000 -0.914
60.02000 5.329
60.04000 3.412
60.06000 0.205
60.08000 4.142
60.10000 3.250
60.12000 0.027
60.14000 1.736
60.16000 1.887
60.18000 -1.432
60.20000 -0.932
60.22000 0.499
60.24000 0.717
60.26000 -0.037
60.28000 3.424
60.30000 0.030
60.32000 -2.363
60.34000 1.465
60.36000 4.368
60.38000 6.466
60.40000 4.083
60.42000 0.517
60.44000 2.818
60.46000 3.704
60.48000 4.422
60.50000 3.651
60.52000 3.499
60.54000 2.653
60.56000 2.808
60.58000 -0.002
60.60000 -0.554
60.62000 -0.817
60.64000 3.930
60.66000 1.167
60.68000 1.612
60.70000 1.712
60.72000 4.495
60.74000 6.384
60.76000 3.879
60.78000 2.804
60.80000 3.438
60.82000 4.821
60.84000 2.910
60.86000 2.418
60.88000 0.412
60.90000 4.193
60.92000 6.571
60.94000 3.101
60.96000 2.431
60.98000 4.359
61.00000 3.247
61.02000 3.454
61.04000 1.576
61.06000 1.652
61.08000 -1.150
61.10000 1.884
61.12000 4.644
61.14000 1.880
61.16000 2.337
61.18000 4.409
61.20000 2.690
61.22000 1.274
61.24000 -0.282
61.26000 0.316
61.28000 0.616
61.30000 0.285
61.32000 -2.127
61.34000 0.504
61.36000 3.236
61.38000 1.800
61.40000 2.045
61.42000 5.511
61.44000 4.219
61.46000 0.824
61.48000 4.538
61.50000 4.971
61.52000 1.066
61.54000 1.064
61.56000 -2.317
61.58000 -0.055
61.60000 1.005
61.62000 -1.919
61.64000 -1.365
61.66000 3.907
61.68000 4.412
61.70000 1.759
61.72000 -0.941
61.74000 -0.178
61.76000 1.614
61.78000 2.372
61.80000 2.676
61.82000 1.018
61.84000 -1.743
61.86000 0.484
61.88000 -2.122
61.90000 -0.571
61.92000 0.248
61.94000 -0.654
61.96000 1.652
61.98000 1.532
62.00000 0.060
62.02000 0.528
62.04000 4.170
62.06000 4.666
62.08000 5.286
62.10000 8.760
62.12000 5.505
62.14000 3.512
62.16000 3.022
62.18000 1.508
62.20000 2.371
62.22000 0.182
62.24000 -0.128
62.26000 2.156
62.28000 5.186
62.30000 -0.899
62.32000 -0.819
62.34000 1.354
62.36000 1.696
62.38000 2.641
62.40000 0.221
62.42000 2.613
62.44000 4.302
62.46000 4.606
62.48000 2.120
62.50000 3.342
62.52000 0.890
62.54000 2.371
62.56000 0.758
62.58000 0.424
62.60000 0.332
62.62000 -0.870
62.64000 1.949
62.66000 2.765
62.68000 4.001
62.70000 5.892
62.72000 3.706
62.74000 0.623
62.76000 -1.162
62.78000 0.611
62.80000 -0.791
62.82000 1.789
62.84000 2.550
62.86000 2.748
62.88000 3.745
62.90000 1.518
62.92000 -0.159
62.94000 3.488
62.96000 2.203
62.98000 -0.229
63.00000 -2.286
63.02000 -2.245
63.04000 1.235
63.06000 0.028
63.08000 1.128
63.10000 4.812
63.12000 4.739
63.14000 0.233
63.16000 -0.264
63.18000 0.793
63.20000 1.850
63.22000 0.309
63.24000 0.301
63.26000 1.150
63.28000 2.243
63.30000 4.482
63.32000 5.961
63.34000 0.629
63.36000 2.025
63.38000 1.444
63.40000 1.578
63.42000 3.049
63.44000 3.263
63.46000 2.610
63.48000 3.393
63.50000 5.459
63.52000 5.875
63.54000 5.739
63.56000 2.988
63.58000 3.723
63.60000 0.058
63.62000 2.646
63.64000 6.855
63.66000 6.188
63.68000 2.105
63.70000 1.204
63.72000 2.469
63.74000 0.232
63.76000 1.404
63.78000 2.190
63.80000 0.409
63.82000 1.009
63.84000 1.707
63.86000 2.257
63.88000 0.948
63.90000 0.569
63.92000 -1.133
63.94000 -0.176
63.96000 1.299
63.98000 1.780
64.00000 -1.455
64.02000 3.332
64.04000 2.669
64.06000 2.808
64.08000 3.135
64.10000 0.970
64.12000 2.015
64.14000 1.301
64.16000 2.294
64.18000 3.279
64.20000 3.365
64.22000 -0.498
64.24000 -0.165
64.26000 1.314
64.28000 3.034
64.30000 3.221
64.32000 1.269
64.34000 1.877
64.36000 -0.424
64.38000 -2.293
64.40000 0.771
64.42000 7.411
64.44000 4.034
64.46000 3.608
64.48000 1.128
64.50000 0.154
64.52000 2.374
64.54000 0.571
64.56000 -0.788
64.58000 0.856
64.60000 -2.306
64.62000 0.222
64.64000 1.552
64.66000 0.780
64.68000 -1.366
64.70000 -1.754
64.72000 -0.294
64.74000 -1.116
64.76000 -0.122
64.78000 -0.238
64.80000 1.775
64.82000 -1.900
64.84000 -1.315
64.86000 2.400
64.88000 2.738
64.90000 0.923
64.92000 -0.126
64.94000 -0.193
64.96000 0.111
64.98000 2.800
65.00000 1.543
65.02000 1.782
65.04000 1.165
65.06000 4.658
65.08000 2.622
65.10000 -0.026
65.12000 0.516
65.14000 -0.760
65.16000 -1.525
65.18000 1.391
65.20000 0.598
65.22000 0.713
65.24000 1.271
65.26000 0.594
65.28000 -0.493
65.30000 0.844
65.32000 0.352
65.34000 -0.653
65.36000 -1.247
65.38000 3.010
65.40000 -1.619
65.42000 -0.877
65.44000 0.505
65.46000 -0.212
65.48000 -0.872
65.50000 -0.381
65.52000 0.894
65.54000 -1.182
65.56000 0.389
65.58000 1.657
65.60000 3.280
65.62000 3.302
65.64000 3.955
65.66000 2.591
65.68000 3.090
65.70000 3.169
65.72000 0.279
65.74000 0.194
65.76000 3.759
65.78000 3.562
65.80000 4.130
65.82000 5.047
65.84000 4.245
65.86000 3.672
65.88000 2.803
65.90000 3.953
65.92000 5.748
65.94000 5.496
65.96000 5.284
65.98000 6.780
66.00000 7.670
66.02000 8.569
66.04000 5.798
66.06000 3.379
66.08000 1.320
66.10000 4.648
66.12000 6.935
66.14000 5.783
66.16000 3.110
66.18000 0.208
66.20000 3.966
66.22000 4.259
66.24000 1.753
66.26000 3.583
66.28000 5.386
66.30000 5.174
66.32000 5.427
66.34000 1.116
66.36000 2.871
66.38000 5.648
66.40000 5.398
66.42000 3.088
66.44000 2.966
66.46000 4.485
66.48000 4.199
66.50000 4.814
66.52000 2.894
66.54000 2.774
66.56000 4.317
66.58000 4.074
66.60000 0.806
66.62000 1.237
66.64000 0.520
66.66000 -0.101
66.68000 -0.163
66.70000 2.463
66.72000 2.578
66.74000 0.940
66.76000 2.308
66.78000 1.208
66.80000 -0.603
66.82000 -2.281
66.84000 1.388
66.86000 0.168
66.88000 -0.572
66.90000 -2.209
66.92000 -1.835
66.94000 -1.162
66.96000 0.854
66.98000 1.812
67.00000 1.669
67.02000 0.672
67.04000 1.033
67.06000 3.261
67.08000 3.822
67.10000 2.518
67.12000 -0.246
67.14000 -0.975
67.16000 0.182
67.18000 0.638
67.20000 1.774
67.22000 1.473
67.24000 2.107
67.26000 0.025
67.28000 0.117
67.30000 0.328
67.32000 -0.401
67.34000 -1.373
67.36000 -1.157
67.38000 -0.015
67.40000 0.405
67.42000 2.139
67.44000 -0.230
67.46000 -1.053
67.48000 -2.207
67.50000 0.289
67.52000 -0.155
67.54000 -0.020
67.56000 0.326
67.58000 0.978
67.60000 2.126
67.62000 3.080
67.64000 0.899
67.66000 -0.747
67.68000 0.679
67.70000 1.259
67.72000 2.684
67.74000 1.774
67.76000 1.021
67.78000 0.209
67.80000 0.990
67.82000 -0.753
67.84000 -0.753
67.86000 -2.203
67.88000 -1.200
67.90000 0.517
67.92000 1.995
67.94000 1.321
67.96000 3.269
67.98000 2.610
68.00000 0.925
68.02000 0.206
68.04000 1.311
68.06000 1.534
68.08000 2.770
68.10000 0.715
68.12000 0.772
68.14000 0.350
68.16000 -0.515
68.18000 1.723
68.20000 4.401
68.22000 2.890
68.24000 2.086
68.26000 1.778
68.28000 2.704
68.30000 2.905
68.32000 2.080
68.34000 0.028
68.36000 -0.338
68.38000 0.175
68.40000 5.360
68.42000 6.205
68.44000 4.304
68.46000 2.157
68.48000 -1.184
68.50000 1.312
68.52000 1.376
68.54000 2.403
68.56000 -0.466
68.58000 -0.190
68.60000 0.263
68.62000 -1.809
68.64000 0.727
68.66000 1.564
68.68000 0.773
68.70000 0.771
68.72000 -0.400
68.74000 -0.331
68.76000 2.075
68.78000 3.416
68.80000 1.174
68.82000 -2.161
68.84000 -1.552
68.86000 -1.338
68.88000 0.834
68.90000 3.654
68.92000 3.561
68.94000 -0.837
68.96000 -1.843
68.98000 -1.180
69.00000 -1.337
69.02000 2.388
69.04000 0.712
69.06000 -0.157
69.08000 2.010
69.10000 2.683
69.12000 -0.178
69.14000 -1.001
69.16000 -1.248
69.18000 0.162
69.20000 2.945
69.22000 2.707
69.24000 3.512
69.26000 2.597
69.28000 4.576
69.30000 2.273
69.32000 -1.497
69.34000 -0.200
69.36000 -0.455
69.38000 0.677
69.40000 2.172
69.42000 3.235
69.44000 2.142
69.46000 3.123
69.48000 1.961
69.50000 1.527
69.52000 1.350
69.54000 1.688
69.56000 2.088
69.58000 0.015
69.60000 1.337
69.62000 3.854
69.64000 1.459
69.66000 -0.796
69.68000 0.599
69.70000 -0.013
69.72000 2.031
69.74000 0.247
69.76000 -1.591
69.78000 -0.456
69.80000 4.336
69.82000 4.431
69.84000 2.176
69.86000 1.958
69.88000 1.446
69.90000 -0.081
69.92000 0.779
69.94000 1.979
69.96000 4.310
69.98000 2.511
70.00000 3.208
70.02000 1.028
70.04000 -0.614
70.06000 0.017
70.08000 2.027
70.10000 3.178
70.12000 1.755
70.14000 2.136
70.16000 -2.095
70.18000 -0.954
70.20000 0.119
70.22000 3.925
70.24000 4.252
70.26000 4.276
70.28000 1.625
70.30000 2.336
70.32000 1.945
70.34000 3.964
70.36000 3.479
70.38000 5.415
70.40000 2.126
70.42000 -0.520
70.44000 0.672
70.46000 2.810
70.48000 4.911
70.50000 3.116
70.52000 3.808
70.54000 1.731
70.56000 -0.169
70.58000 -0.114
70.60000 3.466
70.62000 1.398
70.64000 0.174
70.66000 1.804
70.68000 4.473
70.70000 4.461
70.72000 0.311
70.74000 -1.701
70.76000 -2.078
70.78000 0.676
70.80000 4.938
70.82000 2.912
70.84000 0.849
70.86000 1.117
70.88000 -0.129
70.90000 2.958
70.92000 6.401
70.94000 6.779
70.96000 6.441
70.98000 4.280
71.00000 3.383
71.02000 0.804
71.04000 2.481
71.06000 3.458
71.08000 3.910
71.10000 4.924
71.12000 3.042
71.14000 0.668
71.16000 1.702
71.18000 4.029
71.20000 3.569
71.22000 3.045
71.24000 2.096
71.26000 0.961
71.28000 4.139
71.30000 4.982
71.32000 4.478
71.34000 4.800
71.36000 3.639
71.38000 2.961
71.40000 2.322
71.42000 1.193
71.44000 2.486
71.46000 1.046
71.48000 2.496
71.50000 4.283
71.52000 2.306
71.54000 0.320
71.56000 -2.041
71.58000 1.752
71.60000 3.606
71.62000 2.240
71.64000 2.636
71.66000 4.136
71.68000 1.003
71.70000 3.434
71.72000 3.927
71.74000 4.897
71.76000 6.609
71.78000 4.776
71.80000 4.780
71.82000 6.210
71.84000 2.904
71.86000 1.736
71.88000 4.708
71.90000 2.014
71.92000 1.467
71.94000 1.998
71.96000 -0.469
71.98000 0.351
72.00000 1.301
72.02000 0.821
72.04000 -2.041
72.06000 -1.321
72.08000 -0.531
72.10000 3.370
72.12000 4.156
72.14000 4.077
72.16000 4.322
72.18000 3.213
72.20000 5.179
72.22000 3.409
72.24000 -0.329
72.26000 0.320
72.28000 3.474
72.30000 4.353
72.32000 4.039
72.34000 7.864
72.36000 2.420
72.38000 -0.232
72.40000 1.470
72.42000 -0.431
72.44000 -0.387
72.46000 -0.644
72.48000 -1.118
72.50000 -0.885
72.52000 0.358
72.54000 1.972
72.56000 2.806
72.58000 2.364
72.60000 3.596
72.62000 4.263
72.64000 2.359
72.66000 2.277
72.68000 2.068
72.70000 0.425
72.72000 -2.044
72.74000 0.627
72.76000 3.211
72.78000 2.869
72.80000 2.096
72.82000 1.803
72.84000 0.845
72.86000 1.542
72.88000 0.963
72.90000 -1.282
72.92000 0.764
72.94000 3.719
72.96000 2.520
72.98000 1.861
73.00000 1.245
73.02000 -2.039
73.04000 1.726
73.06000 3.105
73.08000 1.453
73.10000 0.821
73.12000 -0.078
73.14000 0.913
73.16000 0.812
73.18000 -1.252
73.20000 2.073
73.22000 3.288
73.24000 4.870
73.26000 5.006
73.28000 2.951
73.30000 1.125
73.32000 1.617
73.34000 0.239
73.36000 2.625
73.38000 0.974
73.40000 0.652
73.42000 0.185
73.44000 0.510
73.46000 1.815
73.48000 3.307
73.50000 2.755
73.52000 2.410
73.54000 2.501
73.56000 -1.117
73.58000 1.009
73.60000 2.262
73.62000 0.846
73.64000 1.542
73.66000 4.870
73.68000 3.751
73.70000 1.021
73.72000 1.164
73.74000 4.064
73.76000 2.648
73.78000 -0.027
73.80000 -1.170
73.82000 0.384
73.84000 -1.995
73.86000 -1.776
73.88000 0.715
73.90000 1.047
73.92000 2.206
73.94000 3.161
73.96000 2.335
73.98000 2.322
74.00000 1.070
74.02000 0.790
74.04000 3.154
74.06000 4.699
74.08000 7.733
74.10000 6.069
74.12000 4.693
74.14000 1.797
74.16000 2.543
74.18000 2.904
74.20000 0.794
74.22000 -0.529
74.24000 0.170
74.26000 1.078
74.28000 2.004
74.30000 1.865
74.32000 0.335
74.34000 0.959
74.36000 -0.050
74.38000 -0.918
74.40000 -0.328
74.42000 2.645
74.44000 -0.376
74.46000 1.371
74.48000 4.342
74.50000 5.331
74.52000 4.507
74.54000 2.268
74.56000 2.053
74.58000 1.421
74.60000 1.994
74.62000 1.436
74.64000 0.201
74.66000 2.124
74.68000 1.107
74.70000 1.789
74.72000 -0.378
74.74000 -0.192
74.76000 2.868
74.78000 2.375
74.80000 2.062
74.82000 -0.762
74.84000 -0.662
74.86000 -1.828
74.88000 -2.010
74.90000 2.600
74.92000 2.983
74.94000 4.798
74.96000 4.771
74.98000 3.564
75.00000 4.309
75.02000 4.813
75.04000 3.407
75.06000 0.214
75.08000 1.114
75.10000 2.977
75.12000 2.274
75.14000 6.877
75.16000 6.623
75.18000 2.492
75.20000 3.778
75.22000 2.630
75.24000 2.116
75.26000 0.917
75.28000 0.210
75.30000 0.655
75.32000 3.323
75.34000 3.303
75.36000 0.740
75.38000 0.980
75.40000 0.716
75.42000 1.393
75.44000 0.660
75.46000 5.714
75.48000 5.452
75.50000 2.548
75.52000 1.644
75.54000 -0.792
75.56000 -0.292
75.58000 -0.417
75.60000 2.267
75.62000 -0.282
75.64000 -1.357
75.66000 2.101
75.68000 2.250
75.70000 -0.873
75.72000 -0.436
75.74000 3.348
75.76000 1.154
75.78000 -0.671
75.80000 0.509
75.82000 0.000
75.84000 -0.408
75.86000 0.029
75.88000 3.637
75.90000 1.129
75.92000 -1.054
75.94000 0.276
75.96000 1.615
75.98000 0.200
76.00000 -1.732
76.02000 -1.122
76.04000 0.516
76.06000 0.742
76.08000 0.903
76.10000 1.357
76.12000 2.097
76.14000 3.664
76.16000 6.896
76.18000 4.538
76.20000 2.079
76.22000 0.944
76.24000 0.598
76.26000 1.368
76.28000 4.139
76.30000 0.589
76.32000 1.175
76.34000 1.146
76.36000 1.336
76.38000 2.237
76.40000 1.788
76.42000 -2.050
76.44000 -1.364
76.46000 1.223
76.48000 3.471
76.50000 2.287
76.52000 0.028
76.54000 2.702
76.56000 0.960
76.58000 0.117
76.60000 2.265
76.62000 1.839
76.64000 4.645
76.66000 3.460
76.68000 2.186
76.70000 0.207
76.72000 1.848
76.74000 2.549
76.76000 -0.902
76.78000 0.251
76.80000 2.303
76.82000 2.364
76.84000 5.711
76.86000 3.831
76.88000 -0.754
76.90000 -0.052
76.92000 1.368
76.94000 0.726
76.96000 0.117
76.98000 1.465
77.00000 2.833
77.02000 -0.139
77.04000 2.622
77.06000 2.907
77.08000 5.591
77.10000 5.203
77.12000 1.965
77.14000 0.525
77.16000 1.730
77.18000 0.487
77.20000 1.421
77.22000 1.418
77.24000 0.159
77.26000 1.086
77.28000 -0.627
77.30000 0.705
77.32000 0.624
77.34000 1.490
77.36000 1.571
77.38000 1.004
77.40000 2.823
77.42000 -0.899
77.44000 0.576
77.46000 2.793
77.48000 3.296
77.50000 4.026
77.52000 3.405
77.54000 3.800
77.56000 3.854
77.58000 1.576
77.60000 1.985
77.62000 1.092
77.64000 0.593
77.66000 2.822
77.68000 3.786
77.70000 -0.946
77.72000 -1.563
77.74000 -0.191
77.76000 2.384
77.78000 3.180
77.80000 -2.122
77.82000 -0.050
77.84000 2.215
77.86000 -2.123
77.88000 -1.062
77.90000 4.175
77.92000 3.890
77.94000 2.728
77.96000 4.431
77.98000 2.972
78.00000 1.407
78.02000 1.844
78.04000 0.160
78.06000 3.898
78.08000 3.825
78.10000 4.209
78.12000 1.402
78.14000 4.261
78.16000 4.323
78.18000 2.178
78.20000 -1.409
78.22000 -1.795
78.24000 2.257
78.26000 3.291
78.28000 1.272
78.30000 3.880
78.32000 4.160
78.34000 4.150
78.36000 2.609
78.38000 2.926
78.40000 1.009
78.42000 2.390
78.44000 3.448
78.46000 6.029
78.48000 4.570
78.50000 4.239
78.52000 5.146
78.54000 6.484
78.56000 8.043
78.58000 7.824
78.60000 3.923
78.62000 3.151
78.64000 6.044
78.66000 8.704
78.68000 9.366
78.70000 9.092
78.72000 7.609
78.74000 7.367
78.76000 10.024
78.78000 13.217
78.80000 14.755
78.82000 9.156
78.84000 10.195
78.86000 9.351
78.88000 12.050
78.90000 9.906
78.92000 10.058
78.94000 9.650
78.96000 9.593
78.98000 8.885
79.00000 11.153
79.02000 14.458
79.04000 16.164
79.06000 13.311
79.08000 13.674
79.10000 17.312
79.12000 14.813
79.14000 15.664
79.16000 15.767
79.18000 14.362
79.20000 17.077
79.22000 18.427
79.24000 19.161
79.26000 15.992
79.28000 19.535
79.30000 24.275
79.32000 20.552
79.34000 21.897
79.36000 20.659
79.38000 19.428
79.40000 21.075
79.42000 21.034
79.44000 22.730
79.46000 25.284
79.48000 25.167
79.50000 27.915
79.52000 24.803
79.54000 20.830
79.56000 25.106
79.58000 26.380
79.60000 21.256
79.62000 20.805
79.64000 23.122
79.66000 22.478
79.68000 21.529
79.70000 20.572
79.72000 22.188
79.74000 22.466
79.76000 22.580
79.78000 18.875
79.80000 14.367
79.82000 14.728
79.84000 15.759
79.86000 16.244
79.88000 15.538
79.90000 18.608
79.92000 19.927
79.94000 14.518
79.96000 15.548
79.98000 20.986
80.00000 19.701
80.02000 12.618
80.04000 8.740
80.06000 8.891
80.08000 10.360
80.10000 13.615
80.12000 10.953
80.14000 13.522
80.16000 9.270
80.18000 7.450
80.20000 7.244
80.22000 12.093
80.24000 8.372
80.26000 7.199
80.28000 8.570
80.30000 6.524
80.32000 4.219
80.34000 4.930
80.36000 9.162
80.38000 5.569
80.40000 1.405
80.42000 1.231
80.44000 6.901
80.46000 5.271
80.48000 4.154
80.50000 4.696
80.52000 5.719
80.54000 1.473
80.56000 -0.023
80.58000 0.475
80.60000 5.314
80.62000 7.835
80.64000 3.631
80.66000 4.288
80.68000 4.386
80.70000 1.623
80.72000 -1.292
80.74000 -1.085
80.76000 -0.294
80.78000 2.371
80.80000 3.822
80.82000 2.732
80.84000 -0.086
80.86000 -1.240
80.88000 0.200
80.90000 0.512
80.92000 0.177
80.94000 0.254
80.96000 2.152
80.98000 4.214
81.00000 1.210
81.02000 -2.296
81.04000 -1.201
81.06000 0.152
81.08000 -0.710
81.10000 -1.749
81.12000 0.436
81.14000 4.513
81.16000 4.101
81.18000 1.535
81.20000 1.765
81.22000 1.942
81.24000 1.927
81.26000 1.271
81.28000 -1.006
81.30000 -0.514
81.32000 0.213
81.34000 1.691
81.36000 2.817
81.38000 0.115
81.40000 -0.155
81.42000 2.844
81.44000 2.611
81.46000 -2.311
81.48000 -0.989
81.50000 3.266
81.52000 1.733
81.54000 -0.876
81.56000 -0.281
81.58000 1.849
81.60000 3.699
81.62000 2.200
81.64000 1.484
81.66000 2.786
81.68000 3.802
81.70000 2.318
81.72000 4.795
81.74000 0.432
81.76000 0.602
81.78000 3.813
81.80000 3.288
81.82000 2.746
81.84000 5.763
81.86000 7.129
81.88000 2.649
81.90000 3.270
81.92000 5.580
81.94000 5.265
81.96000 5.003
81.98000 7.479
82.00000 9.598
82.02000 8.702
82.04000 -1.469
82.06000 0.409
82.08000 -0.165
82.10000 1.895
82.12000 1.329
82.14000 5.562
82.16000 2.046
82.18000 2.386
82.20000 4.769
82.22000 2.738
82.24000 2.926
82.26000 4.153
82.28000 5.894
82.30000 4.999
82.32000 4.997
82.34000 4.627
82.36000 3.497
82.38000 5.249
82.40000 2.886
82.42000 0.526
82.44000 6.243
82.46000 8.680
82.48000 12.043
82.50000 10.917
82.52000 9.346
82.54000 13.312
82.56000 10.745
82.58000 9.522
82.60000 15.578
82.62000 17.974
82.64000 13.883
82.66000 14.456
82.68000 12.969
82.70000 11.250
82.72000 15.908
82.74000 20.178
82.76000 22.589
82.78000 15.532
82.80000 15.340
82.82000 17.552
82.84000 19.868
82.86000 19.146
82.88000 19.068
82.90000 22.850
82.92000 24.070
82.94000 28.272
82.96000 30.759
82.98000 34.720
83.00000 31.834
83.02000 28.042
83.04000 30.958
83.06000 31.280
83.08000 32.302
83.10000 38.935
83.12000 41.106
83.14000 41.662
83.16000 42.925
83.18000 42.869
83.20000 44.533
83.22000 47.105
83.24000 47.143
83.26000 46.869
83.28000 48.943
83.30000 49.276
83.32000 49.101
83.34000 48.512
83.36000 52.608
83.38000 58.822
83.40000 61.759
83.42000 60.504
83.44000 62.174
83.46000 65.876
83.48000 64.088
83.50000 61.140
83.52000 60.870
83.54000 55.826
83.56000 61.675
83.58000 59.786
83.60000 67.596
83.62000 66.754
83.64000 66.693
83.66000 65.985
83.68000 60.913
83.70000 57.976
83.72000 59.430
83.74000 56.809
83.76000 56.613
83.78000 58.881
83.80000 51.811
83.82000 48.632
83.84000 48.302
83.86000 54.838
83.88000 48.451
83.90000 44.468
83.92000 41.243
83.94000 42.370
83.96000 42.495
83.98000 42.386
84.00000 39.956
84.02000 36.283
84.04000 31.883
84.06000 29.778
84.08000 33.564
84.10000 32.747
84.12000 31.559
84.14000 28.068
84.16000 24.763
84.18000 21.350
84.20000 20.835
84.22000 23.919
84.24000 22.245
84.26000 21.244
84.28000 15.573
84.30000 14.654
84.32000 13.459
84.34000 15.075
84.36000 13.775
84.38000 18.594
84.40000 17.655
84.42000 16.655
84.44000 11.562
84.46000 10.071
84.48000 9.906
84.50000 10.488
84.52000 8.018
84.54000 5.681
84.56000 5.579
84.58000 2.524
84.60000 4.489
84.62000 7.125
84.64000 4.732
84.66000 4.595
84.68000 3.825
84.70000 4.292
84.72000 6.181
84.74000 6.955
84.76000 2.677
84.78000 7.764
84.80000 4.651
84.82000 2.875
84.84000 0.764
84.86000 -0.312
84.88000 1.214
84.90000 -0.011
84.92000 2.997
84.94000 3.793
84.96000 2.887
84.98000 -0.495
85.00000 -2.121
85.02000 -0.120
85.04000 -0.258
85.06000 3.742
85.08000 1.744
85.10000 4.076
85.12000 4.591
85.14000 2.468
85.16000 3.691
85.18000 2.096
85.20000 1.812
85.22000 0.556
85.24000 1.829
85.26000 0.750
85.28000 2.859
85.30000 1.974
85.32000 -2.076
85.34000 -0.693
85.36000 4.077
85.38000 3.806
85.40000 3.179
85.42000 0.803
85.44000 2.095
85.46000 -1.126
85.48000 0.327
85.50000 1.759
85.52000 0.217
85.54000 0.812
85.56000 -0.263
85.58000 -0.795
85.60000 -0.629
85.62000 0.130
85.64000 0.126
85.66000 1.481
85.68000 2.267
85.70000 1.578
85.72000 0.479
85.74000 0.253
85.76000 0.522
85.78000 -1.737
85.80000 1.189
85.82000 -0.639
85.84000 -0.452
85.86000 -1.956
85.88000 -0.836
85.90000 1.896
85.92000 0.113
85.94000 0.679
85.96000 0.573
85.98000 1.035
86.00000 1.893
86.02000 2.325
86.04000 0.661
86.06000 2.372
86.08000 1.303
86.10000 -1.031
86.12000 0.435
86.14000 1.260
86.16000 5.735
86.18000 6.647
86.20000 6.037
86.22000 7.803
86.24000 3.296
86.26000 0.242
86.28000 -1.472
86.30000 -1.957
86.32000 -1.521
86.34000 1.536
86.36000 0.378
86.38000 -1.585
86.40000 -0.385
86.42000 1.990
86.44000 2.970
86.46000 3.578
86.48000 2.315
86.50000 3.705
86.52000 5.661
86.54000 2.134
86.56000 -1.428
86.58000 2.383
86.60000 2.250
86.62000 -0.059
86.64000 -1.352
86.66000 2.165
86.68000 5.287
86.70000 1.821
86.72000 2.324
86.74000 1.052
86.76000 0.357
86.78000 0.557
86.80000 0.846
86.82000 3.319
86.84000 0.983
86.86000 0.650
86.88000 0.530
86.90000 2.824
86.92000 2.621
86.94000 1.698
86.96000 0.808
86.98000 -0.507
87.00000 0.335
87.02000 1.266
87.04000 2.467
87.06000 0.847
87.08000 -0.820
87.10000 1.532
87.12000 1.223
87.14000 4.199
87.16000 2.791
87.18000 2.703
87.20000 3.898
87.22000 0.917
87.24000 -1.122
87.26000 -0.733
87.28000 1.155
87.30000 0.240
87.32000 -0.873
87.34000 -1.925
87.36000 -1.043
87.38000 0.626
87.40000 -0.186
87.42000 0.561
87.44000 1.485
87.46000 5.153
87.48000 0.708
87.50000 -1.139
87.52000 1.765
87.54000 1.015
87.56000 1.110
87.58000 3.899
87.60000 2.561
87.62000 1.407
87.64000 3.660
87.66000 2.762
87.68000 3.880
87.70000 2.745
87.72000 3.466
87.74000 -0.707
87.76000 0.326
87.78000 0.006
87.80000 1.137
87.82000 2.953
87.84000 3.414
87.86000 2.674
87.88000 3.276
87.90000 2.668
87.92000 1.234
87.94000 0.878
87.96000 0.669
87.98000 -0.299
88.00000 1.344
88.02000 -0.352
88.04000 -0.445
88.06000 2.571
88.08000 6.550
88.10000 5.476
88.12000 3.064
88.14000 2.996
88.16000 1.295
88.18000 2.199
88.20000 1.505
88.22000 0.220
88.24000 1.767
88.26000 1.283
88.28000 -0.468
88.30000 -1.854
88.32000 0.876
88.34000 3.340
88.36000 4.159
88.38000 4.568
88.40000 1.183
88.42000 3.930
88.44000 3.451
88.46000 4.216
88.48000 1.368
88.50000 1.581
88.52000 2.021
88.54000 3.828
88.56000 3.048
88.58000 0.770
88.60000 -1.009
88.62000 0.731
88.64000 2.810
88.66000 4.990
88.68000 4.790
88.70000 5.446
88.72000 2.620
88.74000 3.380
88.76000 6.626
88.78000 4.273
88.80000 -0.028
88.82000 1.477
88.84000 2.870
88.86000 3.977
88.88000 2.062
88.90000 3.061
88.92000 0.744
88.94000 -1.874
88.96000 1.729
88.98000 1.978
89.00000 2.243
89.02000 2.186
89.04000 3.405
89.06000 7.232
89.08000 4.366
89.10000 -1.169
89.12000 2.246
89.14000 1.468
89.16000 -0.410
89.18000 1.203
89.20000 2.673
89.22000 4.491
89.24000 3.426
89.26000 1.607
89.28000 4.022
89.30000 6.164
89.32000 2.496
89.34000 0.736
89.36000 2.410
89.38000 -0.301
89.40000 -0.226
89.42000 1.236
89.44000 2.949
89.46000 0.042
89.48000 0.373
89.50000 2.714
89.52000 4.083
89.54000 3.820
89.56000 4.194
89.58000 -1.889
89.60000 0.805
89.62000 1.828
89.64000 2.456
89.66000 -0.595
89.68000 1.278
89.70000 2.183
89.72000 2.770
89.74000 2.185
89.76000 -0.834
89.78000 1.941
89.80000 0.398
89.82000 0.976
89.84000 0.056
89.86000 -1.434
89.88000 1.192
89.90000 2.078
89.92000 2.355
89.94000 3.322
89.96000 2.782
89.98000 0.759
90.00000 -0.074
90.02000 0.277
90.04000 1.644
90.06000 3.223
90.08000 4.634
90.10000 3.001
90.12000 -0.602
90.14000 0.486
90.16000 1.243
90.18000 1.464
90.20000 3.823
90.22000 1.121
90.24000 1.348
90.26000 0.676
90.28000 -0.008
90.30000 -1.896
90.32000 -0.599
90.34000 1.517
90.36000 0.184
90.38000 -0.594
90.40000 1.055
90.42000 2.009
90.44000 1.328
90.46000 0.967
90.48000 -1.646
90.50000 -0.650
90.52000 3.781
90.54000 2.424
90.56000 1.044
90.58000 1.290
90.60000 2.110
90.62000 3.689
90.64000 4.574
90.66000 -0.336
90.68000 -0.767
90.70000 -0.114
90.72000 2.206
90.74000 3.185
90.76000 2.206
90.78000 3.846
90.80000 1.946
90.82000 0.255
90.84000 0.444
90.86000 1.057
90.88000 2.623
90.90000 2.410
90.92000 2.554
90.94000 2.289
90.96000 0.361
90.98000 0.668
91.00000 -0.206
91.02000 1.023
91.04000 0.245
91.06000 3.504
91.08000 2.749
91.10000 4.326
91.12000 7.595
91.14000 7.965
91.16000 3.846
91.18000 1.340
91.20000 3.176
91.22000 0.824
91.24000 2.834
91.26000 2.435
91.28000 -0.225
91.30000 1.380
91.32000 2.621
91.34000 4.840
91.36000 8.465
91.38000 5.227
91.40000 2.942
91.42000 4.843
91.44000 5.697
91.46000 1.167
91.48000 -1.828
91.50000 -1.332
91.52000 2.360
91.54000 4.207
91.56000 3.039
91.58000 2.821
91.60000 3.785
91.62000 2.985
91.64000 3.496
91.66000 4.678
91.68000 5.597
91.70000 3.689
91.72000 2.920
91.74000 5.081
91.76000 4.411
91.78000 1.848
91.80000 1.013
91.82000 4.322
91.84000 4.397
91.86000 3.888
91.88000 1.509
91.90000 3.072
91.92000 1.957
91.94000 0.501
91.96000 1.919
91.98000 4.365
92.00000 1.949
92.02000 2.158
92.04000 4.589
92.06000 1.062
92.08000 2.717
92.10000 -1.879
92.12000 -0.727
92.14000 1.823
92.16000 3.443
92.18000 1.678
92.20000 -0.852
92.22000 0.484
92.24000 2.122
92.26000 2.541
92.28000 1.899
92.30000 2.475
92.32000 0.400
92.34000 0.300
92.36000 1.915
92.38000 4.695
92.40000 5.310
92.42000 6.277
92.44000 3.914
92.46000 2.056
92.48000 0.487
92.50000 -1.456
92.52000 1.920
92.54000 -0.359
92.56000 -1.898
92.58000 -0.743
92.60000 3.798
92.62000 2.228
92.64000 1.674
92.66000 2.987
92.68000 3.616
92.70000 2.634
92.72000 3.049
92.74000 2.094
92.76000 1.245
92.78000 2.096
92.80000 2.024
92.82000 1.910
92.84000 0.575
92.86000 3.479
92.88000 3.225
92.90000 1.208
92.92000 1.659
92.94000 1.128
92.96000 0.017
92.98000 0.284
93.00000 1.298
93.02000 3.559
93.04000 3.449
93.06000 -0.840
93.08000 -0.002
93.10000 0.329
93.12000 1.977
93.14000 5.092
93.16000 4.103
93.18000 -0.612
93.20000 -0.867
93.22000 -1.429
93.24000 0.569
93.26000 3.353
93.28000 3.691
93.30000 2.293
93.32000 3.307
93.34000 3.182
93.36000 5.565
93.38000 7.272
93.40000 4.740
93.42000 1.316
93.44000 -1.903
93.46000 4.552
93.48000 0.476
93.50000 1.158
93.52000 5.348
93.54000 2.605
93.56000 4.773
93.58000 0.104
93.60000 0.196
93.62000 3.793
93.64000 3.120
93.66000 1.589
93.68000 0.144
93.70000 2.834
93.72000 3.899
93.74000 5.408
93.76000 6.576
93.78000 6.788
93.80000 -0.483
93.82000 -1.233
93.84000 2.749
93.86000 0.510
93.88000 1.249
93.90000 5.775
93.92000 6.226
93.94000 2.659
93.96000 2.479
93.98000 6.131
94.00000 2.650
94.02000 -0.538
94.04000 -0.198
94.06000 4.140
94.08000 0.532
94.10000 0.053
94.12000 3.339
94.14000 5.848
94.16000 3.850
94.18000 5.185
94.20000 3.104
94.22000 2.771
94.24000 2.173
94.26000 -1.207
94.28000 -1.572
94.30000 -0.622
94.32000 -0.530
94.34000 1.495
94.36000 4.672
94.38000 1.460
94.40000 1.297
94.42000 0.397
94.44000 2.616
94.46000 1.278
94.48000 -1.346
94.50000 -1.409
94.52000 0.024
94.54000 0.124
94.56000 1.828
94.58000 0.507
94.60000 1.334
94.62000 -0.425
94.64000 -0.888
94.66000 1.246
94.68000 1.123
94.70000 -0.344
94.72000 4.585
94.74000 4.799
94.76000 1.784
94.78000 0.053
94.80000 0.986
94.82000 2.428
94.84000 5.660
94.86000 7.560
94.88000 5.582
94.90000 4.437
94.92000 1.250
94.94000 2.852
94.96000 3.945
94.98000 4.037
95.00000 1.753
95.02000 2.170
95.04000 -1.900
95.06000 1.154
95.08000 1.734
95.10000 6.412
95.12000 5.416
95.14000 4.128
95.16000 4.459
95.18000 5.856
95.20000 1.115
95.22000 2.037
95.24000 2.933
95.26000 2.275
95.28000 2.330
95.30000 7.252
95.32000 7.543
95.34000 2.643
95.36000 1.049
95.38000 0.941
95.40000 0.652
95.42000 0.886
95.44000 -0.123
95.46000 1.853
95.48000 0.685
95.50000 -1.559
95.52000 -1.439
95.54000 1.655
95.56000 2.401
95.58000 4.330
95.60000 3.426
95.62000 2.034
95.64000 0.503
95.66000 3.373
95.68000 4.744
95.70000 6.127
95.72000 4.058
95.74000 2.941
95.76000 1.502
95.78000 1.467
95.80000 1.986
95.82000 1.269
95.84000 2.469
95.86000 3.421
95.88000 3.862
95.90000 0.273
95.92000 2.887
95.94000 -0.350
95.96000 -0.652
95.98000 -0.480
96.00000 2.450
96.02000 2.259
96.04000 1.665
96.06000 3.665
96.08000 2.784
96.10000 0.941
96.12000 -0.846
96.14000 2.064
96.16000 3.988
96.18000 7.572
96.20000 6.341
96.22000 5.943
96.24000 1.116
96.26000 3.023
96.28000 3.503
96.30000 1.236
96.32000 4.199
96.34000 2.513
96.36000 0.400
96.38000 2.477
96.40000 3.155
96.42000 -0.018
96.44000 -0.969
96.46000 2.977
96.48000 6.247
96.50000 1.816
96.52000 2.296
96.54000 2.587
96.56000 4.939
96.58000 5.992
96.60000 2.287
96.62000 -0.209
96.64000 4.494
96.66000 5.054
96.68000 4.671
96.70000 3.631
96.72000 1.041
96.74000 4.936
96.76000 4.130
96.78000 2.886
96.80000 2.919
96.82000 5.471
96.84000 5.123
96.86000 5.292
96.88000 1.081
96.90000 -1.895
96.92000 2.303
96.94000 3.451
96.96000 0.665
96.98000 1.057
97.00000 4.032
97.02000 2.318
97.04000 3.706
97.06000 3.898
97.08000 2.802
97.10000 1.311
97.12000 0.857
97.14000 -0.032
97.16000 -1.882
97.18000 1.338
97.20000 0.238
97.22000 2.190
97.24000 4.379
97.26000 1.926
97.28000 3.929
97.30000 3.594
97.32000 3.814
97.34000 1.090
97.36000 2.310
97.38000 0.110
97.40000 0.556
97.42000 1.938
97.44000 2.175
97.46000 2.861
97.48000 0.470
97.50000 4.165
97.52000 2.076
97.54000 4.217
97.56000 7.800
97.58000 5.011
97.60000 2.592
97.62000 1.807
97.64000 -0.786
97.66000 4.108
97.68000 4.132
97.70000 1.791
97.72000 5.440
97.74000 5.927
97.76000 5.960
97.78000 6.379
97.80000 3.510
97.82000 3.878
97.84000 5.959
97.86000 6.460
97.88000 4.414
97.90000 2.902
97.92000 2.027
97.94000 3.041
97.96000 1.084
97.98000 1.730
98.00000 5.553
98.02000 4.167
98.04000 4.537
98.06000 2.136
98.08000 0.330
98.10000 -1.889
98.12000 0.908
98.14000 6.953
98.16000 8.476
98.18000 5.264
98.20000 5.673
98.22000 4.991
98.24000 1.323
98.26000 -1.590
98.28000 -0.786
98.30000 3.809
98.32000 4.119
98.34000 8.533
98.36000 6.110
98.38000 1.424
98.40000 0.458
98.42000 5.606
98.44000 11.685
98.46000 6.210
98.48000 6.818
98.50000 5.187
98.52000 1.341
98.54000 2.429
98.56000 3.124
98.58000 3.221
98.60000 8.207
98.62000 6.817
98.64000 4.662
98.66000 1.583
98.68000 5.902
98.70000 10.055
98.72000 2.747
98.74000 3.350
98.76000 1.035
98.78000 1.298
98.80000 0.717
98.82000 2.793
98.84000 7.185
98.86000 7.277
98.88000 3.566
98.90000 0.897
98.92000 0.564
98.94000 -0.947
98.96000 0.719
98.98000 2.742
99.00000 4.109
99.02000 3.632
99.04000 0.382
99.06000 1.694
99.08000 1.739
99.10000 5.649
99.12000 8.780
99.14000 8.629
99.16000 -3.144
99.18000 1.528
99.20000 2.672
99.22000 2.493
99.24000 1.990
99.26000 8.178
99.28000 4.837
99.30000 1.586
99.32000 1.270
99.34000 1.468
99.36000 10.906
99.38000 7.519
99.40000 2.986
99.42000 6.439
99.44000 7.218
99.46000 3.612
99.48000 2.386
99.50000 -1.853
99.52000 3.678
99.54000 5.758
99.56000 3.949
99.58000 6.932
99.60000 2.706
99.62000 1.221
99.64000 -0.294
99.66000 4.445
99.68000 1.849
99.70000 4.020
99.72000 3.332
99.74000 5.422
99.76000 6.060
99.78000 1.659
99.80000 6.621
99.82000 5.220
99.84000 2.090
99.86000 -0.342
99.88000 -1.976
99.90000 -0.646
99.92000 5.194
99.94000 -1.659
99.96000 -2.044
99.98000 0.000
