'Id: "0011388" Comment: "Integrate frame 0011388_Au-Ir-Rh_Rh-rich_XRD-Mapping-249-0000.gfrmwith cursor Wedge Cursor #5" Operator: "B?rgel" Anode: "Cu" Wavelength: "1.5406" Scantype: "2Theta (TwoTheta)" TimePerStep: "1" X: "-4.5" Y: "18" Z: "5.95" 
10.00000 0.000
10.02000 6.141
10.04000 3.175
10.06000 15.217
10.08000 5.567
10.10000 2.113
10.12000 17.085
10.14000 21.425
10.16000 26.299
10.18000 22.835
10.20000 8.894
10.22000 11.427
10.24000 -0.400
10.26000 -4.183
10.28000 -0.438
10.30000 22.782
10.32000 25.496
10.34000 14.683
10.36000 -4.169
10.38000 4.607
10.40000 0.798
10.42000 20.304
10.44000 21.795
10.46000 24.361
10.48000 27.358
10.50000 29.642
10.52000 17.383
10.54000 14.197
10.56000 16.399
10.58000 16.688
10.60000 22.764
10.62000 34.685
10.64000 24.917
10.66000 13.568
10.68000 3.044
10.70000 7.955
10.72000 9.423
10.74000 10.315
10.76000 12.471
10.78000 19.492
10.80000 17.420
10.82000 12.718
10.84000 14.197
10.86000 14.330
10.88000 14.834
10.90000 29.132
10.92000 24.524
10.94000 20.698
10.96000 25.499
10.98000 13.343
11.00000 16.101
11.02000 24.166
11.04000 15.476
11.06000 14.106
11.08000 24.591
11.10000 22.614
11.12000 7.279
11.14000 13.015
11.16000 9.689
11.18000 4.398
11.20000 12.188
11.22000 19.791
11.24000 13.311
11.26000 5.332
11.28000 15.228
11.30000 10.531
11.32000 11.543
11.34000 23.602
11.36000 7.529
11.38000 1.384
11.40000 7.262
11.42000 6.234
11.44000 9.179
11.46000 15.259
11.48000 5.759
11.50000 17.741
11.52000 23.289
11.54000 19.385
11.56000 19.514
11.58000 15.901
11.60000 7.726
11.62000 10.494
11.64000 22.330
11.66000 17.477
11.68000 18.713
11.70000 14.628
11.72000 14.960
11.74000 15.706
11.76000 17.633
11.78000 19.157
11.80000 9.775
11.82000 14.164
11.84000 18.023
11.86000 19.914
11.88000 18.947
11.90000 22.270
11.92000 31.253
11.94000 21.852
11.96000 11.576
11.98000 7.140
12.00000 3.704
12.02000 5.119
12.04000 7.594
12.06000 8.106
12.08000 11.978
12.10000 1.409
12.12000 15.592
12.14000 21.187
12.16000 21.717
12.18000 19.004
12.20000 12.565
12.22000 11.832
12.24000 11.583
12.26000 5.875
12.28000 2.498
12.30000 10.451
12.32000 11.105
12.34000 13.056
12.36000 5.862
12.38000 7.822
12.40000 19.200
12.42000 23.125
12.44000 23.220
12.46000 20.941
12.48000 21.795
12.50000 20.878
12.52000 11.706
12.54000 5.092
12.56000 5.027
12.58000 7.518
12.60000 23.482
12.62000 15.976
12.64000 19.952
12.66000 13.774
12.68000 11.052
12.70000 15.173
12.72000 4.610
12.74000 10.451
12.76000 12.901
12.78000 20.707
12.80000 24.492
12.82000 26.150
12.84000 13.907
12.86000 3.261
12.88000 17.759
12.90000 24.145
12.92000 14.562
12.94000 12.409
12.96000 11.771
12.98000 16.237
13.00000 14.559
13.02000 6.480
13.04000 6.415
13.06000 10.907
13.08000 12.583
13.10000 9.060
13.12000 11.333
13.14000 22.617
13.16000 28.453
13.18000 18.319
13.20000 19.953
13.22000 13.618
13.24000 5.869
13.26000 17.754
13.28000 19.268
13.30000 16.909
13.32000 9.943
13.34000 4.357
13.36000 1.622
13.38000 12.116
13.40000 16.926
13.42000 15.114
13.44000 11.309
13.46000 8.477
13.48000 10.168
13.50000 15.142
13.52000 17.891
13.54000 8.907
13.56000 10.837
13.58000 7.025
13.60000 1.996
13.62000 12.228
13.64000 14.881
13.66000 23.330
13.68000 14.459
13.70000 9.459
13.72000 14.920
13.74000 16.850
13.76000 16.202
13.78000 17.780
13.80000 8.175
13.82000 7.238
13.84000 6.385
13.86000 8.978
13.88000 15.202
13.90000 9.947
13.92000 6.317
13.94000 10.794
13.96000 8.487
13.98000 -4.479
14.00000 6.098
14.02000 11.193
14.04000 11.160
14.06000 5.191
14.08000 2.713
14.10000 13.891
14.12000 9.908
14.14000 9.203
14.16000 4.335
14.18000 -2.201
14.20000 8.862
14.22000 6.393
14.24000 8.197
14.26000 11.058
14.28000 11.756
14.30000 9.599
14.32000 9.710
14.34000 10.545
14.36000 5.355
14.38000 4.530
14.40000 7.621
14.42000 7.233
14.44000 3.285
14.46000 0.467
14.48000 1.592
14.50000 7.033
14.52000 11.073
14.54000 13.262
14.56000 15.520
14.58000 6.697
14.60000 11.093
14.62000 12.158
14.64000 16.558
14.66000 19.010
14.68000 18.098
14.70000 4.839
14.72000 10.909
14.74000 9.457
14.76000 1.338
14.78000 7.641
14.80000 4.549
14.82000 4.281
14.84000 1.894
14.86000 5.433
14.88000 11.842
14.90000 12.565
14.92000 5.827
14.94000 4.002
14.96000 7.910
14.98000 12.860
15.00000 13.302
15.02000 10.901
15.04000 8.055
15.06000 4.356
15.08000 8.020
15.10000 5.106
15.12000 11.267
15.14000 5.553
15.16000 6.644
15.18000 2.876
15.20000 -2.846
15.22000 6.204
15.24000 7.465
15.26000 9.081
15.28000 9.795
15.30000 3.455
15.32000 2.225
15.34000 -0.897
15.36000 0.395
15.38000 13.598
15.40000 10.856
15.42000 6.285
15.44000 5.103
15.46000 13.095
15.48000 12.153
15.50000 10.404
15.52000 5.011
15.54000 6.943
15.56000 14.911
15.58000 8.464
15.60000 2.699
15.62000 0.175
15.64000 7.252
15.66000 5.203
15.68000 10.541
15.70000 6.247
15.72000 -0.026
15.74000 1.177
15.76000 0.767
15.78000 0.468
15.80000 16.000
15.82000 7.379
15.84000 2.007
15.86000 3.170
15.88000 0.706
15.90000 4.918
15.92000 13.621
15.94000 7.174
15.96000 0.341
15.98000 3.813
16.00000 6.870
16.02000 6.272
16.04000 -3.387
16.06000 2.932
16.08000 -2.615
16.10000 9.654
16.12000 4.712
16.14000 -0.578
16.16000 3.894
16.18000 9.369
16.20000 6.268
16.22000 -0.995
16.24000 -2.182
16.26000 -1.675
16.28000 1.814
16.30000 6.821
16.32000 2.126
16.34000 -1.268
16.36000 -1.010
16.38000 3.175
16.40000 5.523
16.42000 10.907
16.44000 16.339
16.46000 8.681
16.48000 6.737
16.50000 10.157
16.52000 1.941
16.54000 7.428
16.56000 -3.715
16.58000 2.146
16.60000 8.588
16.62000 4.041
16.64000 7.841
16.66000 7.736
16.68000 5.948
16.70000 6.191
16.72000 12.123
16.74000 6.066
16.76000 2.817
16.78000 9.666
16.80000 7.197
16.82000 2.601
16.84000 11.580
16.86000 20.768
16.88000 13.422
16.90000 10.695
16.92000 8.219
16.94000 8.596
16.96000 8.800
16.98000 8.617
17.00000 15.571
17.02000 13.864
17.04000 13.185
17.06000 -0.306
17.08000 1.065
17.10000 -2.842
17.12000 -2.780
17.14000 -4.192
17.16000 2.145
17.18000 11.409
17.20000 19.370
17.22000 17.325
17.24000 13.220
17.26000 3.967
17.28000 5.057
17.30000 12.635
17.32000 12.881
17.34000 11.878
17.36000 7.007
17.38000 5.142
17.40000 1.635
17.42000 2.569
17.44000 5.145
17.46000 5.906
17.48000 3.990
17.50000 7.072
17.52000 9.540
17.54000 9.248
17.56000 5.762
17.58000 -4.348
17.60000 -3.036
17.62000 10.989
17.64000 11.010
17.66000 7.808
17.68000 4.138
17.70000 7.278
17.72000 10.804
17.74000 15.318
17.76000 13.208
17.78000 13.478
17.80000 4.877
17.82000 3.571
17.84000 6.727
17.86000 5.574
17.88000 4.929
17.90000 4.186
17.92000 9.020
17.94000 3.865
17.96000 2.088
17.98000 8.527
18.00000 5.366
18.02000 8.646
18.04000 10.334
18.06000 2.382
18.08000 5.320
18.10000 14.389
18.12000 14.483
18.14000 12.533
18.16000 12.582
18.18000 3.969
18.20000 10.612
18.22000 7.183
18.24000 6.249
18.26000 14.152
18.28000 12.485
18.30000 8.072
18.32000 7.176
18.34000 7.460
18.36000 2.378
18.38000 8.540
18.40000 3.675
18.42000 6.008
18.44000 8.103
18.46000 2.480
18.48000 2.601
18.50000 12.509
18.52000 14.519
18.54000 9.340
18.56000 8.454
18.58000 -0.777
18.60000 -0.837
18.62000 2.255
18.64000 6.565
18.66000 4.107
18.68000 4.898
18.70000 -2.773
18.72000 -1.155
18.74000 4.438
18.76000 4.364
18.78000 1.045
18.80000 3.278
18.82000 5.317
18.84000 -4.302
18.86000 5.558
18.88000 9.345
18.90000 8.634
18.92000 -1.900
18.94000 2.239
18.96000 6.310
18.98000 5.100
19.00000 5.795
19.02000 1.901
19.04000 4.158
19.06000 2.538
19.08000 -2.166
19.10000 4.197
19.12000 6.038
19.14000 2.039
19.16000 1.705
19.18000 6.247
19.20000 3.922
19.22000 -0.977
19.24000 -0.827
19.26000 1.578
19.28000 6.062
19.30000 3.143
19.32000 6.120
19.34000 8.636
19.36000 2.400
19.38000 3.316
19.40000 -0.552
19.42000 -0.610
19.44000 9.357
19.46000 10.709
19.48000 6.854
19.50000 1.921
19.52000 -0.914
19.54000 6.312
19.56000 9.703
19.58000 1.131
19.60000 -2.416
19.62000 1.760
19.64000 9.355
19.66000 -1.102
19.68000 5.754
19.70000 7.714
19.72000 6.852
19.74000 6.500
19.76000 7.150
19.78000 -1.915
19.80000 -3.422
19.82000 1.306
19.84000 2.401
19.86000 1.172
19.88000 -3.154
19.90000 0.791
19.92000 3.995
19.94000 8.524
19.96000 -0.650
19.98000 -3.042
20.00000 -2.692
20.02000 4.475
20.04000 6.500
20.06000 2.274
20.08000 -2.160
20.10000 -1.057
20.12000 -0.613
20.14000 -0.036
20.16000 1.947
20.18000 -0.732
20.20000 3.003
20.22000 3.042
20.24000 7.378
20.26000 10.205
20.28000 10.373
20.30000 8.953
20.32000 4.871
20.34000 1.513
20.36000 -1.562
20.38000 -4.247
20.40000 3.388
20.42000 -1.748
20.44000 1.914
20.46000 0.257
20.48000 5.811
20.50000 8.913
20.52000 5.251
20.54000 -0.140
20.56000 0.249
20.58000 -0.827
20.60000 2.575
20.62000 4.640
20.64000 6.728
20.66000 0.110
20.68000 -2.015
20.70000 1.814
20.72000 5.440
20.74000 3.788
20.76000 2.221
20.78000 1.234
20.80000 -1.693
20.82000 -0.255
20.84000 -0.337
20.86000 8.294
20.88000 9.143
20.90000 4.866
20.92000 5.018
20.94000 8.664
20.96000 10.208
20.98000 9.346
21.00000 4.976
21.02000 0.202
21.04000 5.090
21.06000 4.187
21.08000 2.583
21.10000 7.678
21.12000 11.360
21.14000 -0.941
21.16000 1.587
21.18000 3.205
21.20000 7.069
21.22000 5.756
21.24000 6.208
21.26000 7.518
21.28000 8.150
21.30000 3.937
21.32000 3.950
21.34000 3.310
21.36000 7.441
21.38000 0.717
21.40000 2.865
21.42000 4.562
21.44000 4.487
21.46000 2.668
21.48000 2.432
21.50000 3.456
21.52000 2.600
21.54000 3.930
21.56000 -2.949
21.58000 -4.153
21.60000 0.723
21.62000 7.527
21.64000 1.725
21.66000 1.580
21.68000 1.423
21.70000 1.791
21.72000 2.784
21.74000 -0.919
21.76000 -0.816
21.78000 0.321
21.80000 7.183
21.82000 -1.653
21.84000 -2.415
21.86000 11.103
21.88000 3.541
21.90000 5.185
21.92000 14.378
21.94000 13.002
21.96000 11.225
21.98000 8.073
22.00000 5.894
22.02000 1.602
22.04000 -3.626
22.06000 7.165
22.08000 5.305
22.10000 1.168
22.12000 3.162
22.14000 8.085
22.16000 11.816
22.18000 15.860
22.20000 13.392
22.22000 10.106
22.24000 9.437
22.26000 2.951
22.28000 2.274
22.30000 3.705
22.32000 3.763
22.34000 0.602
22.36000 3.251
22.38000 7.601
22.40000 3.767
22.42000 4.323
22.44000 2.495
22.46000 -3.606
22.48000 1.374
22.50000 1.998
22.52000 3.416
22.54000 4.938
22.56000 1.076
22.58000 1.593
22.60000 0.535
22.62000 4.726
22.64000 1.940
22.66000 4.786
22.68000 11.461
22.70000 5.958
22.72000 6.298
22.74000 5.607
22.76000 5.391
22.78000 8.527
22.80000 7.718
22.82000 9.316
22.84000 7.269
22.86000 7.454
22.88000 9.726
22.90000 11.021
22.92000 4.290
22.94000 -3.307
22.96000 -4.076
22.98000 -3.290
23.00000 8.241
23.02000 5.179
23.04000 -0.061
23.06000 2.993
23.08000 8.287
23.10000 2.824
23.12000 0.110
23.14000 0.617
23.16000 1.384
23.18000 -1.825
23.20000 3.542
23.22000 5.073
23.24000 1.854
23.26000 1.234
23.28000 0.502
23.30000 -0.014
23.32000 3.873
23.34000 1.822
23.36000 0.317
23.38000 5.396
23.40000 4.299
23.42000 -1.823
23.44000 6.982
23.46000 4.861
23.48000 -3.816
23.50000 -1.286
23.52000 -1.824
23.54000 4.111
23.56000 6.848
23.58000 7.916
23.60000 6.902
23.62000 2.392
23.64000 0.053
23.66000 3.217
23.68000 4.877
23.70000 5.591
23.72000 -0.451
23.74000 -2.019
23.76000 0.169
23.78000 2.249
23.80000 9.239
23.82000 8.097
23.84000 2.668
23.86000 0.716
23.88000 -3.896
23.90000 -1.002
23.92000 -4.055
23.94000 5.716
23.96000 10.674
23.98000 8.913
24.00000 5.530
24.02000 4.679
24.04000 -0.535
24.06000 -1.907
24.08000 5.354
24.10000 10.659
24.12000 9.704
24.14000 5.977
24.16000 9.432
24.18000 3.578
24.20000 4.559
24.22000 7.249
24.24000 -0.673
24.26000 -2.155
24.28000 4.772
24.30000 7.084
24.32000 3.976
24.34000 7.750
24.36000 5.650
24.38000 5.054
24.40000 1.100
24.42000 0.771
24.44000 -3.322
24.46000 4.101
24.48000 9.748
24.50000 6.041
24.52000 4.343
24.54000 3.047
24.56000 3.136
24.58000 -0.893
24.60000 -0.144
24.62000 -0.080
24.64000 1.700
24.66000 2.268
24.68000 -1.176
24.70000 2.062
24.72000 2.676
24.74000 5.161
24.76000 0.588
24.78000 7.472
24.80000 9.036
24.82000 2.426
24.84000 -2.903
24.86000 2.623
24.88000 7.110
24.90000 7.357
24.92000 4.797
24.94000 3.718
24.96000 5.129
24.98000 -2.280
25.00000 -3.983
25.02000 2.601
25.04000 6.497
25.06000 2.576
25.08000 4.783
25.10000 7.383
25.12000 8.649
25.14000 6.018
25.16000 -0.873
25.18000 0.071
25.20000 3.941
25.22000 0.157
25.24000 -1.283
25.26000 -3.958
25.28000 -2.820
25.30000 3.328
25.32000 2.719
25.34000 -3.298
25.36000 3.836
25.38000 3.140
25.40000 1.315
25.42000 3.216
25.44000 -0.743
25.46000 4.978
25.48000 0.450
25.50000 2.511
25.52000 -1.962
25.54000 -0.912
25.56000 6.039
25.58000 5.438
25.60000 3.654
25.62000 6.577
25.64000 3.418
25.66000 -0.407
25.68000 -1.233
25.70000 0.514
25.72000 8.628
25.74000 11.200
25.76000 8.968
25.78000 5.136
25.80000 3.698
25.82000 4.844
25.84000 8.136
25.86000 7.085
25.88000 8.174
25.90000 4.515
25.92000 2.499
25.94000 3.211
25.96000 0.885
25.98000 6.092
26.00000 4.384
26.02000 5.689
26.04000 2.804
26.06000 1.766
26.08000 5.643
26.10000 8.334
26.12000 5.367
26.14000 5.090
26.16000 10.131
26.18000 10.116
26.20000 2.333
26.22000 4.160
26.24000 2.228
26.26000 8.068
26.28000 8.514
26.30000 13.529
26.32000 8.556
26.34000 2.874
26.36000 0.528
26.38000 5.822
26.40000 4.973
26.42000 7.399
26.44000 3.765
26.46000 -3.858
26.48000 -1.010
26.50000 5.566
26.52000 7.724
26.54000 8.569
26.56000 8.859
26.58000 2.776
26.60000 2.993
26.62000 10.106
26.64000 10.240
26.66000 5.846
26.68000 8.433
26.70000 3.117
26.72000 4.327
26.74000 6.425
26.76000 5.667
26.78000 11.364
26.80000 9.661
26.82000 8.135
26.84000 9.132
26.86000 8.613
26.88000 9.273
26.90000 -1.369
26.92000 -3.838
26.94000 5.774
26.96000 5.200
26.98000 5.584
27.00000 10.710
27.02000 10.433
27.04000 7.033
27.06000 8.292
27.08000 13.844
27.10000 9.615
27.12000 1.972
27.14000 1.004
27.16000 -0.562
27.18000 10.646
27.20000 9.982
27.22000 8.092
27.24000 7.238
27.26000 8.499
27.28000 9.415
27.30000 8.700
27.32000 4.455
27.34000 8.704
27.36000 7.776
27.38000 7.545
27.40000 8.413
27.42000 3.794
27.44000 5.403
27.46000 5.337
27.48000 0.731
27.50000 0.832
27.52000 6.637
27.54000 5.729
27.56000 6.038
27.58000 7.404
27.60000 1.166
27.62000 1.311
27.64000 6.403
27.66000 7.342
27.68000 8.342
27.70000 5.513
27.72000 1.417
27.74000 6.271
27.76000 5.346
27.78000 -0.958
27.80000 -3.818
27.82000 2.388
27.84000 2.737
27.86000 7.324
27.88000 4.787
27.90000 -2.252
27.92000 3.108
27.94000 3.897
27.96000 5.279
27.98000 7.689
28.00000 2.155
28.02000 1.397
28.04000 5.852
28.06000 1.896
28.08000 -2.582
28.10000 2.467
28.12000 6.975
28.14000 8.256
28.16000 8.620
28.18000 10.256
28.20000 8.372
28.22000 2.403
28.24000 -1.979
28.26000 -1.990
28.28000 1.128
28.30000 2.462
28.32000 2.129
28.34000 8.326
28.36000 6.914
28.38000 -0.973
28.40000 -2.118
28.42000 -0.718
28.44000 0.195
28.46000 1.706
28.48000 -3.795
28.50000 0.848
28.52000 2.275
28.54000 2.320
28.56000 -0.664
28.58000 -0.909
28.60000 2.683
28.62000 2.543
28.64000 1.746
28.66000 -1.254
28.68000 1.912
28.70000 3.082
28.72000 6.595
28.74000 4.481
28.76000 -0.782
28.78000 1.678
28.80000 2.333
28.82000 1.053
28.84000 6.284
28.86000 2.500
28.88000 7.387
28.90000 8.264
28.92000 3.701
28.94000 2.054
28.96000 -1.533
28.98000 1.095
29.00000 4.595
29.02000 3.048
29.04000 5.166
29.06000 2.733
29.08000 1.483
29.10000 3.226
29.12000 3.083
29.14000 11.023
29.16000 -1.701
29.18000 -3.773
29.20000 1.158
29.22000 2.726
29.24000 -1.935
29.26000 0.632
29.28000 -2.664
29.30000 3.168
29.32000 0.650
29.34000 2.157
29.36000 4.538
29.38000 -1.098
29.40000 -2.199
29.42000 -0.581
29.44000 0.729
29.46000 4.225
29.48000 3.332
29.50000 8.203
29.52000 3.062
29.54000 4.587
29.56000 7.526
29.58000 4.137
29.60000 2.451
29.62000 -0.876
29.64000 -1.792
29.66000 2.625
29.68000 2.010
29.70000 -2.101
29.72000 8.111
29.74000 4.389
29.76000 -1.538
29.78000 0.772
29.80000 3.706
29.82000 -3.108
29.84000 1.935
29.86000 3.215
29.88000 1.257
29.90000 4.316
29.92000 0.280
29.94000 -1.113
29.96000 0.318
29.98000 1.679
30.00000 2.376
30.02000 3.815
30.04000 -1.041
30.06000 0.246
30.08000 0.196
30.10000 3.793
30.12000 5.347
30.14000 4.540
30.16000 1.778
30.18000 -1.259
30.20000 1.293
30.22000 0.761
30.24000 2.079
30.26000 3.496
30.28000 4.133
30.30000 4.139
30.32000 1.113
30.34000 1.540
30.36000 6.858
30.38000 3.441
30.40000 3.627
30.42000 3.056
30.44000 3.416
30.46000 1.544
30.48000 -3.694
30.50000 -3.227
30.52000 3.215
30.54000 2.589
30.56000 9.475
30.58000 12.559
30.60000 6.614
30.62000 5.583
30.64000 6.797
30.66000 3.863
30.68000 3.355
30.70000 4.657
30.72000 4.865
30.74000 1.944
30.76000 4.631
30.78000 6.071
30.80000 4.031
30.82000 6.070
30.84000 10.637
30.86000 9.096
30.88000 6.169
30.90000 4.933
30.92000 3.260
30.94000 3.943
30.96000 3.334
30.98000 3.438
31.00000 0.992
31.02000 2.301
31.04000 6.318
31.06000 2.855
31.08000 1.289
31.10000 0.428
31.12000 -3.295
31.14000 -3.637
31.16000 2.628
31.18000 10.047
31.20000 10.063
31.22000 3.424
31.24000 1.606
31.26000 7.031
31.28000 7.578
31.30000 8.890
31.32000 9.528
31.34000 10.971
31.36000 5.124
31.38000 3.220
31.40000 1.906
31.42000 6.333
31.44000 8.271
31.46000 8.000
31.48000 6.449
31.50000 6.294
31.52000 9.782
31.54000 5.818
31.56000 2.740
31.58000 3.979
31.60000 -3.643
31.62000 2.019
31.64000 3.792
31.66000 3.842
31.68000 8.285
31.70000 10.162
31.72000 4.186
31.74000 2.178
31.76000 6.395
31.78000 6.783
31.80000 4.310
31.82000 4.820
31.84000 3.878
31.86000 1.562
31.88000 3.142
31.90000 5.430
31.92000 6.540
31.94000 6.839
31.96000 5.241
31.98000 9.203
32.00000 7.142
32.02000 1.565
32.04000 -0.354
32.06000 0.291
32.08000 -0.258
32.10000 -0.771
32.12000 0.291
32.14000 3.869
32.16000 3.841
32.18000 -3.280
32.20000 -2.511
32.22000 3.240
32.24000 4.144
32.26000 1.987
32.28000 0.250
32.30000 -1.177
32.32000 -1.480
32.34000 3.440
32.36000 3.465
32.38000 6.516
32.40000 1.168
32.42000 -1.954
32.44000 2.062
32.46000 1.001
32.48000 3.252
32.50000 3.030
32.52000 -0.392
32.54000 6.127
32.56000 5.530
32.58000 0.872
32.60000 2.760
32.62000 6.097
32.64000 6.470
32.66000 3.736
32.68000 5.246
32.70000 1.906
32.72000 0.855
32.74000 -0.645
32.76000 -1.277
32.78000 1.210
32.80000 3.885
32.82000 4.729
32.84000 1.352
32.86000 1.207
32.88000 -1.810
32.90000 -0.716
32.92000 3.564
32.94000 3.989
32.96000 -1.308
32.98000 -1.808
33.00000 -3.606
33.02000 -3.503
33.04000 -3.605
33.06000 -0.042
33.08000 2.834
33.10000 5.148
33.12000 3.964
33.14000 3.661
33.16000 -1.665
33.18000 2.732
33.20000 6.864
33.22000 3.634
33.24000 2.537
33.26000 7.543
33.28000 1.469
33.30000 -0.696
33.32000 0.827
33.34000 -1.019
33.36000 -3.498
33.38000 0.709
33.40000 0.803
33.42000 -3.552
33.44000 -3.055
33.46000 0.761
33.48000 2.915
33.50000 2.569
33.52000 2.165
33.54000 7.457
33.56000 6.142
33.58000 4.687
33.60000 7.086
33.62000 4.177
33.64000 1.821
33.66000 -1.421
33.68000 -2.502
33.70000 6.285
33.72000 5.299
33.74000 1.937
33.76000 0.826
33.78000 -1.066
33.80000 3.901
33.82000 2.431
33.84000 0.701
33.86000 2.733
33.88000 5.391
33.90000 6.139
33.92000 3.411
33.94000 2.115
33.96000 3.275
33.98000 3.148
34.00000 0.758
34.02000 -0.618
34.04000 3.988
34.06000 5.370
34.08000 0.382
34.10000 -0.427
34.12000 1.581
34.14000 2.418
34.16000 4.271
34.18000 4.473
34.20000 4.467
34.22000 1.492
34.24000 1.457
34.26000 1.064
34.28000 2.821
34.30000 3.619
34.32000 3.498
34.34000 5.733
34.36000 1.008
34.38000 -1.636
34.40000 1.351
34.42000 0.995
34.44000 -0.279
34.46000 -0.200
34.48000 6.715
34.50000 9.516
34.52000 8.684
34.54000 -3.078
34.56000 1.213
34.58000 -3.580
34.60000 0.465
34.62000 -1.431
34.64000 -0.341
34.66000 0.713
34.68000 -1.537
34.70000 -0.094
34.72000 4.918
34.74000 6.711
34.76000 2.620
34.78000 3.398
34.80000 1.403
34.82000 2.679
34.84000 -2.104
34.86000 3.614
34.88000 5.307
34.90000 8.683
34.92000 3.360
34.94000 -0.805
34.96000 -0.662
34.98000 1.905
35.00000 0.778
35.02000 -0.017
35.04000 5.248
35.06000 4.278
35.08000 4.590
35.10000 4.567
35.12000 7.613
35.14000 7.925
35.16000 3.119
35.18000 2.121
35.20000 3.688
35.22000 -0.226
35.24000 -1.351
35.26000 3.501
35.28000 7.278
35.30000 7.111
35.32000 4.838
35.34000 3.015
35.36000 -1.089
35.38000 -3.533
35.40000 3.270
35.42000 8.228
35.44000 10.647
35.46000 6.324
35.48000 6.144
35.50000 2.028
35.52000 4.634
35.54000 6.711
35.56000 4.394
35.58000 2.312
35.60000 2.166
35.62000 4.904
35.64000 2.559
35.66000 1.655
35.68000 1.732
35.70000 -1.222
35.72000 -1.951
35.74000 4.307
35.76000 7.635
35.78000 0.377
35.80000 1.514
35.82000 4.338
35.84000 5.239
35.86000 6.721
35.88000 5.920
35.90000 4.180
35.92000 -0.688
35.94000 4.053
35.96000 4.944
35.98000 -2.204
36.00000 -1.188
36.02000 2.613
36.04000 1.485
36.06000 2.611
36.08000 1.658
36.10000 -1.848
36.12000 5.392
36.14000 8.061
36.16000 2.327
36.18000 -0.210
36.20000 -0.369
36.22000 4.271
36.24000 -0.203
36.26000 0.534
36.28000 1.454
36.30000 0.397
36.32000 -0.116
36.34000 1.556
36.36000 5.130
36.38000 3.500
36.40000 3.249
36.42000 5.415
36.44000 2.640
36.46000 -0.500
36.48000 3.830
36.50000 1.162
36.52000 -0.263
36.54000 6.358
36.56000 4.075
36.58000 -1.078
36.60000 -2.113
36.62000 1.896
36.64000 1.896
36.66000 6.510
36.68000 6.398
36.70000 2.131
36.72000 0.994
36.74000 0.051
36.76000 -1.642
36.78000 -0.250
36.80000 -3.599
36.82000 0.091
36.84000 1.769
36.86000 2.827
36.88000 3.117
36.90000 -0.396
36.92000 0.709
36.94000 0.775
36.96000 1.614
36.98000 -0.591
37.00000 0.749
37.02000 -1.515
37.04000 -0.476
37.06000 -0.886
37.08000 1.714
37.10000 2.728
37.12000 1.091
37.14000 -0.340
37.16000 -0.497
37.18000 -2.755
37.20000 -0.553
37.22000 1.474
37.24000 -1.011
37.26000 -3.619
37.28000 -0.420
37.30000 -0.088
37.32000 4.759
37.34000 8.893
37.36000 9.004
37.38000 6.647
37.40000 8.188
37.42000 15.162
37.44000 4.799
37.46000 1.098
37.48000 2.358
37.50000 7.251
37.52000 5.986
37.54000 0.807
37.56000 7.251
37.58000 8.622
37.60000 7.438
37.62000 4.734
37.64000 12.779
37.66000 8.945
37.68000 10.235
37.70000 6.665
37.72000 7.251
37.74000 6.506
37.76000 1.782
37.78000 4.442
37.80000 7.044
37.82000 8.588
37.84000 8.826
37.86000 6.110
37.88000 9.316
37.90000 5.856
37.92000 3.431
37.94000 3.791
37.96000 4.035
37.98000 9.547
38.00000 14.477
38.02000 13.867
38.04000 13.545
38.06000 10.693
38.08000 13.249
38.10000 16.026
38.12000 13.511
38.14000 13.863
38.16000 15.534
38.18000 13.627
38.20000 12.408
38.22000 19.597
38.24000 18.834
38.26000 13.603
38.28000 11.486
38.30000 16.157
38.32000 17.827
38.34000 14.253
38.36000 16.069
38.38000 22.509
38.40000 25.792
38.42000 22.613
38.44000 23.556
38.46000 24.045
38.48000 23.052
38.50000 21.096
38.52000 23.564
38.54000 25.734
38.56000 26.004
38.58000 30.665
38.60000 32.431
38.62000 29.776
38.64000 28.702
38.66000 31.688
38.68000 29.226
38.70000 36.877
38.72000 34.637
38.74000 34.042
38.76000 39.382
38.78000 36.686
38.80000 34.261
38.82000 40.923
38.84000 42.023
38.86000 46.746
38.88000 46.683
38.90000 51.382
38.92000 48.526
38.94000 50.251
38.96000 52.289
38.98000 58.859
39.00000 56.764
39.02000 58.909
39.04000 59.270
39.06000 61.158
39.08000 67.018
39.10000 67.459
39.12000 70.558
39.14000 76.043
39.16000 79.205
39.18000 80.356
39.20000 83.121
39.22000 88.640
39.24000 91.637
39.26000 93.910
39.28000 97.241
39.30000 108.718
39.32000 115.439
39.34000 112.061
39.36000 120.237
39.38000 116.713
39.40000 120.964
39.42000 136.307
39.44000 141.637
39.46000 145.055
39.48000 148.822
39.50000 157.031
39.52000 160.895
39.54000 170.927
39.56000 181.093
39.58000 183.211
39.60000 193.490
39.62000 203.888
39.64000 215.167
39.66000 219.014
39.68000 229.810
39.70000 243.809
39.72000 260.627
39.74000 273.471
39.76000 282.127
39.78000 303.666
39.80000 317.498
39.82000 315.362
39.84000 334.060
39.86000 354.601
39.88000 365.402
39.90000 385.812
39.92000 413.318
39.94000 426.289
39.96000 434.134
39.98000 449.174
40.00000 453.161
40.02000 475.693
40.04000 494.309
40.06000 503.423
40.08000 520.595
40.10000 543.499
40.12000 554.734
40.14000 558.753
40.16000 567.707
40.18000 579.333
40.20000 584.149
40.22000 596.603
40.24000 608.056
40.26000 608.869
40.28000 610.946
40.30000 609.938
40.32000 615.740
40.34000 602.695
40.36000 592.337
40.38000 595.411
40.40000 592.170
40.42000 578.873
40.44000 582.529
40.46000 564.504
40.48000 551.388
40.50000 543.917
40.52000 537.374
40.54000 521.160
40.56000 502.428
40.58000 492.571
40.60000 468.878
40.62000 447.294
40.64000 438.203
40.66000 425.482
40.68000 413.889
40.70000 395.130
40.72000 381.002
40.74000 361.554
40.76000 343.451
40.78000 330.530
40.80000 314.867
40.82000 297.367
40.84000 291.419
40.86000 276.223
40.88000 249.043
40.90000 244.231
40.92000 233.437
40.94000 219.814
40.96000 211.408
40.98000 196.382
41.00000 191.731
41.02000 180.002
41.04000 171.369
41.06000 157.973
41.08000 150.374
41.10000 142.445
41.12000 129.245
41.14000 132.226
41.16000 127.176
41.18000 117.497
41.20000 113.753
41.22000 106.490
41.24000 94.674
41.26000 87.940
41.28000 92.160
41.30000 87.699
41.32000 82.397
41.34000 76.358
41.36000 74.739
41.38000 66.626
41.40000 66.818
41.42000 64.966
41.44000 63.995
41.46000 63.062
41.48000 57.652
41.50000 55.050
41.52000 49.986
41.54000 48.073
41.56000 45.702
41.58000 41.550
41.60000 36.075
41.62000 34.212
41.64000 32.117
41.66000 27.949
41.68000 35.344
41.70000 32.919
41.72000 34.083
41.74000 33.173
41.76000 32.923
41.78000 28.433
41.80000 29.237
41.82000 26.350
41.84000 22.531
41.86000 21.361
41.88000 16.347
41.90000 17.578
41.92000 20.419
41.94000 23.243
41.96000 19.975
41.98000 16.901
42.00000 17.911
42.02000 22.064
42.04000 23.008
42.06000 19.849
42.08000 18.649
42.10000 16.660
42.12000 13.978
42.14000 10.484
42.16000 12.637
42.18000 13.102
42.20000 11.048
42.22000 11.760
42.24000 12.282
42.26000 11.669
42.28000 13.210
42.30000 13.611
42.32000 13.606
42.34000 12.550
42.36000 10.975
42.38000 9.817
42.40000 10.019
42.42000 9.997
42.44000 6.884
42.46000 10.192
42.48000 6.633
42.50000 8.478
42.52000 11.793
42.54000 8.842
42.56000 8.319
42.58000 5.673
42.60000 4.858
42.62000 6.747
42.64000 5.886
42.66000 6.584
42.68000 5.815
42.70000 6.276
42.72000 9.614
42.74000 11.308
42.76000 6.696
42.78000 6.853
42.80000 1.514
42.82000 -3.533
42.84000 -1.033
42.86000 5.064
42.88000 5.417
42.90000 6.162
42.92000 3.993
42.94000 3.023
42.96000 5.209
42.98000 3.406
43.00000 7.397
43.02000 3.928
43.04000 6.413
43.06000 6.176
43.08000 3.859
43.10000 4.180
43.12000 4.704
43.14000 2.946
43.16000 1.827
43.18000 -1.673
43.20000 0.154
43.22000 1.399
43.24000 3.015
43.26000 7.452
43.28000 6.661
43.30000 2.311
43.32000 2.896
43.34000 6.147
43.36000 5.644
43.38000 0.090
43.40000 2.583
43.42000 -0.022
43.44000 -3.497
43.46000 2.288
43.48000 2.430
43.50000 3.251
43.52000 3.167
43.54000 3.539
43.56000 2.424
43.58000 3.540
43.60000 -0.383
43.62000 -2.765
43.64000 -2.878
43.66000 1.452
43.68000 3.049
43.70000 1.199
43.72000 4.303
43.74000 1.639
43.76000 -0.468
43.78000 2.058
43.80000 1.124
43.82000 2.771
43.84000 2.337
43.86000 4.579
43.88000 4.160
43.90000 0.696
43.92000 5.832
43.94000 5.685
43.96000 6.820
43.98000 3.936
44.00000 1.738
44.02000 1.499
44.04000 1.388
44.06000 -3.302
44.08000 -3.450
44.10000 2.107
44.12000 6.734
44.14000 7.499
44.16000 11.333
44.18000 3.244
44.20000 2.500
44.22000 5.730
44.24000 10.638
44.26000 9.149
44.28000 1.159
44.30000 0.229
44.32000 2.032
44.34000 -0.283
44.36000 2.067
44.38000 1.308
44.40000 0.789
44.42000 10.165
44.44000 6.835
44.46000 1.990
44.48000 2.273
44.50000 4.780
44.52000 0.036
44.54000 3.137
44.56000 1.912
44.58000 5.006
44.60000 6.490
44.62000 5.293
44.64000 8.781
44.66000 7.874
44.68000 5.744
44.70000 0.888
44.72000 0.945
44.74000 0.699
44.76000 8.745
44.78000 7.397
44.80000 8.339
44.82000 8.768
44.84000 9.879
44.86000 4.517
44.88000 7.054
44.90000 7.901
44.92000 5.825
44.94000 7.345
44.96000 7.051
44.98000 5.013
45.00000 8.763
45.02000 9.355
45.04000 10.957
45.06000 10.714
45.08000 9.463
45.10000 10.767
45.12000 8.040
45.14000 8.872
45.16000 11.617
45.18000 13.944
45.20000 8.424
45.22000 14.853
45.24000 11.647
45.26000 12.559
45.28000 14.102
45.30000 14.341
45.32000 12.344
45.34000 15.496
45.36000 15.986
45.38000 18.715
45.40000 20.058
45.42000 18.492
45.44000 12.385
45.46000 12.610
45.48000 16.952
45.50000 7.120
45.52000 11.621
45.54000 19.395
45.56000 20.357
45.58000 16.914
45.60000 22.184
45.62000 22.492
45.64000 15.812
45.66000 19.636
45.68000 25.569
45.70000 22.613
45.72000 26.529
45.74000 29.430
45.76000 36.492
45.78000 34.146
45.80000 31.680
45.82000 28.753
45.84000 31.863
45.86000 31.608
45.88000 30.830
45.90000 36.660
45.92000 33.609
45.94000 35.806
45.96000 39.474
45.98000 41.825
46.00000 39.071
46.02000 38.637
46.04000 40.659
46.06000 42.319
46.08000 47.094
46.10000 46.289
46.12000 51.466
46.14000 56.981
46.16000 58.580
46.18000 52.035
46.20000 46.131
46.22000 50.358
46.24000 50.575
46.26000 54.189
46.28000 47.762
46.30000 55.924
46.32000 61.434
46.34000 63.078
46.36000 62.792
46.38000 61.783
46.40000 62.095
46.42000 60.033
46.44000 69.299
46.46000 64.816
46.48000 64.865
46.50000 76.218
46.52000 81.580
46.54000 78.623
46.56000 75.124
46.58000 76.084
46.60000 73.452
46.62000 72.044
46.64000 73.229
46.66000 80.144
46.68000 81.059
46.70000 77.593
46.72000 83.561
46.74000 81.327
46.76000 83.985
46.78000 83.999
46.80000 81.521
46.82000 86.458
46.84000 83.488
46.86000 84.164
46.88000 87.672
46.90000 90.484
46.92000 90.472
46.94000 86.117
46.96000 85.143
46.98000 87.534
47.00000 87.452
47.02000 86.541
47.04000 90.053
47.06000 75.658
47.08000 78.309
47.10000 72.253
47.12000 73.016
47.14000 71.516
47.16000 71.793
47.18000 67.416
47.20000 66.653
47.22000 70.711
47.24000 68.411
47.26000 64.094
47.28000 68.436
47.30000 65.788
47.32000 63.568
47.34000 63.635
47.36000 59.269
47.38000 54.875
47.40000 56.220
47.42000 56.849
47.44000 50.219
47.46000 50.549
47.48000 50.308
47.50000 52.212
47.52000 49.474
47.54000 46.754
47.56000 45.039
47.58000 35.493
47.60000 32.760
47.62000 33.510
47.64000 38.265
47.66000 39.640
47.68000 34.914
47.70000 32.350
47.72000 31.825
47.74000 34.311
47.76000 40.715
47.78000 32.228
47.80000 28.987
47.82000 33.582
47.84000 24.762
47.86000 20.178
47.88000 18.519
47.90000 16.545
47.92000 17.966
47.94000 24.547
47.96000 22.909
47.98000 21.245
48.00000 26.419
48.02000 27.455
48.04000 24.456
48.06000 15.059
48.08000 12.374
48.10000 13.555
48.12000 11.008
48.14000 12.361
48.16000 8.762
48.18000 14.525
48.20000 12.808
48.22000 13.415
48.24000 11.695
48.26000 11.542
48.28000 14.023
48.30000 8.230
48.32000 9.333
48.34000 8.872
48.36000 8.466
48.38000 7.232
48.40000 0.074
48.42000 6.597
48.44000 8.610
48.46000 4.832
48.48000 7.194
48.50000 -0.216
48.52000 -1.040
48.54000 -0.091
48.56000 3.120
48.58000 3.293
48.60000 3.056
48.62000 4.098
48.64000 0.710
48.66000 -3.216
48.68000 2.045
48.70000 8.412
48.72000 2.562
48.74000 3.351
48.76000 2.742
48.78000 2.679
48.80000 5.693
48.82000 5.537
48.84000 -0.618
48.86000 2.105
48.88000 3.977
48.90000 4.598
48.92000 6.217
48.94000 1.638
48.96000 7.146
48.98000 7.963
49.00000 4.870
49.02000 0.992
49.04000 -0.278
49.06000 3.561
49.08000 2.318
49.10000 -1.213
49.12000 1.742
49.14000 5.253
49.16000 6.261
49.18000 6.850
49.20000 4.608
49.22000 -1.096
49.24000 -2.283
49.26000 1.813
49.28000 2.006
49.30000 3.921
49.32000 9.727
49.34000 8.821
49.36000 1.452
49.38000 2.847
49.40000 0.644
49.42000 5.488
49.44000 5.404
49.46000 0.511
49.48000 2.021
49.50000 -3.093
49.52000 -0.554
49.54000 2.946
49.56000 4.923
49.58000 3.516
49.60000 3.342
49.62000 6.064
49.64000 10.274
49.66000 5.078
49.68000 11.454
49.70000 6.415
49.72000 2.105
49.74000 0.884
49.76000 2.306
49.78000 5.905
49.80000 1.161
49.82000 -0.264
49.84000 1.364
49.86000 7.230
49.88000 8.423
49.90000 10.599
49.92000 4.452
49.94000 5.975
49.96000 4.520
49.98000 3.449
50.00000 9.097
50.02000 8.389
50.04000 7.140
50.06000 5.669
50.08000 4.934
50.10000 6.037
50.12000 7.495
50.14000 5.933
50.16000 10.073
50.18000 10.126
50.20000 6.975
50.22000 4.811
50.24000 8.369
50.26000 6.847
50.28000 5.406
50.30000 7.577
50.32000 9.036
50.34000 10.883
50.36000 7.043
50.38000 4.310
50.40000 5.165
50.42000 5.965
50.44000 5.708
50.46000 3.121
50.48000 4.537
50.50000 7.571
50.52000 3.982
50.54000 2.839
50.56000 4.222
50.58000 5.991
50.60000 -1.525
50.62000 -2.899
50.64000 9.082
50.66000 10.461
50.68000 12.798
50.70000 9.637
50.72000 12.358
50.74000 14.079
50.76000 10.880
50.78000 0.075
50.80000 1.641
50.82000 6.650
50.84000 8.888
50.86000 4.552
50.88000 3.519
50.90000 -0.645
50.92000 3.708
50.94000 7.046
50.96000 9.054
50.98000 7.403
51.00000 3.664
51.02000 8.120
51.04000 12.137
51.06000 10.597
51.08000 8.496
51.10000 9.695
51.12000 10.680
51.14000 13.613
51.16000 13.456
51.18000 7.392
51.20000 3.337
51.22000 6.398
51.24000 8.382
51.26000 8.843
51.28000 9.066
51.30000 11.865
51.32000 8.788
51.34000 5.510
51.36000 7.328
51.38000 5.684
51.40000 6.237
51.42000 14.908
51.44000 17.985
51.46000 11.661
51.48000 3.166
51.50000 2.856
51.52000 7.600
51.54000 6.734
51.56000 2.823
51.58000 3.032
51.60000 7.528
51.62000 9.196
51.64000 1.077
51.66000 -2.883
51.68000 3.494
51.70000 4.574
51.72000 5.240
51.74000 9.486
51.76000 7.903
51.78000 8.109
51.80000 5.554
51.82000 7.991
51.84000 9.736
51.86000 9.460
51.88000 9.035
51.90000 0.610
51.92000 -1.327
51.94000 5.701
51.96000 7.311
51.98000 6.817
52.00000 9.572
52.02000 8.493
52.04000 5.072
52.06000 8.442
52.08000 3.755
52.10000 3.986
52.12000 0.379
52.14000 5.689
52.16000 8.592
52.18000 7.023
52.20000 9.805
52.22000 6.929
52.24000 8.781
52.26000 8.729
52.28000 7.343
52.30000 8.178
52.32000 6.751
52.34000 7.090
52.36000 7.531
52.38000 9.663
52.40000 8.047
52.42000 10.950
52.44000 6.250
52.46000 9.683
52.48000 8.629
52.50000 3.661
52.52000 6.446
52.54000 7.329
52.56000 8.283
52.58000 6.957
52.60000 5.515
52.62000 1.885
52.64000 -0.799
52.66000 -0.928
52.68000 -0.293
52.70000 11.158
52.72000 9.331
52.74000 6.828
52.76000 1.457
52.78000 1.803
52.80000 6.540
52.82000 7.979
52.84000 5.035
52.86000 1.542
52.88000 3.120
52.90000 4.535
52.92000 4.139
52.94000 7.525
52.96000 7.077
52.98000 4.011
53.00000 -2.650
53.02000 -2.184
53.04000 0.179
53.06000 0.807
53.08000 0.151
53.10000 1.996
53.12000 3.555
53.14000 3.919
53.16000 1.333
53.18000 3.009
53.20000 -1.417
53.22000 -0.247
53.24000 -1.811
53.26000 -2.872
53.28000 0.509
53.30000 7.070
53.32000 9.838
53.34000 5.960
53.36000 10.349
53.38000 6.835
53.40000 4.065
53.42000 4.979
53.44000 6.409
53.46000 7.381
53.48000 5.151
53.50000 5.381
53.52000 6.778
53.54000 3.821
53.56000 6.183
53.58000 8.290
53.60000 3.957
53.62000 6.777
53.64000 4.175
53.66000 4.799
53.68000 5.837
53.70000 7.457
53.72000 3.332
53.74000 1.129
53.76000 1.571
53.78000 -0.315
53.80000 -2.863
53.82000 0.504
53.84000 5.037
53.86000 7.487
53.88000 6.028
53.90000 3.211
53.92000 0.528
53.94000 9.702
53.96000 9.141
53.98000 6.239
54.00000 5.110
54.02000 5.436
54.04000 6.591
54.06000 1.049
54.08000 2.000
54.10000 1.928
54.12000 -0.595
54.14000 4.763
54.16000 6.659
54.18000 7.785
54.20000 9.959
54.22000 5.631
54.24000 1.652
54.26000 0.612
54.28000 4.488
54.30000 3.008
54.32000 -0.398
54.34000 2.660
54.36000 -1.357
54.38000 -0.654
54.40000 0.301
54.42000 5.140
54.44000 1.356
54.46000 -2.862
54.48000 -1.079
54.50000 0.967
54.52000 3.701
54.54000 9.911
54.56000 5.189
54.58000 4.150
54.60000 1.429
54.62000 4.946
54.64000 7.699
54.66000 7.006
54.68000 9.033
54.70000 1.749
54.72000 6.773
54.74000 4.964
54.76000 0.587
54.78000 0.625
54.80000 4.572
54.82000 0.650
54.84000 0.279
54.86000 0.402
54.88000 0.911
54.90000 3.309
54.92000 5.104
54.94000 7.556
54.96000 6.864
54.98000 5.297
55.00000 4.297
55.02000 2.609
55.04000 -2.844
55.06000 -1.716
55.08000 4.567
55.10000 7.760
55.12000 3.460
55.14000 2.160
55.16000 2.685
55.18000 8.710
55.20000 9.795
55.22000 5.508
55.24000 -0.203
55.26000 2.191
55.28000 5.608
55.30000 3.701
55.32000 4.990
55.34000 8.255
55.36000 8.743
55.38000 4.335
55.40000 3.611
55.42000 4.019
55.44000 2.898
55.46000 2.363
55.48000 -1.810
55.50000 3.091
55.52000 5.018
55.54000 1.136
55.56000 2.506
55.58000 2.833
55.60000 2.907
55.62000 7.470
55.64000 5.363
55.66000 4.274
55.68000 4.938
55.70000 6.751
55.72000 5.481
55.74000 0.938
55.76000 4.266
55.78000 2.304
55.80000 6.360
55.82000 5.458
55.84000 5.614
55.86000 13.415
55.88000 14.573
55.90000 11.776
55.92000 10.463
55.94000 7.526
55.96000 1.416
55.98000 6.087
56.00000 9.349
56.02000 6.295
56.04000 0.558
56.06000 8.067
56.08000 11.017
56.10000 8.998
56.12000 0.326
56.14000 -2.253
56.16000 1.003
56.18000 7.160
56.20000 6.851
56.22000 6.765
56.24000 6.219
56.26000 6.324
56.28000 2.877
56.30000 4.806
56.32000 4.045
56.34000 3.831
56.36000 2.128
56.38000 5.305
56.40000 7.462
56.42000 6.570
56.44000 2.566
56.46000 -2.746
56.48000 1.454
56.50000 5.228
56.52000 9.426
56.54000 8.507
56.56000 7.750
56.58000 7.859
56.60000 12.634
56.62000 8.287
56.64000 0.520
56.66000 0.740
56.68000 4.935
56.70000 6.455
56.72000 7.944
56.74000 4.026
56.76000 3.077
56.78000 5.305
56.80000 7.269
56.82000 8.767
56.84000 4.957
56.86000 -2.456
56.88000 3.931
56.90000 1.787
56.92000 3.116
56.94000 8.619
56.96000 5.055
56.98000 6.279
57.00000 6.216
57.02000 5.790
57.04000 7.627
57.06000 9.642
57.08000 5.589
57.10000 3.438
57.12000 4.622
57.14000 3.179
57.16000 3.264
57.18000 4.597
57.20000 2.551
57.22000 -1.444
57.24000 1.495
57.26000 0.573
57.28000 6.546
57.30000 9.919
57.32000 4.725
57.34000 0.717
57.36000 1.536
57.38000 -0.114
57.40000 -1.451
57.42000 4.116
57.44000 2.888
57.46000 0.114
57.48000 1.156
57.50000 4.181
57.52000 2.994
57.54000 5.936
57.56000 5.130
57.58000 6.217
57.60000 2.476
57.62000 3.648
57.64000 8.060
57.66000 7.997
57.68000 -0.512
57.70000 3.092
57.72000 8.095
57.74000 8.121
57.76000 2.759
57.78000 4.373
57.80000 7.954
57.82000 5.140
57.84000 -0.647
57.86000 2.448
57.88000 3.258
57.90000 6.399
57.92000 4.377
57.94000 6.705
57.96000 2.004
57.98000 3.973
58.00000 -0.616
58.02000 3.268
58.04000 4.043
58.06000 8.543
58.08000 8.014
58.10000 4.501
58.12000 -0.061
58.14000 3.671
58.16000 7.202
58.18000 3.558
58.20000 5.943
58.22000 9.795
58.24000 8.452
58.26000 7.312
58.28000 9.930
58.30000 9.399
58.32000 5.734
58.34000 1.983
58.36000 5.511
58.38000 1.446
58.40000 4.553
58.42000 9.232
58.44000 6.303
58.46000 2.103
58.48000 -2.705
58.50000 0.849
58.52000 3.677
58.54000 3.591
58.56000 1.916
58.58000 4.035
58.60000 11.664
58.62000 6.055
58.64000 1.593
58.66000 3.105
58.68000 4.629
58.70000 0.817
58.72000 3.182
58.74000 4.164
58.76000 3.043
58.78000 7.466
58.80000 5.279
58.82000 3.784
58.84000 3.814
58.86000 0.580
58.88000 7.256
58.90000 4.192
58.92000 -2.694
58.94000 -1.547
58.96000 5.356
58.98000 5.549
59.00000 6.582
59.02000 8.186
59.04000 11.764
59.06000 5.733
59.08000 2.975
59.10000 2.315
59.12000 4.463
59.14000 2.387
59.16000 1.852
59.18000 4.574
59.20000 2.015
59.22000 6.800
59.24000 4.765
59.26000 2.051
59.28000 2.762
59.30000 7.651
59.32000 5.123
59.34000 5.326
59.36000 0.339
59.38000 3.014
59.40000 3.532
59.42000 -1.449
59.44000 -0.393
59.46000 2.556
59.48000 3.121
59.50000 0.485
59.52000 1.044
59.54000 2.707
59.56000 6.457
59.58000 3.313
59.60000 1.040
59.62000 0.703
59.64000 2.918
59.66000 8.174
59.68000 9.533
59.70000 -0.078
59.72000 1.735
59.74000 0.504
59.76000 2.372
59.78000 4.139
59.80000 2.207
59.82000 0.077
59.84000 -0.379
59.86000 2.226
59.88000 -0.736
59.90000 0.594
59.92000 0.554
59.94000 0.244
59.96000 1.683
59.98000 4.295
60.00000 -0.315
60.02000 -0.538
60.04000 1.241
60.06000 0.491
60.08000 0.453
60.10000 3.566
60.12000 4.018
60.14000 1.870
60.16000 -2.701
60.18000 0.342
60.20000 0.572
60.22000 -0.705
60.24000 -0.495
60.26000 -1.519
60.28000 2.231
60.30000 2.125
60.32000 2.765
60.34000 7.481
60.36000 3.024
60.38000 -2.179
60.40000 1.463
60.42000 5.185
60.44000 3.339
60.46000 0.861
60.48000 0.665
60.50000 0.496
60.52000 -1.075
60.54000 0.303
60.56000 0.963
60.58000 -0.322
60.60000 -1.453
60.62000 -0.044
60.64000 -1.247
60.66000 3.391
60.68000 3.963
60.70000 0.693
60.72000 1.471
60.74000 5.527
60.76000 1.675
60.78000 1.472
60.80000 -1.336
60.82000 0.601
60.84000 1.984
60.86000 3.157
60.88000 -1.149
60.90000 -0.862
60.92000 -0.699
60.94000 2.689
60.96000 3.784
60.98000 2.353
61.00000 4.088
61.02000 4.040
61.04000 3.256
61.06000 1.049
61.08000 2.897
61.10000 -0.807
61.12000 2.737
61.14000 1.986
61.16000 -0.952
61.18000 -0.713
61.20000 3.752
61.22000 5.861
61.24000 2.421
61.26000 -1.633
61.28000 -0.066
61.30000 0.193
61.32000 1.327
61.34000 4.292
61.36000 6.275
61.38000 2.328
61.40000 -2.669
61.42000 2.023
61.44000 -1.884
61.46000 -1.490
61.48000 -1.821
61.50000 -2.277
61.52000 1.056
61.54000 0.649
61.56000 2.482
61.58000 3.178
61.60000 -1.493
61.62000 0.252
61.64000 -0.046
61.66000 2.178
61.68000 5.832
61.70000 4.663
61.72000 7.444
61.74000 5.755
61.76000 3.584
61.78000 -1.773
61.80000 -0.182
61.82000 -0.183
61.84000 1.065
61.86000 2.830
61.88000 1.108
61.90000 2.561
61.92000 2.893
61.94000 2.814
61.96000 5.829
61.98000 4.646
62.00000 3.664
62.02000 -1.228
62.04000 -0.910
62.06000 3.097
62.08000 4.367
62.10000 0.896
62.12000 -0.649
62.14000 -0.278
62.16000 2.118
62.18000 0.099
62.20000 -2.633
62.22000 0.361
62.24000 4.031
62.26000 -0.865
62.28000 5.204
62.30000 5.695
62.32000 3.242
62.34000 0.990
62.36000 -0.460
62.38000 1.566
62.40000 5.093
62.42000 5.004
62.44000 3.086
62.46000 4.364
62.48000 -1.092
62.50000 -1.935
62.52000 3.462
62.54000 3.371
62.56000 0.863
62.58000 0.187
62.60000 0.287
62.62000 -1.186
62.64000 3.674
62.66000 3.694
62.68000 -0.370
62.70000 -0.799
62.72000 6.221
62.74000 8.723
62.76000 3.623
62.78000 1.847
62.80000 2.293
62.82000 2.587
62.84000 0.142
62.86000 -2.636
62.88000 -1.030
62.90000 3.349
62.92000 2.328
62.94000 2.721
62.96000 1.138
62.98000 2.608
63.00000 5.184
63.02000 3.833
63.04000 3.561
63.06000 1.119
63.08000 0.237
63.10000 3.771
63.12000 5.601
63.14000 0.848
63.16000 -2.472
63.18000 -1.471
63.20000 0.430
63.22000 4.458
63.24000 3.115
63.26000 1.896
63.28000 5.230
63.30000 2.742
63.32000 0.780
63.34000 5.607
63.36000 8.252
63.38000 2.313
63.40000 1.790
63.42000 -0.819
63.44000 -0.785
63.46000 1.221
63.48000 1.116
63.50000 0.459
63.52000 -2.621
63.54000 -1.138
63.56000 -0.049
63.58000 -0.121
63.60000 -2.144
63.62000 4.999
63.64000 6.246
63.66000 5.809
63.68000 5.802
63.70000 2.983
63.72000 2.654
63.74000 3.414
63.76000 2.815
63.78000 1.280
63.80000 2.870
63.82000 0.766
63.84000 3.000
63.86000 4.706
63.88000 5.509
63.90000 1.194
63.92000 3.078
63.94000 2.195
63.96000 2.698
63.98000 1.451
64.00000 -0.647
64.02000 -1.584
64.04000 -0.104
64.06000 3.304
64.08000 4.860
64.10000 4.142
64.12000 5.642
64.14000 0.285
64.16000 -2.113
64.18000 -0.649
64.20000 2.108
64.22000 2.180
64.24000 3.808
64.26000 5.002
64.28000 1.516
64.30000 1.031
64.32000 -1.022
64.34000 -1.877
64.36000 -2.644
64.38000 2.499
64.40000 4.048
64.42000 -2.646
64.44000 -1.320
64.46000 3.230
64.48000 2.770
64.50000 1.290
64.52000 -2.440
64.54000 -2.355
64.56000 -0.165
64.58000 -1.532
64.60000 2.381
64.62000 3.978
64.64000 1.618
64.66000 3.554
64.68000 3.894
64.70000 3.281
64.72000 -0.167
64.74000 1.374
64.76000 3.274
64.78000 1.421
64.80000 5.981
64.82000 1.506
64.84000 1.342
64.86000 1.028
64.88000 5.061
64.90000 3.585
64.92000 2.792
64.94000 3.944
64.96000 5.373
64.98000 1.880
65.00000 -0.097
65.02000 1.002
65.04000 1.446
65.06000 -0.909
65.08000 -1.687
65.10000 -0.097
65.12000 2.392
65.14000 4.586
65.16000 6.687
65.18000 2.568
65.20000 0.732
65.22000 4.823
65.24000 5.545
65.26000 8.469
65.28000 3.721
65.30000 0.998
65.32000 -2.644
65.34000 1.449
65.36000 2.332
65.38000 1.777
65.40000 3.344
65.42000 1.350
65.44000 -0.739
65.46000 -2.568
65.48000 0.586
65.50000 4.098
65.52000 2.529
65.54000 1.441
65.56000 0.371
65.58000 -0.428
65.60000 1.282
65.62000 2.385
65.64000 1.918
65.66000 1.003
65.68000 0.969
65.70000 4.049
65.72000 3.032
65.74000 -0.780
65.76000 3.586
65.78000 2.667
65.80000 -1.459
65.82000 0.700
65.84000 0.164
65.86000 -1.310
65.88000 0.106
65.90000 1.393
65.92000 -2.575
65.94000 0.181
65.96000 -1.442
65.98000 -0.801
66.00000 1.427
66.02000 2.242
66.04000 1.664
66.06000 -1.947
66.08000 -1.209
66.10000 0.045
66.12000 3.788
66.14000 1.591
66.16000 3.647
66.18000 0.358
66.20000 0.326
66.22000 -2.717
66.24000 -1.598
66.26000 -0.203
66.28000 4.140
66.30000 0.371
66.32000 -0.680
66.34000 0.218
66.36000 1.473
66.38000 6.069
66.40000 5.052
66.42000 2.116
66.44000 3.625
66.46000 2.346
66.48000 -1.056
66.50000 1.807
66.52000 3.793
66.54000 6.644
66.56000 3.517
66.58000 -2.275
66.60000 -2.711
66.62000 -1.329
66.64000 -2.735
66.66000 -0.095
66.68000 1.157
66.70000 1.743
66.72000 4.010
66.74000 4.327
66.76000 2.903
66.78000 1.989
66.80000 3.589
66.82000 3.941
66.84000 5.128
66.86000 4.369
66.88000 1.039
66.90000 1.532
66.92000 1.959
66.94000 2.306
66.96000 3.351
66.98000 6.848
67.00000 8.810
67.02000 7.950
67.04000 4.091
67.06000 2.833
67.08000 4.308
67.10000 0.362
67.12000 2.367
67.14000 6.986
67.16000 4.067
67.18000 0.612
67.20000 9.128
67.22000 9.819
67.24000 1.751
67.26000 6.604
67.28000 8.691
67.30000 11.673
67.32000 10.812
67.34000 9.613
67.36000 12.082
67.38000 9.835
67.40000 3.851
67.42000 4.299
67.44000 9.225
67.46000 7.118
67.48000 11.260
67.50000 9.788
67.52000 11.229
67.54000 10.040
67.56000 10.745
67.58000 12.939
67.60000 15.617
67.62000 19.772
67.64000 18.106
67.66000 17.165
67.68000 15.307
67.70000 11.694
67.72000 10.360
67.74000 10.793
67.76000 9.892
67.78000 11.303
67.80000 10.830
67.82000 10.159
67.84000 10.475
67.86000 13.330
67.88000 13.875
67.90000 14.838
67.92000 17.276
67.94000 16.503
67.96000 20.621
67.98000 19.469
68.00000 20.085
68.02000 18.885
68.04000 22.404
68.06000 19.403
68.08000 23.100
68.10000 29.119
68.12000 30.571
68.14000 25.401
68.16000 22.934
68.18000 27.547
68.20000 25.639
68.22000 24.239
68.24000 20.017
68.26000 23.555
68.28000 25.220
68.30000 22.954
68.32000 24.222
68.34000 26.728
68.36000 28.227
68.38000 26.758
68.40000 24.423
68.42000 23.511
68.44000 23.967
68.46000 26.056
68.48000 29.518
68.50000 26.138
68.52000 23.328
68.54000 24.083
68.56000 23.128
68.58000 17.902
68.60000 21.925
68.62000 23.954
68.64000 25.178
68.66000 28.507
68.68000 27.970
68.70000 23.896
68.72000 22.381
68.74000 23.456
68.76000 22.800
68.78000 26.632
68.80000 26.059
68.82000 24.275
68.84000 20.079
68.86000 22.567
68.88000 20.296
68.90000 17.838
68.92000 16.942
68.94000 16.957
68.96000 16.071
68.98000 12.573
69.00000 12.144
69.02000 22.862
69.04000 26.798
69.06000 19.352
69.08000 17.499
69.10000 13.789
69.12000 18.051
69.14000 16.785
69.16000 20.203
69.18000 16.067
69.20000 11.425
69.22000 11.954
69.24000 11.909
69.26000 11.969
69.28000 13.621
69.30000 14.843
69.32000 12.500
69.34000 13.757
69.36000 12.272
69.38000 13.280
69.40000 16.817
69.42000 13.638
69.44000 11.929
69.46000 10.159
69.48000 10.578
69.50000 9.347
69.52000 9.746
69.54000 7.686
69.56000 9.003
69.58000 8.588
69.60000 11.458
69.62000 8.949
69.64000 9.406
69.66000 9.670
69.68000 7.833
69.70000 9.240
69.72000 9.574
69.74000 7.044
69.76000 8.357
69.78000 6.828
69.80000 3.749
69.82000 4.200
69.84000 3.774
69.86000 3.253
69.88000 3.302
69.90000 7.129
69.92000 10.159
69.94000 9.086
69.96000 5.554
69.98000 6.298
70.00000 7.467
70.02000 3.564
70.04000 4.851
70.06000 2.712
70.08000 0.087
70.10000 -2.568
70.12000 2.620
70.14000 8.166
70.16000 8.719
70.18000 7.962
70.20000 5.184
70.22000 5.411
70.24000 7.904
70.26000 6.717
70.28000 4.685
70.30000 3.759
70.32000 2.437
70.34000 4.169
70.36000 3.001
70.38000 6.359
70.40000 4.566
70.42000 9.638
70.44000 5.862
70.46000 6.676
70.48000 8.607
70.50000 7.319
70.52000 1.952
70.54000 1.739
70.56000 -0.232
70.58000 3.023
70.60000 2.507
70.62000 3.460
70.64000 9.116
70.66000 6.458
70.68000 3.476
70.70000 3.847
70.72000 0.699
70.74000 4.616
70.76000 4.457
70.78000 7.271
70.80000 4.017
70.82000 3.225
70.84000 4.484
70.86000 5.672
70.88000 1.852
70.90000 3.382
70.92000 1.965
70.94000 0.658
70.96000 -1.008
70.98000 1.711
71.00000 6.253
71.02000 1.886
71.04000 1.789
71.06000 3.677
71.08000 1.552
71.10000 1.870
71.12000 4.535
71.14000 8.163
71.16000 7.712
71.18000 8.600
71.20000 8.499
71.22000 5.997
71.24000 -1.037
71.26000 -0.425
71.28000 5.671
71.30000 10.115
71.32000 4.419
71.34000 -2.475
71.36000 1.599
71.38000 1.932
71.40000 4.789
71.42000 6.387
71.44000 7.804
71.46000 3.167
71.48000 6.902
71.50000 5.433
71.52000 4.104
71.54000 0.950
71.56000 1.784
71.58000 2.386
71.60000 3.920
71.62000 4.312
71.64000 2.964
71.66000 3.374
71.68000 2.026
71.70000 4.360
71.72000 1.125
71.74000 2.308
71.76000 -0.135
71.78000 -0.307
71.80000 5.607
71.82000 6.008
71.84000 1.500
71.86000 0.689
71.88000 -1.607
71.90000 1.354
71.92000 2.941
71.94000 6.450
71.96000 4.015
71.98000 4.270
72.00000 4.145
72.02000 3.555
72.04000 1.215
72.06000 0.074
72.08000 -0.339
72.10000 5.223
72.12000 7.648
72.14000 5.650
72.16000 -1.294
72.18000 -2.289
72.20000 6.482
72.22000 5.130
72.24000 4.229
72.26000 4.714
72.28000 0.282
72.30000 -2.124
72.32000 2.244
72.34000 2.093
72.36000 -0.371
72.38000 3.954
72.40000 4.771
72.42000 1.255
72.44000 0.292
72.46000 0.427
72.48000 1.422
72.50000 1.634
72.52000 2.071
72.54000 6.764
72.56000 8.162
72.58000 2.970
72.60000 4.055
72.62000 -0.986
72.64000 -2.477
72.66000 2.879
72.68000 4.230
72.70000 0.782
72.72000 -0.120
72.74000 4.887
72.76000 2.410
72.78000 -1.014
72.80000 -0.600
72.82000 1.910
72.84000 5.309
72.86000 7.561
72.88000 7.434
72.90000 8.295
72.92000 2.232
72.94000 -1.818
72.96000 -0.806
72.98000 2.038
73.00000 1.002
73.02000 0.183
73.04000 -2.455
73.06000 0.768
73.08000 4.912
73.10000 2.614
73.12000 2.272
73.14000 2.952
73.16000 5.183
73.18000 -0.335
73.20000 1.444
73.22000 7.264
73.24000 7.361
73.26000 4.840
73.28000 -0.006
73.30000 -2.355
73.32000 1.192
73.34000 0.245
73.36000 5.684
73.38000 1.867
73.40000 1.729
73.42000 1.806
73.44000 4.096
73.46000 3.597
73.48000 1.499
73.50000 4.028
73.52000 3.970
73.54000 4.593
73.56000 1.319
73.58000 1.948
73.60000 2.730
73.62000 4.426
73.64000 5.442
73.66000 3.526
73.68000 1.696
73.70000 -0.911
73.72000 0.466
73.74000 0.346
73.76000 1.863
73.78000 4.810
73.80000 4.778
73.82000 3.766
73.84000 2.260
73.86000 3.108
73.88000 2.191
73.90000 5.632
73.92000 2.395
73.94000 0.206
73.96000 -2.418
73.98000 1.982
74.00000 7.743
74.02000 1.034
74.04000 4.277
74.06000 8.205
74.08000 8.271
74.10000 11.401
74.12000 3.339
74.14000 5.540
74.16000 6.232
74.18000 2.030
74.20000 1.119
74.22000 0.583
74.24000 -0.708
74.26000 2.759
74.28000 6.890
74.30000 1.723
74.32000 -0.304
74.34000 1.798
74.36000 -0.026
74.38000 -0.111
74.40000 -1.680
74.42000 -2.377
74.44000 3.635
74.46000 6.170
74.48000 4.240
74.50000 2.038
74.52000 2.438
74.54000 4.671
74.56000 5.969
74.58000 7.562
74.60000 3.321
74.62000 5.976
74.64000 7.303
74.66000 1.973
74.68000 5.312
74.70000 4.902
74.72000 4.085
74.74000 4.556
74.76000 8.219
74.78000 6.016
74.80000 4.071
74.82000 6.345
74.84000 10.392
74.86000 5.159
74.88000 0.236
74.90000 0.938
74.92000 5.792
74.94000 7.139
74.96000 3.148
74.98000 2.199
75.00000 2.171
75.02000 4.774
75.04000 10.000
75.06000 2.375
75.08000 0.400
75.10000 -1.932
75.12000 4.589
75.14000 1.832
75.16000 4.980
75.18000 8.098
75.20000 5.983
75.22000 6.382
75.24000 5.313
75.26000 4.013
75.28000 1.306
75.30000 2.583
75.32000 9.657
75.34000 8.041
75.36000 3.596
75.38000 5.390
75.40000 10.377
75.42000 5.087
75.44000 -0.199
75.46000 1.422
75.48000 3.312
75.50000 -0.243
75.52000 5.489
75.54000 6.089
75.56000 -0.874
75.58000 -1.533
75.60000 5.393
75.62000 3.514
75.64000 3.069
75.66000 1.063
75.68000 2.571
75.70000 1.368
75.72000 4.204
75.74000 7.672
75.76000 1.840
75.78000 0.731
75.80000 0.407
75.82000 -0.349
75.84000 3.300
75.86000 1.063
75.88000 3.067
75.90000 3.872
75.92000 1.204
75.94000 0.970
75.96000 2.010
75.98000 0.006
76.00000 -0.434
76.02000 6.348
76.04000 3.211
76.06000 1.578
76.08000 1.807
76.10000 0.637
76.12000 6.185
76.14000 4.402
76.16000 3.073
76.18000 5.132
76.20000 4.383
76.22000 4.470
76.24000 2.923
76.26000 5.129
76.28000 -1.096
76.30000 -1.245
76.32000 2.179
76.34000 5.060
76.36000 6.069
76.38000 3.677
76.40000 3.955
76.42000 2.516
76.44000 5.783
76.46000 5.145
76.48000 5.397
76.50000 5.725
76.52000 5.561
76.54000 5.398
76.56000 11.095
76.58000 8.312
76.60000 0.967
76.62000 1.666
76.64000 6.573
76.66000 4.984
76.68000 0.282
76.70000 2.715
76.72000 1.306
76.74000 -2.412
76.76000 0.910
76.78000 2.368
76.80000 5.996
76.82000 7.689
76.84000 11.937
76.86000 7.038
76.88000 7.610
76.90000 3.845
76.92000 7.048
76.94000 5.706
76.96000 8.230
76.98000 3.605
77.00000 1.205
77.02000 2.056
77.04000 -2.403
77.06000 1.621
77.08000 6.031
77.10000 6.160
77.12000 5.570
77.14000 5.667
77.16000 4.676
77.18000 6.465
77.20000 4.378
77.22000 6.103
77.24000 4.461
77.26000 5.043
77.28000 6.344
77.30000 3.113
77.32000 5.538
77.34000 7.705
77.36000 7.076
77.38000 6.163
77.40000 8.477
77.42000 6.975
77.44000 2.930
77.46000 1.528
77.48000 -0.114
77.50000 5.015
77.52000 9.146
77.54000 6.024
77.56000 5.029
77.58000 6.332
77.60000 7.187
77.62000 7.450
77.64000 6.627
77.66000 3.474
77.68000 5.366
77.70000 4.049
77.72000 3.336
77.74000 2.722
77.76000 4.651
77.78000 0.580
77.80000 2.236
77.82000 2.793
77.84000 3.435
77.86000 2.154
77.88000 5.287
77.90000 7.902
77.92000 5.899
77.94000 3.127
77.96000 5.594
77.98000 8.000
78.00000 4.641
78.02000 5.919
78.04000 5.269
78.06000 1.886
78.08000 2.677
78.10000 3.643
78.12000 0.685
78.14000 -2.450
78.16000 2.971
78.18000 2.076
78.20000 6.388
78.22000 6.992
78.24000 1.384
78.26000 0.050
78.28000 -1.603
78.30000 -0.214
78.32000 3.950
78.34000 4.890
78.36000 1.179
78.38000 7.739
78.40000 7.759
78.42000 6.839
78.44000 2.944
78.46000 6.959
78.48000 1.726
78.50000 0.621
78.52000 4.487
78.54000 7.699
78.56000 4.759
78.58000 0.596
78.60000 -0.655
78.62000 1.867
78.64000 3.240
78.66000 1.292
78.68000 -0.216
78.70000 2.965
78.72000 3.577
78.74000 2.608
78.76000 4.395
78.78000 6.279
78.80000 6.985
78.82000 -2.490
78.84000 1.019
78.86000 -1.592
78.88000 1.549
78.90000 3.164
78.92000 1.731
78.94000 0.318
78.96000 2.979
78.98000 2.396
79.00000 1.950
79.02000 0.949
79.04000 1.330
79.06000 1.838
79.08000 3.543
79.10000 -0.944
79.12000 2.030
79.14000 -0.047
79.16000 2.036
79.18000 0.184
79.20000 -0.674
79.22000 2.878
79.24000 6.475
79.26000 7.217
79.28000 1.824
79.30000 -0.426
79.32000 -2.545
79.34000 -0.197
79.36000 -1.443
79.38000 -1.659
79.40000 -0.652
79.42000 0.751
79.44000 3.646
79.46000 4.350
79.48000 2.990
79.50000 0.997
79.52000 4.419
79.54000 1.371
79.56000 -0.258
79.58000 2.108
79.60000 -0.892
79.62000 5.754
79.64000 2.146
79.66000 1.579
79.68000 0.847
79.70000 1.948
79.72000 -0.173
79.74000 4.472
79.76000 5.493
79.78000 1.389
79.80000 4.774
79.82000 5.570
79.84000 -1.482
79.86000 4.099
79.88000 6.442
79.90000 -0.291
79.92000 -2.611
79.94000 1.316
79.96000 3.149
79.98000 2.477
80.00000 0.886
80.02000 5.098
80.04000 1.848
80.06000 -2.013
80.08000 -0.303
80.10000 3.001
80.12000 2.002
80.14000 -1.780
80.16000 -1.858
80.18000 -2.394
80.20000 -1.884
80.22000 -0.808
80.24000 -0.316
80.26000 0.391
80.28000 -0.709
80.30000 -1.281
80.32000 0.323
80.34000 -2.662
80.36000 -0.476
80.38000 1.514
80.40000 4.045
80.42000 -1.562
80.44000 -0.846
80.46000 -2.321
80.48000 -0.622
80.50000 0.395
80.52000 -2.268
80.54000 -1.281
80.56000 0.941
80.58000 3.078
80.60000 2.762
80.62000 1.514
80.64000 3.910
80.66000 0.257
80.68000 -1.754
80.70000 -1.696
80.72000 2.518
80.74000 1.368
80.76000 1.800
80.78000 2.035
80.80000 2.248
80.82000 -0.302
80.84000 0.847
80.86000 -2.060
80.88000 -0.172
80.90000 4.951
80.92000 2.751
80.94000 -0.167
80.96000 1.816
80.98000 0.642
81.00000 2.652
81.02000 3.024
81.04000 3.469
81.06000 5.263
81.08000 1.831
81.10000 2.743
81.12000 9.809
81.14000 8.017
81.16000 9.443
81.18000 6.641
81.20000 1.106
81.22000 1.075
81.24000 1.527
81.26000 7.168
81.28000 7.008
81.30000 10.366
81.32000 9.392
81.34000 4.377
81.36000 5.747
81.38000 -2.510
81.40000 -1.393
81.42000 2.700
81.44000 1.409
81.46000 7.045
81.48000 2.198
81.50000 6.154
81.52000 6.226
81.54000 9.897
81.56000 14.941
81.58000 15.771
81.60000 9.419
81.62000 7.925
81.64000 7.147
81.66000 4.622
81.68000 8.130
81.70000 9.320
81.72000 9.814
81.74000 9.969
81.76000 11.095
81.78000 10.544
81.80000 5.014
81.82000 8.229
81.84000 15.136
81.86000 11.423
81.88000 10.071
81.90000 9.624
81.92000 8.794
81.94000 10.052
81.96000 10.753
81.98000 10.142
82.00000 12.843
82.02000 11.428
82.04000 9.591
82.06000 17.076
82.08000 18.971
82.10000 17.578
82.12000 14.857
82.14000 12.297
82.16000 15.555
82.18000 16.654
82.20000 21.983
82.22000 25.857
82.24000 26.333
82.26000 19.935
82.28000 15.305
82.30000 18.464
82.32000 14.309
82.34000 17.424
82.36000 17.784
82.38000 15.242
82.40000 15.136
82.42000 26.245
82.44000 18.814
82.46000 16.453
82.48000 21.077
82.50000 17.778
82.52000 20.694
82.54000 18.332
82.56000 24.952
82.58000 21.880
82.60000 21.454
82.62000 23.649
82.64000 23.782
82.66000 22.037
82.68000 25.642
82.70000 26.417
82.72000 21.554
82.74000 23.482
82.76000 23.231
82.78000 23.658
82.80000 16.027
82.82000 21.937
82.84000 19.137
82.86000 19.129
82.88000 20.008
82.90000 21.906
82.92000 24.607
82.94000 16.386
82.96000 16.384
82.98000 22.815
83.00000 21.003
83.02000 16.124
83.04000 19.020
83.06000 19.750
83.08000 15.400
83.10000 14.585
83.12000 17.492
83.14000 19.787
83.16000 20.667
83.18000 24.154
83.20000 26.093
83.22000 16.264
83.24000 15.985
83.26000 10.339
83.28000 13.822
83.30000 18.503
83.32000 17.231
83.34000 19.155
83.36000 14.292
83.38000 16.201
83.40000 12.086
83.42000 13.840
83.44000 13.114
83.46000 11.745
83.48000 9.007
83.50000 10.713
83.52000 12.590
83.54000 11.319
83.56000 9.041
83.58000 7.410
83.60000 14.087
83.62000 14.050
83.64000 10.287
83.66000 8.767
83.68000 10.064
83.70000 10.314
83.72000 10.913
83.74000 8.597
83.76000 8.214
83.78000 4.524
83.80000 5.994
83.82000 9.152
83.84000 10.892
83.86000 9.108
83.88000 4.179
83.90000 2.049
83.92000 0.489
83.94000 4.984
83.96000 7.018
83.98000 5.317
84.00000 1.512
84.02000 3.252
84.04000 8.475
84.06000 11.471
84.08000 9.132
84.10000 3.813
84.12000 1.949
84.14000 4.131
84.16000 3.615
84.18000 3.519
84.20000 7.798
84.22000 4.668
84.24000 7.837
84.26000 2.736
84.28000 4.982
84.30000 5.896
84.32000 -0.410
84.34000 -2.612
84.36000 4.178
84.38000 2.155
84.40000 -1.206
84.42000 -1.803
84.44000 2.500
84.46000 8.509
84.48000 5.987
84.50000 0.483
84.52000 3.115
84.54000 3.276
84.56000 0.982
84.58000 -2.266
84.60000 7.174
84.62000 8.579
84.64000 0.918
84.66000 3.147
84.68000 5.958
84.70000 5.870
84.72000 3.018
84.74000 0.621
84.76000 0.036
84.78000 -2.335
84.80000 -0.920
84.82000 2.110
84.84000 2.722
84.86000 3.098
84.88000 0.821
84.90000 -0.321
84.92000 1.599
84.94000 3.451
84.96000 -1.253
84.98000 -2.085
85.00000 1.256
85.02000 -2.560
85.04000 3.280
85.06000 0.907
85.08000 0.345
85.10000 2.440
85.12000 4.250
85.14000 1.033
85.16000 -0.298
85.18000 5.271
85.20000 2.709
85.22000 2.413
85.24000 6.070
85.26000 2.910
85.28000 4.138
85.30000 8.005
85.32000 1.672
85.34000 -0.874
85.36000 1.160
85.38000 2.141
85.40000 -1.887
85.42000 -1.231
85.44000 4.568
85.46000 4.929
85.48000 2.305
85.50000 -2.585
85.52000 -2.399
85.54000 0.128
85.56000 1.045
85.58000 1.717
85.60000 4.542
85.62000 -1.023
85.64000 2.528
85.66000 5.154
85.68000 6.418
85.70000 5.815
85.72000 2.645
85.74000 -2.594
85.76000 -0.024
85.78000 5.178
85.80000 1.963
85.82000 -1.868
85.84000 -1.542
85.86000 1.228
85.88000 0.446
85.90000 -0.484
85.92000 0.547
85.94000 -2.492
85.96000 0.698
85.98000 3.214
86.00000 8.713
86.02000 2.657
86.04000 2.474
86.06000 1.033
86.08000 -0.354
86.10000 1.550
86.12000 6.739
86.14000 7.208
86.16000 6.531
86.18000 2.918
86.20000 3.865
86.22000 5.279
86.24000 6.818
86.26000 11.062
86.28000 10.614
86.30000 10.239
86.32000 8.655
86.34000 4.123
86.36000 6.521
86.38000 9.201
86.40000 8.987
86.42000 4.729
86.44000 7.578
86.46000 10.713
86.48000 3.148
86.50000 11.000
86.52000 12.313
86.54000 9.804
86.56000 8.131
86.58000 11.123
86.60000 13.407
86.62000 15.731
86.64000 16.572
86.66000 15.085
86.68000 12.047
86.70000 18.930
86.72000 22.026
86.74000 19.835
86.76000 17.307
86.78000 15.698
86.80000 14.519
86.82000 16.063
86.84000 17.033
86.86000 16.643
86.88000 18.925
86.90000 15.705
86.92000 18.060
86.94000 22.887
86.96000 21.691
86.98000 25.772
87.00000 27.354
87.02000 20.630
87.04000 11.831
87.06000 14.521
87.08000 22.991
87.10000 19.394
87.12000 18.559
87.14000 16.210
87.16000 18.675
87.18000 20.650
87.20000 19.269
87.22000 21.644
87.24000 23.295
87.26000 20.226
87.28000 18.518
87.30000 21.808
87.32000 19.518
87.34000 16.755
87.36000 18.421
87.38000 20.232
87.40000 21.806
87.42000 18.099
87.44000 19.270
87.46000 17.086
87.48000 18.143
87.50000 12.257
87.52000 16.528
87.54000 16.730
87.56000 13.408
87.58000 12.923
87.60000 14.005
87.62000 17.081
87.64000 22.578
87.66000 17.012
87.68000 11.696
87.70000 11.504
87.72000 8.003
87.74000 9.853
87.76000 14.947
87.78000 16.800
87.80000 11.619
87.82000 9.542
87.84000 10.984
87.86000 8.997
87.88000 6.453
87.90000 5.987
87.92000 6.035
87.94000 3.257
87.96000 4.592
87.98000 6.909
88.00000 12.642
88.02000 9.486
88.04000 7.807
88.06000 7.123
88.08000 0.817
88.10000 -2.364
88.12000 3.058
88.14000 7.234
88.16000 7.915
88.18000 4.377
88.20000 5.454
88.22000 10.364
88.24000 9.527
88.26000 9.041
88.28000 2.775
88.30000 2.440
88.32000 3.638
88.34000 7.238
88.36000 2.868
88.38000 0.145
88.40000 4.035
88.42000 0.017
88.44000 -1.883
88.46000 3.139
88.48000 1.037
88.50000 -2.472
88.52000 -0.858
88.54000 2.514
88.56000 -0.797
88.58000 6.365
88.60000 4.642
88.62000 -0.538
88.64000 1.037
88.66000 0.284
88.68000 3.690
88.70000 5.034
88.72000 5.325
88.74000 1.198
88.76000 0.376
88.78000 0.021
88.80000 0.454
88.82000 7.338
88.84000 6.267
88.86000 3.190
88.88000 1.893
88.90000 5.379
88.92000 5.312
88.94000 3.211
88.96000 4.467
88.98000 3.802
89.00000 3.651
89.02000 7.799
89.04000 10.649
89.06000 4.890
89.08000 -0.689
89.10000 -0.016
89.12000 4.484
89.14000 6.005
89.16000 0.421
89.18000 3.089
89.20000 7.313
89.22000 4.522
89.24000 0.741
89.26000 0.088
89.28000 2.271
89.30000 6.861
89.32000 6.606
89.34000 0.725
89.36000 7.470
89.38000 7.521
89.40000 8.557
89.42000 5.445
89.44000 1.913
89.46000 2.770
89.48000 2.948
89.50000 4.760
89.52000 9.139
89.54000 5.726
89.56000 3.997
89.58000 5.482
89.60000 10.465
89.62000 8.304
89.64000 6.818
89.66000 5.948
89.68000 1.594
89.70000 3.342
89.72000 0.228
89.74000 1.401
89.76000 -2.270
89.78000 -1.981
89.80000 4.076
89.82000 8.118
89.84000 8.036
89.86000 3.302
89.88000 8.259
89.90000 4.988
89.92000 4.511
89.94000 4.837
89.96000 2.717
89.98000 2.711
90.00000 4.807
90.02000 3.551
90.04000 0.688
90.06000 1.819
90.08000 5.037
90.10000 4.849
90.12000 7.207
90.14000 6.367
90.16000 3.297
90.18000 -2.278
90.20000 2.108
90.22000 3.711
90.24000 -2.012
90.26000 0.780
90.28000 2.048
90.30000 3.013
90.32000 5.152
90.34000 4.278
90.36000 3.457
90.38000 4.204
90.40000 6.904
90.42000 4.974
90.44000 2.601
90.46000 3.785
90.48000 4.669
90.50000 5.923
90.52000 7.480
90.54000 3.311
90.56000 1.276
90.58000 8.218
90.60000 11.148
90.62000 9.001
90.64000 5.846
90.66000 3.601
90.68000 3.668
90.70000 4.231
90.72000 4.195
90.74000 3.795
90.76000 3.844
90.78000 2.388
90.80000 4.712
90.82000 5.230
90.84000 0.602
90.86000 2.381
90.88000 2.545
90.90000 4.092
90.92000 4.909
90.94000 -0.296
90.96000 1.961
90.98000 2.131
91.00000 3.056
91.02000 3.072
91.04000 6.327
91.06000 5.927
91.08000 4.502
91.10000 3.143
91.12000 3.529
91.14000 -0.341
91.16000 1.697
91.18000 -0.699
91.20000 1.471
91.22000 1.463
91.24000 3.863
91.26000 1.669
91.28000 3.215
91.30000 2.233
91.32000 6.525
91.34000 7.585
91.36000 6.686
91.38000 2.448
91.40000 6.283
91.42000 4.405
91.44000 -1.404
91.46000 -0.474
91.48000 -0.659
91.50000 -0.918
91.52000 0.827
91.54000 0.204
91.56000 1.484
91.58000 5.839
91.60000 6.293
91.62000 1.954
91.64000 0.604
91.66000 3.864
91.68000 6.151
91.70000 6.149
91.72000 4.478
91.74000 1.049
91.76000 2.058
91.78000 2.650
91.80000 -2.156
91.82000 3.937
91.84000 3.303
91.86000 1.437
91.88000 2.661
91.90000 1.885
91.92000 3.605
91.94000 4.991
91.96000 3.318
91.98000 0.445
92.00000 2.507
92.02000 0.820
92.04000 4.538
92.06000 3.255
92.08000 -2.278
92.10000 -0.078
92.12000 0.158
92.14000 2.660
92.16000 1.526
92.18000 6.356
92.20000 4.083
92.22000 3.697
92.24000 5.212
92.26000 -0.857
92.28000 -1.623
92.30000 1.233
92.32000 6.015
92.34000 9.670
92.36000 9.101
92.38000 12.252
92.40000 1.640
92.42000 2.045
92.44000 3.353
92.46000 7.943
92.48000 3.644
92.50000 3.224
92.52000 1.132
92.54000 -0.532
92.56000 4.277
92.58000 4.032
92.60000 1.607
92.62000 0.259
92.64000 6.325
92.66000 2.507
92.68000 -0.137
92.70000 7.454
92.72000 11.108
92.74000 8.186
92.76000 5.753
92.78000 6.405
92.80000 8.736
92.82000 3.324
92.84000 2.442
92.86000 2.734
92.88000 0.200
92.90000 4.352
92.92000 6.266
92.94000 3.128
92.96000 4.995
92.98000 8.429
93.00000 1.975
93.02000 3.646
93.04000 4.857
93.06000 -2.257
93.08000 4.232
93.10000 12.463
93.12000 10.789
93.14000 6.932
93.16000 2.527
93.18000 4.397
93.20000 -0.317
93.22000 -2.324
93.24000 0.767
93.26000 4.945
93.28000 8.579
93.30000 8.306
93.32000 6.164
93.34000 7.885
93.36000 1.335
93.38000 1.605
93.40000 3.553
93.42000 1.207
93.44000 0.348
93.46000 0.254
93.48000 -1.349
93.50000 3.879
93.52000 5.787
93.54000 3.363
93.56000 1.366
93.58000 6.795
93.60000 4.952
93.62000 1.456
93.64000 1.042
93.66000 2.599
93.68000 0.998
93.70000 0.686
93.72000 -0.391
93.74000 2.207
93.76000 4.528
93.78000 4.438
93.80000 3.118
93.82000 4.498
93.84000 3.487
93.86000 1.311
93.88000 2.752
93.90000 -1.654
93.92000 5.675
93.94000 4.171
93.96000 3.581
93.98000 -2.332
94.00000 0.664
94.02000 6.053
94.04000 -0.938
94.06000 -0.843
94.08000 0.065
94.10000 -0.343
94.12000 -2.267
94.14000 3.975
94.16000 5.667
94.18000 1.132
94.20000 1.080
94.22000 4.398
94.24000 3.376
94.26000 4.140
94.28000 4.255
94.30000 -2.008
94.32000 -2.348
94.34000 3.923
94.36000 2.264
94.38000 1.187
94.40000 5.434
94.42000 6.274
94.44000 6.872
94.46000 3.790
94.48000 -0.807
94.50000 -0.223
94.52000 1.810
94.54000 4.649
94.56000 -0.352
94.58000 0.829
94.60000 7.290
94.62000 5.754
94.64000 2.314
94.66000 0.528
94.68000 2.789
94.70000 3.731
94.72000 4.997
94.74000 0.682
94.76000 1.075
94.78000 -2.293
94.80000 3.504
94.82000 5.083
94.84000 0.753
94.86000 2.635
94.88000 4.235
94.90000 1.795
94.92000 1.525
94.94000 1.648
94.96000 7.841
94.98000 6.230
95.00000 -0.714
95.02000 4.904
95.04000 5.157
95.06000 2.498
95.08000 1.748
95.10000 0.952
95.12000 2.362
95.14000 4.406
95.16000 4.683
95.18000 9.132
95.20000 4.446
95.22000 0.731
95.24000 0.702
95.26000 -0.663
95.28000 1.542
95.30000 3.285
95.32000 0.467
95.34000 0.480
95.36000 4.810
95.38000 7.780
95.40000 5.519
95.42000 1.519
95.44000 3.175
95.46000 7.295
95.48000 9.921
95.50000 5.185
95.52000 5.116
95.54000 0.571
95.56000 -2.337
95.58000 2.571
95.60000 -1.251
95.62000 3.771
95.64000 4.697
95.66000 4.643
95.68000 1.892
95.70000 6.429
95.72000 5.059
95.74000 4.970
95.76000 4.048
95.78000 -2.329
95.80000 5.347
95.82000 6.685
95.84000 9.437
95.86000 10.081
95.88000 6.231
95.90000 5.964
95.92000 5.705
95.94000 2.784
95.96000 2.390
95.98000 5.655
96.00000 14.433
96.02000 12.624
96.04000 6.714
96.06000 5.567
96.08000 9.082
96.10000 7.726
96.12000 1.654
96.14000 1.419
96.16000 10.301
96.18000 5.705
96.20000 6.285
96.22000 11.615
96.24000 5.296
96.26000 7.685
96.28000 6.522
96.30000 7.945
96.32000 2.024
96.34000 0.628
96.36000 4.609
96.38000 -0.645
96.40000 -0.352
96.42000 1.946
96.44000 5.691
96.46000 9.812
96.48000 6.148
96.50000 8.429
96.52000 8.155
96.54000 4.890
96.56000 4.663
96.58000 6.944
96.60000 4.582
96.62000 5.171
96.64000 3.837
96.66000 4.823
96.68000 7.204
96.70000 7.783
96.72000 7.129
96.74000 2.669
96.76000 6.041
96.78000 5.253
96.80000 5.051
96.82000 -0.729
96.84000 0.810
96.86000 8.992
96.88000 9.559
96.90000 4.819
96.92000 -1.469
96.94000 1.045
96.96000 6.599
96.98000 4.477
97.00000 0.593
97.02000 1.542
97.04000 5.781
97.06000 7.252
97.08000 8.590
97.10000 1.919
97.12000 6.087
97.14000 7.995
97.16000 11.536
97.18000 11.351
97.20000 8.704
97.22000 8.208
97.24000 7.015
97.26000 1.163
97.28000 -0.777
97.30000 1.435
97.32000 3.285
97.34000 -0.021
97.36000 8.318
97.38000 15.356
97.40000 15.627
97.42000 13.066
97.44000 8.059
97.46000 8.595
97.48000 5.342
97.50000 8.186
97.52000 13.729
97.54000 12.821
97.56000 17.756
97.58000 9.099
97.60000 6.160
97.62000 2.661
97.64000 -2.235
97.66000 5.824
97.68000 5.793
97.70000 10.990
97.72000 12.328
97.74000 7.643
97.76000 3.719
97.78000 8.459
97.80000 11.911
97.82000 11.917
97.84000 5.328
97.86000 7.701
97.88000 5.970
97.90000 2.523
97.92000 6.965
97.94000 6.855
97.96000 10.499
97.98000 7.054
98.00000 10.094
98.02000 7.403
98.04000 10.112
98.06000 4.579
98.08000 1.184
98.10000 1.028
98.12000 3.784
98.14000 5.934
98.16000 8.246
98.18000 5.293
98.20000 11.394
98.22000 15.784
98.24000 7.662
98.26000 3.423
98.28000 6.679
98.30000 11.227
98.32000 9.916
98.34000 6.529
98.36000 5.083
98.38000 8.102
98.40000 11.138
98.42000 -0.157
98.44000 3.766
98.46000 5.261
98.48000 6.902
98.50000 14.536
98.52000 16.750
98.54000 7.998
98.56000 -2.254
98.58000 0.607
98.60000 10.381
98.62000 3.529
98.64000 10.968
98.66000 2.122
98.68000 1.739
98.70000 9.758
98.72000 -0.786
98.74000 3.284
98.76000 3.359
98.78000 7.719
98.80000 11.215
98.82000 8.192
98.84000 9.064
98.86000 9.844
98.88000 12.535
98.90000 5.678
98.92000 1.224
98.94000 13.496
98.96000 13.793
98.98000 13.691
99.00000 7.277
99.02000 11.324
99.04000 14.993
99.06000 9.783
99.08000 9.012
99.10000 6.928
99.12000 4.930
99.14000 2.548
99.16000 12.913
99.18000 16.992
99.20000 13.398
99.22000 16.412
99.24000 8.863
99.26000 -0.530
99.28000 -1.802
99.30000 6.887
99.32000 12.283
99.34000 8.477
99.36000 4.019
99.38000 -1.458
99.40000 4.900
99.42000 4.820
99.44000 14.711
99.46000 29.606
99.48000 14.552
99.50000 7.020
99.52000 5.924
99.54000 -0.576
99.56000 8.532
99.58000 10.099
99.60000 11.785
99.62000 16.934
99.64000 3.984
99.66000 -2.196
99.68000 0.666
99.70000 9.582
99.72000 6.583
99.74000 10.544
99.76000 13.649
99.78000 7.681
99.80000 1.468
99.82000 5.565
99.84000 -0.342
99.86000 -2.410
99.88000 6.899
99.90000 3.641
99.92000 0.959
99.94000 -2.559
99.96000 6.875
99.98000 0.000
