'Id: "0011388" Comment: "Integrate frame 0011388_Au-Ir-Rh_Rh-rich_XRD-Mapping-098-0000.gfrmwith cursor Wedge Cursor #5" Operator: "B?rgel" Anode: "Cu" Wavelength: "1.5406" Scantype: "2Theta (TwoTheta)" TimePerStep: "1" X: "-27" Y: "-13.5" Z: "5.95" 
10.00000 0.000
10.02000 5.790
10.04000 6.825
10.06000 8.524
10.08000 1.888
10.10000 -0.565
10.12000 14.350
10.14000 19.095
10.16000 16.803
10.18000 -0.390
10.20000 10.123
10.22000 30.933
10.24000 17.009
10.26000 1.690
10.28000 5.370
10.30000 11.506
10.32000 4.070
10.34000 16.926
10.36000 -1.105
10.38000 17.974
10.40000 24.243
10.42000 17.625
10.44000 13.416
10.46000 19.033
10.48000 11.025
10.50000 16.671
10.52000 3.236
10.54000 3.168
10.56000 -4.431
10.58000 18.093
10.60000 24.744
10.62000 14.959
10.64000 12.614
10.66000 13.412
10.68000 14.173
10.70000 2.859
10.72000 2.245
10.74000 11.222
10.76000 3.836
10.78000 11.215
10.80000 15.302
10.82000 13.478
10.84000 9.672
10.86000 3.734
10.88000 10.220
10.90000 8.055
10.92000 10.232
10.94000 17.723
10.96000 18.853
10.98000 3.599
11.00000 0.711
11.02000 12.988
11.04000 14.998
11.06000 14.719
11.08000 6.890
11.10000 2.805
11.12000 2.417
11.14000 12.954
11.16000 13.616
11.18000 21.005
11.20000 24.908
11.22000 9.557
11.24000 7.521
11.26000 14.897
11.28000 15.872
11.30000 6.486
11.32000 5.492
11.34000 14.285
11.36000 21.117
11.38000 8.263
11.40000 6.822
11.42000 5.008
11.44000 12.284
11.46000 11.938
11.48000 8.531
11.50000 -2.074
11.52000 -0.957
11.54000 7.053
11.56000 10.898
11.58000 17.920
11.60000 9.378
11.62000 8.608
11.64000 16.801
11.66000 19.738
11.68000 20.941
11.70000 17.253
11.72000 18.354
11.74000 17.889
11.76000 10.654
11.78000 10.029
11.80000 10.353
11.82000 -4.463
11.84000 -0.549
11.86000 7.506
11.88000 9.578
11.90000 19.848
11.92000 19.364
11.94000 17.984
11.96000 4.205
11.98000 3.346
12.00000 8.209
12.02000 10.076
12.04000 11.689
12.06000 11.126
12.08000 9.108
12.10000 11.033
12.12000 13.659
12.14000 8.351
12.16000 14.878
12.18000 16.180
12.20000 10.796
12.22000 5.146
12.24000 8.395
12.26000 12.952
12.28000 12.974
12.30000 9.290
12.32000 11.789
12.34000 10.776
12.36000 0.521
12.38000 -2.325
12.40000 3.404
12.42000 2.095
12.44000 -4.470
12.46000 3.030
12.48000 2.156
12.50000 7.538
12.52000 9.969
12.54000 3.726
12.56000 0.086
12.58000 9.456
12.60000 17.934
12.62000 11.467
12.64000 1.272
12.66000 1.537
12.68000 3.243
12.70000 1.075
12.72000 11.805
12.74000 16.225
12.76000 11.518
12.78000 12.948
12.80000 16.257
12.82000 12.142
12.84000 20.687
12.86000 16.885
12.88000 2.047
12.90000 6.565
12.92000 5.938
12.94000 8.163
12.96000 11.679
12.98000 14.960
13.00000 11.999
13.02000 4.820
13.04000 1.598
13.06000 -1.208
13.08000 4.529
13.10000 3.844
13.12000 0.623
13.14000 8.951
13.16000 15.313
13.18000 5.694
13.20000 5.071
13.22000 17.994
13.24000 13.310
13.26000 13.738
13.28000 7.474
13.30000 7.167
13.32000 8.694
13.34000 3.757
13.36000 7.685
13.38000 19.105
13.40000 17.300
13.42000 16.149
13.44000 10.633
13.46000 -4.482
13.48000 1.794
13.50000 15.416
13.52000 15.571
13.54000 7.362
13.56000 1.740
13.58000 12.673
13.60000 5.950
13.62000 7.911
13.64000 4.602
13.66000 0.837
13.68000 10.199
13.70000 9.174
13.72000 3.071
13.74000 12.982
13.76000 17.382
13.78000 5.338
13.80000 1.056
13.82000 4.207
13.84000 11.427
13.86000 6.501
13.88000 3.599
13.90000 12.112
13.92000 9.105
13.94000 3.206
13.96000 -1.581
13.98000 2.372
14.00000 8.416
14.02000 2.938
14.04000 2.950
14.06000 3.734
14.08000 -0.825
14.10000 8.301
14.12000 4.825
14.14000 7.692
14.16000 -1.102
14.18000 0.564
14.20000 6.278
14.22000 11.463
14.24000 8.974
14.26000 11.569
14.28000 18.057
14.30000 9.146
14.32000 5.201
14.34000 1.046
14.36000 1.853
14.38000 9.416
14.40000 8.957
14.42000 6.677
14.44000 5.125
14.46000 5.148
14.48000 5.396
14.50000 12.483
14.52000 9.976
14.54000 -1.326
14.56000 0.679
14.58000 -0.740
14.60000 6.484
14.62000 6.077
14.64000 0.375
14.66000 -4.167
14.68000 2.060
14.70000 6.311
14.72000 1.225
14.74000 6.178
14.76000 1.853
14.78000 7.613
14.80000 10.245
14.82000 9.987
14.84000 8.754
14.86000 7.818
14.88000 -4.477
14.90000 0.692
14.92000 5.398
14.94000 14.212
14.96000 7.250
14.98000 4.138
15.00000 1.890
15.02000 7.136
15.04000 2.573
15.06000 0.843
15.08000 2.688
15.10000 0.197
15.12000 -0.802
15.14000 2.921
15.16000 5.750
15.18000 11.358
15.20000 4.942
15.22000 -1.335
15.24000 3.215
15.26000 11.030
15.28000 3.941
15.30000 -0.479
15.32000 8.811
15.34000 8.442
15.36000 1.351
15.38000 4.130
15.40000 4.656
15.42000 -1.600
15.44000 7.521
15.46000 6.634
15.48000 7.092
15.50000 3.048
15.52000 -2.694
15.54000 2.115
15.56000 3.724
15.58000 8.824
15.60000 6.794
15.62000 3.190
15.64000 16.331
15.66000 16.802
15.68000 0.749
15.70000 6.247
15.72000 3.531
15.74000 -2.851
15.76000 -4.438
15.78000 -4.299
15.80000 1.628
15.82000 3.985
15.84000 3.761
15.86000 10.204
15.88000 3.285
15.90000 -4.419
15.92000 -1.353
15.94000 1.082
15.96000 8.171
15.98000 8.764
16.00000 8.643
16.02000 10.767
16.04000 11.262
16.06000 11.883
16.08000 3.056
16.10000 4.625
16.12000 1.495
16.14000 5.811
16.16000 8.118
16.18000 1.555
16.20000 -0.686
16.22000 2.977
16.24000 6.004
16.26000 6.619
16.28000 4.778
16.30000 -3.418
16.32000 -0.430
16.34000 9.046
16.36000 13.373
16.38000 3.900
16.40000 5.540
16.42000 1.916
16.44000 5.782
16.46000 6.880
16.48000 7.237
16.50000 1.318
16.52000 2.856
16.54000 6.778
16.56000 -1.167
16.58000 3.165
16.60000 -1.244
16.62000 -4.210
16.64000 -0.114
16.66000 6.200
16.68000 1.434
16.70000 5.695
16.72000 2.959
16.74000 -1.487
16.76000 1.350
16.78000 10.367
16.80000 9.716
16.82000 0.340
16.84000 -0.871
16.86000 6.597
16.88000 1.260
16.90000 1.945
16.92000 5.932
16.94000 1.859
16.96000 -0.301
16.98000 5.141
17.00000 9.005
17.02000 9.738
17.04000 8.007
17.06000 1.119
17.08000 -2.055
17.10000 1.782
17.12000 1.482
17.14000 6.620
17.16000 5.312
17.18000 3.924
17.20000 5.701
17.22000 -4.398
17.24000 -2.976
17.26000 1.618
17.28000 0.619
17.30000 9.254
17.32000 10.318
17.34000 9.921
17.36000 5.529
17.38000 2.664
17.40000 4.046
17.42000 6.802
17.44000 2.780
17.46000 6.276
17.48000 5.399
17.50000 6.493
17.52000 4.781
17.54000 0.178
17.56000 -0.879
17.58000 0.300
17.60000 6.722
17.62000 6.546
17.64000 2.425
17.66000 3.967
17.68000 6.686
17.70000 12.906
17.72000 9.089
17.74000 1.919
17.76000 0.797
17.78000 -3.572
17.80000 -2.812
17.82000 2.414
17.84000 0.757
17.86000 8.983
17.88000 6.242
17.90000 3.260
17.92000 1.486
17.94000 3.963
17.96000 6.470
17.98000 5.289
18.00000 0.508
18.02000 0.620
18.04000 5.058
18.06000 7.920
18.08000 8.514
18.10000 8.114
18.12000 -2.134
18.14000 2.045
18.16000 5.588
18.18000 -0.816
18.20000 2.469
18.22000 10.496
18.24000 11.670
18.26000 4.712
18.28000 -0.116
18.30000 0.062
18.32000 2.292
18.34000 2.015
18.36000 -0.515
18.38000 3.199
18.40000 9.752
18.42000 3.779
18.44000 0.094
18.46000 8.123
18.48000 0.775
18.50000 -4.297
18.52000 -1.680
18.54000 -1.403
18.56000 8.380
18.58000 7.470
18.60000 4.709
18.62000 8.167
18.64000 5.572
18.66000 7.498
18.68000 3.954
18.70000 5.942
18.72000 7.039
18.74000 4.520
18.76000 3.964
18.78000 6.843
18.80000 2.715
18.82000 1.270
18.84000 -1.109
18.86000 0.040
18.88000 -0.688
18.90000 -3.404
18.92000 -1.713
18.94000 9.538
18.96000 6.038
18.98000 2.127
19.00000 4.800
19.02000 5.205
19.04000 2.284
19.06000 -2.044
19.08000 -2.115
19.10000 0.341
19.12000 -0.186
19.14000 5.731
19.16000 4.571
19.18000 5.929
19.20000 8.473
19.22000 2.013
19.24000 -1.944
19.26000 1.274
19.28000 7.447
19.30000 0.821
19.32000 0.988
19.34000 3.561
19.36000 2.353
19.38000 5.153
19.40000 6.696
19.42000 -4.251
19.44000 -2.816
19.46000 -4.202
19.48000 3.445
19.50000 2.764
19.52000 5.383
19.54000 5.833
19.56000 14.097
19.58000 6.052
19.60000 -3.465
19.62000 0.847
19.64000 2.359
19.66000 -1.451
19.68000 -0.876
19.70000 5.724
19.72000 2.806
19.74000 3.670
19.76000 5.383
19.78000 -1.609
19.80000 3.135
19.82000 7.635
19.84000 8.351
19.86000 8.248
19.88000 0.664
19.90000 -0.020
19.92000 6.778
19.94000 8.876
19.96000 4.048
19.98000 4.976
20.00000 11.196
20.02000 9.250
20.04000 3.041
20.06000 8.039
20.08000 1.774
20.10000 1.928
20.12000 6.251
20.14000 4.523
20.16000 9.155
20.18000 5.850
20.20000 5.961
20.22000 8.088
20.24000 7.052
20.26000 5.804
20.28000 0.948
20.30000 9.109
20.32000 8.253
20.34000 4.595
20.36000 4.430
20.38000 1.954
20.40000 -2.463
20.42000 3.446
20.44000 11.722
20.46000 4.254
20.48000 10.788
20.50000 9.157
20.52000 4.053
20.54000 9.155
20.56000 10.549
20.58000 5.801
20.60000 6.226
20.62000 8.648
20.64000 9.557
20.66000 11.553
20.68000 12.120
20.70000 4.688
20.72000 1.512
20.74000 0.579
20.76000 -0.115
20.78000 5.811
20.80000 13.700
20.82000 12.375
20.84000 2.721
20.86000 2.771
20.88000 8.178
20.90000 14.024
20.92000 14.927
20.94000 12.851
20.96000 13.841
20.98000 8.014
21.00000 11.253
21.02000 10.211
21.04000 -0.748
21.06000 -4.106
21.08000 -1.259
21.10000 6.794
21.12000 10.276
21.14000 11.885
21.16000 13.964
21.18000 13.375
21.20000 5.349
21.22000 3.740
21.24000 8.621
21.26000 12.441
21.28000 10.690
21.30000 9.102
21.32000 8.179
21.34000 8.104
21.36000 0.206
21.38000 3.143
21.40000 8.349
21.42000 4.358
21.44000 5.554
21.46000 4.479
21.48000 14.683
21.50000 11.446
21.52000 4.755
21.54000 10.720
21.56000 11.858
21.58000 11.673
21.60000 7.810
21.62000 -0.082
21.64000 1.919
21.66000 6.118
21.68000 7.415
21.70000 3.660
21.72000 2.028
21.74000 -1.532
21.76000 5.170
21.78000 9.065
21.80000 5.725
21.82000 2.961
21.84000 6.033
21.86000 8.024
21.88000 7.609
21.90000 5.264
21.92000 7.066
21.94000 10.280
21.96000 8.803
21.98000 5.808
22.00000 7.045
22.02000 7.100
22.04000 -0.064
22.06000 -4.075
22.08000 1.889
22.10000 8.343
22.12000 4.131
22.14000 3.153
22.16000 2.876
22.18000 5.177
22.20000 6.685
22.22000 3.631
22.24000 5.376
22.26000 4.093
22.28000 4.569
22.30000 4.466
22.32000 6.001
22.34000 2.244
22.36000 10.775
22.38000 10.930
22.40000 10.254
22.42000 6.510
22.44000 5.189
22.46000 11.574
22.48000 6.186
22.50000 4.158
22.52000 10.056
22.54000 8.066
22.56000 1.975
22.58000 4.501
22.60000 7.409
22.62000 2.916
22.64000 5.698
22.66000 9.314
22.68000 8.839
22.70000 9.549
22.72000 -0.878
22.74000 0.228
22.76000 0.620
22.78000 3.016
22.80000 9.551
22.82000 11.904
22.84000 9.178
22.86000 8.174
22.88000 10.629
22.90000 11.062
22.92000 13.808
22.94000 9.738
22.96000 9.978
22.98000 12.206
23.00000 13.944
23.02000 8.129
23.04000 2.763
23.06000 -1.076
23.08000 4.894
23.10000 2.660
23.12000 3.967
23.14000 10.582
23.16000 14.944
23.18000 7.021
23.20000 6.798
23.22000 4.465
23.24000 5.926
23.26000 9.829
23.28000 7.629
23.30000 3.600
23.32000 7.316
23.34000 2.354
23.36000 4.520
23.38000 0.926
23.40000 4.838
23.42000 8.436
23.44000 10.315
23.46000 4.889
23.48000 4.712
23.50000 8.106
23.52000 9.134
23.54000 5.049
23.56000 -0.264
23.58000 0.680
23.60000 3.805
23.62000 3.718
23.64000 1.521
23.66000 4.692
23.68000 11.786
23.70000 7.143
23.72000 3.514
23.74000 1.555
23.76000 0.046
23.78000 1.435
23.80000 3.094
23.82000 7.201
23.84000 4.877
23.86000 2.925
23.88000 4.241
23.90000 5.999
23.92000 7.329
23.94000 9.379
23.96000 8.338
23.98000 4.165
24.00000 6.855
24.02000 4.279
24.04000 6.061
24.06000 6.734
24.08000 4.583
24.10000 0.061
24.12000 1.295
24.14000 -3.962
24.16000 2.650
24.18000 5.325
24.20000 7.379
24.22000 8.042
24.24000 12.001
24.26000 12.665
24.28000 5.504
24.30000 4.590
24.32000 10.192
24.34000 7.495
24.36000 6.961
24.38000 3.448
24.40000 5.682
24.42000 8.080
24.44000 5.795
24.46000 3.115
24.48000 6.478
24.50000 10.738
24.52000 11.523
24.54000 7.226
24.56000 4.629
24.58000 1.142
24.60000 -0.655
24.62000 4.101
24.64000 8.408
24.66000 2.285
24.68000 7.659
24.70000 11.048
24.72000 6.498
24.74000 5.292
24.76000 -1.458
24.78000 0.146
24.80000 -0.031
24.82000 3.972
24.84000 10.724
24.86000 11.953
24.88000 9.392
24.90000 5.600
24.92000 0.902
24.94000 5.505
24.96000 8.019
24.98000 3.930
25.00000 -1.755
25.02000 -0.642
25.04000 4.149
25.06000 1.700
25.08000 -3.091
25.10000 -0.554
25.12000 0.398
25.14000 3.315
25.16000 10.240
25.18000 14.282
25.20000 6.886
25.22000 0.779
25.24000 3.575
25.26000 6.671
25.28000 9.633
25.30000 12.848
25.32000 9.921
25.34000 2.579
25.36000 -1.584
25.38000 2.617
25.40000 4.333
25.42000 3.255
25.44000 3.107
25.46000 2.734
25.48000 4.698
25.50000 6.884
25.52000 6.430
25.54000 0.992
25.56000 1.511
25.58000 4.874
25.60000 -1.921
25.62000 -1.592
25.64000 2.966
25.66000 4.035
25.68000 3.524
25.70000 -0.608
25.72000 2.374
25.74000 8.287
25.76000 9.557
25.78000 6.991
25.80000 7.859
25.82000 2.355
25.84000 -1.493
25.86000 -3.871
25.88000 -0.653
25.90000 2.489
25.92000 3.419
25.94000 10.567
25.96000 14.662
25.98000 3.783
26.00000 -0.209
26.02000 4.438
26.04000 7.622
26.06000 7.655
26.08000 13.236
26.10000 3.884
26.12000 2.129
26.14000 5.655
26.16000 5.401
26.18000 7.732
26.20000 6.210
26.22000 6.829
26.24000 3.188
26.26000 4.515
26.28000 1.876
26.30000 5.653
26.32000 5.123
26.34000 4.512
26.36000 3.793
26.38000 6.877
26.40000 2.484
26.42000 4.127
26.44000 13.831
26.46000 13.399
26.48000 9.741
26.50000 6.464
26.52000 -0.462
26.54000 3.104
26.56000 6.698
26.58000 5.663
26.60000 2.139
26.62000 -3.044
26.64000 -3.148
26.66000 -3.009
26.68000 5.228
26.70000 13.127
26.72000 9.873
26.74000 4.280
26.76000 5.383
26.78000 3.443
26.80000 2.422
26.82000 2.852
26.84000 4.484
26.86000 2.077
26.88000 5.213
26.90000 10.062
26.92000 13.120
26.94000 7.436
26.96000 9.184
26.98000 4.442
27.00000 2.537
27.02000 6.189
27.04000 7.373
27.06000 7.105
27.08000 1.996
27.10000 0.330
27.12000 4.051
27.14000 6.592
27.16000 2.124
27.18000 -3.596
27.20000 -2.698
27.22000 -0.109
27.24000 1.422
27.26000 5.186
27.28000 5.853
27.30000 6.947
27.32000 4.107
27.34000 4.895
27.36000 2.426
27.38000 10.225
27.40000 1.183
27.42000 -3.798
27.44000 -2.422
27.46000 3.151
27.48000 4.050
27.50000 1.473
27.52000 3.204
27.54000 3.021
27.56000 5.229
27.58000 5.330
27.60000 1.459
27.62000 0.965
27.64000 7.158
27.66000 8.360
27.68000 -3.485
27.70000 2.369
27.72000 6.261
27.74000 4.234
27.76000 1.541
27.78000 2.930
27.80000 2.875
27.82000 1.436
27.84000 1.205
27.86000 3.257
27.88000 -3.786
27.90000 1.063
27.92000 2.968
27.94000 -1.153
27.96000 7.012
27.98000 7.756
28.00000 6.782
28.02000 7.172
28.04000 2.986
28.06000 -0.619
28.08000 2.400
28.10000 7.115
28.12000 -0.272
28.14000 2.920
28.16000 1.812
28.18000 5.747
28.20000 3.913
28.22000 7.317
28.24000 7.000
28.26000 3.696
28.28000 -0.575
28.30000 1.672
28.32000 2.196
28.34000 2.700
28.36000 5.388
28.38000 3.142
28.40000 5.458
28.42000 1.104
28.44000 3.866
28.46000 2.721
28.48000 2.639
28.50000 2.604
28.52000 4.176
28.54000 -1.226
28.56000 0.996
28.58000 1.976
28.60000 1.319
28.62000 1.767
28.64000 2.002
28.66000 5.194
28.68000 6.867
28.70000 6.801
28.72000 5.195
28.74000 7.991
28.76000 7.629
28.78000 6.530
28.80000 1.540
28.82000 -2.496
28.84000 -0.593
28.86000 0.591
28.88000 3.495
28.90000 4.886
28.92000 4.354
28.94000 2.314
28.96000 2.596
28.98000 5.434
29.00000 8.335
29.02000 4.965
29.04000 4.050
29.06000 3.731
29.08000 4.439
29.10000 2.726
29.12000 -0.818
29.14000 -3.718
29.16000 -1.291
29.18000 4.361
29.20000 1.454
29.22000 -0.164
29.24000 -1.508
29.26000 -3.617
29.28000 -3.052
29.30000 1.133
29.32000 3.823
29.34000 7.440
29.36000 7.671
29.38000 3.879
29.40000 5.434
29.42000 6.314
29.44000 2.831
29.46000 0.551
29.48000 -2.027
29.50000 3.360
29.52000 4.623
29.54000 3.095
29.56000 1.085
29.58000 -1.903
29.60000 2.776
29.62000 0.218
29.64000 2.915
29.66000 3.324
29.68000 2.813
29.70000 3.710
29.72000 6.157
29.74000 3.245
29.76000 3.953
29.78000 5.607
29.80000 2.709
29.82000 1.872
29.84000 4.242
29.86000 3.536
29.88000 2.903
29.90000 4.394
29.92000 2.371
29.94000 3.575
29.96000 -1.058
29.98000 -3.674
30.00000 1.708
30.02000 5.463
30.04000 0.538
30.06000 1.655
30.08000 1.165
30.10000 2.313
30.12000 2.322
30.14000 2.193
30.16000 0.185
30.18000 2.431
30.20000 2.137
30.22000 -0.410
30.24000 2.186
30.26000 1.314
30.28000 0.789
30.30000 -2.189
30.32000 0.787
30.34000 0.011
30.36000 -2.458
30.38000 0.318
30.40000 2.726
30.42000 5.040
30.44000 1.463
30.46000 -0.178
30.48000 3.677
30.50000 2.005
30.52000 5.106
30.54000 4.105
30.56000 -1.928
30.58000 -0.618
30.60000 0.213
30.62000 3.488
30.64000 4.976
30.66000 -1.187
30.68000 -2.315
30.70000 2.873
30.72000 6.528
30.74000 2.646
30.76000 -2.451
30.78000 -2.867
30.80000 -3.310
30.82000 -2.459
30.84000 1.929
30.86000 3.056
30.88000 4.164
30.90000 5.813
30.92000 7.046
30.94000 7.604
30.96000 4.974
30.98000 2.497
31.00000 0.236
31.02000 -1.627
31.04000 -3.643
31.06000 -1.740
31.08000 -1.338
31.10000 -0.354
31.12000 5.201
31.14000 4.347
31.16000 5.812
31.18000 2.014
31.20000 2.552
31.22000 0.494
31.24000 -0.615
31.26000 2.396
31.28000 7.060
31.30000 3.407
31.32000 0.369
31.34000 -2.225
31.36000 1.350
31.38000 3.869
31.40000 4.148
31.42000 1.535
31.44000 4.123
31.46000 0.823
31.48000 0.244
31.50000 1.499
31.52000 -1.083
31.54000 2.568
31.56000 1.653
31.58000 1.816
31.60000 2.165
31.62000 2.440
31.64000 -0.856
31.66000 -3.613
31.68000 2.733
31.70000 -0.856
31.72000 1.188
31.74000 5.018
31.76000 6.792
31.78000 7.164
31.80000 3.291
31.82000 -0.933
31.84000 2.155
31.86000 -2.386
31.88000 1.335
31.90000 8.427
31.92000 2.002
31.94000 0.393
31.96000 -0.017
31.98000 0.435
32.00000 4.082
32.02000 6.880
32.04000 2.752
32.06000 3.673
32.08000 1.539
32.10000 1.592
32.12000 0.356
32.14000 0.840
32.16000 -1.357
32.18000 1.775
32.20000 2.509
32.22000 5.809
32.24000 8.660
32.26000 5.161
32.28000 0.555
32.30000 -1.824
32.32000 1.735
32.34000 6.674
32.36000 5.943
32.38000 1.829
32.40000 1.818
32.42000 3.280
32.44000 -0.973
32.46000 -0.075
32.48000 0.994
32.50000 3.314
32.52000 -0.277
32.54000 1.597
32.56000 0.917
32.58000 -0.602
32.60000 -3.570
32.62000 -3.513
32.64000 2.001
32.66000 2.165
32.68000 1.683
32.70000 -1.265
32.72000 4.559
32.74000 6.715
32.76000 -0.020
32.78000 1.697
32.80000 2.757
32.82000 1.370
32.84000 0.695
32.86000 4.256
32.88000 8.121
32.90000 9.514
32.92000 10.361
32.94000 6.602
32.96000 7.425
32.98000 0.201
33.00000 -3.556
33.02000 0.641
33.04000 2.608
33.06000 -1.779
33.08000 1.128
33.10000 5.612
33.12000 9.321
33.14000 5.149
33.16000 3.411
33.18000 5.212
33.20000 4.222
33.22000 3.194
33.24000 2.462
33.26000 0.633
33.28000 2.153
33.30000 5.745
33.32000 3.254
33.34000 5.853
33.36000 0.054
33.38000 -2.148
33.40000 0.198
33.42000 -1.971
33.44000 -3.330
33.46000 3.456
33.48000 2.566
33.50000 0.473
33.52000 0.102
33.54000 2.599
33.56000 3.325
33.58000 -1.575
33.60000 1.337
33.62000 5.566
33.64000 -0.436
33.66000 1.840
33.68000 3.446
33.70000 3.498
33.72000 1.338
33.74000 0.239
33.76000 2.840
33.78000 3.036
33.80000 3.792
33.82000 1.749
33.84000 0.100
33.86000 -0.949
33.88000 -3.538
33.90000 2.615
33.92000 6.833
33.94000 4.002
33.96000 1.207
33.98000 4.427
34.00000 3.364
34.02000 1.287
34.04000 3.093
34.06000 5.037
34.08000 4.808
34.10000 3.353
34.12000 -0.837
34.14000 -0.124
34.16000 3.042
34.18000 7.182
34.20000 9.513
34.22000 4.384
34.24000 -2.528
34.26000 4.135
34.28000 7.061
34.30000 2.753
34.32000 -0.956
34.34000 4.778
34.36000 8.624
34.38000 5.471
34.40000 1.402
34.42000 1.847
34.44000 1.687
34.46000 7.331
34.48000 7.354
34.50000 2.554
34.52000 1.009
34.54000 3.869
34.56000 5.226
34.58000 9.639
34.60000 3.874
34.62000 0.104
34.64000 -0.538
34.66000 -0.270
34.68000 1.286
34.70000 1.078
34.72000 -1.282
34.74000 -0.213
34.76000 -0.137
34.78000 1.460
34.80000 2.620
34.82000 4.981
34.84000 3.513
34.86000 1.776
34.88000 -0.170
34.90000 1.379
34.92000 5.485
34.94000 -0.808
34.96000 -1.663
34.98000 2.872
35.00000 -3.205
35.02000 2.281
35.04000 3.994
35.06000 -2.064
35.08000 -0.795
35.10000 -0.593
35.12000 0.862
35.14000 3.409
35.16000 1.017
35.18000 0.567
35.20000 3.679
35.22000 4.437
35.24000 4.241
35.26000 7.003
35.28000 4.077
35.30000 5.664
35.32000 6.637
35.34000 6.423
35.36000 2.530
35.38000 -3.484
35.40000 -2.661
35.42000 2.844
35.44000 2.331
35.46000 4.930
35.48000 6.752
35.50000 5.046
35.52000 -0.653
35.54000 -2.215
35.56000 4.781
35.58000 -1.020
35.60000 -2.344
35.62000 1.321
35.64000 2.946
35.66000 -0.866
35.68000 1.519
35.70000 -0.753
35.72000 1.518
35.74000 1.200
35.76000 -1.230
35.78000 6.342
35.80000 6.642
35.82000 4.676
35.84000 4.581
35.86000 2.906
35.88000 -0.316
35.90000 2.660
35.92000 1.250
35.94000 0.740
35.96000 -1.673
35.98000 -0.733
36.00000 3.312
36.02000 5.998
36.04000 5.046
36.06000 2.535
36.08000 -1.242
36.10000 -0.540
36.12000 0.855
36.14000 -0.070
36.16000 -1.558
36.18000 -0.754
36.20000 -1.723
36.22000 -0.460
36.24000 -0.113
36.26000 2.169
36.28000 0.845
36.30000 0.089
36.32000 0.455
36.34000 0.631
36.36000 -1.362
36.38000 1.163
36.40000 2.796
36.42000 2.925
36.44000 2.689
36.46000 5.900
36.48000 1.220
36.50000 2.735
36.52000 1.588
36.54000 -2.563
36.56000 -3.136
36.58000 -2.154
36.60000 1.499
36.62000 -0.473
36.64000 1.363
36.66000 5.774
36.68000 4.340
36.70000 0.285
36.72000 -3.494
36.74000 -2.275
36.76000 2.365
36.78000 1.701
36.80000 6.006
36.82000 6.295
36.84000 4.523
36.86000 2.165
36.88000 4.900
36.90000 2.164
36.92000 3.092
36.94000 -2.009
36.96000 -3.502
36.98000 -0.444
37.00000 4.425
37.02000 4.451
37.04000 1.992
37.06000 -0.452
37.08000 6.421
37.10000 10.623
37.12000 7.307
37.14000 3.750
37.16000 2.694
37.18000 1.212
37.20000 -1.734
37.22000 -2.056
37.24000 4.165
37.26000 1.304
37.28000 0.716
37.30000 1.300
37.32000 3.828
37.34000 3.395
37.36000 3.994
37.38000 1.285
37.40000 -0.528
37.42000 -1.974
37.44000 2.530
37.46000 -1.010
37.48000 1.085
37.50000 1.819
37.52000 -0.370
37.54000 -1.072
37.56000 2.922
37.58000 -0.276
37.60000 1.810
37.62000 4.097
37.64000 5.401
37.66000 7.042
37.68000 5.585
37.70000 4.125
37.72000 -2.415
37.74000 -3.570
37.76000 -0.286
37.78000 6.713
37.80000 8.218
37.82000 9.961
37.84000 6.703
37.86000 4.916
37.88000 1.734
37.90000 4.341
37.92000 6.739
37.94000 3.795
37.96000 6.923
37.98000 9.326
38.00000 12.839
38.02000 8.921
38.04000 11.632
38.06000 11.673
38.08000 8.063
38.10000 5.891
38.12000 8.041
38.14000 12.534
38.16000 8.823
38.18000 9.518
38.20000 12.968
38.22000 14.916
38.24000 10.391
38.26000 7.414
38.28000 6.908
38.30000 8.010
38.32000 10.596
38.34000 14.433
38.36000 11.089
38.38000 12.289
38.40000 14.842
38.42000 20.077
38.44000 20.571
38.46000 14.479
38.48000 12.681
38.50000 14.235
38.52000 16.219
38.54000 17.896
38.56000 19.079
38.58000 20.034
38.60000 25.357
38.62000 23.972
38.64000 25.313
38.66000 24.146
38.68000 23.669
38.70000 25.799
38.72000 22.826
38.74000 23.013
38.76000 29.109
38.78000 29.097
38.80000 27.685
38.82000 26.490
38.84000 26.914
38.86000 27.434
38.88000 30.472
38.90000 28.922
38.92000 27.956
38.94000 30.089
38.96000 28.105
38.98000 33.346
39.00000 31.179
39.02000 31.414
39.04000 28.705
39.06000 36.080
39.08000 38.679
39.10000 41.394
39.12000 43.164
39.14000 44.626
39.16000 48.208
39.18000 50.372
39.20000 48.677
39.22000 48.347
39.24000 52.069
39.26000 55.572
39.28000 55.032
39.30000 59.109
39.32000 67.379
39.34000 61.901
39.36000 60.230
39.38000 70.241
39.40000 73.478
39.42000 71.608
39.44000 79.478
39.46000 81.773
39.48000 82.012
39.50000 94.073
39.52000 96.287
39.54000 98.178
39.56000 101.650
39.58000 106.404
39.60000 116.680
39.62000 120.518
39.64000 126.407
39.66000 130.731
39.68000 142.304
39.70000 149.030
39.72000 153.235
39.74000 160.823
39.76000 169.933
39.78000 178.927
39.80000 190.561
39.82000 197.537
39.84000 201.431
39.86000 206.981
39.88000 218.866
39.90000 234.376
39.92000 248.055
39.94000 257.211
39.96000 275.210
39.98000 301.230
40.00000 310.743
40.02000 322.876
40.04000 322.936
40.06000 337.571
40.08000 357.413
40.10000 379.345
40.12000 389.721
40.14000 403.679
40.16000 421.313
40.18000 437.360
40.20000 455.817
40.22000 471.503
40.24000 491.352
40.26000 507.238
40.28000 520.553
40.30000 529.507
40.32000 539.543
40.34000 549.663
40.36000 549.005
40.38000 554.143
40.40000 560.097
40.42000 572.479
40.44000 582.841
40.46000 581.425
40.48000 579.663
40.50000 575.366
40.52000 568.205
40.54000 574.639
40.56000 561.705
40.58000 549.014
40.60000 541.678
40.62000 524.267
40.64000 516.898
40.66000 505.277
40.68000 492.648
40.70000 476.197
40.72000 462.941
40.74000 449.376
40.76000 435.077
40.78000 415.036
40.80000 396.127
40.82000 377.616
40.84000 364.895
40.86000 354.953
40.88000 342.643
40.90000 324.795
40.92000 298.425
40.94000 291.445
40.96000 280.410
40.98000 261.183
41.00000 253.168
41.02000 237.431
41.04000 218.878
41.06000 211.233
41.08000 200.310
41.10000 192.447
41.12000 178.016
41.14000 170.318
41.16000 159.498
41.18000 152.191
41.20000 141.253
41.22000 133.847
41.24000 125.671
41.26000 126.944
41.28000 120.140
41.30000 112.165
41.32000 101.461
41.34000 99.560
41.36000 95.578
41.38000 91.368
41.40000 86.340
41.42000 80.550
41.44000 75.824
41.46000 70.635
41.48000 66.617
41.50000 64.172
41.52000 63.700
41.54000 61.402
41.56000 55.557
41.58000 49.245
41.60000 50.367
41.62000 43.529
41.64000 42.491
41.66000 47.667
41.68000 45.193
41.70000 40.214
41.72000 32.208
41.74000 32.612
41.76000 32.068
41.78000 32.783
41.80000 33.174
41.82000 28.683
41.84000 29.234
41.86000 24.071
41.88000 27.297
41.90000 25.200
41.92000 20.294
41.94000 22.108
41.96000 19.473
41.98000 21.984
42.00000 23.600
42.02000 19.944
42.04000 15.631
42.06000 17.448
42.08000 12.656
42.10000 13.547
42.12000 10.552
42.14000 11.597
42.16000 15.153
42.18000 12.208
42.20000 8.849
42.22000 9.005
42.24000 12.025
42.26000 13.854
42.28000 11.318
42.30000 10.401
42.32000 11.002
42.34000 3.778
42.36000 2.564
42.38000 4.342
42.40000 6.233
42.42000 4.201
42.44000 7.165
42.46000 7.651
42.48000 3.984
42.50000 2.302
42.52000 2.377
42.54000 0.507
42.56000 0.129
42.58000 1.837
42.60000 7.028
42.62000 6.991
42.64000 2.737
42.66000 0.935
42.68000 2.507
42.70000 -1.392
42.72000 0.473
42.74000 3.417
42.76000 -1.623
42.78000 -2.884
42.80000 5.074
42.82000 6.914
42.84000 0.548
42.86000 1.302
42.88000 3.256
42.90000 -0.840
42.92000 -1.901
42.94000 -0.746
42.96000 3.770
42.98000 0.910
43.00000 -3.524
43.02000 -1.915
43.04000 -0.284
43.06000 0.146
43.08000 -2.484
43.10000 0.339
43.12000 1.692
43.14000 3.815
43.16000 7.344
43.18000 1.769
43.20000 -3.111
43.22000 -2.383
43.24000 -3.135
43.26000 2.011
43.28000 2.491
43.30000 4.268
43.32000 3.448
43.34000 -3.476
43.36000 -3.084
43.38000 -1.009
43.40000 -1.845
43.42000 -0.608
43.44000 2.505
43.46000 3.459
43.48000 2.036
43.50000 4.636
43.52000 1.358
43.54000 0.478
43.56000 -1.441
43.58000 0.197
43.60000 2.244
43.62000 0.356
43.64000 -2.095
43.66000 0.824
43.68000 2.196
43.70000 1.137
43.72000 -0.102
43.74000 2.149
43.76000 1.083
43.78000 -1.327
43.80000 -1.208
43.82000 1.766
43.84000 -1.704
43.86000 -0.138
43.88000 0.888
43.90000 2.554
43.92000 2.189
43.94000 -1.180
43.96000 -2.123
43.98000 -1.775
44.00000 -0.166
44.02000 -3.427
44.04000 -2.437
44.06000 0.957
44.08000 0.780
44.10000 0.028
44.12000 3.934
44.14000 5.698
44.16000 3.930
44.18000 3.625
44.20000 0.951
44.22000 1.352
44.24000 1.523
44.26000 -0.335
44.28000 -0.305
44.30000 3.723
44.32000 4.203
44.34000 1.047
44.36000 -1.394
44.38000 2.169
44.40000 0.127
44.42000 -3.420
44.44000 -2.907
44.46000 -0.147
44.48000 0.399
44.50000 2.505
44.52000 5.394
44.54000 5.771
44.56000 5.770
44.58000 2.827
44.60000 -1.633
44.62000 -2.202
44.64000 -2.912
44.66000 -2.179
44.68000 0.479
44.70000 -0.451
44.72000 0.289
44.74000 0.905
44.76000 4.826
44.78000 1.194
44.80000 1.780
44.82000 0.738
44.84000 2.757
44.86000 0.638
44.88000 1.671
44.90000 0.503
44.92000 0.157
44.94000 4.377
44.96000 1.749
44.98000 -1.383
45.00000 3.987
45.02000 7.789
45.04000 5.357
45.06000 5.937
45.08000 4.580
45.10000 3.076
45.12000 3.830
45.14000 3.176
45.16000 3.948
45.18000 5.519
45.20000 2.751
45.22000 1.959
45.24000 7.653
45.26000 5.814
45.28000 3.333
45.30000 6.857
45.32000 11.374
45.34000 6.632
45.36000 2.397
45.38000 8.478
45.40000 6.041
45.42000 3.880
45.44000 6.653
45.46000 9.108
45.48000 9.079
45.50000 5.940
45.52000 9.090
45.54000 9.661
45.56000 10.601
45.58000 13.537
45.60000 11.253
45.62000 10.348
45.64000 12.410
45.66000 16.219
45.68000 15.252
45.70000 17.078
45.72000 19.180
45.74000 19.523
45.76000 17.273
45.78000 17.336
45.80000 16.701
45.82000 16.499
45.84000 18.648
45.86000 18.823
45.88000 20.375
45.90000 21.225
45.92000 18.112
45.94000 18.174
45.96000 20.309
45.98000 22.191
46.00000 27.306
46.02000 25.273
46.04000 27.343
46.06000 24.177
46.08000 27.795
46.10000 28.641
46.12000 25.591
46.14000 29.561
46.16000 39.514
46.18000 42.263
46.20000 37.890
46.22000 40.669
46.24000 44.675
46.26000 45.168
46.28000 49.477
46.30000 46.410
46.32000 40.271
46.34000 41.687
46.36000 43.758
46.38000 47.365
46.40000 53.984
46.42000 51.713
46.44000 50.421
46.46000 51.123
46.48000 55.936
46.50000 54.802
46.52000 54.474
46.54000 60.459
46.56000 56.984
46.58000 55.859
46.60000 58.700
46.62000 66.993
46.64000 67.827
46.66000 66.327
46.68000 67.249
46.70000 79.783
46.72000 78.239
46.74000 76.231
46.76000 72.878
46.78000 78.315
46.80000 81.553
46.82000 82.423
46.84000 80.554
46.86000 82.119
46.88000 85.352
46.90000 90.193
46.92000 86.674
46.94000 87.854
46.96000 90.420
46.98000 90.372
47.00000 86.448
47.02000 76.276
47.04000 80.722
47.06000 83.401
47.08000 81.429
47.10000 85.126
47.12000 88.139
47.14000 86.183
47.16000 87.087
47.18000 85.907
47.20000 88.308
47.22000 88.945
47.24000 77.156
47.26000 73.609
47.28000 75.200
47.30000 75.269
47.32000 74.596
47.34000 76.070
47.36000 71.330
47.38000 72.660
47.40000 72.044
47.42000 70.868
47.44000 70.864
47.46000 64.859
47.48000 55.340
47.50000 59.554
47.52000 63.344
47.54000 63.116
47.56000 58.512
47.58000 61.293
47.60000 54.196
47.62000 48.973
47.64000 50.799
47.66000 54.646
47.68000 53.871
47.70000 43.026
47.72000 40.834
47.74000 47.116
47.76000 41.217
47.78000 41.653
47.80000 38.545
47.82000 38.307
47.84000 35.276
47.86000 35.201
47.88000 33.521
47.90000 33.155
47.92000 29.598
47.94000 29.723
47.96000 33.662
47.98000 29.429
48.00000 24.184
48.02000 25.193
48.04000 24.975
48.06000 26.095
48.08000 20.695
48.10000 13.064
48.12000 15.816
48.14000 20.535
48.16000 23.486
48.18000 20.062
48.20000 14.154
48.22000 9.474
48.24000 10.362
48.26000 15.440
48.28000 9.344
48.30000 10.874
48.32000 7.168
48.34000 10.159
48.36000 9.149
48.38000 5.924
48.40000 4.843
48.42000 2.581
48.44000 -0.331
48.46000 -0.350
48.48000 1.444
48.50000 7.006
48.52000 6.514
48.54000 2.693
48.56000 6.477
48.58000 5.383
48.60000 0.739
48.62000 0.967
48.64000 -1.056
48.66000 4.177
48.68000 -1.475
48.70000 -0.569
48.72000 3.656
48.74000 3.826
48.76000 6.155
48.78000 1.597
48.80000 2.430
48.82000 2.024
48.84000 -0.440
48.86000 -0.068
48.88000 -0.186
48.90000 2.170
48.92000 7.365
48.94000 4.950
48.96000 4.074
48.98000 -0.866
49.00000 2.269
49.02000 2.130
49.04000 0.789
49.06000 1.464
49.08000 -0.648
49.10000 4.630
49.12000 3.855
49.14000 1.495
49.16000 4.403
49.18000 7.260
49.20000 3.461
49.22000 4.790
49.24000 2.422
49.26000 7.342
49.28000 2.859
49.30000 1.554
49.32000 3.879
49.34000 -3.014
49.36000 0.719
49.38000 5.167
49.40000 2.623
49.42000 0.106
49.44000 2.579
49.46000 13.098
49.48000 10.803
49.50000 4.825
49.52000 1.407
49.54000 1.506
49.56000 0.366
49.58000 1.035
49.60000 1.409
49.62000 3.907
49.64000 6.154
49.66000 7.531
49.68000 8.043
49.70000 5.417
49.72000 2.534
49.74000 6.664
49.76000 8.404
49.78000 4.679
49.80000 1.017
49.82000 4.618
49.84000 5.552
49.86000 3.785
49.88000 1.518
49.90000 -1.476
49.92000 -2.228
49.94000 1.230
49.96000 5.505
49.98000 5.287
50.00000 4.066
50.02000 0.483
50.04000 4.481
50.06000 2.637
50.08000 3.033
50.10000 4.054
50.12000 3.721
50.14000 0.819
50.16000 2.886
50.18000 0.145
50.20000 -2.505
50.22000 0.339
50.24000 6.077
50.26000 5.539
50.28000 1.532
50.30000 -2.894
50.32000 -1.424
50.34000 -0.053
50.36000 -0.080
50.38000 5.690
50.40000 6.158
50.42000 2.707
50.44000 3.859
50.46000 3.099
50.48000 4.817
50.50000 9.061
50.52000 7.802
50.54000 7.568
50.56000 5.977
50.58000 3.822
50.60000 1.849
50.62000 1.201
50.64000 0.007
50.66000 5.290
50.68000 8.414
50.70000 7.380
50.72000 6.186
50.74000 6.040
50.76000 4.613
50.78000 4.843
50.80000 2.005
50.82000 3.989
50.84000 -0.217
50.86000 0.117
50.88000 2.204
50.90000 2.351
50.92000 1.169
50.94000 2.741
50.96000 2.261
50.98000 2.757
51.00000 -0.128
51.02000 0.947
51.04000 0.586
51.06000 0.009
51.08000 5.780
51.10000 3.696
51.12000 1.769
51.14000 4.008
51.16000 2.808
51.18000 3.222
51.20000 3.732
51.22000 4.976
51.24000 4.893
51.26000 3.383
51.28000 5.097
51.30000 2.552
51.32000 0.476
51.34000 -2.429
51.36000 -1.707
51.38000 4.978
51.40000 3.711
51.42000 -2.873
51.44000 -2.177
51.46000 -0.071
51.48000 5.180
51.50000 12.208
51.52000 11.590
51.54000 5.683
51.56000 1.942
51.58000 0.652
51.60000 0.446
51.62000 -2.854
51.64000 -2.048
51.66000 -1.262
51.68000 1.917
51.70000 3.405
51.72000 -1.062
51.74000 1.340
51.76000 2.573
51.78000 2.665
51.80000 4.525
51.82000 2.442
51.84000 3.785
51.86000 1.433
51.88000 4.103
51.90000 -0.747
51.92000 1.211
51.94000 5.272
51.96000 2.337
51.98000 5.059
52.00000 3.068
52.02000 3.139
52.04000 2.782
52.06000 2.249
52.08000 7.704
52.10000 5.867
52.12000 -0.035
52.14000 -0.935
52.16000 2.704
52.18000 1.603
52.20000 4.686
52.22000 -0.423
52.24000 2.460
52.26000 2.629
52.28000 -0.740
52.30000 -0.951
52.32000 -0.833
52.34000 3.628
52.36000 3.630
52.38000 3.166
52.40000 -0.509
52.42000 4.257
52.44000 4.163
52.46000 1.773
52.48000 2.096
52.50000 5.036
52.52000 7.216
52.54000 3.957
52.56000 3.093
52.58000 3.385
52.60000 4.211
52.62000 3.119
52.64000 1.484
52.66000 3.970
52.68000 3.964
52.70000 3.768
52.72000 9.004
52.74000 3.361
52.76000 0.822
52.78000 0.709
52.80000 -2.782
52.82000 -2.182
52.84000 3.065
52.86000 7.170
52.88000 5.916
52.90000 1.571
52.92000 2.223
52.94000 3.483
52.96000 4.901
52.98000 5.296
53.00000 3.857
53.02000 -2.782
53.04000 -0.337
53.06000 -0.645
53.08000 3.262
53.10000 3.885
53.12000 4.912
53.14000 4.008
53.16000 2.096
53.18000 2.646
53.20000 3.112
53.22000 -0.947
53.24000 -1.826
53.26000 5.042
53.28000 2.063
53.30000 3.018
53.32000 3.940
53.34000 6.308
53.36000 8.502
53.38000 4.967
53.40000 2.080
53.42000 -1.424
53.44000 5.145
53.46000 7.450
53.48000 5.093
53.50000 2.071
53.52000 1.286
53.54000 4.693
53.56000 3.416
53.58000 -0.844
53.60000 -0.174
53.62000 1.206
53.64000 1.135
53.66000 2.331
53.68000 1.056
53.70000 -1.500
53.72000 3.595
53.74000 0.809
53.76000 3.377
53.78000 -0.257
53.80000 1.332
53.82000 3.742
53.84000 5.718
53.86000 1.564
53.88000 -0.068
53.90000 2.882
53.92000 2.272
53.94000 0.296
53.96000 3.364
53.98000 6.014
54.00000 7.471
54.02000 6.425
54.04000 7.892
54.06000 3.348
54.08000 2.842
54.10000 2.944
54.12000 0.130
54.14000 2.169
54.16000 0.531
54.18000 4.892
54.20000 5.925
54.22000 -1.878
54.24000 0.389
54.26000 0.099
54.28000 5.715
54.30000 1.084
54.32000 -1.750
54.34000 -1.185
54.36000 3.360
54.38000 1.306
54.40000 2.475
54.42000 1.221
54.44000 -0.465
54.46000 4.721
54.48000 5.351
54.50000 4.066
54.52000 2.013
54.54000 -0.005
54.56000 -0.943
54.58000 1.126
54.60000 4.649
54.62000 -2.747
54.64000 -0.779
54.66000 0.912
54.68000 4.116
54.70000 5.429
54.72000 -0.535
54.74000 -2.153
54.76000 0.797
54.78000 2.743
54.80000 1.925
54.82000 1.487
54.84000 -2.317
54.86000 -0.471
54.88000 -2.734
54.90000 0.816
54.92000 3.576
54.94000 1.679
54.96000 3.122
54.98000 3.686
55.00000 9.121
55.02000 1.928
55.04000 3.441
55.06000 3.790
55.08000 4.339
55.10000 2.524
55.12000 5.225
55.14000 6.210
55.16000 5.664
55.18000 5.898
55.20000 6.309
55.22000 5.183
55.24000 9.218
55.26000 5.280
55.28000 1.963
55.30000 0.961
55.32000 1.821
55.34000 7.144
55.36000 4.182
55.38000 3.242
55.40000 4.712
55.42000 9.700
55.44000 5.682
55.46000 2.646
55.48000 2.060
55.50000 -1.618
55.52000 2.934
55.54000 5.168
55.56000 8.668
55.58000 9.044
55.60000 2.944
55.62000 3.807
55.64000 0.177
55.66000 -1.339
55.68000 1.224
55.70000 2.367
55.72000 1.669
55.74000 -2.106
55.76000 -2.267
55.78000 0.885
55.80000 -2.460
55.82000 -0.810
55.84000 5.545
55.86000 5.342
55.88000 11.491
55.90000 8.966
55.92000 1.434
55.94000 3.006
55.96000 2.985
55.98000 3.227
56.00000 2.436
56.02000 1.741
56.04000 -0.167
56.06000 2.647
56.08000 1.263
56.10000 3.488
56.12000 4.386
56.14000 2.563
56.16000 6.555
56.18000 4.487
56.20000 2.860
56.22000 4.448
56.24000 3.967
56.26000 4.924
56.28000 1.469
56.30000 1.480
56.32000 3.199
56.34000 2.355
56.36000 4.806
56.38000 9.507
56.40000 6.781
56.42000 1.498
56.44000 -2.641
56.46000 -2.689
56.48000 5.934
56.50000 2.291
56.52000 -1.321
56.54000 -0.521
56.56000 3.590
56.58000 0.416
56.60000 5.264
56.62000 4.592
56.64000 4.662
56.66000 4.411
56.68000 6.088
56.70000 3.132
56.72000 2.402
56.74000 3.164
56.76000 1.858
56.78000 2.726
56.80000 3.970
56.82000 4.357
56.84000 4.451
56.86000 4.262
56.88000 6.174
56.90000 6.062
56.92000 3.267
56.94000 5.168
56.96000 4.164
56.98000 9.041
57.00000 6.982
57.02000 3.928
57.04000 0.763
57.06000 -2.667
57.08000 -1.439
57.10000 -2.241
57.12000 -0.575
57.14000 1.944
57.16000 1.652
57.18000 2.884
57.20000 1.707
57.22000 2.279
57.24000 5.754
57.26000 5.271
57.28000 5.593
57.30000 3.890
57.32000 2.246
57.34000 5.951
57.36000 1.522
57.38000 -1.207
57.40000 -1.904
57.42000 4.093
57.44000 6.004
57.46000 2.179
57.48000 8.324
57.50000 6.556
57.52000 2.668
57.54000 1.840
57.56000 7.301
57.58000 7.111
57.60000 5.150
57.62000 3.106
57.64000 0.387
57.66000 0.909
57.68000 3.755
57.70000 4.612
57.72000 7.842
57.74000 7.597
57.76000 1.893
57.78000 -2.096
57.80000 -1.663
57.82000 -1.212
57.84000 1.990
57.86000 6.403
57.88000 -1.007
57.90000 1.295
57.92000 0.492
57.94000 1.925
57.96000 3.818
57.98000 7.081
58.00000 -0.038
58.02000 -1.525
58.04000 4.221
58.06000 3.692
58.08000 2.692
58.10000 1.560
58.12000 4.067
58.14000 1.183
58.16000 2.412
58.18000 1.312
58.20000 5.455
58.22000 6.978
58.24000 1.923
58.26000 -2.626
58.28000 5.008
58.30000 8.752
58.32000 3.067
58.34000 0.110
58.36000 4.114
58.38000 1.701
58.40000 2.993
58.42000 3.991
58.44000 2.627
58.46000 3.967
58.48000 5.293
58.50000 5.288
58.52000 4.001
58.54000 6.430
58.56000 8.080
58.58000 4.127
58.60000 1.045
58.62000 2.799
58.64000 3.560
58.66000 1.986
58.68000 6.419
58.70000 8.445
58.72000 9.104
58.74000 7.936
58.76000 7.106
58.78000 4.146
58.80000 3.481
58.82000 4.002
58.84000 3.420
58.86000 -0.857
58.88000 4.880
58.90000 7.517
58.92000 2.996
58.94000 4.161
58.96000 3.530
58.98000 2.133
59.00000 -0.575
59.02000 -0.997
59.04000 0.531
59.06000 3.702
59.08000 6.171
59.10000 3.337
59.12000 4.574
59.14000 8.047
59.16000 9.946
59.18000 9.520
59.20000 9.405
59.22000 7.856
59.24000 5.703
59.26000 7.276
59.28000 10.763
59.30000 9.871
59.32000 7.698
59.34000 6.983
59.36000 6.655
59.38000 7.365
59.40000 7.195
59.42000 5.220
59.44000 10.428
59.46000 9.338
59.48000 4.990
59.50000 5.560
59.52000 5.072
59.54000 5.837
59.56000 -2.525
59.58000 -0.386
59.60000 4.905
59.62000 5.999
59.64000 5.377
59.66000 6.580
59.68000 6.193
59.70000 4.629
59.72000 5.143
59.74000 10.201
59.76000 6.204
59.78000 4.746
59.80000 3.028
59.82000 7.740
59.84000 4.862
59.86000 1.531
59.88000 3.672
59.90000 4.961
59.92000 7.494
59.94000 7.583
59.96000 6.533
59.98000 5.888
60.00000 6.206
60.02000 6.879
60.04000 5.572
60.06000 5.242
60.08000 2.871
60.10000 3.622
60.12000 1.596
60.14000 4.027
60.16000 7.216
60.18000 8.144
60.20000 3.155
60.22000 3.401
60.24000 5.502
60.26000 7.359
60.28000 7.168
60.30000 4.976
60.32000 5.293
60.34000 4.290
60.36000 5.876
60.38000 5.906
60.40000 5.714
60.42000 6.744
60.44000 7.056
60.46000 11.479
60.48000 9.335
60.50000 5.633
60.52000 5.266
60.54000 7.458
60.56000 8.052
60.58000 5.578
60.60000 3.496
60.62000 5.401
60.64000 1.295
60.66000 0.506
60.68000 4.010
60.70000 8.118
60.72000 9.575
60.74000 6.621
60.76000 2.156
60.78000 2.421
60.80000 4.331
60.82000 3.205
60.84000 3.991
60.86000 3.414
60.88000 -0.704
60.90000 7.061
60.92000 6.328
60.94000 3.316
60.96000 1.017
60.98000 0.218
61.00000 4.590
61.02000 0.897
61.04000 -2.528
61.06000 -1.330
61.08000 1.415
61.10000 1.174
61.12000 -0.169
61.14000 5.265
61.16000 8.643
61.18000 4.979
61.20000 4.400
61.22000 4.569
61.24000 3.399
61.26000 4.939
61.28000 2.326
61.30000 -0.232
61.32000 0.831
61.34000 5.136
61.36000 2.087
61.38000 2.472
61.40000 2.361
61.42000 4.178
61.44000 1.477
61.46000 3.390
61.48000 0.653
61.50000 -0.728
61.52000 -1.890
61.54000 3.715
61.56000 5.274
61.58000 7.541
61.60000 3.359
61.62000 1.926
61.64000 0.667
61.66000 3.889
61.68000 3.929
61.70000 -0.906
61.72000 -2.254
61.74000 0.770
61.76000 -1.157
61.78000 2.137
61.80000 4.840
61.82000 2.139
61.84000 3.427
61.86000 0.977
61.88000 -1.428
61.90000 -1.181
61.92000 -0.048
61.94000 0.057
61.96000 -2.020
61.98000 -0.741
62.00000 1.424
62.02000 1.474
62.04000 2.054
62.06000 -0.351
62.08000 -0.834
62.10000 1.078
62.12000 8.352
62.14000 4.712
62.16000 0.337
62.18000 0.642
62.20000 0.621
62.22000 3.984
62.24000 0.364
62.26000 0.490
62.28000 0.799
62.30000 2.302
62.32000 3.584
62.34000 4.865
62.36000 7.499
62.38000 6.287
62.40000 0.928
62.42000 -0.319
62.44000 0.596
62.46000 -1.239
62.48000 3.832
62.50000 5.520
62.52000 -1.073
62.54000 -2.514
62.56000 -0.430
62.58000 6.203
62.60000 6.266
62.62000 5.394
62.64000 1.270
62.66000 3.936
62.68000 4.064
62.70000 1.734
62.72000 3.319
62.74000 5.061
62.76000 3.684
62.78000 -0.016
62.80000 -1.313
62.82000 0.188
62.84000 3.851
62.86000 2.784
62.88000 -0.316
62.90000 0.702
62.92000 2.773
62.94000 0.350
62.96000 2.894
62.98000 3.080
63.00000 -0.266
63.02000 -1.996
63.04000 -0.789
63.06000 -0.653
63.08000 1.852
63.10000 2.927
63.12000 2.629
63.14000 4.612
63.16000 2.667
63.18000 2.324
63.20000 1.546
63.22000 -0.557
63.24000 -1.380
63.26000 -0.528
63.28000 -1.125
63.30000 0.247
63.32000 1.739
63.34000 3.077
63.36000 2.844
63.38000 -2.526
63.40000 1.882
63.42000 -0.901
63.44000 2.055
63.46000 2.843
63.48000 1.508
63.50000 4.075
63.52000 2.416
63.54000 1.620
63.56000 2.242
63.58000 0.115
63.60000 -2.144
63.62000 -0.380
63.64000 2.914
63.66000 0.219
63.68000 2.220
63.70000 4.279
63.72000 6.943
63.74000 1.067
63.76000 1.048
63.78000 2.734
63.80000 1.548
63.82000 0.888
63.84000 0.771
63.86000 0.018
63.88000 -2.534
63.90000 -1.617
63.92000 -0.472
63.94000 -1.035
63.96000 -0.439
63.98000 0.818
64.00000 0.759
64.02000 1.376
64.04000 -0.566
64.06000 -0.236
64.08000 4.314
64.10000 1.549
64.12000 2.609
64.14000 4.921
64.16000 2.758
64.18000 0.646
64.20000 3.881
64.22000 -0.039
64.24000 -1.179
64.26000 -0.200
64.28000 -0.355
64.30000 2.784
64.32000 2.598
64.34000 2.476
64.36000 1.782
64.38000 0.661
64.40000 -0.848
64.42000 -0.350
64.44000 2.117
64.46000 4.317
64.48000 3.658
64.50000 -2.065
64.52000 2.806
64.54000 2.256
64.56000 -0.209
64.58000 1.574
64.60000 -1.031
64.62000 2.055
64.64000 0.230
64.66000 2.048
64.68000 0.593
64.70000 -0.379
64.72000 -2.259
64.74000 -1.029
64.76000 -0.311
64.78000 -2.549
64.80000 -1.398
64.82000 -0.418
64.84000 -0.495
64.86000 1.578
64.88000 2.030
64.90000 2.341
64.92000 0.837
64.94000 -0.509
64.96000 -0.388
64.98000 -0.090
65.00000 -1.462
65.02000 -2.549
65.04000 -1.786
65.06000 -0.040
65.08000 2.071
65.10000 3.927
65.12000 4.933
65.14000 3.479
65.16000 -0.872
65.18000 0.314
65.20000 6.275
65.22000 2.545
65.24000 2.021
65.26000 2.951
65.28000 -1.098
65.30000 -0.831
65.32000 1.350
65.34000 2.476
65.36000 -0.144
65.38000 -0.414
65.40000 -0.498
65.42000 2.210
65.44000 0.338
65.46000 -0.650
65.48000 -2.543
65.50000 1.390
65.52000 3.481
65.54000 0.352
65.56000 -2.415
65.58000 -2.217
65.60000 -0.763
65.62000 2.890
65.64000 3.105
65.66000 4.397
65.68000 1.813
65.70000 1.934
65.72000 2.301
65.74000 1.685
65.76000 1.074
65.78000 -0.566
65.80000 -1.575
65.82000 -2.561
65.84000 -1.340
65.86000 0.676
65.88000 -0.244
65.90000 0.359
65.92000 -0.256
65.94000 3.444
65.96000 3.492
65.98000 2.770
66.00000 3.891
66.02000 5.314
66.04000 1.763
66.06000 -0.240
66.08000 0.121
66.10000 2.559
66.12000 3.395
66.14000 0.656
66.16000 0.883
66.18000 -1.529
66.20000 -1.751
66.22000 -1.059
66.24000 1.631
66.26000 -0.501
66.28000 -0.391
66.30000 1.394
66.32000 2.569
66.34000 6.123
66.36000 5.504
66.38000 -0.262
66.40000 -2.131
66.42000 -0.318
66.44000 1.486
66.46000 2.695
66.48000 2.427
66.50000 2.241
66.52000 0.902
66.54000 0.337
66.56000 0.949
66.58000 0.644
66.60000 1.276
66.62000 3.405
66.64000 -1.353
66.66000 0.936
66.68000 -0.658
66.70000 2.545
66.72000 1.276
66.74000 0.542
66.76000 3.751
66.78000 0.779
66.80000 -0.398
66.82000 1.969
66.84000 0.381
66.86000 2.462
66.88000 6.123
66.90000 2.929
66.92000 5.164
66.94000 0.590
66.96000 -2.074
66.98000 -0.759
67.00000 -2.578
67.02000 0.213
67.04000 -2.191
67.06000 0.789
67.08000 1.525
67.10000 1.857
67.12000 3.574
67.14000 3.156
67.16000 4.529
67.18000 3.209
67.20000 5.598
67.22000 6.995
67.24000 4.142
67.26000 4.173
67.28000 5.094
67.30000 5.229
67.32000 3.347
67.34000 3.971
67.36000 3.073
67.38000 7.534
67.40000 7.178
67.42000 8.657
67.44000 7.130
67.46000 3.447
67.48000 3.275
67.50000 5.087
67.52000 6.008
67.54000 4.224
67.56000 0.933
67.58000 4.448
67.60000 6.684
67.62000 7.760
67.64000 6.971
67.66000 5.489
67.68000 8.851
67.70000 7.556
67.72000 5.273
67.74000 10.796
67.76000 9.778
67.78000 9.712
67.80000 6.155
67.82000 8.831
67.84000 9.771
67.86000 9.598
67.88000 9.249
67.90000 11.603
67.92000 7.978
67.94000 7.169
67.96000 9.717
67.98000 11.709
68.00000 11.819
68.02000 7.510
68.04000 8.683
68.06000 13.380
68.08000 14.985
68.10000 12.003
68.12000 12.346
68.14000 12.636
68.16000 13.603
68.18000 15.444
68.20000 17.665
68.22000 19.497
68.24000 17.676
68.26000 18.419
68.28000 16.391
68.30000 14.459
68.32000 17.433
68.34000 20.213
68.36000 23.035
68.38000 17.045
68.40000 13.726
68.42000 12.543
68.44000 16.282
68.46000 20.402
68.48000 21.083
68.50000 22.490
68.52000 23.373
68.54000 25.042
68.56000 22.096
68.58000 21.608
68.60000 22.956
68.62000 24.994
68.64000 21.012
68.66000 17.551
68.68000 20.303
68.70000 23.596
68.72000 26.340
68.74000 24.973
68.76000 22.828
68.78000 25.433
68.80000 21.784
68.82000 22.372
68.84000 22.237
68.86000 20.671
68.88000 21.095
68.90000 24.819
68.92000 23.309
68.94000 20.390
68.96000 14.949
68.98000 18.618
69.00000 20.082
69.02000 22.740
69.04000 27.861
69.06000 27.417
69.08000 17.178
69.10000 14.128
69.12000 17.688
69.14000 15.451
69.16000 13.536
69.18000 16.415
69.20000 17.556
69.22000 13.067
69.24000 10.798
69.26000 14.292
69.28000 14.454
69.30000 12.682
69.32000 12.385
69.34000 13.203
69.36000 10.168
69.38000 10.660
69.40000 13.046
69.42000 12.972
69.44000 8.455
69.46000 11.738
69.48000 13.587
69.50000 7.201
69.52000 6.553
69.54000 9.463
69.56000 6.881
69.58000 0.392
69.60000 8.616
69.62000 16.211
69.64000 11.333
69.66000 5.294
69.68000 1.573
69.70000 2.634
69.72000 2.534
69.74000 4.416
69.76000 3.900
69.78000 1.682
69.80000 2.197
69.82000 5.174
69.84000 2.093
69.86000 2.862
69.88000 5.102
69.90000 3.074
69.92000 2.404
69.94000 1.492
69.96000 4.608
69.98000 5.473
70.00000 -0.383
70.02000 -1.363
70.04000 -0.598
70.06000 3.303
70.08000 4.745
70.10000 1.009
70.12000 1.396
70.14000 2.398
70.16000 -2.544
70.18000 -1.929
70.20000 -0.914
70.22000 -0.355
70.24000 -1.112
70.26000 0.338
70.28000 3.196
70.30000 0.590
70.32000 -0.887
70.34000 -1.901
70.36000 -0.459
70.38000 1.824
70.40000 2.168
70.42000 2.089
70.44000 -0.055
70.46000 1.310
70.48000 2.254
70.50000 5.879
70.52000 3.069
70.54000 0.557
70.56000 -0.302
70.58000 1.705
70.60000 1.252
70.62000 1.697
70.64000 2.358
70.66000 2.987
70.68000 3.456
70.70000 -0.220
70.72000 -1.103
70.74000 3.752
70.76000 -2.489
70.78000 0.233
70.80000 -0.346
70.82000 0.918
70.84000 3.009
70.86000 -1.262
70.88000 -1.099
70.90000 4.828
70.92000 3.843
70.94000 1.639
70.96000 -1.463
70.98000 1.744
71.00000 1.504
71.02000 3.836
71.04000 0.088
71.06000 -2.461
71.08000 0.465
71.10000 0.096
71.12000 1.299
71.14000 2.244
71.16000 3.095
71.18000 3.616
71.20000 1.495
71.22000 -0.527
71.24000 -0.139
71.26000 3.459
71.28000 2.992
71.30000 -0.940
71.32000 0.675
71.34000 1.947
71.36000 2.318
71.38000 3.430
71.40000 -0.140
71.42000 -0.458
71.44000 2.547
71.46000 8.645
71.48000 4.866
71.50000 -2.419
71.52000 -2.295
71.54000 -1.189
71.56000 -1.595
71.58000 1.674
71.60000 3.020
71.62000 1.645
71.64000 1.087
71.66000 4.993
71.68000 2.013
71.70000 3.744
71.72000 2.665
71.74000 2.584
71.76000 4.541
71.78000 0.412
71.80000 1.542
71.82000 1.514
71.84000 -0.735
71.86000 -0.027
71.88000 2.315
71.90000 2.319
71.92000 3.837
71.94000 4.049
71.96000 0.078
71.98000 4.605
72.00000 0.496
72.02000 0.478
72.04000 1.949
72.06000 0.901
72.08000 0.688
72.10000 0.851
72.12000 2.895
72.14000 1.929
72.16000 2.320
72.18000 2.791
72.20000 1.199
72.22000 -0.383
72.24000 2.282
72.26000 0.622
72.28000 1.139
72.30000 -0.459
72.32000 0.385
72.34000 3.375
72.36000 7.943
72.38000 6.079
72.40000 1.938
72.42000 -1.793
72.44000 -2.389
72.46000 0.567
72.48000 1.413
72.50000 1.921
72.52000 0.759
72.54000 1.847
72.56000 1.281
72.58000 3.539
72.60000 2.916
72.62000 1.009
72.64000 1.793
72.66000 1.467
72.68000 -0.430
72.70000 0.162
72.72000 -2.380
72.74000 -0.150
72.76000 0.169
72.78000 1.764
72.80000 1.817
72.82000 5.450
72.84000 3.739
72.86000 0.822
72.88000 0.186
72.90000 1.651
72.92000 5.725
72.94000 4.257
72.96000 5.021
72.98000 4.512
73.00000 0.315
73.02000 -0.472
73.04000 -0.893
73.06000 -0.853
73.08000 2.553
73.10000 0.381
73.12000 -1.744
73.14000 -0.031
73.16000 2.393
73.18000 4.112
73.20000 3.512
73.22000 7.503
73.24000 2.426
73.26000 1.575
73.28000 5.758
73.30000 1.510
73.32000 4.714
73.34000 -2.200
73.36000 -2.347
73.38000 3.152
73.40000 0.591
73.42000 6.134
73.44000 2.332
73.46000 1.037
73.48000 0.665
73.50000 3.517
73.52000 0.802
73.54000 5.669
73.56000 -0.684
73.58000 0.892
73.60000 -0.904
73.62000 3.020
73.64000 6.639
73.66000 6.137
73.68000 6.414
73.70000 4.584
73.72000 5.753
73.74000 2.992
73.76000 4.688
73.78000 7.152
73.80000 1.813
73.82000 1.519
73.84000 2.770
73.86000 0.135
73.88000 3.799
73.90000 1.467
73.92000 10.286
73.94000 10.293
73.96000 3.585
73.98000 3.232
74.00000 6.283
74.02000 0.195
74.04000 -2.327
74.06000 1.976
74.08000 6.925
74.10000 8.359
74.12000 6.423
74.14000 2.712
74.16000 1.381
74.18000 5.477
74.20000 5.109
74.22000 4.723
74.24000 2.864
74.26000 3.026
74.28000 1.453
74.30000 0.152
74.32000 3.159
74.34000 4.873
74.36000 3.798
74.38000 5.411
74.40000 4.602
74.42000 3.488
74.44000 4.036
74.46000 5.477
74.48000 7.240
74.50000 4.055
74.52000 4.804
74.54000 8.567
74.56000 8.146
74.58000 0.875
74.60000 -1.522
74.62000 -0.962
74.64000 1.860
74.66000 1.783
74.68000 4.950
74.70000 2.665
74.72000 -1.111
74.74000 6.172
74.76000 6.331
74.78000 7.519
74.80000 3.668
74.82000 4.040
74.84000 2.856
74.86000 1.896
74.88000 3.091
74.90000 0.036
74.92000 -2.324
74.94000 3.463
74.96000 6.501
74.98000 4.140
75.00000 3.199
75.02000 1.951
75.04000 3.116
75.06000 3.293
75.08000 2.915
75.10000 4.948
75.12000 4.561
75.14000 5.568
75.16000 2.100
75.18000 4.344
75.20000 5.404
75.22000 4.701
75.24000 4.447
75.26000 2.838
75.28000 1.696
75.30000 4.589
75.32000 -0.008
75.34000 0.842
75.36000 1.658
75.38000 0.113
75.40000 5.093
75.42000 6.592
75.44000 3.340
75.46000 6.945
75.48000 9.668
75.50000 6.269
75.52000 8.395
75.54000 1.673
75.56000 -2.346
75.58000 1.265
75.60000 4.357
75.62000 7.840
75.64000 6.911
75.66000 9.465
75.68000 4.670
75.70000 3.402
75.72000 3.317
75.74000 0.493
75.76000 0.475
75.78000 8.418
75.80000 8.414
75.82000 6.307
75.84000 3.950
75.86000 2.410
75.88000 5.688
75.90000 1.275
75.92000 1.342
75.94000 2.186
75.96000 1.059
75.98000 0.861
76.00000 0.687
76.02000 2.952
76.04000 7.115
76.06000 9.270
76.08000 4.271
76.10000 2.366
76.12000 0.618
76.14000 4.514
76.16000 3.702
76.18000 0.096
76.20000 -0.515
76.22000 0.952
76.24000 -0.666
76.26000 1.567
76.28000 5.403
76.30000 3.700
76.32000 3.743
76.34000 3.992
76.36000 -0.096
76.38000 3.346
76.40000 3.906
76.42000 -1.349
76.44000 1.146
76.46000 -2.351
76.48000 -2.351
76.50000 -0.872
76.52000 2.115
76.54000 -0.471
76.56000 2.437
76.58000 -1.166
76.60000 2.022
76.62000 4.140
76.64000 3.641
76.66000 4.506
76.68000 1.241
76.70000 1.161
76.72000 6.110
76.74000 4.465
76.76000 5.254
76.78000 4.488
76.80000 2.294
76.82000 -0.761
76.84000 -2.359
76.86000 4.356
76.88000 4.563
76.90000 3.584
76.92000 3.844
76.94000 4.233
76.96000 3.626
76.98000 0.168
77.00000 -1.121
77.02000 -0.412
77.04000 1.235
77.06000 4.103
77.08000 6.007
77.10000 1.409
77.12000 1.076
77.14000 4.584
77.16000 4.963
77.18000 3.647
77.20000 6.632
77.22000 1.261
77.24000 4.782
77.26000 3.573
77.28000 3.378
77.30000 0.174
77.32000 1.971
77.34000 3.844
77.36000 3.335
77.38000 2.962
77.40000 3.946
77.42000 -1.509
77.44000 0.310
77.46000 0.009
77.48000 3.010
77.50000 5.554
77.52000 2.525
77.54000 0.816
77.56000 -0.865
77.58000 1.118
77.60000 1.775
77.62000 2.447
77.64000 -2.368
77.66000 -1.614
77.68000 1.883
77.70000 2.569
77.72000 6.627
77.74000 6.692
77.76000 3.236
77.78000 0.332
77.80000 0.637
77.82000 5.208
77.84000 6.737
77.86000 2.371
77.88000 3.006
77.90000 0.797
77.92000 1.382
77.94000 0.668
77.96000 0.242
77.98000 0.983
78.00000 0.813
78.02000 3.682
78.04000 1.664
78.06000 2.516
78.08000 0.237
78.10000 2.486
78.12000 -1.907
78.14000 2.231
78.16000 3.834
78.18000 8.272
78.20000 3.598
78.22000 3.480
78.24000 3.572
78.26000 0.385
78.28000 4.125
78.30000 2.798
78.32000 -1.168
78.34000 4.393
78.36000 5.848
78.38000 4.092
78.40000 6.619
78.42000 3.894
78.44000 5.038
78.46000 4.079
78.48000 2.950
78.50000 2.615
78.52000 1.083
78.54000 -0.478
78.56000 0.836
78.58000 3.093
78.60000 -2.381
78.62000 -0.254
78.64000 1.593
78.66000 4.276
78.68000 6.300
78.70000 4.068
78.72000 0.392
78.74000 2.309
78.76000 5.809
78.78000 5.070
78.80000 5.075
78.82000 1.473
78.84000 1.717
78.86000 2.542
78.88000 3.170
78.90000 2.391
78.92000 1.842
78.94000 0.684
78.96000 -1.226
78.98000 1.402
79.00000 3.061
79.02000 1.669
79.04000 1.563
79.06000 -2.183
79.08000 1.841
79.10000 4.807
79.12000 2.138
79.14000 2.056
79.16000 7.452
79.18000 6.274
79.20000 3.436
79.22000 4.924
79.24000 1.434
79.26000 2.661
79.28000 7.496
79.30000 5.917
79.32000 4.709
79.34000 2.247
79.36000 1.912
79.38000 4.213
79.40000 4.129
79.42000 1.795
79.44000 3.075
79.46000 5.113
79.48000 0.764
79.50000 2.653
79.52000 4.951
79.54000 3.041
79.56000 5.986
79.58000 6.332
79.60000 0.383
79.62000 2.872
79.64000 3.376
79.66000 4.066
79.68000 0.304
79.70000 -0.898
79.72000 -0.730
79.74000 -0.533
79.76000 7.511
79.78000 6.904
79.80000 0.499
79.82000 2.839
79.84000 0.753
79.86000 2.964
79.88000 3.623
79.90000 2.883
79.92000 4.615
79.94000 5.549
79.96000 5.084
79.98000 4.129
80.00000 3.366
80.02000 -1.389
80.04000 -2.006
80.06000 -1.484
80.08000 -2.446
80.10000 -0.097
80.12000 -0.460
80.14000 1.012
80.16000 6.037
80.18000 2.003
80.20000 2.588
80.22000 -0.370
80.24000 -0.436
80.26000 1.014
80.28000 -0.098
80.30000 5.898
80.32000 4.719
80.34000 3.979
80.36000 4.752
80.38000 5.377
80.40000 5.988
80.42000 4.549
80.44000 1.982
80.46000 3.966
80.48000 5.206
80.50000 4.874
80.52000 -0.501
80.54000 1.192
80.56000 -2.447
80.58000 -2.313
80.60000 0.789
80.62000 3.104
80.64000 1.096
80.66000 2.627
80.68000 5.466
80.70000 1.108
80.72000 2.776
80.74000 1.631
80.76000 4.172
80.78000 5.357
80.80000 3.263
80.82000 2.753
80.84000 2.445
80.86000 5.625
80.88000 -0.096
80.90000 1.541
80.92000 1.984
80.94000 -0.471
80.96000 1.620
80.98000 4.512
81.00000 0.821
81.02000 1.556
81.04000 -0.355
81.06000 6.208
81.08000 8.551
81.10000 9.095
81.12000 4.871
81.14000 4.582
81.16000 10.471
81.18000 10.625
81.20000 9.686
81.22000 10.316
81.24000 10.039
81.26000 7.573
81.28000 4.337
81.30000 5.392
81.32000 8.601
81.34000 7.421
81.36000 8.416
81.38000 6.865
81.40000 6.314
81.42000 1.231
81.44000 5.052
81.46000 4.977
81.48000 8.126
81.50000 10.393
81.52000 6.589
81.54000 9.279
81.56000 12.234
81.58000 10.705
81.60000 4.652
81.62000 4.769
81.64000 5.344
81.66000 6.299
81.68000 6.557
81.70000 7.099
81.72000 7.831
81.74000 4.532
81.76000 8.228
81.78000 7.131
81.80000 7.122
81.82000 12.481
81.84000 15.257
81.86000 12.521
81.88000 11.791
81.90000 12.639
81.92000 9.860
81.94000 11.511
81.96000 8.494
81.98000 8.883
82.00000 12.468
82.02000 14.329
82.04000 14.468
82.06000 16.758
82.08000 15.399
82.10000 16.665
82.12000 21.022
82.14000 14.224
82.16000 19.571
82.18000 21.952
82.20000 21.444
82.22000 17.520
82.24000 14.141
82.26000 16.763
82.28000 10.576
82.30000 13.780
82.32000 15.472
82.34000 13.458
82.36000 15.336
82.38000 18.494
82.40000 25.557
82.42000 22.725
82.44000 15.825
82.46000 16.828
82.48000 18.458
82.50000 23.612
82.52000 21.367
82.54000 23.574
82.56000 23.738
82.58000 24.314
82.60000 23.408
82.62000 26.773
82.64000 25.222
82.66000 27.779
82.68000 30.638
82.70000 30.933
82.72000 25.378
82.74000 27.982
82.76000 24.418
82.78000 26.965
82.80000 35.166
82.82000 30.818
82.84000 31.411
82.86000 30.565
82.88000 25.751
82.90000 24.954
82.92000 27.338
82.94000 27.663
82.96000 31.555
82.98000 31.862
83.00000 27.253
83.02000 26.565
83.04000 31.402
83.06000 25.865
83.08000 29.427
83.10000 30.955
83.12000 27.491
83.14000 25.931
83.16000 27.406
83.18000 25.346
83.20000 20.684
83.22000 27.234
83.24000 27.547
83.26000 23.884
83.28000 26.727
83.30000 29.299
83.32000 29.047
83.34000 28.097
83.36000 28.352
83.38000 25.010
83.40000 21.208
83.42000 19.551
83.44000 22.153
83.46000 24.903
83.48000 23.827
83.50000 24.590
83.52000 23.988
83.54000 19.549
83.56000 22.744
83.58000 17.946
83.60000 17.431
83.62000 17.977
83.64000 16.951
83.66000 15.060
83.68000 15.783
83.70000 15.300
83.72000 16.253
83.74000 21.270
83.76000 16.217
83.78000 15.565
83.80000 11.603
83.82000 11.079
83.84000 16.680
83.86000 13.952
83.88000 11.383
83.90000 8.551
83.92000 10.154
83.94000 14.244
83.96000 13.342
83.98000 10.501
84.00000 13.310
84.02000 12.331
84.04000 11.585
84.06000 10.371
84.08000 12.368
84.10000 12.254
84.12000 11.309
84.14000 8.523
84.16000 8.379
84.18000 7.109
84.20000 5.158
84.22000 5.553
84.24000 5.253
84.26000 8.140
84.28000 10.687
84.30000 5.507
84.32000 0.136
84.34000 3.770
84.36000 5.150
84.38000 6.463
84.40000 8.760
84.42000 6.881
84.44000 7.693
84.46000 1.835
84.48000 -0.366
84.50000 4.883
84.52000 7.234
84.54000 7.981
84.56000 4.459
84.58000 2.790
84.60000 5.363
84.62000 4.189
84.64000 4.342
84.66000 9.889
84.68000 12.091
84.70000 4.838
84.72000 -0.167
84.74000 1.084
84.76000 2.776
84.78000 1.891
84.80000 -2.442
84.82000 -1.395
84.84000 0.696
84.86000 2.570
84.88000 2.529
84.90000 0.838
84.92000 4.721
84.94000 6.193
84.96000 4.606
84.98000 4.089
85.00000 7.112
85.02000 7.512
85.04000 6.708
85.06000 3.892
85.08000 6.139
85.10000 6.389
85.12000 3.436
85.14000 0.618
85.16000 5.772
85.18000 1.482
85.20000 2.962
85.22000 2.412
85.24000 -0.140
85.26000 1.055
85.28000 2.283
85.30000 1.769
85.32000 0.575
85.34000 -0.351
85.36000 3.716
85.38000 4.749
85.40000 7.768
85.42000 4.679
85.44000 4.238
85.46000 5.254
85.48000 5.695
85.50000 4.124
85.52000 3.744
85.54000 4.869
85.56000 1.142
85.58000 0.725
85.60000 3.085
85.62000 3.906
85.64000 1.356
85.66000 -1.330
85.68000 -2.429
85.70000 4.150
85.72000 4.717
85.74000 9.245
85.76000 7.497
85.78000 4.936
85.80000 1.893
85.82000 0.751
85.84000 3.277
85.86000 1.352
85.88000 2.398
85.90000 3.802
85.92000 6.146
85.94000 5.160
85.96000 3.216
85.98000 4.723
86.00000 5.931
86.02000 3.918
86.04000 1.847
86.06000 4.678
86.08000 3.079
86.10000 0.655
86.12000 4.187
86.14000 4.172
86.16000 7.898
86.18000 8.910
86.20000 10.139
86.22000 8.893
86.24000 7.356
86.26000 9.072
86.28000 7.376
86.30000 7.694
86.32000 10.867
86.34000 9.556
86.36000 6.237
86.38000 8.636
86.40000 12.841
86.42000 6.692
86.44000 10.148
86.46000 10.537
86.48000 14.807
86.50000 12.189
86.52000 10.546
86.54000 10.994
86.56000 9.409
86.58000 9.132
86.60000 13.049
86.62000 15.613
86.64000 12.642
86.66000 7.862
86.68000 9.797
86.70000 12.052
86.72000 8.216
86.74000 8.041
86.76000 13.815
86.78000 13.739
86.80000 15.164
86.82000 16.592
86.84000 14.696
86.86000 19.243
86.88000 21.823
86.90000 23.522
86.92000 25.606
86.94000 19.096
86.96000 18.540
86.98000 23.699
87.00000 19.245
87.02000 26.636
87.04000 17.631
87.06000 15.345
87.08000 20.447
87.10000 21.987
87.12000 22.256
87.14000 20.635
87.16000 23.983
87.18000 22.504
87.20000 17.629
87.22000 22.502
87.24000 25.017
87.26000 20.885
87.28000 21.899
87.30000 19.105
87.32000 26.152
87.34000 24.801
87.36000 27.774
87.38000 26.117
87.40000 29.814
87.42000 26.500
87.44000 21.658
87.46000 26.027
87.48000 21.817
87.50000 22.163
87.52000 18.667
87.54000 22.898
87.56000 25.053
87.58000 24.477
87.60000 20.497
87.62000 17.785
87.64000 24.504
87.66000 24.202
87.68000 22.342
87.70000 23.218
87.72000 18.935
87.74000 18.528
87.76000 22.020
87.78000 23.534
87.80000 18.438
87.82000 20.234
87.84000 16.005
87.86000 16.158
87.88000 21.268
87.90000 21.292
87.92000 21.112
87.94000 19.521
87.96000 14.704
87.98000 13.690
88.00000 18.054
88.02000 15.943
88.04000 12.888
88.06000 16.209
88.08000 18.460
88.10000 14.085
88.12000 15.501
88.14000 13.433
88.16000 12.115
88.18000 14.925
88.20000 16.555
88.22000 9.132
88.24000 7.953
88.26000 17.211
88.28000 13.418
88.30000 11.478
88.32000 18.440
88.34000 15.881
88.36000 8.395
88.38000 8.574
88.40000 4.956
88.42000 7.765
88.44000 10.176
88.46000 7.742
88.48000 8.284
88.50000 5.246
88.52000 4.396
88.54000 4.977
88.56000 6.344
88.58000 10.284
88.60000 6.237
88.62000 3.947
88.64000 5.656
88.66000 7.502
88.68000 4.491
88.70000 6.479
88.72000 9.193
88.74000 11.822
88.76000 11.783
88.78000 8.773
88.80000 6.960
88.82000 7.102
88.84000 4.475
88.86000 6.591
88.88000 -2.238
88.90000 2.341
88.92000 9.872
88.94000 8.016
88.96000 7.050
88.98000 5.723
89.00000 5.077
89.02000 3.899
89.04000 6.842
89.06000 10.316
89.08000 10.680
89.10000 7.488
89.12000 6.479
89.14000 4.891
89.16000 5.622
89.18000 5.603
89.20000 8.385
89.22000 6.891
89.24000 1.934
89.26000 10.314
89.28000 5.429
89.30000 4.300
89.32000 0.252
89.34000 -0.516
89.36000 7.688
89.38000 6.496
89.40000 1.847
89.42000 6.235
89.44000 5.574
89.46000 -0.160
89.48000 3.870
89.50000 4.510
89.52000 8.540
89.54000 5.677
89.56000 -1.190
89.58000 -2.269
89.60000 0.489
89.62000 2.355
89.64000 1.288
89.66000 4.314
89.68000 3.457
89.70000 6.088
89.72000 8.064
89.74000 4.399
89.76000 3.645
89.78000 2.822
89.80000 3.963
89.82000 3.174
89.84000 -0.562
89.86000 1.302
89.88000 2.493
89.90000 1.893
89.92000 4.410
89.94000 1.729
89.96000 2.569
89.98000 3.472
90.00000 2.259
90.02000 3.653
90.04000 4.278
90.06000 0.105
90.08000 -1.336
90.10000 1.476
90.12000 1.179
90.14000 1.183
90.16000 0.348
90.18000 -0.611
90.20000 0.260
90.22000 5.238
90.24000 2.632
90.26000 3.477
90.28000 5.913
90.30000 10.434
90.32000 8.959
90.34000 7.909
90.36000 1.323
90.38000 1.424
90.40000 -1.389
90.42000 1.432
90.44000 4.920
90.46000 4.824
90.48000 3.175
90.50000 7.300
90.52000 6.170
90.54000 3.765
90.56000 5.443
90.58000 3.758
90.60000 4.619
90.62000 1.308
90.64000 0.748
90.66000 5.167
90.68000 7.914
90.70000 9.675
90.72000 4.813
90.74000 3.203
90.76000 2.088
90.78000 3.276
90.80000 3.510
90.82000 1.570
90.84000 1.122
90.86000 2.985
90.88000 4.727
90.90000 7.710
90.92000 4.615
90.94000 0.441
90.96000 2.279
90.98000 1.163
91.00000 -0.942
91.02000 -0.928
91.04000 -0.621
91.06000 -0.756
91.08000 2.288
91.10000 4.993
91.12000 8.929
91.14000 2.570
91.16000 -0.913
91.18000 4.999
91.20000 3.213
91.22000 2.901
91.24000 0.642
91.26000 -2.195
91.28000 2.304
91.30000 2.552
91.32000 3.918
91.34000 1.361
91.36000 3.212
91.38000 5.179
91.40000 3.906
91.42000 5.462
91.44000 7.977
91.46000 4.889
91.48000 8.208
91.50000 4.222
91.52000 5.741
91.54000 7.359
91.56000 2.208
91.58000 4.362
91.60000 4.756
91.62000 2.081
91.64000 0.679
91.66000 0.354
91.68000 2.190
91.70000 2.295
91.72000 3.286
91.74000 1.626
91.76000 -0.028
91.78000 2.963
91.80000 -1.331
91.82000 3.654
91.84000 4.103
91.86000 8.730
91.88000 0.024
91.90000 1.025
91.92000 0.021
91.94000 4.802
91.96000 5.045
91.98000 2.397
92.00000 5.003
92.02000 6.309
92.04000 8.923
92.06000 3.539
92.08000 6.954
92.10000 3.052
92.12000 5.375
92.14000 3.486
92.16000 2.539
92.18000 5.338
92.20000 -2.178
92.22000 5.040
92.24000 7.458
92.26000 11.610
92.28000 5.207
92.30000 3.667
92.32000 8.970
92.34000 9.650
92.36000 8.531
92.38000 8.028
92.40000 3.543
92.42000 3.046
92.44000 5.958
92.46000 4.389
92.48000 6.269
92.50000 8.176
92.52000 5.207
92.54000 4.450
92.56000 1.241
92.58000 1.168
92.60000 0.346
92.62000 7.026
92.64000 9.146
92.66000 6.776
92.68000 1.249
92.70000 -2.205
92.72000 -1.175
92.74000 3.871
92.76000 2.827
92.78000 8.049
92.80000 2.096
92.82000 4.278
92.84000 6.737
92.86000 4.099
92.88000 6.961
92.90000 4.781
92.92000 2.841
92.94000 4.306
92.96000 3.078
92.98000 3.046
93.00000 0.598
93.02000 -0.993
93.04000 0.771
93.06000 0.570
93.08000 -0.257
93.10000 3.504
93.12000 2.608
93.14000 -0.290
93.16000 5.125
93.18000 4.437
93.20000 8.199
93.22000 7.447
93.24000 3.584
93.26000 0.671
93.28000 2.834
93.30000 4.941
93.32000 5.259
93.34000 4.372
93.36000 10.849
93.38000 8.769
93.40000 3.720
93.42000 1.487
93.44000 -1.642
93.46000 2.770
93.48000 5.517
93.50000 4.192
93.52000 6.395
93.54000 7.016
93.56000 2.773
93.58000 0.587
93.60000 0.140
93.62000 0.331
93.64000 4.842
93.66000 1.382
93.68000 -0.809
93.70000 3.019
93.72000 1.297
93.74000 0.818
93.76000 -1.001
93.78000 3.630
93.80000 5.904
93.82000 4.917
93.84000 -2.264
93.86000 -0.687
93.88000 1.497
93.90000 6.408
93.92000 7.017
93.94000 4.672
93.96000 5.134
93.98000 1.990
94.00000 6.109
94.02000 5.708
94.04000 2.357
94.06000 0.493
94.08000 -0.488
94.10000 6.380
94.12000 3.058
94.14000 1.209
94.16000 -0.261
94.18000 2.700
94.20000 0.645
94.22000 8.215
94.24000 8.309
94.26000 3.856
94.28000 4.083
94.30000 9.461
94.32000 4.593
94.34000 0.436
94.36000 2.876
94.38000 6.067
94.40000 2.177
94.42000 3.325
94.44000 2.855
94.46000 2.532
94.48000 3.693
94.50000 4.345
94.52000 -0.625
94.54000 0.134
94.56000 -0.557
94.58000 -0.968
94.60000 1.948
94.62000 0.443
94.64000 -1.295
94.66000 2.914
94.68000 -0.134
94.70000 0.065
94.72000 2.480
94.74000 2.744
94.76000 -0.786
94.78000 3.094
94.80000 7.601
94.82000 5.630
94.84000 -0.719
94.86000 3.076
94.88000 -1.203
94.90000 -2.275
94.92000 0.216
94.94000 -0.996
94.96000 2.195
94.98000 7.299
95.00000 2.380
95.02000 -0.985
95.04000 0.325
95.06000 4.924
95.08000 7.860
95.10000 1.013
95.12000 6.953
95.14000 7.590
95.16000 5.342
95.18000 -1.585
95.20000 0.377
95.22000 6.235
95.24000 4.623
95.26000 3.971
95.28000 3.610
95.30000 6.317
95.32000 4.404
95.34000 2.884
95.36000 -2.044
95.38000 -2.254
95.40000 -2.153
95.42000 0.549
95.44000 2.635
95.46000 6.451
95.48000 10.081
95.50000 10.477
95.52000 9.495
95.54000 2.669
95.56000 -0.773
95.58000 4.392
95.60000 2.319
95.62000 -0.951
95.64000 4.756
95.66000 3.196
95.68000 6.517
95.70000 6.160
95.72000 8.969
95.74000 10.485
95.76000 9.667
95.78000 5.102
95.80000 4.356
95.82000 2.703
95.84000 1.215
95.86000 3.044
95.88000 1.144
95.90000 0.929
95.92000 4.742
95.94000 5.529
95.96000 8.883
95.98000 5.862
96.00000 -0.881
96.02000 1.863
96.04000 5.085
96.06000 1.465
96.08000 2.070
96.10000 6.030
96.12000 3.347
96.14000 5.579
96.16000 9.895
96.18000 5.796
96.20000 0.406
96.22000 0.068
96.24000 5.045
96.26000 2.835
96.28000 2.814
96.30000 2.136
96.32000 7.535
96.34000 8.418
96.36000 9.701
96.38000 7.712
96.40000 4.060
96.42000 -0.978
96.44000 -1.219
96.46000 -0.338
96.48000 -2.248
96.50000 4.028
96.52000 3.959
96.54000 6.077
96.56000 6.095
96.58000 2.428
96.60000 7.584
96.62000 4.450
96.64000 6.332
96.66000 -0.867
96.68000 3.275
96.70000 6.147
96.72000 5.620
96.74000 -1.025
96.76000 6.878
96.78000 7.837
96.80000 5.314
96.82000 2.933
96.84000 -2.237
96.86000 2.267
96.88000 5.915
96.90000 0.354
96.92000 1.587
96.94000 7.978
96.96000 4.364
96.98000 0.000
97.00000 2.529
97.02000 3.993
97.04000 6.460
97.06000 10.202
97.08000 2.117
97.10000 0.098
97.12000 -0.963
97.14000 0.873
97.16000 7.235
97.18000 1.851
97.20000 5.661
97.22000 8.656
97.24000 2.716
97.26000 0.669
97.28000 0.412
97.30000 4.887
97.32000 6.399
97.34000 10.023
97.36000 -0.330
97.38000 -2.222
97.40000 -0.884
97.42000 -0.016
97.44000 6.733
97.46000 1.004
97.48000 -1.967
97.50000 0.347
97.52000 7.614
97.54000 6.304
97.56000 4.018
97.58000 2.588
97.60000 1.519
97.62000 5.472
97.64000 7.971
97.66000 7.158
97.68000 1.939
97.70000 6.893
97.72000 6.183
97.74000 7.431
97.76000 6.420
97.78000 5.425
97.80000 6.626
97.82000 1.768
97.84000 -2.212
97.86000 6.956
97.88000 6.600
97.90000 6.888
97.92000 9.520
97.94000 6.434
97.96000 3.955
97.98000 10.066
98.00000 13.643
98.02000 8.518
98.04000 7.098
98.06000 9.350
98.08000 7.607
98.10000 2.203
98.12000 6.721
98.14000 5.938
98.16000 8.343
98.18000 2.395
98.20000 4.569
98.22000 4.288
98.24000 2.462
98.26000 6.024
98.28000 7.210
98.30000 8.014
98.32000 4.333
98.34000 6.375
98.36000 2.737
98.38000 0.520
98.40000 1.489
98.42000 5.012
98.44000 2.459
98.46000 5.322
98.48000 12.273
98.50000 7.251
98.52000 4.690
98.54000 4.853
98.56000 4.411
98.58000 2.508
98.60000 3.470
98.62000 11.088
98.64000 8.679
98.66000 11.677
98.68000 7.447
98.70000 3.645
98.72000 7.931
98.74000 1.073
98.76000 1.836
98.78000 -1.963
98.80000 -0.583
98.82000 9.133
98.84000 5.480
98.86000 3.803
98.88000 3.551
98.90000 6.587
98.92000 10.107
98.94000 6.397
98.96000 12.851
98.98000 14.002
99.00000 7.032
99.02000 5.336
99.04000 6.433
99.06000 12.185
99.08000 14.496
99.10000 19.623
99.12000 11.310
99.14000 9.522
99.16000 11.595
99.18000 8.886
99.20000 18.869
99.22000 13.803
99.24000 11.466
99.26000 9.155
99.28000 14.747
99.30000 13.817
99.32000 4.582
99.34000 10.449
99.36000 9.289
99.38000 -0.586
99.40000 -2.077
99.42000 5.734
99.44000 16.482
99.46000 19.609
99.48000 10.841
99.50000 5.830
99.52000 -2.833
99.54000 11.796
99.56000 7.780
99.58000 2.560
99.60000 3.598
99.62000 14.521
99.64000 14.324
99.66000 3.886
99.68000 10.043
99.70000 4.362
99.72000 8.538
99.74000 5.044
99.76000 1.307
99.78000 5.527
99.80000 0.968
99.82000 10.344
99.84000 0.208
99.86000 -2.271
99.88000 -0.347
99.90000 0.510
99.92000 6.846
99.94000 3.689
99.96000 -2.339
99.98000 0.000
