'Id: "0011389" Comment: "Integrate frame 0011389_Au-Ir-Rh_Au-Rich_XRD_Mapping-194-0000.gfrmwith cursor Wedge Cursor #5" Operator: "B?rgel" Anode: "Cu" Wavelength: "1.5406" Scantype: "2Theta (TwoTheta)" TimePerStep: "1" X: "27" Y: "4.5" Z: "5.95" 
10.00000 0.000
10.02000 -4.187
10.04000 10.577
10.06000 13.703
10.08000 16.934
10.10000 12.464
10.12000 8.133
10.14000 10.120
10.16000 13.595
10.18000 24.145
10.20000 18.176
10.22000 18.716
10.24000 13.374
10.26000 10.523
10.28000 23.675
10.30000 31.697
10.32000 26.567
10.34000 20.455
10.36000 1.707
10.38000 4.469
10.40000 16.115
10.42000 18.847
10.44000 15.292
10.46000 12.996
10.48000 -4.656
10.50000 11.263
10.52000 8.651
10.54000 5.638
10.56000 17.868
10.58000 23.467
10.60000 19.912
10.62000 29.608
10.64000 18.298
10.66000 17.264
10.68000 9.583
10.70000 19.281
10.72000 18.066
10.74000 22.734
10.76000 14.799
10.78000 20.860
10.80000 19.478
10.82000 12.663
10.84000 6.592
10.86000 12.909
10.88000 11.246
10.90000 20.210
10.92000 14.243
10.94000 19.307
10.96000 26.873
10.98000 27.323
11.00000 17.475
11.02000 31.608
11.04000 22.905
11.06000 8.987
11.08000 16.402
11.10000 17.649
11.12000 18.770
11.14000 19.798
11.16000 16.747
11.18000 12.328
11.20000 16.312
11.22000 12.144
11.24000 20.682
11.26000 14.190
11.28000 29.159
11.30000 29.416
11.32000 12.309
11.34000 16.998
11.36000 35.016
11.38000 32.008
11.40000 24.589
11.42000 31.212
11.44000 25.224
11.46000 23.329
11.48000 20.366
11.50000 18.870
11.52000 20.385
11.54000 26.878
11.56000 25.560
11.58000 23.195
11.60000 23.616
11.62000 24.927
11.64000 19.035
11.66000 23.709
11.68000 18.030
11.70000 39.939
11.72000 34.183
11.74000 19.342
11.76000 20.818
11.78000 17.815
11.80000 20.503
11.82000 27.537
11.84000 27.901
11.86000 20.858
11.88000 25.835
11.90000 27.835
11.92000 31.866
11.94000 29.826
11.96000 28.228
11.98000 31.998
12.00000 39.479
12.02000 38.635
12.04000 32.500
12.06000 28.310
12.08000 26.881
12.10000 33.722
12.12000 40.902
12.14000 41.202
12.16000 37.636
12.18000 31.325
12.20000 34.403
12.22000 27.863
12.24000 35.789
12.26000 42.228
12.28000 37.112
12.30000 29.832
12.32000 31.086
12.34000 34.058
12.36000 20.521
12.38000 26.376
12.40000 32.881
12.42000 26.670
12.44000 34.955
12.46000 46.780
12.48000 49.577
12.50000 34.453
12.52000 34.801
12.54000 40.189
12.56000 48.031
12.58000 40.086
12.60000 38.294
12.62000 39.249
12.64000 39.754
12.66000 46.778
12.68000 39.251
12.70000 35.442
12.72000 32.573
12.74000 28.259
12.76000 33.511
12.78000 34.681
12.80000 29.626
12.82000 28.608
12.84000 30.871
12.86000 30.346
12.88000 30.220
12.90000 34.690
12.92000 32.371
12.94000 28.517
12.96000 31.190
12.98000 37.638
13.00000 37.014
13.02000 30.961
13.04000 39.000
13.06000 43.882
13.08000 37.058
13.10000 35.269
13.12000 37.269
13.14000 37.898
13.16000 35.247
13.18000 34.459
13.20000 30.672
13.22000 25.613
13.24000 18.570
13.26000 26.455
13.28000 34.050
13.30000 42.273
13.32000 38.414
13.34000 31.366
13.36000 29.561
13.38000 40.309
13.40000 42.527
13.42000 44.958
13.44000 31.248
13.46000 32.000
13.48000 28.576
13.50000 29.056
13.52000 31.429
13.54000 28.417
13.56000 35.009
13.58000 41.222
13.60000 32.093
13.62000 23.304
13.64000 30.049
13.66000 42.502
13.68000 38.590
13.70000 40.296
13.72000 31.392
13.74000 20.745
13.76000 31.054
13.78000 33.402
13.80000 29.103
13.82000 27.031
13.84000 23.132
13.86000 21.058
13.88000 23.470
13.90000 22.415
13.92000 24.062
13.94000 28.333
13.96000 32.219
13.98000 31.535
14.00000 29.130
14.02000 30.603
14.04000 31.500
14.06000 32.361
14.08000 28.799
14.10000 26.382
14.12000 23.941
14.14000 24.997
14.16000 27.833
14.18000 23.659
14.20000 17.028
14.22000 27.361
14.24000 31.856
14.26000 23.977
14.28000 21.631
14.30000 24.616
14.32000 17.035
14.34000 15.826
14.36000 12.499
14.38000 22.483
14.40000 25.864
14.42000 23.771
14.44000 25.352
14.46000 30.359
14.48000 31.436
14.50000 15.933
14.52000 18.866
14.54000 26.027
14.56000 25.945
14.58000 19.429
14.60000 15.500
14.62000 27.432
14.64000 21.519
14.66000 14.299
14.68000 20.564
14.70000 28.044
14.72000 20.924
14.74000 10.973
14.76000 11.284
14.78000 17.195
14.80000 16.096
14.82000 16.736
14.84000 22.012
14.86000 16.305
14.88000 15.933
14.90000 17.011
14.92000 22.012
14.94000 20.051
14.96000 21.762
14.98000 28.003
15.00000 27.817
15.02000 21.689
15.04000 23.460
15.06000 13.149
15.08000 11.069
15.10000 15.145
15.12000 23.011
15.14000 17.795
15.16000 14.835
15.18000 10.283
15.20000 12.425
15.22000 24.217
15.24000 19.311
15.26000 8.779
15.28000 10.100
15.30000 12.739
15.32000 15.655
15.34000 11.425
15.36000 19.185
15.38000 26.301
15.40000 22.193
15.42000 20.182
15.44000 12.213
15.46000 15.594
15.48000 15.264
15.50000 11.975
15.52000 6.437
15.54000 11.223
15.56000 21.671
15.58000 18.422
15.60000 12.879
15.62000 21.726
15.64000 17.567
15.66000 11.021
15.68000 7.347
15.70000 11.616
15.72000 17.280
15.74000 20.427
15.76000 13.251
15.78000 6.823
15.80000 8.935
15.82000 13.890
15.84000 15.973
15.86000 9.285
15.88000 8.762
15.90000 14.841
15.92000 14.883
15.94000 8.978
15.96000 8.318
15.98000 15.287
16.00000 11.354
16.02000 14.889
16.04000 9.310
16.06000 3.458
16.08000 -2.279
16.10000 -1.164
16.12000 9.786
16.14000 8.306
16.16000 7.690
16.18000 13.832
16.20000 13.661
16.22000 12.852
16.24000 16.674
16.26000 14.330
16.28000 10.018
16.30000 4.487
16.32000 10.488
16.34000 8.532
16.36000 11.785
16.38000 11.051
16.40000 7.952
16.42000 6.906
16.44000 11.336
16.46000 14.447
16.48000 20.384
16.50000 18.410
16.52000 3.516
16.54000 8.388
16.56000 13.483
16.58000 10.649
16.60000 15.010
16.62000 14.829
16.64000 17.956
16.66000 11.685
16.68000 10.182
16.70000 9.146
16.72000 4.096
16.74000 7.880
16.76000 6.516
16.78000 7.797
16.80000 6.144
16.82000 4.299
16.84000 -1.030
16.86000 1.389
16.88000 4.009
16.90000 11.213
16.92000 13.092
16.94000 11.212
16.96000 0.598
16.98000 7.607
17.00000 12.702
17.02000 8.959
17.04000 13.115
17.06000 7.271
17.08000 4.474
17.10000 9.826
17.12000 6.115
17.14000 3.935
17.16000 5.002
17.18000 9.875
17.20000 7.213
17.22000 3.700
17.24000 7.721
17.26000 9.383
17.28000 6.677
17.30000 8.952
17.32000 7.548
17.34000 6.689
17.36000 13.297
17.38000 11.851
17.40000 9.159
17.42000 9.332
17.44000 7.054
17.46000 11.769
17.48000 9.791
17.50000 7.175
17.52000 6.296
17.54000 7.223
17.56000 6.319
17.58000 4.939
17.60000 2.665
17.62000 0.276
17.64000 -2.778
17.66000 5.725
17.68000 11.673
17.70000 10.127
17.72000 9.574
17.74000 8.506
17.76000 8.218
17.78000 10.897
17.80000 3.593
17.82000 5.180
17.84000 0.002
17.86000 -1.058
17.88000 7.528
17.90000 9.472
17.92000 8.004
17.94000 3.445
17.96000 -4.366
17.98000 4.267
18.00000 12.238
18.02000 9.808
18.04000 8.980
18.06000 10.875
18.08000 6.580
18.10000 4.411
18.12000 6.896
18.14000 7.557
18.16000 6.319
18.18000 10.601
18.20000 8.535
18.22000 3.077
18.24000 5.681
18.26000 4.417
18.28000 2.099
18.30000 4.391
18.32000 5.891
18.34000 4.366
18.36000 4.819
18.38000 5.833
18.40000 5.587
18.42000 7.400
18.44000 7.384
18.46000 0.758
18.48000 2.831
18.50000 13.381
18.52000 2.692
18.54000 -0.866
18.56000 6.342
18.58000 5.347
18.60000 -4.328
18.62000 1.337
18.64000 2.845
18.66000 6.230
18.68000 12.034
18.70000 8.989
18.72000 10.995
18.74000 13.903
18.76000 6.895
18.78000 -1.264
18.80000 4.218
18.82000 3.826
18.84000 3.347
18.86000 9.943
18.88000 9.910
18.90000 6.569
18.92000 5.501
18.94000 5.394
18.96000 1.572
18.98000 4.244
19.00000 9.455
19.02000 4.830
19.04000 2.479
19.06000 -1.426
19.08000 -1.241
19.10000 8.510
19.12000 10.123
19.14000 2.012
19.16000 1.283
19.18000 4.039
19.20000 4.926
19.22000 -2.728
19.24000 -4.163
19.26000 2.325
19.28000 -1.509
19.30000 -4.290
19.32000 2.394
19.34000 3.225
19.36000 0.486
19.38000 5.222
19.40000 0.333
19.42000 2.559
19.44000 4.396
19.46000 4.402
19.48000 4.411
19.50000 2.530
19.52000 3.712
19.54000 0.340
19.56000 4.955
19.58000 11.290
19.60000 4.514
19.62000 -0.827
19.64000 1.938
19.66000 -4.268
19.68000 6.571
19.70000 7.022
19.72000 -1.814
19.74000 1.615
19.76000 9.227
19.78000 5.627
19.80000 1.612
19.82000 -0.145
19.84000 0.170
19.86000 -1.258
19.88000 -0.240
19.90000 8.319
19.92000 7.439
19.94000 9.552
19.96000 9.124
19.98000 13.297
20.00000 10.371
20.02000 8.784
20.04000 4.943
20.06000 4.584
20.08000 7.091
20.10000 6.609
20.12000 9.092
20.14000 5.983
20.16000 6.837
20.18000 3.319
20.20000 6.859
20.22000 3.902
20.24000 -2.445
20.26000 1.972
20.28000 3.617
20.30000 7.848
20.32000 5.619
20.34000 1.100
20.36000 8.844
20.38000 9.168
20.40000 4.740
20.42000 4.347
20.44000 4.073
20.46000 2.431
20.48000 0.751
20.50000 9.265
20.52000 3.889
20.54000 -0.383
20.56000 -1.846
20.58000 -0.543
20.60000 6.819
20.62000 11.378
20.64000 6.976
20.66000 -1.549
20.68000 -4.214
20.70000 -1.826
20.72000 1.287
20.74000 5.699
20.76000 3.595
20.78000 3.687
20.80000 2.436
20.82000 6.963
20.84000 4.420
20.86000 -1.398
20.88000 -2.857
20.90000 2.214
20.92000 6.233
20.94000 7.408
20.96000 8.101
20.98000 5.072
21.00000 0.493
21.02000 1.316
21.04000 2.856
21.06000 3.696
21.08000 7.718
21.10000 7.943
21.12000 3.050
21.14000 1.231
21.16000 1.425
21.18000 2.250
21.20000 0.658
21.22000 -0.794
21.24000 -2.313
21.26000 4.123
21.28000 9.763
21.30000 2.327
21.32000 4.157
21.34000 0.856
21.36000 -0.142
21.38000 0.187
21.40000 3.019
21.42000 7.424
21.44000 7.330
21.46000 12.978
21.48000 7.198
21.50000 0.202
21.52000 -2.082
21.54000 2.444
21.56000 8.780
21.58000 6.381
21.60000 1.520
21.62000 2.425
21.64000 -1.301
21.66000 7.027
21.68000 1.102
21.70000 1.771
21.72000 6.141
21.74000 7.471
21.76000 5.803
21.78000 5.031
21.80000 0.611
21.82000 -0.934
21.84000 -0.232
21.86000 5.806
21.88000 4.013
21.90000 -1.716
21.92000 0.085
21.94000 0.174
21.96000 0.933
21.98000 5.389
22.00000 4.887
22.02000 5.408
22.04000 13.023
22.06000 2.834
22.08000 2.983
22.10000 5.344
22.12000 11.650
22.14000 -0.345
22.16000 -0.305
22.18000 0.016
22.20000 0.428
22.22000 -4.085
22.24000 -4.133
22.26000 3.465
22.28000 7.435
22.30000 4.062
22.32000 1.810
22.34000 3.422
22.36000 5.815
22.38000 4.138
22.40000 6.149
22.42000 -3.559
22.44000 -0.270
22.46000 5.856
22.48000 7.844
22.50000 6.665
22.52000 2.327
22.54000 2.071
22.56000 6.660
22.58000 4.616
22.60000 -1.848
22.62000 -1.983
22.64000 -2.207
22.66000 3.648
22.68000 2.182
22.70000 3.057
22.72000 9.057
22.74000 9.798
22.76000 2.575
22.78000 0.715
22.80000 4.137
22.82000 2.273
22.84000 5.682
22.86000 4.148
22.88000 8.306
22.90000 1.826
22.92000 0.852
22.94000 5.584
22.96000 5.455
22.98000 5.865
23.00000 -0.687
23.02000 1.887
23.04000 2.686
23.06000 7.102
23.08000 3.173
23.10000 1.429
23.12000 -0.328
23.14000 5.696
23.16000 6.500
23.18000 2.453
23.20000 0.234
23.22000 6.475
23.24000 3.282
23.26000 2.618
23.28000 6.693
23.30000 5.266
23.32000 6.830
23.34000 6.553
23.36000 6.525
23.38000 10.030
23.40000 2.008
23.42000 -2.247
23.44000 3.661
23.46000 5.779
23.48000 5.711
23.50000 6.332
23.52000 3.995
23.54000 3.650
23.56000 9.809
23.58000 4.685
23.60000 6.455
23.62000 5.824
23.64000 6.786
23.66000 11.166
23.68000 12.402
23.70000 2.375
23.72000 -4.039
23.74000 -1.062
23.76000 0.313
23.78000 5.811
23.80000 3.675
23.82000 1.112
23.84000 3.614
23.86000 1.691
23.88000 4.421
23.90000 1.755
23.92000 3.313
23.94000 2.879
23.96000 -0.532
23.98000 2.518
24.00000 4.921
24.02000 5.911
24.04000 5.390
24.06000 1.453
24.08000 3.745
24.10000 1.256
24.12000 2.570
24.14000 3.522
24.16000 6.433
24.18000 5.981
24.20000 4.758
24.22000 4.503
24.24000 10.036
24.26000 6.275
24.28000 2.686
24.30000 2.097
24.32000 4.996
24.34000 4.897
24.36000 3.984
24.38000 -0.707
24.40000 4.002
24.42000 5.605
24.44000 3.522
24.46000 -0.631
24.48000 1.192
24.50000 4.316
24.52000 2.348
24.54000 1.049
24.56000 0.610
24.58000 0.055
24.60000 2.782
24.62000 4.830
24.64000 5.867
24.66000 5.705
24.68000 9.796
24.70000 3.979
24.72000 0.805
24.74000 3.021
24.76000 5.073
24.78000 4.487
24.80000 -0.740
24.82000 5.639
24.84000 8.757
24.86000 3.187
24.88000 -3.982
24.90000 0.254
24.92000 0.616
24.94000 1.748
24.96000 2.196
24.98000 7.010
25.00000 6.098
25.02000 0.946
25.04000 -3.270
25.06000 0.948
25.08000 3.456
25.10000 5.542
25.12000 -2.486
25.14000 1.713
25.16000 4.228
25.18000 4.215
25.20000 5.429
25.22000 6.230
25.24000 5.733
25.26000 3.135
25.28000 -1.693
25.30000 -3.414
25.32000 4.236
25.34000 5.402
25.36000 4.711
25.38000 0.551
25.40000 1.430
25.42000 6.863
25.44000 1.633
25.46000 -1.323
25.48000 5.565
25.50000 2.720
25.52000 6.888
25.54000 1.184
25.56000 0.886
25.58000 -1.729
25.60000 4.195
25.62000 4.217
25.64000 2.118
25.66000 -0.007
25.68000 -0.237
25.70000 2.939
25.72000 2.547
25.74000 4.616
25.76000 7.324
25.78000 8.054
25.80000 7.067
25.82000 8.275
25.84000 7.759
25.86000 3.087
25.88000 0.083
25.90000 -0.177
25.92000 -1.146
25.94000 -3.926
25.96000 0.773
25.98000 6.468
26.00000 3.026
26.02000 0.992
26.04000 5.376
26.06000 8.092
26.08000 1.093
26.10000 -0.683
26.12000 7.302
26.14000 4.897
26.16000 4.139
26.18000 -0.883
26.20000 -2.112
26.22000 -1.744
26.24000 -0.631
26.26000 -3.912
26.28000 0.675
26.30000 3.676
26.32000 3.209
26.34000 4.475
26.36000 8.094
26.38000 7.780
26.40000 3.118
26.42000 -2.478
26.44000 3.552
26.46000 6.522
26.48000 1.993
26.50000 2.147
26.52000 1.058
26.54000 -0.932
26.56000 -1.662
26.58000 4.990
26.60000 7.058
26.62000 3.004
26.64000 -0.404
26.66000 1.526
26.68000 5.220
26.70000 1.430
26.72000 -3.693
26.74000 -3.902
26.76000 0.437
26.78000 6.349
26.80000 6.433
26.82000 4.665
26.84000 4.507
26.86000 6.789
26.88000 4.145
26.90000 2.411
26.92000 11.013
26.94000 8.829
26.96000 10.047
26.98000 10.593
27.00000 6.187
27.02000 4.703
27.04000 3.589
27.06000 2.719
27.08000 6.723
27.10000 2.393
27.12000 -2.907
27.14000 0.780
27.16000 3.714
27.18000 2.962
27.20000 -1.478
27.22000 -2.516
27.24000 1.165
27.26000 2.253
27.28000 0.872
27.30000 3.662
27.32000 2.360
27.34000 0.005
27.36000 0.981
27.38000 2.203
27.40000 4.209
27.42000 1.853
27.44000 -3.089
27.46000 -0.899
27.48000 1.381
27.50000 1.537
27.52000 2.153
27.54000 5.539
27.56000 8.509
27.58000 2.592
27.60000 -3.863
27.62000 4.336
27.64000 7.062
27.66000 3.660
27.68000 6.386
27.70000 1.537
27.72000 6.357
27.74000 6.933
27.76000 0.057
27.78000 -2.930
27.80000 2.048
27.82000 0.133
27.84000 2.993
27.86000 -2.846
27.88000 -0.613
27.90000 -2.566
27.92000 -2.563
27.94000 3.263
27.96000 2.296
27.98000 3.854
28.00000 3.365
28.02000 3.712
28.04000 4.222
28.06000 4.639
28.08000 1.368
28.10000 -1.744
28.12000 -2.035
28.14000 -0.462
28.16000 -0.956
28.18000 -1.577
28.20000 -2.197
28.22000 2.371
28.24000 3.347
28.26000 3.317
28.28000 4.840
28.30000 -0.338
28.32000 4.799
28.34000 -1.323
28.36000 -1.251
28.38000 5.359
28.40000 6.311
28.42000 7.053
28.44000 7.830
28.46000 6.028
28.48000 -1.680
28.50000 5.008
28.52000 3.674
28.54000 -0.732
28.56000 2.894
28.58000 6.235
28.60000 1.697
28.62000 1.573
28.64000 2.284
28.66000 9.327
28.68000 11.192
28.70000 3.841
28.72000 -0.676
28.74000 1.193
28.76000 5.925
28.78000 6.437
28.80000 -0.880
28.82000 3.202
28.84000 5.505
28.86000 9.031
28.88000 4.286
28.90000 -2.853
28.92000 -1.436
28.94000 3.580
28.96000 4.166
28.98000 -0.736
29.00000 -3.762
29.02000 -3.761
29.04000 -0.213
29.06000 4.489
29.08000 10.088
29.10000 7.675
29.12000 0.262
29.14000 -0.520
29.16000 2.631
29.18000 1.391
29.20000 -1.326
29.22000 -0.683
29.24000 1.858
29.26000 2.300
29.28000 7.270
29.30000 4.034
29.32000 1.751
29.34000 5.630
29.36000 -0.603
29.38000 -1.618
29.40000 0.138
29.42000 3.299
29.44000 5.348
29.46000 5.969
29.48000 3.678
29.50000 4.132
29.52000 1.001
29.54000 2.912
29.56000 2.805
29.58000 0.403
29.60000 4.057
29.62000 1.393
29.64000 3.855
29.66000 1.445
29.68000 -1.508
29.70000 -0.365
29.72000 -0.492
29.74000 -0.402
29.76000 -0.959
29.78000 -1.688
29.80000 3.832
29.82000 0.205
29.84000 2.084
29.86000 6.380
29.88000 5.972
29.90000 10.288
29.92000 8.220
29.94000 2.737
29.96000 -1.887
29.98000 1.675
30.00000 6.228
30.02000 5.649
30.04000 5.087
30.06000 1.092
30.08000 3.542
30.10000 4.142
30.12000 4.811
30.14000 7.084
30.16000 4.958
30.18000 7.219
30.20000 1.712
30.22000 2.046
30.24000 -2.055
30.26000 -3.651
30.28000 -1.732
30.30000 3.167
30.32000 6.538
30.34000 8.980
30.36000 8.040
30.38000 2.080
30.40000 0.906
30.42000 2.906
30.44000 0.896
30.46000 2.261
30.48000 7.245
30.50000 9.784
30.52000 7.401
30.54000 0.178
30.56000 -1.182
30.58000 4.398
30.60000 7.049
30.62000 6.300
30.64000 0.709
30.66000 3.906
30.68000 4.339
30.70000 2.256
30.72000 -3.279
30.74000 -3.694
30.76000 -1.958
30.78000 1.895
30.80000 4.290
30.82000 3.003
30.84000 -0.730
30.86000 1.908
30.88000 -0.888
30.90000 0.428
30.92000 2.866
30.94000 0.974
30.96000 3.919
30.98000 1.562
31.00000 3.722
31.02000 0.037
31.04000 0.903
31.06000 3.256
31.08000 2.912
31.10000 5.757
31.12000 2.278
31.14000 3.308
31.16000 3.668
31.18000 2.096
31.20000 0.607
31.22000 -2.792
31.24000 1.849
31.26000 1.312
31.28000 -1.161
31.30000 1.332
31.32000 5.146
31.34000 8.110
31.36000 10.149
31.38000 5.883
31.40000 -1.285
31.42000 0.866
31.44000 1.996
31.46000 -0.338
31.48000 2.677
31.50000 1.653
31.52000 2.316
31.54000 5.241
31.56000 6.067
31.58000 5.555
31.60000 -0.996
31.62000 2.577
31.64000 -1.346
31.66000 -3.648
31.68000 -0.499
31.70000 1.218
31.72000 5.466
31.74000 4.850
31.76000 3.051
31.78000 1.231
31.80000 4.806
31.82000 7.583
31.84000 6.157
31.86000 -1.353
31.88000 -1.610
31.90000 -0.752
31.92000 5.581
31.94000 2.426
31.96000 2.996
31.98000 6.535
32.00000 6.236
32.02000 2.163
32.04000 8.150
32.06000 8.444
32.08000 8.345
32.10000 5.224
32.12000 2.868
32.14000 2.069
32.16000 4.120
32.18000 -1.470
32.20000 -1.163
32.22000 3.917
32.24000 2.606
32.26000 2.782
32.28000 1.143
32.30000 -1.477
32.32000 -0.043
32.34000 -1.716
32.36000 -1.974
32.38000 -1.602
32.40000 -3.090
32.42000 -2.966
32.44000 -1.348
32.46000 6.365
32.48000 2.959
32.50000 4.393
32.52000 1.937
32.54000 -0.796
32.56000 0.761
32.58000 0.791
32.60000 1.523
32.62000 1.981
32.64000 3.610
32.66000 -1.484
32.68000 0.931
32.70000 -3.538
32.72000 -2.585
32.74000 -0.267
32.76000 1.522
32.78000 3.539
32.80000 1.872
32.82000 -0.226
32.84000 5.341
32.86000 2.845
32.88000 3.249
32.90000 2.841
32.92000 2.161
32.94000 -1.227
32.96000 1.835
32.98000 -2.511
33.00000 -3.647
33.02000 -1.545
33.04000 1.486
33.06000 -0.684
33.08000 -3.078
33.10000 1.243
33.12000 -0.075
33.14000 -0.822
33.16000 2.334
33.18000 5.865
33.20000 8.504
33.22000 4.260
33.24000 1.048
33.26000 5.092
33.28000 4.542
33.30000 3.543
33.32000 2.081
33.34000 -1.296
33.36000 -0.329
33.38000 0.164
33.40000 3.801
33.42000 5.397
33.44000 4.064
33.46000 -1.639
33.48000 -1.644
33.50000 -3.436
33.52000 -3.650
33.54000 -0.123
33.56000 4.456
33.58000 2.479
33.60000 2.942
33.62000 4.068
33.64000 6.257
33.66000 2.128
33.68000 2.247
33.70000 3.543
33.72000 3.029
33.74000 4.055
33.76000 1.797
33.78000 0.331
33.80000 2.230
33.82000 -0.561
33.84000 2.037
33.86000 6.201
33.88000 3.284
33.90000 1.399
33.92000 5.364
33.94000 5.733
33.96000 6.330
33.98000 1.960
34.00000 2.937
34.02000 4.690
34.04000 4.413
34.06000 2.731
34.08000 -1.782
34.10000 2.198
34.12000 5.600
34.14000 3.778
34.16000 1.887
34.18000 -3.640
34.20000 0.404
34.22000 1.987
34.24000 2.426
34.26000 5.829
34.28000 4.997
34.30000 6.553
34.32000 9.638
34.34000 6.246
34.36000 0.415
34.38000 -1.323
34.40000 -0.432
34.42000 2.610
34.44000 4.108
34.46000 3.626
34.48000 0.471
34.50000 0.118
34.52000 1.035
34.54000 1.441
34.56000 0.887
34.58000 2.938
34.60000 2.138
34.62000 2.088
34.64000 3.803
34.66000 3.645
34.68000 2.969
34.70000 6.254
34.72000 5.986
34.74000 -2.266
34.76000 -3.617
34.78000 -0.563
34.80000 -2.518
34.82000 -1.131
34.84000 0.147
34.86000 -1.852
34.88000 5.761
34.90000 3.703
34.92000 0.863
34.94000 5.885
34.96000 1.856
34.98000 -1.370
35.00000 -1.023
35.02000 -1.695
35.04000 0.860
35.06000 1.298
35.08000 2.256
35.10000 2.292
35.12000 -0.071
35.14000 -2.918
35.16000 -0.362
35.18000 0.835
35.20000 1.444
35.22000 -0.295
35.24000 -1.235
35.26000 -3.602
35.28000 -1.532
35.30000 3.600
35.32000 1.157
35.34000 8.137
35.36000 9.794
35.38000 3.204
35.40000 6.205
35.42000 -0.316
35.44000 1.083
35.46000 2.508
35.48000 0.616
35.50000 3.459
35.52000 0.110
35.54000 -2.075
35.56000 -1.877
35.58000 -2.647
35.60000 -1.803
35.62000 2.241
35.64000 4.258
35.66000 3.929
35.68000 3.819
35.70000 1.154
35.72000 0.241
35.74000 2.651
35.76000 -0.346
35.78000 -1.279
35.80000 1.805
35.82000 -1.688
35.84000 2.263
35.86000 1.249
35.88000 -1.364
35.90000 1.181
35.92000 0.035
35.94000 -2.436
35.96000 2.094
35.98000 -0.818
36.00000 0.039
36.02000 3.008
36.04000 3.115
36.06000 -0.980
36.08000 -3.634
36.10000 -1.845
36.12000 5.151
36.14000 1.329
36.16000 -3.491
36.18000 -0.510
36.20000 1.140
36.22000 -3.644
36.24000 -1.531
36.26000 2.925
36.28000 1.505
36.30000 -0.279
36.32000 0.759
36.34000 -1.131
36.36000 -2.132
36.38000 1.587
36.40000 3.632
36.42000 0.942
36.44000 4.958
36.46000 6.812
36.48000 0.062
36.50000 2.998
36.52000 2.889
36.54000 -1.649
36.56000 0.781
36.58000 0.383
36.60000 -0.425
36.62000 -3.215
36.64000 2.001
36.66000 2.775
36.68000 0.969
36.70000 1.219
36.72000 3.383
36.74000 -0.281
36.76000 -1.502
36.78000 1.740
36.80000 3.450
36.82000 2.648
36.84000 1.324
36.86000 -0.050
36.88000 -0.428
36.90000 1.537
36.92000 1.536
36.94000 1.105
36.96000 -2.298
36.98000 0.185
37.00000 -3.215
37.02000 -3.693
37.04000 0.447
37.06000 0.038
37.08000 1.543
37.10000 7.707
37.12000 4.293
37.14000 2.581
37.16000 7.721
37.18000 10.865
37.20000 7.504
37.22000 1.497
37.24000 6.692
37.26000 9.567
37.28000 3.265
37.30000 7.095
37.32000 4.154
37.34000 -1.314
37.36000 7.330
37.38000 8.737
37.40000 5.255
37.42000 5.372
37.44000 12.071
37.46000 5.205
37.48000 4.388
37.50000 2.281
37.52000 4.603
37.54000 1.249
37.56000 8.704
37.58000 5.600
37.60000 7.758
37.62000 11.800
37.64000 11.573
37.66000 10.484
37.68000 10.117
37.70000 13.529
37.72000 12.971
37.74000 13.487
37.76000 14.663
37.78000 14.576
37.80000 13.669
37.82000 15.234
37.84000 18.996
37.86000 17.731
37.88000 17.949
37.90000 20.403
37.92000 21.456
37.94000 20.648
37.96000 17.403
37.98000 18.396
38.00000 20.903
38.02000 21.097
38.04000 20.647
38.06000 24.938
38.08000 27.554
38.10000 28.899
38.12000 27.992
38.14000 26.666
38.16000 29.004
38.18000 29.259
38.20000 26.089
38.22000 32.889
38.24000 39.269
38.26000 39.525
38.28000 42.281
38.30000 43.438
38.32000 42.645
38.34000 45.053
38.36000 42.204
38.38000 39.140
38.40000 42.906
38.42000 45.725
38.44000 48.560
38.46000 51.848
38.48000 59.310
38.50000 57.984
38.52000 55.959
38.54000 63.934
38.56000 68.529
38.58000 72.353
38.60000 71.775
38.62000 71.490
38.64000 71.565
38.66000 74.272
38.68000 76.979
38.70000 81.728
38.72000 91.947
38.74000 97.475
38.76000 101.019
38.78000 101.032
38.80000 106.411
38.82000 119.026
38.84000 121.628
38.86000 129.638
38.88000 134.801
38.90000 138.577
38.92000 140.339
38.94000 152.680
38.96000 163.355
38.98000 172.178
39.00000 183.921
39.02000 200.511
39.04000 210.080
39.06000 219.021
39.08000 232.535
39.10000 249.402
39.12000 269.833
39.14000 274.089
39.16000 291.323
39.18000 303.982
39.20000 323.507
39.22000 337.186
39.24000 358.318
39.26000 382.677
39.28000 404.006
39.30000 414.839
39.32000 431.707
39.34000 457.988
39.36000 475.396
39.38000 490.584
39.40000 517.002
39.42000 533.657
39.44000 542.649
39.46000 561.428
39.48000 579.948
39.50000 595.275
39.52000 608.731
39.54000 610.727
39.56000 622.593
39.58000 634.260
39.60000 629.662
39.62000 611.118
39.64000 618.367
39.66000 621.203
39.68000 609.742
39.70000 595.631
39.72000 578.094
39.74000 557.421
39.76000 539.431
39.78000 529.923
39.80000 520.871
39.82000 493.866
39.84000 476.418
39.86000 451.626
39.88000 439.188
39.90000 414.650
39.92000 402.837
39.94000 385.194
39.96000 364.053
39.98000 346.638
40.00000 325.473
40.02000 299.954
40.04000 288.323
40.06000 270.661
40.08000 249.817
40.10000 238.096
40.12000 220.234
40.14000 204.753
40.16000 192.472
40.18000 186.424
40.20000 173.741
40.22000 168.701
40.24000 153.938
40.26000 148.350
40.28000 138.985
40.30000 125.387
40.32000 114.443
40.34000 107.231
40.36000 101.331
40.38000 94.776
40.40000 90.357
40.42000 82.394
40.44000 76.460
40.46000 76.840
40.48000 73.036
40.50000 69.224
40.52000 63.992
40.54000 60.655
40.56000 57.703
40.58000 51.600
40.60000 49.956
40.62000 44.869
40.64000 38.387
40.66000 37.055
40.68000 33.349
40.70000 35.914
40.72000 37.228
40.74000 36.498
40.76000 32.356
40.78000 29.130
40.80000 25.116
40.82000 25.942
40.84000 26.925
40.86000 23.525
40.88000 20.354
40.90000 22.129
40.92000 24.862
40.94000 22.027
40.96000 19.952
40.98000 15.045
41.00000 17.223
41.02000 15.907
41.04000 12.589
41.06000 9.322
41.08000 9.073
41.10000 12.129
41.12000 13.456
41.14000 16.544
41.16000 16.193
41.18000 13.927
41.20000 12.325
41.22000 11.008
41.24000 5.237
41.26000 6.599
41.28000 5.433
41.30000 1.914
41.32000 3.266
41.34000 8.698
41.36000 4.023
41.38000 4.835
41.40000 4.909
41.42000 3.797
41.44000 3.610
41.46000 4.721
41.48000 6.405
41.50000 3.554
41.52000 1.308
41.54000 4.806
41.56000 3.515
41.58000 1.725
41.60000 1.638
41.62000 2.672
41.64000 0.370
41.66000 -2.212
41.68000 2.789
41.70000 5.552
41.72000 4.771
41.74000 5.117
41.76000 4.823
41.78000 5.805
41.80000 6.275
41.82000 5.565
41.84000 4.357
41.86000 2.345
41.88000 1.257
41.90000 4.913
41.92000 5.433
41.94000 4.395
41.96000 1.936
41.98000 2.119
42.00000 1.338
42.02000 1.923
42.04000 -1.976
42.06000 0.425
42.08000 2.648
42.10000 1.572
42.12000 0.711
42.14000 2.160
42.16000 2.203
42.18000 2.195
42.20000 -3.322
42.22000 -1.121
42.24000 3.765
42.26000 2.694
42.28000 2.796
42.30000 0.931
42.32000 2.036
42.34000 1.800
42.36000 1.156
42.38000 -0.711
42.40000 -2.146
42.42000 -1.205
42.44000 1.457
42.46000 2.548
42.48000 2.386
42.50000 1.152
42.52000 2.714
42.54000 -1.897
42.56000 -1.677
42.58000 -1.587
42.60000 0.352
42.62000 -0.551
42.64000 -1.946
42.66000 -1.072
42.68000 0.711
42.70000 4.106
42.72000 3.356
42.74000 3.533
42.76000 4.261
42.78000 2.422
42.80000 2.242
42.82000 0.033
42.84000 1.206
42.86000 1.280
42.88000 0.599
42.90000 1.518
42.92000 -0.045
42.94000 1.621
42.96000 -3.170
42.98000 -3.219
43.00000 -0.953
43.02000 0.180
43.04000 -0.318
43.06000 0.973
43.08000 3.300
43.10000 4.942
43.12000 5.532
43.14000 1.032
43.16000 -0.341
43.18000 -1.745
43.20000 0.898
43.22000 2.552
43.24000 -0.585
43.26000 -0.172
43.28000 1.815
43.30000 2.758
43.32000 3.438
43.34000 3.490
43.36000 3.784
43.38000 -2.598
43.40000 -3.148
43.42000 2.770
43.44000 3.359
43.46000 1.151
43.48000 0.045
43.50000 0.035
43.52000 2.722
43.54000 3.005
43.56000 1.437
43.58000 1.590
43.60000 -0.370
43.62000 0.332
43.64000 0.818
43.66000 3.349
43.68000 4.371
43.70000 5.214
43.72000 3.461
43.74000 2.956
43.76000 4.140
43.78000 2.495
43.80000 -0.261
43.82000 0.382
43.84000 1.647
43.86000 4.482
43.88000 2.568
43.90000 1.206
43.92000 3.133
43.94000 0.816
43.96000 2.120
43.98000 2.500
44.00000 0.999
44.02000 -0.255
44.04000 0.364
44.06000 -1.508
44.08000 -2.706
44.10000 -2.255
44.12000 -1.137
44.14000 -0.215
44.16000 -0.192
44.18000 -2.677
44.20000 -0.359
44.22000 0.515
44.24000 0.357
44.26000 5.019
44.28000 3.364
44.30000 -2.810
44.32000 -3.136
44.34000 -2.617
44.36000 -1.621
44.38000 -0.518
44.40000 -2.243
44.42000 0.190
44.44000 1.926
44.46000 1.466
44.48000 0.668
44.50000 0.364
44.52000 0.154
44.54000 -1.051
44.56000 3.414
44.58000 3.797
44.60000 1.539
44.62000 2.089
44.64000 2.712
44.66000 0.115
44.68000 -0.415
44.70000 -0.515
44.72000 2.662
44.74000 4.094
44.76000 2.721
44.78000 1.403
44.80000 -0.995
44.82000 1.122
44.84000 -0.726
44.86000 -2.814
44.88000 0.521
44.90000 6.541
44.92000 4.727
44.94000 1.024
44.96000 -0.013
44.98000 1.545
45.00000 5.107
45.02000 6.462
45.04000 7.385
45.06000 7.836
45.08000 8.328
45.10000 5.891
45.12000 3.968
45.14000 1.803
45.16000 7.217
45.18000 7.419
45.20000 5.881
45.22000 10.616
45.24000 13.801
45.26000 14.836
45.28000 10.143
45.30000 8.732
45.32000 12.469
45.34000 16.513
45.36000 19.639
45.38000 18.542
45.40000 15.067
45.42000 15.466
45.44000 19.577
45.46000 18.527
45.48000 16.569
45.50000 15.754
45.52000 17.072
45.54000 20.261
45.56000 21.932
45.58000 29.198
45.60000 27.678
45.62000 25.965
45.64000 25.151
45.66000 24.806
45.68000 24.848
45.70000 30.906
45.72000 29.541
45.74000 31.535
45.76000 31.447
45.78000 33.630
45.80000 33.625
45.82000 32.309
45.84000 35.865
45.86000 40.513
45.88000 39.779
45.90000 41.546
45.92000 41.668
45.94000 45.564
45.96000 48.333
45.98000 50.388
46.00000 48.409
46.02000 51.687
46.04000 57.906
46.06000 49.943
46.08000 50.329
46.10000 53.391
46.12000 57.866
46.14000 56.757
46.16000 59.053
46.18000 61.266
46.20000 62.280
46.22000 58.455
46.24000 56.543
46.26000 55.250
46.28000 56.537
46.30000 59.228
46.32000 61.250
46.34000 58.212
46.36000 58.808
46.38000 56.636
46.40000 58.422
46.42000 53.618
46.44000 54.134
46.46000 53.905
46.48000 53.802
46.50000 52.180
46.52000 53.736
46.54000 51.255
46.56000 46.871
46.58000 45.453
46.60000 47.429
46.62000 48.911
46.64000 47.184
46.66000 42.046
46.68000 40.850
46.70000 38.243
46.72000 37.913
46.74000 31.841
46.76000 35.275
46.78000 35.884
46.80000 33.999
46.82000 30.753
46.84000 27.348
46.86000 26.063
46.88000 22.386
46.90000 22.365
46.92000 23.203
46.94000 23.860
46.96000 20.891
46.98000 19.019
47.00000 19.308
47.02000 19.024
47.04000 14.556
47.06000 15.221
47.08000 15.364
47.10000 11.612
47.12000 11.449
47.14000 11.324
47.16000 9.463
47.18000 7.839
47.20000 8.581
47.22000 10.776
47.24000 13.359
47.26000 7.697
47.28000 5.561
47.30000 7.798
47.32000 5.598
47.34000 3.707
47.36000 7.211
47.38000 5.461
47.40000 4.672
47.42000 2.891
47.44000 3.812
47.46000 4.170
47.48000 2.488
47.50000 1.184
47.52000 2.449
47.54000 1.989
47.56000 -1.828
47.58000 -0.009
47.60000 3.803
47.62000 2.011
47.64000 2.066
47.66000 -0.942
47.68000 -0.255
47.70000 -0.376
47.72000 -2.798
47.74000 -1.914
47.76000 -0.806
47.78000 1.313
47.80000 0.051
47.82000 -1.068
47.84000 1.369
47.86000 0.958
47.88000 -0.986
47.90000 -0.076
47.92000 0.043
47.94000 -1.287
47.96000 -1.620
47.98000 -2.661
48.00000 -1.752
48.02000 -1.542
48.04000 -1.771
48.06000 -2.551
48.08000 0.295
48.10000 -0.626
48.12000 0.528
48.14000 -2.715
48.16000 0.092
48.18000 2.226
48.20000 0.962
48.22000 1.671
48.24000 3.082
48.26000 3.737
48.28000 2.210
48.30000 2.779
48.32000 -0.447
48.34000 -2.639
48.36000 -0.585
48.38000 -0.274
48.40000 0.861
48.42000 -0.796
48.44000 -1.674
48.46000 -0.505
48.48000 1.313
48.50000 -0.696
48.52000 1.663
48.54000 -0.082
48.56000 -0.359
48.58000 -1.228
48.60000 -2.184
48.62000 3.673
48.64000 3.329
48.66000 0.273
48.68000 1.284
48.70000 3.079
48.72000 3.327
48.74000 3.402
48.76000 4.101
48.78000 5.564
48.80000 4.093
48.82000 1.734
48.84000 -2.401
48.86000 1.373
48.88000 2.625
48.90000 -0.204
48.92000 -2.621
48.94000 0.762
48.96000 4.356
48.98000 3.439
49.00000 2.790
49.02000 0.721
49.04000 2.609
49.06000 -0.744
49.08000 0.865
49.10000 3.687
49.12000 6.519
49.14000 3.658
49.16000 2.000
49.18000 3.674
49.20000 1.095
49.22000 -0.900
49.24000 -0.113
49.26000 1.920
49.28000 -0.032
49.30000 1.246
49.32000 1.621
49.34000 1.025
49.36000 3.458
49.38000 4.250
49.40000 1.299
49.42000 -0.834
49.44000 -1.926
49.46000 -0.999
49.48000 -1.520
49.50000 -0.497
49.52000 3.987
49.54000 3.004
49.56000 3.159
49.58000 0.746
49.60000 1.650
49.62000 2.792
49.64000 4.330
49.66000 3.946
49.68000 5.181
49.70000 1.701
49.72000 -0.387
49.74000 -2.557
49.76000 -1.403
49.78000 2.395
49.80000 2.108
49.82000 4.316
49.84000 0.539
49.86000 0.606
49.88000 5.774
49.90000 4.048
49.92000 2.302
49.94000 1.411
49.96000 1.387
49.98000 2.228
50.00000 -0.267
50.02000 -2.541
50.04000 1.779
50.06000 2.275
50.08000 0.522
50.10000 1.443
50.12000 2.428
50.14000 4.274
50.16000 -0.376
50.18000 0.284
50.20000 -0.370
50.22000 0.494
50.24000 3.731
50.26000 4.772
50.28000 4.784
50.30000 1.835
50.32000 0.789
50.34000 2.303
50.36000 4.283
50.38000 0.889
50.40000 -1.287
50.42000 0.572
50.44000 4.614
50.46000 4.140
50.48000 -1.537
50.50000 1.927
50.52000 3.806
50.54000 4.100
50.56000 3.937
50.58000 3.907
50.60000 2.441
50.62000 3.394
50.64000 5.245
50.66000 4.653
50.68000 3.427
50.70000 -1.064
50.72000 0.974
50.74000 2.774
50.76000 0.444
50.78000 0.265
50.80000 3.204
50.82000 3.295
50.84000 4.117
50.86000 1.431
50.88000 1.323
50.90000 6.012
50.92000 6.188
50.94000 6.035
50.96000 3.755
50.98000 -0.961
51.00000 -2.513
51.02000 0.519
51.04000 2.372
51.06000 4.321
51.08000 1.660
51.10000 3.732
51.12000 -0.618
51.14000 -0.280
51.16000 0.572
51.18000 1.433
51.20000 3.378
51.22000 6.036
51.24000 4.452
51.26000 3.039
51.28000 0.381
51.30000 1.123
51.32000 -0.420
51.34000 -0.447
51.36000 3.878
51.38000 4.296
51.40000 2.209
51.42000 -0.741
51.44000 2.758
51.46000 1.606
51.48000 1.238
51.50000 4.828
51.52000 6.088
51.54000 2.847
51.56000 3.582
51.58000 -1.399
51.60000 -0.948
51.62000 2.487
51.64000 4.631
51.66000 3.035
51.68000 -0.944
51.70000 1.519
51.72000 1.846
51.74000 -0.346
51.76000 3.274
51.78000 6.266
51.80000 2.330
51.82000 2.322
51.84000 2.655
51.86000 3.021
51.88000 -1.712
51.90000 -2.489
51.92000 1.944
51.94000 1.656
51.96000 -0.641
51.98000 -0.047
52.00000 2.762
52.02000 1.915
52.04000 -2.320
52.06000 -1.210
52.08000 2.573
52.10000 1.719
52.12000 3.253
52.14000 2.688
52.16000 2.489
52.18000 2.393
52.20000 2.052
52.22000 0.596
52.24000 0.583
52.26000 1.071
52.28000 2.263
52.30000 -0.219
52.32000 -2.247
52.34000 0.340
52.36000 4.179
52.38000 8.170
52.40000 4.923
52.42000 1.463
52.44000 3.446
52.46000 4.593
52.48000 1.487
52.50000 2.457
52.52000 1.869
52.54000 3.039
52.56000 -0.566
52.58000 -0.618
52.60000 1.823
52.62000 2.249
52.64000 1.155
52.66000 4.903
52.68000 4.937
52.70000 2.623
52.72000 0.712
52.74000 2.641
52.76000 4.150
52.78000 2.182
52.80000 3.569
52.82000 2.419
52.84000 1.774
52.86000 0.596
52.88000 -2.473
52.90000 0.354
52.92000 1.403
52.94000 -0.571
52.96000 -0.026
52.98000 2.061
53.00000 2.479
53.02000 5.490
53.04000 1.467
53.06000 1.677
53.08000 1.100
53.10000 1.154
53.12000 0.483
53.14000 1.199
53.16000 3.509
53.18000 2.325
53.20000 0.891
53.22000 1.444
53.24000 4.423
53.26000 3.568
53.28000 0.471
53.30000 1.042
53.32000 1.464
53.34000 -0.716
53.36000 -1.754
53.38000 -0.760
53.40000 -0.491
53.42000 1.878
53.44000 0.735
53.46000 1.532
53.48000 1.901
53.50000 3.551
53.52000 6.754
53.54000 2.755
53.56000 -0.720
53.58000 -2.451
53.60000 0.103
53.62000 0.260
53.64000 1.888
53.66000 2.023
53.68000 1.052
53.70000 0.443
53.72000 2.165
53.74000 -0.644
53.76000 -0.629
53.78000 -0.681
53.80000 1.514
53.82000 2.632
53.84000 3.389
53.86000 1.541
53.88000 3.673
53.90000 3.654
53.92000 0.289
53.94000 2.487
53.96000 1.333
53.98000 1.942
54.00000 2.021
54.02000 -0.839
54.04000 -0.085
54.06000 2.757
54.08000 3.011
54.10000 4.633
54.12000 2.956
54.14000 1.294
54.16000 2.622
54.18000 0.007
54.20000 -2.432
54.22000 -0.175
54.24000 1.023
54.26000 3.118
54.28000 5.978
54.30000 3.755
54.32000 1.982
54.34000 2.384
54.36000 -0.688
54.38000 2.592
54.40000 6.251
54.42000 5.330
54.44000 3.242
54.46000 2.556
54.48000 -0.180
54.50000 0.875
54.52000 0.619
54.54000 2.181
54.56000 0.492
54.58000 3.100
54.60000 1.179
54.62000 2.110
54.64000 3.292
54.66000 5.368
54.68000 4.789
54.70000 1.730
54.72000 -2.115
54.74000 -0.525
54.76000 2.922
54.78000 0.191
54.80000 5.125
54.82000 1.497
54.84000 -1.092
54.86000 -1.763
54.88000 1.533
54.90000 1.115
54.92000 2.526
54.94000 4.704
54.96000 1.155
54.98000 2.361
55.00000 4.731
55.02000 2.585
55.04000 5.465
55.06000 4.222
55.08000 6.353
55.10000 7.307
55.12000 5.674
55.14000 1.129
55.16000 -0.961
55.18000 -2.399
55.20000 -0.500
55.22000 2.728
55.24000 3.188
55.26000 0.946
55.28000 4.464
55.30000 2.145
55.32000 2.033
55.34000 3.032
55.36000 3.286
55.38000 1.193
55.40000 -1.806
55.42000 1.264
55.44000 3.795
55.46000 3.114
55.48000 3.634
55.50000 1.006
55.52000 1.596
55.54000 3.059
55.56000 -0.330
55.58000 -1.340
55.60000 2.263
55.62000 3.095
55.64000 -1.169
55.66000 -2.385
55.68000 2.397
55.70000 5.898
55.72000 4.245
55.74000 0.681
55.76000 -1.309
55.78000 1.070
55.80000 2.738
55.82000 7.854
55.84000 4.371
55.86000 1.906
55.88000 0.826
55.90000 -2.239
55.92000 -0.058
55.94000 0.453
55.96000 3.083
55.98000 4.820
56.00000 2.900
56.02000 4.216
56.04000 4.844
56.06000 3.287
56.08000 4.386
56.10000 4.612
56.12000 7.876
56.14000 4.883
56.16000 0.854
56.18000 -1.497
56.20000 -2.317
56.22000 3.101
56.24000 2.847
56.26000 3.005
56.28000 1.546
56.30000 2.761
56.32000 3.665
56.34000 0.396
56.36000 -0.372
56.38000 2.471
56.40000 6.187
56.42000 2.559
56.44000 0.106
56.46000 0.261
56.48000 5.375
56.50000 6.027
56.52000 2.990
56.54000 2.020
56.56000 2.046
56.58000 -2.365
56.60000 -0.035
56.62000 0.815
56.64000 -1.709
56.66000 -1.293
56.68000 5.409
56.70000 2.879
56.72000 1.360
56.74000 0.533
56.76000 0.915
56.78000 0.234
56.80000 -1.699
56.82000 0.994
56.84000 1.813
56.86000 1.639
56.88000 4.526
56.90000 2.153
56.92000 3.817
56.94000 4.272
56.96000 3.425
56.98000 0.522
57.00000 2.895
57.02000 0.144
57.04000 2.412
57.06000 4.163
57.08000 3.437
57.10000 1.251
57.12000 -0.029
57.14000 -0.373
57.16000 1.200
57.18000 3.108
57.20000 2.926
57.22000 4.303
57.24000 4.250
57.26000 0.059
57.28000 5.969
57.30000 4.011
57.32000 0.172
57.34000 -0.436
57.36000 3.915
57.38000 -0.142
57.40000 0.819
57.42000 0.360
57.44000 5.043
57.46000 0.315
57.48000 -0.658
57.50000 1.536
57.52000 3.436
57.54000 4.094
57.56000 5.621
57.58000 2.776
57.60000 1.815
57.62000 4.120
57.64000 3.976
57.66000 -0.552
57.68000 -0.468
57.70000 0.517
57.72000 2.339
57.74000 5.320
57.76000 3.842
57.78000 3.044
57.80000 1.596
57.82000 6.103
57.84000 4.072
57.86000 0.828
57.88000 1.872
57.90000 1.062
57.92000 -2.322
57.94000 -1.056
57.96000 1.440
57.98000 2.665
58.00000 3.382
58.02000 2.432
58.04000 -1.718
58.06000 -1.518
58.08000 3.004
58.10000 4.486
58.12000 3.335
58.14000 3.872
58.16000 1.906
58.18000 3.040
58.20000 3.371
58.22000 -0.488
58.24000 -1.198
58.26000 -2.071
58.28000 -1.471
58.30000 1.539
58.32000 0.533
58.34000 1.780
58.36000 3.984
58.38000 4.960
58.40000 0.103
58.42000 2.568
58.44000 1.271
58.46000 1.776
58.48000 0.239
58.50000 -0.228
58.52000 0.034
58.54000 -0.548
58.56000 -0.185
58.58000 2.245
58.60000 2.211
58.62000 2.501
58.64000 2.131
58.66000 0.449
58.68000 -0.391
58.70000 2.256
58.72000 2.309
58.74000 -0.152
58.76000 -1.641
58.78000 0.322
58.80000 -0.563
58.82000 -0.364
58.84000 0.339
58.86000 2.202
58.88000 1.046
58.90000 4.736
58.92000 2.824
58.94000 0.791
58.96000 0.880
58.98000 3.473
59.00000 5.153
59.02000 1.612
59.04000 3.293
59.06000 3.367
59.08000 1.096
59.10000 4.567
59.12000 6.066
59.14000 3.375
59.16000 2.754
59.18000 0.399
59.20000 -2.301
59.22000 -0.706
59.24000 -0.682
59.26000 1.188
59.28000 1.927
59.30000 1.067
59.32000 4.270
59.34000 4.137
59.36000 3.869
59.38000 3.286
59.40000 1.856
59.42000 3.407
59.44000 2.467
59.46000 2.300
59.48000 1.592
59.50000 -0.567
59.52000 0.562
59.54000 0.974
59.56000 2.162
59.58000 2.488
59.60000 2.881
59.62000 2.267
59.64000 -0.841
59.66000 -1.926
59.68000 2.713
59.70000 2.158
59.72000 3.985
59.74000 3.468
59.76000 -1.009
59.78000 0.260
59.80000 3.859
59.82000 1.085
59.84000 -1.337
59.86000 -2.286
59.88000 -0.233
59.90000 0.090
59.92000 3.894
59.94000 2.631
59.96000 0.390
59.98000 0.707
60.00000 5.304
60.02000 3.897
60.04000 -0.218
60.06000 0.446
60.08000 6.951
60.10000 4.580
60.12000 3.477
60.14000 4.206
60.16000 0.725
60.18000 -0.510
60.20000 0.999
60.22000 -1.771
60.24000 -0.299
60.26000 1.023
60.28000 4.941
60.30000 4.069
60.32000 -0.443
60.34000 0.352
60.36000 3.218
60.38000 2.262
60.40000 3.784
60.42000 -0.139
60.44000 0.220
60.46000 0.245
60.48000 -0.651
60.50000 2.306
60.52000 1.483
60.54000 1.694
60.56000 -2.221
60.58000 0.975
60.60000 5.868
60.62000 6.645
60.64000 5.496
60.66000 3.360
60.68000 2.041
60.70000 3.500
60.72000 0.296
60.74000 -1.876
60.76000 0.925
60.78000 -0.667
60.80000 -0.651
60.82000 0.487
60.84000 0.455
60.86000 -1.938
60.88000 -1.849
60.90000 -1.305
60.92000 1.496
60.94000 -0.336
60.96000 0.513
60.98000 1.111
61.00000 0.698
61.02000 0.668
61.04000 0.123
61.06000 -2.091
61.08000 -2.178
61.10000 -1.672
61.12000 -1.434
61.14000 2.013
61.16000 1.081
61.18000 0.692
61.20000 -1.431
61.22000 1.859
61.24000 5.259
61.26000 0.372
61.28000 0.943
61.30000 0.420
61.32000 -0.355
61.34000 -1.017
61.36000 0.902
61.38000 -2.091
61.40000 -1.171
61.42000 -1.091
61.44000 -1.063
61.46000 -0.727
61.48000 -2.268
61.50000 0.091
61.52000 -0.647
61.54000 -2.133
61.56000 1.819
61.58000 2.914
61.60000 2.694
61.62000 0.874
61.64000 0.671
61.66000 -0.517
61.68000 2.895
61.70000 3.235
61.72000 0.829
61.74000 0.847
61.76000 2.777
61.78000 3.089
61.80000 1.410
61.82000 5.149
61.84000 4.879
61.86000 0.827
61.88000 -0.559
61.90000 0.758
61.92000 -1.058
61.94000 -2.241
61.96000 -1.353
61.98000 -1.178
62.00000 -0.584
62.02000 2.837
62.04000 6.572
62.06000 4.433
62.08000 6.450
62.10000 4.489
62.12000 2.961
62.14000 1.555
62.16000 1.549
62.18000 4.414
62.20000 1.945
62.22000 3.454
62.24000 2.870
62.26000 1.946
62.28000 -1.334
62.30000 0.290
62.32000 2.043
62.34000 1.839
62.36000 2.064
62.38000 -1.763
62.40000 -1.407
62.42000 0.770
62.44000 1.094
62.46000 -0.239
62.48000 1.085
62.50000 -0.275
62.52000 -1.001
62.54000 0.278
62.56000 1.522
62.58000 0.645
62.60000 1.485
62.62000 1.211
62.64000 -0.939
62.66000 -2.044
62.68000 1.773
62.70000 1.326
62.72000 -1.691
62.74000 -1.002
62.76000 -1.083
62.78000 -1.319
62.80000 0.642
62.82000 -2.117
62.84000 -1.293
62.86000 0.955
62.88000 2.485
62.90000 0.628
62.92000 -1.281
62.94000 0.023
62.96000 2.167
62.98000 4.542
63.00000 2.462
63.02000 1.265
63.04000 -0.528
63.06000 -2.113
63.08000 -2.234
63.10000 -1.330
63.12000 1.655
63.14000 0.063
63.16000 -0.870
63.18000 -2.233
63.20000 1.060
63.22000 0.425
63.24000 1.033
63.26000 -0.647
63.28000 -1.995
63.30000 -0.012
63.32000 -0.447
63.34000 1.378
63.36000 0.560
63.38000 -1.036
63.40000 -0.107
63.42000 1.769
63.44000 -1.254
63.46000 -1.274
63.48000 0.404
63.50000 -0.141
63.52000 -0.619
63.54000 -1.191
63.56000 -1.127
63.58000 2.168
63.60000 -0.272
63.62000 -2.032
63.64000 1.835
63.66000 2.949
63.68000 3.710
63.70000 1.813
63.72000 -0.131
63.74000 0.883
63.76000 1.579
63.78000 1.026
63.80000 -0.392
63.82000 -0.739
63.84000 0.305
63.86000 -1.767
63.88000 1.096
63.90000 -1.260
63.92000 -1.291
63.94000 -0.636
63.96000 0.479
63.98000 0.223
64.00000 0.135
64.02000 0.813
64.04000 1.930
64.06000 -0.134
64.08000 0.306
64.10000 1.627
64.12000 2.064
64.14000 1.740
64.16000 1.844
64.18000 -2.220
64.20000 -1.504
64.22000 0.131
64.24000 0.893
64.26000 -0.574
64.28000 2.904
64.30000 5.078
64.32000 2.350
64.34000 1.316
64.36000 -0.460
64.38000 0.561
64.40000 0.221
64.42000 -2.215
64.44000 0.065
64.46000 0.145
64.48000 0.235
64.50000 -0.250
64.52000 -0.451
64.54000 0.850
64.56000 1.588
64.58000 1.698
64.60000 2.251
64.62000 1.179
64.64000 3.172
64.66000 5.233
64.68000 3.131
64.70000 1.317
64.72000 1.512
64.74000 0.212
64.76000 1.520
64.78000 1.562
64.80000 1.756
64.82000 1.721
64.84000 -0.338
64.86000 -1.384
64.88000 -2.209
64.90000 2.181
64.92000 4.455
64.94000 3.471
64.96000 1.944
64.98000 0.928
65.00000 -2.127
65.02000 -0.900
65.04000 1.124
65.06000 1.341
65.08000 0.326
65.10000 0.639
65.12000 2.372
65.14000 -0.114
65.16000 1.674
65.18000 3.126
65.20000 2.314
65.22000 1.541
65.24000 0.092
65.26000 0.136
65.28000 3.153
65.30000 0.799
65.32000 2.042
65.34000 2.394
65.36000 -0.212
65.38000 2.886
65.40000 5.319
65.42000 3.762
65.44000 2.858
65.46000 1.836
65.48000 2.673
65.50000 0.456
65.52000 -0.560
65.54000 -1.543
65.56000 -0.411
65.58000 2.641
65.60000 2.865
65.62000 0.013
65.64000 -0.718
65.66000 0.106
65.68000 1.041
65.70000 0.029
65.72000 -1.246
65.74000 -2.205
65.76000 1.742
65.78000 2.971
65.80000 2.964
65.82000 0.477
65.84000 1.634
65.86000 3.090
65.88000 3.640
65.90000 2.974
65.92000 0.145
65.94000 0.390
65.96000 0.098
65.98000 0.588
66.00000 -0.673
66.02000 -2.208
66.04000 1.934
66.06000 2.017
66.08000 1.345
66.10000 2.636
66.12000 2.459
66.14000 3.481
66.16000 3.450
66.18000 2.939
66.20000 3.406
66.22000 1.777
66.24000 -0.886
66.26000 1.742
66.28000 3.081
66.30000 -0.823
66.32000 1.583
66.34000 5.561
66.36000 5.728
66.38000 2.795
66.40000 2.278
66.42000 1.681
66.44000 2.433
66.46000 3.277
66.48000 3.929
66.50000 3.831
66.52000 1.398
66.54000 1.790
66.56000 4.879
66.58000 5.940
66.60000 4.114
66.62000 3.648
66.64000 6.517
66.66000 6.851
66.68000 5.108
66.70000 3.459
66.72000 2.404
66.74000 5.224
66.76000 6.142
66.78000 5.025
66.80000 5.079
66.82000 7.137
66.84000 6.328
66.86000 7.474
66.88000 9.268
66.90000 8.008
66.92000 6.496
66.94000 8.581
66.96000 7.626
66.98000 8.815
67.00000 7.539
67.02000 9.921
67.04000 8.213
67.06000 9.521
67.08000 9.204
67.10000 7.419
67.12000 8.756
67.14000 9.395
67.16000 9.083
67.18000 11.251
67.20000 12.266
67.22000 12.833
67.24000 12.929
67.26000 13.665
67.28000 12.165
67.30000 9.370
67.32000 9.925
67.34000 8.791
67.36000 8.445
67.38000 10.590
67.40000 14.103
67.42000 13.466
67.44000 12.165
67.46000 10.787
67.48000 9.435
67.50000 9.823
67.52000 10.741
67.54000 9.808
67.56000 8.944
67.58000 11.202
67.60000 10.286
67.62000 6.951
67.64000 9.726
67.66000 10.293
67.68000 5.148
67.70000 4.983
67.72000 6.879
67.74000 9.593
67.76000 7.945
67.78000 9.780
67.80000 8.347
67.82000 7.668
67.84000 5.373
67.86000 4.109
67.88000 3.824
67.90000 4.329
67.92000 5.807
67.94000 5.463
67.96000 3.696
67.98000 2.714
68.00000 2.176
68.02000 3.023
68.04000 3.386
68.06000 3.325
68.08000 3.676
68.10000 2.471
68.12000 3.122
68.14000 3.816
68.16000 2.952
68.18000 1.330
68.20000 1.626
68.22000 4.855
68.24000 1.464
68.26000 2.506
68.28000 0.242
68.30000 0.124
68.32000 1.563
68.34000 1.156
68.36000 2.686
68.38000 0.571
68.40000 1.547
68.42000 1.821
68.44000 0.397
68.46000 0.104
68.48000 -0.018
68.50000 -1.501
68.52000 -2.144
68.54000 -0.372
68.56000 0.771
68.58000 2.352
68.60000 -0.799
68.62000 -0.638
68.64000 -1.361
68.66000 -0.700
68.68000 1.438
68.70000 0.309
68.72000 1.128
68.74000 0.859
68.76000 0.179
68.78000 -1.427
68.80000 -2.118
68.82000 -0.336
68.84000 -1.601
68.86000 -1.878
68.88000 -1.353
68.90000 -0.021
68.92000 1.597
68.94000 2.606
68.96000 1.908
68.98000 -0.106
69.00000 1.005
69.02000 5.451
69.04000 4.509
69.06000 -0.223
69.08000 3.127
69.10000 4.448
69.12000 3.942
69.14000 2.541
69.16000 0.555
69.18000 -2.074
69.20000 0.470
69.22000 1.308
69.24000 0.020
69.26000 0.828
69.28000 -0.347
69.30000 0.006
69.32000 0.614
69.34000 -0.293
69.36000 0.797
69.38000 0.678
69.40000 0.376
69.42000 1.773
69.44000 0.707
69.46000 -1.262
69.48000 1.529
69.50000 2.284
69.52000 1.561
69.54000 -1.380
69.56000 -0.789
69.58000 -2.043
69.60000 -0.963
69.62000 0.772
69.64000 -1.243
69.66000 -1.080
69.68000 1.291
69.70000 1.271
69.72000 1.904
69.74000 1.323
69.76000 1.388
69.78000 0.304
69.80000 2.204
69.82000 4.612
69.84000 2.952
69.86000 2.121
69.88000 3.746
69.90000 3.028
69.92000 2.163
69.94000 0.151
69.96000 -2.035
69.98000 0.332
70.00000 -0.841
70.02000 -0.656
70.04000 1.662
70.06000 -0.898
70.08000 -0.924
70.10000 -0.196
70.12000 -0.503
70.14000 0.623
70.16000 2.693
70.18000 3.283
70.20000 -0.928
70.22000 -0.124
70.24000 -1.440
70.26000 0.805
70.28000 0.458
70.30000 1.266
70.32000 1.951
70.34000 2.426
70.36000 0.990
70.38000 -0.287
70.40000 1.468
70.42000 0.708
70.44000 -0.883
70.46000 0.809
70.48000 0.054
70.50000 1.888
70.52000 1.008
70.54000 -0.235
70.56000 -1.908
70.58000 -0.285
70.60000 -0.832
70.62000 0.283
70.64000 2.842
70.66000 -0.860
70.68000 -0.795
70.70000 1.344
70.72000 0.177
70.74000 0.915
70.76000 1.153
70.78000 1.065
70.80000 3.145
70.82000 3.570
70.84000 2.920
70.86000 2.831
70.88000 2.983
70.90000 0.591
70.92000 -0.017
70.94000 -0.621
70.96000 0.085
70.98000 1.073
71.00000 3.089
71.02000 1.735
71.04000 -0.087
71.06000 1.649
71.08000 1.120
71.10000 -1.985
71.12000 -0.668
71.14000 2.067
71.16000 -1.558
71.18000 -1.671
71.20000 -0.209
71.22000 0.262
71.24000 -1.118
71.26000 0.972
71.28000 1.915
71.30000 2.985
71.32000 0.688
71.34000 1.752
71.36000 2.296
71.38000 3.124
71.40000 0.635
71.42000 -0.596
71.44000 0.922
71.46000 3.247
71.48000 -0.305
71.50000 1.171
71.52000 0.980
71.54000 0.367
71.56000 2.163
71.58000 1.588
71.60000 -0.617
71.62000 -0.731
71.64000 -0.731
71.66000 -1.949
71.68000 1.171
71.70000 1.801
71.72000 1.599
71.74000 -0.912
71.76000 0.987
71.78000 4.097
71.80000 4.182
71.82000 0.325
71.84000 1.624
71.86000 3.462
71.88000 2.199
71.90000 2.557
71.92000 -0.231
71.94000 -0.795
71.96000 0.008
71.98000 1.393
72.00000 3.168
72.02000 2.935
72.04000 3.332
72.06000 2.388
72.08000 1.161
72.10000 1.967
72.12000 0.307
72.14000 -0.675
72.16000 1.053
72.18000 3.988
72.20000 3.864
72.22000 3.414
72.24000 4.038
72.26000 1.863
72.28000 0.217
72.30000 -1.753
72.32000 1.097
72.34000 1.393
72.36000 -1.920
72.38000 2.230
72.40000 1.456
72.42000 -0.430
72.44000 1.387
72.46000 1.853
72.48000 1.692
72.50000 1.145
72.52000 3.614
72.54000 6.041
72.56000 2.160
72.58000 0.737
72.60000 0.704
72.62000 0.953
72.64000 -1.253
72.66000 -0.582
72.68000 -0.243
72.70000 1.010
72.72000 0.678
72.74000 1.638
72.76000 2.431
72.78000 1.661
72.80000 1.416
72.82000 2.541
72.84000 0.943
72.86000 -1.107
72.88000 -1.930
72.90000 -0.143
72.92000 0.072
72.94000 -0.757
72.96000 2.810
72.98000 3.280
73.00000 -0.188
73.02000 1.437
73.04000 0.849
73.06000 -0.577
73.08000 2.508
73.10000 3.270
73.12000 2.957
73.14000 -0.760
73.16000 -0.377
73.18000 0.271
73.20000 3.371
73.22000 1.367
73.24000 -1.778
73.26000 1.286
73.28000 1.279
73.30000 3.368
73.32000 1.057
73.34000 -1.925
73.36000 1.076
73.38000 1.443
73.40000 0.789
73.42000 -1.460
73.44000 2.234
73.46000 5.843
73.48000 2.243
73.50000 -0.260
73.52000 -1.803
73.54000 1.216
73.56000 1.202
73.58000 0.866
73.60000 2.675
73.62000 2.041
73.64000 2.367
73.66000 0.395
73.68000 1.285
73.70000 0.534
73.72000 0.115
73.74000 -0.701
73.76000 1.179
73.78000 1.809
73.80000 0.725
73.82000 -0.350
73.84000 -1.686
73.86000 0.346
73.88000 0.881
73.90000 2.302
73.92000 -0.781
73.94000 -1.907
73.96000 0.203
73.98000 3.390
74.00000 4.332
74.02000 1.122
74.04000 3.069
74.06000 2.240
74.08000 0.478
74.10000 -0.135
74.12000 -0.526
74.14000 0.156
74.16000 3.482
74.18000 0.562
74.20000 -0.595
74.22000 1.657
74.24000 2.276
74.26000 2.219
74.28000 0.471
74.30000 3.219
74.32000 7.590
74.34000 6.428
74.36000 2.968
74.38000 3.034
74.40000 -0.818
74.42000 2.138
74.44000 3.390
74.46000 2.007
74.48000 -0.064
74.50000 3.083
74.52000 0.105
74.54000 1.144
74.56000 3.470
74.58000 0.944
74.60000 0.574
74.62000 0.294
74.64000 1.164
74.66000 1.385
74.68000 3.333
74.70000 1.192
74.72000 -0.659
74.74000 0.017
74.76000 0.471
74.78000 0.708
74.80000 2.475
74.82000 1.591
74.84000 0.616
74.86000 2.719
74.88000 0.728
74.90000 0.520
74.92000 -0.498
74.94000 3.248
74.96000 1.933
74.98000 -1.880
75.00000 -0.079
75.02000 0.320
75.04000 0.997
75.06000 1.390
75.08000 0.081
75.10000 1.807
75.12000 -0.457
75.14000 -0.084
75.16000 1.284
75.18000 -0.409
75.20000 0.470
75.22000 1.847
75.24000 1.396
75.26000 3.813
75.28000 2.023
75.30000 1.081
75.32000 2.994
75.34000 2.645
75.36000 -1.105
75.38000 1.274
75.40000 1.012
75.42000 0.638
75.44000 0.696
75.46000 1.822
75.48000 2.495
75.50000 0.052
75.52000 0.119
75.54000 -1.337
75.56000 -1.812
75.58000 -0.451
75.60000 -0.573
75.62000 -0.405
75.64000 3.190
75.66000 1.661
75.68000 1.735
75.70000 2.841
75.72000 0.819
75.74000 3.040
75.76000 1.355
75.78000 2.295
75.80000 0.275
75.82000 1.384
75.84000 2.314
75.86000 2.888
75.88000 -0.171
75.90000 1.315
75.92000 2.224
75.94000 0.759
75.96000 -1.912
75.98000 -1.001
76.00000 -0.783
76.02000 0.068
76.04000 -1.397
76.06000 1.756
76.08000 0.082
76.10000 4.525
76.12000 1.929
76.14000 0.690
76.16000 -0.307
76.18000 -0.169
76.20000 0.817
76.22000 1.451
76.24000 3.661
76.26000 4.268
76.28000 3.840
76.30000 1.410
76.32000 2.294
76.34000 2.683
76.36000 3.070
76.38000 2.792
76.40000 1.211
76.42000 -0.652
76.44000 -1.150
76.46000 -1.177
76.48000 1.537
76.50000 1.389
76.52000 1.445
76.54000 1.863
76.56000 0.578
76.58000 0.419
76.60000 2.930
76.62000 1.892
76.64000 4.387
76.66000 3.787
76.68000 1.756
76.70000 2.676
76.72000 2.106
76.74000 2.806
76.76000 -0.140
76.78000 2.927
76.80000 2.061
76.82000 2.087
76.84000 2.485
76.86000 1.829
76.88000 0.585
76.90000 3.331
76.92000 3.661
76.94000 2.445
76.96000 -0.504
76.98000 2.038
77.00000 5.122
77.02000 4.471
77.04000 6.532
77.06000 2.256
77.08000 -1.876
77.10000 -1.708
77.12000 0.436
77.14000 6.210
77.16000 4.349
77.18000 4.363
77.20000 5.497
77.22000 6.270
77.24000 4.047
77.26000 4.221
77.28000 1.889
77.30000 -0.059
77.32000 -0.255
77.34000 1.210
77.36000 2.683
77.38000 4.017
77.40000 6.185
77.42000 5.240
77.44000 3.136
77.46000 2.802
77.48000 1.549
77.50000 2.437
77.52000 2.870
77.54000 0.664
77.56000 2.728
77.58000 4.120
77.60000 4.478
77.62000 4.155
77.64000 4.307
77.66000 -1.154
77.68000 0.408
77.70000 4.605
77.72000 1.493
77.74000 0.562
77.76000 0.434
77.78000 0.224
77.80000 1.663
77.82000 1.808
77.84000 1.080
77.86000 2.589
77.88000 3.360
77.90000 3.007
77.92000 3.223
77.94000 4.343
77.96000 3.564
77.98000 4.188
78.00000 5.512
78.02000 1.069
78.04000 3.733
78.06000 1.386
78.08000 1.809
78.10000 0.872
78.12000 1.245
78.14000 1.209
78.16000 -0.450
78.18000 -1.962
78.20000 2.498
78.22000 4.517
78.24000 2.406
78.26000 4.011
78.28000 4.670
78.30000 1.255
78.32000 0.410
78.34000 0.772
78.36000 2.674
78.38000 1.113
78.40000 -0.068
78.42000 -1.202
78.44000 1.124
78.46000 1.883
78.48000 1.346
78.50000 0.217
78.52000 3.493
78.54000 3.642
78.56000 1.365
78.58000 -0.080
78.60000 -0.456
78.62000 3.534
78.64000 5.116
78.66000 2.991
78.68000 3.117
78.70000 4.025
78.72000 3.031
78.74000 -0.461
78.76000 2.968
78.78000 2.031
78.80000 0.624
78.82000 4.000
78.84000 2.628
78.86000 1.828
78.88000 1.643
78.90000 -1.962
78.92000 2.962
78.94000 4.851
78.96000 4.522
78.98000 0.958
79.00000 2.341
79.02000 2.433
79.04000 3.166
79.06000 5.787
79.08000 4.632
79.10000 4.234
79.12000 1.022
79.14000 -0.314
79.16000 2.190
79.18000 4.348
79.20000 6.423
79.22000 4.183
79.24000 1.090
79.26000 -0.947
79.28000 1.400
79.30000 -0.645
79.32000 1.960
79.34000 0.792
79.36000 0.190
79.38000 -0.123
79.40000 1.427
79.42000 -0.054
79.44000 2.072
79.46000 1.205
79.48000 -1.445
79.50000 -0.758
79.52000 1.279
79.54000 -0.915
79.56000 1.949
79.58000 0.813
79.60000 2.405
79.62000 2.125
79.64000 -1.526
79.66000 0.659
79.68000 1.952
79.70000 -1.607
79.72000 1.436
79.74000 1.831
79.76000 -2.067
79.78000 -0.956
79.80000 0.680
79.82000 0.784
79.84000 -0.496
79.86000 0.652
79.88000 2.908
79.90000 2.144
79.92000 -0.423
79.94000 3.384
79.96000 3.853
79.98000 5.650
80.00000 4.773
80.02000 2.814
80.04000 3.319
80.06000 2.972
80.08000 4.433
80.10000 4.218
80.12000 3.623
80.14000 0.606
80.16000 2.786
80.18000 1.010
80.20000 1.691
80.22000 5.513
80.24000 3.240
80.26000 4.281
80.28000 5.077
80.30000 5.149
80.32000 8.553
80.34000 6.113
80.36000 6.156
80.38000 6.588
80.40000 8.430
80.42000 5.171
80.44000 5.423
80.46000 8.031
80.48000 7.563
80.50000 6.477
80.52000 7.615
80.54000 6.637
80.56000 5.668
80.58000 6.656
80.60000 8.563
80.62000 7.568
80.64000 8.373
80.66000 7.501
80.68000 9.493
80.70000 9.175
80.72000 5.349
80.74000 9.481
80.76000 13.326
80.78000 13.352
80.80000 11.585
80.82000 13.556
80.84000 14.192
80.86000 9.558
80.88000 13.280
80.90000 14.952
80.92000 13.379
80.94000 14.033
80.96000 16.346
80.98000 13.849
81.00000 13.726
81.02000 14.440
81.04000 14.949
81.06000 15.651
81.08000 14.260
81.10000 16.969
81.12000 16.431
81.14000 14.354
81.16000 16.568
81.18000 20.509
81.20000 17.601
81.22000 14.250
81.24000 13.359
81.26000 15.877
81.28000 12.909
81.30000 13.491
81.32000 12.550
81.34000 12.437
81.36000 14.793
81.38000 17.926
81.40000 15.706
81.42000 19.579
81.44000 19.920
81.46000 19.510
81.48000 16.682
81.50000 16.821
81.52000 16.690
81.54000 18.168
81.56000 16.924
81.58000 15.061
81.60000 15.380
81.62000 14.104
81.64000 15.051
81.66000 14.987
81.68000 11.029
81.70000 15.753
81.72000 17.137
81.74000 13.925
81.76000 12.872
81.78000 13.172
81.80000 11.952
81.82000 11.879
81.84000 13.791
81.86000 17.420
81.88000 13.635
81.90000 12.971
81.92000 14.122
81.94000 10.764
81.96000 7.752
81.98000 7.691
82.00000 9.466
82.02000 9.526
82.04000 11.552
82.06000 11.595
82.08000 7.574
82.10000 5.371
82.12000 4.193
82.14000 6.354
82.16000 6.787
82.18000 6.356
82.20000 6.150
82.22000 8.057
82.24000 4.378
82.26000 2.725
82.28000 2.703
82.30000 4.429
82.32000 4.447
82.34000 4.356
82.36000 1.907
82.38000 4.065
82.40000 2.078
82.42000 6.764
82.44000 6.020
82.46000 3.385
82.48000 4.463
82.50000 6.208
82.52000 3.937
82.54000 1.986
82.56000 0.420
82.58000 2.184
82.60000 3.000
82.62000 0.057
82.64000 -1.538
82.66000 1.841
82.68000 -0.065
82.70000 2.331
82.72000 3.737
82.74000 0.794
82.76000 -1.754
82.78000 0.863
82.80000 -2.094
82.82000 0.636
82.84000 4.534
82.86000 6.436
82.88000 1.074
82.90000 -1.931
82.92000 1.268
82.94000 4.200
82.96000 3.362
82.98000 3.784
83.00000 3.462
83.02000 4.070
83.04000 1.022
83.06000 -2.069
83.08000 -1.756
83.10000 -0.585
83.12000 4.629
83.14000 2.134
83.16000 1.173
83.18000 4.008
83.20000 3.385
83.22000 2.489
83.24000 1.582
83.26000 1.066
83.28000 1.269
83.30000 1.446
83.32000 0.915
83.34000 2.762
83.36000 2.642
83.38000 -0.330
83.40000 -2.064
83.42000 2.593
83.44000 1.950
83.46000 0.943
83.48000 0.100
83.50000 1.207
83.52000 2.613
83.54000 3.720
83.56000 3.983
83.58000 2.366
83.60000 2.699
83.62000 1.824
83.64000 2.244
83.66000 4.134
83.68000 6.917
83.70000 4.042
83.72000 1.633
83.74000 2.128
83.76000 2.749
83.78000 2.247
83.80000 3.855
83.82000 3.334
83.84000 2.312
83.86000 3.818
83.88000 3.017
83.90000 1.157
83.92000 0.033
83.94000 1.357
83.96000 -0.647
83.98000 -1.304
84.00000 -2.071
84.02000 1.868
84.04000 4.347
84.06000 4.322
84.08000 2.691
84.10000 1.653
84.12000 2.267
84.14000 2.516
84.16000 1.959
84.18000 2.847
84.20000 7.939
84.22000 6.418
84.24000 4.659
84.26000 6.671
84.28000 5.949
84.30000 6.246
84.32000 5.956
84.34000 1.922
84.36000 2.537
84.38000 5.368
84.40000 8.859
84.42000 7.947
84.44000 8.615
84.46000 11.300
84.48000 9.843
84.50000 10.221
84.52000 9.732
84.54000 9.237
84.56000 10.868
84.58000 13.268
84.60000 12.725
84.62000 12.830
84.64000 11.353
84.66000 7.473
84.68000 10.087
84.70000 13.385
84.72000 13.975
84.74000 13.205
84.76000 15.387
84.78000 14.236
84.80000 12.872
84.82000 10.428
84.84000 10.498
84.86000 12.661
84.88000 14.011
84.90000 16.033
84.92000 17.496
84.94000 15.327
84.96000 17.762
84.98000 16.816
85.00000 16.630
85.02000 17.055
85.04000 19.280
85.06000 16.651
85.08000 19.892
85.10000 20.648
85.12000 18.582
85.14000 19.371
85.16000 17.164
85.18000 19.819
85.20000 18.689
85.22000 16.778
85.24000 17.146
85.26000 18.066
85.28000 17.628
85.30000 20.385
85.32000 19.015
85.34000 18.724
85.36000 18.554
85.38000 20.378
85.40000 16.568
85.42000 20.161
85.44000 16.375
85.46000 14.573
85.48000 18.093
85.50000 17.103
85.52000 16.662
85.54000 17.758
85.56000 18.611
85.58000 18.272
85.60000 16.484
85.62000 12.540
85.64000 14.135
85.66000 17.429
85.68000 17.994
85.70000 15.265
85.72000 13.738
85.74000 13.609
85.76000 12.446
85.78000 16.267
85.80000 11.549
85.82000 9.434
85.84000 11.836
85.86000 12.444
85.88000 9.005
85.90000 8.836
85.92000 10.096
85.94000 9.024
85.96000 8.769
85.98000 7.514
86.00000 7.531
86.02000 8.766
86.04000 9.285
86.06000 6.998
86.08000 7.177
86.10000 6.689
86.12000 4.544
86.14000 4.147
86.16000 4.657
86.18000 3.329
86.20000 5.156
86.22000 4.929
86.24000 4.387
86.26000 3.292
86.28000 3.349
86.30000 1.094
86.32000 1.427
86.34000 4.621
86.36000 3.362
86.38000 2.926
86.40000 6.081
86.42000 7.658
86.44000 3.274
86.46000 1.003
86.48000 1.461
86.50000 3.106
86.52000 2.652
86.54000 0.431
86.56000 0.627
86.58000 2.581
86.60000 0.287
86.62000 -1.898
86.64000 -1.062
86.66000 3.907
86.68000 4.109
86.70000 2.080
86.72000 4.175
86.74000 3.128
86.76000 3.271
86.78000 0.600
86.80000 3.266
86.82000 4.803
86.84000 2.820
86.86000 2.143
86.88000 2.978
86.90000 0.829
86.92000 0.276
86.94000 -0.505
86.96000 1.225
86.98000 0.456
87.00000 3.337
87.02000 -0.147
87.04000 2.742
87.06000 3.997
87.08000 1.632
87.10000 2.502
87.12000 1.216
87.14000 2.007
87.16000 1.608
87.18000 2.088
87.20000 2.410
87.22000 -0.124
87.24000 2.359
87.26000 0.738
87.28000 0.994
87.30000 2.644
87.32000 1.029
87.34000 1.080
87.36000 3.291
87.38000 0.562
87.40000 -1.814
87.42000 0.105
87.44000 1.561
87.46000 2.071
87.48000 3.067
87.50000 -0.723
87.52000 0.225
87.54000 1.570
87.56000 1.894
87.58000 0.261
87.60000 2.635
87.62000 1.969
87.64000 1.622
87.66000 2.269
87.68000 0.224
87.70000 -1.808
87.72000 1.557
87.74000 2.990
87.76000 3.318
87.78000 2.615
87.80000 3.118
87.82000 3.757
87.84000 2.549
87.86000 2.322
87.88000 6.603
87.90000 5.720
87.92000 -0.069
87.94000 -0.739
87.96000 -0.823
87.98000 1.175
88.00000 3.576
88.02000 4.034
88.04000 3.792
88.06000 1.771
88.08000 0.890
88.10000 3.075
88.12000 3.415
88.14000 0.737
88.16000 0.284
88.18000 -1.802
88.20000 0.312
88.22000 4.479
88.24000 4.119
88.26000 -0.210
88.28000 -0.954
88.30000 -0.997
88.32000 0.330
88.34000 1.360
88.36000 1.185
88.38000 -0.013
88.40000 0.343
88.42000 1.956
88.44000 0.999
88.46000 0.302
88.48000 -0.964
88.50000 1.809
88.52000 2.496
88.54000 1.401
88.56000 1.232
88.58000 -0.151
88.60000 0.508
88.62000 2.124
88.64000 2.391
88.66000 1.184
88.68000 0.538
88.70000 -0.948
88.72000 -0.224
88.74000 1.240
88.76000 2.445
88.78000 -1.316
88.80000 -1.785
88.82000 -0.274
88.84000 2.209
88.86000 0.760
88.88000 1.964
88.90000 -0.766
88.92000 0.708
88.94000 1.269
88.96000 2.012
88.98000 -0.113
89.00000 0.165
89.02000 1.055
89.04000 2.600
89.06000 2.946
89.08000 3.239
89.10000 3.417
89.12000 0.059
89.14000 0.487
89.16000 -0.302
89.18000 0.508
89.20000 1.416
89.22000 1.935
89.24000 0.040
89.26000 1.358
89.28000 1.595
89.30000 1.654
89.32000 1.553
89.34000 -0.608
89.36000 1.685
89.38000 1.662
89.40000 4.562
89.42000 4.334
89.44000 1.585
89.46000 2.607
89.48000 3.088
89.50000 4.364
89.52000 4.167
89.54000 2.504
89.56000 1.718
89.58000 2.501
89.60000 -0.007
89.62000 -1.240
89.64000 -1.777
89.66000 -0.656
89.68000 1.090
89.70000 1.078
89.72000 1.491
89.74000 2.095
89.76000 2.444
89.78000 4.589
89.80000 2.279
89.82000 1.937
89.84000 2.005
89.86000 5.102
89.88000 2.992
89.90000 1.968
89.92000 1.850
89.94000 2.990
89.96000 3.598
89.98000 2.898
90.00000 2.948
90.02000 3.684
90.04000 1.423
90.06000 0.048
90.08000 1.376
90.10000 3.351
90.12000 4.136
90.14000 1.701
90.16000 4.201
90.18000 0.493
90.20000 2.453
90.22000 0.213
90.24000 -1.088
90.26000 0.747
90.28000 2.382
90.30000 2.531
90.32000 -1.126
90.34000 0.246
90.36000 3.193
90.38000 0.419
90.40000 1.411
90.42000 2.418
90.44000 1.989
90.46000 1.550
90.48000 0.755
90.50000 1.715
90.52000 2.997
90.54000 4.188
90.56000 2.985
90.58000 3.184
90.60000 1.149
90.62000 -1.774
90.64000 -0.222
90.66000 -0.214
90.68000 -0.627
90.70000 0.125
90.72000 2.611
90.74000 4.040
90.76000 1.450
90.78000 2.896
90.80000 2.815
90.82000 2.274
90.84000 1.345
90.86000 -0.157
90.88000 -0.513
90.90000 1.103
90.92000 -0.030
90.94000 2.296
90.96000 4.218
90.98000 5.982
91.00000 5.667
91.02000 -0.372
91.04000 1.688
91.06000 2.322
91.08000 0.940
91.10000 0.233
91.12000 -0.221
91.14000 0.932
91.16000 1.181
91.18000 1.752
91.20000 2.453
91.22000 1.971
91.24000 0.884
91.26000 -1.781
91.28000 1.625
91.30000 -0.092
91.32000 1.173
91.34000 -0.413
91.36000 2.820
91.38000 4.291
91.40000 1.794
91.42000 4.249
91.44000 4.653
91.46000 0.073
91.48000 0.797
91.50000 6.437
91.52000 2.331
91.54000 2.091
91.56000 -0.097
91.58000 -0.086
91.60000 -1.770
91.62000 0.030
91.64000 1.404
91.66000 4.165
91.68000 -0.008
91.70000 1.300
91.72000 2.428
91.74000 4.047
91.76000 2.507
91.78000 4.210
91.80000 1.368
91.82000 3.014
91.84000 2.130
91.86000 -0.382
91.88000 0.640
91.90000 1.754
91.92000 3.080
91.94000 4.436
91.96000 4.469
91.98000 5.385
92.00000 2.519
92.02000 1.373
92.04000 0.482
92.06000 0.493
92.08000 3.487
92.10000 4.305
92.12000 -0.013
92.14000 1.616
92.16000 1.751
92.18000 4.287
92.20000 5.503
92.22000 4.061
92.24000 2.611
92.26000 2.321
92.28000 2.766
92.30000 1.233
92.32000 1.213
92.34000 2.725
92.36000 3.950
92.38000 6.881
92.40000 2.245
92.42000 0.752
92.44000 1.377
92.46000 3.872
92.48000 2.056
92.50000 3.421
92.52000 2.190
92.54000 1.013
92.56000 2.429
92.58000 -0.206
92.60000 0.070
92.62000 1.846
92.64000 2.923
92.66000 3.785
92.68000 6.700
92.70000 8.300
92.72000 5.151
92.74000 2.588
92.76000 2.408
92.78000 0.518
92.80000 2.103
92.82000 4.201
92.84000 2.791
92.86000 5.556
92.88000 2.700
92.90000 1.263
92.92000 2.385
92.94000 2.567
92.96000 2.259
92.98000 4.603
93.00000 5.680
93.02000 3.215
93.04000 3.517
93.06000 6.874
93.08000 7.561
93.10000 4.208
93.12000 5.164
93.14000 4.560
93.16000 2.266
93.18000 3.868
93.20000 4.497
93.22000 5.984
93.24000 5.320
93.26000 4.441
93.28000 6.751
93.30000 8.088
93.32000 3.486
93.34000 -1.722
93.36000 3.673
93.38000 7.368
93.40000 3.234
93.42000 6.446
93.44000 8.269
93.46000 3.460
93.48000 1.731
93.50000 1.450
93.52000 1.798
93.54000 1.885
93.56000 2.665
93.58000 3.371
93.60000 5.402
93.62000 5.435
93.64000 3.940
93.66000 2.394
93.68000 1.985
93.70000 3.078
93.72000 3.218
93.74000 5.223
93.76000 4.574
93.78000 2.098
93.80000 1.893
93.82000 -0.182
93.84000 0.798
93.86000 3.787
93.88000 2.072
93.90000 3.325
93.92000 2.762
93.94000 0.846
93.96000 0.537
93.98000 5.251
94.00000 4.988
94.02000 3.795
94.04000 2.600
94.06000 -0.278
94.08000 -0.615
94.10000 2.212
94.12000 2.246
94.14000 0.702
94.16000 0.548
94.18000 -0.698
94.20000 0.906
94.22000 -1.103
94.24000 -0.985
94.26000 4.695
94.28000 2.764
94.30000 1.535
94.32000 1.612
94.34000 1.066
94.36000 1.472
94.38000 2.109
94.40000 1.183
94.42000 4.923
94.44000 -0.781
94.46000 -1.826
94.48000 -0.516
94.50000 0.213
94.52000 0.152
94.54000 3.231
94.56000 1.499
94.58000 2.868
94.60000 -1.512
94.62000 -0.395
94.64000 1.271
94.66000 1.624
94.68000 -0.081
94.70000 0.121
94.72000 1.570
94.74000 0.966
94.76000 3.961
94.78000 4.445
94.80000 2.593
94.82000 2.175
94.84000 1.748
94.86000 0.483
94.88000 2.186
94.90000 2.511
94.92000 -1.203
94.94000 2.414
94.96000 3.797
94.98000 2.196
95.00000 0.405
95.02000 -0.043
95.04000 -1.834
95.06000 -0.562
95.08000 -1.129
95.10000 -0.079
95.12000 1.087
95.14000 2.126
95.16000 -1.759
95.18000 -1.832
95.20000 3.327
95.22000 2.537
95.24000 1.695
95.26000 2.444
95.28000 -1.631
95.30000 -0.760
95.32000 3.463
95.34000 2.859
95.36000 1.794
95.38000 5.119
95.40000 2.863
95.42000 1.358
95.44000 1.938
95.46000 2.996
95.48000 1.826
95.50000 0.602
95.52000 2.345
95.54000 2.147
95.56000 2.082
95.58000 1.806
95.60000 2.487
95.62000 -1.573
95.64000 -0.631
95.66000 -0.340
95.68000 4.475
95.70000 2.605
95.72000 2.219
95.74000 2.180
95.76000 0.806
95.78000 1.436
95.80000 1.864
95.82000 2.080
95.84000 2.569
95.86000 2.986
95.88000 0.919
95.90000 2.971
95.92000 2.335
95.94000 2.339
95.96000 3.073
95.98000 3.131
96.00000 5.911
96.02000 6.094
96.04000 6.852
96.06000 2.956
96.08000 -0.442
96.10000 3.606
96.12000 2.231
96.14000 5.182
96.16000 3.293
96.18000 2.402
96.20000 2.875
96.22000 3.986
96.24000 3.162
96.26000 4.615
96.28000 0.811
96.30000 5.034
96.32000 5.755
96.34000 0.492
96.36000 4.290
96.38000 5.373
96.40000 3.970
96.42000 3.896
96.44000 4.934
96.46000 3.416
96.48000 -1.728
96.50000 3.059
96.52000 5.414
96.54000 3.950
96.56000 1.555
96.58000 4.146
96.60000 4.694
96.62000 2.891
96.64000 4.952
96.66000 7.266
96.68000 9.187
96.70000 7.579
96.72000 6.410
96.74000 5.868
96.76000 1.527
96.78000 3.901
96.80000 7.804
96.82000 7.737
96.84000 3.577
96.86000 -1.749
96.88000 0.957
96.90000 3.488
96.92000 4.938
96.94000 4.740
96.96000 4.573
96.98000 5.476
97.00000 2.459
97.02000 1.913
97.04000 6.085
97.06000 9.367
97.08000 5.852
97.10000 3.418
97.12000 1.163
97.14000 1.505
97.16000 5.403
97.18000 2.324
97.20000 1.625
97.22000 1.785
97.24000 4.450
97.26000 4.961
97.28000 1.577
97.30000 -0.323
97.32000 1.128
97.34000 4.483
97.36000 5.927
97.38000 0.110
97.40000 0.321
97.42000 3.597
97.44000 0.948
97.46000 1.768
97.48000 -1.729
97.50000 -1.489
97.52000 1.723
97.54000 3.502
97.56000 1.436
97.58000 1.379
97.60000 3.663
97.62000 3.138
97.64000 0.929
97.66000 2.336
97.68000 3.837
97.70000 3.355
97.72000 1.321
97.74000 1.907
97.76000 1.548
97.78000 -0.247
97.80000 0.695
97.82000 -1.778
97.84000 -1.703
97.86000 0.443
97.88000 -0.130
97.90000 1.414
97.92000 4.864
97.94000 4.835
97.96000 2.590
97.98000 -1.211
98.00000 2.950
98.02000 5.267
98.04000 6.240
98.06000 5.228
98.08000 2.128
98.10000 3.865
98.12000 3.767
98.14000 3.335
98.16000 0.503
98.18000 3.666
98.20000 8.534
98.22000 2.132
98.24000 1.425
98.26000 3.704
98.28000 3.371
98.30000 5.786
98.32000 5.434
98.34000 7.068
98.36000 3.273
98.38000 1.523
98.40000 2.141
98.42000 2.527
98.44000 1.958
98.46000 2.752
98.48000 -0.059
98.50000 -1.228
98.52000 2.851
98.54000 4.688
98.56000 3.217
98.58000 1.300
98.60000 2.224
98.62000 2.117
98.64000 4.066
98.66000 2.828
98.68000 0.562
98.70000 2.571
98.72000 4.652
98.74000 4.792
98.76000 6.776
98.78000 4.066
98.80000 7.597
98.82000 8.415
98.84000 1.303
98.86000 0.843
98.88000 4.091
98.90000 4.794
98.92000 1.318
98.94000 -1.446
98.96000 -1.749
98.98000 -0.868
99.00000 1.075
99.02000 3.044
99.04000 -0.249
99.06000 -0.778
99.08000 2.620
99.10000 2.268
99.12000 2.849
99.14000 4.899
99.16000 3.506
99.18000 10.207
99.20000 7.733
99.22000 5.135
99.24000 9.913
99.26000 8.051
99.28000 7.290
99.30000 6.939
99.32000 3.737
99.34000 -1.729
99.36000 4.186
99.38000 4.632
99.40000 3.459
99.42000 5.962
99.44000 6.864
99.46000 10.695
99.48000 4.796
99.50000 3.081
99.52000 0.346
99.54000 4.113
99.56000 1.077
99.58000 -1.759
99.60000 7.207
99.62000 10.027
99.64000 3.277
99.66000 4.795
99.68000 1.163
99.70000 4.563
99.72000 7.147
99.74000 5.597
99.76000 3.022
99.78000 2.094
99.80000 7.226
99.82000 3.911
99.84000 0.313
99.86000 3.394
99.88000 -1.811
99.90000 0.378
99.92000 9.594
99.94000 -0.403
99.96000 1.218
99.98000 0.000
