'Id: "0011388" Comment: "Integrate frame 0011388_Au-Ir-Rh_Rh-rich_XRD-Mapping-064-0000.gfrmwith cursor Wedge Cursor #5" Operator: "B?rgel" Anode: "Cu" Wavelength: "1.5406" Scantype: "2Theta (TwoTheta)" TimePerStep: "1" X: "-4.5" Y: "-22.5" Z: "5.95" 
10.00000 0.000
10.02000 -4.412
10.04000 -4.366
10.06000 2.852
10.08000 2.565
10.10000 2.806
10.12000 -4.330
10.14000 9.870
10.16000 9.314
10.18000 0.722
10.20000 8.113
10.22000 21.308
10.24000 22.885
10.26000 3.015
10.28000 4.830
10.30000 7.254
10.32000 21.310
10.34000 15.754
10.36000 15.021
10.38000 9.843
10.40000 12.635
10.42000 33.276
10.44000 29.479
10.46000 11.490
10.48000 0.114
10.50000 6.719
10.52000 2.134
10.54000 -1.444
10.56000 -4.212
10.58000 5.518
10.60000 23.527
10.62000 30.886
10.64000 30.997
10.66000 23.470
10.68000 13.886
10.70000 13.597
10.72000 22.487
10.74000 11.823
10.76000 19.530
10.78000 18.664
10.80000 10.275
10.82000 8.571
10.84000 -0.129
10.86000 7.393
10.88000 20.189
10.90000 16.487
10.92000 11.530
10.94000 28.217
10.96000 27.195
10.98000 13.259
11.00000 11.912
11.02000 -4.259
11.04000 -0.924
11.06000 7.351
11.08000 13.307
11.10000 12.368
11.12000 1.634
11.14000 1.067
11.16000 -2.390
11.18000 15.917
11.20000 7.877
11.22000 14.385
11.24000 23.277
11.26000 31.375
11.28000 16.880
11.30000 13.036
11.32000 9.929
11.34000 7.229
11.36000 1.748
11.38000 1.297
11.40000 19.793
11.42000 24.510
11.44000 14.828
11.46000 8.697
11.48000 14.498
11.50000 6.918
11.52000 14.900
11.54000 6.818
11.56000 4.841
11.58000 9.563
11.60000 4.801
11.62000 2.105
11.64000 8.693
11.66000 13.774
11.68000 10.253
11.70000 6.531
11.72000 6.019
11.74000 13.894
11.76000 20.497
11.78000 16.781
11.80000 16.473
11.82000 18.290
11.84000 17.943
11.86000 13.042
11.88000 14.402
11.90000 11.871
11.92000 14.397
11.94000 17.045
11.96000 10.156
11.98000 2.065
12.00000 11.500
12.02000 8.587
12.04000 13.923
12.06000 4.822
12.08000 1.590
12.10000 10.419
12.12000 11.457
12.14000 8.447
12.16000 7.726
12.18000 21.605
12.20000 14.720
12.22000 11.587
12.24000 17.009
12.26000 5.997
12.28000 9.083
12.30000 10.528
12.32000 10.030
12.34000 5.625
12.36000 1.699
12.38000 -2.744
12.40000 5.748
12.42000 4.408
12.44000 5.763
12.46000 24.360
12.48000 25.159
12.50000 9.877
12.52000 10.572
12.54000 21.882
12.56000 13.915
12.58000 7.457
12.60000 18.343
12.62000 18.471
12.64000 21.457
12.66000 24.253
12.68000 13.133
12.70000 8.219
12.72000 14.172
12.74000 13.620
12.76000 14.255
12.78000 22.910
12.80000 31.723
12.82000 23.424
12.84000 12.366
12.86000 13.065
12.88000 17.893
12.90000 17.832
12.92000 20.093
12.94000 23.267
12.96000 18.839
12.98000 11.838
13.00000 10.467
13.02000 3.785
13.04000 8.614
13.06000 13.069
13.08000 10.159
13.10000 15.943
13.12000 15.891
13.14000 18.384
13.16000 22.707
13.18000 18.660
13.20000 14.685
13.22000 14.516
13.24000 16.259
13.26000 21.903
13.28000 10.650
13.30000 6.293
13.32000 15.347
13.34000 16.044
13.36000 18.692
13.38000 15.790
13.40000 21.354
13.42000 26.692
13.44000 21.816
13.46000 9.073
13.48000 3.761
13.50000 0.734
13.52000 1.794
13.54000 8.442
13.56000 18.624
13.58000 22.372
13.60000 15.475
13.62000 11.796
13.64000 16.841
13.66000 5.570
13.68000 14.179
13.70000 12.929
13.72000 11.524
13.74000 16.939
13.76000 22.168
13.78000 15.511
13.80000 15.814
13.82000 12.461
13.84000 20.690
13.86000 16.843
13.88000 9.405
13.90000 16.890
13.92000 7.760
13.94000 -0.395
13.96000 -0.524
13.98000 6.426
14.00000 12.017
14.02000 15.777
14.04000 20.039
14.06000 10.344
14.08000 13.418
14.10000 16.857
14.12000 14.590
14.14000 4.284
14.16000 11.725
14.18000 8.484
14.20000 14.085
14.22000 22.409
14.24000 19.408
14.26000 17.300
14.28000 16.545
14.30000 17.240
14.32000 7.777
14.34000 10.733
14.36000 2.971
14.38000 -4.441
14.40000 1.347
14.42000 12.703
14.44000 15.656
14.46000 13.047
14.48000 11.752
14.50000 9.176
14.52000 17.341
14.54000 14.474
14.56000 15.420
14.58000 21.581
14.60000 18.763
14.62000 15.789
14.64000 4.886
14.66000 5.622
14.68000 8.445
14.70000 8.269
14.72000 9.169
14.74000 9.970
14.76000 11.828
14.78000 15.111
14.80000 14.537
14.82000 7.662
14.84000 2.627
14.86000 0.292
14.88000 3.072
14.90000 11.320
14.92000 17.364
14.94000 15.998
14.96000 15.536
14.98000 4.050
15.00000 7.434
15.02000 10.419
15.04000 12.622
15.06000 5.586
15.08000 3.367
15.10000 8.795
15.12000 14.921
15.14000 8.347
15.16000 9.509
15.18000 1.904
15.20000 8.367
15.22000 5.191
15.24000 11.188
15.26000 13.523
15.28000 9.184
15.30000 6.081
15.32000 12.194
15.34000 3.779
15.36000 7.092
15.38000 6.436
15.40000 6.811
15.42000 14.226
15.44000 14.808
15.46000 9.600
15.48000 5.462
15.50000 2.106
15.52000 8.103
15.54000 12.152
15.56000 6.697
15.58000 8.415
15.60000 15.213
15.62000 16.949
15.64000 14.071
15.66000 8.394
15.68000 6.662
15.70000 8.770
15.72000 11.656
15.74000 5.379
15.76000 -2.788
15.78000 3.115
15.80000 8.078
15.82000 9.396
15.84000 12.211
15.86000 13.926
15.88000 17.903
15.90000 5.335
15.92000 4.868
15.94000 -3.041
15.96000 -4.415
15.98000 3.685
16.00000 5.010
16.02000 2.691
16.04000 8.257
16.06000 14.989
16.08000 10.461
16.10000 15.073
16.12000 9.226
16.14000 6.060
16.16000 8.459
16.18000 12.548
16.20000 4.500
16.22000 1.253
16.24000 0.776
16.26000 7.215
16.28000 6.208
16.30000 10.089
16.32000 11.930
16.34000 10.269
16.36000 13.705
16.38000 10.975
16.40000 12.859
16.42000 12.186
16.44000 12.812
16.46000 9.354
16.48000 6.650
16.50000 7.855
16.52000 1.053
16.54000 5.547
16.56000 0.858
16.58000 6.335
16.60000 5.633
16.62000 10.692
16.64000 6.252
16.66000 9.357
16.68000 16.418
16.70000 13.837
16.72000 7.683
16.74000 8.946
16.76000 3.892
16.78000 4.470
16.80000 5.275
16.82000 8.669
16.84000 6.247
16.86000 11.834
16.88000 8.622
16.90000 10.581
16.92000 12.877
16.94000 8.897
16.96000 6.936
16.98000 7.545
17.00000 9.068
17.02000 12.636
17.04000 9.966
17.06000 10.451
17.08000 -4.380
17.10000 -0.855
17.12000 3.890
17.14000 3.902
17.16000 3.658
17.18000 9.521
17.20000 11.548
17.22000 11.132
17.24000 15.688
17.26000 4.096
17.28000 4.659
17.30000 11.938
17.32000 15.778
17.34000 10.701
17.36000 8.917
17.38000 2.755
17.40000 6.730
17.42000 15.590
17.44000 10.909
17.46000 7.915
17.48000 1.866
17.50000 7.348
17.52000 11.556
17.54000 10.066
17.56000 6.036
17.58000 2.531
17.60000 9.868
17.62000 8.966
17.64000 6.300
17.66000 2.104
17.68000 -1.338
17.70000 3.465
17.72000 3.214
17.74000 5.051
17.76000 7.332
17.78000 7.174
17.80000 6.478
17.82000 8.389
17.84000 3.836
17.86000 5.005
17.88000 3.020
17.90000 5.364
17.92000 8.092
17.94000 10.132
17.96000 13.191
17.98000 11.202
18.00000 6.897
18.02000 7.071
18.04000 2.185
18.06000 3.445
18.08000 6.747
18.10000 3.213
18.12000 8.025
18.14000 10.840
18.16000 11.351
18.18000 8.869
18.20000 14.835
18.22000 9.371
18.24000 1.904
18.26000 1.722
18.28000 1.452
18.30000 -4.298
18.32000 -0.217
18.34000 5.321
18.36000 2.601
18.38000 9.048
18.40000 8.224
18.42000 3.110
18.44000 6.729
18.46000 7.784
18.48000 4.547
18.50000 7.904
18.52000 10.875
18.54000 7.563
18.56000 10.632
18.58000 2.663
18.60000 1.147
18.62000 5.423
18.64000 6.949
18.66000 0.350
18.68000 6.509
18.70000 9.069
18.72000 1.873
18.74000 -0.469
18.76000 5.630
18.78000 9.555
18.80000 11.655
18.82000 13.613
18.84000 5.091
18.86000 1.120
18.88000 -1.994
18.90000 2.571
18.92000 2.069
18.94000 2.232
18.96000 6.986
18.98000 1.867
19.00000 2.219
19.02000 11.725
19.04000 15.313
19.06000 8.267
19.08000 5.433
19.10000 11.697
19.12000 15.878
19.14000 15.930
19.16000 12.525
19.18000 12.464
19.20000 10.920
19.22000 4.311
19.24000 3.788
19.26000 5.353
19.28000 11.317
19.30000 5.496
19.32000 5.789
19.34000 7.422
19.36000 3.323
19.38000 7.375
19.40000 6.171
19.42000 7.901
19.44000 6.784
19.46000 9.267
19.48000 9.955
19.50000 3.387
19.52000 1.351
19.54000 3.507
19.56000 5.281
19.58000 4.108
19.60000 2.736
19.62000 1.048
19.64000 0.885
19.66000 5.781
19.68000 7.999
19.70000 13.550
19.72000 10.481
19.74000 5.585
19.76000 -0.623
19.78000 7.525
19.80000 11.730
19.82000 7.254
19.84000 12.073
19.86000 10.953
19.88000 16.162
19.90000 13.439
19.92000 6.804
19.94000 6.118
19.96000 12.391
19.98000 9.189
20.00000 0.621
20.02000 -4.183
20.04000 1.402
20.06000 11.556
20.08000 9.220
20.10000 5.520
20.12000 2.546
20.14000 -2.073
20.16000 5.367
20.18000 5.403
20.20000 9.021
20.22000 11.185
20.24000 5.751
20.26000 8.829
20.28000 8.385
20.30000 10.387
20.32000 11.519
20.34000 13.251
20.36000 10.559
20.38000 8.786
20.40000 10.728
20.42000 6.681
20.44000 4.727
20.46000 6.749
20.48000 16.430
20.50000 12.593
20.52000 7.853
20.54000 2.255
20.56000 3.502
20.58000 1.641
20.60000 2.643
20.62000 4.852
20.64000 6.444
20.66000 13.404
20.68000 10.577
20.70000 0.920
20.72000 2.281
20.74000 13.050
20.76000 5.583
20.78000 3.058
20.80000 9.363
20.82000 8.227
20.84000 11.306
20.86000 10.867
20.88000 6.207
20.90000 9.728
20.92000 4.696
20.94000 3.175
20.96000 8.002
20.98000 5.146
21.00000 9.045
21.02000 6.968
21.04000 5.869
21.06000 7.430
21.08000 10.595
21.10000 9.009
21.12000 13.960
21.14000 10.702
21.16000 8.963
21.18000 11.153
21.20000 2.373
21.22000 1.055
21.24000 6.184
21.26000 10.769
21.28000 12.408
21.30000 10.226
21.32000 -4.126
21.34000 -2.732
21.36000 5.797
21.38000 3.624
21.40000 6.463
21.42000 8.566
21.44000 5.122
21.46000 5.428
21.48000 6.616
21.50000 11.981
21.52000 14.073
21.54000 8.108
21.56000 2.918
21.58000 2.597
21.60000 2.848
21.62000 5.607
21.64000 4.526
21.66000 -3.367
21.68000 0.279
21.70000 3.835
21.72000 1.797
21.74000 -2.198
21.76000 5.579
21.78000 9.066
21.80000 0.416
21.82000 0.277
21.84000 0.250
21.86000 10.942
21.88000 9.374
21.90000 6.212
21.92000 4.301
21.94000 1.945
21.96000 -4.099
21.98000 1.844
22.00000 3.123
22.02000 2.657
22.04000 -3.112
22.06000 5.582
22.08000 3.487
22.10000 0.177
22.12000 4.234
22.14000 7.947
22.16000 9.641
22.18000 8.909
22.20000 5.555
22.22000 1.508
22.24000 2.565
22.26000 -0.703
22.28000 3.782
22.30000 7.444
22.32000 1.765
22.34000 -1.187
22.36000 2.334
22.38000 9.706
22.40000 10.286
22.42000 3.360
22.44000 3.531
22.46000 5.046
22.48000 4.136
22.50000 7.090
22.52000 7.390
22.54000 4.355
22.56000 -0.334
22.58000 -4.079
22.60000 -1.113
22.62000 8.744
22.64000 8.741
22.66000 7.133
22.68000 3.174
22.70000 4.468
22.72000 3.987
22.74000 6.423
22.76000 10.463
22.78000 13.332
22.80000 7.912
22.82000 5.921
22.84000 4.517
22.86000 4.297
22.88000 -4.067
22.90000 -0.597
22.92000 9.938
22.94000 6.624
22.96000 1.994
22.98000 1.733
23.00000 2.292
23.02000 1.401
23.04000 7.459
23.06000 0.586
23.08000 -0.018
23.10000 2.725
23.12000 -0.910
23.14000 5.995
23.16000 7.469
23.18000 4.008
23.20000 2.527
23.22000 1.361
23.24000 5.843
23.26000 -0.979
23.28000 2.297
23.30000 5.554
23.32000 6.213
23.34000 4.684
23.36000 4.077
23.38000 7.262
23.40000 7.815
23.42000 12.537
23.44000 9.099
23.46000 4.979
23.48000 4.789
23.50000 11.959
23.52000 10.408
23.54000 4.912
23.56000 4.019
23.58000 2.561
23.60000 0.222
23.62000 -3.706
23.64000 -0.252
23.66000 3.705
23.68000 2.892
23.70000 -1.496
23.72000 3.516
23.74000 0.757
23.76000 5.353
23.78000 9.886
23.80000 5.360
23.82000 3.170
23.84000 -3.616
23.86000 2.104
23.88000 5.601
23.90000 4.773
23.92000 5.971
23.94000 8.471
23.96000 10.177
23.98000 9.410
24.00000 3.347
24.02000 8.195
24.04000 8.575
24.06000 8.256
24.08000 7.007
24.10000 5.059
24.12000 1.647
24.14000 3.778
24.16000 -2.114
24.18000 -3.416
24.20000 -3.968
24.22000 4.811
24.24000 4.726
24.26000 0.238
24.28000 -0.678
24.30000 3.261
24.32000 -0.097
24.34000 3.391
24.36000 4.745
24.38000 4.812
24.40000 7.401
24.42000 11.547
24.44000 8.733
24.46000 7.866
24.48000 7.289
24.50000 2.397
24.52000 2.327
24.54000 -0.787
24.56000 -2.705
24.58000 -0.319
24.60000 1.972
24.62000 -2.382
24.64000 -1.228
24.66000 3.925
24.68000 6.042
24.70000 5.095
24.72000 9.095
24.74000 7.663
24.76000 0.739
24.78000 -0.830
24.80000 2.949
24.82000 2.335
24.84000 2.394
24.86000 5.914
24.88000 5.852
24.90000 7.997
24.92000 3.572
24.94000 -1.435
24.96000 -3.931
24.98000 5.183
25.00000 11.441
25.02000 11.504
25.04000 8.185
25.06000 4.938
25.08000 7.986
25.10000 5.430
25.12000 4.199
25.14000 5.470
25.16000 7.431
25.18000 1.994
25.20000 1.857
25.22000 3.751
25.24000 3.104
25.26000 5.837
25.28000 5.729
25.30000 4.987
25.32000 5.787
25.34000 3.544
25.36000 2.268
25.38000 2.971
25.40000 4.184
25.42000 3.007
25.44000 0.271
25.46000 0.910
25.48000 4.880
25.50000 5.438
25.52000 4.240
25.54000 1.913
25.56000 2.315
25.58000 2.903
25.60000 5.201
25.62000 1.586
25.64000 0.397
25.66000 2.610
25.68000 2.979
25.70000 -0.221
25.72000 6.586
25.74000 7.934
25.76000 -3.891
25.78000 -2.451
25.80000 -3.888
25.82000 0.701
25.84000 5.727
25.86000 4.000
25.88000 2.224
25.90000 -0.637
25.92000 -2.526
25.94000 -0.966
25.96000 4.638
25.98000 4.122
26.00000 0.225
26.02000 -3.712
26.04000 0.041
26.06000 5.839
26.08000 5.442
26.10000 1.513
26.12000 4.836
26.14000 1.082
26.16000 7.038
26.18000 3.174
26.20000 1.213
26.22000 2.037
26.24000 4.155
26.26000 4.613
26.28000 -1.361
26.30000 -3.313
26.32000 5.797
26.34000 7.610
26.36000 12.506
26.38000 8.035
26.40000 2.442
26.42000 9.054
26.44000 8.961
26.46000 8.812
26.48000 1.222
26.50000 2.429
26.52000 1.080
26.54000 2.166
26.56000 -3.865
26.58000 -1.732
26.60000 1.367
26.62000 5.261
26.64000 9.414
26.66000 3.189
26.68000 5.792
26.70000 3.164
26.72000 0.489
26.74000 2.079
26.76000 3.547
26.78000 -0.944
26.80000 1.305
26.82000 3.341
26.84000 4.599
26.86000 5.007
26.88000 0.222
26.90000 -2.416
26.92000 1.338
26.94000 2.485
26.96000 9.110
26.98000 7.035
27.00000 2.289
27.02000 2.141
27.04000 7.028
27.06000 7.037
27.08000 4.602
27.10000 7.274
27.12000 5.903
27.14000 4.546
27.16000 9.658
27.18000 9.937
27.20000 8.071
27.22000 0.517
27.24000 1.907
27.26000 -0.205
27.28000 -3.781
27.30000 -3.509
27.32000 2.694
27.34000 0.402
27.36000 -1.654
27.38000 -0.087
27.40000 4.179
27.42000 1.190
27.44000 0.991
27.46000 4.181
27.48000 7.218
27.50000 8.999
27.52000 9.697
27.54000 7.371
27.56000 5.332
27.58000 4.695
27.60000 -1.817
27.62000 -1.929
27.64000 3.553
27.66000 6.748
27.68000 3.545
27.70000 4.105
27.72000 3.868
27.74000 1.946
27.76000 3.705
27.78000 3.113
27.80000 -1.182
27.82000 3.733
27.84000 -2.683
27.86000 3.584
27.88000 2.071
27.90000 4.319
27.92000 6.733
27.94000 10.746
27.96000 3.826
27.98000 2.778
28.00000 3.526
28.02000 8.896
28.04000 8.901
28.06000 6.062
28.08000 6.692
28.10000 6.692
28.12000 2.824
28.14000 -2.373
28.16000 -1.090
28.18000 -3.747
28.20000 0.301
28.22000 4.016
28.24000 3.280
28.26000 3.299
28.28000 7.488
28.30000 8.781
28.32000 3.879
28.34000 1.522
28.36000 4.645
28.38000 2.346
28.40000 0.557
28.42000 2.651
28.44000 5.042
28.46000 6.499
28.48000 3.243
28.50000 1.644
28.52000 -0.496
28.54000 5.671
28.56000 3.458
28.58000 1.577
28.60000 5.687
28.62000 3.763
28.64000 1.613
28.66000 2.536
28.68000 -1.622
28.70000 0.055
28.72000 1.871
28.74000 -0.263
28.76000 3.005
28.78000 1.084
28.80000 -2.621
28.82000 2.349
28.84000 -0.953
28.86000 2.614
28.88000 6.802
28.90000 6.201
28.92000 1.345
28.94000 0.805
28.96000 0.410
28.98000 -2.968
29.00000 2.842
29.02000 0.757
29.04000 -1.134
29.06000 2.615
29.08000 4.617
29.10000 0.863
29.12000 5.727
29.14000 6.573
29.16000 4.370
29.18000 3.564
29.20000 -0.271
29.22000 -2.420
29.24000 -3.274
29.26000 -2.654
29.28000 1.308
29.30000 4.588
29.32000 1.945
29.34000 3.796
29.36000 4.548
29.38000 2.252
29.40000 2.667
29.42000 2.907
29.44000 2.054
29.46000 3.762
29.48000 0.531
29.50000 0.795
29.52000 1.488
29.54000 0.883
29.56000 0.959
29.58000 0.481
29.60000 1.946
29.62000 2.972
29.64000 4.783
29.66000 3.476
29.68000 -2.871
29.70000 1.086
29.72000 3.426
29.74000 4.182
29.76000 3.067
29.78000 1.865
29.80000 2.978
29.82000 0.352
29.84000 -3.127
29.86000 0.799
29.88000 3.201
29.90000 2.754
29.92000 2.733
29.94000 4.451
29.96000 8.708
29.98000 2.734
30.00000 0.655
30.02000 -0.868
30.04000 -2.607
30.06000 -3.321
30.08000 -1.896
30.10000 0.140
30.12000 0.171
30.14000 -1.645
30.16000 0.603
30.18000 4.650
30.20000 5.388
30.22000 1.157
30.24000 0.675
30.26000 -3.088
30.28000 -1.860
30.30000 2.137
30.32000 1.148
30.34000 3.633
30.36000 2.176
30.38000 -3.667
30.40000 -2.311
30.42000 2.713
30.44000 3.826
30.46000 2.217
30.48000 1.426
30.50000 -0.683
30.52000 -1.103
30.54000 0.611
30.56000 1.138
30.58000 2.168
30.60000 1.713
30.62000 2.311
30.64000 7.638
30.66000 6.734
30.68000 4.928
30.70000 4.667
30.72000 3.342
30.74000 -1.275
30.76000 1.558
30.78000 0.268
30.80000 2.789
30.82000 4.344
30.84000 6.709
30.86000 6.491
30.88000 1.622
30.90000 1.787
30.92000 3.706
30.94000 3.081
30.96000 1.194
30.98000 0.891
31.00000 1.417
31.02000 2.791
31.04000 -1.427
31.06000 2.269
31.08000 0.213
31.10000 -0.391
31.12000 2.523
31.14000 8.562
31.16000 5.171
31.18000 -3.635
31.20000 -2.944
31.22000 -0.211
31.24000 0.087
31.26000 0.320
31.28000 3.023
31.30000 4.877
31.32000 2.101
31.34000 -0.911
31.36000 -0.703
31.38000 1.961
31.40000 2.730
31.42000 1.150
31.44000 2.054
31.46000 1.912
31.48000 5.103
31.50000 4.421
31.52000 0.729
31.54000 2.671
31.56000 8.523
31.58000 8.497
31.60000 -0.303
31.62000 4.781
31.64000 2.072
31.66000 -0.079
31.68000 3.235
31.70000 0.084
31.72000 4.895
31.74000 0.093
31.76000 2.204
31.78000 4.650
31.80000 2.608
31.82000 2.966
31.84000 2.034
31.86000 2.589
31.88000 0.037
31.90000 1.243
31.92000 1.761
31.94000 5.357
31.96000 0.717
31.98000 3.305
32.00000 1.777
32.02000 -3.594
32.04000 4.310
32.06000 2.642
32.08000 2.994
32.10000 5.417
32.12000 3.568
32.14000 1.026
32.16000 3.580
32.18000 3.133
32.20000 1.911
32.22000 -1.604
32.24000 2.146
32.26000 2.320
32.28000 1.213
32.30000 1.223
32.32000 6.462
32.34000 7.584
32.36000 5.342
32.38000 3.259
32.40000 1.458
32.42000 3.068
32.44000 1.249
32.46000 3.027
32.48000 1.432
32.50000 -2.841
32.52000 -3.569
32.54000 -1.544
32.56000 5.682
32.58000 2.690
32.60000 2.252
32.62000 -0.034
32.64000 4.133
32.66000 4.278
32.68000 1.678
32.70000 0.664
32.72000 4.688
32.74000 1.229
32.76000 6.032
32.78000 6.814
32.80000 9.468
32.82000 6.114
32.84000 0.921
32.86000 -2.160
32.88000 0.018
32.90000 6.706
32.92000 3.157
32.94000 6.458
32.96000 7.883
32.98000 8.544
33.00000 3.926
33.02000 3.543
33.04000 1.386
33.06000 -0.772
33.08000 -3.549
33.10000 -1.732
33.12000 1.518
33.14000 1.202
33.16000 -1.989
33.18000 1.566
33.20000 7.113
33.22000 2.005
33.24000 0.653
33.26000 3.058
33.28000 0.144
33.30000 1.692
33.32000 2.741
33.34000 2.619
33.36000 4.780
33.38000 3.495
33.40000 1.522
33.42000 3.595
33.44000 5.301
33.46000 5.065
33.48000 10.350
33.50000 2.257
33.52000 2.038
33.54000 1.583
33.56000 4.756
33.58000 8.032
33.60000 3.576
33.62000 3.652
33.64000 2.472
33.66000 -0.210
33.68000 4.406
33.70000 6.570
33.72000 5.634
33.74000 2.189
33.76000 4.630
33.78000 -0.168
33.80000 2.507
33.82000 -0.568
33.84000 -2.171
33.86000 -0.399
33.88000 -2.223
33.90000 2.765
33.92000 7.091
33.94000 7.316
33.96000 4.291
33.98000 5.560
34.00000 0.032
34.02000 0.558
34.04000 1.001
34.06000 2.455
34.08000 3.136
34.10000 1.021
34.12000 4.063
34.14000 10.500
34.16000 3.388
34.18000 4.038
34.20000 1.530
34.22000 -3.036
34.24000 -0.159
34.26000 -1.255
34.28000 -1.681
34.30000 1.665
34.32000 7.334
34.34000 7.115
34.36000 1.999
34.38000 0.764
34.40000 2.824
34.42000 2.780
34.44000 -2.304
34.46000 -1.479
34.48000 3.220
34.50000 6.523
34.52000 -0.107
34.54000 2.876
34.56000 4.955
34.58000 4.912
34.60000 3.399
34.62000 -2.708
34.64000 0.988
34.66000 2.070
34.68000 3.638
34.70000 -0.264
34.72000 -2.573
34.74000 -0.449
34.76000 -0.817
34.78000 -0.848
34.80000 -1.974
34.82000 0.366
34.84000 1.771
34.86000 -2.864
34.88000 1.783
34.90000 4.018
34.92000 3.781
34.94000 4.800
34.96000 -0.339
34.98000 -1.649
35.00000 2.894
35.02000 3.777
35.04000 1.355
35.06000 1.255
35.08000 1.656
35.10000 0.370
35.12000 5.137
35.14000 7.646
35.16000 5.428
35.18000 2.832
35.20000 3.346
35.22000 3.204
35.24000 -1.994
35.26000 -3.483
35.28000 0.965
35.30000 1.453
35.32000 7.214
35.34000 6.510
35.36000 3.470
35.38000 4.144
35.40000 4.574
35.42000 5.536
35.44000 5.149
35.46000 2.409
35.48000 5.069
35.50000 4.853
35.52000 3.518
35.54000 4.852
35.56000 2.281
35.58000 -1.501
35.60000 -3.040
35.62000 0.018
35.64000 2.370
35.66000 3.306
35.68000 1.857
35.70000 1.483
35.72000 3.420
35.74000 6.268
35.76000 1.626
35.78000 -0.853
35.80000 -2.902
35.82000 -1.188
35.84000 -3.468
35.86000 -1.153
35.88000 1.802
35.90000 1.914
35.92000 0.641
35.94000 0.654
35.96000 3.371
35.98000 0.489
36.00000 3.157
36.02000 5.851
36.04000 4.267
36.06000 1.026
36.08000 -1.813
36.10000 -3.479
36.12000 0.803
36.14000 -0.696
36.16000 1.038
36.18000 1.376
36.20000 -0.061
36.22000 5.950
36.24000 11.471
36.26000 5.244
36.28000 5.695
36.30000 2.815
36.32000 2.906
36.34000 1.846
36.36000 0.876
36.38000 -0.047
36.40000 1.831
36.42000 2.897
36.44000 0.354
36.46000 0.816
36.48000 1.147
36.50000 -1.716
36.52000 -3.245
36.54000 -1.647
36.56000 2.523
36.58000 1.805
36.60000 -3.384
36.62000 1.386
36.64000 7.995
36.66000 4.537
36.68000 4.469
36.70000 2.009
36.72000 -0.222
36.74000 -3.513
36.76000 -3.514
36.78000 1.603
36.80000 1.939
36.82000 0.575
36.84000 -1.646
36.86000 0.526
36.88000 6.528
36.90000 4.115
36.92000 1.621
36.94000 2.871
36.96000 2.679
36.98000 0.819
37.00000 -0.525
37.02000 2.730
37.04000 5.786
37.06000 6.483
37.08000 3.331
37.10000 4.167
37.12000 -0.390
37.14000 3.610
37.16000 2.965
37.18000 1.130
37.20000 -0.952
37.22000 2.584
37.24000 6.262
37.26000 5.101
37.28000 -0.568
37.30000 1.462
37.32000 4.033
37.34000 6.163
37.36000 1.418
37.38000 -0.975
37.40000 -0.444
37.42000 0.526
37.44000 -1.302
37.46000 -3.548
37.48000 -1.095
37.50000 -1.628
37.52000 -0.652
37.54000 2.141
37.56000 0.235
37.58000 -1.296
37.60000 2.508
37.62000 3.127
37.64000 -1.414
37.66000 -1.988
37.68000 -2.031
37.70000 2.045
37.72000 4.240
37.74000 1.163
37.76000 1.200
37.78000 -2.010
37.80000 -0.112
37.82000 3.751
37.84000 4.197
37.86000 5.262
37.88000 6.420
37.90000 2.585
37.92000 -0.133
37.94000 3.397
37.96000 -0.046
37.98000 -1.828
38.00000 0.948
38.02000 5.923
38.04000 4.961
38.06000 2.762
38.08000 2.643
38.10000 4.290
38.12000 5.483
38.14000 4.702
38.16000 8.875
38.18000 9.514
38.20000 7.438
38.22000 7.035
38.24000 3.950
38.26000 6.141
38.28000 6.141
38.30000 6.805
38.32000 10.959
38.34000 10.082
38.36000 6.440
38.38000 5.823
38.40000 9.304
38.42000 13.782
38.44000 10.704
38.46000 12.451
38.48000 15.741
38.50000 10.333
38.52000 8.779
38.54000 8.757
38.56000 12.783
38.58000 9.681
38.60000 9.354
38.62000 10.664
38.64000 11.128
38.66000 14.851
38.68000 16.788
38.70000 13.283
38.72000 14.664
38.74000 11.465
38.76000 9.795
38.78000 13.261
38.80000 14.767
38.82000 16.560
38.84000 17.689
38.86000 21.424
38.88000 20.338
38.90000 19.908
38.92000 24.436
38.94000 24.956
38.96000 25.050
38.98000 19.619
39.00000 24.347
39.02000 27.500
39.04000 28.322
39.06000 30.449
39.08000 30.093
39.10000 27.186
39.12000 30.132
39.14000 30.593
39.16000 29.557
39.18000 29.962
39.20000 34.634
39.22000 37.980
39.24000 34.289
39.26000 36.675
39.28000 41.132
39.30000 43.993
39.32000 47.263
39.34000 45.253
39.36000 44.326
39.38000 47.723
39.40000 49.536
39.42000 52.181
39.44000 58.230
39.46000 58.306
39.48000 59.262
39.50000 56.238
39.52000 53.974
39.54000 58.755
39.56000 64.951
39.58000 73.382
39.60000 76.710
39.62000 77.962
39.64000 85.419
39.66000 96.392
39.68000 100.471
39.70000 99.954
39.72000 104.787
39.74000 107.632
39.76000 117.287
39.78000 120.217
39.80000 120.185
39.82000 124.226
39.84000 127.633
39.86000 136.562
39.88000 156.471
39.90000 159.680
39.92000 170.237
39.94000 183.758
39.96000 185.075
39.98000 196.940
40.00000 208.455
40.02000 213.948
40.04000 230.273
40.06000 243.249
40.08000 248.957
40.10000 263.475
40.12000 271.675
40.14000 285.969
40.16000 300.273
40.18000 314.594
40.20000 333.144
40.22000 343.408
40.24000 355.041
40.26000 372.549
40.28000 391.623
40.30000 409.143
40.32000 417.434
40.34000 427.646
40.36000 450.732
40.38000 457.899
40.40000 469.838
40.42000 481.892
40.44000 490.311
40.46000 503.132
40.48000 511.234
40.50000 522.567
40.52000 532.429
40.54000 541.881
40.56000 552.538
40.58000 545.420
40.60000 545.772
40.62000 539.255
40.64000 542.749
40.66000 553.299
40.68000 534.557
40.70000 529.376
40.72000 526.411
40.74000 515.111
40.76000 512.614
40.78000 495.289
40.80000 476.166
40.82000 468.293
40.84000 461.473
40.86000 444.208
40.88000 430.465
40.90000 419.831
40.92000 407.056
40.94000 390.511
40.96000 374.814
40.98000 361.997
41.00000 347.219
41.02000 331.780
41.04000 317.316
41.06000 305.897
41.08000 285.649
41.10000 269.290
41.12000 260.575
41.14000 243.415
41.16000 234.133
41.18000 219.073
41.20000 207.397
41.22000 197.748
41.24000 190.058
41.26000 184.886
41.28000 177.934
41.30000 163.430
41.32000 150.013
41.34000 142.652
41.36000 138.749
41.38000 138.716
41.40000 130.776
41.42000 121.548
41.44000 116.648
41.46000 110.089
41.48000 103.018
41.50000 100.606
41.52000 94.802
41.54000 88.432
41.56000 80.322
41.58000 80.343
41.60000 73.073
41.62000 68.060
41.64000 67.202
41.66000 69.111
41.68000 63.920
41.70000 58.709
41.72000 53.017
41.74000 55.000
41.76000 52.044
41.78000 40.298
41.80000 39.425
41.82000 44.996
41.84000 42.787
41.86000 38.211
41.88000 32.745
41.90000 37.535
41.92000 34.082
41.94000 25.968
41.96000 24.597
41.98000 26.021
42.00000 25.510
42.02000 22.629
42.04000 20.854
42.06000 18.546
42.08000 21.324
42.10000 21.339
42.12000 17.640
42.14000 18.365
42.16000 17.481
42.18000 19.629
42.20000 18.781
42.22000 20.835
42.24000 22.167
42.26000 17.681
42.28000 12.562
42.30000 12.591
42.32000 10.546
42.34000 10.480
42.36000 13.373
42.38000 11.775
42.40000 11.246
42.42000 11.450
42.44000 8.230
42.46000 7.407
42.48000 9.382
42.50000 11.322
42.52000 8.295
42.54000 4.547
42.56000 5.545
42.58000 2.336
42.60000 3.849
42.62000 9.826
42.64000 5.665
42.66000 6.714
42.68000 9.074
42.70000 4.068
42.72000 4.153
42.74000 7.383
42.76000 6.734
42.78000 5.086
42.80000 2.799
42.82000 6.971
42.84000 3.898
42.86000 -0.687
42.88000 2.127
42.90000 1.567
42.92000 0.852
42.94000 1.373
42.96000 2.431
42.98000 4.211
43.00000 2.376
43.02000 1.099
43.04000 3.319
43.06000 2.573
43.08000 -1.041
43.10000 1.457
43.12000 -0.767
43.14000 -1.599
43.16000 1.170
43.18000 -2.019
43.20000 2.555
43.22000 4.817
43.24000 -2.401
43.26000 -3.518
43.28000 0.384
43.30000 1.453
43.32000 2.057
43.34000 2.318
43.36000 6.065
43.38000 7.372
43.40000 5.518
43.42000 1.833
43.44000 1.304
43.46000 2.428
43.48000 2.842
43.50000 1.516
43.52000 -1.280
43.54000 0.462
43.56000 1.089
43.58000 -3.481
43.60000 0.542
43.62000 6.172
43.64000 1.348
43.66000 -2.532
43.68000 -2.929
43.70000 2.538
43.72000 3.035
43.74000 4.056
43.76000 2.693
43.78000 -1.194
43.80000 -1.415
43.82000 -3.356
43.84000 -1.940
43.86000 3.878
43.88000 -0.026
43.90000 1.205
43.92000 5.389
43.94000 5.355
43.96000 0.722
43.98000 1.047
44.00000 0.877
44.02000 1.102
44.04000 -1.526
44.06000 -2.416
44.08000 2.732
44.10000 4.214
44.12000 4.905
44.14000 3.626
44.16000 2.203
44.18000 -0.679
44.20000 1.934
44.22000 0.306
44.24000 1.355
44.26000 -1.447
44.28000 -3.434
44.30000 -3.434
44.32000 0.374
44.34000 -0.721
44.36000 1.660
44.38000 0.584
44.40000 -1.378
44.42000 -1.669
44.44000 0.631
44.46000 0.889
44.48000 1.533
44.50000 -0.337
44.52000 -0.709
44.54000 3.132
44.56000 -1.461
44.58000 -2.574
44.60000 -0.109
44.62000 0.082
44.64000 3.842
44.66000 4.774
44.68000 0.656
44.70000 1.648
44.72000 1.845
44.74000 3.565
44.76000 0.660
44.78000 -2.269
44.80000 -3.197
44.82000 2.030
44.84000 2.403
44.86000 3.956
44.88000 1.650
44.90000 1.726
44.92000 4.986
44.94000 -3.424
44.96000 -1.615
44.98000 0.097
45.00000 -0.209
45.02000 4.237
45.04000 0.022
45.06000 0.897
45.08000 0.347
45.10000 2.113
45.12000 -2.946
45.14000 -3.194
45.16000 0.673
45.18000 5.080
45.20000 1.368
45.22000 -0.330
45.24000 0.809
45.26000 3.650
45.28000 3.075
45.30000 -0.660
45.32000 -2.046
45.34000 1.000
45.36000 1.360
45.38000 2.373
45.40000 -0.777
45.42000 3.918
45.44000 5.759
45.46000 4.524
45.48000 5.910
45.50000 5.968
45.52000 6.137
45.54000 7.612
45.56000 9.605
45.58000 11.237
45.60000 6.444
45.62000 6.178
45.64000 9.361
45.66000 6.402
45.68000 5.449
45.70000 16.026
45.72000 11.072
45.74000 14.036
45.76000 14.401
45.78000 9.528
45.80000 10.172
45.82000 15.522
45.84000 12.131
45.86000 16.925
45.88000 18.290
45.90000 14.436
45.92000 17.726
45.94000 18.296
45.96000 19.082
45.98000 18.761
46.00000 18.642
46.02000 16.873
46.04000 16.497
46.06000 17.467
46.08000 16.585
46.10000 23.408
46.12000 25.411
46.14000 22.203
46.16000 22.139
46.18000 23.534
46.20000 31.891
46.22000 34.149
46.24000 36.853
46.26000 32.989
46.28000 29.975
46.30000 26.892
46.32000 30.295
46.34000 37.999
46.36000 39.262
46.38000 32.417
46.40000 34.120
46.42000 30.916
46.44000 32.744
46.46000 34.294
46.48000 42.468
46.50000 42.287
46.52000 42.643
46.54000 43.926
46.56000 51.596
46.58000 51.185
46.60000 51.197
46.62000 54.577
46.64000 54.185
46.66000 51.550
46.68000 57.672
46.70000 58.436
46.72000 59.686
46.74000 61.816
46.76000 60.834
46.78000 56.025
46.80000 60.899
46.82000 58.606
46.84000 63.321
46.86000 58.651
46.88000 66.693
46.90000 69.102
46.92000 68.661
46.94000 68.610
46.96000 69.021
46.98000 74.129
47.00000 73.132
47.02000 71.211
47.04000 71.847
47.06000 65.825
47.08000 74.355
47.10000 77.071
47.12000 78.298
47.14000 77.654
47.16000 78.234
47.18000 77.124
47.20000 75.964
47.22000 80.393
47.24000 76.540
47.26000 78.599
47.28000 75.150
47.30000 69.137
47.32000 69.878
47.34000 67.715
47.36000 74.377
47.38000 75.738
47.40000 72.911
47.42000 75.919
47.44000 78.561
47.46000 72.018
47.48000 65.369
47.50000 65.093
47.52000 63.087
47.54000 62.390
47.56000 63.063
47.58000 58.862
47.60000 63.126
47.62000 54.480
47.64000 56.001
47.66000 53.866
47.68000 53.333
47.70000 50.306
47.72000 45.635
47.74000 40.837
47.76000 43.183
47.78000 43.104
47.80000 40.872
47.82000 41.250
47.84000 44.358
47.86000 47.905
47.88000 42.729
47.90000 36.024
47.92000 34.706
47.94000 32.817
47.96000 29.058
47.98000 25.768
48.00000 26.520
48.02000 27.051
48.04000 28.605
48.06000 23.605
48.08000 29.448
48.10000 26.179
48.12000 22.223
48.14000 18.659
48.16000 18.768
48.18000 21.397
48.20000 23.691
48.22000 15.805
48.24000 10.231
48.26000 16.773
48.28000 16.104
48.30000 11.055
48.32000 8.533
48.34000 11.539
48.36000 7.401
48.38000 11.080
48.40000 13.292
48.42000 12.286
48.44000 7.986
48.46000 11.530
48.48000 17.339
48.50000 12.065
48.52000 7.650
48.54000 12.937
48.56000 13.930
48.58000 12.934
48.60000 12.004
48.62000 5.982
48.64000 4.604
48.66000 4.641
48.68000 4.808
48.70000 3.775
48.72000 7.426
48.74000 3.436
48.76000 1.285
48.78000 3.872
48.80000 5.086
48.82000 2.617
48.84000 4.973
48.86000 4.184
48.88000 0.987
48.90000 0.775
48.92000 1.076
48.94000 6.295
48.96000 1.425
48.98000 -0.046
49.00000 3.803
49.02000 2.738
49.04000 5.920
49.06000 5.801
49.08000 5.971
49.10000 5.431
49.12000 6.864
49.14000 -0.111
49.16000 1.194
49.18000 1.550
49.20000 5.394
49.22000 0.531
49.24000 -3.071
49.26000 4.487
49.28000 3.694
49.30000 -0.502
49.32000 -1.681
49.34000 4.976
49.36000 1.273
49.38000 -0.596
49.40000 -1.681
49.42000 -1.427
49.44000 1.719
49.46000 3.241
49.48000 -0.479
49.50000 -2.031
49.52000 3.513
49.54000 4.915
49.56000 6.915
49.58000 4.272
49.60000 1.348
49.62000 1.362
49.64000 -3.018
49.66000 -1.437
49.68000 1.423
49.70000 0.729
49.72000 0.536
49.74000 -0.796
49.76000 0.302
49.78000 0.306
49.80000 -0.161
49.82000 -1.252
49.84000 1.389
49.86000 3.215
49.88000 -2.987
49.90000 -2.599
49.92000 -0.769
49.94000 1.889
49.96000 1.696
49.98000 4.749
50.00000 7.693
50.02000 9.725
50.04000 4.121
50.06000 4.472
50.08000 5.328
50.10000 -0.205
50.12000 6.499
50.14000 6.218
50.16000 -0.946
50.18000 1.686
50.20000 5.008
50.22000 4.202
50.24000 4.499
50.26000 1.555
50.28000 3.911
50.30000 5.795
50.32000 0.297
50.34000 -0.665
50.36000 7.141
50.38000 4.132
50.40000 3.881
50.42000 5.115
50.44000 3.521
50.46000 -2.921
50.48000 -1.678
50.50000 5.887
50.52000 9.844
50.54000 2.315
50.56000 0.048
50.58000 3.641
50.60000 3.214
50.62000 1.911
50.64000 2.416
50.66000 1.333
50.68000 0.081
50.70000 2.462
50.72000 7.871
50.74000 9.896
50.76000 5.415
50.78000 4.461
50.80000 3.353
50.82000 -0.436
50.84000 -2.607
50.86000 -2.908
50.88000 2.675
50.90000 1.738
50.92000 -2.021
50.94000 -1.814
50.96000 -0.367
50.98000 5.313
51.00000 11.505
51.02000 3.402
51.04000 -1.494
51.06000 2.934
51.08000 1.980
51.10000 1.375
51.12000 1.199
51.14000 4.560
51.16000 7.190
51.18000 1.905
51.20000 -1.111
51.22000 -0.932
51.24000 5.424
51.26000 4.637
51.28000 5.037
51.30000 2.746
51.32000 4.689
51.34000 2.026
51.36000 -1.030
51.38000 -2.027
51.40000 3.372
51.42000 6.488
51.44000 -1.296
51.46000 0.999
51.48000 4.797
51.50000 1.480
51.52000 3.336
51.54000 5.983
51.56000 4.452
51.58000 3.583
51.60000 0.127
51.62000 2.215
51.64000 -0.164
51.66000 7.308
51.68000 9.485
51.70000 7.632
51.72000 1.127
51.74000 -2.182
51.76000 1.480
51.78000 3.308
51.80000 4.019
51.82000 2.569
51.84000 6.158
51.86000 9.633
51.88000 6.386
51.90000 4.712
51.92000 5.533
51.94000 2.235
51.96000 4.491
51.98000 3.528
52.00000 1.542
52.02000 1.072
52.04000 3.331
52.06000 3.513
52.08000 7.990
52.10000 2.421
52.12000 -1.620
52.14000 2.828
52.16000 3.967
52.18000 2.382
52.20000 7.627
52.22000 9.833
52.24000 7.331
52.26000 3.862
52.28000 -2.813
52.30000 2.449
52.32000 6.491
52.34000 6.830
52.36000 5.044
52.38000 4.271
52.40000 6.319
52.42000 1.639
52.44000 0.358
52.46000 3.656
52.48000 5.649
52.50000 7.655
52.52000 6.162
52.54000 10.177
52.56000 8.427
52.58000 6.465
52.60000 4.015
52.62000 3.845
52.64000 0.694
52.66000 -0.605
52.68000 2.486
52.70000 2.321
52.72000 -0.447
52.74000 3.036
52.76000 7.222
52.78000 4.188
52.80000 4.425
52.82000 5.372
52.84000 2.095
52.86000 4.915
52.88000 4.576
52.90000 1.431
52.92000 -0.558
52.94000 7.538
52.96000 4.449
52.98000 6.286
53.00000 4.171
53.02000 1.602
53.04000 -1.696
53.06000 2.097
53.08000 2.420
53.10000 1.636
53.12000 5.934
53.14000 4.910
53.16000 4.915
53.18000 0.395
53.20000 2.450
53.22000 3.918
53.24000 4.593
53.26000 5.715
53.28000 5.884
53.30000 1.101
53.32000 5.120
53.34000 -1.848
53.36000 4.582
53.38000 4.643
53.40000 -0.062
53.42000 1.466
53.44000 4.885
53.46000 8.913
53.48000 7.946
53.50000 4.799
53.52000 5.329
53.54000 0.155
53.56000 -2.770
53.58000 1.973
53.60000 4.276
53.62000 5.174
53.64000 3.969
53.66000 3.577
53.68000 4.526
53.70000 5.797
53.72000 2.742
53.74000 -2.286
53.76000 -0.427
53.78000 -1.133
53.80000 5.039
53.82000 5.095
53.84000 8.198
53.86000 6.843
53.88000 3.857
53.90000 3.244
53.92000 0.841
53.94000 3.421
53.96000 -2.596
53.98000 4.881
54.00000 1.988
54.02000 2.110
54.04000 3.144
54.06000 5.547
54.08000 1.288
54.10000 2.466
54.12000 0.085
54.14000 -2.022
54.16000 2.420
54.18000 7.288
54.20000 1.972
54.22000 -2.780
54.24000 2.971
54.26000 3.640
54.28000 2.056
54.30000 1.877
54.32000 2.193
54.34000 1.928
54.36000 -0.044
54.38000 -0.315
54.40000 -0.399
54.42000 4.971
54.44000 2.477
54.46000 -0.407
54.48000 1.331
54.50000 2.346
54.52000 -0.937
54.54000 3.076
54.56000 5.790
54.58000 4.408
54.60000 2.287
54.62000 4.153
54.64000 4.637
54.66000 2.248
54.68000 -0.525
54.70000 0.225
54.72000 1.853
54.74000 2.804
54.76000 11.586
54.78000 9.647
54.80000 4.610
54.82000 3.723
54.84000 2.812
54.86000 3.871
54.88000 2.713
54.90000 5.765
54.92000 6.804
54.94000 2.749
54.96000 0.920
54.98000 0.642
55.00000 1.076
55.02000 2.145
55.04000 -2.768
55.06000 -1.390
55.08000 -1.473
55.10000 0.592
55.12000 3.949
55.14000 0.985
55.16000 0.589
55.18000 -1.368
55.20000 4.380
55.22000 9.645
55.24000 5.722
55.26000 1.111
55.28000 -0.514
55.30000 0.419
55.32000 2.107
55.34000 4.321
55.36000 2.522
55.38000 2.064
55.40000 1.094
55.42000 -0.648
55.44000 2.042
55.46000 6.445
55.48000 -0.279
55.50000 3.926
55.52000 2.560
55.54000 2.254
55.56000 -1.275
55.58000 -1.925
55.60000 5.356
55.62000 3.807
55.64000 -0.050
55.66000 0.409
55.68000 2.885
55.70000 1.415
55.72000 4.683
55.74000 2.806
55.76000 -0.053
55.78000 -1.278
55.80000 1.269
55.82000 5.719
55.84000 1.958
55.86000 4.549
55.88000 5.503
55.90000 2.182
55.92000 4.953
55.94000 8.025
55.96000 4.081
55.98000 2.342
56.00000 1.457
56.02000 2.675
56.04000 2.464
56.06000 4.282
56.08000 5.328
56.10000 8.285
56.12000 7.473
56.14000 5.471
56.16000 4.128
56.18000 4.196
56.20000 5.975
56.22000 2.064
56.24000 3.559
56.26000 3.117
56.28000 -0.425
56.30000 2.939
56.32000 8.199
56.34000 5.880
56.36000 5.625
56.38000 7.284
56.40000 8.556
56.42000 4.763
56.44000 2.795
56.46000 0.831
56.48000 2.573
56.50000 9.167
56.52000 9.143
56.54000 1.391
56.56000 -2.689
56.58000 -1.394
56.60000 1.647
56.62000 4.211
56.64000 4.354
56.66000 4.721
56.68000 3.122
56.70000 4.517
56.72000 5.506
56.74000 6.979
56.76000 5.804
56.78000 2.057
56.80000 -2.665
56.82000 0.897
56.84000 5.354
56.86000 3.199
56.88000 4.427
56.90000 5.523
56.92000 5.900
56.94000 7.509
56.96000 6.551
56.98000 7.825
57.00000 2.654
57.02000 0.034
57.04000 2.209
57.06000 5.009
57.08000 5.576
57.10000 6.045
57.12000 2.153
57.14000 5.555
57.16000 2.955
57.18000 2.522
57.20000 3.655
57.22000 5.176
57.24000 2.787
57.26000 1.030
57.28000 4.132
57.30000 3.988
57.32000 0.059
57.34000 0.669
57.36000 5.931
57.38000 3.337
57.40000 3.584
57.42000 0.147
57.44000 -0.494
57.46000 3.686
57.48000 3.008
57.50000 1.246
57.52000 4.173
57.54000 3.902
57.56000 0.911
57.58000 2.711
57.60000 2.864
57.62000 0.618
57.64000 1.468
57.66000 2.866
57.68000 4.630
57.70000 3.123
57.72000 1.595
57.74000 4.077
57.76000 3.566
57.78000 2.501
57.80000 5.901
57.82000 7.837
57.84000 4.487
57.86000 2.149
57.88000 2.054
57.90000 2.259
57.92000 3.261
57.94000 1.726
57.96000 -0.319
57.98000 -1.879
58.00000 1.450
58.02000 4.294
58.04000 3.676
58.06000 5.001
58.08000 8.248
58.10000 2.909
58.12000 0.312
58.14000 3.098
58.16000 0.768
58.18000 1.250
58.20000 7.852
58.22000 5.265
58.24000 4.106
58.26000 3.076
58.28000 4.221
58.30000 2.483
58.32000 3.830
58.34000 7.044
58.36000 4.958
58.38000 0.435
58.40000 -2.662
58.42000 0.335
58.44000 3.470
58.46000 4.085
58.48000 0.963
58.50000 -1.184
58.52000 1.452
58.54000 4.338
58.56000 2.386
58.58000 -0.104
58.60000 0.120
58.62000 0.497
58.64000 2.651
58.66000 3.946
58.68000 3.767
58.70000 5.734
58.72000 4.100
58.74000 2.130
58.76000 1.637
58.78000 0.461
58.80000 2.070
58.82000 0.815
58.84000 -0.697
58.86000 1.817
58.88000 0.745
58.90000 0.831
58.92000 -0.346
58.94000 -0.885
58.96000 -0.212
58.98000 3.640
59.00000 5.014
59.02000 6.107
59.04000 -1.303
59.06000 1.011
59.08000 5.329
59.10000 2.181
59.12000 2.819
59.14000 1.450
59.16000 0.562
59.18000 -1.602
59.20000 2.057
59.22000 2.426
59.24000 1.883
59.26000 6.277
59.28000 6.719
59.30000 3.667
59.32000 1.361
59.34000 2.644
59.36000 8.555
59.38000 8.188
59.40000 3.332
59.42000 4.640
59.44000 5.103
59.46000 1.625
59.48000 0.543
59.50000 -0.048
59.52000 4.178
59.54000 4.346
59.56000 -2.166
59.58000 1.191
59.60000 0.285
59.62000 -2.354
59.64000 -2.600
59.66000 -0.645
59.68000 3.915
59.70000 7.057
59.72000 5.961
59.74000 2.689
59.76000 4.621
59.78000 1.096
59.80000 4.900
59.82000 1.194
59.84000 -1.019
59.86000 2.871
59.88000 1.712
59.90000 3.663
59.92000 5.157
59.94000 2.043
59.96000 0.395
59.98000 2.708
60.00000 1.831
60.02000 4.613
60.04000 1.822
60.06000 4.242
60.08000 1.888
60.10000 2.623
60.12000 0.269
60.14000 -2.581
60.16000 0.978
60.18000 3.548
60.20000 -1.951
60.22000 1.614
60.24000 -1.807
60.26000 0.237
60.28000 0.431
60.30000 1.318
60.32000 3.360
60.34000 3.090
60.36000 3.198
60.38000 5.149
60.40000 3.503
60.42000 2.023
60.44000 1.411
60.46000 3.893
60.48000 8.518
60.50000 6.800
60.52000 5.618
60.54000 3.105
60.56000 4.657
60.58000 4.641
60.60000 3.699
60.62000 5.448
60.64000 5.705
60.66000 9.679
60.68000 8.057
60.70000 6.350
60.72000 -0.721
60.74000 1.026
60.76000 2.432
60.78000 0.257
60.80000 3.642
60.82000 4.531
60.84000 1.786
60.86000 1.340
60.88000 3.239
60.90000 0.281
60.92000 0.903
60.94000 2.073
60.96000 2.619
60.98000 -0.613
61.00000 0.633
61.02000 1.398
61.04000 3.315
61.06000 0.639
61.08000 5.371
61.10000 2.316
61.12000 1.090
61.14000 3.839
61.16000 7.228
61.18000 3.385
61.20000 3.108
61.22000 6.026
61.24000 3.778
61.26000 5.017
61.28000 2.771
61.30000 0.039
61.32000 3.764
61.34000 6.072
61.36000 6.809
61.38000 2.019
61.40000 -2.501
61.42000 -0.923
61.44000 5.757
61.46000 8.210
61.48000 6.454
61.50000 7.939
61.52000 6.230
61.54000 6.078
61.56000 3.634
61.58000 1.545
61.60000 0.193
61.62000 2.528
61.64000 -0.183
61.66000 1.866
61.68000 -0.577
61.70000 3.072
61.72000 6.426
61.74000 8.594
61.76000 6.414
61.78000 7.542
61.80000 2.472
61.82000 -0.172
61.84000 3.297
61.86000 5.204
61.88000 0.956
61.90000 6.263
61.92000 6.199
61.94000 3.734
61.96000 2.774
61.98000 3.297
62.00000 1.623
62.02000 0.051
62.04000 0.011
62.06000 6.005
62.08000 4.459
62.10000 -0.680
62.12000 0.356
62.14000 3.495
62.16000 1.497
62.18000 3.763
62.20000 1.168
62.22000 -1.490
62.24000 -0.797
62.26000 -0.073
62.28000 7.080
62.30000 7.938
62.32000 1.763
62.34000 3.622
62.36000 0.910
62.38000 2.426
62.40000 2.454
62.42000 -2.523
62.44000 -0.626
62.46000 3.829
62.48000 5.692
62.50000 9.532
62.52000 9.070
62.54000 2.158
62.56000 0.244
62.58000 1.554
62.60000 3.993
62.62000 3.674
62.64000 -1.325
62.66000 0.762
62.68000 2.130
62.70000 3.587
62.72000 4.031
62.74000 6.472
62.76000 1.574
62.78000 0.635
62.80000 3.620
62.82000 1.155
62.84000 2.598
62.86000 2.045
62.88000 1.862
62.90000 3.831
62.92000 8.416
62.94000 2.503
62.96000 -0.706
62.98000 5.500
63.00000 3.652
63.02000 2.511
63.04000 4.250
63.06000 4.162
63.08000 5.889
63.10000 -0.613
63.12000 1.625
63.14000 5.773
63.16000 7.781
63.18000 6.354
63.20000 0.855
63.22000 -2.505
63.24000 -0.905
63.26000 6.917
63.28000 7.333
63.30000 4.267
63.32000 1.837
63.34000 0.787
63.36000 1.144
63.38000 5.731
63.40000 7.937
63.42000 4.216
63.44000 1.056
63.46000 1.985
63.48000 1.897
63.50000 0.800
63.52000 5.524
63.54000 2.193
63.56000 3.096
63.58000 1.763
63.60000 1.086
63.62000 2.807
63.64000 0.855
63.66000 0.652
63.68000 -0.833
63.70000 -1.809
63.72000 -2.522
63.74000 0.612
63.76000 1.693
63.78000 2.778
63.80000 1.543
63.82000 1.481
63.84000 2.628
63.86000 5.895
63.88000 3.243
63.90000 -0.226
63.92000 0.387
63.94000 -1.306
63.96000 0.785
63.98000 4.225
64.00000 3.894
64.02000 4.742
64.04000 3.109
64.06000 0.640
64.08000 -1.169
64.10000 0.774
64.12000 4.565
64.14000 5.854
64.16000 2.785
64.18000 2.158
64.20000 2.596
64.22000 0.870
64.24000 1.436
64.26000 -1.630
64.28000 0.248
64.30000 -2.529
64.32000 1.654
64.34000 3.683
64.36000 -0.689
64.38000 -0.574
64.40000 0.497
64.42000 1.457
64.44000 1.419
64.46000 -0.974
64.48000 -0.577
64.50000 -1.142
64.52000 -0.691
64.54000 1.266
64.56000 4.081
64.58000 0.470
64.60000 -0.571
64.62000 -1.866
64.64000 3.434
64.66000 2.124
64.68000 0.286
64.70000 2.238
64.72000 1.007
64.74000 3.318
64.76000 2.669
64.78000 -0.047
64.80000 3.946
64.82000 3.761
64.84000 4.219
64.86000 5.400
64.88000 5.773
64.90000 3.265
64.92000 1.819
64.94000 -0.673
64.96000 3.535
64.98000 1.317
65.00000 1.076
65.02000 1.228
65.04000 1.231
65.06000 0.223
65.08000 3.004
65.10000 3.245
65.12000 4.316
65.14000 3.032
65.16000 2.443
65.18000 1.711
65.20000 3.844
65.22000 4.447
65.24000 4.616
65.26000 2.248
65.28000 2.672
65.30000 -1.065
65.32000 -2.527
65.34000 0.884
65.36000 1.974
65.38000 0.027
65.40000 3.365
65.42000 3.156
65.44000 4.531
65.46000 4.949
65.48000 2.673
65.50000 -0.898
65.52000 0.521
65.54000 0.901
65.56000 1.292
65.58000 0.648
65.60000 1.090
65.62000 1.246
65.64000 2.258
65.66000 4.414
65.68000 3.888
65.70000 5.011
65.72000 3.152
65.74000 6.093
65.76000 4.730
65.78000 0.576
65.80000 -1.265
65.82000 1.152
65.84000 -2.538
65.86000 0.339
65.88000 -1.219
65.90000 1.150
65.92000 3.860
65.94000 3.119
65.96000 2.470
65.98000 -0.506
66.00000 0.790
66.02000 4.444
66.04000 0.172
66.06000 1.122
66.08000 0.086
66.10000 -1.138
66.12000 -0.016
66.14000 0.342
66.16000 0.459
66.18000 3.466
66.20000 1.241
66.22000 2.570
66.24000 0.768
66.26000 2.127
66.28000 2.988
66.30000 4.372
66.32000 3.190
66.34000 2.427
66.36000 4.452
66.38000 0.401
66.40000 -2.560
66.42000 1.898
66.44000 2.315
66.46000 4.210
66.48000 0.596
66.50000 0.859
66.52000 6.069
66.54000 3.223
66.56000 4.044
66.58000 0.523
66.60000 2.468
66.62000 1.411
66.64000 2.963
66.66000 2.046
66.68000 3.180
66.70000 3.973
66.72000 1.533
66.74000 -0.282
66.76000 -0.201
66.78000 1.750
66.80000 -0.282
66.82000 1.360
66.84000 4.965
66.86000 0.491
66.88000 0.945
66.90000 2.695
66.92000 -2.054
66.94000 -0.896
66.96000 -0.201
66.98000 4.217
67.00000 3.337
67.02000 1.313
67.04000 -1.997
67.06000 1.638
67.08000 -1.343
67.10000 -2.571
67.12000 -1.918
67.14000 0.156
67.16000 1.186
67.18000 3.606
67.20000 2.105
67.22000 2.900
67.24000 0.807
67.26000 0.950
67.28000 -0.559
67.30000 0.136
67.32000 1.042
67.34000 1.110
67.36000 2.572
67.38000 1.224
67.40000 0.761
67.42000 0.007
67.44000 2.434
67.46000 3.652
67.48000 4.228
67.50000 3.385
67.52000 3.590
67.54000 -0.753
67.56000 2.066
67.58000 3.343
67.60000 2.585
67.62000 1.831
67.64000 4.494
67.66000 4.315
67.68000 3.321
67.70000 5.072
67.72000 5.946
67.74000 7.796
67.76000 8.038
67.78000 5.632
67.80000 3.017
67.82000 4.955
67.84000 8.901
67.86000 7.452
67.88000 8.302
67.90000 7.561
67.92000 12.485
67.94000 7.897
67.96000 11.412
67.98000 11.186
68.00000 9.179
68.02000 8.394
68.04000 5.158
68.06000 9.262
68.08000 12.806
68.10000 13.823
68.12000 9.828
68.14000 6.777
68.16000 8.907
68.18000 14.235
68.20000 11.622
68.22000 12.593
68.24000 17.075
68.26000 13.610
68.28000 13.119
68.30000 17.003
68.32000 14.583
68.34000 15.019
68.36000 12.901
68.38000 11.189
68.40000 10.954
68.42000 10.923
68.44000 14.201
68.46000 15.721
68.48000 17.739
68.50000 18.120
68.52000 18.142
68.54000 15.122
68.56000 16.619
68.58000 16.697
68.60000 18.554
68.62000 18.556
68.64000 21.131
68.66000 20.152
68.68000 19.475
68.70000 21.071
68.72000 20.631
68.74000 22.321
68.76000 20.979
68.78000 17.335
68.80000 20.343
68.82000 25.388
68.84000 22.187
68.86000 17.211
68.88000 23.842
68.90000 24.700
68.92000 23.940
68.94000 22.323
68.96000 21.101
68.98000 21.621
69.00000 20.972
69.02000 24.866
69.04000 27.023
69.06000 25.814
69.08000 28.008
69.10000 27.340
69.12000 25.411
69.14000 25.171
69.16000 20.888
69.18000 20.670
69.20000 22.113
69.22000 22.012
69.24000 17.487
69.26000 20.076
69.28000 23.631
69.30000 20.739
69.32000 20.882
69.34000 17.746
69.36000 17.183
69.38000 18.425
69.40000 18.034
69.42000 15.104
69.44000 14.269
69.46000 15.864
69.48000 18.526
69.50000 19.226
69.52000 14.953
69.54000 13.909
69.56000 15.122
69.58000 13.516
69.60000 11.956
69.62000 11.915
69.64000 15.921
69.66000 14.286
69.68000 13.826
69.70000 13.009
69.72000 11.990
69.74000 10.730
69.76000 8.923
69.78000 8.449
69.80000 10.697
69.82000 10.564
69.84000 9.131
69.86000 8.155
69.88000 9.830
69.90000 14.074
69.92000 10.433
69.94000 4.505
69.96000 3.343
69.98000 6.777
70.00000 6.967
70.02000 4.442
70.04000 7.332
70.06000 10.097
70.08000 8.297
70.10000 8.263
70.12000 7.548
70.14000 5.485
70.16000 4.120
70.18000 2.993
70.20000 2.194
70.22000 6.288
70.24000 1.358
70.26000 -0.143
70.28000 -2.512
70.30000 3.999
70.32000 8.227
70.34000 5.783
70.36000 3.503
70.38000 5.151
70.40000 4.942
70.42000 1.940
70.44000 3.669
70.46000 2.662
70.48000 0.387
70.50000 2.130
70.52000 2.992
70.54000 -0.434
70.56000 -1.211
70.58000 1.456
70.60000 4.033
70.62000 0.922
70.64000 0.618
70.66000 1.056
70.68000 -1.397
70.70000 -0.488
70.72000 2.145
70.74000 0.769
70.76000 5.982
70.78000 2.164
70.80000 4.323
70.82000 3.516
70.84000 3.086
70.86000 0.185
70.88000 1.620
70.90000 -0.394
70.92000 -0.547
70.94000 -1.258
70.96000 0.124
70.98000 0.523
71.00000 -1.665
71.02000 -1.975
71.04000 -2.203
71.06000 -1.560
71.08000 -1.293
71.10000 3.216
71.12000 5.313
71.14000 3.258
71.16000 3.266
71.18000 2.674
71.20000 1.523
71.22000 5.726
71.24000 4.190
71.26000 -0.919
71.28000 -1.503
71.30000 0.979
71.32000 -1.838
71.34000 -2.269
71.36000 0.697
71.38000 1.124
71.40000 0.017
71.42000 2.758
71.44000 4.808
71.46000 4.715
71.48000 0.295
71.50000 4.179
71.52000 2.316
71.54000 3.248
71.56000 0.675
71.58000 -2.441
71.60000 0.302
71.62000 -0.413
71.64000 0.473
71.66000 -0.957
71.68000 1.468
71.70000 2.835
71.72000 2.157
71.74000 2.198
71.76000 1.672
71.78000 -1.022
71.80000 -0.698
71.82000 -1.356
71.84000 -0.156
71.86000 -0.805
71.88000 0.130
71.90000 1.576
71.92000 -0.238
71.94000 -1.511
71.96000 0.117
71.98000 -0.637
72.00000 -0.105
72.02000 1.593
72.04000 3.914
72.06000 1.207
72.08000 -1.427
72.10000 3.133
72.12000 1.517
72.14000 0.055
72.16000 -1.572
72.18000 1.075
72.20000 0.531
72.22000 2.178
72.24000 -0.215
72.26000 -0.515
72.28000 -0.002
72.30000 4.684
72.32000 9.488
72.34000 10.835
72.36000 4.295
72.38000 5.200
72.40000 5.249
72.42000 0.897
72.44000 -0.429
72.46000 0.590
72.48000 0.549
72.50000 1.103
72.52000 1.147
72.54000 7.044
72.56000 7.593
72.58000 7.870
72.60000 3.483
72.62000 2.640
72.64000 1.870
72.66000 0.726
72.68000 2.735
72.70000 2.771
72.72000 0.489
72.74000 2.313
72.76000 3.781
72.78000 1.861
72.80000 1.034
72.82000 5.780
72.84000 3.332
72.86000 0.243
72.88000 2.379
72.90000 0.240
72.92000 -2.328
72.94000 -0.121
72.96000 1.946
72.98000 3.178
73.00000 2.532
73.02000 -0.997
73.04000 -0.010
73.06000 2.765
73.08000 5.946
73.10000 2.536
73.12000 1.666
73.14000 1.256
73.16000 2.760
73.18000 4.221
73.20000 1.892
73.22000 -0.742
73.24000 2.904
73.26000 1.089
73.28000 -0.209
73.30000 0.689
73.32000 0.961
73.34000 2.695
73.36000 9.550
73.38000 6.822
73.40000 4.519
73.42000 4.980
73.44000 2.409
73.46000 4.017
73.48000 4.086
73.50000 3.452
73.52000 2.819
73.54000 4.422
73.56000 7.370
73.58000 4.004
73.60000 2.915
73.62000 6.763
73.64000 2.057
73.66000 3.089
73.68000 4.210
73.70000 0.507
73.72000 0.294
73.74000 1.715
73.76000 3.133
73.78000 7.892
73.80000 5.985
73.82000 6.567
73.84000 8.598
73.86000 7.377
73.88000 7.330
73.90000 3.234
73.92000 2.443
73.94000 4.387
73.96000 0.000
73.98000 1.947
74.00000 3.919
74.02000 0.387
74.04000 0.844
74.06000 2.004
74.08000 5.124
74.10000 5.286
74.12000 5.685
74.14000 1.815
74.16000 0.332
74.18000 1.715
74.20000 -2.341
74.22000 -1.473
74.24000 -0.621
74.26000 1.965
74.28000 5.553
74.30000 6.146
74.32000 4.395
74.34000 2.544
74.36000 1.784
74.38000 2.596
74.40000 -0.122
74.42000 3.077
74.44000 4.131
74.46000 5.771
74.48000 4.636
74.50000 3.708
74.52000 0.537
74.54000 3.635
74.56000 2.111
74.58000 0.363
74.60000 0.346
74.62000 0.786
74.64000 2.774
74.66000 4.849
74.68000 2.463
74.70000 2.883
74.72000 8.982
74.74000 5.394
74.76000 0.347
74.78000 -2.331
74.80000 -0.364
74.82000 0.076
74.84000 -0.239
74.86000 4.936
74.88000 6.559
74.90000 4.550
74.92000 3.057
74.94000 4.119
74.96000 4.221
74.98000 3.239
75.00000 3.402
75.02000 0.645
75.04000 4.581
75.06000 3.171
75.08000 3.102
75.10000 6.389
75.12000 3.822
75.14000 2.778
75.16000 3.985
75.18000 9.987
75.20000 4.324
75.22000 3.593
75.24000 4.204
75.26000 2.682
75.28000 2.617
75.30000 0.555
75.32000 5.861
75.34000 6.727
75.36000 8.036
75.38000 8.056
75.40000 7.111
75.42000 4.678
75.44000 -2.306
75.46000 1.490
75.48000 8.500
75.50000 2.977
75.52000 1.987
75.54000 3.857
75.56000 6.044
75.58000 2.290
75.60000 2.377
75.62000 6.222
75.64000 6.781
75.66000 5.761
75.68000 4.702
75.70000 5.939
75.72000 0.687
75.74000 1.202
75.76000 5.104
75.78000 1.929
75.80000 -0.071
75.82000 1.965
75.84000 1.847
75.86000 3.690
75.88000 5.954
75.90000 4.981
75.92000 11.005
75.94000 5.532
75.96000 1.855
75.98000 3.536
76.00000 7.541
76.02000 5.585
76.04000 5.481
76.06000 3.339
76.08000 2.649
76.10000 1.843
76.12000 1.376
76.14000 1.736
76.16000 4.712
76.18000 1.447
76.20000 1.602
76.22000 1.573
76.24000 2.673
76.26000 2.202
76.28000 3.339
76.30000 7.654
76.32000 3.271
76.34000 0.721
76.36000 0.673
76.38000 0.726
76.40000 2.307
76.42000 4.680
76.44000 1.561
76.46000 0.968
76.48000 2.567
76.50000 0.964
76.52000 2.391
76.54000 2.950
76.56000 0.144
76.58000 1.769
76.60000 1.435
76.62000 4.434
76.64000 5.042
76.66000 1.683
76.68000 -0.055
76.70000 1.578
76.72000 3.455
76.74000 0.654
76.76000 -0.183
76.78000 4.626
76.80000 5.657
76.82000 5.392
76.84000 0.856
76.86000 -0.356
76.88000 -0.572
76.90000 -1.439
76.92000 -2.319
76.94000 0.921
76.96000 5.971
76.98000 4.815
77.00000 1.770
77.02000 1.480
77.04000 1.052
77.06000 1.446
77.08000 2.579
77.10000 7.289
77.12000 6.321
77.14000 2.540
77.16000 3.186
77.18000 1.343
77.20000 4.559
77.22000 5.636
77.24000 0.442
77.26000 -2.341
77.28000 1.135
77.30000 4.037
77.32000 0.330
77.34000 2.021
77.36000 2.337
77.38000 2.280
77.40000 3.104
77.42000 1.806
77.44000 1.851
77.46000 9.456
77.48000 6.829
77.50000 3.332
77.52000 5.223
77.54000 1.879
77.56000 2.541
77.58000 2.625
77.60000 0.422
77.62000 -2.336
77.64000 0.406
77.66000 4.342
77.68000 2.145
77.70000 2.018
77.72000 3.195
77.74000 2.947
77.76000 8.815
77.78000 4.095
77.80000 1.430
77.82000 4.097
77.84000 1.903
77.86000 5.010
77.88000 7.465
77.90000 4.865
77.92000 3.419
77.94000 1.013
77.96000 0.722
77.98000 4.781
78.00000 3.007
78.02000 1.082
78.04000 2.051
78.06000 2.318
78.08000 1.992
78.10000 4.380
78.12000 6.433
78.14000 7.871
78.16000 3.103
78.18000 8.632
78.20000 8.742
78.22000 8.230
78.24000 6.696
78.26000 5.994
78.28000 2.584
78.30000 2.051
78.32000 6.727
78.34000 7.119
78.36000 8.854
78.38000 5.097
78.40000 7.213
78.42000 7.306
78.44000 3.106
78.46000 3.465
78.48000 4.228
78.50000 1.282
78.52000 3.041
78.54000 -0.100
78.56000 6.396
78.58000 3.392
78.60000 -2.121
78.62000 -0.467
78.64000 2.905
78.66000 3.319
78.68000 1.168
78.70000 5.932
78.72000 8.748
78.74000 2.923
78.76000 -2.336
78.78000 3.256
78.80000 3.385
78.82000 -0.670
78.84000 3.510
78.86000 1.123
78.88000 3.258
78.90000 2.968
78.92000 0.263
78.94000 2.463
78.96000 4.290
78.98000 9.329
79.00000 9.655
79.02000 1.488
79.04000 0.447
79.06000 2.759
79.08000 5.957
79.10000 8.108
79.12000 2.163
79.14000 1.161
79.16000 5.200
79.18000 5.910
79.20000 7.440
79.22000 6.153
79.24000 3.291
79.26000 4.295
79.28000 6.775
79.30000 3.445
79.32000 -1.309
79.34000 4.414
79.36000 3.950
79.38000 7.078
79.40000 7.843
79.42000 7.451
79.44000 6.968
79.46000 4.384
79.48000 -0.811
79.50000 1.818
79.52000 6.510
79.54000 -0.247
79.56000 1.471
79.58000 1.967
79.60000 -0.843
79.62000 -0.352
79.64000 2.343
79.66000 3.398
79.68000 4.403
79.70000 1.374
79.72000 5.329
79.74000 4.236
79.76000 1.018
79.78000 -0.709
79.80000 1.154
79.82000 3.402
79.84000 2.664
79.86000 1.033
79.88000 4.778
79.90000 5.736
79.92000 5.802
79.94000 1.238
79.96000 2.473
79.98000 3.444
80.00000 5.361
80.02000 3.875
80.04000 0.922
80.06000 -1.477
80.08000 1.253
80.10000 1.040
80.12000 0.274
80.14000 1.556
80.16000 2.560
80.18000 7.445
80.20000 5.766
80.22000 2.405
80.24000 6.247
80.26000 6.164
80.28000 1.518
80.30000 -1.612
80.32000 -2.427
80.34000 4.156
80.36000 1.512
80.38000 2.823
80.40000 2.472
80.42000 3.625
80.44000 5.349
80.46000 2.031
80.48000 4.162
80.50000 7.775
80.52000 2.343
80.54000 1.568
80.56000 3.648
80.58000 1.444
80.60000 0.772
80.62000 1.648
80.64000 3.733
80.66000 1.962
80.68000 2.170
80.70000 0.815
80.72000 4.698
80.74000 1.345
80.76000 -0.402
80.78000 3.657
80.80000 2.754
80.82000 4.362
80.84000 3.717
80.86000 6.394
80.88000 1.874
80.90000 0.629
80.92000 2.762
80.94000 4.689
80.96000 2.246
80.98000 0.212
81.00000 4.606
81.02000 -0.303
81.04000 -0.449
81.06000 1.303
81.08000 8.596
81.10000 7.771
81.12000 1.718
81.14000 1.480
81.16000 5.016
81.18000 0.868
81.20000 -1.657
81.22000 2.719
81.24000 3.375
81.26000 5.191
81.28000 -1.130
81.30000 -2.407
81.32000 -2.522
81.34000 0.013
81.36000 6.183
81.38000 3.417
81.40000 1.549
81.42000 0.896
81.44000 1.224
81.46000 3.745
81.48000 2.443
81.50000 3.857
81.52000 -0.824
81.54000 2.690
81.56000 7.158
81.58000 5.857
81.60000 2.250
81.62000 1.263
81.64000 1.355
81.66000 -1.371
81.68000 0.614
81.70000 7.545
81.72000 5.161
81.74000 3.427
81.76000 1.739
81.78000 3.534
81.80000 2.208
81.82000 6.193
81.84000 7.288
81.86000 6.416
81.88000 5.491
81.90000 5.730
81.92000 1.880
81.94000 2.574
81.96000 5.786
81.98000 4.525
82.00000 8.027
82.02000 5.959
82.04000 11.518
82.06000 14.830
82.08000 16.145
82.10000 11.033
82.12000 10.821
82.14000 11.782
82.16000 7.608
82.18000 6.038
82.20000 9.058
82.22000 10.760
82.24000 11.510
82.26000 14.039
82.28000 6.278
82.30000 6.410
82.32000 7.408
82.34000 11.463
82.36000 18.754
82.38000 13.885
82.40000 13.118
82.42000 17.394
82.44000 14.225
82.46000 16.302
82.48000 16.652
82.50000 16.040
82.52000 13.556
82.54000 14.568
82.56000 16.866
82.58000 18.683
82.60000 13.201
82.62000 12.285
82.64000 16.404
82.66000 17.691
82.68000 16.688
82.70000 18.658
82.72000 20.600
82.74000 21.249
82.76000 17.547
82.78000 18.433
82.80000 16.164
82.82000 24.378
82.84000 25.448
82.86000 20.845
82.88000 22.582
82.90000 22.792
82.92000 24.480
82.94000 24.226
82.96000 21.284
82.98000 17.848
83.00000 24.316
83.02000 24.523
83.04000 22.553
83.06000 16.926
83.08000 18.565
83.10000 18.779
83.12000 26.340
83.14000 21.500
83.16000 24.079
83.18000 23.684
83.20000 16.477
83.22000 12.841
83.24000 17.904
83.26000 18.743
83.28000 21.759
83.30000 20.673
83.32000 23.394
83.34000 19.795
83.36000 17.980
83.38000 19.467
83.40000 22.143
83.42000 21.274
83.44000 27.469
83.46000 24.891
83.48000 24.783
83.50000 25.506
83.52000 23.351
83.54000 23.348
83.56000 21.614
83.58000 17.110
83.60000 19.276
83.62000 17.384
83.64000 16.582
83.66000 17.353
83.68000 26.963
83.70000 26.410
83.72000 15.929
83.74000 17.510
83.76000 19.136
83.78000 21.136
83.80000 20.969
83.82000 15.152
83.84000 10.228
83.86000 18.928
83.88000 19.517
83.90000 14.604
83.92000 10.804
83.94000 13.417
83.96000 16.062
83.98000 9.857
84.00000 9.308
84.02000 12.000
84.04000 9.057
84.06000 9.025
84.08000 13.231
84.10000 12.434
84.12000 11.728
84.14000 7.529
84.16000 6.577
84.18000 8.283
84.20000 12.867
84.22000 15.810
84.24000 10.644
84.26000 11.340
84.28000 3.222
84.30000 7.882
84.32000 10.245
84.34000 7.285
84.36000 0.968
84.38000 1.873
84.40000 4.355
84.42000 6.199
84.44000 5.025
84.46000 6.438
84.48000 4.337
84.50000 5.611
84.52000 3.437
84.54000 4.916
84.56000 6.712
84.58000 3.609
84.60000 3.810
84.62000 8.361
84.64000 6.228
84.66000 9.899
84.68000 7.439
84.70000 3.233
84.72000 2.525
84.74000 -0.158
84.76000 2.204
84.78000 1.562
84.80000 1.177
84.82000 2.001
84.84000 -1.932
84.86000 1.342
84.88000 5.679
84.90000 6.630
84.92000 0.847
84.94000 3.078
84.96000 2.164
84.98000 -1.037
85.00000 1.612
85.02000 4.646
85.04000 5.432
85.06000 6.219
85.08000 1.557
85.10000 1.131
85.12000 4.358
85.14000 6.181
85.16000 6.702
85.18000 5.805
85.20000 2.344
85.22000 2.177
85.24000 3.180
85.26000 3.113
85.28000 1.422
85.30000 -0.995
85.32000 2.275
85.34000 3.665
85.36000 4.616
85.38000 5.577
85.40000 1.524
85.42000 2.218
85.44000 1.982
85.46000 5.491
85.48000 8.097
85.50000 1.269
85.52000 -2.399
85.54000 1.157
85.56000 4.341
85.58000 1.384
85.60000 2.893
85.62000 8.526
85.64000 2.380
85.66000 6.347
85.68000 2.968
85.70000 0.930
85.72000 1.139
85.74000 -0.615
85.76000 -0.132
85.78000 5.767
85.80000 8.304
85.82000 3.437
85.84000 2.215
85.86000 4.660
85.88000 1.776
85.90000 2.784
85.92000 6.686
85.94000 7.301
85.96000 5.694
85.98000 4.226
86.00000 8.519
86.02000 5.848
86.04000 3.169
86.06000 2.985
86.08000 1.250
86.10000 2.943
86.12000 0.509
86.14000 2.539
86.16000 4.056
86.18000 3.569
86.20000 3.692
86.22000 3.975
86.24000 5.070
86.26000 1.091
86.28000 -2.396
86.30000 -0.338
86.32000 7.780
86.34000 6.795
86.36000 3.214
86.38000 1.314
86.40000 -0.746
86.42000 0.841
86.44000 4.307
86.46000 1.889
86.48000 5.496
86.50000 8.411
86.52000 8.018
86.54000 6.554
86.56000 3.282
86.58000 5.884
86.60000 11.518
86.62000 12.306
86.64000 6.772
86.66000 3.643
86.68000 3.545
86.70000 6.225
86.72000 8.513
86.74000 5.800
86.76000 6.595
86.78000 4.565
86.80000 7.600
86.82000 5.619
86.84000 2.436
86.86000 5.784
86.88000 8.379
86.90000 7.555
86.92000 6.834
86.94000 14.640
86.96000 11.566
86.98000 6.309
87.00000 7.926
87.02000 7.222
87.04000 7.085
87.06000 11.471
87.08000 13.981
87.10000 9.563
87.12000 10.133
87.14000 13.526
87.16000 14.031
87.18000 11.551
87.20000 14.595
87.22000 16.458
87.24000 13.920
87.26000 11.582
87.28000 13.816
87.30000 15.691
87.32000 17.853
87.34000 20.375
87.36000 21.314
87.38000 19.301
87.40000 16.106
87.42000 12.143
87.44000 13.028
87.46000 17.878
87.48000 16.962
87.50000 15.358
87.52000 15.941
87.54000 18.836
87.56000 19.765
87.58000 19.760
87.60000 19.190
87.62000 18.082
87.64000 26.718
87.66000 27.286
87.68000 27.253
87.70000 18.988
87.72000 16.504
87.74000 18.650
87.76000 22.733
87.78000 24.522
87.80000 24.738
87.82000 19.427
87.84000 18.777
87.86000 18.578
87.88000 21.577
87.90000 17.706
87.92000 18.820
87.94000 14.714
87.96000 14.164
87.98000 16.264
88.00000 17.185
88.02000 15.336
88.04000 16.559
88.06000 16.988
88.08000 15.446
88.10000 15.811
88.12000 14.320
88.14000 16.955
88.16000 15.282
88.18000 16.379
88.20000 19.535
88.22000 17.699
88.24000 15.310
88.26000 14.324
88.28000 15.416
88.30000 13.894
88.32000 13.008
88.34000 11.210
88.36000 10.915
88.38000 12.078
88.40000 13.355
88.42000 15.089
88.44000 12.923
88.46000 12.381
88.48000 11.928
88.50000 13.697
88.52000 13.130
88.54000 10.903
88.56000 10.553
88.58000 15.715
88.60000 13.982
88.62000 8.197
88.64000 10.859
88.66000 12.717
88.68000 7.885
88.70000 6.105
88.72000 8.204
88.74000 10.327
88.76000 8.002
88.78000 6.045
88.80000 2.988
88.82000 2.558
88.84000 8.194
88.86000 4.803
88.88000 5.836
88.90000 3.483
88.92000 4.156
88.94000 6.716
88.96000 1.499
88.98000 -1.373
89.00000 2.328
89.02000 6.985
89.04000 6.429
89.06000 3.748
89.08000 0.868
89.10000 3.029
89.12000 8.761
89.14000 10.412
89.16000 -0.328
89.18000 1.487
89.20000 2.700
89.22000 4.889
89.24000 5.571
89.26000 2.152
89.28000 2.461
89.30000 6.817
89.32000 7.615
89.34000 6.687
89.36000 4.595
89.38000 -1.565
89.40000 -2.315
89.42000 2.753
89.44000 1.710
89.46000 -1.990
89.48000 -1.232
89.50000 0.748
89.52000 4.091
89.54000 5.714
89.56000 5.698
89.58000 0.424
89.60000 2.559
89.62000 3.692
89.64000 2.907
89.66000 3.822
89.68000 3.309
89.70000 3.795
89.72000 0.629
89.74000 5.236
89.76000 4.636
89.78000 6.845
89.80000 7.088
89.82000 6.061
89.84000 1.746
89.86000 0.909
89.88000 3.076
89.90000 8.250
89.92000 7.338
89.94000 4.924
89.96000 2.771
89.98000 1.609
90.00000 5.442
90.02000 6.370
90.04000 -0.980
90.06000 -2.228
90.08000 4.496
90.10000 7.620
90.12000 7.562
90.14000 4.785
90.16000 3.570
90.18000 3.234
90.20000 6.113
90.22000 4.496
90.24000 -0.710
90.26000 2.432
90.28000 1.341
90.30000 -0.173
90.32000 -2.202
90.34000 -0.922
90.36000 4.956
90.38000 2.927
90.40000 0.749
90.42000 3.439
90.44000 4.850
90.46000 2.082
90.48000 -0.363
90.50000 5.540
90.52000 2.567
90.54000 2.539
90.56000 1.177
90.58000 5.790
90.60000 10.344
90.62000 9.582
90.64000 8.143
90.66000 5.203
90.68000 3.194
90.70000 0.664
90.72000 -0.079
90.74000 1.446
90.76000 4.689
90.78000 -0.086
90.80000 -0.687
90.82000 1.761
90.84000 -0.154
90.86000 2.115
90.88000 2.954
90.90000 5.475
90.92000 4.723
90.94000 6.659
90.96000 6.792
90.98000 4.905
91.00000 5.839
91.02000 0.976
91.04000 3.941
91.06000 3.878
91.08000 6.175
91.10000 3.758
91.12000 4.054
91.14000 2.187
91.16000 2.381
91.18000 3.920
91.20000 5.293
91.22000 5.355
91.24000 3.761
91.26000 2.781
91.28000 4.128
91.30000 5.317
91.32000 0.346
91.34000 3.857
91.36000 4.706
91.38000 1.116
91.40000 -0.462
91.42000 -0.517
91.44000 -1.159
91.46000 -0.907
91.48000 5.513
91.50000 5.213
91.52000 5.922
91.54000 7.571
91.56000 6.271
91.58000 6.663
91.60000 5.517
91.62000 5.717
91.64000 1.738
91.66000 3.932
91.68000 6.645
91.70000 0.891
91.72000 -0.088
91.74000 0.965
91.76000 1.075
91.78000 -1.478
91.80000 -1.266
91.82000 3.951
91.84000 7.613
91.86000 6.188
91.88000 1.874
91.90000 3.780
91.92000 2.129
91.94000 5.540
91.96000 3.081
91.98000 8.612
92.00000 5.119
92.02000 2.650
92.04000 7.635
92.06000 5.009
92.08000 -0.076
92.10000 1.998
92.12000 7.451
92.14000 3.434
92.16000 4.253
92.18000 1.726
92.20000 -2.114
92.22000 0.643
92.24000 3.331
92.26000 5.990
92.28000 5.889
92.30000 8.137
92.32000 8.053
92.34000 3.226
92.36000 -2.033
92.38000 -2.214
92.40000 8.499
92.42000 6.509
92.44000 4.854
92.46000 5.248
92.48000 2.942
92.50000 0.833
92.52000 -0.770
92.54000 2.390
92.56000 6.860
92.58000 4.230
92.60000 -0.703
92.62000 4.869
92.64000 8.192
92.66000 6.580
92.68000 4.314
92.70000 5.038
92.72000 6.729
92.74000 7.841
92.76000 8.764
92.78000 4.989
92.80000 3.571
92.82000 2.353
92.84000 5.214
92.86000 2.674
92.88000 4.975
92.90000 5.489
92.92000 6.604
92.94000 3.116
92.96000 -2.190
92.98000 3.415
93.00000 8.539
93.02000 9.305
93.04000 6.506
93.06000 2.862
93.08000 6.109
93.10000 7.929
93.12000 6.697
93.14000 5.498
93.16000 5.160
93.18000 5.611
93.20000 7.032
93.22000 2.555
93.24000 9.966
93.26000 7.788
93.28000 6.181
93.30000 8.948
93.32000 4.593
93.34000 5.889
93.36000 3.185
93.38000 4.484
93.40000 6.892
93.42000 4.289
93.44000 7.251
93.46000 5.053
93.48000 5.013
93.50000 2.043
93.52000 3.628
93.54000 4.627
93.56000 6.934
93.58000 2.522
93.60000 0.188
93.62000 2.312
93.64000 7.541
93.66000 9.493
93.68000 2.467
93.70000 1.119
93.72000 -0.353
93.74000 3.621
93.76000 5.839
93.78000 2.241
93.80000 5.653
93.82000 6.546
93.84000 5.577
93.86000 2.691
93.88000 5.214
93.90000 10.958
93.92000 8.874
93.94000 4.944
93.96000 4.265
93.98000 2.684
94.00000 6.987
94.02000 4.604
94.04000 6.307
94.06000 3.435
94.08000 7.084
94.10000 7.117
94.12000 4.476
94.14000 5.133
94.16000 6.905
94.18000 5.405
94.20000 5.466
94.22000 3.660
94.24000 5.677
94.26000 7.933
94.28000 4.431
94.30000 6.737
94.32000 11.256
94.34000 10.269
94.36000 3.212
94.38000 1.933
94.40000 2.812
94.42000 6.785
94.44000 10.348
94.46000 9.082
94.48000 5.437
94.50000 1.298
94.52000 2.589
94.54000 1.038
94.56000 -1.918
94.58000 -2.205
94.60000 -0.560
94.62000 0.579
94.64000 4.265
94.66000 4.616
94.68000 8.157
94.70000 5.163
94.72000 8.875
94.74000 7.027
94.76000 3.269
94.78000 1.575
94.80000 1.235
94.82000 3.294
94.84000 4.453
94.86000 6.945
94.88000 10.810
94.90000 9.319
94.92000 8.832
94.94000 9.997
94.96000 8.535
94.98000 7.891
95.00000 5.699
95.02000 4.758
95.04000 6.739
95.06000 8.226
95.08000 10.830
95.10000 8.920
95.12000 6.113
95.14000 6.901
95.16000 1.972
95.18000 -1.239
95.20000 1.007
95.22000 4.010
95.24000 6.194
95.26000 -1.231
95.28000 1.691
95.30000 5.051
95.32000 2.666
95.34000 6.091
95.36000 4.311
95.38000 8.335
95.40000 4.795
95.42000 2.724
95.44000 1.555
95.46000 0.053
95.48000 -2.080
95.50000 3.205
95.52000 10.776
95.54000 10.118
95.56000 9.649
95.58000 3.267
95.60000 4.484
95.62000 5.097
95.64000 5.948
95.66000 6.672
95.68000 3.732
95.70000 3.587
95.72000 8.571
95.74000 5.137
95.76000 0.666
95.78000 -1.598
95.80000 3.327
95.82000 1.817
95.84000 1.702
95.86000 0.665
95.88000 -0.169
95.90000 2.878
95.92000 7.430
95.94000 7.537
95.96000 8.320
95.98000 8.636
96.00000 3.275
96.02000 1.271
96.04000 2.104
96.06000 7.916
96.08000 10.126
96.10000 9.263
96.12000 5.133
96.14000 7.323
96.16000 7.544
96.18000 3.061
96.20000 3.910
96.22000 5.831
96.24000 6.403
96.26000 5.252
96.28000 8.294
96.30000 4.570
96.32000 5.662
96.34000 8.767
96.36000 8.205
96.38000 7.252
96.40000 5.321
96.42000 2.221
96.44000 7.657
96.46000 10.210
96.48000 5.860
96.50000 9.021
96.52000 8.995
96.54000 3.602
96.56000 -2.042
96.58000 1.027
96.60000 7.114
96.62000 8.143
96.64000 2.479
96.66000 5.975
96.68000 6.057
96.70000 8.859
96.72000 9.010
96.74000 8.147
96.76000 10.154
96.78000 7.653
96.80000 10.097
96.82000 10.986
96.84000 6.642
96.86000 8.664
96.88000 13.129
96.90000 9.300
96.92000 3.774
96.94000 10.725
96.96000 10.119
96.98000 6.381
97.00000 6.998
97.02000 4.745
97.04000 4.822
97.06000 13.221
97.08000 8.808
97.10000 -2.119
97.12000 1.824
97.14000 8.612
97.16000 7.351
97.18000 4.616
97.20000 4.765
97.22000 9.230
97.24000 13.392
97.26000 7.641
97.28000 4.852
97.30000 8.972
97.32000 9.074
97.34000 8.603
97.36000 11.922
97.38000 7.259
97.40000 9.608
97.42000 7.468
97.44000 6.331
97.46000 2.755
97.48000 2.565
97.50000 5.872
97.52000 10.316
97.54000 11.462
97.56000 10.260
97.58000 4.117
97.60000 9.805
97.62000 12.214
97.64000 13.834
97.66000 4.678
97.68000 12.100
97.70000 15.221
97.72000 8.472
97.74000 8.837
97.76000 11.505
97.78000 8.033
97.80000 7.235
97.82000 2.856
97.84000 4.408
97.86000 6.863
97.88000 8.648
97.90000 8.062
97.92000 8.446
97.94000 4.039
97.96000 -1.996
97.98000 3.498
98.00000 7.041
98.02000 8.267
98.04000 6.064
98.06000 7.362
98.08000 4.174
98.10000 5.087
98.12000 9.299
98.14000 9.908
98.16000 7.566
98.18000 8.552
98.20000 4.152
98.22000 9.281
98.24000 2.135
98.26000 1.835
98.28000 3.608
98.30000 -0.269
98.32000 7.378
98.34000 11.064
98.36000 9.161
98.38000 6.044
98.40000 2.838
98.42000 4.104
98.44000 1.982
98.46000 7.357
98.48000 12.989
98.50000 12.939
98.52000 15.571
98.54000 4.310
98.56000 -0.391
98.58000 1.695
98.60000 4.707
98.62000 7.320
98.64000 9.484
98.66000 4.512
98.68000 -2.184
98.70000 6.079
98.72000 3.762
98.74000 6.916
98.76000 8.216
98.78000 1.581
98.80000 7.812
98.82000 9.776
98.84000 7.999
98.86000 10.610
98.88000 5.063
98.90000 9.377
98.92000 6.005
98.94000 0.313
98.96000 1.342
98.98000 8.911
99.00000 3.332
99.02000 7.423
99.04000 7.348
99.06000 -0.860
99.08000 2.231
99.10000 15.248
99.12000 6.503
99.14000 9.386
99.16000 -0.068
99.18000 4.375
99.20000 4.515
99.22000 3.740
99.24000 6.289
99.26000 4.211
99.28000 5.079
99.30000 3.028
99.32000 -1.327
99.34000 3.127
99.36000 12.104
99.38000 5.924
99.40000 4.356
99.42000 4.911
99.44000 6.953
99.46000 16.767
99.48000 17.340
99.50000 14.089
99.52000 8.400
99.54000 0.890
99.56000 2.356
99.58000 13.808
99.60000 8.333
99.62000 12.044
99.64000 6.298
99.66000 6.228
99.68000 6.010
99.70000 0.717
99.72000 -2.170
99.74000 -0.829
99.76000 2.742
99.78000 2.640
99.80000 4.126
99.82000 2.932
99.84000 3.513
99.86000 -0.697
99.88000 -2.253
99.90000 -2.299
99.92000 2.113
99.94000 -2.394
99.96000 -0.419
99.98000 0.000
