'Id: "0011389" Comment: "Integrate frame 0011389_Au-Ir-Rh_Au-Rich_XRD_Mapping-337-0000.gfrmwith cursor Wedge Cursor #5" Operator: "B?rgel" Anode: "Cu" Wavelength: "1.5406" Scantype: "2Theta (TwoTheta)" TimePerStep: "1" X: "-4.5" Y: "45" Z: "5.95" 
10.00000 0.000
10.02000 7.856
10.04000 6.380
10.06000 18.657
10.08000 19.090
10.10000 24.851
10.12000 24.168
10.14000 20.865
10.16000 27.383
10.18000 20.601
10.20000 5.451
10.22000 8.049
10.24000 8.675
10.26000 17.626
10.28000 16.322
10.30000 11.637
10.32000 20.161
10.34000 34.576
10.36000 21.435
10.38000 13.765
10.40000 16.174
10.42000 18.155
10.44000 19.356
10.46000 18.797
10.48000 13.450
10.50000 20.364
10.52000 20.877
10.54000 22.931
10.56000 23.689
10.58000 10.296
10.60000 8.788
10.62000 19.671
10.64000 26.751
10.66000 23.984
10.68000 34.838
10.70000 28.974
10.72000 16.229
10.74000 14.712
10.76000 29.829
10.78000 34.971
10.80000 20.842
10.82000 10.537
10.84000 18.520
10.86000 12.081
10.88000 19.191
10.90000 15.823
10.92000 21.737
10.94000 28.929
10.96000 19.869
10.98000 17.777
11.00000 20.656
11.02000 6.758
11.04000 22.748
11.06000 19.470
11.08000 19.179
11.10000 18.451
11.12000 11.140
11.14000 19.570
11.16000 36.445
11.18000 27.313
11.20000 25.955
11.22000 21.403
11.24000 14.828
11.26000 11.003
11.28000 11.833
11.30000 23.724
11.32000 30.102
11.34000 32.418
11.36000 27.480
11.38000 3.111
11.40000 0.537
11.42000 17.709
11.44000 25.698
11.46000 20.622
11.48000 15.284
11.50000 19.954
11.52000 8.185
11.54000 7.304
11.56000 6.427
11.58000 12.765
11.60000 14.106
11.62000 6.185
11.64000 16.403
11.66000 -1.429
11.68000 -0.528
11.70000 11.531
11.72000 20.652
11.74000 19.137
11.76000 18.358
11.78000 19.388
11.80000 15.043
11.82000 10.650
11.84000 10.125
11.86000 13.640
11.88000 13.540
11.90000 18.288
11.92000 24.869
11.94000 24.023
11.96000 27.972
11.98000 17.187
12.00000 10.345
12.02000 19.073
12.04000 21.729
12.06000 7.217
12.08000 5.096
12.10000 17.741
12.12000 21.004
12.14000 22.546
12.16000 29.852
12.18000 27.858
12.20000 29.122
12.22000 15.710
12.24000 17.982
12.26000 25.734
12.28000 20.459
12.30000 14.625
12.32000 19.868
12.34000 14.613
12.36000 7.590
12.38000 20.667
12.40000 23.516
12.42000 11.201
12.44000 9.351
12.46000 18.744
12.48000 11.364
12.50000 2.564
12.52000 7.716
12.54000 -0.825
12.56000 -1.591
12.58000 18.682
12.60000 15.036
12.62000 15.018
12.64000 8.946
12.66000 9.938
12.68000 15.807
12.70000 10.928
12.72000 3.981
12.74000 5.075
12.76000 7.175
12.78000 8.241
12.80000 5.475
12.82000 13.197
12.84000 15.538
12.86000 11.064
12.88000 12.816
12.90000 7.625
12.92000 12.540
12.94000 13.068
12.96000 19.536
12.98000 23.164
13.00000 19.228
13.02000 25.230
13.04000 21.191
13.06000 22.881
13.08000 25.243
13.10000 18.476
13.12000 14.161
13.14000 18.121
13.16000 15.746
13.18000 10.603
13.20000 17.636
13.22000 17.348
13.24000 14.022
13.26000 5.112
13.28000 -2.338
13.30000 8.580
13.32000 18.794
13.34000 17.306
13.36000 10.277
13.38000 12.008
13.40000 6.973
13.42000 6.487
13.44000 12.563
13.46000 15.211
13.48000 10.023
13.50000 13.457
13.52000 7.544
13.54000 12.690
13.56000 12.374
13.58000 12.420
13.60000 9.678
13.62000 3.618
13.64000 -2.517
13.66000 7.510
13.68000 22.532
13.70000 24.873
13.72000 17.555
13.74000 2.758
13.76000 7.014
13.78000 10.465
13.80000 12.299
13.82000 2.239
13.84000 0.124
13.86000 10.293
13.88000 10.711
13.90000 7.419
13.92000 7.620
13.94000 5.680
13.96000 1.446
13.98000 5.194
14.00000 7.564
14.02000 10.324
14.04000 9.637
14.06000 8.640
14.08000 5.409
14.10000 5.428
14.12000 10.209
14.14000 12.320
14.16000 13.274
14.18000 6.275
14.20000 2.321
14.22000 10.580
14.24000 16.527
14.26000 9.453
14.28000 9.890
14.30000 2.724
14.32000 -4.538
14.34000 3.417
14.36000 4.291
14.38000 -2.183
14.40000 1.452
14.42000 8.832
14.44000 3.668
14.46000 4.475
14.48000 10.628
14.50000 14.005
14.52000 11.741
14.54000 8.867
14.56000 8.767
14.58000 4.747
14.60000 5.242
14.62000 7.751
14.64000 14.152
14.66000 3.234
14.68000 8.361
14.70000 6.927
14.72000 6.306
14.74000 6.671
14.76000 5.667
14.78000 -0.888
14.80000 6.458
14.82000 13.523
14.84000 17.098
14.86000 26.215
14.88000 23.693
14.90000 18.426
14.92000 10.864
14.94000 7.466
14.96000 6.531
14.98000 8.460
15.00000 7.571
15.02000 12.461
15.04000 18.597
15.06000 19.646
15.08000 11.409
15.10000 6.443
15.12000 11.539
15.14000 3.080
15.16000 7.181
15.18000 15.635
15.20000 10.350
15.22000 0.666
15.24000 0.627
15.26000 4.475
15.28000 12.685
15.30000 21.918
15.32000 20.396
15.34000 11.689
15.36000 9.405
15.38000 0.655
15.40000 -4.498
15.42000 12.158
15.44000 15.023
15.46000 9.416
15.48000 11.749
15.50000 1.665
15.52000 0.885
15.54000 -3.522
15.56000 -3.131
15.58000 -2.095
15.60000 4.370
15.62000 9.644
15.64000 8.751
15.66000 7.676
15.68000 6.938
15.70000 3.217
15.72000 7.949
15.74000 9.201
15.76000 4.457
15.78000 5.436
15.80000 5.675
15.82000 8.438
15.84000 2.559
15.86000 -0.597
15.88000 3.434
15.90000 6.875
15.92000 9.696
15.94000 4.404
15.96000 7.202
15.98000 6.417
16.00000 5.473
16.02000 13.583
16.04000 10.415
16.06000 1.942
16.08000 0.182
16.10000 10.233
16.12000 3.102
16.14000 5.147
16.16000 3.869
16.18000 1.927
16.20000 6.270
16.22000 7.154
16.24000 2.647
16.26000 -3.211
16.28000 1.448
16.30000 5.288
16.32000 0.175
16.34000 6.366
16.36000 8.855
16.38000 2.097
16.40000 -1.796
16.42000 -1.251
16.44000 -3.425
16.46000 3.501
16.48000 10.981
16.50000 5.669
16.52000 7.901
16.54000 12.421
16.56000 10.279
16.58000 6.389
16.60000 4.475
16.62000 7.856
16.64000 9.545
16.66000 12.049
16.68000 9.912
16.70000 6.695
16.72000 8.484
16.74000 9.813
16.76000 6.099
16.78000 3.666
16.80000 -1.048
16.82000 -3.462
16.84000 -2.289
16.86000 3.959
16.88000 9.888
16.90000 6.391
16.92000 4.312
16.94000 6.309
16.96000 4.416
16.98000 6.300
17.00000 10.081
17.02000 5.846
17.04000 6.518
17.06000 5.289
17.08000 4.640
17.10000 1.969
17.12000 7.139
17.14000 10.906
17.16000 13.889
17.18000 10.227
17.20000 2.435
17.22000 5.500
17.24000 4.814
17.26000 4.838
17.28000 6.614
17.30000 6.231
17.32000 3.575
17.34000 7.449
17.36000 11.157
17.38000 13.981
17.40000 11.107
17.42000 6.634
17.44000 4.238
17.46000 -2.323
17.48000 -4.426
17.50000 -0.130
17.52000 0.961
17.54000 7.412
17.56000 6.478
17.58000 1.634
17.60000 4.114
17.62000 8.119
17.64000 6.138
17.66000 0.436
17.68000 7.326
17.70000 -0.861
17.72000 0.748
17.74000 13.565
17.76000 10.933
17.78000 12.490
17.80000 5.698
17.82000 0.855
17.84000 -0.733
17.86000 2.978
17.88000 7.707
17.90000 4.745
17.92000 7.730
17.94000 6.285
17.96000 6.970
17.98000 7.124
18.00000 4.688
18.02000 -0.001
18.04000 -0.945
18.06000 5.932
18.08000 1.686
18.10000 1.050
18.12000 3.126
18.14000 3.261
18.16000 1.880
18.18000 9.186
18.20000 6.497
18.22000 9.991
18.24000 8.790
18.26000 10.689
18.28000 8.721
18.30000 11.725
18.32000 11.541
18.34000 5.016
18.36000 8.565
18.38000 5.481
18.40000 6.898
18.42000 11.160
18.44000 1.911
18.46000 3.796
18.48000 2.960
18.50000 4.620
18.52000 8.797
18.54000 8.965
18.56000 5.244
18.58000 5.970
18.60000 10.691
18.62000 6.442
18.64000 7.408
18.66000 7.442
18.68000 -4.343
18.70000 -2.149
18.72000 -2.024
18.74000 -1.947
18.76000 0.954
18.78000 10.223
18.80000 9.975
18.82000 3.789
18.84000 4.485
18.86000 6.071
18.88000 2.256
18.90000 9.018
18.92000 6.240
18.94000 5.309
18.96000 6.650
18.98000 10.934
19.00000 8.057
19.02000 -1.240
19.04000 6.890
19.06000 12.135
19.08000 5.226
19.10000 0.966
19.12000 0.939
19.14000 3.281
19.16000 7.444
19.18000 4.433
19.20000 -2.475
19.22000 3.388
19.24000 7.650
19.26000 11.409
19.28000 11.069
19.30000 7.948
19.32000 10.573
19.34000 2.613
19.36000 3.273
19.38000 3.317
19.40000 9.235
19.42000 5.848
19.44000 1.847
19.46000 8.786
19.48000 5.713
19.50000 9.356
19.52000 8.639
19.54000 4.270
19.56000 1.317
19.58000 1.361
19.60000 8.698
19.62000 12.584
19.64000 10.246
19.66000 0.233
19.68000 -4.251
19.70000 1.344
19.72000 9.567
19.74000 12.265
19.76000 13.996
19.78000 15.582
19.80000 13.051
19.82000 2.632
19.84000 3.696
19.86000 5.909
19.88000 9.416
19.90000 7.836
19.92000 6.010
19.94000 5.296
19.96000 11.309
19.98000 3.191
20.00000 9.790
20.02000 10.012
20.04000 0.007
20.06000 1.850
20.08000 3.262
20.10000 3.647
20.12000 5.989
20.14000 9.144
20.16000 5.533
20.18000 1.718
20.20000 5.027
20.22000 3.481
20.24000 2.672
20.26000 2.554
20.28000 0.698
20.30000 5.836
20.32000 5.043
20.34000 -0.463
20.36000 3.476
20.38000 4.480
20.40000 10.358
20.42000 7.523
20.44000 8.547
20.46000 7.416
20.48000 8.984
20.50000 6.437
20.52000 6.293
20.54000 8.923
20.56000 5.608
20.58000 0.865
20.60000 3.554
20.62000 8.598
20.64000 2.791
20.66000 8.478
20.68000 4.563
20.70000 0.551
20.72000 2.561
20.74000 8.254
20.76000 12.886
20.78000 2.506
20.80000 5.376
20.82000 6.788
20.84000 7.649
20.86000 4.376
20.88000 5.420
20.90000 -4.214
20.92000 0.997
20.94000 -2.705
20.96000 -2.973
20.98000 -3.905
21.00000 -2.533
21.02000 3.149
21.04000 3.871
21.06000 -1.848
21.08000 -2.960
21.10000 -0.085
21.12000 3.539
21.14000 -0.853
21.16000 3.820
21.18000 6.006
21.20000 0.445
21.22000 6.156
21.24000 3.797
21.26000 4.356
21.28000 7.798
21.30000 12.462
21.32000 5.635
21.34000 2.048
21.36000 0.350
21.38000 5.144
21.40000 5.731
21.42000 1.770
21.44000 1.256
21.46000 3.015
21.48000 8.339
21.50000 9.003
21.52000 0.861
21.54000 -3.402
21.56000 -1.972
21.58000 3.828
21.60000 0.949
21.62000 -2.894
21.64000 0.103
21.66000 3.989
21.68000 5.422
21.70000 4.425
21.72000 -1.511
21.74000 3.457
21.76000 4.306
21.78000 0.179
21.80000 3.080
21.82000 2.273
21.84000 2.572
21.86000 -1.924
21.88000 3.534
21.90000 2.769
21.92000 5.459
21.94000 12.509
21.96000 12.789
21.98000 3.483
22.00000 3.047
22.02000 3.539
22.04000 2.610
22.06000 3.326
22.08000 1.458
22.10000 3.467
22.12000 11.010
22.14000 5.005
22.16000 0.191
22.18000 -1.727
22.20000 2.060
22.22000 -0.110
22.24000 2.907
22.26000 4.286
22.28000 2.871
22.30000 2.685
22.32000 5.175
22.34000 3.893
22.36000 3.617
22.38000 -2.635
22.40000 8.085
22.42000 8.007
22.44000 -2.763
22.46000 -2.325
22.48000 -4.114
22.50000 3.500
22.52000 7.561
22.54000 2.756
22.56000 0.234
22.58000 0.438
22.60000 5.655
22.62000 1.631
22.64000 4.123
22.66000 0.457
22.68000 -2.574
22.70000 7.392
22.72000 4.733
22.74000 6.820
22.76000 7.069
22.78000 6.513
22.80000 2.472
22.82000 3.254
22.84000 7.125
22.86000 2.905
22.88000 0.449
22.90000 3.768
22.92000 7.695
22.94000 -2.912
22.96000 5.222
22.98000 3.551
23.00000 -2.849
23.02000 -2.368
23.04000 2.994
23.06000 3.497
23.08000 6.697
23.10000 8.097
23.12000 4.293
23.14000 5.266
23.16000 4.150
23.18000 -0.043
23.20000 -0.257
23.22000 0.203
23.24000 6.476
23.26000 6.445
23.28000 9.584
23.30000 0.748
23.32000 -2.934
23.34000 -2.650
23.36000 -2.364
23.38000 3.781
23.40000 7.009
23.42000 2.250
23.44000 -0.123
23.46000 7.674
23.48000 9.473
23.50000 1.451
23.52000 0.340
23.54000 0.062
23.56000 3.259
23.58000 -4.065
23.60000 -2.974
23.62000 3.337
23.64000 -0.537
23.66000 4.499
23.68000 5.018
23.70000 5.485
23.72000 1.680
23.74000 0.467
23.76000 2.797
23.78000 2.019
23.80000 -0.768
23.82000 2.358
23.84000 4.382
23.86000 1.358
23.88000 8.814
23.90000 -3.210
23.92000 1.111
23.94000 0.667
23.96000 -1.336
23.98000 4.719
24.00000 3.573
24.02000 -0.309
24.04000 5.118
24.06000 1.509
24.08000 0.239
24.10000 1.600
24.12000 -0.008
24.14000 -0.749
24.16000 -3.115
24.18000 1.709
24.20000 2.489
24.22000 1.275
24.24000 -1.440
24.26000 -1.613
24.28000 0.960
24.30000 2.975
24.32000 1.698
24.34000 2.844
24.36000 -1.109
24.38000 -1.336
24.40000 -2.085
24.42000 0.847
24.44000 8.644
24.46000 8.031
24.48000 4.819
24.50000 -2.086
24.52000 -0.127
24.54000 1.416
24.56000 1.563
24.58000 -0.597
24.60000 5.656
24.62000 3.346
24.64000 1.602
24.66000 -1.759
24.68000 3.121
24.70000 1.458
24.72000 -2.237
24.74000 -1.749
24.76000 2.356
24.78000 -4.011
24.80000 -1.839
24.82000 2.377
24.84000 0.605
24.86000 3.835
24.88000 5.088
24.90000 -0.295
24.92000 3.076
24.94000 -0.910
24.96000 0.034
24.98000 1.223
25.00000 1.551
25.02000 1.918
25.04000 0.697
25.06000 2.663
25.08000 -1.959
25.10000 -1.106
25.12000 -0.523
25.14000 2.208
25.16000 0.041
25.18000 1.406
25.20000 2.097
25.22000 -0.630
25.24000 1.968
25.26000 1.874
25.28000 3.276
25.30000 -0.668
25.32000 2.792
25.34000 2.240
25.36000 -0.824
25.38000 1.475
25.40000 -1.261
25.42000 -0.965
25.44000 0.834
25.46000 2.984
25.48000 4.417
25.50000 0.254
25.52000 -1.279
25.54000 1.310
25.56000 6.557
25.58000 3.793
25.60000 3.384
25.62000 4.339
25.64000 4.387
25.66000 0.519
25.68000 -0.553
25.70000 -3.617
25.72000 -2.113
25.74000 3.775
25.76000 8.460
25.78000 5.601
25.80000 2.700
25.82000 1.540
25.84000 -3.303
25.86000 -2.683
25.88000 1.759
25.90000 6.058
25.92000 1.597
25.94000 0.124
25.96000 2.092
25.98000 4.590
26.00000 3.454
26.02000 0.697
26.04000 -3.563
26.06000 0.733
26.08000 3.457
26.10000 2.843
26.12000 1.394
26.14000 6.116
26.16000 4.496
26.18000 1.096
26.20000 -2.047
26.22000 0.202
26.24000 1.646
26.26000 6.263
26.28000 3.687
26.30000 1.441
26.32000 -0.949
26.34000 -2.506
26.36000 -3.437
26.38000 -2.876
26.40000 1.354
26.42000 3.466
26.44000 2.093
26.46000 4.721
26.48000 8.632
26.50000 10.119
26.52000 5.196
26.54000 5.111
26.56000 2.292
26.58000 -3.444
26.60000 -3.178
26.62000 1.253
26.64000 -3.450
26.66000 1.070
26.68000 2.296
26.70000 5.162
26.72000 6.752
26.74000 5.112
26.76000 4.729
26.78000 7.550
26.80000 7.562
26.82000 3.292
26.84000 4.780
26.86000 5.941
26.88000 3.431
26.90000 1.609
26.92000 3.776
26.94000 5.296
26.96000 9.686
26.98000 2.971
27.00000 4.048
27.02000 8.609
27.04000 11.612
27.06000 10.126
27.08000 5.879
27.10000 0.864
27.12000 7.144
27.14000 5.807
27.16000 6.172
27.18000 0.750
27.20000 -1.980
27.22000 4.527
27.24000 4.475
27.26000 4.324
27.28000 7.814
27.30000 3.292
27.32000 5.864
27.34000 4.810
27.36000 5.722
27.38000 10.182
27.40000 10.271
27.42000 7.644
27.44000 2.593
27.46000 -3.828
27.48000 3.725
27.50000 8.005
27.52000 8.422
27.54000 4.960
27.56000 3.565
27.58000 4.935
27.60000 5.629
27.62000 -0.645
27.64000 -0.263
27.66000 4.520
27.68000 2.030
27.70000 -2.882
27.72000 3.408
27.74000 5.693
27.76000 5.479
27.78000 3.649
27.80000 3.550
27.82000 6.209
27.84000 4.246
27.86000 3.430
27.88000 1.368
27.90000 3.875
27.92000 8.253
27.94000 8.914
27.96000 10.245
27.98000 5.279
28.00000 1.069
28.02000 4.108
28.04000 3.511
28.06000 3.950
28.08000 3.520
28.10000 3.114
28.12000 2.817
28.14000 1.869
28.16000 6.402
28.18000 9.630
28.20000 2.838
28.22000 0.164
28.24000 1.132
28.26000 2.841
28.28000 8.668
28.30000 8.636
28.32000 3.112
28.34000 3.947
28.36000 4.587
28.38000 0.637
28.40000 0.903
28.42000 3.710
28.44000 2.578
28.46000 4.502
28.48000 -0.936
28.50000 6.043
28.52000 10.233
28.54000 10.643
28.56000 7.364
28.58000 1.133
28.60000 7.882
28.62000 3.561
28.64000 0.735
28.66000 4.966
28.68000 6.105
28.70000 2.461
28.72000 5.599
28.74000 1.014
28.76000 3.723
28.78000 2.254
28.80000 2.681
28.82000 2.358
28.84000 1.943
28.86000 0.199
28.88000 -1.998
28.90000 0.862
28.92000 1.717
28.94000 6.204
28.96000 9.580
28.98000 11.963
29.00000 2.128
29.02000 -1.210
29.04000 4.443
29.06000 6.785
29.08000 7.538
29.10000 3.435
29.12000 -0.168
29.14000 -2.032
29.16000 -2.756
29.18000 4.687
29.20000 6.333
29.22000 3.566
29.24000 -3.758
29.26000 -2.231
29.28000 -1.499
29.30000 4.520
29.32000 7.902
29.34000 8.604
29.36000 11.354
29.38000 7.606
29.40000 3.023
29.42000 1.522
29.44000 4.771
29.46000 6.707
29.48000 6.514
29.50000 4.668
29.52000 5.962
29.54000 9.877
29.56000 0.274
29.58000 -2.061
29.60000 -0.798
29.62000 5.979
29.64000 8.658
29.66000 10.650
29.68000 6.568
29.70000 6.308
29.72000 7.689
29.74000 5.746
29.76000 5.950
29.78000 -1.862
29.80000 3.033
29.82000 3.431
29.84000 2.809
29.86000 3.223
29.88000 5.434
29.90000 1.544
29.92000 2.717
29.94000 4.653
29.96000 5.546
29.98000 5.925
30.00000 5.371
30.02000 2.086
30.04000 1.957
30.06000 -2.478
30.08000 -2.826
30.10000 -1.904
30.12000 2.653
30.14000 1.944
30.16000 -0.608
30.18000 -3.614
30.20000 -0.924
30.22000 4.415
30.24000 0.468
30.26000 2.787
30.28000 1.694
30.30000 2.208
30.32000 -3.725
30.34000 -2.486
30.36000 3.463
30.38000 6.091
30.40000 7.453
30.42000 4.564
30.44000 2.522
30.46000 3.385
30.48000 3.116
30.50000 -1.113
30.52000 0.651
30.54000 2.598
30.56000 2.048
30.58000 1.842
30.60000 6.357
30.62000 5.431
30.64000 0.533
30.66000 -0.912
30.68000 5.890
30.70000 3.729
30.72000 4.220
30.74000 3.208
30.76000 5.460
30.78000 4.210
30.80000 3.173
30.82000 4.960
30.84000 5.353
30.86000 5.436
30.88000 2.120
30.90000 3.919
30.92000 1.952
30.94000 3.184
30.96000 5.959
30.98000 0.646
31.00000 3.289
31.02000 4.980
31.04000 2.020
31.06000 2.050
31.08000 0.356
31.10000 2.599
31.12000 0.050
31.14000 3.566
31.16000 3.813
31.18000 2.097
31.20000 -0.818
31.22000 -1.686
31.24000 -0.286
31.26000 -0.608
31.28000 2.659
31.30000 -3.015
31.32000 -2.521
31.34000 -0.571
31.36000 1.789
31.38000 0.500
31.40000 -2.225
31.42000 4.350
31.44000 9.098
31.46000 10.706
31.48000 6.211
31.50000 4.210
31.52000 4.019
31.54000 4.881
31.56000 4.916
31.58000 4.326
31.60000 -1.214
31.62000 1.234
31.64000 4.401
31.66000 5.198
31.68000 5.754
31.70000 6.000
31.72000 4.258
31.74000 -0.964
31.76000 -3.665
31.78000 3.251
31.80000 5.067
31.82000 5.639
31.84000 5.460
31.86000 0.235
31.88000 1.588
31.90000 5.593
31.92000 2.046
31.94000 1.082
31.96000 4.006
31.98000 0.656
32.00000 2.100
32.02000 0.003
32.04000 -2.484
32.06000 0.831
32.08000 1.436
32.10000 4.353
32.12000 8.384
32.14000 3.769
32.16000 -0.143
32.18000 -2.656
32.20000 0.228
32.22000 1.301
32.24000 2.227
32.26000 4.488
32.28000 5.178
32.30000 3.826
32.32000 2.370
32.34000 3.432
32.36000 -0.047
32.38000 1.711
32.40000 3.244
32.42000 3.068
32.44000 1.593
32.46000 4.976
32.48000 4.458
32.50000 1.021
32.52000 -2.235
32.54000 0.891
32.56000 -2.773
32.58000 0.689
32.60000 7.235
32.62000 6.236
32.64000 0.900
32.66000 2.522
32.68000 6.243
32.70000 3.491
32.72000 4.053
32.74000 3.219
32.76000 3.510
32.78000 4.297
32.80000 3.687
32.82000 6.033
32.84000 5.808
32.86000 5.070
32.88000 3.999
32.90000 2.264
32.92000 2.124
32.94000 8.845
32.96000 4.522
32.98000 5.538
33.00000 7.428
33.02000 6.090
33.04000 5.921
33.06000 4.106
33.08000 -0.141
33.10000 -3.632
33.12000 7.509
33.14000 9.795
33.16000 1.666
33.18000 0.726
33.20000 0.431
33.22000 -3.634
33.24000 1.597
33.26000 7.963
33.28000 7.981
33.30000 7.337
33.32000 6.165
33.34000 9.438
33.36000 7.888
33.38000 0.752
33.40000 3.215
33.42000 4.036
33.44000 4.215
33.46000 5.932
33.48000 5.845
33.50000 5.834
33.52000 3.682
33.54000 6.572
33.56000 6.719
33.58000 6.593
33.60000 4.276
33.62000 -2.051
33.64000 3.230
33.66000 4.834
33.68000 10.283
33.70000 8.681
33.72000 3.538
33.74000 -0.135
33.76000 -2.831
33.78000 0.770
33.80000 4.441
33.82000 4.221
33.84000 0.043
33.86000 5.357
33.88000 4.128
33.90000 1.604
33.92000 -2.232
33.94000 7.589
33.96000 9.598
33.98000 6.636
34.00000 7.416
34.02000 9.766
34.04000 1.380
34.06000 3.233
34.08000 4.513
34.10000 -0.452
34.12000 4.469
34.14000 12.549
34.16000 4.006
34.18000 2.531
34.20000 6.073
34.22000 4.237
34.24000 2.061
34.26000 -3.633
34.28000 0.308
34.30000 1.411
34.32000 1.262
34.34000 3.617
34.36000 9.927
34.38000 4.310
34.40000 7.088
34.42000 7.576
34.44000 4.139
34.46000 -1.876
34.48000 6.626
34.50000 1.815
34.52000 -2.489
34.54000 1.279
34.56000 0.247
34.58000 5.730
34.60000 3.635
34.62000 1.668
34.64000 -1.737
34.66000 5.162
34.68000 3.699
34.70000 0.448
34.72000 -1.808
34.74000 -3.289
34.76000 -1.461
34.78000 2.339
34.80000 5.510
34.82000 3.651
34.84000 0.259
34.86000 -3.394
34.88000 -0.786
34.90000 -0.884
34.92000 -0.231
34.94000 -1.349
34.96000 -3.621
34.98000 -3.546
35.00000 -3.656
35.02000 -1.577
35.04000 -0.320
35.06000 1.501
35.08000 0.167
35.10000 2.660
35.12000 6.796
35.14000 2.801
35.16000 1.806
35.18000 -1.266
35.20000 -1.832
35.22000 0.244
35.24000 -1.454
35.26000 -0.376
35.28000 0.546
35.30000 1.906
35.32000 -0.946
35.34000 -0.352
35.36000 0.242
35.38000 1.676
35.40000 2.346
35.42000 4.987
35.44000 2.668
35.46000 2.371
35.48000 1.678
35.50000 2.328
35.52000 1.545
35.54000 4.020
35.56000 6.803
35.58000 6.063
35.60000 2.226
35.62000 -3.662
35.64000 1.261
35.66000 2.245
35.68000 -0.590
35.70000 0.191
35.72000 2.557
35.74000 1.600
35.76000 0.935
35.78000 -0.895
35.80000 -3.675
35.82000 1.374
35.84000 1.409
35.86000 -1.027
35.88000 0.394
35.90000 2.202
35.92000 0.336
35.94000 2.043
35.96000 7.104
35.98000 7.344
36.00000 1.343
36.02000 0.859
36.04000 -0.475
36.06000 0.678
36.08000 0.886
36.10000 3.500
36.12000 2.598
36.14000 0.532
36.16000 -3.538
36.18000 -0.534
36.20000 5.855
36.22000 5.061
36.24000 4.021
36.26000 2.423
36.28000 3.587
36.30000 3.329
36.32000 1.069
36.34000 2.194
36.36000 6.025
36.38000 1.244
36.40000 -2.049
36.42000 -1.519
36.44000 -0.197
36.46000 0.988
36.48000 2.544
36.50000 9.522
36.52000 3.861
36.54000 -1.119
36.56000 2.290
36.58000 4.198
36.60000 12.468
36.62000 13.373
36.64000 11.597
36.66000 9.904
36.68000 8.400
36.70000 2.769
36.72000 3.718
36.74000 7.582
36.76000 6.988
36.78000 12.209
36.80000 9.025
36.82000 7.069
36.84000 6.379
36.86000 9.117
36.88000 10.340
36.90000 7.885
36.92000 4.609
36.94000 3.665
36.96000 8.779
36.98000 4.842
37.00000 7.663
37.02000 6.106
37.04000 15.413
37.06000 7.753
37.08000 9.215
37.10000 10.728
37.12000 13.691
37.14000 10.916
37.16000 13.939
37.18000 15.038
37.20000 19.356
37.22000 15.649
37.24000 14.950
37.26000 23.571
37.28000 26.509
37.30000 22.976
37.32000 20.794
37.34000 20.402
37.36000 24.218
37.38000 20.774
37.40000 19.112
37.42000 25.634
37.44000 29.116
37.46000 25.440
37.48000 24.276
37.50000 23.157
37.52000 22.696
37.54000 21.321
37.56000 23.607
37.58000 26.666
37.60000 25.281
37.62000 28.945
37.64000 33.746
37.66000 32.778
37.68000 32.525
37.70000 39.645
37.72000 39.561
37.74000 32.425
37.76000 25.987
37.78000 34.441
37.80000 37.219
37.82000 34.957
37.84000 40.207
37.86000 41.432
37.88000 44.167
37.90000 48.249
37.92000 44.583
37.94000 47.925
37.96000 44.936
37.98000 43.280
38.00000 45.518
38.02000 50.008
38.04000 52.228
38.06000 48.151
38.08000 61.358
38.10000 64.800
38.12000 67.335
38.14000 70.433
38.16000 70.004
38.18000 80.593
38.20000 85.809
38.22000 83.668
38.24000 90.741
38.26000 91.215
38.28000 99.187
38.30000 113.775
38.32000 114.383
38.34000 116.095
38.36000 123.746
38.38000 134.440
38.40000 140.860
38.42000 144.524
38.44000 155.658
38.46000 165.360
38.48000 177.350
38.50000 193.023
38.52000 201.793
38.54000 210.047
38.56000 212.490
38.58000 219.510
38.60000 228.471
38.62000 241.119
38.64000 258.670
38.66000 269.157
38.68000 274.956
38.70000 281.326
38.72000 288.191
38.74000 296.526
38.76000 301.441
38.78000 310.589
38.80000 310.808
38.82000 308.761
38.84000 310.621
38.86000 305.054
38.88000 303.271
38.90000 291.039
38.92000 289.858
38.94000 280.733
38.96000 268.981
38.98000 269.303
39.00000 256.919
39.02000 248.459
39.04000 234.690
39.06000 229.032
39.08000 214.293
39.10000 190.267
39.12000 183.516
39.14000 176.206
39.16000 166.009
39.18000 159.392
39.20000 157.320
39.22000 146.703
39.24000 137.831
39.26000 132.096
39.28000 125.722
39.30000 116.443
39.32000 106.810
39.34000 100.109
39.36000 97.040
39.38000 93.397
39.40000 84.042
39.42000 79.899
39.44000 79.140
39.46000 80.298
39.48000 70.722
39.50000 60.078
39.52000 60.838
39.54000 60.912
39.56000 56.305
39.58000 54.704
39.60000 53.414
39.62000 51.160
39.64000 47.177
39.66000 46.819
39.68000 41.685
39.70000 39.004
39.72000 39.197
39.74000 36.205
39.76000 35.537
39.78000 32.189
39.80000 34.294
39.82000 35.195
39.84000 35.223
39.86000 35.292
39.88000 32.394
39.90000 27.964
39.92000 29.103
39.94000 30.024
39.96000 26.915
39.98000 27.126
40.00000 21.166
40.02000 19.887
40.04000 19.009
40.06000 18.563
40.08000 20.339
40.10000 22.280
40.12000 21.737
40.14000 18.942
40.16000 16.146
40.18000 15.021
40.20000 11.455
40.22000 10.065
40.24000 13.703
40.26000 12.579
40.28000 11.841
40.30000 15.483
40.32000 13.321
40.34000 11.618
40.36000 14.990
40.38000 12.553
40.40000 8.238
40.42000 8.733
40.44000 10.605
40.46000 11.586
40.48000 12.067
40.50000 7.020
40.52000 5.475
40.54000 6.019
40.56000 12.100
40.58000 13.931
40.60000 15.096
40.62000 9.439
40.64000 4.887
40.66000 5.905
40.68000 7.123
40.70000 4.211
40.72000 2.481
40.74000 8.015
40.76000 5.419
40.78000 7.430
40.80000 9.110
40.82000 8.020
40.84000 5.557
40.86000 3.903
40.88000 6.775
40.90000 6.853
40.92000 6.683
40.94000 10.445
40.96000 8.879
40.98000 3.843
41.00000 5.479
41.02000 3.100
41.04000 2.877
41.06000 7.351
41.08000 6.180
41.10000 3.256
41.12000 4.113
41.14000 3.749
41.16000 0.048
41.18000 -1.482
41.20000 0.335
41.22000 2.021
41.24000 3.023
41.26000 3.450
41.28000 1.725
41.30000 3.320
41.32000 2.967
41.34000 6.003
41.36000 2.428
41.38000 4.027
41.40000 1.210
41.42000 3.747
41.44000 1.012
41.46000 2.318
41.48000 -1.223
41.50000 -0.054
41.52000 1.108
41.54000 1.563
41.56000 1.960
41.58000 2.254
41.60000 2.346
41.62000 3.049
41.64000 8.108
41.66000 5.885
41.68000 -2.312
41.70000 -1.472
41.72000 -0.488
41.74000 -3.129
41.76000 -0.445
41.78000 0.584
41.80000 1.746
41.82000 3.476
41.84000 -0.556
41.86000 -2.530
41.88000 1.186
41.90000 0.154
41.92000 2.628
41.94000 5.053
41.96000 4.096
41.98000 5.419
42.00000 1.963
42.02000 0.656
42.04000 1.917
42.06000 -1.644
42.08000 1.355
42.10000 2.192
42.12000 1.114
42.14000 -3.405
42.16000 0.892
42.18000 3.099
42.20000 0.555
42.22000 -0.625
42.24000 -0.507
42.26000 0.168
42.28000 1.955
42.30000 0.229
42.32000 1.123
42.34000 0.898
42.36000 -2.072
42.38000 2.298
42.40000 2.887
42.42000 -0.308
42.44000 2.855
42.46000 -0.022
42.48000 0.537
42.50000 -1.791
42.52000 3.415
42.54000 3.426
42.56000 1.410
42.58000 -1.300
42.60000 -0.223
42.62000 1.553
42.64000 1.992
42.66000 -2.047
42.68000 -2.413
42.70000 -1.628
42.72000 0.223
42.74000 2.731
42.76000 0.419
42.78000 -2.351
42.80000 -1.448
42.82000 0.502
42.84000 -0.769
42.86000 -1.565
42.88000 -0.587
42.90000 4.541
42.92000 1.802
42.94000 0.174
42.96000 -3.335
42.98000 1.587
43.00000 0.123
43.02000 0.098
43.04000 2.860
43.06000 1.921
43.08000 0.361
43.10000 -2.096
43.12000 1.166
43.14000 3.649
43.16000 5.212
43.18000 2.596
43.20000 2.470
43.22000 1.558
43.24000 -0.186
43.26000 -0.852
43.28000 1.245
43.30000 0.480
43.32000 0.503
43.34000 -0.719
43.36000 -3.318
43.38000 -1.129
43.40000 1.464
43.42000 1.933
43.44000 4.553
43.46000 5.526
43.48000 0.122
43.50000 0.177
43.52000 -1.275
43.54000 -2.171
43.56000 -1.321
43.58000 1.583
43.60000 1.383
43.62000 1.739
43.64000 1.059
43.66000 2.160
43.68000 2.689
43.70000 6.343
43.72000 5.507
43.74000 1.164
43.76000 0.698
43.78000 0.168
43.80000 0.256
43.82000 -1.044
43.84000 0.843
43.86000 2.938
43.88000 0.287
43.90000 2.315
43.92000 3.440
43.94000 4.489
43.96000 3.598
43.98000 2.171
44.00000 2.786
44.02000 3.173
44.04000 5.688
44.06000 11.420
44.08000 9.038
44.10000 5.013
44.12000 8.755
44.14000 9.964
44.16000 11.393
44.18000 10.290
44.20000 10.464
44.22000 11.402
44.24000 9.254
44.26000 12.839
44.28000 11.384
44.30000 10.494
44.32000 15.822
44.34000 16.994
44.36000 18.603
44.38000 21.155
44.40000 22.853
44.42000 23.058
44.44000 21.370
44.46000 26.466
44.48000 20.693
44.50000 22.905
44.52000 28.116
44.54000 29.098
44.56000 31.048
44.58000 31.049
44.60000 32.061
44.62000 34.380
44.64000 38.032
44.66000 40.104
44.68000 43.062
44.70000 43.342
44.72000 46.413
44.74000 53.663
44.76000 58.057
44.78000 59.707
44.80000 67.034
44.82000 70.375
44.84000 70.360
44.86000 78.647
44.88000 82.221
44.90000 84.173
44.92000 88.751
44.94000 91.064
44.96000 91.666
44.98000 92.984
45.00000 94.156
45.02000 105.770
45.04000 105.538
45.06000 111.010
45.08000 118.037
45.10000 120.145
45.12000 123.232
45.14000 123.708
45.16000 125.527
45.18000 120.157
45.20000 119.346
45.22000 123.282
45.24000 122.340
45.26000 125.891
45.28000 118.188
45.30000 113.099
45.32000 114.560
45.34000 113.218
45.36000 105.536
45.38000 103.293
45.40000 106.173
45.42000 96.651
45.44000 95.450
45.46000 94.786
45.48000 86.296
45.50000 82.496
45.52000 83.250
45.54000 76.414
45.56000 72.980
45.58000 71.842
45.60000 67.244
45.62000 63.314
45.64000 61.606
45.66000 55.432
45.68000 54.803
45.70000 50.613
45.72000 47.263
45.74000 46.596
45.76000 40.710
45.78000 40.217
45.80000 34.804
45.82000 34.799
45.84000 35.471
45.86000 29.347
45.88000 24.839
45.90000 21.753
45.92000 19.342
45.94000 23.887
45.96000 22.148
45.98000 23.423
46.00000 21.624
46.02000 19.503
46.04000 15.772
46.06000 10.401
46.08000 12.734
46.10000 14.459
46.12000 12.076
46.14000 13.046
46.16000 8.856
46.18000 8.353
46.20000 12.075
46.22000 9.986
46.24000 6.358
46.26000 7.474
46.28000 8.107
46.30000 4.068
46.32000 3.290
46.34000 5.514
46.36000 3.692
46.38000 2.064
46.40000 3.909
46.42000 6.577
46.44000 5.923
46.46000 3.907
46.48000 3.204
46.50000 6.302
46.52000 2.860
46.54000 -0.434
46.56000 0.512
46.58000 -2.214
46.60000 0.421
46.62000 4.760
46.64000 0.890
46.66000 4.061
46.68000 4.319
46.70000 0.130
46.72000 1.807
46.74000 1.211
46.76000 -2.952
46.78000 3.476
46.80000 2.173
46.82000 -0.512
46.84000 3.289
46.86000 2.423
46.88000 3.225
46.90000 0.867
46.92000 6.230
46.94000 7.448
46.96000 3.087
46.98000 3.155
47.00000 3.917
47.02000 1.841
47.04000 2.363
47.06000 0.760
47.08000 1.867
47.10000 4.454
47.12000 0.664
47.14000 -2.896
47.16000 -1.796
47.18000 5.082
47.20000 5.127
47.22000 -1.196
47.24000 -2.578
47.26000 2.046
47.28000 7.678
47.30000 5.098
47.32000 2.845
47.34000 1.446
47.36000 3.180
47.38000 4.289
47.40000 3.649
47.42000 5.987
47.44000 6.115
47.46000 5.712
47.48000 4.191
47.50000 0.611
47.52000 1.727
47.54000 0.483
47.56000 -2.832
47.58000 -2.446
47.60000 3.972
47.62000 8.360
47.64000 7.201
47.66000 3.383
47.68000 3.100
47.70000 7.105
47.72000 5.140
47.74000 -0.687
47.76000 0.763
47.78000 2.287
47.80000 4.600
47.82000 0.092
47.84000 -2.801
47.86000 2.537
47.88000 6.847
47.90000 10.463
47.92000 6.710
47.94000 3.712
47.96000 2.308
47.98000 7.091
48.00000 4.633
48.02000 4.968
48.04000 5.048
48.06000 2.525
48.08000 8.550
48.10000 12.449
48.12000 8.186
48.14000 3.507
48.16000 6.077
48.18000 6.298
48.20000 4.014
48.22000 5.533
48.24000 3.738
48.26000 6.606
48.28000 5.910
48.30000 2.954
48.32000 -2.755
48.34000 0.293
48.36000 2.609
48.38000 3.948
48.40000 1.412
48.42000 1.252
48.44000 6.573
48.46000 9.301
48.48000 2.379
48.50000 0.459
48.52000 5.123
48.54000 7.725
48.56000 8.399
48.58000 7.695
48.60000 4.345
48.62000 2.245
48.64000 4.099
48.66000 1.781
48.68000 0.380
48.70000 -2.753
48.72000 1.601
48.74000 2.428
48.76000 1.526
48.78000 -1.681
48.80000 0.168
48.82000 -1.502
48.84000 -0.168
48.86000 -0.699
48.88000 1.290
48.90000 0.565
48.92000 1.711
48.94000 1.516
48.96000 5.830
48.98000 3.680
49.00000 3.965
49.02000 2.888
49.04000 2.020
49.06000 -0.984
49.08000 1.325
49.10000 1.449
49.12000 2.711
49.14000 -1.778
49.16000 1.686
49.18000 1.353
49.20000 0.057
49.22000 1.049
49.24000 3.006
49.26000 1.968
49.28000 0.599
49.30000 2.221
49.32000 2.865
49.34000 4.291
49.36000 3.088
49.38000 4.873
49.40000 7.321
49.42000 1.872
49.44000 0.179
49.46000 3.782
49.48000 5.129
49.50000 0.391
49.52000 -2.708
49.54000 0.850
49.56000 2.784
49.58000 1.775
49.60000 1.418
49.62000 2.164
49.64000 2.367
49.66000 2.391
49.68000 5.973
49.70000 4.906
49.72000 3.386
49.74000 1.910
49.76000 1.524
49.78000 2.005
49.80000 -1.893
49.82000 -0.868
49.84000 0.987
49.86000 2.023
49.88000 -0.417
49.90000 2.415
49.92000 2.680
49.94000 2.155
49.96000 3.846
49.98000 2.855
50.00000 -1.593
50.02000 -0.281
50.04000 0.027
50.06000 3.498
50.08000 3.149
50.10000 -1.495
50.12000 -0.538
50.14000 -2.707
50.16000 -1.528
50.18000 2.878
50.20000 5.331
50.22000 -0.596
50.24000 0.962
50.26000 0.606
50.28000 1.333
50.30000 2.574
50.32000 5.086
50.34000 1.201
50.36000 2.726
50.38000 5.392
50.40000 3.932
50.42000 4.604
50.44000 6.018
50.46000 5.385
50.48000 3.802
50.50000 4.275
50.52000 1.829
50.54000 3.372
50.56000 2.332
50.58000 3.578
50.60000 -0.235
50.62000 0.099
50.64000 0.157
50.66000 6.213
50.68000 3.067
50.70000 -1.329
50.72000 3.112
50.74000 1.584
50.76000 -0.720
50.78000 -2.665
50.80000 -0.898
50.82000 4.514
50.84000 4.712
50.86000 2.651
50.88000 1.705
50.90000 -2.669
50.92000 -2.064
50.94000 2.035
50.96000 4.557
50.98000 5.193
51.00000 2.711
51.02000 6.546
51.04000 3.124
51.06000 0.147
51.08000 0.147
51.10000 3.189
51.12000 -0.409
51.14000 1.434
51.16000 0.876
51.18000 0.097
51.20000 5.308
51.22000 3.496
51.24000 2.998
51.26000 0.464
51.28000 2.025
51.30000 2.379
51.32000 0.101
51.34000 -1.518
51.36000 -2.198
51.38000 0.047
51.40000 3.253
51.42000 -0.175
51.44000 -0.345
51.46000 1.933
51.48000 7.763
51.50000 5.287
51.52000 -1.243
51.54000 -1.248
51.56000 2.530
51.58000 -1.021
51.60000 2.386
51.62000 4.472
51.64000 3.583
51.66000 2.187
51.68000 4.320
51.70000 -0.554
51.72000 -0.447
51.74000 -2.679
51.76000 2.904
51.78000 1.271
51.80000 1.830
51.82000 2.661
51.84000 1.900
51.86000 -1.591
51.88000 -2.028
51.90000 1.331
51.92000 0.322
51.94000 4.385
51.96000 3.290
51.98000 -0.920
52.00000 3.854
52.02000 2.588
52.04000 3.684
52.06000 2.281
52.08000 1.204
52.10000 -1.593
52.12000 -1.550
52.14000 -0.570
52.16000 0.813
52.18000 3.638
52.20000 1.283
52.22000 0.048
52.24000 2.802
52.26000 3.449
52.28000 3.890
52.30000 -0.445
52.32000 -0.966
52.34000 0.199
52.36000 1.246
52.38000 2.197
52.40000 1.663
52.42000 1.812
52.44000 -1.542
52.46000 -2.393
52.48000 -1.284
52.50000 -1.228
52.52000 0.970
52.54000 4.266
52.56000 3.318
52.58000 3.514
52.60000 -1.094
52.62000 2.597
52.64000 -0.232
52.66000 -0.059
52.68000 3.477
52.70000 2.657
52.72000 3.343
52.74000 1.264
52.76000 2.286
52.78000 0.020
52.80000 -0.182
52.82000 -0.647
52.84000 1.132
52.86000 2.593
52.88000 -0.064
52.90000 0.709
52.92000 3.827
52.94000 4.048
52.96000 3.050
52.98000 2.379
53.00000 4.058
53.02000 3.868
53.04000 0.256
53.06000 -2.627
53.08000 2.786
53.10000 5.953
53.12000 4.832
53.14000 3.995
53.16000 2.395
53.18000 4.740
53.20000 4.097
53.22000 0.876
53.24000 -1.916
53.26000 0.117
53.28000 1.655
53.30000 2.421
53.32000 1.765
53.34000 0.468
53.36000 -0.680
53.38000 2.415
53.40000 4.511
53.42000 3.076
53.44000 4.777
53.46000 0.690
53.48000 1.172
53.50000 1.441
53.52000 6.410
53.54000 3.901
53.56000 4.583
53.58000 5.970
53.60000 7.791
53.62000 4.575
53.64000 7.888
53.66000 7.839
53.68000 2.948
53.70000 7.262
53.72000 1.648
53.74000 -2.573
53.76000 4.550
53.78000 6.935
53.80000 4.662
53.82000 4.613
53.84000 4.638
53.86000 5.830
53.88000 7.420
53.90000 6.392
53.92000 4.724
53.94000 1.017
53.96000 2.911
53.98000 4.356
54.00000 3.605
54.02000 2.607
54.04000 2.600
54.06000 4.834
54.08000 5.482
54.10000 7.480
54.12000 2.434
54.14000 4.320
54.16000 6.722
54.18000 8.348
54.20000 3.540
54.22000 6.206
54.24000 6.577
54.26000 3.567
54.28000 2.731
54.30000 0.799
54.32000 2.366
54.34000 2.177
54.36000 4.079
54.38000 3.183
54.40000 5.249
54.42000 5.139
54.44000 2.848
54.46000 0.970
54.48000 2.421
54.50000 1.297
54.52000 4.007
54.54000 6.149
54.56000 6.642
54.58000 9.450
54.60000 8.390
54.62000 7.237
54.64000 3.010
54.66000 -2.540
54.68000 2.405
54.70000 5.363
54.72000 7.120
54.74000 2.852
54.76000 0.788
54.78000 4.268
54.80000 4.318
54.82000 6.390
54.84000 4.588
54.86000 2.703
54.88000 5.759
54.90000 6.261
54.92000 6.286
54.94000 2.305
54.96000 2.418
54.98000 0.445
55.00000 4.260
55.02000 -2.279
55.04000 3.848
55.06000 2.517
55.08000 3.380
55.10000 0.520
55.12000 -1.010
55.14000 5.733
55.16000 4.371
55.18000 0.758
55.20000 8.454
55.22000 5.662
55.24000 2.374
55.26000 2.694
55.28000 4.007
55.30000 7.050
55.32000 5.565
55.34000 4.738
55.36000 6.191
55.38000 5.946
55.40000 4.920
55.42000 3.215
55.44000 1.216
55.46000 -0.215
55.48000 2.501
55.50000 6.139
55.52000 3.625
55.54000 2.991
55.56000 1.064
55.58000 0.923
55.60000 0.818
55.62000 6.684
55.64000 8.480
55.66000 4.569
55.68000 1.520
55.70000 1.754
55.72000 1.816
55.74000 0.949
55.76000 5.923
55.78000 7.766
55.80000 0.168
55.82000 -0.621
55.84000 0.363
55.86000 -0.128
55.88000 2.934
55.90000 0.985
55.92000 -1.956
55.94000 0.157
55.96000 4.451
55.98000 7.224
56.00000 4.898
56.02000 0.137
56.04000 5.472
56.06000 4.109
56.08000 2.615
56.10000 1.265
56.12000 -2.521
56.14000 1.794
56.16000 3.109
56.18000 3.690
56.20000 4.710
56.22000 4.788
56.24000 3.585
56.26000 -0.638
56.28000 0.444
56.30000 2.899
56.32000 2.199
56.34000 1.302
56.36000 1.767
56.38000 2.992
56.40000 1.526
56.42000 -0.176
56.44000 1.072
56.46000 2.212
56.48000 3.553
56.50000 3.334
56.52000 4.916
56.54000 6.128
56.56000 2.334
56.58000 -0.794
56.60000 5.195
56.62000 2.855
56.64000 -0.327
56.66000 2.975
56.68000 5.707
56.70000 5.829
56.72000 2.898
56.74000 5.419
56.76000 5.320
56.78000 5.379
56.80000 3.131
56.82000 3.410
56.84000 2.566
56.86000 5.760
56.88000 6.381
56.90000 4.699
56.92000 5.712
56.94000 2.336
56.96000 0.400
56.98000 -0.188
57.00000 3.161
57.02000 0.905
57.04000 0.998
57.06000 3.696
57.08000 -0.424
57.10000 4.873
57.12000 6.194
57.14000 6.240
57.16000 3.720
57.18000 3.245
57.20000 4.586
57.22000 3.707
57.24000 4.986
57.26000 1.090
57.28000 0.787
57.30000 1.091
57.32000 3.454
57.34000 6.604
57.36000 7.884
57.38000 1.087
57.40000 0.513
57.42000 5.905
57.44000 3.583
57.46000 3.711
57.48000 3.092
57.50000 1.355
57.52000 3.492
57.54000 0.238
57.56000 -0.862
57.58000 -0.922
57.60000 1.532
57.62000 4.591
57.64000 4.418
57.66000 2.583
57.68000 2.370
57.70000 6.021
57.72000 3.879
57.74000 5.292
57.76000 8.233
57.78000 0.330
57.80000 -1.645
57.82000 3.448
57.84000 2.772
57.86000 -0.727
57.88000 0.520
57.90000 0.148
57.92000 4.207
57.94000 -1.555
57.96000 -2.433
57.98000 3.348
58.00000 6.595
58.02000 5.619
58.04000 5.627
58.06000 4.515
58.08000 6.786
58.10000 4.699
58.12000 2.679
58.14000 3.367
58.16000 2.582
58.18000 5.727
58.20000 7.005
58.22000 3.221
58.24000 0.522
58.26000 1.285
58.28000 1.739
58.30000 5.718
58.32000 3.204
58.34000 1.724
58.36000 3.476
58.38000 1.686
58.40000 2.622
58.42000 3.264
58.44000 4.337
58.46000 3.987
58.48000 0.597
58.50000 5.408
58.52000 6.195
58.54000 7.501
58.56000 4.800
58.58000 0.468
58.60000 -0.635
58.62000 1.045
58.64000 2.945
58.66000 1.198
58.68000 1.130
58.70000 2.812
58.72000 0.710
58.74000 1.042
58.76000 4.234
58.78000 5.394
58.80000 2.064
58.82000 4.162
58.84000 5.035
58.86000 2.031
58.88000 1.622
58.90000 3.509
58.92000 2.282
58.94000 4.515
58.96000 4.308
58.98000 3.014
59.00000 0.978
59.02000 1.568
59.04000 1.642
59.06000 2.198
59.08000 3.875
59.10000 2.248
59.12000 2.044
59.14000 5.457
59.16000 4.058
59.18000 5.031
59.20000 5.476
59.22000 4.722
59.24000 4.665
59.26000 2.259
59.28000 3.089
59.30000 0.561
59.32000 3.276
59.34000 4.748
59.36000 2.221
59.38000 0.073
59.40000 3.152
59.42000 8.267
59.44000 2.931
59.46000 3.563
59.48000 4.889
59.50000 6.368
59.52000 4.346
59.54000 5.937
59.56000 5.261
59.58000 5.516
59.60000 3.303
59.62000 3.347
59.64000 3.543
59.66000 3.247
59.68000 4.375
59.70000 6.471
59.72000 4.707
59.74000 8.177
59.76000 5.229
59.78000 1.850
59.80000 1.913
59.82000 1.741
59.84000 0.953
59.86000 2.556
59.88000 5.101
59.90000 5.525
59.92000 3.470
59.94000 3.986
59.96000 2.813
59.98000 1.743
60.00000 0.966
60.02000 3.006
60.04000 3.981
60.06000 4.720
60.08000 4.185
60.10000 -2.366
60.12000 0.494
60.14000 4.665
60.16000 2.582
60.18000 1.696
60.20000 3.471
60.22000 1.785
60.24000 2.138
60.26000 -1.018
60.28000 2.729
60.30000 7.535
60.32000 4.270
60.34000 3.816
60.36000 0.314
60.38000 -0.901
60.40000 1.256
60.42000 3.944
60.44000 6.435
60.46000 5.723
60.48000 5.660
60.50000 1.947
60.52000 4.734
60.54000 2.443
60.56000 1.683
60.58000 1.779
60.60000 3.858
60.62000 3.492
60.64000 -0.926
60.66000 -0.206
60.68000 -1.235
60.70000 -0.951
60.72000 1.373
60.74000 -0.521
60.76000 -0.029
60.78000 2.919
60.80000 1.100
60.82000 2.678
60.84000 3.280
60.86000 6.611
60.88000 0.813
60.90000 -2.372
60.92000 0.869
60.94000 2.392
60.96000 -0.119
60.98000 1.951
61.00000 1.369
61.02000 0.107
61.04000 2.337
61.06000 4.093
61.08000 4.949
61.10000 1.514
61.12000 2.247
61.14000 -1.461
61.16000 1.432
61.18000 1.377
61.20000 3.283
61.22000 2.311
61.24000 2.421
61.26000 0.453
61.28000 0.303
61.30000 1.150
61.32000 2.358
61.34000 1.099
61.36000 0.982
61.38000 -1.725
61.40000 -1.549
61.42000 0.517
61.44000 3.762
61.46000 3.961
61.48000 4.192
61.50000 5.015
61.52000 6.021
61.54000 3.225
61.56000 4.918
61.58000 2.419
61.60000 4.402
61.62000 5.327
61.64000 2.517
61.66000 3.198
61.68000 1.248
61.70000 2.704
61.72000 4.287
61.74000 3.160
61.76000 2.665
61.78000 3.212
61.80000 2.925
61.82000 3.951
61.84000 4.232
61.86000 5.414
61.88000 3.315
61.90000 4.005
61.92000 4.060
61.94000 4.723
61.96000 4.221
61.98000 4.275
62.00000 4.180
62.02000 0.729
62.04000 0.103
62.06000 1.910
62.08000 3.368
62.10000 3.567
62.12000 3.530
62.14000 4.651
62.16000 4.395
62.18000 3.805
62.20000 1.310
62.22000 2.598
62.24000 3.572
62.26000 3.277
62.28000 2.032
62.30000 2.456
62.32000 1.443
62.34000 -2.295
62.36000 1.896
62.38000 5.944
62.40000 7.410
62.42000 2.774
62.44000 4.986
62.46000 4.810
62.48000 2.239
62.50000 2.498
62.52000 4.143
62.54000 4.048
62.56000 5.479
62.58000 3.091
62.60000 3.025
62.62000 3.698
62.64000 2.554
62.66000 2.636
62.68000 3.865
62.70000 0.810
62.72000 2.429
62.74000 3.122
62.76000 2.878
62.78000 -0.251
62.80000 1.640
62.82000 4.446
62.84000 2.256
62.86000 0.934
62.88000 1.946
62.90000 0.142
62.92000 2.600
62.94000 6.566
62.96000 0.815
62.98000 1.531
63.00000 2.793
63.02000 3.819
63.04000 5.675
63.06000 3.798
63.08000 0.240
63.10000 0.108
63.12000 -2.240
63.14000 -1.098
63.16000 -0.642
63.18000 -1.999
63.20000 -2.311
63.22000 0.718
63.24000 3.627
63.26000 7.246
63.28000 4.388
63.30000 2.194
63.32000 -0.618
63.34000 4.758
63.36000 7.164
63.38000 2.409
63.40000 1.551
63.42000 0.806
63.44000 1.854
63.46000 3.030
63.48000 5.455
63.50000 6.506
63.52000 2.537
63.54000 1.294
63.56000 4.140
63.58000 1.556
63.60000 2.133
63.62000 3.749
63.64000 3.206
63.66000 1.918
63.68000 2.196
63.70000 1.977
63.72000 2.054
63.74000 -1.371
63.76000 0.411
63.78000 2.740
63.80000 5.562
63.82000 1.701
63.84000 0.985
63.86000 2.877
63.88000 0.620
63.90000 3.239
63.92000 3.596
63.94000 1.121
63.96000 -1.073
63.98000 1.140
64.00000 2.135
64.02000 1.496
64.04000 0.968
64.06000 -2.316
64.08000 -1.892
64.10000 0.623
64.12000 1.378
64.14000 2.903
64.16000 5.067
64.18000 4.109
64.20000 3.653
64.22000 1.608
64.24000 2.317
64.26000 1.262
64.28000 0.516
64.30000 0.699
64.32000 1.211
64.34000 2.051
64.36000 1.329
64.38000 2.457
64.40000 2.567
64.42000 1.674
64.44000 -1.190
64.46000 0.781
64.48000 2.629
64.50000 1.240
64.52000 1.282
64.54000 -1.116
64.56000 -0.305
64.58000 -0.121
64.60000 3.457
64.62000 5.457
64.64000 3.206
64.66000 0.389
64.68000 -0.923
64.70000 -0.845
64.72000 -0.564
64.74000 1.291
64.76000 0.914
64.78000 -0.773
64.80000 0.527
64.82000 0.920
64.84000 0.389
64.86000 -0.993
64.88000 1.052
64.90000 -0.018
64.92000 0.929
64.94000 1.553
64.96000 3.283
64.98000 5.400
65.00000 4.019
65.02000 3.256
65.04000 2.056
65.06000 3.083
65.08000 3.468
65.10000 1.248
65.12000 0.413
65.14000 -0.640
65.16000 -0.225
65.18000 0.682
65.20000 1.922
65.22000 3.467
65.24000 5.453
65.26000 7.864
65.28000 5.553
65.30000 2.963
65.32000 3.811
65.34000 2.454
65.36000 0.854
65.38000 4.265
65.40000 3.566
65.42000 6.321
65.44000 5.595
65.46000 4.155
65.48000 8.519
65.50000 8.960
65.52000 8.279
65.54000 4.148
65.56000 4.194
65.58000 5.633
65.60000 3.889
65.62000 3.758
65.64000 9.824
65.66000 6.809
65.68000 8.187
65.70000 9.122
65.72000 10.150
65.74000 6.803
65.76000 10.966
65.78000 7.883
65.80000 4.891
65.82000 3.016
65.84000 8.223
65.86000 8.699
65.88000 8.427
65.90000 3.596
65.92000 7.367
65.94000 10.124
65.96000 9.517
65.98000 6.901
66.00000 7.531
66.02000 8.103
66.04000 6.594
66.06000 5.604
66.08000 4.713
66.10000 7.594
66.12000 7.209
66.14000 5.267
66.16000 4.283
66.18000 7.366
66.20000 8.695
66.22000 6.900
66.24000 5.370
66.26000 4.826
66.28000 7.097
66.30000 5.474
66.32000 1.756
66.34000 0.896
66.36000 0.567
66.38000 0.184
66.40000 0.839
66.42000 0.891
66.44000 5.006
66.46000 4.682
66.48000 2.402
66.50000 1.577
66.52000 3.373
66.54000 2.982
66.56000 2.466
66.58000 2.931
66.60000 4.295
66.62000 5.331
66.64000 3.418
66.66000 1.751
66.68000 0.620
66.70000 -0.701
66.72000 4.040
66.74000 4.805
66.76000 0.712
66.78000 -0.997
66.80000 0.853
66.82000 0.612
66.84000 -1.215
66.86000 -2.277
66.88000 2.337
66.90000 1.101
66.92000 -0.950
66.94000 -1.153
66.96000 0.764
66.98000 0.701
67.00000 2.660
67.02000 4.075
67.04000 0.192
67.06000 0.394
67.08000 2.922
67.10000 1.401
67.12000 1.676
67.14000 0.283
67.16000 1.342
67.18000 1.578
67.20000 1.324
67.22000 -1.119
67.24000 0.691
67.26000 0.120
67.28000 -1.768
67.30000 1.564
67.32000 1.014
67.34000 -2.056
67.36000 -1.341
67.38000 0.708
67.40000 0.324
67.42000 0.053
67.44000 1.207
67.46000 3.256
67.48000 4.382
67.50000 2.157
67.52000 1.444
67.54000 0.747
67.56000 -0.576
67.58000 0.157
67.60000 3.530
67.62000 0.213
67.64000 0.324
67.66000 -1.372
67.68000 2.720
67.70000 3.204
67.72000 1.487
67.74000 0.562
67.76000 3.969
67.78000 6.572
67.80000 4.051
67.82000 2.604
67.84000 2.525
67.86000 2.076
67.88000 -0.799
67.90000 -0.962
67.92000 2.650
67.94000 1.324
67.96000 -0.826
67.98000 3.146
68.00000 4.076
68.02000 2.690
68.04000 -0.345
68.06000 -2.197
68.08000 0.313
68.10000 2.596
68.12000 1.065
68.14000 1.158
68.16000 -0.284
68.18000 -0.704
68.20000 1.066
68.22000 3.509
68.24000 5.745
68.26000 2.108
68.28000 -2.179
68.30000 0.989
68.32000 5.568
68.34000 4.737
68.36000 5.379
68.38000 3.804
68.40000 3.469
68.42000 3.491
68.44000 3.470
68.46000 3.109
68.48000 2.864
68.50000 2.363
68.52000 2.570
68.54000 1.467
68.56000 1.586
68.58000 1.895
68.60000 1.513
68.62000 -0.342
68.64000 0.224
68.66000 1.185
68.68000 -0.517
68.70000 -0.779
68.72000 1.856
68.74000 2.374
68.76000 0.931
68.78000 0.045
68.80000 0.415
68.82000 -0.175
68.84000 3.190
68.86000 2.193
68.88000 -0.482
68.90000 -0.763
68.92000 0.613
68.94000 2.230
68.96000 2.074
68.98000 2.583
69.00000 3.381
69.02000 1.800
69.04000 1.830
69.06000 1.629
69.08000 3.055
69.10000 3.137
69.12000 2.117
69.14000 0.215
69.16000 1.221
69.18000 4.280
69.20000 1.368
69.22000 1.931
69.24000 4.477
69.26000 2.662
69.28000 -1.049
69.30000 -2.158
69.32000 -0.156
69.34000 -1.449
69.36000 1.574
69.38000 2.961
69.40000 1.769
69.42000 0.428
69.44000 0.493
69.46000 -1.491
69.48000 0.426
69.50000 -0.397
69.52000 -0.066
69.54000 -1.430
69.56000 -0.298
69.58000 2.014
69.60000 3.634
69.62000 -0.260
69.64000 2.818
69.66000 0.478
69.68000 -0.218
69.70000 -0.150
69.72000 2.564
69.74000 1.325
69.76000 -1.566
69.78000 -0.637
69.80000 1.933
69.82000 4.790
69.84000 3.752
69.86000 2.976
69.88000 3.019
69.90000 0.945
69.92000 -0.902
69.94000 1.100
69.96000 0.269
69.98000 -2.153
70.00000 0.567
70.02000 0.539
70.04000 2.923
70.06000 4.676
70.08000 3.055
70.10000 0.213
70.12000 0.576
70.14000 1.488
70.16000 2.880
70.18000 2.268
70.20000 0.430
70.22000 1.201
70.24000 1.777
70.26000 1.059
70.28000 0.437
70.30000 0.254
70.32000 0.176
70.34000 2.449
70.36000 2.179
70.38000 0.965
70.40000 0.723
70.42000 0.576
70.44000 -0.271
70.46000 0.258
70.48000 0.596
70.50000 2.576
70.52000 3.557
70.54000 1.757
70.56000 -1.404
70.58000 -2.130
70.60000 0.476
70.62000 1.753
70.64000 2.640
70.66000 3.761
70.68000 0.098
70.70000 -1.096
70.72000 1.389
70.74000 3.408
70.76000 -1.395
70.78000 -0.892
70.80000 -0.056
70.82000 3.191
70.84000 1.680
70.86000 -1.129
70.88000 0.005
70.90000 -0.323
70.92000 1.098
70.94000 3.307
70.96000 2.806
70.98000 2.178
71.00000 -0.039
71.02000 -0.191
71.04000 1.783
71.06000 3.802
71.08000 3.109
71.10000 1.850
71.12000 -0.956
71.14000 2.484
71.16000 1.449
71.18000 -1.996
71.20000 2.123
71.22000 1.766
71.24000 -2.096
71.26000 0.011
71.28000 0.122
71.30000 -0.696
71.32000 3.027
71.34000 4.226
71.36000 4.390
71.38000 3.195
71.40000 1.364
71.42000 -0.291
71.44000 0.209
71.46000 0.129
71.48000 1.567
71.50000 1.151
71.52000 1.651
71.54000 1.468
71.56000 1.763
71.58000 1.169
71.60000 2.402
71.62000 6.734
71.64000 4.219
71.66000 1.890
71.68000 -0.287
71.70000 -0.927
71.72000 -0.694
71.74000 -2.091
71.76000 1.652
71.78000 3.409
71.80000 1.927
71.82000 0.137
71.84000 1.724
71.86000 -0.279
71.88000 1.302
71.90000 2.107
71.92000 3.027
71.94000 -1.406
71.96000 -1.666
71.98000 2.319
72.00000 0.732
72.02000 -0.962
72.04000 2.513
72.06000 3.852
72.08000 5.356
72.10000 3.233
72.12000 0.231
72.14000 -0.253
72.16000 -1.102
72.18000 0.187
72.20000 3.036
72.22000 1.954
72.24000 2.156
72.26000 0.269
72.28000 -1.201
72.30000 0.163
72.32000 0.292
72.34000 0.123
72.36000 2.422
72.38000 2.255
72.40000 2.407
72.42000 4.484
72.44000 1.653
72.46000 -0.862
72.48000 -2.010
72.50000 -2.066
72.52000 1.207
72.54000 2.603
72.56000 3.106
72.58000 3.802
72.60000 2.708
72.62000 2.557
72.64000 -1.281
72.66000 0.969
72.68000 1.860
72.70000 -1.667
72.72000 0.954
72.74000 1.752
72.76000 1.164
72.78000 2.905
72.80000 1.220
72.82000 0.304
72.84000 0.325
72.86000 0.554
72.88000 -1.570
72.90000 -0.374
72.92000 3.089
72.94000 1.592
72.96000 -1.422
72.98000 3.297
73.00000 0.192
73.02000 -0.491
73.04000 2.157
73.06000 2.776
73.08000 0.169
73.10000 -1.537
73.12000 -0.073
73.14000 1.292
73.16000 0.731
73.18000 1.283
73.20000 -0.323
73.22000 -1.209
73.24000 -1.960
73.26000 -0.198
73.28000 1.276
73.30000 -1.352
73.32000 -2.067
73.34000 0.453
73.36000 0.058
73.38000 -0.691
73.40000 0.713
73.42000 0.860
73.44000 0.504
73.46000 0.945
73.48000 2.699
73.50000 2.135
73.52000 0.660
73.54000 0.410
73.56000 -1.286
73.58000 1.727
73.60000 3.019
73.62000 1.918
73.64000 3.453
73.66000 4.338
73.68000 5.133
73.70000 3.183
73.72000 1.968
73.74000 1.321
73.76000 2.137
73.78000 3.072
73.80000 0.603
73.82000 -0.043
73.84000 -0.833
73.86000 -1.217
73.88000 2.215
73.90000 3.799
73.92000 1.848
73.94000 1.403
73.96000 1.417
73.98000 1.343
74.00000 1.383
74.02000 3.615
74.04000 3.744
74.06000 4.185
74.08000 -0.096
74.10000 0.513
74.12000 -0.556
74.14000 0.908
74.16000 0.883
74.18000 -1.721
74.20000 -1.247
74.22000 -0.122
74.24000 -0.015
74.26000 -0.628
74.28000 3.056
74.30000 0.275
74.32000 1.724
74.34000 1.780
74.36000 0.026
74.38000 2.278
74.40000 3.966
74.42000 0.851
74.44000 -0.384
74.46000 -0.137
74.48000 0.377
74.50000 4.019
74.52000 0.596
74.54000 2.911
74.56000 0.590
74.58000 -1.851
74.60000 -2.053
74.62000 -0.306
74.64000 -0.120
74.66000 3.277
74.68000 2.867
74.70000 3.159
74.72000 -0.310
74.74000 -0.938
74.76000 -1.161
74.78000 0.112
74.80000 1.476
74.82000 -0.617
74.84000 -0.937
74.86000 1.210
74.88000 0.890
74.90000 0.726
74.92000 -1.665
74.94000 1.768
74.96000 2.438
74.98000 1.976
75.00000 0.719
75.02000 4.324
75.04000 4.405
75.06000 2.169
75.08000 3.121
75.10000 -2.050
75.12000 -1.216
75.14000 1.184
75.16000 4.787
75.18000 5.479
75.20000 5.966
75.22000 1.680
75.24000 -0.365
75.26000 -0.325
75.28000 4.728
75.30000 6.164
75.32000 6.430
75.34000 1.576
75.36000 3.116
75.38000 1.410
75.40000 -0.795
75.42000 1.071
75.44000 3.509
75.46000 2.915
75.48000 5.149
75.50000 4.660
75.52000 5.801
75.54000 4.514
75.56000 5.110
75.58000 2.362
75.60000 -0.363
75.62000 0.120
75.64000 -0.983
75.66000 0.358
75.68000 2.784
75.70000 4.786
75.72000 3.138
75.74000 1.218
75.76000 2.823
75.78000 3.856
75.80000 4.256
75.82000 1.234
75.84000 -2.062
75.86000 -0.093
75.88000 -1.287
75.90000 1.202
75.92000 0.257
75.94000 0.287
75.96000 5.006
75.98000 2.023
76.00000 2.248
76.02000 3.132
76.04000 1.669
76.06000 2.383
76.08000 1.699
76.10000 2.246
76.12000 0.610
76.14000 3.209
76.16000 3.707
76.18000 5.718
76.20000 3.471
76.22000 1.099
76.24000 3.378
76.26000 1.299
76.28000 2.947
76.30000 2.942
76.32000 1.909
76.34000 2.208
76.36000 3.901
76.38000 3.017
76.40000 5.193
76.42000 3.561
76.44000 2.243
76.46000 4.620
76.48000 8.840
76.50000 6.641
76.52000 -0.041
76.54000 -2.064
76.56000 -1.191
76.58000 1.558
76.60000 3.038
76.62000 3.808
76.64000 4.861
76.66000 5.586
76.68000 7.057
76.70000 8.332
76.72000 3.526
76.74000 2.401
76.76000 2.392
76.78000 3.165
76.80000 3.279
76.82000 5.712
76.84000 5.116
76.86000 4.960
76.88000 4.891
76.90000 4.496
76.92000 6.361
76.94000 5.463
76.96000 2.662
76.98000 4.621
77.00000 8.280
77.02000 4.930
77.04000 0.312
77.06000 -0.739
77.08000 4.645
77.10000 6.043
77.12000 0.948
77.14000 -2.139
77.16000 -2.092
77.18000 -0.703
77.20000 1.809
77.22000 -0.117
77.24000 1.436
77.26000 -1.912
77.28000 -1.962
77.30000 0.003
77.32000 2.617
77.34000 4.094
77.36000 3.980
77.38000 2.857
77.40000 1.052
77.42000 -0.240
77.44000 -0.680
77.46000 3.532
77.48000 0.689
77.50000 1.181
77.52000 0.446
77.54000 -1.201
77.56000 -0.577
77.58000 -1.935
77.60000 0.340
77.62000 0.997
77.64000 2.346
77.66000 4.254
77.68000 2.440
77.70000 1.200
77.72000 1.016
77.74000 1.111
77.76000 2.420
77.78000 0.730
77.80000 -0.055
77.82000 0.257
77.84000 1.231
77.86000 2.245
77.88000 2.541
77.90000 1.939
77.92000 -1.576
77.94000 2.601
77.96000 2.190
77.98000 4.781
78.00000 2.687
78.02000 1.116
78.04000 4.041
78.06000 3.357
78.08000 -1.839
78.10000 3.322
78.12000 4.006
78.14000 6.088
78.16000 3.014
78.18000 1.864
78.20000 2.883
78.22000 8.469
78.24000 5.246
78.26000 5.150
78.28000 5.937
78.30000 5.123
78.32000 4.092
78.34000 5.805
78.36000 7.488
78.38000 8.207
78.40000 7.482
78.42000 8.091
78.44000 9.238
78.46000 9.676
78.48000 13.703
78.50000 14.317
78.52000 16.497
78.54000 17.862
78.56000 17.680
78.58000 16.032
78.60000 12.264
78.62000 9.880
78.64000 10.606
78.66000 16.897
78.68000 21.338
78.70000 26.104
78.72000 22.682
78.74000 23.550
78.76000 23.919
78.78000 26.932
78.80000 22.204
78.82000 19.945
78.84000 22.930
78.86000 25.301
78.88000 26.429
78.90000 29.658
78.92000 33.290
78.94000 27.238
78.96000 27.941
78.98000 32.015
79.00000 34.205
79.02000 34.820
79.04000 33.889
79.06000 35.655
79.08000 37.622
79.10000 28.931
79.12000 29.798
79.14000 33.314
79.16000 32.376
79.18000 33.858
79.20000 30.938
79.22000 30.882
79.24000 30.980
79.26000 33.135
79.28000 32.973
79.30000 30.879
79.32000 31.275
79.34000 33.714
79.36000 25.673
79.38000 23.027
79.40000 26.933
79.42000 25.945
79.44000 27.826
79.46000 25.882
79.48000 25.110
79.50000 20.576
79.52000 22.850
79.54000 22.917
79.56000 21.336
79.58000 21.009
79.60000 22.553
79.62000 15.219
79.64000 10.453
79.66000 11.080
79.68000 13.618
79.70000 16.264
79.72000 11.971
79.74000 11.201
79.76000 11.237
79.78000 13.734
79.80000 13.286
79.82000 13.096
79.84000 6.491
79.86000 5.935
79.88000 5.406
79.90000 2.565
79.92000 3.977
79.94000 6.301
79.96000 7.389
79.98000 8.681
80.00000 3.554
80.02000 1.542
80.04000 5.867
80.06000 7.894
80.08000 7.055
80.10000 9.232
80.12000 7.837
80.14000 3.753
80.16000 3.809
80.18000 1.422
80.20000 -0.700
80.22000 3.557
80.24000 5.762
80.26000 -1.598
80.28000 -1.051
80.30000 2.003
80.32000 4.890
80.34000 1.219
80.36000 3.544
80.38000 4.733
80.40000 6.461
80.42000 3.842
80.44000 -0.922
80.46000 0.211
80.48000 -0.162
80.50000 -0.725
80.52000 1.690
80.54000 -0.473
80.56000 -2.386
80.58000 1.245
80.60000 3.136
80.62000 3.908
80.64000 1.315
80.66000 -0.335
80.68000 0.640
80.70000 0.607
80.72000 -2.383
80.74000 -1.339
80.76000 -0.920
80.78000 -0.914
80.80000 0.786
80.82000 0.051
80.84000 0.657
80.86000 -0.375
80.88000 2.491
80.90000 2.883
80.92000 2.678
80.94000 0.146
80.96000 -0.274
80.98000 -2.378
81.00000 0.946
81.02000 1.119
81.04000 2.086
81.06000 -1.491
81.08000 -0.735
81.10000 -0.045
81.12000 2.642
81.14000 2.434
81.16000 -0.487
81.18000 -1.091
81.20000 0.646
81.22000 1.272
81.24000 0.503
81.26000 0.783
81.28000 2.318
81.30000 4.005
81.32000 5.226
81.34000 7.942
81.36000 2.797
81.38000 6.043
81.40000 2.198
81.42000 0.548
81.44000 -1.151
81.46000 1.453
81.48000 4.176
81.50000 1.572
81.52000 -0.905
81.54000 0.978
81.56000 2.988
81.58000 -0.335
81.60000 -0.653
81.62000 -0.242
81.64000 0.247
81.66000 3.476
81.68000 2.861
81.70000 6.736
81.72000 9.067
81.74000 5.976
81.76000 6.095
81.78000 7.574
81.80000 5.452
81.82000 4.878
81.84000 6.994
81.86000 9.282
81.88000 7.802
81.90000 6.415
81.92000 3.929
81.94000 8.644
81.96000 8.131
81.98000 10.641
82.00000 6.934
82.02000 8.590
82.04000 8.258
82.06000 10.514
82.08000 11.343
82.10000 14.399
82.12000 12.552
82.14000 11.417
82.16000 14.779
82.18000 12.840
82.20000 13.233
82.22000 17.052
82.24000 17.646
82.26000 16.484
82.28000 19.505
82.30000 18.374
82.32000 16.944
82.34000 19.510
82.36000 22.569
82.38000 21.657
82.40000 22.420
82.42000 26.404
82.44000 26.989
82.46000 30.862
82.48000 30.711
82.50000 28.457
82.52000 30.024
82.54000 30.549
82.56000 34.920
82.58000 36.427
82.60000 32.973
82.62000 38.387
82.64000 43.199
82.66000 44.286
82.68000 44.161
82.70000 46.029
82.72000 46.255
82.74000 50.282
82.76000 53.465
82.78000 58.425
82.80000 51.220
82.82000 54.775
82.84000 58.551
82.86000 60.811
82.88000 62.535
82.90000 63.093
82.92000 66.854
82.94000 72.815
82.96000 77.235
82.98000 72.580
83.00000 81.367
83.02000 85.968
83.04000 84.004
83.06000 84.899
83.08000 82.669
83.10000 91.116
83.12000 97.495
83.14000 91.812
83.16000 93.079
83.18000 96.984
83.20000 101.973
83.22000 94.100
83.24000 95.829
83.26000 95.508
83.28000 101.192
83.30000 99.860
83.32000 100.382
83.34000 99.418
83.36000 95.753
83.38000 95.716
83.40000 91.952
83.42000 96.125
83.44000 97.045
83.46000 91.633
83.48000 82.576
83.50000 81.128
83.52000 82.482
83.54000 80.248
83.56000 80.031
83.58000 74.480
83.60000 71.972
83.62000 72.801
83.64000 68.403
83.66000 64.970
83.68000 57.177
83.70000 51.608
83.72000 49.662
83.74000 52.286
83.76000 47.305
83.78000 46.784
83.80000 45.898
83.82000 43.232
83.84000 40.064
83.86000 39.086
83.88000 38.112
83.90000 37.540
83.92000 39.741
83.94000 35.429
83.96000 30.859
83.98000 26.840
84.00000 24.781
84.02000 25.450
84.04000 24.865
84.06000 25.195
84.08000 21.020
84.10000 17.459
84.12000 21.400
84.14000 23.457
84.16000 17.103
84.18000 15.733
84.20000 15.178
84.22000 15.974
84.24000 16.850
84.26000 15.523
84.28000 13.529
84.30000 10.880
84.32000 8.881
84.34000 7.295
84.36000 10.806
84.38000 12.299
84.40000 12.350
84.42000 12.926
84.44000 6.450
84.46000 6.261
84.48000 6.663
84.50000 9.680
84.52000 7.682
84.54000 8.359
84.56000 7.849
84.58000 5.486
84.60000 4.002
84.62000 7.699
84.64000 10.847
84.66000 8.280
84.68000 6.017
84.70000 4.436
84.72000 6.153
84.74000 8.754
84.76000 6.253
84.78000 4.810
84.80000 1.975
84.82000 2.609
84.84000 3.901
84.86000 5.800
84.88000 4.537
84.90000 4.452
84.92000 7.642
84.94000 6.942
84.96000 5.481
84.98000 3.680
85.00000 2.617
85.02000 1.082
85.04000 1.891
85.06000 0.149
85.08000 1.183
85.10000 2.711
85.12000 8.339
85.14000 9.333
85.16000 4.871
85.18000 0.424
85.20000 -2.064
85.22000 2.514
85.24000 4.261
85.26000 3.776
85.28000 6.552
85.30000 4.187
85.32000 3.608
85.34000 2.304
85.36000 0.804
85.38000 3.749
85.40000 2.268
85.42000 1.446
85.44000 2.565
85.46000 0.913
85.48000 1.603
85.50000 1.031
85.52000 -0.511
85.54000 1.385
85.56000 4.158
85.58000 2.231
85.60000 -1.883
85.62000 2.244
85.64000 0.743
85.66000 -1.708
85.68000 2.998
85.70000 2.905
85.72000 1.100
85.74000 2.732
85.76000 1.613
85.78000 1.683
85.80000 -1.487
85.82000 1.440
85.84000 0.642
85.86000 1.154
85.88000 -0.509
85.90000 0.125
85.92000 -0.558
85.94000 -0.780
85.96000 1.725
85.98000 1.780
86.00000 4.312
86.02000 2.062
86.04000 -0.150
86.06000 2.441
86.08000 0.547
86.10000 0.553
86.12000 1.500
86.14000 -0.348
86.16000 0.515
86.18000 1.780
86.20000 -0.845
86.22000 2.953
86.24000 2.904
86.26000 2.988
86.28000 1.054
86.30000 0.179
86.32000 0.953
86.34000 0.427
86.36000 -1.990
86.38000 -1.397
86.40000 -1.265
86.42000 -0.676
86.44000 0.346
86.46000 1.031
86.48000 0.827
86.50000 2.191
86.52000 2.992
86.54000 3.524
86.56000 5.359
86.58000 1.576
86.60000 2.405
86.62000 1.889
86.64000 7.426
86.66000 4.855
86.68000 -0.222
86.70000 4.475
86.72000 7.325
86.74000 0.513
86.76000 -0.468
86.78000 -1.964
86.80000 1.661
86.82000 3.661
86.84000 2.702
86.86000 2.691
86.88000 -1.197
86.90000 0.093
86.92000 0.664
86.94000 0.117
86.96000 -1.929
86.98000 0.584
87.00000 0.998
87.02000 0.413
87.04000 0.904
87.06000 -0.774
87.08000 0.480
87.10000 -0.985
87.12000 4.150
87.14000 7.393
87.16000 4.242
87.18000 2.644
87.20000 1.117
87.22000 -1.005
87.24000 -1.939
87.26000 2.389
87.28000 6.287
87.30000 3.807
87.32000 1.006
87.34000 3.965
87.36000 2.187
87.38000 3.540
87.40000 5.735
87.42000 3.126
87.44000 1.235
87.46000 -0.058
87.48000 -0.453
87.50000 3.859
87.52000 0.109
87.54000 0.173
87.56000 2.701
87.58000 0.520
87.60000 1.847
87.62000 1.806
87.64000 -0.024
87.66000 -1.463
87.68000 2.694
87.70000 4.430
87.72000 -0.021
87.74000 1.595
87.76000 1.090
87.78000 2.128
87.80000 1.576
87.82000 2.782
87.84000 2.791
87.86000 -1.187
87.88000 -1.920
87.90000 1.994
87.92000 1.051
87.94000 2.912
87.96000 2.938
87.98000 1.525
88.00000 4.480
88.02000 2.211
88.04000 1.476
88.06000 -0.707
88.08000 1.280
88.10000 0.988
88.12000 0.475
88.14000 3.901
88.16000 5.458
88.18000 3.608
88.20000 -1.089
88.22000 1.154
88.24000 1.619
88.26000 1.996
88.28000 2.116
88.30000 4.601
88.32000 2.881
88.34000 2.501
88.36000 1.238
88.38000 1.563
88.40000 3.216
88.42000 2.602
88.44000 1.039
88.46000 0.045
88.48000 0.564
88.50000 1.636
88.52000 2.217
88.54000 1.290
88.56000 1.835
88.58000 2.236
88.60000 1.801
88.62000 0.948
88.64000 0.779
88.66000 2.995
88.68000 4.340
88.70000 2.384
88.72000 -0.917
88.74000 -0.463
88.76000 -0.484
88.78000 0.483
88.80000 1.108
88.82000 -0.051
88.84000 3.050
88.86000 1.855
88.88000 1.181
88.90000 1.502
88.92000 2.154
88.94000 0.312
88.96000 -1.912
88.98000 -0.593
89.00000 -1.703
89.02000 -1.072
89.04000 1.847
89.06000 1.303
89.08000 2.720
89.10000 3.534
89.12000 4.671
89.14000 4.971
89.16000 1.737
89.18000 1.700
89.20000 1.857
89.22000 3.388
89.24000 -0.002
89.26000 0.936
89.28000 0.255
89.30000 0.273
89.32000 -1.152
89.34000 2.438
89.36000 2.241
89.38000 2.265
89.40000 1.699
89.42000 2.637
89.44000 4.402
89.46000 6.578
89.48000 4.526
89.50000 2.704
89.52000 0.205
89.54000 0.196
89.56000 0.750
89.58000 2.877
89.60000 2.143
89.62000 2.628
89.64000 0.566
89.66000 -0.193
89.68000 -0.377
89.70000 3.658
89.72000 5.283
89.74000 3.124
89.76000 4.010
89.78000 4.910
89.80000 5.716
89.82000 4.867
89.84000 3.048
89.86000 -1.858
89.88000 1.879
89.90000 2.771
89.92000 4.007
89.94000 3.385
89.96000 3.012
89.98000 3.415
90.00000 5.185
90.02000 5.563
90.04000 3.700
90.06000 4.624
90.08000 4.175
90.10000 7.152
90.12000 4.898
90.14000 4.278
90.16000 3.789
90.18000 5.058
90.20000 2.839
90.22000 -1.847
90.24000 2.325
90.26000 3.676
90.28000 4.835
90.30000 2.184
90.32000 6.061
90.34000 4.291
90.36000 1.878
90.38000 3.484
90.40000 9.139
90.42000 6.650
90.44000 2.262
90.46000 0.777
90.48000 6.949
90.50000 7.037
90.52000 3.500
90.54000 1.341
90.56000 2.260
90.58000 4.580
90.60000 3.954
90.62000 2.084
90.64000 3.227
90.66000 2.356
90.68000 4.995
90.70000 4.532
90.72000 1.055
90.74000 3.975
90.76000 4.320
90.78000 4.626
90.80000 0.544
90.82000 0.263
90.84000 1.913
90.86000 2.075
90.88000 2.441
90.90000 1.148
90.92000 2.872
90.94000 1.754
90.96000 -0.889
90.98000 2.239
91.00000 4.809
91.02000 4.790
91.04000 3.893
91.06000 0.579
91.08000 1.541
91.10000 2.596
91.12000 -1.299
91.14000 0.785
91.16000 3.668
91.18000 3.771
91.20000 3.303
91.22000 3.844
91.24000 0.074
91.26000 -1.883
91.28000 0.258
91.30000 1.029
91.32000 3.878
91.34000 3.708
91.36000 4.414
91.38000 2.511
91.40000 2.837
91.42000 4.131
91.44000 3.271
91.46000 5.474
91.48000 7.086
91.50000 4.479
91.52000 -0.575
91.54000 1.252
91.56000 2.508
91.58000 -0.494
91.60000 1.560
91.62000 6.642
91.64000 6.139
91.66000 2.655
91.68000 4.290
91.70000 4.939
91.72000 1.289
91.74000 1.479
91.76000 -0.806
91.78000 2.947
91.80000 6.713
91.82000 3.999
91.84000 3.450
91.86000 2.690
91.88000 -0.802
91.90000 1.028
91.92000 1.440
91.94000 3.398
91.96000 3.780
91.98000 3.359
92.00000 4.772
92.02000 6.634
92.04000 5.203
92.06000 0.924
92.08000 1.105
92.10000 -1.903
92.12000 -0.023
92.14000 -0.300
92.16000 -0.911
92.18000 2.000
92.20000 7.689
92.22000 3.304
92.24000 4.805
92.26000 1.210
92.28000 1.483
92.30000 4.553
92.32000 4.432
92.34000 4.039
92.36000 2.312
92.38000 2.225
92.40000 2.189
92.42000 1.235
92.44000 1.757
92.46000 0.138
92.48000 1.247
92.50000 4.789
92.52000 2.709
92.54000 3.170
92.56000 2.694
92.58000 1.939
92.60000 5.814
92.62000 5.194
92.64000 0.024
92.66000 0.062
92.68000 1.691
92.70000 0.468
92.72000 -0.951
92.74000 0.114
92.76000 3.923
92.78000 -1.921
92.80000 -0.790
92.82000 1.788
92.84000 6.179
92.86000 4.111
92.88000 1.788
92.90000 3.132
92.92000 0.356
92.94000 -1.903
92.96000 -0.643
92.98000 1.592
93.00000 2.220
93.02000 1.150
93.04000 -0.207
93.06000 0.713
93.08000 2.422
93.10000 3.651
93.12000 5.049
93.14000 5.103
93.16000 2.090
93.18000 -0.509
93.20000 -0.754
93.22000 1.892
93.24000 0.805
93.26000 1.500
93.28000 -1.424
93.30000 4.227
93.32000 4.855
93.34000 5.085
93.36000 5.869
93.38000 3.904
93.40000 -1.442
93.42000 -0.438
93.44000 -0.818
93.46000 0.484
93.48000 0.300
93.50000 4.010
93.52000 2.337
93.54000 0.751
93.56000 0.718
93.58000 1.315
93.60000 3.490
93.62000 3.714
93.64000 2.396
93.66000 1.480
93.68000 0.144
93.70000 0.252
93.72000 1.373
93.74000 3.730
93.76000 5.205
93.78000 4.124
93.80000 2.160
93.82000 4.126
93.84000 1.586
93.86000 0.822
93.88000 1.025
93.90000 1.624
93.92000 1.799
93.94000 4.343
93.96000 0.105
93.98000 1.573
94.00000 1.579
94.02000 3.100
94.04000 1.822
94.06000 -0.727
94.08000 -1.934
94.10000 -0.539
94.12000 3.537
94.14000 5.542
94.16000 4.711
94.18000 -1.932
94.20000 2.795
94.22000 0.540
94.24000 0.105
94.26000 1.585
94.28000 0.873
94.30000 4.229
94.32000 1.643
94.34000 0.066
94.36000 1.555
94.38000 0.023
94.40000 -1.469
94.42000 -1.931
94.44000 0.590
94.46000 6.603
94.48000 4.571
94.50000 0.511
94.52000 0.220
94.54000 5.388
94.56000 7.228
94.58000 5.407
94.60000 6.243
94.62000 4.212
94.64000 3.174
94.66000 0.890
94.68000 2.798
94.70000 4.773
94.72000 1.509
94.74000 1.647
94.76000 1.951
94.78000 4.409
94.80000 2.419
94.82000 2.005
94.84000 2.464
94.86000 2.540
94.88000 4.650
94.90000 5.271
94.92000 4.520
94.94000 0.943
94.96000 2.502
94.98000 4.339
95.00000 2.907
95.02000 2.344
95.04000 2.224
95.06000 -0.322
95.08000 2.234
95.10000 4.590
95.12000 3.431
95.14000 1.739
95.16000 1.894
95.18000 1.742
95.20000 0.796
95.22000 2.637
95.24000 5.690
95.26000 1.496
95.28000 2.927
95.30000 2.719
95.32000 6.539
95.34000 2.740
95.36000 -1.174
95.38000 0.623
95.40000 5.464
95.42000 4.013
95.44000 1.029
95.46000 0.763
95.48000 2.852
95.50000 4.494
95.52000 4.890
95.54000 8.220
95.56000 5.954
95.58000 3.577
95.60000 5.612
95.62000 3.913
95.64000 4.145
95.66000 7.309
95.68000 7.521
95.70000 4.597
95.72000 6.071
95.74000 4.630
95.76000 3.949
95.78000 4.351
95.80000 5.072
95.82000 2.838
95.84000 4.493
95.86000 9.241
95.88000 7.985
95.90000 2.866
95.92000 2.063
95.94000 0.100
95.96000 -1.899
95.98000 3.049
96.00000 5.669
96.02000 2.846
96.04000 4.124
96.06000 3.731
96.08000 3.939
96.10000 2.993
96.12000 7.774
96.14000 2.979
96.16000 4.308
96.18000 5.299
96.20000 3.545
96.22000 4.299
96.24000 1.534
96.26000 -0.717
96.28000 -1.115
96.30000 2.363
96.32000 1.338
96.34000 5.496
96.36000 3.970
96.38000 3.669
96.40000 5.429
96.42000 2.466
96.44000 2.115
96.46000 2.177
96.48000 2.066
96.50000 2.215
96.52000 1.484
96.54000 2.449
96.56000 7.866
96.58000 6.571
96.60000 2.129
96.62000 5.367
96.64000 3.570
96.66000 5.050
96.68000 1.868
96.70000 6.236
96.72000 7.438
96.74000 0.744
96.76000 1.885
96.78000 4.400
96.80000 3.584
96.82000 3.124
96.84000 1.314
96.86000 1.980
96.88000 1.468
96.90000 4.032
96.92000 3.233
96.94000 7.594
96.96000 3.324
96.98000 3.614
97.00000 5.133
97.02000 2.831
97.04000 4.355
97.06000 6.103
97.08000 4.268
97.10000 3.225
97.12000 2.357
97.14000 1.689
97.16000 4.453
97.18000 -0.044
97.20000 2.494
97.22000 6.650
97.24000 6.436
97.26000 1.215
97.28000 -0.028
97.30000 8.472
97.32000 4.711
97.34000 -1.082
97.36000 4.622
97.38000 6.852
97.40000 7.979
97.42000 3.733
97.44000 2.964
97.46000 -0.915
97.48000 -1.898
97.50000 4.074
97.52000 7.829
97.54000 3.806
97.56000 4.689
97.58000 8.870
97.60000 3.619
97.62000 3.707
97.64000 3.639
97.66000 2.325
97.68000 1.666
97.70000 4.893
97.72000 5.279
97.74000 7.568
97.76000 1.981
97.78000 5.611
97.80000 5.676
97.82000 5.024
97.84000 5.667
97.86000 6.142
97.88000 7.690
97.90000 3.749
97.92000 5.714
97.94000 5.575
97.96000 9.344
97.98000 2.004
98.00000 3.542
98.02000 6.756
98.04000 4.757
98.06000 3.689
98.08000 3.078
98.10000 2.374
98.12000 -0.577
98.14000 2.485
98.16000 -0.072
98.18000 4.988
98.20000 6.634
98.22000 6.972
98.24000 0.881
98.26000 4.758
98.28000 2.974
98.30000 3.038
98.32000 -0.499
98.34000 3.761
98.36000 8.005
98.38000 5.104
98.40000 2.563
98.42000 -1.235
98.44000 1.842
98.46000 4.034
98.48000 6.054
98.50000 5.221
98.52000 1.053
98.54000 0.480
98.56000 3.905
98.58000 2.607
98.60000 0.304
98.62000 0.582
98.64000 0.264
98.66000 4.051
98.68000 5.845
98.70000 7.340
98.72000 3.338
98.74000 3.686
98.76000 -1.875
98.78000 -1.013
98.80000 1.158
98.82000 2.360
98.84000 0.162
98.86000 2.180
98.88000 0.376
98.90000 3.152
98.92000 5.834
98.94000 10.697
98.96000 12.011
98.98000 6.345
99.00000 -0.015
99.02000 0.624
99.04000 3.748
99.06000 2.970
99.08000 6.761
99.10000 5.488
99.12000 6.350
99.14000 10.287
99.16000 8.122
99.18000 4.089
99.20000 2.335
99.22000 3.365
99.24000 7.444
99.26000 4.529
99.28000 5.337
99.30000 4.037
99.32000 3.381
99.34000 2.686
99.36000 8.458
99.38000 13.598
99.40000 8.209
99.42000 -1.377
99.44000 1.933
99.46000 -1.898
99.48000 5.398
99.50000 4.082
99.52000 0.041
99.54000 -0.068
99.56000 0.527
99.58000 5.433
99.60000 4.643
99.62000 12.270
99.64000 4.215
99.66000 1.895
99.68000 6.567
99.70000 -1.080
99.72000 -1.903
99.74000 5.235
99.76000 2.024
99.78000 2.874
99.80000 2.688
99.82000 5.821
99.84000 0.229
99.86000 2.492
99.88000 -1.368
99.90000 2.989
99.92000 0.292
99.94000 -2.137
99.96000 -2.166
99.98000 0.000
