'Id: "0011389" Comment: "Integrate frame 0011389_Au-Ir-Rh_Au-Rich_XRD_Mapping-259-0000.gfrmwith cursor Wedge Cursor #5" Operator: "B?rgel" Anode: "Cu" Wavelength: "1.5406" Scantype: "2Theta (TwoTheta)" TimePerStep: "1" X: "40.5" Y: "18" Z: "5.95" 
10.00000 0.000
10.02000 11.312
10.04000 14.836
10.06000 16.514
10.08000 13.251
10.10000 16.663
10.12000 20.509
10.14000 32.743
10.16000 24.772
10.18000 21.068
10.20000 22.117
10.22000 22.309
10.24000 28.833
10.26000 28.704
10.28000 28.516
10.30000 25.984
10.32000 17.977
10.34000 31.219
10.36000 17.579
10.38000 17.559
10.40000 23.700
10.42000 33.761
10.44000 38.930
10.46000 35.015
10.48000 34.096
10.50000 32.571
10.52000 33.553
10.54000 26.388
10.56000 29.422
10.58000 41.916
10.60000 38.464
10.62000 39.385
10.64000 36.327
10.66000 35.320
10.68000 27.932
10.70000 32.495
10.72000 31.042
10.74000 31.109
10.76000 37.260
10.78000 38.243
10.80000 37.576
10.82000 30.712
10.84000 25.795
10.86000 38.495
10.88000 42.499
10.90000 46.824
10.92000 49.963
10.94000 41.859
10.96000 40.200
10.98000 46.961
11.00000 28.991
11.02000 33.171
11.04000 37.369
11.06000 42.694
11.08000 54.945
11.10000 51.937
11.12000 44.698
11.14000 49.681
11.16000 43.918
11.18000 53.034
11.20000 39.891
11.22000 32.363
11.24000 52.307
11.26000 59.804
11.28000 51.269
11.30000 50.127
11.32000 53.749
11.34000 40.718
11.36000 49.497
11.38000 35.772
11.40000 45.492
11.42000 53.280
11.44000 50.074
11.46000 38.075
11.48000 39.174
11.50000 38.903
11.52000 41.503
11.54000 37.856
11.56000 43.970
11.58000 46.436
11.60000 50.055
11.62000 59.074
11.64000 53.444
11.66000 46.697
11.68000 49.890
11.70000 52.955
11.72000 55.470
11.74000 58.501
11.76000 46.247
11.78000 40.240
11.80000 42.120
11.82000 40.516
11.84000 41.125
11.86000 50.710
11.88000 54.112
11.90000 48.882
11.92000 51.724
11.94000 53.073
11.96000 51.503
11.98000 53.191
12.00000 47.062
12.02000 36.442
12.04000 42.196
12.06000 52.405
12.08000 56.766
12.10000 54.287
12.12000 53.626
12.14000 58.233
12.16000 55.615
12.18000 50.823
12.20000 60.363
12.22000 55.352
12.24000 56.714
12.26000 49.798
12.28000 54.238
12.30000 60.228
12.32000 60.238
12.34000 59.348
12.36000 55.805
12.38000 59.331
12.40000 61.081
12.42000 60.015
12.44000 55.308
12.46000 52.215
12.48000 49.135
12.50000 67.714
12.52000 64.067
12.54000 47.470
12.56000 53.183
12.58000 55.974
12.60000 53.858
12.62000 59.698
12.64000 67.614
12.66000 57.286
12.68000 54.031
12.70000 48.271
12.72000 45.382
12.74000 51.090
12.76000 49.291
12.78000 50.248
12.80000 55.132
12.82000 54.946
12.84000 54.999
12.86000 58.274
12.88000 57.727
12.90000 65.470
12.92000 61.578
12.94000 68.878
12.96000 55.679
12.98000 56.632
13.00000 57.681
13.02000 72.488
13.04000 71.906
13.06000 61.884
13.08000 52.587
13.10000 48.464
13.12000 53.683
13.14000 57.157
13.16000 58.927
13.18000 55.323
13.20000 59.480
13.22000 68.633
13.24000 58.323
13.26000 57.274
13.28000 62.344
13.30000 60.379
13.32000 61.888
13.34000 55.282
13.36000 53.809
13.38000 59.219
13.40000 59.987
13.42000 56.612
13.44000 50.154
13.46000 40.633
13.48000 51.037
13.50000 51.325
13.52000 51.792
13.54000 64.122
13.56000 65.022
13.58000 61.181
13.60000 48.505
13.62000 48.287
13.64000 47.180
13.66000 49.537
13.68000 50.533
13.70000 55.045
13.72000 52.079
13.74000 57.724
13.76000 53.850
13.78000 49.242
13.80000 51.354
13.82000 61.163
13.84000 56.965
13.86000 50.777
13.88000 52.755
13.90000 51.440
13.92000 47.754
13.94000 51.881
13.96000 50.361
13.98000 46.058
14.00000 48.412
14.02000 48.903
14.04000 45.368
14.06000 41.827
14.08000 39.712
14.10000 52.406
14.12000 62.455
14.14000 57.470
14.16000 41.820
14.18000 44.865
14.20000 46.483
14.22000 44.464
14.24000 47.613
14.26000 58.521
14.28000 46.605
14.30000 29.917
14.32000 39.158
14.34000 48.916
14.36000 51.181
14.38000 41.122
14.40000 47.906
14.42000 47.932
14.44000 46.048
14.46000 44.358
14.48000 39.266
14.50000 36.549
14.52000 39.182
14.54000 54.541
14.56000 55.210
14.58000 43.080
14.60000 43.165
14.62000 46.288
14.64000 49.258
14.66000 47.172
14.68000 42.697
14.70000 42.605
14.72000 37.221
14.74000 32.856
14.76000 47.730
14.78000 45.138
14.80000 39.468
14.82000 37.575
14.84000 40.041
14.86000 41.669
14.88000 35.574
14.90000 35.941
14.92000 41.331
14.94000 37.812
14.96000 32.738
14.98000 42.886
15.00000 39.589
15.02000 38.938
15.04000 36.718
15.06000 36.433
15.08000 24.716
15.10000 31.830
15.12000 35.865
15.14000 24.779
15.16000 27.021
15.18000 30.575
15.20000 42.875
15.22000 46.249
15.24000 36.352
15.26000 37.322
15.28000 32.932
15.30000 22.817
15.32000 25.979
15.34000 26.581
15.36000 34.482
15.38000 36.933
15.40000 35.176
15.42000 28.035
15.44000 25.817
15.46000 30.023
15.48000 30.836
15.50000 30.696
15.52000 30.010
15.54000 29.567
15.56000 29.139
15.58000 24.465
15.60000 29.373
15.62000 32.973
15.64000 24.411
15.66000 28.866
15.68000 35.450
15.70000 32.868
15.72000 37.578
15.74000 33.898
15.76000 32.630
15.78000 33.496
15.80000 29.109
15.82000 26.408
15.84000 24.556
15.86000 23.043
15.88000 20.141
15.90000 24.647
15.92000 28.499
15.94000 27.927
15.96000 27.943
15.98000 22.983
16.00000 18.626
16.02000 23.869
16.04000 23.464
16.06000 20.769
16.08000 28.067
16.10000 31.074
16.12000 27.331
16.14000 26.446
16.16000 27.650
16.18000 21.229
16.20000 16.063
16.22000 25.158
16.24000 27.829
16.26000 21.064
16.28000 10.423
16.30000 10.522
16.32000 16.879
16.34000 24.823
16.36000 18.896
16.38000 17.625
16.40000 12.243
16.42000 25.694
16.44000 30.575
16.46000 16.172
16.48000 16.831
16.50000 31.545
16.52000 29.363
16.54000 15.500
16.56000 14.616
16.58000 14.117
16.60000 14.687
16.62000 18.176
16.64000 24.703
16.66000 18.470
16.68000 15.307
16.70000 19.461
16.72000 17.503
16.74000 18.059
16.76000 24.220
16.78000 13.334
16.80000 7.972
16.82000 18.242
16.84000 19.715
16.86000 11.733
16.88000 7.926
16.90000 10.617
16.92000 15.324
16.94000 17.612
16.96000 24.232
16.98000 18.704
17.00000 16.966
17.02000 17.980
17.04000 17.695
17.06000 18.487
17.08000 20.534
17.10000 13.452
17.12000 4.662
17.14000 6.705
17.16000 8.618
17.18000 17.472
17.20000 17.250
17.22000 23.530
17.24000 20.419
17.26000 6.387
17.28000 1.577
17.30000 15.536
17.32000 11.209
17.34000 10.499
17.36000 15.604
17.38000 14.553
17.40000 12.949
17.42000 18.951
17.44000 21.272
17.46000 16.293
17.48000 25.103
17.50000 21.742
17.52000 9.645
17.54000 9.818
17.56000 10.820
17.58000 17.220
17.60000 18.524
17.62000 12.362
17.64000 11.579
17.66000 18.076
17.68000 27.286
17.70000 16.692
17.72000 15.198
17.74000 17.266
17.76000 12.078
17.78000 13.903
17.80000 7.822
17.82000 6.457
17.84000 10.564
17.86000 11.075
17.88000 15.286
17.90000 17.168
17.92000 11.706
17.94000 6.019
17.96000 8.547
17.98000 9.756
18.00000 11.837
18.02000 12.772
18.04000 5.099
18.06000 4.581
18.08000 10.333
18.10000 6.314
18.12000 8.439
18.14000 7.263
18.16000 14.041
18.18000 12.840
18.20000 10.036
18.22000 7.068
18.24000 10.809
18.26000 11.716
18.28000 4.939
18.30000 3.883
18.32000 -0.049
18.34000 2.190
18.36000 1.943
18.38000 9.605
18.40000 12.273
18.42000 11.729
18.44000 8.522
18.46000 4.693
18.48000 7.379
18.50000 3.413
18.52000 1.397
18.54000 7.412
18.56000 12.094
18.58000 12.474
18.60000 10.355
18.62000 9.731
18.64000 12.731
18.66000 11.768
18.68000 8.585
18.70000 3.535
18.72000 2.580
18.74000 3.977
18.76000 5.885
18.78000 8.411
18.80000 9.666
18.82000 10.617
18.84000 5.327
18.86000 8.374
18.88000 6.467
18.90000 10.004
18.92000 12.540
18.94000 6.142
18.96000 1.209
18.98000 8.982
19.00000 11.281
19.02000 9.061
19.04000 8.049
19.06000 4.804
19.08000 8.741
19.10000 10.148
19.12000 8.567
19.14000 8.478
19.16000 0.187
19.18000 -2.063
19.20000 9.840
19.22000 10.731
19.24000 8.663
19.26000 -1.699
19.28000 -4.273
19.30000 1.484
19.32000 3.930
19.34000 4.716
19.36000 9.966
19.38000 12.308
19.40000 12.936
19.42000 6.079
19.44000 5.782
19.46000 10.108
19.48000 7.310
19.50000 7.613
19.52000 8.081
19.54000 8.970
19.56000 12.778
19.58000 11.537
19.60000 10.953
19.62000 7.944
19.64000 14.201
19.66000 0.694
19.68000 3.840
19.70000 11.237
19.72000 7.767
19.74000 7.802
19.76000 8.715
19.78000 2.706
19.80000 2.463
19.82000 3.183
19.84000 3.627
19.86000 4.307
19.88000 6.420
19.90000 8.548
19.92000 6.150
19.94000 8.772
19.96000 7.155
19.98000 7.878
20.00000 3.867
20.02000 4.599
20.04000 11.704
20.06000 9.831
20.08000 8.875
20.10000 5.275
20.12000 1.858
20.14000 4.714
20.16000 9.954
20.18000 9.610
20.20000 11.359
20.22000 6.725
20.24000 6.649
20.26000 5.777
20.28000 5.137
20.30000 11.238
20.32000 9.208
20.34000 6.255
20.36000 -0.207
20.38000 3.473
20.40000 8.321
20.42000 7.560
20.44000 3.579
20.46000 9.650
20.48000 1.883
20.50000 2.247
20.52000 0.461
20.54000 -2.049
20.56000 5.777
20.58000 10.481
20.60000 3.382
20.62000 -3.792
20.64000 -3.043
20.66000 2.775
20.68000 3.356
20.70000 4.632
20.72000 1.660
20.74000 9.096
20.76000 10.727
20.78000 8.075
20.80000 7.520
20.82000 0.317
20.84000 0.405
20.86000 -1.214
20.88000 0.219
20.90000 1.689
20.92000 0.616
20.94000 4.423
20.96000 1.373
20.98000 3.279
21.00000 -2.686
21.02000 0.913
21.04000 9.870
21.06000 5.049
21.08000 0.523
21.10000 -3.257
21.12000 -0.292
21.14000 -0.837
21.16000 1.060
21.18000 6.389
21.20000 1.370
21.22000 7.736
21.24000 5.465
21.26000 -0.848
21.28000 0.007
21.30000 3.014
21.32000 6.697
21.34000 3.206
21.36000 -2.482
21.38000 2.250
21.40000 7.696
21.42000 8.644
21.44000 6.083
21.46000 0.895
21.48000 -2.626
21.50000 5.035
21.52000 9.539
21.54000 7.680
21.56000 2.830
21.58000 2.263
21.60000 2.317
21.62000 4.403
21.64000 4.580
21.66000 5.912
21.68000 4.881
21.70000 8.279
21.72000 2.453
21.74000 2.416
21.76000 4.555
21.78000 12.067
21.80000 11.243
21.82000 8.696
21.84000 6.900
21.86000 1.270
21.88000 4.111
21.90000 -3.350
21.92000 -3.639
21.94000 -1.444
21.96000 4.285
21.98000 7.074
22.00000 4.944
22.02000 1.431
22.04000 -4.062
22.06000 2.985
22.08000 -0.521
22.10000 -4.145
22.12000 5.407
22.14000 4.744
22.16000 0.596
22.18000 0.455
22.20000 5.971
22.22000 8.853
22.24000 3.724
22.26000 1.061
22.28000 -0.926
22.30000 10.770
22.32000 11.119
22.34000 8.190
22.36000 7.709
22.38000 7.393
22.40000 5.136
22.42000 3.587
22.44000 0.128
22.46000 -4.118
22.48000 -3.154
22.50000 0.885
22.52000 4.841
22.54000 5.927
22.56000 5.439
22.58000 4.656
22.60000 1.794
22.62000 11.298
22.64000 3.210
22.66000 3.702
22.68000 3.741
22.70000 8.751
22.72000 11.412
22.74000 18.591
22.76000 13.403
22.78000 5.264
22.80000 3.419
22.82000 3.793
22.84000 10.617
22.86000 14.217
22.88000 16.740
22.90000 10.278
22.92000 8.136
22.94000 8.138
22.96000 5.160
22.98000 5.433
23.00000 6.508
23.02000 4.237
23.04000 10.333
23.06000 13.515
23.08000 9.029
23.10000 5.770
23.12000 5.135
23.14000 6.135
23.16000 -0.886
23.18000 -4.061
23.20000 -2.123
23.22000 -1.540
23.24000 1.738
23.26000 4.687
23.28000 5.066
23.30000 7.673
23.32000 7.789
23.34000 8.221
23.36000 11.107
23.38000 10.450
23.40000 7.579
23.42000 5.573
23.44000 2.074
23.46000 4.057
23.48000 5.566
23.50000 4.425
23.52000 1.140
23.54000 5.931
23.56000 6.962
23.58000 6.439
23.60000 9.784
23.62000 3.752
23.64000 5.449
23.66000 7.001
23.68000 4.523
23.70000 7.173
23.72000 7.811
23.74000 1.774
23.76000 2.674
23.78000 3.874
23.80000 7.858
23.82000 4.897
23.84000 5.965
23.86000 5.260
23.88000 4.512
23.90000 1.486
23.92000 -2.402
23.94000 1.868
23.96000 8.517
23.98000 2.859
24.00000 1.720
24.02000 3.435
24.04000 7.996
24.06000 9.157
24.08000 8.484
24.10000 4.070
24.12000 5.350
24.14000 -0.830
24.16000 2.531
24.18000 7.186
24.20000 12.510
24.22000 9.050
24.24000 10.400
24.26000 8.633
24.28000 1.645
24.30000 -4.012
24.32000 -1.076
24.34000 3.887
24.36000 3.572
24.38000 11.127
24.40000 11.331
24.42000 3.045
24.44000 -3.573
24.46000 -0.575
24.48000 8.615
24.50000 3.071
24.52000 4.749
24.54000 -0.093
24.56000 -4.002
24.58000 2.202
24.60000 9.631
24.62000 5.716
24.64000 1.497
24.66000 3.990
24.68000 4.175
24.70000 1.418
24.72000 3.463
24.74000 6.145
24.76000 4.526
24.78000 6.191
24.80000 5.492
24.82000 5.699
24.84000 5.480
24.86000 9.277
24.88000 10.358
24.90000 7.794
24.92000 1.921
24.94000 -3.493
24.96000 -0.265
24.98000 6.415
25.00000 8.316
25.02000 1.072
25.04000 0.074
25.06000 5.954
25.08000 6.918
25.10000 8.045
25.12000 4.089
25.14000 1.789
25.16000 3.716
25.18000 2.807
25.20000 5.456
25.22000 4.883
25.24000 1.069
25.26000 -0.924
25.28000 -1.910
25.30000 0.280
25.32000 3.138
25.34000 7.164
25.36000 7.538
25.38000 3.780
25.40000 -2.908
25.42000 -2.407
25.44000 3.894
25.46000 5.846
25.48000 4.226
25.50000 4.741
25.52000 -3.968
25.54000 -2.497
25.56000 6.894
25.58000 7.976
25.60000 7.166
25.62000 3.053
25.64000 2.758
25.66000 -2.745
25.68000 -1.009
25.70000 5.295
25.72000 5.141
25.74000 2.823
25.76000 0.833
25.78000 5.542
25.80000 1.192
25.82000 1.484
25.84000 1.979
25.86000 -1.308
25.88000 0.156
25.90000 2.689
25.92000 5.076
25.94000 5.592
25.96000 5.347
25.98000 2.903
26.00000 5.296
26.02000 9.867
26.04000 3.046
26.06000 1.903
26.08000 0.780
26.10000 -1.411
26.12000 3.305
26.14000 6.234
26.16000 0.126
26.18000 -3.390
26.20000 -0.803
26.22000 0.175
26.24000 -0.587
26.26000 4.379
26.28000 4.766
26.30000 0.406
26.32000 1.564
26.34000 -0.113
26.36000 -2.030
26.38000 -0.539
26.40000 3.730
26.42000 2.528
26.44000 4.157
26.46000 1.767
26.48000 7.142
26.50000 5.324
26.52000 2.335
26.54000 2.063
26.56000 -0.276
26.58000 4.560
26.60000 4.735
26.62000 5.949
26.64000 12.539
26.66000 10.576
26.68000 4.757
26.70000 5.607
26.72000 1.859
26.74000 6.994
26.76000 5.533
26.78000 0.124
26.80000 0.384
26.82000 3.301
26.84000 -0.074
26.86000 -3.885
26.88000 0.887
26.90000 1.611
26.92000 1.607
26.94000 2.021
26.96000 5.721
26.98000 3.475
27.00000 10.136
27.02000 1.071
27.04000 3.887
27.06000 4.507
27.08000 1.202
27.10000 2.989
27.12000 5.252
27.14000 6.081
27.16000 0.968
27.18000 -1.194
27.20000 7.721
27.22000 10.572
27.24000 5.733
27.26000 7.587
27.28000 0.651
27.30000 3.104
27.32000 6.430
27.34000 1.074
27.36000 2.446
27.38000 3.532
27.40000 2.882
27.42000 5.516
27.44000 6.304
27.46000 4.470
27.48000 3.126
27.50000 -0.609
27.52000 -2.506
27.54000 4.453
27.56000 10.140
27.58000 6.599
27.60000 -2.835
27.62000 0.329
27.64000 -1.109
27.66000 3.736
27.68000 -0.242
27.70000 3.700
27.72000 3.767
27.74000 7.034
27.76000 4.201
27.78000 3.393
27.80000 1.680
27.82000 0.496
27.84000 -0.095
27.86000 2.629
27.88000 0.233
27.90000 0.488
27.92000 2.699
27.94000 8.128
27.96000 0.717
27.98000 -3.853
28.00000 1.128
28.02000 1.016
28.04000 -0.271
28.06000 -3.200
28.08000 -0.994
28.10000 5.248
28.12000 4.519
28.14000 6.295
28.16000 0.689
28.18000 -2.044
28.20000 -2.339
28.22000 -3.663
28.24000 -1.671
28.26000 1.617
28.28000 5.012
28.30000 8.181
28.32000 2.344
28.34000 2.647
28.36000 1.916
28.38000 0.750
28.40000 -3.530
28.42000 4.566
28.44000 4.404
28.46000 3.216
28.48000 1.006
28.50000 -0.372
28.52000 -0.828
28.54000 -3.085
28.56000 -0.189
28.58000 3.668
28.60000 1.635
28.62000 0.278
28.64000 -1.960
28.66000 1.403
28.68000 1.373
28.70000 2.309
28.72000 -1.714
28.74000 0.905
28.76000 -2.786
28.78000 0.741
28.80000 1.921
28.82000 3.560
28.84000 2.254
28.86000 0.112
28.88000 2.553
28.90000 1.533
28.92000 -1.370
28.94000 1.298
28.96000 -1.757
28.98000 2.094
29.00000 -0.537
29.02000 -1.715
29.04000 -0.897
29.06000 -2.216
29.08000 0.199
29.10000 -1.409
29.12000 1.973
29.14000 3.254
29.16000 1.484
29.18000 -2.999
29.20000 -3.806
29.22000 -2.776
29.24000 -2.743
29.26000 1.637
29.28000 8.506
29.30000 3.126
29.32000 -1.508
29.34000 -3.422
29.36000 -0.829
29.38000 -3.540
29.40000 2.824
29.42000 0.164
29.44000 -0.872
29.46000 0.672
29.48000 4.167
29.50000 6.580
29.52000 4.210
29.54000 -0.074
29.56000 3.887
29.58000 2.720
29.60000 -2.945
29.62000 3.297
29.64000 2.387
29.66000 1.767
29.68000 1.884
29.70000 -0.339
29.72000 1.756
29.74000 1.315
29.76000 4.216
29.78000 -1.872
29.80000 3.255
29.82000 6.136
29.84000 7.801
29.86000 6.534
29.88000 6.641
29.90000 10.691
29.92000 5.446
29.94000 6.400
29.96000 6.571
29.98000 -0.153
30.00000 4.311
30.02000 3.632
30.04000 -0.310
30.06000 -3.730
30.08000 2.068
30.10000 1.744
30.12000 -2.294
30.14000 3.706
30.16000 7.708
30.18000 9.024
30.20000 7.003
30.22000 7.587
30.24000 10.589
30.26000 8.351
30.28000 2.125
30.30000 1.488
30.32000 2.155
30.34000 6.017
30.36000 7.071
30.38000 4.288
30.40000 3.746
30.42000 5.473
30.44000 4.174
30.46000 3.068
30.48000 2.190
30.50000 2.394
30.52000 0.004
30.54000 -0.074
30.56000 6.074
30.58000 2.638
30.60000 2.645
30.62000 9.031
30.64000 4.977
30.66000 -0.729
30.68000 -1.484
30.70000 1.593
30.72000 3.838
30.74000 5.728
30.76000 3.523
30.78000 2.270
30.80000 2.076
30.82000 3.342
30.84000 -0.746
30.86000 -2.242
30.88000 7.543
30.90000 5.043
30.92000 -1.800
30.94000 -1.659
30.96000 -0.045
30.98000 3.249
31.00000 2.425
31.02000 -0.549
31.04000 1.492
31.06000 3.260
31.08000 2.222
31.10000 -0.565
31.12000 -0.380
31.14000 0.616
31.16000 0.464
31.18000 1.327
31.20000 -0.689
31.22000 -0.646
31.24000 2.521
31.26000 -2.123
31.28000 -2.895
31.30000 -2.710
31.32000 -3.709
31.34000 2.526
31.36000 11.367
31.38000 10.608
31.40000 4.182
31.42000 3.383
31.44000 5.146
31.46000 6.150
31.48000 5.284
31.50000 7.706
31.52000 0.972
31.54000 -0.807
31.56000 1.270
31.58000 2.606
31.60000 2.249
31.62000 4.199
31.64000 5.089
31.66000 4.557
31.68000 4.548
31.70000 6.357
31.72000 2.179
31.74000 -0.939
31.76000 -2.295
31.78000 3.840
31.80000 2.007
31.82000 0.524
31.84000 -0.417
31.86000 2.258
31.88000 0.840
31.90000 7.150
31.92000 7.791
31.94000 5.823
31.96000 8.347
31.98000 8.226
32.00000 8.661
32.02000 6.743
32.04000 2.913
32.06000 -3.663
32.08000 1.117
32.10000 4.186
32.12000 4.345
32.14000 2.511
32.16000 2.416
32.18000 4.231
32.20000 0.103
32.22000 0.012
32.24000 3.009
32.26000 -0.051
32.28000 -0.756
32.30000 2.930
32.32000 4.635
32.34000 3.137
32.36000 8.188
32.38000 7.344
32.40000 3.738
32.42000 2.568
32.44000 3.994
32.46000 1.491
32.48000 -1.067
32.50000 -1.946
32.52000 2.180
32.54000 1.977
32.56000 -3.666
32.58000 -0.408
32.60000 -0.975
32.62000 2.747
32.64000 1.514
32.66000 2.959
32.68000 1.557
32.70000 1.738
32.72000 3.679
32.74000 5.760
32.76000 1.460
32.78000 -0.317
32.80000 1.970
32.82000 2.857
32.84000 2.189
32.86000 -1.219
32.88000 1.067
32.90000 3.214
32.92000 -0.281
32.94000 4.074
32.96000 4.155
32.98000 1.703
33.00000 1.559
33.02000 1.178
33.04000 0.636
33.06000 2.465
33.08000 8.867
33.10000 6.756
33.12000 4.527
33.14000 3.238
33.16000 1.514
33.18000 1.588
33.20000 0.341
33.22000 1.055
33.24000 5.043
33.26000 4.732
33.28000 3.006
33.30000 1.080
33.32000 5.002
33.34000 1.761
33.36000 1.115
33.38000 -0.526
33.40000 0.056
33.42000 3.226
33.44000 5.222
33.46000 6.506
33.48000 6.245
33.50000 2.147
33.52000 1.626
33.54000 -1.685
33.56000 -3.558
33.58000 -0.643
33.60000 7.202
33.62000 7.817
33.64000 7.646
33.66000 3.150
33.68000 2.064
33.70000 7.021
33.72000 5.901
33.74000 -0.021
33.76000 -3.645
33.78000 1.031
33.80000 10.527
33.82000 13.068
33.84000 0.580
33.86000 -0.497
33.88000 0.481
33.90000 2.510
33.92000 4.649
33.94000 6.937
33.96000 4.993
33.98000 4.382
34.00000 7.026
34.02000 0.818
34.04000 2.640
34.06000 10.553
34.08000 11.727
34.10000 3.405
34.12000 0.312
34.14000 2.640
34.16000 2.963
34.18000 2.938
34.20000 2.527
34.22000 4.199
34.24000 2.157
34.26000 2.377
34.28000 2.242
34.30000 1.489
34.32000 5.738
34.34000 2.948
34.36000 -0.116
34.38000 2.514
34.40000 3.291
34.42000 4.197
34.44000 1.428
34.46000 0.792
34.48000 2.147
34.50000 0.603
34.52000 1.108
34.54000 4.803
34.56000 3.597
34.58000 1.448
34.60000 2.058
34.62000 2.035
34.64000 3.502
34.66000 5.341
34.68000 4.739
34.70000 1.003
34.72000 -3.503
34.74000 -0.760
34.76000 1.116
34.78000 2.867
34.80000 3.339
34.82000 0.465
34.84000 0.376
34.86000 -2.910
34.88000 -2.941
34.90000 3.896
34.92000 0.661
34.94000 2.072
34.96000 1.725
34.98000 3.811
35.00000 2.293
35.02000 1.005
35.04000 -3.652
35.06000 -2.543
35.08000 2.631
35.10000 2.115
35.12000 1.945
35.14000 -0.098
35.16000 -0.330
35.18000 -3.572
35.20000 -2.000
35.22000 -0.381
35.24000 0.836
35.26000 0.059
35.28000 2.186
35.30000 0.207
35.32000 5.541
35.34000 4.605
35.36000 3.746
35.38000 -0.512
35.40000 2.076
35.42000 4.463
35.44000 1.258
35.46000 3.179
35.48000 6.147
35.50000 1.140
35.52000 -2.837
35.54000 0.321
35.56000 2.083
35.58000 -1.633
35.60000 2.078
35.62000 2.145
35.64000 9.667
35.66000 8.715
35.68000 2.336
35.70000 -3.625
35.72000 1.970
35.74000 2.859
35.76000 -0.050
35.78000 9.795
35.80000 9.887
35.82000 4.114
35.84000 -1.043
35.86000 -1.811
35.88000 0.381
35.90000 5.799
35.92000 6.396
35.94000 7.972
35.96000 4.426
35.98000 4.364
36.00000 7.715
36.02000 6.462
36.04000 10.604
36.06000 5.067
36.08000 3.416
36.10000 4.199
36.12000 2.626
36.14000 6.226
36.16000 3.051
36.18000 -3.611
36.20000 0.872
36.22000 5.394
36.24000 5.996
36.26000 7.837
36.28000 7.698
36.30000 0.776
36.32000 0.650
36.34000 5.066
36.36000 5.570
36.38000 2.325
36.40000 2.417
36.42000 8.739
36.44000 8.020
36.46000 6.352
36.48000 0.198
36.50000 2.415
36.52000 6.152
36.54000 7.348
36.56000 4.513
36.58000 5.554
36.60000 8.267
36.62000 3.870
36.64000 4.247
36.66000 3.456
36.68000 3.088
36.70000 8.870
36.72000 3.945
36.74000 -0.520
36.76000 -1.246
36.78000 5.875
36.80000 2.935
36.82000 3.137
36.84000 6.470
36.86000 6.638
36.88000 6.118
36.90000 4.642
36.92000 2.334
36.94000 2.317
36.96000 2.265
36.98000 5.593
37.00000 2.988
37.02000 6.026
37.04000 4.060
37.06000 4.873
37.08000 9.564
37.10000 8.887
37.12000 2.197
37.14000 2.123
37.16000 4.380
37.18000 7.337
37.20000 9.156
37.22000 3.187
37.24000 1.983
37.26000 3.520
37.28000 0.555
37.30000 7.038
37.32000 9.272
37.34000 7.627
37.36000 4.812
37.38000 2.253
37.40000 3.852
37.42000 7.247
37.44000 4.660
37.46000 8.529
37.48000 11.490
37.50000 7.301
37.52000 9.616
37.54000 7.928
37.56000 5.129
37.58000 12.721
37.60000 18.072
37.62000 15.709
37.64000 13.869
37.66000 12.035
37.68000 14.565
37.70000 17.208
37.72000 11.573
37.74000 16.773
37.76000 16.405
37.78000 16.534
37.80000 21.724
37.82000 20.356
37.84000 20.278
37.86000 22.571
37.88000 20.881
37.90000 19.298
37.92000 19.726
37.94000 21.418
37.96000 24.516
37.98000 25.284
38.00000 27.771
38.02000 23.673
38.04000 25.852
38.06000 25.410
38.08000 23.434
38.10000 20.257
38.12000 30.027
38.14000 32.095
38.16000 33.239
38.18000 37.432
38.20000 35.560
38.22000 37.376
38.24000 36.226
38.26000 34.196
38.28000 35.579
38.30000 37.368
38.32000 42.282
38.34000 42.422
38.36000 41.793
38.38000 43.054
38.40000 41.046
38.42000 44.311
38.44000 50.973
38.46000 58.191
38.48000 55.783
38.50000 57.628
38.52000 59.790
38.54000 59.648
38.56000 64.178
38.58000 70.020
38.60000 66.616
38.62000 74.324
38.64000 81.708
38.66000 81.013
38.68000 85.931
38.70000 88.202
38.72000 89.971
38.74000 99.908
38.76000 99.908
38.78000 103.563
38.80000 105.917
38.82000 117.520
38.84000 124.510
38.86000 125.817
38.88000 126.355
38.90000 139.999
38.92000 148.288
38.94000 154.085
38.96000 160.932
38.98000 168.401
39.00000 178.672
39.02000 183.681
39.04000 193.140
39.06000 213.571
39.08000 227.634
39.10000 242.875
39.12000 251.035
39.14000 266.671
39.16000 278.550
39.18000 291.927
39.20000 310.911
39.22000 320.250
39.24000 340.170
39.26000 367.586
39.28000 391.845
39.30000 412.677
39.32000 421.479
39.34000 449.741
39.36000 473.585
39.38000 489.982
39.40000 504.767
39.42000 526.806
39.44000 542.912
39.46000 556.422
39.48000 582.702
39.50000 609.967
39.52000 626.016
39.54000 636.723
39.56000 649.563
39.58000 657.498
39.60000 663.422
39.62000 666.173
39.64000 670.635
39.66000 667.726
39.68000 662.227
39.70000 661.549
39.72000 654.883
39.74000 640.912
39.76000 624.183
39.78000 621.097
39.80000 605.641
39.82000 575.110
39.84000 570.308
39.86000 554.018
39.88000 523.851
39.90000 501.135
39.92000 483.313
39.94000 462.677
39.96000 432.137
39.98000 412.178
40.00000 388.982
40.02000 361.941
40.04000 344.839
40.06000 330.871
40.08000 311.008
40.10000 291.128
40.12000 271.470
40.14000 256.748
40.16000 244.187
40.18000 230.598
40.20000 210.963
40.22000 199.924
40.24000 189.770
40.26000 177.980
40.28000 166.863
40.30000 152.212
40.32000 145.429
40.34000 142.288
40.36000 130.467
40.38000 118.272
40.40000 113.227
40.42000 106.487
40.44000 99.331
40.46000 93.895
40.48000 86.961
40.50000 79.029
40.52000 79.376
40.54000 73.981
40.56000 66.606
40.58000 61.427
40.60000 63.437
40.62000 58.081
40.64000 54.580
40.66000 51.560
40.68000 47.799
40.70000 45.794
40.72000 40.680
40.74000 39.445
40.76000 41.133
40.78000 38.786
40.80000 38.153
40.82000 35.577
40.84000 32.178
40.86000 29.905
40.88000 26.014
40.90000 26.370
40.92000 26.222
40.94000 25.272
40.96000 18.242
40.98000 19.114
41.00000 21.566
41.02000 18.359
41.04000 15.241
41.06000 14.954
41.08000 13.575
41.10000 17.300
41.12000 19.190
41.14000 9.919
41.16000 12.296
41.18000 12.392
41.20000 11.523
41.22000 13.666
41.24000 8.269
41.26000 7.975
41.28000 8.285
41.30000 11.818
41.32000 13.493
41.34000 10.318
41.36000 2.600
41.38000 5.224
41.40000 2.801
41.42000 4.560
41.44000 2.714
41.46000 5.522
41.48000 6.847
41.50000 3.306
41.52000 2.220
41.54000 4.008
41.56000 7.313
41.58000 3.995
41.60000 1.471
41.62000 -0.634
41.64000 -0.056
41.66000 6.101
41.68000 7.232
41.70000 3.276
41.72000 2.951
41.74000 3.650
41.76000 4.299
41.78000 4.517
41.80000 2.422
41.82000 1.325
41.84000 -2.024
41.86000 -1.338
41.88000 2.719
41.90000 2.707
41.92000 3.334
41.94000 1.628
41.96000 -2.039
41.98000 -1.214
42.00000 -0.285
42.02000 -1.672
42.04000 1.978
42.06000 -0.690
42.08000 0.180
42.10000 0.133
42.12000 3.241
42.14000 0.833
42.16000 0.241
42.18000 -1.801
42.20000 -1.902
42.22000 1.370
42.24000 0.337
42.26000 0.068
42.28000 0.221
42.30000 -0.350
42.32000 -1.605
42.34000 -1.164
42.36000 -2.126
42.38000 2.982
42.40000 1.944
42.42000 1.289
42.44000 3.967
42.46000 2.618
42.48000 0.732
42.50000 1.092
42.52000 -0.515
42.54000 0.513
42.56000 1.907
42.58000 4.534
42.60000 -1.065
42.62000 -1.413
42.64000 -1.476
42.66000 -1.199
42.68000 -3.118
42.70000 -2.419
42.72000 -3.275
42.74000 1.650
42.76000 3.232
42.78000 3.613
42.80000 2.196
42.82000 1.577
42.84000 2.416
42.86000 0.356
42.88000 2.722
42.90000 5.082
42.92000 2.026
42.94000 2.767
42.96000 1.115
42.98000 -0.595
43.00000 -2.291
43.02000 -1.793
43.04000 -2.761
43.06000 2.240
43.08000 1.782
43.10000 0.318
43.12000 -1.280
43.14000 -3.235
43.16000 -2.752
43.18000 -1.654
43.20000 -2.386
43.22000 -0.568
43.24000 0.146
43.26000 3.527
43.28000 1.083
43.30000 0.661
43.32000 1.578
43.34000 -0.490
43.36000 0.133
43.38000 4.583
43.40000 2.244
43.42000 1.333
43.44000 1.516
43.46000 1.175
43.48000 -1.630
43.50000 -3.204
43.52000 -2.365
43.54000 1.780
43.56000 -0.454
43.58000 -2.465
43.60000 -1.614
43.62000 3.132
43.64000 1.078
43.66000 1.970
43.68000 0.083
43.70000 -1.645
43.72000 1.044
43.74000 1.671
43.76000 2.400
43.78000 -1.317
43.80000 -0.994
43.82000 -0.097
43.84000 -0.929
43.86000 -3.166
43.88000 -0.924
43.90000 0.756
43.92000 4.446
43.94000 3.856
43.96000 1.220
43.98000 3.412
44.00000 1.258
44.02000 2.676
44.04000 1.458
44.06000 -2.746
44.08000 0.239
44.10000 2.667
44.12000 2.710
44.14000 3.137
44.16000 0.805
44.18000 1.417
44.20000 3.297
44.22000 2.018
44.24000 4.454
44.26000 5.045
44.28000 4.511
44.30000 3.533
44.32000 2.256
44.34000 3.111
44.36000 3.474
44.38000 2.331
44.40000 -0.825
44.42000 1.697
44.44000 -1.140
44.46000 1.045
44.48000 1.165
44.50000 -0.368
44.52000 0.519
44.54000 2.757
44.56000 4.234
44.58000 5.929
44.60000 7.272
44.62000 2.062
44.64000 -3.120
44.66000 0.827
44.68000 4.354
44.70000 1.992
44.72000 6.039
44.74000 8.261
44.76000 9.087
44.78000 6.329
44.80000 2.207
44.82000 4.478
44.84000 8.588
44.86000 6.277
44.88000 6.939
44.90000 7.951
44.92000 7.492
44.94000 9.791
44.96000 7.866
44.98000 4.026
45.00000 8.392
45.02000 9.550
45.04000 11.812
45.06000 9.878
45.08000 9.735
45.10000 9.070
45.12000 9.554
45.14000 5.135
45.16000 10.036
45.18000 11.443
45.20000 11.009
45.22000 13.885
45.24000 9.964
45.26000 12.136
45.28000 13.501
45.30000 13.362
45.32000 14.314
45.34000 20.838
45.36000 16.998
45.38000 16.225
45.40000 19.025
45.42000 20.142
45.44000 18.657
45.46000 22.535
45.48000 25.126
45.50000 24.413
45.52000 22.605
45.54000 23.341
45.56000 25.813
45.58000 23.386
45.60000 23.968
45.62000 28.898
45.64000 33.189
45.66000 32.477
45.68000 29.615
45.70000 29.190
45.72000 31.339
45.74000 37.458
45.76000 35.280
45.78000 40.870
45.80000 39.692
45.82000 39.090
45.84000 39.230
45.86000 42.962
45.88000 43.201
45.90000 40.546
45.92000 45.803
45.94000 47.351
45.96000 52.418
45.98000 54.343
46.00000 53.548
46.02000 51.410
46.04000 53.612
46.06000 59.827
46.08000 59.212
46.10000 58.309
46.12000 64.588
46.14000 64.513
46.16000 66.109
46.18000 65.036
46.20000 62.636
46.22000 62.858
46.24000 62.141
46.26000 65.592
46.28000 68.885
46.30000 69.267
46.32000 68.303
46.34000 67.974
46.36000 69.795
46.38000 67.299
46.40000 66.542
46.42000 62.943
46.44000 64.306
46.46000 64.885
46.48000 67.419
46.50000 66.759
46.52000 66.576
46.54000 67.039
46.56000 61.996
46.58000 57.624
46.60000 57.374
46.62000 61.140
46.64000 57.805
46.66000 52.888
46.68000 53.356
46.70000 50.431
46.72000 50.177
46.74000 52.577
46.76000 48.347
46.78000 41.685
46.80000 42.895
46.82000 43.376
46.84000 41.320
46.86000 41.137
46.88000 39.181
46.90000 38.721
46.92000 35.099
46.94000 32.909
46.96000 32.012
46.98000 25.030
47.00000 25.027
47.02000 26.017
47.04000 28.101
47.06000 21.051
47.08000 19.508
47.10000 18.680
47.12000 21.824
47.14000 22.994
47.16000 19.804
47.18000 17.429
47.20000 15.308
47.22000 13.213
47.24000 14.335
47.26000 10.077
47.28000 8.492
47.30000 11.729
47.32000 13.310
47.34000 11.964
47.36000 8.972
47.38000 9.387
47.40000 7.675
47.42000 7.482
47.44000 4.314
47.46000 7.451
47.48000 7.335
47.50000 2.494
47.52000 2.906
47.54000 6.503
47.56000 1.179
47.58000 1.991
47.60000 5.927
47.62000 6.002
47.64000 1.014
47.66000 -1.017
47.68000 -2.821
47.70000 0.144
47.72000 2.521
47.74000 3.050
47.76000 -0.012
47.78000 -0.741
47.80000 2.643
47.82000 2.754
47.84000 -0.624
47.86000 0.494
47.88000 1.786
47.90000 4.818
47.92000 5.257
47.94000 2.447
47.96000 -0.737
47.98000 2.502
48.00000 3.215
48.02000 4.170
48.04000 2.132
48.06000 2.211
48.08000 2.805
48.10000 0.906
48.12000 2.965
48.14000 3.314
48.16000 4.043
48.18000 2.117
48.20000 -0.950
48.22000 0.931
48.24000 2.990
48.26000 4.372
48.28000 2.549
48.30000 0.843
48.32000 -1.230
48.34000 -0.515
48.36000 2.259
48.38000 2.731
48.40000 2.623
48.42000 2.792
48.44000 -2.677
48.46000 -0.175
48.48000 4.204
48.50000 1.375
48.52000 -0.848
48.54000 4.664
48.56000 7.808
48.58000 4.610
48.60000 4.108
48.62000 3.121
48.64000 3.158
48.66000 4.490
48.68000 4.544
48.70000 -2.639
48.72000 -1.372
48.74000 2.343
48.76000 3.497
48.78000 3.709
48.80000 7.234
48.82000 3.480
48.84000 2.928
48.86000 0.346
48.88000 -1.573
48.90000 2.629
48.92000 2.315
48.94000 2.042
48.96000 2.215
48.98000 0.397
49.00000 3.790
49.02000 1.319
49.04000 2.334
49.06000 -0.288
49.08000 1.826
49.10000 1.869
49.12000 2.577
49.14000 -2.033
49.16000 1.331
49.18000 3.367
49.20000 5.338
49.22000 5.081
49.24000 -0.636
49.26000 0.410
49.28000 4.034
49.30000 3.506
49.32000 4.754
49.34000 4.349
49.36000 2.936
49.38000 2.691
49.40000 4.135
49.42000 1.455
49.44000 2.046
49.46000 1.444
49.48000 1.789
49.50000 0.541
49.52000 -0.695
49.54000 -1.308
49.56000 -0.771
49.58000 0.714
49.60000 -0.504
49.62000 0.357
49.64000 4.245
49.66000 4.237
49.68000 2.581
49.70000 2.612
49.72000 2.802
49.74000 -1.392
49.76000 -0.522
49.78000 3.244
49.80000 5.852
49.82000 3.954
49.84000 1.494
49.86000 2.872
49.88000 3.248
49.90000 4.086
49.92000 2.897
49.94000 2.708
49.96000 1.881
49.98000 4.473
50.00000 5.200
50.02000 3.657
50.04000 0.227
50.06000 1.198
50.08000 0.392
50.10000 3.559
50.12000 5.732
50.14000 4.129
50.16000 0.764
50.18000 -0.751
50.20000 -2.550
50.22000 0.146
50.24000 2.263
50.26000 0.220
50.28000 -0.577
50.30000 -2.511
50.32000 1.840
50.34000 3.835
50.36000 -0.362
50.38000 -0.879
50.40000 -0.093
50.42000 1.255
50.44000 1.398
50.46000 0.882
50.48000 3.236
50.50000 7.546
50.52000 7.502
50.54000 5.849
50.56000 3.359
50.58000 5.278
50.60000 5.470
50.62000 3.188
50.64000 2.576
50.66000 -1.591
50.68000 2.982
50.70000 3.551
50.72000 4.131
50.74000 1.914
50.76000 1.343
50.78000 3.165
50.80000 3.248
50.82000 0.414
50.84000 3.706
50.86000 5.441
50.88000 2.871
50.90000 -1.284
50.92000 3.778
50.94000 3.542
50.96000 1.210
50.98000 0.677
51.00000 2.087
51.02000 2.378
51.04000 4.009
51.06000 5.414
51.08000 3.660
51.10000 2.115
51.12000 0.905
51.14000 -2.013
51.16000 -1.290
51.18000 -0.558
51.20000 -2.538
51.22000 -0.011
51.24000 0.463
51.26000 3.358
51.28000 3.533
51.30000 0.865
51.32000 4.815
51.34000 1.729
51.36000 1.841
51.38000 1.406
51.40000 2.022
51.42000 1.841
51.44000 0.377
51.46000 1.315
51.48000 2.697
51.50000 -0.297
51.52000 -0.851
51.54000 -2.534
51.56000 -0.665
51.58000 -1.289
51.60000 3.543
51.62000 3.515
51.64000 0.806
51.66000 0.178
51.68000 2.672
51.70000 2.684
51.72000 1.472
51.74000 0.701
51.76000 2.431
51.78000 2.517
51.80000 6.289
51.82000 6.037
51.84000 2.905
51.86000 -1.447
51.88000 0.304
51.90000 2.289
51.92000 4.511
51.94000 2.256
51.96000 1.932
51.98000 2.042
52.00000 -0.207
52.02000 0.909
52.04000 4.261
52.06000 3.537
52.08000 0.440
52.10000 -1.454
52.12000 0.513
52.14000 5.950
52.16000 3.422
52.18000 2.696
52.20000 7.558
52.22000 3.271
52.24000 -0.156
52.26000 3.107
52.28000 -2.515
52.30000 1.300
52.32000 3.175
52.34000 0.098
52.36000 4.836
52.38000 4.565
52.40000 0.831
52.42000 2.331
52.44000 -0.994
52.46000 0.197
52.48000 1.269
52.50000 2.338
52.52000 -0.490
52.54000 -0.296
52.56000 0.703
52.58000 2.892
52.60000 1.110
52.62000 0.560
52.64000 -2.489
52.66000 -0.235
52.68000 4.396
52.70000 3.900
52.72000 2.639
52.74000 0.833
52.76000 1.723
52.78000 2.359
52.80000 2.952
52.82000 2.570
52.84000 5.338
52.86000 4.065
52.88000 2.899
52.90000 1.953
52.92000 1.696
52.94000 2.296
52.96000 1.510
52.98000 4.980
53.00000 1.772
53.02000 -0.187
53.04000 -0.435
53.06000 0.919
53.08000 7.304
53.10000 5.234
53.12000 3.251
53.14000 2.552
53.16000 6.686
53.18000 -0.550
53.20000 -0.578
53.22000 4.462
53.24000 1.917
53.26000 3.190
53.28000 3.330
53.30000 1.008
53.32000 3.079
53.34000 0.600
53.36000 -2.491
53.38000 -1.636
53.40000 -0.217
53.42000 0.275
53.44000 2.773
53.46000 3.897
53.48000 2.732
53.50000 0.479
53.52000 2.491
53.54000 3.148
53.56000 1.885
53.58000 0.583
53.60000 1.323
53.62000 0.212
53.64000 0.734
53.66000 6.025
53.68000 3.529
53.70000 2.801
53.72000 4.789
53.74000 1.006
53.76000 0.204
53.78000 3.207
53.80000 2.008
53.82000 2.496
53.84000 3.399
53.86000 4.470
53.88000 4.123
53.90000 3.926
53.92000 4.671
53.94000 4.730
53.96000 5.057
53.98000 1.928
54.00000 1.166
54.02000 0.449
54.04000 5.258
54.06000 1.057
54.08000 -1.762
54.10000 2.244
54.12000 6.999
54.14000 2.137
54.16000 1.900
54.18000 0.573
54.20000 3.537
54.22000 5.299
54.24000 0.231
54.26000 0.569
54.28000 -2.451
54.30000 1.512
54.32000 1.210
54.34000 3.986
54.36000 5.156
54.38000 1.577
54.40000 0.155
54.42000 2.641
54.44000 1.631
54.46000 -1.577
54.48000 1.262
54.50000 3.324
54.52000 4.691
54.54000 5.982
54.56000 9.230
54.58000 4.696
54.60000 1.135
54.62000 1.087
54.64000 0.456
54.66000 0.460
54.68000 5.806
54.70000 5.338
54.72000 4.106
54.74000 2.521
54.76000 1.835
54.78000 1.046
54.80000 2.381
54.82000 0.388
54.84000 2.130
54.86000 2.534
54.88000 1.780
54.90000 1.879
54.92000 4.252
54.94000 0.975
54.96000 -0.989
54.98000 -1.080
55.00000 -2.431
55.02000 0.782
55.04000 3.602
55.06000 1.932
55.08000 3.298
55.10000 5.943
55.12000 6.400
55.14000 5.461
55.16000 5.190
55.18000 5.456
55.20000 2.999
55.22000 3.726
55.24000 1.090
55.26000 1.015
55.28000 1.214
55.30000 8.661
55.32000 8.564
55.34000 4.280
55.36000 4.270
55.38000 3.627
55.40000 0.467
55.42000 1.533
55.44000 -0.042
55.46000 -1.665
55.48000 -0.106
55.50000 1.929
55.52000 4.128
55.54000 2.531
55.56000 2.251
55.58000 4.928
55.60000 3.308
55.62000 -0.795
55.64000 -1.096
55.66000 1.490
55.68000 1.922
55.70000 3.900
55.72000 4.200
55.74000 4.583
55.76000 3.995
55.78000 3.801
55.80000 -0.933
55.82000 -0.790
55.84000 -0.896
55.86000 0.126
55.88000 0.646
55.90000 1.992
55.92000 4.040
55.94000 3.494
55.96000 1.790
55.98000 -1.245
56.00000 -0.520
56.02000 1.916
56.04000 3.157
56.06000 -2.414
56.08000 -2.101
56.10000 0.473
56.12000 1.931
56.14000 1.770
56.16000 1.446
56.18000 -0.170
56.20000 1.771
56.22000 6.029
56.24000 5.000
56.26000 1.693
56.28000 1.733
56.30000 1.478
56.32000 0.920
56.34000 0.754
56.36000 0.702
56.38000 2.925
56.40000 1.957
56.42000 4.626
56.44000 0.987
56.46000 -1.758
56.48000 2.450
56.50000 2.013
56.52000 0.461
56.54000 1.620
56.56000 0.664
56.58000 -1.574
56.60000 1.157
56.62000 1.248
56.64000 1.210
56.66000 3.366
56.68000 4.375
56.70000 1.015
56.72000 3.337
56.74000 3.260
56.76000 2.696
56.78000 0.792
56.80000 1.624
56.82000 -1.087
56.84000 1.449
56.86000 0.958
56.88000 0.917
56.90000 1.682
56.92000 0.667
56.94000 4.375
56.96000 5.106
56.98000 0.771
57.00000 1.983
57.02000 1.198
57.04000 1.408
57.06000 4.614
57.08000 5.730
57.10000 5.818
57.12000 5.070
57.14000 3.469
57.16000 3.491
57.18000 5.095
57.20000 5.012
57.22000 2.056
57.24000 -0.234
57.26000 1.329
57.28000 0.599
57.30000 -2.389
57.32000 -0.805
57.34000 2.299
57.36000 1.324
57.38000 1.588
57.40000 1.898
57.42000 1.393
57.44000 -1.081
57.46000 4.078
57.48000 4.989
57.50000 3.553
57.52000 6.199
57.54000 8.569
57.56000 1.667
57.58000 0.429
57.60000 0.382
57.62000 3.861
57.64000 5.976
57.66000 6.019
57.68000 4.317
57.70000 1.810
57.72000 3.820
57.74000 2.782
57.76000 1.021
57.78000 0.909
57.80000 -0.002
57.82000 2.610
57.84000 4.317
57.86000 3.254
57.88000 2.241
57.90000 -2.347
57.92000 3.809
57.94000 1.725
57.96000 4.210
57.98000 3.412
58.00000 1.496
58.02000 2.518
58.04000 5.265
58.06000 1.242
58.08000 -0.397
58.10000 2.704
58.12000 0.574
58.14000 2.028
58.16000 2.567
58.18000 3.781
58.20000 2.838
58.22000 -0.729
58.24000 -0.349
58.26000 1.722
58.28000 0.976
58.30000 2.941
58.32000 -1.019
58.34000 2.730
58.36000 3.988
58.38000 0.845
58.40000 -2.363
58.42000 -2.091
58.44000 1.465
58.46000 3.603
58.48000 5.140
58.50000 1.972
58.52000 0.183
58.54000 -0.688
58.56000 2.621
58.58000 1.116
58.60000 -1.393
58.62000 2.889
58.64000 3.182
58.66000 1.630
58.68000 1.702
58.70000 1.136
58.72000 -1.247
58.74000 -1.954
58.76000 0.230
58.78000 1.297
58.80000 0.373
58.82000 -1.523
58.84000 -0.357
58.86000 -1.153
58.88000 -0.848
58.90000 0.737
58.92000 1.172
58.94000 1.717
58.96000 -0.952
58.98000 -2.121
59.00000 -1.557
59.02000 1.870
59.04000 3.377
59.06000 2.409
59.08000 1.710
59.10000 -1.603
59.12000 -1.066
59.14000 -0.108
59.16000 1.088
59.18000 3.504
59.20000 1.627
59.22000 2.927
59.24000 0.574
59.26000 0.532
59.28000 -1.094
59.30000 -1.856
59.32000 -0.789
59.34000 -0.701
59.36000 0.599
59.38000 5.425
59.40000 1.029
59.42000 1.699
59.44000 -2.346
59.46000 2.525
59.48000 0.875
59.50000 -2.137
59.52000 2.562
59.54000 2.177
59.56000 1.173
59.58000 -0.121
59.60000 -1.271
59.62000 1.489
59.64000 2.280
59.66000 -0.732
59.68000 2.031
59.70000 0.802
59.72000 1.817
59.74000 1.936
59.76000 0.930
59.78000 1.002
59.80000 4.440
59.82000 2.833
59.84000 0.271
59.86000 -2.329
59.88000 -1.348
59.90000 1.030
59.92000 3.861
59.94000 2.124
59.96000 -0.689
59.98000 1.987
60.00000 1.293
60.02000 -0.923
60.04000 3.660
60.06000 0.775
60.08000 2.020
60.10000 0.016
60.12000 3.721
60.14000 1.903
60.16000 0.915
60.18000 -2.312
60.20000 -2.312
60.22000 2.385
60.24000 5.755
60.26000 2.621
60.28000 1.665
60.30000 1.013
60.32000 0.408
60.34000 2.835
60.36000 1.236
60.38000 3.595
60.40000 1.645
60.42000 3.862
60.44000 1.703
60.46000 0.383
60.48000 -0.474
60.50000 -0.695
60.52000 -1.610
60.54000 1.614
60.56000 -1.062
60.58000 0.837
60.60000 -0.294
60.62000 -0.003
60.64000 0.206
60.66000 -0.411
60.68000 1.759
60.70000 2.021
60.72000 2.358
60.74000 2.936
60.76000 3.189
60.78000 4.481
60.80000 3.019
60.82000 4.308
60.84000 3.022
60.86000 -0.759
60.88000 -0.864
60.90000 -0.466
60.92000 0.900
60.94000 2.968
60.96000 3.289
60.98000 2.633
61.00000 3.199
61.02000 4.582
61.04000 3.673
61.06000 3.630
61.08000 -1.640
61.10000 -2.143
61.12000 5.367
61.14000 3.165
61.16000 2.602
61.18000 0.272
61.20000 0.999
61.22000 0.246
61.24000 2.022
61.26000 0.414
61.28000 -2.271
61.30000 -1.132
61.32000 0.966
61.34000 -0.044
61.36000 0.107
61.38000 -1.906
61.40000 0.524
61.42000 2.312
61.44000 6.128
61.46000 4.239
61.48000 2.047
61.50000 -0.988
61.52000 1.579
61.54000 3.877
61.56000 3.600
61.58000 2.199
61.60000 0.989
61.62000 1.387
61.64000 4.676
61.66000 4.827
61.68000 1.388
61.70000 1.877
61.72000 1.065
61.74000 1.294
61.76000 0.827
61.78000 3.437
61.80000 1.783
61.82000 -0.281
61.84000 2.529
61.86000 5.603
61.88000 5.188
61.90000 3.710
61.92000 4.687
61.94000 3.010
61.96000 0.386
61.98000 -2.260
62.00000 -0.387
62.02000 3.785
62.04000 3.460
62.06000 1.954
62.08000 -0.278
62.10000 1.221
62.12000 1.038
62.14000 4.389
62.16000 -0.080
62.18000 2.550
62.20000 2.522
62.22000 0.999
62.24000 0.532
62.26000 2.555
62.28000 3.302
62.30000 2.841
62.32000 3.547
62.34000 0.511
62.36000 0.742
62.38000 3.213
62.40000 1.329
62.42000 3.147
62.44000 3.129
62.46000 4.821
62.48000 5.960
62.50000 4.108
62.52000 1.933
62.54000 -2.249
62.56000 0.463
62.58000 6.054
62.60000 6.190
62.62000 4.466
62.64000 3.182
62.66000 1.245
62.68000 3.407
62.70000 3.283
62.72000 1.596
62.74000 0.823
62.76000 1.939
62.78000 1.885
62.80000 0.953
62.82000 -0.304
62.84000 0.566
62.86000 1.313
62.88000 -0.988
62.90000 -1.793
62.92000 -0.007
62.94000 0.743
62.96000 -0.446
62.98000 2.616
63.00000 3.119
63.02000 3.143
63.04000 2.156
63.06000 0.043
63.08000 -0.986
63.10000 4.604
63.12000 4.917
63.14000 2.078
63.16000 -1.231
63.18000 -0.245
63.20000 -0.626
63.22000 -0.303
63.24000 0.131
63.26000 -0.572
63.28000 -0.463
63.30000 0.410
63.32000 -2.272
63.34000 -0.848
63.36000 -0.018
63.38000 2.926
63.40000 2.538
63.42000 -0.545
63.44000 -0.740
63.46000 -0.746
63.48000 1.032
63.50000 2.889
63.52000 4.796
63.54000 3.862
63.56000 1.268
63.58000 -1.142
63.60000 0.779
63.62000 0.911
63.64000 0.210
63.66000 0.877
63.68000 -0.258
63.70000 2.786
63.72000 2.064
63.74000 2.341
63.76000 3.058
63.78000 3.358
63.80000 0.929
63.82000 1.156
63.84000 -0.250
63.86000 3.890
63.88000 6.852
63.90000 3.049
63.92000 1.435
63.94000 0.158
63.96000 0.962
63.98000 3.420
64.00000 2.413
64.02000 2.679
64.04000 0.504
64.06000 0.068
64.08000 -2.262
64.10000 1.607
64.12000 2.144
64.14000 2.304
64.16000 2.421
64.18000 2.559
64.20000 -1.554
64.22000 -1.745
64.24000 0.351
64.26000 1.253
64.28000 2.885
64.30000 0.751
64.32000 2.595
64.34000 0.300
64.36000 -1.034
64.38000 -1.290
64.40000 0.362
64.42000 1.518
64.44000 3.082
64.46000 3.456
64.48000 2.435
64.50000 1.714
64.52000 -0.296
64.54000 0.828
64.56000 1.342
64.58000 2.872
64.60000 0.452
64.62000 1.292
64.64000 2.467
64.66000 1.370
64.68000 -0.125
64.70000 3.001
64.72000 2.423
64.74000 -0.214
64.76000 3.017
64.78000 4.146
64.80000 1.222
64.82000 -0.802
64.84000 1.929
64.86000 2.780
64.88000 1.536
64.90000 2.402
64.92000 0.301
64.94000 0.544
64.96000 2.691
64.98000 4.885
65.00000 4.693
65.02000 0.137
65.04000 -1.024
65.06000 0.746
65.08000 0.292
65.10000 -1.298
65.12000 -0.002
65.14000 0.944
65.16000 1.817
65.18000 1.410
65.20000 1.245
65.22000 3.339
65.24000 1.666
65.26000 0.210
65.28000 1.421
65.30000 3.705
65.32000 2.744
65.34000 0.372
65.36000 -2.291
65.38000 -0.926
65.40000 2.186
65.42000 2.871
65.44000 1.459
65.46000 1.720
65.48000 -1.631
65.50000 -2.009
65.52000 -0.802
65.54000 1.309
65.56000 1.627
65.58000 -1.434
65.60000 -0.880
65.62000 2.690
65.64000 3.022
65.66000 3.338
65.68000 2.884
65.70000 0.371
65.72000 -0.850
65.74000 -0.484
65.76000 1.146
65.78000 3.431
65.80000 0.427
65.82000 -2.302
65.84000 -1.541
65.86000 2.626
65.88000 0.334
65.90000 2.547
65.92000 0.560
65.94000 1.715
65.96000 -2.159
65.98000 -0.746
66.00000 1.638
66.02000 0.520
66.04000 0.651
66.06000 0.596
66.08000 3.278
66.10000 1.130
66.12000 -1.582
66.14000 1.433
66.16000 2.190
66.18000 -0.028
66.20000 1.960
66.22000 2.407
66.24000 0.993
66.26000 1.732
66.28000 1.505
66.30000 2.361
66.32000 3.894
66.34000 3.217
66.36000 2.457
66.38000 3.001
66.40000 3.140
66.42000 1.272
66.44000 3.084
66.46000 4.072
66.48000 3.384
66.50000 2.950
66.52000 1.207
66.54000 2.765
66.56000 5.508
66.58000 4.934
66.60000 3.754
66.62000 4.184
66.64000 7.315
66.66000 6.605
66.68000 3.902
66.70000 5.508
66.72000 8.210
66.74000 8.983
66.76000 7.712
66.78000 6.130
66.80000 6.229
66.82000 6.186
66.84000 7.099
66.86000 8.297
66.88000 11.529
66.90000 10.856
66.92000 8.492
66.94000 5.779
66.96000 7.928
66.98000 9.848
67.00000 13.804
67.02000 7.839
67.04000 8.901
67.06000 12.843
67.08000 13.937
67.10000 11.910
67.12000 10.979
67.14000 12.571
67.16000 11.683
67.18000 14.777
67.20000 15.755
67.22000 12.811
67.24000 13.469
67.26000 13.286
67.28000 15.258
67.30000 15.843
67.32000 16.823
67.34000 15.537
67.36000 13.684
67.38000 11.223
67.40000 12.227
67.42000 13.712
67.44000 10.598
67.46000 13.060
67.48000 12.319
67.50000 13.571
67.52000 13.914
67.54000 14.981
67.56000 16.084
67.58000 14.916
67.60000 13.358
67.62000 15.047
67.64000 13.966
67.66000 12.955
67.68000 12.699
67.70000 13.100
67.72000 13.389
67.74000 9.432
67.76000 9.701
67.78000 8.195
67.80000 8.014
67.82000 6.637
67.84000 6.792
67.86000 7.179
67.88000 9.366
67.90000 7.777
67.92000 8.332
67.94000 9.503
67.96000 6.167
67.98000 5.997
68.00000 6.726
68.02000 5.433
68.04000 6.526
68.06000 6.642
68.08000 4.354
68.10000 4.545
68.12000 4.802
68.14000 2.982
68.16000 4.832
68.18000 8.251
68.20000 4.193
68.22000 3.933
68.24000 2.608
68.26000 -0.279
68.28000 -0.115
68.30000 1.627
68.32000 2.348
68.34000 1.804
68.36000 4.073
68.38000 2.289
68.40000 2.687
68.42000 0.973
68.44000 1.087
68.46000 1.871
68.48000 2.999
68.50000 3.775
68.52000 1.959
68.54000 0.962
68.56000 1.046
68.58000 -0.052
68.60000 -2.296
68.62000 2.966
68.64000 5.124
68.66000 0.368
68.68000 -0.722
68.70000 1.358
68.72000 -0.675
68.74000 -1.764
68.76000 1.333
68.78000 1.609
68.80000 0.999
68.82000 0.513
68.84000 2.642
68.86000 1.558
68.88000 3.324
68.90000 -0.968
68.92000 -2.192
68.94000 1.042
68.96000 -0.522
68.98000 -1.332
69.00000 -0.114
69.02000 1.877
69.04000 -0.864
69.06000 1.931
69.08000 1.025
69.10000 -2.231
69.12000 -1.628
69.14000 -0.834
69.16000 0.311
69.18000 3.887
69.20000 0.691
69.22000 -1.226
69.24000 1.433
69.26000 0.032
69.28000 -1.037
69.30000 -0.147
69.32000 -2.199
69.34000 -0.426
69.36000 0.085
69.38000 2.286
69.40000 3.176
69.42000 2.623
69.44000 1.240
69.46000 1.785
69.48000 1.122
69.50000 2.530
69.52000 2.279
69.54000 2.158
69.56000 -0.050
69.58000 1.509
69.60000 1.863
69.62000 1.597
69.64000 -0.832
69.66000 -0.177
69.68000 1.341
69.70000 3.259
69.72000 2.572
69.74000 1.465
69.76000 1.322
69.78000 -0.598
69.80000 -0.695
69.82000 0.148
69.84000 1.083
69.86000 0.236
69.88000 -0.320
69.90000 4.371
69.92000 6.851
69.94000 1.228
69.96000 -0.768
69.98000 0.912
70.00000 2.028
70.02000 -2.187
70.04000 -2.152
70.06000 0.992
70.08000 -1.491
70.10000 0.081
70.12000 0.294
70.14000 1.440
70.16000 0.837
70.18000 1.134
70.20000 -2.104
70.22000 0.702
70.24000 4.326
70.26000 1.017
70.28000 0.720
70.30000 0.264
70.32000 0.602
70.34000 3.863
70.36000 1.553
70.38000 2.080
70.40000 -0.026
70.42000 0.939
70.44000 0.831
70.46000 0.556
70.48000 2.766
70.50000 4.559
70.52000 -1.490
70.54000 2.538
70.56000 3.805
70.58000 0.394
70.60000 -0.416
70.62000 -0.491
70.64000 -1.398
70.66000 -0.402
70.68000 -1.149
70.70000 -1.313
70.72000 1.417
70.74000 -0.537
70.76000 -1.231
70.78000 -0.486
70.80000 -0.279
70.82000 -0.280
70.84000 -0.320
70.86000 0.752
70.88000 -0.890
70.90000 -0.581
70.92000 -2.158
70.94000 0.116
70.96000 1.507
70.98000 2.638
71.00000 1.668
71.02000 3.171
71.04000 0.634
71.06000 -0.581
71.08000 -1.174
71.10000 3.511
71.12000 1.138
71.14000 0.846
71.16000 -0.546
71.18000 3.655
71.20000 -0.783
71.22000 0.459
71.24000 -2.140
71.26000 5.279
71.28000 5.227
71.30000 5.417
71.32000 1.867
71.34000 3.090
71.36000 1.232
71.38000 -0.196
71.40000 -0.458
71.42000 0.452
71.44000 1.078
71.46000 6.782
71.48000 7.574
71.50000 3.869
71.52000 5.199
71.54000 4.406
71.56000 2.430
71.58000 -0.432
71.60000 0.656
71.62000 2.124
71.64000 3.762
71.66000 4.007
71.68000 3.639
71.70000 1.551
71.72000 2.241
71.74000 0.360
71.76000 1.447
71.78000 2.228
71.80000 5.252
71.82000 4.504
71.84000 4.791
71.86000 6.049
71.88000 6.931
71.90000 2.912
71.92000 1.715
71.94000 1.748
71.96000 3.142
71.98000 4.233
72.00000 4.556
72.02000 -0.223
72.04000 -2.064
72.06000 -0.732
72.08000 0.379
72.10000 1.005
72.12000 6.644
72.14000 5.600
72.16000 3.590
72.18000 3.623
72.20000 2.068
72.22000 4.416
72.24000 4.345
72.26000 3.127
72.28000 4.025
72.30000 6.713
72.32000 6.816
72.34000 5.482
72.36000 2.378
72.38000 3.430
72.40000 1.566
72.42000 3.162
72.44000 0.788
72.46000 -0.550
72.48000 4.425
72.50000 5.857
72.52000 3.701
72.54000 4.039
72.56000 4.169
72.58000 3.953
72.60000 0.674
72.62000 4.516
72.64000 3.901
72.66000 2.128
72.68000 1.801
72.70000 2.350
72.72000 1.990
72.74000 3.321
72.76000 2.118
72.78000 0.083
72.80000 1.023
72.82000 2.503
72.84000 3.115
72.86000 3.573
72.88000 4.130
72.90000 5.046
72.92000 4.405
72.94000 3.339
72.96000 1.285
72.98000 0.896
73.00000 2.224
73.02000 2.427
73.04000 2.586
73.06000 4.307
73.08000 2.465
73.10000 2.808
73.12000 3.135
73.14000 5.862
73.16000 4.776
73.18000 3.398
73.20000 3.741
73.22000 4.619
73.24000 2.793
73.26000 4.230
73.28000 5.727
73.30000 3.480
73.32000 2.306
73.34000 1.576
73.36000 3.018
73.38000 4.365
73.40000 3.350
73.42000 4.157
73.44000 0.790
73.46000 2.067
73.48000 3.085
73.50000 1.243
73.52000 3.408
73.54000 0.843
73.56000 1.875
73.58000 4.395
73.60000 3.497
73.62000 2.227
73.64000 0.566
73.66000 5.253
73.68000 7.081
73.70000 3.447
73.72000 3.484
73.74000 5.890
73.76000 6.033
73.78000 3.133
73.80000 2.107
73.82000 -0.183
73.84000 0.150
73.86000 -2.055
73.88000 -1.350
73.90000 3.370
73.92000 4.687
73.94000 0.853
73.96000 1.095
73.98000 -0.031
74.00000 2.582
74.02000 0.081
74.04000 -0.056
74.06000 -0.467
74.08000 4.112
74.10000 4.017
74.12000 5.546
74.14000 3.422
74.16000 -0.700
74.18000 0.632
74.20000 -0.967
74.22000 -1.841
74.24000 2.497
74.26000 3.467
74.28000 5.275
74.30000 3.171
74.32000 1.799
74.34000 0.318
74.36000 4.179
74.38000 1.603
74.40000 1.607
74.42000 3.596
74.44000 3.770
74.46000 1.877
74.48000 1.729
74.50000 2.510
74.52000 0.834
74.54000 0.949
74.56000 2.004
74.58000 3.100
74.60000 2.080
74.62000 -0.883
74.64000 -0.035
74.66000 2.438
74.68000 1.488
74.70000 5.132
74.72000 2.790
74.74000 0.497
74.76000 0.194
74.78000 -2.089
74.80000 1.085
74.82000 1.617
74.84000 2.976
74.86000 4.364
74.88000 3.826
74.90000 4.060
74.92000 4.315
74.94000 4.950
74.96000 2.966
74.98000 2.263
75.00000 -0.061
75.02000 1.266
75.04000 4.081
75.06000 2.974
75.08000 0.372
75.10000 -0.524
75.12000 0.170
75.14000 2.059
75.16000 2.333
75.18000 0.636
75.20000 1.302
75.22000 2.472
75.24000 2.907
75.26000 1.945
75.28000 4.400
75.30000 0.879
75.32000 -0.184
75.34000 5.786
75.36000 5.145
75.38000 -0.678
75.40000 2.936
75.42000 4.048
75.44000 3.374
75.46000 3.243
75.48000 -2.127
75.50000 0.996
75.52000 0.427
75.54000 0.139
75.56000 2.329
75.58000 2.169
75.60000 1.184
75.62000 2.073
75.64000 1.594
75.66000 0.780
75.68000 1.672
75.70000 0.573
75.72000 0.961
75.74000 2.199
75.76000 1.745
75.78000 1.477
75.80000 1.406
75.82000 0.160
75.84000 1.862
75.86000 2.405
75.88000 2.087
75.90000 0.941
75.92000 2.937
75.94000 2.118
75.96000 -0.598
75.98000 -0.996
76.00000 1.297
76.02000 -0.168
76.04000 -0.193
76.06000 -2.127
76.08000 0.131
76.10000 1.290
76.12000 4.053
76.14000 2.181
76.16000 3.591
76.18000 2.971
76.20000 1.490
76.22000 5.799
76.24000 4.614
76.26000 2.932
76.28000 -0.872
76.30000 -2.131
76.32000 3.115
76.34000 1.540
76.36000 3.776
76.38000 1.220
76.40000 -0.548
76.42000 2.073
76.44000 4.115
76.46000 1.817
76.48000 1.774
76.50000 1.909
76.52000 0.077
76.54000 -1.711
76.56000 1.178
76.58000 -1.142
76.60000 2.309
76.62000 4.330
76.64000 3.419
76.66000 0.911
76.68000 0.906
76.70000 1.825
76.72000 2.132
76.74000 1.169
76.76000 0.410
76.78000 1.054
76.80000 1.894
76.82000 5.121
76.84000 8.189
76.86000 5.721
76.88000 1.711
76.90000 0.851
76.92000 1.764
76.94000 0.154
76.96000 0.077
76.98000 1.469
77.00000 -0.108
77.02000 -2.144
77.04000 3.208
77.06000 1.747
77.08000 -0.612
77.10000 0.866
77.12000 4.339
77.14000 3.984
77.16000 4.638
77.18000 1.638
77.20000 1.503
77.22000 4.913
77.24000 0.477
77.26000 1.025
77.28000 2.549
77.30000 3.456
77.32000 2.878
77.34000 3.535
77.36000 1.102
77.38000 -0.214
77.40000 -1.639
77.42000 1.305
77.44000 -0.162
77.46000 0.695
77.48000 -0.519
77.50000 2.364
77.52000 1.122
77.54000 2.059
77.56000 4.696
77.58000 5.320
77.60000 2.144
77.62000 2.431
77.64000 -1.282
77.66000 -0.708
77.68000 0.927
77.70000 5.248
77.72000 5.021
77.74000 1.528
77.76000 2.311
77.78000 5.112
77.80000 4.856
77.82000 2.691
77.84000 3.601
77.86000 2.799
77.88000 1.464
77.90000 2.217
77.92000 2.855
77.94000 4.889
77.96000 1.525
77.98000 -0.697
78.00000 2.217
78.02000 1.635
78.04000 1.900
78.06000 2.173
78.08000 3.184
78.10000 7.121
78.12000 3.856
78.14000 2.411
78.16000 6.590
78.18000 4.842
78.20000 8.407
78.22000 4.542
78.24000 2.372
78.26000 8.950
78.28000 5.320
78.30000 0.935
78.32000 -2.137
78.34000 -0.969
78.36000 2.034
78.38000 3.224
78.40000 3.273
78.42000 3.734
78.44000 1.708
78.46000 5.611
78.48000 6.382
78.50000 2.984
78.52000 1.849
78.54000 4.038
78.56000 3.280
78.58000 3.026
78.60000 5.627
78.62000 3.761
78.64000 0.216
78.66000 2.887
78.68000 6.228
78.70000 2.771
78.72000 0.403
78.74000 0.761
78.76000 3.950
78.78000 1.398
78.80000 3.061
78.82000 1.849
78.84000 1.202
78.86000 1.810
78.88000 2.702
78.90000 6.278
78.92000 7.905
78.94000 7.430
78.96000 6.468
78.98000 4.655
79.00000 3.961
79.02000 3.487
79.04000 6.599
79.06000 3.896
79.08000 0.555
79.10000 -2.179
79.12000 2.760
79.14000 0.959
79.16000 0.476
79.18000 -0.800
79.20000 3.103
79.22000 3.267
79.24000 3.644
79.26000 1.176
79.28000 3.428
79.30000 1.543
79.32000 3.624
79.34000 3.854
79.36000 4.328
79.38000 0.170
79.40000 3.248
79.42000 4.641
79.44000 1.549
79.46000 4.397
79.48000 0.432
79.50000 0.453
79.52000 2.371
79.54000 6.861
79.56000 3.741
79.58000 0.099
79.60000 -0.737
79.62000 0.125
79.64000 2.050
79.66000 -1.153
79.68000 0.123
79.70000 -1.176
79.72000 -2.280
79.74000 8.253
79.76000 3.405
79.78000 -0.495
79.80000 1.322
79.82000 -0.030
79.84000 -0.736
79.86000 2.005
79.88000 3.410
79.90000 3.680
79.92000 2.654
79.94000 3.068
79.96000 3.460
79.98000 5.733
80.00000 4.883
80.02000 4.755
80.04000 6.321
80.06000 5.315
80.08000 4.398
80.10000 6.103
80.12000 5.636
80.14000 5.380
80.16000 3.558
80.18000 3.505
80.20000 1.096
80.22000 3.840
80.24000 5.633
80.26000 -0.561
80.28000 2.459
80.30000 3.604
80.32000 6.175
80.34000 4.886
80.36000 5.817
80.38000 7.777
80.40000 10.342
80.42000 8.422
80.44000 8.712
80.46000 9.171
80.48000 8.226
80.50000 5.326
80.52000 6.753
80.54000 6.096
80.56000 5.548
80.58000 5.710
80.60000 8.250
80.62000 8.452
80.64000 8.745
80.66000 11.108
80.68000 13.085
80.70000 14.437
80.72000 16.079
80.74000 14.504
80.76000 15.277
80.78000 15.473
80.80000 14.722
80.82000 9.995
80.84000 13.174
80.86000 17.938
80.88000 18.243
80.90000 18.129
80.92000 16.801
80.94000 15.258
80.96000 17.996
80.98000 18.902
81.00000 19.113
81.02000 21.298
81.04000 26.891
81.06000 23.075
81.08000 22.051
81.10000 15.451
81.12000 21.036
81.14000 22.108
81.16000 22.033
81.18000 24.871
81.20000 19.780
81.22000 20.888
81.24000 22.666
81.26000 23.483
81.28000 23.291
81.30000 18.542
81.32000 20.114
81.34000 21.540
81.36000 18.998
81.38000 20.444
81.40000 20.959
81.42000 22.278
81.44000 25.383
81.46000 24.376
81.48000 24.515
81.50000 21.821
81.52000 23.357
81.54000 24.438
81.56000 25.175
81.58000 24.414
81.60000 25.002
81.62000 24.425
81.64000 23.329
81.66000 23.599
81.68000 18.555
81.70000 17.528
81.72000 18.366
81.74000 21.968
81.76000 23.898
81.78000 22.174
81.80000 18.764
81.82000 16.879
81.84000 15.750
81.86000 18.609
81.88000 18.050
81.90000 17.912
81.92000 16.318
81.94000 15.408
81.96000 17.147
81.98000 19.398
82.00000 21.819
82.02000 20.848
82.04000 14.508
82.06000 16.182
82.08000 17.150
82.10000 17.822
82.12000 15.606
82.14000 10.449
82.16000 8.706
82.18000 9.144
82.20000 13.053
82.22000 11.950
82.24000 9.993
82.26000 12.577
82.28000 8.584
82.30000 8.691
82.32000 14.241
82.34000 12.633
82.36000 6.372
82.38000 8.304
82.40000 6.692
82.42000 6.768
82.44000 5.790
82.46000 7.500
82.48000 3.427
82.50000 1.586
82.52000 5.587
82.54000 7.207
82.56000 3.637
82.58000 3.920
82.60000 4.751
82.62000 4.690
82.64000 1.875
82.66000 2.934
82.68000 5.493
82.70000 6.069
82.72000 1.584
82.74000 0.966
82.76000 -0.527
82.78000 2.775
82.80000 5.362
82.82000 3.403
82.84000 2.955
82.86000 1.515
82.88000 2.671
82.90000 1.106
82.92000 1.044
82.94000 3.755
82.96000 5.816
82.98000 2.115
83.00000 1.077
83.02000 -2.309
83.04000 1.815
83.06000 3.108
83.08000 2.001
83.10000 -0.414
83.12000 0.231
83.14000 -1.534
83.16000 2.921
83.18000 2.189
83.20000 2.544
83.22000 -1.266
83.24000 1.486
83.26000 0.714
83.28000 -2.288
83.30000 0.434
83.32000 1.765
83.34000 5.056
83.36000 3.261
83.38000 1.188
83.40000 5.021
83.42000 1.396
83.44000 -0.919
83.46000 -0.005
83.48000 -0.777
83.50000 -0.428
83.52000 -0.018
83.54000 -1.220
83.56000 1.451
83.58000 1.040
83.60000 -2.020
83.62000 1.967
83.64000 4.005
83.66000 3.468
83.68000 3.801
83.70000 3.560
83.72000 0.257
83.74000 1.487
83.76000 2.490
83.78000 1.553
83.80000 -0.685
83.82000 -2.275
83.84000 5.226
83.86000 3.283
83.88000 2.507
83.90000 4.023
83.92000 2.620
83.94000 1.594
83.96000 4.281
83.98000 -2.282
84.00000 4.413
84.02000 2.989
84.04000 4.116
84.06000 3.482
84.08000 4.168
84.10000 4.000
84.12000 -0.417
84.14000 -0.513
84.16000 0.321
84.18000 5.282
84.20000 0.806
84.22000 -1.158
84.24000 0.895
84.26000 0.896
84.28000 1.411
84.30000 3.157
84.32000 3.068
84.34000 0.321
84.36000 4.959
84.38000 7.178
84.40000 8.421
84.42000 7.187
84.44000 5.643
84.46000 4.415
84.48000 4.392
84.50000 6.727
84.52000 8.756
84.54000 7.620
84.56000 10.364
84.58000 5.331
84.60000 4.474
84.62000 3.810
84.64000 7.144
84.66000 8.270
84.68000 8.250
84.70000 9.817
84.72000 9.853
84.74000 13.329
84.76000 13.926
84.78000 13.723
84.80000 16.636
84.82000 12.251
84.84000 14.467
84.86000 13.419
84.88000 18.183
84.90000 17.041
84.92000 17.536
84.94000 16.389
84.96000 18.376
84.98000 15.873
85.00000 13.598
85.02000 16.175
85.04000 20.050
85.06000 17.870
85.08000 19.638
85.10000 18.453
85.12000 15.595
85.14000 19.406
85.16000 24.304
85.18000 25.230
85.20000 25.205
85.22000 23.323
85.24000 16.284
85.26000 16.023
85.28000 18.426
85.30000 22.780
85.32000 24.577
85.34000 20.928
85.36000 20.040
85.38000 22.413
85.40000 17.610
85.42000 21.414
85.44000 21.636
85.46000 17.855
85.48000 20.511
85.50000 23.499
85.52000 26.726
85.54000 26.738
85.56000 24.705
85.58000 20.492
85.60000 18.338
85.62000 17.711
85.64000 17.539
85.66000 21.180
85.68000 21.136
85.70000 20.386
85.72000 18.729
85.74000 22.453
85.76000 23.863
85.78000 17.862
85.80000 17.289
85.82000 15.198
85.84000 15.207
85.86000 19.323
85.88000 20.607
85.90000 20.508
85.92000 15.285
85.94000 17.401
85.96000 16.054
85.98000 14.479
86.00000 13.320
86.02000 15.401
86.04000 18.021
86.06000 16.863
86.08000 13.704
86.10000 13.814
86.12000 15.582
86.14000 12.770
86.16000 12.376
86.18000 9.604
86.20000 9.691
86.22000 7.988
86.24000 8.063
86.26000 10.728
86.28000 4.723
86.30000 6.093
86.32000 6.529
86.34000 7.350
86.36000 6.778
86.38000 4.655
86.40000 8.119
86.42000 6.749
86.44000 5.471
86.46000 3.359
86.48000 4.663
86.50000 2.499
86.52000 2.272
86.54000 3.611
86.56000 2.772
86.58000 -0.383
86.60000 1.967
86.62000 -0.436
86.64000 4.118
86.66000 2.240
86.68000 2.558
86.70000 4.361
86.72000 6.172
86.74000 1.994
86.76000 2.246
86.78000 -0.837
86.80000 -0.554
86.82000 2.412
86.84000 3.314
86.86000 3.552
86.88000 2.049
86.90000 1.803
86.92000 4.398
86.94000 0.558
86.96000 1.046
86.98000 4.185
87.00000 6.159
87.02000 6.205
87.04000 2.860
87.06000 1.212
87.08000 1.687
87.10000 1.003
87.12000 -2.041
87.14000 2.241
87.16000 4.761
87.18000 5.399
87.20000 4.827
87.22000 2.388
87.24000 0.241
87.26000 -0.211
87.28000 5.213
87.30000 1.396
87.32000 4.357
87.34000 3.190
87.36000 1.874
87.38000 -0.805
87.40000 0.658
87.42000 1.992
87.44000 2.313
87.46000 2.010
87.48000 -2.000
87.50000 0.131
87.52000 4.073
87.54000 0.812
87.56000 1.349
87.58000 2.527
87.60000 -0.194
87.62000 -0.666
87.64000 2.115
87.66000 1.892
87.68000 5.868
87.70000 2.675
87.72000 -1.987
87.74000 0.584
87.76000 2.577
87.78000 5.443
87.80000 6.406
87.82000 1.897
87.84000 1.773
87.86000 3.334
87.88000 5.422
87.90000 3.007
87.92000 0.024
87.94000 0.745
87.96000 2.031
87.98000 3.078
88.00000 2.868
88.02000 4.706
88.04000 5.671
88.06000 2.346
88.08000 0.840
88.10000 -1.959
88.12000 3.272
88.14000 2.744
88.16000 1.650
88.18000 4.558
88.20000 2.706
88.22000 1.868
88.24000 3.412
88.26000 2.270
88.28000 2.706
88.30000 1.716
88.32000 1.861
88.34000 5.598
88.36000 8.380
88.38000 4.324
88.40000 -0.377
88.42000 1.059
88.44000 2.134
88.46000 0.117
88.48000 3.675
88.50000 2.450
88.52000 -1.949
88.54000 1.860
88.56000 3.582
88.58000 7.336
88.60000 5.460
88.62000 2.413
88.64000 2.922
88.66000 2.832
88.68000 4.525
88.70000 4.578
88.72000 4.436
88.74000 2.860
88.76000 2.864
88.78000 1.656
88.80000 0.611
88.82000 -0.854
88.84000 2.330
88.86000 3.579
88.88000 3.724
88.90000 2.416
88.92000 4.664
88.94000 3.670
88.96000 3.609
88.98000 2.667
89.00000 2.532
89.02000 4.523
89.04000 7.462
89.06000 3.582
89.08000 1.609
89.10000 4.086
89.12000 2.867
89.14000 3.494
89.16000 4.090
89.18000 2.768
89.20000 3.789
89.22000 2.052
89.24000 2.686
89.26000 4.169
89.28000 2.238
89.30000 1.841
89.32000 3.076
89.34000 3.363
89.36000 4.586
89.38000 3.596
89.40000 3.721
89.42000 4.508
89.44000 4.942
89.46000 3.541
89.48000 0.776
89.50000 0.737
89.52000 2.908
89.54000 2.390
89.56000 4.910
89.58000 3.778
89.60000 3.149
89.62000 2.139
89.64000 4.586
89.66000 3.434
89.68000 3.986
89.70000 5.098
89.72000 3.293
89.74000 1.206
89.76000 4.206
89.78000 5.518
89.80000 0.843
89.82000 3.904
89.84000 4.273
89.86000 4.161
89.88000 5.271
89.90000 5.033
89.92000 0.655
89.94000 1.121
89.96000 0.508
89.98000 -1.910
90.00000 -0.018
90.02000 5.044
90.04000 5.564
90.06000 3.008
90.08000 1.861
90.10000 1.943
90.12000 2.689
90.14000 1.969
90.16000 6.458
90.18000 5.626
90.20000 2.939
90.22000 6.942
90.24000 4.655
90.26000 4.810
90.28000 5.732
90.30000 8.486
90.32000 8.608
90.34000 6.667
90.36000 4.951
90.38000 5.594
90.40000 8.828
90.42000 6.688
90.44000 3.296
90.46000 2.918
90.48000 2.591
90.50000 2.490
90.52000 0.308
90.54000 0.733
90.56000 0.302
90.58000 -0.213
90.60000 1.790
90.62000 6.039
90.64000 4.143
90.66000 6.547
90.68000 3.091
90.70000 4.292
90.72000 3.616
90.74000 3.356
90.76000 5.471
90.78000 3.544
90.80000 2.831
90.82000 4.937
90.84000 5.470
90.86000 3.565
90.88000 1.448
90.90000 1.099
90.92000 3.732
90.94000 6.377
90.96000 6.280
90.98000 2.707
91.00000 2.063
91.02000 5.359
91.04000 6.037
91.06000 3.302
91.08000 3.573
91.10000 2.632
91.12000 2.211
91.14000 3.722
91.16000 4.570
91.18000 3.416
91.20000 3.738
91.22000 8.740
91.24000 4.647
91.26000 2.524
91.28000 6.071
91.30000 2.042
91.32000 -1.929
91.34000 1.706
91.36000 4.058
91.38000 5.127
91.40000 4.195
91.42000 2.466
91.44000 2.807
91.46000 4.004
91.48000 3.290
91.50000 5.937
91.52000 4.894
91.54000 1.601
91.56000 1.463
91.58000 -0.652
91.60000 -0.127
91.62000 2.261
91.64000 3.851
91.66000 4.314
91.68000 2.246
91.70000 3.954
91.72000 4.302
91.74000 0.022
91.76000 2.082
91.78000 1.156
91.80000 2.031
91.82000 2.924
91.84000 1.054
91.86000 1.254
91.88000 2.167
91.90000 0.039
91.92000 -0.885
91.94000 -0.629
91.96000 1.737
91.98000 4.698
92.00000 5.637
92.02000 3.433
92.04000 2.301
92.06000 0.064
92.08000 -0.849
92.10000 -1.697
92.12000 -0.938
92.14000 2.080
92.16000 -0.036
92.18000 4.102
92.20000 3.246
92.22000 2.440
92.24000 0.592
92.26000 0.952
92.28000 2.914
92.30000 1.226
92.32000 -0.138
92.34000 -0.372
92.36000 0.014
92.38000 -1.994
92.40000 1.519
92.42000 0.614
92.44000 -0.704
92.46000 0.912
92.48000 0.119
92.50000 2.016
92.52000 6.618
92.54000 3.812
92.56000 3.126
92.58000 2.273
92.60000 1.425
92.62000 0.617
92.64000 3.008
92.66000 2.837
92.68000 3.307
92.70000 0.726
92.72000 -1.456
92.74000 0.993
92.76000 4.314
92.78000 1.170
92.80000 0.507
92.82000 0.199
92.84000 1.286
92.86000 0.614
92.88000 -0.347
92.90000 -0.738
92.92000 -1.989
92.94000 1.126
92.96000 4.171
92.98000 1.203
93.00000 1.577
93.02000 2.356
93.04000 5.978
93.06000 8.065
93.08000 4.987
93.10000 4.226
93.12000 1.546
93.14000 4.715
93.16000 4.221
93.18000 1.176
93.20000 0.696
93.22000 1.695
93.24000 1.494
93.26000 0.203
93.28000 2.167
93.30000 0.178
93.32000 -0.459
93.34000 0.670
93.36000 0.231
93.38000 -1.363
93.40000 -1.991
93.42000 -0.785
93.44000 1.121
93.46000 3.821
93.48000 1.365
93.50000 0.544
93.52000 1.282
93.54000 0.880
93.56000 -0.673
93.58000 1.962
93.60000 3.228
93.62000 1.029
93.64000 3.854
93.66000 3.262
93.68000 4.515
93.70000 1.385
93.72000 2.189
93.74000 0.945
93.76000 -1.759
93.78000 -0.697
93.80000 -0.478
93.82000 1.286
93.84000 1.371
93.86000 3.018
93.88000 3.045
93.90000 3.119
93.92000 4.596
93.94000 4.548
93.96000 0.999
93.98000 0.447
94.00000 0.073
94.02000 -0.489
94.04000 2.288
94.06000 1.665
94.08000 1.496
94.10000 2.657
94.12000 3.696
94.14000 3.454
94.16000 7.184
94.18000 2.086
94.20000 1.075
94.22000 2.038
94.24000 -0.922
94.26000 0.904
94.28000 -0.188
94.30000 -1.377
94.32000 1.707
94.34000 1.356
94.36000 1.527
94.38000 3.846
94.40000 0.811
94.42000 1.084
94.44000 1.656
94.46000 3.872
94.48000 4.229
94.50000 8.038
94.52000 6.768
94.54000 3.995
94.56000 2.775
94.58000 -0.339
94.60000 -1.493
94.62000 1.199
94.64000 0.443
94.66000 -1.992
94.68000 -0.936
94.70000 2.592
94.72000 5.189
94.74000 4.924
94.76000 5.923
94.78000 3.595
94.80000 4.943
94.82000 6.194
94.84000 4.254
94.86000 3.897
94.88000 5.869
94.90000 9.308
94.92000 2.646
94.94000 0.911
94.96000 4.325
94.98000 6.176
95.00000 2.750
95.02000 1.546
95.04000 2.075
95.06000 2.888
95.08000 6.598
95.10000 8.197
95.12000 3.348
95.14000 3.631
95.16000 -0.547
95.18000 -1.981
95.20000 1.986
95.22000 3.994
95.24000 4.114
95.26000 1.722
95.28000 2.193
95.30000 0.524
95.32000 1.336
95.34000 1.473
95.36000 0.109
95.38000 1.673
95.40000 7.792
95.42000 2.224
95.44000 -1.026
95.46000 5.007
95.48000 6.916
95.50000 6.573
95.52000 4.613
95.54000 6.838
95.56000 4.695
95.58000 3.318
95.60000 3.446
95.62000 1.452
95.64000 0.466
95.66000 0.254
95.68000 5.842
95.70000 3.351
95.72000 1.271
95.74000 1.945
95.76000 5.307
95.78000 3.041
95.80000 6.902
95.82000 0.237
95.84000 3.825
95.86000 7.255
95.88000 4.871
95.90000 6.713
95.92000 2.896
95.94000 2.853
95.96000 4.234
95.98000 3.652
96.00000 2.538
96.02000 -2.004
96.04000 0.386
96.06000 -0.255
96.08000 -0.504
96.10000 -1.117
96.12000 2.984
96.14000 2.502
96.16000 4.592
96.18000 2.521
96.20000 5.872
96.22000 5.307
96.24000 1.907
96.26000 -0.828
96.28000 5.767
96.30000 4.885
96.32000 2.284
96.34000 1.233
96.36000 3.592
96.38000 5.430
96.40000 5.974
96.42000 3.597
96.44000 8.205
96.46000 10.879
96.48000 2.342
96.50000 3.203
96.52000 2.596
96.54000 2.142
96.56000 6.831
96.58000 3.924
96.60000 1.932
96.62000 0.615
96.64000 1.372
96.66000 1.686
96.68000 2.961
96.70000 2.571
96.72000 2.743
96.74000 6.134
96.76000 3.509
96.78000 1.756
96.80000 0.532
96.82000 3.148
96.84000 3.373
96.86000 3.309
96.88000 2.267
96.90000 4.920
96.92000 12.601
96.94000 4.731
96.96000 -1.214
96.98000 0.384
97.00000 0.339
97.02000 1.742
97.04000 5.301
97.06000 3.256
97.08000 -1.305
97.10000 2.100
97.12000 9.628
97.14000 4.723
97.16000 5.475
97.18000 7.117
97.20000 8.163
97.22000 6.002
97.24000 8.003
97.26000 13.095
97.28000 11.187
97.30000 2.302
97.32000 4.820
97.34000 3.897
97.36000 4.485
97.38000 9.356
97.40000 10.643
97.42000 6.082
97.44000 4.519
97.46000 2.747
97.48000 2.096
97.50000 3.331
97.52000 9.433
97.54000 5.964
97.56000 -0.130
97.58000 -1.898
97.60000 3.920
97.62000 5.275
97.64000 5.677
97.66000 2.053
97.68000 6.606
97.70000 6.735
97.72000 6.161
97.74000 5.242
97.76000 2.822
97.78000 2.543
97.80000 2.914
97.82000 6.434
97.84000 11.209
97.86000 10.865
97.88000 4.476
97.90000 4.350
97.92000 5.134
97.94000 7.521
97.96000 5.632
97.98000 10.141
98.00000 12.061
98.02000 9.439
98.04000 8.168
98.06000 6.306
98.08000 11.517
98.10000 5.891
98.12000 8.545
98.14000 1.871
98.16000 2.043
98.18000 7.243
98.20000 7.992
98.22000 3.700
98.24000 2.501
98.26000 2.746
98.28000 6.347
98.30000 9.257
98.32000 9.294
98.34000 1.375
98.36000 -0.369
98.38000 2.555
98.40000 6.073
98.42000 5.904
98.44000 4.466
98.46000 1.847
98.48000 2.732
98.50000 10.993
98.52000 7.517
98.54000 8.160
98.56000 9.387
98.58000 9.863
98.60000 4.700
98.62000 4.203
98.64000 3.800
98.66000 10.718
98.68000 7.710
98.70000 1.889
98.72000 4.688
98.74000 -1.890
98.76000 0.289
98.78000 6.260
98.80000 4.849
98.82000 6.355
98.84000 11.639
98.86000 7.605
98.88000 8.105
98.90000 9.509
98.92000 12.847
98.94000 16.869
98.96000 10.069
98.98000 9.960
99.00000 8.251
99.02000 6.965
99.04000 4.209
99.06000 2.342
99.08000 3.022
99.10000 7.181
99.12000 7.715
99.14000 5.255
99.16000 8.696
99.18000 7.889
99.20000 3.464
99.22000 -1.874
99.24000 1.387
99.26000 3.767
99.28000 5.992
99.30000 10.513
99.32000 12.066
99.34000 3.868
99.36000 5.720
99.38000 4.474
99.40000 0.361
99.42000 1.319
99.44000 -1.886
99.46000 1.979
99.48000 2.763
99.50000 10.387
99.52000 6.681
99.54000 4.922
99.56000 6.325
99.58000 6.353
99.60000 6.757
99.62000 6.597
99.64000 7.802
99.66000 10.867
99.68000 8.452
99.70000 7.115
99.72000 5.031
99.74000 11.094
99.76000 16.155
99.78000 12.130
99.80000 8.994
99.82000 11.848
99.84000 1.469
99.86000 7.060
99.88000 10.978
99.90000 0.926
99.92000 -0.124
99.94000 1.449
99.96000 -1.908
99.98000 0.000
