'Id: "0011387" Comment: "Integrate frame 0011387_Au-Ir-Rh_Rh-rich_XRD-Mapping-044-0000.gfrmwith cursor Wedge Cursor #5" Operator: "B?rgel" Anode: "Cu" Wavelength: "1.5406" Scantype: "2Theta (TwoTheta)" TimePerStep: "1" X: "-13.5" Y: "-27" Z: "5.95" 
10.00000 0.000
10.02000 -4.600
10.04000 -4.579
10.06000 -2.297
10.08000 3.301
10.10000 11.167
10.12000 22.764
10.14000 22.185
10.16000 -1.969
10.18000 5.967
10.20000 6.377
10.22000 9.163
10.24000 10.812
10.26000 2.180
10.28000 8.447
10.30000 4.842
10.32000 -4.344
10.34000 7.152
10.36000 7.491
10.38000 17.940
10.40000 23.308
10.42000 18.495
10.44000 20.799
10.46000 21.217
10.48000 28.861
10.50000 22.815
10.52000 21.266
10.54000 22.311
10.56000 23.607
10.58000 16.703
10.60000 30.934
10.62000 19.927
10.64000 16.634
10.66000 25.131
10.68000 20.561
10.70000 3.413
10.72000 10.208
10.74000 27.639
10.76000 30.441
10.78000 23.839
10.80000 23.058
10.82000 15.902
10.84000 12.135
10.86000 27.400
10.88000 15.575
10.90000 17.994
10.92000 29.070
10.94000 41.806
10.96000 30.801
10.98000 19.072
11.00000 4.051
11.02000 7.326
11.04000 14.614
11.06000 12.029
11.08000 20.540
11.10000 30.250
11.12000 34.033
11.14000 13.768
11.16000 -5.387
11.18000 7.246
11.20000 14.606
11.22000 16.230
11.24000 11.943
11.26000 23.459
11.28000 23.474
11.30000 26.758
11.32000 24.346
11.34000 15.631
11.36000 25.326
11.38000 25.434
11.40000 24.105
11.42000 16.547
11.44000 22.110
11.46000 19.941
11.48000 7.616
11.50000 10.751
11.52000 15.239
11.54000 17.380
11.56000 7.399
11.58000 8.179
11.60000 21.657
11.62000 18.583
11.64000 24.749
11.66000 25.745
11.68000 22.678
11.70000 12.780
11.72000 22.889
11.74000 19.961
11.76000 15.849
11.78000 18.137
11.80000 16.555
11.82000 16.564
11.84000 13.601
11.86000 4.620
11.88000 10.169
11.90000 3.519
11.92000 15.263
11.94000 20.924
11.96000 19.153
11.98000 17.641
12.00000 19.417
12.02000 15.290
12.04000 23.885
12.06000 21.482
12.08000 18.041
12.10000 14.525
12.12000 12.070
12.14000 14.921
12.16000 13.840
12.18000 5.772
12.20000 6.798
12.22000 8.164
12.24000 12.615
12.26000 18.815
12.28000 12.660
12.30000 11.571
12.32000 14.576
12.34000 5.520
12.36000 0.413
12.38000 -0.201
12.40000 2.576
12.42000 2.717
12.44000 6.150
12.46000 14.002
12.48000 10.860
12.50000 4.316
12.52000 2.840
12.54000 13.672
12.56000 11.731
12.58000 20.465
12.60000 18.900
12.62000 14.673
12.64000 12.084
12.66000 10.030
12.68000 6.760
12.70000 9.525
12.72000 18.688
12.74000 7.211
12.76000 4.487
12.78000 17.727
12.80000 24.401
12.82000 7.145
12.84000 7.857
12.86000 12.394
12.88000 30.949
12.90000 20.436
12.92000 12.434
12.94000 14.625
12.96000 8.675
12.98000 13.979
13.00000 28.560
13.02000 21.786
13.04000 17.761
13.06000 15.608
13.08000 15.706
13.10000 13.723
13.12000 17.741
13.14000 24.390
13.16000 21.808
13.18000 14.991
13.20000 6.237
13.22000 11.311
13.24000 9.027
13.26000 12.211
13.28000 6.982
13.30000 11.806
13.32000 18.128
13.34000 20.164
13.36000 19.138
13.38000 13.801
13.40000 10.649
13.42000 12.705
13.44000 12.817
13.46000 8.405
13.48000 10.441
13.50000 21.226
13.52000 20.385
13.54000 10.995
13.56000 8.587
13.58000 16.223
13.60000 13.597
13.62000 5.657
13.64000 13.745
13.66000 8.094
13.68000 10.956
13.70000 11.595
13.72000 9.844
13.74000 19.237
13.76000 15.084
13.78000 22.963
13.80000 14.874
13.82000 15.261
13.84000 4.626
13.86000 -4.480
13.88000 5.304
13.90000 8.270
13.92000 12.312
13.94000 9.161
13.96000 5.669
13.98000 7.140
14.00000 9.918
14.02000 7.151
14.04000 8.571
14.06000 11.988
14.08000 12.336
14.10000 13.756
14.12000 10.031
14.14000 11.564
14.16000 15.505
14.18000 9.356
14.20000 16.109
14.22000 13.903
14.24000 13.540
14.26000 6.213
14.28000 14.808
14.30000 14.181
14.32000 2.125
14.34000 8.730
14.36000 13.998
14.38000 8.676
14.40000 6.667
14.42000 8.134
14.44000 10.373
14.46000 5.786
14.48000 13.069
14.50000 10.911
14.52000 17.859
14.54000 13.341
14.56000 18.358
14.58000 16.598
14.60000 17.245
14.62000 12.451
14.64000 3.471
14.66000 -2.596
14.68000 6.718
14.70000 18.903
14.72000 12.311
14.74000 9.227
14.76000 16.380
14.78000 17.268
14.80000 16.629
14.82000 13.730
14.84000 7.800
14.86000 10.462
14.88000 12.991
14.90000 5.625
14.92000 11.860
14.94000 13.161
14.96000 14.008
14.98000 15.168
15.00000 15.839
15.02000 20.226
15.04000 23.739
15.06000 18.255
15.08000 15.239
15.10000 3.525
15.12000 0.676
15.14000 -4.425
15.16000 8.339
15.18000 9.029
15.20000 8.531
15.22000 2.854
15.24000 6.208
15.26000 10.087
15.28000 12.375
15.30000 17.525
15.32000 19.484
15.34000 15.093
15.36000 17.000
15.38000 6.411
15.40000 10.938
15.42000 7.873
15.44000 15.757
15.46000 7.400
15.48000 3.697
15.50000 3.292
15.52000 12.027
15.54000 5.026
15.56000 4.308
15.58000 5.885
15.60000 7.036
15.62000 6.063
15.64000 11.449
15.66000 17.055
15.68000 18.114
15.70000 8.903
15.72000 7.424
15.74000 6.544
15.76000 -1.166
15.78000 2.277
15.80000 18.677
15.82000 14.025
15.84000 5.773
15.86000 -1.671
15.88000 0.469
15.90000 6.610
15.92000 14.464
15.94000 14.553
15.96000 1.112
15.98000 4.839
16.00000 9.912
16.02000 11.823
16.04000 6.845
16.06000 8.139
16.08000 9.602
16.10000 9.958
16.12000 7.686
16.14000 8.163
16.16000 6.569
16.18000 4.762
16.20000 9.838
16.22000 18.823
16.24000 13.142
16.26000 5.615
16.28000 9.692
16.30000 2.822
16.32000 -0.539
16.34000 3.724
16.36000 7.493
16.38000 4.377
16.40000 1.021
16.42000 -3.205
16.44000 -4.345
16.46000 -0.793
16.48000 3.718
16.50000 -0.929
16.52000 6.981
16.54000 8.851
16.56000 12.661
16.58000 7.768
16.60000 5.387
16.62000 1.948
16.64000 3.814
16.66000 4.748
16.68000 3.430
16.70000 -0.536
16.72000 1.274
16.74000 5.594
16.76000 0.889
16.78000 0.700
16.80000 1.155
16.82000 4.402
16.84000 12.723
16.86000 11.717
16.88000 9.311
16.90000 2.080
16.92000 0.511
16.94000 0.951
16.96000 -1.031
16.98000 1.146
17.00000 5.535
17.02000 7.301
17.04000 1.304
17.06000 2.236
17.08000 6.347
17.10000 2.060
17.12000 8.625
17.14000 7.614
17.16000 3.172
17.18000 7.020
17.20000 9.961
17.22000 9.644
17.24000 7.345
17.26000 10.165
17.28000 0.787
17.30000 -2.123
17.32000 2.383
17.34000 -0.586
17.36000 -2.355
17.38000 -3.388
17.40000 4.476
17.42000 -0.243
17.44000 5.141
17.46000 1.842
17.48000 -3.521
17.50000 -4.401
17.52000 -3.149
17.54000 3.136
17.56000 3.005
17.58000 3.757
17.60000 -0.561
17.62000 3.413
17.64000 2.925
17.66000 -2.599
17.68000 7.457
17.70000 9.197
17.72000 8.026
17.74000 4.807
17.76000 4.822
17.78000 4.302
17.80000 -1.949
17.82000 3.607
17.84000 8.194
17.86000 -0.135
17.88000 2.954
17.90000 -0.081
17.92000 1.288
17.94000 9.769
17.96000 4.919
17.98000 5.709
18.00000 8.150
18.02000 6.677
18.04000 2.059
18.06000 5.120
18.08000 4.241
18.10000 4.547
18.12000 8.998
18.14000 7.249
18.16000 6.471
18.18000 5.873
18.20000 -0.813
18.22000 -2.744
18.24000 4.712
18.26000 7.198
18.28000 3.442
18.30000 1.089
18.32000 5.267
18.34000 1.718
18.36000 -0.955
18.38000 7.198
18.40000 14.907
18.42000 15.800
18.44000 7.110
18.46000 6.436
18.48000 -0.330
18.50000 -1.164
18.52000 -1.540
18.54000 2.849
18.56000 1.735
18.58000 0.345
18.60000 7.134
18.62000 4.233
18.64000 0.757
18.66000 3.400
18.68000 -2.029
18.70000 -4.312
18.72000 3.359
18.74000 0.545
18.76000 -3.449
18.78000 -4.306
18.80000 0.959
18.82000 -2.159
18.84000 -1.212
18.86000 -2.119
18.88000 3.261
18.90000 6.266
18.92000 3.342
18.94000 2.511
18.96000 3.755
18.98000 5.578
19.00000 -0.897
19.02000 -1.502
19.04000 -0.323
19.06000 2.079
19.08000 0.231
19.10000 6.551
19.12000 12.793
19.14000 9.144
19.16000 4.055
19.18000 4.802
19.20000 7.511
19.22000 7.081
19.24000 4.414
19.26000 3.204
19.28000 8.994
19.30000 8.492
19.32000 2.400
19.34000 6.743
19.36000 6.108
19.38000 13.276
19.40000 6.715
19.42000 0.855
19.44000 -1.885
19.46000 -1.221
19.48000 -4.240
19.50000 0.195
19.52000 6.742
19.54000 7.226
19.56000 11.667
19.58000 7.423
19.60000 6.108
19.62000 0.263
19.64000 1.137
19.66000 -0.350
19.68000 5.539
19.70000 10.611
19.72000 6.489
19.74000 6.431
19.76000 5.568
19.78000 4.462
19.80000 4.159
19.82000 5.422
19.84000 3.638
19.86000 5.542
19.88000 4.012
19.90000 3.665
19.92000 8.265
19.94000 10.771
19.96000 9.567
19.98000 10.917
20.00000 7.448
20.02000 4.411
20.04000 -0.990
20.06000 2.594
20.08000 2.183
20.10000 0.607
20.12000 2.766
20.14000 6.870
20.16000 10.676
20.18000 6.476
20.20000 4.452
20.22000 0.150
20.24000 -0.275
20.26000 1.078
20.28000 -1.925
20.30000 1.316
20.32000 3.764
20.34000 3.370
20.36000 3.381
20.38000 3.914
20.40000 5.029
20.42000 8.075
20.44000 8.852
20.46000 7.781
20.48000 3.690
20.50000 2.471
20.52000 -4.187
20.54000 -1.213
20.56000 0.760
20.58000 7.672
20.60000 2.037
20.62000 3.313
20.64000 3.937
20.66000 4.907
20.68000 1.366
20.70000 3.568
20.72000 1.719
20.74000 2.374
20.76000 4.708
20.78000 9.115
20.80000 5.073
20.82000 2.197
20.84000 -0.991
20.86000 -0.638
20.88000 2.356
20.90000 10.396
20.92000 5.585
20.94000 12.072
20.96000 9.294
20.98000 -1.459
21.00000 0.524
21.02000 3.459
21.04000 3.603
21.06000 -3.140
21.08000 5.546
21.10000 8.851
21.12000 2.117
21.14000 -4.160
21.16000 -2.454
21.18000 5.400
21.20000 9.261
21.22000 5.692
21.24000 2.665
21.26000 11.490
21.28000 9.158
21.30000 0.015
21.32000 4.999
21.34000 7.709
21.36000 10.211
21.38000 6.704
21.40000 6.538
21.42000 8.662
21.44000 9.387
21.46000 0.415
21.48000 0.971
21.50000 5.354
21.52000 2.420
21.54000 4.606
21.56000 2.534
21.58000 5.540
21.60000 3.888
21.62000 2.570
21.64000 2.932
21.66000 3.978
21.68000 4.284
21.70000 3.899
21.72000 5.283
21.74000 6.370
21.76000 14.754
21.78000 10.179
21.80000 3.618
21.82000 4.081
21.84000 8.710
21.86000 5.743
21.88000 -1.548
21.90000 -4.100
21.92000 1.036
21.94000 4.727
21.96000 0.363
21.98000 5.405
22.00000 10.531
22.02000 8.531
22.04000 5.634
22.06000 4.618
22.08000 7.634
22.10000 8.256
22.12000 8.758
22.14000 3.238
22.16000 2.248
22.18000 9.816
22.20000 11.287
22.22000 5.764
22.24000 7.527
22.26000 9.574
22.28000 7.044
22.30000 2.753
22.32000 2.584
22.34000 4.539
22.36000 12.138
22.38000 4.045
22.40000 -1.116
22.42000 7.049
22.44000 5.862
22.46000 2.650
22.48000 5.753
22.50000 9.199
22.52000 8.262
22.54000 4.912
22.56000 1.824
22.58000 12.626
22.60000 13.531
22.62000 9.676
22.64000 8.108
22.66000 5.408
22.68000 -4.055
22.70000 1.034
22.72000 4.538
22.74000 8.106
22.76000 6.316
22.78000 3.835
22.80000 3.961
22.82000 3.628
22.84000 -0.084
22.86000 4.463
22.88000 10.371
22.90000 10.607
22.92000 13.251
22.94000 9.545
22.96000 6.072
22.98000 7.266
23.00000 7.255
23.02000 4.046
23.04000 9.103
23.06000 5.999
23.08000 5.884
23.10000 2.217
23.12000 1.025
23.14000 0.696
23.16000 7.723
23.18000 3.619
23.20000 3.904
23.22000 5.801
23.24000 8.960
23.26000 7.634
23.28000 5.519
23.30000 4.928
23.32000 5.900
23.34000 8.006
23.36000 5.465
23.38000 4.524
23.40000 6.146
23.42000 4.551
23.44000 7.608
23.46000 5.478
23.48000 2.853
23.50000 4.594
23.52000 3.525
23.54000 7.532
23.56000 6.976
23.58000 3.803
23.60000 0.224
23.62000 0.977
23.64000 4.068
23.66000 9.910
23.68000 7.290
23.70000 1.634
23.72000 0.409
23.74000 6.120
23.76000 5.075
23.78000 5.074
23.80000 3.694
23.82000 4.610
23.84000 4.571
23.86000 3.674
23.88000 3.054
23.90000 0.260
23.92000 1.585
23.94000 11.524
23.96000 11.211
23.98000 7.464
24.00000 4.681
24.02000 1.541
24.04000 0.866
24.06000 5.380
24.08000 7.866
24.10000 6.406
24.12000 -3.970
24.14000 0.792
24.16000 3.599
24.18000 4.648
24.20000 6.728
24.22000 5.944
24.24000 3.879
24.26000 3.732
24.28000 0.303
24.30000 6.144
24.32000 6.663
24.34000 4.106
24.36000 7.482
24.38000 8.393
24.40000 7.856
24.42000 9.927
24.44000 7.328
24.46000 7.768
24.48000 0.557
24.50000 3.016
24.52000 5.005
24.54000 1.163
24.56000 -3.960
24.58000 -2.297
24.60000 3.920
24.62000 4.673
24.64000 -0.819
24.66000 3.423
24.68000 3.960
24.70000 4.855
24.72000 5.696
24.74000 2.013
24.76000 1.464
24.78000 -0.462
24.80000 2.768
24.82000 4.812
24.84000 -3.956
24.86000 -2.166
24.88000 3.704
24.90000 -3.563
24.92000 -0.856
24.94000 2.079
24.96000 1.733
24.98000 7.014
25.00000 1.619
25.02000 -3.094
25.04000 -3.192
25.06000 4.387
25.08000 1.401
25.10000 2.823
25.12000 3.141
25.14000 3.476
25.16000 4.498
25.18000 2.081
25.20000 7.378
25.22000 6.386
25.24000 4.237
25.26000 8.310
25.28000 0.354
25.30000 1.844
25.32000 6.704
25.34000 4.401
25.36000 0.883
25.38000 -0.123
25.40000 -1.356
25.42000 -2.685
25.44000 2.355
25.46000 4.561
25.48000 9.332
25.50000 4.144
25.52000 -1.948
25.54000 -1.979
25.56000 -2.924
25.58000 2.684
25.60000 1.448
25.62000 3.421
25.64000 0.907
25.66000 -3.913
25.68000 -3.930
25.70000 0.796
25.72000 2.341
25.74000 -0.192
25.76000 2.494
25.78000 2.064
25.80000 -0.125
25.82000 -3.283
25.84000 -0.885
25.86000 3.117
25.88000 5.336
25.90000 7.780
25.92000 4.401
25.94000 2.866
25.96000 -1.164
25.98000 -2.266
26.00000 1.248
26.02000 2.741
26.04000 8.639
26.06000 4.456
26.08000 -3.904
26.10000 0.979
26.12000 5.976
26.14000 2.707
26.16000 2.904
26.18000 1.960
26.20000 0.400
26.22000 5.983
26.24000 11.090
26.26000 5.950
26.28000 -0.395
26.30000 -0.635
26.32000 2.400
26.34000 7.499
26.36000 4.603
26.38000 3.176
26.40000 -0.654
26.42000 -1.607
26.44000 -1.498
26.46000 0.126
26.48000 1.847
26.50000 4.324
26.52000 -1.908
26.54000 -2.778
26.56000 0.371
26.58000 -2.218
26.60000 1.345
26.62000 1.962
26.64000 2.512
26.66000 2.218
26.68000 -2.942
26.70000 1.252
26.72000 0.195
26.74000 -1.113
26.76000 6.325
26.78000 5.612
26.80000 1.632
26.82000 2.666
26.84000 5.922
26.86000 5.345
26.88000 1.452
26.90000 2.353
26.92000 0.920
26.94000 -0.697
26.96000 0.859
26.98000 0.506
27.00000 0.988
27.02000 1.164
27.04000 -1.909
27.06000 4.805
27.08000 -0.640
27.10000 -3.843
27.12000 -0.735
27.14000 7.638
27.16000 5.532
27.18000 3.791
27.20000 3.780
27.22000 3.569
27.24000 1.378
27.26000 -1.962
27.28000 -0.026
27.30000 -0.648
27.32000 0.722
27.34000 -3.414
27.36000 -2.836
27.38000 2.944
27.40000 4.411
27.42000 6.382
27.44000 0.453
27.46000 -1.287
27.48000 2.773
27.50000 3.640
27.52000 5.141
27.54000 -0.204
27.56000 -2.034
27.58000 1.052
27.60000 -2.355
27.62000 -3.484
27.64000 1.448
27.66000 2.432
27.68000 2.099
27.70000 2.208
27.72000 2.628
27.74000 4.621
27.76000 5.799
27.78000 2.710
27.80000 1.503
27.82000 4.887
27.84000 5.881
27.86000 4.380
27.88000 4.854
27.90000 6.592
27.92000 1.990
27.94000 2.857
27.96000 6.653
27.98000 5.704
28.00000 5.964
28.02000 4.594
28.04000 6.079
28.06000 4.438
28.08000 3.146
28.10000 3.800
28.12000 2.357
28.14000 0.002
28.16000 1.236
28.18000 7.255
28.20000 3.026
28.22000 -1.926
28.24000 -3.771
28.26000 7.860
28.28000 10.646
28.30000 6.715
28.32000 4.525
28.34000 2.694
28.36000 6.682
28.38000 3.604
28.40000 0.382
28.42000 -2.505
28.44000 -1.124
28.46000 0.369
28.48000 0.661
28.50000 3.122
28.52000 2.958
28.54000 3.245
28.56000 5.330
28.58000 2.218
28.60000 -0.326
28.62000 -1.110
28.64000 3.660
28.66000 2.334
28.68000 0.537
28.70000 3.515
28.72000 1.290
28.74000 1.151
28.76000 4.425
28.78000 5.192
28.80000 3.435
28.82000 -1.337
28.84000 -2.984
28.86000 1.123
28.88000 3.055
28.90000 3.375
28.92000 0.580
28.94000 3.452
28.96000 4.899
28.98000 6.044
29.00000 5.805
29.02000 3.135
29.04000 -0.804
29.06000 4.412
29.08000 5.747
29.10000 7.238
29.12000 4.438
29.14000 4.135
29.16000 8.381
29.18000 10.894
29.20000 8.913
29.22000 2.583
29.24000 4.526
29.26000 10.002
29.28000 8.362
29.30000 1.711
29.32000 -3.714
29.34000 0.567
29.36000 2.389
29.38000 0.868
29.40000 -2.193
29.42000 -2.960
29.44000 4.009
29.46000 4.506
29.48000 4.031
29.50000 3.897
29.52000 4.438
29.54000 2.254
29.56000 5.209
29.58000 2.622
29.60000 2.489
29.62000 2.377
29.64000 1.363
29.66000 6.848
29.68000 7.765
29.70000 5.191
29.72000 5.684
29.74000 2.884
29.76000 1.601
29.78000 2.859
29.80000 1.314
29.82000 6.410
29.84000 12.391
29.86000 4.783
29.88000 2.915
29.90000 3.096
29.92000 3.493
29.94000 5.739
29.96000 -3.677
29.98000 -1.154
30.00000 5.028
30.02000 8.019
30.04000 6.098
30.06000 4.289
30.08000 6.073
30.10000 -0.230
30.12000 -1.310
30.14000 -0.639
30.16000 -3.666
30.18000 -0.833
30.20000 1.582
30.22000 0.596
30.24000 1.443
30.26000 5.097
30.28000 1.949
30.30000 -0.339
30.32000 0.081
30.34000 -0.308
30.36000 -2.040
30.38000 2.455
30.40000 -1.717
30.42000 4.089
30.44000 7.663
30.46000 4.076
30.48000 4.023
30.50000 2.397
30.52000 4.541
30.54000 2.191
30.56000 1.236
30.58000 2.692
30.60000 -0.085
30.62000 0.225
30.64000 -0.800
30.66000 3.136
30.68000 6.817
30.70000 3.567
30.72000 6.531
30.74000 7.738
30.76000 4.055
30.78000 -0.655
30.80000 -1.132
30.82000 1.725
30.84000 0.023
30.86000 4.246
30.88000 6.114
30.90000 0.026
30.92000 -1.718
30.94000 3.198
30.96000 1.909
30.98000 -1.387
31.00000 0.397
31.02000 -0.273
31.04000 2.459
31.06000 4.843
31.08000 1.117
31.10000 4.680
31.12000 5.017
31.14000 0.667
31.16000 -0.751
31.18000 0.236
31.20000 5.388
31.22000 2.981
31.24000 2.254
31.26000 0.519
31.28000 -0.394
31.30000 1.252
31.32000 4.353
31.34000 3.998
31.36000 0.622
31.38000 5.113
31.40000 -2.491
31.42000 -0.254
31.44000 0.976
31.46000 3.221
31.48000 -0.481
31.50000 4.530
31.52000 1.588
31.54000 1.521
31.56000 0.785
31.58000 2.567
31.60000 -1.345
31.62000 0.501
31.64000 8.450
31.66000 7.202
31.68000 10.956
31.70000 6.111
31.72000 2.544
31.74000 -2.708
31.76000 -3.580
31.78000 0.096
31.80000 5.033
31.82000 6.313
31.84000 7.562
31.86000 4.458
31.88000 0.027
31.90000 2.255
31.92000 2.615
31.94000 4.746
31.96000 7.233
31.98000 3.685
32.00000 0.572
32.02000 0.493
32.04000 -2.262
32.06000 1.289
32.08000 2.434
32.10000 5.980
32.12000 4.744
32.14000 -1.691
32.16000 -0.017
32.18000 0.159
32.20000 6.265
32.22000 5.012
32.24000 1.887
32.26000 6.033
32.28000 1.304
32.30000 3.116
32.32000 9.856
32.34000 8.048
32.36000 0.976
32.38000 1.234
32.40000 0.183
32.42000 0.092
32.44000 7.060
32.46000 4.531
32.48000 4.293
32.50000 1.483
32.52000 -0.325
32.54000 -1.456
32.56000 4.210
32.58000 2.836
32.60000 4.864
32.62000 5.018
32.64000 -1.779
32.66000 -2.302
32.68000 -0.546
32.70000 -1.462
32.72000 -1.161
32.74000 2.442
32.76000 -3.557
32.78000 0.672
32.80000 2.954
32.82000 5.057
32.84000 2.342
32.86000 -1.220
32.88000 2.174
32.90000 6.582
32.92000 5.697
32.94000 2.470
32.96000 1.850
32.98000 5.549
33.00000 4.472
33.02000 4.577
33.04000 0.794
33.06000 -2.759
33.08000 0.607
33.10000 6.568
33.12000 -0.315
33.14000 -0.188
33.16000 4.588
33.18000 0.565
33.20000 4.915
33.22000 4.422
33.24000 -0.741
33.26000 3.959
33.28000 5.561
33.30000 2.189
33.32000 3.668
33.34000 4.085
33.36000 4.686
33.38000 4.238
33.40000 2.600
33.42000 6.909
33.44000 5.638
33.46000 5.593
33.48000 4.381
33.50000 7.774
33.52000 4.964
33.54000 8.467
33.56000 1.625
33.58000 -3.520
33.60000 2.824
33.62000 5.690
33.64000 8.914
33.66000 8.288
33.68000 9.049
33.70000 6.191
33.72000 6.762
33.74000 4.870
33.76000 4.802
33.78000 4.441
33.80000 3.131
33.82000 1.181
33.84000 4.271
33.86000 7.176
33.88000 11.692
33.90000 10.185
33.92000 4.724
33.94000 0.145
33.96000 0.706
33.98000 3.543
34.00000 7.440
34.02000 2.691
34.04000 2.448
34.06000 4.022
34.08000 1.731
34.10000 0.484
34.12000 3.277
34.14000 10.860
34.16000 10.533
34.18000 6.958
34.20000 4.513
34.22000 3.788
34.24000 3.159
34.26000 4.386
34.28000 2.931
34.30000 3.148
34.32000 2.475
34.34000 3.026
34.36000 5.084
34.38000 7.325
34.40000 4.201
34.42000 3.311
34.44000 4.125
34.46000 3.248
34.48000 3.206
34.50000 1.556
34.52000 8.820
34.54000 9.030
34.56000 2.883
34.58000 2.998
34.60000 3.352
34.62000 3.114
34.64000 1.449
34.66000 0.723
34.68000 4.626
34.70000 6.422
34.72000 5.768
34.74000 4.146
34.76000 4.414
34.78000 5.517
34.80000 5.433
34.82000 7.110
34.84000 7.646
34.86000 -1.410
34.88000 -3.472
34.90000 2.538
34.92000 7.960
34.94000 3.196
34.96000 5.813
34.98000 8.665
35.00000 5.868
35.02000 5.977
35.04000 6.377
35.06000 3.466
35.08000 4.141
35.10000 3.942
35.12000 2.899
35.14000 3.603
35.16000 7.914
35.18000 8.926
35.20000 7.272
35.22000 0.308
35.24000 -0.070
35.26000 -3.473
35.28000 0.977
35.30000 4.310
35.32000 -0.671
35.34000 1.317
35.36000 0.420
35.38000 -0.910
35.40000 -0.418
35.42000 2.450
35.44000 4.300
35.46000 2.875
35.48000 0.838
35.50000 4.362
35.52000 3.152
35.54000 1.741
35.56000 2.682
35.58000 3.811
35.60000 6.750
35.62000 6.047
35.64000 3.125
35.66000 5.340
35.68000 7.884
35.70000 -0.275
35.72000 -1.608
35.74000 -0.240
35.76000 3.736
35.78000 2.675
35.80000 9.168
35.82000 7.860
35.84000 8.325
35.86000 6.129
35.88000 4.931
35.90000 2.249
35.92000 3.434
35.94000 5.132
35.96000 0.723
35.98000 4.322
36.00000 6.656
36.02000 7.954
36.04000 3.200
36.06000 -0.299
36.08000 -0.209
36.10000 0.621
36.12000 -2.982
36.14000 -3.461
36.16000 0.021
36.18000 1.497
36.20000 0.764
36.22000 0.938
36.24000 4.008
36.26000 1.802
36.28000 3.573
36.30000 3.080
36.32000 4.691
36.34000 4.887
36.36000 2.533
36.38000 -1.976
36.40000 1.248
36.42000 2.234
36.44000 0.455
36.46000 1.280
36.48000 -2.021
36.50000 -0.487
36.52000 0.410
36.54000 1.417
36.56000 1.364
36.58000 1.481
36.60000 3.702
36.62000 6.185
36.64000 6.253
36.66000 5.853
36.68000 6.148
36.70000 5.446
36.72000 4.795
36.74000 3.142
36.76000 -2.930
36.78000 -2.599
36.80000 -3.505
36.82000 2.649
36.84000 3.132
36.86000 4.145
36.88000 3.914
36.90000 2.850
36.92000 -1.306
36.94000 -2.444
36.96000 -0.298
36.98000 2.884
37.00000 0.459
37.02000 2.006
37.04000 2.225
37.06000 -1.524
37.08000 -2.777
37.10000 -3.519
37.12000 -0.033
37.14000 0.406
37.16000 -1.304
37.18000 0.132
37.20000 -1.559
37.22000 -0.093
37.24000 -1.443
37.26000 -0.816
37.28000 0.498
37.30000 6.265
37.32000 2.469
37.34000 2.729
37.36000 4.092
37.38000 1.198
37.40000 0.006
37.42000 3.216
37.44000 3.746
37.46000 3.171
37.48000 0.333
37.50000 -2.211
37.52000 -0.140
37.54000 2.589
37.56000 0.794
37.58000 3.536
37.60000 2.638
37.62000 -1.445
37.64000 2.329
37.66000 4.488
37.68000 1.286
37.70000 -3.531
37.72000 -0.768
37.74000 1.628
37.76000 6.607
37.78000 5.361
37.80000 0.960
37.82000 2.083
37.84000 5.262
37.86000 4.934
37.88000 4.971
37.90000 8.437
37.92000 7.440
37.94000 8.986
37.96000 13.091
37.98000 12.319
38.00000 11.807
38.02000 8.421
38.04000 3.252
38.06000 4.832
38.08000 9.562
38.10000 10.198
38.12000 8.826
38.14000 9.666
38.16000 12.379
38.18000 8.180
38.20000 9.640
38.22000 16.576
38.24000 11.828
38.26000 13.350
38.28000 11.940
38.30000 14.371
38.32000 13.211
38.34000 13.356
38.36000 16.431
38.38000 19.800
38.40000 20.678
38.42000 16.880
38.44000 19.805
38.46000 20.204
38.48000 17.050
38.50000 15.326
38.52000 15.953
38.54000 20.700
38.56000 25.081
38.58000 23.733
38.60000 23.527
38.62000 20.433
38.64000 20.649
38.66000 20.664
38.68000 21.427
38.70000 25.362
38.72000 25.221
38.74000 22.555
38.76000 21.498
38.78000 20.750
38.80000 23.914
38.82000 27.670
38.84000 23.948
38.86000 20.185
38.88000 25.624
38.90000 25.446
38.92000 31.430
38.94000 30.555
38.96000 31.549
38.98000 32.370
39.00000 31.894
39.02000 33.852
39.04000 35.980
39.06000 39.441
39.08000 37.479
39.10000 37.436
39.12000 41.465
39.14000 43.547
39.16000 43.983
39.18000 41.375
39.20000 38.624
39.22000 41.594
39.24000 49.056
39.26000 51.531
39.28000 54.319
39.30000 52.057
39.32000 55.816
39.34000 63.592
39.36000 66.833
39.38000 64.568
39.40000 67.355
39.42000 71.740
39.44000 76.712
39.46000 80.467
39.48000 84.268
39.50000 80.558
39.52000 86.699
39.54000 94.569
39.56000 96.254
39.58000 97.570
39.60000 106.941
39.62000 112.625
39.64000 123.673
39.66000 133.326
39.68000 144.769
39.70000 144.790
39.72000 150.741
39.74000 161.135
39.76000 167.647
39.78000 179.843
39.80000 194.165
39.82000 208.833
39.84000 223.588
39.86000 235.801
39.88000 251.051
39.90000 274.656
39.92000 296.521
39.94000 312.294
39.96000 330.966
39.98000 357.232
40.00000 384.324
40.02000 422.356
40.04000 444.784
40.06000 477.089
40.08000 518.194
40.10000 557.621
40.12000 595.337
40.14000 625.681
40.16000 666.106
40.18000 715.750
40.20000 775.887
40.22000 806.229
40.24000 862.307
40.26000 904.179
40.28000 936.958
40.30000 982.265
40.32000 1020.021
40.34000 1063.896
40.36000 1087.383
40.38000 1124.159
40.40000 1159.174
40.42000 1172.016
40.44000 1200.392
40.46000 1201.827
40.48000 1201.250
40.50000 1193.858
40.52000 1198.801
40.54000 1182.717
40.56000 1168.366
40.58000 1146.214
40.60000 1136.943
40.62000 1112.494
40.64000 1076.204
40.66000 1064.704
40.68000 1022.716
40.70000 990.767
40.72000 965.511
40.74000 933.283
40.76000 901.378
40.78000 865.379
40.80000 822.357
40.82000 787.404
40.84000 750.485
40.86000 716.894
40.88000 680.692
40.90000 647.323
40.92000 621.802
40.94000 588.684
40.96000 559.062
40.98000 527.163
41.00000 496.382
41.02000 476.766
41.04000 443.614
41.06000 417.028
41.08000 392.503
41.10000 377.492
41.12000 366.970
41.14000 343.880
41.16000 326.222
41.18000 308.010
41.20000 289.868
41.22000 265.222
41.24000 243.416
41.26000 235.690
41.28000 224.406
41.30000 208.296
41.32000 203.175
41.34000 197.235
41.36000 187.280
41.38000 180.251
41.40000 163.583
41.42000 154.233
41.44000 152.857
41.46000 145.424
41.48000 141.829
41.50000 133.095
41.52000 124.384
41.54000 122.675
41.56000 119.383
41.58000 110.601
41.60000 104.721
41.62000 104.555
41.64000 92.208
41.66000 87.768
41.68000 86.684
41.70000 84.546
41.72000 77.594
41.74000 76.351
41.76000 73.713
41.78000 70.754
41.80000 66.582
41.82000 59.586
41.84000 57.637
41.86000 59.596
41.88000 55.473
41.90000 48.562
41.92000 50.399
41.94000 51.313
41.96000 47.247
41.98000 44.249
42.00000 45.661
42.02000 44.132
42.04000 39.563
42.06000 36.552
42.08000 33.153
42.10000 28.431
42.12000 29.304
42.14000 32.438
42.16000 34.275
42.18000 29.665
42.20000 28.778
42.22000 28.732
42.24000 28.579
42.26000 26.059
42.28000 26.204
42.30000 26.692
42.32000 23.585
42.34000 23.301
42.36000 22.004
42.38000 19.983
42.40000 20.440
42.42000 18.964
42.44000 16.755
42.46000 12.033
42.48000 9.766
42.50000 14.822
42.52000 12.683
42.54000 14.428
42.56000 16.696
42.58000 14.974
42.60000 11.709
42.62000 10.337
42.64000 14.554
42.66000 13.797
42.68000 11.512
42.70000 8.134
42.72000 10.001
42.74000 9.060
42.76000 8.231
42.78000 8.501
42.80000 9.571
42.82000 8.437
42.84000 7.344
42.86000 7.486
42.88000 7.115
42.90000 6.941
42.92000 7.251
42.94000 5.938
42.96000 4.292
42.98000 4.647
43.00000 1.928
43.02000 3.301
43.04000 7.154
43.06000 8.132
43.08000 5.108
43.10000 3.932
43.12000 2.662
43.14000 2.200
43.16000 3.176
43.18000 5.268
43.20000 0.457
43.22000 -3.449
43.24000 0.201
43.26000 2.551
43.28000 4.308
43.30000 1.569
43.32000 0.763
43.34000 2.136
43.36000 3.852
43.38000 0.936
43.40000 -0.362
43.42000 1.964
43.44000 -0.187
43.46000 -0.389
43.48000 2.335
43.50000 1.289
43.52000 -1.884
43.54000 -1.501
43.56000 -0.755
43.58000 -1.309
43.60000 -3.373
43.62000 -1.328
43.64000 3.665
43.66000 2.599
43.68000 -1.500
43.70000 -2.954
43.72000 -0.016
43.74000 5.540
43.76000 2.779
43.78000 -0.136
43.80000 0.370
43.82000 2.752
43.84000 0.601
43.86000 1.760
43.88000 -0.539
43.90000 1.729
43.92000 1.062
43.94000 -1.450
43.96000 -2.165
43.98000 -1.946
44.00000 -1.447
44.02000 -2.408
44.04000 -1.204
44.06000 4.438
44.08000 4.741
44.10000 0.338
44.12000 -2.272
44.14000 -1.631
44.16000 -0.541
44.18000 2.468
44.20000 0.854
44.22000 -1.140
44.24000 0.029
44.26000 -3.217
44.28000 -2.208
44.30000 -0.553
44.32000 -1.389
44.34000 -3.277
44.36000 -1.390
44.38000 1.656
44.40000 1.915
44.42000 5.269
44.44000 4.404
44.46000 0.028
44.48000 -2.667
44.50000 -1.297
44.52000 2.904
44.54000 2.390
44.56000 -0.818
44.58000 0.265
44.60000 -1.939
44.62000 0.415
44.64000 -0.121
44.66000 3.112
44.68000 5.610
44.70000 -0.721
44.72000 -3.231
44.74000 -0.055
44.76000 2.633
44.78000 1.108
44.80000 -1.263
44.82000 -0.659
44.84000 -1.332
44.86000 -0.895
44.88000 0.354
44.90000 0.242
44.92000 0.434
44.94000 -0.396
44.96000 -1.962
44.98000 0.934
45.00000 3.351
45.02000 1.539
45.04000 3.346
45.06000 -0.485
45.08000 -2.426
45.10000 -0.943
45.12000 -1.893
45.14000 0.736
45.16000 3.025
45.18000 4.451
45.20000 1.759
45.22000 -3.228
45.24000 0.716
45.26000 1.977
45.28000 -0.403
45.30000 1.733
45.32000 2.859
45.34000 2.647
45.36000 1.970
45.38000 0.428
45.40000 2.364
45.42000 1.595
45.44000 1.293
45.46000 -0.075
45.48000 1.332
45.50000 1.065
45.52000 4.057
45.54000 4.474
45.56000 6.486
45.58000 4.609
45.60000 5.122
45.62000 4.527
45.64000 2.603
45.66000 3.049
45.68000 7.871
45.70000 3.938
45.72000 5.645
45.74000 1.681
45.76000 8.790
45.78000 6.590
45.80000 7.433
45.82000 6.723
45.84000 6.637
45.86000 8.354
45.88000 10.191
45.90000 8.855
45.92000 10.968
45.94000 9.892
45.96000 15.209
45.98000 16.896
46.00000 14.457
46.02000 16.837
46.04000 19.507
46.06000 17.707
46.08000 14.482
46.10000 15.747
46.12000 19.664
46.14000 21.060
46.16000 18.520
46.18000 22.091
46.20000 29.369
46.22000 32.675
46.24000 24.320
46.26000 27.132
46.28000 32.935
46.30000 30.845
46.32000 33.786
46.34000 29.898
46.36000 32.960
46.38000 31.381
46.40000 28.115
46.42000 35.797
46.44000 40.673
46.46000 45.507
46.48000 40.543
46.50000 43.234
46.52000 48.617
46.54000 55.930
46.56000 59.805
46.58000 59.273
46.60000 60.342
46.62000 62.927
46.64000 66.445
46.66000 66.834
46.68000 74.473
46.70000 77.591
46.72000 83.084
46.74000 82.239
46.76000 88.122
46.78000 96.314
46.80000 96.464
46.82000 101.808
46.84000 108.535
46.86000 113.385
46.88000 113.682
46.90000 115.719
46.92000 121.159
46.94000 128.239
46.96000 130.553
46.98000 134.751
47.00000 135.364
47.02000 132.804
47.04000 139.114
47.06000 146.533
47.08000 149.043
47.10000 149.548
47.12000 147.999
47.14000 145.530
47.16000 144.291
47.18000 146.409
47.20000 146.302
47.22000 142.069
47.24000 142.153
47.26000 141.518
47.28000 135.788
47.30000 130.702
47.32000 125.099
47.34000 128.232
47.36000 118.739
47.38000 119.356
47.40000 117.423
47.42000 113.399
47.44000 103.163
47.46000 99.021
47.48000 100.633
47.50000 96.254
47.52000 91.207
47.54000 87.119
47.56000 82.866
47.58000 79.039
47.60000 77.347
47.62000 68.312
47.64000 67.392
47.66000 57.458
47.68000 57.172
47.70000 55.595
47.72000 55.384
47.74000 55.787
47.76000 55.774
47.78000 50.681
47.80000 41.662
47.82000 37.197
47.84000 43.837
47.86000 41.972
47.88000 41.314
47.90000 38.390
47.92000 38.735
47.94000 31.326
47.96000 25.730
47.98000 27.373
48.00000 24.939
48.02000 21.306
48.04000 19.982
48.06000 18.880
48.08000 17.272
48.10000 14.845
48.12000 14.243
48.14000 13.460
48.16000 13.531
48.18000 15.817
48.20000 14.995
48.22000 9.345
48.24000 9.537
48.26000 10.403
48.28000 7.877
48.30000 3.816
48.32000 1.024
48.34000 3.154
48.36000 6.995
48.38000 7.988
48.40000 7.254
48.42000 5.089
48.44000 3.457
48.46000 3.548
48.48000 0.724
48.50000 1.010
48.52000 0.416
48.54000 3.285
48.56000 2.735
48.58000 2.055
48.60000 3.364
48.62000 0.949
48.64000 -0.594
48.66000 -1.890
48.68000 -0.789
48.70000 -2.812
48.72000 -1.529
48.74000 -2.652
48.76000 -1.614
48.78000 1.300
48.80000 -0.834
48.82000 -1.296
48.84000 -1.737
48.86000 -2.750
48.88000 -2.766
48.90000 -1.642
48.92000 2.388
48.94000 5.341
48.96000 1.163
48.98000 2.552
49.00000 4.470
49.02000 1.486
49.04000 1.908
49.06000 4.363
49.08000 1.451
49.10000 1.889
49.12000 3.994
49.14000 1.102
49.16000 3.660
49.18000 4.749
49.20000 2.694
49.22000 1.892
49.24000 -2.664
49.26000 -2.367
49.28000 3.649
49.30000 0.900
49.32000 -0.205
49.34000 4.387
49.36000 2.757
49.38000 2.215
49.40000 -0.336
49.42000 -0.962
49.44000 3.033
49.46000 1.481
49.48000 -1.381
49.50000 4.591
49.52000 3.473
49.54000 1.490
49.56000 1.590
49.58000 -0.699
49.60000 2.445
49.62000 -0.301
49.64000 -2.610
49.66000 -1.602
49.68000 3.854
49.70000 3.562
49.72000 0.679
49.74000 -1.795
49.76000 -1.036
49.78000 -1.648
49.80000 -1.839
49.82000 0.540
49.84000 -1.774
49.86000 -1.057
49.88000 1.000
49.90000 0.117
49.92000 0.530
49.94000 -0.052
49.96000 -0.657
49.98000 2.300
50.00000 3.471
50.02000 1.712
50.04000 -1.385
50.06000 5.197
50.08000 2.368
50.10000 -0.352
50.12000 0.806
50.14000 0.989
50.16000 0.511
50.18000 3.945
50.20000 4.318
50.22000 2.362
50.24000 0.707
50.26000 1.314
50.28000 2.148
50.30000 -1.319
50.32000 -2.010
50.34000 -2.315
50.36000 -2.543
50.38000 -2.379
50.40000 -0.997
50.42000 -0.480
50.44000 0.070
50.46000 -0.262
50.48000 1.848
50.50000 2.738
50.52000 -0.264
50.54000 -2.405
50.56000 -1.922
50.58000 3.388
50.60000 0.093
50.62000 2.619
50.64000 -2.037
50.66000 -1.470
50.68000 -0.541
50.70000 1.279
50.72000 1.749
50.74000 4.771
50.76000 3.286
50.78000 5.005
50.80000 1.433
50.82000 1.604
50.84000 -1.343
50.86000 -1.479
50.88000 -0.340
50.90000 -0.873
50.92000 1.523
50.94000 -2.514
50.96000 -0.085
50.98000 2.057
51.00000 1.088
51.02000 1.009
51.04000 -0.419
51.06000 -0.356
51.08000 0.416
51.10000 0.588
51.12000 1.588
51.14000 0.149
51.16000 -2.196
51.18000 -1.779
51.20000 -0.147
51.22000 -1.100
51.24000 -2.476
51.26000 1.730
51.28000 4.095
51.30000 5.466
51.32000 3.737
51.34000 -0.301
51.36000 -0.220
51.38000 1.033
51.40000 3.129
51.42000 0.163
51.44000 -0.408
51.46000 2.036
51.48000 3.307
51.50000 3.312
51.52000 0.731
51.54000 -2.469
51.56000 0.029
51.58000 -1.417
51.60000 0.055
51.62000 -0.575
51.64000 1.558
51.66000 5.551
51.68000 4.188
51.70000 3.874
51.72000 0.061
51.74000 0.978
51.76000 2.826
51.78000 0.742
51.80000 0.270
51.82000 1.363
51.84000 4.409
51.86000 2.667
51.88000 0.014
51.90000 -2.455
51.92000 0.364
51.94000 5.246
51.96000 4.903
51.98000 2.320
52.00000 3.925
52.02000 0.987
52.04000 -0.817
52.06000 0.421
52.08000 -0.862
52.10000 -1.315
52.12000 -1.036
52.14000 -0.785
52.16000 2.467
52.18000 2.448
52.20000 -1.435
52.22000 -1.649
52.24000 -1.579
52.26000 -2.325
52.28000 0.390
52.30000 -0.880
52.32000 1.961
52.34000 3.787
52.36000 2.189
52.38000 -2.157
52.40000 -1.076
52.42000 -0.378
52.44000 3.501
52.46000 1.350
52.48000 0.790
52.50000 -1.812
52.52000 -0.430
52.54000 -0.198
52.56000 0.389
52.58000 1.415
52.60000 2.199
52.62000 3.291
52.64000 -1.154
52.66000 2.147
52.68000 4.114
52.70000 3.885
52.72000 2.372
52.74000 2.305
52.76000 3.095
52.78000 3.475
52.80000 0.856
52.82000 1.848
52.84000 5.178
52.86000 6.947
52.88000 2.874
52.90000 1.754
52.92000 0.828
52.94000 -1.456
52.96000 1.329
52.98000 2.621
53.00000 -0.681
53.02000 1.821
53.04000 -0.535
53.06000 -0.729
53.08000 -0.094
53.10000 1.056
53.12000 2.287
53.14000 3.503
53.16000 5.334
53.18000 6.505
53.20000 7.261
53.22000 7.227
53.24000 4.974
53.26000 4.379
53.28000 3.036
53.30000 3.467
53.32000 -0.846
53.34000 0.263
53.36000 1.559
53.38000 -2.366
53.40000 0.939
53.42000 2.061
53.44000 4.081
53.46000 3.418
53.48000 3.807
53.50000 6.486
53.52000 6.491
53.54000 6.220
53.56000 3.491
53.58000 3.465
53.60000 4.080
53.62000 -0.351
53.64000 4.902
53.66000 5.448
53.68000 3.958
53.70000 4.219
53.72000 1.462
53.74000 -1.266
53.76000 -0.965
53.78000 2.896
53.80000 1.927
53.82000 0.304
53.84000 0.570
53.86000 0.301
53.88000 2.756
53.90000 3.430
53.92000 3.672
53.94000 2.559
53.96000 -0.198
53.98000 -1.206
54.00000 -1.986
54.02000 3.247
54.04000 1.879
54.06000 2.397
54.08000 4.737
54.10000 3.373
54.12000 4.820
54.14000 2.881
54.16000 1.661
54.18000 0.810
54.20000 3.951
54.22000 1.624
54.24000 -1.547
54.26000 1.106
54.28000 3.063
54.30000 3.083
54.32000 -0.654
54.34000 0.999
54.36000 2.622
54.38000 1.525
54.40000 3.183
54.42000 4.045
54.44000 2.257
54.46000 3.135
54.48000 0.460
54.50000 2.195
54.52000 2.741
54.54000 -0.567
54.56000 -1.126
54.58000 2.259
54.60000 3.140
54.62000 1.333
54.64000 2.357
54.66000 2.875
54.68000 1.739
54.70000 0.607
54.72000 2.152
54.74000 2.497
54.76000 3.014
54.78000 5.644
54.80000 5.428
54.82000 2.265
54.84000 -2.348
54.86000 0.243
54.88000 2.821
54.90000 3.835
54.92000 1.883
54.94000 3.951
54.96000 2.090
54.98000 0.418
55.00000 3.779
55.02000 4.384
55.04000 4.181
55.06000 3.200
55.08000 -0.647
55.10000 0.125
55.12000 -0.011
55.14000 2.201
55.16000 3.011
55.18000 2.869
55.20000 2.846
55.22000 2.451
55.24000 1.952
55.26000 0.976
55.28000 1.160
55.30000 1.210
55.32000 2.243
55.34000 6.011
55.36000 2.638
55.38000 2.944
55.40000 2.633
55.42000 0.902
55.44000 2.221
55.46000 -2.325
55.48000 -2.182
55.50000 0.891
55.52000 0.953
55.54000 4.138
55.56000 6.925
55.58000 5.220
55.60000 2.099
55.62000 3.129
55.64000 4.573
55.66000 1.660
55.68000 0.891
55.70000 3.659
55.72000 3.572
55.74000 2.395
55.76000 2.252
55.78000 2.999
55.80000 3.441
55.82000 3.349
55.84000 4.005
55.86000 2.497
55.88000 4.580
55.90000 4.952
55.92000 0.382
55.94000 0.702
55.96000 0.128
55.98000 -1.061
56.00000 0.725
56.02000 -1.482
56.04000 3.202
56.06000 2.752
56.08000 3.541
56.10000 4.539
56.12000 1.155
56.14000 -0.227
56.16000 1.669
56.18000 4.218
56.20000 2.230
56.22000 2.490
56.24000 0.889
56.26000 -1.530
56.28000 1.186
56.30000 4.265
56.32000 3.611
56.34000 2.827
56.36000 3.257
56.38000 4.103
56.40000 3.196
56.42000 2.235
56.44000 -2.300
56.46000 -1.227
56.48000 1.676
56.50000 1.481
56.52000 4.746
56.54000 3.726
56.56000 2.628
56.58000 2.462
56.60000 -0.285
56.62000 -2.300
56.64000 1.075
56.66000 4.521
56.68000 0.763
56.70000 1.574
56.72000 2.818
56.74000 0.190
56.76000 0.778
56.78000 0.152
56.80000 0.080
56.82000 1.804
56.84000 2.316
56.86000 1.949
56.88000 2.327
56.90000 3.641
56.92000 3.786
56.94000 1.021
56.96000 1.219
56.98000 0.344
57.00000 1.628
57.02000 1.053
57.04000 -0.560
57.06000 -1.616
57.08000 -0.799
57.10000 0.534
57.12000 -0.050
57.14000 1.250
57.16000 -0.470
57.18000 -1.789
57.20000 -0.971
57.22000 -0.932
57.24000 -0.220
57.26000 1.518
57.28000 -0.581
57.30000 4.579
57.32000 3.659
57.34000 2.308
57.36000 0.528
57.38000 -2.304
57.40000 -0.995
57.42000 -0.340
57.44000 -0.143
57.46000 1.568
57.48000 3.637
57.50000 3.404
57.52000 1.815
57.54000 1.402
57.56000 -1.760
57.58000 -1.248
57.60000 1.244
57.62000 0.396
57.64000 1.432
57.66000 3.641
57.68000 4.368
57.70000 1.038
57.72000 -0.279
57.74000 -1.179
57.76000 -0.935
57.78000 -0.026
57.80000 0.933
57.82000 1.847
57.84000 2.840
57.86000 2.926
57.88000 2.783
57.90000 1.916
57.92000 -1.457
57.94000 2.473
57.96000 1.147
57.98000 3.961
58.00000 3.011
58.02000 0.778
58.04000 -2.268
58.06000 -0.504
58.08000 1.470
58.10000 0.234
58.12000 1.708
58.14000 1.009
58.16000 2.042
58.18000 5.053
58.20000 5.257
58.22000 3.763
58.24000 4.963
58.26000 2.052
58.28000 0.702
58.30000 2.313
58.32000 2.113
58.34000 0.365
58.36000 2.050
58.38000 3.360
58.40000 2.733
58.42000 4.320
58.44000 0.569
58.46000 -0.503
58.48000 1.429
58.50000 3.030
58.52000 1.934
58.54000 1.784
58.56000 6.627
58.58000 3.311
58.60000 1.746
58.62000 -2.226
58.64000 1.059
58.66000 0.982
58.68000 1.500
58.70000 1.202
58.72000 1.796
58.74000 5.286
58.76000 5.332
58.78000 2.736
58.80000 3.353
58.82000 5.677
58.84000 2.745
58.86000 3.502
58.88000 5.694
58.90000 1.745
58.92000 -0.718
58.94000 1.389
58.96000 3.244
58.98000 2.543
59.00000 2.185
59.02000 2.253
59.04000 2.136
59.06000 1.846
59.08000 2.564
59.10000 2.071
59.12000 1.143
59.14000 3.771
59.16000 3.586
59.18000 3.112
59.20000 3.247
59.22000 2.364
59.24000 2.382
59.26000 -0.588
59.28000 -0.180
59.30000 5.520
59.32000 7.438
59.34000 8.189
59.36000 9.403
59.38000 8.461
59.40000 2.504
59.42000 1.076
59.44000 0.971
59.46000 2.254
59.48000 0.216
59.50000 0.065
59.52000 2.338
59.54000 3.220
59.56000 2.144
59.58000 -2.205
59.60000 -1.000
59.62000 -0.709
59.64000 0.274
59.66000 2.829
59.68000 3.106
59.70000 1.407
59.72000 -0.155
59.74000 -0.630
59.76000 1.280
59.78000 -0.567
59.80000 4.701
59.82000 5.583
59.84000 1.574
59.86000 3.433
59.88000 5.425
59.90000 4.705
59.92000 4.895
59.94000 6.030
59.96000 3.546
59.98000 1.409
60.00000 4.132
60.02000 3.288
60.04000 2.447
60.06000 4.097
60.08000 4.146
60.10000 4.300
60.12000 2.187
60.14000 -0.434
60.16000 -1.209
60.18000 -1.056
60.20000 -0.060
60.22000 -0.446
60.24000 -1.340
60.26000 -0.847
60.28000 0.359
60.30000 1.046
60.32000 3.401
60.34000 2.725
60.36000 2.454
60.38000 2.050
60.40000 -2.200
60.42000 -1.288
60.44000 -0.153
60.46000 1.009
60.48000 1.743
60.50000 4.333
60.52000 3.721
60.54000 -0.381
60.56000 1.085
60.58000 1.158
60.60000 3.020
60.62000 2.065
60.64000 1.665
60.66000 1.123
60.68000 1.797
60.70000 -0.474
60.72000 -0.182
60.74000 -0.453
60.76000 -0.212
60.78000 0.547
60.80000 2.278
60.82000 3.072
60.84000 1.409
60.86000 -2.022
60.88000 -2.014
60.90000 -1.290
60.92000 2.590
60.94000 4.982
60.96000 3.662
60.98000 1.022
61.00000 -0.586
61.02000 2.157
61.04000 2.754
61.06000 0.748
61.08000 1.346
61.10000 1.802
61.12000 1.374
61.14000 2.996
61.16000 0.839
61.18000 0.278
61.20000 -1.462
61.22000 -0.205
61.24000 1.763
61.26000 2.073
61.28000 0.182
61.30000 0.097
61.32000 -0.831
61.34000 -2.179
61.36000 1.397
61.38000 0.474
61.40000 0.892
61.42000 -0.413
61.44000 -2.172
61.46000 -0.258
61.48000 -0.339
61.50000 0.253
61.52000 1.602
61.54000 1.431
61.56000 1.206
61.58000 -2.166
61.60000 -1.587
61.62000 3.617
61.64000 2.058
61.66000 -1.046
61.68000 -1.184
61.70000 1.796
61.72000 3.499
61.74000 2.894
61.76000 1.539
61.78000 -0.978
61.80000 0.786
61.82000 -0.244
61.84000 3.184
61.86000 3.263
61.88000 -0.273
61.90000 2.646
61.92000 4.861
61.94000 1.171
61.96000 1.059
61.98000 0.702
62.00000 1.111
62.02000 2.020
62.04000 3.748
62.06000 3.884
62.08000 1.931
62.10000 2.060
62.12000 -1.201
62.14000 -1.706
62.16000 -1.415
62.18000 1.054
62.20000 2.158
62.22000 2.373
62.24000 3.977
62.26000 2.151
62.28000 3.269
62.30000 3.548
62.32000 1.351
62.34000 2.188
62.36000 1.737
62.38000 3.031
62.40000 2.216
62.42000 2.537
62.44000 3.194
62.46000 1.767
62.48000 3.405
62.50000 3.077
62.52000 2.689
62.54000 3.026
62.56000 3.270
62.58000 1.774
62.60000 1.336
62.62000 3.251
62.64000 1.809
62.66000 0.231
62.68000 2.958
62.70000 2.682
62.72000 1.580
62.74000 0.314
62.76000 2.822
62.78000 2.664
62.80000 2.720
62.82000 0.984
62.84000 -2.094
62.86000 -1.210
62.88000 -0.285
62.90000 3.111
62.92000 0.832
62.94000 3.096
62.96000 5.012
62.98000 1.613
63.00000 5.484
63.02000 5.301
63.04000 5.850
63.06000 4.833
63.08000 2.830
63.10000 2.162
63.12000 2.439
63.14000 4.339
63.16000 4.505
63.18000 2.510
63.20000 -0.941
63.22000 0.588
63.24000 1.785
63.26000 2.963
63.28000 1.531
63.30000 -0.287
63.32000 1.508
63.34000 1.841
63.36000 1.251
63.38000 1.665
63.40000 1.110
63.42000 2.773
63.44000 1.646
63.46000 2.843
63.48000 -0.491
63.50000 -0.284
63.52000 -0.363
63.54000 1.167
63.56000 2.806
63.58000 -1.366
63.60000 -1.502
63.62000 2.411
63.64000 2.610
63.66000 1.997
63.68000 3.635
63.70000 0.318
63.72000 -1.910
63.74000 -2.117
63.76000 -2.117
63.78000 -0.860
63.80000 1.256
63.82000 2.276
63.84000 2.275
63.86000 2.759
63.88000 3.223
63.90000 1.896
63.92000 1.867
63.94000 1.896
63.96000 0.170
63.98000 -0.664
64.00000 3.285
64.02000 1.269
64.04000 -0.068
64.06000 3.094
64.08000 2.580
64.10000 3.145
64.12000 3.399
64.14000 1.354
64.16000 1.902
64.18000 1.385
64.20000 -0.339
64.22000 2.014
64.24000 2.802
64.26000 2.199
64.28000 0.862
64.30000 0.972
64.32000 0.088
64.34000 3.077
64.36000 0.854
64.38000 0.320
64.40000 1.323
64.42000 1.943
64.44000 0.422
64.46000 4.122
64.48000 1.309
64.50000 2.862
64.52000 0.705
64.54000 -1.218
64.56000 0.141
64.58000 -0.464
64.60000 3.059
64.62000 2.022
64.64000 -1.199
64.66000 -0.256
64.68000 1.910
64.70000 2.221
64.72000 2.695
64.74000 1.681
64.76000 1.446
64.78000 1.229
64.80000 1.440
64.82000 -1.064
64.84000 2.336
64.86000 4.428
64.88000 -0.555
64.90000 -0.503
64.92000 2.552
64.94000 3.576
64.96000 3.283
64.98000 -1.236
65.00000 -2.104
65.02000 -0.091
65.04000 0.867
65.06000 0.935
65.08000 1.000
65.10000 -0.100
65.12000 -0.012
65.14000 0.655
65.16000 -0.536
65.18000 -0.242
65.20000 1.674
65.22000 2.855
65.24000 3.375
65.26000 2.391
65.28000 1.263
65.30000 1.262
65.32000 -1.195
65.34000 -1.061
65.36000 1.242
65.38000 1.141
65.40000 -0.187
65.42000 2.421
65.44000 3.481
65.46000 4.603
65.48000 1.912
65.50000 -1.931
65.52000 -0.052
65.54000 1.089
65.56000 0.831
65.58000 3.287
65.60000 4.972
65.62000 2.671
65.64000 0.321
65.66000 -0.405
65.68000 -0.359
65.70000 2.097
65.72000 0.779
65.74000 -0.624
65.76000 -0.220
65.78000 0.905
65.80000 0.729
65.82000 0.550
65.84000 2.385
65.86000 -2.083
65.88000 0.041
65.90000 1.594
65.92000 3.713
65.94000 1.298
65.96000 1.438
65.98000 -1.642
66.00000 -0.814
66.02000 -0.248
66.04000 2.143
66.06000 3.197
66.08000 2.181
66.10000 1.289
66.12000 0.778
66.14000 1.725
66.16000 1.039
66.18000 2.389
66.20000 3.064
66.22000 1.320
66.24000 2.415
66.26000 0.611
66.28000 -2.068
66.30000 0.801
66.32000 3.005
66.34000 2.465
66.36000 1.176
66.38000 1.159
66.40000 -0.351
66.42000 -1.288
66.44000 -1.308
66.46000 2.745
66.48000 1.397
66.50000 1.242
66.52000 2.241
66.54000 2.879
66.56000 -2.068
66.58000 -0.471
66.60000 1.784
66.62000 6.024
66.64000 1.827
66.66000 1.567
66.68000 5.000
66.70000 1.707
66.72000 1.734
66.74000 0.153
66.76000 0.565
66.78000 -0.298
66.80000 1.478
66.82000 2.407
66.84000 1.401
66.86000 2.117
66.88000 3.811
66.90000 2.923
66.92000 -0.651
66.94000 -1.766
66.96000 0.115
66.98000 0.208
67.00000 -0.508
67.02000 -0.959
67.04000 0.032
67.06000 -1.053
67.08000 -0.216
67.10000 -1.573
67.12000 -1.491
67.14000 0.740
67.16000 -1.341
67.18000 -0.745
67.20000 0.372
67.22000 1.098
67.24000 -0.592
67.26000 0.716
67.28000 1.595
67.30000 2.920
67.32000 1.964
67.34000 1.131
67.36000 0.301
67.38000 0.135
67.40000 -0.106
67.42000 -2.112
67.44000 0.026
67.46000 0.895
67.48000 -0.534
67.50000 1.032
67.52000 2.281
67.54000 -0.147
67.56000 1.922
67.58000 -0.194
67.60000 -0.877
67.62000 -2.112
67.64000 -0.637
67.66000 -0.138
67.68000 -2.116
67.70000 0.131
67.72000 -0.003
67.74000 -1.759
67.76000 -1.481
67.78000 3.892
67.80000 1.819
67.82000 0.412
67.84000 1.434
67.86000 -1.085
67.88000 -0.144
67.90000 -0.775
67.92000 0.800
67.94000 3.653
67.96000 0.373
67.98000 2.940
68.00000 3.386
68.02000 1.788
68.04000 2.700
68.06000 1.152
68.08000 2.490
68.10000 2.518
68.12000 2.263
68.14000 5.100
68.16000 4.457
68.18000 5.016
68.20000 3.844
68.22000 5.156
68.24000 7.549
68.26000 7.813
68.28000 4.569
68.30000 6.746
68.32000 7.292
68.34000 8.000
68.36000 7.485
68.38000 8.346
68.40000 8.470
68.42000 8.026
68.44000 8.839
68.46000 9.399
68.48000 9.955
68.50000 9.628
68.52000 11.111
68.54000 11.094
68.56000 14.035
68.58000 15.105
68.60000 15.729
68.62000 15.326
68.64000 19.165
68.66000 18.549
68.68000 19.287
68.70000 19.691
68.72000 20.061
68.74000 20.406
68.76000 20.545
68.78000 21.789
68.80000 19.448
68.82000 20.592
68.84000 25.645
68.86000 25.153
68.88000 24.562
68.90000 22.800
68.92000 19.586
68.94000 21.624
68.96000 23.386
68.98000 21.621
69.00000 20.264
69.02000 21.552
69.04000 21.017
69.06000 22.428
69.08000 24.872
69.10000 21.905
69.12000 19.820
69.14000 20.003
69.16000 19.729
69.18000 18.009
69.20000 19.182
69.22000 16.889
69.24000 16.268
69.26000 17.673
69.28000 15.707
69.30000 13.317
69.32000 13.736
69.34000 13.188
69.36000 11.962
69.38000 12.310
69.40000 13.140
69.42000 14.346
69.44000 11.596
69.46000 7.480
69.48000 7.408
69.50000 2.977
69.52000 5.793
69.54000 5.832
69.56000 3.739
69.58000 4.233
69.60000 6.497
69.62000 7.666
69.64000 6.745
69.66000 4.817
69.68000 6.500
69.70000 2.898
69.72000 0.662
69.74000 2.061
69.76000 3.197
69.78000 5.501
69.80000 3.965
69.82000 2.288
69.84000 0.513
69.86000 -0.081
69.88000 2.587
69.90000 1.969
69.92000 2.623
69.94000 0.164
69.96000 1.536
69.98000 -1.274
70.00000 -1.888
70.02000 1.508
70.04000 -0.016
70.06000 -0.711
70.08000 1.179
70.10000 1.733
70.12000 1.828
70.14000 1.773
70.16000 1.710
70.18000 3.976
70.20000 1.408
70.22000 2.262
70.24000 0.712
70.26000 1.071
70.28000 1.329
70.30000 -0.487
70.32000 2.361
70.34000 2.856
70.36000 -2.001
70.38000 -1.422
70.40000 0.737
70.42000 1.141
70.44000 -0.345
70.46000 0.670
70.48000 0.306
70.50000 -0.405
70.52000 -1.655
70.54000 -1.975
70.56000 -0.422
70.58000 0.729
70.60000 0.945
70.62000 -1.039
70.64000 -1.309
70.66000 -0.681
70.68000 -0.079
70.70000 1.691
70.72000 1.686
70.74000 0.172
70.76000 4.364
70.78000 2.828
70.80000 0.969
70.82000 -1.939
70.84000 -0.979
70.86000 -1.938
70.88000 -0.467
70.90000 1.060
70.92000 0.980
70.94000 2.097
70.96000 0.095
70.98000 -0.697
71.00000 0.271
71.02000 1.393
71.04000 2.625
71.06000 0.769
71.08000 1.776
71.10000 0.500
71.12000 1.596
71.14000 3.023
71.16000 1.588
71.18000 1.512
71.20000 3.492
71.22000 2.715
71.24000 1.403
71.26000 1.956
71.28000 0.383
71.30000 4.388
71.32000 7.343
71.34000 1.530
71.36000 -1.181
71.38000 1.086
71.40000 1.276
71.42000 1.232
71.44000 1.207
71.46000 1.279
71.48000 1.960
71.50000 0.639
71.52000 -1.083
71.54000 0.097
71.56000 0.130
71.58000 -0.429
71.60000 2.289
71.62000 5.726
71.64000 3.812
71.66000 0.446
71.68000 -0.540
71.70000 0.595
71.72000 0.909
71.74000 1.216
71.76000 -0.043
71.78000 -0.304
71.80000 1.126
71.82000 2.125
71.84000 1.384
71.86000 3.697
71.88000 1.409
71.90000 0.496
71.92000 3.179
71.94000 3.918
71.96000 3.759
71.98000 2.357
72.00000 -1.835
72.02000 0.129
72.04000 5.845
72.06000 6.824
72.08000 3.445
72.10000 0.506
72.12000 0.212
72.14000 2.296
72.16000 1.567
72.18000 2.227
72.20000 2.230
72.22000 2.470
72.24000 3.370
72.26000 2.871
72.28000 0.375
72.30000 -1.816
72.32000 -0.041
72.34000 2.195
72.36000 1.392
72.38000 0.916
72.40000 3.348
72.42000 2.309
72.44000 3.105
72.46000 2.047
72.48000 0.924
72.50000 -0.591
72.52000 1.873
72.54000 3.165
72.56000 -1.827
72.58000 -0.510
72.60000 0.774
72.62000 4.786
72.64000 3.100
72.66000 1.592
72.68000 1.812
72.70000 3.398
72.72000 1.406
72.74000 0.623
72.76000 2.123
72.78000 1.262
72.80000 0.477
72.82000 1.431
72.84000 3.261
72.86000 -0.312
72.88000 0.762
72.90000 4.240
72.92000 1.905
72.94000 -0.819
72.96000 -0.861
72.98000 2.069
73.00000 1.676
73.02000 2.140
73.04000 0.061
73.06000 3.971
73.08000 5.205
73.10000 3.041
73.12000 1.526
73.14000 1.283
73.16000 -0.291
73.18000 1.049
73.20000 1.213
73.22000 2.145
73.24000 3.776
73.26000 3.524
73.28000 1.024
73.30000 -1.528
73.32000 1.118
73.34000 -0.179
73.36000 0.011
73.38000 2.044
73.40000 2.842
73.42000 3.003
73.44000 1.855
73.46000 1.784
73.48000 -0.703
73.50000 -1.835
73.52000 0.365
73.54000 -0.481
73.56000 1.125
73.58000 1.892
73.60000 3.346
73.62000 2.511
73.64000 1.574
73.66000 1.634
73.68000 4.359
73.70000 2.031
73.72000 1.729
73.74000 -0.425
73.76000 0.448
73.78000 -0.682
73.80000 -0.419
73.82000 -0.299
73.84000 1.764
73.86000 0.895
73.88000 0.244
73.90000 0.702
73.92000 0.883
73.94000 1.291
73.96000 1.579
73.98000 -0.692
74.00000 -0.500
74.02000 1.128
74.04000 0.023
74.06000 -1.000
74.08000 0.631
74.10000 0.743
74.12000 2.089
74.14000 2.245
74.16000 1.358
74.18000 0.147
74.20000 -0.199
74.22000 0.459
74.24000 0.724
74.26000 1.141
74.28000 -0.211
74.30000 -0.064
74.32000 0.750
74.34000 1.878
74.36000 0.843
74.38000 -0.299
74.40000 0.617
74.42000 -1.820
74.44000 1.936
74.46000 1.247
74.48000 1.523
74.50000 1.368
74.52000 0.258
74.54000 -0.863
74.56000 0.010
74.58000 2.883
74.60000 0.020
74.62000 -0.767
74.64000 0.947
74.66000 3.737
74.68000 1.476
74.70000 1.059
74.72000 1.669
74.74000 -0.257
74.76000 -0.710
74.78000 -1.665
74.80000 -1.818
74.82000 -1.157
74.84000 0.571
74.86000 1.302
74.88000 1.457
74.90000 3.986
74.92000 1.410
74.94000 -0.105
74.96000 1.748
74.98000 1.431
75.00000 -0.135
75.02000 0.590
75.04000 1.616
75.06000 1.803
75.08000 2.183
75.10000 -1.374
75.12000 -1.439
75.14000 -1.323
75.16000 0.696
75.18000 2.181
75.20000 0.823
75.22000 2.733
75.24000 2.806
75.26000 -0.455
75.28000 -0.920
75.30000 -1.508
75.32000 -0.173
75.34000 2.526
75.36000 -0.448
75.38000 1.996
75.40000 5.016
75.42000 3.616
75.44000 -0.195
75.46000 -1.799
75.48000 1.443
75.50000 1.956
75.52000 0.897
75.54000 1.389
75.56000 2.307
75.58000 2.712
75.60000 3.369
75.62000 2.461
75.64000 2.015
75.66000 -0.553
75.68000 0.582
75.70000 0.067
75.72000 3.174
75.74000 3.794
75.76000 0.324
75.78000 -0.077
75.80000 2.296
75.82000 0.208
75.84000 -0.897
75.86000 -1.224
75.88000 2.029
75.90000 5.116
75.92000 4.790
75.94000 3.966
75.96000 3.158
75.98000 2.305
76.00000 1.233
76.02000 -1.386
76.04000 -0.741
76.06000 -0.576
76.08000 0.850
76.10000 1.289
76.12000 -0.866
76.14000 -0.961
76.16000 -1.443
76.18000 -1.740
76.20000 -1.013
76.22000 1.837
76.24000 0.607
76.26000 0.892
76.28000 1.780
76.30000 0.443
76.32000 -1.751
76.34000 -0.906
76.36000 2.277
76.38000 2.314
76.40000 -1.028
76.42000 -0.388
76.44000 2.587
76.46000 3.713
76.48000 1.154
76.50000 2.293
76.52000 0.811
76.54000 0.657
76.56000 0.555
76.58000 1.175
76.60000 2.769
76.62000 4.739
76.64000 3.638
76.66000 5.805
76.68000 3.828
76.70000 3.087
76.72000 3.965
76.74000 5.019
76.76000 5.638
76.78000 1.890
76.80000 -1.247
76.82000 -1.812
76.84000 2.350
76.86000 4.388
76.88000 1.986
76.90000 1.100
76.92000 -0.916
76.94000 0.873
76.96000 2.074
76.98000 1.998
77.00000 3.171
77.02000 0.850
77.04000 -0.095
77.06000 -0.326
77.08000 -0.019
77.10000 -1.405
77.12000 1.245
77.14000 -0.531
77.16000 3.184
77.18000 3.237
77.20000 1.780
77.22000 2.660
77.24000 2.302
77.26000 2.467
77.28000 -0.135
77.30000 -1.840
77.32000 -0.718
77.34000 -0.829
77.36000 -0.198
77.38000 -1.101
77.40000 1.312
77.42000 -0.823
77.44000 0.417
77.46000 0.507
77.48000 -1.848
77.50000 2.998
77.52000 3.920
77.54000 2.129
77.56000 1.778
77.58000 3.056
77.60000 3.694
77.62000 2.530
77.64000 1.627
77.66000 1.255
77.68000 3.127
77.70000 1.554
77.72000 2.456
77.74000 1.798
77.76000 2.594
77.78000 0.899
77.80000 -0.319
77.82000 1.279
77.84000 4.425
77.86000 3.230
77.88000 2.052
77.90000 -0.005
77.92000 0.730
77.94000 1.709
77.96000 0.163
77.98000 0.192
78.00000 0.210
78.02000 1.640
78.04000 -0.025
78.06000 0.618
78.08000 3.509
78.10000 1.413
78.12000 1.298
78.14000 3.887
78.16000 2.693
78.18000 2.349
78.20000 2.046
78.22000 1.477
78.24000 3.221
78.26000 0.628
78.28000 -1.027
78.30000 0.825
78.32000 2.243
78.34000 -0.240
78.36000 -0.556
78.38000 -1.835
78.40000 2.284
78.42000 0.872
78.44000 1.928
78.46000 0.771
78.48000 2.829
78.50000 1.499
78.52000 -1.362
78.54000 2.496
78.56000 5.725
78.58000 2.628
78.60000 2.548
78.62000 1.898
78.64000 0.509
78.66000 2.118
78.68000 1.902
78.70000 2.614
78.72000 5.228
78.74000 4.236
78.76000 2.628
78.78000 1.750
78.80000 2.116
78.82000 3.429
78.84000 2.979
78.86000 2.241
78.88000 2.308
78.90000 2.154
78.92000 3.379
78.94000 4.838
78.96000 2.606
78.98000 0.025
79.00000 1.545
79.02000 0.185
79.04000 1.353
79.06000 0.848
79.08000 -0.237
79.10000 -1.851
79.12000 -0.310
79.14000 1.662
79.16000 -0.901
79.18000 1.164
79.20000 0.895
79.22000 1.192
79.24000 -0.177
79.26000 0.795
79.28000 3.155
79.30000 2.596
79.32000 1.859
79.34000 2.161
79.36000 1.899
79.38000 3.664
79.40000 0.195
79.42000 -1.875
79.44000 0.113
79.46000 1.198
79.48000 2.954
79.50000 2.215
79.52000 2.237
79.54000 -0.307
79.56000 0.692
79.58000 -0.098
79.60000 -1.049
79.62000 0.834
79.64000 1.129
79.66000 -0.398
79.68000 1.162
79.70000 0.757
79.72000 0.446
79.74000 0.041
79.76000 -1.105
79.78000 0.775
79.80000 1.308
79.82000 1.295
79.84000 -1.243
79.86000 -0.587
79.88000 0.154
79.90000 -1.436
79.92000 -1.864
79.94000 -0.153
79.96000 -0.354
79.98000 0.648
80.00000 1.170
80.02000 2.030
80.04000 1.397
80.06000 1.547
80.08000 2.150
80.10000 0.428
80.12000 2.372
80.14000 0.474
80.16000 -0.968
80.18000 -0.125
80.20000 3.580
80.22000 1.707
80.24000 -1.920
80.26000 -1.307
80.28000 -1.068
80.30000 -0.532
80.32000 0.863
80.34000 -0.445
80.36000 1.424
80.38000 0.340
80.40000 1.511
80.42000 0.801
80.44000 1.312
80.46000 0.266
80.48000 -1.235
80.50000 1.747
80.52000 2.719
80.54000 0.669
80.56000 -1.929
80.58000 1.428
80.60000 1.938
80.62000 2.122
80.64000 -1.273
80.66000 2.395
80.68000 2.463
80.70000 3.572
80.72000 1.807
80.74000 1.764
80.76000 1.494
80.78000 2.322
80.80000 0.939
80.82000 1.427
80.84000 1.986
80.86000 1.456
80.88000 2.155
80.90000 0.696
80.92000 1.330
80.94000 0.906
80.96000 1.890
80.98000 -0.034
81.00000 0.281
81.02000 2.065
81.04000 4.546
81.06000 3.373
81.08000 4.536
81.10000 1.346
81.12000 2.485
81.14000 2.497
81.16000 1.314
81.18000 -1.922
81.20000 -1.275
81.22000 -0.089
81.24000 1.125
81.26000 3.638
81.28000 -0.419
81.30000 -0.304
81.32000 2.632
81.34000 -0.500
81.36000 0.261
81.38000 1.553
81.40000 -0.466
81.42000 -0.119
81.44000 -0.493
81.46000 -0.118
81.48000 1.082
81.50000 2.799
81.52000 1.622
81.54000 2.400
81.56000 -0.384
81.58000 -0.388
81.60000 3.196
81.62000 3.555
81.64000 0.561
81.66000 2.825
81.68000 1.334
81.70000 1.703
81.72000 -0.166
81.74000 -0.568
81.76000 0.225
81.78000 0.381
81.80000 3.114
81.82000 4.106
81.84000 2.679
81.86000 3.758
81.88000 4.327
81.90000 1.605
81.92000 2.529
81.94000 1.792
81.96000 4.023
81.98000 1.551
82.00000 1.164
82.02000 1.027
82.04000 4.064
82.06000 5.589
82.08000 2.016
82.10000 4.159
82.12000 5.788
82.14000 6.618
82.16000 7.459
82.18000 5.432
82.20000 3.919
82.22000 7.437
82.24000 9.562
82.26000 7.737
82.28000 5.768
82.30000 8.823
82.32000 10.422
82.34000 11.457
82.36000 12.949
82.38000 13.403
82.40000 14.033
82.42000 12.249
82.44000 14.648
82.46000 13.471
82.48000 11.151
82.50000 13.535
82.52000 16.322
82.54000 19.785
82.56000 18.775
82.58000 19.828
82.60000 23.765
82.62000 23.215
82.64000 23.597
82.66000 25.449
82.68000 26.470
82.70000 25.907
82.72000 28.448
82.74000 32.140
82.76000 32.571
82.78000 33.012
82.80000 33.795
82.82000 35.571
82.84000 39.434
82.86000 38.486
82.88000 39.265
82.90000 37.164
82.92000 38.257
82.94000 43.154
82.96000 45.778
82.98000 49.466
83.00000 45.919
83.02000 48.480
83.04000 49.681
83.06000 46.007
83.08000 44.844
83.10000 47.959
83.12000 49.826
83.14000 46.880
83.16000 52.313
83.18000 51.929
83.20000 50.284
83.22000 50.184
83.24000 48.517
83.26000 46.390
83.28000 45.619
83.30000 48.376
83.32000 46.737
83.34000 44.574
83.36000 45.336
83.38000 43.217
83.40000 38.745
83.42000 38.890
83.44000 40.985
83.46000 36.112
83.48000 34.266
83.50000 32.066
83.52000 33.560
83.54000 35.013
83.56000 38.631
83.58000 34.401
83.60000 32.008
83.62000 26.778
83.64000 26.446
83.66000 30.896
83.68000 28.897
83.70000 26.562
83.72000 23.706
83.74000 20.691
83.76000 21.638
83.78000 21.664
83.80000 21.864
83.82000 19.510
83.84000 19.366
83.86000 20.286
83.88000 16.204
83.90000 15.447
83.92000 18.686
83.94000 16.642
83.96000 11.516
83.98000 15.557
84.00000 17.079
84.02000 12.612
84.04000 11.396
84.06000 8.300
84.08000 7.568
84.10000 9.249
84.12000 9.142
84.14000 7.038
84.16000 7.837
84.18000 6.746
84.20000 4.276
84.22000 6.188
84.24000 4.079
84.26000 4.874
84.28000 4.294
84.30000 6.759
84.32000 6.432
84.34000 3.438
84.36000 2.619
84.38000 2.190
84.40000 4.740
84.42000 3.753
84.44000 2.987
84.46000 2.564
84.48000 1.580
84.50000 2.511
84.52000 4.884
84.54000 6.363
84.56000 3.927
84.58000 3.253
84.60000 1.124
84.62000 2.303
84.64000 1.104
84.66000 0.690
84.68000 -0.478
84.70000 0.935
84.72000 1.934
84.74000 0.604
84.76000 2.651
84.78000 2.713
84.80000 0.333
84.82000 -1.613
84.84000 -2.000
84.86000 0.196
84.88000 1.755
84.90000 1.980
84.92000 3.243
84.94000 1.990
84.96000 0.188
84.98000 -0.093
85.00000 0.356
85.02000 1.849
85.04000 0.115
85.06000 -0.885
85.08000 0.529
85.10000 -1.068
85.12000 -1.501
85.14000 1.119
85.16000 3.621
85.18000 3.746
85.20000 0.428
85.22000 -0.128
85.24000 -1.267
85.26000 -1.943
85.28000 -0.955
85.30000 -0.834
85.32000 1.170
85.34000 0.927
85.36000 0.123
85.38000 0.955
85.40000 2.663
85.42000 1.578
85.44000 0.273
85.46000 -1.292
85.48000 0.072
85.50000 0.365
85.52000 1.286
85.54000 1.799
85.56000 -1.924
85.58000 -0.876
85.60000 0.622
85.62000 1.284
85.64000 0.098
85.66000 2.246
85.68000 1.691
85.70000 1.292
85.72000 1.789
85.74000 4.476
85.76000 3.581
85.78000 2.039
85.80000 1.187
85.82000 0.862
85.84000 -1.929
85.86000 -1.476
85.88000 0.195
85.90000 0.563
85.92000 -0.960
85.94000 2.866
85.96000 5.299
85.98000 2.492
86.00000 1.097
86.02000 1.005
86.04000 3.961
86.06000 0.646
86.08000 -1.232
86.10000 1.059
86.12000 1.847
86.14000 -1.058
86.16000 0.667
86.18000 -0.414
86.20000 1.100
86.22000 -0.819
86.24000 2.004
86.26000 1.029
86.28000 -1.556
86.30000 2.782
86.32000 0.684
86.34000 0.631
86.36000 2.123
86.38000 0.604
86.40000 -0.202
86.42000 1.632
86.44000 0.704
86.46000 -0.218
86.48000 1.272
86.50000 -0.209
86.52000 1.789
86.54000 2.234
86.56000 2.335
86.58000 2.225
86.60000 1.073
86.62000 2.372
86.64000 1.918
86.66000 0.924
86.68000 0.270
86.70000 3.113
86.72000 2.878
86.74000 2.610
86.76000 2.441
86.78000 5.375
86.80000 6.790
86.82000 3.046
86.84000 4.037
86.86000 1.467
86.88000 5.483
86.90000 11.150
86.92000 8.465
86.94000 5.983
86.96000 5.350
86.98000 8.551
87.00000 10.679
87.02000 9.686
87.04000 13.095
87.06000 13.625
87.08000 13.402
87.10000 15.628
87.12000 16.932
87.14000 17.413
87.16000 15.181
87.18000 14.945
87.20000 13.932
87.22000 16.075
87.24000 17.722
87.26000 19.869
87.28000 19.993
87.30000 19.243
87.32000 24.684
87.34000 24.272
87.36000 23.493
87.38000 26.057
87.40000 26.928
87.42000 21.753
87.44000 23.481
87.46000 26.833
87.48000 27.392
87.50000 27.546
87.52000 30.616
87.54000 28.903
87.56000 24.769
87.58000 23.899
87.60000 23.300
87.62000 25.974
87.64000 28.393
87.66000 28.488
87.68000 30.745
87.70000 26.077
87.72000 23.800
87.74000 25.549
87.76000 23.200
87.78000 25.003
87.80000 26.650
87.82000 23.851
87.84000 23.716
87.86000 24.290
87.88000 25.591
87.90000 27.699
87.92000 24.953
87.94000 23.872
87.96000 22.468
87.98000 21.915
88.00000 20.826
88.02000 17.789
88.04000 16.277
88.06000 14.147
88.08000 13.673
88.10000 14.461
88.12000 16.755
88.14000 13.772
88.16000 16.035
88.18000 17.970
88.20000 17.676
88.22000 13.277
88.24000 11.376
88.26000 9.169
88.28000 7.241
88.30000 8.366
88.32000 10.044
88.34000 9.906
88.36000 7.896
88.38000 5.151
88.40000 4.807
88.42000 4.275
88.44000 3.989
88.46000 5.033
88.48000 5.551
88.50000 4.774
88.52000 5.242
88.54000 3.847
88.56000 4.657
88.58000 2.823
88.60000 1.958
88.62000 4.610
88.64000 0.538
88.66000 0.623
88.68000 1.064
88.70000 2.906
88.72000 1.846
88.74000 1.915
88.76000 1.472
88.78000 1.742
88.80000 3.296
88.82000 1.650
88.84000 2.971
88.86000 0.616
88.88000 0.510
88.90000 2.123
88.92000 0.303
88.94000 0.248
88.96000 0.438
88.98000 0.301
89.00000 1.973
89.02000 2.077
89.04000 -1.898
89.06000 1.663
89.08000 1.565
89.10000 -0.519
89.12000 2.249
89.14000 2.374
89.16000 -0.036
89.18000 2.799
89.20000 1.465
89.22000 2.447
89.24000 0.577
89.26000 -0.540
89.28000 -0.141
89.30000 1.211
89.32000 1.614
89.34000 2.328
89.36000 2.009
89.38000 -1.645
89.40000 -1.842
89.42000 0.020
89.44000 -1.779
89.46000 -1.258
89.48000 1.129
89.50000 -0.005
89.52000 1.355
89.54000 1.474
89.56000 0.638
89.58000 -0.158
89.60000 -1.458
89.62000 -0.147
89.64000 -1.296
89.66000 0.856
89.68000 2.690
89.70000 0.084
89.72000 -0.235
89.74000 -1.805
89.76000 -0.172
89.78000 -0.462
89.80000 0.432
89.82000 2.189
89.84000 2.088
89.86000 5.416
89.88000 5.910
89.90000 1.423
89.92000 2.719
89.94000 2.327
89.96000 0.505
89.98000 0.932
90.00000 1.300
90.02000 1.039
90.04000 1.345
90.06000 -0.548
90.08000 -0.601
90.10000 0.832
90.12000 -1.355
90.14000 -1.754
90.16000 1.736
90.18000 2.417
90.20000 0.794
90.22000 0.025
90.24000 1.945
90.26000 3.621
90.28000 0.976
90.30000 -1.746
90.32000 -0.941
90.34000 1.966
90.36000 1.729
90.38000 1.983
90.40000 3.588
90.42000 4.032
90.44000 2.560
90.46000 5.151
90.48000 6.476
90.50000 3.190
90.52000 0.936
90.54000 0.954
90.56000 -0.317
90.58000 -1.745
90.60000 2.377
90.62000 2.016
90.64000 1.604
90.66000 0.229
90.68000 2.780
90.70000 1.826
90.72000 1.584
90.74000 0.995
90.76000 2.714
90.78000 1.333
90.80000 0.265
90.82000 0.125
90.84000 -0.522
90.86000 -0.864
90.88000 0.252
90.90000 1.502
90.92000 0.101
90.94000 1.136
90.96000 -0.056
90.98000 -0.282
91.00000 4.113
91.02000 1.907
91.04000 -1.725
91.06000 2.361
91.08000 3.245
91.10000 3.194
91.12000 0.298
91.14000 0.220
91.16000 0.927
91.18000 2.221
91.20000 4.735
91.22000 5.244
91.24000 4.079
91.26000 6.644
91.28000 5.625
91.30000 3.076
91.32000 0.718
91.34000 -0.287
91.36000 1.553
91.38000 3.043
91.40000 0.992
91.42000 1.635
91.44000 3.109
91.46000 2.784
91.48000 3.660
91.50000 5.683
91.52000 3.082
91.54000 4.001
91.56000 1.975
91.58000 0.234
91.60000 0.637
91.62000 1.621
91.64000 1.091
91.66000 1.914
91.68000 3.060
91.70000 3.091
91.72000 1.714
91.74000 -0.449
91.76000 1.039
91.78000 2.299
91.80000 1.760
91.82000 2.621
91.84000 -1.706
91.86000 0.030
91.88000 1.714
91.90000 2.753
91.92000 6.919
91.94000 2.685
91.96000 2.426
91.98000 1.631
92.00000 3.343
92.02000 4.316
92.04000 5.675
92.06000 5.612
92.08000 3.153
92.10000 2.224
92.12000 2.913
92.14000 3.261
92.16000 4.051
92.18000 2.826
92.20000 2.959
92.22000 2.533
92.24000 1.138
92.26000 0.517
92.28000 1.651
92.30000 2.774
92.32000 -0.240
92.34000 1.119
92.36000 2.906
92.38000 3.720
92.40000 0.433
92.42000 1.153
92.44000 2.671
92.46000 4.309
92.48000 3.165
92.50000 2.564
92.52000 0.857
92.54000 -0.479
92.56000 1.468
92.58000 2.296
92.60000 3.362
92.62000 0.290
92.64000 0.021
92.66000 0.844
92.68000 3.305
92.70000 2.441
92.72000 3.311
92.74000 3.597
92.76000 5.038
92.78000 3.631
92.80000 3.232
92.82000 3.559
92.84000 2.558
92.86000 2.279
92.88000 1.652
92.90000 1.851
92.92000 3.318
92.94000 2.815
92.96000 1.441
92.98000 -1.736
93.00000 -0.942
93.02000 3.809
93.04000 3.102
93.06000 3.513
93.08000 2.337
93.10000 1.391
93.12000 0.690
93.14000 0.162
93.16000 1.899
93.18000 0.659
93.20000 3.665
93.22000 4.235
93.24000 0.967
93.26000 0.175
93.28000 -0.266
93.30000 -0.498
93.32000 -1.736
93.34000 1.001
93.36000 -0.096
93.38000 -0.235
93.40000 0.078
93.42000 4.469
93.44000 -0.287
93.46000 -1.425
93.48000 0.052
93.50000 0.380
93.52000 2.117
93.54000 1.996
93.56000 3.501
93.58000 0.856
93.60000 -0.170
93.62000 1.221
93.64000 5.559
93.66000 4.504
93.68000 2.081
93.70000 2.483
93.72000 2.313
93.74000 -1.364
93.76000 0.763
93.78000 2.981
93.80000 1.949
93.82000 3.568
93.84000 4.695
93.86000 1.295
93.88000 1.709
93.90000 1.749
93.92000 2.541
93.94000 -0.557
93.96000 -0.921
93.98000 0.557
94.00000 1.637
94.02000 2.390
94.04000 3.629
94.06000 2.143
94.08000 0.135
94.10000 0.798
94.12000 1.522
94.14000 1.840
94.16000 1.739
94.18000 1.068
94.20000 2.927
94.22000 3.854
94.24000 2.360
94.26000 2.925
94.28000 1.266
94.30000 3.358
94.32000 4.521
94.34000 5.256
94.36000 6.192
94.38000 3.478
94.40000 4.388
94.42000 3.220
94.44000 4.362
94.46000 3.973
94.48000 2.186
94.50000 4.557
94.52000 7.304
94.54000 6.811
94.56000 7.344
94.58000 7.228
94.60000 4.318
94.62000 5.408
94.64000 5.348
94.66000 2.314
94.68000 -1.663
94.70000 3.776
94.72000 4.741
94.74000 4.486
94.76000 3.805
94.78000 5.112
94.80000 7.794
94.82000 8.858
94.84000 10.200
94.86000 6.832
94.88000 4.599
94.90000 2.997
94.92000 4.259
94.94000 5.920
94.96000 6.287
94.98000 7.283
95.00000 7.424
95.02000 4.379
95.04000 5.346
95.06000 5.551
95.08000 3.363
95.10000 1.901
95.12000 1.278
95.14000 9.095
95.16000 6.912
95.18000 6.152
95.20000 2.404
95.22000 2.214
95.24000 3.127
95.26000 5.437
95.28000 6.164
95.30000 4.687
95.32000 3.973
95.34000 4.952
95.36000 10.149
95.38000 4.538
95.40000 1.104
95.42000 3.400
95.44000 5.692
95.46000 7.251
95.48000 5.405
95.50000 4.674
95.52000 2.878
95.54000 6.544
95.56000 6.532
95.58000 2.549
95.60000 2.917
95.62000 2.404
95.64000 -1.700
95.66000 0.865
95.68000 5.667
95.70000 6.358
95.72000 5.198
95.74000 1.419
95.76000 1.546
95.78000 1.152
95.80000 0.553
95.82000 1.556
95.84000 3.228
95.86000 4.315
95.88000 3.214
95.90000 2.800
95.92000 5.505
95.94000 4.006
95.96000 2.679
95.98000 2.074
96.00000 0.477
96.02000 0.844
96.04000 3.088
96.06000 4.084
96.08000 3.966
96.10000 2.431
96.12000 -1.588
96.14000 1.551
96.16000 0.923
96.18000 -0.346
96.20000 1.619
96.22000 0.422
96.24000 1.005
96.26000 1.252
96.28000 0.856
96.30000 3.745
96.32000 5.181
96.34000 3.658
96.36000 5.493
96.38000 8.786
96.40000 6.610
96.42000 3.442
96.44000 1.817
96.46000 2.505
96.48000 3.000
96.50000 5.212
96.52000 2.354
96.54000 3.365
96.56000 3.915
96.58000 5.710
96.60000 1.620
96.62000 3.452
96.64000 5.205
96.66000 3.345
96.68000 4.812
96.70000 3.707
96.72000 1.085
96.74000 1.100
96.76000 2.836
96.78000 4.475
96.80000 3.585
96.82000 3.440
96.84000 2.540
96.86000 2.464
96.88000 5.510
96.90000 2.560
96.92000 7.436
96.94000 4.682
96.96000 5.132
96.98000 2.823
97.00000 3.082
97.02000 3.841
97.04000 4.878
97.06000 5.231
97.08000 3.759
97.10000 3.312
97.12000 4.203
97.14000 6.810
97.16000 4.217
97.18000 0.683
97.20000 1.641
97.22000 1.679
97.24000 5.918
97.26000 6.705
97.28000 2.315
97.30000 0.784
97.32000 -1.667
97.34000 1.618
97.36000 4.231
97.38000 2.134
97.40000 3.838
97.42000 4.755
97.44000 2.756
97.46000 3.797
97.48000 6.363
97.50000 4.606
97.52000 5.982
97.54000 5.896
97.56000 5.196
97.58000 4.902
97.60000 4.224
97.62000 7.260
97.64000 5.176
97.66000 5.783
97.68000 4.178
97.70000 5.802
97.72000 4.099
97.74000 3.679
97.76000 3.078
97.78000 2.251
97.80000 1.892
97.82000 5.179
97.84000 7.809
97.86000 3.125
97.88000 2.739
97.90000 3.660
97.92000 3.555
97.94000 4.656
97.96000 4.579
97.98000 1.487
98.00000 5.103
98.02000 3.380
98.04000 6.441
98.06000 9.422
98.08000 4.936
98.10000 3.522
98.12000 2.765
98.14000 3.965
98.16000 5.318
98.18000 2.757
98.20000 -0.367
98.22000 -0.766
98.24000 1.297
98.26000 3.957
98.28000 0.801
98.30000 -0.327
98.32000 -0.380
98.34000 1.357
98.36000 1.159
98.38000 -0.177
98.40000 2.611
98.42000 0.214
98.44000 -0.343
98.46000 1.849
98.48000 -0.146
98.50000 8.128
98.52000 6.821
98.54000 -3.241
98.56000 2.211
98.58000 3.025
98.60000 -1.472
98.62000 -0.789
98.64000 -0.949
98.66000 -0.724
98.68000 0.318
98.70000 7.524
98.72000 4.504
98.74000 5.088
98.76000 4.207
98.78000 -0.037
98.80000 8.837
98.82000 10.135
98.84000 8.193
98.86000 4.188
98.88000 3.797
98.90000 2.564
98.92000 9.258
98.94000 6.445
98.96000 3.057
98.98000 2.634
99.00000 4.725
99.02000 4.083
99.04000 1.999
99.06000 6.036
99.08000 7.193
99.10000 3.576
99.12000 0.120
99.14000 8.697
99.16000 8.259
99.18000 3.438
99.20000 3.783
99.22000 3.176
99.24000 1.348
99.26000 2.997
99.28000 7.706
99.30000 6.658
99.32000 2.983
99.34000 5.073
99.36000 2.258
99.38000 -0.733
99.40000 4.094
99.42000 2.403
99.44000 5.949
99.46000 10.959
99.48000 10.845
99.50000 6.938
99.52000 5.007
99.54000 4.443
99.56000 1.444
99.58000 2.072
99.60000 -0.125
99.62000 -1.619
99.64000 7.973
99.66000 6.461
99.68000 6.772
99.70000 3.851
99.72000 5.049
99.74000 11.524
99.76000 11.105
99.78000 7.477
99.80000 1.861
99.82000 4.643
99.84000 -0.785
99.86000 -1.264
99.88000 -0.784
99.90000 -1.816
99.92000 -0.421
99.94000 -1.885
99.96000 -0.190
99.98000 0.000
