'Id: "0011388" Comment: "Integrate frame 0011388_Au-Ir-Rh_Rh-rich_XRD-Mapping-199-0000.gfrmwith cursor Wedge Cursor #5" Operator: "B?rgel" Anode: "Cu" Wavelength: "1.5406" Scantype: "2Theta (TwoTheta)" TimePerStep: "1" X: "-45" Y: "9" Z: "5.95" 
10.00000 0.000
10.02000 0.590
10.04000 11.678
10.06000 27.162
10.08000 18.903
10.10000 28.157
10.12000 26.652
10.14000 26.315
10.16000 27.540
10.18000 1.871
10.20000 -1.415
10.22000 6.705
10.24000 21.480
10.26000 22.314
10.28000 3.535
10.30000 5.326
10.32000 2.403
10.34000 4.275
10.36000 12.214
10.38000 17.008
10.40000 -4.588
10.42000 -1.316
10.44000 33.733
10.46000 41.022
10.48000 14.589
10.50000 7.478
10.52000 12.122
10.54000 7.971
10.56000 -0.655
10.58000 8.411
10.60000 8.440
10.62000 8.723
10.64000 16.318
10.66000 14.383
10.68000 8.050
10.70000 -8.031
10.72000 14.447
10.74000 13.520
10.76000 9.208
10.78000 17.544
10.80000 27.026
10.82000 2.743
10.84000 0.980
10.86000 0.020
10.88000 7.534
10.90000 13.770
10.92000 8.564
10.94000 21.824
10.96000 19.460
10.98000 11.595
11.00000 18.270
11.02000 12.334
11.04000 6.933
11.06000 9.425
11.08000 13.458
11.10000 8.714
11.12000 4.519
11.14000 10.013
11.16000 8.510
11.18000 11.065
11.20000 12.015
11.22000 7.464
11.24000 7.482
11.26000 21.128
11.28000 30.598
11.30000 12.209
11.32000 5.597
11.34000 11.609
11.36000 8.101
11.38000 12.826
11.40000 29.014
11.42000 21.004
11.44000 11.051
11.46000 6.027
11.48000 13.621
11.50000 11.367
11.52000 6.345
11.54000 13.207
11.56000 10.594
11.58000 10.191
11.60000 12.269
11.62000 24.549
11.64000 29.922
11.66000 18.320
11.68000 8.342
11.70000 -4.503
11.72000 6.691
11.74000 8.937
11.76000 2.965
11.78000 16.860
11.80000 20.288
11.82000 13.154
11.84000 15.471
11.86000 19.664
11.88000 15.297
11.90000 7.811
11.92000 2.231
11.94000 6.964
11.96000 20.541
11.98000 25.253
12.00000 22.886
12.02000 12.309
12.04000 5.377
12.06000 19.875
12.08000 12.678
12.10000 -0.042
12.12000 7.826
12.14000 10.154
12.16000 12.939
12.18000 5.444
12.20000 1.769
12.22000 3.828
12.24000 15.836
12.26000 13.489
12.28000 12.424
12.30000 10.595
12.32000 15.487
12.34000 17.514
12.36000 14.831
12.38000 8.695
12.40000 4.111
12.42000 14.481
12.44000 21.799
12.46000 8.523
12.48000 5.773
12.50000 7.275
12.52000 -4.367
12.54000 2.636
12.56000 14.430
12.58000 12.107
12.60000 10.262
12.62000 14.271
12.64000 10.501
12.66000 3.025
12.68000 1.035
12.70000 1.399
12.72000 4.246
12.74000 10.876
12.76000 8.737
12.78000 -0.079
12.80000 8.022
12.82000 17.401
12.84000 2.248
12.86000 11.040
12.88000 13.329
12.90000 8.719
12.92000 2.273
12.94000 -4.039
12.96000 4.914
12.98000 8.289
13.00000 9.173
13.02000 6.313
13.04000 11.093
13.06000 15.836
13.08000 12.638
13.10000 16.564
13.12000 14.109
13.14000 13.657
13.16000 11.077
13.18000 10.803
13.20000 16.451
13.22000 21.484
13.24000 11.307
13.26000 2.749
13.28000 7.344
13.30000 11.665
13.32000 6.965
13.34000 8.647
13.36000 6.114
13.38000 5.791
13.40000 5.952
13.42000 6.242
13.44000 12.565
13.46000 11.377
13.48000 10.541
13.50000 10.416
13.52000 3.255
13.54000 7.149
13.56000 13.749
13.58000 14.318
13.60000 9.537
13.62000 9.298
13.64000 12.282
13.66000 9.209
13.68000 10.907
13.70000 4.520
13.72000 2.316
13.74000 6.880
13.76000 9.710
13.78000 6.536
13.80000 17.345
13.82000 6.802
13.84000 2.765
13.86000 12.108
13.88000 11.432
13.90000 11.038
13.92000 11.605
13.94000 8.967
13.96000 12.869
13.98000 9.956
14.00000 -4.501
14.02000 3.448
14.04000 7.579
14.06000 11.737
14.08000 12.938
14.10000 15.568
14.12000 9.630
14.14000 13.734
14.16000 13.425
14.18000 17.547
14.20000 16.578
14.22000 6.193
14.24000 16.361
14.26000 14.367
14.28000 17.384
14.30000 12.048
14.32000 4.913
14.34000 9.113
14.36000 9.343
14.38000 6.170
14.40000 11.998
14.42000 1.880
14.44000 -2.698
14.46000 7.575
14.48000 6.838
14.50000 5.627
14.52000 3.787
14.54000 -4.484
14.56000 3.186
14.58000 10.487
14.60000 4.206
14.62000 1.385
14.64000 13.129
14.66000 12.272
14.68000 8.337
14.70000 9.613
14.72000 10.568
14.74000 3.057
14.76000 4.602
14.78000 7.369
14.80000 7.521
14.82000 15.549
14.84000 7.751
14.86000 8.402
14.88000 8.520
14.90000 2.402
14.92000 3.016
14.94000 1.030
14.96000 4.259
14.98000 1.728
15.00000 8.925
15.02000 11.640
15.04000 13.837
15.06000 4.163
15.08000 3.193
15.10000 2.476
15.12000 2.744
15.14000 10.997
15.16000 14.990
15.18000 6.383
15.20000 4.767
15.22000 5.515
15.24000 0.827
15.26000 9.202
15.28000 10.575
15.30000 10.103
15.32000 5.734
15.34000 8.166
15.36000 7.583
15.38000 4.940
15.40000 -1.346
15.42000 -2.833
15.44000 10.012
15.46000 8.096
15.48000 6.806
15.50000 0.259
15.52000 5.350
15.54000 8.018
15.56000 9.707
15.58000 1.332
15.60000 11.775
15.62000 10.844
15.64000 8.830
15.66000 4.716
15.68000 7.176
15.70000 9.153
15.72000 16.142
15.74000 13.820
15.76000 6.344
15.78000 3.707
15.80000 12.263
15.82000 18.956
15.84000 9.152
15.86000 7.495
15.88000 7.895
15.90000 1.296
15.92000 0.246
15.94000 5.608
15.96000 5.008
15.98000 4.354
16.00000 5.190
16.02000 7.700
16.04000 3.645
16.06000 -4.438
16.08000 4.028
16.10000 16.384
16.12000 13.144
16.14000 3.333
16.16000 5.398
16.18000 4.111
16.20000 13.878
16.22000 15.439
16.24000 3.830
16.26000 -0.831
16.28000 6.998
16.30000 -1.396
16.32000 -1.342
16.34000 3.871
16.36000 9.100
16.38000 10.686
16.40000 8.514
16.42000 4.607
16.44000 8.512
16.46000 9.554
16.48000 0.630
16.50000 1.477
16.52000 13.547
16.54000 10.651
16.56000 4.961
16.58000 8.995
16.60000 4.094
16.62000 9.128
16.64000 4.235
16.66000 -0.738
16.68000 0.947
16.70000 5.427
16.72000 7.833
16.74000 7.259
16.76000 7.501
16.78000 8.437
16.80000 6.713
16.82000 2.567
16.84000 -4.028
16.86000 -0.143
16.88000 4.725
16.90000 0.935
16.92000 4.447
16.94000 12.673
16.96000 16.983
16.98000 10.882
17.00000 12.004
17.02000 21.687
17.04000 9.464
17.06000 2.361
17.08000 9.238
17.10000 5.606
17.12000 2.159
17.14000 5.961
17.16000 5.707
17.18000 4.514
17.20000 4.094
17.22000 2.628
17.24000 8.432
17.26000 6.289
17.28000 -0.612
17.30000 -2.560
17.32000 1.761
17.34000 13.848
17.36000 14.726
17.38000 10.418
17.40000 6.518
17.42000 3.280
17.44000 17.412
17.46000 11.453
17.48000 15.451
17.50000 16.321
17.52000 11.554
17.54000 13.329
17.56000 4.075
17.58000 3.648
17.60000 4.669
17.62000 6.518
17.64000 2.777
17.66000 7.122
17.68000 6.416
17.70000 5.794
17.72000 11.806
17.74000 8.681
17.76000 11.760
17.78000 14.352
17.80000 8.176
17.82000 4.218
17.84000 9.368
17.86000 0.000
17.88000 4.353
17.90000 4.730
17.92000 5.292
17.94000 7.267
17.96000 -3.625
17.98000 3.256
18.00000 6.917
18.02000 8.729
18.04000 -0.585
18.06000 -2.645
18.08000 1.973
18.10000 5.624
18.12000 4.633
18.14000 6.985
18.16000 16.002
18.18000 11.976
18.20000 9.898
18.22000 9.473
18.24000 8.118
18.26000 6.047
18.28000 2.397
18.30000 3.791
18.32000 1.147
18.34000 5.159
18.36000 -4.276
18.38000 3.558
18.40000 5.218
18.42000 12.417
18.44000 11.416
18.46000 7.158
18.48000 8.618
18.50000 8.505
18.52000 8.373
18.54000 10.832
18.56000 17.024
18.58000 13.006
18.60000 8.996
18.62000 5.077
18.64000 7.835
18.66000 4.604
18.68000 5.298
18.70000 8.069
18.72000 10.588
18.74000 2.145
18.76000 7.147
18.78000 7.775
18.80000 4.914
18.82000 8.070
18.84000 4.552
18.86000 7.079
18.88000 0.878
18.90000 -0.435
18.92000 5.284
18.94000 4.255
18.96000 3.133
18.98000 2.461
19.00000 -4.079
19.02000 2.940
19.04000 1.305
19.06000 1.493
19.08000 4.224
19.10000 2.233
19.12000 6.147
19.14000 -0.583
19.16000 -2.404
19.18000 4.752
19.20000 5.577
19.22000 1.996
19.24000 2.556
19.26000 5.474
19.28000 8.704
19.30000 0.735
19.32000 -4.269
19.34000 -0.573
19.36000 3.931
19.38000 -2.514
19.40000 1.601
19.42000 -1.513
19.44000 -1.710
19.46000 2.615
19.48000 0.578
19.50000 5.762
19.52000 6.956
19.54000 3.628
19.56000 3.196
19.58000 2.409
19.60000 -0.885
19.62000 4.009
19.64000 3.325
19.66000 1.078
19.68000 8.061
19.70000 10.055
19.72000 -1.120
19.74000 7.389
19.76000 9.980
19.78000 11.208
19.80000 8.120
19.82000 11.583
19.84000 7.942
19.86000 -3.509
19.88000 -1.677
19.90000 6.248
19.92000 0.458
19.94000 6.792
19.96000 13.201
19.98000 9.572
20.00000 7.029
20.02000 -0.476
20.04000 2.216
20.06000 8.928
20.08000 6.197
20.10000 0.707
20.12000 -1.483
20.14000 -1.889
20.16000 -0.390
20.18000 1.736
20.20000 0.023
20.22000 4.824
20.24000 0.061
20.26000 3.442
20.28000 -0.815
20.30000 3.709
20.32000 8.448
20.34000 8.747
20.36000 5.134
20.38000 3.252
20.40000 -0.571
20.42000 1.006
20.44000 -4.213
20.46000 -1.100
20.48000 0.522
20.50000 -0.886
20.52000 1.142
20.54000 -0.103
20.56000 -1.647
20.58000 6.920
20.60000 7.152
20.62000 8.127
20.64000 6.242
20.66000 4.467
20.68000 4.428
20.70000 2.506
20.72000 9.924
20.74000 13.980
20.76000 14.003
20.78000 9.645
20.80000 5.278
20.82000 4.662
20.84000 3.752
20.86000 11.146
20.88000 12.493
20.90000 12.773
20.92000 15.631
20.94000 10.770
20.96000 0.765
20.98000 -1.474
21.00000 1.897
21.02000 2.942
21.04000 5.151
21.06000 5.202
21.08000 1.038
21.10000 2.583
21.12000 6.101
21.14000 9.722
21.16000 6.984
21.18000 6.894
21.20000 2.050
21.22000 4.878
21.24000 6.966
21.26000 6.998
21.28000 -1.561
21.30000 -4.151
21.32000 -3.070
21.34000 -0.409
21.36000 1.077
21.38000 5.109
21.40000 0.360
21.42000 -0.869
21.44000 2.847
21.46000 -0.218
21.48000 2.683
21.50000 9.624
21.52000 11.993
21.54000 7.020
21.56000 -0.952
21.58000 -0.461
21.60000 1.522
21.62000 -3.587
21.64000 3.218
21.66000 4.820
21.68000 3.604
21.70000 4.577
21.72000 5.592
21.74000 2.788
21.76000 6.652
21.78000 1.357
21.80000 -3.552
21.82000 -3.957
21.84000 4.768
21.86000 9.673
21.88000 10.803
21.90000 7.957
21.92000 7.049
21.94000 3.392
21.96000 -2.848
21.98000 4.592
22.00000 5.895
22.02000 4.371
22.04000 4.606
22.06000 2.349
22.08000 4.422
22.10000 4.401
22.12000 5.239
22.14000 10.453
22.16000 5.372
22.18000 3.197
22.20000 6.700
22.22000 5.345
22.24000 2.885
22.26000 1.751
22.28000 3.038
22.30000 5.733
22.32000 4.837
22.34000 -1.383
22.36000 -2.742
22.38000 -2.420
22.40000 0.792
22.42000 2.620
22.44000 1.078
22.46000 1.659
22.48000 0.033
22.50000 -2.873
22.52000 -3.013
22.54000 1.368
22.56000 7.688
22.58000 3.649
22.60000 2.358
22.62000 -1.784
22.64000 -4.087
22.66000 0.974
22.68000 -1.825
22.70000 2.986
22.72000 7.388
22.74000 9.561
22.76000 0.757
22.78000 -1.481
22.80000 -2.702
22.82000 -1.015
22.84000 7.630
22.86000 7.171
22.88000 9.028
22.90000 10.804
22.92000 4.720
22.94000 8.029
22.96000 8.362
22.98000 3.809
23.00000 -0.555
23.02000 -0.261
23.04000 1.983
23.06000 -0.577
23.08000 2.631
23.10000 5.368
23.12000 3.597
23.14000 3.832
23.16000 7.212
23.18000 -1.688
23.20000 1.503
23.22000 7.386
23.24000 5.439
23.26000 5.808
23.28000 3.658
23.30000 2.526
23.32000 6.592
23.34000 4.573
23.36000 1.920
23.38000 -2.548
23.40000 -0.635
23.42000 -0.070
23.44000 -2.085
23.46000 0.283
23.48000 4.591
23.50000 3.698
23.52000 4.991
23.54000 0.779
23.56000 -4.041
23.58000 0.407
23.60000 1.572
23.62000 -2.604
23.64000 -0.381
23.66000 -0.710
23.68000 3.769
23.70000 -0.582
23.72000 0.668
23.74000 4.798
23.76000 6.285
23.78000 7.360
23.80000 6.324
23.82000 7.095
23.84000 6.038
23.86000 1.170
23.88000 2.533
23.90000 2.875
23.92000 4.388
23.94000 -0.500
23.96000 2.357
23.98000 5.575
24.00000 3.841
24.02000 3.081
24.04000 0.804
24.06000 1.155
24.08000 6.009
24.10000 6.370
24.12000 4.042
24.14000 7.395
24.16000 13.712
24.18000 14.734
24.20000 10.055
24.22000 3.682
24.24000 -2.421
24.26000 3.628
24.28000 12.505
24.30000 7.957
24.32000 4.374
24.34000 3.113
24.36000 0.740
24.38000 3.366
24.40000 4.882
24.42000 10.818
24.44000 10.890
24.46000 4.307
24.48000 2.804
24.50000 -0.854
24.52000 -0.203
24.54000 4.940
24.56000 9.018
24.58000 10.805
24.60000 4.511
24.62000 -1.212
24.64000 4.355
24.66000 10.252
24.68000 11.109
24.70000 9.178
24.72000 8.281
24.74000 8.250
24.76000 9.279
24.78000 0.877
24.80000 -3.044
24.82000 -2.724
24.84000 4.768
24.86000 8.276
24.88000 7.022
24.90000 9.061
24.92000 6.942
24.94000 -3.923
24.96000 1.001
24.98000 5.498
25.00000 1.231
25.02000 2.760
25.04000 8.237
25.06000 9.767
25.08000 4.208
25.10000 3.949
25.12000 4.590
25.14000 8.065
25.16000 11.735
25.18000 12.098
25.20000 7.802
25.22000 7.139
25.24000 -1.157
25.26000 0.541
25.28000 -0.286
25.30000 0.174
25.32000 -0.291
25.34000 4.242
25.36000 0.331
25.38000 -0.256
25.40000 0.934
25.42000 6.388
25.44000 9.816
25.46000 6.036
25.48000 7.512
25.50000 9.974
25.52000 8.355
25.54000 9.818
25.56000 8.047
25.58000 9.147
25.60000 6.434
25.62000 4.938
25.64000 5.371
25.66000 8.613
25.68000 4.477
25.70000 -3.892
25.72000 -0.524
25.74000 5.338
25.76000 4.999
25.78000 7.668
25.80000 8.908
25.82000 7.742
25.84000 4.567
25.86000 4.935
25.88000 7.776
25.90000 10.393
25.92000 11.059
25.94000 8.447
25.96000 3.822
25.98000 5.704
26.00000 12.855
26.02000 10.622
26.04000 11.284
26.06000 9.259
26.08000 6.470
26.10000 8.766
26.12000 10.447
26.14000 7.180
26.16000 6.418
26.18000 4.226
26.20000 3.147
26.22000 1.563
26.24000 -3.867
26.26000 -2.335
26.28000 3.690
26.30000 -0.404
26.32000 2.922
26.34000 2.657
26.36000 6.153
26.38000 9.555
26.40000 7.839
26.42000 1.238
26.44000 3.971
26.46000 6.501
26.48000 6.305
26.50000 0.357
26.52000 2.029
26.54000 4.185
26.56000 6.344
26.58000 7.747
26.60000 6.137
26.62000 4.337
26.64000 3.794
26.66000 4.380
26.68000 5.417
26.70000 4.821
26.72000 4.518
26.74000 1.989
26.76000 1.002
26.78000 2.343
26.80000 1.172
26.82000 -0.841
26.84000 0.441
26.86000 3.853
26.88000 3.474
26.90000 8.209
26.92000 4.014
26.94000 2.380
26.96000 5.010
26.98000 5.632
27.00000 0.475
27.02000 3.925
27.04000 6.821
27.06000 0.127
27.08000 -0.737
27.10000 -1.451
27.12000 4.161
27.14000 -0.535
27.16000 -0.703
27.18000 1.205
27.20000 1.982
27.22000 6.923
27.24000 1.469
27.26000 4.423
27.28000 1.401
27.30000 0.231
27.32000 1.097
27.34000 5.067
27.36000 6.574
27.38000 4.707
27.40000 4.282
27.42000 6.054
27.44000 5.267
27.46000 1.326
27.48000 -0.123
27.50000 -3.193
27.52000 -0.170
27.54000 4.794
27.56000 1.980
27.58000 2.224
27.60000 7.141
27.62000 6.578
27.64000 2.147
27.66000 0.256
27.68000 2.306
27.70000 3.229
27.72000 5.091
27.74000 3.360
27.76000 -1.863
27.78000 0.014
27.80000 3.486
27.82000 2.358
27.84000 -0.714
27.86000 4.906
27.88000 0.786
27.90000 0.505
27.92000 3.621
27.94000 6.216
27.96000 2.730
27.98000 2.295
28.00000 0.271
28.02000 3.742
28.04000 5.960
28.06000 -0.882
28.08000 -3.798
28.10000 -1.741
28.12000 0.259
28.14000 1.875
28.16000 1.060
28.18000 5.149
28.20000 7.537
28.22000 6.027
28.24000 2.038
28.26000 4.174
28.28000 2.478
28.30000 0.110
28.32000 -3.787
28.34000 0.557
28.36000 3.935
28.38000 -1.554
28.40000 1.326
28.42000 5.384
28.44000 0.613
28.46000 -1.055
28.48000 -1.762
28.50000 2.252
28.52000 2.254
28.54000 1.942
28.56000 -2.465
28.58000 -1.932
28.60000 -2.618
28.62000 -1.109
28.64000 2.053
28.66000 4.979
28.68000 8.470
28.70000 1.377
28.72000 1.369
28.74000 2.754
28.76000 6.268
28.78000 5.958
28.80000 -1.665
28.82000 2.881
28.84000 1.983
28.86000 -1.059
28.88000 2.704
28.90000 2.610
28.92000 -0.819
28.94000 0.461
28.96000 2.839
28.98000 3.526
29.00000 0.346
29.02000 -2.472
29.04000 -2.154
29.06000 1.325
29.08000 2.608
29.10000 7.205
29.12000 7.236
29.14000 0.976
29.16000 3.916
29.18000 3.653
29.20000 -0.182
29.22000 3.919
29.24000 5.674
29.26000 -2.433
29.28000 -1.212
29.30000 0.549
29.32000 -1.499
29.34000 4.241
29.36000 4.237
29.38000 2.462
29.40000 0.603
29.42000 0.617
29.44000 2.655
29.46000 7.448
29.48000 6.775
29.50000 5.844
29.52000 3.807
29.54000 0.934
29.56000 3.863
29.58000 4.812
29.60000 2.471
29.62000 1.395
29.64000 2.107
29.66000 8.973
29.68000 11.387
29.70000 9.330
29.72000 4.080
29.74000 1.282
29.76000 1.636
29.78000 3.999
29.80000 6.544
29.82000 3.164
29.84000 0.183
29.86000 1.267
29.88000 -3.500
29.90000 -3.684
29.92000 -0.450
29.94000 2.052
29.96000 4.994
29.98000 3.830
30.00000 2.528
30.02000 5.980
30.04000 5.568
30.06000 8.502
30.08000 5.162
30.10000 2.587
30.12000 0.236
30.14000 5.170
30.16000 5.205
30.18000 3.464
30.20000 3.624
30.22000 3.422
30.24000 0.310
30.26000 3.623
30.28000 5.937
30.30000 3.167
30.32000 7.557
30.34000 2.739
30.36000 0.375
30.38000 0.120
30.40000 2.592
30.42000 -2.005
30.44000 1.407
30.46000 5.384
30.48000 5.040
30.50000 0.844
30.52000 1.934
30.54000 4.117
30.56000 3.058
30.58000 1.455
30.60000 7.017
30.62000 10.514
30.64000 4.498
30.66000 0.722
30.68000 -1.299
30.70000 1.989
30.72000 -0.088
30.74000 4.159
30.76000 8.749
30.78000 5.302
30.80000 1.978
30.82000 2.505
30.84000 4.790
30.86000 2.149
30.88000 1.653
30.90000 3.650
30.92000 6.055
30.94000 7.911
30.96000 2.488
30.98000 6.834
31.00000 7.039
31.02000 1.864
31.04000 4.917
31.06000 6.912
31.08000 2.923
31.10000 -2.822
31.12000 -0.403
31.14000 5.966
31.16000 0.742
31.18000 -3.622
31.20000 -2.826
31.22000 4.538
31.24000 5.511
31.26000 7.003
31.28000 3.369
31.30000 -0.271
31.32000 3.579
31.34000 5.334
31.36000 8.189
31.38000 7.028
31.40000 6.593
31.42000 5.862
31.44000 6.600
31.46000 3.620
31.48000 1.565
31.50000 0.420
31.52000 4.649
31.54000 2.753
31.56000 2.455
31.58000 1.946
31.60000 5.818
31.62000 11.095
31.64000 10.076
31.66000 5.529
31.68000 5.536
31.70000 4.149
31.72000 6.604
31.74000 9.964
31.76000 4.600
31.78000 -0.544
31.80000 -1.012
31.82000 1.739
31.84000 2.150
31.86000 4.653
31.88000 6.633
31.90000 6.329
31.92000 3.888
31.94000 -1.657
31.96000 4.126
31.98000 7.981
32.00000 7.124
32.02000 9.168
32.04000 7.943
32.06000 4.713
32.08000 -0.531
32.10000 -3.581
32.12000 -2.764
32.14000 4.733
32.16000 7.261
32.18000 3.431
32.20000 -1.378
32.22000 0.223
32.24000 4.201
32.26000 5.022
32.28000 5.513
32.30000 6.058
32.32000 4.590
32.34000 -2.178
32.36000 -0.732
32.38000 0.957
32.40000 3.357
32.42000 0.743
32.44000 5.335
32.46000 0.494
32.48000 -0.431
32.50000 4.090
32.52000 1.790
32.54000 3.189
32.56000 3.060
32.58000 5.999
32.60000 1.856
32.62000 2.440
32.64000 6.352
32.66000 8.740
32.68000 9.988
32.70000 4.633
32.72000 -0.901
32.74000 -0.232
32.76000 0.432
32.78000 6.421
32.80000 10.024
32.82000 4.761
32.84000 3.610
32.86000 1.182
32.88000 -0.272
32.90000 -0.275
32.92000 0.164
32.94000 1.517
32.96000 2.151
32.98000 -1.099
33.00000 -3.581
33.02000 3.243
33.04000 3.543
33.06000 2.736
33.08000 -1.602
33.10000 -0.795
33.12000 4.804
33.14000 4.077
33.16000 -2.417
33.18000 1.118
33.20000 5.826
33.22000 6.344
33.24000 3.624
33.26000 3.588
33.28000 2.547
33.30000 -2.644
33.32000 2.590
33.34000 4.126
33.36000 1.086
33.38000 3.758
33.40000 4.649
33.42000 0.338
33.44000 4.378
33.46000 1.912
33.48000 0.974
33.50000 2.206
33.52000 -0.800
33.54000 -1.050
33.56000 1.103
33.58000 -3.169
33.60000 -3.580
33.62000 2.979
33.64000 10.127
33.66000 7.500
33.68000 3.509
33.70000 2.678
33.72000 3.900
33.74000 2.270
33.76000 2.790
33.78000 1.404
33.80000 -2.177
33.82000 -0.658
33.84000 3.872
33.86000 4.282
33.88000 2.833
33.90000 3.615
33.92000 -1.771
33.94000 -0.870
33.96000 3.484
33.98000 1.293
34.00000 1.351
34.02000 4.519
34.04000 6.186
34.06000 2.128
34.08000 0.525
34.10000 2.215
34.12000 2.817
34.14000 -2.150
34.16000 -1.839
34.18000 3.066
34.20000 5.114
34.22000 3.691
34.24000 3.855
34.26000 2.897
34.28000 3.850
34.30000 6.434
34.32000 6.862
34.34000 5.144
34.36000 -1.447
34.38000 1.474
34.40000 2.735
34.42000 8.006
34.44000 2.462
34.46000 1.451
34.48000 0.473
34.50000 0.075
34.52000 5.004
34.54000 5.109
34.56000 -0.451
34.58000 -3.553
34.60000 2.026
34.62000 0.897
34.64000 1.095
34.66000 3.732
34.68000 2.461
34.70000 4.727
34.72000 0.429
34.74000 -0.676
34.76000 1.134
34.78000 4.512
34.80000 4.068
34.82000 1.489
34.84000 3.649
34.86000 4.463
34.88000 3.859
34.90000 3.201
34.92000 3.736
34.94000 -1.038
34.96000 -2.871
34.98000 5.841
35.00000 5.323
35.02000 7.058
35.04000 2.464
35.06000 -0.499
35.08000 -0.352
35.10000 -2.779
35.12000 0.062
35.14000 0.628
35.16000 -0.033
35.18000 -2.315
35.20000 2.902
35.22000 2.275
35.24000 4.152
35.26000 2.723
35.28000 3.674
35.30000 -0.209
35.32000 0.551
35.34000 7.801
35.36000 2.931
35.38000 -1.569
35.40000 2.950
35.42000 5.851
35.44000 4.323
35.46000 -2.140
35.48000 -0.007
35.50000 4.995
35.52000 5.165
35.54000 -1.096
35.56000 -3.539
35.58000 -0.874
35.60000 -0.138
35.62000 2.954
35.64000 7.663
35.66000 6.788
35.68000 3.205
35.70000 1.430
35.72000 2.149
35.74000 2.962
35.76000 2.857
35.78000 3.238
35.80000 1.105
35.82000 2.174
35.84000 2.836
35.86000 4.115
35.88000 -0.094
35.90000 -1.781
35.92000 1.851
35.94000 4.557
35.96000 5.531
35.98000 0.446
36.00000 -1.268
36.02000 -0.835
36.04000 -2.637
36.06000 -2.517
36.08000 0.484
36.10000 -0.489
36.12000 6.721
36.14000 2.676
36.16000 -3.555
36.18000 -0.474
36.20000 0.541
36.22000 -1.209
36.24000 1.839
36.26000 1.569
36.28000 2.143
36.30000 -2.620
36.32000 1.236
36.34000 0.586
36.36000 1.395
36.38000 3.387
36.40000 2.793
36.42000 1.804
36.44000 2.527
36.46000 3.936
36.48000 5.593
36.50000 2.426
36.52000 -2.310
36.54000 0.652
36.56000 -0.228
36.58000 -3.569
36.60000 -1.156
36.62000 -2.435
36.64000 3.034
36.66000 8.268
36.68000 7.007
36.70000 -2.262
36.72000 -1.371
36.74000 2.275
36.76000 2.766
36.78000 2.422
36.80000 2.510
36.82000 3.749
36.84000 -0.132
36.86000 4.045
36.88000 4.144
36.90000 3.009
36.92000 3.383
36.94000 5.890
36.96000 2.575
36.98000 4.369
37.00000 3.992
37.02000 1.627
37.04000 0.751
37.06000 1.534
37.08000 -3.590
37.10000 -2.674
37.12000 3.604
37.14000 0.661
37.16000 3.522
37.18000 4.565
37.20000 2.027
37.22000 4.668
37.24000 5.426
37.26000 3.495
37.28000 5.745
37.30000 1.337
37.32000 2.548
37.34000 3.582
37.36000 3.517
37.38000 1.134
37.40000 2.564
37.42000 -0.832
37.44000 4.051
37.46000 4.143
37.48000 1.081
37.50000 2.234
37.52000 3.731
37.54000 5.292
37.56000 8.888
37.58000 6.864
37.60000 8.177
37.62000 9.715
37.64000 9.021
37.66000 6.369
37.68000 6.111
37.70000 6.247
37.72000 9.521
37.74000 2.911
37.76000 5.684
37.78000 10.001
37.80000 13.042
37.82000 10.772
37.84000 7.654
37.86000 7.408
37.88000 8.961
37.90000 9.775
37.92000 8.498
37.94000 9.676
37.96000 11.540
37.98000 10.073
38.00000 11.838
38.02000 13.113
38.04000 15.344
38.06000 18.786
38.08000 15.673
38.10000 13.617
38.12000 12.669
38.14000 13.961
38.16000 20.219
38.18000 18.099
38.20000 15.388
38.22000 14.912
38.24000 14.557
38.26000 16.450
38.28000 19.874
38.30000 24.030
38.32000 23.503
38.34000 25.528
38.36000 29.032
38.38000 28.174
38.40000 25.108
38.42000 28.680
38.44000 31.144
38.46000 29.813
38.48000 27.287
38.50000 31.393
38.52000 31.924
38.54000 31.835
38.56000 32.430
38.58000 36.709
38.60000 38.867
38.62000 39.110
38.64000 39.021
38.66000 44.184
38.68000 44.714
38.70000 42.097
38.72000 43.049
38.74000 50.674
38.76000 55.399
38.78000 53.545
38.80000 51.037
38.82000 53.631
38.84000 59.577
38.86000 60.564
38.88000 63.966
38.90000 66.052
38.92000 63.461
38.94000 69.473
38.96000 73.849
38.98000 73.631
39.00000 75.909
39.02000 78.645
39.04000 81.833
39.06000 77.188
39.08000 84.513
39.10000 97.536
39.12000 100.535
39.14000 98.893
39.16000 107.502
39.18000 109.026
39.20000 117.604
39.22000 117.997
39.24000 126.747
39.26000 140.498
39.28000 139.495
39.30000 150.168
39.32000 158.971
39.34000 159.179
39.36000 166.067
39.38000 170.092
39.40000 179.966
39.42000 192.843
39.44000 196.313
39.46000 203.579
39.48000 220.957
39.50000 235.364
39.52000 250.600
39.54000 257.341
39.56000 266.532
39.58000 282.913
39.60000 298.360
39.62000 304.289
39.64000 318.345
39.66000 337.803
39.68000 364.287
39.70000 378.864
39.72000 396.205
39.74000 410.230
39.76000 424.161
39.78000 445.648
39.80000 466.797
39.82000 489.840
39.84000 514.192
39.86000 527.712
39.88000 539.833
39.90000 558.625
39.92000 575.660
39.94000 585.339
39.96000 600.652
39.98000 619.522
40.00000 631.092
40.02000 641.240
40.04000 652.701
40.06000 665.075
40.08000 671.089
40.10000 678.362
40.12000 679.977
40.14000 697.010
40.16000 694.689
40.18000 672.518
40.20000 668.326
40.22000 665.806
40.24000 659.691
40.26000 649.468
40.28000 636.162
40.30000 633.044
40.32000 610.597
40.34000 583.652
40.36000 577.108
40.38000 564.280
40.40000 550.184
40.42000 530.135
40.44000 501.647
40.46000 496.000
40.48000 476.348
40.50000 448.129
40.52000 423.493
40.54000 414.493
40.56000 392.057
40.58000 372.099
40.60000 355.702
40.62000 332.786
40.64000 315.934
40.66000 304.534
40.68000 282.014
40.70000 263.912
40.72000 253.771
40.74000 243.696
40.76000 225.384
40.78000 221.191
40.80000 207.305
40.82000 194.231
40.84000 183.787
40.86000 169.896
40.88000 160.793
40.90000 153.753
40.92000 142.792
40.94000 134.755
40.96000 122.005
40.98000 116.004
41.00000 109.321
41.02000 104.373
41.04000 101.406
41.06000 94.197
41.08000 82.092
41.10000 81.194
41.12000 78.509
41.14000 74.711
41.16000 69.092
41.18000 68.483
41.20000 63.759
41.22000 58.306
41.24000 54.206
41.26000 54.544
41.28000 49.753
41.30000 44.784
41.32000 46.775
41.34000 45.873
41.36000 45.618
41.38000 36.560
41.40000 32.121
41.42000 32.831
41.44000 32.143
41.46000 30.752
41.48000 34.340
41.50000 32.328
41.52000 28.823
41.54000 24.831
41.56000 23.937
41.58000 21.986
41.60000 21.310
41.62000 18.855
41.64000 17.344
41.66000 16.375
41.68000 15.088
41.70000 9.045
41.72000 13.686
41.74000 16.128
41.76000 13.261
41.78000 10.867
41.80000 9.036
41.82000 9.274
41.84000 8.266
41.86000 10.469
41.88000 8.629
41.90000 6.186
41.92000 7.422
41.94000 5.524
41.96000 5.801
41.98000 4.301
42.00000 4.974
42.02000 5.005
42.04000 6.330
42.06000 2.930
42.08000 0.639
42.10000 1.739
42.12000 0.487
42.14000 3.900
42.16000 3.050
42.18000 2.612
42.20000 0.958
42.22000 3.399
42.24000 6.142
42.26000 3.888
42.28000 4.601
42.30000 6.043
42.32000 5.767
42.34000 4.287
42.36000 0.504
42.38000 2.436
42.40000 -1.114
42.42000 -0.725
42.44000 3.327
42.46000 0.183
42.48000 -1.045
42.50000 0.977
42.52000 -2.182
42.54000 0.947
42.56000 3.748
42.58000 0.746
42.60000 -0.730
42.62000 -1.681
42.64000 2.962
42.66000 1.240
42.68000 1.350
42.70000 1.773
42.72000 -0.068
42.74000 4.140
42.76000 2.435
42.78000 2.134
42.80000 0.250
42.82000 -3.118
42.84000 -0.943
42.86000 -0.261
42.88000 0.445
42.90000 0.935
42.92000 0.535
42.94000 -2.433
42.96000 -3.536
42.98000 0.627
43.00000 -2.648
43.02000 -3.363
43.04000 0.175
43.06000 3.464
43.08000 2.615
43.10000 1.932
43.12000 -3.028
43.14000 -0.757
43.16000 -1.507
43.18000 -0.251
43.20000 1.307
43.22000 -0.813
43.24000 0.257
43.26000 0.218
43.28000 4.886
43.30000 5.839
43.32000 4.062
43.34000 0.030
43.36000 -2.491
43.38000 -2.146
43.40000 -0.773
43.42000 2.468
43.44000 0.974
43.46000 -3.495
43.48000 -1.325
43.50000 2.202
43.52000 2.357
43.54000 4.985
43.56000 5.063
43.58000 0.522
43.60000 -3.020
43.62000 1.028
43.64000 0.643
43.66000 0.235
43.68000 -1.630
43.70000 0.876
43.72000 -3.483
43.74000 -2.841
43.76000 1.220
43.78000 3.398
43.80000 1.667
43.82000 3.083
43.84000 1.803
43.86000 -0.973
43.88000 2.575
43.90000 1.688
43.92000 1.984
43.94000 -3.479
43.96000 -1.891
43.98000 4.452
44.00000 3.549
44.02000 -1.914
44.04000 -3.479
44.06000 -1.834
44.08000 3.171
44.10000 5.169
44.12000 6.495
44.14000 8.730
44.16000 4.814
44.18000 2.943
44.20000 0.003
44.22000 1.691
44.24000 3.780
44.26000 -0.840
44.28000 -1.530
44.30000 0.488
44.32000 1.522
44.34000 2.374
44.36000 -1.264
44.38000 -2.780
44.40000 -0.064
44.42000 -1.092
44.44000 0.309
44.46000 1.264
44.48000 0.110
44.50000 1.798
44.52000 3.424
44.54000 4.430
44.56000 6.078
44.58000 9.270
44.60000 6.475
44.62000 4.332
44.64000 5.757
44.66000 1.344
44.68000 2.148
44.70000 2.170
44.72000 2.590
44.74000 5.215
44.76000 7.221
44.78000 8.011
44.80000 9.403
44.82000 6.658
44.84000 5.491
44.86000 2.079
44.88000 -0.799
44.90000 5.168
44.92000 5.704
44.94000 2.593
44.96000 8.561
44.98000 10.620
45.00000 7.425
45.02000 9.202
45.04000 6.129
45.06000 4.152
45.08000 6.330
45.10000 8.532
45.12000 13.536
45.14000 12.308
45.16000 10.318
45.18000 11.383
45.20000 14.586
45.22000 15.568
45.24000 15.230
45.26000 15.665
45.28000 15.194
45.30000 7.988
45.32000 6.243
45.34000 13.067
45.36000 10.650
45.38000 15.198
45.40000 20.367
45.42000 22.275
45.44000 23.338
45.46000 23.733
45.48000 23.054
45.50000 20.392
45.52000 18.509
45.54000 19.810
45.56000 18.403
45.58000 25.478
45.60000 20.488
45.62000 15.596
45.64000 25.750
45.66000 30.399
45.68000 32.831
45.70000 40.080
45.72000 32.834
45.74000 34.180
45.76000 35.969
45.78000 35.747
45.80000 35.720
45.82000 35.332
45.84000 32.716
45.86000 33.639
45.88000 34.289
45.90000 33.531
45.92000 42.698
45.94000 49.330
45.96000 47.563
45.98000 42.155
46.00000 42.381
46.02000 46.646
46.04000 50.605
46.06000 53.844
46.08000 57.023
46.10000 57.028
46.12000 57.448
46.14000 62.773
46.16000 60.893
46.18000 61.020
46.20000 66.382
46.22000 68.968
46.24000 69.104
46.26000 70.484
46.28000 70.879
46.30000 69.349
46.32000 67.875
46.34000 69.933
46.36000 77.781
46.38000 76.161
46.40000 69.660
46.42000 74.452
46.44000 77.518
46.46000 82.030
46.48000 84.200
46.50000 87.312
46.52000 86.991
46.54000 84.605
46.56000 88.381
46.58000 85.962
46.60000 80.625
46.62000 82.745
46.64000 88.447
46.66000 90.620
46.68000 89.325
46.70000 84.693
46.72000 85.799
46.74000 88.709
46.76000 81.018
46.78000 83.723
46.80000 88.335
46.82000 90.027
46.84000 86.938
46.86000 89.484
46.88000 87.916
46.90000 86.875
46.92000 81.680
46.94000 84.877
46.96000 85.150
46.98000 85.630
47.00000 87.475
47.02000 79.414
47.04000 78.213
47.06000 73.206
47.08000 76.241
47.10000 79.885
47.12000 68.123
47.14000 65.482
47.16000 67.485
47.18000 66.977
47.20000 57.264
47.22000 59.015
47.24000 57.323
47.26000 52.939
47.28000 59.518
47.30000 53.686
47.32000 55.560
47.34000 55.641
47.36000 52.655
47.38000 47.370
47.40000 44.870
47.42000 41.929
47.44000 46.221
47.46000 54.141
47.48000 48.034
47.50000 37.616
47.52000 38.548
47.54000 36.466
47.56000 38.628
47.58000 34.946
47.60000 40.614
47.62000 30.136
47.64000 28.433
47.66000 25.368
47.68000 28.297
47.70000 26.074
47.72000 20.835
47.74000 21.665
47.76000 24.754
47.78000 21.531
47.80000 21.196
47.82000 17.860
47.84000 18.763
47.86000 13.925
47.88000 19.234
47.90000 20.687
47.92000 19.248
47.94000 21.413
47.96000 12.319
47.98000 11.312
48.00000 15.284
48.02000 11.331
48.04000 10.869
48.06000 10.532
48.08000 10.233
48.10000 8.025
48.12000 4.477
48.14000 3.928
48.16000 10.679
48.18000 11.776
48.20000 6.856
48.22000 8.834
48.24000 4.922
48.26000 6.432
48.28000 6.050
48.30000 7.942
48.32000 5.962
48.34000 7.589
48.36000 6.227
48.38000 5.583
48.40000 3.578
48.42000 6.418
48.44000 9.523
48.46000 8.973
48.48000 4.715
48.50000 7.240
48.52000 7.275
48.54000 4.780
48.56000 1.865
48.58000 4.203
48.60000 5.487
48.62000 -2.319
48.64000 -2.100
48.66000 4.329
48.68000 -3.153
48.70000 5.932
48.72000 7.775
48.74000 3.874
48.76000 1.971
48.78000 -0.923
48.80000 4.935
48.82000 4.946
48.84000 0.462
48.86000 -1.767
48.88000 -3.117
48.90000 1.721
48.92000 2.779
48.94000 5.586
48.96000 4.129
48.98000 2.454
49.00000 4.276
49.02000 1.319
49.04000 2.864
49.06000 2.675
49.08000 1.671
49.10000 3.025
49.12000 2.500
49.14000 2.278
49.16000 3.919
49.18000 0.846
49.20000 2.876
49.22000 4.667
49.24000 2.442
49.26000 5.964
49.28000 9.817
49.30000 0.150
49.32000 -2.606
49.34000 -1.342
49.36000 -0.847
49.38000 -3.084
49.40000 -1.509
49.42000 -2.810
49.44000 1.385
49.46000 2.570
49.48000 4.056
49.50000 -1.636
49.52000 -2.018
49.54000 5.261
49.56000 5.893
49.58000 1.231
49.60000 -3.021
49.62000 1.429
49.64000 5.065
49.66000 3.279
49.68000 8.167
49.70000 7.519
49.72000 11.453
49.74000 8.899
49.76000 6.942
49.78000 2.286
49.80000 1.314
49.82000 0.257
49.84000 -0.555
49.86000 -2.475
49.88000 0.434
49.90000 4.300
49.92000 3.078
49.94000 1.562
49.96000 -3.027
49.98000 0.209
50.00000 1.314
50.02000 1.418
50.04000 4.026
50.06000 1.996
50.08000 -2.931
50.10000 -1.726
50.12000 1.143
50.14000 0.363
50.16000 -1.445
50.18000 -1.191
50.20000 -2.294
50.22000 2.050
50.24000 -0.130
50.26000 1.501
50.28000 7.670
50.30000 3.996
50.32000 0.408
50.34000 1.532
50.36000 4.312
50.38000 5.568
50.40000 2.062
50.42000 4.724
50.44000 5.752
50.46000 2.262
50.48000 2.533
50.50000 -1.894
50.52000 -2.395
50.54000 -0.921
50.56000 -2.037
50.58000 1.905
50.60000 0.938
50.62000 1.409
50.64000 4.422
50.66000 3.144
50.68000 0.106
50.70000 0.362
50.72000 -0.345
50.74000 -2.952
50.76000 2.427
50.78000 5.203
50.80000 5.377
50.82000 3.631
50.84000 -1.221
50.86000 -1.145
50.88000 3.005
50.90000 -0.661
50.92000 0.623
50.94000 1.331
50.96000 2.511
50.98000 2.976
51.00000 6.644
51.02000 5.634
51.04000 -0.344
51.06000 3.604
51.08000 7.889
51.10000 -0.241
51.12000 -1.226
51.14000 -1.384
51.16000 -0.047
51.18000 -0.405
51.20000 -0.324
51.22000 0.722
51.24000 1.000
51.26000 3.547
51.28000 1.427
51.30000 -0.507
51.32000 2.251
51.34000 -0.212
51.36000 -0.818
51.38000 -0.285
51.40000 0.949
51.42000 1.396
51.44000 2.211
51.46000 0.796
51.48000 6.361
51.50000 4.225
51.52000 3.762
51.54000 9.367
51.56000 6.275
51.58000 -1.078
51.60000 -2.443
51.62000 6.518
51.64000 3.130
51.66000 1.262
51.68000 4.941
51.70000 3.407
51.72000 2.484
51.74000 0.760
51.76000 0.342
51.78000 5.244
51.80000 5.494
51.82000 8.412
51.84000 2.257
51.86000 2.381
51.88000 5.814
51.90000 4.632
51.92000 0.292
51.94000 -0.922
51.96000 0.605
51.98000 3.922
52.00000 7.723
52.02000 2.556
52.04000 4.351
52.06000 10.242
52.08000 9.082
52.10000 2.618
52.12000 -2.890
52.14000 -0.111
52.16000 4.590
52.18000 6.079
52.20000 3.437
52.22000 -2.027
52.24000 1.083
52.26000 1.791
52.28000 5.007
52.30000 1.916
52.32000 2.430
52.34000 5.705
52.36000 11.931
52.38000 9.000
52.40000 -1.010
52.42000 -1.019
52.44000 2.377
52.46000 -0.103
52.48000 -0.830
52.50000 1.104
52.52000 -1.230
52.54000 0.434
52.56000 6.166
52.58000 5.799
52.60000 4.258
52.62000 3.278
52.64000 -1.338
52.66000 -1.063
52.68000 3.167
52.70000 -0.248
52.72000 3.645
52.74000 3.004
52.76000 0.871
52.78000 1.100
52.80000 -2.856
52.82000 0.078
52.84000 3.557
52.86000 1.795
52.88000 2.072
52.90000 3.632
52.92000 6.735
52.94000 2.100
52.96000 4.596
52.98000 0.973
53.00000 0.167
53.02000 3.058
53.04000 6.158
53.06000 1.284
53.08000 4.194
53.10000 1.570
53.12000 -2.884
53.14000 -2.457
53.16000 1.205
53.18000 -2.773
53.20000 -2.109
53.22000 1.538
53.24000 4.689
53.26000 1.338
53.28000 -1.097
53.30000 -2.708
53.32000 -1.225
53.34000 -0.818
53.36000 -1.097
53.38000 5.609
53.40000 3.386
53.42000 1.293
53.44000 0.956
53.46000 4.021
53.48000 3.237
53.50000 3.512
53.52000 -1.229
53.54000 -1.417
53.56000 -1.973
53.58000 -1.299
53.60000 -2.534
53.62000 -0.600
53.64000 5.080
53.66000 8.377
53.68000 2.915
53.70000 0.750
53.72000 -0.974
53.74000 -2.512
53.76000 3.257
53.78000 8.061
53.80000 6.895
53.82000 -0.226
53.84000 -2.868
53.86000 -0.819
53.88000 7.632
53.90000 7.585
53.92000 0.851
53.94000 0.400
53.96000 2.074
53.98000 1.819
54.00000 2.368
54.02000 -1.524
54.04000 1.017
54.06000 2.804
54.08000 0.611
54.10000 1.031
54.12000 7.344
54.14000 5.425
54.16000 0.674
54.18000 3.185
54.20000 1.901
54.22000 3.619
54.24000 6.435
54.26000 2.896
54.28000 0.616
54.30000 2.464
54.32000 0.340
54.34000 2.241
54.36000 3.036
54.38000 2.284
54.40000 4.769
54.42000 2.078
54.44000 0.068
54.46000 3.795
54.48000 5.401
54.50000 3.862
54.52000 -0.740
54.54000 -0.440
54.56000 1.441
54.58000 0.083
54.60000 -0.877
54.62000 5.095
54.64000 6.234
54.66000 3.117
54.68000 3.413
54.70000 3.115
54.72000 1.562
54.74000 -0.735
54.76000 -0.990
54.78000 0.015
54.80000 1.561
54.82000 0.658
54.84000 -1.133
54.86000 -1.701
54.88000 -0.745
54.90000 -0.344
54.92000 2.729
54.94000 2.851
54.96000 1.566
54.98000 -2.820
55.00000 0.491
55.02000 0.190
55.04000 1.913
55.06000 4.523
55.08000 -0.079
55.10000 -0.929
55.12000 -0.377
55.14000 3.097
55.16000 -1.721
55.18000 0.898
55.20000 4.613
55.22000 6.308
55.24000 4.046
55.26000 0.981
55.28000 5.471
55.30000 5.430
55.32000 6.035
55.34000 10.452
55.36000 8.085
55.38000 4.498
55.40000 2.961
55.42000 1.839
55.44000 6.448
55.46000 3.709
55.48000 3.891
55.50000 -0.667
55.52000 -0.570
55.54000 4.619
55.56000 -1.395
55.58000 -2.761
55.60000 3.661
55.62000 1.444
55.64000 7.428
55.66000 7.119
55.68000 3.986
55.70000 8.133
55.72000 9.754
55.74000 6.322
55.76000 5.130
55.78000 2.898
55.80000 5.331
55.82000 4.226
55.84000 4.012
55.86000 8.871
55.88000 7.272
55.90000 10.815
55.92000 9.625
55.94000 9.280
55.96000 7.996
55.98000 7.880
56.00000 4.755
56.02000 0.270
56.04000 1.936
56.06000 9.992
56.08000 8.313
56.10000 6.116
56.12000 5.656
56.14000 9.028
56.16000 8.604
56.18000 6.417
56.20000 6.466
56.22000 1.545
56.24000 -2.757
56.26000 2.534
56.28000 3.670
56.30000 5.043
56.32000 6.541
56.34000 6.550
56.36000 6.922
56.38000 5.069
56.40000 2.149
56.42000 2.902
56.44000 3.194
56.46000 3.705
56.48000 2.745
56.50000 0.161
56.52000 2.614
56.54000 5.805
56.56000 7.302
56.58000 6.906
56.60000 7.152
56.62000 4.797
56.64000 6.368
56.66000 1.504
56.68000 1.651
56.70000 -1.095
56.72000 3.990
56.74000 7.233
56.76000 4.770
56.78000 6.065
56.80000 5.303
56.82000 3.033
56.84000 4.656
56.86000 9.171
56.88000 8.133
56.90000 7.763
56.92000 5.016
56.94000 0.939
56.96000 0.970
56.98000 1.485
57.00000 3.499
57.02000 4.730
57.04000 11.309
57.06000 5.092
57.08000 6.343
57.10000 7.178
57.12000 2.848
57.14000 3.536
57.16000 6.851
57.18000 5.822
57.20000 2.533
57.22000 6.312
57.24000 8.591
57.26000 8.762
57.28000 10.734
57.30000 4.767
57.32000 -2.694
57.34000 -0.988
57.36000 5.998
57.38000 0.521
57.40000 2.284
57.42000 3.417
57.44000 1.474
57.46000 3.077
57.48000 0.704
57.50000 2.096
57.52000 4.420
57.54000 5.544
57.56000 4.949
57.58000 3.759
57.60000 4.224
57.62000 4.759
57.64000 8.236
57.66000 5.213
57.68000 6.439
57.70000 11.122
57.72000 8.037
57.74000 5.816
57.76000 4.896
57.78000 3.996
57.80000 5.309
57.82000 6.081
57.84000 0.842
57.86000 -0.976
57.88000 1.814
57.90000 1.699
57.92000 3.020
57.94000 6.735
57.96000 9.624
57.98000 7.129
58.00000 4.758
58.02000 3.203
58.04000 -0.250
58.06000 0.913
58.08000 2.826
58.10000 2.208
58.12000 2.945
58.14000 1.708
58.16000 3.526
58.18000 1.648
58.20000 1.397
58.22000 4.413
58.24000 5.695
58.26000 6.089
58.28000 1.812
58.30000 4.719
58.32000 2.685
58.34000 2.774
58.36000 0.352
58.38000 1.114
58.40000 2.274
58.42000 2.965
58.44000 -2.691
58.46000 -0.991
58.48000 -1.879
58.50000 2.225
58.52000 -0.512
58.54000 -2.687
58.56000 2.062
58.58000 5.827
58.60000 5.430
58.62000 3.399
58.64000 3.118
58.66000 6.316
58.68000 2.594
58.70000 5.004
58.72000 6.483
58.74000 5.132
58.76000 5.961
58.78000 3.490
58.80000 0.436
58.82000 6.438
58.84000 1.114
58.86000 -0.674
58.88000 0.271
58.90000 -0.951
58.92000 2.499
58.94000 4.907
58.96000 1.997
58.98000 3.209
59.00000 0.534
59.02000 4.193
59.04000 3.445
59.06000 -1.139
59.08000 3.180
59.10000 2.384
59.12000 -0.980
59.14000 0.529
59.16000 5.160
59.18000 3.593
59.20000 0.109
59.22000 -0.632
59.24000 1.983
59.26000 0.583
59.28000 1.246
59.30000 3.030
59.32000 4.027
59.34000 1.659
59.36000 3.088
59.38000 3.866
59.40000 2.423
59.42000 2.680
59.44000 1.571
59.46000 3.296
59.48000 -1.833
59.50000 -1.215
59.52000 5.270
59.54000 3.725
59.56000 0.302
59.58000 0.345
59.60000 -0.109
59.62000 -0.774
59.64000 1.553
59.66000 2.128
59.68000 1.798
59.70000 -0.007
59.72000 -1.845
59.74000 0.648
59.76000 3.350
59.78000 3.317
59.80000 4.960
59.82000 1.850
59.84000 -0.074
59.86000 3.316
59.88000 -1.338
59.90000 -0.779
59.92000 1.231
59.94000 -0.552
59.96000 -0.392
59.98000 -0.831
60.00000 3.227
60.02000 3.808
60.04000 2.890
60.06000 -1.971
60.08000 -1.896
60.10000 -2.331
60.12000 -0.470
60.14000 6.208
60.16000 10.021
60.18000 3.803
60.20000 0.937
60.22000 -2.424
60.24000 1.530
60.26000 4.336
60.28000 -0.481
60.30000 -0.020
60.32000 -2.656
60.34000 -1.808
60.36000 -1.090
60.38000 1.540
60.40000 4.847
60.42000 0.485
60.44000 3.312
60.46000 2.131
60.48000 3.277
60.50000 0.328
60.52000 4.308
60.54000 7.503
60.56000 3.437
60.58000 4.425
60.60000 3.549
60.62000 3.076
60.64000 2.578
60.66000 5.326
60.68000 2.426
60.70000 2.446
60.72000 -0.724
60.74000 0.809
60.76000 -0.485
60.78000 0.608
60.80000 -0.931
60.82000 2.391
60.84000 6.990
60.86000 7.911
60.88000 4.069
60.90000 4.564
60.92000 5.464
60.94000 5.066
60.96000 2.833
60.98000 3.541
61.00000 2.097
61.02000 -1.402
61.04000 0.934
61.06000 -0.434
61.08000 1.523
61.10000 5.522
61.12000 6.920
61.14000 3.526
61.16000 0.192
61.18000 0.761
61.20000 6.412
61.22000 6.386
61.24000 -2.033
61.26000 0.013
61.28000 -2.607
61.30000 -1.652
61.32000 0.136
61.34000 2.760
61.36000 8.765
61.38000 10.134
61.40000 6.578
61.42000 2.088
61.44000 0.833
61.46000 2.701
61.48000 1.901
61.50000 5.817
61.52000 3.492
61.54000 5.232
61.56000 7.392
61.58000 8.684
61.60000 5.012
61.62000 4.511
61.64000 1.683
61.66000 0.811
61.68000 2.413
61.70000 2.552
61.72000 2.962
61.74000 6.248
61.76000 8.189
61.78000 6.529
61.80000 4.109
61.82000 2.326
61.84000 5.743
61.86000 2.743
61.88000 1.909
61.90000 5.201
61.92000 1.820
61.94000 2.028
61.96000 2.330
61.98000 3.775
62.00000 -0.165
62.02000 -1.481
62.04000 0.365
62.06000 -0.758
62.08000 0.822
62.10000 1.783
62.12000 3.399
62.14000 6.220
62.16000 5.002
62.18000 5.525
62.20000 4.241
62.22000 -0.196
62.24000 -2.210
62.26000 -2.071
62.28000 3.946
62.30000 3.095
62.32000 2.016
62.34000 -0.562
62.36000 4.239
62.38000 1.093
62.40000 3.668
62.42000 4.171
62.44000 0.460
62.46000 4.413
62.48000 4.778
62.50000 4.738
62.52000 3.260
62.54000 0.553
62.56000 3.804
62.58000 0.603
62.60000 -2.576
62.62000 0.468
62.64000 -0.737
62.66000 1.668
62.68000 5.496
62.70000 5.563
62.72000 5.855
62.74000 7.412
62.76000 3.728
62.78000 3.891
62.80000 4.508
62.82000 4.953
62.84000 3.943
62.86000 2.543
62.88000 1.951
62.90000 2.869
62.92000 3.407
62.94000 0.168
62.96000 -2.497
62.98000 2.148
63.00000 -2.588
63.02000 1.240
63.04000 3.993
63.06000 9.075
63.08000 7.739
63.10000 3.484
63.12000 4.002
63.14000 1.380
63.16000 0.175
63.18000 3.863
63.20000 5.378
63.22000 5.566
63.24000 2.796
63.26000 0.567
63.28000 2.088
63.30000 3.496
63.32000 -2.415
63.34000 -0.628
63.36000 0.556
63.38000 2.660
63.40000 3.929
63.42000 4.630
63.44000 4.598
63.46000 4.076
63.48000 -1.557
63.50000 -0.583
63.52000 4.502
63.54000 3.632
63.56000 -2.601
63.58000 -0.019
63.60000 -0.122
63.62000 -1.760
63.64000 -1.044
63.66000 0.529
63.68000 -2.013
63.70000 0.985
63.72000 5.263
63.74000 2.515
63.76000 1.574
63.78000 2.088
63.80000 5.218
63.82000 0.589
63.84000 -2.603
63.86000 2.084
63.88000 -0.424
63.90000 -0.394
63.92000 -1.561
63.94000 -0.861
63.96000 1.865
63.98000 2.881
64.00000 5.787
64.02000 4.306
64.04000 1.286
64.06000 4.370
64.08000 2.562
64.10000 6.064
64.12000 2.404
64.14000 1.206
64.16000 0.289
64.18000 2.084
64.20000 1.329
64.22000 2.485
64.24000 4.068
64.26000 0.315
64.28000 -2.055
64.30000 0.132
64.32000 2.253
64.34000 -0.315
64.36000 -0.307
64.38000 0.345
64.40000 1.640
64.42000 0.983
64.44000 -0.285
64.46000 -1.151
64.48000 -2.615
64.50000 -1.754
64.52000 0.182
64.54000 3.282
64.56000 3.737
64.58000 2.234
64.60000 3.466
64.62000 1.728
64.64000 1.489
64.66000 2.998
64.68000 2.059
64.70000 0.281
64.72000 0.380
64.74000 1.152
64.76000 4.653
64.78000 6.088
64.80000 1.618
64.82000 3.405
64.84000 1.435
64.86000 3.260
64.88000 0.566
64.90000 -1.486
64.92000 -2.398
64.94000 -0.244
64.96000 3.453
64.98000 3.179
65.00000 4.369
65.02000 1.816
65.04000 0.526
65.06000 -1.239
65.08000 -0.685
65.10000 -0.918
65.12000 3.920
65.14000 7.409
65.16000 3.307
65.18000 2.636
65.20000 0.663
65.22000 0.622
65.24000 -0.959
65.26000 1.529
65.28000 5.033
65.30000 3.974
65.32000 0.828
65.34000 -2.586
65.36000 4.491
65.38000 3.723
65.40000 4.561
65.42000 3.261
65.44000 3.093
65.46000 6.231
65.48000 4.607
65.50000 4.089
65.52000 0.590
65.54000 2.787
65.56000 3.186
65.58000 7.122
65.60000 3.743
65.62000 7.554
65.64000 1.636
65.66000 2.438
65.68000 5.937
65.70000 4.055
65.72000 4.848
65.74000 3.557
65.76000 2.888
65.78000 4.885
65.80000 5.910
65.82000 3.225
65.84000 3.033
65.86000 2.032
65.88000 1.602
65.90000 2.200
65.92000 6.665
65.94000 3.766
65.96000 3.476
65.98000 4.694
66.00000 8.894
66.02000 4.075
66.04000 -0.088
66.06000 -0.283
66.08000 5.366
66.10000 5.978
66.12000 4.752
66.14000 6.695
66.16000 8.274
66.18000 8.184
66.20000 3.284
66.22000 2.673
66.24000 4.102
66.26000 4.723
66.28000 5.183
66.30000 0.874
66.32000 2.977
66.34000 2.428
66.36000 4.839
66.38000 1.733
66.40000 -2.624
66.42000 0.602
66.44000 3.540
66.46000 2.758
66.48000 5.418
66.50000 4.116
66.52000 1.760
66.54000 3.539
66.56000 4.013
66.58000 6.227
66.60000 5.086
66.62000 1.698
66.64000 3.891
66.66000 9.622
66.68000 8.492
66.70000 5.432
66.72000 4.790
66.74000 6.399
66.76000 2.205
66.78000 5.646
66.80000 9.289
66.82000 10.279
66.84000 3.080
66.86000 5.944
66.88000 6.907
66.90000 6.732
66.92000 2.543
66.94000 3.265
66.96000 7.461
66.98000 7.812
67.00000 7.515
67.02000 8.073
67.04000 7.525
67.06000 9.935
67.08000 9.693
67.10000 6.713
67.12000 8.030
67.14000 8.635
67.16000 8.193
67.18000 11.716
67.20000 9.737
67.22000 7.439
67.24000 5.729
67.26000 8.354
67.28000 7.884
67.30000 10.218
67.32000 8.633
67.34000 11.045
67.36000 8.606
67.38000 6.190
67.40000 8.732
67.42000 11.597
67.44000 10.711
67.46000 9.329
67.48000 13.716
67.50000 10.310
67.52000 12.038
67.54000 12.936
67.56000 12.271
67.58000 15.352
67.60000 14.483
67.62000 12.394
67.64000 15.812
67.66000 16.846
67.68000 15.819
67.70000 15.003
67.72000 17.763
67.74000 18.890
67.76000 12.207
67.78000 15.036
67.80000 15.870
67.82000 10.475
67.84000 14.325
67.86000 18.440
67.88000 16.763
67.90000 16.504
67.92000 15.684
67.94000 16.330
67.96000 23.125
67.98000 20.199
68.00000 19.854
68.02000 17.877
68.04000 21.512
68.06000 19.245
68.08000 23.690
68.10000 20.071
68.12000 20.981
68.14000 19.588
68.16000 18.860
68.18000 16.995
68.20000 19.582
68.22000 21.683
68.24000 18.418
68.26000 17.887
68.28000 17.987
68.30000 21.058
68.32000 19.115
68.34000 24.079
68.36000 25.117
68.38000 17.262
68.40000 18.720
68.42000 19.729
68.44000 18.958
68.46000 15.041
68.48000 13.868
68.50000 15.747
68.52000 12.101
68.54000 14.246
68.56000 15.198
68.58000 13.957
68.60000 11.774
68.62000 11.681
68.64000 12.436
68.66000 10.344
68.68000 13.110
68.70000 16.188
68.72000 13.366
68.74000 14.732
68.76000 10.847
68.78000 10.004
68.80000 12.773
68.82000 13.212
68.84000 13.397
68.86000 13.398
68.88000 7.446
68.90000 7.841
68.92000 4.689
68.94000 10.857
68.96000 11.256
68.98000 12.823
69.00000 9.828
69.02000 4.530
69.04000 4.132
69.06000 8.000
69.08000 5.736
69.10000 3.474
69.12000 3.836
69.14000 5.034
69.16000 2.245
69.18000 2.130
69.20000 3.772
69.22000 8.833
69.24000 9.836
69.26000 4.232
69.28000 1.137
69.30000 3.942
69.32000 7.861
69.34000 4.116
69.36000 6.008
69.38000 2.368
69.40000 2.288
69.42000 4.440
69.44000 -0.026
69.46000 2.832
69.48000 2.117
69.50000 0.210
69.52000 -0.388
69.54000 0.124
69.56000 -2.050
69.58000 -1.732
69.60000 2.661
69.62000 4.217
69.64000 1.375
69.66000 0.656
69.68000 -1.632
69.70000 -0.880
69.72000 3.853
69.74000 6.803
69.76000 6.004
69.78000 3.386
69.80000 2.332
69.82000 7.664
69.84000 5.084
69.86000 -2.299
69.88000 -2.576
69.90000 3.629
69.92000 4.832
69.94000 0.694
69.96000 0.735
69.98000 0.764
70.00000 0.611
70.02000 0.285
70.04000 0.681
70.06000 -0.191
70.08000 -1.111
70.10000 1.525
70.12000 0.742
70.14000 1.074
70.16000 3.681
70.18000 0.487
70.20000 -1.436
70.22000 -1.076
70.24000 -0.757
70.26000 -2.088
70.28000 0.483
70.30000 -0.857
70.32000 1.854
70.34000 0.410
70.36000 5.516
70.38000 3.513
70.40000 -1.361
70.42000 0.387
70.44000 0.400
70.46000 0.251
70.48000 1.548
70.50000 2.083
70.52000 1.452
70.54000 3.768
70.56000 -0.962
70.58000 -0.527
70.60000 0.196
70.62000 1.941
70.64000 3.209
70.66000 -0.136
70.68000 -2.531
70.70000 -0.533
70.72000 0.094
70.74000 0.399
70.76000 3.367
70.78000 4.214
70.80000 1.918
70.82000 1.330
70.84000 3.560
70.86000 4.134
70.88000 0.821
70.90000 4.393
70.92000 1.319
70.94000 3.324
70.96000 4.262
70.98000 4.633
71.00000 -1.562
71.02000 -1.131
71.04000 2.881
71.06000 4.591
71.08000 1.484
71.10000 2.212
71.12000 3.103
71.14000 3.753
71.16000 1.560
71.18000 2.885
71.20000 0.795
71.22000 1.866
71.24000 1.067
71.26000 1.708
71.28000 -2.483
71.30000 2.014
71.32000 1.731
71.34000 1.394
71.36000 1.904
71.38000 1.087
71.40000 1.752
71.42000 4.894
71.44000 3.960
71.46000 4.766
71.48000 3.935
71.50000 0.444
71.52000 2.473
71.54000 5.436
71.56000 6.187
71.58000 6.722
71.60000 7.923
71.62000 2.692
71.64000 2.913
71.66000 9.291
71.68000 5.026
71.70000 3.148
71.72000 1.491
71.74000 -2.443
71.76000 -0.420
71.78000 3.352
71.80000 0.157
71.82000 2.971
71.84000 6.258
71.86000 1.214
71.88000 2.286
71.90000 3.888
71.92000 1.783
71.94000 0.075
71.96000 3.522
71.98000 1.938
72.00000 1.396
72.02000 4.005
72.04000 3.363
72.06000 -0.835
72.08000 1.702
72.10000 1.150
72.12000 4.166
72.14000 1.890
72.16000 6.073
72.18000 3.522
72.20000 8.817
72.22000 3.126
72.24000 -2.426
72.26000 2.368
72.28000 5.652
72.30000 3.073
72.32000 -0.326
72.34000 1.692
72.36000 3.357
72.38000 5.091
72.40000 3.708
72.42000 5.172
72.44000 3.413
72.46000 4.837
72.48000 0.403
72.50000 3.590
72.52000 -0.862
72.54000 -0.343
72.56000 0.680
72.58000 0.039
72.60000 1.955
72.62000 0.401
72.64000 2.453
72.66000 0.562
72.68000 3.112
72.70000 3.728
72.72000 4.780
72.74000 4.686
72.76000 2.979
72.78000 4.157
72.80000 4.248
72.82000 -1.225
72.84000 -0.940
72.86000 3.207
72.88000 0.556
72.90000 1.496
72.92000 5.963
72.94000 4.512
72.96000 3.706
72.98000 1.041
73.00000 -0.099
73.02000 7.112
73.04000 4.691
73.06000 3.753
73.08000 1.958
73.10000 2.796
73.12000 4.239
73.14000 1.161
73.16000 -0.391
73.18000 4.968
73.20000 -0.145
73.22000 -2.425
73.24000 -0.289
73.26000 -0.732
73.28000 4.042
73.30000 4.814
73.32000 6.888
73.34000 5.567
73.36000 2.896
73.38000 3.683
73.40000 4.179
73.42000 1.795
73.44000 0.542
73.46000 4.406
73.48000 8.071
73.50000 8.478
73.52000 3.653
73.54000 3.035
73.56000 3.433
73.58000 5.463
73.60000 10.565
73.62000 9.390
73.64000 12.125
73.66000 7.241
73.68000 4.486
73.70000 2.837
73.72000 5.099
73.74000 1.495
73.76000 3.482
73.78000 10.527
73.80000 6.014
73.82000 1.978
73.84000 4.047
73.86000 5.788
73.88000 3.600
73.90000 5.694
73.92000 5.685
73.94000 4.480
73.96000 2.722
73.98000 7.008
74.00000 4.393
74.02000 4.716
74.04000 2.954
74.06000 -2.385
74.08000 -0.809
74.10000 1.750
74.12000 3.863
74.14000 5.909
74.16000 4.098
74.18000 1.736
74.20000 2.917
74.22000 4.549
74.24000 5.522
74.26000 7.714
74.28000 3.635
74.30000 1.665
74.32000 7.188
74.34000 10.532
74.36000 7.323
74.38000 2.378
74.40000 4.979
74.42000 7.187
74.44000 1.490
74.46000 -0.477
74.48000 5.399
74.50000 4.739
74.52000 3.463
74.54000 1.754
74.56000 6.475
74.58000 4.147
74.60000 5.419
74.62000 6.407
74.64000 -0.797
74.66000 2.065
74.68000 5.530
74.70000 4.778
74.72000 4.272
74.74000 3.496
74.76000 3.396
74.78000 3.588
74.80000 -0.169
74.82000 0.818
74.84000 3.460
74.86000 4.510
74.88000 3.454
74.90000 7.263
74.92000 6.672
74.94000 3.763
74.96000 1.956
74.98000 0.871
75.00000 1.001
75.02000 2.685
75.04000 -0.217
75.06000 1.232
75.08000 6.130
75.10000 4.725
75.12000 6.440
75.14000 3.999
75.16000 -2.381
75.18000 0.145
75.20000 4.183
75.22000 10.646
75.24000 6.534
75.26000 5.517
75.28000 2.731
75.30000 3.761
75.32000 5.481
75.34000 7.429
75.36000 5.999
75.38000 7.832
75.40000 1.865
75.42000 -0.326
75.44000 6.276
75.46000 9.790
75.48000 4.735
75.50000 -0.140
75.52000 3.435
75.54000 6.552
75.56000 8.635
75.58000 6.316
75.60000 2.889
75.62000 1.434
75.64000 5.726
75.66000 2.572
75.68000 3.325
75.70000 11.245
75.72000 2.847
75.74000 -2.409
75.76000 0.290
75.78000 5.021
75.80000 8.249
75.82000 3.550
75.84000 3.279
75.86000 -0.033
75.88000 -2.247
75.90000 4.130
75.92000 10.708
75.94000 3.502
75.96000 3.666
75.98000 7.264
76.00000 2.883
76.02000 6.729
76.04000 9.718
76.06000 6.366
76.08000 5.727
76.10000 4.213
76.12000 5.974
76.14000 -0.701
76.16000 0.009
76.18000 3.713
76.20000 2.426
76.22000 -1.142
76.24000 0.623
76.26000 2.712
76.28000 -0.875
76.30000 -2.068
76.32000 2.125
76.34000 3.890
76.36000 3.787
76.38000 4.255
76.40000 5.251
76.42000 -1.394
76.44000 -2.420
76.46000 3.419
76.48000 4.521
76.50000 3.716
76.52000 -0.575
76.54000 3.033
76.56000 5.546
76.58000 5.375
76.60000 7.551
76.62000 8.100
76.64000 3.664
76.66000 0.290
76.68000 2.895
76.70000 11.520
76.72000 5.384
76.74000 1.678
76.76000 2.574
76.78000 4.167
76.80000 6.774
76.82000 5.343
76.84000 2.496
76.86000 0.062
76.88000 -0.603
76.90000 4.242
76.92000 3.813
76.94000 3.348
76.96000 4.141
76.98000 3.696
77.00000 4.316
77.02000 3.882
77.04000 1.075
77.06000 0.231
77.08000 2.892
77.10000 2.195
77.12000 1.449
77.14000 -0.699
77.16000 -0.765
77.18000 2.214
77.20000 2.603
77.22000 -2.421
77.24000 -1.126
77.26000 3.450
77.28000 5.551
77.30000 7.861
77.32000 7.965
77.34000 3.664
77.36000 2.618
77.38000 -0.222
77.40000 -1.014
77.42000 3.076
77.44000 3.086
77.46000 3.619
77.48000 5.740
77.50000 2.950
77.52000 7.390
77.54000 6.689
77.56000 3.433
77.58000 2.046
77.60000 3.665
77.62000 6.028
77.64000 4.585
77.66000 3.935
77.68000 3.080
77.70000 2.951
77.72000 4.442
77.74000 0.739
77.76000 -0.677
77.78000 -1.360
77.80000 0.515
77.82000 1.416
77.84000 4.061
77.86000 6.660
77.88000 7.823
77.90000 4.378
77.92000 1.159
77.94000 -2.155
77.96000 1.401
77.98000 5.659
78.00000 5.635
78.02000 7.861
78.04000 6.578
78.06000 5.764
78.08000 4.331
78.10000 0.764
78.12000 -1.150
78.14000 1.451
78.16000 7.349
78.18000 8.444
78.20000 7.022
78.22000 3.425
78.24000 9.172
78.26000 8.315
78.28000 8.070
78.30000 7.412
78.32000 8.397
78.34000 7.745
78.36000 -0.731
78.38000 -2.474
78.40000 1.981
78.42000 4.704
78.44000 5.441
78.46000 -2.160
78.48000 0.335
78.50000 -0.268
78.52000 4.599
78.54000 6.898
78.56000 3.484
78.58000 2.793
78.60000 3.908
78.62000 2.732
78.64000 -0.166
78.66000 -1.361
78.68000 2.541
78.70000 4.688
78.72000 3.783
78.74000 4.246
78.76000 6.519
78.78000 2.194
78.80000 2.928
78.82000 2.408
78.84000 6.463
78.86000 4.763
78.88000 0.721
78.90000 0.157
78.92000 5.427
78.94000 3.682
78.96000 3.833
78.98000 3.247
79.00000 7.732
79.02000 4.364
79.04000 -1.100
79.06000 -0.939
79.08000 3.614
79.10000 3.652
79.12000 4.303
79.14000 2.216
79.16000 2.880
79.18000 7.197
79.20000 5.272
79.22000 3.997
79.24000 0.318
79.26000 1.006
79.28000 -2.517
79.30000 0.593
79.32000 4.997
79.34000 3.683
79.36000 1.979
79.38000 3.300
79.40000 4.023
79.42000 4.304
79.44000 2.992
79.46000 6.589
79.48000 6.098
79.50000 1.413
79.52000 5.606
79.54000 -0.071
79.56000 0.415
79.58000 -0.187
79.60000 1.928
79.62000 6.196
79.64000 3.904
79.66000 1.999
79.68000 1.335
79.70000 -1.365
79.72000 7.092
79.74000 4.341
79.76000 6.580
79.78000 5.966
79.80000 7.324
79.82000 6.649
79.84000 6.242
79.86000 1.653
79.88000 3.629
79.90000 4.855
79.92000 8.927
79.94000 8.447
79.96000 8.444
79.98000 5.049
80.00000 5.772
80.02000 4.608
80.04000 5.057
80.06000 7.543
80.08000 8.392
80.10000 4.046
80.12000 1.941
80.14000 3.461
80.16000 7.922
80.18000 5.730
80.20000 6.227
80.22000 3.665
80.24000 4.323
80.26000 3.013
80.28000 0.590
80.30000 1.519
80.32000 2.297
80.34000 -2.577
80.36000 1.592
80.38000 4.916
80.40000 6.125
80.42000 3.542
80.44000 4.782
80.46000 5.990
80.48000 5.494
80.50000 3.426
80.52000 5.346
80.54000 5.315
80.56000 8.789
80.58000 12.908
80.60000 8.743
80.62000 9.511
80.64000 6.588
80.66000 3.505
80.68000 5.780
80.70000 6.776
80.72000 7.343
80.74000 4.867
80.76000 5.497
80.78000 6.040
80.80000 6.311
80.82000 7.234
80.84000 5.145
80.86000 5.128
80.88000 10.813
80.90000 8.123
80.92000 5.640
80.94000 6.815
80.96000 9.258
80.98000 6.879
81.00000 7.812
81.02000 7.691
81.04000 12.110
81.06000 7.167
81.08000 6.120
81.10000 9.677
81.12000 9.000
81.14000 11.482
81.16000 9.167
81.18000 10.753
81.20000 15.937
81.22000 16.083
81.24000 13.355
81.26000 15.143
81.28000 15.814
81.30000 14.750
81.32000 16.608
81.34000 16.420
81.36000 16.423
81.38000 11.177
81.40000 11.693
81.42000 11.513
81.44000 16.305
81.46000 13.877
81.48000 12.388
81.50000 12.009
81.52000 13.231
81.54000 13.678
81.56000 17.895
81.58000 20.731
81.60000 15.866
81.62000 17.908
81.64000 19.832
81.66000 20.307
81.68000 16.429
81.70000 17.281
81.72000 17.176
81.74000 12.372
81.76000 17.054
81.78000 15.498
81.80000 22.247
81.82000 24.396
81.84000 23.251
81.86000 20.259
81.88000 18.168
81.90000 22.575
81.92000 21.789
81.94000 18.887
81.96000 20.793
81.98000 18.742
82.00000 20.720
82.02000 25.189
82.04000 26.619
82.06000 24.495
82.08000 21.062
82.10000 20.701
82.12000 20.343
82.14000 23.699
82.16000 27.722
82.18000 26.772
82.20000 28.927
82.22000 23.910
82.24000 17.296
82.26000 18.370
82.28000 22.737
82.30000 23.603
82.32000 23.698
82.34000 19.591
82.36000 19.749
82.38000 17.319
82.40000 21.107
82.42000 20.977
82.44000 21.256
82.46000 25.325
82.48000 23.995
82.50000 22.582
82.52000 26.311
82.54000 25.793
82.56000 28.988
82.58000 23.923
82.60000 20.423
82.62000 19.032
82.64000 20.838
82.66000 25.431
82.68000 23.713
82.70000 27.246
82.72000 27.505
82.74000 18.248
82.76000 17.985
82.78000 16.921
82.80000 19.440
82.82000 21.571
82.84000 17.415
82.86000 20.076
82.88000 19.582
82.90000 13.276
82.92000 11.396
82.94000 15.389
82.96000 21.147
82.98000 15.051
83.00000 11.541
83.02000 11.400
83.04000 10.596
83.06000 10.539
83.08000 18.306
83.10000 15.871
83.12000 15.456
83.14000 19.421
83.16000 10.987
83.18000 10.352
83.20000 14.445
83.22000 18.024
83.24000 12.242
83.26000 6.411
83.28000 11.684
83.30000 9.670
83.32000 11.219
83.34000 8.856
83.36000 9.604
83.38000 10.933
83.40000 12.939
83.42000 7.550
83.44000 1.142
83.46000 3.575
83.48000 8.141
83.50000 7.191
83.52000 6.939
83.54000 7.271
83.56000 7.726
83.58000 6.749
83.60000 2.652
83.62000 2.890
83.64000 2.904
83.66000 3.286
83.68000 3.155
83.70000 5.361
83.72000 3.352
83.74000 4.376
83.76000 6.349
83.78000 5.800
83.80000 6.664
83.82000 5.228
83.84000 4.160
83.86000 -0.175
83.88000 2.732
83.90000 4.892
83.92000 9.210
83.94000 5.836
83.96000 1.809
83.98000 1.927
84.00000 1.259
84.02000 0.736
84.04000 -0.870
84.06000 -0.576
84.08000 1.910
84.10000 2.953
84.12000 4.677
84.14000 4.573
84.16000 4.482
84.18000 8.824
84.20000 5.365
84.22000 3.873
84.24000 0.682
84.26000 2.129
84.28000 2.853
84.30000 7.959
84.32000 6.940
84.34000 -1.160
84.36000 -2.546
84.38000 2.532
84.40000 6.533
84.42000 8.232
84.44000 7.641
84.46000 3.668
84.48000 1.664
84.50000 4.927
84.52000 4.232
84.54000 6.661
84.56000 12.558
84.58000 4.927
84.60000 5.424
84.62000 1.214
84.64000 -2.515
84.66000 2.173
84.68000 6.895
84.70000 8.057
84.72000 2.867
84.74000 5.791
84.76000 5.501
84.78000 6.848
84.80000 7.087
84.82000 10.826
84.84000 9.681
84.86000 13.698
84.88000 9.702
84.90000 3.896
84.92000 5.880
84.94000 9.024
84.96000 8.005
84.98000 4.486
85.00000 7.309
85.02000 8.978
85.04000 5.764
85.06000 4.983
85.08000 9.330
85.10000 3.376
85.12000 1.023
85.14000 7.273
85.16000 10.586
85.18000 8.869
85.20000 7.530
85.22000 10.721
85.24000 9.163
85.26000 7.356
85.28000 8.654
85.30000 8.323
85.32000 7.452
85.34000 9.207
85.36000 5.991
85.38000 5.208
85.40000 7.806
85.42000 11.544
85.44000 10.309
85.46000 11.369
85.48000 9.466
85.50000 9.674
85.52000 6.939
85.54000 7.761
85.56000 12.263
85.58000 13.522
85.60000 11.457
85.62000 9.085
85.64000 12.617
85.66000 8.583
85.68000 6.492
85.70000 13.539
85.72000 15.613
85.74000 9.517
85.76000 11.750
85.78000 13.513
85.80000 16.969
85.82000 15.462
85.84000 14.428
85.86000 12.457
85.88000 11.416
85.90000 13.913
85.92000 14.442
85.94000 13.354
85.96000 16.998
85.98000 21.353
86.00000 23.551
86.02000 22.805
86.04000 21.642
86.06000 16.456
86.08000 20.438
86.10000 18.546
86.12000 19.574
86.14000 21.129
86.16000 21.418
86.18000 17.487
86.20000 20.543
86.22000 25.279
86.24000 24.445
86.26000 26.890
86.28000 27.476
86.30000 30.272
86.32000 31.378
86.34000 31.552
86.36000 29.934
86.38000 27.404
86.40000 32.000
86.42000 35.351
86.44000 27.720
86.46000 26.634
86.48000 30.406
86.50000 31.596
86.52000 37.849
86.54000 33.924
86.56000 27.156
86.58000 21.669
86.60000 34.264
86.62000 30.610
86.64000 31.528
86.66000 31.453
86.68000 29.446
86.70000 24.587
86.72000 27.638
86.74000 34.799
86.76000 30.882
86.78000 27.789
86.80000 30.025
86.82000 23.949
86.84000 24.349
86.86000 24.918
86.88000 27.029
86.90000 26.675
86.92000 22.165
86.94000 28.633
86.96000 30.577
86.98000 30.464
87.00000 27.650
87.02000 19.551
87.04000 18.910
87.06000 21.649
87.08000 23.124
87.10000 18.559
87.12000 19.177
87.14000 18.575
87.16000 13.959
87.18000 15.896
87.20000 10.254
87.22000 15.461
87.24000 16.569
87.26000 18.632
87.28000 14.777
87.30000 17.628
87.32000 16.946
87.34000 8.368
87.36000 7.262
87.38000 9.861
87.40000 9.989
87.42000 10.567
87.44000 15.125
87.46000 11.671
87.48000 9.566
87.50000 11.810
87.52000 16.744
87.54000 21.424
87.56000 12.192
87.58000 7.899
87.60000 13.586
87.62000 9.383
87.64000 3.774
87.66000 2.577
87.68000 7.272
87.70000 7.251
87.72000 5.886
87.74000 4.115
87.76000 1.436
87.78000 2.116
87.80000 5.343
87.82000 5.424
87.84000 3.620
87.86000 1.405
87.88000 7.759
87.90000 5.088
87.92000 5.941
87.94000 6.808
87.96000 1.438
87.98000 -0.365
88.00000 1.224
88.02000 3.817
88.04000 0.394
88.06000 -1.386
88.08000 2.758
88.10000 4.370
88.12000 1.353
88.14000 -0.760
88.16000 -1.332
88.18000 7.843
88.20000 3.051
88.22000 1.149
88.24000 -2.441
88.26000 1.019
88.28000 0.780
88.30000 -0.362
88.32000 0.127
88.34000 0.058
88.36000 3.019
88.38000 4.926
88.40000 0.791
88.42000 2.833
88.44000 1.156
88.46000 2.579
88.48000 0.712
88.50000 2.358
88.52000 2.533
88.54000 2.736
88.56000 0.070
88.58000 -1.684
88.60000 -0.272
88.62000 4.772
88.64000 -0.649
88.66000 4.688
88.68000 2.030
88.70000 6.491
88.72000 3.250
88.74000 2.132
88.76000 4.832
88.78000 -1.049
88.80000 -2.047
88.82000 2.992
88.84000 0.999
88.86000 0.233
88.88000 -0.060
88.90000 -2.360
88.92000 -1.565
88.94000 -1.784
88.96000 -2.108
88.98000 -1.813
89.00000 0.306
89.02000 0.342
89.04000 2.153
89.06000 4.260
89.08000 1.365
89.10000 4.686
89.12000 2.320
89.14000 2.755
89.16000 1.136
89.18000 0.604
89.20000 -0.014
89.22000 2.568
89.24000 4.496
89.26000 1.270
89.28000 0.883
89.30000 6.528
89.32000 3.241
89.34000 3.633
89.36000 0.407
89.38000 4.344
89.40000 3.847
89.42000 -0.384
89.44000 3.361
89.46000 1.963
89.48000 0.563
89.50000 5.231
89.52000 -0.597
89.54000 2.480
89.56000 4.768
89.58000 0.831
89.60000 4.552
89.62000 2.747
89.64000 1.054
89.66000 1.632
89.68000 6.006
89.70000 1.635
89.72000 3.978
89.74000 3.415
89.76000 0.828
89.78000 -2.308
89.80000 -1.320
89.82000 0.678
89.84000 -0.792
89.86000 4.524
89.88000 4.180
89.90000 3.773
89.92000 3.022
89.94000 -1.166
89.96000 0.583
89.98000 1.212
90.00000 -1.168
90.02000 -0.252
90.04000 3.960
90.06000 8.342
90.08000 10.766
90.10000 6.308
90.12000 5.585
90.14000 2.990
90.16000 5.740
90.18000 2.672
90.20000 5.568
90.22000 0.935
90.24000 3.716
90.26000 3.755
90.28000 5.839
90.30000 5.723
90.32000 1.324
90.34000 4.314
90.36000 1.984
90.38000 2.035
90.40000 1.972
90.42000 6.804
90.44000 7.765
90.46000 6.768
90.48000 2.693
90.50000 4.667
90.52000 2.260
90.54000 3.681
90.56000 3.876
90.58000 4.598
90.60000 5.590
90.62000 5.930
90.64000 3.816
90.66000 4.912
90.68000 1.553
90.70000 0.302
90.72000 0.729
90.74000 -0.695
90.76000 -2.265
90.78000 -1.139
90.80000 1.500
90.82000 5.957
90.84000 -0.985
90.86000 2.313
90.88000 4.183
90.90000 3.052
90.92000 2.285
90.94000 6.142
90.96000 2.927
90.98000 6.873
91.00000 10.284
91.02000 7.428
91.04000 7.278
91.06000 10.397
91.08000 11.374
91.10000 5.311
91.12000 1.065
91.14000 4.595
91.16000 3.242
91.18000 8.047
91.20000 11.092
91.22000 6.213
91.24000 4.776
91.26000 8.510
91.28000 5.881
91.30000 12.057
91.32000 7.354
91.34000 8.807
91.36000 13.076
91.38000 13.506
91.40000 7.841
91.42000 6.603
91.44000 8.014
91.46000 7.118
91.48000 5.074
91.50000 9.621
91.52000 9.007
91.54000 8.870
91.56000 3.632
91.58000 2.346
91.60000 -0.277
91.62000 5.979
91.64000 6.314
91.66000 7.458
91.68000 9.968
91.70000 6.924
91.72000 6.123
91.74000 2.204
91.76000 -2.240
91.78000 4.185
91.80000 8.793
91.82000 4.321
91.84000 8.137
91.86000 8.520
91.88000 7.992
91.90000 1.492
91.92000 3.934
91.94000 4.121
91.96000 1.971
91.98000 7.542
92.00000 9.228
92.02000 5.394
92.04000 -0.533
92.06000 5.533
92.08000 8.373
92.10000 3.583
92.12000 2.998
92.14000 -0.125
92.16000 3.339
92.18000 3.610
92.20000 3.335
92.22000 3.799
92.24000 4.196
92.26000 4.367
92.28000 2.076
92.30000 2.412
92.32000 1.306
92.34000 2.312
92.36000 3.116
92.38000 3.810
92.40000 5.125
92.42000 7.178
92.44000 1.896
92.46000 0.946
92.48000 -0.766
92.50000 3.990
92.52000 -0.721
92.54000 -0.833
92.56000 7.790
92.58000 8.874
92.60000 11.383
92.62000 9.444
92.64000 6.763
92.66000 5.546
92.68000 6.019
92.70000 7.077
92.72000 2.169
92.74000 5.147
92.76000 3.732
92.78000 6.114
92.80000 4.535
92.82000 6.732
92.84000 3.837
92.86000 3.106
92.88000 1.808
92.90000 6.113
92.92000 5.896
92.94000 -2.285
92.96000 1.763
92.98000 7.240
93.00000 10.163
93.02000 2.819
93.04000 0.527
93.06000 -1.799
93.08000 3.192
93.10000 5.111
93.12000 7.863
93.14000 -0.151
93.16000 1.232
93.18000 4.063
93.20000 1.201
93.22000 5.508
93.24000 8.644
93.26000 6.622
93.28000 2.472
93.30000 1.147
93.32000 4.483
93.34000 8.422
93.36000 6.863
93.38000 3.936
93.40000 3.337
93.42000 1.649
93.44000 7.145
93.46000 9.174
93.48000 2.494
93.50000 4.786
93.52000 2.559
93.54000 -0.096
93.56000 0.600
93.58000 5.643
93.60000 5.564
93.62000 5.751
93.64000 6.674
93.66000 4.132
93.68000 1.570
93.70000 2.226
93.72000 3.800
93.74000 9.464
93.76000 4.635
93.78000 0.797
93.80000 0.255
93.82000 5.814
93.84000 4.793
93.86000 8.184
93.88000 4.359
93.90000 4.761
93.92000 3.025
93.94000 -2.193
93.96000 3.103
93.98000 2.802
94.00000 6.010
94.02000 10.291
94.04000 9.761
94.06000 3.711
94.08000 -0.333
94.10000 -0.476
94.12000 1.958
94.14000 6.716
94.16000 3.616
94.18000 3.711
94.20000 5.809
94.22000 4.631
94.24000 0.819
94.26000 -2.281
94.28000 4.980
94.30000 12.298
94.32000 11.421
94.34000 6.392
94.36000 4.546
94.38000 4.682
94.40000 7.551
94.42000 6.190
94.44000 7.114
94.46000 3.570
94.48000 1.173
94.50000 1.161
94.52000 7.445
94.54000 11.381
94.56000 4.982
94.58000 2.388
94.60000 3.947
94.62000 0.713
94.64000 4.568
94.66000 3.455
94.68000 7.952
94.70000 3.982
94.72000 4.430
94.74000 2.110
94.76000 7.078
94.78000 4.679
94.80000 5.740
94.82000 2.622
94.84000 0.816
94.86000 2.018
94.88000 0.389
94.90000 -0.535
94.92000 4.260
94.94000 5.235
94.96000 3.527
94.98000 10.233
95.00000 7.986
95.02000 4.709
95.04000 1.369
95.06000 1.412
95.08000 2.688
95.10000 7.835
95.12000 3.278
95.14000 4.962
95.16000 2.418
95.18000 3.241
95.20000 6.886
95.22000 4.217
95.24000 2.332
95.26000 -1.401
95.28000 1.239
95.30000 4.716
95.32000 1.552
95.34000 1.075
95.36000 3.294
95.38000 5.341
95.40000 4.935
95.42000 0.214
95.44000 5.424
95.46000 4.825
95.48000 0.593
95.50000 2.883
95.52000 8.121
95.54000 6.569
95.56000 1.100
95.58000 0.611
95.60000 3.380
95.62000 4.962
95.64000 3.742
95.66000 2.814
95.68000 3.779
95.70000 4.749
95.72000 4.792
95.74000 0.307
95.76000 4.459
95.78000 5.436
95.80000 1.107
95.82000 7.787
95.84000 6.016
95.86000 5.723
95.88000 8.054
95.90000 2.586
95.92000 1.606
95.94000 -1.001
95.96000 5.025
95.98000 9.112
96.00000 0.357
96.02000 2.312
96.04000 12.218
96.06000 10.977
96.08000 -1.236
96.10000 -1.782
96.12000 3.584
96.14000 10.816
96.16000 9.454
96.18000 3.157
96.20000 7.073
96.22000 -0.620
96.24000 0.235
96.26000 1.733
96.28000 0.918
96.30000 6.407
96.32000 6.837
96.34000 9.924
96.36000 -2.325
96.38000 1.232
96.40000 -0.099
96.42000 1.330
96.44000 5.228
96.46000 6.401
96.48000 8.617
96.50000 2.668
96.52000 8.172
96.54000 8.291
96.56000 -1.698
96.58000 3.989
96.60000 6.346
96.62000 1.041
96.64000 0.897
96.66000 3.132
96.68000 3.108
96.70000 -2.065
96.72000 -1.584
96.74000 3.397
96.76000 5.335
96.78000 2.537
96.80000 2.435
96.82000 0.669
96.84000 -1.431
96.86000 -0.452
96.88000 -0.467
96.90000 -1.476
96.92000 -0.435
96.94000 5.834
96.96000 6.244
96.98000 0.543
97.00000 -2.326
97.02000 1.870
97.04000 -0.217
97.06000 -1.722
97.08000 4.992
97.10000 5.531
97.12000 0.738
97.14000 -1.893
97.16000 -1.413
97.18000 1.615
97.20000 6.156
97.22000 5.466
97.24000 11.124
97.26000 8.359
97.28000 6.556
97.30000 6.563
97.32000 1.194
97.34000 6.591
97.36000 12.129
97.38000 8.673
97.40000 6.065
97.42000 3.505
97.44000 5.015
97.46000 -2.025
97.48000 6.057
97.50000 8.830
97.52000 5.800
97.54000 13.251
97.56000 10.347
97.58000 8.308
97.60000 5.975
97.62000 0.784
97.64000 1.033
97.66000 -2.298
97.68000 3.304
97.70000 6.426
97.72000 7.019
97.74000 9.336
97.76000 4.444
97.78000 2.883
97.80000 -0.987
97.82000 1.544
97.84000 4.974
97.86000 10.750
97.88000 6.795
97.90000 8.053
97.92000 7.033
97.94000 1.656
97.96000 0.913
97.98000 7.040
98.00000 3.660
98.02000 2.958
98.04000 1.397
98.06000 3.617
98.08000 5.891
98.10000 10.231
98.12000 4.412
98.14000 1.571
98.16000 5.597
98.18000 7.472
98.20000 3.201
98.22000 2.801
98.24000 4.015
98.26000 1.308
98.28000 0.525
98.30000 7.709
98.32000 8.201
98.34000 14.132
98.36000 13.985
98.38000 5.831
98.40000 8.494
98.42000 9.221
98.44000 10.205
98.46000 13.368
98.48000 7.587
98.50000 5.845
98.52000 11.340
98.54000 10.087
98.56000 3.743
98.58000 6.270
98.60000 5.597
98.62000 1.519
98.64000 13.447
98.66000 17.410
98.68000 6.617
98.70000 -2.188
98.72000 3.017
98.74000 10.793
98.76000 16.494
98.78000 10.647
98.80000 7.159
98.82000 7.563
98.84000 7.907
98.86000 10.146
98.88000 4.624
98.90000 3.590
98.92000 4.352
98.94000 3.931
98.96000 4.367
98.98000 14.566
99.00000 6.285
99.02000 0.025
99.04000 3.773
99.06000 2.953
99.08000 5.436
99.10000 1.718
99.12000 14.625
99.14000 20.451
99.16000 14.277
99.18000 5.817
99.20000 2.992
99.22000 0.188
99.24000 -2.234
99.26000 0.696
99.28000 11.055
99.30000 6.019
99.32000 0.076
99.34000 7.777
99.36000 5.132
99.38000 12.141
99.40000 13.172
99.42000 14.731
99.44000 5.049
99.46000 2.438
99.48000 10.510
99.50000 0.371
99.52000 -0.704
99.54000 -2.091
99.56000 4.913
99.58000 5.283
99.60000 11.622
99.62000 5.712
99.64000 2.163
99.66000 7.710
99.68000 8.690
99.70000 3.372
99.72000 7.331
99.74000 6.162
99.76000 -3.763
99.78000 5.352
99.80000 10.416
99.82000 13.420
99.84000 5.954
99.86000 8.119
99.88000 2.498
99.90000 7.191
99.92000 4.258
99.94000 -2.338
99.96000 0.063
99.98000 0.000
