'Id: "0011389" Comment: "Integrate frame 0011389_Au-Ir-Rh_Au-Rich_XRD_Mapping-253-0000.gfrmwith cursor Wedge Cursor #5" Operator: "B?rgel" Anode: "Cu" Wavelength: "1.5406" Scantype: "2Theta (TwoTheta)" TimePerStep: "1" X: "13.5" Y: "18" Z: "5.95" 
10.00000 0.000
10.02000 3.848
10.04000 -3.886
10.06000 4.721
10.08000 23.471
10.10000 30.122
10.12000 31.402
10.14000 25.500
10.16000 22.651
10.18000 13.378
10.20000 11.579
10.22000 19.871
10.24000 7.383
10.26000 6.110
10.28000 13.838
10.30000 13.834
10.32000 16.786
10.34000 14.934
10.36000 24.009
10.38000 16.028
10.40000 23.327
10.42000 27.427
10.44000 22.238
10.46000 17.264
10.48000 19.860
10.50000 10.218
10.52000 12.637
10.54000 11.491
10.56000 6.289
10.58000 9.867
10.60000 14.668
10.62000 25.260
10.64000 23.591
10.66000 21.901
10.68000 22.077
10.70000 15.874
10.72000 13.158
10.74000 12.286
10.76000 19.019
10.78000 21.975
10.80000 21.440
10.82000 23.371
10.84000 18.342
10.86000 25.048
10.88000 25.667
10.90000 34.496
10.92000 25.685
10.94000 20.315
10.96000 21.173
10.98000 32.228
11.00000 20.103
11.02000 12.769
11.04000 17.789
11.06000 16.245
11.08000 27.768
11.10000 24.294
11.12000 18.695
11.14000 17.539
11.16000 29.605
11.18000 22.171
11.20000 25.817
11.22000 22.116
11.24000 14.268
11.26000 23.010
11.28000 24.828
11.30000 19.664
11.32000 27.191
11.34000 21.507
11.36000 14.862
11.38000 10.905
11.40000 12.873
11.42000 26.710
11.44000 29.866
11.46000 37.013
11.48000 23.680
11.50000 11.352
11.52000 27.847
11.54000 29.577
11.56000 27.085
11.58000 18.230
11.60000 18.218
11.62000 16.092
11.64000 32.307
11.66000 27.099
11.68000 13.056
11.70000 16.447
11.72000 25.431
11.74000 28.977
11.76000 29.375
11.78000 28.674
11.80000 14.729
11.82000 13.268
11.84000 21.561
11.86000 12.769
11.88000 13.202
11.90000 22.946
11.92000 30.042
11.94000 31.517
11.96000 28.077
11.98000 15.552
12.00000 19.635
12.02000 25.644
12.04000 23.002
12.06000 37.158
12.08000 44.930
12.10000 31.956
12.12000 18.639
12.14000 16.832
12.16000 22.969
12.18000 23.711
12.20000 18.523
12.22000 31.789
12.24000 36.672
12.26000 32.959
12.28000 24.601
12.30000 18.780
12.32000 33.341
12.34000 25.759
12.36000 28.505
12.38000 20.604
12.40000 21.599
12.42000 3.991
12.44000 12.631
12.46000 22.622
12.48000 25.771
12.50000 23.750
12.52000 31.622
12.54000 26.314
12.56000 22.882
12.58000 23.295
12.60000 17.942
12.62000 27.285
12.64000 29.624
12.66000 30.881
12.68000 34.348
12.70000 22.794
12.72000 21.447
12.74000 13.952
12.76000 17.684
12.78000 14.187
12.80000 18.499
12.82000 22.356
12.84000 31.005
12.86000 20.853
12.88000 12.193
12.90000 16.540
12.92000 29.349
12.94000 24.373
12.96000 15.186
12.98000 15.744
13.00000 30.031
13.02000 24.077
13.04000 23.254
13.06000 25.704
13.08000 22.521
13.10000 26.582
13.12000 17.895
13.14000 29.927
13.16000 30.875
13.18000 28.008
13.20000 17.440
13.22000 29.621
13.24000 26.059
13.26000 23.380
13.28000 16.105
13.30000 22.400
13.32000 30.945
13.34000 26.727
13.36000 32.496
13.38000 26.536
13.40000 23.226
13.42000 27.790
13.44000 23.615
13.46000 12.965
13.48000 22.103
13.50000 14.794
13.52000 14.342
13.54000 23.537
13.56000 20.997
13.58000 18.378
13.60000 14.881
13.62000 14.192
13.64000 12.701
13.66000 8.464
13.68000 9.613
13.70000 21.686
13.72000 24.630
13.74000 25.784
13.76000 15.604
13.78000 20.268
13.80000 19.049
13.82000 21.103
13.84000 17.945
13.86000 10.591
13.88000 18.988
13.90000 14.191
13.92000 16.868
13.94000 16.440
13.96000 22.242
13.98000 19.668
14.00000 12.212
14.02000 13.020
14.04000 15.092
14.06000 14.107
14.08000 10.029
14.10000 19.988
14.12000 20.111
14.14000 6.914
14.16000 10.631
14.18000 23.164
14.20000 33.996
14.22000 16.276
14.24000 10.072
14.26000 8.240
14.28000 11.708
14.30000 14.235
14.32000 24.552
14.34000 20.481
14.36000 15.146
14.38000 21.030
14.40000 27.230
14.42000 18.345
14.44000 11.381
14.46000 17.672
14.48000 19.594
14.50000 13.778
14.52000 27.674
14.54000 19.852
14.56000 16.290
14.58000 16.799
14.60000 12.725
14.62000 11.374
14.64000 9.075
14.66000 16.632
14.68000 14.292
14.70000 8.117
14.72000 19.942
14.74000 14.382
14.76000 15.852
14.78000 10.382
14.80000 13.964
14.82000 17.353
14.84000 9.351
14.86000 15.397
14.88000 9.689
14.90000 18.965
14.92000 24.875
14.94000 16.034
14.96000 9.630
14.98000 7.833
15.00000 22.123
15.02000 20.376
15.04000 6.887
15.06000 8.530
15.08000 13.052
15.10000 14.295
15.12000 10.229
15.14000 4.131
15.16000 4.624
15.18000 11.344
15.20000 17.411
15.22000 18.892
15.24000 19.193
15.26000 14.721
15.28000 12.994
15.30000 8.600
15.32000 7.696
15.34000 15.326
15.36000 19.421
15.38000 15.277
15.40000 19.678
15.42000 16.124
15.44000 10.562
15.46000 19.562
15.48000 15.222
15.50000 10.259
15.52000 11.900
15.54000 8.264
15.56000 4.118
15.58000 4.857
15.60000 10.184
15.62000 14.967
15.64000 18.616
15.66000 9.470
15.68000 6.541
15.70000 2.649
15.72000 6.517
15.74000 12.849
15.76000 12.644
15.78000 16.714
15.80000 9.109
15.82000 11.842
15.84000 15.716
15.86000 26.064
15.88000 18.227
15.90000 9.050
15.92000 9.713
15.94000 10.067
15.96000 5.050
15.98000 3.934
16.00000 4.585
16.02000 1.689
16.04000 3.531
16.06000 4.438
16.08000 10.926
16.10000 13.270
16.12000 13.602
16.14000 14.122
16.16000 9.300
16.18000 10.345
16.20000 11.869
16.22000 14.729
16.24000 17.139
16.26000 10.381
16.28000 9.546
16.30000 12.067
16.32000 10.519
16.34000 1.056
16.36000 8.961
16.38000 5.611
16.40000 -2.255
16.42000 4.994
16.44000 11.158
16.46000 12.688
16.48000 6.192
16.50000 4.710
16.52000 7.011
16.54000 11.109
16.56000 16.083
16.58000 13.948
16.60000 3.510
16.62000 2.125
16.64000 14.372
16.66000 11.316
16.68000 11.127
16.70000 7.065
16.72000 4.820
16.74000 7.274
16.76000 9.681
16.78000 5.555
16.80000 -0.962
16.82000 2.126
16.84000 8.280
16.86000 8.265
16.88000 4.509
16.90000 11.330
16.92000 7.418
16.94000 1.369
16.96000 2.232
16.98000 7.433
17.00000 3.613
17.02000 0.126
17.04000 0.829
17.06000 7.052
17.08000 10.987
17.10000 5.070
17.12000 0.750
17.14000 -3.198
17.16000 4.976
17.18000 16.445
17.20000 11.853
17.22000 11.413
17.24000 14.651
17.26000 6.918
17.28000 8.935
17.30000 10.028
17.32000 6.900
17.34000 6.838
17.36000 9.138
17.38000 12.676
17.40000 7.692
17.42000 13.421
17.44000 10.168
17.46000 4.002
17.48000 -2.190
17.50000 4.874
17.52000 9.900
17.54000 4.637
17.56000 7.167
17.58000 10.753
17.60000 10.596
17.62000 14.649
17.64000 4.452
17.66000 6.607
17.68000 12.790
17.70000 9.934
17.72000 9.218
17.74000 6.818
17.76000 11.455
17.78000 18.555
17.80000 7.167
17.82000 7.552
17.84000 15.294
17.86000 12.878
17.88000 5.532
17.90000 5.868
17.92000 6.532
17.94000 6.416
17.96000 7.701
17.98000 -0.441
18.00000 5.526
18.02000 9.934
18.04000 10.406
18.06000 8.671
18.08000 6.527
18.10000 4.059
18.12000 10.844
18.14000 5.883
18.16000 10.953
18.18000 13.609
18.20000 14.912
18.22000 9.453
18.24000 12.328
18.26000 9.490
18.28000 2.418
18.30000 0.219
18.32000 -0.267
18.34000 3.708
18.36000 13.139
18.38000 14.185
18.40000 5.633
18.42000 8.198
18.44000 12.114
18.46000 1.540
18.48000 -0.216
18.50000 -0.221
18.52000 5.339
18.54000 11.952
18.56000 9.272
18.58000 1.111
18.60000 -4.301
18.62000 2.879
18.64000 3.940
18.66000 7.973
18.68000 8.072
18.70000 6.750
18.72000 7.739
18.74000 9.041
18.76000 10.029
18.78000 8.485
18.80000 2.186
18.82000 4.388
18.84000 1.816
18.86000 4.449
18.88000 9.839
18.90000 5.425
18.92000 4.207
18.94000 5.139
18.96000 9.483
18.98000 8.846
19.00000 7.171
19.02000 3.783
19.04000 6.831
19.06000 11.688
19.08000 12.347
19.10000 7.008
19.12000 -0.090
19.14000 7.121
19.16000 6.741
19.18000 9.267
19.20000 11.376
19.22000 9.416
19.24000 8.143
19.26000 10.210
19.28000 5.058
19.30000 4.098
19.32000 8.470
19.34000 11.167
19.36000 8.690
19.38000 16.188
19.40000 11.998
19.42000 4.102
19.44000 5.305
19.46000 8.929
19.48000 8.807
19.50000 1.035
19.52000 4.018
19.54000 5.525
19.56000 6.514
19.58000 8.559
19.60000 12.306
19.62000 1.627
19.64000 -3.962
19.66000 1.100
19.68000 0.166
19.70000 -1.393
19.72000 2.246
19.74000 8.605
19.76000 4.597
19.78000 7.283
19.80000 6.161
19.82000 7.293
19.84000 4.010
19.86000 6.666
19.88000 6.925
19.90000 10.049
19.92000 6.652
19.94000 10.564
19.96000 12.967
19.98000 6.039
20.00000 8.002
20.02000 3.135
20.04000 5.508
20.06000 9.498
20.08000 9.161
20.10000 0.405
20.12000 -4.224
20.14000 2.514
20.16000 8.845
20.18000 4.817
20.20000 3.974
20.22000 4.404
20.24000 6.162
20.26000 7.182
20.28000 3.053
20.30000 8.115
20.32000 4.438
20.34000 3.989
20.36000 16.455
20.38000 9.953
20.40000 4.296
20.42000 3.644
20.44000 4.030
20.46000 9.043
20.48000 7.783
20.50000 2.386
20.52000 0.343
20.54000 0.184
20.56000 -0.439
20.58000 4.543
20.60000 5.345
20.62000 2.209
20.64000 4.735
20.66000 8.046
20.68000 4.735
20.70000 6.610
20.72000 7.349
20.74000 3.819
20.76000 5.935
20.78000 6.392
20.80000 7.546
20.82000 6.558
20.84000 2.338
20.86000 3.534
20.88000 8.816
20.90000 8.941
20.92000 2.009
20.94000 0.680
20.96000 6.910
20.98000 5.010
21.00000 1.528
21.02000 4.871
21.04000 5.666
21.06000 4.381
21.08000 4.187
21.10000 4.024
21.12000 6.448
21.14000 6.117
21.16000 2.960
21.18000 5.473
21.20000 2.947
21.22000 1.488
21.24000 6.596
21.26000 6.701
21.28000 9.315
21.30000 9.519
21.32000 5.932
21.34000 1.864
21.36000 -4.083
21.38000 -2.271
21.40000 10.261
21.42000 9.767
21.44000 5.316
21.46000 3.654
21.48000 6.570
21.50000 6.688
21.52000 7.224
21.54000 4.632
21.56000 3.513
21.58000 3.934
21.60000 -2.903
21.62000 -2.647
21.64000 3.623
21.66000 4.691
21.68000 10.223
21.70000 7.955
21.72000 2.997
21.74000 -3.582
21.76000 -2.436
21.78000 -0.701
21.80000 2.644
21.82000 8.066
21.84000 0.987
21.86000 4.093
21.88000 -0.432
21.90000 1.179
21.92000 5.508
21.94000 5.615
21.96000 6.153
21.98000 4.271
22.00000 4.398
22.02000 7.984
22.04000 11.712
22.06000 11.416
22.08000 9.152
22.10000 -1.801
22.12000 -3.666
22.14000 3.825
22.16000 1.947
22.18000 2.594
22.20000 1.132
22.22000 6.093
22.24000 5.832
22.26000 -4.133
22.28000 3.194
22.30000 -0.269
22.32000 2.398
22.34000 11.886
22.36000 10.839
22.38000 13.405
22.40000 7.715
22.42000 6.556
22.44000 3.414
22.46000 9.820
22.48000 9.386
22.50000 1.420
22.52000 6.603
22.54000 -0.109
22.56000 5.260
22.58000 5.182
22.60000 8.289
22.62000 8.217
22.64000 5.892
22.66000 6.220
22.68000 10.718
22.70000 7.370
22.72000 8.705
22.74000 1.723
22.76000 5.062
22.78000 4.153
22.80000 2.991
22.82000 5.342
22.84000 6.577
22.86000 1.015
22.88000 6.193
22.90000 5.032
22.92000 13.582
22.94000 0.809
22.96000 -3.437
22.98000 3.468
23.00000 4.794
23.02000 8.644
23.04000 6.514
23.06000 0.611
23.08000 1.177
23.10000 2.465
23.12000 5.997
23.14000 8.395
23.16000 -0.481
23.18000 2.829
23.20000 4.659
23.22000 1.949
23.24000 2.990
23.26000 9.047
23.28000 5.846
23.30000 2.622
23.32000 -1.669
23.34000 -1.515
23.36000 -1.249
23.38000 4.288
23.40000 8.049
23.42000 6.553
23.44000 2.676
23.46000 1.303
23.48000 5.943
23.50000 6.493
23.52000 6.361
23.54000 2.046
23.56000 2.257
23.58000 -0.029
23.60000 3.012
23.62000 7.503
23.64000 9.343
23.66000 8.674
23.68000 3.991
23.70000 5.462
23.72000 6.055
23.74000 3.989
23.76000 4.256
23.78000 4.794
23.80000 -0.428
23.82000 0.548
23.84000 6.915
23.86000 5.474
23.88000 7.597
23.90000 3.946
23.92000 -1.349
23.94000 2.246
23.96000 7.975
23.98000 3.064
24.00000 -1.642
24.02000 -1.130
24.04000 2.281
24.06000 2.628
24.08000 5.962
24.10000 6.141
24.12000 7.458
24.14000 2.069
24.16000 4.330
24.18000 3.689
24.20000 -1.656
24.22000 4.048
24.24000 5.326
24.26000 5.864
24.28000 -0.779
24.30000 -0.234
24.32000 4.485
24.34000 2.490
24.36000 3.594
24.38000 -0.419
24.40000 -3.580
24.42000 0.164
24.44000 -2.119
24.46000 8.941
24.48000 15.062
24.50000 9.134
24.52000 -0.918
24.54000 -3.981
24.56000 -3.938
24.58000 3.628
24.60000 5.621
24.62000 9.180
24.64000 7.244
24.66000 11.053
24.68000 8.349
24.70000 4.434
24.72000 5.243
24.74000 4.036
24.76000 -0.019
24.78000 -3.973
24.80000 3.109
24.82000 6.044
24.84000 10.850
24.86000 4.803
24.88000 2.736
24.90000 8.880
24.92000 11.067
24.94000 4.538
24.96000 0.859
24.98000 0.819
25.00000 1.279
25.02000 7.168
25.04000 7.695
25.06000 0.726
25.08000 -2.283
25.10000 3.299
25.12000 3.931
25.14000 2.405
25.16000 -1.049
25.18000 1.491
25.20000 -2.673
25.22000 -0.217
25.24000 1.322
25.26000 -0.093
25.28000 -1.844
25.30000 1.255
25.32000 0.938
25.34000 7.748
25.36000 4.825
25.38000 -2.229
25.40000 -2.353
25.42000 4.878
25.44000 8.879
25.46000 3.539
25.48000 0.789
25.50000 -0.745
25.52000 -0.505
25.54000 7.427
25.56000 4.090
25.58000 3.817
25.60000 -2.167
25.62000 2.590
25.64000 1.240
25.66000 1.861
25.68000 2.405
25.70000 4.578
25.72000 4.822
25.74000 2.744
25.76000 2.028
25.78000 -3.300
25.80000 2.573
25.82000 5.133
25.84000 -0.266
25.86000 2.814
25.88000 5.209
25.90000 1.511
25.92000 2.473
25.94000 1.697
25.96000 1.491
25.98000 -3.330
26.00000 -2.848
26.02000 -1.703
26.04000 -3.128
26.06000 2.650
26.08000 3.025
26.10000 -0.191
26.12000 4.763
26.14000 4.079
26.16000 -1.366
26.18000 -0.209
26.20000 3.757
26.22000 4.339
26.24000 -0.769
26.26000 1.575
26.28000 6.031
26.30000 4.296
26.32000 6.775
26.34000 3.915
26.36000 -0.373
26.38000 1.460
26.40000 -0.062
26.42000 -0.781
26.44000 4.485
26.46000 4.780
26.48000 0.175
26.50000 -2.320
26.52000 7.095
26.54000 6.009
26.56000 7.310
26.58000 2.256
26.60000 -2.838
26.62000 -2.798
26.64000 3.411
26.66000 4.751
26.68000 6.062
26.70000 4.056
26.72000 -0.166
26.74000 -2.639
26.76000 -3.114
26.78000 -1.116
26.80000 -1.726
26.82000 -3.149
26.84000 0.345
26.86000 2.203
26.88000 0.383
26.90000 0.071
26.92000 -0.936
26.94000 -1.809
26.96000 4.954
26.98000 6.673
27.00000 1.184
27.02000 2.210
27.04000 8.694
27.06000 11.992
27.08000 3.222
27.10000 2.004
27.12000 -3.887
27.14000 -3.691
27.16000 -0.487
27.18000 -2.166
27.20000 2.885
27.22000 5.107
27.24000 5.603
27.26000 4.101
27.28000 4.815
27.30000 11.529
27.32000 5.157
27.34000 6.411
27.36000 8.207
27.38000 9.717
27.40000 9.983
27.42000 3.753
27.44000 8.833
27.46000 7.895
27.48000 5.317
27.50000 4.997
27.52000 3.490
27.54000 -2.773
27.56000 -1.765
27.58000 7.088
27.60000 3.957
27.62000 7.063
27.64000 3.799
27.66000 2.449
27.68000 1.272
27.70000 -0.716
27.72000 2.552
27.74000 3.984
27.76000 -0.346
27.78000 2.827
27.80000 0.634
27.82000 4.482
27.84000 6.541
27.86000 5.528
27.88000 2.722
27.90000 -0.062
27.92000 1.090
27.94000 3.516
27.96000 2.775
27.98000 -0.852
28.00000 1.342
28.02000 -1.205
28.04000 1.682
28.06000 8.680
28.08000 6.825
28.10000 3.456
28.12000 2.265
28.14000 2.680
28.16000 4.037
28.18000 1.042
28.20000 -2.252
28.22000 5.361
28.24000 4.024
28.26000 2.028
28.28000 1.087
28.30000 2.428
28.32000 1.727
28.34000 6.328
28.36000 2.238
28.38000 -1.617
28.40000 1.119
28.42000 8.849
28.44000 11.316
28.46000 7.217
28.48000 2.518
28.50000 4.987
28.52000 1.908
28.54000 -0.476
28.56000 -1.862
28.58000 -2.285
28.60000 1.387
28.62000 2.698
28.64000 2.132
28.66000 7.032
28.68000 7.184
28.70000 3.256
28.72000 -1.896
28.74000 -3.371
28.76000 -3.787
28.78000 -2.761
28.80000 4.050
28.82000 6.841
28.84000 3.864
28.86000 1.981
28.88000 0.902
28.90000 2.553
28.92000 3.205
28.94000 10.340
28.96000 1.898
28.98000 2.800
29.00000 -0.709
29.02000 4.003
29.04000 3.280
29.06000 2.987
29.08000 -0.880
29.10000 -0.916
29.12000 4.311
29.14000 5.874
29.16000 -0.093
29.18000 3.159
29.20000 0.993
29.22000 3.153
29.24000 -1.722
29.26000 1.649
29.28000 8.058
29.30000 6.545
29.32000 6.339
29.34000 6.674
29.36000 -0.120
29.38000 -0.962
29.40000 5.034
29.42000 5.415
29.44000 6.397
29.46000 3.248
29.48000 6.290
29.50000 6.210
29.52000 5.876
29.54000 2.443
29.56000 4.580
29.58000 1.297
29.60000 1.821
29.62000 9.384
29.64000 11.855
29.66000 4.973
29.68000 -2.517
29.70000 -0.480
29.72000 1.553
29.74000 4.331
29.76000 5.853
29.78000 0.461
29.80000 -0.233
29.82000 2.319
29.84000 -1.461
29.86000 -0.017
29.88000 -0.094
29.90000 5.740
29.92000 4.196
29.94000 3.896
29.96000 2.271
29.98000 6.440
30.00000 1.931
30.02000 -0.452
30.04000 5.301
30.06000 6.258
30.08000 4.660
30.10000 0.200
30.12000 -2.354
30.14000 -3.723
30.16000 -1.434
30.18000 3.302
30.20000 0.318
30.22000 2.799
30.24000 4.447
30.26000 4.654
30.28000 1.207
30.30000 -1.807
30.32000 2.235
30.34000 4.906
30.36000 2.355
30.38000 4.254
30.40000 6.760
30.42000 3.470
30.44000 3.676
30.46000 4.951
30.48000 4.655
30.50000 -0.253
30.52000 -0.730
30.54000 8.237
30.56000 7.497
30.58000 3.323
30.60000 -0.151
30.62000 2.441
30.64000 6.095
30.66000 3.673
30.68000 3.640
30.70000 6.321
30.72000 6.063
30.74000 -0.102
30.76000 0.341
30.78000 2.070
30.80000 4.258
30.82000 5.348
30.84000 -0.940
30.86000 2.432
30.88000 3.387
30.90000 3.091
30.92000 4.937
30.94000 2.650
30.96000 2.747
30.98000 2.251
31.00000 5.761
31.02000 4.173
31.04000 6.953
31.06000 9.971
31.08000 1.705
31.10000 -0.576
31.12000 4.814
31.14000 5.082
31.16000 3.273
31.18000 4.545
31.20000 4.252
31.22000 4.544
31.24000 5.187
31.26000 2.083
31.28000 -2.104
31.30000 -1.599
31.32000 0.796
31.34000 -0.533
31.36000 0.416
31.38000 5.614
31.40000 3.805
31.42000 4.225
31.44000 4.661
31.46000 0.871
31.48000 2.401
31.50000 4.537
31.52000 2.637
31.54000 -0.757
31.56000 0.535
31.58000 5.348
31.60000 6.107
31.62000 2.762
31.64000 3.005
31.66000 3.816
31.68000 1.664
31.70000 0.569
31.72000 -1.018
31.74000 -3.681
31.76000 3.055
31.78000 2.836
31.80000 1.438
31.82000 -1.779
31.84000 -2.334
31.86000 -1.891
31.88000 2.488
31.90000 5.484
31.92000 3.764
31.94000 4.490
31.96000 3.370
31.98000 2.185
32.00000 5.594
32.02000 1.783
32.04000 3.273
32.06000 2.311
32.08000 -1.461
32.10000 -1.137
32.12000 1.981
32.14000 2.294
32.16000 5.433
32.18000 1.343
32.20000 0.286
32.22000 -1.207
32.24000 0.069
32.26000 5.019
32.28000 7.591
32.30000 6.699
32.32000 3.903
32.34000 4.444
32.36000 2.639
32.38000 -3.657
32.40000 -1.897
32.42000 0.452
32.44000 -2.027
32.46000 -1.682
32.48000 -0.728
32.50000 -0.790
32.52000 1.777
32.54000 1.492
32.56000 -2.850
32.58000 -0.988
32.60000 1.100
32.62000 5.555
32.64000 4.426
32.66000 -0.325
32.68000 1.628
32.70000 -1.325
32.72000 6.035
32.74000 3.166
32.76000 5.800
32.78000 3.392
32.80000 -1.223
32.82000 -0.620
32.84000 2.090
32.86000 1.128
32.88000 3.800
32.90000 9.100
32.92000 8.061
32.94000 4.671
32.96000 5.145
32.98000 2.229
33.00000 0.334
33.02000 -0.102
33.04000 -0.957
33.06000 -0.689
33.08000 2.739
33.10000 2.666
33.12000 3.600
33.14000 -3.647
33.16000 -0.024
33.18000 4.876
33.20000 3.042
33.22000 1.069
33.24000 2.959
33.26000 2.618
33.28000 1.837
33.30000 1.535
33.32000 0.937
33.34000 3.352
33.36000 5.459
33.38000 1.782
33.40000 5.322
33.42000 1.106
33.44000 -2.547
33.46000 2.899
33.48000 4.481
33.50000 1.621
33.52000 -0.455
33.54000 1.690
33.56000 0.155
33.58000 -1.875
33.60000 1.811
33.62000 3.186
33.64000 0.328
33.66000 -2.249
33.68000 0.244
33.70000 7.140
33.72000 5.247
33.74000 7.942
33.76000 5.804
33.78000 1.362
33.80000 1.157
33.82000 0.643
33.84000 3.321
33.86000 6.651
33.88000 3.192
33.90000 -2.301
33.92000 2.018
33.94000 3.670
33.96000 -0.618
33.98000 0.390
34.00000 -1.065
34.02000 2.425
34.04000 4.138
34.06000 6.047
34.08000 3.950
34.10000 8.641
34.12000 8.670
34.14000 6.469
34.16000 3.478
34.18000 3.001
34.20000 7.950
34.22000 5.829
34.24000 5.706
34.26000 7.181
34.28000 8.588
34.30000 1.298
34.32000 -3.518
34.34000 2.158
34.36000 5.290
34.38000 4.193
34.40000 5.411
34.42000 0.893
34.44000 7.947
34.46000 10.506
34.48000 1.097
34.50000 0.291
34.52000 3.500
34.54000 1.173
34.56000 -0.377
34.58000 -3.639
34.60000 1.806
34.62000 1.290
34.64000 3.421
34.66000 5.053
34.68000 3.842
34.70000 -0.784
34.72000 1.867
34.74000 2.897
34.76000 1.552
34.78000 6.411
34.80000 4.389
34.82000 4.820
34.84000 3.917
34.86000 2.269
34.88000 -1.341
34.90000 4.388
34.92000 4.614
34.94000 1.116
34.96000 0.540
34.98000 0.368
35.00000 4.529
35.02000 -0.026
35.04000 -3.618
35.06000 2.880
35.08000 1.851
35.10000 6.071
35.12000 3.226
35.14000 8.671
35.16000 4.112
35.18000 -0.355
35.20000 -1.343
35.22000 1.849
35.24000 3.040
35.26000 5.685
35.28000 5.131
35.30000 -0.154
35.32000 -3.626
35.34000 1.175
35.36000 3.283
35.38000 5.353
35.40000 3.800
35.42000 4.681
35.44000 1.266
35.46000 1.999
35.48000 -0.349
35.50000 3.226
35.52000 3.217
35.54000 1.601
35.56000 1.330
35.58000 -3.380
35.60000 -2.059
35.62000 4.287
35.64000 4.032
35.66000 3.445
35.68000 -0.445
35.70000 4.820
35.72000 1.907
35.74000 1.479
35.76000 3.629
35.78000 0.057
35.80000 7.150
35.82000 7.975
35.84000 5.924
35.86000 2.012
35.88000 3.833
35.90000 1.250
35.92000 3.950
35.94000 5.623
35.96000 0.361
35.98000 -1.715
36.00000 4.319
36.02000 1.317
36.04000 -3.633
36.06000 -0.007
36.08000 6.998
36.10000 3.352
36.12000 2.164
36.14000 2.713
36.16000 5.683
36.18000 4.663
36.20000 2.239
36.22000 1.863
36.24000 1.205
36.26000 3.169
36.28000 2.189
36.30000 10.469
36.32000 4.598
36.34000 1.760
36.36000 3.155
36.38000 3.991
36.40000 1.780
36.42000 0.657
36.44000 5.032
36.46000 6.193
36.48000 6.406
36.50000 4.892
36.52000 2.734
36.54000 6.556
36.56000 3.360
36.58000 2.452
36.60000 4.970
36.62000 8.553
36.64000 9.952
36.66000 4.666
36.68000 2.097
36.70000 2.342
36.72000 -1.207
36.74000 2.870
36.76000 5.064
36.78000 1.964
36.80000 3.365
36.82000 5.672
36.84000 6.597
36.86000 6.877
36.88000 4.308
36.90000 2.699
36.92000 1.471
36.94000 4.802
36.96000 2.101
36.98000 4.231
37.00000 9.309
37.02000 8.025
37.04000 0.745
37.06000 2.545
37.08000 5.127
37.10000 11.090
37.12000 12.797
37.14000 7.994
37.16000 9.650
37.18000 14.246
37.20000 14.127
37.22000 8.633
37.24000 6.837
37.26000 7.077
37.28000 8.412
37.30000 7.319
37.32000 8.943
37.34000 14.101
37.36000 13.783
37.38000 11.272
37.40000 9.078
37.42000 5.807
37.44000 8.212
37.46000 12.228
37.48000 8.335
37.50000 11.335
37.52000 11.987
37.54000 10.710
37.56000 15.846
37.58000 19.386
37.60000 20.397
37.62000 19.841
37.64000 16.750
37.66000 16.468
37.68000 21.641
37.70000 21.859
37.72000 16.251
37.74000 21.761
37.76000 23.417
37.78000 19.867
37.80000 21.334
37.82000 21.785
37.84000 19.296
37.86000 24.045
37.88000 26.779
37.90000 23.707
37.92000 22.943
37.94000 24.611
37.96000 32.526
37.98000 33.534
38.00000 28.376
38.02000 29.178
38.04000 30.940
38.06000 32.611
38.08000 29.835
38.10000 31.586
38.12000 30.394
38.14000 32.670
38.16000 39.290
38.18000 43.911
38.20000 48.506
38.22000 53.344
38.24000 47.231
38.26000 50.935
38.28000 48.853
38.30000 53.186
38.32000 56.617
38.34000 59.000
38.36000 61.237
38.38000 62.290
38.40000 62.746
38.42000 66.440
38.44000 66.338
38.46000 78.432
38.48000 80.531
38.50000 81.001
38.52000 82.752
38.54000 89.124
38.56000 92.007
38.58000 92.644
38.60000 103.746
38.62000 107.015
38.64000 110.296
38.66000 120.250
38.68000 123.685
38.70000 127.757
38.72000 137.255
38.74000 152.477
38.76000 156.326
38.78000 164.496
38.80000 166.094
38.82000 187.887
38.84000 195.740
38.86000 210.818
38.88000 218.782
38.90000 226.006
38.92000 233.767
38.94000 249.688
38.96000 269.219
38.98000 286.772
39.00000 304.848
39.02000 316.987
39.04000 329.850
39.06000 345.105
39.08000 353.421
39.10000 372.057
39.12000 384.176
39.14000 400.486
39.16000 416.808
39.18000 423.214
39.20000 431.725
39.22000 446.980
39.24000 455.877
39.26000 448.607
39.28000 450.291
39.30000 450.769
39.32000 445.024
39.34000 446.475
39.36000 439.503
39.38000 425.371
39.40000 416.039
39.42000 401.991
39.44000 392.891
39.46000 375.793
39.48000 368.651
39.50000 358.218
39.52000 338.135
39.54000 323.631
39.56000 312.593
39.58000 294.572
39.60000 279.889
39.62000 257.010
39.64000 246.715
39.66000 231.468
39.68000 218.873
39.70000 205.290
39.72000 190.955
39.74000 179.235
39.76000 172.936
39.78000 160.127
39.80000 145.979
39.82000 141.774
39.84000 132.723
39.86000 130.535
39.88000 122.968
39.90000 115.980
39.92000 101.954
39.94000 99.132
39.96000 90.561
39.98000 84.581
40.00000 75.347
40.02000 73.413
40.04000 69.705
40.06000 64.142
40.08000 62.197
40.10000 62.730
40.12000 54.471
40.14000 45.860
40.16000 49.017
40.18000 49.327
40.20000 44.690
40.22000 39.939
40.24000 42.745
40.26000 39.321
40.28000 35.017
40.30000 33.697
40.32000 31.623
40.34000 27.243
40.36000 24.807
40.38000 26.100
40.40000 25.211
40.42000 20.625
40.44000 22.323
40.46000 23.998
40.48000 20.927
40.50000 22.900
40.52000 20.605
40.54000 19.778
40.56000 21.594
40.58000 14.412
40.60000 17.123
40.62000 15.638
40.64000 16.230
40.66000 14.365
40.68000 15.461
40.70000 13.265
40.72000 13.630
40.74000 7.539
40.76000 8.526
40.78000 10.529
40.80000 9.010
40.82000 11.131
40.84000 9.327
40.86000 8.647
40.88000 5.766
40.90000 7.568
40.92000 7.993
40.94000 11.933
40.96000 12.211
40.98000 11.647
41.00000 9.925
41.02000 4.698
41.04000 5.189
41.06000 5.065
41.08000 6.777
41.10000 4.007
41.12000 1.229
41.14000 2.879
41.16000 1.773
41.18000 2.179
41.20000 2.277
41.22000 6.923
41.24000 5.544
41.26000 4.736
41.28000 1.232
41.30000 1.221
41.32000 2.129
41.34000 -0.709
41.36000 0.139
41.38000 2.751
41.40000 0.965
41.42000 -0.873
41.44000 0.618
41.46000 2.886
41.48000 -2.233
41.50000 -0.323
41.52000 1.869
41.54000 1.963
41.56000 1.754
41.58000 0.674
41.60000 2.683
41.62000 2.846
41.64000 4.002
41.66000 1.106
41.68000 2.447
41.70000 -0.645
41.72000 2.641
41.74000 0.673
41.76000 -0.702
41.78000 1.720
41.80000 2.404
41.82000 2.586
41.84000 -2.752
41.86000 -1.938
41.88000 -3.392
41.90000 -0.802
41.92000 -3.144
41.94000 -3.381
41.96000 -2.366
41.98000 -3.072
42.00000 -1.538
42.02000 2.509
42.04000 3.818
42.06000 1.717
42.08000 -1.878
42.10000 0.105
42.12000 -0.050
42.14000 0.158
42.16000 1.560
42.18000 0.805
42.20000 -1.587
42.22000 0.456
42.24000 0.926
42.26000 1.474
42.28000 -2.887
42.30000 -0.782
42.32000 -0.268
42.34000 0.103
42.36000 -1.463
42.38000 -1.464
42.40000 -0.807
42.42000 -3.294
42.44000 -1.640
42.46000 1.318
42.48000 0.639
42.50000 1.466
42.52000 -2.884
42.54000 -2.346
42.56000 4.834
42.58000 5.575
42.60000 1.972
42.62000 1.396
42.64000 0.919
42.66000 2.043
42.68000 4.975
42.70000 4.978
42.72000 3.137
42.74000 0.732
42.76000 -3.244
42.78000 -0.339
42.80000 -0.344
42.82000 -1.000
42.84000 2.135
42.86000 2.120
42.88000 0.689
42.90000 -1.232
42.92000 0.799
42.94000 3.950
42.96000 2.270
42.98000 2.232
43.00000 -1.806
43.02000 5.914
43.04000 5.142
43.06000 -0.937
43.08000 1.121
43.10000 -1.969
43.12000 0.348
43.14000 -2.253
43.16000 -2.647
43.18000 -1.646
43.20000 3.175
43.22000 2.816
43.24000 1.072
43.26000 2.710
43.28000 0.217
43.30000 1.023
43.32000 -2.229
43.34000 -0.210
43.36000 2.175
43.38000 1.176
43.40000 -0.415
43.42000 -1.221
43.44000 0.873
43.46000 -1.918
43.48000 -0.188
43.50000 2.888
43.52000 -0.480
43.54000 -1.676
43.56000 1.117
43.58000 1.962
43.60000 1.212
43.62000 3.699
43.64000 2.082
43.66000 -0.435
43.68000 0.911
43.70000 2.119
43.72000 1.831
43.74000 3.991
43.76000 -0.377
43.78000 2.432
43.80000 4.151
43.82000 0.808
43.84000 -3.152
43.86000 0.690
43.88000 2.559
43.90000 -1.354
43.92000 0.919
43.94000 3.125
43.96000 4.332
43.98000 3.371
44.00000 0.230
44.02000 0.456
44.04000 0.968
44.06000 1.120
44.08000 1.415
44.10000 1.911
44.12000 2.798
44.14000 0.474
44.16000 2.361
44.18000 3.470
44.20000 4.413
44.22000 4.256
44.24000 5.518
44.26000 1.252
44.28000 0.821
44.30000 1.573
44.32000 0.210
44.34000 2.780
44.36000 3.075
44.38000 5.296
44.40000 4.198
44.42000 1.961
44.44000 1.677
44.46000 3.621
44.48000 0.533
44.50000 2.969
44.52000 2.990
44.54000 3.841
44.56000 2.721
44.58000 3.901
44.60000 0.220
44.62000 -1.451
44.64000 3.402
44.66000 6.850
44.68000 8.021
44.70000 7.193
44.72000 7.876
44.74000 4.261
44.76000 3.489
44.78000 8.875
44.80000 11.113
44.82000 12.200
44.84000 10.505
44.86000 10.676
44.88000 12.352
44.90000 13.385
44.92000 14.098
44.94000 13.610
44.96000 12.518
44.98000 12.844
45.00000 14.948
45.02000 17.007
45.04000 19.521
45.06000 17.675
45.08000 16.254
45.10000 19.320
45.12000 20.526
45.14000 20.541
45.16000 22.821
45.18000 28.293
45.20000 28.119
45.22000 27.773
45.24000 29.055
45.26000 35.058
45.28000 33.862
45.30000 31.125
45.32000 32.243
45.34000 35.684
45.36000 36.006
45.38000 36.886
45.40000 40.802
45.42000 42.666
45.44000 43.977
45.46000 41.374
45.48000 46.202
45.50000 52.009
45.52000 52.977
45.54000 53.404
45.56000 52.085
45.58000 57.202
45.60000 57.074
45.62000 60.103
45.64000 67.851
45.66000 62.816
45.68000 62.559
45.70000 65.644
45.72000 66.946
45.74000 66.864
45.76000 70.523
45.78000 66.523
45.80000 66.719
45.82000 72.835
45.84000 72.521
45.86000 75.462
45.88000 74.307
45.90000 71.131
45.92000 75.122
45.94000 82.000
45.96000 74.347
45.98000 69.812
46.00000 68.594
46.02000 70.713
46.04000 71.171
46.06000 70.591
46.08000 68.105
46.10000 65.657
46.12000 71.205
46.14000 66.285
46.16000 66.762
46.18000 66.560
46.20000 60.606
46.22000 59.472
46.24000 56.035
46.26000 56.516
46.28000 51.085
46.30000 51.404
46.32000 50.433
46.34000 49.157
46.36000 47.682
46.38000 46.397
46.40000 44.980
46.42000 43.513
46.44000 36.202
46.46000 33.157
46.48000 37.115
46.50000 34.246
46.52000 31.408
46.54000 31.589
46.56000 28.166
46.58000 28.782
46.60000 23.254
46.62000 21.161
46.64000 20.585
46.66000 17.306
46.68000 10.929
46.70000 17.152
46.72000 18.036
46.74000 14.362
46.76000 9.254
46.78000 9.859
46.80000 8.897
46.82000 8.573
46.84000 9.183
46.86000 10.133
46.88000 7.354
46.90000 5.923
46.92000 6.133
46.94000 8.656
46.96000 5.515
46.98000 1.471
47.00000 4.673
47.02000 4.140
47.04000 2.222
47.06000 -0.100
47.08000 6.189
47.10000 6.864
47.12000 3.873
47.14000 3.276
47.16000 2.552
47.18000 1.176
47.20000 6.907
47.22000 0.781
47.24000 1.763
47.26000 2.047
47.28000 0.889
47.30000 -1.303
47.32000 -2.184
47.34000 0.390
47.36000 -0.484
47.38000 -2.533
47.40000 1.971
47.42000 3.972
47.44000 6.551
47.46000 4.069
47.48000 -2.770
47.50000 -0.484
47.52000 3.502
47.54000 3.491
47.56000 -0.896
47.58000 -0.103
47.60000 3.150
47.62000 -1.252
47.64000 -1.932
47.66000 -0.721
47.68000 1.694
47.70000 2.357
47.72000 1.306
47.74000 1.974
47.76000 2.156
47.78000 -2.712
47.80000 -1.929
47.82000 3.042
47.84000 2.440
47.86000 -1.636
47.88000 -2.202
47.90000 -0.896
47.92000 3.391
47.94000 0.523
47.96000 -2.128
47.98000 -0.618
48.00000 -1.117
48.02000 -0.592
48.04000 -1.148
48.06000 -1.669
48.08000 2.721
48.10000 -0.969
48.12000 1.902
48.14000 5.087
48.16000 6.556
48.18000 3.578
48.20000 -0.378
48.22000 2.774
48.24000 1.250
48.26000 -1.848
48.28000 -2.659
48.30000 -0.654
48.32000 5.744
48.34000 4.792
48.36000 4.574
48.38000 6.640
48.40000 6.784
48.42000 3.564
48.44000 2.160
48.46000 1.855
48.48000 -0.912
48.50000 0.623
48.52000 -0.631
48.54000 -0.653
48.56000 1.531
48.58000 2.200
48.60000 4.133
48.62000 3.551
48.64000 1.333
48.66000 3.351
48.68000 1.526
48.70000 1.667
48.72000 -1.166
48.74000 -0.155
48.76000 -0.030
48.78000 5.116
48.80000 6.889
48.82000 2.433
48.84000 2.887
48.86000 3.057
48.88000 3.407
48.90000 4.310
48.92000 2.183
48.94000 1.281
48.96000 2.291
48.98000 2.744
49.00000 1.926
49.02000 1.618
49.04000 2.820
49.06000 2.391
49.08000 5.559
49.10000 3.717
49.12000 4.269
49.14000 8.985
49.16000 9.453
49.18000 4.497
49.20000 0.599
49.22000 -2.544
49.24000 1.026
49.26000 0.882
49.28000 3.630
49.30000 5.961
49.32000 2.021
49.34000 2.150
49.36000 1.183
49.38000 0.447
49.40000 2.184
49.42000 4.825
49.44000 5.069
49.46000 5.458
49.48000 7.601
49.50000 4.990
49.52000 3.827
49.54000 4.874
49.56000 1.050
49.58000 -0.093
49.60000 2.636
49.62000 6.902
49.64000 3.130
49.66000 2.404
49.68000 0.847
49.70000 0.511
49.72000 3.273
49.74000 6.473
49.76000 3.133
49.78000 3.201
49.80000 3.833
49.82000 6.089
49.84000 2.853
49.86000 4.973
49.88000 0.723
49.90000 1.366
49.92000 4.363
49.94000 3.263
49.96000 2.314
49.98000 4.508
50.00000 3.745
50.02000 -0.044
50.04000 -1.793
50.06000 0.685
50.08000 5.615
50.10000 4.314
50.12000 5.986
50.14000 6.524
50.16000 4.123
50.18000 4.467
50.20000 0.351
50.22000 1.548
50.24000 0.760
50.26000 2.656
50.28000 2.807
50.30000 1.103
50.32000 2.959
50.34000 2.908
50.36000 3.145
50.38000 8.003
50.40000 5.216
50.42000 0.617
50.44000 -0.318
50.46000 3.711
50.48000 3.868
50.50000 2.162
50.52000 4.568
50.54000 5.121
50.56000 4.354
50.58000 4.952
50.60000 4.115
50.62000 1.779
50.64000 2.816
50.66000 1.934
50.68000 2.635
50.70000 1.267
50.72000 1.546
50.74000 2.144
50.76000 2.640
50.78000 1.011
50.80000 -2.529
50.82000 1.237
50.84000 3.920
50.86000 3.675
50.88000 0.576
50.90000 0.641
50.92000 0.683
50.94000 -0.120
50.96000 1.590
50.98000 1.268
51.00000 0.815
51.02000 3.961
51.04000 4.802
51.06000 1.295
51.08000 -2.298
51.10000 -0.927
51.12000 -2.246
51.14000 -1.455
51.16000 0.046
51.18000 0.962
51.20000 2.949
51.22000 5.362
51.24000 -0.280
51.26000 -2.458
51.28000 -1.967
51.30000 -1.978
51.32000 4.427
51.34000 4.837
51.36000 -0.289
51.38000 -1.486
51.40000 3.554
51.42000 0.695
51.44000 4.063
51.46000 2.749
51.48000 2.007
51.50000 1.743
51.52000 3.627
51.54000 -2.485
51.56000 -1.247
51.58000 4.714
51.60000 2.877
51.62000 5.145
51.64000 3.101
51.66000 1.117
51.68000 0.916
51.70000 -0.325
51.72000 -1.049
51.74000 5.351
51.76000 5.692
51.78000 6.072
51.80000 4.891
51.82000 4.536
51.84000 2.400
51.86000 2.832
51.88000 4.158
51.90000 5.391
51.92000 3.877
51.94000 4.341
51.96000 0.546
51.98000 3.751
52.00000 7.176
52.02000 6.138
52.04000 1.915
52.06000 1.079
52.08000 0.084
52.10000 0.725
52.12000 0.318
52.14000 4.533
52.16000 3.934
52.18000 1.550
52.20000 1.694
52.22000 0.057
52.24000 2.127
52.26000 4.215
52.28000 4.428
52.30000 1.980
52.32000 1.849
52.34000 4.810
52.36000 3.483
52.38000 -0.775
52.40000 0.453
52.42000 1.326
52.44000 3.725
52.46000 1.119
52.48000 1.795
52.50000 0.858
52.52000 2.970
52.54000 3.744
52.56000 6.116
52.58000 6.192
52.60000 3.505
52.62000 3.405
52.64000 3.355
52.66000 1.830
52.68000 1.356
52.70000 0.344
52.72000 2.258
52.74000 3.432
52.76000 0.581
52.78000 -0.012
52.80000 0.831
52.82000 -2.370
52.84000 -1.540
52.86000 1.376
52.88000 2.972
52.90000 1.969
52.92000 4.032
52.94000 4.570
52.96000 3.044
52.98000 2.813
53.00000 3.836
53.02000 0.737
53.04000 0.062
53.06000 -0.299
53.08000 3.710
53.10000 5.266
53.12000 4.771
53.14000 3.289
53.16000 3.813
53.18000 4.494
53.20000 3.299
53.22000 -0.072
53.24000 3.396
53.26000 3.903
53.28000 2.402
53.30000 -1.236
53.32000 3.197
53.34000 6.826
53.36000 9.579
53.38000 3.740
53.40000 1.459
53.42000 5.548
53.44000 4.992
53.46000 1.630
53.48000 0.550
53.50000 -1.474
53.52000 -2.414
53.54000 1.248
53.56000 -0.313
53.58000 0.790
53.60000 4.763
53.62000 7.254
53.64000 6.039
53.66000 6.674
53.68000 4.535
53.70000 2.185
53.72000 -0.100
53.74000 2.191
53.76000 5.486
53.78000 3.079
53.80000 4.491
53.82000 3.818
53.84000 2.597
53.86000 5.207
53.88000 3.557
53.90000 0.385
53.92000 -0.132
53.94000 5.606
53.96000 5.605
53.98000 4.990
54.00000 4.275
54.02000 5.444
54.04000 3.965
54.06000 2.603
54.08000 1.942
54.10000 1.347
54.12000 2.370
54.14000 1.929
54.16000 0.557
54.18000 1.123
54.20000 -0.925
54.22000 -1.521
54.24000 1.590
54.26000 3.876
54.28000 1.871
54.30000 -2.426
54.32000 -0.199
54.34000 3.086
54.36000 1.205
54.38000 3.726
54.40000 2.631
54.42000 2.210
54.44000 2.696
54.46000 -0.225
54.48000 0.748
54.50000 2.302
54.52000 7.674
54.54000 6.255
54.56000 4.966
54.58000 2.332
54.60000 4.408
54.62000 4.202
54.64000 7.628
54.66000 5.066
54.68000 3.891
54.70000 4.331
54.72000 0.314
54.74000 2.110
54.76000 0.661
54.78000 0.024
54.80000 -1.296
54.82000 -2.143
54.84000 -0.078
54.86000 2.669
54.88000 -2.416
54.90000 -0.405
54.92000 0.805
54.94000 2.944
54.96000 3.272
54.98000 5.077
55.00000 -0.597
55.02000 -0.739
55.04000 2.935
55.06000 4.202
55.08000 0.062
55.10000 -2.419
55.12000 -1.634
55.14000 -0.555
55.16000 0.018
55.18000 -1.497
55.20000 3.088
55.22000 2.207
55.24000 3.283
55.26000 2.341
55.28000 -0.071
55.30000 2.809
55.32000 2.044
55.34000 3.361
55.36000 2.844
55.38000 2.707
55.40000 1.330
55.42000 5.004
55.44000 3.542
55.46000 2.842
55.48000 -0.288
55.50000 1.428
55.52000 4.030
55.54000 3.254
55.56000 2.505
55.58000 1.629
55.60000 1.528
55.62000 2.216
55.64000 -0.563
55.66000 -1.694
55.68000 2.451
55.70000 4.019
55.72000 3.759
55.74000 0.083
55.76000 -1.309
55.78000 1.275
55.80000 1.482
55.82000 0.844
55.84000 2.804
55.86000 3.843
55.88000 2.780
55.90000 1.217
55.92000 1.254
55.94000 1.566
55.96000 3.881
55.98000 1.520
56.00000 1.885
56.02000 -0.435
56.04000 -0.631
56.06000 -1.907
56.08000 0.635
56.10000 -1.608
56.12000 1.017
56.14000 2.405
56.16000 -0.268
56.18000 -2.416
56.20000 -0.191
56.22000 2.770
56.24000 6.456
56.26000 1.754
56.28000 -0.041
56.30000 0.584
56.32000 2.867
56.34000 1.528
56.36000 3.761
56.38000 2.210
56.40000 0.694
56.42000 -2.105
56.44000 -1.572
56.46000 0.501
56.48000 -0.036
56.50000 1.970
56.52000 1.143
56.54000 1.433
56.56000 0.497
56.58000 0.070
56.60000 -0.838
56.62000 0.121
56.64000 0.728
56.66000 2.111
56.68000 0.907
56.70000 -0.413
56.72000 0.123
56.74000 -0.084
56.76000 -0.604
56.78000 -2.396
56.80000 -0.458
56.82000 1.692
56.84000 2.464
56.86000 -1.139
56.88000 0.565
56.90000 2.368
56.92000 5.988
56.94000 3.889
56.96000 4.121
56.98000 0.056
57.00000 -1.483
57.02000 1.040
57.04000 -0.700
57.06000 -1.660
57.08000 -1.270
57.10000 -0.224
57.12000 2.124
57.14000 3.865
57.16000 4.721
57.18000 3.109
57.20000 3.312
57.22000 -0.392
57.24000 1.418
57.26000 -0.177
57.28000 2.482
57.30000 -2.367
57.32000 2.253
57.34000 4.283
57.36000 -0.217
57.38000 1.129
57.40000 1.038
57.42000 -0.081
57.44000 -1.327
57.46000 -0.255
57.48000 2.479
57.50000 2.334
57.52000 2.036
57.54000 0.139
57.56000 -0.937
57.58000 0.356
57.60000 0.618
57.62000 1.986
57.64000 0.697
57.66000 -0.299
57.68000 2.398
57.70000 0.884
57.72000 -0.743
57.74000 -0.243
57.76000 0.257
57.78000 -0.140
57.80000 1.186
57.82000 5.459
57.84000 3.784
57.86000 4.098
57.88000 0.706
57.90000 0.776
57.92000 1.548
57.94000 4.300
57.96000 1.941
57.98000 -0.117
58.00000 -0.406
58.02000 0.556
58.04000 1.872
58.06000 -0.871
58.08000 -2.167
58.10000 0.658
58.12000 -0.610
58.14000 0.161
58.16000 2.352
58.18000 3.676
58.20000 0.996
58.22000 -0.996
58.24000 3.072
58.26000 0.051
58.28000 -1.731
58.30000 2.644
58.32000 0.081
58.34000 3.859
58.36000 3.621
58.38000 5.524
58.40000 2.549
58.42000 4.756
58.44000 3.860
58.46000 1.095
58.48000 0.880
58.50000 1.225
58.52000 1.287
58.54000 2.410
58.56000 -1.282
58.58000 -2.317
58.60000 3.744
58.62000 3.835
58.64000 2.689
58.66000 3.546
58.68000 4.144
58.70000 6.568
58.72000 5.458
58.74000 3.257
58.76000 0.535
58.78000 -0.099
58.80000 0.995
58.82000 0.791
58.84000 2.987
58.86000 0.850
58.88000 -0.976
58.90000 1.178
58.92000 0.520
58.94000 0.027
58.96000 3.224
58.98000 3.302
59.00000 -0.165
59.02000 0.965
59.04000 4.183
59.06000 5.460
59.08000 5.208
59.10000 3.722
59.12000 -0.378
59.14000 -0.902
59.16000 0.079
59.18000 1.355
59.20000 0.064
59.22000 1.431
59.24000 0.835
59.26000 1.491
59.28000 2.745
59.30000 -1.311
59.32000 -0.059
59.34000 -0.238
59.36000 -1.153
59.38000 4.118
59.40000 2.719
59.42000 -1.861
59.44000 0.830
59.46000 2.724
59.48000 -0.486
59.50000 1.464
59.52000 3.391
59.54000 5.896
59.56000 -0.254
59.58000 -0.220
59.60000 0.395
59.62000 -0.842
59.64000 1.829
59.66000 1.593
59.68000 1.090
59.70000 1.116
59.72000 2.677
59.74000 -1.242
59.76000 -0.006
59.78000 1.604
59.80000 2.443
59.82000 -1.674
59.84000 -2.307
59.86000 -0.259
59.88000 -1.787
59.90000 -0.025
59.92000 -1.475
59.94000 0.525
59.96000 -1.634
59.98000 -2.163
60.00000 -2.239
60.02000 -0.029
60.04000 2.783
60.06000 1.254
60.08000 -0.116
60.10000 2.909
60.12000 1.783
60.14000 2.339
60.16000 4.230
60.18000 1.660
60.20000 2.685
60.22000 1.523
60.24000 3.757
60.26000 2.184
60.28000 3.803
60.30000 1.233
60.32000 0.111
60.34000 3.286
60.36000 0.488
60.38000 0.043
60.40000 1.510
60.42000 3.525
60.44000 0.430
60.46000 0.315
60.48000 3.225
60.50000 4.007
60.52000 2.463
60.54000 1.368
60.56000 1.449
60.58000 3.419
60.60000 0.587
60.62000 0.788
60.64000 -2.263
60.66000 1.162
60.68000 4.525
60.70000 0.093
60.72000 1.722
60.74000 3.578
60.76000 3.803
60.78000 1.132
60.80000 1.186
60.82000 -1.254
60.84000 -0.729
60.86000 0.001
60.88000 0.622
60.90000 1.790
60.92000 0.405
60.94000 1.145
60.96000 1.890
60.98000 0.564
61.00000 0.665
61.02000 -0.697
61.04000 0.948
61.06000 1.161
61.08000 3.904
61.10000 3.107
61.12000 1.319
61.14000 -0.527
61.16000 -0.280
61.18000 -0.179
61.20000 0.322
61.22000 1.824
61.24000 1.883
61.26000 1.754
61.28000 4.239
61.30000 1.310
61.32000 0.364
61.34000 0.527
61.36000 -0.567
61.38000 0.179
61.40000 4.144
61.42000 5.584
61.44000 3.966
61.46000 0.321
61.48000 -2.250
61.50000 -1.226
61.52000 2.960
61.54000 2.573
61.56000 -0.695
61.58000 1.382
61.60000 3.769
61.62000 3.798
61.64000 1.831
61.66000 1.458
61.68000 4.138
61.70000 1.854
61.72000 0.315
61.74000 1.084
61.76000 -2.247
61.78000 -0.062
61.80000 0.634
61.82000 1.166
61.84000 2.196
61.86000 -1.719
61.88000 -1.257
61.90000 -1.761
61.92000 2.320
61.94000 0.162
61.96000 0.239
61.98000 -1.101
62.00000 -1.738
62.02000 -2.240
62.04000 0.315
62.06000 3.148
62.08000 1.690
62.10000 2.900
62.12000 4.196
62.14000 4.374
62.16000 -0.150
62.18000 -1.172
62.20000 -0.697
62.22000 0.664
62.24000 -0.913
62.26000 -0.593
62.28000 -0.145
62.30000 1.251
62.32000 5.042
62.34000 0.177
62.36000 -1.761
62.38000 -1.186
62.40000 0.137
62.42000 1.568
62.44000 -0.926
62.46000 2.263
62.48000 6.369
62.50000 3.325
62.52000 2.838
62.54000 1.177
62.56000 -0.053
62.58000 1.100
62.60000 0.246
62.62000 0.838
62.64000 3.578
62.66000 2.935
62.68000 1.749
62.70000 1.625
62.72000 3.816
62.74000 -0.077
62.76000 -2.208
62.78000 0.550
62.80000 1.241
62.82000 1.766
62.84000 0.879
62.86000 1.735
62.88000 4.832
62.90000 4.021
62.92000 -0.406
62.94000 -0.475
62.96000 1.915
62.98000 2.702
63.00000 4.583
63.02000 1.260
63.04000 1.104
63.06000 3.590
63.08000 1.186
63.10000 1.232
63.12000 1.946
63.14000 2.832
63.16000 3.399
63.18000 4.485
63.20000 3.257
63.22000 1.851
63.24000 -0.752
63.26000 1.045
63.28000 -0.215
63.30000 1.457
63.32000 0.310
63.34000 2.005
63.36000 -1.126
63.38000 0.212
63.40000 -0.030
63.42000 0.198
63.44000 1.579
63.46000 0.500
63.48000 -0.680
63.50000 -0.260
63.52000 -0.294
63.54000 -0.683
63.56000 1.723
63.58000 0.438
63.60000 -2.030
63.62000 -0.877
63.64000 -0.704
63.66000 3.048
63.68000 -0.847
63.70000 -1.940
63.72000 -0.954
63.74000 0.435
63.76000 1.660
63.78000 2.901
63.80000 3.409
63.82000 5.004
63.84000 2.047
63.86000 2.587
63.88000 3.751
63.90000 2.350
63.92000 3.061
63.94000 -0.308
63.96000 -2.205
63.98000 -0.099
64.00000 -1.656
64.02000 -0.497
64.04000 -0.418
64.06000 0.343
64.08000 1.290
64.10000 1.480
64.12000 2.359
64.14000 3.037
64.16000 1.623
64.18000 0.811
64.20000 0.747
64.22000 0.596
64.24000 0.690
64.26000 -0.218
64.28000 -0.419
64.30000 1.285
64.32000 0.465
64.34000 -0.095
64.36000 2.466
64.38000 3.400
64.40000 -0.001
64.42000 1.520
64.44000 3.845
64.46000 3.937
64.48000 2.066
64.50000 1.982
64.52000 1.648
64.54000 0.620
64.56000 2.126
64.58000 0.921
64.60000 -0.622
64.62000 0.907
64.64000 2.673
64.66000 2.530
64.68000 2.911
64.70000 1.686
64.72000 1.181
64.74000 2.546
64.76000 -0.451
64.78000 -0.979
64.80000 0.349
64.82000 -0.321
64.84000 0.812
64.86000 1.389
64.88000 -0.918
64.90000 -2.194
64.92000 2.867
64.94000 2.479
64.96000 3.306
64.98000 3.659
65.00000 1.962
65.02000 4.495
65.04000 6.190
65.06000 3.535
65.08000 0.548
65.10000 0.154
65.12000 2.532
65.14000 3.950
65.16000 2.504
65.18000 0.560
65.20000 1.232
65.22000 -0.375
65.24000 -0.146
65.26000 1.756
65.28000 -0.933
65.30000 0.388
65.32000 -0.858
65.34000 -1.558
65.36000 -0.465
65.38000 0.418
65.40000 2.853
65.42000 0.403
65.44000 -0.571
65.46000 1.876
65.48000 0.583
65.50000 -0.624
65.52000 0.157
65.54000 2.114
65.56000 -0.305
65.58000 -0.605
65.60000 2.273
65.62000 0.941
65.64000 0.156
65.66000 -0.222
65.68000 1.172
65.70000 0.701
65.72000 0.957
65.74000 3.076
65.76000 1.728
65.78000 2.634
65.80000 1.207
65.82000 0.377
65.84000 1.378
65.86000 2.711
65.88000 0.321
65.90000 -1.813
65.92000 -1.982
65.94000 -2.225
65.96000 0.798
65.98000 0.136
66.00000 -0.423
66.02000 2.883
66.04000 3.200
66.06000 3.729
66.08000 2.730
66.10000 3.881
66.12000 2.678
66.14000 4.220
66.16000 3.904
66.18000 4.237
66.20000 3.090
66.22000 2.959
66.24000 2.533
66.26000 2.110
66.28000 2.226
66.30000 1.726
66.32000 2.525
66.34000 1.420
66.36000 2.545
66.38000 3.412
66.40000 4.274
66.42000 5.580
66.44000 5.620
66.46000 5.640
66.48000 4.943
66.50000 5.304
66.52000 4.592
66.54000 7.493
66.56000 7.387
66.58000 6.269
66.60000 4.077
66.62000 5.465
66.64000 8.664
66.66000 8.368
66.68000 6.989
66.70000 7.572
66.72000 9.360
66.74000 6.766
66.76000 6.274
66.78000 5.486
66.80000 5.612
66.82000 5.777
66.84000 6.585
66.86000 5.738
66.88000 6.986
66.90000 5.647
66.92000 5.552
66.94000 5.940
66.96000 8.732
66.98000 5.653
67.00000 7.129
67.02000 6.839
67.04000 6.532
67.06000 5.150
67.08000 6.199
67.10000 6.283
67.12000 5.162
67.14000 6.315
67.16000 3.963
67.18000 2.239
67.20000 4.978
67.22000 5.674
67.24000 4.673
67.26000 1.378
67.28000 2.163
67.30000 4.285
67.32000 5.784
67.34000 2.530
67.36000 1.947
67.38000 3.436
67.40000 1.548
67.42000 2.787
67.44000 1.451
67.46000 0.587
67.48000 0.714
67.50000 2.446
67.52000 1.760
67.54000 -0.596
67.56000 0.042
67.58000 1.831
67.60000 1.288
67.62000 -0.510
67.64000 -0.055
67.66000 1.150
67.68000 1.177
67.70000 -0.182
67.72000 -1.028
67.74000 0.957
67.76000 -0.607
67.78000 -1.068
67.80000 -1.635
67.82000 -0.866
67.84000 -2.154
67.86000 -0.049
67.88000 0.884
67.90000 1.875
67.92000 -0.748
67.94000 -0.890
67.96000 0.697
67.98000 -2.151
68.00000 0.447
68.02000 1.632
68.04000 0.625
68.06000 -1.345
68.08000 0.530
68.10000 -0.935
68.12000 -0.901
68.14000 0.255
68.16000 -1.039
68.18000 -2.135
68.20000 -1.183
68.22000 -0.702
68.24000 -0.078
68.26000 2.138
68.28000 2.039
68.30000 1.709
68.32000 -1.527
68.34000 -0.698
68.36000 0.003
68.38000 0.393
68.40000 0.558
68.42000 -0.329
68.44000 -1.602
68.46000 -1.587
68.48000 -0.022
68.50000 -0.422
68.52000 0.789
68.54000 1.231
68.56000 0.066
68.58000 0.820
68.60000 -0.574
68.62000 0.636
68.64000 4.132
68.66000 2.198
68.68000 -1.196
68.70000 0.274
68.72000 0.641
68.74000 1.809
68.76000 1.812
68.78000 1.266
68.80000 1.694
68.82000 -0.018
68.84000 0.442
68.86000 2.522
68.88000 3.389
68.90000 2.458
68.92000 1.324
68.94000 -0.937
68.96000 -2.065
68.98000 -0.113
69.00000 1.025
69.02000 1.666
69.04000 0.326
69.06000 -0.162
69.08000 0.480
69.10000 1.830
69.12000 1.269
69.14000 -0.261
69.16000 -0.810
69.18000 0.598
69.20000 1.609
69.22000 0.386
69.24000 1.171
69.26000 1.598
69.28000 2.326
69.30000 -0.450
69.32000 -1.490
69.34000 -2.038
69.36000 0.340
69.38000 -0.593
69.40000 1.693
69.42000 0.693
69.44000 2.677
69.46000 4.671
69.48000 1.309
69.50000 0.958
69.52000 1.131
69.54000 1.755
69.56000 2.749
69.58000 1.452
69.60000 -0.390
69.62000 -2.033
69.64000 1.543
69.66000 2.777
69.68000 4.729
69.70000 1.696
69.72000 1.025
69.74000 0.423
69.76000 3.132
69.78000 1.898
69.80000 3.181
69.82000 1.389
69.84000 3.931
69.86000 3.679
69.88000 -0.116
69.90000 -0.330
69.92000 -1.210
69.94000 1.148
69.96000 1.568
69.98000 1.416
70.00000 -0.082
70.02000 -1.725
70.04000 -0.852
70.06000 -0.080
70.08000 -0.499
70.10000 0.613
70.12000 0.277
70.14000 2.484
70.16000 2.590
70.18000 -0.018
70.20000 -0.494
70.22000 -0.142
70.24000 1.899
70.26000 2.657
70.28000 0.602
70.30000 0.111
70.32000 1.347
70.34000 -1.136
70.36000 2.306
70.38000 3.002
70.40000 1.948
70.42000 2.925
70.44000 1.253
70.46000 -1.584
70.48000 -1.985
70.50000 -1.564
70.52000 -1.985
70.54000 2.293
70.56000 4.260
70.58000 1.668
70.60000 0.206
70.62000 2.030
70.64000 2.254
70.66000 1.534
70.68000 1.873
70.70000 0.953
70.72000 2.443
70.74000 2.559
70.76000 1.629
70.78000 1.524
70.80000 1.693
70.82000 3.322
70.84000 3.350
70.86000 0.569
70.88000 -0.259
70.90000 -0.435
70.92000 -1.981
70.94000 1.863
70.96000 3.177
70.98000 -0.215
71.00000 0.322
71.02000 -0.070
71.04000 0.133
71.06000 -0.557
71.08000 -0.599
71.10000 -0.681
71.12000 0.247
71.14000 1.783
71.16000 0.137
71.18000 -1.891
71.20000 0.524
71.22000 -1.058
71.24000 -0.497
71.26000 3.240
71.28000 4.722
71.30000 4.324
71.32000 1.077
71.34000 1.510
71.36000 3.999
71.38000 2.684
71.40000 -0.399
71.42000 1.424
71.44000 0.728
71.46000 -0.466
71.48000 1.614
71.50000 0.492
71.52000 -1.361
71.54000 -1.969
71.56000 -0.867
71.58000 -0.518
71.60000 1.087
71.62000 1.241
71.64000 0.416
71.66000 2.397
71.68000 0.205
71.70000 1.231
71.72000 4.970
71.74000 2.675
71.76000 0.639
71.78000 5.569
71.80000 4.318
71.82000 1.297
71.84000 0.723
71.86000 1.518
71.88000 2.793
71.90000 0.689
71.92000 -0.317
71.94000 1.354
71.96000 -1.104
71.98000 -1.959
72.00000 -1.959
72.02000 0.179
72.04000 3.150
72.06000 0.190
72.08000 1.267
72.10000 1.175
72.12000 3.252
72.14000 0.693
72.16000 0.436
72.18000 1.221
72.20000 1.035
72.22000 3.040
72.24000 1.247
72.26000 -0.398
72.28000 1.216
72.30000 2.361
72.32000 0.446
72.34000 0.377
72.36000 0.989
72.38000 1.092
72.40000 1.020
72.42000 0.304
72.44000 0.436
72.46000 1.986
72.48000 0.654
72.50000 0.855
72.52000 -0.591
72.54000 0.727
72.56000 1.036
72.58000 1.156
72.60000 4.124
72.62000 2.824
72.64000 2.724
72.66000 1.368
72.68000 1.271
72.70000 1.601
72.72000 -1.467
72.74000 -1.042
72.76000 -1.935
72.78000 -0.246
72.80000 0.708
72.82000 0.710
72.84000 2.515
72.86000 1.832
72.88000 1.091
72.90000 2.735
72.92000 2.267
72.94000 1.387
72.96000 0.631
72.98000 0.034
73.00000 3.102
73.02000 1.226
73.04000 1.018
73.06000 -0.390
73.08000 1.856
73.10000 1.906
73.12000 -1.415
73.14000 -0.660
73.16000 1.271
73.18000 2.682
73.20000 2.031
73.22000 0.945
73.24000 2.200
73.26000 1.191
73.28000 -1.910
73.30000 0.343
73.32000 1.448
73.34000 0.854
73.36000 1.881
73.38000 3.660
73.40000 4.702
73.42000 3.469
73.44000 4.246
73.46000 2.594
73.48000 3.239
73.50000 3.633
73.52000 1.725
73.54000 2.798
73.56000 2.345
73.58000 2.652
73.60000 2.375
73.62000 2.550
73.64000 0.747
73.66000 0.356
73.68000 -0.742
73.70000 0.240
73.72000 0.391
73.74000 0.855
73.76000 1.021
73.78000 0.934
73.80000 0.896
73.82000 0.739
73.84000 1.677
73.86000 2.369
73.88000 0.965
73.90000 1.439
73.92000 0.850
73.94000 -0.342
73.96000 -1.920
73.98000 -0.294
74.00000 0.785
74.02000 0.875
74.04000 -0.296
74.06000 -0.550
74.08000 1.440
74.10000 1.325
74.12000 0.977
74.14000 2.492
74.16000 4.806
74.18000 1.573
74.20000 1.754
74.22000 1.409
74.24000 3.804
74.26000 5.316
74.28000 1.470
74.30000 1.037
74.32000 0.407
74.34000 1.111
74.36000 0.163
74.38000 -0.731
74.40000 0.280
74.42000 1.658
74.44000 0.933
74.46000 1.268
74.48000 1.388
74.50000 -0.701
74.52000 -0.883
74.54000 2.883
74.56000 2.757
74.58000 0.453
74.60000 2.190
74.62000 -0.931
74.64000 -1.437
74.66000 0.821
74.68000 -1.168
74.70000 -1.925
74.72000 1.145
74.74000 -1.379
74.76000 -0.857
74.78000 -0.239
74.80000 0.428
74.82000 0.115
74.84000 0.178
74.86000 2.760
74.88000 1.598
74.90000 0.782
74.92000 -0.735
74.94000 -1.056
74.96000 -0.938
74.98000 0.518
75.00000 1.945
75.02000 2.474
75.04000 0.739
75.06000 3.720
75.08000 3.253
75.10000 3.878
75.12000 2.225
75.14000 -0.545
75.16000 -0.145
75.18000 1.322
75.20000 0.188
75.22000 -0.447
75.24000 0.047
75.26000 1.539
75.28000 1.681
75.30000 2.055
75.32000 3.888
75.34000 2.696
75.36000 3.061
75.38000 1.722
75.40000 1.427
75.42000 1.225
75.44000 1.377
75.46000 2.061
75.48000 3.409
75.50000 4.343
75.52000 5.964
75.54000 1.676
75.56000 3.072
75.58000 2.771
75.60000 3.304
75.62000 2.650
75.64000 1.483
75.66000 -1.891
75.68000 -0.677
75.70000 0.863
75.72000 0.536
75.74000 4.796
75.76000 2.222
75.78000 1.290
75.80000 4.474
75.82000 5.492
75.84000 0.176
75.86000 -0.589
75.88000 -0.206
75.90000 3.505
75.92000 4.163
75.94000 4.064
75.96000 1.442
75.98000 0.499
76.00000 -0.062
76.02000 0.627
76.04000 2.892
76.06000 3.720
76.08000 2.699
76.10000 1.309
76.12000 3.435
76.14000 3.319
76.16000 1.848
76.18000 1.346
76.20000 2.982
76.22000 2.180
76.24000 0.876
76.26000 3.992
76.28000 3.776
76.30000 -0.374
76.32000 0.390
76.34000 1.836
76.36000 1.757
76.38000 -1.671
76.40000 0.448
76.42000 2.373
76.44000 3.441
76.46000 0.562
76.48000 -1.689
76.50000 0.429
76.52000 3.823
76.54000 3.972
76.56000 0.309
76.58000 2.737
76.60000 -0.278
76.62000 0.047
76.64000 1.395
76.66000 0.956
76.68000 2.006
76.70000 0.364
76.72000 2.647
76.74000 3.594
76.76000 -1.213
76.78000 -1.941
76.80000 0.777
76.82000 0.650
76.84000 2.529
76.86000 3.817
76.88000 4.712
76.90000 1.213
76.92000 0.969
76.94000 0.834
76.96000 3.419
76.98000 2.549
77.00000 2.231
77.02000 2.894
77.04000 4.540
77.06000 1.498
77.08000 -0.109
77.10000 1.690
77.12000 0.642
77.14000 1.848
77.16000 4.008
77.18000 1.890
77.20000 0.344
77.22000 1.468
77.24000 -0.808
77.26000 -0.994
77.28000 -0.879
77.30000 -0.490
77.32000 2.866
77.34000 2.652
77.36000 2.974
77.38000 2.762
77.40000 -0.048
77.42000 -1.870
77.44000 -1.985
77.46000 -1.330
77.48000 -1.401
77.50000 -0.024
77.52000 1.929
77.54000 2.154
77.56000 0.432
77.58000 0.665
77.60000 1.477
77.62000 2.614
77.64000 0.806
77.66000 -0.851
77.68000 -0.899
77.70000 0.058
77.72000 1.581
77.74000 2.994
77.76000 3.226
77.78000 1.169
77.80000 -0.185
77.82000 0.423
77.84000 4.292
77.86000 2.530
77.88000 0.499
77.90000 2.105
77.92000 -0.626
77.94000 0.394
77.96000 -0.266
77.98000 1.849
78.00000 1.737
78.02000 1.461
78.04000 -1.006
78.06000 2.280
78.08000 -0.560
78.10000 -0.806
78.12000 2.177
78.14000 3.300
78.16000 3.391
78.18000 -0.105
78.20000 0.649
78.22000 3.065
78.24000 1.440
78.26000 0.835
78.28000 0.682
78.30000 -2.007
78.32000 0.357
78.34000 2.161
78.36000 0.681
78.38000 0.607
78.40000 0.475
78.42000 3.292
78.44000 1.122
78.46000 1.102
78.48000 2.415
78.50000 3.790
78.52000 3.272
78.54000 4.194
78.56000 3.093
78.58000 2.934
78.60000 1.391
78.62000 -2.030
78.64000 0.461
78.66000 0.599
78.68000 -1.053
78.70000 1.580
78.72000 3.590
78.74000 5.105
78.76000 2.026
78.78000 0.752
78.80000 -1.673
78.82000 0.560
78.84000 0.460
78.86000 -0.682
78.88000 -0.179
78.90000 1.770
78.92000 1.260
78.94000 2.952
78.96000 3.393
78.98000 1.610
79.00000 0.416
79.02000 3.383
79.04000 3.896
79.06000 2.175
79.08000 3.129
79.10000 6.305
79.12000 6.277
79.14000 6.345
79.16000 2.191
79.18000 4.756
79.20000 4.361
79.22000 3.569
79.24000 3.374
79.26000 2.061
79.28000 2.703
79.30000 3.723
79.32000 4.568
79.34000 4.743
79.36000 0.531
79.38000 -2.084
79.40000 3.100
79.42000 5.227
79.44000 6.608
79.46000 4.994
79.48000 4.513
79.50000 4.832
79.52000 5.482
79.54000 6.036
79.56000 4.504
79.58000 5.691
79.60000 5.103
79.62000 8.287
79.64000 6.169
79.66000 4.954
79.68000 7.265
79.70000 10.855
79.72000 10.018
79.74000 8.242
79.76000 7.130
79.78000 9.271
79.80000 10.285
79.82000 8.711
79.84000 8.216
79.86000 8.296
79.88000 9.206
79.90000 11.750
79.92000 12.219
79.94000 8.181
79.96000 11.206
79.98000 14.298
80.00000 11.611
80.02000 15.094
80.04000 15.699
80.06000 16.647
80.08000 15.963
80.10000 17.550
80.12000 16.319
80.14000 13.314
80.16000 17.379
80.18000 20.423
80.20000 16.137
80.22000 13.033
80.24000 17.574
80.26000 20.449
80.28000 19.913
80.30000 23.630
80.32000 22.502
80.34000 21.489
80.36000 20.399
80.38000 19.504
80.40000 17.573
80.42000 16.834
80.44000 19.968
80.46000 20.075
80.48000 19.465
80.50000 18.554
80.52000 22.394
80.54000 20.860
80.56000 20.439
80.58000 23.078
80.60000 20.564
80.62000 20.286
80.64000 17.050
80.66000 18.778
80.68000 22.159
80.70000 23.031
80.72000 21.100
80.74000 22.482
80.76000 17.974
80.78000 14.355
80.80000 12.713
80.82000 17.239
80.84000 21.468
80.86000 21.148
80.88000 19.824
80.90000 20.850
80.92000 18.219
80.94000 19.628
80.96000 19.458
80.98000 14.814
81.00000 13.758
81.02000 16.935
81.04000 12.562
81.06000 7.435
81.08000 11.181
81.10000 12.766
81.12000 13.500
81.14000 9.360
81.16000 8.887
81.18000 10.628
81.20000 9.441
81.22000 9.518
81.24000 8.849
81.26000 8.215
81.28000 5.878
81.30000 5.003
81.32000 5.860
81.34000 6.596
81.36000 4.585
81.38000 3.569
81.40000 2.270
81.42000 0.548
81.44000 1.221
81.46000 2.036
81.48000 4.880
81.50000 9.526
81.52000 6.232
81.54000 2.331
81.56000 2.320
81.58000 3.067
81.60000 2.822
81.62000 2.093
81.64000 1.491
81.66000 4.340
81.68000 4.795
81.70000 2.687
81.72000 1.655
81.74000 0.827
81.76000 -1.154
81.78000 -2.024
81.80000 -1.331
81.82000 -0.438
81.84000 2.067
81.86000 -0.235
81.88000 1.143
81.90000 2.540
81.92000 -0.710
81.94000 -2.181
81.96000 0.213
81.98000 2.103
82.00000 -0.511
82.02000 -1.714
82.04000 -0.171
82.06000 1.361
82.08000 1.013
82.10000 1.130
82.12000 -0.643
82.14000 -1.993
82.16000 0.217
82.18000 0.241
82.20000 -0.199
82.22000 1.650
82.24000 0.819
82.26000 1.573
82.28000 -0.973
82.30000 -2.162
82.32000 0.979
82.34000 -0.447
82.36000 1.042
82.38000 3.058
82.40000 3.847
82.42000 3.152
82.44000 1.270
82.46000 1.512
82.48000 -1.963
82.50000 -1.131
82.52000 -0.476
82.54000 1.622
82.56000 -2.155
82.58000 -1.357
82.60000 2.122
82.62000 0.306
82.64000 -1.674
82.66000 -2.152
82.68000 0.301
82.70000 2.774
82.72000 2.039
82.74000 -1.141
82.76000 -1.401
82.78000 0.412
82.80000 -1.942
82.82000 0.180
82.84000 1.274
82.86000 1.252
82.88000 1.189
82.90000 -2.153
82.92000 -0.782
82.94000 2.493
82.96000 3.061
82.98000 1.361
83.00000 -0.090
83.02000 0.998
83.04000 2.859
83.06000 1.180
83.08000 2.650
83.10000 1.213
83.12000 1.227
83.14000 4.540
83.16000 2.762
83.18000 3.697
83.20000 -1.872
83.22000 -0.865
83.24000 0.480
83.26000 4.058
83.28000 3.549
83.30000 1.984
83.32000 3.733
83.34000 1.319
83.36000 -2.149
83.38000 1.386
83.40000 4.669
83.42000 6.452
83.44000 6.567
83.46000 4.840
83.48000 4.305
83.50000 5.124
83.52000 3.822
83.54000 3.553
83.56000 6.243
83.58000 6.316
83.60000 7.409
83.62000 10.731
83.64000 10.160
83.66000 8.270
83.68000 9.287
83.70000 8.940
83.72000 8.340
83.74000 10.739
83.76000 13.045
83.78000 14.292
83.80000 11.620
83.82000 9.029
83.84000 8.512
83.86000 12.854
83.88000 14.821
83.90000 19.038
83.92000 18.355
83.94000 15.191
83.96000 13.413
83.98000 21.113
84.00000 19.467
84.02000 20.152
84.04000 20.862
84.06000 19.480
84.08000 19.995
84.10000 19.256
84.12000 19.605
84.14000 22.385
84.16000 22.789
84.18000 23.670
84.20000 23.899
84.22000 25.936
84.24000 24.604
84.26000 22.302
84.28000 23.377
84.30000 22.441
84.32000 24.798
84.34000 22.814
84.36000 22.182
84.38000 25.760
84.40000 25.438
84.42000 24.721
84.44000 21.693
84.46000 20.986
84.48000 23.982
84.50000 25.802
84.52000 23.493
84.54000 23.921
84.56000 21.945
84.58000 18.782
84.60000 19.389
84.62000 22.931
84.64000 24.052
84.66000 21.003
84.68000 20.465
84.70000 20.934
84.72000 19.408
84.74000 17.632
84.76000 16.124
84.78000 16.655
84.80000 15.695
84.82000 15.926
84.84000 16.706
84.86000 15.853
84.88000 13.169
84.90000 18.390
84.92000 16.815
84.94000 14.452
84.96000 12.170
84.98000 16.528
85.00000 15.096
85.02000 10.185
85.04000 10.910
85.06000 10.108
85.08000 11.403
85.10000 10.895
85.12000 5.555
85.14000 8.071
85.16000 5.861
85.18000 6.179
85.20000 6.638
85.22000 4.545
85.24000 5.960
85.26000 5.365
85.28000 8.940
85.30000 6.231
85.32000 1.936
85.34000 2.587
85.36000 2.027
85.38000 2.298
85.40000 1.131
85.42000 1.621
85.44000 2.155
85.46000 -0.303
85.48000 -0.166
85.50000 0.635
85.52000 5.613
85.54000 2.365
85.56000 0.694
85.58000 2.268
85.60000 2.350
85.62000 1.493
85.64000 0.151
85.66000 0.375
85.68000 -1.906
85.70000 -1.534
85.72000 0.733
85.74000 0.884
85.76000 2.584
85.78000 3.080
85.80000 5.021
85.82000 0.120
85.84000 -0.841
85.86000 -1.977
85.88000 1.211
85.90000 -0.007
85.92000 -0.453
85.94000 0.264
85.96000 1.823
85.98000 1.492
86.00000 0.297
86.02000 0.584
86.04000 0.717
86.06000 1.731
86.08000 3.138
86.10000 0.853
86.12000 -0.012
86.14000 -0.522
86.16000 1.661
86.18000 -1.286
86.20000 0.174
86.22000 0.888
86.24000 -0.543
86.26000 0.900
86.28000 -0.146
86.30000 -0.624
86.32000 -1.779
86.34000 3.498
86.36000 1.821
86.38000 1.873
86.40000 1.012
86.42000 0.650
86.44000 0.972
86.46000 1.356
86.48000 0.122
86.50000 2.392
86.52000 3.135
86.54000 1.289
86.56000 0.499
86.58000 -0.522
86.60000 -1.853
86.62000 0.823
86.64000 0.813
86.66000 2.732
86.68000 0.278
86.70000 -0.055
86.72000 0.902
86.74000 1.924
86.76000 2.375
86.78000 1.116
86.80000 0.145
86.82000 1.611
86.84000 0.397
86.86000 0.170
86.88000 -1.563
86.90000 -1.830
86.92000 0.037
86.94000 1.412
86.96000 2.064
86.98000 3.946
87.00000 2.263
87.02000 1.242
87.04000 1.575
87.06000 -0.107
87.08000 0.635
87.10000 2.099
87.12000 -0.201
87.14000 0.465
87.16000 2.681
87.18000 1.740
87.20000 0.152
87.22000 5.387
87.24000 3.697
87.26000 2.086
87.28000 2.329
87.30000 -1.704
87.32000 -1.385
87.34000 1.367
87.36000 2.939
87.38000 2.010
87.40000 0.936
87.42000 1.434
87.44000 4.475
87.46000 2.935
87.48000 3.534
87.50000 2.434
87.52000 1.369
87.54000 3.478
87.56000 1.407
87.58000 2.458
87.60000 3.264
87.62000 0.235
87.64000 -1.793
87.66000 -0.347
87.68000 0.489
87.70000 0.978
87.72000 2.799
87.74000 2.820
87.76000 2.405
87.78000 2.271
87.80000 3.049
87.82000 4.688
87.84000 2.738
87.86000 0.410
87.88000 -0.622
87.90000 2.960
87.92000 2.091
87.94000 5.699
87.96000 4.329
87.98000 3.222
88.00000 4.233
88.02000 1.558
88.04000 2.264
88.06000 1.725
88.08000 0.935
88.10000 3.070
88.12000 5.313
88.14000 3.248
88.16000 1.828
88.18000 -1.372
88.20000 -1.782
88.22000 0.930
88.24000 1.207
88.26000 2.136
88.28000 0.710
88.30000 2.016
88.32000 2.209
88.34000 3.451
88.36000 1.207
88.38000 1.288
88.40000 3.453
88.42000 2.741
88.44000 2.601
88.46000 0.609
88.48000 -0.299
88.50000 0.771
88.52000 0.750
88.54000 -1.384
88.56000 -1.519
88.58000 0.056
88.60000 1.935
88.62000 2.537
88.64000 -1.552
88.66000 -1.782
88.68000 1.044
88.70000 0.880
88.72000 2.363
88.74000 3.815
88.76000 1.674
88.78000 0.805
88.80000 1.142
88.82000 0.683
88.84000 -0.571
88.86000 0.163
88.88000 0.008
88.90000 -0.160
88.92000 0.208
88.94000 0.962
88.96000 -0.494
88.98000 1.078
89.00000 3.856
89.02000 4.546
89.04000 3.689
89.06000 1.616
89.08000 -1.702
89.10000 0.174
89.12000 0.829
89.14000 1.038
89.16000 2.257
89.18000 0.254
89.20000 3.928
89.22000 2.324
89.24000 0.007
89.26000 0.682
89.28000 1.474
89.30000 1.319
89.32000 -0.369
89.34000 1.004
89.36000 1.361
89.38000 0.245
89.40000 1.771
89.42000 1.106
89.44000 0.697
89.46000 1.410
89.48000 4.680
89.50000 4.042
89.52000 3.827
89.54000 4.323
89.56000 3.922
89.58000 2.504
89.60000 0.566
89.62000 -1.793
89.64000 -1.094
89.66000 -0.740
89.68000 1.316
89.70000 1.930
89.72000 0.391
89.74000 1.962
89.76000 0.768
89.78000 -0.054
89.80000 -0.296
89.82000 2.870
89.84000 3.818
89.86000 1.007
89.88000 0.621
89.90000 1.806
89.92000 1.436
89.94000 2.459
89.96000 2.428
89.98000 2.588
90.00000 1.761
90.02000 1.752
90.04000 3.829
90.06000 2.461
90.08000 2.576
90.10000 1.931
90.12000 0.974
90.14000 -0.167
90.16000 2.596
90.18000 -0.245
90.20000 -0.511
90.22000 0.278
90.24000 -0.063
90.26000 2.139
90.28000 3.475
90.30000 3.288
90.32000 -0.101
90.34000 0.681
90.36000 0.145
90.38000 1.460
90.40000 4.204
90.42000 0.796
90.44000 1.830
90.46000 2.444
90.48000 2.936
90.50000 1.276
90.52000 1.366
90.54000 2.205
90.56000 0.463
90.58000 -1.767
90.60000 0.767
90.62000 2.306
90.64000 3.148
90.66000 -0.257
90.68000 0.206
90.70000 1.882
90.72000 4.814
90.74000 1.096
90.76000 1.190
90.78000 4.189
90.80000 3.020
90.82000 4.349
90.84000 1.410
90.86000 0.670
90.88000 0.652
90.90000 0.016
90.92000 0.161
90.94000 -0.221
90.96000 -1.059
90.98000 -0.740
91.00000 1.649
91.02000 1.908
91.04000 1.548
91.06000 1.939
91.08000 4.555
91.10000 4.512
91.12000 5.507
91.14000 5.447
91.16000 4.318
91.18000 3.024
91.20000 -1.602
91.22000 2.239
91.24000 2.660
91.26000 0.217
91.28000 3.891
91.30000 4.004
91.32000 -0.763
91.34000 0.875
91.36000 0.276
91.38000 -0.032
91.40000 -1.782
91.42000 -1.533
91.44000 2.776
91.46000 2.885
91.48000 1.725
91.50000 2.389
91.52000 4.683
91.54000 2.871
91.56000 0.129
91.58000 2.375
91.60000 2.349
91.62000 1.910
91.64000 2.158
91.66000 0.062
91.68000 0.049
91.70000 3.325
91.72000 3.775
91.74000 4.254
91.76000 4.674
91.78000 6.682
91.80000 3.257
91.82000 6.444
91.84000 6.226
91.86000 4.394
91.88000 5.662
91.90000 4.002
91.92000 1.151
91.94000 3.396
91.96000 4.070
91.98000 0.137
92.00000 -0.143
92.02000 2.817
92.04000 3.049
92.06000 1.417
92.08000 -0.294
92.10000 -0.547
92.12000 -1.453
92.14000 -1.759
92.16000 0.003
92.18000 2.511
92.20000 4.697
92.22000 4.403
92.24000 1.417
92.26000 1.411
92.28000 1.409
92.30000 2.553
92.32000 0.780
92.34000 4.188
92.36000 3.301
92.38000 2.592
92.40000 0.857
92.42000 -1.779
92.44000 0.621
92.46000 4.739
92.48000 1.082
92.50000 -0.132
92.52000 1.083
92.54000 3.992
92.56000 1.915
92.58000 3.096
92.60000 4.852
92.62000 3.268
92.64000 3.808
92.66000 2.974
92.68000 3.488
92.70000 2.104
92.72000 1.954
92.74000 2.454
92.76000 0.408
92.78000 -0.332
92.80000 -1.351
92.82000 1.493
92.84000 0.676
92.86000 0.922
92.88000 1.302
92.90000 2.057
92.92000 2.991
92.94000 2.379
92.96000 2.163
92.98000 -0.615
93.00000 1.171
93.02000 -1.802
93.04000 -0.688
93.06000 2.007
93.08000 2.614
93.10000 5.471
93.12000 4.200
93.14000 2.877
93.16000 2.132
93.18000 1.621
93.20000 3.087
93.22000 0.913
93.24000 2.330
93.26000 3.244
93.28000 3.411
93.30000 3.112
93.32000 3.549
93.34000 5.804
93.36000 2.446
93.38000 -0.886
93.40000 -1.017
93.42000 2.653
93.44000 -0.572
93.46000 1.656
93.48000 3.858
93.50000 0.846
93.52000 3.920
93.54000 1.769
93.56000 1.206
93.58000 1.027
93.60000 4.601
93.62000 5.212
93.64000 1.635
93.66000 0.446
93.68000 2.430
93.70000 -0.129
93.72000 2.493
93.74000 4.034
93.76000 5.811
93.78000 5.163
93.80000 4.275
93.82000 1.747
93.84000 1.203
93.86000 0.907
93.88000 1.131
93.90000 1.528
93.92000 1.886
93.94000 1.019
93.96000 -0.622
93.98000 1.670
94.00000 0.554
94.02000 -1.261
94.04000 -0.979
94.06000 2.835
94.08000 -0.041
94.10000 -0.693
94.12000 0.336
94.14000 2.622
94.16000 0.920
94.18000 -0.608
94.20000 -1.830
94.22000 -1.040
94.24000 1.246
94.26000 2.055
94.28000 3.198
94.30000 4.551
94.32000 3.834
94.34000 2.954
94.36000 1.416
94.38000 0.346
94.40000 1.918
94.42000 4.516
94.44000 2.930
94.46000 3.754
94.48000 4.193
94.50000 2.653
94.52000 2.598
94.54000 4.949
94.56000 2.598
94.58000 1.874
94.60000 5.530
94.62000 6.588
94.64000 1.946
94.66000 1.336
94.68000 1.669
94.70000 1.745
94.72000 3.695
94.74000 1.276
94.76000 3.090
94.78000 6.698
94.80000 3.260
94.82000 4.779
94.84000 5.763
94.86000 4.708
94.88000 4.419
94.90000 7.503
94.92000 4.853
94.94000 3.528
94.96000 3.137
94.98000 1.161
95.00000 1.327
95.02000 3.965
95.04000 4.283
95.06000 4.129
95.08000 5.280
95.10000 1.634
95.12000 -1.776
95.14000 -0.143
95.16000 3.497
95.18000 4.665
95.20000 3.986
95.22000 3.397
95.24000 4.140
95.26000 5.624
95.28000 9.143
95.30000 4.180
95.32000 3.802
95.34000 4.600
95.36000 6.767
95.38000 1.354
95.40000 0.669
95.42000 2.910
95.44000 4.979
95.46000 7.282
95.48000 5.057
95.50000 2.676
95.52000 3.177
95.54000 2.597
95.56000 5.256
95.58000 6.030
95.60000 2.761
95.62000 3.429
95.64000 1.626
95.66000 1.248
95.68000 1.733
95.70000 4.001
95.72000 6.254
95.74000 4.595
95.76000 7.837
95.78000 2.130
95.80000 -0.193
95.82000 2.092
95.84000 1.621
95.86000 1.289
95.88000 3.726
95.90000 3.237
95.92000 1.078
95.94000 0.089
95.96000 1.346
95.98000 3.135
96.00000 6.584
96.02000 3.216
96.04000 3.654
96.06000 1.510
96.08000 1.624
96.10000 1.733
96.12000 0.678
96.14000 -1.589
96.16000 -0.579
96.18000 6.440
96.20000 3.308
96.22000 1.715
96.24000 3.307
96.26000 -1.412
96.28000 -0.448
96.30000 1.378
96.32000 6.340
96.34000 6.624
96.36000 5.285
96.38000 3.376
96.40000 4.878
96.42000 9.654
96.44000 7.181
96.46000 5.034
96.48000 2.894
96.50000 0.922
96.52000 3.637
96.54000 3.267
96.56000 1.942
96.58000 2.444
96.60000 5.653
96.62000 2.890
96.64000 0.123
96.66000 -1.785
96.68000 -0.035
96.70000 0.795
96.72000 7.380
96.74000 4.962
96.76000 3.281
96.78000 5.554
96.80000 6.466
96.82000 2.536
96.84000 0.152
96.86000 2.695
96.88000 4.319
96.90000 5.568
96.92000 6.565
96.94000 4.793
96.96000 1.210
96.98000 2.161
97.00000 5.573
97.02000 7.565
97.04000 0.879
97.06000 -0.893
97.08000 4.765
97.10000 6.270
97.12000 1.754
97.14000 4.444
97.16000 5.586
97.18000 6.575
97.20000 6.011
97.22000 1.747
97.24000 3.698
97.26000 7.374
97.28000 4.112
97.30000 2.161
97.32000 4.158
97.34000 6.355
97.36000 4.784
97.38000 5.766
97.40000 7.039
97.42000 2.402
97.44000 1.991
97.46000 3.317
97.48000 2.017
97.50000 2.771
97.52000 4.514
97.54000 7.565
97.56000 6.474
97.58000 1.818
97.60000 -1.708
97.62000 -1.763
97.64000 4.041
97.66000 3.606
97.68000 1.235
97.70000 3.709
97.72000 4.571
97.74000 1.545
97.76000 1.922
97.78000 3.501
97.80000 2.217
97.82000 4.812
97.84000 4.435
97.86000 4.855
97.88000 5.516
97.90000 5.616
97.92000 7.333
97.94000 8.904
97.96000 6.328
97.98000 4.684
98.00000 12.826
98.02000 9.423
98.04000 4.669
98.06000 9.624
98.08000 10.698
98.10000 8.065
98.12000 3.740
98.14000 4.614
98.16000 5.667
98.18000 6.159
98.20000 3.494
98.22000 1.524
98.24000 4.610
98.26000 2.392
98.28000 0.717
98.30000 1.624
98.32000 2.497
98.34000 5.755
98.36000 6.512
98.38000 7.586
98.40000 3.690
98.42000 10.716
98.44000 8.852
98.46000 9.532
98.48000 10.527
98.50000 6.149
98.52000 4.799
98.54000 5.576
98.56000 0.971
98.58000 -1.688
98.60000 3.605
98.62000 7.782
98.64000 6.096
98.66000 5.864
98.68000 7.817
98.70000 5.297
98.72000 3.268
98.74000 4.231
98.76000 5.849
98.78000 10.247
98.80000 11.907
98.82000 10.444
98.84000 5.417
98.86000 1.198
98.88000 0.984
98.90000 4.443
98.92000 7.886
98.94000 6.232
98.96000 5.781
98.98000 8.347
99.00000 8.277
99.02000 3.285
99.04000 -6.393
99.06000 5.870
99.08000 7.010
99.10000 5.499
99.12000 12.399
99.14000 6.786
99.16000 10.274
99.18000 4.680
99.20000 2.638
99.22000 5.684
99.24000 0.131
99.26000 2.856
99.28000 1.211
99.30000 4.137
99.32000 6.190
99.34000 1.830
99.36000 0.827
99.38000 -0.402
99.40000 7.936
99.42000 10.061
99.44000 5.896
99.46000 1.315
99.48000 3.547
99.50000 3.186
99.52000 7.689
99.54000 4.472
99.56000 5.354
99.58000 8.760
99.60000 9.603
99.62000 3.097
99.64000 5.833
99.66000 4.279
99.68000 2.462
99.70000 2.822
99.72000 -1.794
99.74000 -0.588
99.76000 3.318
99.78000 5.385
99.80000 8.248
99.82000 -1.509
99.84000 -1.800
99.86000 4.485
99.88000 6.594
99.90000 6.702
99.92000 0.473
99.94000 4.475
99.96000 3.526
99.98000 0.000
