'Id: "0011388" Comment: "Integrate frame 0011388_Au-Ir-Rh_Rh-rich_XRD-Mapping-168-0000.gfrmwith cursor Wedge Cursor #5" Operator: "B?rgel" Anode: "Cu" Wavelength: "1.5406" Scantype: "2Theta (TwoTheta)" TimePerStep: "1" X: "4.5" Y: "0" Z: "5.95" 
10.00000 0.000
10.02000 2.255
10.04000 11.285
10.06000 15.133
10.08000 -4.057
10.10000 -0.681
10.12000 11.181
10.14000 11.167
10.16000 7.048
10.18000 10.086
10.20000 4.190
10.22000 10.852
10.24000 13.356
10.26000 12.646
10.28000 19.796
10.30000 9.517
10.32000 1.083
10.34000 4.052
10.36000 6.818
10.38000 19.216
10.40000 31.305
10.42000 18.978
10.44000 22.169
10.46000 12.751
10.48000 17.889
10.50000 2.093
10.52000 10.462
10.54000 14.820
10.56000 13.001
10.58000 19.177
10.60000 22.983
10.62000 25.754
10.64000 26.208
10.66000 8.689
10.68000 -4.074
10.70000 6.850
10.72000 17.378
10.74000 26.337
10.76000 23.985
10.78000 26.300
10.80000 14.855
10.82000 11.947
10.84000 14.519
10.86000 19.830
10.88000 15.856
10.90000 4.734
10.92000 16.309
10.94000 25.017
10.96000 4.770
10.98000 22.854
11.00000 17.475
11.02000 21.408
11.04000 26.791
11.06000 16.341
11.08000 21.544
11.10000 17.737
11.12000 19.748
11.14000 21.000
11.16000 7.771
11.18000 10.848
11.20000 16.430
11.22000 29.711
11.24000 23.212
11.26000 14.030
11.28000 14.187
11.30000 13.666
11.32000 14.332
11.34000 20.882
11.36000 24.320
11.38000 17.906
11.40000 6.058
11.42000 30.437
11.44000 15.428
11.46000 5.814
11.48000 1.498
11.50000 5.820
11.52000 17.230
11.54000 21.411
11.56000 29.208
11.58000 21.623
11.60000 17.538
11.62000 23.861
11.64000 23.361
11.66000 15.114
11.68000 13.878
11.70000 20.543
11.72000 18.009
11.74000 18.270
11.76000 17.105
11.78000 22.266
11.80000 20.172
11.82000 12.323
11.84000 16.399
11.86000 23.140
11.88000 20.986
11.90000 22.051
11.92000 35.762
11.94000 31.767
11.96000 22.030
11.98000 16.451
12.00000 20.916
12.02000 20.497
12.04000 9.025
12.06000 4.533
12.08000 16.550
12.10000 24.143
12.12000 20.613
12.14000 10.821
12.16000 11.931
12.18000 20.057
12.20000 17.659
12.22000 18.357
12.24000 6.072
12.26000 19.734
12.28000 21.385
12.30000 22.765
12.32000 12.194
12.34000 12.718
12.36000 22.742
12.38000 17.564
12.40000 13.405
12.42000 12.650
12.44000 16.205
12.46000 13.175
12.48000 22.464
12.50000 23.935
12.52000 14.599
12.54000 19.332
12.56000 24.119
12.58000 18.551
12.60000 20.738
12.62000 21.690
12.64000 30.400
12.66000 14.958
12.68000 8.496
12.70000 20.046
12.72000 22.060
12.74000 25.264
12.76000 28.997
12.78000 19.273
12.80000 18.540
12.82000 20.298
12.84000 23.393
12.86000 18.698
12.88000 24.331
12.90000 16.401
12.92000 13.579
12.94000 21.640
12.96000 19.490
12.98000 17.234
13.00000 18.238
13.02000 20.253
13.04000 12.908
13.06000 10.645
13.08000 9.272
13.10000 16.904
13.12000 18.123
13.14000 18.120
13.16000 29.582
13.18000 17.798
13.20000 17.164
13.22000 18.098
13.24000 13.877
13.26000 19.435
13.28000 27.662
13.30000 22.678
13.32000 21.664
13.34000 17.365
13.36000 14.446
13.38000 18.386
13.40000 25.401
13.42000 15.138
13.44000 15.131
13.46000 12.886
13.48000 17.242
13.50000 27.345
13.52000 21.002
13.54000 16.635
13.56000 23.186
13.58000 17.099
13.60000 13.152
13.62000 20.246
13.64000 17.597
13.66000 22.339
13.68000 31.563
13.70000 17.539
13.72000 13.880
13.74000 21.878
13.76000 15.066
13.78000 7.350
13.80000 12.134
13.82000 12.598
13.84000 14.882
13.86000 18.346
13.88000 13.550
13.90000 10.482
13.92000 9.899
13.94000 5.423
13.96000 2.312
13.98000 3.373
14.00000 7.026
14.02000 11.570
14.04000 13.876
14.06000 19.088
14.08000 16.759
14.10000 12.685
14.12000 15.302
14.14000 15.833
14.16000 21.635
14.18000 17.423
14.20000 15.341
14.22000 11.991
14.24000 16.591
14.26000 18.164
14.28000 5.149
14.30000 9.481
14.32000 11.497
14.34000 7.539
14.36000 11.586
14.38000 24.578
14.40000 11.749
14.42000 9.125
14.44000 17.605
14.46000 17.317
14.48000 8.085
14.50000 6.537
14.52000 18.688
14.54000 22.440
14.56000 11.315
14.58000 5.629
14.60000 9.570
14.62000 18.178
14.64000 16.412
14.66000 17.908
14.68000 16.009
14.70000 6.249
14.72000 12.220
14.74000 13.365
14.76000 19.941
14.78000 17.489
14.80000 16.825
14.82000 10.607
14.84000 7.146
14.86000 8.417
14.88000 15.341
14.90000 25.513
14.92000 19.116
14.94000 10.019
14.96000 6.975
14.98000 10.237
15.00000 2.520
15.02000 3.155
15.04000 9.676
15.06000 14.197
15.08000 21.127
15.10000 22.881
15.12000 27.097
15.14000 13.749
15.16000 14.152
15.18000 12.976
15.20000 11.516
15.22000 16.201
15.24000 14.453
15.26000 4.579
15.28000 4.752
15.30000 10.397
15.32000 12.291
15.34000 7.103
15.36000 3.431
15.38000 -4.404
15.40000 -1.708
15.42000 6.388
15.44000 10.021
15.46000 9.976
15.48000 15.028
15.50000 14.213
15.52000 12.211
15.54000 8.468
15.56000 15.637
15.58000 9.363
15.60000 8.507
15.62000 6.550
15.64000 6.748
15.66000 6.807
15.68000 5.512
15.70000 2.442
15.72000 7.158
15.74000 14.271
15.76000 6.836
15.78000 8.500
15.80000 10.260
15.82000 12.839
15.84000 9.357
15.86000 4.179
15.88000 6.044
15.90000 7.083
15.92000 -3.228
15.94000 -3.440
15.96000 2.612
15.98000 6.675
16.00000 7.609
16.02000 0.799
16.04000 6.092
16.06000 6.976
16.08000 5.222
16.10000 1.760
16.12000 3.786
16.14000 6.972
16.16000 8.161
16.18000 12.749
16.20000 23.874
16.22000 24.990
16.24000 18.893
16.26000 4.089
16.28000 10.342
16.30000 1.629
16.32000 9.305
16.34000 9.075
16.36000 5.223
16.38000 3.278
16.40000 1.720
16.42000 9.255
16.44000 9.941
16.46000 0.604
16.48000 6.129
16.50000 5.531
16.52000 5.151
16.54000 11.831
16.56000 10.946
16.58000 1.257
16.60000 0.606
16.62000 7.388
16.64000 18.690
16.66000 8.888
16.68000 10.888
16.70000 0.704
16.72000 9.405
16.74000 12.515
16.76000 7.866
16.78000 3.766
16.80000 6.996
16.82000 8.295
16.84000 2.414
16.86000 7.819
16.88000 4.977
16.90000 -4.408
16.92000 2.182
16.94000 11.107
16.96000 0.497
16.98000 -1.425
17.00000 9.636
17.02000 13.642
17.04000 13.838
17.06000 7.699
17.08000 8.998
17.10000 -1.596
17.12000 0.570
17.14000 6.264
17.16000 0.647
17.18000 -3.455
17.20000 -0.113
17.22000 6.603
17.24000 4.702
17.26000 6.511
17.28000 9.972
17.30000 11.884
17.32000 11.778
17.34000 13.224
17.36000 8.785
17.38000 8.043
17.40000 1.881
17.42000 2.757
17.44000 6.575
17.46000 3.972
17.48000 4.701
17.50000 3.568
17.52000 3.845
17.54000 5.531
17.56000 6.862
17.58000 4.783
17.60000 6.183
17.62000 4.847
17.64000 1.929
17.66000 5.986
17.68000 4.903
17.70000 1.560
17.72000 -0.200
17.74000 1.818
17.76000 9.119
17.78000 4.665
17.80000 4.154
17.82000 4.569
17.84000 3.718
17.86000 1.945
17.88000 5.382
17.90000 8.194
17.92000 8.487
17.94000 3.057
17.96000 -1.554
17.98000 3.571
18.00000 9.961
18.02000 2.739
18.04000 0.285
18.06000 -1.030
18.08000 -3.039
18.10000 0.513
18.12000 4.706
18.14000 3.386
18.16000 7.231
18.18000 12.179
18.20000 12.393
18.22000 2.333
18.24000 2.685
18.26000 2.666
18.28000 -1.551
18.30000 -1.938
18.32000 3.927
18.34000 7.755
18.36000 2.504
18.38000 -1.848
18.40000 1.896
18.42000 2.571
18.44000 4.189
18.46000 -2.770
18.48000 -0.893
18.50000 -1.933
18.52000 5.194
18.54000 6.456
18.56000 5.995
18.58000 4.876
18.60000 10.302
18.62000 10.388
18.64000 3.798
18.66000 2.487
18.68000 2.923
18.70000 12.548
18.72000 11.075
18.74000 6.575
18.76000 2.943
18.78000 4.887
18.80000 13.701
18.82000 10.080
18.84000 9.968
18.86000 10.356
18.88000 8.756
18.90000 2.692
18.92000 11.627
18.94000 14.930
18.96000 6.098
18.98000 3.889
19.00000 6.357
19.02000 10.831
19.04000 7.432
19.06000 8.556
19.08000 0.338
19.10000 -4.259
19.12000 2.544
19.14000 7.210
19.16000 5.344
19.18000 8.516
19.20000 8.492
19.22000 3.109
19.24000 8.726
19.26000 2.806
19.28000 3.549
19.30000 7.329
19.32000 9.616
19.34000 10.927
19.36000 3.720
19.38000 2.457
19.40000 5.754
19.42000 6.389
19.44000 7.610
19.46000 6.224
19.48000 -0.367
19.50000 2.712
19.52000 8.303
19.54000 3.042
19.56000 2.584
19.58000 10.422
19.60000 13.620
19.62000 11.750
19.64000 15.006
19.66000 11.067
19.68000 2.279
19.70000 1.397
19.72000 7.192
19.74000 -1.134
19.76000 3.724
19.78000 4.629
19.80000 4.522
19.82000 2.144
19.84000 6.012
19.86000 11.894
19.88000 9.065
19.90000 10.101
19.92000 3.804
19.94000 -1.318
19.96000 -0.852
19.98000 7.350
20.00000 0.642
20.02000 1.981
20.04000 6.691
20.06000 -0.324
20.08000 1.394
20.10000 5.990
20.12000 9.531
20.14000 8.536
20.16000 4.179
20.18000 -4.209
20.20000 -1.807
20.22000 5.132
20.24000 12.506
20.26000 8.759
20.28000 7.431
20.30000 5.965
20.32000 5.665
20.34000 7.035
20.36000 12.226
20.38000 7.891
20.40000 3.936
20.42000 2.285
20.44000 4.224
20.46000 1.303
20.48000 9.604
20.50000 7.899
20.52000 7.181
20.54000 3.974
20.56000 -1.199
20.58000 1.979
20.60000 0.849
20.62000 0.648
20.64000 13.483
20.66000 9.990
20.68000 7.558
20.70000 7.019
20.72000 5.232
20.74000 0.798
20.76000 5.338
20.78000 5.426
20.80000 6.462
20.82000 6.278
20.84000 6.979
20.86000 6.140
20.88000 14.761
20.90000 10.662
20.92000 9.873
20.94000 3.326
20.96000 7.387
20.98000 4.325
21.00000 5.729
21.02000 4.375
21.04000 6.352
21.06000 8.377
21.08000 5.159
21.10000 3.868
21.12000 1.915
21.14000 9.965
21.16000 13.651
21.18000 6.215
21.20000 2.963
21.22000 4.518
21.24000 8.929
21.26000 4.504
21.28000 3.864
21.30000 7.597
21.32000 5.862
21.34000 1.157
21.36000 -2.327
21.38000 1.702
21.40000 2.391
21.42000 3.368
21.44000 4.166
21.46000 3.095
21.48000 8.924
21.50000 6.928
21.52000 9.263
21.54000 7.204
21.56000 7.700
21.58000 7.386
21.60000 15.905
21.62000 11.578
21.64000 -0.421
21.66000 4.968
21.68000 7.386
21.70000 9.321
21.72000 10.746
21.74000 13.482
21.76000 9.859
21.78000 7.670
21.80000 5.595
21.82000 7.019
21.84000 8.431
21.86000 7.078
21.88000 6.432
21.90000 7.211
21.92000 8.133
21.94000 2.417
21.96000 3.479
21.98000 5.790
22.00000 4.303
22.02000 8.143
22.04000 12.936
22.06000 14.225
22.08000 5.554
22.10000 7.947
22.12000 8.761
22.14000 5.311
22.16000 -0.227
22.18000 0.759
22.20000 0.603
22.22000 -0.340
22.24000 1.385
22.26000 -4.068
22.28000 1.312
22.30000 5.602
22.32000 7.905
22.34000 13.828
22.36000 8.049
22.38000 7.304
22.40000 11.786
22.42000 7.291
22.44000 5.718
22.46000 7.046
22.48000 9.015
22.50000 5.838
22.52000 4.493
22.54000 2.228
22.56000 5.574
22.58000 2.441
22.60000 5.556
22.62000 3.140
22.64000 9.155
22.66000 13.966
22.68000 9.528
22.70000 -0.837
22.72000 1.915
22.74000 -0.123
22.76000 6.937
22.78000 4.924
22.80000 -0.652
22.82000 2.931
22.84000 2.014
22.86000 7.029
22.88000 10.836
22.90000 2.745
22.92000 3.690
22.94000 6.217
22.96000 2.436
22.98000 2.792
23.00000 2.190
23.02000 1.401
23.04000 -1.930
23.06000 1.374
23.08000 0.523
23.10000 9.130
23.12000 13.746
23.14000 5.663
23.16000 7.997
23.18000 6.221
23.20000 8.697
23.22000 8.090
23.24000 9.442
23.26000 5.999
23.28000 4.999
23.30000 5.874
23.32000 11.257
23.34000 8.386
23.36000 -2.297
23.38000 0.601
23.40000 5.545
23.42000 3.355
23.44000 4.983
23.46000 1.855
23.48000 6.980
23.50000 -0.876
23.52000 2.112
23.54000 9.720
23.56000 6.659
23.58000 5.784
23.60000 7.007
23.62000 5.632
23.64000 8.243
23.66000 3.722
23.68000 2.240
23.70000 4.189
23.72000 3.584
23.74000 4.248
23.76000 3.254
23.78000 7.163
23.80000 6.426
23.82000 2.012
23.84000 -0.099
23.86000 7.512
23.88000 -0.718
23.90000 -1.164
23.92000 3.788
23.94000 5.189
23.96000 -0.282
23.98000 3.626
24.00000 10.479
24.02000 8.137
24.04000 -2.467
24.06000 1.613
24.08000 4.957
24.10000 -4.015
24.12000 -1.944
24.14000 2.751
24.16000 2.701
24.18000 5.891
24.20000 4.733
24.22000 5.255
24.24000 0.356
24.26000 0.601
24.28000 3.629
24.30000 4.993
24.32000 4.571
24.34000 6.077
24.36000 5.894
24.38000 0.409
24.40000 -0.114
24.42000 3.833
24.44000 4.436
24.46000 8.461
24.48000 5.298
24.50000 6.756
24.52000 8.246
24.54000 11.410
24.56000 12.407
24.58000 -1.937
24.60000 0.114
24.62000 11.083
24.64000 7.918
24.66000 -2.164
24.68000 -3.990
24.70000 -0.838
24.72000 -2.697
24.74000 -2.941
24.76000 -0.095
24.78000 4.924
24.80000 2.126
24.82000 5.190
24.84000 5.071
24.86000 -2.308
24.88000 0.916
24.90000 2.487
24.92000 -3.978
24.94000 -2.574
24.96000 3.490
24.98000 -1.661
25.00000 -2.018
25.02000 1.527
25.04000 -0.771
25.06000 -3.686
25.08000 -3.225
25.10000 -3.968
25.12000 0.832
25.14000 4.546
25.16000 6.086
25.18000 2.182
25.20000 4.602
25.22000 -2.738
25.24000 -2.130
25.26000 2.594
25.28000 -1.852
25.30000 5.365
25.32000 5.975
25.34000 -3.233
25.36000 -3.200
25.38000 -3.480
25.40000 -0.245
25.42000 -0.141
25.44000 0.462
25.46000 3.037
25.48000 5.139
25.50000 7.122
25.52000 4.501
25.54000 2.827
25.56000 -1.651
25.58000 0.290
25.60000 3.284
25.62000 6.635
25.64000 5.991
25.66000 3.408
25.68000 -1.019
25.70000 -1.669
25.72000 -0.988
25.74000 3.219
25.76000 4.481
25.78000 7.099
25.80000 4.418
25.82000 -0.747
25.84000 -0.244
25.86000 -2.002
25.88000 -3.186
25.90000 2.332
25.92000 5.822
25.94000 6.303
25.96000 7.907
25.98000 6.274
26.00000 2.033
26.02000 0.611
26.04000 1.088
26.06000 1.643
26.08000 -2.071
26.10000 0.902
26.12000 -1.762
26.14000 -1.208
26.16000 -0.284
26.18000 3.182
26.20000 2.375
26.22000 5.624
26.24000 4.407
26.26000 7.596
26.28000 5.341
26.30000 2.482
26.32000 5.942
26.34000 0.601
26.36000 -2.261
26.38000 3.589
26.40000 7.798
26.42000 5.291
26.44000 4.330
26.46000 3.293
26.48000 1.152
26.50000 4.337
26.52000 5.828
26.54000 4.503
26.56000 3.223
26.58000 2.112
26.60000 4.564
26.62000 5.407
26.64000 4.479
26.66000 6.826
26.68000 -3.855
26.70000 -2.270
26.72000 -0.722
26.74000 1.067
26.76000 4.082
26.78000 4.726
26.80000 3.536
26.82000 1.107
26.84000 7.620
26.86000 9.699
26.88000 3.947
26.90000 4.187
26.92000 3.692
26.94000 1.540
26.96000 1.894
26.98000 0.376
27.00000 3.857
27.02000 5.977
27.04000 4.832
27.06000 1.974
27.08000 0.197
27.10000 -2.124
27.12000 0.811
27.14000 4.620
27.16000 0.108
27.18000 -1.655
27.20000 -3.381
27.22000 -0.236
27.24000 2.406
27.26000 -0.631
27.28000 -2.288
27.30000 5.048
27.32000 3.194
27.34000 2.204
27.36000 2.209
27.38000 5.663
27.40000 -0.310
27.42000 -2.133
27.44000 -0.954
27.46000 -1.964
27.48000 6.334
27.50000 2.478
27.52000 4.437
27.54000 2.820
27.56000 -3.072
27.58000 -1.551
27.60000 4.174
27.62000 2.132
27.64000 -0.641
27.66000 1.721
27.68000 3.538
27.70000 1.558
27.72000 2.869
27.74000 1.128
27.76000 4.305
27.78000 4.250
27.80000 3.809
27.82000 -1.253
27.84000 1.498
27.86000 2.227
27.88000 6.535
27.90000 5.787
27.92000 7.896
27.94000 4.845
27.96000 3.728
27.98000 5.112
28.00000 6.620
28.02000 2.025
28.04000 2.088
28.06000 0.726
28.08000 4.268
28.10000 4.000
28.12000 1.907
28.14000 0.999
28.16000 6.257
28.18000 3.627
28.20000 2.119
28.22000 2.778
28.24000 -0.018
28.26000 -1.991
28.28000 -0.490
28.30000 -1.373
28.32000 -0.551
28.34000 0.506
28.36000 3.983
28.38000 1.242
28.40000 -1.766
28.42000 0.721
28.44000 5.759
28.46000 8.967
28.48000 3.447
28.50000 -0.063
28.52000 2.927
28.54000 3.912
28.56000 2.395
28.58000 -0.736
28.60000 -2.405
28.62000 -2.132
28.64000 3.718
28.66000 8.097
28.68000 10.425
28.70000 1.225
28.72000 -3.766
28.74000 -0.658
28.76000 2.803
28.78000 2.039
28.80000 3.077
28.82000 -0.057
28.84000 -0.324
28.86000 0.420
28.88000 0.234
28.90000 3.712
28.92000 1.974
28.94000 1.106
28.96000 0.114
28.98000 -3.528
29.00000 3.756
29.02000 7.266
29.04000 6.375
29.06000 6.232
29.08000 7.046
29.10000 4.449
29.12000 -0.294
29.14000 -2.715
29.16000 0.510
29.18000 2.943
29.20000 4.767
29.22000 4.692
29.24000 -1.252
29.26000 0.845
29.28000 -1.163
29.30000 -1.741
29.32000 -0.558
29.34000 2.297
29.36000 0.885
29.38000 -0.945
29.40000 5.995
29.42000 4.192
29.44000 -2.932
29.46000 -2.283
29.48000 -0.868
29.50000 -1.478
29.52000 3.447
29.54000 2.994
29.56000 3.070
29.58000 6.099
29.60000 4.820
29.62000 2.592
29.64000 1.831
29.66000 1.011
29.68000 2.088
29.70000 2.994
29.72000 3.253
29.74000 5.748
29.76000 1.199
29.78000 -3.264
29.80000 -1.309
29.82000 0.097
29.84000 -0.500
29.86000 0.471
29.88000 1.122
29.90000 -0.108
29.92000 -3.728
29.94000 -0.249
29.96000 6.771
29.98000 10.779
30.00000 10.740
30.02000 0.244
30.04000 -1.354
30.06000 1.013
30.08000 -1.863
30.10000 -3.282
30.12000 -1.612
30.14000 -1.842
30.16000 1.449
30.18000 -1.081
30.20000 -0.151
30.22000 1.468
30.24000 -0.095
30.26000 5.493
30.28000 7.029
30.30000 -2.195
30.32000 0.393
30.34000 2.652
30.36000 4.862
30.38000 2.327
30.40000 7.371
30.42000 7.243
30.44000 3.887
30.46000 -0.585
30.48000 -1.510
30.50000 -1.464
30.52000 3.980
30.54000 3.271
30.56000 -1.256
30.58000 -3.268
30.60000 -3.693
30.62000 0.467
30.64000 0.036
30.66000 3.497
30.68000 0.146
30.70000 -0.304
30.72000 -0.725
30.74000 -0.702
30.76000 1.614
30.78000 0.182
30.80000 0.621
30.82000 2.396
30.84000 0.114
30.86000 -0.444
30.88000 1.090
30.90000 5.108
30.92000 3.450
30.94000 1.225
30.96000 2.405
30.98000 1.118
31.00000 1.837
31.02000 5.536
31.04000 4.184
31.06000 -1.012
31.08000 -0.230
31.10000 3.325
31.12000 -2.049
31.14000 0.243
31.16000 3.904
31.18000 2.016
31.20000 -1.748
31.22000 2.150
31.24000 -1.129
31.26000 -0.512
31.28000 5.877
31.30000 6.286
31.32000 5.829
31.34000 3.400
31.36000 6.862
31.38000 1.509
31.40000 -3.646
31.42000 0.480
31.44000 5.750
31.46000 6.840
31.48000 3.450
31.50000 4.186
31.52000 4.371
31.54000 0.127
31.56000 5.025
31.58000 5.749
31.60000 5.510
31.62000 5.586
31.64000 1.617
31.66000 0.499
31.68000 -0.957
31.70000 -1.778
31.72000 -0.558
31.74000 0.810
31.76000 3.846
31.78000 4.723
31.80000 2.734
31.82000 0.297
31.84000 2.705
31.86000 2.104
31.88000 0.538
31.90000 -0.264
31.92000 2.221
31.94000 8.485
31.96000 5.877
31.98000 -0.385
32.00000 -2.013
32.02000 -3.612
32.04000 -1.507
32.06000 0.682
32.08000 2.901
32.10000 1.162
32.12000 1.323
32.14000 1.666
32.16000 0.738
32.18000 4.838
32.20000 1.724
32.22000 -0.958
32.24000 -0.475
32.26000 1.614
32.28000 5.997
32.30000 10.397
32.32000 7.736
32.34000 5.286
32.36000 -0.631
32.38000 3.487
32.40000 8.394
32.42000 1.936
32.44000 2.676
32.46000 5.511
32.48000 3.160
32.50000 3.677
32.52000 7.824
32.54000 -0.485
32.56000 0.213
32.58000 -0.843
32.60000 -1.526
32.62000 -2.138
32.64000 1.992
32.66000 4.301
32.68000 1.131
32.70000 7.301
32.72000 8.269
32.74000 0.888
32.76000 -3.586
32.78000 -0.435
32.80000 5.374
32.82000 2.400
32.84000 0.078
32.86000 6.979
32.88000 4.837
32.90000 0.602
32.92000 2.966
32.94000 4.971
32.96000 -1.752
32.98000 -1.093
33.00000 2.816
33.02000 5.653
33.04000 3.373
33.06000 -0.331
33.08000 2.102
33.10000 -1.246
33.12000 4.079
33.14000 5.489
33.16000 5.772
33.18000 3.025
33.20000 1.240
33.22000 -0.813
33.24000 3.038
33.26000 2.551
33.28000 1.575
33.30000 4.598
33.32000 5.879
33.34000 6.670
33.36000 6.073
33.38000 2.725
33.40000 1.707
33.42000 -1.262
33.44000 2.693
33.46000 6.812
33.48000 7.842
33.50000 1.679
33.52000 2.508
33.54000 10.892
33.56000 5.363
33.58000 3.228
33.60000 3.731
33.62000 3.466
33.64000 3.114
33.66000 1.135
33.68000 6.403
33.70000 5.614
33.72000 -1.975
33.74000 1.470
33.76000 4.277
33.78000 3.534
33.80000 2.137
33.82000 -2.115
33.84000 4.875
33.86000 8.339
33.88000 8.994
33.90000 6.083
33.92000 9.002
33.94000 -0.715
33.96000 0.482
33.98000 5.529
34.00000 8.390
34.02000 5.046
34.04000 2.511
34.06000 0.037
34.08000 3.000
34.10000 4.097
34.12000 4.030
34.14000 1.218
34.16000 7.949
34.18000 9.309
34.20000 6.241
34.22000 5.354
34.24000 6.242
34.26000 0.485
34.28000 -1.144
34.30000 4.222
34.32000 3.616
34.34000 1.367
34.36000 3.504
34.38000 4.569
34.40000 3.607
34.42000 9.937
34.44000 8.720
34.46000 8.258
34.48000 9.171
34.50000 3.031
34.52000 2.458
34.54000 4.056
34.56000 1.930
34.58000 -3.517
34.60000 -0.182
34.62000 2.582
34.64000 6.803
34.66000 6.617
34.68000 3.597
34.70000 1.142
34.72000 3.462
34.74000 2.807
34.76000 0.603
34.78000 1.143
34.80000 1.456
34.82000 5.410
34.84000 8.402
34.86000 5.964
34.88000 2.927
34.90000 1.436
34.92000 -0.608
34.94000 0.625
34.96000 1.327
34.98000 4.518
35.00000 2.114
35.02000 2.794
35.04000 5.822
35.06000 5.999
35.08000 2.769
35.10000 -0.657
35.12000 1.195
35.14000 0.006
35.16000 -1.457
35.18000 1.083
35.20000 7.068
35.22000 3.488
35.24000 1.608
35.26000 5.736
35.28000 1.816
35.30000 -0.569
35.32000 -0.672
35.34000 -2.033
35.36000 -3.238
35.38000 -0.976
35.40000 0.795
35.42000 -2.742
35.44000 -2.807
35.46000 0.104
35.48000 1.925
35.50000 3.063
35.52000 8.257
35.54000 3.515
35.56000 2.132
35.58000 1.330
35.60000 -2.729
35.62000 -0.792
35.64000 -3.530
35.66000 2.880
35.68000 -1.486
35.70000 -1.158
35.72000 1.826
35.74000 1.543
35.76000 0.779
35.78000 5.067
35.80000 3.867
35.82000 1.919
35.84000 1.622
35.86000 1.644
35.88000 -1.758
35.90000 0.218
35.92000 2.462
35.94000 0.539
35.96000 -0.915
35.98000 1.889
36.00000 1.096
36.02000 -2.179
36.04000 4.462
36.06000 4.142
36.08000 2.225
36.10000 -2.542
36.12000 0.894
36.14000 2.452
36.16000 1.949
36.18000 -1.578
36.20000 2.277
36.22000 3.027
36.24000 4.029
36.26000 -0.091
36.28000 3.277
36.30000 3.230
36.32000 0.547
36.34000 -2.636
36.36000 -3.557
36.38000 1.650
36.40000 1.444
36.42000 -0.315
36.44000 1.893
36.46000 -0.131
36.48000 2.549
36.50000 6.052
36.52000 2.130
36.54000 0.083
36.56000 3.146
36.58000 3.874
36.60000 -1.147
36.62000 -0.451
36.64000 -0.371
36.66000 4.592
36.68000 1.063
36.70000 1.847
36.72000 3.764
36.74000 1.467
36.76000 0.776
36.78000 -0.365
36.80000 -0.626
36.82000 -1.440
36.84000 -3.051
36.86000 -3.578
36.88000 0.395
36.90000 4.025
36.92000 3.029
36.94000 2.410
36.96000 0.016
36.98000 2.277
37.00000 1.419
37.02000 -1.140
37.04000 -0.073
37.06000 1.072
37.08000 1.674
37.10000 2.462
37.12000 0.705
37.14000 0.416
37.16000 -1.495
37.18000 -0.892
37.20000 -1.335
37.22000 2.039
37.24000 3.646
37.26000 -0.998
37.28000 -3.131
37.30000 -3.605
37.32000 -1.427
37.34000 -2.710
37.36000 -2.722
37.38000 1.060
37.40000 5.899
37.42000 5.227
37.44000 -1.287
37.46000 -2.975
37.48000 1.449
37.50000 -0.654
37.52000 -2.289
37.54000 0.842
37.56000 0.451
37.58000 -3.633
37.60000 -0.354
37.62000 -0.785
37.64000 -1.717
37.66000 -0.429
37.68000 3.212
37.70000 1.145
37.72000 0.515
37.74000 -0.554
37.76000 0.140
37.78000 1.278
37.80000 2.527
37.82000 2.627
37.84000 -0.930
37.86000 -3.130
37.88000 1.914
37.90000 5.278
37.92000 6.178
37.94000 6.480
37.96000 1.508
37.98000 1.374
38.00000 2.805
38.02000 0.373
38.04000 4.165
38.06000 2.928
38.08000 6.953
38.10000 6.900
38.12000 4.486
38.14000 8.367
38.16000 9.497
38.18000 6.764
38.20000 7.912
38.22000 9.552
38.24000 6.238
38.26000 6.389
38.28000 8.861
38.30000 12.931
38.32000 12.438
38.34000 13.657
38.36000 10.099
38.38000 7.351
38.40000 8.885
38.42000 8.435
38.44000 10.395
38.46000 14.186
38.48000 17.243
38.50000 16.231
38.52000 17.491
38.54000 15.972
38.56000 19.955
38.58000 19.528
38.60000 16.427
38.62000 14.104
38.64000 16.682
38.66000 17.959
38.68000 19.114
38.70000 18.467
38.72000 14.477
38.74000 20.239
38.76000 17.685
38.78000 18.020
38.80000 28.352
38.82000 25.259
38.84000 22.745
38.86000 23.491
38.88000 25.784
38.90000 24.143
38.92000 27.453
38.94000 24.272
38.96000 26.440
38.98000 34.678
39.00000 37.885
39.02000 32.295
39.04000 33.156
39.06000 35.737
39.08000 36.274
39.10000 41.604
39.12000 45.147
39.14000 48.535
39.16000 44.384
39.18000 43.674
39.20000 44.532
39.22000 48.272
39.24000 48.132
39.26000 48.676
39.28000 51.833
39.30000 55.135
39.32000 57.496
39.34000 60.277
39.36000 59.919
39.38000 65.809
39.40000 69.995
39.42000 72.162
39.44000 73.612
39.46000 77.571
39.48000 79.740
39.50000 83.189
39.52000 85.952
39.54000 88.012
39.56000 99.455
39.58000 104.194
39.60000 99.793
39.62000 108.840
39.64000 117.001
39.66000 120.329
39.68000 124.708
39.70000 133.621
39.72000 143.070
39.74000 143.700
39.76000 146.837
39.78000 156.569
39.80000 166.590
39.82000 170.439
39.84000 187.124
39.86000 201.174
39.88000 204.819
39.90000 212.525
39.92000 224.535
39.94000 230.423
39.96000 243.520
39.98000 257.038
40.00000 272.112
40.02000 287.714
40.04000 295.682
40.06000 313.393
40.08000 325.425
40.10000 338.654
40.12000 361.784
40.14000 364.604
40.16000 371.304
40.18000 386.824
40.20000 394.494
40.22000 402.010
40.24000 418.466
40.26000 425.172
40.28000 441.461
40.30000 466.126
40.32000 481.427
40.34000 485.163
40.36000 495.244
40.38000 499.745
40.40000 515.822
40.42000 527.367
40.44000 539.366
40.46000 543.450
40.48000 527.967
40.50000 525.114
40.52000 535.838
40.54000 537.572
40.56000 527.702
40.58000 518.462
40.60000 524.873
40.62000 521.586
40.64000 517.345
40.66000 519.060
40.68000 507.315
40.70000 492.100
40.72000 474.873
40.74000 464.421
40.76000 457.639
40.78000 446.134
40.80000 427.224
40.82000 407.477
40.84000 398.299
40.86000 375.583
40.88000 364.859
40.90000 356.296
40.92000 353.218
40.94000 334.774
40.96000 314.265
40.98000 298.351
41.00000 280.930
41.02000 268.582
41.04000 259.380
41.06000 246.238
41.08000 231.707
41.10000 220.153
41.12000 213.048
41.14000 202.933
41.16000 201.040
41.18000 196.436
41.20000 178.446
41.22000 161.409
41.24000 154.419
41.26000 148.413
41.28000 140.912
41.30000 136.412
41.32000 128.031
41.34000 122.944
41.36000 118.466
41.38000 109.811
41.40000 105.766
41.42000 103.934
41.44000 101.447
41.46000 94.644
41.48000 88.259
41.50000 81.636
41.52000 78.801
41.54000 77.924
41.56000 73.223
41.58000 63.424
41.60000 64.409
41.62000 60.240
41.64000 55.512
41.66000 60.224
41.68000 55.365
41.70000 48.078
41.72000 49.150
41.74000 47.450
41.76000 43.528
41.78000 42.304
41.80000 41.175
41.82000 41.487
41.84000 37.756
41.86000 37.680
41.88000 35.925
41.90000 29.574
41.92000 26.049
41.94000 24.687
41.96000 26.713
41.98000 26.912
42.00000 24.808
42.02000 22.025
42.04000 19.177
42.06000 19.025
42.08000 23.284
42.10000 18.345
42.12000 18.495
42.14000 16.190
42.16000 13.957
42.18000 12.865
42.20000 13.817
42.22000 10.563
42.24000 13.998
42.26000 14.076
42.28000 12.605
42.30000 16.121
42.32000 13.935
42.34000 11.175
42.36000 11.565
42.38000 8.572
42.40000 11.010
42.42000 11.879
42.44000 13.213
42.46000 5.779
42.48000 5.155
42.50000 8.922
42.52000 9.107
42.54000 5.751
42.56000 7.903
42.58000 3.694
42.60000 5.523
42.62000 4.650
42.64000 2.312
42.66000 2.806
42.68000 3.924
42.70000 5.633
42.72000 3.999
42.74000 6.804
42.76000 4.298
42.78000 0.294
42.80000 -2.435
42.82000 -0.240
42.84000 -1.391
42.86000 0.646
42.88000 4.838
42.90000 6.706
42.92000 7.472
42.94000 2.291
42.96000 4.800
42.98000 5.888
43.00000 5.715
43.02000 3.043
43.04000 0.758
43.06000 6.978
43.08000 6.790
43.10000 5.112
43.12000 7.092
43.14000 3.377
43.16000 4.367
43.18000 -1.368
43.20000 1.888
43.22000 5.387
43.24000 3.558
43.26000 5.835
43.28000 6.353
43.30000 4.637
43.32000 3.212
43.34000 5.293
43.36000 6.421
43.38000 6.870
43.40000 2.944
43.42000 4.624
43.44000 8.733
43.46000 7.731
43.48000 4.235
43.50000 9.035
43.52000 1.592
43.54000 -3.455
43.56000 4.702
43.58000 2.016
43.60000 2.327
43.62000 6.191
43.64000 6.355
43.66000 -1.066
43.68000 -3.448
43.70000 -0.387
43.72000 3.059
43.74000 6.837
43.76000 4.455
43.78000 4.005
43.80000 -0.991
43.82000 6.559
43.84000 8.123
43.86000 4.716
43.88000 3.815
43.90000 2.398
43.92000 1.847
43.94000 -3.440
43.96000 -2.575
43.98000 -2.425
44.00000 -2.410
44.02000 -0.588
44.04000 -0.605
44.06000 -0.554
44.08000 -2.086
44.10000 1.163
44.12000 2.502
44.14000 1.025
44.16000 0.680
44.18000 4.439
44.20000 1.558
44.22000 2.669
44.24000 0.236
44.26000 1.316
44.28000 -0.047
44.30000 -3.189
44.32000 -1.191
44.34000 -0.405
44.36000 -0.344
44.38000 -0.136
44.40000 4.979
44.42000 6.463
44.44000 5.331
44.46000 4.694
44.48000 1.447
44.50000 6.766
44.52000 3.285
44.54000 -1.242
44.56000 -1.247
44.58000 1.754
44.60000 2.344
44.62000 -1.164
44.64000 6.966
44.66000 7.716
44.68000 3.803
44.70000 2.873
44.72000 -3.446
44.74000 4.500
44.76000 7.341
44.78000 3.266
44.80000 3.644
44.82000 0.561
44.84000 -0.258
44.86000 4.233
44.88000 4.325
44.90000 2.291
44.92000 7.704
44.94000 7.387
44.96000 4.072
44.98000 7.868
45.00000 4.926
45.02000 6.797
45.04000 5.853
45.06000 3.020
45.08000 3.023
45.10000 3.495
45.12000 0.831
45.14000 4.138
45.16000 6.180
45.18000 5.465
45.20000 5.031
45.22000 7.031
45.24000 4.057
45.26000 1.655
45.28000 3.874
45.30000 8.756
45.32000 9.545
45.34000 11.991
45.36000 9.169
45.38000 8.959
45.40000 9.659
45.42000 9.100
45.44000 10.943
45.46000 10.838
45.48000 5.231
45.50000 3.293
45.52000 8.630
45.54000 7.670
45.56000 8.726
45.58000 13.193
45.60000 17.680
45.62000 18.317
45.64000 16.195
45.66000 13.523
45.68000 13.758
45.70000 10.286
45.72000 14.820
45.74000 17.782
45.76000 18.060
45.78000 17.599
45.80000 20.086
45.82000 20.277
45.84000 24.561
45.86000 27.347
45.88000 22.984
45.90000 17.784
45.92000 21.193
45.94000 20.439
45.96000 24.079
45.98000 28.679
46.00000 27.347
46.02000 33.050
46.04000 29.173
46.06000 20.664
46.08000 25.959
46.10000 38.379
46.12000 37.425
46.14000 34.364
46.16000 30.875
46.18000 35.035
46.20000 42.140
46.22000 35.295
46.24000 36.642
46.26000 41.412
46.28000 42.309
46.30000 41.895
46.32000 44.421
46.34000 45.983
46.36000 48.348
46.38000 52.106
46.40000 50.748
46.42000 50.056
46.44000 49.647
46.46000 54.867
46.48000 54.928
46.50000 55.889
46.52000 53.591
46.54000 56.543
46.56000 59.007
46.58000 59.807
46.60000 61.458
46.62000 68.138
46.64000 61.614
46.66000 58.315
46.68000 61.924
46.70000 65.701
46.72000 61.752
46.74000 66.607
46.76000 69.412
46.78000 70.224
46.80000 73.550
46.82000 72.137
46.84000 73.098
46.86000 75.516
46.88000 78.606
46.90000 74.374
46.92000 76.758
46.94000 81.542
46.96000 77.967
46.98000 79.913
47.00000 78.963
47.02000 80.689
47.04000 75.558
47.06000 77.087
47.08000 76.453
47.10000 70.748
47.12000 71.862
47.14000 82.915
47.16000 84.638
47.18000 87.266
47.20000 80.788
47.22000 78.837
47.24000 73.593
47.26000 71.471
47.28000 65.759
47.30000 68.685
47.32000 73.470
47.34000 71.961
47.36000 73.681
47.38000 70.195
47.40000 68.831
47.42000 66.576
47.44000 64.998
47.46000 67.459
47.48000 64.741
47.50000 63.733
47.52000 64.820
47.54000 65.490
47.56000 62.484
47.58000 55.046
47.60000 53.809
47.62000 56.249
47.64000 51.874
47.66000 51.792
47.68000 50.708
47.70000 43.905
47.72000 47.473
47.74000 49.028
47.76000 47.445
47.78000 48.581
47.80000 47.632
47.82000 40.879
47.84000 39.965
47.86000 36.469
47.88000 38.874
47.90000 38.994
47.92000 31.945
47.94000 30.337
47.96000 32.149
47.98000 30.530
48.00000 34.664
48.02000 30.088
48.04000 21.716
48.06000 25.546
48.08000 24.770
48.10000 21.597
48.12000 26.788
48.14000 24.303
48.16000 20.953
48.18000 21.969
48.20000 22.396
48.22000 16.620
48.24000 21.884
48.26000 19.194
48.28000 21.512
48.30000 15.783
48.32000 12.449
48.34000 12.906
48.36000 16.424
48.38000 16.646
48.40000 15.157
48.42000 14.147
48.44000 9.096
48.46000 10.840
48.48000 12.551
48.50000 12.895
48.52000 9.854
48.54000 8.367
48.56000 9.812
48.58000 5.388
48.60000 11.914
48.62000 10.342
48.64000 8.368
48.66000 10.849
48.68000 7.785
48.70000 7.717
48.72000 10.854
48.74000 7.859
48.76000 5.335
48.78000 4.580
48.80000 9.664
48.82000 7.859
48.84000 4.078
48.86000 3.466
48.88000 3.527
48.90000 8.351
48.92000 8.970
48.94000 12.556
48.96000 7.097
48.98000 1.972
49.00000 5.386
49.02000 5.265
49.04000 4.230
49.06000 5.392
49.08000 9.734
49.10000 4.263
49.12000 8.595
49.14000 8.854
49.16000 10.560
49.18000 9.212
49.20000 4.814
49.22000 -3.050
49.24000 4.977
49.26000 7.601
49.28000 4.954
49.30000 2.236
49.32000 5.183
49.34000 7.580
49.36000 6.121
49.38000 4.655
49.40000 3.992
49.42000 0.163
49.44000 4.862
49.46000 12.045
49.48000 10.628
49.50000 13.196
49.52000 12.549
49.54000 9.666
49.56000 12.159
49.58000 9.648
49.60000 8.573
49.62000 7.768
49.64000 7.540
49.66000 4.565
49.68000 3.590
49.70000 2.571
49.72000 7.745
49.74000 3.676
49.76000 -0.063
49.78000 0.474
49.80000 5.096
49.82000 8.114
49.84000 8.186
49.86000 5.098
49.88000 8.727
49.90000 6.751
49.92000 -2.993
49.94000 -2.135
49.96000 8.175
49.98000 3.461
50.00000 1.124
50.02000 1.622
50.04000 6.356
50.06000 3.052
50.08000 5.774
50.10000 3.694
50.12000 1.058
50.14000 3.375
50.16000 6.836
50.18000 7.220
50.20000 0.413
50.22000 1.909
50.24000 3.963
50.26000 5.900
50.28000 5.624
50.30000 8.786
50.32000 8.815
50.34000 4.141
50.36000 3.345
50.38000 2.253
50.40000 2.332
50.42000 0.689
50.44000 3.664
50.46000 7.477
50.48000 9.000
50.50000 2.524
50.52000 -2.942
50.54000 2.969
50.56000 10.303
50.58000 11.947
50.60000 7.743
50.62000 5.111
50.64000 9.150
50.66000 8.224
50.68000 6.907
50.70000 3.694
50.72000 5.028
50.74000 8.784
50.76000 11.427
50.78000 9.253
50.80000 0.103
50.82000 1.689
50.84000 0.614
50.86000 2.429
50.88000 4.264
50.90000 2.562
50.92000 4.995
50.94000 4.635
50.96000 3.907
50.98000 3.983
51.00000 -0.646
51.02000 -2.817
51.04000 1.459
51.06000 2.769
51.08000 3.358
51.10000 -2.761
51.12000 2.900
51.14000 4.728
51.16000 1.548
51.18000 -0.078
51.20000 6.643
51.22000 5.841
51.24000 7.958
51.26000 6.916
51.28000 3.998
51.30000 1.137
51.32000 -0.510
51.34000 -0.191
51.36000 5.967
51.38000 9.402
51.40000 9.842
51.42000 5.840
51.44000 3.669
51.46000 6.585
51.48000 2.820
51.50000 4.830
51.52000 4.738
51.54000 -2.905
51.56000 0.766
51.58000 3.848
51.60000 1.837
51.62000 2.670
51.64000 6.589
51.66000 4.896
51.68000 2.914
51.70000 -1.335
51.72000 -2.242
51.74000 1.288
51.76000 6.469
51.78000 7.450
51.80000 7.055
51.82000 3.394
51.84000 3.411
51.86000 1.206
51.88000 0.472
51.90000 1.173
51.92000 4.803
51.94000 2.656
51.96000 3.535
51.98000 8.575
52.00000 6.112
52.02000 -0.499
52.04000 -1.578
52.06000 1.397
52.08000 2.829
52.10000 6.355
52.12000 2.085
52.14000 3.724
52.16000 3.751
52.18000 -0.463
52.20000 0.011
52.22000 -0.877
52.24000 3.230
52.26000 6.531
52.28000 10.463
52.30000 6.483
52.32000 5.349
52.34000 5.693
52.36000 4.293
52.38000 5.068
52.40000 5.416
52.42000 3.216
52.44000 4.484
52.46000 6.789
52.48000 5.780
52.50000 2.018
52.52000 -2.873
52.54000 -0.741
52.56000 2.455
52.58000 1.777
52.60000 3.484
52.62000 6.933
52.64000 3.847
52.66000 0.715
52.68000 -0.234
52.70000 -0.093
52.72000 3.745
52.74000 2.692
52.76000 5.147
52.78000 5.752
52.80000 3.900
52.82000 5.725
52.84000 3.932
52.86000 3.174
52.88000 3.475
52.90000 3.039
52.92000 3.759
52.94000 6.061
52.96000 7.565
52.98000 8.369
53.00000 5.275
53.02000 2.688
53.04000 -0.068
53.06000 0.878
53.08000 7.882
53.10000 7.357
53.12000 5.875
53.14000 3.839
53.16000 5.766
53.18000 5.450
53.20000 6.930
53.22000 6.032
53.24000 -0.581
53.26000 -1.721
53.28000 5.491
53.30000 1.432
53.32000 2.488
53.34000 2.659
53.36000 1.179
53.38000 2.398
53.40000 3.637
53.42000 4.082
53.44000 4.849
53.46000 2.112
53.48000 0.736
53.50000 -1.841
53.52000 -0.460
53.54000 -1.609
53.56000 -2.710
53.58000 -2.840
53.60000 0.932
53.62000 6.436
53.64000 6.674
53.66000 9.514
53.68000 8.672
53.70000 7.285
53.72000 -1.276
53.74000 0.645
53.76000 2.679
53.78000 4.204
53.80000 3.258
53.82000 6.323
53.84000 6.591
53.86000 3.642
53.88000 -0.692
53.90000 2.790
53.92000 3.864
53.94000 4.447
53.96000 -1.345
53.98000 -0.851
54.00000 -1.216
54.02000 -1.760
54.04000 -1.172
54.06000 3.696
54.08000 0.510
54.10000 -0.816
54.12000 3.522
54.14000 2.692
54.16000 -2.510
54.18000 4.555
54.20000 2.777
54.22000 2.729
54.24000 1.530
54.26000 2.889
54.28000 1.375
54.30000 -1.466
54.32000 0.723
54.34000 -0.901
54.36000 -2.837
54.38000 1.939
54.40000 6.353
54.42000 5.531
54.44000 3.510
54.46000 -1.302
54.48000 -1.107
54.50000 0.237
54.52000 1.879
54.54000 3.509
54.56000 6.078
54.58000 5.461
54.60000 2.767
54.62000 1.896
54.64000 3.594
54.66000 -2.334
54.68000 2.230
54.70000 5.748
54.72000 10.188
54.74000 5.292
54.76000 -2.160
54.78000 2.259
54.80000 0.213
54.82000 2.455
54.84000 -1.472
54.86000 5.104
54.88000 5.335
54.90000 2.602
54.92000 5.328
54.94000 6.589
54.96000 6.189
54.98000 3.292
55.00000 3.358
55.02000 1.435
55.04000 3.337
55.06000 1.951
55.08000 -0.235
55.10000 2.744
55.12000 3.151
55.14000 0.064
55.16000 -2.806
55.18000 1.665
55.20000 4.862
55.22000 5.501
55.24000 3.344
55.26000 8.180
55.28000 9.211
55.30000 5.369
55.32000 4.628
55.34000 1.616
55.36000 0.344
55.38000 2.292
55.40000 4.525
55.42000 5.175
55.44000 4.239
55.46000 5.039
55.48000 11.463
55.50000 5.141
55.52000 1.159
55.54000 3.375
55.56000 2.639
55.58000 2.270
55.60000 -0.071
55.62000 4.225
55.64000 -0.932
55.66000 -2.773
55.68000 1.733
55.70000 7.541
55.72000 4.035
55.74000 2.261
55.76000 6.037
55.78000 8.564
55.80000 12.433
55.82000 14.397
55.84000 10.442
55.86000 5.470
55.88000 6.105
55.90000 8.353
55.92000 10.752
55.94000 9.043
55.96000 4.258
55.98000 5.720
56.00000 5.429
56.02000 0.910
56.04000 7.545
56.06000 9.924
56.08000 5.703
56.10000 2.592
56.12000 3.040
56.14000 1.662
56.16000 -0.701
56.18000 3.462
56.20000 9.615
56.22000 7.502
56.24000 4.970
56.26000 1.777
56.28000 3.617
56.30000 5.601
56.32000 4.336
56.34000 1.479
56.36000 0.221
56.38000 0.826
56.40000 3.067
56.42000 3.635
56.44000 3.783
56.46000 4.643
56.48000 0.915
56.50000 2.951
56.52000 -0.346
56.54000 3.048
56.56000 4.769
56.58000 -0.461
56.60000 6.128
56.62000 7.972
56.64000 0.512
56.66000 -0.402
56.68000 -2.297
56.70000 -2.737
56.72000 0.823
56.74000 3.385
56.76000 -0.631
56.78000 1.636
56.80000 3.411
56.82000 3.180
56.84000 7.524
56.86000 8.266
56.88000 4.382
56.90000 4.588
56.92000 5.171
56.94000 5.372
56.96000 3.529
56.98000 1.841
57.00000 -2.733
57.02000 -0.413
57.04000 -0.916
57.06000 0.935
57.08000 2.775
57.10000 3.647
57.12000 3.325
57.14000 3.112
57.16000 4.376
57.18000 3.422
57.20000 3.137
57.22000 4.208
57.24000 4.814
57.26000 1.925
57.28000 -1.285
57.30000 3.400
57.32000 2.218
57.34000 0.638
57.36000 2.696
57.38000 2.140
57.40000 0.936
57.42000 7.986
57.44000 5.928
57.46000 3.701
57.48000 3.759
57.50000 4.365
57.52000 2.288
57.54000 1.213
57.56000 -0.008
57.58000 0.276
57.60000 2.500
57.62000 3.753
57.64000 2.304
57.66000 1.178
57.68000 2.364
57.70000 2.430
57.72000 9.202
57.74000 7.521
57.76000 0.628
57.78000 -1.088
57.80000 -0.428
57.82000 1.306
57.84000 5.123
57.86000 4.771
57.88000 5.162
57.90000 9.386
57.92000 7.619
57.94000 2.813
57.96000 3.064
57.98000 7.680
58.00000 6.201
58.02000 3.453
58.04000 1.403
58.06000 -2.690
58.08000 2.079
58.10000 9.075
58.12000 7.905
58.14000 2.466
58.16000 0.483
58.18000 0.584
58.20000 0.359
58.22000 0.940
58.24000 4.338
58.26000 1.212
58.28000 -0.214
58.30000 4.842
58.32000 7.508
58.34000 4.110
58.36000 2.357
58.38000 -1.194
58.40000 -1.319
58.42000 2.759
58.44000 8.601
58.46000 5.788
58.48000 3.611
58.50000 5.468
58.52000 3.068
58.54000 0.826
58.56000 1.601
58.58000 2.702
58.60000 3.510
58.62000 6.568
58.64000 8.144
58.66000 4.259
58.68000 0.235
58.70000 -0.314
58.72000 3.882
58.74000 2.769
58.76000 -0.326
58.78000 -0.309
58.80000 1.965
58.82000 3.234
58.84000 4.872
58.86000 0.679
58.88000 -2.433
58.90000 2.521
58.92000 2.424
58.94000 3.365
58.96000 1.326
58.98000 0.720
59.00000 3.793
59.02000 0.933
59.04000 0.404
59.06000 0.693
59.08000 2.907
59.10000 2.779
59.12000 1.178
59.14000 -2.182
59.16000 3.923
59.18000 5.304
59.20000 4.967
59.22000 1.844
59.24000 0.911
59.26000 1.243
59.28000 6.287
59.30000 6.366
59.32000 4.762
59.34000 3.759
59.36000 3.780
59.38000 3.686
59.40000 3.338
59.42000 5.072
59.44000 2.775
59.46000 -2.666
59.48000 -0.816
59.50000 -1.819
59.52000 5.914
59.54000 0.368
59.56000 2.632
59.58000 5.690
59.60000 8.534
59.62000 10.317
59.64000 5.448
59.66000 3.718
59.68000 3.425
59.70000 3.587
59.72000 8.861
59.74000 3.810
59.76000 -1.276
59.78000 6.102
59.80000 1.198
59.82000 -0.399
59.84000 3.802
59.86000 5.469
59.88000 4.950
59.90000 4.383
59.92000 -0.206
59.94000 2.056
59.96000 0.280
59.98000 4.449
60.00000 4.199
60.02000 1.662
60.04000 2.617
60.06000 2.281
60.08000 0.522
60.10000 0.036
60.12000 3.953
60.14000 1.483
60.16000 1.463
60.18000 -0.019
60.20000 1.671
60.22000 -0.486
60.24000 -0.733
60.26000 2.030
60.28000 3.693
60.30000 -1.666
60.32000 2.231
60.34000 2.031
60.36000 -2.641
60.38000 0.472
60.40000 4.114
60.42000 3.308
60.44000 0.136
60.46000 1.741
60.48000 2.934
60.50000 1.260
60.52000 2.011
60.54000 4.770
60.56000 3.976
60.58000 6.718
60.60000 8.909
60.62000 5.812
60.64000 5.446
60.66000 0.312
60.68000 -2.630
60.70000 -2.229
60.72000 5.347
60.74000 5.018
60.76000 1.367
60.78000 0.251
60.80000 0.405
60.82000 0.328
60.84000 0.966
60.86000 5.461
60.88000 5.908
60.90000 1.744
60.92000 0.890
60.94000 4.739
60.96000 6.885
60.98000 7.713
61.00000 4.204
61.02000 3.649
61.04000 3.732
61.06000 2.090
61.08000 1.340
61.10000 3.888
61.12000 -1.324
61.14000 0.862
61.16000 0.719
61.18000 -2.615
61.20000 2.381
61.22000 2.479
61.24000 3.420
61.26000 2.872
61.28000 1.273
61.30000 2.117
61.32000 0.399
61.34000 -0.226
61.36000 -1.586
61.38000 -1.331
61.40000 2.910
61.42000 0.844
61.44000 -2.473
61.46000 2.725
61.48000 4.188
61.50000 2.263
61.52000 0.188
61.54000 0.906
61.56000 2.103
61.58000 -2.609
61.60000 0.152
61.62000 3.483
61.64000 3.618
61.66000 4.976
61.68000 2.116
61.70000 3.100
61.72000 1.641
61.74000 0.189
61.76000 -0.067
61.78000 3.600
61.80000 0.571
61.82000 -0.508
61.84000 2.280
61.86000 9.748
61.88000 7.001
61.90000 4.197
61.92000 -0.188
61.94000 -1.071
61.96000 6.063
61.98000 5.205
62.00000 1.842
62.02000 3.400
62.04000 -0.238
62.06000 -1.811
62.08000 -0.164
62.10000 0.764
62.12000 -0.749
62.14000 -2.587
62.16000 0.132
62.18000 4.268
62.20000 2.147
62.22000 6.937
62.24000 6.344
62.26000 5.898
62.28000 3.260
62.30000 3.540
62.32000 2.227
62.34000 3.969
62.36000 3.848
62.38000 1.858
62.40000 3.981
62.42000 2.785
62.44000 1.649
62.46000 3.940
62.48000 5.552
62.50000 3.140
62.52000 0.234
62.54000 -1.428
62.56000 4.958
62.58000 4.140
62.60000 6.128
62.62000 5.962
62.64000 0.586
62.66000 -1.335
62.68000 0.527
62.70000 5.111
62.72000 3.097
62.74000 3.387
62.76000 2.870
62.78000 0.371
62.80000 1.751
62.82000 8.069
62.84000 6.089
62.86000 2.236
62.88000 0.465
62.90000 1.419
62.92000 -1.006
62.94000 -0.792
62.96000 0.429
62.98000 -0.693
63.00000 4.167
63.02000 7.812
63.04000 2.719
63.06000 2.766
63.08000 2.267
63.10000 1.393
63.12000 1.109
63.14000 1.517
63.16000 2.245
63.18000 2.164
63.20000 2.662
63.22000 3.042
63.24000 2.665
63.26000 4.909
63.28000 6.539
63.30000 -2.566
63.32000 0.633
63.34000 1.417
63.36000 2.083
63.38000 1.906
63.40000 0.408
63.42000 2.573
63.44000 4.803
63.46000 3.764
63.48000 2.432
63.50000 -2.241
63.52000 3.092
63.54000 9.676
63.56000 6.945
63.58000 1.839
63.60000 1.679
63.62000 0.120
63.64000 -0.265
63.66000 2.144
63.68000 7.692
63.70000 5.709
63.72000 6.060
63.74000 7.983
63.76000 6.939
63.78000 2.232
63.80000 -0.553
63.82000 2.105
63.84000 -0.055
63.86000 -0.221
63.88000 3.865
63.90000 0.215
63.92000 -0.214
63.94000 2.370
63.96000 1.797
63.98000 2.823
64.00000 -0.427
64.02000 -1.740
64.04000 -0.685
64.06000 1.916
64.08000 2.116
64.10000 0.591
64.12000 3.556
64.14000 5.529
64.16000 7.136
64.18000 3.584
64.20000 0.083
64.22000 2.695
64.24000 4.058
64.26000 4.079
64.28000 2.149
64.30000 3.327
64.32000 0.234
64.34000 1.846
64.36000 3.032
64.38000 1.683
64.40000 4.215
64.42000 4.159
64.44000 -2.563
64.46000 1.088
64.48000 3.276
64.50000 1.423
64.52000 1.575
64.54000 4.421
64.56000 7.434
64.58000 1.107
64.60000 2.664
64.62000 2.053
64.64000 2.798
64.66000 5.273
64.68000 6.508
64.70000 4.943
64.72000 3.164
64.74000 -0.157
64.76000 3.208
64.78000 -0.771
64.80000 2.620
64.82000 5.780
64.84000 4.173
64.86000 2.972
64.88000 1.662
64.90000 2.070
64.92000 2.620
64.94000 3.188
64.96000 1.835
64.98000 2.978
65.00000 -1.750
65.02000 3.532
65.04000 5.746
65.06000 -1.501
65.08000 -1.049
65.10000 -2.018
65.12000 -0.943
65.14000 -1.466
65.16000 0.334
65.18000 -1.659
65.20000 1.714
65.22000 -0.690
65.24000 -1.830
65.26000 3.735
65.28000 3.974
65.30000 1.358
65.32000 4.427
65.34000 4.492
65.36000 2.004
65.38000 -0.683
65.40000 -1.388
65.42000 2.093
65.44000 1.808
65.46000 0.948
65.48000 0.080
65.50000 0.499
65.52000 -1.554
65.54000 2.046
65.56000 3.033
65.58000 8.497
65.60000 6.624
65.62000 2.254
65.64000 -2.607
65.66000 -1.700
65.68000 0.386
65.70000 -0.586
65.72000 -1.646
65.74000 0.829
65.76000 0.863
65.78000 -0.121
65.80000 -0.272
65.82000 4.265
65.84000 0.911
65.86000 3.506
65.88000 -0.517
65.90000 -1.951
65.92000 1.560
65.94000 5.166
65.96000 5.973
65.98000 4.772
66.00000 2.042
66.02000 1.186
66.04000 1.806
66.06000 0.453
66.08000 0.270
66.10000 1.161
66.12000 1.164
66.14000 0.732
66.16000 1.498
66.18000 2.653
66.20000 1.215
66.22000 -1.007
66.24000 -1.221
66.26000 1.972
66.28000 0.672
66.30000 2.536
66.32000 2.659
66.34000 2.197
66.36000 2.931
66.38000 4.002
66.40000 5.278
66.42000 1.598
66.44000 -0.516
66.46000 2.577
66.48000 6.127
66.50000 4.004
66.52000 2.080
66.54000 6.834
66.56000 3.751
66.58000 0.536
66.60000 1.598
66.62000 2.267
66.64000 3.883
66.66000 6.578
66.68000 0.076
66.70000 -2.622
66.72000 1.808
66.74000 3.254
66.76000 6.244
66.78000 3.113
66.80000 -1.119
66.82000 2.215
66.84000 3.242
66.86000 0.501
66.88000 0.577
66.90000 1.563
66.92000 3.946
66.94000 4.320
66.96000 3.423
66.98000 1.146
67.00000 -2.116
67.02000 3.327
67.04000 1.969
67.06000 1.805
67.08000 2.679
67.10000 -0.899
67.12000 -0.309
67.14000 4.408
67.16000 0.887
67.18000 0.860
67.20000 -1.219
67.22000 1.513
67.24000 -1.458
67.26000 2.828
67.28000 5.829
67.30000 4.359
67.32000 3.353
67.34000 4.453
67.36000 2.234
67.38000 4.063
67.40000 1.909
67.42000 1.297
67.44000 4.698
67.46000 4.089
67.48000 5.534
67.50000 5.881
67.52000 2.791
67.54000 2.212
67.56000 2.652
67.58000 5.527
67.60000 5.835
67.62000 3.763
67.64000 6.124
67.66000 4.280
67.68000 5.609
67.70000 4.160
67.72000 3.646
67.74000 5.505
67.76000 7.178
67.78000 10.665
67.80000 6.655
67.82000 10.906
67.84000 10.287
67.86000 9.437
67.88000 10.970
67.90000 10.853
67.92000 7.276
67.94000 8.282
67.96000 9.115
67.98000 12.887
68.00000 13.086
68.02000 13.620
68.04000 17.109
68.06000 14.793
68.08000 12.311
68.10000 12.918
68.12000 14.909
68.14000 11.722
68.16000 10.669
68.18000 13.590
68.20000 13.684
68.22000 15.250
68.24000 16.121
68.26000 15.875
68.28000 15.900
68.30000 17.563
68.32000 17.852
68.34000 21.610
68.36000 20.319
68.38000 17.249
68.40000 17.193
68.42000 20.541
68.44000 18.575
68.46000 18.724
68.48000 24.854
68.50000 20.811
68.52000 17.863
68.54000 18.808
68.56000 22.305
68.58000 25.539
68.60000 22.161
68.62000 21.842
68.64000 20.420
68.66000 23.056
68.68000 26.056
68.70000 23.515
68.72000 24.165
68.74000 25.537
68.76000 23.710
68.78000 22.962
68.80000 19.336
68.82000 19.079
68.84000 25.428
68.86000 20.198
68.88000 25.132
68.90000 26.973
68.92000 29.847
68.94000 28.549
68.96000 26.990
68.98000 23.962
69.00000 20.750
69.02000 21.262
69.04000 20.986
69.06000 23.965
69.08000 24.167
69.10000 25.083
69.12000 26.132
69.14000 22.689
69.16000 18.321
69.18000 16.453
69.20000 14.633
69.22000 13.424
69.24000 13.293
69.26000 15.856
69.28000 14.261
69.30000 13.836
69.32000 13.353
69.34000 15.925
69.36000 14.617
69.38000 13.441
69.40000 10.877
69.42000 6.219
69.44000 8.863
69.46000 12.849
69.48000 12.195
69.50000 15.017
69.52000 14.333
69.54000 7.874
69.56000 6.576
69.58000 10.017
69.60000 10.245
69.62000 9.669
69.64000 9.544
69.66000 12.252
69.68000 10.829
69.70000 5.969
69.72000 7.449
69.74000 9.611
69.76000 9.046
69.78000 7.749
69.80000 9.255
69.82000 8.322
69.84000 5.863
69.86000 2.013
69.88000 2.700
69.90000 9.677
69.92000 8.794
69.94000 8.703
69.96000 8.086
69.98000 6.219
70.00000 7.110
70.02000 4.015
70.04000 1.617
70.06000 -0.591
70.08000 -0.531
70.10000 5.443
70.12000 4.526
70.14000 3.295
70.16000 3.876
70.18000 2.374
70.20000 5.031
70.22000 6.018
70.24000 1.796
70.26000 0.757
70.28000 1.284
70.30000 2.027
70.32000 0.736
70.34000 4.321
70.36000 2.880
70.38000 3.003
70.40000 3.243
70.42000 2.838
70.44000 -0.301
70.46000 -0.092
70.48000 2.617
70.50000 0.845
70.52000 2.834
70.54000 0.273
70.56000 -2.128
70.58000 2.223
70.60000 0.447
70.62000 2.293
70.64000 3.686
70.66000 1.312
70.68000 -0.471
70.70000 1.536
70.72000 2.610
70.74000 -1.409
70.76000 0.596
70.78000 6.923
70.80000 0.833
70.82000 3.366
70.84000 5.813
70.86000 4.527
70.88000 1.110
70.90000 1.364
70.92000 3.215
70.94000 0.465
70.96000 2.356
70.98000 2.364
71.00000 2.237
71.02000 2.577
71.04000 3.096
71.06000 -2.202
71.08000 -1.775
71.10000 0.322
71.12000 1.889
71.14000 4.446
71.16000 4.222
71.18000 3.938
71.20000 6.796
71.22000 12.550
71.24000 8.390
71.26000 0.144
71.28000 -2.450
71.30000 0.895
71.32000 3.631
71.34000 7.708
71.36000 4.689
71.38000 3.870
71.40000 3.765
71.42000 5.845
71.44000 5.316
71.46000 0.527
71.48000 1.344
71.50000 4.781
71.52000 5.945
71.54000 2.679
71.56000 3.498
71.58000 4.387
71.60000 9.162
71.62000 2.488
71.64000 1.851
71.66000 -2.377
71.68000 4.519
71.70000 -1.040
71.72000 -1.219
71.74000 -0.427
71.76000 1.252
71.78000 4.033
71.80000 0.715
71.82000 0.570
71.84000 1.870
71.86000 -1.336
71.88000 1.567
71.90000 0.340
71.92000 0.895
71.94000 1.784
71.96000 1.794
71.98000 1.946
72.00000 2.860
72.02000 4.316
72.04000 0.306
72.06000 1.283
72.08000 2.968
72.10000 2.860
72.12000 2.375
72.14000 3.711
72.16000 3.622
72.18000 2.103
72.20000 2.718
72.22000 4.410
72.24000 1.375
72.26000 5.703
72.28000 8.773
72.30000 7.596
72.32000 7.290
72.34000 8.401
72.36000 7.136
72.38000 10.114
72.40000 9.328
72.42000 4.138
72.44000 5.304
72.46000 2.621
72.48000 -0.429
72.50000 -0.041
72.52000 4.998
72.54000 5.316
72.56000 -2.394
72.58000 4.785
72.60000 5.149
72.62000 4.289
72.64000 2.116
72.66000 1.828
72.68000 6.080
72.70000 5.395
72.72000 6.503
72.74000 7.825
72.76000 3.430
72.78000 2.366
72.80000 2.588
72.82000 2.528
72.84000 0.364
72.86000 1.238
72.88000 0.041
72.90000 4.576
72.92000 4.434
72.94000 4.343
72.96000 0.060
72.98000 -2.150
73.00000 -2.388
73.02000 4.294
73.04000 0.578
73.06000 -0.773
73.08000 6.537
73.10000 9.014
73.12000 3.929
73.14000 5.763
73.16000 6.959
73.18000 5.323
73.20000 0.085
73.22000 1.229
73.24000 1.945
73.26000 3.142
73.28000 6.271
73.30000 2.164
73.32000 1.043
73.34000 6.482
73.36000 3.872
73.38000 6.661
73.40000 4.307
73.42000 0.314
73.44000 0.837
73.46000 2.797
73.48000 -0.608
73.50000 0.476
73.52000 1.509
73.54000 1.843
73.56000 -1.730
73.58000 1.490
73.60000 6.289
73.62000 8.516
73.64000 5.261
73.66000 3.990
73.68000 3.112
73.70000 -0.738
73.72000 -2.388
73.74000 4.533
73.76000 3.690
73.78000 -1.437
73.80000 1.573
73.82000 2.235
73.84000 -2.402
73.86000 1.767
73.88000 2.756
73.90000 1.717
73.92000 10.222
73.94000 4.158
73.96000 4.572
73.98000 5.547
74.00000 4.419
74.02000 1.565
74.04000 0.176
74.06000 3.552
74.08000 4.829
74.10000 1.389
74.12000 2.752
74.14000 -0.701
74.16000 3.168
74.18000 2.772
74.20000 1.328
74.22000 0.131
74.24000 -0.329
74.26000 1.190
74.28000 3.009
74.30000 -0.531
74.32000 -2.118
74.34000 -1.190
74.36000 -1.563
74.38000 0.809
74.40000 1.762
74.42000 3.141
74.44000 1.881
74.46000 -0.157
74.48000 1.403
74.50000 6.613
74.52000 -0.036
74.54000 -2.390
74.56000 2.117
74.58000 4.646
74.60000 1.046
74.62000 3.162
74.64000 4.267
74.66000 2.567
74.68000 3.351
74.70000 2.870
74.72000 0.071
74.74000 -1.492
74.76000 -1.595
74.78000 3.626
74.80000 5.716
74.82000 4.770
74.84000 2.333
74.86000 -0.228
74.88000 2.258
74.90000 4.494
74.92000 4.446
74.94000 1.268
74.96000 2.831
74.98000 3.672
75.00000 3.666
75.02000 2.535
75.04000 2.551
75.06000 6.294
75.08000 2.403
75.10000 1.876
75.12000 -0.874
75.14000 0.263
75.16000 3.382
75.18000 8.316
75.20000 1.196
75.22000 -0.283
75.24000 1.462
75.26000 1.863
75.28000 0.933
75.30000 4.105
75.32000 5.657
75.34000 7.263
75.36000 7.671
75.38000 3.492
75.40000 1.476
75.42000 -2.347
75.44000 2.702
75.46000 6.036
75.48000 4.592
75.50000 2.202
75.52000 1.172
75.54000 0.897
75.56000 6.056
75.58000 7.467
75.60000 1.815
75.62000 4.549
75.64000 6.570
75.66000 4.246
75.68000 6.564
75.70000 5.895
75.72000 4.678
75.74000 7.504
75.76000 8.094
75.78000 5.805
75.80000 5.614
75.82000 6.059
75.84000 5.551
75.86000 4.031
75.88000 4.561
75.90000 7.312
75.92000 7.055
75.94000 7.180
75.96000 4.038
75.98000 4.492
76.00000 3.305
76.02000 2.747
76.04000 0.203
76.06000 0.639
76.08000 2.867
76.10000 3.817
76.12000 7.012
76.14000 8.475
76.16000 7.696
76.18000 5.197
76.20000 7.601
76.22000 11.379
76.24000 8.239
76.26000 4.130
76.28000 2.330
76.30000 7.648
76.32000 7.338
76.34000 6.523
76.36000 5.342
76.38000 -2.322
76.40000 1.473
76.42000 6.907
76.44000 3.343
76.46000 7.648
76.48000 6.415
76.50000 6.660
76.52000 2.771
76.54000 2.288
76.56000 2.247
76.58000 4.195
76.60000 1.099
76.62000 1.927
76.64000 6.281
76.66000 11.701
76.68000 7.842
76.70000 1.457
76.72000 6.689
76.74000 4.192
76.76000 2.704
76.78000 3.653
76.80000 6.462
76.82000 4.203
76.84000 0.252
76.86000 2.919
76.88000 2.800
76.90000 0.713
76.92000 1.079
76.94000 1.470
76.96000 -0.437
76.98000 3.870
77.00000 8.828
77.02000 12.248
77.04000 9.478
77.06000 8.377
77.08000 8.823
77.10000 6.942
77.12000 8.575
77.14000 5.572
77.16000 1.876
77.18000 1.000
77.20000 4.975
77.22000 9.939
77.24000 3.352
77.26000 3.419
77.28000 5.156
77.30000 6.239
77.32000 7.771
77.34000 6.483
77.36000 7.437
77.38000 7.119
77.40000 4.542
77.42000 5.241
77.44000 5.837
77.46000 1.912
77.48000 -2.367
77.50000 0.234
77.52000 0.010
77.54000 1.598
77.56000 7.217
77.58000 6.117
77.60000 1.881
77.62000 2.853
77.64000 5.877
77.66000 8.977
77.68000 5.723
77.70000 5.546
77.72000 5.899
77.74000 1.496
77.76000 -1.911
77.78000 -1.852
77.80000 3.454
77.82000 3.166
77.84000 4.725
77.86000 4.784
77.88000 8.614
77.90000 11.488
77.92000 6.315
77.94000 5.148
77.96000 6.804
77.98000 5.801
78.00000 7.154
78.02000 1.099
78.04000 -0.234
78.06000 -1.000
78.08000 2.053
78.10000 1.847
78.12000 0.586
78.14000 0.818
78.16000 7.230
78.18000 6.832
78.20000 5.893
78.22000 4.803
78.24000 2.936
78.26000 2.258
78.28000 2.242
78.30000 4.590
78.32000 2.322
78.34000 3.356
78.36000 6.164
78.38000 4.721
78.40000 1.805
78.42000 1.897
78.44000 3.832
78.46000 2.610
78.48000 -0.249
78.50000 1.167
78.52000 3.767
78.54000 5.185
78.56000 6.880
78.58000 2.305
78.60000 0.566
78.62000 2.746
78.64000 1.772
78.66000 1.730
78.68000 4.282
78.70000 7.109
78.72000 2.810
78.74000 2.032
78.76000 3.997
78.78000 5.313
78.80000 4.178
78.82000 -0.902
78.84000 0.900
78.86000 3.259
78.88000 4.872
78.90000 4.478
78.92000 0.043
78.94000 -1.449
78.96000 1.383
78.98000 3.260
79.00000 5.897
79.02000 4.500
79.04000 3.908
79.06000 1.148
79.08000 5.362
79.10000 7.113
79.12000 6.441
79.14000 5.892
79.16000 6.217
79.18000 2.380
79.20000 -0.532
79.22000 2.056
79.24000 4.731
79.26000 3.944
79.28000 6.897
79.30000 5.268
79.32000 2.845
79.34000 3.276
79.36000 5.546
79.38000 4.041
79.40000 4.329
79.42000 1.253
79.44000 5.488
79.46000 0.577
79.48000 -0.233
79.50000 3.664
79.52000 2.348
79.54000 -2.438
79.56000 0.496
79.58000 5.185
79.60000 6.131
79.62000 4.201
79.64000 3.485
79.66000 1.135
79.68000 2.479
79.70000 2.494
79.72000 4.482
79.74000 6.841
79.76000 8.796
79.78000 9.057
79.80000 3.461
79.82000 8.742
79.84000 3.717
79.86000 2.124
79.88000 3.197
79.90000 1.910
79.92000 4.846
79.94000 0.338
79.96000 -2.477
79.98000 2.820
80.00000 -0.647
80.02000 -2.466
80.04000 -0.064
80.06000 1.997
80.08000 4.957
80.10000 8.032
80.12000 2.527
80.14000 0.092
80.16000 2.876
80.18000 5.102
80.20000 4.315
80.22000 4.309
80.24000 0.339
80.26000 -1.141
80.28000 5.397
80.30000 3.616
80.32000 0.946
80.34000 5.136
80.36000 6.565
80.38000 4.162
80.40000 3.251
80.42000 -0.551
80.44000 1.292
80.46000 1.922
80.48000 -0.347
80.50000 -0.899
80.52000 0.272
80.54000 -0.633
80.56000 1.185
80.58000 0.035
80.60000 3.611
80.62000 3.081
80.64000 -0.906
80.66000 -1.859
80.68000 -1.949
80.70000 -1.810
80.72000 -1.252
80.74000 1.336
80.76000 2.118
80.78000 2.113
80.80000 1.806
80.82000 1.951
80.84000 -0.021
80.86000 -2.326
80.88000 3.571
80.90000 4.957
80.92000 1.439
80.94000 2.400
80.96000 1.980
80.98000 3.561
81.00000 2.390
81.02000 2.502
81.04000 1.505
81.06000 0.684
81.08000 5.280
81.10000 2.445
81.12000 2.344
81.14000 1.956
81.16000 6.983
81.18000 5.895
81.20000 5.371
81.22000 1.349
81.24000 2.374
81.26000 8.066
81.28000 1.977
81.30000 3.369
81.32000 6.021
81.34000 5.205
81.36000 4.662
81.38000 3.598
81.40000 3.506
81.42000 1.197
81.44000 -2.593
81.46000 -0.632
81.48000 2.918
81.50000 4.539
81.52000 1.246
81.54000 -0.288
81.56000 1.150
81.58000 3.068
81.60000 3.333
81.62000 4.686
81.64000 12.999
81.66000 12.408
81.68000 5.479
81.70000 7.911
81.72000 11.555
81.74000 8.110
81.76000 4.602
81.78000 0.730
81.80000 2.835
81.82000 15.041
81.84000 13.744
81.86000 14.164
81.88000 11.576
81.90000 5.930
81.92000 9.285
81.94000 9.939
81.96000 20.676
81.98000 15.483
82.00000 11.699
82.02000 14.376
82.04000 14.569
82.06000 12.874
82.08000 12.405
82.10000 13.336
82.12000 15.536
82.14000 8.136
82.16000 8.933
82.18000 12.214
82.20000 10.546
82.22000 12.031
82.24000 17.152
82.26000 16.623
82.28000 18.797
82.30000 15.485
82.32000 17.442
82.34000 16.352
82.36000 9.715
82.38000 16.360
82.40000 19.463
82.42000 20.234
82.44000 17.503
82.46000 20.896
82.48000 15.707
82.50000 17.832
82.52000 17.415
82.54000 17.748
82.56000 15.881
82.58000 21.925
82.60000 23.972
82.62000 22.508
82.64000 23.598
82.66000 17.254
82.68000 22.171
82.70000 23.739
82.72000 22.422
82.74000 26.400
82.76000 28.082
82.78000 25.898
82.80000 20.094
82.82000 22.156
82.84000 22.585
82.86000 23.192
82.88000 21.329
82.90000 16.663
82.92000 17.123
82.94000 21.569
82.96000 25.359
82.98000 24.825
83.00000 31.942
83.02000 29.758
83.04000 26.521
83.06000 24.006
83.08000 22.594
83.10000 26.750
83.12000 26.292
83.14000 26.805
83.16000 25.414
83.18000 24.224
83.20000 25.868
83.22000 25.486
83.24000 22.401
83.26000 21.868
83.28000 29.692
83.30000 22.176
83.32000 29.543
83.34000 30.820
83.36000 26.264
83.38000 25.099
83.40000 28.389
83.42000 27.371
83.44000 20.837
83.46000 23.744
83.48000 22.931
83.50000 24.447
83.52000 20.754
83.54000 22.850
83.56000 16.079
83.58000 19.723
83.60000 22.097
83.62000 19.981
83.64000 19.236
83.66000 20.367
83.68000 18.820
83.70000 21.350
83.72000 20.086
83.74000 15.608
83.76000 15.495
83.78000 14.646
83.80000 10.448
83.82000 12.382
83.84000 12.083
83.86000 17.629
83.88000 16.260
83.90000 12.625
83.92000 9.286
83.94000 7.962
83.96000 12.022
83.98000 11.267
84.00000 16.059
84.02000 14.208
84.04000 12.724
84.06000 10.738
84.08000 8.551
84.10000 7.930
84.12000 12.320
84.14000 10.046
84.16000 11.613
84.18000 10.602
84.20000 10.988
84.22000 7.945
84.24000 4.738
84.26000 9.553
84.28000 13.063
84.30000 11.343
84.32000 15.597
84.34000 12.261
84.36000 13.086
84.38000 9.783
84.40000 14.170
84.42000 13.715
84.44000 10.829
84.46000 12.811
84.48000 7.569
84.50000 8.928
84.52000 11.084
84.54000 13.551
84.56000 6.368
84.58000 12.802
84.60000 15.490
84.62000 11.502
84.64000 9.054
84.66000 9.511
84.68000 9.729
84.70000 6.557
84.72000 3.132
84.74000 1.888
84.76000 3.954
84.78000 8.094
84.80000 7.928
84.82000 5.320
84.84000 4.848
84.86000 5.564
84.88000 5.043
84.90000 4.648
84.92000 4.692
84.94000 1.700
84.96000 -2.462
84.98000 4.437
85.00000 5.849
85.02000 1.624
85.04000 5.751
85.06000 7.536
85.08000 7.234
85.10000 2.836
85.12000 6.444
85.14000 3.054
85.16000 0.847
85.18000 3.525
85.20000 2.765
85.22000 -0.256
85.24000 5.056
85.26000 3.852
85.28000 8.162
85.30000 4.977
85.32000 3.441
85.34000 2.600
85.36000 2.229
85.38000 1.681
85.40000 2.529
85.42000 4.303
85.44000 2.995
85.46000 8.805
85.48000 6.212
85.50000 3.772
85.52000 2.043
85.54000 2.553
85.56000 2.773
85.58000 -0.953
85.60000 2.896
85.62000 8.519
85.64000 1.783
85.66000 -2.448
85.68000 2.786
85.70000 5.594
85.72000 7.068
85.74000 7.591
85.76000 0.184
85.78000 0.687
85.80000 5.179
85.82000 0.041
85.84000 -0.032
85.86000 -1.404
85.88000 4.094
85.90000 5.028
85.92000 3.450
85.94000 2.337
85.96000 3.634
85.98000 2.188
86.00000 1.791
86.02000 3.703
86.04000 4.326
86.06000 3.861
86.08000 3.507
86.10000 0.284
86.12000 5.110
86.14000 2.775
86.16000 -2.052
86.18000 3.814
86.20000 10.070
86.22000 4.424
86.24000 2.308
86.26000 5.573
86.28000 6.598
86.30000 4.260
86.32000 0.965
86.34000 2.189
86.36000 3.525
86.38000 2.635
86.40000 5.148
86.42000 1.406
86.44000 0.030
86.46000 1.323
86.48000 1.199
86.50000 2.501
86.52000 5.658
86.54000 7.474
86.56000 5.902
86.58000 7.044
86.60000 7.373
86.62000 4.701
86.64000 3.797
86.66000 9.903
86.68000 6.549
86.70000 6.463
86.72000 6.359
86.74000 8.807
86.76000 9.523
86.78000 7.848
86.80000 8.282
86.82000 8.858
86.84000 7.503
86.86000 5.668
86.88000 5.023
86.90000 4.785
86.92000 3.311
86.94000 3.853
86.96000 11.422
86.98000 10.522
87.00000 7.962
87.02000 12.761
87.04000 17.891
87.06000 14.207
87.08000 6.031
87.10000 8.925
87.12000 11.530
87.14000 12.077
87.16000 14.462
87.18000 8.587
87.20000 12.417
87.22000 13.220
87.24000 11.515
87.26000 12.173
87.28000 16.097
87.30000 17.512
87.32000 15.331
87.34000 15.224
87.36000 17.816
87.38000 23.727
87.40000 17.448
87.42000 21.042
87.44000 16.299
87.46000 11.087
87.48000 16.328
87.50000 21.159
87.52000 20.916
87.54000 12.452
87.56000 12.547
87.58000 18.634
87.60000 21.554
87.62000 21.234
87.64000 15.836
87.66000 16.543
87.68000 19.483
87.70000 22.874
87.72000 17.155
87.74000 13.695
87.76000 18.583
87.78000 19.909
87.80000 14.311
87.82000 10.701
87.84000 15.952
87.86000 18.246
87.88000 15.011
87.90000 15.198
87.92000 17.467
87.94000 14.001
87.96000 16.581
87.98000 13.487
88.00000 11.893
88.02000 7.737
88.04000 10.445
88.06000 12.644
88.08000 14.111
88.10000 15.594
88.12000 14.116
88.14000 13.093
88.16000 15.451
88.18000 17.653
88.20000 12.183
88.22000 12.922
88.24000 13.860
88.26000 10.855
88.28000 12.235
88.30000 12.533
88.32000 13.022
88.34000 13.341
88.36000 9.057
88.38000 6.701
88.40000 11.305
88.42000 12.298
88.44000 8.069
88.46000 13.358
88.48000 8.297
88.50000 3.375
88.52000 8.130
88.54000 14.702
88.56000 8.077
88.58000 11.096
88.60000 10.460
88.62000 6.958
88.64000 7.134
88.66000 2.558
88.68000 6.708
88.70000 7.188
88.72000 6.677
88.74000 12.586
88.76000 8.201
88.78000 3.180
88.80000 8.003
88.82000 3.720
88.84000 4.524
88.86000 4.451
88.88000 4.106
88.90000 -0.424
88.92000 3.860
88.94000 3.511
88.96000 2.907
88.98000 7.424
89.00000 7.164
89.02000 4.950
89.04000 3.372
89.06000 1.998
89.08000 1.016
89.10000 2.776
89.12000 1.850
89.14000 0.661
89.16000 2.911
89.18000 2.052
89.20000 1.480
89.22000 4.099
89.24000 4.598
89.26000 0.808
89.28000 0.702
89.30000 0.917
89.32000 -0.779
89.34000 -0.381
89.36000 5.929
89.38000 4.850
89.40000 5.621
89.42000 8.680
89.44000 8.513
89.46000 2.667
89.48000 4.696
89.50000 -2.297
89.52000 -0.648
89.54000 5.588
89.56000 4.116
89.58000 8.061
89.60000 0.805
89.62000 0.508
89.64000 -1.919
89.66000 0.960
89.68000 0.029
89.70000 2.185
89.72000 4.350
89.74000 1.601
89.76000 -0.603
89.78000 2.586
89.80000 2.778
89.82000 0.774
89.84000 4.971
89.86000 6.577
89.88000 1.068
89.90000 1.283
89.92000 0.990
89.94000 3.979
89.96000 0.071
89.98000 -2.117
90.00000 -1.360
90.02000 0.935
90.04000 2.968
90.06000 1.067
90.08000 1.623
90.10000 -0.633
90.12000 2.255
90.14000 5.430
90.16000 6.333
90.18000 7.716
90.20000 4.449
90.22000 0.819
90.24000 2.479
90.26000 3.901
90.28000 1.954
90.30000 0.705
90.32000 -0.746
90.34000 -0.620
90.36000 -0.038
90.38000 -2.282
90.40000 -1.131
90.42000 3.142
90.44000 2.900
90.46000 0.569
90.48000 1.389
90.50000 2.935
90.52000 3.101
90.54000 4.895
90.56000 1.280
90.58000 2.306
90.60000 1.787
90.62000 3.808
90.64000 1.894
90.66000 6.049
90.68000 7.029
90.70000 -2.280
90.72000 -2.195
90.74000 1.833
90.76000 -0.477
90.78000 -2.064
90.80000 0.178
90.82000 3.586
90.84000 0.304
90.86000 1.687
90.88000 5.582
90.90000 4.959
90.92000 4.805
90.94000 -0.463
90.96000 1.211
90.98000 -2.154
91.00000 -2.279
91.02000 0.058
91.04000 1.510
91.06000 3.251
91.08000 -0.980
91.10000 1.431
91.12000 -0.201
91.14000 -0.555
91.16000 -0.625
91.18000 3.294
91.20000 3.162
91.22000 2.111
91.24000 1.033
91.26000 0.944
91.28000 -1.271
91.30000 0.903
91.32000 1.863
91.34000 3.585
91.36000 3.565
91.38000 4.367
91.40000 1.499
91.42000 -0.478
91.44000 -0.694
91.46000 0.671
91.48000 2.474
91.50000 5.868
91.52000 1.934
91.54000 -1.798
91.56000 -2.291
91.58000 3.765
91.60000 -0.486
91.62000 2.230
91.64000 0.495
91.66000 3.783
91.68000 0.710
91.70000 2.296
91.72000 5.347
91.74000 5.897
91.76000 -1.303
91.78000 -1.344
91.80000 -0.856
91.82000 3.893
91.84000 10.115
91.86000 9.895
91.88000 4.926
91.90000 3.619
91.92000 0.273
91.94000 0.323
91.96000 2.433
91.98000 6.806
92.00000 4.875
92.02000 2.208
92.04000 -0.310
92.06000 2.597
92.08000 2.847
92.10000 -0.182
92.12000 2.056
92.14000 -0.243
92.16000 3.859
92.18000 0.992
92.20000 1.677
92.22000 4.654
92.24000 1.297
92.26000 -2.279
92.28000 4.002
92.30000 1.551
92.32000 0.401
92.34000 0.239
92.36000 0.468
92.38000 4.685
92.40000 0.701
92.42000 -0.404
92.44000 3.307
92.46000 4.816
92.48000 4.515
92.50000 0.998
92.52000 0.506
92.54000 5.321
92.56000 6.629
92.58000 6.247
92.60000 3.004
92.62000 2.373
92.64000 0.801
92.66000 7.298
92.68000 4.153
92.70000 2.987
92.72000 3.090
92.74000 3.416
92.76000 6.038
92.78000 0.785
92.80000 1.906
92.82000 2.703
92.84000 6.418
92.86000 5.405
92.88000 3.764
92.90000 3.572
92.92000 -1.158
92.94000 -0.711
92.96000 2.466
92.98000 1.863
93.00000 4.269
93.02000 7.967
93.04000 3.817
93.06000 3.765
93.08000 1.173
93.10000 4.200
93.12000 7.067
93.14000 1.785
93.16000 3.743
93.18000 4.226
93.20000 -2.253
93.22000 0.610
93.24000 3.363
93.26000 6.362
93.28000 13.358
93.30000 6.705
93.32000 -1.145
93.34000 -2.254
93.36000 3.905
93.38000 5.955
93.40000 9.273
93.42000 5.888
93.44000 4.903
93.46000 5.514
93.48000 4.087
93.50000 4.847
93.52000 0.700
93.54000 2.037
93.56000 4.019
93.58000 3.076
93.60000 4.301
93.62000 1.097
93.64000 -2.272
93.66000 -2.128
93.68000 -0.969
93.70000 2.294
93.72000 7.153
93.74000 7.423
93.76000 4.893
93.78000 1.846
93.80000 3.219
93.82000 10.890
93.84000 9.119
93.86000 -0.124
93.88000 -1.122
93.90000 2.297
93.92000 -0.814
93.94000 -0.272
93.96000 1.687
93.98000 3.262
94.00000 4.221
94.02000 7.765
94.04000 6.038
94.06000 4.814
94.08000 -0.904
94.10000 -0.375
94.12000 7.591
94.14000 7.739
94.16000 5.556
94.18000 1.611
94.20000 -1.362
94.22000 -0.075
94.24000 0.837
94.26000 -0.644
94.28000 -0.158
94.30000 5.598
94.32000 7.641
94.34000 2.166
94.36000 4.511
94.38000 2.466
94.40000 -1.058
94.42000 1.790
94.44000 1.605
94.46000 2.823
94.48000 1.024
94.50000 1.483
94.52000 -0.309
94.54000 1.833
94.56000 2.269
94.58000 3.577
94.60000 4.363
94.62000 3.046
94.64000 0.951
94.66000 -2.293
94.68000 2.626
94.70000 0.758
94.72000 6.204
94.74000 5.994
94.76000 1.636
94.78000 3.100
94.80000 1.204
94.82000 -0.269
94.84000 3.050
94.86000 4.990
94.88000 3.198
94.90000 1.927
94.92000 5.374
94.94000 2.263
94.96000 4.701
94.98000 3.953
95.00000 0.664
95.02000 4.317
95.04000 3.729
95.06000 1.726
95.08000 4.606
95.10000 7.282
95.12000 2.329
95.14000 4.470
95.16000 6.539
95.18000 2.820
95.20000 10.907
95.22000 6.303
95.24000 10.361
95.26000 4.167
95.28000 4.197
95.30000 0.392
95.32000 5.843
95.34000 7.136
95.36000 6.707
95.38000 4.272
95.40000 2.891
95.42000 1.369
95.44000 0.560
95.46000 4.134
95.48000 6.222
95.50000 2.312
95.52000 7.205
95.54000 10.351
95.56000 12.401
95.58000 14.006
95.60000 10.269
95.62000 5.353
95.64000 6.964
95.66000 8.165
95.68000 3.934
95.70000 -2.259
95.72000 2.863
95.74000 -1.892
95.76000 2.644
95.78000 2.762
95.80000 7.715
95.82000 7.206
95.84000 5.778
95.86000 3.105
95.88000 0.387
95.90000 4.164
95.92000 3.390
95.94000 -0.338
95.96000 6.782
95.98000 8.711
96.00000 10.319
96.02000 7.258
96.04000 12.495
96.06000 8.966
96.08000 6.357
96.10000 5.080
96.12000 4.089
96.14000 6.483
96.16000 1.026
96.18000 -1.038
96.20000 2.517
96.22000 2.978
96.24000 3.395
96.26000 3.543
96.28000 -0.823
96.30000 -0.860
96.32000 1.216
96.34000 4.115
96.36000 6.916
96.38000 6.769
96.40000 10.921
96.42000 5.944
96.44000 5.276
96.46000 5.598
96.48000 5.603
96.50000 7.634
96.52000 5.470
96.54000 7.362
96.56000 0.326
96.58000 1.945
96.60000 4.592
96.62000 3.724
96.64000 4.842
96.66000 3.811
96.68000 6.570
96.70000 3.201
96.72000 -0.112
96.74000 0.173
96.76000 2.967
96.78000 3.097
96.80000 8.157
96.82000 11.529
96.84000 13.987
96.86000 13.901
96.88000 5.895
96.90000 6.206
96.92000 10.111
96.94000 9.833
96.96000 4.236
96.98000 2.751
97.00000 3.796
97.02000 1.699
97.04000 2.735
97.06000 6.658
97.08000 10.477
97.10000 8.050
97.12000 2.453
97.14000 6.114
97.16000 4.814
97.18000 1.488
97.20000 3.347
97.22000 4.637
97.24000 9.743
97.26000 10.768
97.28000 3.158
97.30000 -2.219
97.32000 -1.261
97.34000 4.693
97.36000 3.996
97.38000 3.517
97.40000 10.417
97.42000 6.149
97.44000 8.449
97.46000 6.458
97.48000 3.858
97.50000 11.555
97.52000 5.621
97.54000 3.347
97.56000 10.324
97.58000 9.647
97.60000 3.703
97.62000 0.793
97.64000 2.604
97.66000 8.482
97.68000 9.996
97.70000 6.045
97.72000 5.985
97.74000 1.479
97.76000 -0.373
97.78000 1.810
97.80000 6.526
97.82000 11.927
97.84000 11.641
97.86000 13.084
97.88000 12.489
97.90000 6.861
97.92000 7.314
97.94000 10.635
97.96000 15.891
97.98000 9.675
98.00000 12.279
98.02000 17.771
98.04000 10.421
98.06000 7.462
98.08000 -1.111
98.10000 -2.192
98.12000 3.583
98.14000 -1.234
98.16000 5.805
98.18000 8.734
98.20000 9.617
98.22000 7.705
98.24000 4.280
98.26000 0.449
98.28000 3.657
98.30000 5.186
98.32000 7.837
98.34000 9.286
98.36000 5.759
98.38000 5.065
98.40000 8.682
98.42000 9.075
98.44000 9.938
98.46000 6.464
98.48000 9.391
98.50000 13.890
98.52000 14.568
98.54000 2.600
98.56000 1.614
98.58000 6.570
98.60000 10.308
98.62000 8.832
98.64000 10.798
98.66000 20.536
98.68000 11.931
98.70000 10.554
98.72000 5.820
98.74000 6.470
98.76000 0.351
98.78000 7.682
98.80000 15.791
98.82000 8.383
98.84000 2.575
98.86000 9.823
98.88000 12.189
98.90000 6.438
98.92000 8.271
98.94000 5.290
98.96000 12.829
98.98000 13.449
99.00000 7.947
99.02000 5.976
99.04000 8.372
99.06000 2.456
99.08000 9.244
99.10000 12.218
99.12000 16.824
99.14000 7.935
99.16000 3.439
99.18000 3.062
99.20000 7.097
99.22000 5.264
99.24000 6.018
99.26000 6.231
99.28000 0.975
99.30000 4.220
99.32000 7.336
99.34000 3.657
99.36000 5.490
99.38000 5.326
99.40000 2.708
99.42000 5.143
99.44000 -0.046
99.46000 6.745
99.48000 18.467
99.50000 16.996
99.52000 4.986
99.54000 2.681
99.56000 2.851
99.58000 3.615
99.60000 9.332
99.62000 4.489
99.64000 9.899
99.66000 8.001
99.68000 -1.527
99.70000 -2.177
99.72000 -0.318
99.74000 1.576
99.76000 5.709
99.78000 7.934
99.80000 11.489
99.82000 9.241
99.84000 -6.765
99.86000 1.544
99.88000 8.115
99.90000 6.677
99.92000 12.341
99.94000 9.762
99.96000 10.537
99.98000 0.000
