'Id: "0011388" Comment: "Integrate frame 0011388_Au-Ir-Rh_Rh-rich_XRD-Mapping-253-0000.gfrmwith cursor Wedge Cursor #5" Operator: "B?rgel" Anode: "Cu" Wavelength: "1.5406" Scantype: "2Theta (TwoTheta)" TimePerStep: "1" X: "13.5" Y: "18" Z: "5.95" 
10.00000 0.000
10.02000 0.877
10.04000 -1.575
10.06000 -4.059
10.08000 -3.585
10.10000 -3.886
10.12000 0.430
10.14000 0.710
10.16000 -4.037
10.18000 3.402
10.20000 4.973
10.22000 -4.028
10.24000 -0.715
10.26000 9.160
10.28000 16.466
10.30000 5.465
10.32000 10.446
10.34000 -1.469
10.36000 -1.226
10.38000 16.909
10.40000 14.188
10.42000 21.472
10.44000 17.174
10.46000 10.464
10.48000 25.170
10.50000 24.518
10.52000 8.920
10.54000 -1.836
10.56000 -0.569
10.58000 9.228
10.60000 16.225
10.62000 23.141
10.64000 18.613
10.66000 15.638
10.68000 5.637
10.70000 -2.404
10.72000 21.929
10.74000 18.533
10.76000 7.592
10.78000 11.548
10.80000 16.706
10.82000 18.534
10.84000 29.127
10.86000 19.508
10.88000 12.662
10.90000 16.722
10.92000 24.782
10.94000 26.004
10.96000 22.301
10.98000 9.309
11.00000 -4.022
11.02000 9.157
11.04000 3.943
11.06000 15.883
11.08000 22.314
11.10000 12.166
11.12000 13.854
11.14000 21.134
11.16000 26.617
11.18000 24.826
11.20000 13.939
11.22000 11.467
11.24000 18.976
11.26000 31.682
11.28000 33.239
11.30000 34.943
11.32000 27.226
11.34000 12.906
11.36000 16.668
11.38000 11.941
11.40000 17.231
11.42000 20.697
11.44000 20.688
11.46000 21.839
11.48000 14.979
11.50000 20.744
11.52000 15.480
11.54000 17.174
11.56000 25.979
11.58000 24.384
11.60000 18.522
11.62000 10.647
11.64000 8.011
11.66000 11.085
11.68000 24.667
11.70000 23.381
11.72000 20.043
11.74000 19.779
11.76000 17.740
11.78000 25.440
11.80000 21.590
11.82000 15.441
11.84000 19.386
11.86000 25.368
11.88000 20.046
11.90000 11.916
11.92000 15.444
11.94000 13.104
11.96000 22.544
11.98000 29.600
12.00000 19.143
12.02000 10.130
12.04000 12.755
12.06000 24.734
12.08000 24.613
12.10000 21.813
12.12000 36.202
12.14000 30.176
12.16000 15.948
12.18000 19.318
12.20000 21.984
12.22000 23.186
12.24000 20.167
12.26000 25.842
12.28000 30.638
12.30000 36.550
12.32000 30.743
12.34000 14.049
12.36000 12.890
12.38000 33.047
12.40000 26.125
12.42000 19.167
12.44000 20.825
12.46000 21.691
12.48000 29.078
12.50000 29.618
12.52000 25.479
12.54000 25.060
12.56000 17.322
12.58000 17.076
12.60000 16.698
12.62000 21.991
12.64000 26.836
12.66000 30.522
12.68000 30.710
12.70000 26.480
12.72000 19.707
12.74000 20.764
12.76000 22.591
12.78000 22.524
12.80000 27.708
12.82000 29.253
12.84000 29.128
12.86000 25.295
12.88000 22.146
12.90000 12.780
12.92000 12.026
12.94000 18.229
12.96000 22.751
12.98000 21.299
13.00000 29.484
13.02000 17.017
13.04000 20.007
13.06000 18.378
13.08000 20.213
13.10000 23.100
13.12000 21.306
13.14000 26.103
13.16000 24.156
13.18000 31.897
13.20000 27.149
13.22000 20.521
13.24000 18.697
13.26000 17.856
13.28000 22.952
13.30000 17.344
13.32000 25.651
13.34000 25.943
13.36000 20.207
13.38000 20.415
13.40000 15.873
13.42000 12.381
13.44000 14.158
13.46000 12.041
13.48000 21.028
13.50000 19.066
13.52000 12.144
13.54000 17.752
13.56000 16.584
13.58000 19.198
13.60000 15.195
13.62000 10.033
13.64000 14.365
13.66000 15.895
13.68000 15.989
13.70000 13.836
13.72000 16.217
13.74000 14.887
13.76000 12.545
13.78000 13.987
13.80000 14.202
13.82000 15.758
13.84000 16.308
13.86000 11.376
13.88000 9.244
13.90000 6.603
13.92000 9.380
13.94000 15.690
13.96000 14.941
13.98000 7.118
14.00000 10.042
14.02000 14.174
14.04000 7.800
14.06000 3.862
14.08000 9.661
14.10000 13.272
14.12000 5.132
14.14000 5.684
14.16000 16.918
14.18000 20.595
14.20000 19.586
14.22000 15.899
14.24000 13.162
14.26000 14.378
14.28000 15.617
14.30000 16.967
14.32000 17.463
14.34000 18.487
14.36000 13.983
14.38000 13.081
14.40000 19.240
14.42000 10.531
14.44000 6.242
14.46000 16.972
14.48000 15.650
14.50000 16.583
14.52000 16.889
14.54000 14.924
14.56000 10.769
14.58000 7.620
14.60000 0.362
14.62000 11.253
14.64000 9.593
14.66000 10.367
14.68000 12.102
14.70000 10.975
14.72000 6.135
14.74000 1.777
14.76000 9.366
14.78000 13.078
14.80000 7.041
14.82000 1.829
14.84000 5.458
14.86000 4.139
14.88000 7.222
14.90000 10.797
14.92000 -0.903
14.94000 1.597
14.96000 5.509
14.98000 -3.413
15.00000 14.495
15.02000 16.120
15.04000 19.052
15.06000 11.491
15.08000 8.539
15.10000 6.640
15.12000 4.856
15.14000 8.748
15.16000 6.543
15.18000 13.157
15.20000 7.896
15.22000 15.515
15.24000 16.532
15.26000 10.576
15.28000 8.919
15.30000 2.224
15.32000 -0.079
15.34000 17.846
15.36000 20.763
15.38000 15.510
15.40000 8.072
15.42000 7.506
15.44000 4.856
15.46000 11.093
15.48000 5.532
15.50000 14.111
15.52000 17.026
15.54000 8.966
15.56000 14.934
15.58000 13.078
15.60000 10.197
15.62000 6.902
15.64000 13.458
15.66000 7.315
15.68000 3.756
15.70000 20.557
15.72000 12.627
15.74000 0.838
15.76000 2.433
15.78000 13.151
15.80000 16.245
15.82000 12.770
15.84000 10.188
15.86000 7.048
15.88000 11.593
15.90000 11.646
15.92000 3.480
15.94000 0.872
15.96000 2.522
15.98000 11.650
16.00000 6.938
16.02000 8.753
16.04000 7.070
16.06000 14.981
16.08000 11.486
16.10000 5.505
16.12000 13.263
16.14000 10.265
16.16000 8.825
16.18000 7.068
16.20000 3.090
16.22000 4.520
16.24000 12.361
16.26000 15.027
16.28000 8.368
16.30000 -1.083
16.32000 2.111
16.34000 1.022
16.36000 0.954
16.38000 2.028
16.40000 3.322
16.42000 0.724
16.44000 2.946
16.46000 5.959
16.48000 10.334
16.50000 12.884
16.52000 3.856
16.54000 6.833
16.56000 7.100
16.58000 7.799
16.60000 13.637
16.62000 8.882
16.64000 -2.904
16.66000 -1.969
16.68000 4.207
16.70000 6.619
16.72000 6.642
16.74000 5.868
16.76000 0.903
16.78000 4.782
16.80000 4.138
16.82000 3.261
16.84000 -3.273
16.86000 1.504
16.88000 6.290
16.90000 7.134
16.92000 2.054
16.94000 9.109
16.96000 -4.422
16.98000 -1.913
17.00000 -0.911
17.02000 7.507
17.04000 10.709
17.06000 7.312
17.08000 6.418
17.10000 8.491
17.12000 7.216
17.14000 9.002
17.16000 9.563
17.18000 14.240
17.20000 8.552
17.22000 4.745
17.24000 5.881
17.26000 3.202
17.28000 5.088
17.30000 -3.479
17.32000 1.836
17.34000 9.490
17.36000 9.188
17.38000 6.406
17.40000 13.253
17.42000 14.784
17.44000 -0.715
17.46000 5.818
17.48000 6.319
17.50000 6.981
17.52000 -0.922
17.54000 3.658
17.56000 2.630
17.58000 1.098
17.60000 -0.099
17.62000 0.692
17.64000 5.026
17.66000 19.264
17.68000 8.912
17.70000 1.920
17.72000 1.787
17.74000 4.154
17.76000 5.796
17.78000 4.186
17.80000 -1.396
17.82000 0.513
17.84000 1.270
17.86000 3.479
17.88000 2.182
17.90000 0.924
17.92000 1.753
17.94000 5.247
17.96000 4.126
17.98000 1.783
18.00000 2.259
18.02000 2.437
18.04000 3.302
18.06000 7.948
18.08000 4.274
18.10000 0.743
18.12000 5.803
18.14000 6.765
18.16000 3.341
18.18000 6.695
18.20000 9.863
18.22000 8.432
18.24000 0.646
18.26000 0.114
18.28000 -2.497
18.30000 4.219
18.32000 0.686
18.34000 -0.317
18.36000 1.426
18.38000 0.918
18.40000 5.103
18.42000 2.156
18.44000 4.125
18.46000 7.688
18.48000 10.584
18.50000 11.179
18.52000 0.421
18.54000 -3.742
18.56000 5.307
18.58000 11.202
18.60000 -2.959
18.62000 -2.900
18.64000 5.805
18.66000 7.066
18.68000 7.153
18.70000 2.350
18.72000 1.752
18.74000 -1.129
18.76000 -3.076
18.78000 -1.952
18.80000 4.253
18.82000 -0.040
18.84000 2.163
18.86000 12.039
18.88000 -0.510
18.90000 6.416
18.92000 9.500
18.94000 10.156
18.96000 9.951
18.98000 4.471
19.00000 -2.550
19.02000 7.445
19.04000 14.599
19.06000 5.535
19.08000 9.483
19.10000 7.243
19.12000 -1.631
19.14000 -1.541
19.16000 2.511
19.18000 5.416
19.20000 9.543
19.22000 2.989
19.24000 6.100
19.26000 4.155
19.28000 2.313
19.30000 -4.270
19.32000 6.270
19.34000 14.533
19.36000 8.419
19.38000 6.824
19.40000 6.853
19.42000 5.213
19.44000 11.685
19.46000 6.957
19.48000 -2.651
19.50000 1.506
19.52000 0.124
19.54000 -2.440
19.56000 -2.988
19.58000 1.645
19.60000 9.930
19.62000 10.846
19.64000 4.434
19.66000 1.006
19.68000 2.896
19.70000 1.612
19.72000 6.986
19.74000 9.389
19.76000 7.415
19.78000 5.468
19.80000 7.008
19.82000 5.819
19.84000 7.865
19.86000 1.887
19.88000 2.130
19.90000 1.221
19.92000 3.719
19.94000 7.714
19.96000 4.986
19.98000 4.313
20.00000 2.443
20.02000 0.370
20.04000 9.550
20.06000 10.394
20.08000 4.932
20.10000 2.483
20.12000 2.267
20.14000 7.248
20.16000 5.900
20.18000 10.228
20.20000 5.403
20.22000 0.949
20.24000 3.441
20.26000 3.407
20.28000 8.575
20.30000 9.305
20.32000 9.988
20.34000 5.467
20.36000 10.429
20.38000 12.709
20.40000 8.348
20.42000 4.433
20.44000 13.185
20.46000 18.310
20.48000 10.005
20.50000 4.928
20.52000 5.733
20.54000 6.310
20.56000 6.255
20.58000 6.615
20.60000 9.931
20.62000 7.402
20.64000 8.814
20.66000 9.160
20.68000 6.470
20.70000 4.592
20.72000 9.237
20.74000 6.257
20.76000 4.014
20.78000 7.270
20.80000 3.113
20.82000 6.631
20.84000 11.354
20.86000 8.742
20.88000 8.234
20.90000 8.069
20.92000 -0.366
20.94000 -4.179
20.96000 2.936
20.98000 3.248
21.00000 -0.557
21.02000 1.858
21.04000 9.740
21.06000 3.590
21.08000 3.011
21.10000 9.513
21.12000 7.610
21.14000 8.496
21.16000 6.883
21.18000 1.996
21.20000 7.403
21.22000 8.259
21.24000 10.289
21.26000 5.545
21.28000 3.237
21.30000 -0.819
21.32000 5.651
21.34000 12.140
21.36000 7.450
21.38000 2.624
21.40000 7.894
21.42000 9.349
21.44000 0.761
21.46000 2.681
21.48000 7.504
21.50000 10.690
21.52000 10.382
21.54000 9.110
21.56000 4.810
21.58000 3.612
21.60000 5.917
21.62000 -4.156
21.64000 2.189
21.66000 10.652
21.68000 8.479
21.70000 5.248
21.72000 5.406
21.74000 5.958
21.76000 7.162
21.78000 8.855
21.80000 6.623
21.82000 5.970
21.84000 4.303
21.86000 3.813
21.88000 9.420
21.90000 13.137
21.92000 6.206
21.94000 0.172
21.96000 13.448
21.98000 11.305
22.00000 4.939
22.02000 5.942
22.04000 4.531
22.06000 6.489
22.08000 10.000
22.10000 3.091
22.12000 7.911
22.14000 10.832
22.16000 8.724
22.18000 5.807
22.20000 9.195
22.22000 4.942
22.24000 5.784
22.26000 1.982
22.28000 -0.336
22.30000 0.043
22.32000 7.386
22.34000 6.068
22.36000 2.846
22.38000 8.411
22.40000 7.555
22.42000 2.760
22.44000 2.683
22.46000 4.971
22.48000 3.297
22.50000 3.645
22.52000 5.144
22.54000 4.817
22.56000 3.887
22.58000 -4.090
22.60000 1.174
22.62000 2.500
22.64000 3.564
22.66000 -1.073
22.68000 0.813
22.70000 1.350
22.72000 7.683
22.74000 8.225
22.76000 2.380
22.78000 4.056
22.80000 2.526
22.82000 3.940
22.84000 0.915
22.86000 2.022
22.88000 6.014
22.90000 8.434
22.92000 7.798
22.94000 -0.385
22.96000 0.730
22.98000 9.874
23.00000 6.638
23.02000 1.753
23.04000 -0.086
23.06000 -2.128
23.08000 1.948
23.10000 6.756
23.12000 4.456
23.14000 1.473
23.16000 1.332
23.18000 -2.176
23.20000 -3.887
23.22000 3.793
23.24000 1.370
23.26000 -2.890
23.28000 7.102
23.30000 12.594
23.32000 8.803
23.34000 -0.188
23.36000 4.102
23.38000 4.998
23.40000 7.598
23.42000 6.790
23.44000 7.821
23.46000 4.147
23.48000 0.486
23.50000 4.068
23.52000 7.662
23.54000 4.621
23.56000 4.272
23.58000 9.421
23.60000 0.666
23.62000 0.569
23.64000 4.372
23.66000 7.546
23.68000 4.177
23.70000 2.130
23.72000 0.741
23.74000 -1.144
23.76000 3.260
23.78000 11.563
23.80000 1.724
23.82000 1.477
23.84000 2.601
23.86000 -1.788
23.88000 -2.015
23.90000 0.699
23.92000 1.174
23.94000 5.373
23.96000 5.342
23.98000 11.207
24.00000 10.401
24.02000 6.442
24.04000 6.784
24.06000 3.956
24.08000 2.288
24.10000 5.427
24.12000 6.395
24.14000 2.327
24.16000 -0.301
24.18000 2.935
24.20000 6.344
24.22000 6.566
24.24000 1.462
24.26000 0.115
24.28000 -1.320
24.30000 5.631
24.32000 7.827
24.34000 4.368
24.36000 6.995
24.38000 5.599
24.40000 -2.614
24.42000 7.724
24.44000 8.737
24.46000 2.854
24.48000 2.878
24.50000 2.449
24.52000 6.399
24.54000 2.941
24.56000 7.116
24.58000 8.984
24.60000 5.042
24.62000 -1.396
24.64000 -3.988
24.66000 0.946
24.68000 2.097
24.70000 -0.255
24.72000 -0.207
24.74000 1.018
24.76000 5.704
24.78000 4.173
24.80000 5.211
24.82000 5.207
24.84000 4.521
24.86000 7.302
24.88000 7.387
24.90000 1.818
24.92000 2.489
24.94000 0.183
24.96000 4.421
24.98000 7.400
25.00000 8.882
25.02000 7.498
25.04000 1.867
25.06000 6.041
25.08000 -0.306
25.10000 1.308
25.12000 5.750
25.14000 6.956
25.16000 2.994
25.18000 2.760
25.20000 2.085
25.22000 2.757
25.24000 0.687
25.26000 3.445
25.28000 8.791
25.30000 6.937
25.32000 6.483
25.34000 2.884
25.36000 0.811
25.38000 5.290
25.40000 3.930
25.42000 4.957
25.44000 6.213
25.46000 3.769
25.48000 6.899
25.50000 9.607
25.52000 4.545
25.54000 0.360
25.56000 1.819
25.58000 4.754
25.60000 5.936
25.62000 2.157
25.64000 -1.024
25.66000 2.564
25.68000 -0.485
25.70000 -0.630
25.72000 4.790
25.74000 7.462
25.76000 5.667
25.78000 3.701
25.80000 -1.564
25.82000 -2.541
25.84000 2.761
25.86000 4.694
25.88000 3.373
25.90000 10.483
25.92000 8.759
25.94000 4.861
25.96000 7.119
25.98000 6.587
26.00000 4.551
26.02000 1.151
26.04000 -0.925
26.06000 -2.894
26.08000 -3.475
26.10000 5.397
26.12000 8.177
26.14000 3.908
26.16000 5.243
26.18000 9.950
26.20000 7.077
26.22000 -1.741
26.24000 -3.900
26.26000 1.418
26.28000 3.965
26.30000 6.782
26.32000 5.749
26.34000 3.150
26.36000 0.170
26.38000 -0.534
26.40000 5.003
26.42000 5.638
26.44000 2.503
26.46000 3.188
26.48000 4.376
26.50000 2.496
26.52000 5.485
26.54000 3.479
26.56000 3.761
26.58000 8.566
26.60000 1.998
26.62000 -1.275
26.64000 1.226
26.66000 1.849
26.68000 4.350
26.70000 5.607
26.72000 6.986
26.74000 3.874
26.76000 7.076
26.78000 4.967
26.80000 5.426
26.82000 0.457
26.84000 -2.811
26.86000 0.329
26.88000 3.099
26.90000 3.499
26.92000 -0.420
26.94000 -0.079
26.96000 5.110
26.98000 0.984
27.00000 -0.628
27.02000 1.441
27.04000 7.045
27.06000 5.587
27.08000 1.660
27.10000 -0.144
27.12000 -0.429
27.14000 2.754
27.16000 3.664
27.18000 3.539
27.20000 3.454
27.22000 4.908
27.24000 0.269
27.26000 3.412
27.28000 2.471
27.30000 6.221
27.32000 5.206
27.34000 4.127
27.36000 1.823
27.38000 5.755
27.40000 9.469
27.42000 3.896
27.44000 0.687
27.46000 -0.450
27.48000 -3.865
27.50000 2.807
27.52000 6.360
27.54000 1.254
27.56000 1.763
27.58000 0.512
27.60000 3.160
27.62000 3.884
27.64000 2.577
27.66000 3.934
27.68000 5.995
27.70000 3.130
27.72000 1.982
27.74000 1.364
27.76000 6.903
27.78000 5.995
27.80000 1.313
27.82000 2.551
27.84000 2.846
27.86000 2.581
27.88000 2.167
27.90000 4.485
27.92000 5.862
27.94000 1.944
27.96000 2.593
27.98000 3.316
28.00000 2.586
28.02000 5.372
28.04000 4.213
28.06000 6.691
28.08000 3.620
28.10000 1.564
28.12000 -0.291
28.14000 -2.139
28.16000 -2.529
28.18000 0.151
28.20000 -0.549
28.22000 -2.002
28.24000 2.845
28.26000 1.520
28.28000 2.590
28.30000 5.379
28.32000 0.996
28.34000 2.721
28.36000 3.494
28.38000 3.176
28.40000 1.902
28.42000 3.795
28.44000 -1.222
28.46000 5.458
28.48000 5.883
28.50000 2.715
28.52000 7.642
28.54000 7.511
28.56000 6.002
28.58000 0.848
28.60000 2.449
28.62000 -2.828
28.64000 -0.555
28.66000 4.645
28.68000 -0.477
28.70000 3.324
28.72000 3.859
28.74000 4.696
28.76000 2.621
28.78000 1.118
28.80000 4.699
28.82000 4.430
28.84000 5.254
28.86000 7.396
28.88000 3.736
28.90000 -2.681
28.92000 1.417
28.94000 5.152
28.96000 1.947
28.98000 0.692
29.00000 0.994
29.02000 0.824
29.04000 2.171
29.06000 3.085
29.08000 3.224
29.10000 7.780
29.12000 1.685
29.14000 3.629
29.16000 6.887
29.18000 5.905
29.20000 9.622
29.22000 3.595
29.24000 -3.730
29.26000 1.552
29.28000 3.131
29.30000 1.927
29.32000 2.461
29.34000 5.962
29.36000 10.520
29.38000 9.960
29.40000 9.755
29.42000 3.706
29.44000 3.318
29.46000 9.197
29.48000 7.907
29.50000 8.774
29.52000 2.131
29.54000 2.118
29.56000 5.724
29.58000 6.620
29.60000 2.620
29.62000 5.397
29.64000 5.375
29.66000 5.290
29.68000 5.974
29.70000 5.891
29.72000 4.148
29.74000 0.150
29.76000 4.114
29.78000 -2.063
29.80000 -3.722
29.82000 3.568
29.84000 5.084
29.86000 -2.003
29.88000 1.850
29.90000 5.212
29.92000 4.469
29.94000 -0.004
29.96000 1.416
29.98000 3.462
30.00000 -0.364
30.02000 -0.342
30.04000 4.096
30.06000 2.746
30.08000 -0.806
30.10000 2.292
30.12000 -1.865
30.14000 -2.945
30.16000 -0.097
30.18000 1.451
30.20000 2.311
30.22000 3.409
30.24000 2.337
30.26000 1.704
30.28000 2.215
30.30000 4.054
30.32000 4.566
30.34000 -0.272
30.36000 -1.599
30.38000 3.438
30.40000 -1.156
30.42000 -3.704
30.44000 -0.592
30.46000 2.053
30.48000 0.490
30.50000 -3.394
30.52000 -3.701
30.54000 6.068
30.56000 4.565
30.58000 2.149
30.60000 1.391
30.62000 7.312
30.64000 6.183
30.66000 -2.275
30.68000 -3.493
30.70000 -3.194
30.72000 -2.467
30.74000 3.353
30.76000 3.068
30.78000 3.854
30.80000 0.856
30.82000 1.559
30.84000 2.113
30.86000 5.262
30.88000 6.290
30.90000 3.459
30.92000 -0.106
30.94000 4.155
30.96000 0.448
30.98000 -1.677
31.00000 -1.212
31.02000 0.186
31.04000 -0.568
31.06000 5.143
31.08000 6.152
31.10000 1.660
31.12000 -0.012
31.14000 3.364
31.16000 1.567
31.18000 0.902
31.20000 2.025
31.22000 3.429
31.24000 0.051
31.26000 4.539
31.28000 3.517
31.30000 3.720
31.32000 1.256
31.34000 4.210
31.36000 7.668
31.38000 5.607
31.40000 2.260
31.42000 0.181
31.44000 4.120
31.46000 6.904
31.48000 6.367
31.50000 5.247
31.52000 4.639
31.54000 -0.739
31.56000 -3.649
31.58000 0.922
31.60000 4.231
31.62000 3.555
31.64000 5.556
31.66000 4.989
31.68000 0.739
31.70000 -0.066
31.72000 7.168
31.74000 7.982
31.76000 2.547
31.78000 6.113
31.80000 7.220
31.82000 6.893
31.84000 2.947
31.86000 -2.750
31.88000 -3.629
31.90000 1.774
31.92000 3.662
31.94000 5.136
31.96000 3.670
31.98000 -2.475
32.00000 3.585
32.02000 4.313
32.04000 8.188
32.06000 9.772
32.08000 7.748
32.10000 5.164
32.12000 8.471
32.14000 10.660
32.16000 5.926
32.18000 4.194
32.20000 5.160
32.22000 5.043
32.24000 4.466
32.26000 6.806
32.28000 4.517
32.30000 7.556
32.32000 9.862
32.34000 7.698
32.36000 4.540
32.38000 7.527
32.40000 11.179
32.42000 9.656
32.44000 7.686
32.46000 7.980
32.48000 7.510
32.50000 4.422
32.52000 0.877
32.54000 2.176
32.56000 1.978
32.58000 -2.502
32.60000 3.446
32.62000 6.767
32.64000 1.542
32.66000 5.148
32.68000 3.557
32.70000 3.500
32.72000 4.342
32.74000 7.709
32.76000 6.898
32.78000 7.138
32.80000 2.849
32.82000 11.924
32.84000 9.114
32.86000 7.738
32.88000 12.438
32.90000 10.130
32.92000 6.576
32.94000 6.622
32.96000 9.951
32.98000 15.077
33.00000 14.525
33.02000 17.491
33.04000 11.962
33.06000 4.113
33.08000 -3.525
33.10000 5.227
33.12000 6.619
33.14000 10.352
33.16000 7.454
33.18000 7.070
33.20000 12.372
33.22000 7.183
33.24000 10.102
33.26000 6.933
33.28000 8.798
33.30000 13.328
33.32000 13.885
33.34000 6.382
33.36000 5.531
33.38000 8.106
33.40000 9.902
33.42000 10.241
33.44000 11.462
33.46000 11.944
33.48000 7.535
33.50000 7.139
33.52000 8.252
33.54000 7.876
33.56000 5.447
33.58000 5.507
33.60000 5.381
33.62000 11.355
33.64000 6.366
33.66000 3.871
33.68000 2.276
33.70000 1.921
33.72000 1.712
33.74000 7.108
33.76000 6.044
33.78000 5.452
33.80000 6.976
33.82000 9.441
33.84000 10.959
33.86000 15.219
33.88000 11.554
33.90000 10.971
33.92000 8.600
33.94000 -0.883
33.96000 -0.022
33.98000 2.873
34.00000 2.431
34.02000 2.800
34.04000 6.551
34.06000 6.815
34.08000 4.185
34.10000 4.365
34.12000 3.904
34.14000 1.494
34.16000 2.431
34.18000 4.854
34.20000 9.257
34.22000 8.605
34.24000 5.778
34.26000 8.217
34.28000 8.393
34.30000 5.444
34.32000 2.350
34.34000 3.366
34.36000 2.526
34.38000 2.381
34.40000 6.548
34.42000 2.025
34.44000 3.648
34.46000 3.971
34.48000 6.004
34.50000 8.611
34.52000 4.744
34.54000 1.529
34.56000 8.378
34.58000 7.607
34.60000 3.559
34.62000 3.950
34.64000 3.776
34.66000 4.621
34.68000 5.142
34.70000 6.483
34.72000 -0.136
34.74000 1.490
34.76000 3.960
34.78000 1.148
34.80000 3.107
34.82000 4.614
34.84000 3.143
34.86000 5.797
34.88000 6.215
34.90000 0.671
34.92000 2.884
34.94000 4.841
34.96000 0.164
34.98000 -0.641
35.00000 -2.045
35.02000 2.261
35.04000 -1.559
35.06000 -3.568
35.08000 2.730
35.10000 6.549
35.12000 5.586
35.14000 5.960
35.16000 1.285
35.18000 0.772
35.20000 -0.285
35.22000 2.353
35.24000 -1.784
35.26000 0.559
35.28000 1.158
35.30000 -1.930
35.32000 -1.293
35.34000 1.285
35.36000 6.749
35.38000 2.735
35.40000 1.420
35.42000 -3.562
35.44000 -1.933
35.46000 0.096
35.48000 0.843
35.50000 1.848
35.52000 4.240
35.54000 3.695
35.56000 2.208
35.58000 3.840
35.60000 4.636
35.62000 3.435
35.64000 -0.418
35.66000 1.313
35.68000 3.045
35.70000 3.445
35.72000 -0.742
35.74000 2.765
35.76000 3.517
35.78000 2.222
35.80000 0.655
35.82000 8.028
35.84000 8.067
35.86000 5.208
35.88000 3.314
35.90000 -0.717
35.92000 -0.789
35.94000 3.751
35.96000 5.561
35.98000 5.729
36.00000 4.749
36.02000 -0.617
36.04000 -2.196
36.06000 1.092
36.08000 2.075
36.10000 1.119
36.12000 4.584
36.14000 7.514
36.16000 6.307
36.18000 4.915
36.20000 2.715
36.22000 1.713
36.24000 -3.564
36.26000 -1.610
36.28000 4.220
36.30000 6.479
36.32000 2.551
36.34000 5.557
36.36000 6.140
36.38000 6.124
36.40000 2.600
36.42000 4.189
36.44000 3.832
36.46000 4.515
36.48000 1.153
36.50000 0.665
36.52000 3.717
36.54000 3.270
36.56000 3.726
36.58000 6.709
36.60000 5.465
36.62000 2.821
36.64000 0.774
36.66000 1.555
36.68000 0.143
36.70000 2.977
36.72000 7.102
36.74000 7.976
36.76000 -1.618
36.78000 -3.587
36.80000 1.942
36.82000 3.991
36.84000 1.242
36.86000 -1.429
36.88000 1.063
36.90000 -0.058
36.92000 1.440
36.94000 -0.576
36.96000 -0.067
36.98000 4.313
37.00000 1.407
37.02000 3.570
37.04000 5.478
37.06000 4.495
37.08000 0.648
37.10000 -0.105
37.12000 -3.303
37.14000 -0.384
37.16000 1.681
37.18000 -0.923
37.20000 0.295
37.22000 1.808
37.24000 -3.259
37.26000 -3.635
37.28000 -0.435
37.30000 -2.722
37.32000 -1.715
37.34000 1.391
37.36000 1.608
37.38000 0.710
37.40000 -0.557
37.42000 1.916
37.44000 1.432
37.46000 -0.884
37.48000 2.879
37.50000 3.241
37.52000 4.243
37.54000 2.760
37.56000 -0.869
37.58000 5.874
37.60000 3.741
37.62000 -1.262
37.64000 0.511
37.66000 -3.304
37.68000 -1.623
37.70000 -2.106
37.72000 -0.614
37.74000 6.109
37.76000 6.246
37.78000 8.078
37.80000 5.179
37.82000 5.455
37.84000 8.262
37.86000 5.518
37.88000 1.607
37.90000 0.889
37.92000 7.688
37.94000 9.039
37.96000 7.276
37.98000 7.159
38.00000 5.012
38.02000 6.217
38.04000 7.385
38.06000 8.462
38.08000 7.874
38.10000 7.153
38.12000 10.095
38.14000 14.106
38.16000 16.317
38.18000 14.877
38.20000 10.255
38.22000 14.396
38.24000 17.794
38.26000 17.063
38.28000 15.599
38.30000 6.122
38.32000 7.277
38.34000 10.752
38.36000 9.377
38.38000 12.931
38.40000 11.130
38.42000 12.213
38.44000 14.312
38.46000 15.479
38.48000 18.761
38.50000 20.625
38.52000 17.455
38.54000 17.521
38.56000 19.122
38.58000 22.892
38.60000 23.616
38.62000 19.772
38.64000 22.056
38.66000 26.861
38.68000 24.567
38.70000 25.988
38.72000 24.443
38.74000 22.930
38.76000 22.950
38.78000 25.724
38.80000 29.004
38.82000 28.988
38.84000 27.289
38.86000 28.688
38.88000 31.175
38.90000 31.159
38.92000 28.918
38.94000 31.142
38.96000 29.669
38.98000 37.471
39.00000 38.820
39.02000 39.089
39.04000 37.718
39.06000 40.692
39.08000 42.125
39.10000 45.725
39.12000 50.209
39.14000 52.464
39.16000 57.381
39.18000 57.437
39.20000 58.588
39.22000 55.346
39.24000 60.412
39.26000 60.754
39.28000 58.440
39.30000 62.180
39.32000 73.202
39.34000 78.335
39.36000 89.242
39.38000 83.681
39.40000 89.003
39.42000 86.298
39.44000 88.804
39.46000 93.428
39.48000 97.698
39.50000 101.939
39.52000 107.364
39.54000 118.711
39.56000 128.570
39.58000 124.912
39.60000 127.936
39.62000 143.331
39.64000 150.556
39.66000 154.136
39.68000 157.695
39.70000 170.896
39.72000 186.156
39.74000 186.895
39.76000 189.748
39.78000 201.365
39.80000 211.365
39.82000 219.974
39.84000 232.979
39.86000 241.474
39.88000 253.780
39.90000 260.510
39.92000 273.177
39.94000 290.828
39.96000 309.681
39.98000 321.036
40.00000 329.438
40.02000 346.615
40.04000 365.195
40.06000 381.406
40.08000 399.570
40.10000 413.391
40.12000 429.625
40.14000 444.104
40.16000 454.674
40.18000 466.833
40.20000 477.412
40.22000 493.282
40.24000 522.086
40.26000 536.229
40.28000 551.578
40.30000 567.522
40.32000 569.021
40.34000 567.843
40.36000 580.681
40.38000 590.020
40.40000 613.327
40.42000 614.938
40.44000 608.550
40.46000 618.002
40.48000 618.593
40.50000 619.943
40.52000 607.516
40.54000 606.355
40.56000 613.111
40.58000 600.655
40.60000 591.555
40.62000 583.379
40.64000 571.653
40.66000 551.429
40.68000 536.603
40.70000 528.719
40.72000 511.415
40.74000 491.090
40.76000 479.538
40.78000 474.843
40.80000 453.394
40.82000 436.366
40.84000 411.275
40.86000 404.310
40.88000 389.133
40.90000 369.161
40.92000 351.618
40.94000 326.902
40.96000 319.517
40.98000 312.069
41.00000 295.238
41.02000 279.696
41.04000 265.903
41.06000 251.214
41.08000 243.738
41.10000 224.362
41.12000 210.319
41.14000 205.807
41.16000 194.842
41.18000 188.399
41.20000 177.831
41.22000 163.928
41.24000 158.641
41.26000 148.864
41.28000 134.329
41.30000 132.598
41.32000 130.078
41.34000 124.431
41.36000 114.675
41.38000 104.873
41.40000 98.526
41.42000 97.697
41.44000 89.359
41.46000 85.804
41.48000 85.226
41.50000 80.142
41.52000 73.825
41.54000 65.072
41.56000 58.502
41.58000 55.337
41.60000 56.220
41.62000 55.523
41.64000 54.448
41.66000 56.635
41.68000 46.657
41.70000 43.993
41.72000 52.308
41.74000 51.435
41.76000 47.278
41.78000 35.346
41.80000 28.211
41.82000 30.956
41.84000 36.421
41.86000 34.983
41.88000 29.592
41.90000 26.572
41.92000 28.224
41.94000 25.282
41.96000 24.891
41.98000 26.611
42.00000 24.723
42.02000 20.930
42.04000 23.004
42.06000 21.264
42.08000 18.750
42.10000 12.149
42.12000 12.881
42.14000 10.450
42.16000 10.907
42.18000 17.372
42.20000 11.324
42.22000 8.181
42.24000 8.831
42.26000 12.363
42.28000 12.614
42.30000 16.510
42.32000 10.122
42.34000 5.751
42.36000 8.270
42.38000 8.193
42.40000 6.723
42.42000 1.525
42.44000 -2.038
42.46000 3.899
42.48000 6.357
42.50000 5.949
42.52000 6.892
42.54000 10.158
42.56000 7.705
42.58000 3.128
42.60000 4.524
42.62000 5.629
42.64000 4.770
42.66000 0.426
42.68000 -0.549
42.70000 0.551
42.72000 4.980
42.74000 5.574
42.76000 6.868
42.78000 2.702
42.80000 -2.565
42.82000 -3.636
42.84000 1.155
42.86000 2.587
42.88000 3.583
42.90000 2.394
42.92000 -0.532
42.94000 3.395
42.96000 4.757
42.98000 -1.613
43.00000 0.761
43.02000 0.743
43.04000 5.904
43.06000 3.556
43.08000 -0.924
43.10000 -1.455
43.12000 -0.691
43.14000 -0.558
43.16000 2.833
43.18000 2.013
43.20000 0.448
43.22000 -1.917
43.24000 -3.223
43.26000 2.973
43.28000 4.987
43.30000 6.884
43.32000 1.909
43.34000 -1.312
43.36000 0.536
43.38000 2.652
43.40000 0.705
43.42000 -3.563
43.44000 3.691
43.46000 2.428
43.48000 -0.070
43.50000 0.636
43.52000 -1.676
43.54000 -2.921
43.56000 0.441
43.58000 1.001
43.60000 0.556
43.62000 -2.789
43.64000 1.633
43.66000 4.041
43.68000 2.640
43.70000 2.234
43.72000 1.530
43.74000 -3.521
43.76000 -3.432
43.78000 -0.020
43.80000 1.345
43.82000 1.489
43.84000 -0.952
43.86000 1.631
43.88000 3.265
43.90000 -0.336
43.92000 -2.288
43.94000 3.033
43.96000 3.312
43.98000 0.502
44.00000 -3.501
44.02000 -1.361
44.04000 3.362
44.06000 10.900
44.08000 7.572
44.10000 4.035
44.12000 6.098
44.14000 6.284
44.16000 3.265
44.18000 7.418
44.20000 5.553
44.22000 2.440
44.24000 -3.502
44.26000 -2.475
44.28000 -1.110
44.30000 0.433
44.32000 3.391
44.34000 0.790
44.36000 0.764
44.38000 2.946
44.40000 4.823
44.42000 2.775
44.44000 -0.093
44.46000 -0.253
44.48000 1.129
44.50000 0.588
44.52000 -0.744
44.54000 -2.268
44.56000 0.069
44.58000 3.020
44.60000 0.450
44.62000 -1.811
44.64000 -2.996
44.66000 1.106
44.68000 6.285
44.70000 5.661
44.72000 5.841
44.74000 4.315
44.76000 7.083
44.78000 3.658
44.80000 0.758
44.82000 1.151
44.84000 -3.498
44.86000 1.164
44.88000 2.736
44.90000 6.530
44.92000 7.778
44.94000 4.789
44.96000 3.788
44.98000 4.586
45.00000 5.522
45.02000 2.917
45.04000 5.174
45.06000 5.880
45.08000 4.814
45.10000 1.024
45.12000 3.981
45.14000 8.708
45.16000 1.882
45.18000 5.593
45.20000 8.746
45.22000 9.707
45.24000 5.501
45.26000 8.841
45.28000 12.599
45.30000 9.678
45.32000 9.124
45.34000 11.884
45.36000 9.084
45.38000 6.625
45.40000 10.469
45.42000 10.825
45.44000 11.831
45.46000 12.143
45.48000 10.736
45.50000 17.232
45.52000 11.037
45.54000 12.396
45.56000 18.770
45.58000 19.173
45.60000 14.636
45.62000 15.839
45.64000 11.502
45.66000 12.034
45.68000 12.574
45.70000 20.847
45.72000 21.502
45.74000 20.866
45.76000 21.898
45.78000 23.502
45.80000 18.672
45.82000 21.038
45.84000 21.173
45.86000 23.824
45.88000 23.525
45.90000 27.676
45.92000 30.564
45.94000 29.461
45.96000 28.219
45.98000 30.320
46.00000 32.748
46.02000 28.033
46.04000 34.556
46.06000 39.068
46.08000 35.867
46.10000 33.639
46.12000 42.443
46.14000 38.131
46.16000 41.621
46.18000 39.741
46.20000 30.566
46.22000 35.208
46.24000 41.458
46.26000 37.689
46.28000 32.728
46.30000 40.620
46.32000 46.118
46.34000 46.590
46.36000 48.782
46.38000 50.285
46.40000 52.504
46.42000 51.798
46.44000 57.256
46.46000 56.214
46.48000 53.852
46.50000 52.647
46.52000 58.345
46.54000 66.247
46.56000 57.426
46.58000 58.188
46.60000 58.393
46.62000 62.788
46.64000 65.879
46.66000 70.284
46.68000 67.267
46.70000 68.562
46.72000 72.935
46.74000 71.313
46.76000 72.930
46.78000 74.527
46.80000 75.223
46.82000 76.953
46.84000 77.725
46.86000 75.591
46.88000 78.136
46.90000 78.256
46.92000 76.493
46.94000 76.939
46.96000 80.889
46.98000 84.707
47.00000 87.721
47.02000 79.787
47.04000 84.718
47.06000 86.038
47.08000 81.856
47.10000 74.744
47.12000 80.749
47.14000 85.169
47.16000 81.065
47.18000 80.042
47.20000 77.474
47.22000 78.894
47.24000 81.589
47.26000 78.829
47.28000 75.340
47.30000 66.433
47.32000 72.671
47.34000 70.749
47.36000 65.096
47.38000 71.729
47.40000 76.497
47.42000 68.581
47.44000 62.097
47.46000 62.733
47.48000 59.331
47.50000 56.367
47.52000 51.745
47.54000 55.409
47.56000 53.511
47.58000 54.611
47.60000 53.533
47.62000 51.831
47.64000 45.730
47.66000 41.622
47.68000 43.884
47.70000 43.159
47.72000 45.175
47.74000 42.254
47.76000 45.609
47.78000 45.163
47.80000 38.060
47.82000 41.359
47.84000 41.953
47.86000 37.020
47.88000 32.543
47.90000 31.471
47.92000 32.622
47.94000 30.421
47.96000 27.474
47.98000 23.476
48.00000 18.792
48.02000 18.000
48.04000 25.815
48.06000 27.999
48.08000 23.623
48.10000 23.837
48.12000 17.198
48.14000 18.653
48.16000 18.629
48.18000 12.288
48.20000 9.140
48.22000 9.760
48.24000 10.875
48.26000 10.293
48.28000 11.003
48.30000 12.109
48.32000 9.474
48.34000 10.310
48.36000 11.542
48.38000 15.352
48.40000 15.372
48.42000 10.783
48.44000 12.756
48.46000 13.648
48.48000 5.078
48.50000 2.485
48.52000 1.323
48.54000 4.973
48.56000 8.550
48.58000 7.482
48.60000 3.717
48.62000 6.287
48.64000 5.966
48.66000 1.664
48.68000 3.090
48.70000 0.453
48.72000 1.718
48.74000 6.401
48.76000 5.433
48.78000 -0.927
48.80000 2.801
48.82000 3.574
48.84000 3.504
48.86000 5.587
48.88000 8.149
48.90000 -1.534
48.92000 -1.843
48.94000 0.906
48.96000 0.990
48.98000 0.215
49.00000 0.379
49.02000 -1.237
49.04000 -0.197
49.06000 -1.891
49.08000 -0.025
49.10000 5.303
49.12000 -1.544
49.14000 -3.179
49.16000 3.437
49.18000 6.378
49.20000 5.165
49.22000 3.890
49.24000 7.324
49.26000 -1.948
49.28000 -0.494
49.30000 3.599
49.32000 6.655
49.34000 5.067
49.36000 8.447
49.38000 8.200
49.40000 3.613
49.42000 -3.126
49.44000 3.974
49.46000 7.192
49.48000 5.888
49.50000 2.485
49.52000 0.401
49.54000 0.903
49.56000 3.126
49.58000 3.853
49.60000 0.493
49.62000 3.098
49.64000 -0.939
49.66000 -0.081
49.68000 -0.425
49.70000 1.899
49.72000 -1.340
49.74000 0.220
49.76000 6.912
49.78000 8.218
49.80000 7.243
49.82000 7.260
49.84000 5.316
49.86000 4.590
49.88000 -1.951
49.90000 -2.452
49.92000 2.996
49.94000 1.850
49.96000 1.263
49.98000 -2.436
50.00000 0.653
50.02000 0.745
50.04000 3.150
50.06000 1.749
50.08000 -1.679
50.10000 -2.293
50.12000 -2.539
50.14000 -1.813
50.16000 2.760
50.18000 4.549
50.20000 -1.722
50.22000 -3.040
50.24000 0.428
50.26000 6.149
50.28000 1.400
50.30000 5.897
50.32000 6.927
50.34000 9.122
50.36000 5.430
50.38000 2.519
50.40000 1.728
50.42000 1.719
50.44000 -1.722
50.46000 -2.445
50.48000 0.499
50.50000 1.531
50.52000 1.455
50.54000 4.216
50.56000 3.151
50.58000 5.242
50.60000 5.406
50.62000 3.886
50.64000 1.604
50.66000 1.108
50.68000 2.101
50.70000 1.438
50.72000 0.843
50.74000 -2.260
50.76000 -0.938
50.78000 4.283
50.80000 5.567
50.82000 -2.103
50.84000 -3.000
50.86000 -0.903
50.88000 6.348
50.90000 2.389
50.92000 -2.774
50.94000 2.544
50.96000 4.425
50.98000 4.794
51.00000 2.955
51.02000 6.158
51.04000 7.359
51.06000 3.979
51.08000 3.968
51.10000 5.923
51.12000 2.179
51.14000 4.036
51.16000 2.214
51.18000 0.574
51.20000 -2.428
51.22000 4.867
51.24000 4.540
51.26000 6.885
51.28000 9.418
51.30000 7.628
51.32000 5.384
51.34000 6.329
51.36000 3.116
51.38000 -0.147
51.40000 4.133
51.42000 1.778
51.44000 1.119
51.46000 0.873
51.48000 -0.479
51.50000 -0.972
51.52000 3.976
51.54000 1.572
51.56000 0.373
51.58000 4.980
51.60000 6.623
51.62000 8.598
51.64000 5.086
51.66000 0.333
51.68000 5.510
51.70000 11.293
51.72000 4.908
51.74000 3.588
51.76000 2.041
51.78000 -0.089
51.80000 2.659
51.82000 2.696
51.84000 5.116
51.86000 4.146
51.88000 -1.054
51.90000 -2.956
51.92000 -1.309
51.94000 2.450
51.96000 3.488
51.98000 4.016
52.00000 3.256
52.02000 5.294
52.04000 2.332
52.06000 6.361
52.08000 5.469
52.10000 -0.572
52.12000 1.846
52.14000 5.466
52.16000 3.986
52.18000 -2.752
52.20000 0.835
52.22000 -1.878
52.24000 -0.543
52.26000 1.966
52.28000 5.280
52.30000 4.310
52.32000 3.226
52.34000 6.285
52.36000 8.010
52.38000 3.991
52.40000 3.977
52.42000 6.721
52.44000 2.901
52.46000 -2.929
52.48000 -0.357
52.50000 3.468
52.52000 9.596
52.54000 12.155
52.56000 4.131
52.58000 -0.035
52.60000 2.625
52.62000 0.776
52.64000 -0.414
52.66000 3.437
52.68000 3.360
52.70000 2.357
52.72000 4.411
52.74000 4.898
52.76000 9.882
52.78000 7.667
52.80000 9.081
52.82000 5.599
52.84000 0.123
52.86000 4.603
52.88000 6.754
52.90000 3.491
52.92000 3.902
52.94000 2.472
52.96000 4.023
52.98000 4.766
53.00000 6.577
53.02000 5.960
53.04000 2.351
53.06000 1.346
53.08000 2.227
53.10000 1.117
53.12000 1.684
53.14000 1.809
53.16000 3.610
53.18000 -0.205
53.20000 -2.912
53.22000 -0.464
53.24000 -1.632
53.26000 3.914
53.28000 5.832
53.30000 1.217
53.32000 -0.013
53.34000 -2.908
53.36000 -0.441
53.38000 3.747
53.40000 3.606
53.42000 -0.006
53.44000 -0.918
53.46000 4.956
53.48000 9.993
53.50000 4.162
53.52000 4.129
53.54000 3.519
53.56000 4.475
53.58000 1.273
53.60000 1.780
53.62000 6.312
53.64000 4.617
53.66000 2.501
53.68000 6.121
53.70000 4.415
53.72000 -0.330
53.74000 -1.553
53.76000 -0.793
53.78000 5.933
53.80000 7.200
53.82000 5.644
53.84000 0.330
53.86000 -1.236
53.88000 2.192
53.90000 7.363
53.92000 0.950
53.94000 -1.159
53.96000 2.402
53.98000 2.801
54.00000 1.796
54.02000 1.198
54.04000 2.087
54.06000 1.902
54.08000 1.936
54.10000 6.058
54.12000 3.960
54.14000 3.001
54.16000 -2.901
54.18000 0.183
54.20000 1.936
54.22000 -0.146
54.24000 0.718
54.26000 2.991
54.28000 -1.996
54.30000 1.902
54.32000 2.002
54.34000 1.407
54.36000 1.046
54.38000 1.645
54.40000 2.740
54.42000 4.645
54.44000 4.652
54.46000 2.873
54.48000 3.671
54.50000 6.539
54.52000 7.641
54.54000 7.593
54.56000 1.834
54.58000 0.748
54.60000 2.081
54.62000 0.095
54.64000 1.910
54.66000 1.717
54.68000 5.602
54.70000 5.476
54.72000 1.860
54.74000 6.570
54.76000 8.683
54.78000 3.120
54.80000 3.925
54.82000 3.890
54.84000 0.756
54.86000 1.430
54.88000 -2.153
54.90000 -0.518
54.92000 0.310
54.94000 -2.857
54.96000 -0.020
54.98000 -0.774
55.00000 4.385
55.02000 9.330
55.04000 4.405
55.06000 -1.791
55.08000 -1.788
55.10000 -2.483
55.12000 1.232
55.14000 3.382
55.16000 1.405
55.18000 1.296
55.20000 1.818
55.22000 4.847
55.24000 2.807
55.26000 -0.108
55.28000 0.998
55.30000 6.506
55.32000 0.086
55.34000 4.005
55.36000 6.455
55.38000 7.124
55.40000 7.211
55.42000 4.182
55.44000 4.006
55.46000 6.055
55.48000 8.409
55.50000 4.473
55.52000 3.282
55.54000 6.448
55.56000 9.226
55.58000 5.529
55.60000 5.511
55.62000 4.420
55.64000 -1.152
55.66000 1.005
55.68000 6.657
55.70000 4.303
55.72000 0.648
55.74000 6.350
55.76000 3.113
55.78000 5.890
55.80000 4.283
55.82000 3.758
55.84000 2.507
55.86000 5.725
55.88000 9.527
55.90000 8.915
55.92000 6.473
55.94000 3.751
55.96000 7.510
55.98000 10.500
56.00000 6.959
56.02000 5.219
56.04000 0.461
56.06000 2.116
56.08000 5.007
56.10000 8.000
56.12000 6.621
56.14000 4.475
56.16000 2.377
56.18000 3.405
56.20000 2.312
56.22000 4.823
56.24000 2.152
56.26000 1.693
56.28000 1.629
56.30000 7.362
56.32000 5.432
56.34000 5.841
56.36000 1.558
56.38000 3.988
56.40000 3.523
56.42000 2.634
56.44000 3.373
56.46000 4.150
56.48000 5.911
56.50000 9.545
56.52000 8.017
56.54000 12.512
56.56000 5.055
56.58000 0.887
56.60000 4.615
56.62000 6.584
56.64000 12.574
56.66000 11.799
56.68000 11.030
56.70000 7.173
56.72000 4.917
56.74000 6.999
56.76000 7.150
56.78000 1.114
56.80000 -2.733
56.82000 3.058
56.84000 8.965
56.86000 8.242
56.88000 7.486
56.90000 3.127
56.92000 1.697
56.94000 0.431
56.96000 10.613
56.98000 10.886
57.00000 5.039
57.02000 6.637
57.04000 10.321
57.06000 10.355
57.08000 10.683
57.10000 7.703
57.12000 6.715
57.14000 3.320
57.16000 6.614
57.18000 8.545
57.20000 9.243
57.22000 7.419
57.24000 14.068
57.26000 10.862
57.28000 5.878
57.30000 4.166
57.32000 4.654
57.34000 6.763
57.36000 4.030
57.38000 2.622
57.40000 5.151
57.42000 5.739
57.44000 4.733
57.46000 0.002
57.48000 -0.979
57.50000 1.326
57.52000 3.672
57.54000 4.608
57.56000 4.688
57.58000 1.183
57.60000 -0.074
57.62000 6.338
57.64000 9.093
57.66000 7.889
57.68000 8.178
57.70000 5.654
57.72000 9.233
57.74000 8.276
57.76000 3.737
57.78000 10.121
57.80000 11.021
57.82000 6.387
57.84000 6.103
57.86000 8.034
57.88000 4.790
57.90000 8.880
57.92000 4.190
57.94000 2.669
57.96000 2.112
57.98000 2.692
58.00000 -0.111
58.02000 6.808
58.04000 4.777
58.06000 1.983
58.08000 1.636
58.10000 5.612
58.12000 5.907
58.14000 2.118
58.16000 3.512
58.18000 1.453
58.20000 6.194
58.22000 5.062
58.24000 4.032
58.26000 -1.145
58.28000 -1.395
58.30000 -1.400
58.32000 -0.211
58.34000 3.085
58.36000 6.286
58.38000 8.394
58.40000 6.137
58.42000 6.412
58.44000 6.633
58.46000 4.215
58.48000 5.316
58.50000 6.298
58.52000 3.101
58.54000 5.763
58.56000 1.529
58.58000 -0.758
58.60000 -2.741
58.62000 -0.502
58.64000 3.373
58.66000 4.951
58.68000 2.683
58.70000 7.355
58.72000 2.674
58.74000 -1.297
58.76000 -0.192
58.78000 1.182
58.80000 6.479
58.82000 7.874
58.84000 0.673
58.86000 -1.498
58.88000 0.526
58.90000 0.609
58.92000 3.013
58.94000 2.520
58.96000 -0.324
58.98000 2.163
59.00000 2.932
59.02000 -2.659
59.04000 -0.727
59.06000 0.940
59.08000 4.946
59.10000 2.555
59.12000 0.495
59.14000 -0.417
59.16000 -1.931
59.18000 1.601
59.20000 -0.121
59.22000 -0.931
59.24000 1.335
59.26000 -2.734
59.28000 -1.626
59.30000 0.551
59.32000 -0.209
59.34000 -2.627
59.36000 -1.237
59.38000 5.134
59.40000 6.260
59.42000 5.987
59.44000 1.737
59.46000 -0.311
59.48000 1.588
59.50000 0.167
59.52000 -1.940
59.54000 3.547
59.56000 4.255
59.58000 1.811
59.60000 1.780
59.62000 1.572
59.64000 3.630
59.66000 0.718
59.68000 -0.504
59.70000 1.003
59.72000 1.575
59.74000 0.006
59.76000 -0.274
59.78000 -0.354
59.80000 1.031
59.82000 0.501
59.84000 -0.305
59.86000 0.495
59.88000 -0.662
59.90000 -1.776
59.92000 4.113
59.94000 2.804
59.96000 1.386
59.98000 0.168
60.00000 5.016
60.02000 7.636
60.04000 0.989
60.06000 8.049
60.08000 7.025
60.10000 5.067
60.12000 0.393
60.14000 4.997
60.16000 8.771
60.18000 3.707
60.20000 -0.309
60.22000 3.785
60.24000 6.288
60.26000 3.054
60.28000 0.884
60.30000 2.163
60.32000 5.875
60.34000 4.300
60.36000 0.240
60.38000 2.028
60.40000 1.093
60.42000 2.400
60.44000 2.074
60.46000 4.400
60.48000 0.475
60.50000 4.275
60.52000 1.734
60.54000 0.461
60.56000 5.527
60.58000 3.490
60.60000 -1.226
60.62000 -2.680
60.64000 4.839
60.66000 6.167
60.68000 3.420
60.70000 3.388
60.72000 2.344
60.74000 -0.313
60.76000 0.707
60.78000 3.553
60.80000 0.532
60.82000 1.837
60.84000 0.177
60.86000 0.764
60.88000 -1.369
60.90000 0.242
60.92000 0.133
60.94000 5.542
60.96000 5.557
60.98000 4.664
61.00000 5.330
61.02000 1.012
61.04000 3.376
61.06000 4.204
61.08000 4.612
61.10000 4.921
61.12000 4.205
61.14000 1.930
61.16000 2.886
61.18000 3.641
61.20000 0.878
61.22000 1.809
61.24000 2.429
61.26000 2.660
61.28000 -2.649
61.30000 1.427
61.32000 4.680
61.34000 0.387
61.36000 -1.203
61.38000 1.670
61.40000 0.635
61.42000 1.062
61.44000 2.398
61.46000 2.019
61.48000 0.516
61.50000 0.552
61.52000 3.814
61.54000 3.975
61.56000 2.402
61.58000 2.451
61.60000 2.633
61.62000 5.929
61.64000 3.173
61.66000 4.407
61.68000 2.429
61.70000 3.681
61.72000 0.625
61.74000 0.652
61.76000 -0.275
61.78000 1.419
61.80000 4.379
61.82000 4.667
61.84000 7.088
61.86000 2.896
61.88000 1.215
61.90000 2.102
61.92000 1.328
61.94000 1.581
61.96000 4.732
61.98000 6.169
62.00000 4.563
62.02000 2.249
62.04000 -0.681
62.06000 -0.856
62.08000 0.351
62.10000 1.539
62.12000 3.724
62.14000 4.346
62.16000 1.705
62.18000 -2.636
62.20000 -1.411
62.22000 -0.249
62.24000 1.727
62.26000 3.626
62.28000 0.767
62.30000 5.994
62.32000 4.753
62.34000 2.732
62.36000 5.218
62.38000 9.015
62.40000 2.323
62.42000 0.347
62.44000 -0.421
62.46000 -0.672
62.48000 0.406
62.50000 -0.695
62.52000 -0.568
62.54000 -2.124
62.56000 2.403
62.58000 4.091
62.60000 1.581
62.62000 3.903
62.64000 3.742
62.66000 8.350
62.68000 12.274
62.70000 8.613
62.72000 2.181
62.74000 0.092
62.76000 0.924
62.78000 4.825
62.80000 1.871
62.82000 -0.009
62.84000 1.732
62.86000 2.426
62.88000 2.959
62.90000 -2.638
62.92000 -1.774
62.94000 4.054
62.96000 1.071
62.98000 -1.988
63.00000 -0.641
63.02000 1.923
63.04000 -1.140
63.06000 0.857
63.08000 2.730
63.10000 2.849
63.12000 0.394
63.14000 3.051
63.16000 0.810
63.18000 -0.016
63.20000 2.668
63.22000 2.266
63.24000 0.908
63.26000 3.936
63.28000 4.219
63.30000 2.493
63.32000 2.118
63.34000 -2.058
63.36000 -2.166
63.38000 -1.175
63.40000 0.239
63.42000 -0.147
63.44000 3.318
63.46000 2.648
63.48000 2.976
63.50000 1.574
63.52000 1.636
63.54000 -0.154
63.56000 -0.521
63.58000 -0.228
63.60000 0.984
63.62000 -0.501
63.64000 1.764
63.66000 -0.197
63.68000 -2.644
63.70000 4.831
63.72000 7.310
63.74000 3.433
63.76000 -0.977
63.78000 -1.841
63.80000 0.996
63.82000 0.463
63.84000 2.636
63.86000 2.391
63.88000 1.485
63.90000 1.317
63.92000 3.606
63.94000 -1.015
63.96000 0.125
63.98000 5.622
64.00000 4.932
64.02000 1.427
64.04000 4.222
64.06000 4.044
64.08000 2.494
64.10000 3.634
64.12000 4.878
64.14000 5.667
64.16000 3.244
64.18000 -0.045
64.20000 -0.986
64.22000 0.760
64.24000 -1.357
64.26000 3.070
64.28000 2.259
64.30000 0.813
64.32000 -2.643
64.34000 -1.931
64.36000 -1.371
64.38000 -2.644
64.40000 -0.292
64.42000 3.185
64.44000 0.777
64.46000 1.354
64.48000 0.954
64.50000 5.318
64.52000 4.103
64.54000 1.434
64.56000 2.090
64.58000 -0.382
64.60000 1.761
64.62000 1.462
64.64000 3.160
64.66000 3.478
64.68000 -0.241
64.70000 -0.698
64.72000 0.144
64.74000 0.411
64.76000 2.276
64.78000 0.955
64.80000 2.946
64.82000 3.279
64.84000 -0.258
64.86000 -2.665
64.88000 -0.699
64.90000 0.096
64.92000 2.975
64.94000 1.261
64.96000 0.863
64.98000 2.295
65.00000 -0.021
65.02000 3.437
65.04000 1.936
65.06000 3.260
65.08000 4.476
65.10000 2.315
65.12000 1.226
65.14000 2.564
65.16000 0.170
65.18000 -2.672
65.20000 -1.030
65.22000 -0.137
65.24000 1.401
65.26000 -2.286
65.28000 -0.716
65.30000 -0.283
65.32000 -0.558
65.34000 -1.693
65.36000 -1.568
65.38000 1.201
65.40000 1.762
65.42000 1.003
65.44000 -2.491
65.46000 0.622
65.48000 1.086
65.50000 -1.101
65.52000 1.064
65.54000 1.014
65.56000 -1.085
65.58000 0.398
65.60000 1.186
65.62000 4.100
65.64000 -0.962
65.66000 3.339
65.68000 5.015
65.70000 0.413
65.72000 -2.675
65.74000 -1.787
65.76000 1.621
65.78000 4.951
65.80000 3.347
65.82000 5.356
65.84000 4.172
65.86000 1.746
65.88000 2.356
65.90000 3.906
65.92000 2.262
65.94000 2.005
65.96000 0.004
65.98000 0.180
66.00000 2.944
66.02000 3.491
66.04000 4.470
66.06000 2.863
66.08000 1.993
66.10000 2.077
66.12000 2.516
66.14000 0.161
66.16000 -0.264
66.18000 -0.200
66.20000 1.894
66.22000 -0.937
66.24000 -2.699
66.26000 -1.025
66.28000 0.777
66.30000 2.548
66.32000 3.055
66.34000 1.840
66.36000 0.498
66.38000 5.785
66.40000 0.357
66.42000 -1.506
66.44000 0.397
66.46000 -2.106
66.48000 0.798
66.50000 3.111
66.52000 1.184
66.54000 0.411
66.56000 4.077
66.58000 -2.548
66.60000 -2.420
66.62000 1.818
66.64000 1.312
66.66000 2.747
66.68000 0.788
66.70000 2.120
66.72000 5.808
66.74000 2.825
66.76000 -1.304
66.78000 -1.606
66.80000 -2.708
66.82000 -0.045
66.84000 0.491
66.86000 4.134
66.88000 8.772
66.90000 4.772
66.92000 1.472
66.94000 2.738
66.96000 -0.011
66.98000 -0.021
67.00000 -1.017
67.02000 0.142
67.04000 3.069
67.06000 1.612
67.08000 2.716
67.10000 0.916
67.12000 1.299
67.14000 4.560
67.16000 5.161
67.18000 2.611
67.20000 2.266
67.22000 5.255
67.24000 1.374
67.26000 0.339
67.28000 0.802
67.30000 0.246
67.32000 3.050
67.34000 1.952
67.36000 3.001
67.38000 5.865
67.40000 8.527
67.42000 8.459
67.44000 2.105
67.46000 1.589
67.48000 7.176
67.50000 5.977
67.52000 4.858
67.54000 6.224
67.56000 4.250
67.58000 5.373
67.60000 9.200
67.62000 12.393
67.64000 10.787
67.66000 10.562
67.68000 12.978
67.70000 8.527
67.72000 8.457
67.74000 7.993
67.76000 9.698
67.78000 8.799
67.80000 10.484
67.82000 8.854
67.84000 6.924
67.86000 7.749
67.88000 13.841
67.90000 10.644
67.92000 10.519
67.94000 10.908
67.96000 11.737
67.98000 16.086
68.00000 15.024
68.02000 11.787
68.04000 12.653
68.06000 14.665
68.08000 16.899
68.10000 17.976
68.12000 18.073
68.14000 13.573
68.16000 13.987
68.18000 14.118
68.20000 14.643
68.22000 19.502
68.24000 18.782
68.26000 21.396
68.28000 17.662
68.30000 20.623
68.32000 20.363
68.34000 16.857
68.36000 22.581
68.38000 21.285
68.40000 18.812
68.42000 20.911
68.44000 22.390
68.46000 22.171
68.48000 21.624
68.50000 28.662
68.52000 26.796
68.54000 22.001
68.56000 21.987
68.58000 20.892
68.60000 23.551
68.62000 28.210
68.64000 30.951
68.66000 26.585
68.68000 26.635
68.70000 23.937
68.72000 23.433
68.74000 26.255
68.76000 25.010
68.78000 26.764
68.80000 27.097
68.82000 28.414
68.84000 29.200
68.86000 28.964
68.88000 26.539
68.90000 24.761
68.92000 25.482
68.94000 24.557
68.96000 25.860
68.98000 24.542
69.00000 20.985
69.02000 26.503
69.04000 26.310
69.06000 23.923
69.08000 24.227
69.10000 18.728
69.12000 15.685
69.14000 21.955
69.16000 22.092
69.18000 18.836
69.20000 18.973
69.22000 19.935
69.24000 23.248
69.26000 23.869
69.28000 20.140
69.30000 16.871
69.32000 14.214
69.34000 20.907
69.36000 18.035
69.38000 15.479
69.40000 15.869
69.42000 12.869
69.44000 14.982
69.46000 20.641
69.48000 14.762
69.50000 15.741
69.52000 12.733
69.54000 13.992
69.56000 12.266
69.58000 12.933
69.60000 12.685
69.62000 11.464
69.64000 11.295
69.66000 13.662
69.68000 12.457
69.70000 8.180
69.72000 8.182
69.74000 10.122
69.76000 8.703
69.78000 7.195
69.80000 5.071
69.82000 4.019
69.84000 4.675
69.86000 5.710
69.88000 3.764
69.90000 8.534
69.92000 5.461
69.94000 4.962
69.96000 8.352
69.98000 9.631
70.00000 6.426
70.02000 5.090
70.04000 4.958
70.06000 6.715
70.08000 6.239
70.10000 2.812
70.12000 5.713
70.14000 4.831
70.16000 8.060
70.18000 7.453
70.20000 3.611
70.22000 -0.749
70.24000 -2.232
70.26000 -1.371
70.28000 -0.266
70.30000 -2.378
70.32000 -0.232
70.34000 1.774
70.36000 4.935
70.38000 3.721
70.40000 3.102
70.42000 4.017
70.44000 5.529
70.46000 3.966
70.48000 1.489
70.50000 2.073
70.52000 2.896
70.54000 5.637
70.56000 -2.605
70.58000 1.187
70.60000 8.264
70.62000 3.912
70.64000 1.957
70.66000 2.930
70.68000 4.005
70.70000 5.163
70.72000 3.134
70.74000 2.236
70.76000 4.660
70.78000 0.344
70.80000 3.415
70.82000 5.294
70.84000 4.832
70.86000 2.480
70.88000 4.016
70.90000 1.703
70.92000 -2.548
70.94000 0.425
70.96000 2.792
70.98000 -2.108
71.00000 5.311
71.02000 6.552
71.04000 5.239
71.06000 7.203
71.08000 2.352
71.10000 4.520
71.12000 4.459
71.14000 2.164
71.16000 1.827
71.18000 6.970
71.20000 5.637
71.22000 0.925
71.24000 5.123
71.26000 4.395
71.28000 4.605
71.30000 1.401
71.32000 3.593
71.34000 4.565
71.36000 2.817
71.38000 2.593
71.40000 3.307
71.42000 2.816
71.44000 4.725
71.46000 3.003
71.48000 0.484
71.50000 1.641
71.52000 1.595
71.54000 2.704
71.56000 3.943
71.58000 -0.925
71.60000 1.524
71.62000 5.092
71.64000 -0.242
71.66000 -2.506
71.68000 -0.847
71.70000 2.227
71.72000 8.947
71.74000 9.799
71.76000 4.773
71.78000 -0.811
71.80000 1.180
71.82000 3.010
71.84000 4.508
71.86000 2.336
71.88000 2.891
71.90000 5.558
71.92000 5.284
71.94000 6.310
71.96000 4.759
71.98000 6.439
72.00000 6.208
72.02000 3.053
72.04000 1.032
72.06000 5.527
72.08000 4.958
72.10000 6.469
72.12000 1.340
72.14000 3.670
72.16000 1.972
72.18000 -0.471
72.20000 -1.713
72.22000 6.334
72.24000 8.934
72.26000 7.924
72.28000 3.199
72.30000 -0.098
72.32000 1.723
72.34000 1.064
72.36000 0.806
72.38000 4.327
72.40000 4.537
72.42000 2.709
72.44000 1.629
72.46000 3.096
72.48000 5.747
72.50000 5.223
72.52000 2.451
72.54000 4.496
72.56000 6.865
72.58000 3.652
72.60000 4.007
72.62000 9.233
72.64000 3.211
72.66000 -0.762
72.68000 -1.330
72.70000 4.094
72.72000 6.577
72.74000 10.153
72.76000 6.897
72.78000 5.276
72.80000 4.198
72.82000 6.307
72.84000 5.031
72.86000 -2.389
72.88000 -0.574
72.90000 5.821
72.92000 7.344
72.94000 6.583
72.96000 4.316
72.98000 6.847
73.00000 4.529
73.02000 0.768
73.04000 5.119
73.06000 5.624
73.08000 6.204
73.10000 7.747
73.12000 7.327
73.14000 9.330
73.16000 6.523
73.18000 3.581
73.20000 8.733
73.22000 5.925
73.24000 2.671
73.26000 3.859
73.28000 2.612
73.30000 3.732
73.32000 -0.960
73.34000 -2.219
73.36000 -1.590
73.38000 2.733
73.40000 5.860
73.42000 0.652
73.44000 0.067
73.46000 4.434
73.48000 7.138
73.50000 5.881
73.52000 6.090
73.54000 9.863
73.56000 6.419
73.58000 5.248
73.60000 10.280
73.62000 8.114
73.64000 0.527
73.66000 0.429
73.68000 -2.044
73.70000 0.587
73.72000 2.216
73.74000 2.898
73.76000 1.216
73.78000 0.563
73.80000 -0.784
73.82000 0.638
73.84000 2.936
73.86000 2.186
73.88000 6.131
73.90000 9.203
73.92000 8.243
73.94000 4.032
73.96000 3.412
73.98000 4.589
74.00000 -1.999
74.02000 3.033
74.04000 4.558
74.06000 2.559
74.08000 4.858
74.10000 6.453
74.12000 2.483
74.14000 2.827
74.16000 3.304
74.18000 1.697
74.20000 -2.440
74.22000 1.124
74.24000 6.186
74.26000 5.040
74.28000 3.352
74.30000 3.292
74.32000 -0.270
74.34000 0.441
74.36000 1.475
74.38000 4.694
74.40000 4.510
74.42000 0.291
74.44000 -1.470
74.46000 1.579
74.48000 1.372
74.50000 0.370
74.52000 2.287
74.54000 2.967
74.56000 2.198
74.58000 2.625
74.60000 1.360
74.62000 2.312
74.64000 2.494
74.66000 6.314
74.68000 8.620
74.70000 8.350
74.72000 6.214
74.74000 2.073
74.76000 1.596
74.78000 4.784
74.80000 0.643
74.82000 -0.639
74.84000 3.496
74.86000 -0.724
74.88000 -2.419
74.90000 2.424
74.92000 7.567
74.94000 4.011
74.96000 -1.394
74.98000 -0.421
75.00000 2.147
75.02000 3.747
75.04000 7.273
75.06000 2.443
75.08000 1.828
75.10000 -0.845
75.12000 1.582
75.14000 5.762
75.16000 4.705
75.18000 -0.638
75.20000 1.767
75.22000 5.498
75.24000 8.794
75.26000 4.650
75.28000 4.896
75.30000 -0.919
75.32000 2.637
75.34000 1.840
75.36000 3.188
75.38000 1.831
75.40000 3.885
75.42000 6.629
75.44000 4.589
75.46000 5.771
75.48000 4.227
75.50000 4.717
75.52000 4.633
75.54000 1.755
75.56000 1.726
75.58000 2.763
75.60000 -1.252
75.62000 -0.056
75.64000 -1.099
75.66000 2.265
75.68000 4.540
75.70000 3.430
75.72000 6.927
75.74000 4.168
75.76000 -0.018
75.78000 -1.889
75.80000 0.055
75.82000 -0.378
75.84000 -1.238
75.86000 0.948
75.88000 4.659
75.90000 2.722
75.92000 6.223
75.94000 5.427
75.96000 3.806
75.98000 -1.134
76.00000 0.183
76.02000 1.482
76.04000 0.150
76.06000 4.628
76.08000 2.528
76.10000 0.785
76.12000 1.762
76.14000 -1.297
76.16000 3.650
76.18000 7.165
76.20000 5.744
76.22000 5.027
76.24000 5.677
76.26000 2.582
76.28000 4.229
76.30000 8.263
76.32000 5.416
76.34000 -1.460
76.36000 -1.372
76.38000 -0.463
76.40000 1.624
76.42000 1.493
76.44000 0.538
76.46000 4.534
76.48000 3.496
76.50000 1.029
76.52000 3.155
76.54000 1.528
76.56000 1.106
76.58000 4.142
76.60000 4.430
76.62000 3.345
76.64000 2.211
76.66000 5.783
76.68000 2.791
76.70000 5.178
76.72000 6.559
76.74000 4.067
76.76000 5.436
76.78000 2.520
76.80000 7.607
76.82000 9.384
76.84000 9.849
76.86000 2.076
76.88000 2.380
76.90000 4.029
76.92000 8.091
76.94000 6.007
76.96000 0.592
76.98000 5.626
77.00000 8.057
77.02000 5.869
77.04000 4.870
77.06000 2.821
77.08000 8.376
77.10000 1.680
77.12000 1.934
77.14000 0.271
77.16000 4.676
77.18000 2.963
77.20000 5.510
77.22000 6.968
77.24000 7.630
77.26000 8.927
77.28000 6.465
77.30000 3.319
77.32000 -2.400
77.34000 -0.232
77.36000 -1.064
77.38000 2.308
77.40000 5.288
77.42000 5.437
77.44000 7.773
77.46000 2.651
77.48000 0.150
77.50000 1.330
77.52000 3.097
77.54000 4.504
77.56000 1.288
77.58000 5.061
77.60000 8.665
77.62000 2.947
77.64000 6.069
77.66000 6.701
77.68000 3.637
77.70000 4.215
77.72000 10.054
77.74000 8.106
77.76000 8.347
77.78000 2.732
77.80000 3.684
77.82000 3.279
77.84000 2.378
77.86000 6.411
77.88000 6.865
77.90000 1.185
77.92000 1.929
77.94000 2.266
77.96000 4.044
77.98000 -0.450
78.00000 5.433
78.02000 8.133
78.04000 5.820
78.06000 1.932
78.08000 1.736
78.10000 0.509
78.12000 1.855
78.14000 3.371
78.16000 2.328
78.18000 0.322
78.20000 1.696
78.22000 1.724
78.24000 6.255
78.26000 3.395
78.28000 -0.674
78.30000 -1.356
78.32000 -0.203
78.34000 0.898
78.36000 0.674
78.38000 4.559
78.40000 5.183
78.42000 2.170
78.44000 2.273
78.46000 1.001
78.48000 -0.883
78.50000 -1.159
78.52000 1.957
78.54000 2.785
78.56000 -0.346
78.58000 -2.280
78.60000 -1.068
78.62000 3.244
78.64000 -0.772
78.66000 3.553
78.68000 8.090
78.70000 3.089
78.72000 0.942
78.74000 4.009
78.76000 4.911
78.78000 0.943
78.80000 0.934
78.82000 -1.527
78.84000 1.425
78.86000 3.972
78.88000 7.746
78.90000 3.975
78.92000 0.940
78.94000 1.150
78.96000 2.166
78.98000 8.532
79.00000 10.107
79.02000 5.741
79.04000 7.682
79.06000 7.118
79.08000 5.123
79.10000 3.062
79.12000 4.662
79.14000 1.557
79.16000 0.913
79.18000 2.382
79.20000 2.655
79.22000 0.972
79.24000 0.055
79.26000 0.544
79.28000 5.708
79.30000 1.374
79.32000 1.630
79.34000 2.684
79.36000 4.009
79.38000 1.523
79.40000 3.914
79.42000 4.889
79.44000 5.167
79.46000 2.119
79.48000 4.970
79.50000 5.313
79.52000 2.835
79.54000 4.992
79.56000 4.269
79.58000 2.852
79.60000 1.078
79.62000 4.170
79.64000 3.887
79.66000 1.521
79.68000 3.249
79.70000 5.480
79.72000 2.499
79.74000 7.106
79.76000 5.656
79.78000 2.701
79.80000 -2.490
79.82000 3.211
79.84000 12.193
79.86000 2.188
79.88000 -1.069
79.90000 5.732
79.92000 8.569
79.94000 -0.115
79.96000 0.596
79.98000 5.196
80.00000 4.895
80.02000 6.220
80.04000 5.852
80.06000 6.427
80.08000 3.003
80.10000 1.085
80.12000 1.351
80.14000 4.777
80.16000 5.448
80.18000 0.359
80.20000 4.727
80.22000 6.509
80.24000 -0.600
80.26000 1.301
80.28000 1.472
80.30000 2.433
80.32000 4.465
80.34000 2.984
80.36000 3.472
80.38000 7.749
80.40000 6.243
80.42000 3.221
80.44000 -0.353
80.46000 0.946
80.48000 -0.754
80.50000 -0.500
80.52000 -1.511
80.54000 -2.575
80.56000 -2.563
80.58000 3.165
80.60000 3.826
80.62000 -1.168
80.64000 2.973
80.66000 6.387
80.68000 5.053
80.70000 0.888
80.72000 -0.292
80.74000 4.986
80.76000 11.111
80.78000 7.258
80.80000 2.770
80.82000 2.366
80.84000 2.342
80.86000 4.015
80.88000 1.173
80.90000 3.062
80.92000 8.551
80.94000 6.342
80.96000 6.636
80.98000 9.006
81.00000 7.306
81.02000 -1.574
81.04000 1.062
81.06000 -2.148
81.08000 -0.482
81.10000 0.412
81.12000 -0.411
81.14000 -1.059
81.16000 5.458
81.18000 8.621
81.20000 8.361
81.22000 3.376
81.24000 -1.046
81.26000 -2.638
81.28000 0.926
81.30000 5.939
81.32000 5.049
81.34000 7.570
81.36000 10.554
81.38000 7.291
81.40000 10.024
81.42000 9.640
81.44000 6.299
81.46000 6.433
81.48000 6.855
81.50000 -0.085
81.52000 2.453
81.54000 -0.714
81.56000 6.326
81.58000 7.117
81.60000 7.620
81.62000 9.183
81.64000 8.144
81.66000 11.829
81.68000 13.698
81.70000 12.913
81.72000 12.400
81.74000 11.402
81.76000 4.428
81.78000 8.908
81.80000 12.658
81.82000 16.390
81.84000 12.254
81.86000 11.061
81.88000 17.111
81.90000 14.249
81.92000 7.817
81.94000 12.126
81.96000 12.376
81.98000 11.395
82.00000 5.771
82.02000 13.477
82.04000 12.971
82.06000 13.110
82.08000 6.961
82.10000 9.443
82.12000 12.224
82.14000 12.538
82.16000 10.143
82.18000 10.669
82.20000 14.220
82.22000 13.634
82.24000 16.382
82.26000 20.176
82.28000 18.914
82.30000 15.221
82.32000 14.366
82.34000 13.630
82.36000 13.468
82.38000 14.544
82.40000 16.659
82.42000 16.094
82.44000 20.560
82.46000 23.725
82.48000 16.354
82.50000 18.664
82.52000 19.099
82.54000 25.572
82.56000 22.166
82.58000 17.523
82.60000 25.767
82.62000 26.424
82.64000 19.592
82.66000 16.658
82.68000 20.135
82.70000 22.693
82.72000 20.929
82.74000 22.478
82.76000 25.507
82.78000 25.437
82.80000 20.764
82.82000 26.563
82.84000 21.072
82.86000 26.171
82.88000 31.171
82.90000 34.408
82.92000 30.507
82.94000 32.541
82.96000 38.594
82.98000 30.129
83.00000 26.028
83.02000 26.730
83.04000 25.543
83.06000 22.931
83.08000 31.243
83.10000 32.807
83.12000 29.714
83.14000 23.772
83.16000 22.831
83.18000 29.368
83.20000 27.519
83.22000 29.370
83.24000 29.728
83.26000 32.412
83.28000 29.493
83.30000 24.278
83.32000 26.058
83.34000 20.856
83.36000 23.644
83.38000 26.194
83.40000 29.971
83.42000 26.328
83.44000 23.998
83.46000 23.160
83.48000 25.706
83.50000 22.409
83.52000 20.077
83.54000 24.044
83.56000 24.405
83.58000 23.770
83.60000 24.516
83.62000 22.175
83.64000 16.974
83.66000 17.948
83.68000 23.389
83.70000 23.438
83.72000 21.618
83.74000 19.926
83.76000 16.771
83.78000 12.053
83.80000 15.477
83.82000 15.484
83.84000 15.017
83.86000 12.955
83.88000 11.162
83.90000 13.083
83.92000 15.583
83.94000 13.693
83.96000 16.670
83.98000 14.308
84.00000 12.913
84.02000 14.767
84.04000 15.976
84.06000 13.007
84.08000 10.269
84.10000 8.441
84.12000 4.641
84.14000 10.207
84.16000 17.055
84.18000 15.714
84.20000 9.354
84.22000 2.648
84.24000 3.573
84.26000 11.348
84.28000 12.620
84.30000 8.069
84.32000 8.165
84.34000 4.686
84.36000 4.706
84.38000 1.901
84.40000 0.688
84.42000 5.776
84.44000 5.185
84.46000 5.937
84.48000 3.918
84.50000 -1.372
84.52000 -0.665
84.54000 0.917
84.56000 5.253
84.58000 7.518
84.60000 7.147
84.62000 7.554
84.64000 5.271
84.66000 7.039
84.68000 4.353
84.70000 -0.494
84.72000 3.307
84.74000 4.466
84.76000 3.040
84.78000 -0.449
84.80000 -1.754
84.82000 -0.600
84.84000 0.827
84.86000 4.620
84.88000 3.998
84.90000 3.122
84.92000 5.623
84.94000 2.775
84.96000 -2.243
84.98000 5.165
85.00000 9.563
85.02000 4.756
85.04000 2.073
85.06000 4.460
85.08000 7.669
85.10000 4.549
85.12000 -1.942
85.14000 -1.562
85.16000 -2.540
85.18000 3.130
85.20000 7.036
85.22000 6.211
85.24000 3.417
85.26000 6.151
85.28000 8.995
85.30000 7.947
85.32000 10.242
85.34000 3.754
85.36000 4.746
85.38000 4.286
85.40000 5.820
85.42000 0.079
85.44000 -2.517
85.46000 0.595
85.48000 7.365
85.50000 8.453
85.52000 8.179
85.54000 5.478
85.56000 5.881
85.58000 6.442
85.60000 5.358
85.62000 6.188
85.64000 3.707
85.66000 4.429
85.68000 -1.458
85.70000 2.770
85.72000 1.310
85.74000 2.616
85.76000 -2.513
85.78000 -1.368
85.80000 4.101
85.82000 2.354
85.84000 5.408
85.86000 1.343
85.88000 0.670
85.90000 1.950
85.92000 -0.060
85.94000 -1.614
85.96000 -2.512
85.98000 2.109
86.00000 4.946
86.02000 3.581
86.04000 3.424
86.06000 0.451
86.08000 3.488
86.10000 3.174
86.12000 2.098
86.14000 4.949
86.16000 6.835
86.18000 7.800
86.20000 10.065
86.22000 6.461
86.24000 4.731
86.26000 6.814
86.28000 8.104
86.30000 8.768
86.32000 7.652
86.34000 2.461
86.36000 3.293
86.38000 3.411
86.40000 5.843
86.42000 7.789
86.44000 6.848
86.46000 8.728
86.48000 5.300
86.50000 6.065
86.52000 10.173
86.54000 8.683
86.56000 6.991
86.58000 11.460
86.60000 11.196
86.62000 9.928
86.64000 10.850
86.66000 9.587
86.68000 9.054
86.70000 7.738
86.72000 7.568
86.74000 10.014
86.76000 13.592
86.78000 15.471
86.80000 11.259
86.82000 11.563
86.84000 10.898
86.86000 12.701
86.88000 14.928
86.90000 13.371
86.92000 10.357
86.94000 12.386
86.96000 13.366
86.98000 13.944
87.00000 16.547
87.02000 16.665
87.04000 16.155
87.06000 19.312
87.08000 15.592
87.10000 13.087
87.12000 10.468
87.14000 14.152
87.16000 16.474
87.18000 13.388
87.20000 17.821
87.22000 23.260
87.24000 20.185
87.26000 19.040
87.28000 17.413
87.30000 17.009
87.32000 21.719
87.34000 21.558
87.36000 22.314
87.38000 20.210
87.40000 23.089
87.42000 30.073
87.44000 21.621
87.46000 19.437
87.48000 19.656
87.50000 20.836
87.52000 15.456
87.54000 24.366
87.56000 26.528
87.58000 25.989
87.60000 24.271
87.62000 24.659
87.64000 22.640
87.66000 20.614
87.68000 19.537
87.70000 19.270
87.72000 20.400
87.74000 20.011
87.76000 18.098
87.78000 19.436
87.80000 18.545
87.82000 15.152
87.84000 19.021
87.86000 24.524
87.88000 26.334
87.90000 28.301
87.92000 21.782
87.94000 21.717
87.96000 20.162
87.98000 20.438
88.00000 19.145
88.02000 21.341
88.04000 16.118
88.06000 14.026
88.08000 15.784
88.10000 15.965
88.12000 16.610
88.14000 16.171
88.16000 16.628
88.18000 12.298
88.20000 15.408
88.22000 14.483
88.24000 11.165
88.26000 13.588
88.28000 15.961
88.30000 12.023
88.32000 10.433
88.34000 12.586
88.36000 12.975
88.38000 11.126
88.40000 8.647
88.42000 4.509
88.44000 6.785
88.46000 9.421
88.48000 7.698
88.50000 5.710
88.52000 5.836
88.54000 11.005
88.56000 8.509
88.58000 4.867
88.60000 2.849
88.62000 3.014
88.64000 2.094
88.66000 -2.206
88.68000 1.213
88.70000 0.311
88.72000 3.458
88.74000 0.345
88.76000 2.680
88.78000 5.568
88.80000 4.899
88.82000 4.065
88.84000 0.740
88.86000 -0.206
88.88000 3.349
88.90000 1.046
88.92000 2.861
88.94000 4.035
88.96000 3.323
88.98000 1.120
89.00000 3.092
89.02000 -0.016
89.04000 -2.481
89.06000 -0.757
89.08000 -0.600
89.10000 2.992
89.12000 3.558
89.14000 4.759
89.16000 2.494
89.18000 4.015
89.20000 0.232
89.22000 2.485
89.24000 6.763
89.26000 3.839
89.28000 1.141
89.30000 -1.229
89.32000 3.656
89.34000 3.932
89.36000 5.068
89.38000 3.579
89.40000 -0.942
89.42000 1.876
89.44000 2.929
89.46000 3.688
89.48000 0.937
89.50000 1.707
89.52000 0.605
89.54000 3.667
89.56000 1.670
89.58000 0.108
89.60000 0.629
89.62000 -0.068
89.64000 -1.001
89.66000 -1.561
89.68000 -1.173
89.70000 -2.392
89.72000 1.364
89.74000 -0.039
89.76000 1.381
89.78000 3.542
89.80000 1.085
89.82000 1.234
89.84000 4.225
89.86000 0.299
89.88000 2.100
89.90000 3.418
89.92000 0.777
89.94000 3.461
89.96000 1.920
89.98000 -0.480
90.00000 -0.657
90.02000 -0.562
90.04000 -0.745
90.06000 -1.156
90.08000 0.732
90.10000 2.984
90.12000 1.238
90.14000 5.141
90.16000 1.574
90.18000 3.810
90.20000 10.996
90.22000 6.673
90.24000 2.654
90.26000 3.356
90.28000 5.783
90.30000 3.743
90.32000 4.220
90.34000 5.112
90.36000 6.739
90.38000 6.986
90.40000 9.587
90.42000 6.188
90.44000 4.708
90.46000 6.081
90.48000 5.838
90.50000 7.498
90.52000 8.910
90.54000 3.635
90.56000 -0.004
90.58000 4.913
90.60000 4.244
90.62000 4.022
90.64000 7.249
90.66000 1.560
90.68000 2.846
90.70000 0.848
90.72000 3.437
90.74000 7.176
90.76000 5.900
90.78000 4.541
90.80000 1.983
90.82000 5.707
90.84000 9.427
90.86000 10.214
90.88000 7.951
90.90000 -2.246
90.92000 2.027
90.94000 7.946
90.96000 6.798
90.98000 10.038
91.00000 7.939
91.02000 6.685
91.04000 7.116
91.06000 3.412
91.08000 5.713
91.10000 4.426
91.12000 4.179
91.14000 3.914
91.16000 7.078
91.18000 3.980
91.20000 7.307
91.22000 4.512
91.24000 6.395
91.26000 7.184
91.28000 8.109
91.30000 6.325
91.32000 4.028
91.34000 6.755
91.36000 6.008
91.38000 4.606
91.40000 1.868
91.42000 1.415
91.44000 6.662
91.46000 5.412
91.48000 2.200
91.50000 6.693
91.52000 12.253
91.54000 8.619
91.56000 2.069
91.58000 0.291
91.60000 0.500
91.62000 1.800
91.64000 3.486
91.66000 11.774
91.68000 6.937
91.70000 5.310
91.72000 1.251
91.74000 3.248
91.76000 4.740
91.78000 4.176
91.80000 4.062
91.82000 1.754
91.84000 2.739
91.86000 4.788
91.88000 4.177
91.90000 6.485
91.92000 6.115
91.94000 3.987
91.96000 5.130
91.98000 7.484
92.00000 9.240
92.02000 5.059
92.04000 2.793
92.06000 4.263
92.08000 2.440
92.10000 1.699
92.12000 -0.101
92.14000 -0.065
92.16000 6.791
92.18000 6.049
92.20000 2.975
92.22000 5.279
92.24000 8.622
92.26000 3.050
92.28000 -0.355
92.30000 0.926
92.32000 3.620
92.34000 4.104
92.36000 -1.634
92.38000 -1.192
92.40000 4.939
92.42000 3.528
92.44000 4.752
92.46000 2.115
92.48000 2.589
92.50000 0.321
92.52000 -1.845
92.54000 0.416
92.56000 1.501
92.58000 1.137
92.60000 5.693
92.62000 3.282
92.64000 2.015
92.66000 3.164
92.68000 3.128
92.70000 7.815
92.72000 4.360
92.74000 1.820
92.76000 2.837
92.78000 4.211
92.80000 1.981
92.82000 4.406
92.84000 3.781
92.86000 4.527
92.88000 3.321
92.90000 3.123
92.92000 4.422
92.94000 0.175
92.96000 3.308
92.98000 7.473
93.00000 3.432
93.02000 1.900
93.04000 2.218
93.06000 5.528
93.08000 -0.277
93.10000 4.602
93.12000 2.924
93.14000 1.992
93.16000 4.109
93.18000 6.874
93.20000 9.780
93.22000 10.075
93.24000 3.334
93.26000 5.668
93.28000 1.270
93.30000 3.129
93.32000 3.159
93.34000 6.233
93.36000 6.643
93.38000 3.640
93.40000 -0.785
93.42000 3.804
93.44000 5.923
93.46000 8.419
93.48000 9.677
93.50000 7.840
93.52000 -2.288
93.54000 0.398
93.56000 3.683
93.58000 6.239
93.60000 7.788
93.62000 9.431
93.64000 4.409
93.66000 3.495
93.68000 3.525
93.70000 4.400
93.72000 2.538
93.74000 3.540
93.76000 -1.431
93.78000 -1.760
93.80000 -0.854
93.82000 0.635
93.84000 8.759
93.86000 9.552
93.88000 2.474
93.90000 0.438
93.92000 -2.297
93.94000 -2.085
93.96000 -1.905
93.98000 6.289
94.00000 5.274
94.02000 5.678
94.04000 3.845
94.06000 4.053
94.08000 4.984
94.10000 5.055
94.12000 12.458
94.14000 6.208
94.16000 2.292
94.18000 2.333
94.20000 1.698
94.22000 0.274
94.24000 7.019
94.26000 8.322
94.28000 3.110
94.30000 1.548
94.32000 4.188
94.34000 8.132
94.36000 8.986
94.38000 3.278
94.40000 3.001
94.42000 -2.319
94.44000 1.742
94.46000 3.193
94.48000 0.822
94.50000 -2.027
94.52000 1.423
94.54000 5.745
94.56000 6.429
94.58000 0.867
94.60000 4.981
94.62000 3.631
94.64000 3.068
94.66000 4.017
94.68000 2.980
94.70000 5.362
94.72000 7.231
94.74000 3.421
94.76000 3.310
94.78000 5.799
94.80000 7.128
94.82000 5.454
94.84000 6.007
94.86000 4.744
94.88000 5.795
94.90000 4.521
94.92000 3.787
94.94000 3.726
94.96000 10.443
94.98000 7.563
95.00000 5.650
95.02000 4.603
95.04000 5.632
95.06000 3.102
95.08000 1.167
95.10000 1.219
95.12000 5.847
95.14000 8.913
95.16000 5.772
95.18000 -0.164
95.20000 0.945
95.22000 0.608
95.24000 2.649
95.26000 -0.433
95.28000 -1.666
95.30000 6.414
95.32000 4.972
95.34000 4.985
95.36000 11.224
95.38000 9.290
95.40000 1.242
95.42000 -0.744
95.44000 -2.331
95.46000 2.129
95.48000 1.870
95.50000 0.027
95.52000 5.910
95.54000 10.208
95.56000 7.864
95.58000 1.840
95.60000 1.454
95.62000 6.038
95.64000 6.440
95.66000 7.665
95.68000 7.847
95.70000 3.420
95.72000 5.603
95.74000 3.226
95.76000 5.503
95.78000 0.879
95.80000 5.433
95.82000 4.686
95.84000 1.666
95.86000 2.109
95.88000 -2.318
95.90000 0.300
95.92000 4.509
95.94000 0.755
95.96000 1.299
95.98000 4.676
96.00000 7.316
96.02000 7.934
96.04000 6.737
96.06000 -0.157
96.08000 2.085
96.10000 1.894
96.12000 9.067
96.14000 11.991
96.16000 6.959
96.18000 4.337
96.20000 6.194
96.22000 11.875
96.24000 5.590
96.26000 3.805
96.28000 7.399
96.30000 3.800
96.32000 10.539
96.34000 6.557
96.36000 9.374
96.38000 9.318
96.40000 6.732
96.42000 4.691
96.44000 5.783
96.46000 5.253
96.48000 8.156
96.50000 6.185
96.52000 6.041
96.54000 3.411
96.56000 2.432
96.58000 6.404
96.60000 5.316
96.62000 5.388
96.64000 7.950
96.66000 3.355
96.68000 3.326
96.70000 6.616
96.72000 4.436
96.74000 2.428
96.76000 5.332
96.78000 2.481
96.80000 4.945
96.82000 10.058
96.84000 7.526
96.86000 7.127
96.88000 11.282
96.90000 8.062
96.92000 9.016
96.94000 10.220
96.96000 6.049
96.98000 3.024
97.00000 -0.787
97.02000 8.432
97.04000 13.661
97.06000 17.825
97.08000 11.064
97.10000 0.911
97.12000 5.634
97.14000 5.246
97.16000 4.751
97.18000 6.573
97.20000 6.753
97.22000 10.289
97.24000 9.377
97.26000 10.934
97.28000 2.821
97.30000 1.724
97.32000 5.174
97.34000 6.325
97.36000 10.418
97.38000 7.880
97.40000 7.268
97.42000 6.800
97.44000 2.758
97.46000 3.415
97.48000 2.104
97.50000 5.345
97.52000 7.270
97.54000 3.020
97.56000 4.221
97.58000 12.720
97.60000 17.351
97.62000 8.113
97.64000 2.226
97.66000 6.817
97.68000 10.676
97.70000 16.105
97.72000 10.623
97.74000 9.223
97.76000 2.841
97.78000 4.628
97.80000 9.802
97.82000 7.503
97.84000 9.985
97.86000 11.984
97.88000 9.097
97.90000 9.423
97.92000 9.334
97.94000 7.735
97.96000 0.614
97.98000 -2.229
98.00000 5.093
98.02000 14.473
98.04000 19.438
98.06000 14.290
98.08000 6.594
98.10000 2.726
98.12000 1.831
98.14000 1.095
98.16000 6.362
98.18000 13.067
98.20000 13.612
98.22000 11.148
98.24000 6.259
98.26000 13.625
98.28000 12.455
98.30000 8.009
98.32000 14.782
98.34000 9.425
98.36000 11.663
98.38000 14.167
98.40000 5.718
98.42000 3.010
98.44000 3.542
98.46000 5.415
98.48000 10.111
98.50000 14.735
98.52000 7.147
98.54000 -0.548
98.56000 2.117
98.58000 0.834
98.60000 4.487
98.62000 6.851
98.64000 15.790
98.66000 13.731
98.68000 6.196
98.70000 6.853
98.72000 -2.219
98.74000 2.450
98.76000 4.082
98.78000 -0.728
98.80000 1.568
98.82000 8.147
98.84000 7.853
98.86000 1.054
98.88000 4.846
98.90000 10.674
98.92000 17.456
98.94000 11.268
98.96000 12.637
98.98000 9.098
99.00000 10.321
99.02000 5.416
99.04000 -2.208
99.06000 10.080
99.08000 7.527
99.10000 8.995
99.12000 6.504
99.14000 -0.896
99.16000 2.876
99.18000 10.658
99.20000 12.699
99.22000 7.969
99.24000 13.137
99.26000 12.271
99.28000 6.179
99.30000 3.562
99.32000 7.005
99.34000 12.072
99.36000 -0.034
99.38000 -2.240
99.40000 3.610
99.42000 11.955
99.44000 11.219
99.46000 3.816
99.48000 4.003
99.50000 6.317
99.52000 9.321
99.54000 2.384
99.56000 2.601
99.58000 2.364
99.60000 5.372
99.62000 4.317
99.64000 9.190
99.66000 12.421
99.68000 10.765
99.70000 8.962
99.72000 2.602
99.74000 7.880
99.76000 8.950
99.78000 7.411
99.80000 2.606
99.82000 5.113
99.84000 -5.316
99.86000 6.288
99.88000 3.592
99.90000 6.084
99.92000 15.650
99.94000 8.250
99.96000 4.127
99.98000 0.000
