'Id: "0011389" Comment: "Integrate frame 0011389_Au-Ir-Rh_Au-Rich_XRD_Mapping-086-0000.gfrmwith cursor Wedge Cursor #5" Operator: "B?rgel" Anode: "Cu" Wavelength: "1.5406" Scantype: "2Theta (TwoTheta)" TimePerStep: "1" X: "9" Y: "-18" Z: "5.95" 
10.00000 0.000
10.02000 3.467
10.04000 5.969
10.06000 16.048
10.08000 0.586
10.10000 -4.038
10.12000 4.017
10.14000 13.726
10.16000 4.558
10.18000 -0.101
10.20000 12.755
10.22000 0.905
10.24000 -3.971
10.26000 3.803
10.28000 10.640
10.30000 12.340
10.32000 18.201
10.34000 10.013
10.36000 19.007
10.38000 10.748
10.40000 21.767
10.42000 19.673
10.44000 12.629
10.46000 15.645
10.48000 9.690
10.50000 12.929
10.52000 13.833
10.54000 38.393
10.56000 34.463
10.58000 13.140
10.60000 15.636
10.62000 20.306
10.64000 13.065
10.66000 11.744
10.68000 3.733
10.70000 4.425
10.72000 20.497
10.74000 28.675
10.76000 22.261
10.78000 25.926
10.80000 30.724
10.82000 27.698
10.84000 14.125
10.86000 14.940
10.88000 17.308
10.90000 17.250
10.92000 24.660
10.94000 29.663
10.96000 16.724
10.98000 6.045
11.00000 13.290
11.02000 17.571
11.04000 18.591
11.06000 27.459
11.08000 23.136
11.10000 12.366
11.12000 11.737
11.14000 11.001
11.16000 15.521
11.18000 23.550
11.20000 23.004
11.22000 14.624
11.24000 9.979
11.26000 16.408
11.28000 12.250
11.30000 17.632
11.32000 5.045
11.34000 7.426
11.36000 11.909
11.38000 20.437
11.40000 15.968
11.42000 9.311
11.44000 18.350
11.46000 9.650
11.48000 5.270
11.50000 8.946
11.52000 12.175
11.54000 23.127
11.56000 20.904
11.58000 21.565
11.60000 14.977
11.62000 18.541
11.64000 12.342
11.66000 11.058
11.68000 18.145
11.70000 18.681
11.72000 17.695
11.74000 20.210
11.76000 13.934
11.78000 6.609
11.80000 5.469
11.82000 7.539
11.84000 8.581
11.86000 10.036
11.88000 17.916
11.90000 9.344
11.92000 3.114
11.94000 11.487
11.96000 22.329
11.98000 17.810
12.00000 4.958
12.02000 16.146
12.04000 26.824
12.06000 16.610
12.08000 9.565
12.10000 8.599
12.12000 10.273
12.14000 10.598
12.16000 18.345
12.18000 22.073
12.20000 21.893
12.22000 28.482
12.24000 30.893
12.26000 15.630
12.28000 18.773
12.30000 29.349
12.32000 28.025
12.34000 22.024
12.36000 17.711
12.38000 7.868
12.40000 21.862
12.42000 24.219
12.44000 30.900
12.46000 15.338
12.48000 9.072
12.50000 16.724
12.52000 26.955
12.54000 24.577
12.56000 25.396
12.58000 21.809
12.60000 15.439
12.62000 22.704
12.64000 18.712
12.66000 12.933
12.68000 6.684
12.70000 13.760
12.72000 11.660
12.74000 13.896
12.76000 10.537
12.78000 9.850
12.80000 16.000
12.82000 19.879
12.84000 12.013
12.86000 13.839
12.88000 19.234
12.90000 18.333
12.92000 8.731
12.94000 4.465
12.96000 4.677
12.98000 15.168
13.00000 17.724
13.02000 19.322
13.04000 22.933
13.06000 22.537
13.08000 16.704
13.10000 14.350
13.12000 15.183
13.14000 14.174
13.16000 15.656
13.18000 13.753
13.20000 23.624
13.22000 25.500
13.24000 14.241
13.26000 27.398
13.28000 22.701
13.30000 10.352
13.32000 11.486
13.34000 7.791
13.36000 7.238
13.38000 4.454
13.40000 6.610
13.42000 14.909
13.44000 19.989
13.46000 9.884
13.48000 5.554
13.50000 8.342
13.52000 19.619
13.54000 17.345
13.56000 11.444
13.58000 17.056
13.60000 19.259
13.62000 20.040
13.64000 10.850
13.66000 17.216
13.68000 27.309
13.70000 22.187
13.72000 9.820
13.74000 11.092
13.76000 13.705
13.78000 10.196
13.80000 4.204
13.82000 11.974
13.84000 15.407
13.86000 21.460
13.88000 20.400
13.90000 14.303
13.92000 8.722
13.94000 6.182
13.96000 12.702
13.98000 2.404
14.00000 4.168
14.02000 21.743
14.04000 22.043
14.06000 30.162
14.08000 24.791
14.10000 15.404
14.12000 20.876
14.14000 13.371
14.16000 9.898
14.18000 10.820
14.20000 13.334
14.22000 9.599
14.24000 4.003
14.26000 3.559
14.28000 9.768
14.30000 6.005
14.32000 11.910
14.34000 15.396
14.36000 8.597
14.38000 7.630
14.40000 12.176
14.42000 11.212
14.44000 6.529
14.46000 1.553
14.48000 0.687
14.50000 1.680
14.52000 7.319
14.54000 8.333
14.56000 4.588
14.58000 7.010
14.60000 12.071
14.62000 11.277
14.64000 12.274
14.66000 12.648
14.68000 7.929
14.70000 12.240
14.72000 8.878
14.74000 2.071
14.76000 5.299
14.78000 4.889
14.80000 4.196
14.82000 15.486
14.84000 11.699
14.86000 10.507
14.88000 12.139
14.90000 11.466
14.92000 16.385
14.94000 14.799
14.96000 14.944
14.98000 12.235
15.00000 6.888
15.02000 13.178
15.04000 6.949
15.06000 0.174
15.08000 -1.012
15.10000 9.267
15.12000 17.212
15.14000 15.585
15.16000 5.695
15.18000 5.558
15.20000 2.861
15.22000 5.427
15.24000 11.859
15.26000 15.520
15.28000 8.584
15.30000 2.355
15.32000 5.814
15.34000 11.800
15.36000 12.355
15.38000 9.383
15.40000 11.812
15.42000 6.090
15.44000 8.278
15.46000 14.884
15.48000 5.559
15.50000 5.371
15.52000 6.596
15.54000 2.195
15.56000 8.429
15.58000 10.907
15.60000 1.690
15.62000 3.494
15.64000 3.080
15.66000 4.037
15.68000 7.106
15.70000 10.237
15.72000 8.035
15.74000 12.399
15.76000 11.119
15.78000 6.433
15.80000 0.051
15.82000 8.283
15.84000 13.900
15.86000 7.433
15.88000 -1.383
15.90000 8.746
15.92000 15.852
15.94000 7.464
15.96000 5.301
15.98000 6.635
16.00000 5.469
16.02000 7.525
16.04000 3.396
16.06000 8.431
16.08000 9.382
16.10000 11.952
16.12000 17.632
16.14000 10.133
16.16000 2.987
16.18000 10.105
16.20000 0.341
16.22000 1.833
16.24000 9.792
16.26000 10.192
16.28000 0.845
16.30000 3.507
16.32000 8.613
16.34000 5.636
16.36000 5.220
16.38000 5.265
16.40000 3.019
16.42000 5.274
16.44000 4.998
16.46000 11.962
16.48000 4.975
16.50000 1.240
16.52000 2.454
16.54000 6.295
16.56000 -4.383
16.58000 4.523
16.60000 10.077
16.62000 2.013
16.64000 8.912
16.66000 11.609
16.68000 5.612
16.70000 11.020
16.72000 5.753
16.74000 9.662
16.76000 9.877
16.78000 10.363
16.80000 6.321
16.82000 6.132
16.84000 10.451
16.86000 13.846
16.88000 9.476
16.90000 9.417
16.92000 8.728
16.94000 0.291
16.96000 5.411
16.98000 9.997
17.00000 16.340
17.02000 7.235
17.04000 1.072
17.06000 12.531
17.08000 8.702
17.10000 12.142
17.12000 11.736
17.14000 5.272
17.16000 7.764
17.18000 9.390
17.20000 7.432
17.22000 10.903
17.24000 9.471
17.26000 2.386
17.28000 -1.538
17.30000 4.061
17.32000 4.075
17.34000 7.695
17.36000 11.709
17.38000 5.607
17.40000 8.619
17.42000 7.227
17.44000 6.047
17.46000 11.989
17.48000 12.130
17.50000 7.196
17.52000 2.252
17.54000 5.881
17.56000 8.724
17.58000 7.600
17.60000 5.220
17.62000 8.453
17.64000 9.325
17.66000 9.312
17.68000 8.788
17.70000 8.302
17.72000 2.598
17.74000 6.604
17.76000 6.832
17.78000 0.330
17.80000 6.533
17.82000 12.371
17.84000 4.815
17.86000 0.099
17.88000 4.826
17.90000 5.733
17.92000 7.988
17.94000 7.626
17.96000 5.395
17.98000 7.791
18.00000 7.124
18.02000 7.877
18.04000 11.226
18.06000 4.776
18.08000 8.090
18.10000 16.814
18.12000 13.992
18.14000 7.096
18.16000 13.929
18.18000 17.405
18.20000 10.805
18.22000 2.780
18.24000 -4.259
18.26000 8.272
18.28000 13.616
18.30000 4.209
18.32000 4.686
18.34000 8.685
18.36000 8.566
18.38000 16.494
18.40000 15.671
18.42000 6.211
18.44000 5.010
18.46000 6.391
18.48000 1.750
18.50000 -1.762
18.52000 0.507
18.54000 -1.298
18.56000 -2.428
18.58000 6.477
18.60000 9.476
18.62000 7.207
18.64000 7.603
18.66000 8.031
18.68000 14.251
18.70000 17.907
18.72000 14.400
18.74000 12.114
18.76000 11.160
18.78000 9.429
18.80000 5.292
18.82000 2.444
18.84000 8.642
18.86000 6.742
18.88000 8.169
18.90000 14.729
18.92000 13.401
18.94000 11.524
18.96000 3.012
18.98000 0.460
19.00000 2.140
19.02000 5.584
19.04000 3.515
19.06000 13.180
19.08000 8.803
19.10000 5.137
19.12000 5.731
19.14000 3.336
19.16000 5.427
19.18000 6.040
19.20000 0.113
19.22000 4.608
19.24000 9.027
19.26000 11.357
19.28000 7.601
19.30000 5.388
19.32000 0.722
19.34000 8.277
19.36000 10.436
19.38000 5.049
19.40000 2.870
19.42000 6.010
19.44000 12.250
19.46000 10.796
19.48000 11.494
19.50000 12.090
19.52000 8.585
19.54000 8.242
19.56000 11.717
19.58000 5.625
19.60000 -2.304
19.62000 -3.045
19.64000 4.240
19.66000 2.677
19.68000 -4.203
19.70000 5.252
19.72000 10.325
19.74000 9.536
19.76000 8.358
19.78000 8.448
19.80000 7.655
19.82000 7.117
19.84000 11.180
19.86000 13.934
19.88000 12.401
19.90000 -0.753
19.92000 0.188
19.94000 4.462
19.96000 9.287
19.98000 13.562
20.00000 11.886
20.02000 3.836
20.04000 4.427
20.06000 2.110
20.08000 -0.619
20.10000 -1.702
20.12000 1.882
20.14000 5.376
20.16000 7.275
20.18000 6.693
20.20000 10.449
20.22000 12.874
20.24000 7.839
20.26000 8.803
20.28000 8.973
20.30000 -0.071
20.32000 0.772
20.34000 8.170
20.36000 5.151
20.38000 -0.072
20.40000 -3.904
20.42000 2.047
20.44000 0.973
20.46000 0.033
20.48000 -4.187
20.50000 0.077
20.52000 1.758
20.54000 9.404
20.56000 5.186
20.58000 4.783
20.60000 4.099
20.62000 5.623
20.64000 4.949
20.66000 3.441
20.68000 6.463
20.70000 8.521
20.72000 6.719
20.74000 5.473
20.76000 2.381
20.78000 6.767
20.80000 7.335
20.82000 9.266
20.84000 5.239
20.86000 10.037
20.88000 7.125
20.90000 0.720
20.92000 1.654
20.94000 0.968
20.96000 2.243
20.98000 -0.828
21.00000 -0.731
21.02000 8.011
21.04000 0.214
21.06000 -4.163
21.08000 -0.073
21.10000 2.953
21.12000 -0.938
21.14000 -0.820
21.16000 -0.035
21.18000 4.638
21.20000 8.672
21.22000 6.102
21.24000 -2.808
21.26000 -1.918
21.28000 -2.881
21.30000 4.690
21.32000 6.214
21.34000 3.616
21.36000 2.825
21.38000 2.120
21.40000 1.620
21.42000 2.033
21.44000 2.272
21.46000 8.873
21.48000 2.338
21.50000 5.165
21.52000 9.138
21.54000 2.965
21.56000 7.464
21.58000 6.315
21.60000 4.162
21.62000 5.102
21.64000 2.502
21.66000 2.561
21.68000 -0.115
21.70000 4.405
21.72000 5.497
21.74000 4.878
21.76000 1.247
21.78000 0.473
21.80000 0.116
21.82000 3.483
21.84000 1.369
21.86000 8.528
21.88000 9.672
21.90000 -1.741
21.92000 -4.110
21.94000 4.575
21.96000 3.873
21.98000 -0.645
22.00000 0.541
22.02000 7.009
22.04000 10.464
22.06000 1.402
22.08000 0.415
22.10000 -0.133
22.12000 1.032
22.14000 3.538
22.16000 3.892
22.18000 2.241
22.20000 1.477
22.22000 1.216
22.24000 6.236
22.26000 6.434
22.28000 4.491
22.30000 3.071
22.32000 2.092
22.34000 1.588
22.36000 3.609
22.38000 3.115
22.40000 2.603
22.42000 -0.707
22.44000 -2.535
22.46000 3.310
22.48000 2.954
22.50000 8.968
22.52000 6.623
22.54000 4.015
22.56000 2.376
22.58000 -1.129
22.60000 2.783
22.62000 5.696
22.64000 2.538
22.66000 2.916
22.68000 9.352
22.70000 6.043
22.72000 4.044
22.74000 5.279
22.76000 10.534
22.78000 1.732
22.80000 4.514
22.82000 5.203
22.84000 -1.634
22.86000 -1.993
22.88000 -0.436
22.90000 -0.788
22.92000 2.336
22.94000 8.162
22.96000 4.502
22.98000 -1.475
23.00000 -0.107
23.02000 2.394
23.04000 10.106
23.06000 13.747
23.08000 10.880
23.10000 2.577
23.12000 -1.951
23.14000 -2.331
23.16000 0.413
23.18000 3.307
23.20000 5.629
23.22000 5.705
23.24000 1.468
23.26000 6.612
23.28000 12.174
23.30000 11.185
23.32000 8.151
23.34000 -0.090
23.36000 -2.918
23.38000 -1.391
23.40000 -1.746
23.42000 -2.042
23.44000 2.555
23.46000 0.781
23.48000 0.714
23.50000 1.899
23.52000 3.013
23.54000 2.659
23.56000 1.235
23.58000 4.828
23.60000 9.912
23.62000 0.660
23.64000 5.410
23.66000 3.393
23.68000 3.939
23.70000 10.507
23.72000 10.735
23.74000 9.962
23.76000 9.228
23.78000 7.315
23.80000 9.062
23.82000 2.233
23.84000 6.406
23.86000 12.569
23.88000 6.213
23.90000 4.752
23.92000 6.801
23.94000 6.052
23.96000 7.933
23.98000 4.008
24.00000 1.697
24.02000 5.507
24.04000 2.934
24.06000 0.557
24.08000 2.794
24.10000 2.071
24.12000 -3.943
24.14000 -0.691
24.16000 2.053
24.18000 3.249
24.20000 8.779
24.22000 11.653
24.24000 6.882
24.26000 5.122
24.28000 6.758
24.30000 7.449
24.32000 5.086
24.34000 4.718
24.36000 11.763
24.38000 9.575
24.40000 9.696
24.42000 12.481
24.44000 12.650
24.46000 12.541
24.48000 6.778
24.50000 9.107
24.52000 7.024
24.54000 7.375
24.56000 9.376
24.58000 1.608
24.60000 1.498
24.62000 -0.971
24.64000 -1.337
24.66000 1.376
24.68000 4.212
24.70000 4.131
24.72000 5.143
24.74000 9.481
24.76000 8.946
24.78000 8.140
24.80000 10.174
24.82000 10.620
24.84000 5.118
24.86000 5.456
24.88000 3.700
24.90000 5.705
24.92000 1.701
24.94000 -2.206
24.96000 2.047
24.98000 4.618
25.00000 4.477
25.02000 0.651
25.04000 1.156
25.06000 5.999
25.08000 2.686
25.10000 6.649
25.12000 10.256
25.14000 6.018
25.16000 -0.266
25.18000 -3.342
25.20000 -1.680
25.22000 2.789
25.24000 4.840
25.26000 2.099
25.28000 3.135
25.30000 7.856
25.32000 8.277
25.34000 9.448
25.36000 2.270
25.38000 1.968
25.40000 6.561
25.42000 1.935
25.44000 -0.546
25.46000 1.616
25.48000 0.271
25.50000 5.233
25.52000 2.197
25.54000 7.538
25.56000 8.300
25.58000 8.299
25.60000 5.492
25.62000 2.945
25.64000 7.094
25.66000 7.777
25.68000 6.148
25.70000 6.629
25.72000 8.522
25.74000 8.450
25.76000 6.722
25.78000 4.984
25.80000 4.783
25.82000 3.632
25.84000 -1.790
25.86000 -3.319
25.88000 4.255
25.90000 8.584
25.92000 0.699
25.94000 0.513
25.96000 2.705
25.98000 5.922
26.00000 6.238
26.02000 6.875
26.04000 -0.208
26.06000 -0.083
26.08000 0.330
26.10000 3.530
26.12000 4.229
26.14000 6.249
26.16000 7.169
26.18000 7.052
26.20000 1.703
26.22000 1.135
26.24000 3.937
26.26000 10.226
26.28000 -0.578
26.30000 -3.840
26.32000 2.427
26.34000 2.170
26.36000 -1.452
26.38000 10.153
26.40000 9.298
26.42000 4.331
26.44000 6.793
26.46000 9.678
26.48000 5.241
26.50000 4.178
26.52000 5.172
26.54000 1.713
26.56000 4.775
26.58000 3.452
26.60000 6.766
26.62000 6.927
26.64000 4.602
26.66000 3.477
26.68000 8.643
26.70000 7.265
26.72000 1.816
26.74000 -1.152
26.76000 0.192
26.78000 5.386
26.80000 4.701
26.82000 5.361
26.84000 5.622
26.86000 3.703
26.88000 2.083
26.90000 -0.067
26.92000 1.904
26.94000 4.777
26.96000 0.166
26.98000 0.329
27.00000 3.523
27.02000 6.524
27.04000 4.366
27.06000 -1.898
27.08000 -0.969
27.10000 -0.261
27.12000 -0.093
27.14000 1.444
27.16000 0.247
27.18000 4.838
27.20000 3.507
27.22000 3.117
27.24000 0.107
27.26000 -2.318
27.28000 -2.782
27.30000 -0.808
27.32000 -0.919
27.34000 1.061
27.36000 4.468
27.38000 1.850
27.40000 4.342
27.42000 -1.657
27.44000 0.363
27.46000 0.429
27.48000 4.259
27.50000 1.225
27.52000 -0.236
27.54000 0.777
27.56000 1.025
27.58000 0.950
27.60000 -0.365
27.62000 3.722
27.64000 4.308
27.66000 1.820
27.68000 3.951
27.70000 4.197
27.72000 5.027
27.74000 6.749
27.76000 3.507
27.78000 1.472
27.80000 3.717
27.82000 1.023
27.84000 -1.087
27.86000 -1.967
27.88000 -0.626
27.90000 -2.301
27.92000 -3.820
27.94000 2.171
27.96000 3.296
27.98000 -2.935
28.00000 0.872
28.02000 0.326
28.04000 0.090
28.06000 -0.418
28.08000 -0.133
28.10000 5.224
28.12000 1.198
28.14000 -1.012
28.16000 3.254
28.18000 6.448
28.20000 1.650
28.22000 -1.081
28.24000 5.002
28.26000 5.399
28.28000 -3.620
28.30000 -2.571
28.32000 -1.922
28.34000 -0.761
28.36000 2.360
28.38000 3.665
28.40000 4.993
28.42000 4.781
28.44000 -1.356
28.46000 -1.534
28.48000 1.403
28.50000 1.817
28.52000 1.416
28.54000 -1.058
28.56000 -3.745
28.58000 0.469
28.60000 1.538
28.62000 4.816
28.64000 1.321
28.66000 1.638
28.68000 7.534
28.70000 10.146
28.72000 8.260
28.74000 2.809
28.76000 -1.380
28.78000 -2.706
28.80000 0.742
28.82000 2.961
28.84000 3.997
28.86000 1.605
28.88000 -3.759
28.90000 -2.487
28.92000 1.714
28.94000 1.793
28.96000 4.008
28.98000 0.366
29.00000 2.094
29.02000 0.631
29.04000 4.211
29.06000 4.087
29.08000 8.369
29.10000 3.223
29.12000 1.225
29.14000 1.651
29.16000 0.464
29.18000 -2.933
29.20000 0.087
29.22000 2.078
29.24000 3.046
29.26000 -1.142
29.28000 -0.556
29.30000 1.957
29.32000 2.902
29.34000 5.720
29.36000 0.890
29.38000 0.521
29.40000 -0.954
29.42000 0.741
29.44000 2.583
29.46000 2.185
29.48000 -0.956
29.50000 2.051
29.52000 0.867
29.54000 0.417
29.56000 2.127
29.58000 0.799
29.60000 0.261
29.62000 -2.116
29.64000 4.751
29.66000 5.645
29.68000 1.150
29.70000 0.929
29.72000 -3.601
29.74000 0.401
29.76000 2.672
29.78000 1.460
29.80000 1.863
29.82000 -0.494
29.84000 0.492
29.86000 -0.482
29.88000 2.719
29.90000 1.699
29.92000 -3.697
29.94000 -3.093
29.96000 4.647
29.98000 3.079
30.00000 9.471
30.02000 8.755
30.04000 2.531
30.06000 2.930
30.08000 7.431
30.10000 6.649
30.12000 2.945
30.14000 1.844
30.16000 2.217
30.18000 3.639
30.20000 3.709
30.22000 6.500
30.24000 0.531
30.26000 -2.610
30.28000 -1.524
30.30000 3.869
30.32000 0.858
30.34000 -2.943
30.36000 3.252
30.38000 -0.708
30.40000 2.523
30.42000 4.014
30.44000 2.195
30.46000 -3.666
30.48000 -2.318
30.50000 -0.671
30.52000 1.936
30.54000 1.726
30.56000 1.778
30.58000 5.437
30.60000 5.618
30.62000 0.562
30.64000 3.475
30.66000 2.275
30.68000 -2.695
30.70000 0.814
30.72000 5.679
30.74000 6.357
30.76000 1.883
30.78000 -1.618
30.80000 -0.451
30.82000 3.721
30.84000 4.716
30.86000 6.292
30.88000 5.116
30.90000 3.860
30.92000 3.197
30.94000 5.907
30.96000 5.727
30.98000 1.265
31.00000 1.246
31.02000 1.772
31.04000 3.236
31.06000 4.174
31.08000 2.689
31.10000 -1.894
31.12000 -3.612
31.14000 5.660
31.16000 9.561
31.18000 6.603
31.20000 1.322
31.22000 1.392
31.24000 2.012
31.26000 1.698
31.28000 3.039
31.30000 5.494
31.32000 4.962
31.34000 3.809
31.36000 5.327
31.38000 8.489
31.40000 4.353
31.42000 3.124
31.44000 1.287
31.46000 4.647
31.48000 2.034
31.50000 0.284
31.52000 -2.825
31.54000 -1.233
31.56000 -0.622
31.58000 -3.027
31.60000 0.957
31.62000 -3.619
31.64000 1.424
31.66000 5.886
31.68000 10.285
31.70000 1.545
31.72000 -2.150
31.74000 -1.575
31.76000 -2.400
31.78000 1.043
31.80000 2.764
31.82000 2.601
31.84000 0.395
31.86000 3.146
31.88000 6.004
31.90000 1.935
31.92000 -0.842
31.94000 -0.148
31.96000 1.174
31.98000 0.409
32.00000 0.360
32.02000 -0.675
32.04000 -1.854
32.06000 1.221
32.08000 5.727
32.10000 2.590
32.12000 -0.422
32.14000 2.652
32.16000 -0.899
32.18000 -0.420
32.20000 0.687
32.22000 0.648
32.24000 1.137
32.26000 1.029
32.28000 1.797
32.30000 2.781
32.32000 1.959
32.34000 -1.609
32.36000 -2.289
32.38000 2.746
32.40000 3.507
32.42000 2.228
32.44000 -0.465
32.46000 -2.211
32.48000 -0.397
32.50000 3.901
32.52000 -0.916
32.54000 0.280
32.56000 -0.964
32.58000 1.600
32.60000 1.692
32.62000 -2.454
32.64000 -2.546
32.66000 1.165
32.68000 7.771
32.70000 4.676
32.72000 0.030
32.74000 0.892
32.76000 4.133
32.78000 3.468
32.80000 5.476
32.82000 2.827
32.84000 -0.986
32.86000 0.678
32.88000 -3.601
32.90000 -2.229
32.92000 -1.384
32.94000 0.061
32.96000 0.981
32.98000 1.964
33.00000 -0.297
33.02000 3.842
33.04000 2.372
33.06000 6.802
33.08000 8.421
33.10000 6.954
33.12000 1.782
33.14000 1.957
33.16000 0.668
33.18000 -1.300
33.20000 -0.466
33.22000 0.101
33.24000 -0.171
33.26000 -0.327
33.28000 -0.876
33.30000 -0.647
33.32000 2.453
33.34000 5.676
33.36000 3.819
33.38000 3.964
33.40000 4.540
33.42000 3.708
33.44000 -2.292
33.46000 -0.623
33.48000 8.874
33.50000 9.506
33.52000 3.510
33.54000 -1.211
33.56000 3.275
33.58000 2.357
33.60000 2.501
33.62000 8.834
33.64000 8.998
33.66000 2.599
33.68000 -0.486
33.70000 -3.554
33.72000 3.758
33.74000 7.313
33.76000 2.551
33.78000 3.203
33.80000 1.105
33.82000 4.086
33.84000 6.452
33.86000 8.227
33.88000 9.018
33.90000 4.164
33.92000 10.284
33.94000 6.708
33.96000 8.585
33.98000 4.433
34.00000 3.418
34.02000 4.343
34.04000 5.052
34.06000 5.947
34.08000 4.410
34.10000 5.161
34.12000 4.430
34.14000 3.360
34.16000 2.207
34.18000 3.812
34.20000 4.296
34.22000 0.870
34.24000 3.824
34.26000 5.714
34.28000 3.394
34.30000 -1.108
34.32000 3.682
34.34000 3.892
34.36000 2.541
34.38000 3.989
34.40000 3.812
34.42000 1.971
34.44000 4.052
34.46000 5.511
34.48000 7.956
34.50000 6.224
34.52000 2.829
34.54000 3.192
34.56000 3.018
34.58000 6.460
34.60000 8.169
34.62000 7.395
34.64000 3.502
34.66000 3.449
34.68000 1.755
34.70000 -0.915
34.72000 3.529
34.74000 5.819
34.76000 5.034
34.78000 8.091
34.80000 4.865
34.82000 -0.964
34.84000 -3.527
34.86000 -0.491
34.88000 4.028
34.90000 4.766
34.92000 1.005
34.94000 5.430
34.96000 5.495
34.98000 -0.878
35.00000 0.864
35.02000 4.999
35.04000 3.105
35.06000 0.056
35.08000 -3.538
35.10000 -2.780
35.12000 0.684
35.14000 -0.650
35.16000 1.845
35.18000 0.864
35.20000 3.918
35.22000 -1.312
35.24000 -0.702
35.26000 -1.663
35.28000 1.145
35.30000 3.450
35.32000 4.884
35.34000 3.922
35.36000 0.062
35.38000 3.946
35.40000 6.506
35.42000 4.530
35.44000 1.689
35.46000 -0.747
35.48000 2.202
35.50000 2.674
35.52000 7.779
35.54000 6.007
35.56000 2.145
35.58000 0.867
35.60000 5.554
35.62000 5.044
35.64000 3.700
35.66000 5.195
35.68000 0.362
35.70000 -1.434
35.72000 3.426
35.74000 5.097
35.76000 1.128
35.78000 -1.090
35.80000 2.454
35.82000 5.521
35.84000 0.102
35.86000 0.832
35.88000 0.808
35.90000 0.733
35.92000 -3.560
35.94000 -0.499
35.96000 5.180
35.98000 8.058
36.00000 0.896
36.02000 3.214
36.04000 4.300
36.06000 -1.609
36.08000 -0.731
36.10000 -0.891
36.12000 1.350
36.14000 4.388
36.16000 7.187
36.18000 8.086
36.20000 1.375
36.22000 2.154
36.24000 3.771
36.26000 0.246
36.28000 2.916
36.30000 -0.020
36.32000 0.296
36.34000 2.193
36.36000 -2.139
36.38000 0.896
36.40000 -0.574
36.42000 -3.578
36.44000 -0.631
36.46000 2.196
36.48000 3.651
36.50000 5.518
36.52000 4.752
36.54000 6.422
36.56000 1.668
36.58000 3.997
36.60000 1.244
36.62000 1.970
36.64000 8.915
36.66000 9.986
36.68000 7.237
36.70000 0.733
36.72000 2.336
36.74000 5.186
36.76000 7.279
36.78000 7.881
36.80000 2.290
36.82000 1.819
36.84000 5.444
36.86000 11.351
36.88000 8.738
36.90000 7.116
36.92000 5.738
36.94000 -3.589
36.96000 3.900
36.98000 7.388
37.00000 5.669
37.02000 4.768
37.04000 5.857
37.06000 5.482
37.08000 6.475
37.10000 4.055
37.12000 8.295
37.14000 7.141
37.16000 4.879
37.18000 7.258
37.20000 7.502
37.22000 7.949
37.24000 11.354
37.26000 13.614
37.28000 11.453
37.30000 6.035
37.32000 7.385
37.34000 9.388
37.36000 9.725
37.38000 10.472
37.40000 16.308
37.42000 11.924
37.44000 8.393
37.46000 10.978
37.48000 6.358
37.50000 3.468
37.52000 3.326
37.54000 9.876
37.56000 10.582
37.58000 12.192
37.60000 15.122
37.62000 14.025
37.64000 15.101
37.66000 13.559
37.68000 13.695
37.70000 15.532
37.72000 12.619
37.74000 13.549
37.76000 10.805
37.78000 10.406
37.80000 14.010
37.82000 18.998
37.84000 16.682
37.86000 13.115
37.88000 16.512
37.90000 19.116
37.92000 16.708
37.94000 17.818
37.96000 17.403
37.98000 21.775
38.00000 24.430
38.02000 17.659
38.04000 22.643
38.06000 21.249
38.08000 22.098
38.10000 26.117
38.12000 29.102
38.14000 27.294
38.16000 28.021
38.18000 31.944
38.20000 32.235
38.22000 29.996
38.24000 34.486
38.26000 36.254
38.28000 36.407
38.30000 39.831
38.32000 37.003
38.34000 34.758
38.36000 38.200
38.38000 46.585
38.40000 46.151
38.42000 46.079
38.44000 41.938
38.46000 46.075
38.48000 47.564
38.50000 47.579
38.52000 48.635
38.54000 56.026
38.56000 53.941
38.58000 59.142
38.60000 62.049
38.62000 63.181
38.64000 63.724
38.66000 68.554
38.68000 72.381
38.70000 73.949
38.72000 76.967
38.74000 76.668
38.76000 81.510
38.78000 90.528
38.80000 97.027
38.82000 95.355
38.84000 101.281
38.86000 107.672
38.88000 110.784
38.90000 109.436
38.92000 121.126
38.94000 127.143
38.96000 132.237
38.98000 143.235
39.00000 144.407
39.02000 155.391
39.04000 168.706
39.06000 173.103
39.08000 181.430
39.10000 197.425
39.12000 210.688
39.14000 217.830
39.16000 228.698
39.18000 243.722
39.20000 265.702
39.22000 273.647
39.24000 289.263
39.26000 304.574
39.28000 323.765
39.30000 342.623
39.32000 357.990
39.34000 374.246
39.36000 406.508
39.38000 433.014
39.40000 450.461
39.42000 472.509
39.44000 489.261
39.46000 509.991
39.48000 529.095
39.50000 549.535
39.52000 568.001
39.54000 591.270
39.56000 618.536
39.58000 631.846
39.60000 641.436
39.62000 653.849
39.64000 659.021
39.66000 675.467
39.68000 678.013
39.70000 685.130
39.72000 693.273
39.74000 680.965
39.76000 682.277
39.78000 667.577
39.80000 660.767
39.82000 648.943
39.84000 637.109
39.86000 627.538
39.88000 611.855
39.90000 592.682
39.92000 569.086
39.94000 547.237
39.96000 523.895
39.98000 508.544
40.00000 494.767
40.02000 474.001
40.04000 446.343
40.06000 424.680
40.08000 394.914
40.10000 370.017
40.12000 354.684
40.14000 340.155
40.16000 323.374
40.18000 296.352
40.20000 288.750
40.22000 277.276
40.24000 258.885
40.26000 237.479
40.28000 224.090
40.30000 208.486
40.32000 191.052
40.34000 184.206
40.36000 170.153
40.38000 160.809
40.40000 149.269
40.42000 135.622
40.44000 128.829
40.46000 121.974
40.48000 115.061
40.50000 106.186
40.52000 102.876
40.54000 100.621
40.56000 93.008
40.58000 87.497
40.60000 80.354
40.62000 74.051
40.64000 67.586
40.66000 65.072
40.68000 61.856
40.70000 57.556
40.72000 54.555
40.74000 49.253
40.76000 48.740
40.78000 52.352
40.80000 49.893
40.82000 48.274
40.84000 39.243
40.86000 38.208
40.88000 39.342
40.90000 37.494
40.92000 35.577
40.94000 31.645
40.96000 30.059
40.98000 30.037
41.00000 29.488
41.02000 29.437
41.04000 22.981
41.06000 22.704
41.08000 21.598
41.10000 19.828
41.12000 18.288
41.14000 18.591
41.16000 20.609
41.18000 16.742
41.20000 22.979
41.22000 19.093
41.24000 13.161
41.26000 15.138
41.28000 16.542
41.30000 15.735
41.32000 12.947
41.34000 14.894
41.36000 13.211
41.38000 9.618
41.40000 11.831
41.42000 14.963
41.44000 10.217
41.46000 9.243
41.48000 11.360
41.50000 10.098
41.52000 11.786
41.54000 8.968
41.56000 7.374
41.58000 8.237
41.60000 6.394
41.62000 7.606
41.64000 7.468
41.66000 8.882
41.68000 6.740
41.70000 8.472
41.72000 10.593
41.74000 7.473
41.76000 4.799
41.78000 5.019
41.80000 4.561
41.82000 2.031
41.84000 2.820
41.86000 2.938
41.88000 2.012
41.90000 0.929
41.92000 4.963
41.94000 3.316
41.96000 2.664
41.98000 5.362
42.00000 0.336
42.02000 -3.361
42.04000 -1.754
42.06000 4.818
42.08000 7.250
42.10000 2.427
42.12000 0.249
42.14000 2.992
42.16000 1.650
42.18000 0.976
42.20000 4.664
42.22000 4.596
42.24000 1.868
42.26000 -0.199
42.28000 3.635
42.30000 1.335
42.32000 -1.789
42.34000 3.393
42.36000 4.901
42.38000 3.383
42.40000 -0.124
42.42000 0.770
42.44000 1.230
42.46000 1.509
42.48000 0.695
42.50000 1.773
42.52000 3.760
42.54000 3.014
42.56000 1.001
42.58000 0.106
42.60000 0.354
42.62000 0.097
42.64000 -0.796
42.66000 -0.969
42.68000 -0.133
42.70000 0.687
42.72000 3.464
42.74000 2.620
42.76000 0.286
42.78000 3.647
42.80000 -2.673
42.82000 1.463
42.84000 2.418
42.86000 2.491
42.88000 5.000
42.90000 0.842
42.92000 -1.650
42.94000 0.020
42.96000 -0.578
42.98000 -1.003
43.00000 1.098
43.02000 2.889
43.04000 -0.455
43.06000 -3.234
43.08000 1.359
43.10000 4.140
43.12000 1.403
43.14000 1.898
43.16000 2.935
43.18000 4.015
43.20000 1.820
43.22000 0.115
43.24000 0.789
43.26000 -1.469
43.28000 -1.335
43.30000 0.760
43.32000 1.128
43.34000 -0.705
43.36000 -0.955
43.38000 -1.653
43.40000 1.180
43.42000 3.279
43.44000 0.832
43.46000 0.838
43.48000 -2.735
43.50000 -3.184
43.52000 1.212
43.54000 3.655
43.56000 3.243
43.58000 1.641
43.60000 3.212
43.62000 0.723
43.64000 0.877
43.66000 1.080
43.68000 5.286
43.70000 6.038
43.72000 0.553
43.74000 0.800
43.76000 -2.233
43.78000 -1.617
43.80000 1.592
43.82000 1.624
43.84000 1.311
43.86000 2.107
43.88000 0.226
43.90000 3.123
43.92000 3.351
43.94000 1.728
43.96000 -0.286
43.98000 0.318
44.00000 1.455
44.02000 2.696
44.04000 2.505
44.06000 1.489
44.08000 0.808
44.10000 2.003
44.12000 0.773
44.14000 1.396
44.16000 0.470
44.18000 2.093
44.20000 3.664
44.22000 1.508
44.24000 0.012
44.26000 -2.526
44.28000 -2.082
44.30000 -3.131
44.32000 -2.257
44.34000 3.061
44.36000 6.000
44.38000 3.967
44.40000 3.123
44.42000 1.334
44.44000 0.107
44.46000 0.082
44.48000 0.866
44.50000 0.668
44.52000 2.661
44.54000 2.688
44.56000 0.443
44.58000 -0.648
44.60000 0.665
44.62000 1.737
44.64000 1.908
44.66000 1.266
44.68000 0.461
44.70000 3.198
44.72000 5.673
44.74000 5.989
44.76000 4.044
44.78000 2.866
44.80000 4.447
44.82000 6.017
44.84000 5.724
44.86000 3.432
44.88000 2.081
44.90000 2.011
44.92000 1.842
44.94000 5.120
44.96000 9.950
44.98000 9.639
45.00000 5.612
45.02000 4.567
45.04000 6.269
45.06000 6.879
45.08000 4.320
45.10000 4.804
45.12000 5.137
45.14000 4.163
45.16000 2.269
45.18000 2.674
45.20000 2.796
45.22000 5.838
45.24000 8.982
45.26000 7.278
45.28000 9.463
45.30000 11.329
45.32000 10.108
45.34000 8.163
45.36000 11.047
45.38000 13.228
45.40000 15.703
45.42000 15.181
45.44000 15.006
45.46000 12.238
45.48000 11.939
45.50000 14.925
45.52000 14.092
45.54000 15.813
45.56000 17.897
45.58000 19.910
45.60000 17.640
45.62000 21.018
45.64000 22.590
45.66000 18.213
45.68000 17.358
45.70000 22.158
45.72000 21.917
45.74000 26.795
45.76000 31.777
45.78000 32.965
45.80000 31.419
45.82000 32.362
45.84000 35.779
45.86000 33.706
45.88000 38.238
45.90000 39.839
45.92000 39.665
45.94000 45.677
45.96000 43.445
45.98000 43.649
46.00000 45.560
46.02000 48.413
46.04000 48.161
46.06000 53.118
46.08000 50.776
46.10000 48.698
46.12000 50.987
46.14000 51.555
46.16000 53.580
46.18000 58.012
46.20000 60.101
46.22000 66.256
46.24000 65.571
46.26000 60.773
46.28000 66.109
46.30000 68.602
46.32000 66.805
46.34000 64.585
46.36000 66.296
46.38000 64.618
46.40000 66.376
46.42000 68.580
46.44000 65.493
46.46000 66.219
46.48000 66.954
46.50000 66.658
46.52000 65.153
46.54000 63.850
46.56000 64.403
46.58000 60.966
46.60000 57.808
46.62000 56.769
46.64000 54.840
46.66000 52.725
46.68000 54.183
46.70000 57.104
46.72000 58.989
46.74000 57.496
46.76000 53.866
46.78000 48.054
46.80000 42.550
46.82000 38.980
46.84000 41.151
46.86000 45.358
46.88000 42.309
46.90000 37.194
46.92000 36.366
46.94000 33.492
46.96000 27.084
46.98000 27.598
47.00000 28.964
47.02000 32.945
47.04000 31.774
47.06000 29.074
47.08000 20.979
47.10000 18.049
47.12000 21.619
47.14000 23.496
47.16000 16.822
47.18000 13.275
47.20000 14.903
47.22000 13.520
47.24000 13.466
47.26000 9.584
47.28000 15.294
47.30000 15.600
47.32000 12.234
47.34000 7.769
47.36000 11.265
47.38000 11.027
47.40000 10.625
47.42000 4.081
47.44000 3.656
47.46000 5.918
47.48000 5.271
47.50000 4.437
47.52000 4.840
47.54000 2.680
47.56000 3.613
47.58000 5.408
47.60000 -0.534
47.62000 -0.558
47.64000 3.405
47.66000 4.188
47.68000 0.590
47.70000 -0.278
47.72000 3.352
47.74000 4.281
47.76000 3.887
47.78000 4.338
47.80000 -1.847
47.82000 -2.167
47.84000 3.271
47.86000 0.423
47.88000 -2.811
47.90000 2.649
47.92000 2.879
47.94000 1.178
47.96000 4.036
47.98000 2.473
48.00000 5.031
48.02000 3.948
48.04000 2.793
48.06000 1.756
48.08000 2.387
48.10000 4.630
48.12000 2.537
48.14000 -0.862
48.16000 -2.764
48.18000 3.032
48.20000 4.304
48.22000 -0.448
48.24000 -0.858
48.26000 1.080
48.28000 1.358
48.30000 2.247
48.32000 0.764
48.34000 -2.096
48.36000 -0.502
48.38000 1.102
48.40000 1.377
48.42000 2.655
48.44000 1.025
48.46000 1.461
48.48000 2.262
48.50000 -2.713
48.52000 -0.303
48.54000 1.933
48.56000 3.297
48.58000 4.046
48.60000 -0.902
48.62000 0.320
48.64000 2.528
48.66000 0.582
48.68000 1.072
48.70000 2.743
48.72000 0.553
48.74000 -0.797
48.76000 0.904
48.78000 -0.107
48.80000 -1.833
48.82000 -1.648
48.84000 1.492
48.86000 3.479
48.88000 -0.489
48.90000 0.971
48.92000 2.969
48.94000 4.158
48.96000 0.974
48.98000 0.601
49.00000 2.603
49.02000 -0.316
49.04000 -1.928
49.06000 3.052
49.08000 5.620
49.10000 5.252
49.12000 2.356
49.14000 0.341
49.16000 1.929
49.18000 0.730
49.20000 0.914
49.22000 1.780
49.24000 0.683
49.26000 0.824
49.28000 -0.266
49.30000 -2.632
49.32000 -0.593
49.34000 3.429
49.36000 3.691
49.38000 5.929
49.40000 3.714
49.42000 5.514
49.44000 5.905
49.46000 1.830
49.48000 0.865
49.50000 0.665
49.52000 1.312
49.54000 0.471
49.56000 0.067
49.58000 2.010
49.60000 2.844
49.62000 3.484
49.64000 -0.115
49.66000 1.212
49.68000 2.542
49.70000 -0.837
49.72000 -0.900
49.74000 -1.478
49.76000 1.016
49.78000 4.933
49.80000 3.380
49.82000 1.043
49.84000 0.497
49.86000 -0.498
49.88000 -0.159
49.90000 0.956
49.92000 -2.615
49.94000 -2.404
49.96000 2.181
49.98000 1.962
50.00000 2.269
50.02000 3.531
50.04000 1.174
50.06000 -0.949
50.08000 1.533
50.10000 0.832
50.12000 -0.118
50.14000 -1.565
50.16000 -0.507
50.18000 3.500
50.20000 4.832
50.22000 7.146
50.24000 3.447
50.26000 -1.602
50.28000 -0.739
50.30000 -0.563
50.32000 -1.337
50.34000 -2.236
50.36000 -1.039
50.38000 1.221
50.40000 0.868
50.42000 -2.520
50.44000 -0.108
50.46000 3.360
50.48000 3.330
50.50000 -1.304
50.52000 -0.661
50.54000 1.638
50.56000 1.669
50.58000 1.135
50.60000 2.049
50.62000 0.865
50.64000 -0.553
50.66000 2.606
50.68000 4.481
50.70000 2.552
50.72000 1.347
50.74000 2.467
50.76000 -0.284
50.78000 2.073
50.80000 3.801
50.82000 1.746
50.84000 3.165
50.86000 6.783
50.88000 4.234
50.90000 0.958
50.92000 3.061
50.94000 2.952
50.96000 -2.558
50.98000 -0.167
51.00000 0.879
51.02000 1.228
51.04000 3.886
51.06000 1.411
51.08000 2.483
51.10000 0.344
51.12000 -0.664
51.14000 -0.904
51.16000 -1.698
51.18000 -2.535
51.20000 -0.922
51.22000 5.253
51.24000 2.506
51.26000 -1.011
51.28000 2.054
51.30000 1.383
51.32000 2.765
51.34000 1.070
51.36000 2.718
51.38000 1.505
51.40000 1.901
51.42000 1.900
51.44000 1.788
51.46000 4.273
51.48000 4.400
51.50000 1.729
51.52000 1.752
51.54000 1.767
51.56000 6.915
51.58000 3.500
51.60000 3.825
51.62000 3.880
51.64000 1.868
51.66000 1.607
51.68000 2.149
51.70000 -0.996
51.72000 0.353
51.74000 4.268
51.76000 4.731
51.78000 4.500
51.80000 6.811
51.82000 4.525
51.84000 4.427
51.86000 4.802
51.88000 7.140
51.90000 7.433
51.92000 3.123
51.94000 4.249
51.96000 6.433
51.98000 5.132
52.00000 4.327
52.02000 5.260
52.04000 4.305
52.06000 7.501
52.08000 3.494
52.10000 4.943
52.12000 -0.621
52.14000 1.653
52.16000 -2.480
52.18000 -1.906
52.20000 1.580
52.22000 8.188
52.24000 2.860
52.26000 1.134
52.28000 2.756
52.30000 6.573
52.32000 1.181
52.34000 -0.380
52.36000 6.879
52.38000 7.504
52.40000 4.433
52.42000 2.729
52.44000 2.749
52.46000 5.499
52.48000 0.870
52.50000 2.635
52.52000 4.562
52.54000 1.682
52.56000 0.229
52.58000 -2.434
52.60000 0.958
52.62000 -1.230
52.64000 -0.490
52.66000 3.612
52.68000 2.054
52.70000 2.631
52.72000 -0.880
52.74000 1.350
52.76000 2.720
52.78000 1.310
52.80000 4.166
52.82000 6.508
52.84000 4.123
52.86000 1.978
52.88000 8.150
52.90000 7.662
52.92000 6.606
52.94000 2.191
52.96000 4.360
52.98000 2.779
53.00000 0.544
53.02000 4.572
53.04000 5.481
53.06000 9.737
53.08000 6.178
53.10000 2.571
53.12000 5.215
53.14000 1.603
53.16000 -0.799
53.18000 2.094
53.20000 0.285
53.22000 3.608
53.24000 3.157
53.26000 1.436
53.28000 0.752
53.30000 2.501
53.32000 3.087
53.34000 -0.337
53.36000 -0.014
53.38000 0.679
53.40000 0.975
53.42000 -0.054
53.44000 1.660
53.46000 1.278
53.48000 2.749
53.50000 4.179
53.52000 4.315
53.54000 4.483
53.56000 5.227
53.58000 3.868
53.60000 4.559
53.62000 4.251
53.64000 2.656
53.66000 0.488
53.68000 -0.351
53.70000 -2.455
53.72000 2.306
53.74000 4.205
53.76000 0.009
53.78000 1.412
53.80000 3.522
53.82000 3.295
53.84000 4.331
53.86000 4.034
53.88000 0.054
53.90000 -2.408
53.92000 -1.635
53.94000 3.554
53.96000 4.170
53.98000 4.723
54.00000 3.262
54.02000 4.335
54.04000 1.511
54.06000 0.153
54.08000 4.489
54.10000 4.424
54.12000 6.040
54.14000 4.461
54.16000 2.372
54.18000 3.542
54.20000 2.664
54.22000 3.472
54.24000 2.540
54.26000 2.371
54.28000 1.018
54.30000 4.006
54.32000 5.625
54.34000 6.384
54.36000 2.291
54.38000 3.526
54.40000 3.462
54.42000 1.453
54.44000 3.229
54.46000 3.556
54.48000 2.999
54.50000 2.112
54.52000 4.066
54.54000 4.261
54.56000 2.703
54.58000 6.942
54.60000 3.600
54.62000 2.124
54.64000 -0.963
54.66000 -2.451
54.68000 -1.057
54.70000 3.076
54.72000 4.251
54.74000 1.512
54.76000 -0.201
54.78000 1.837
54.80000 3.897
54.82000 0.906
54.84000 2.333
54.86000 6.645
54.88000 1.603
54.90000 0.057
54.92000 1.453
54.94000 -0.362
54.96000 -0.929
54.98000 -0.960
55.00000 0.434
55.02000 0.243
55.04000 2.954
55.06000 4.195
55.08000 -1.683
55.10000 -1.674
55.12000 1.965
55.14000 3.474
55.16000 1.893
55.18000 -1.194
55.20000 -0.256
55.22000 -1.214
55.24000 -0.087
55.26000 5.077
55.28000 4.103
55.30000 0.626
55.32000 0.628
55.34000 -0.103
55.36000 1.203
55.38000 -0.685
55.40000 0.433
55.42000 0.630
55.44000 1.756
55.46000 -0.487
55.48000 -1.009
55.50000 -2.295
55.52000 3.740
55.54000 2.091
55.56000 2.456
55.58000 2.468
55.60000 2.608
55.62000 0.947
55.64000 -1.895
55.66000 3.193
55.68000 3.291
55.70000 4.466
55.72000 4.610
55.74000 0.976
55.76000 -1.088
55.78000 4.306
55.80000 5.491
55.82000 2.162
55.84000 -0.785
55.86000 -2.432
55.88000 0.133
55.90000 1.050
55.92000 3.992
55.94000 3.104
55.96000 1.184
55.98000 -0.642
56.00000 3.706
56.02000 3.267
56.04000 0.619
56.06000 2.431
56.08000 0.618
56.10000 4.117
56.12000 6.239
56.14000 5.257
56.16000 6.135
56.18000 0.447
56.20000 -2.331
56.22000 2.384
56.24000 3.238
56.26000 -2.405
56.28000 -0.387
56.30000 4.432
56.32000 2.001
56.34000 1.455
56.36000 1.266
56.38000 5.052
56.40000 2.166
56.42000 0.957
56.44000 0.962
56.46000 2.245
56.48000 2.182
56.50000 7.511
56.52000 5.813
56.54000 1.213
56.56000 -1.030
56.58000 1.618
56.60000 4.936
56.62000 1.006
56.64000 1.097
56.66000 3.291
56.68000 1.583
56.70000 3.805
56.72000 0.870
56.74000 1.165
56.76000 -1.584
56.78000 -0.018
56.80000 5.182
56.82000 3.091
56.84000 -0.344
56.86000 0.221
56.88000 2.483
56.90000 1.632
56.92000 -0.043
56.94000 -2.346
56.96000 0.497
56.98000 4.036
57.00000 5.805
57.02000 4.848
57.04000 2.515
57.06000 4.862
57.08000 3.721
57.10000 4.164
57.12000 6.557
57.14000 6.790
57.16000 5.750
57.18000 3.061
57.20000 -0.713
57.22000 -2.364
57.24000 1.543
57.26000 2.228
57.28000 0.306
57.30000 1.805
57.32000 2.548
57.34000 -1.977
57.36000 -0.804
57.38000 2.069
57.40000 2.952
57.42000 2.606
57.44000 -0.200
57.46000 3.216
57.48000 0.631
57.50000 3.667
57.52000 0.827
57.54000 0.595
57.56000 3.857
57.58000 5.358
57.60000 3.186
57.62000 2.000
57.64000 4.514
57.66000 3.619
57.68000 1.622
57.70000 -0.557
57.72000 1.629
57.74000 4.256
57.76000 3.046
57.78000 3.481
57.80000 2.630
57.82000 1.618
57.84000 5.005
57.86000 6.456
57.88000 2.665
57.90000 2.013
57.92000 2.574
57.94000 3.381
57.96000 -0.834
57.98000 -2.344
58.00000 0.511
58.02000 -0.507
58.04000 2.127
58.06000 2.512
58.08000 1.438
58.10000 0.490
58.12000 1.316
58.14000 4.239
58.16000 3.889
58.18000 3.750
58.20000 -0.546
58.22000 2.008
58.24000 3.987
58.26000 4.971
58.28000 0.897
58.30000 0.798
58.32000 3.185
58.34000 7.324
58.36000 4.638
58.38000 0.901
58.40000 1.126
58.42000 2.853
58.44000 2.506
58.46000 0.345
58.48000 0.552
58.50000 1.997
58.52000 5.286
58.54000 4.489
58.56000 4.621
58.58000 4.488
58.60000 0.849
58.62000 0.884
58.64000 0.558
58.66000 0.848
58.68000 1.060
58.70000 -1.038
58.72000 2.698
58.74000 1.241
58.76000 3.920
58.78000 5.736
58.80000 4.737
58.82000 1.827
58.84000 1.656
58.86000 3.430
58.88000 2.565
58.90000 -1.270
58.92000 0.811
58.94000 3.266
58.96000 5.747
58.98000 5.048
59.00000 1.886
59.02000 3.297
59.04000 4.156
59.06000 3.966
59.08000 3.738
59.10000 2.700
59.12000 -1.075
59.14000 0.829
59.16000 1.506
59.18000 2.204
59.20000 0.375
59.22000 -2.322
59.24000 -1.810
59.26000 -1.792
59.28000 -1.527
59.30000 -0.787
59.32000 -0.280
59.34000 -0.864
59.36000 2.388
59.38000 2.171
59.40000 0.525
59.42000 2.238
59.44000 -0.104
59.46000 0.127
59.48000 0.009
59.50000 3.521
59.52000 3.509
59.54000 1.539
59.56000 1.270
59.58000 0.076
59.60000 2.306
59.62000 1.134
59.64000 2.808
59.66000 5.587
59.68000 4.018
59.70000 4.860
59.72000 1.034
59.74000 -0.640
59.76000 -0.072
59.78000 2.503
59.80000 0.580
59.82000 -2.305
59.84000 1.450
59.86000 3.448
59.88000 4.378
59.90000 1.214
59.92000 0.483
59.94000 2.522
59.96000 2.505
59.98000 1.534
60.00000 3.595
60.02000 4.763
60.04000 5.294
60.06000 3.944
60.08000 2.424
60.10000 1.957
60.12000 1.488
60.14000 0.195
60.16000 -1.682
60.18000 -2.298
60.20000 3.027
60.22000 2.246
60.24000 3.521
60.26000 1.515
60.28000 0.396
60.30000 -0.349
60.32000 -1.197
60.34000 1.102
60.36000 2.834
60.38000 -0.043
60.40000 2.739
60.42000 1.090
60.44000 1.091
60.46000 -1.027
60.48000 1.579
60.50000 3.655
60.52000 2.726
60.54000 7.648
60.56000 5.368
60.58000 2.487
60.60000 0.836
60.62000 1.939
60.64000 2.378
60.66000 3.018
60.68000 3.071
60.70000 -2.179
60.72000 0.096
60.74000 1.564
60.76000 -1.560
60.78000 -1.036
60.80000 -1.030
60.82000 1.960
60.84000 4.112
60.86000 3.184
60.88000 4.049
60.90000 4.859
60.92000 -0.640
60.94000 1.369
60.96000 0.149
60.98000 0.899
61.00000 0.593
61.02000 0.628
61.04000 2.975
61.06000 2.205
61.08000 1.894
61.10000 2.885
61.12000 2.796
61.14000 3.036
61.16000 1.717
61.18000 0.945
61.20000 -1.190
61.22000 2.237
61.24000 4.021
61.26000 5.032
61.28000 2.364
61.30000 2.752
61.32000 4.203
61.34000 1.458
61.36000 3.095
61.38000 3.850
61.40000 4.929
61.42000 1.859
61.44000 4.175
61.46000 8.106
61.48000 4.624
61.50000 3.842
61.52000 3.585
61.54000 3.334
61.56000 4.427
61.58000 6.094
61.60000 0.048
61.62000 -2.211
61.64000 2.467
61.66000 4.147
61.68000 4.538
61.70000 2.673
61.72000 4.831
61.74000 2.446
61.76000 3.626
61.78000 3.506
61.80000 2.540
61.82000 1.091
61.84000 0.426
61.86000 1.698
61.88000 2.039
61.90000 3.905
61.92000 2.251
61.94000 -0.962
61.96000 -0.820
61.98000 1.716
62.00000 2.931
62.02000 5.469
62.04000 4.471
62.06000 2.042
62.08000 0.851
62.10000 2.524
62.12000 4.949
62.14000 3.979
62.16000 4.011
62.18000 2.385
62.20000 4.583
62.22000 5.536
62.24000 7.807
62.26000 2.961
62.28000 1.656
62.30000 2.399
62.32000 1.049
62.34000 0.840
62.36000 2.846
62.38000 6.877
62.40000 3.996
62.42000 2.328
62.44000 0.271
62.46000 2.025
62.48000 2.542
62.50000 0.112
62.52000 1.423
62.54000 1.417
62.56000 0.016
62.58000 2.350
62.60000 2.427
62.62000 1.352
62.64000 2.748
62.66000 3.907
62.68000 5.239
62.70000 5.407
62.72000 3.137
62.74000 6.747
62.76000 6.349
62.78000 1.860
62.80000 1.968
62.82000 4.373
62.84000 4.780
62.86000 3.505
62.88000 4.646
62.90000 0.477
62.92000 -2.201
62.94000 -0.363
62.96000 1.472
62.98000 2.447
63.00000 2.518
63.02000 1.112
63.04000 3.693
63.06000 2.150
63.08000 1.061
63.10000 4.365
63.12000 2.652
63.14000 4.087
63.16000 2.604
63.18000 0.718
63.20000 0.549
63.22000 1.928
63.24000 0.281
63.26000 3.291
63.28000 -0.673
63.30000 -1.423
63.32000 1.002
63.34000 1.598
63.36000 -1.132
63.38000 -0.016
63.40000 1.780
63.42000 2.364
63.44000 2.457
63.46000 3.058
63.48000 2.848
63.50000 0.643
63.52000 0.767
63.54000 -0.883
63.56000 -0.931
63.58000 0.300
63.60000 2.641
63.62000 1.542
63.64000 0.756
63.66000 -0.378
63.68000 0.850
63.70000 0.465
63.72000 -1.462
63.74000 -1.249
63.76000 0.494
63.78000 0.837
63.80000 3.380
63.82000 3.926
63.84000 0.581
63.86000 2.602
63.88000 2.667
63.90000 0.475
63.92000 -2.243
63.94000 -0.331
63.96000 1.164
63.98000 1.365
64.00000 3.607
64.02000 -0.679
64.04000 1.547
64.06000 1.375
64.08000 0.083
64.10000 0.885
64.12000 0.147
64.14000 1.254
64.16000 0.152
64.18000 -0.757
64.20000 -0.457
64.22000 0.898
64.24000 0.725
64.26000 -2.242
64.28000 0.566
64.30000 -0.544
64.32000 0.853
64.34000 -0.578
64.36000 -1.775
64.38000 -1.532
64.40000 -0.333
64.42000 2.098
64.44000 2.867
64.46000 4.062
64.48000 0.361
64.50000 -1.267
64.52000 -1.883
64.54000 0.931
64.56000 -1.583
64.58000 -0.004
64.60000 1.719
64.62000 0.984
64.64000 0.848
64.66000 0.513
64.68000 -0.893
64.70000 -0.330
64.72000 1.299
64.74000 0.508
64.76000 0.739
64.78000 -2.245
64.80000 -0.739
64.82000 0.833
64.84000 1.083
64.86000 2.725
64.88000 0.396
64.90000 1.255
64.92000 -1.815
64.94000 -0.780
64.96000 3.237
64.98000 2.353
65.00000 0.293
65.02000 0.456
65.04000 -1.008
65.06000 0.003
65.08000 2.559
65.10000 3.285
65.12000 2.913
65.14000 2.484
65.16000 1.982
65.18000 -0.861
65.20000 -1.565
65.22000 -0.763
65.24000 -0.972
65.26000 0.363
65.28000 0.536
65.30000 3.632
65.32000 4.341
65.34000 -0.556
65.36000 -0.526
65.38000 1.004
65.40000 0.535
65.42000 -0.220
65.44000 0.994
65.46000 0.819
65.48000 1.062
65.50000 0.013
65.52000 -1.028
65.54000 -2.210
65.56000 0.037
65.58000 0.573
65.60000 2.474
65.62000 2.785
65.64000 2.730
65.66000 3.681
65.68000 2.086
65.70000 1.948
65.72000 3.063
65.74000 4.732
65.76000 3.605
65.78000 2.074
65.80000 0.447
65.82000 2.838
65.84000 3.302
65.86000 2.551
65.88000 2.895
65.90000 3.599
65.92000 -0.567
65.94000 -1.297
65.96000 0.191
65.98000 -2.225
66.00000 -0.183
66.02000 0.386
66.04000 0.797
66.06000 -0.607
66.08000 0.640
66.10000 1.989
66.12000 1.809
66.14000 1.730
66.16000 2.832
66.18000 0.519
66.20000 -0.123
66.22000 2.464
66.24000 -0.360
66.26000 0.503
66.28000 1.189
66.30000 2.128
66.32000 1.777
66.34000 1.858
66.36000 3.847
66.38000 3.710
66.40000 2.884
66.42000 0.354
66.44000 0.582
66.46000 0.682
66.48000 3.094
66.50000 2.174
66.52000 -1.175
66.54000 -2.240
66.56000 0.314
66.58000 4.786
66.60000 2.581
66.62000 0.297
66.64000 3.711
66.66000 4.041
66.68000 3.863
66.70000 2.479
66.72000 3.775
66.74000 4.681
66.76000 3.910
66.78000 3.682
66.80000 5.944
66.82000 5.421
66.84000 5.019
66.86000 6.113
66.88000 6.578
66.90000 6.571
66.92000 5.542
66.94000 5.013
66.96000 6.869
66.98000 3.310
67.00000 4.223
67.02000 5.909
67.04000 8.824
67.06000 10.279
67.08000 7.714
67.10000 4.927
67.12000 6.932
67.14000 10.113
67.16000 10.014
67.18000 9.788
67.20000 10.201
67.22000 11.891
67.24000 14.258
67.26000 10.542
67.28000 9.096
67.30000 12.004
67.32000 10.424
67.34000 13.134
67.36000 12.953
67.38000 13.647
67.40000 15.351
67.42000 12.489
67.44000 11.664
67.46000 10.684
67.48000 11.148
67.50000 13.252
67.52000 13.130
67.54000 11.811
67.56000 11.584
67.58000 10.528
67.60000 11.591
67.62000 13.310
67.64000 13.913
67.66000 13.531
67.68000 13.750
67.70000 11.808
67.72000 14.130
67.74000 12.082
67.76000 12.184
67.78000 14.962
67.80000 13.580
67.82000 13.397
67.84000 13.583
67.86000 12.127
67.88000 10.576
67.90000 10.272
67.92000 7.200
67.94000 10.655
67.96000 9.701
67.98000 7.778
68.00000 7.634
68.02000 5.474
68.04000 3.724
68.06000 5.444
68.08000 6.588
68.10000 4.823
68.12000 5.712
68.14000 6.425
68.16000 4.736
68.18000 6.046
68.20000 6.506
68.22000 6.542
68.24000 4.264
68.26000 2.787
68.28000 3.173
68.30000 3.809
68.32000 2.519
68.34000 2.977
68.36000 2.385
68.38000 0.217
68.40000 0.668
68.42000 -0.208
68.44000 1.549
68.46000 -1.115
68.48000 -0.185
68.50000 2.126
68.52000 0.861
68.54000 1.449
68.56000 1.297
68.58000 3.440
68.60000 1.890
68.62000 2.824
68.64000 2.986
68.66000 1.260
68.68000 2.838
68.70000 2.497
68.72000 2.751
68.74000 0.796
68.76000 -0.752
68.78000 0.356
68.80000 1.699
68.82000 0.440
68.84000 0.281
68.86000 0.352
68.88000 0.799
68.90000 1.759
68.92000 2.786
68.94000 3.197
68.96000 1.057
68.98000 0.156
69.00000 0.867
69.02000 -0.348
69.04000 -1.667
69.06000 2.404
69.08000 2.684
69.10000 -2.105
69.12000 -0.501
69.14000 -0.164
69.16000 0.361
69.18000 0.147
69.20000 -0.489
69.22000 -1.601
69.24000 0.337
69.26000 0.609
69.28000 -0.543
69.30000 -1.750
69.32000 -1.443
69.34000 -0.409
69.36000 1.281
69.38000 -0.109
69.40000 -1.238
69.42000 -0.362
69.44000 -0.476
69.46000 2.324
69.48000 1.918
69.50000 0.802
69.52000 1.600
69.54000 3.276
69.56000 1.761
69.58000 2.155
69.60000 1.673
69.62000 3.314
69.64000 1.869
69.66000 1.675
69.68000 2.865
69.70000 -2.043
69.72000 -0.724
69.74000 1.678
69.76000 4.972
69.78000 2.554
69.80000 3.108
69.82000 2.068
69.84000 2.903
69.86000 0.401
69.88000 -1.876
69.90000 1.026
69.92000 1.494
69.94000 3.930
69.96000 3.360
69.98000 2.818
70.00000 0.433
70.02000 -1.251
70.04000 0.276
70.06000 4.888
70.08000 4.802
70.10000 1.417
70.12000 -0.018
70.14000 -0.920
70.16000 1.868
70.18000 2.501
70.20000 -0.019
70.22000 -2.008
70.24000 -0.958
70.26000 0.732
70.28000 1.314
70.30000 3.267
70.32000 2.894
70.34000 3.203
70.36000 3.712
70.38000 3.118
70.40000 3.046
70.42000 2.294
70.44000 2.983
70.46000 -0.230
70.48000 0.803
70.50000 2.025
70.52000 2.554
70.54000 0.828
70.56000 4.067
70.58000 5.722
70.60000 1.753
70.62000 -0.103
70.64000 2.176
70.66000 0.537
70.68000 2.404
70.70000 4.172
70.72000 2.752
70.74000 0.314
70.76000 -1.240
70.78000 -1.988
70.80000 -0.281
70.82000 0.083
70.84000 0.989
70.86000 0.933
70.88000 2.816
70.90000 3.286
70.92000 0.540
70.94000 1.999
70.96000 2.923
70.98000 2.525
71.00000 2.953
71.02000 1.821
71.04000 4.464
71.06000 3.781
71.08000 1.560
71.10000 1.292
71.12000 0.309
71.14000 0.589
71.16000 2.339
71.18000 1.838
71.20000 1.707
71.22000 1.252
71.24000 4.239
71.26000 3.916
71.28000 1.749
71.30000 2.084
71.32000 -1.074
71.34000 0.216
71.36000 2.743
71.38000 2.316
71.40000 2.154
71.42000 -1.967
71.44000 0.731
71.46000 4.241
71.48000 3.985
71.50000 3.634
71.52000 1.117
71.54000 -0.537
71.56000 -1.143
71.58000 0.196
71.60000 0.265
71.62000 0.777
71.64000 2.303
71.66000 1.561
71.68000 4.181
71.70000 5.085
71.72000 0.680
71.74000 0.622
71.76000 -1.209
71.78000 -0.997
71.80000 -1.964
71.82000 0.923
71.84000 0.499
71.86000 -0.714
71.88000 -0.147
71.90000 -0.341
71.92000 2.313
71.94000 2.920
71.96000 0.357
71.98000 1.557
72.00000 4.319
72.02000 2.499
72.04000 -0.261
72.06000 -0.506
72.08000 0.533
72.10000 -0.484
72.12000 0.514
72.14000 0.457
72.16000 -0.578
72.18000 2.380
72.20000 -0.677
72.22000 -0.804
72.24000 -0.488
72.26000 1.398
72.28000 -0.306
72.30000 -0.315
72.32000 0.259
72.34000 1.710
72.36000 -0.618
72.38000 -1.960
72.40000 1.303
72.42000 -0.782
72.44000 0.906
72.46000 0.533
72.48000 2.308
72.50000 2.762
72.52000 2.099
72.54000 0.571
72.56000 0.674
72.58000 0.720
72.60000 1.557
72.62000 1.023
72.64000 2.431
72.66000 3.223
72.68000 2.285
72.70000 1.793
72.72000 4.951
72.74000 2.698
72.76000 0.005
72.78000 0.091
72.80000 0.023
72.82000 -0.663
72.84000 -0.871
72.86000 -0.566
72.88000 0.554
72.90000 3.252
72.92000 2.974
72.94000 1.262
72.96000 1.760
72.98000 3.762
73.00000 2.538
73.02000 1.219
73.04000 3.203
73.06000 1.118
73.08000 2.273
73.10000 3.664
73.12000 0.412
73.14000 1.573
73.16000 2.101
73.18000 0.570
73.20000 1.519
73.22000 -1.425
73.24000 -1.161
73.26000 -1.927
73.28000 1.199
73.30000 2.849
73.32000 1.785
73.34000 -1.188
73.36000 -0.301
73.38000 3.007
73.40000 0.604
73.42000 1.655
73.44000 -1.075
73.46000 0.910
73.48000 2.737
73.50000 0.127
73.52000 1.594
73.54000 2.252
73.56000 0.261
73.58000 -0.870
73.60000 3.396
73.62000 3.625
73.64000 3.774
73.66000 3.152
73.68000 1.271
73.70000 -0.674
73.72000 -1.902
73.74000 1.186
73.76000 2.133
73.78000 0.265
73.80000 3.920
73.82000 3.637
73.84000 1.758
73.86000 2.022
73.88000 2.183
73.90000 5.507
73.92000 1.595
73.94000 0.176
73.96000 -1.392
73.98000 -1.884
74.00000 3.200
74.02000 2.070
74.04000 4.644
74.06000 4.083
74.08000 5.027
74.10000 5.112
74.12000 5.239
74.14000 3.169
74.16000 1.493
74.18000 0.519
74.20000 2.236
74.22000 2.823
74.24000 4.197
74.26000 1.125
74.28000 2.259
74.30000 1.257
74.32000 2.095
74.34000 4.899
74.36000 6.086
74.38000 4.117
74.40000 1.013
74.42000 2.212
74.44000 1.842
74.46000 2.381
74.48000 4.132
74.50000 4.117
74.52000 3.278
74.54000 2.458
74.56000 0.066
74.58000 1.427
74.60000 -1.215
74.62000 -0.526
74.64000 -0.525
74.66000 3.303
74.68000 5.300
74.70000 4.342
74.72000 2.031
74.74000 2.671
74.76000 2.766
74.78000 1.161
74.80000 0.297
74.82000 -1.907
74.84000 -0.700
74.86000 1.559
74.88000 5.417
74.90000 5.912
74.92000 2.915
74.94000 2.398
74.96000 1.153
74.98000 0.131
75.00000 0.161
75.02000 0.319
75.04000 2.083
75.06000 1.498
75.08000 -1.266
75.10000 0.035
75.12000 -0.048
75.14000 0.300
75.16000 0.266
75.18000 0.405
75.20000 1.090
75.22000 1.433
75.24000 3.542
75.26000 3.104
75.28000 3.700
75.30000 0.063
75.32000 0.261
75.34000 -0.964
75.36000 -0.107
75.38000 -0.171
75.40000 3.263
75.42000 3.694
75.44000 2.688
75.46000 -1.282
75.48000 0.339
75.50000 1.542
75.52000 0.083
75.54000 0.341
75.56000 1.484
75.58000 2.816
75.60000 4.957
75.62000 -0.145
75.64000 1.368
75.66000 3.042
75.68000 -0.666
75.70000 -0.025
75.72000 2.630
75.74000 1.387
75.76000 1.170
75.78000 1.251
75.80000 0.400
75.82000 -0.640
75.84000 -1.937
75.86000 -1.012
75.88000 0.403
75.90000 2.491
75.92000 -0.563
75.94000 0.629
75.96000 1.364
75.98000 2.966
76.00000 2.180
76.02000 2.832
76.04000 1.993
76.06000 2.094
76.08000 2.402
76.10000 1.926
76.12000 0.008
76.14000 0.960
76.16000 -0.715
76.18000 -0.793
76.20000 0.840
76.22000 3.871
76.24000 2.998
76.26000 3.837
76.28000 3.455
76.30000 1.129
76.32000 -0.188
76.34000 0.127
76.36000 -1.920
76.38000 -0.224
76.40000 2.453
76.42000 1.067
76.44000 2.133
76.46000 1.321
76.48000 0.979
76.50000 2.390
76.52000 3.214
76.54000 0.877
76.56000 3.409
76.58000 1.288
76.60000 -0.695
76.62000 3.822
76.64000 1.889
76.66000 0.813
76.68000 4.013
76.70000 4.333
76.72000 5.749
76.74000 2.654
76.76000 0.423
76.78000 -0.622
76.80000 0.919
76.82000 3.971
76.84000 2.310
76.86000 0.636
76.88000 -0.924
76.90000 2.053
76.92000 0.796
76.94000 0.378
76.96000 1.442
76.98000 3.511
77.00000 1.065
77.02000 -1.882
77.04000 -1.137
77.06000 -0.151
77.08000 -1.388
77.10000 0.561
77.12000 2.351
77.14000 -0.933
77.16000 1.124
77.18000 2.445
77.20000 2.021
77.22000 0.948
77.24000 2.458
77.26000 2.919
77.28000 -0.733
77.30000 3.078
77.32000 4.277
77.34000 3.334
77.36000 1.692
77.38000 3.897
77.40000 2.187
77.42000 3.414
77.44000 3.556
77.46000 4.248
77.48000 1.242
77.50000 2.825
77.52000 -0.714
77.54000 0.089
77.56000 0.628
77.58000 2.226
77.60000 -1.926
77.62000 -0.238
77.64000 4.060
77.66000 2.858
77.68000 0.525
77.70000 -0.142
77.72000 1.809
77.74000 3.156
77.76000 0.564
77.78000 1.571
77.80000 6.606
77.82000 4.486
77.84000 1.534
77.86000 5.064
77.88000 5.523
77.90000 5.390
77.92000 3.772
77.94000 0.483
77.96000 -0.171
77.98000 0.835
78.00000 4.852
78.02000 3.013
78.04000 -0.026
78.06000 1.722
78.08000 3.241
78.10000 3.785
78.12000 -0.526
78.14000 -0.528
78.16000 0.595
78.18000 -1.762
78.20000 2.067
78.22000 2.555
78.24000 0.122
78.26000 -0.115
78.28000 -1.149
78.30000 -1.768
78.32000 -0.455
78.34000 0.330
78.36000 1.601
78.38000 2.413
78.40000 1.771
78.42000 -1.626
78.44000 -1.986
78.46000 -1.592
78.48000 0.027
78.50000 -0.073
78.52000 2.702
78.54000 1.029
78.56000 -1.263
78.58000 0.386
78.60000 2.220
78.62000 2.573
78.64000 3.469
78.66000 -0.492
78.68000 0.191
78.70000 1.306
78.72000 1.961
78.74000 0.487
78.76000 -1.226
78.78000 -0.785
78.80000 -1.143
78.82000 0.957
78.84000 -0.086
78.86000 -0.980
78.88000 -0.967
78.90000 0.425
78.92000 1.898
78.94000 2.295
78.96000 0.608
78.98000 1.725
79.00000 1.247
79.02000 1.621
79.04000 1.329
79.06000 3.108
79.08000 1.203
79.10000 3.100
79.12000 2.562
79.14000 1.104
79.16000 0.213
79.18000 0.878
79.20000 -0.999
79.22000 2.505
79.24000 0.346
79.26000 1.566
79.28000 4.313
79.30000 1.150
79.32000 -0.086
79.34000 -0.027
79.36000 -0.468
79.38000 0.425
79.40000 3.263
79.42000 -0.831
79.44000 -2.038
79.46000 0.629
79.48000 -1.307
79.50000 -1.827
79.52000 1.915
79.54000 -1.466
79.56000 0.860
79.58000 3.272
79.60000 4.215
79.62000 1.455
79.64000 0.883
79.66000 -1.541
79.68000 1.247
79.70000 -0.319
79.72000 -1.012
79.74000 1.394
79.76000 3.781
79.78000 3.390
79.80000 0.995
79.82000 -0.453
79.84000 3.404
79.86000 6.176
79.88000 3.873
79.90000 3.563
79.92000 2.380
79.94000 5.282
79.96000 4.387
79.98000 0.485
80.00000 3.907
80.02000 3.607
80.04000 3.704
80.06000 4.244
80.08000 1.498
80.10000 0.775
80.12000 2.983
80.14000 1.892
80.16000 -2.080
80.18000 3.558
80.20000 3.453
80.22000 3.760
80.24000 4.084
80.26000 1.765
80.28000 4.353
80.30000 3.530
80.32000 0.778
80.34000 2.008
80.36000 5.495
80.38000 5.498
80.40000 4.237
80.42000 -0.144
80.44000 -0.198
80.46000 4.505
80.48000 3.382
80.50000 1.384
80.52000 5.796
80.54000 7.292
80.56000 7.969
80.58000 8.428
80.60000 7.854
80.62000 5.383
80.64000 8.847
80.66000 11.517
80.68000 12.736
80.70000 11.006
80.72000 9.927
80.74000 10.601
80.76000 7.219
80.78000 7.829
80.80000 12.831
80.82000 11.815
80.84000 11.664
80.86000 9.766
80.88000 11.583
80.90000 12.139
80.92000 13.672
80.94000 16.395
80.96000 16.373
80.98000 14.310
81.00000 15.697
81.02000 13.236
81.04000 15.874
81.06000 16.432
81.08000 16.325
81.10000 14.964
81.12000 11.278
81.14000 12.942
81.16000 15.243
81.18000 17.979
81.20000 17.550
81.22000 18.148
81.24000 17.483
81.26000 15.246
81.28000 15.744
81.30000 16.412
81.32000 19.434
81.34000 17.523
81.36000 18.120
81.38000 19.450
81.40000 18.287
81.42000 20.083
81.44000 15.516
81.46000 18.170
81.48000 20.921
81.50000 22.696
81.52000 21.305
81.54000 21.166
81.56000 19.920
81.58000 18.963
81.60000 21.669
81.62000 23.609
81.64000 22.388
81.66000 17.863
81.68000 19.568
81.70000 22.932
81.72000 19.943
81.74000 19.608
81.76000 20.182
81.78000 18.700
81.80000 22.112
81.82000 17.772
81.84000 14.644
81.86000 16.909
81.88000 16.556
81.90000 16.248
81.92000 15.767
81.94000 18.540
81.96000 14.229
81.98000 12.362
82.00000 12.223
82.02000 14.736
82.04000 11.834
82.06000 12.618
82.08000 13.137
82.10000 11.974
82.12000 9.705
82.14000 9.978
82.16000 11.546
82.18000 8.391
82.20000 8.636
82.22000 7.775
82.24000 9.726
82.26000 10.225
82.28000 9.694
82.30000 7.982
82.32000 7.909
82.34000 5.920
82.36000 3.661
82.38000 8.033
82.40000 8.347
82.42000 9.168
82.44000 6.306
82.46000 7.759
82.48000 7.105
82.50000 3.061
82.52000 1.769
82.54000 5.048
82.56000 4.093
82.58000 1.748
82.60000 0.933
82.62000 2.030
82.64000 3.253
82.66000 4.700
82.68000 3.538
82.70000 2.840
82.72000 2.124
82.74000 2.125
82.76000 -0.009
82.78000 -2.133
82.80000 1.740
82.82000 3.715
82.84000 1.959
82.86000 0.759
82.88000 1.363
82.90000 0.494
82.92000 2.277
82.94000 2.886
82.96000 0.880
82.98000 1.306
83.00000 1.052
83.02000 1.014
83.04000 1.420
83.06000 0.806
83.08000 0.586
83.10000 2.013
83.12000 2.673
83.14000 1.256
83.16000 1.343
83.18000 1.456
83.20000 0.881
83.22000 1.506
83.24000 3.008
83.26000 1.689
83.28000 2.040
83.30000 2.233
83.32000 1.362
83.34000 -0.888
83.36000 0.191
83.38000 -0.221
83.40000 -1.307
83.42000 1.979
83.44000 2.622
83.46000 4.583
83.48000 2.012
83.50000 2.653
83.52000 0.795
83.54000 2.573
83.56000 -0.791
83.58000 -2.042
83.60000 0.404
83.62000 2.055
83.64000 2.240
83.66000 1.580
83.68000 -0.274
83.70000 2.514
83.72000 -0.427
83.74000 2.119
83.76000 3.450
83.78000 1.250
83.80000 1.160
83.82000 2.945
83.84000 1.921
83.86000 -0.005
83.88000 0.618
83.90000 3.329
83.92000 5.027
83.94000 -0.449
83.96000 0.570
83.98000 0.618
84.00000 0.810
84.02000 0.288
84.04000 2.060
84.06000 0.419
84.08000 -1.504
84.10000 1.990
84.12000 -0.634
84.14000 -0.300
84.16000 -0.350
84.18000 4.745
84.20000 2.225
84.22000 1.869
84.24000 5.806
84.26000 2.772
84.28000 -0.797
84.30000 2.723
84.32000 5.860
84.34000 2.077
84.36000 1.367
84.38000 1.515
84.40000 -0.443
84.42000 0.256
84.44000 2.721
84.46000 2.534
84.48000 0.401
84.50000 4.038
84.52000 2.611
84.54000 3.740
84.56000 5.518
84.58000 5.512
84.60000 2.877
84.62000 2.320
84.64000 5.373
84.66000 5.519
84.68000 6.025
84.70000 5.632
84.72000 9.032
84.74000 5.674
84.76000 8.002
84.78000 7.336
84.80000 1.056
84.82000 2.566
84.84000 6.401
84.86000 5.946
84.88000 6.604
84.90000 6.945
84.92000 8.611
84.94000 8.992
84.96000 12.785
84.98000 14.888
85.00000 14.705
85.02000 12.526
85.04000 14.019
85.06000 13.977
85.08000 13.960
85.10000 12.947
85.12000 11.087
85.14000 12.115
85.16000 13.189
85.18000 11.980
85.20000 15.279
85.22000 20.536
85.24000 19.100
85.26000 15.442
85.28000 16.759
85.30000 16.428
85.32000 20.354
85.34000 17.321
85.36000 19.183
85.38000 16.060
85.40000 13.905
85.42000 16.907
85.44000 20.161
85.46000 19.016
85.48000 18.190
85.50000 20.444
85.52000 19.607
85.54000 16.248
85.56000 16.927
85.58000 17.817
85.60000 17.085
85.62000 18.453
85.64000 18.367
85.66000 17.961
85.68000 18.668
85.70000 20.636
85.72000 15.112
85.74000 10.883
85.76000 13.847
85.78000 20.983
85.80000 17.317
85.82000 15.046
85.84000 14.755
85.86000 13.875
85.88000 13.349
85.90000 11.835
85.92000 9.387
85.94000 9.959
85.96000 10.767
85.98000 11.095
86.00000 11.868
86.02000 11.708
86.04000 9.862
86.06000 9.454
86.08000 9.995
86.10000 14.046
86.12000 13.190
86.14000 9.917
86.16000 9.362
86.18000 9.945
86.20000 8.773
86.22000 10.709
86.24000 9.495
86.26000 6.586
86.28000 3.212
86.30000 3.745
86.32000 4.620
86.34000 6.464
86.36000 5.729
86.38000 3.555
86.40000 3.367
86.42000 2.489
86.44000 1.677
86.46000 1.868
86.48000 3.388
86.50000 4.164
86.52000 0.983
86.54000 -0.933
86.56000 0.472
86.58000 2.581
86.60000 2.688
86.62000 2.203
86.64000 4.435
86.66000 1.549
86.68000 2.038
86.70000 0.734
86.72000 3.083
86.74000 3.579
86.76000 0.224
86.78000 -0.026
86.80000 1.367
86.82000 -0.351
86.84000 -1.851
86.86000 -1.246
86.88000 1.088
86.90000 -0.240
86.92000 -0.546
86.94000 0.649
86.96000 0.252
86.98000 0.234
87.00000 0.119
87.02000 0.145
87.04000 -1.506
87.06000 -0.168
87.08000 0.871
87.10000 0.764
87.12000 1.148
87.14000 -0.265
87.16000 1.007
87.18000 0.228
87.20000 0.953
87.22000 1.097
87.24000 -1.138
87.26000 -1.454
87.28000 -0.254
87.30000 -0.339
87.32000 2.847
87.34000 3.269
87.36000 0.637
87.38000 -1.885
87.40000 -0.632
87.42000 2.241
87.44000 3.221
87.46000 4.118
87.48000 0.698
87.50000 -1.744
87.52000 0.355
87.54000 -1.852
87.56000 0.409
87.58000 1.729
87.60000 1.921
87.62000 0.318
87.64000 0.988
87.66000 0.799
87.68000 1.564
87.70000 1.815
87.72000 4.702
87.74000 3.502
87.76000 1.905
87.78000 2.562
87.80000 0.369
87.82000 -0.459
87.84000 2.220
87.86000 -0.886
87.88000 1.132
87.90000 1.167
87.92000 4.967
87.94000 0.602
87.96000 2.087
87.98000 2.507
88.00000 1.916
88.02000 0.441
88.04000 -0.121
88.06000 2.240
88.08000 4.707
88.10000 3.728
88.12000 2.387
88.14000 1.812
88.16000 2.509
88.18000 -1.797
88.20000 1.031
88.22000 2.148
88.24000 3.450
88.26000 3.683
88.28000 2.999
88.30000 2.619
88.32000 2.556
88.34000 0.422
88.36000 -0.567
88.38000 2.649
88.40000 3.993
88.42000 3.488
88.44000 1.953
88.46000 2.415
88.48000 3.738
88.50000 4.641
88.52000 2.107
88.54000 0.920
88.56000 1.324
88.58000 2.245
88.60000 6.037
88.62000 1.303
88.64000 0.693
88.66000 -0.897
88.68000 2.602
88.70000 4.055
88.72000 2.913
88.74000 -1.786
88.76000 0.914
88.78000 4.170
88.80000 4.878
88.82000 3.832
88.84000 3.444
88.86000 4.135
88.88000 3.618
88.90000 0.214
88.92000 -0.989
88.94000 -0.189
88.96000 -0.967
88.98000 0.532
89.00000 1.565
89.02000 2.298
89.04000 2.427
89.06000 1.154
89.08000 -0.293
89.10000 1.590
89.12000 2.653
89.14000 0.816
89.16000 0.765
89.18000 0.526
89.20000 1.484
89.22000 2.080
89.24000 1.265
89.26000 3.048
89.28000 3.548
89.30000 5.882
89.32000 3.320
89.34000 0.597
89.36000 -0.240
89.38000 -0.676
89.40000 2.551
89.42000 1.368
89.44000 1.475
89.46000 2.220
89.48000 3.047
89.50000 1.846
89.52000 2.800
89.54000 2.985
89.56000 1.580
89.58000 0.367
89.60000 0.982
89.62000 0.867
89.64000 1.664
89.66000 1.218
89.68000 0.723
89.70000 3.059
89.72000 1.678
89.74000 -0.672
89.76000 0.312
89.78000 0.528
89.80000 0.973
89.82000 4.473
89.84000 -0.128
89.86000 0.808
89.88000 3.397
89.90000 -0.392
89.92000 -0.931
89.94000 -0.878
89.96000 0.459
89.98000 2.998
90.00000 4.061
90.02000 4.040
90.04000 3.509
90.06000 1.121
90.08000 1.804
90.10000 3.590
90.12000 0.740
90.14000 3.182
90.16000 0.342
90.18000 1.583
90.20000 2.613
90.22000 4.470
90.24000 2.062
90.26000 -0.674
90.28000 2.442
90.30000 6.644
90.32000 4.534
90.34000 1.614
90.36000 6.040
90.38000 5.750
90.40000 2.318
90.42000 1.336
90.44000 1.931
90.46000 3.402
90.48000 2.803
90.50000 4.764
90.52000 5.128
90.54000 4.222
90.56000 3.460
90.58000 4.155
90.60000 3.178
90.62000 3.165
90.64000 6.695
90.66000 6.093
90.68000 2.979
90.70000 -1.754
90.72000 1.234
90.74000 3.931
90.76000 4.407
90.78000 4.638
90.80000 2.870
90.82000 2.623
90.84000 1.133
90.86000 4.430
90.88000 4.342
90.90000 2.194
90.92000 1.050
90.94000 2.311
90.96000 3.393
90.98000 4.098
91.00000 1.950
91.02000 2.414
91.04000 1.562
91.06000 3.562
91.08000 2.668
91.10000 1.303
91.12000 4.846
91.14000 4.711
91.16000 1.572
91.18000 1.753
91.20000 2.933
91.22000 3.056
91.24000 1.618
91.26000 1.669
91.28000 0.999
91.30000 4.340
91.32000 7.099
91.34000 3.487
91.36000 2.885
91.38000 0.801
91.40000 -0.513
91.42000 -0.466
91.44000 2.733
91.46000 2.395
91.48000 2.889
91.50000 0.584
91.52000 3.368
91.54000 3.151
91.56000 2.956
91.58000 2.691
91.60000 -1.158
91.62000 -1.806
91.64000 1.065
91.66000 4.614
91.68000 2.218
91.70000 1.353
91.72000 -0.292
91.74000 -0.591
91.76000 -0.716
91.78000 -1.520
91.80000 3.456
91.82000 2.542
91.84000 2.095
91.86000 5.311
91.88000 0.626
91.90000 0.900
91.92000 1.353
91.94000 5.495
91.96000 6.150
91.98000 3.746
92.00000 1.266
92.02000 -0.625
92.04000 -0.490
92.06000 2.750
92.08000 2.122
92.10000 2.342
92.12000 3.465
92.14000 3.387
92.16000 1.016
92.18000 1.917
92.20000 -0.276
92.22000 1.724
92.24000 2.291
92.26000 1.442
92.28000 -1.591
92.30000 -0.485
92.32000 0.128
92.34000 0.516
92.36000 -1.731
92.38000 0.997
92.40000 0.705
92.42000 -1.818
92.44000 0.088
92.46000 0.230
92.48000 1.907
92.50000 -1.723
92.52000 -1.358
92.54000 3.094
92.56000 3.120
92.58000 3.560
92.60000 3.449
92.62000 2.374
92.64000 0.991
92.66000 0.865
92.68000 0.757
92.70000 0.557
92.72000 0.708
92.74000 -0.433
92.76000 -0.392
92.78000 1.562
92.80000 -0.235
92.82000 -0.208
92.84000 -1.453
92.86000 4.405
92.88000 0.853
92.90000 0.467
92.92000 2.121
92.94000 0.773
92.96000 -0.491
92.98000 0.379
93.00000 0.865
93.02000 2.895
93.04000 3.033
93.06000 1.119
93.08000 -1.424
93.10000 1.699
93.12000 4.602
93.14000 4.916
93.16000 1.812
93.18000 -1.809
93.20000 -0.649
93.22000 1.641
93.24000 2.693
93.26000 4.518
93.28000 3.778
93.30000 1.986
93.32000 1.973
93.34000 2.323
93.36000 1.690
93.38000 1.617
93.40000 1.685
93.42000 5.397
93.44000 3.479
93.46000 1.435
93.48000 5.177
93.50000 4.110
93.52000 -0.594
93.54000 0.216
93.56000 1.463
93.58000 4.499
93.60000 4.154
93.62000 3.610
93.64000 5.441
93.66000 3.856
93.68000 2.800
93.70000 1.148
93.72000 0.310
93.74000 0.035
93.76000 -1.798
93.78000 0.835
93.80000 2.148
93.82000 -0.167
93.84000 -0.503
93.86000 0.727
93.88000 4.369
93.90000 2.555
93.92000 1.403
93.94000 -0.034
93.96000 -0.759
93.98000 -0.372
94.00000 0.805
94.02000 1.550
94.04000 -1.518
94.06000 2.519
94.08000 7.384
94.10000 1.260
94.12000 0.877
94.14000 2.349
94.16000 2.609
94.18000 0.266
94.20000 1.431
94.22000 1.071
94.24000 0.078
94.26000 2.433
94.28000 2.374
94.30000 2.089
94.32000 1.852
94.34000 4.707
94.36000 1.024
94.38000 0.444
94.40000 0.448
94.42000 -1.076
94.44000 -1.731
94.46000 2.201
94.48000 4.009
94.50000 0.318
94.52000 1.011
94.54000 1.993
94.56000 1.730
94.58000 1.139
94.60000 2.617
94.62000 5.478
94.64000 3.634
94.66000 -0.072
94.68000 2.838
94.70000 2.584
94.72000 2.826
94.74000 0.467
94.76000 -1.556
94.78000 0.783
94.80000 5.308
94.82000 3.914
94.84000 1.537
94.86000 2.903
94.88000 2.006
94.90000 0.493
94.92000 0.758
94.94000 -1.833
94.96000 -0.063
94.98000 1.058
95.00000 5.976
95.02000 4.755
95.04000 4.502
95.06000 5.604
95.08000 3.319
95.10000 -0.379
95.12000 2.407
95.14000 4.372
95.16000 2.050
95.18000 5.554
95.20000 2.067
95.22000 2.620
95.24000 1.155
95.26000 1.373
95.28000 -0.495
95.30000 0.638
95.32000 0.923
95.34000 4.802
95.36000 5.439
95.38000 2.742
95.40000 0.189
95.42000 1.716
95.44000 2.073
95.46000 1.611
95.48000 2.265
95.50000 5.825
95.52000 7.100
95.54000 2.416
95.56000 0.517
95.58000 1.683
95.60000 2.222
95.62000 0.970
95.64000 2.240
95.66000 5.121
95.68000 3.967
95.70000 1.769
95.72000 0.059
95.74000 3.020
95.76000 1.854
95.78000 1.037
95.80000 -1.827
95.82000 1.786
95.84000 3.868
95.86000 4.631
95.88000 3.462
95.90000 1.364
95.92000 1.151
95.94000 -1.234
95.96000 -0.031
95.98000 2.324
96.00000 -0.605
96.02000 1.252
96.04000 3.349
96.06000 3.110
96.08000 1.829
96.10000 -0.511
96.12000 3.275
96.14000 3.474
96.16000 7.324
96.18000 3.882
96.20000 1.081
96.22000 4.540
96.24000 3.669
96.26000 4.612
96.28000 3.531
96.30000 1.423
96.32000 -1.748
96.34000 4.176
96.36000 5.530
96.38000 1.730
96.40000 0.732
96.42000 -0.490
96.44000 -1.724
96.46000 -0.287
96.48000 2.200
96.50000 3.400
96.52000 1.786
96.54000 2.644
96.56000 3.661
96.58000 2.841
96.60000 2.819
96.62000 1.470
96.64000 -1.844
96.66000 2.377
96.68000 3.362
96.70000 1.033
96.72000 1.179
96.74000 0.631
96.76000 2.703
96.78000 1.283
96.80000 0.961
96.82000 3.288
96.84000 6.232
96.86000 2.602
96.88000 4.551
96.90000 1.565
96.92000 -0.561
96.94000 2.322
96.96000 -1.618
96.98000 -1.035
97.00000 1.404
97.02000 1.781
97.04000 0.263
97.06000 -1.565
97.08000 -1.831
97.10000 4.130
97.12000 4.593
97.14000 4.106
97.16000 8.003
97.18000 5.764
97.20000 2.108
97.22000 1.506
97.24000 3.202
97.26000 3.817
97.28000 3.317
97.30000 3.846
97.32000 0.775
97.34000 1.960
97.36000 3.936
97.38000 2.016
97.40000 0.531
97.42000 1.802
97.44000 1.593
97.46000 1.441
97.48000 3.756
97.50000 2.139
97.52000 6.031
97.54000 7.905
97.56000 3.062
97.58000 3.149
97.60000 -0.694
97.62000 6.945
97.64000 -0.775
97.66000 -0.892
97.68000 -0.630
97.70000 -0.399
97.72000 1.879
97.74000 3.608
97.76000 3.191
97.78000 7.303
97.80000 2.428
97.82000 -1.803
97.84000 4.882
97.86000 7.622
97.88000 7.065
97.90000 3.073
97.92000 2.553
97.94000 2.564
97.96000 1.273
97.98000 3.569
98.00000 4.336
98.02000 2.911
98.04000 1.510
98.06000 0.796
98.08000 1.784
98.10000 4.186
98.12000 2.966
98.14000 -1.606
98.16000 2.988
98.18000 4.638
98.20000 10.268
98.22000 8.966
98.24000 4.941
98.26000 7.370
98.28000 2.166
98.30000 1.371
98.32000 0.599
98.34000 -1.774
98.36000 1.899
98.38000 -0.374
98.40000 0.410
98.42000 2.774
98.44000 4.929
98.46000 4.410
98.48000 5.915
98.50000 8.547
98.52000 5.188
98.54000 1.614
98.56000 -0.257
98.58000 -0.139
98.60000 0.022
98.62000 0.913
98.64000 2.864
98.66000 3.495
98.68000 6.618
98.70000 1.081
98.72000 -0.582
98.74000 4.560
98.76000 8.088
98.78000 5.654
98.80000 1.115
98.82000 4.992
98.84000 2.202
98.86000 3.878
98.88000 0.977
98.90000 -0.050
98.92000 1.493
98.94000 2.173
98.96000 5.936
98.98000 1.522
99.00000 5.210
99.02000 4.386
99.04000 4.437
99.06000 4.432
99.08000 4.416
99.10000 1.295
99.12000 5.822
99.14000 5.494
99.16000 -1.077
99.18000 4.839
99.20000 5.562
99.22000 3.669
99.24000 1.878
99.26000 4.172
99.28000 2.496
99.30000 4.198
99.32000 6.737
99.34000 4.095
99.36000 4.796
99.38000 8.699
99.40000 9.990
99.42000 4.145
99.44000 3.189
99.46000 1.654
99.48000 2.210
99.50000 8.095
99.52000 6.001
99.54000 1.801
99.56000 0.288
99.58000 4.325
99.60000 4.232
99.62000 5.866
99.64000 3.769
99.66000 6.376
99.68000 5.404
99.70000 5.605
99.72000 5.663
99.74000 8.641
99.76000 9.882
99.78000 15.161
99.80000 6.572
99.82000 -1.693
99.84000 0.706
99.86000 3.268
99.88000 8.685
99.90000 2.162
99.92000 1.459
99.94000 1.248
99.96000 -0.127
99.98000 0.000
