'Id: "0011387" Comment: "Integrate frame 0011387_Au-Ir-Rh_Rh-rich_XRD-Mapping-283-0000.gfrmwith cursor Wedge Cursor #5" Operator: "B?rgel" Anode: "Cu" Wavelength: "1.5406" Scantype: "2Theta (TwoTheta)" TimePerStep: "1" X: "-18" Y: "27" Z: "5.95" 
10.00000 0.000
10.02000 -1.669
10.04000 -4.514
10.06000 2.629
10.08000 4.925
10.10000 5.481
10.12000 12.868
10.14000 11.820
10.16000 -4.418
10.18000 -1.159
10.20000 12.266
10.22000 4.338
10.24000 12.362
10.26000 14.797
10.28000 7.173
10.30000 21.582
10.32000 22.945
10.34000 20.918
10.36000 15.750
10.38000 22.703
10.40000 34.679
10.42000 29.589
10.44000 22.343
10.46000 16.181
10.48000 8.239
10.50000 19.903
10.52000 21.189
10.54000 8.437
10.56000 12.587
10.58000 34.683
10.60000 24.626
10.62000 33.190
10.64000 -2.807
10.66000 -4.430
10.68000 -0.504
10.70000 1.721
10.72000 10.339
10.74000 13.727
10.76000 16.353
10.78000 18.066
10.80000 1.631
10.82000 2.416
10.84000 14.583
10.86000 14.237
10.88000 45.984
10.90000 28.178
10.92000 -1.076
10.94000 -3.527
10.96000 12.489
10.98000 10.523
11.00000 7.255
11.02000 8.439
11.04000 11.848
11.06000 7.285
11.08000 11.948
11.10000 25.984
11.12000 23.415
11.14000 12.347
11.16000 12.885
11.18000 19.302
11.20000 12.751
11.22000 18.032
11.24000 30.880
11.26000 21.442
11.28000 16.149
11.30000 22.691
11.32000 18.487
11.34000 16.093
11.36000 13.991
11.38000 14.057
11.40000 1.352
11.42000 2.591
11.44000 8.046
11.46000 7.569
11.48000 10.204
11.50000 6.216
11.52000 4.839
11.54000 14.019
11.56000 12.045
11.58000 11.537
11.60000 7.511
11.62000 6.995
11.64000 6.537
11.66000 13.064
11.68000 15.560
11.70000 6.075
11.72000 9.956
11.74000 19.165
11.76000 13.147
11.78000 17.143
11.80000 15.145
11.82000 7.446
11.84000 4.693
11.86000 2.917
11.88000 10.215
11.90000 9.129
11.92000 2.851
11.94000 12.066
11.96000 14.535
11.98000 13.295
12.00000 13.284
12.02000 20.461
12.04000 7.255
12.06000 12.412
12.08000 -4.503
12.10000 -0.441
12.12000 15.261
12.14000 20.613
12.16000 12.077
12.18000 4.656
12.20000 11.788
12.22000 6.083
12.24000 8.457
12.26000 8.039
12.28000 10.720
12.30000 3.191
12.32000 9.997
12.34000 15.404
12.36000 9.402
12.38000 10.338
12.40000 7.474
12.42000 6.885
12.44000 12.719
12.46000 12.350
12.48000 20.575
12.50000 14.228
12.52000 6.398
12.54000 9.782
12.56000 9.191
12.58000 -1.091
12.60000 1.776
12.62000 12.492
12.64000 11.225
12.66000 5.568
12.68000 2.341
12.70000 3.866
12.72000 3.841
12.74000 5.593
12.76000 5.160
12.78000 12.800
12.80000 2.207
12.82000 3.435
12.84000 14.116
12.86000 10.182
12.88000 5.246
12.90000 4.120
12.92000 14.759
12.94000 17.438
12.96000 13.418
12.98000 14.166
13.00000 1.565
13.02000 0.774
13.04000 -2.553
13.06000 6.114
13.08000 15.811
13.10000 18.262
13.12000 9.350
13.14000 10.393
13.16000 18.466
13.18000 8.486
13.20000 -1.358
13.22000 23.774
13.24000 17.646
13.26000 7.801
13.28000 4.596
13.30000 5.219
13.32000 12.941
13.34000 9.140
13.36000 4.283
13.38000 7.488
13.40000 17.527
13.42000 16.867
13.44000 4.868
13.46000 15.536
13.48000 6.521
13.50000 1.205
13.52000 6.476
13.54000 19.163
13.56000 22.352
13.58000 20.272
13.60000 12.824
13.62000 15.668
13.64000 8.152
13.66000 7.349
13.68000 6.818
13.70000 11.960
13.72000 17.463
13.74000 14.592
13.76000 16.219
13.78000 9.824
13.80000 -1.350
13.82000 -2.725
13.84000 9.022
13.86000 2.603
13.88000 3.661
13.90000 12.478
13.92000 18.717
13.94000 16.488
13.96000 10.642
13.98000 6.407
14.00000 -1.881
14.02000 2.356
14.04000 6.849
14.06000 -1.756
14.08000 -2.511
14.10000 9.400
14.12000 12.363
14.14000 11.508
14.16000 7.471
14.18000 8.633
14.20000 7.490
14.22000 12.032
14.24000 13.224
14.26000 13.688
14.28000 5.882
14.30000 0.352
14.32000 10.127
14.34000 11.557
14.36000 11.075
14.38000 20.322
14.40000 7.767
14.42000 13.555
14.44000 21.132
14.46000 9.792
14.48000 9.421
14.50000 12.172
14.52000 11.529
14.54000 -0.215
14.56000 1.467
14.58000 9.310
14.60000 11.630
14.62000 10.307
14.64000 4.881
14.66000 9.838
14.68000 3.709
14.70000 3.804
14.72000 -4.444
14.74000 8.047
14.76000 17.139
14.78000 14.709
14.80000 13.936
14.82000 11.371
14.84000 15.450
14.86000 20.795
14.88000 9.583
14.90000 8.879
14.92000 8.528
14.94000 4.627
14.96000 7.756
14.98000 11.213
15.00000 13.056
15.02000 10.257
15.04000 6.946
15.06000 7.503
15.08000 8.716
15.10000 0.648
15.12000 3.267
15.14000 14.692
15.16000 8.943
15.18000 9.071
15.20000 12.058
15.22000 11.484
15.24000 2.710
15.26000 -4.228
15.28000 3.240
15.30000 15.383
15.32000 15.626
15.34000 10.621
15.36000 8.197
15.38000 13.791
15.40000 10.172
15.42000 8.598
15.44000 19.459
15.46000 17.074
15.48000 9.063
15.50000 5.267
15.52000 9.613
15.54000 4.951
15.56000 3.214
15.58000 7.927
15.60000 9.971
15.62000 11.553
15.64000 6.302
15.66000 8.566
15.68000 10.686
15.70000 9.313
15.72000 10.540
15.74000 9.794
15.76000 5.972
15.78000 11.535
15.80000 7.439
15.82000 2.112
15.84000 4.016
15.86000 6.567
15.88000 7.510
15.90000 0.154
15.92000 0.619
15.94000 -3.253
15.96000 -0.890
15.98000 5.860
16.00000 -1.334
16.02000 9.949
16.04000 3.316
16.06000 -3.427
16.08000 -1.773
16.10000 6.913
16.12000 11.917
16.14000 6.204
16.16000 1.826
16.18000 -3.431
16.20000 4.023
16.22000 4.644
16.24000 -0.626
16.26000 6.611
16.28000 -2.920
16.30000 0.170
16.32000 2.353
16.34000 5.908
16.36000 12.327
16.38000 6.386
16.40000 4.517
16.42000 8.554
16.44000 7.302
16.46000 8.300
16.48000 8.033
16.50000 0.989
16.52000 3.306
16.54000 9.348
16.56000 10.025
16.58000 9.312
16.60000 13.405
16.62000 8.879
16.64000 3.817
16.66000 4.177
16.68000 2.192
16.70000 -1.913
16.72000 1.308
16.74000 9.306
16.76000 8.172
16.78000 3.334
16.80000 6.062
16.82000 3.951
16.84000 0.070
16.86000 -1.479
16.88000 -0.062
16.90000 2.165
16.92000 8.339
16.94000 9.776
16.96000 8.474
16.98000 1.797
17.00000 2.434
17.02000 -0.780
17.04000 7.733
17.06000 9.368
17.08000 11.592
17.10000 12.246
17.12000 6.137
17.14000 14.566
17.16000 17.134
17.18000 13.263
17.20000 14.908
17.22000 20.124
17.24000 15.054
17.26000 11.303
17.28000 12.670
17.30000 4.748
17.32000 11.716
17.34000 9.056
17.36000 8.755
17.38000 7.136
17.40000 12.785
17.42000 12.177
17.44000 7.752
17.46000 7.644
17.48000 14.694
17.50000 12.511
17.52000 6.606
17.54000 9.481
17.56000 9.269
17.58000 8.584
17.60000 10.338
17.62000 9.653
17.64000 11.119
17.66000 7.354
17.68000 7.390
17.70000 15.718
17.72000 17.510
17.74000 3.908
17.76000 7.106
17.78000 12.652
17.80000 16.571
17.82000 15.812
17.84000 7.604
17.86000 8.085
17.88000 10.830
17.90000 12.085
17.92000 13.945
17.94000 14.611
17.96000 10.807
17.98000 13.605
18.00000 15.602
18.02000 9.154
18.04000 -4.291
18.06000 1.101
18.08000 8.867
18.10000 11.843
18.12000 16.308
18.14000 15.479
18.16000 9.224
18.18000 6.695
18.20000 3.036
18.22000 7.853
18.24000 8.945
18.26000 10.666
18.28000 11.554
18.30000 5.171
18.32000 5.299
18.34000 5.749
18.36000 9.415
18.38000 13.172
18.40000 11.045
18.42000 7.762
18.44000 10.206
18.46000 9.780
18.48000 11.687
18.50000 11.542
18.52000 9.210
18.54000 6.166
18.56000 3.759
18.58000 4.617
18.60000 10.398
18.62000 9.043
18.64000 7.202
18.66000 5.989
18.68000 3.627
18.70000 6.977
18.72000 0.838
18.74000 2.304
18.76000 -1.747
18.78000 1.688
18.80000 8.982
18.82000 4.631
18.84000 8.428
18.86000 6.696
18.88000 7.363
18.90000 4.800
18.92000 10.775
18.94000 11.310
18.96000 2.306
18.98000 6.939
19.00000 4.732
19.02000 2.003
19.04000 6.053
19.06000 8.391
19.08000 9.996
19.10000 8.021
19.12000 5.724
19.14000 1.140
19.16000 -1.213
19.18000 -1.828
19.20000 2.691
19.22000 5.215
19.24000 1.208
19.26000 -0.462
19.28000 2.226
19.30000 1.823
19.32000 -1.839
19.34000 -4.275
19.36000 -1.878
19.38000 10.841
19.40000 6.459
19.42000 5.698
19.44000 6.349
19.46000 7.078
19.48000 7.417
19.50000 10.256
19.52000 12.153
19.54000 6.071
19.56000 5.194
19.58000 4.371
19.60000 3.242
19.62000 10.049
19.64000 11.342
19.66000 5.797
19.68000 3.344
19.70000 7.017
19.72000 10.774
19.74000 16.114
19.76000 13.493
19.78000 11.527
19.80000 6.407
19.82000 6.518
19.84000 9.693
19.86000 9.904
19.88000 9.534
19.90000 7.150
19.92000 6.588
19.94000 9.694
19.96000 3.698
19.98000 6.596
20.00000 13.811
20.02000 5.088
20.04000 3.946
20.06000 10.670
20.08000 8.230
20.10000 9.854
20.12000 2.667
20.14000 -2.978
20.16000 2.392
20.18000 6.300
20.20000 4.009
20.22000 2.776
20.24000 5.394
20.26000 4.318
20.28000 -4.220
20.30000 1.199
20.32000 5.562
20.34000 8.405
20.36000 0.839
20.38000 5.461
20.40000 13.198
20.42000 4.202
20.44000 5.432
20.46000 5.024
20.48000 3.509
20.50000 2.601
20.52000 2.818
20.54000 2.877
20.56000 -2.555
20.58000 2.450
20.60000 3.291
20.62000 4.054
20.64000 3.149
20.66000 9.994
20.68000 10.985
20.70000 6.389
20.72000 3.972
20.74000 0.507
20.76000 0.016
20.78000 3.601
20.80000 7.836
20.82000 11.614
20.84000 8.663
20.86000 2.125
20.88000 -4.191
20.90000 -3.638
20.92000 -1.521
20.94000 2.103
20.96000 0.356
20.98000 -2.137
21.00000 -0.709
21.02000 4.412
21.04000 8.917
21.06000 10.692
21.08000 9.347
21.10000 7.937
21.12000 1.164
21.14000 2.256
21.16000 0.377
21.18000 1.521
21.20000 7.934
21.22000 3.220
21.24000 5.438
21.26000 3.338
21.28000 5.636
21.30000 1.811
21.32000 5.247
21.34000 -0.065
21.36000 1.159
21.38000 4.354
21.40000 7.471
21.42000 12.618
21.44000 10.010
21.46000 3.982
21.48000 1.974
21.50000 7.198
21.52000 10.887
21.54000 3.719
21.56000 -0.198
21.58000 2.397
21.60000 5.590
21.62000 4.332
21.64000 -1.512
21.66000 0.087
21.68000 4.557
21.70000 -0.706
21.72000 3.238
21.74000 2.477
21.76000 2.345
21.78000 6.221
21.80000 10.114
21.82000 10.378
21.84000 8.546
21.86000 8.600
21.88000 -0.444
21.90000 5.875
21.92000 6.508
21.94000 12.712
21.96000 8.893
21.98000 7.632
22.00000 4.467
22.02000 4.776
22.04000 2.113
22.06000 1.608
22.08000 4.065
22.10000 7.407
22.12000 7.454
22.14000 9.993
22.16000 7.627
22.18000 4.582
22.20000 1.967
22.22000 0.097
22.24000 0.490
22.26000 1.883
22.28000 6.880
22.30000 9.712
22.32000 -0.575
22.34000 1.996
22.36000 5.301
22.38000 11.640
22.40000 0.175
22.42000 -3.473
22.44000 -4.091
22.46000 2.445
22.48000 3.225
22.50000 1.925
22.52000 4.504
22.54000 6.794
22.56000 9.725
22.58000 3.143
22.60000 4.070
22.62000 4.201
22.64000 10.162
22.66000 11.265
22.68000 11.938
22.70000 6.926
22.72000 3.266
22.74000 1.330
22.76000 4.347
22.78000 -1.016
22.80000 4.900
22.82000 4.771
22.84000 3.307
22.86000 4.917
22.88000 8.442
22.90000 6.085
22.92000 4.897
22.94000 12.041
22.96000 11.744
22.98000 11.216
23.00000 11.325
23.02000 1.650
23.04000 2.002
23.06000 7.218
23.08000 9.731
23.10000 3.871
23.12000 -1.625
23.14000 7.600
23.16000 10.874
23.18000 6.558
23.20000 0.520
23.22000 3.773
23.24000 12.380
23.26000 11.531
23.28000 9.898
23.30000 7.493
23.32000 9.691
23.34000 6.780
23.36000 6.991
23.38000 6.631
23.40000 -4.002
23.42000 3.868
23.44000 15.903
23.46000 11.321
23.48000 9.842
23.50000 9.376
23.52000 0.454
23.54000 3.172
23.56000 6.776
23.58000 6.627
23.60000 10.076
23.62000 12.784
23.64000 12.328
23.66000 9.938
23.68000 5.312
23.70000 0.983
23.72000 5.971
23.74000 5.798
23.76000 5.512
23.78000 3.689
23.80000 6.859
23.82000 2.856
23.84000 1.665
23.86000 7.959
23.88000 8.559
23.90000 0.396
23.92000 3.093
23.94000 2.862
23.96000 2.277
23.98000 1.915
24.00000 5.037
24.02000 1.341
24.04000 3.924
24.06000 9.760
24.08000 8.608
24.10000 4.377
24.12000 6.203
24.14000 3.149
24.16000 -1.547
24.18000 3.095
24.20000 3.826
24.22000 4.486
24.24000 4.244
24.26000 4.617
24.28000 7.312
24.30000 7.200
24.32000 8.402
24.34000 7.157
24.36000 7.988
24.38000 6.205
24.40000 4.031
24.42000 4.475
24.44000 2.752
24.46000 1.792
24.48000 0.986
24.50000 6.527
24.52000 4.463
24.54000 -1.358
24.56000 -1.061
24.58000 -2.429
24.60000 2.347
24.62000 5.534
24.64000 7.444
24.66000 7.636
24.68000 5.443
24.70000 2.378
24.72000 4.028
24.74000 -1.246
24.76000 0.610
24.78000 3.680
24.80000 2.983
24.82000 -0.882
24.84000 -0.520
24.86000 6.323
24.88000 5.807
24.90000 -1.259
24.92000 -0.470
24.94000 3.667
24.96000 9.652
24.98000 9.739
25.00000 6.567
25.02000 -1.434
25.04000 -3.966
25.06000 -3.342
25.08000 -1.112
25.10000 5.606
25.12000 6.480
25.14000 -0.820
25.16000 0.378
25.18000 -0.807
25.20000 4.451
25.22000 -0.618
25.24000 -0.995
25.26000 2.113
25.28000 1.928
25.30000 0.371
25.32000 1.528
25.34000 -0.951
25.36000 -2.351
25.38000 0.355
25.40000 2.520
25.42000 0.343
25.44000 6.527
25.46000 8.053
25.48000 5.581
25.50000 5.743
25.52000 6.834
25.54000 8.189
25.56000 4.647
25.58000 0.234
25.60000 0.976
25.62000 0.306
25.64000 5.466
25.66000 7.449
25.68000 7.523
25.70000 1.903
25.72000 -0.095
25.74000 -2.659
25.76000 1.041
25.78000 4.605
25.80000 1.862
25.82000 4.700
25.84000 4.770
25.86000 1.560
25.88000 1.613
25.90000 7.318
25.92000 5.580
25.94000 1.880
25.96000 0.546
25.98000 -3.588
26.00000 -3.925
26.02000 4.817
26.04000 6.652
26.06000 -1.714
26.08000 1.104
26.10000 3.450
26.12000 1.434
26.14000 2.692
26.16000 -0.994
26.18000 0.297
26.20000 1.552
26.22000 1.901
26.24000 2.195
26.26000 5.081
26.28000 -1.446
26.30000 -2.720
26.32000 1.373
26.34000 4.946
26.36000 6.330
26.38000 6.081
26.40000 1.188
26.42000 0.923
26.44000 3.164
26.46000 5.281
26.48000 5.296
26.50000 2.355
26.52000 -3.548
26.54000 -3.897
26.56000 -1.987
26.58000 4.276
26.60000 1.258
26.62000 -3.641
26.64000 -2.376
26.66000 -1.745
26.68000 -2.432
26.70000 -2.334
26.72000 2.638
26.74000 4.587
26.76000 2.080
26.78000 0.835
26.80000 -0.269
26.82000 0.771
26.84000 0.463
26.86000 1.620
26.88000 1.421
26.90000 7.521
26.92000 7.608
26.94000 2.969
26.96000 4.180
26.98000 4.142
27.00000 -0.729
27.02000 -2.504
27.04000 1.664
27.06000 5.821
27.08000 -2.271
27.10000 -2.266
27.12000 3.732
27.14000 10.298
27.16000 2.871
27.18000 4.509
27.20000 4.849
27.22000 2.678
27.24000 0.282
27.26000 3.069
27.28000 3.642
27.30000 3.099
27.32000 9.256
27.34000 10.021
27.36000 4.359
27.38000 2.911
27.40000 5.116
27.42000 5.100
27.44000 1.119
27.46000 2.404
27.48000 -0.272
27.50000 2.682
27.52000 6.050
27.54000 1.431
27.56000 0.450
27.58000 1.491
27.60000 7.622
27.62000 6.281
27.64000 3.497
27.66000 3.471
27.68000 4.559
27.70000 4.278
27.72000 9.173
27.74000 10.446
27.76000 8.229
27.78000 2.799
27.80000 6.270
27.82000 6.214
27.84000 0.403
27.86000 0.131
27.88000 1.264
27.90000 3.685
27.92000 5.509
27.94000 6.165
27.96000 9.265
27.98000 10.916
28.00000 5.195
28.02000 9.668
28.04000 8.943
28.06000 6.801
28.08000 9.829
28.10000 16.076
28.12000 11.706
28.14000 10.105
28.16000 7.203
28.18000 9.812
28.20000 9.289
28.22000 5.737
28.24000 2.791
28.26000 -3.719
28.28000 4.351
28.30000 8.573
28.32000 1.902
28.34000 -0.472
28.36000 7.377
28.38000 8.376
28.40000 4.094
28.42000 2.789
28.44000 5.355
28.46000 4.784
28.48000 8.415
28.50000 7.866
28.52000 6.562
28.54000 9.949
28.56000 10.273
28.58000 8.705
28.60000 3.216
28.62000 4.169
28.64000 4.241
28.66000 7.193
28.68000 3.529
28.70000 0.197
28.72000 1.580
28.74000 2.025
28.76000 4.732
28.78000 10.892
28.80000 4.668
28.82000 6.408
28.84000 11.090
28.86000 8.659
28.88000 6.220
28.90000 4.489
28.92000 3.756
28.94000 1.564
28.96000 2.008
28.98000 5.063
29.00000 -1.860
29.02000 -0.683
29.04000 2.204
29.06000 3.771
29.08000 0.418
29.10000 0.469
29.12000 3.173
29.14000 5.429
29.16000 3.399
29.18000 4.169
29.20000 7.138
29.22000 6.213
29.24000 4.203
29.26000 5.059
29.28000 4.664
29.30000 -2.604
29.32000 2.683
29.34000 2.725
29.36000 3.047
29.38000 -1.364
29.40000 2.558
29.42000 2.026
29.44000 0.636
29.46000 1.850
29.48000 2.485
29.50000 4.860
29.52000 4.024
29.54000 0.517
29.56000 5.707
29.58000 5.410
29.60000 5.640
29.62000 1.241
29.64000 2.193
29.66000 6.542
29.68000 6.303
29.70000 2.804
29.72000 1.081
29.74000 5.485
29.76000 5.072
29.78000 2.410
29.80000 -2.629
29.82000 -0.919
29.84000 1.751
29.86000 3.030
29.88000 4.244
29.90000 2.194
29.92000 3.137
29.94000 1.634
29.96000 2.796
29.98000 4.568
30.00000 2.890
30.02000 -0.775
30.04000 0.507
30.06000 1.552
30.08000 3.132
30.10000 6.284
30.12000 5.195
30.14000 2.478
30.16000 1.430
30.18000 -0.140
30.20000 0.671
30.22000 -0.202
30.24000 2.550
30.26000 4.681
30.28000 1.582
30.30000 3.357
30.32000 8.623
30.34000 8.520
30.36000 5.776
30.38000 4.126
30.40000 4.985
30.42000 1.972
30.44000 7.310
30.46000 8.152
30.48000 9.741
30.50000 9.652
30.52000 8.560
30.54000 1.661
30.56000 1.815
30.58000 1.204
30.60000 -3.650
30.62000 -0.561
30.64000 4.974
30.66000 7.262
30.68000 2.529
30.70000 0.565
30.72000 2.836
30.74000 3.217
30.76000 4.818
30.78000 3.722
30.80000 5.005
30.82000 7.531
30.84000 5.616
30.86000 6.541
30.88000 4.785
30.90000 1.885
30.92000 3.247
30.94000 5.349
30.96000 0.221
30.98000 -3.184
31.00000 0.955
31.02000 2.107
31.04000 4.051
31.06000 3.640
31.08000 4.058
31.10000 -1.406
31.12000 2.881
31.14000 4.773
31.16000 1.812
31.18000 3.758
31.20000 4.340
31.22000 7.079
31.24000 1.945
31.26000 2.753
31.28000 -1.006
31.30000 -0.937
31.32000 -3.256
31.34000 3.632
31.36000 6.862
31.38000 6.368
31.40000 10.102
31.42000 8.439
31.44000 5.153
31.46000 0.676
31.48000 4.996
31.50000 3.442
31.52000 2.346
31.54000 2.446
31.56000 -3.618
31.58000 0.792
31.60000 3.164
31.62000 5.578
31.64000 8.570
31.66000 6.589
31.68000 2.246
31.70000 4.284
31.72000 5.857
31.74000 8.898
31.76000 5.909
31.78000 10.263
31.80000 4.305
31.82000 4.366
31.84000 4.281
31.86000 7.089
31.88000 2.527
31.90000 2.731
31.92000 0.581
31.94000 -1.226
31.96000 1.743
31.98000 1.480
32.00000 1.041
32.02000 2.690
32.04000 5.745
32.06000 4.236
32.08000 3.075
32.10000 0.937
32.12000 1.862
32.14000 3.430
32.16000 3.627
32.18000 5.745
32.20000 4.720
32.22000 8.889
32.24000 7.597
32.26000 3.960
32.28000 -0.647
32.30000 1.797
32.32000 7.483
32.34000 10.466
32.36000 8.082
32.38000 6.399
32.40000 0.620
32.42000 4.550
32.44000 8.671
32.46000 1.755
32.48000 0.575
32.50000 -0.805
32.52000 -3.554
32.54000 4.950
32.56000 4.967
32.58000 5.286
32.60000 8.202
32.62000 8.698
32.64000 9.084
32.66000 7.063
32.68000 6.620
32.70000 8.730
32.72000 3.351
32.74000 0.121
32.76000 2.731
32.78000 4.128
32.80000 7.061
32.82000 6.237
32.84000 8.050
32.86000 5.305
32.88000 2.824
32.90000 -2.299
32.92000 0.639
32.94000 0.437
32.96000 -1.985
32.98000 2.848
33.00000 3.839
33.02000 2.961
33.04000 -1.065
33.06000 0.810
33.08000 5.659
33.10000 4.618
33.12000 2.509
33.14000 4.622
33.16000 9.765
33.18000 7.789
33.20000 5.070
33.22000 3.397
33.24000 2.346
33.26000 6.354
33.28000 4.586
33.30000 0.452
33.32000 0.341
33.34000 -1.932
33.36000 1.561
33.38000 2.009
33.40000 1.922
33.42000 3.233
33.44000 6.751
33.46000 4.863
33.48000 1.064
33.50000 -1.356
33.52000 -2.486
33.54000 1.532
33.56000 0.743
33.58000 0.708
33.60000 1.248
33.62000 3.287
33.64000 1.584
33.66000 -0.479
33.68000 2.488
33.70000 5.191
33.72000 6.134
33.74000 -0.197
33.76000 -0.260
33.78000 5.592
33.80000 1.011
33.82000 2.001
33.84000 -0.305
33.86000 3.666
33.88000 5.017
33.90000 9.784
33.92000 3.414
33.94000 3.623
33.96000 5.673
33.98000 8.450
34.00000 6.734
34.02000 5.285
34.04000 9.612
34.06000 6.193
34.08000 0.111
34.10000 4.329
34.12000 6.440
34.14000 7.555
34.16000 2.185
34.18000 4.996
34.20000 6.852
34.22000 4.603
34.24000 7.341
34.26000 0.710
34.28000 1.541
34.30000 0.615
34.32000 4.169
34.34000 3.486
34.36000 -0.325
34.38000 8.500
34.40000 3.754
34.42000 4.805
34.44000 1.291
34.46000 2.876
34.48000 7.215
34.50000 0.408
34.52000 3.268
34.54000 5.593
34.56000 6.471
34.58000 2.155
34.60000 0.782
34.62000 2.856
34.64000 5.918
34.66000 4.765
34.68000 5.131
34.70000 2.532
34.72000 -1.272
34.74000 1.282
34.76000 -1.698
34.78000 -3.549
34.80000 -1.220
34.82000 1.222
34.84000 7.007
34.86000 3.336
34.88000 0.956
34.90000 0.727
34.92000 -0.918
34.94000 -3.078
34.96000 -3.536
34.98000 1.180
35.00000 6.087
35.02000 3.790
35.04000 4.064
35.06000 7.379
35.08000 1.847
35.10000 4.660
35.12000 6.153
35.14000 2.596
35.16000 3.709
35.18000 0.050
35.20000 1.539
35.22000 2.456
35.24000 1.645
35.26000 -1.065
35.28000 1.820
35.30000 3.566
35.32000 2.874
35.34000 -0.142
35.36000 5.622
35.38000 2.733
35.40000 3.394
35.42000 2.415
35.44000 -3.190
35.46000 2.618
35.48000 3.799
35.50000 2.589
35.52000 4.494
35.54000 5.933
35.56000 1.321
35.58000 -1.895
35.60000 0.374
35.62000 5.210
35.64000 3.873
35.66000 1.898
35.68000 4.563
35.70000 1.052
35.72000 0.293
35.74000 1.106
35.76000 -1.002
35.78000 0.704
35.80000 -0.867
35.82000 0.956
35.84000 3.747
35.86000 5.546
35.88000 2.272
35.90000 1.040
35.92000 0.383
35.94000 -3.545
35.96000 1.640
35.98000 1.771
36.00000 1.853
36.02000 3.931
36.04000 3.717
36.06000 -1.300
36.08000 -2.761
36.10000 0.274
36.12000 -0.340
36.14000 0.485
36.16000 2.250
36.18000 5.620
36.20000 2.527
36.22000 4.037
36.24000 5.170
36.26000 0.635
36.28000 -1.265
36.30000 4.956
36.32000 1.346
36.34000 1.973
36.36000 2.875
36.38000 1.811
36.40000 0.082
36.42000 -0.841
36.44000 0.901
36.46000 0.140
36.48000 2.308
36.50000 6.465
36.52000 7.407
36.54000 6.374
36.56000 3.887
36.58000 2.869
36.60000 -1.556
36.62000 4.108
36.64000 6.669
36.66000 1.266
36.68000 2.219
36.70000 0.175
36.72000 -0.404
36.74000 5.424
36.76000 7.749
36.78000 3.572
36.80000 -3.591
36.82000 -2.442
36.84000 0.057
36.86000 2.032
36.88000 3.501
36.90000 1.478
36.92000 6.114
36.94000 3.995
36.96000 0.610
36.98000 -0.253
37.00000 3.348
37.02000 4.959
37.04000 3.258
37.06000 2.000
37.08000 9.155
37.10000 6.566
37.12000 3.350
37.14000 -3.352
37.16000 2.621
37.18000 6.681
37.20000 7.726
37.22000 3.036
37.24000 3.082
37.26000 4.197
37.28000 5.729
37.30000 3.939
37.32000 5.633
37.34000 6.821
37.36000 1.280
37.38000 0.028
37.40000 -3.616
37.42000 3.780
37.44000 6.982
37.46000 7.304
37.48000 3.358
37.50000 10.364
37.52000 8.681
37.54000 -0.433
37.56000 4.887
37.58000 7.859
37.60000 5.354
37.62000 5.559
37.64000 8.372
37.66000 10.157
37.68000 5.317
37.70000 10.514
37.72000 11.568
37.74000 14.005
37.76000 18.641
37.78000 18.666
37.80000 14.608
37.82000 11.074
37.84000 13.361
37.86000 12.420
37.88000 11.881
37.90000 16.469
37.92000 15.827
37.94000 15.101
37.96000 17.601
37.98000 15.691
38.00000 15.620
38.02000 15.497
38.04000 16.457
38.06000 20.537
38.08000 22.060
38.10000 24.044
38.12000 24.611
38.14000 22.213
38.16000 22.199
38.18000 23.237
38.20000 22.870
38.22000 21.805
38.24000 21.165
38.26000 24.975
38.28000 27.231
38.30000 30.391
38.32000 29.298
38.34000 33.243
38.36000 35.493
38.38000 31.591
38.40000 29.960
38.42000 34.186
38.44000 34.836
38.46000 39.147
38.48000 38.506
38.50000 38.633
38.52000 40.499
38.54000 45.031
38.56000 45.511
38.58000 43.198
38.60000 43.724
38.62000 51.364
38.64000 54.393
38.66000 58.221
38.68000 54.737
38.70000 57.940
38.72000 61.764
38.74000 64.544
38.76000 61.203
38.78000 61.604
38.80000 68.515
38.82000 70.780
38.84000 73.829
38.86000 78.659
38.88000 83.207
38.90000 89.196
38.92000 89.054
38.94000 90.672
38.96000 96.079
38.98000 96.573
39.00000 100.661
39.02000 104.715
39.04000 108.006
39.06000 113.520
39.08000 113.827
39.10000 115.381
39.12000 123.457
39.14000 134.792
39.16000 136.844
39.18000 138.048
39.20000 152.744
39.22000 162.492
39.24000 165.761
39.26000 173.312
39.28000 182.380
39.30000 193.102
39.32000 202.698
39.34000 208.675
39.36000 218.659
39.38000 231.818
39.40000 239.516
39.42000 256.780
39.44000 271.700
39.46000 286.242
39.48000 300.304
39.50000 311.629
39.52000 323.105
39.54000 337.246
39.56000 360.911
39.58000 386.816
39.60000 402.834
39.62000 413.991
39.64000 425.548
39.66000 449.503
39.68000 471.307
39.70000 503.660
39.72000 532.284
39.74000 547.419
39.76000 557.971
39.78000 580.754
39.80000 602.563
39.82000 626.016
39.84000 641.309
39.86000 660.140
39.88000 672.318
39.90000 698.676
39.92000 717.005
39.94000 725.442
39.96000 728.520
39.98000 745.039
40.00000 757.842
40.02000 749.544
40.04000 744.909
40.06000 763.943
40.08000 762.137
40.10000 754.257
40.12000 742.262
40.14000 732.693
40.16000 717.147
40.18000 698.215
40.20000 689.771
40.22000 682.167
40.24000 661.934
40.26000 646.544
40.28000 625.629
40.30000 599.307
40.32000 567.322
40.34000 543.691
40.36000 534.920
40.38000 512.678
40.40000 492.073
40.42000 474.835
40.44000 453.626
40.46000 426.797
40.48000 405.715
40.50000 388.004
40.52000 372.683
40.54000 355.507
40.56000 334.363
40.58000 316.222
40.60000 301.613
40.62000 285.607
40.64000 275.980
40.66000 257.244
40.68000 238.619
40.70000 226.908
40.72000 204.960
40.74000 192.300
40.76000 187.029
40.78000 182.422
40.80000 170.505
40.82000 163.728
40.84000 151.291
40.86000 139.525
40.88000 133.411
40.90000 123.541
40.92000 114.878
40.94000 109.797
40.96000 112.481
40.98000 104.088
41.00000 95.383
41.02000 89.506
41.04000 81.620
41.06000 76.775
41.08000 75.301
41.10000 73.212
41.12000 70.508
41.14000 62.723
41.16000 61.629
41.18000 61.545
41.20000 55.441
41.22000 51.504
41.24000 46.024
41.26000 46.477
41.28000 44.491
41.30000 42.590
41.32000 38.936
41.34000 39.591
41.36000 36.455
41.38000 33.509
41.40000 29.960
41.42000 31.299
41.44000 29.045
41.46000 28.624
41.48000 33.439
41.50000 25.443
41.52000 20.798
41.54000 25.050
41.56000 23.430
41.58000 21.661
41.60000 17.372
41.62000 16.462
41.64000 20.562
41.66000 18.503
41.68000 15.892
41.70000 18.130
41.72000 17.170
41.74000 14.164
41.76000 12.068
41.78000 14.124
41.80000 12.762
41.82000 13.695
41.84000 12.378
41.86000 12.625
41.88000 11.267
41.90000 12.758
41.92000 11.346
41.94000 14.923
41.96000 8.101
41.98000 6.660
42.00000 6.810
42.02000 4.899
42.04000 4.320
42.06000 4.134
42.08000 2.667
42.10000 2.280
42.12000 2.524
42.14000 4.853
42.16000 11.725
42.18000 7.559
42.20000 5.789
42.22000 3.115
42.24000 0.575
42.26000 4.279
42.28000 6.412
42.30000 4.058
42.32000 4.506
42.34000 1.600
42.36000 0.724
42.38000 1.641
42.40000 2.158
42.42000 0.958
42.44000 0.618
42.46000 1.712
42.48000 3.872
42.50000 5.233
42.52000 5.691
42.54000 5.885
42.56000 3.573
42.58000 3.168
42.60000 1.091
42.62000 -0.823
42.64000 -3.464
42.66000 -0.586
42.68000 1.024
42.70000 0.493
42.72000 1.238
42.74000 2.238
42.76000 4.289
42.78000 2.023
42.80000 -1.051
42.82000 0.072
42.84000 1.332
42.86000 1.719
42.88000 2.310
42.90000 0.489
42.92000 1.572
42.94000 1.965
42.96000 -2.768
42.98000 -3.308
43.00000 -1.285
43.02000 2.379
43.04000 1.037
43.06000 -0.964
43.08000 -3.404
43.10000 -0.114
43.12000 1.436
43.14000 2.735
43.16000 1.088
43.18000 -1.223
43.20000 -0.635
43.22000 -2.275
43.24000 -0.991
43.26000 3.377
43.28000 5.385
43.30000 3.776
43.32000 -3.184
43.34000 -0.966
43.36000 -1.051
43.38000 2.315
43.40000 -0.714
43.42000 0.547
43.44000 0.848
43.46000 2.786
43.48000 2.055
43.50000 6.312
43.52000 0.652
43.54000 -1.774
43.56000 -3.371
43.58000 -2.690
43.60000 -0.919
43.62000 2.203
43.64000 -0.601
43.66000 -0.307
43.68000 2.524
43.70000 0.196
43.72000 0.576
43.74000 -0.567
43.76000 0.820
43.78000 1.382
43.80000 3.426
43.82000 1.763
43.84000 1.453
43.86000 -2.406
43.88000 -2.169
43.90000 -1.071
43.92000 2.527
43.94000 -1.015
43.96000 -1.357
43.98000 -1.787
44.00000 0.850
44.02000 2.322
44.04000 -0.762
44.06000 -0.314
44.08000 2.405
44.10000 3.212
44.12000 0.816
44.14000 1.291
44.16000 0.400
44.18000 0.773
44.20000 -2.394
44.22000 0.120
44.24000 -1.301
44.26000 1.596
44.28000 0.532
44.30000 3.708
44.32000 3.277
44.34000 2.344
44.36000 7.278
44.38000 5.978
44.40000 -0.368
44.42000 2.051
44.44000 2.229
44.46000 -3.335
44.48000 1.192
44.50000 -0.436
44.52000 2.836
44.54000 4.324
44.56000 0.078
44.58000 -0.150
44.60000 -2.778
44.62000 -0.908
44.64000 4.603
44.66000 1.467
44.68000 4.715
44.70000 5.762
44.72000 5.894
44.74000 6.019
44.76000 9.040
44.78000 4.367
44.80000 3.736
44.82000 3.850
44.84000 2.963
44.86000 5.291
44.88000 7.899
44.90000 6.560
44.92000 7.269
44.94000 7.626
44.96000 6.946
44.98000 10.077
45.00000 10.707
45.02000 9.953
45.04000 8.081
45.06000 11.894
45.08000 12.717
45.10000 13.931
45.12000 16.196
45.14000 11.858
45.16000 13.706
45.18000 13.802
45.20000 11.271
45.22000 16.873
45.24000 20.277
45.26000 16.997
45.28000 16.313
45.30000 18.935
45.32000 20.952
45.34000 17.168
45.36000 18.317
45.38000 21.454
45.40000 17.246
45.42000 19.317
45.44000 19.119
45.46000 24.635
45.48000 25.634
45.50000 25.640
45.52000 23.241
45.54000 24.418
45.56000 26.998
45.58000 30.430
45.60000 32.621
45.62000 34.913
45.64000 35.167
45.66000 35.025
45.68000 34.034
45.70000 35.872
45.72000 31.784
45.74000 38.138
45.76000 38.153
45.78000 39.251
45.80000 45.098
45.82000 49.334
45.84000 46.452
45.86000 47.284
45.88000 45.479
45.90000 51.374
45.92000 51.103
45.94000 53.108
45.96000 48.146
45.98000 50.495
46.00000 49.863
46.02000 52.528
46.04000 59.408
46.06000 61.646
46.08000 73.963
46.10000 70.323
46.12000 69.871
46.14000 69.644
46.16000 73.273
46.18000 79.672
46.20000 81.429
46.22000 83.933
46.24000 82.623
46.26000 80.268
46.28000 84.056
46.30000 91.641
46.32000 90.910
46.34000 89.192
46.36000 99.342
46.38000 101.618
46.40000 107.994
46.42000 114.043
46.44000 105.480
46.46000 115.671
46.48000 116.490
46.50000 113.233
46.52000 117.712
46.54000 117.086
46.56000 122.703
46.58000 124.472
46.60000 118.794
46.62000 127.941
46.64000 131.622
46.66000 123.866
46.68000 126.979
46.70000 127.059
46.72000 126.831
46.74000 124.812
46.76000 128.138
46.78000 126.735
46.80000 132.382
46.82000 124.987
46.84000 123.615
46.86000 123.539
46.88000 122.038
46.90000 120.873
46.92000 121.997
46.94000 116.308
46.96000 116.925
46.98000 112.015
47.00000 110.067
47.02000 107.521
47.04000 106.276
47.06000 98.853
47.08000 96.945
47.10000 96.404
47.12000 95.070
47.14000 91.214
47.16000 84.754
47.18000 80.793
47.20000 81.277
47.22000 76.982
47.24000 75.372
47.26000 74.702
47.28000 73.630
47.30000 62.775
47.32000 63.855
47.34000 60.610
47.36000 56.957
47.38000 60.779
47.40000 53.042
47.42000 48.907
47.44000 50.861
47.46000 47.838
47.48000 45.593
47.50000 47.627
47.52000 38.621
47.54000 33.444
47.56000 36.035
47.58000 35.127
47.60000 30.817
47.62000 32.672
47.64000 27.036
47.66000 19.411
47.68000 20.910
47.70000 23.702
47.72000 25.551
47.74000 21.619
47.76000 21.969
47.78000 19.492
47.80000 18.775
47.82000 17.184
47.84000 14.377
47.86000 16.135
47.88000 15.940
47.90000 15.507
47.92000 11.878
47.94000 11.107
47.96000 3.824
47.98000 6.106
48.00000 5.822
48.02000 6.511
48.04000 6.105
48.06000 8.980
48.08000 10.432
48.10000 10.529
48.12000 4.564
48.14000 4.475
48.16000 3.305
48.18000 6.043
48.20000 2.427
48.22000 5.355
48.24000 7.168
48.26000 5.925
48.28000 5.796
48.30000 6.033
48.32000 2.862
48.34000 5.914
48.36000 7.530
48.38000 3.196
48.40000 0.961
48.42000 0.087
48.44000 -2.931
48.46000 3.164
48.48000 5.164
48.50000 4.197
48.52000 6.036
48.54000 5.734
48.56000 8.893
48.58000 0.194
48.60000 4.283
48.62000 0.704
48.64000 1.258
48.66000 3.474
48.68000 5.519
48.70000 6.460
48.72000 6.419
48.74000 4.668
48.76000 3.524
48.78000 3.010
48.80000 6.050
48.82000 5.995
48.84000 1.430
48.86000 2.099
48.88000 5.539
48.90000 2.166
48.92000 2.701
48.94000 3.795
48.96000 4.559
48.98000 7.544
49.00000 7.133
49.02000 0.418
49.04000 -2.810
49.06000 3.815
49.08000 11.138
49.10000 7.985
49.12000 3.170
49.14000 6.357
49.16000 7.501
49.18000 3.196
49.20000 1.869
49.22000 3.464
49.24000 4.233
49.26000 5.689
49.28000 2.401
49.30000 1.556
49.32000 0.246
49.34000 1.714
49.36000 3.954
49.38000 3.507
49.40000 7.162
49.42000 7.107
49.44000 0.895
49.46000 -0.067
49.48000 2.146
49.50000 2.356
49.52000 5.617
49.54000 1.363
49.56000 1.652
49.58000 6.436
49.60000 3.308
49.62000 1.333
49.64000 -2.777
49.66000 2.135
49.68000 8.033
49.70000 4.927
49.72000 5.307
49.74000 5.741
49.76000 5.565
49.78000 2.530
49.80000 0.516
49.82000 1.437
49.84000 0.906
49.86000 1.237
49.88000 1.324
49.90000 -1.088
49.92000 0.239
49.94000 4.592
49.96000 3.016
49.98000 -1.827
50.00000 -1.671
50.02000 -0.821
50.04000 2.549
50.06000 6.423
50.08000 1.144
50.10000 1.061
50.12000 2.467
50.14000 2.868
50.16000 7.043
50.18000 4.204
50.20000 2.293
50.22000 3.053
50.24000 2.438
50.26000 -2.733
50.28000 -1.383
50.30000 4.126
50.32000 3.463
50.34000 6.393
50.36000 5.179
50.38000 1.231
50.40000 1.946
50.42000 2.121
50.44000 3.885
50.46000 1.278
50.48000 0.997
50.50000 0.250
50.52000 -2.708
50.54000 -1.922
50.56000 3.406
50.58000 3.274
50.60000 0.546
50.62000 4.967
50.64000 1.615
50.66000 2.291
50.68000 4.138
50.70000 2.240
50.72000 6.539
50.74000 4.019
50.76000 3.298
50.78000 5.251
50.80000 5.689
50.82000 5.079
50.84000 1.780
50.86000 5.820
50.88000 4.468
50.90000 2.689
50.92000 1.607
50.94000 3.538
50.96000 0.004
50.98000 1.768
51.00000 -1.895
51.02000 -2.390
51.04000 3.795
51.06000 1.754
51.08000 2.594
51.10000 1.515
51.12000 8.109
51.14000 4.875
51.16000 0.629
51.18000 3.016
51.20000 4.453
51.22000 2.205
51.24000 5.247
51.26000 5.387
51.28000 3.846
51.30000 2.989
51.32000 3.342
51.34000 1.094
51.36000 3.131
51.38000 3.465
51.40000 -0.106
51.42000 -1.501
51.44000 2.183
51.46000 2.231
51.48000 3.799
51.50000 3.292
51.52000 3.018
51.54000 2.457
51.56000 1.935
51.58000 2.167
51.60000 3.461
51.62000 0.596
51.64000 1.856
51.66000 2.333
51.68000 3.588
51.70000 -0.972
51.72000 0.334
51.74000 3.140
51.76000 1.816
51.78000 -1.653
51.80000 0.824
51.82000 6.306
51.84000 8.055
51.86000 6.883
51.88000 -0.366
51.90000 -0.272
51.92000 0.190
51.94000 1.797
51.96000 3.869
51.98000 6.039
52.00000 1.033
52.02000 -2.638
52.04000 -1.072
52.06000 0.316
52.08000 10.368
52.10000 8.852
52.12000 4.178
52.14000 3.023
52.16000 3.321
52.18000 3.708
52.20000 2.797
52.22000 0.325
52.24000 1.993
52.26000 4.166
52.28000 3.026
52.30000 -0.570
52.32000 0.096
52.34000 2.044
52.36000 4.936
52.38000 4.560
52.40000 3.141
52.42000 1.637
52.44000 -0.648
52.46000 -1.658
52.48000 1.791
52.50000 0.473
52.52000 0.847
52.54000 -0.466
52.56000 1.953
52.58000 5.504
52.60000 6.808
52.62000 3.904
52.64000 -0.058
52.66000 -2.444
52.68000 -0.520
52.70000 1.671
52.72000 3.421
52.74000 5.448
52.76000 4.002
52.78000 2.381
52.80000 3.022
52.82000 4.094
52.84000 -0.081
52.86000 1.611
52.88000 2.885
52.90000 2.645
52.92000 1.826
52.94000 -0.931
52.96000 -0.028
52.98000 0.690
53.00000 2.216
53.02000 3.897
53.04000 4.966
53.06000 8.642
53.08000 8.232
53.10000 10.326
53.12000 5.034
53.14000 5.455
53.16000 3.723
53.18000 1.544
53.20000 -0.119
53.22000 -0.686
53.24000 -0.301
53.26000 2.213
53.28000 6.361
53.30000 7.953
53.32000 5.858
53.34000 0.523
53.36000 -0.287
53.38000 -1.054
53.40000 3.827
53.42000 3.394
53.44000 1.525
53.46000 2.621
53.48000 4.481
53.50000 1.608
53.52000 -1.774
53.54000 0.932
53.56000 2.841
53.58000 0.054
53.60000 -2.490
53.62000 1.088
53.64000 3.611
53.66000 1.486
53.68000 -1.943
53.70000 -2.603
53.72000 0.366
53.74000 2.694
53.76000 0.072
53.78000 1.650
53.80000 0.828
53.82000 2.692
53.84000 6.353
53.86000 7.131
53.88000 4.410
53.90000 -0.923
53.92000 -2.592
53.94000 -0.246
53.96000 1.684
53.98000 2.991
54.00000 3.996
54.02000 5.155
54.04000 3.733
54.06000 3.108
54.08000 3.683
54.10000 1.019
54.12000 1.046
54.14000 3.104
54.16000 6.642
54.18000 3.171
54.20000 0.061
54.22000 1.765
54.24000 -0.069
54.26000 -0.770
54.28000 1.892
54.30000 -1.343
54.32000 2.792
54.34000 5.299
54.36000 5.705
54.38000 5.903
54.40000 6.833
54.42000 2.903
54.44000 0.707
54.46000 0.915
54.48000 3.729
54.50000 1.944
54.52000 2.212
54.54000 -1.818
54.56000 0.181
54.58000 3.050
54.60000 -0.083
54.62000 -0.788
54.64000 3.498
54.66000 4.141
54.68000 -1.239
54.70000 -1.185
54.72000 5.157
54.74000 3.978
54.76000 2.912
54.78000 0.832
54.80000 2.453
54.82000 3.736
54.84000 0.596
54.86000 0.172
54.88000 -0.004
54.90000 2.186
54.92000 6.500
54.94000 2.661
54.96000 -1.874
54.98000 -2.585
55.00000 -0.511
55.02000 0.043
55.04000 3.241
55.06000 4.720
55.08000 2.780
55.10000 3.514
55.12000 3.528
55.14000 3.157
55.16000 1.257
55.18000 -0.040
55.20000 -1.250
55.22000 0.633
55.24000 1.709
55.26000 4.758
55.28000 3.294
55.30000 1.051
55.32000 2.855
55.34000 4.125
55.36000 4.753
55.38000 0.227
55.40000 -1.167
55.42000 -0.962
55.44000 3.200
55.46000 4.906
55.48000 1.848
55.50000 -1.368
55.52000 -2.040
55.54000 0.701
55.56000 1.009
55.58000 -2.225
55.60000 1.435
55.62000 5.085
55.64000 4.594
55.66000 5.603
55.68000 4.284
55.70000 -0.502
55.72000 4.144
55.74000 6.913
55.76000 2.925
55.78000 0.720
55.80000 1.100
55.82000 3.372
55.84000 6.602
55.86000 4.986
55.88000 5.921
55.90000 2.981
55.92000 3.814
55.94000 6.735
55.96000 8.463
55.98000 4.526
56.00000 8.417
56.02000 2.675
56.04000 -2.533
56.06000 0.712
56.08000 -0.852
56.10000 1.895
56.12000 1.377
56.14000 4.927
56.16000 4.604
56.18000 0.793
56.20000 3.168
56.22000 4.018
56.24000 2.547
56.26000 1.430
56.28000 3.836
56.30000 3.793
56.32000 2.572
56.34000 2.547
56.36000 2.016
56.38000 -1.129
56.40000 1.245
56.42000 0.401
56.44000 -0.752
56.46000 1.132
56.48000 0.450
56.50000 0.817
56.52000 1.274
56.54000 2.197
56.56000 3.460
56.58000 5.497
56.60000 4.073
56.62000 -1.627
56.64000 -0.815
56.66000 1.384
56.68000 2.805
56.70000 5.535
56.72000 6.685
56.74000 5.274
56.76000 5.345
56.78000 3.982
56.80000 1.661
56.82000 4.866
56.84000 2.629
56.86000 -0.552
56.88000 -1.833
56.90000 -1.381
56.92000 2.015
56.94000 3.989
56.96000 -0.711
56.98000 0.208
57.00000 4.871
57.02000 5.163
57.04000 2.862
57.06000 1.281
57.08000 -1.782
57.10000 -1.172
57.12000 1.471
57.14000 0.212
57.16000 -2.520
57.18000 0.596
57.20000 1.757
57.22000 0.703
57.24000 0.553
57.26000 0.145
57.28000 -2.277
57.30000 -0.800
57.32000 1.884
57.34000 5.045
57.36000 3.232
57.38000 0.861
57.40000 2.144
57.42000 5.641
57.44000 1.771
57.46000 4.895
57.48000 4.999
57.50000 3.928
57.52000 3.166
57.54000 3.511
57.56000 0.837
57.58000 2.087
57.60000 -0.394
57.62000 -2.499
57.64000 -1.199
57.66000 -1.467
57.68000 1.655
57.70000 -1.231
57.72000 -0.710
57.74000 2.881
57.76000 0.161
57.78000 -2.496
57.80000 2.802
57.82000 4.026
57.84000 2.369
57.86000 3.397
57.88000 1.846
57.90000 2.377
57.92000 2.932
57.94000 -0.887
57.96000 0.821
57.98000 0.125
58.00000 0.631
58.02000 1.053
58.04000 -0.103
58.06000 0.246
58.08000 3.543
58.10000 -0.024
58.12000 2.053
58.14000 1.210
58.16000 -1.533
58.18000 -0.828
58.20000 1.094
58.22000 5.394
58.24000 4.611
58.26000 2.224
58.28000 -0.452
58.30000 -0.397
58.32000 1.279
58.34000 1.786
58.36000 0.146
58.38000 2.921
58.40000 5.288
58.42000 2.235
58.44000 1.501
58.46000 3.105
58.48000 0.508
58.50000 1.095
58.52000 0.818
58.54000 2.756
58.56000 4.082
58.58000 3.122
58.60000 0.083
58.62000 1.578
58.64000 5.459
58.66000 3.058
58.68000 3.504
58.70000 3.890
58.72000 0.952
58.74000 3.337
58.76000 0.970
58.78000 0.914
58.80000 2.813
58.82000 3.292
58.84000 5.823
58.86000 0.062
58.88000 0.344
58.90000 -0.288
58.92000 3.489
58.94000 0.237
58.96000 3.384
58.98000 3.122
59.00000 2.433
59.02000 4.100
59.04000 6.063
59.06000 8.458
59.08000 5.068
59.10000 4.160
59.12000 0.098
59.14000 -2.436
59.16000 1.124
59.18000 6.062
59.20000 4.766
59.22000 4.966
59.24000 8.150
59.26000 3.348
59.28000 0.048
59.30000 5.668
59.32000 3.189
59.34000 4.755
59.36000 3.743
59.38000 1.714
59.40000 4.481
59.42000 3.915
59.44000 5.673
59.46000 0.491
59.48000 2.032
59.50000 3.303
59.52000 2.342
59.54000 5.474
59.56000 3.758
59.58000 2.382
59.60000 1.657
59.62000 2.317
59.64000 5.025
59.66000 2.643
59.68000 2.636
59.70000 1.606
59.72000 5.155
59.74000 3.876
59.76000 -0.426
59.78000 1.337
59.80000 0.696
59.82000 -0.394
59.84000 -0.817
59.86000 2.045
59.88000 1.277
59.90000 0.025
59.92000 2.052
59.94000 3.649
59.96000 1.832
59.98000 -0.100
60.00000 1.004
60.02000 2.910
60.04000 1.954
60.06000 1.690
60.08000 -0.403
60.10000 1.978
60.12000 4.264
60.14000 5.082
60.16000 0.883
60.18000 0.191
60.20000 3.694
60.22000 1.753
60.24000 3.971
60.26000 5.478
60.28000 4.053
60.30000 4.260
60.32000 3.670
60.34000 4.370
60.36000 3.802
60.38000 3.866
60.40000 1.159
60.42000 -0.389
60.44000 1.261
60.46000 2.906
60.48000 2.781
60.50000 1.504
60.52000 1.373
60.54000 0.485
60.56000 0.288
60.58000 3.224
60.60000 7.571
60.62000 6.212
60.64000 5.224
60.66000 4.570
60.68000 2.122
60.70000 -2.349
60.72000 -1.384
60.74000 3.998
60.76000 5.848
60.78000 3.980
60.80000 2.434
60.82000 6.016
60.84000 5.884
60.86000 6.426
60.88000 5.505
60.90000 9.094
60.92000 5.597
60.94000 -0.486
60.96000 -0.502
60.98000 0.816
61.00000 1.842
61.02000 2.320
61.04000 1.720
61.06000 1.694
61.08000 3.295
61.10000 4.979
61.12000 3.350
61.14000 2.853
61.16000 5.845
61.18000 5.202
61.20000 1.470
61.22000 0.597
61.24000 1.388
61.26000 4.521
61.28000 4.324
61.30000 1.455
61.32000 3.689
61.34000 3.075
61.36000 4.362
61.38000 6.787
61.40000 4.011
61.42000 0.889
61.44000 4.402
61.46000 4.922
61.48000 6.491
61.50000 4.773
61.52000 2.850
61.54000 3.158
61.56000 5.115
61.58000 5.147
61.60000 4.363
61.62000 1.942
61.64000 5.815
61.66000 2.107
61.68000 0.342
61.70000 4.330
61.72000 0.697
61.74000 5.691
61.76000 3.881
61.78000 4.768
61.80000 2.154
61.82000 0.165
61.84000 2.110
61.86000 3.918
61.88000 5.493
61.90000 2.079
61.92000 0.364
61.94000 1.867
61.96000 2.680
61.98000 4.957
62.00000 5.245
62.02000 4.899
62.04000 2.517
62.06000 4.139
62.08000 6.516
62.10000 9.063
62.12000 3.306
62.14000 2.866
62.16000 3.853
62.18000 2.696
62.20000 0.672
62.22000 -2.321
62.24000 4.292
62.26000 4.051
62.28000 5.498
62.30000 6.408
62.32000 4.543
62.34000 2.819
62.36000 6.756
62.38000 4.904
62.40000 5.460
62.42000 3.542
62.44000 3.276
62.46000 1.803
62.48000 4.091
62.50000 6.861
62.52000 4.652
62.54000 3.809
62.56000 5.470
62.58000 4.190
62.60000 4.774
62.62000 2.384
62.64000 2.357
62.66000 1.924
62.68000 2.074
62.70000 -1.026
62.72000 0.763
62.74000 1.212
62.76000 1.897
62.78000 0.189
62.80000 -0.937
62.82000 -1.243
62.84000 2.033
62.86000 2.778
62.88000 2.567
62.90000 1.688
62.92000 1.274
62.94000 -0.620
62.96000 -0.311
62.98000 2.265
63.00000 2.095
63.02000 -2.368
63.04000 -1.505
63.06000 1.486
63.08000 2.999
63.10000 0.971
63.12000 4.770
63.14000 1.475
63.16000 2.015
63.18000 3.868
63.20000 2.075
63.22000 1.355
63.24000 5.013
63.26000 2.985
63.28000 3.701
63.30000 2.192
63.32000 1.625
63.34000 3.719
63.36000 1.701
63.38000 -1.164
63.40000 0.804
63.42000 2.486
63.44000 1.656
63.46000 0.709
63.48000 -0.335
63.50000 1.778
63.52000 3.243
63.54000 1.151
63.56000 2.610
63.58000 2.800
63.60000 3.072
63.62000 0.174
63.64000 -0.593
63.66000 -1.273
63.68000 2.640
63.70000 -0.083
63.72000 0.529
63.74000 1.373
63.76000 2.215
63.78000 1.398
63.80000 1.041
63.82000 4.266
63.84000 2.602
63.86000 2.735
63.88000 3.358
63.90000 3.809
63.92000 2.168
63.94000 2.707
63.96000 1.346
63.98000 2.502
64.00000 1.282
64.02000 0.661
64.04000 0.188
64.06000 2.022
64.08000 1.515
64.10000 3.929
64.12000 3.245
64.14000 1.723
64.16000 1.827
64.18000 1.777
64.20000 2.887
64.22000 2.692
64.24000 3.360
64.26000 4.030
64.28000 5.777
64.30000 2.979
64.32000 -2.353
64.34000 -0.559
64.36000 1.565
64.38000 2.595
64.40000 3.978
64.42000 -0.358
64.44000 1.679
64.46000 2.371
64.48000 2.036
64.50000 0.861
64.52000 0.746
64.54000 1.560
64.56000 0.644
64.58000 3.511
64.60000 5.998
64.62000 6.236
64.64000 3.712
64.66000 4.247
64.68000 5.378
64.70000 4.103
64.72000 0.977
64.74000 1.386
64.76000 1.928
64.78000 3.809
64.80000 -0.802
64.82000 2.824
64.84000 1.736
64.86000 0.269
64.88000 0.815
64.90000 0.051
64.92000 3.395
64.94000 4.551
64.96000 2.895
64.98000 0.065
65.00000 -2.393
65.02000 0.566
65.04000 1.577
65.06000 -0.141
65.08000 -0.397
65.10000 0.659
65.12000 1.194
65.14000 -1.680
65.16000 -0.547
65.18000 2.194
65.20000 -1.089
65.22000 1.177
65.24000 0.207
65.26000 1.459
65.28000 2.629
65.30000 0.720
65.32000 2.253
65.34000 2.311
65.36000 3.167
65.38000 0.862
65.40000 -0.860
65.42000 3.376
65.44000 3.189
65.46000 2.058
65.48000 1.195
65.50000 2.176
65.52000 2.604
65.54000 -0.426
65.56000 -0.374
65.58000 0.353
65.60000 0.201
65.62000 -1.447
65.64000 -1.529
65.66000 1.607
65.68000 -1.048
65.70000 0.316
65.72000 2.191
65.74000 0.153
65.76000 1.963
65.78000 7.752
65.80000 6.856
65.82000 6.121
65.84000 2.412
65.86000 -2.393
65.88000 -0.544
65.90000 1.139
65.92000 4.518
65.94000 3.639
65.96000 4.650
65.98000 4.690
66.00000 5.439
66.02000 3.701
66.04000 1.598
66.06000 3.435
66.08000 5.182
66.10000 6.668
66.12000 4.452
66.14000 1.388
66.16000 2.542
66.18000 2.909
66.20000 3.041
66.22000 5.172
66.24000 1.955
66.26000 5.818
66.28000 5.883
66.30000 3.521
66.32000 5.024
66.34000 5.311
66.36000 3.112
66.38000 3.407
66.40000 2.199
66.42000 1.190
66.44000 1.193
66.46000 3.460
66.48000 3.601
66.50000 1.678
66.52000 -2.451
66.54000 1.513
66.56000 -1.571
66.58000 2.690
66.60000 5.064
66.62000 7.441
66.64000 5.298
66.66000 5.950
66.68000 6.696
66.70000 6.562
66.72000 7.278
66.74000 8.035
66.76000 7.801
66.78000 4.002
66.80000 5.653
66.82000 7.621
66.84000 7.635
66.86000 3.617
66.88000 0.878
66.90000 4.584
66.92000 7.630
66.94000 8.009
66.96000 8.190
66.98000 7.322
67.00000 7.127
67.02000 6.815
67.04000 6.397
67.06000 6.906
67.08000 9.046
67.10000 5.681
67.12000 4.653
67.14000 9.891
67.16000 11.920
67.18000 11.983
67.20000 12.307
67.22000 11.871
67.24000 11.567
67.26000 10.348
67.28000 7.576
67.30000 8.670
67.32000 10.053
67.34000 10.289
67.36000 12.989
67.38000 11.578
67.40000 12.153
67.42000 13.723
67.44000 14.808
67.46000 15.092
67.48000 12.820
67.50000 12.677
67.52000 13.422
67.54000 16.047
67.56000 14.559
67.58000 18.125
67.60000 16.636
67.62000 15.453
67.64000 19.245
67.66000 20.179
67.68000 17.851
67.70000 15.275
67.72000 20.302
67.74000 21.468
67.76000 20.360
67.78000 18.371
67.80000 18.180
67.82000 18.877
67.84000 19.484
67.86000 19.998
67.88000 22.027
67.90000 23.479
67.92000 25.382
67.94000 22.546
67.96000 22.712
67.98000 21.887
68.00000 23.007
68.02000 22.269
68.04000 22.424
68.06000 25.102
68.08000 27.642
68.10000 26.426
68.12000 27.379
68.14000 26.743
68.16000 25.504
68.18000 25.080
68.20000 24.332
68.22000 28.501
68.24000 27.805
68.26000 25.864
68.28000 26.720
68.30000 25.796
68.32000 24.255
68.34000 24.494
68.36000 25.997
68.38000 23.751
68.40000 26.630
68.42000 27.144
68.44000 23.069
68.46000 21.244
68.48000 22.886
68.50000 23.398
68.52000 23.799
68.54000 20.663
68.56000 18.393
68.58000 16.638
68.60000 17.126
68.62000 20.104
68.64000 21.123
68.66000 20.764
68.68000 17.011
68.70000 19.217
68.72000 19.790
68.74000 18.065
68.76000 13.154
68.78000 12.118
68.80000 14.935
68.82000 14.631
68.84000 14.110
68.86000 12.123
68.88000 9.955
68.90000 14.761
68.92000 13.953
68.94000 13.529
68.96000 10.213
68.98000 7.080
69.00000 7.753
69.02000 10.095
69.04000 7.170
69.06000 6.240
69.08000 6.700
69.10000 6.832
69.12000 6.803
69.14000 5.604
69.16000 4.490
69.18000 6.769
69.20000 6.695
69.22000 6.187
69.24000 5.822
69.26000 1.945
69.28000 2.630
69.30000 2.456
69.32000 1.730
69.34000 2.246
69.36000 3.510
69.38000 2.617
69.40000 1.044
69.42000 2.144
69.44000 5.692
69.46000 5.122
69.48000 2.064
69.50000 1.540
69.52000 1.377
69.54000 3.391
69.56000 6.277
69.58000 4.474
69.60000 2.361
69.62000 2.129
69.64000 -1.316
69.66000 1.527
69.68000 0.837
69.70000 -2.382
69.72000 -1.547
69.74000 -0.562
69.76000 1.097
69.78000 1.799
69.80000 0.371
69.82000 0.228
69.84000 -0.576
69.86000 0.403
69.88000 1.549
69.90000 -1.211
69.92000 0.776
69.94000 -0.973
69.96000 1.348
69.98000 2.186
70.00000 2.565
70.02000 1.166
70.04000 1.014
70.06000 2.923
70.08000 0.464
70.10000 1.960
70.12000 1.368
70.14000 2.978
70.16000 2.429
70.18000 1.733
70.20000 -0.662
70.22000 -0.331
70.24000 -1.513
70.26000 -1.197
70.28000 -0.426
70.30000 0.355
70.32000 2.939
70.34000 7.214
70.36000 5.089
70.38000 3.226
70.40000 2.156
70.42000 1.517
70.44000 -2.289
70.46000 0.338
70.48000 1.466
70.50000 1.175
70.52000 2.925
70.54000 4.758
70.56000 4.173
70.58000 2.417
70.60000 2.451
70.62000 0.685
70.64000 -0.770
70.66000 -0.248
70.68000 -1.056
70.70000 -2.286
70.72000 0.875
70.74000 -0.127
70.76000 -0.931
70.78000 3.517
70.80000 1.559
70.82000 -1.050
70.84000 -1.254
70.86000 2.067
70.88000 2.141
70.90000 4.516
70.92000 2.669
70.94000 4.374
70.96000 3.689
70.98000 3.019
71.00000 4.537
71.02000 2.408
71.04000 0.245
71.06000 2.155
71.08000 1.782
71.10000 1.430
71.12000 1.860
71.14000 5.257
71.16000 7.015
71.18000 5.735
71.20000 5.108
71.22000 3.402
71.24000 1.758
71.26000 2.235
71.28000 4.464
71.30000 2.502
71.32000 2.376
71.34000 -0.582
71.36000 -2.271
71.38000 -1.134
71.40000 0.498
71.42000 2.686
71.44000 2.322
71.46000 0.518
71.48000 0.725
71.50000 0.181
71.52000 3.432
71.54000 4.625
71.56000 1.919
71.58000 0.985
71.60000 3.408
71.62000 2.394
71.64000 -0.790
71.66000 -1.931
71.68000 0.089
71.70000 1.578
71.72000 2.232
71.74000 1.120
71.76000 -0.057
71.78000 3.658
71.80000 0.365
71.82000 0.282
71.84000 2.221
71.86000 4.623
71.88000 3.867
71.90000 3.012
71.92000 0.948
71.94000 2.359
71.96000 3.443
71.98000 3.097
72.00000 -2.208
72.02000 0.984
72.04000 2.944
72.06000 1.915
72.08000 1.397
72.10000 0.779
72.12000 2.711
72.14000 5.017
72.16000 5.717
72.18000 4.360
72.20000 -1.039
72.22000 -0.674
72.24000 -2.230
72.26000 1.218
72.28000 1.935
72.30000 1.137
72.32000 0.674
72.34000 2.876
72.36000 3.393
72.38000 2.116
72.40000 0.432
72.42000 1.893
72.44000 1.818
72.46000 3.348
72.48000 3.370
72.50000 2.691
72.52000 0.333
72.54000 0.088
72.56000 5.448
72.58000 5.803
72.60000 3.708
72.62000 2.544
72.64000 0.573
72.66000 3.000
72.68000 2.217
72.70000 2.850
72.72000 4.026
72.74000 1.548
72.76000 3.488
72.78000 3.462
72.80000 4.833
72.82000 2.838
72.84000 -2.220
72.86000 -1.930
72.88000 -0.366
72.90000 3.147
72.92000 2.147
72.94000 2.199
72.96000 1.685
72.98000 -0.501
73.00000 0.043
73.02000 -1.021
73.04000 -0.301
73.06000 0.696
73.08000 1.789
73.10000 -0.250
73.12000 2.215
73.14000 -0.153
73.16000 -1.358
73.18000 2.624
73.20000 1.607
73.22000 0.793
73.24000 2.153
73.26000 5.289
73.28000 3.007
73.30000 3.913
73.32000 0.292
73.34000 -1.357
73.36000 0.254
73.38000 1.946
73.40000 0.926
73.42000 2.646
73.44000 1.226
73.46000 2.777
73.48000 2.679
73.50000 5.782
73.52000 2.433
73.54000 -0.860
73.56000 1.456
73.58000 3.713
73.60000 -0.329
73.62000 2.874
73.64000 4.003
73.66000 3.506
73.68000 -0.541
73.70000 -0.296
73.72000 0.826
73.74000 1.588
73.76000 1.637
73.78000 8.070
73.80000 5.439
73.82000 3.391
73.84000 1.864
73.86000 -1.406
73.88000 1.273
73.90000 0.089
73.92000 3.113
73.94000 3.812
73.96000 6.947
73.98000 2.030
74.00000 2.687
74.02000 2.101
74.04000 -2.198
74.06000 -2.045
74.08000 1.333
74.10000 2.779
74.12000 1.512
74.14000 1.400
74.16000 1.945
74.18000 -2.169
74.20000 0.818
74.22000 2.033
74.24000 1.834
74.26000 1.734
74.28000 1.366
74.30000 2.198
74.32000 2.489
74.34000 4.409
74.36000 3.729
74.38000 3.485
74.40000 4.921
74.42000 2.330
74.44000 0.729
74.46000 0.168
74.48000 1.083
74.50000 3.547
74.52000 2.863
74.54000 2.242
74.56000 -1.232
74.58000 1.175
74.60000 2.263
74.62000 0.335
74.64000 0.312
74.66000 3.273
74.68000 -0.279
74.70000 2.116
74.72000 0.737
74.74000 2.637
74.76000 1.371
74.78000 1.116
74.80000 1.448
74.82000 -1.060
74.84000 1.886
74.86000 4.100
74.88000 2.271
74.90000 -1.138
74.92000 1.755
74.94000 3.303
74.96000 2.385
74.98000 -0.652
75.00000 -2.168
75.02000 -1.694
75.04000 4.658
75.06000 9.095
75.08000 1.055
75.10000 4.206
75.12000 4.963
75.14000 4.026
75.16000 3.523
75.18000 3.421
75.20000 3.617
75.22000 5.661
75.24000 3.941
75.26000 4.762
75.28000 2.509
75.30000 2.069
75.32000 4.939
75.34000 7.048
75.36000 4.096
75.38000 5.969
75.40000 6.380
75.42000 5.039
75.44000 5.976
75.46000 7.003
75.48000 7.814
75.50000 5.098
75.52000 6.432
75.54000 8.432
75.56000 3.639
75.58000 3.246
75.60000 3.109
75.62000 2.622
75.64000 -0.544
75.66000 -2.148
75.68000 0.854
75.70000 4.455
75.72000 5.794
75.74000 5.874
75.76000 8.949
75.78000 5.667
75.80000 2.175
75.82000 5.460
75.84000 5.657
75.86000 4.220
75.88000 4.006
75.90000 0.413
75.92000 4.799
75.94000 6.791
75.96000 4.360
75.98000 4.100
76.00000 3.559
76.02000 5.984
76.04000 6.877
76.06000 2.435
76.08000 4.762
76.10000 3.177
76.12000 3.035
76.14000 2.880
76.16000 0.918
76.18000 2.557
76.20000 8.342
76.22000 3.079
76.24000 1.014
76.26000 2.440
76.28000 1.350
76.30000 3.678
76.32000 6.658
76.34000 6.557
76.36000 0.164
76.38000 -0.505
76.40000 0.777
76.42000 1.136
76.44000 3.948
76.46000 0.658
76.48000 2.839
76.50000 4.640
76.52000 2.752
76.54000 -1.725
76.56000 -1.890
76.58000 -1.224
76.60000 -2.217
76.62000 -0.098
76.64000 3.816
76.66000 -0.463
76.68000 5.573
76.70000 5.883
76.72000 2.971
76.74000 1.801
76.76000 1.035
76.78000 0.922
76.80000 3.933
76.82000 5.902
76.84000 0.937
76.86000 0.706
76.88000 2.379
76.90000 7.422
76.92000 7.316
76.94000 0.715
76.96000 2.139
76.98000 2.793
77.00000 6.904
77.02000 6.426
77.04000 1.853
77.06000 2.455
77.08000 -1.111
77.10000 -1.239
77.12000 -0.334
77.14000 -0.409
77.16000 1.955
77.18000 -1.181
77.20000 -1.637
77.22000 1.676
77.24000 2.520
77.26000 0.839
77.28000 2.837
77.30000 5.948
77.32000 3.312
77.34000 6.535
77.36000 1.348
77.38000 0.356
77.40000 -2.239
77.42000 -0.968
77.44000 1.286
77.46000 1.282
77.48000 3.274
77.50000 2.678
77.52000 2.309
77.54000 3.885
77.56000 5.514
77.58000 3.085
77.60000 0.288
77.62000 -1.032
77.64000 0.958
77.66000 0.938
77.68000 -0.090
77.70000 0.788
77.72000 1.070
77.74000 2.081
77.76000 -0.635
77.78000 0.392
77.80000 3.523
77.82000 5.002
77.84000 2.339
77.86000 2.045
77.88000 4.917
77.90000 4.569
77.92000 1.768
77.94000 -0.497
77.96000 2.486
77.98000 2.437
78.00000 3.716
78.02000 4.236
78.04000 0.994
78.06000 1.845
78.08000 1.077
78.10000 3.628
78.12000 3.505
78.14000 0.845
78.16000 -0.238
78.18000 4.702
78.20000 3.662
78.22000 5.247
78.24000 5.191
78.26000 1.331
78.28000 -1.115
78.30000 1.237
78.32000 4.500
78.34000 2.255
78.36000 -2.238
78.38000 -0.357
78.40000 5.025
78.42000 2.096
78.44000 -1.569
78.46000 2.684
78.48000 4.017
78.50000 3.534
78.52000 2.301
78.54000 4.684
78.56000 3.780
78.58000 2.353
78.60000 -0.027
78.62000 1.152
78.64000 3.025
78.66000 6.497
78.68000 5.707
78.70000 -0.348
78.72000 1.900
78.74000 3.065
78.76000 1.970
78.78000 -1.490
78.80000 -1.324
78.82000 1.925
78.84000 -1.582
78.86000 0.711
78.88000 1.711
78.90000 1.036
78.92000 2.017
78.94000 1.051
78.96000 -1.133
78.98000 0.728
79.00000 2.182
79.02000 0.578
79.04000 -0.398
79.06000 -0.741
79.08000 1.647
79.10000 3.865
79.12000 1.313
79.14000 0.458
79.16000 3.166
79.18000 2.538
79.20000 4.971
79.22000 0.771
79.24000 -0.809
79.26000 1.381
79.28000 -2.327
79.30000 -1.254
79.32000 4.235
79.34000 9.914
79.36000 6.374
79.38000 -1.173
79.40000 -2.257
79.42000 0.330
79.44000 -1.509
79.46000 0.118
79.48000 1.981
79.50000 -0.404
79.52000 1.786
79.54000 5.069
79.56000 0.220
79.58000 1.090
79.60000 3.863
79.62000 3.668
79.64000 2.011
79.66000 2.086
79.68000 3.156
79.70000 5.318
79.72000 5.219
79.74000 5.785
79.76000 2.636
79.78000 -2.376
79.80000 -2.173
79.82000 2.217
79.84000 -0.839
79.86000 0.246
79.88000 3.047
79.90000 4.513
79.92000 4.523
79.94000 5.461
79.96000 1.181
79.98000 -0.733
80.00000 -0.989
80.02000 -0.472
80.04000 2.513
80.06000 6.898
80.08000 1.339
80.10000 0.947
80.12000 -1.410
80.14000 -0.099
80.16000 2.073
80.18000 6.948
80.20000 5.315
80.22000 4.129
80.24000 4.062
80.26000 4.110
80.28000 8.896
80.30000 5.357
80.32000 1.306
80.34000 -2.425
80.36000 2.332
80.38000 6.233
80.40000 4.481
80.42000 4.901
80.44000 2.567
80.46000 4.828
80.48000 1.974
80.50000 0.579
80.52000 4.432
80.54000 4.160
80.56000 7.879
80.58000 8.929
80.60000 1.656
80.62000 3.085
80.64000 4.337
80.66000 5.626
80.68000 6.026
80.70000 4.390
80.72000 4.702
80.74000 4.759
80.76000 7.238
80.78000 7.474
80.80000 7.556
80.82000 6.328
80.84000 5.069
80.86000 7.279
80.88000 4.980
80.90000 3.564
80.92000 2.379
80.94000 1.409
80.96000 5.308
80.98000 3.949
81.00000 5.099
81.02000 4.310
81.04000 6.965
81.06000 6.877
81.08000 4.151
81.10000 11.250
81.12000 10.951
81.14000 9.180
81.16000 8.969
81.18000 10.865
81.20000 10.251
81.22000 9.177
81.24000 11.244
81.26000 6.652
81.28000 8.478
81.30000 10.468
81.32000 12.433
81.34000 12.526
81.36000 14.234
81.38000 16.255
81.40000 14.144
81.42000 13.823
81.44000 16.711
81.46000 14.409
81.48000 12.207
81.50000 17.277
81.52000 16.320
81.54000 18.152
81.56000 18.051
81.58000 13.648
81.60000 11.742
81.62000 16.372
81.64000 9.768
81.66000 13.802
81.68000 20.234
81.70000 23.084
81.72000 23.498
81.74000 24.854
81.76000 24.325
81.78000 18.945
81.80000 20.228
81.82000 23.308
81.84000 25.339
81.86000 22.119
81.88000 26.401
81.90000 24.274
81.92000 26.011
81.94000 25.796
81.96000 22.443
81.98000 21.914
82.00000 22.185
82.02000 27.917
82.04000 30.917
82.06000 30.657
82.08000 29.636
82.10000 26.757
82.12000 26.842
82.14000 28.332
82.16000 28.334
82.18000 31.663
82.20000 30.314
82.22000 32.562
82.24000 32.451
82.26000 31.535
82.28000 29.451
82.30000 28.689
82.32000 29.161
82.34000 32.814
82.36000 28.919
82.38000 27.806
82.40000 28.181
82.42000 29.228
82.44000 28.734
82.46000 30.018
82.48000 30.878
82.50000 32.719
82.52000 23.579
82.54000 24.158
82.56000 24.597
82.58000 27.268
82.60000 28.714
82.62000 32.413
82.64000 28.089
82.66000 21.832
82.68000 22.736
82.70000 24.766
82.72000 22.747
82.74000 25.467
82.76000 26.462
82.78000 24.608
82.80000 23.358
82.82000 19.427
82.84000 18.161
82.86000 20.559
82.88000 18.502
82.90000 19.888
82.92000 16.910
82.94000 18.207
82.96000 15.729
82.98000 12.288
83.00000 12.126
83.02000 15.852
83.04000 16.155
83.06000 10.335
83.08000 7.164
83.10000 10.951
83.12000 14.927
83.14000 8.825
83.16000 8.624
83.18000 9.175
83.20000 10.636
83.22000 11.855
83.24000 10.412
83.26000 8.403
83.28000 7.869
83.30000 3.120
83.32000 4.201
83.34000 7.305
83.36000 7.680
83.38000 8.481
83.40000 7.427
83.42000 4.821
83.44000 2.201
83.46000 5.214
83.48000 6.552
83.50000 4.402
83.52000 3.165
83.54000 2.519
83.56000 -0.043
83.58000 1.896
83.60000 2.866
83.62000 0.754
83.64000 -0.650
83.66000 1.218
83.68000 1.399
83.70000 0.122
83.72000 -2.455
83.74000 3.816
83.76000 6.198
83.78000 3.623
83.80000 0.505
83.82000 1.497
83.84000 1.918
83.86000 0.060
83.88000 -1.423
83.90000 -0.854
83.92000 -1.524
83.94000 -1.871
83.96000 -1.149
83.98000 -0.010
84.00000 5.596
84.02000 4.781
84.04000 2.683
84.06000 1.621
84.08000 2.022
84.10000 3.199
84.12000 4.307
84.14000 1.006
84.16000 -1.863
84.18000 -0.065
84.20000 1.085
84.22000 -0.925
84.24000 0.956
84.26000 3.664
84.28000 1.138
84.30000 -0.233
84.32000 -2.131
84.34000 1.700
84.36000 2.583
84.38000 6.149
84.40000 1.721
84.42000 -2.379
84.44000 -0.485
84.46000 1.921
84.48000 -0.879
84.50000 3.305
84.52000 -0.721
84.54000 -0.465
84.56000 5.041
84.58000 4.128
84.60000 2.364
84.62000 2.737
84.64000 0.735
84.66000 2.112
84.68000 -0.013
84.70000 -2.344
84.72000 -0.425
84.74000 0.997
84.76000 -0.373
84.78000 1.119
84.80000 2.733
84.82000 0.008
84.84000 3.652
84.86000 2.191
84.88000 4.597
84.90000 1.144
84.92000 0.070
84.94000 3.243
84.96000 2.219
84.98000 -2.354
85.00000 -1.545
85.02000 3.129
85.04000 -1.531
85.06000 1.562
85.08000 2.680
85.10000 4.921
85.12000 6.102
85.14000 3.322
85.16000 0.702
85.18000 3.780
85.20000 4.660
85.22000 5.756
85.24000 4.770
85.26000 5.098
85.28000 6.364
85.30000 3.442
85.32000 3.429
85.34000 0.103
85.36000 4.471
85.38000 3.632
85.40000 5.169
85.42000 3.979
85.44000 6.565
85.46000 8.191
85.48000 9.847
85.50000 6.152
85.52000 6.153
85.54000 8.254
85.56000 8.625
85.58000 6.288
85.60000 2.254
85.62000 6.750
85.64000 12.768
85.66000 15.892
85.68000 16.619
85.70000 12.195
85.72000 10.700
85.74000 12.675
85.76000 15.065
85.78000 14.475
85.80000 6.632
85.82000 13.036
85.84000 17.172
85.86000 15.888
85.88000 14.078
85.90000 11.817
85.92000 12.475
85.94000 14.204
85.96000 14.281
85.98000 19.482
86.00000 18.543
86.02000 15.616
86.04000 22.768
86.06000 22.314
86.08000 19.602
86.10000 22.899
86.12000 21.236
86.14000 18.531
86.16000 26.146
86.18000 25.304
86.20000 22.474
86.22000 21.056
86.24000 21.670
86.26000 21.439
86.28000 19.947
86.30000 27.378
86.32000 20.735
86.34000 23.810
86.36000 25.901
86.38000 25.864
86.40000 27.337
86.42000 23.717
86.44000 27.730
86.46000 21.766
86.48000 21.681
86.50000 23.596
86.52000 20.687
86.54000 25.226
86.56000 24.532
86.58000 20.772
86.60000 17.906
86.62000 19.272
86.64000 22.646
86.66000 19.510
86.68000 18.629
86.70000 20.813
86.72000 16.456
86.74000 14.993
86.76000 19.173
86.78000 17.435
86.80000 18.082
86.82000 16.595
86.84000 11.733
86.86000 15.140
86.88000 20.141
86.90000 19.584
86.92000 21.231
86.94000 11.756
86.96000 14.071
86.98000 14.444
87.00000 11.369
87.02000 12.076
87.04000 18.142
87.06000 12.588
87.08000 8.598
87.10000 14.307
87.12000 11.004
87.14000 11.808
87.16000 8.445
87.18000 14.982
87.20000 18.694
87.22000 11.017
87.24000 13.637
87.26000 9.849
87.28000 4.503
87.30000 3.080
87.32000 3.600
87.34000 2.717
87.36000 4.536
87.38000 6.838
87.40000 10.448
87.42000 11.074
87.44000 4.155
87.46000 4.192
87.48000 4.337
87.50000 2.503
87.52000 5.203
87.54000 6.544
87.56000 6.028
87.58000 1.362
87.60000 -2.258
87.62000 1.107
87.64000 1.192
87.66000 -0.990
87.68000 0.925
87.70000 1.596
87.72000 1.368
87.74000 2.312
87.76000 2.580
87.78000 1.819
87.80000 2.651
87.82000 3.310
87.84000 0.375
87.86000 0.623
87.88000 2.528
87.90000 1.743
87.92000 -0.725
87.94000 4.670
87.96000 5.702
87.98000 6.936
88.00000 5.921
88.02000 4.511
88.04000 4.422
88.06000 2.309
88.08000 2.417
88.10000 -0.042
88.12000 -1.024
88.14000 6.182
88.16000 -1.513
88.18000 0.019
88.20000 -2.172
88.22000 2.324
88.24000 4.567
88.26000 3.382
88.28000 2.881
88.30000 2.625
88.32000 -0.068
88.34000 -0.506
88.36000 1.477
88.38000 4.125
88.40000 3.289
88.42000 2.945
88.44000 1.404
88.46000 1.651
88.48000 3.225
88.50000 4.509
88.52000 4.196
88.54000 -0.173
88.56000 0.971
88.58000 2.446
88.60000 4.724
88.62000 4.852
88.64000 2.285
88.66000 1.961
88.68000 0.208
88.70000 -2.110
88.72000 0.117
88.74000 2.468
88.76000 -1.676
88.78000 -1.089
88.80000 0.133
88.82000 2.205
88.84000 2.065
88.86000 0.689
88.88000 1.975
88.90000 2.687
88.92000 -0.308
88.94000 0.663
88.96000 3.910
88.98000 4.165
89.00000 2.700
89.02000 5.374
89.04000 2.885
89.06000 0.770
89.08000 1.957
89.10000 -2.116
89.12000 -1.900
89.14000 -1.044
89.16000 1.407
89.18000 2.713
89.20000 2.091
89.22000 2.463
89.24000 5.366
89.26000 4.688
89.28000 1.269
89.30000 -0.224
89.32000 -1.511
89.34000 0.983
89.36000 2.392
89.38000 2.343
89.40000 1.835
89.42000 2.210
89.44000 3.374
89.46000 1.045
89.48000 -1.438
89.50000 0.117
89.52000 0.632
89.54000 2.706
89.56000 1.123
89.58000 1.610
89.60000 -0.688
89.62000 0.330
89.64000 -0.490
89.66000 -0.356
89.68000 6.190
89.70000 2.966
89.72000 0.768
89.74000 2.862
89.76000 2.383
89.78000 2.363
89.80000 1.606
89.82000 4.449
89.84000 3.194
89.86000 -2.100
89.88000 -1.664
89.90000 -2.099
89.92000 0.308
89.94000 -0.366
89.96000 -0.324
89.98000 -0.610
90.00000 0.937
90.02000 3.032
90.04000 2.752
90.06000 4.217
90.08000 4.787
90.10000 6.962
90.12000 1.828
90.14000 4.792
90.16000 -0.708
90.18000 1.590
90.20000 0.945
90.22000 5.111
90.24000 2.373
90.26000 3.699
90.28000 5.292
90.30000 4.282
90.32000 4.567
90.34000 2.397
90.36000 1.784
90.38000 2.926
90.40000 -0.321
90.42000 -0.446
90.44000 2.530
90.46000 2.878
90.48000 1.091
90.50000 -0.221
90.52000 1.303
90.54000 -2.096
90.56000 0.186
90.58000 2.929
90.60000 5.599
90.62000 2.954
90.64000 2.777
90.66000 0.811
90.68000 2.306
90.70000 1.052
90.72000 2.476
90.74000 3.190
90.76000 4.474
90.78000 -1.070
90.80000 -1.959
90.82000 1.347
90.84000 -0.634
90.86000 0.178
90.88000 4.125
90.90000 5.716
90.92000 -1.905
90.94000 0.997
90.96000 5.599
90.98000 2.414
91.00000 0.869
91.02000 -1.710
91.04000 -0.365
91.06000 0.842
91.08000 4.030
91.10000 5.385
91.12000 6.816
91.14000 8.136
91.16000 5.852
91.18000 0.295
91.20000 -2.065
91.22000 0.821
91.24000 6.220
91.26000 7.779
91.28000 6.136
91.30000 5.170
91.32000 3.212
91.34000 0.794
91.36000 1.948
91.38000 -0.180
91.40000 2.002
91.42000 -0.030
91.44000 0.837
91.46000 5.478
91.48000 7.572
91.50000 3.463
91.52000 1.542
91.54000 0.432
91.56000 1.146
91.58000 3.128
91.60000 2.033
91.62000 5.106
91.64000 5.298
91.66000 4.265
91.68000 5.135
91.70000 1.699
91.72000 5.015
91.74000 3.529
91.76000 0.413
91.78000 1.421
91.80000 5.060
91.82000 4.744
91.84000 5.205
91.86000 2.471
91.88000 6.092
91.90000 2.089
91.92000 1.904
91.94000 5.407
91.96000 4.334
91.98000 3.469
92.00000 6.595
92.02000 4.849
92.04000 3.302
92.06000 1.421
92.08000 4.319
92.10000 4.618
92.12000 3.548
92.14000 -0.452
92.16000 6.011
92.18000 9.862
92.20000 9.039
92.22000 4.327
92.24000 -2.054
92.26000 -1.841
92.28000 6.771
92.30000 4.832
92.32000 3.534
92.34000 5.262
92.36000 5.424
92.38000 8.703
92.40000 5.882
92.42000 6.808
92.44000 7.241
92.46000 7.903
92.48000 4.099
92.50000 1.695
92.52000 2.817
92.54000 0.984
92.56000 5.594
92.58000 7.642
92.60000 7.421
92.62000 8.166
92.64000 5.169
92.66000 3.267
92.68000 8.772
92.70000 5.713
92.72000 1.754
92.74000 0.828
92.76000 0.714
92.78000 3.001
92.80000 7.677
92.82000 5.873
92.84000 -1.635
92.86000 3.838
92.88000 6.504
92.90000 4.466
92.92000 1.642
92.94000 4.736
92.96000 3.765
92.98000 3.414
93.00000 4.634
93.02000 -2.087
93.04000 1.127
93.06000 1.510
93.08000 4.146
93.10000 3.713
93.12000 8.531
93.14000 -0.346
93.16000 1.658
93.18000 3.753
93.20000 4.078
93.22000 2.803
93.24000 0.157
93.26000 2.809
93.28000 3.051
93.30000 2.863
93.32000 -0.676
93.34000 0.657
93.36000 2.148
93.38000 0.173
93.40000 3.092
93.42000 0.330
93.44000 2.551
93.46000 5.190
93.48000 7.407
93.50000 2.168
93.52000 -0.748
93.54000 -2.107
93.56000 -0.370
93.58000 3.706
93.60000 3.291
93.62000 1.737
93.64000 0.077
93.66000 -1.157
93.68000 2.285
93.70000 1.706
93.72000 1.817
93.74000 3.983
93.76000 4.270
93.78000 5.632
93.80000 4.100
93.82000 2.236
93.84000 4.794
93.86000 3.436
93.88000 1.916
93.90000 0.710
93.92000 2.552
93.94000 -0.169
93.96000 -2.109
93.98000 2.579
94.00000 1.977
94.02000 2.561
94.04000 5.259
94.06000 0.250
94.08000 0.407
94.10000 2.526
94.12000 3.488
94.14000 2.122
94.16000 0.705
94.18000 2.397
94.20000 1.759
94.22000 8.303
94.24000 6.598
94.26000 1.892
94.28000 -1.197
94.30000 1.854
94.32000 -1.005
94.34000 -1.456
94.36000 1.870
94.38000 4.745
94.40000 3.909
94.42000 2.520
94.44000 4.503
94.46000 6.240
94.48000 4.248
94.50000 3.046
94.52000 -0.295
94.54000 -0.161
94.56000 1.509
94.58000 2.152
94.60000 1.275
94.62000 2.362
94.64000 3.254
94.66000 5.940
94.68000 8.916
94.70000 5.436
94.72000 4.068
94.74000 5.896
94.76000 5.964
94.78000 5.117
94.80000 2.848
94.82000 4.920
94.84000 5.116
94.86000 1.318
94.88000 -2.109
94.90000 3.208
94.92000 6.200
94.94000 3.609
94.96000 2.536
94.98000 1.503
95.00000 0.922
95.02000 2.240
95.04000 3.642
95.06000 -0.447
95.08000 0.629
95.10000 1.240
95.12000 1.833
95.14000 3.703
95.16000 1.196
95.18000 5.984
95.20000 6.687
95.22000 4.869
95.24000 3.715
95.26000 2.950
95.28000 2.960
95.30000 3.547
95.32000 3.529
95.34000 2.510
95.36000 3.031
95.38000 0.574
95.40000 2.853
95.42000 4.118
95.44000 1.039
95.46000 2.288
95.48000 7.518
95.50000 8.108
95.52000 3.321
95.54000 5.481
95.56000 5.211
95.58000 3.717
95.60000 2.201
95.62000 2.738
95.64000 0.011
95.66000 2.584
95.68000 3.943
95.70000 8.014
95.72000 6.814
95.74000 7.443
95.76000 6.060
95.78000 3.096
95.80000 6.326
95.82000 7.063
95.84000 -0.165
95.86000 -0.736
95.88000 6.553
95.90000 10.060
95.92000 4.118
95.94000 2.357
95.96000 4.206
95.98000 2.589
96.00000 -2.080
96.02000 -0.630
96.04000 4.463
96.06000 7.270
96.08000 4.955
96.10000 0.751
96.12000 0.061
96.14000 -1.438
96.16000 2.293
96.18000 4.999
96.20000 6.786
96.22000 4.519
96.24000 -0.807
96.26000 4.753
96.28000 1.978
96.30000 -1.151
96.32000 -0.366
96.34000 5.188
96.36000 1.341
96.38000 3.249
96.40000 9.106
96.42000 7.841
96.44000 3.340
96.46000 2.302
96.48000 2.985
96.50000 4.622
96.52000 6.922
96.54000 7.614
96.56000 1.948
96.58000 -0.800
96.60000 -0.345
96.62000 -0.876
96.64000 7.023
96.66000 7.064
96.68000 6.338
96.70000 4.196
96.72000 1.613
96.74000 4.304
96.76000 3.264
96.78000 7.199
96.80000 1.554
96.82000 -0.002
96.84000 4.214
96.86000 1.405
96.88000 3.002
96.90000 5.563
96.92000 3.902
96.94000 3.119
96.96000 -0.505
96.98000 -2.098
97.00000 2.025
97.02000 1.388
97.04000 5.140
97.06000 4.596
97.08000 4.854
97.10000 6.112
97.12000 4.336
97.14000 6.512
97.16000 2.348
97.18000 3.973
97.20000 3.632
97.22000 2.165
97.24000 -1.293
97.26000 1.715
97.28000 1.170
97.30000 1.060
97.32000 1.466
97.34000 3.328
97.36000 1.264
97.38000 1.845
97.40000 6.715
97.42000 7.659
97.44000 4.056
97.46000 6.132
97.48000 8.042
97.50000 9.227
97.52000 12.511
97.54000 4.198
97.56000 1.188
97.58000 6.196
97.60000 4.677
97.62000 2.186
97.64000 1.949
97.66000 3.797
97.68000 5.939
97.70000 2.450
97.72000 2.176
97.74000 4.172
97.76000 0.124
97.78000 2.789
97.80000 3.534
97.82000 0.403
97.84000 -0.422
97.86000 4.536
97.88000 6.455
97.90000 0.248
97.92000 1.238
97.94000 -2.043
97.96000 -1.821
97.98000 1.756
98.00000 4.606
98.02000 2.847
98.04000 1.306
98.06000 3.440
98.08000 7.181
98.10000 10.253
98.12000 9.154
98.14000 8.500
98.16000 7.980
98.18000 6.912
98.20000 2.240
98.22000 6.917
98.24000 1.360
98.26000 0.578
98.28000 4.309
98.30000 10.613
98.32000 5.947
98.34000 4.181
98.36000 9.004
98.38000 9.301
98.40000 6.062
98.42000 3.568
98.44000 3.949
98.46000 10.949
98.48000 8.027
98.50000 12.823
98.52000 8.114
98.54000 3.558
98.56000 9.250
98.58000 5.861
98.60000 6.078
98.62000 16.362
98.64000 8.186
98.66000 15.175
98.68000 8.434
98.70000 -1.981
98.72000 1.420
98.74000 3.367
98.76000 7.132
98.78000 17.756
98.80000 14.430
98.82000 7.560
98.84000 6.772
98.86000 7.666
98.88000 10.547
98.90000 7.484
98.92000 4.804
98.94000 6.299
98.96000 9.773
98.98000 12.744
99.00000 7.914
99.02000 10.429
99.04000 8.787
99.06000 6.306
99.08000 5.158
99.10000 7.071
99.12000 -0.553
99.14000 6.581
99.16000 7.159
99.18000 1.967
99.20000 5.779
99.22000 7.850
99.24000 5.163
99.26000 9.921
99.28000 12.163
99.30000 4.504
99.32000 7.867
99.34000 2.157
99.36000 6.842
99.38000 6.726
99.40000 8.544
99.42000 15.597
99.44000 16.042
99.46000 7.431
99.48000 7.161
99.50000 5.196
99.52000 7.891
99.54000 8.591
99.56000 10.584
99.58000 0.201
99.60000 2.574
99.62000 7.317
99.64000 -3.466
99.66000 2.946
99.68000 4.299
99.70000 1.543
99.72000 3.984
99.74000 7.225
99.76000 6.092
99.78000 0.113
99.80000 7.135
99.82000 9.074
99.84000 1.214
99.86000 -2.561
99.88000 7.980
99.90000 9.821
99.92000 9.397
99.94000 8.994
99.96000 4.084
99.98000 0.000
