'Id: "0011387" Comment: "Integrate frame 0011387_Au-Ir-Rh_Rh-rich_XRD-Mapping-329-0000.gfrmwith cursor Wedge Cursor #5" Operator: "B?rgel" Anode: "Cu" Wavelength: "1.5406" Scantype: "2Theta (TwoTheta)" TimePerStep: "1" X: "0" Y: "40.5" Z: "5.95" 
10.00000 0.000
10.02000 -4.462
10.04000 -4.389
10.06000 -0.254
10.08000 -4.344
10.10000 7.343
10.12000 20.809
10.14000 38.403
10.16000 27.026
10.18000 16.065
10.20000 -4.289
10.22000 0.444
10.24000 5.371
10.26000 11.620
10.28000 22.703
10.30000 15.862
10.32000 22.081
10.34000 19.725
10.36000 24.851
10.38000 10.850
10.40000 5.233
10.42000 16.134
10.44000 9.677
10.46000 9.591
10.48000 15.293
10.50000 6.325
10.52000 7.220
10.54000 16.147
10.56000 15.619
10.58000 26.035
10.60000 24.016
10.62000 19.165
10.64000 16.927
10.66000 9.765
10.68000 20.543
10.70000 22.174
10.72000 9.796
10.74000 2.497
10.76000 8.606
10.78000 6.083
10.80000 5.596
10.82000 14.765
10.84000 9.994
10.86000 6.841
10.88000 15.632
10.90000 25.893
10.92000 27.796
10.94000 26.384
10.96000 26.840
10.98000 20.824
11.00000 13.811
11.02000 20.010
11.04000 12.092
11.06000 19.191
11.08000 14.208
11.10000 14.111
11.12000 12.615
11.14000 16.112
11.16000 12.143
11.18000 11.174
11.20000 13.067
11.22000 31.839
11.24000 24.586
11.26000 21.904
11.28000 13.189
11.30000 18.454
11.32000 14.380
11.34000 13.849
11.36000 9.690
11.38000 12.778
11.40000 20.699
11.42000 28.744
11.44000 18.433
11.46000 10.600
11.48000 11.466
11.50000 7.605
11.52000 -1.879
11.54000 8.686
11.56000 14.375
11.58000 14.307
11.60000 19.829
11.62000 34.170
11.64000 19.460
11.66000 10.533
11.68000 10.068
11.70000 -2.583
11.72000 -3.837
11.74000 17.950
11.76000 21.871
11.78000 14.999
11.80000 9.967
11.82000 6.970
11.84000 13.529
11.86000 9.867
11.88000 11.960
11.90000 10.097
11.92000 9.999
11.94000 18.616
11.96000 10.864
11.98000 12.289
12.00000 -0.017
12.02000 -1.668
12.04000 11.279
12.06000 4.711
12.08000 9.926
12.10000 17.156
12.12000 13.748
12.14000 8.892
12.16000 21.469
12.18000 12.988
12.20000 6.388
12.22000 7.618
12.24000 0.592
12.26000 9.288
12.28000 19.568
12.30000 20.874
12.32000 20.563
12.34000 17.949
12.36000 17.044
12.38000 5.474
12.40000 18.106
12.42000 15.011
12.44000 6.650
12.46000 11.076
12.48000 13.597
12.50000 9.814
12.52000 21.677
12.54000 15.132
12.56000 5.738
12.58000 14.446
12.60000 16.989
12.62000 2.715
12.64000 2.304
12.66000 8.058
12.68000 2.791
12.70000 4.544
12.72000 7.019
12.74000 18.925
12.76000 14.947
12.78000 4.651
12.80000 2.280
12.82000 4.617
12.84000 5.710
12.86000 13.181
12.88000 13.717
12.90000 7.070
12.92000 9.148
12.94000 7.838
12.96000 1.474
12.98000 6.779
13.00000 16.645
13.02000 11.627
13.04000 8.566
13.06000 6.456
13.08000 0.736
13.10000 4.082
13.12000 7.875
13.14000 14.466
13.16000 9.225
13.18000 8.118
13.20000 11.019
13.22000 12.472
13.24000 17.525
13.26000 5.323
13.28000 11.595
13.30000 10.367
13.32000 3.742
13.34000 6.606
13.36000 8.701
13.38000 10.048
13.40000 13.960
13.42000 10.470
13.44000 3.836
13.46000 6.699
13.48000 5.986
13.50000 0.050
13.52000 7.912
13.54000 10.445
13.56000 11.644
13.58000 11.912
13.60000 10.719
13.62000 8.421
13.64000 0.353
13.66000 9.953
13.68000 20.503
13.70000 16.734
13.72000 20.400
13.74000 24.056
13.76000 8.346
13.78000 9.338
13.80000 1.427
13.82000 4.200
13.84000 12.320
13.86000 14.001
13.88000 19.320
13.90000 14.336
13.92000 11.835
13.94000 15.260
13.96000 13.413
13.98000 5.952
14.00000 3.255
14.02000 9.053
14.04000 17.728
14.06000 15.617
14.08000 7.618
14.10000 -0.550
14.12000 12.175
14.14000 18.163
14.16000 8.418
14.18000 12.572
14.20000 9.721
14.22000 8.849
14.24000 10.388
14.26000 16.369
14.28000 8.759
14.30000 1.392
14.32000 10.992
14.34000 8.133
14.36000 -2.425
14.38000 4.579
14.40000 6.354
14.42000 5.145
14.44000 3.124
14.46000 7.162
14.48000 19.751
14.50000 8.767
14.52000 8.871
14.54000 -0.868
14.56000 13.578
14.58000 14.555
14.60000 8.391
14.62000 -1.841
14.64000 -4.490
14.66000 0.019
14.68000 1.526
14.70000 2.988
14.72000 3.007
14.74000 10.718
14.76000 2.690
14.78000 12.044
14.80000 21.404
14.82000 19.059
14.84000 8.696
14.86000 7.171
14.88000 3.361
14.90000 1.270
14.92000 14.277
14.94000 23.112
14.96000 14.657
14.98000 4.993
15.00000 4.958
15.02000 10.858
15.04000 6.171
15.06000 15.412
15.08000 10.323
15.10000 13.379
15.12000 15.728
15.14000 11.658
15.16000 7.572
15.18000 10.985
15.20000 17.563
15.22000 10.169
15.24000 -4.464
15.26000 6.353
15.28000 10.796
15.30000 5.431
15.32000 9.841
15.34000 20.012
15.36000 12.001
15.38000 4.990
15.40000 8.739
15.42000 10.231
15.44000 11.118
15.46000 4.234
15.48000 8.985
15.50000 22.289
15.52000 18.295
15.54000 8.944
15.56000 6.326
15.58000 4.924
15.60000 5.651
15.62000 5.935
15.64000 4.428
15.66000 6.353
15.68000 12.900
15.70000 8.102
15.72000 6.194
15.74000 10.430
15.76000 6.826
15.78000 10.598
15.80000 12.590
15.82000 13.360
15.84000 11.611
15.86000 11.442
15.88000 10.026
15.90000 11.807
15.92000 11.916
15.94000 7.316
15.96000 5.816
15.98000 12.253
16.00000 4.330
16.02000 3.661
16.04000 0.514
16.06000 8.070
16.08000 6.232
16.10000 1.383
16.12000 -0.360
16.14000 3.866
16.16000 3.301
16.18000 7.293
16.20000 6.534
16.22000 8.265
16.24000 12.152
16.26000 6.160
16.28000 6.661
16.30000 12.412
16.32000 10.856
16.34000 4.977
16.36000 7.889
16.38000 2.949
16.40000 7.040
16.42000 14.466
16.44000 9.439
16.46000 -1.182
16.48000 -4.444
16.50000 3.431
16.52000 12.393
16.54000 13.744
16.56000 13.343
16.58000 5.560
16.60000 6.428
16.62000 10.703
16.64000 9.778
16.66000 3.772
16.68000 4.707
16.70000 0.680
16.72000 -2.780
16.74000 2.656
16.76000 10.225
16.78000 3.693
16.80000 -1.045
16.82000 6.560
16.84000 4.754
16.86000 6.751
16.88000 9.572
16.90000 2.697
16.92000 2.040
16.94000 5.036
16.96000 9.814
16.98000 7.413
17.00000 0.907
17.02000 1.324
17.04000 0.413
17.06000 0.886
17.08000 0.453
17.10000 6.449
17.12000 9.084
17.14000 11.009
17.16000 6.255
17.18000 4.279
17.20000 10.275
17.22000 16.621
17.24000 12.123
17.26000 6.690
17.28000 1.670
17.30000 9.009
17.32000 2.550
17.34000 7.337
17.36000 -0.729
17.38000 2.237
17.40000 13.158
17.42000 14.829
17.44000 11.305
17.46000 5.553
17.48000 6.371
17.50000 1.917
17.52000 1.826
17.54000 6.413
17.56000 13.003
17.58000 6.603
17.60000 2.639
17.62000 2.709
17.64000 6.583
17.66000 5.713
17.68000 9.727
17.70000 6.719
17.72000 8.618
17.74000 8.747
17.76000 11.890
17.78000 13.589
17.80000 15.274
17.82000 10.873
17.84000 5.611
17.86000 -3.212
17.88000 3.146
17.90000 0.034
17.92000 -3.909
17.94000 3.201
17.96000 4.287
17.98000 0.537
18.00000 8.195
18.02000 8.342
18.04000 9.372
18.06000 3.442
18.08000 7.117
18.10000 7.720
18.12000 1.901
18.14000 2.288
18.16000 4.824
18.18000 1.870
18.20000 4.865
18.22000 9.617
18.24000 10.112
18.26000 5.248
18.28000 1.971
18.30000 4.072
18.32000 3.122
18.34000 4.242
18.36000 4.608
18.38000 6.651
18.40000 10.366
18.42000 5.092
18.44000 3.605
18.46000 8.208
18.48000 13.515
18.50000 11.953
18.52000 4.563
18.54000 -4.336
18.56000 3.789
18.58000 7.008
18.60000 5.098
18.62000 9.066
18.64000 10.996
18.66000 3.932
18.68000 7.491
18.70000 9.832
18.72000 14.190
18.74000 10.009
18.76000 11.737
18.78000 10.742
18.80000 6.647
18.82000 4.746
18.84000 6.145
18.86000 5.106
18.88000 -3.111
18.90000 0.211
18.92000 0.056
18.94000 -1.253
18.96000 8.700
18.98000 12.591
19.00000 6.739
19.02000 4.229
19.04000 11.543
19.06000 10.086
19.08000 9.607
19.10000 9.134
19.12000 6.646
19.14000 8.575
19.16000 6.704
19.18000 2.520
19.20000 4.220
19.22000 5.038
19.24000 6.526
19.26000 -0.477
19.28000 2.558
19.30000 7.207
19.32000 6.612
19.34000 7.666
19.36000 2.889
19.38000 5.360
19.40000 3.598
19.42000 3.440
19.44000 6.158
19.46000 3.976
19.48000 0.441
19.50000 7.126
19.52000 5.860
19.54000 5.562
19.56000 10.088
19.58000 14.250
19.60000 14.162
19.62000 4.697
19.64000 9.264
19.66000 11.139
19.68000 8.821
19.70000 9.059
19.72000 0.336
19.74000 1.563
19.76000 10.546
19.78000 6.444
19.80000 8.871
19.82000 11.235
19.84000 12.205
19.86000 8.597
19.88000 3.151
19.90000 12.839
19.92000 12.635
19.94000 8.755
19.96000 8.285
19.98000 11.272
20.00000 12.091
20.02000 18.730
20.04000 18.756
20.06000 13.252
20.08000 9.256
20.10000 16.029
20.12000 13.056
20.14000 3.971
20.16000 -4.194
20.18000 2.585
20.20000 6.676
20.22000 3.281
20.24000 5.433
20.26000 6.326
20.28000 8.333
20.30000 11.769
20.32000 9.015
20.34000 7.783
20.36000 7.804
20.38000 7.736
20.40000 5.941
20.42000 7.636
20.44000 6.790
20.46000 3.696
20.48000 -3.344
20.50000 -2.325
20.52000 6.200
20.54000 9.431
20.56000 9.344
20.58000 5.466
20.60000 8.719
20.62000 13.831
20.64000 6.084
20.66000 3.649
20.68000 7.763
20.70000 9.615
20.72000 8.849
20.74000 8.485
20.76000 4.740
20.78000 0.865
20.80000 5.635
20.82000 1.627
20.84000 9.855
20.86000 10.812
20.88000 7.378
20.90000 9.429
20.92000 9.114
20.94000 6.395
20.96000 4.645
20.98000 6.138
21.00000 10.592
21.02000 15.187
21.04000 10.133
21.06000 4.593
21.08000 7.503
21.10000 9.516
21.12000 4.217
21.14000 4.770
21.16000 6.515
21.18000 -1.366
21.20000 1.000
21.22000 5.530
21.24000 6.804
21.26000 10.230
21.28000 7.753
21.30000 6.523
21.32000 6.186
21.34000 6.978
21.36000 3.136
21.38000 4.737
21.40000 13.110
21.42000 11.009
21.44000 0.483
21.46000 2.078
21.48000 1.938
21.50000 -2.964
21.52000 6.914
21.54000 9.477
21.56000 7.182
21.58000 2.339
21.60000 0.230
21.62000 2.101
21.64000 10.212
21.66000 12.228
21.68000 5.725
21.70000 -0.028
21.72000 4.359
21.74000 4.284
21.76000 5.940
21.78000 7.321
21.80000 9.271
21.82000 -0.405
21.84000 -4.176
21.86000 5.718
21.88000 7.176
21.90000 7.727
21.92000 8.314
21.94000 5.274
21.96000 7.535
21.98000 10.376
22.00000 6.546
22.02000 6.188
22.04000 5.123
22.06000 -1.226
22.08000 3.935
22.10000 3.658
22.12000 10.378
22.14000 5.658
22.16000 4.263
22.18000 6.267
22.20000 2.500
22.22000 3.833
22.24000 6.889
22.26000 6.945
22.28000 2.493
22.30000 -0.695
22.32000 4.744
22.34000 5.143
22.36000 2.121
22.38000 5.364
22.40000 0.557
22.42000 -1.590
22.44000 -1.564
22.46000 2.333
22.48000 2.471
22.50000 4.188
22.52000 5.888
22.54000 4.850
22.56000 8.563
22.58000 8.326
22.60000 6.945
22.62000 6.639
22.64000 3.888
22.66000 8.672
22.68000 3.336
22.70000 3.388
22.72000 1.876
22.74000 1.377
22.76000 0.903
22.78000 3.388
22.80000 3.578
22.82000 2.405
22.84000 1.579
22.86000 1.898
22.88000 3.981
22.90000 -0.143
22.92000 1.810
22.94000 0.577
22.96000 0.639
22.98000 -0.081
23.00000 3.366
23.02000 4.218
23.04000 6.056
23.06000 -1.213
23.08000 -0.274
23.10000 1.255
23.12000 -0.459
23.14000 -0.110
23.16000 3.801
23.18000 0.064
23.20000 -2.839
23.22000 4.638
23.24000 3.499
23.26000 0.563
23.28000 1.756
23.30000 2.509
23.32000 14.734
23.34000 16.533
23.36000 9.240
23.38000 6.727
23.40000 0.256
23.42000 0.393
23.44000 1.022
23.46000 -0.163
23.48000 -1.038
23.50000 -1.374
23.52000 -0.499
23.54000 0.807
23.56000 1.101
23.58000 3.465
23.60000 1.799
23.62000 4.912
23.64000 -0.247
23.66000 1.061
23.68000 6.595
23.70000 10.211
23.72000 5.369
23.74000 -1.687
23.76000 1.791
23.78000 3.547
23.80000 8.394
23.82000 1.915
23.84000 8.231
23.86000 5.600
23.88000 0.168
23.90000 -4.057
23.92000 0.258
23.94000 5.509
23.96000 3.487
23.98000 4.280
24.00000 4.312
24.02000 5.435
24.04000 5.294
24.06000 1.791
24.08000 10.335
24.10000 5.891
24.12000 0.760
24.14000 4.398
24.16000 6.717
24.18000 1.920
24.20000 1.546
24.22000 -0.268
24.24000 1.112
24.26000 2.985
24.28000 3.719
24.30000 1.125
24.32000 0.357
24.34000 -3.359
24.36000 -3.555
24.38000 -4.021
24.40000 -0.097
24.42000 7.903
24.44000 9.489
24.46000 3.281
24.48000 0.289
24.50000 0.758
24.52000 4.909
24.54000 5.012
24.56000 4.837
24.58000 0.628
24.60000 -0.482
24.62000 4.195
24.64000 7.274
24.66000 10.765
24.68000 7.637
24.70000 4.425
24.72000 3.585
24.74000 7.698
24.76000 8.803
24.78000 1.551
24.80000 0.680
24.82000 -3.999
24.84000 -2.717
24.86000 5.969
24.88000 9.832
24.90000 7.556
24.92000 3.669
24.94000 -1.051
24.96000 -0.880
24.98000 6.136
25.00000 2.957
25.02000 2.001
25.04000 4.055
25.06000 -1.404
25.08000 0.473
25.10000 4.782
25.12000 3.993
25.14000 4.199
25.16000 2.910
25.18000 1.200
25.20000 4.220
25.22000 -0.564
25.24000 4.363
25.26000 10.052
25.28000 0.282
25.30000 3.418
25.32000 5.910
25.34000 5.156
25.36000 3.670
25.38000 1.891
25.40000 -1.517
25.42000 0.350
25.44000 -0.322
25.46000 6.958
25.48000 0.345
25.50000 -3.191
25.52000 -3.201
25.54000 1.501
25.56000 3.843
25.58000 6.716
25.60000 -0.101
25.62000 -3.954
25.64000 0.241
25.66000 5.282
25.68000 -0.564
25.70000 0.992
25.72000 3.309
25.74000 3.776
25.76000 4.437
25.78000 7.534
25.80000 5.945
25.82000 3.669
25.84000 -1.152
25.86000 -3.753
25.88000 2.135
25.90000 7.847
25.92000 6.476
25.94000 8.351
25.96000 5.184
25.98000 3.295
26.00000 2.243
26.02000 6.720
26.04000 6.092
26.06000 5.483
26.08000 4.984
26.10000 4.694
26.12000 7.557
26.14000 4.059
26.16000 -2.234
26.18000 -1.576
26.20000 4.359
26.22000 6.626
26.24000 4.744
26.26000 5.731
26.28000 2.665
26.30000 5.440
26.32000 7.173
26.34000 6.670
26.36000 5.221
26.38000 4.942
26.40000 7.463
26.42000 10.079
26.44000 4.312
26.46000 4.890
26.48000 4.575
26.50000 6.423
26.52000 5.015
26.54000 -0.772
26.56000 2.179
26.58000 10.934
26.60000 12.923
26.62000 6.492
26.64000 -2.214
26.66000 -3.854
26.68000 1.245
26.70000 7.058
26.72000 10.542
26.74000 5.360
26.76000 5.903
26.78000 6.153
26.80000 6.804
26.82000 8.716
26.84000 10.859
26.86000 8.315
26.88000 8.997
26.90000 9.247
26.92000 6.423
26.94000 3.129
26.96000 4.687
26.98000 5.147
27.00000 8.358
27.02000 10.413
27.04000 12.180
27.06000 11.378
27.08000 15.007
27.10000 4.216
27.12000 -1.426
27.14000 2.027
27.16000 7.811
27.18000 10.799
27.20000 10.711
27.22000 3.993
27.24000 4.493
27.26000 7.916
27.28000 6.980
27.30000 7.833
27.32000 7.102
27.34000 8.775
27.36000 1.834
27.38000 -2.486
27.40000 1.698
27.42000 4.540
27.44000 2.140
27.46000 5.037
27.48000 11.625
27.50000 5.312
27.52000 2.993
27.54000 6.063
27.56000 10.664
27.58000 10.193
27.60000 8.339
27.62000 5.301
27.64000 6.184
27.66000 9.952
27.68000 7.957
27.70000 5.438
27.72000 5.889
27.74000 5.658
27.76000 0.911
27.78000 8.195
27.80000 8.745
27.82000 5.838
27.84000 2.262
27.86000 4.103
27.88000 5.229
27.90000 5.172
27.92000 -3.812
27.94000 1.193
27.96000 3.607
27.98000 -0.088
28.00000 -1.020
28.02000 2.323
28.04000 5.401
28.06000 5.335
28.08000 3.410
28.10000 2.614
28.12000 3.348
28.14000 3.031
28.16000 4.794
28.18000 5.500
28.20000 3.181
28.22000 -0.634
28.24000 6.451
28.26000 5.206
28.28000 5.883
28.30000 6.455
28.32000 0.706
28.34000 1.591
28.36000 5.775
28.38000 6.064
28.40000 3.743
28.42000 1.831
28.44000 2.281
28.46000 10.239
28.48000 3.504
28.50000 1.557
28.52000 2.800
28.54000 3.165
28.56000 -1.946
28.58000 -0.254
28.60000 -2.735
28.62000 -2.074
28.64000 2.075
28.66000 6.486
28.68000 2.098
28.70000 -1.360
28.72000 4.439
28.74000 3.604
28.76000 2.643
28.78000 6.493
28.80000 5.437
28.82000 6.743
28.84000 4.401
28.86000 3.280
28.88000 1.028
28.90000 -1.579
28.92000 1.542
28.94000 4.474
28.96000 0.225
28.98000 1.079
29.00000 -1.647
29.02000 -3.777
29.04000 -1.920
29.06000 2.077
29.08000 0.034
29.10000 0.264
29.12000 2.294
29.14000 1.252
29.16000 -0.052
29.18000 -0.141
29.20000 4.730
29.22000 2.867
29.24000 4.261
29.26000 5.772
29.28000 -0.112
29.30000 3.590
29.32000 2.352
29.34000 -0.593
29.36000 2.171
29.38000 3.593
29.40000 0.909
29.42000 5.150
29.44000 5.042
29.46000 1.401
29.48000 0.679
29.50000 4.779
29.52000 6.013
29.54000 -2.574
29.56000 -3.669
29.58000 -1.033
29.60000 0.127
29.62000 1.719
29.64000 -2.907
29.66000 -1.624
29.68000 2.467
29.70000 3.050
29.72000 1.910
29.74000 1.205
29.76000 4.424
29.78000 4.819
29.80000 2.820
29.82000 2.546
29.84000 1.262
29.86000 4.743
29.88000 -0.341
29.90000 4.600
29.92000 -0.373
29.94000 -1.700
29.96000 1.789
29.98000 -0.199
30.00000 1.741
30.02000 5.415
30.04000 10.973
30.06000 11.652
30.08000 1.918
30.10000 2.725
30.12000 4.160
30.14000 1.088
30.16000 1.041
30.18000 5.579
30.20000 4.815
30.22000 5.260
30.24000 2.895
30.26000 1.895
30.28000 4.555
30.30000 3.692
30.32000 -0.040
30.34000 2.305
30.36000 8.425
30.38000 5.720
30.40000 4.847
30.42000 1.241
30.44000 -2.945
30.46000 -2.185
30.48000 -3.691
30.50000 2.282
30.52000 9.140
30.54000 6.381
30.56000 3.374
30.58000 4.405
30.60000 6.452
30.62000 11.336
30.64000 10.002
30.66000 6.735
30.68000 7.801
30.70000 9.505
30.72000 4.318
30.74000 8.923
30.76000 11.999
30.78000 4.710
30.80000 4.466
30.82000 5.292
30.84000 5.167
30.86000 6.107
30.88000 6.322
30.90000 9.980
30.92000 10.502
30.94000 8.773
30.96000 6.027
30.98000 3.829
31.00000 7.434
31.02000 13.322
31.04000 14.657
31.06000 13.033
31.08000 11.007
31.10000 2.949
31.12000 2.262
31.14000 -3.630
31.16000 -0.474
31.18000 6.933
31.20000 6.613
31.22000 5.318
31.24000 8.147
31.26000 6.817
31.28000 4.189
31.30000 0.778
31.32000 4.855
31.34000 4.588
31.36000 11.986
31.38000 7.999
31.40000 -1.794
31.42000 -2.650
31.44000 6.339
31.46000 5.115
31.48000 8.195
31.50000 9.279
31.52000 6.078
31.54000 1.932
31.56000 0.962
31.58000 4.517
31.60000 10.164
31.62000 3.759
31.64000 6.134
31.66000 5.172
31.68000 2.863
31.70000 8.202
31.72000 5.523
31.74000 1.320
31.76000 7.361
31.78000 5.158
31.80000 3.613
31.82000 1.460
31.84000 -0.418
31.86000 1.286
31.88000 3.468
31.90000 6.627
31.92000 6.906
31.94000 6.301
31.96000 4.300
31.98000 3.004
32.00000 8.411
32.02000 6.029
32.04000 -2.369
32.06000 -3.636
32.08000 -3.023
32.10000 0.792
32.12000 0.136
32.14000 -1.319
32.16000 3.189
32.18000 5.696
32.20000 1.825
32.22000 0.831
32.24000 1.588
32.26000 1.747
32.28000 3.268
32.30000 7.486
32.32000 5.132
32.34000 -0.881
32.36000 -3.631
32.38000 2.998
32.40000 -0.092
32.42000 0.328
32.44000 -1.739
32.46000 2.388
32.48000 5.869
32.50000 4.404
32.52000 1.033
32.54000 4.016
32.56000 5.997
32.58000 9.805
32.60000 3.914
32.62000 -1.173
32.64000 1.060
32.66000 1.620
32.68000 1.720
32.70000 2.227
32.72000 0.187
32.74000 -2.855
32.76000 -3.628
32.78000 2.678
32.80000 4.624
32.82000 3.008
32.84000 3.536
32.86000 0.984
32.88000 2.477
32.90000 3.413
32.92000 3.573
32.94000 -1.191
32.96000 3.430
32.98000 3.658
33.00000 6.510
33.02000 5.840
33.04000 4.979
33.06000 4.466
33.08000 3.299
33.10000 1.550
33.12000 3.887
33.14000 3.026
33.16000 3.584
33.18000 -2.699
33.20000 -2.290
33.22000 -1.230
33.24000 -0.740
33.26000 5.108
33.28000 0.788
33.30000 3.635
33.32000 5.623
33.34000 3.461
33.36000 0.260
33.38000 -2.508
33.40000 0.888
33.42000 4.429
33.44000 5.571
33.46000 -0.704
33.48000 -2.658
33.50000 4.612
33.52000 3.841
33.54000 0.395
33.56000 0.196
33.58000 2.195
33.60000 6.299
33.62000 7.062
33.64000 1.436
33.66000 0.136
33.68000 -2.730
33.70000 -1.224
33.72000 0.329
33.74000 -0.298
33.76000 4.654
33.78000 5.145
33.80000 6.461
33.82000 7.524
33.84000 5.634
33.86000 3.898
33.88000 1.876
33.90000 2.143
33.92000 5.232
33.94000 3.609
33.96000 1.494
33.98000 5.510
34.00000 4.583
34.02000 6.034
34.04000 5.105
34.06000 4.640
34.08000 5.343
34.10000 5.984
34.12000 6.075
34.14000 6.713
34.16000 7.623
34.18000 -1.729
34.20000 -1.380
34.22000 -1.359
34.24000 2.184
34.26000 2.028
34.28000 -0.612
34.30000 7.620
34.32000 11.889
34.34000 8.399
34.36000 5.496
34.38000 6.534
34.40000 7.689
34.42000 0.184
34.44000 0.055
34.46000 6.678
34.48000 8.940
34.50000 8.259
34.52000 8.122
34.54000 9.790
34.56000 10.203
34.58000 2.212
34.60000 -1.160
34.62000 -3.589
34.64000 2.552
34.66000 5.904
34.68000 5.251
34.70000 5.150
34.72000 2.474
34.74000 3.670
34.76000 3.657
34.78000 -0.346
34.80000 1.561
34.82000 2.655
34.84000 1.265
34.86000 5.232
34.88000 9.610
34.90000 8.392
34.92000 6.248
34.94000 -1.135
34.96000 0.290
34.98000 7.470
35.00000 3.993
35.02000 1.974
35.04000 7.362
35.06000 6.903
35.08000 5.012
35.10000 9.039
35.12000 5.371
35.14000 -0.922
35.16000 -2.621
35.18000 3.404
35.20000 2.174
35.22000 4.810
35.24000 4.727
35.26000 -1.178
35.28000 2.555
35.30000 1.040
35.32000 -3.559
35.34000 1.416
35.36000 2.839
35.38000 2.717
35.40000 4.701
35.42000 6.718
35.44000 5.838
35.46000 6.914
35.48000 1.830
35.50000 1.859
35.52000 1.245
35.54000 2.015
35.56000 5.524
35.58000 1.729
35.60000 -0.351
35.62000 -0.270
35.64000 5.190
35.66000 6.306
35.68000 2.078
35.70000 2.751
35.72000 8.503
35.74000 10.778
35.76000 5.984
35.78000 2.481
35.80000 -1.363
35.82000 -1.402
35.84000 6.488
35.86000 3.945
35.88000 7.060
35.90000 6.019
35.92000 1.812
35.94000 4.927
35.96000 5.249
35.98000 5.921
36.00000 0.944
36.02000 0.067
36.04000 2.885
36.06000 2.386
36.08000 5.079
36.10000 3.615
36.12000 4.411
36.14000 5.169
36.16000 7.264
36.18000 4.739
36.20000 4.764
36.22000 2.221
36.24000 2.419
36.26000 0.470
36.28000 2.734
36.30000 5.165
36.32000 5.580
36.34000 2.033
36.36000 2.750
36.38000 1.310
36.40000 -0.951
36.42000 -0.459
36.44000 -3.587
36.46000 0.681
36.48000 7.215
36.50000 5.350
36.52000 0.994
36.54000 2.225
36.56000 5.864
36.58000 3.898
36.60000 6.177
36.62000 4.054
36.64000 7.346
36.66000 2.298
36.68000 0.836
36.70000 3.392
36.72000 5.083
36.74000 6.690
36.76000 6.389
36.78000 -0.766
36.80000 -1.457
36.82000 2.583
36.84000 1.314
36.86000 3.267
36.88000 0.883
36.90000 -1.569
36.92000 2.044
36.94000 4.575
36.96000 3.364
36.98000 1.737
37.00000 4.695
37.02000 1.169
37.04000 -0.674
37.06000 -1.078
37.08000 -0.085
37.10000 1.277
37.12000 1.328
37.14000 5.143
37.16000 4.977
37.18000 6.408
37.20000 6.456
37.22000 5.587
37.24000 6.586
37.26000 1.823
37.28000 1.283
37.30000 9.134
37.32000 6.433
37.34000 4.896
37.36000 6.317
37.38000 6.767
37.40000 6.947
37.42000 10.625
37.44000 4.961
37.46000 7.856
37.48000 11.631
37.50000 3.042
37.52000 6.978
37.54000 9.028
37.56000 6.899
37.58000 7.688
37.60000 13.878
37.62000 14.491
37.64000 14.804
37.66000 10.674
37.68000 9.904
37.70000 12.782
37.72000 11.202
37.74000 10.495
37.76000 11.483
37.78000 15.487
37.80000 15.909
37.82000 17.444
37.84000 14.767
37.86000 11.274
37.88000 13.505
37.90000 12.153
37.92000 13.651
37.94000 14.993
37.96000 13.798
37.98000 14.004
38.00000 12.750
38.02000 15.628
38.04000 17.574
38.06000 22.460
38.08000 25.550
38.10000 26.303
38.12000 25.124
38.14000 27.325
38.16000 27.812
38.18000 25.540
38.20000 21.128
38.22000 28.042
38.24000 27.558
38.26000 30.113
38.28000 31.848
38.30000 29.632
38.32000 32.340
38.34000 34.332
38.36000 34.648
38.38000 38.852
38.40000 41.762
38.42000 43.502
38.44000 41.546
38.46000 42.680
38.48000 47.072
38.50000 49.560
38.52000 52.321
38.54000 49.267
38.56000 47.502
38.58000 52.424
38.60000 54.255
38.62000 56.502
38.64000 60.668
38.66000 55.914
38.68000 60.526
38.70000 67.063
38.72000 67.943
38.74000 68.986
38.76000 71.647
38.78000 73.904
38.80000 78.525
38.82000 83.694
38.84000 85.346
38.86000 86.623
38.88000 89.002
38.90000 97.129
38.92000 105.064
38.94000 108.607
38.96000 106.398
38.98000 109.139
39.00000 118.938
39.02000 126.261
39.04000 132.754
39.06000 143.311
39.08000 150.052
39.10000 153.493
39.12000 162.409
39.14000 167.008
39.16000 175.444
39.18000 188.029
39.20000 200.479
39.22000 208.443
39.24000 216.063
39.26000 227.606
39.28000 242.664
39.30000 262.707
39.32000 267.162
39.34000 268.965
39.36000 281.441
39.38000 305.554
39.40000 325.328
39.42000 342.874
39.44000 356.355
39.46000 372.893
39.48000 390.075
39.50000 411.625
39.52000 426.789
39.54000 442.281
39.56000 471.766
39.58000 488.823
39.60000 516.067
39.62000 530.278
39.64000 553.415
39.66000 570.639
39.68000 592.403
39.70000 613.243
39.72000 636.203
39.74000 648.465
39.76000 659.929
39.78000 675.549
39.80000 686.195
39.82000 687.566
39.84000 700.012
39.86000 708.223
39.88000 710.493
39.90000 719.378
39.92000 725.430
39.94000 715.035
39.96000 708.150
39.98000 696.970
40.00000 683.920
40.02000 675.521
40.04000 668.126
40.06000 642.814
40.08000 634.564
40.10000 621.486
40.12000 593.560
40.14000 580.943
40.16000 554.921
40.18000 528.679
40.20000 521.118
40.22000 504.114
40.24000 480.447
40.26000 450.531
40.28000 430.851
40.30000 408.856
40.32000 391.025
40.34000 365.468
40.36000 348.361
40.38000 332.728
40.40000 322.983
40.42000 303.913
40.44000 279.501
40.46000 264.611
40.48000 254.832
40.50000 238.987
40.52000 225.006
40.54000 210.706
40.56000 193.648
40.58000 185.501
40.60000 180.064
40.62000 170.388
40.64000 162.589
40.66000 152.939
40.68000 137.432
40.70000 128.454
40.72000 125.777
40.74000 114.277
40.76000 107.419
40.78000 101.608
40.80000 98.678
40.82000 103.716
40.84000 92.647
40.86000 84.081
40.88000 73.133
40.90000 76.354
40.92000 70.770
40.94000 65.162
40.96000 62.003
40.98000 61.865
41.00000 53.938
41.02000 49.017
41.04000 49.936
41.06000 51.101
41.08000 48.342
41.10000 45.145
41.12000 40.166
41.14000 36.708
41.16000 31.713
41.18000 34.734
41.20000 32.584
41.22000 27.728
41.24000 23.070
41.26000 23.759
41.28000 26.294
41.30000 26.279
41.32000 24.082
41.34000 24.632
41.36000 23.263
41.38000 20.216
41.40000 18.149
41.42000 16.556
41.44000 17.483
41.46000 16.837
41.48000 14.822
41.50000 15.253
41.52000 13.742
41.54000 10.681
41.56000 7.371
41.58000 10.040
41.60000 11.616
41.62000 11.875
41.64000 14.087
41.66000 12.768
41.68000 11.620
41.70000 12.471
41.72000 12.028
41.74000 12.864
41.76000 8.549
41.78000 0.611
41.80000 2.216
41.82000 6.432
41.84000 6.450
41.86000 9.109
41.88000 7.200
41.90000 5.043
41.92000 4.357
41.94000 3.543
41.96000 6.636
41.98000 3.117
42.00000 1.584
42.02000 2.591
42.04000 1.803
42.06000 4.793
42.08000 3.779
42.10000 -2.214
42.12000 0.317
42.14000 3.219
42.16000 2.162
42.18000 1.336
42.20000 0.047
42.22000 3.745
42.24000 5.858
42.26000 4.053
42.28000 -3.508
42.30000 -1.812
42.32000 1.067
42.34000 3.318
42.36000 1.799
42.38000 0.753
42.40000 1.574
42.42000 1.855
42.44000 -0.106
42.46000 -0.213
42.48000 0.857
42.50000 0.371
42.52000 0.994
42.54000 1.669
42.56000 -0.065
42.58000 -0.728
42.60000 2.813
42.62000 6.841
42.64000 0.325
42.66000 -0.335
42.68000 4.294
42.70000 4.154
42.72000 4.206
42.74000 1.040
42.76000 2.246
42.78000 0.533
42.80000 0.718
42.82000 1.472
42.84000 6.021
42.86000 3.569
42.88000 -0.090
42.90000 -3.416
42.92000 -1.194
42.94000 1.070
42.96000 3.625
42.98000 1.773
43.00000 -2.341
43.02000 -2.040
43.04000 -0.177
43.06000 0.431
43.08000 1.933
43.10000 2.495
43.12000 -1.193
43.14000 -0.059
43.16000 4.591
43.18000 -0.084
43.20000 1.168
43.22000 4.383
43.24000 4.185
43.26000 -0.320
43.28000 0.079
43.30000 2.572
43.32000 -1.777
43.34000 1.725
43.36000 0.221
43.38000 -1.994
43.40000 -0.330
43.42000 -0.975
43.44000 1.529
43.46000 2.621
43.48000 2.124
43.50000 1.641
43.52000 -2.062
43.54000 -0.705
43.56000 -1.167
43.58000 -3.360
43.60000 3.383
43.62000 3.107
43.64000 -0.251
43.66000 -1.290
43.68000 0.553
43.70000 2.869
43.72000 2.323
43.74000 4.204
43.76000 4.492
43.78000 1.480
43.80000 2.974
43.82000 4.328
43.84000 0.235
43.86000 2.817
43.88000 4.759
43.90000 3.964
43.92000 4.168
43.94000 2.617
43.96000 2.610
43.98000 0.921
44.00000 -0.976
44.02000 1.320
44.04000 4.602
44.06000 1.014
44.08000 4.401
44.10000 4.196
44.12000 1.223
44.14000 0.074
44.16000 -0.931
44.18000 2.988
44.20000 5.759
44.22000 0.665
44.24000 5.709
44.26000 5.179
44.28000 2.372
44.30000 3.540
44.32000 -0.249
44.34000 0.136
44.36000 -3.330
44.38000 -3.222
44.40000 0.964
44.42000 -0.292
44.44000 1.196
44.46000 5.052
44.48000 5.648
44.50000 6.382
44.52000 5.391
44.54000 5.396
44.56000 7.465
44.58000 7.428
44.60000 6.337
44.62000 3.781
44.64000 4.382
44.66000 4.043
44.68000 5.336
44.70000 1.766
44.72000 5.254
44.74000 8.532
44.76000 5.722
44.78000 8.568
44.80000 2.988
44.82000 4.417
44.84000 7.680
44.86000 6.703
44.88000 9.010
44.90000 9.000
44.92000 9.795
44.94000 11.779
44.96000 14.191
44.98000 13.466
45.00000 11.575
45.02000 12.394
45.04000 10.573
45.06000 5.932
45.08000 6.593
45.10000 11.422
45.12000 11.317
45.14000 12.444
45.16000 14.446
45.18000 16.536
45.20000 14.748
45.22000 10.460
45.24000 11.161
45.26000 15.690
45.28000 14.318
45.30000 18.043
45.32000 18.693
45.34000 17.975
45.36000 18.014
45.38000 20.109
45.40000 22.945
45.42000 22.338
45.44000 24.852
45.46000 27.757
45.48000 24.765
45.50000 27.790
45.52000 31.261
45.54000 25.337
45.56000 26.690
45.58000 25.549
45.60000 27.226
45.62000 29.351
45.64000 31.948
45.66000 36.669
45.68000 38.359
45.70000 42.138
45.72000 38.216
45.74000 39.347
45.76000 39.056
45.78000 46.742
45.80000 48.321
45.82000 38.435
45.84000 41.741
45.86000 45.411
45.88000 49.061
45.90000 55.376
45.92000 54.833
45.94000 55.983
45.96000 53.566
45.98000 57.828
46.00000 65.780
46.02000 67.517
46.04000 68.518
46.06000 70.550
46.08000 67.232
46.10000 71.137
46.12000 72.055
46.14000 78.892
46.16000 80.906
46.18000 76.128
46.20000 79.797
46.22000 79.387
46.24000 81.861
46.26000 87.406
46.28000 89.417
46.30000 93.563
46.32000 95.532
46.34000 87.646
46.36000 88.524
46.38000 88.558
46.40000 99.492
46.42000 103.970
46.44000 105.908
46.46000 100.897
46.48000 103.708
46.50000 107.071
46.52000 106.339
46.54000 105.207
46.56000 109.798
46.58000 108.392
46.60000 105.535
46.62000 103.994
46.64000 105.714
46.66000 105.165
46.68000 103.285
46.70000 107.802
46.72000 110.501
46.74000 99.338
46.76000 98.347
46.78000 99.648
46.80000 100.147
46.82000 99.558
46.84000 95.279
46.86000 94.272
46.88000 92.483
46.90000 87.195
46.92000 87.189
46.94000 84.121
46.96000 83.946
46.98000 78.105
47.00000 73.869
47.02000 77.649
47.04000 80.405
47.06000 75.323
47.08000 70.552
47.10000 64.563
47.12000 64.573
47.14000 67.941
47.16000 67.181
47.18000 61.190
47.20000 56.209
47.22000 55.862
47.24000 49.617
47.26000 43.942
47.28000 46.506
47.30000 46.126
47.32000 40.772
47.34000 36.915
47.36000 35.544
47.38000 29.467
47.40000 31.357
47.42000 32.151
47.44000 26.707
47.46000 26.563
47.48000 25.693
47.50000 18.692
47.52000 25.631
47.54000 25.427
47.56000 24.150
47.58000 27.588
47.60000 24.241
47.62000 20.015
47.64000 20.584
47.66000 18.580
47.68000 16.153
47.70000 12.365
47.72000 11.437
47.74000 15.847
47.76000 12.374
47.78000 10.724
47.80000 11.679
47.82000 11.672
47.84000 6.437
47.86000 7.072
47.88000 8.346
47.90000 8.890
47.92000 6.022
47.94000 5.812
47.96000 8.096
47.98000 12.974
48.00000 16.459
48.02000 10.172
48.04000 4.068
48.06000 1.323
48.08000 1.619
48.10000 6.177
48.12000 5.245
48.14000 7.669
48.16000 5.756
48.18000 5.379
48.20000 5.456
48.22000 0.951
48.24000 2.123
48.26000 7.417
48.28000 8.093
48.30000 2.909
48.32000 2.310
48.34000 8.280
48.36000 8.901
48.38000 8.130
48.40000 9.453
48.42000 6.823
48.44000 3.839
48.46000 5.455
48.48000 6.636
48.50000 2.277
48.52000 1.406
48.54000 6.455
48.56000 8.535
48.58000 8.856
48.60000 8.780
48.62000 8.224
48.64000 7.783
48.66000 3.466
48.68000 6.886
48.70000 7.316
48.72000 4.993
48.74000 2.309
48.76000 0.357
48.78000 1.600
48.80000 4.912
48.82000 7.395
48.84000 8.668
48.86000 11.213
48.88000 7.561
48.90000 6.088
48.92000 4.670
48.94000 5.134
48.96000 1.483
48.98000 3.175
49.00000 8.970
49.02000 7.611
49.04000 8.120
49.06000 5.920
49.08000 4.574
49.10000 10.572
49.12000 12.135
49.14000 5.180
49.16000 6.723
49.18000 -2.740
49.20000 2.995
49.22000 5.976
49.24000 7.721
49.26000 7.008
49.28000 5.324
49.30000 4.875
49.32000 7.053
49.34000 8.645
49.36000 6.928
49.38000 6.857
49.40000 8.024
49.42000 9.104
49.44000 6.019
49.46000 6.282
49.48000 9.015
49.50000 7.117
49.52000 3.661
49.54000 5.087
49.56000 8.355
49.58000 7.243
49.60000 8.351
49.62000 7.066
49.64000 5.966
49.66000 5.904
49.68000 8.195
49.70000 8.015
49.72000 8.442
49.74000 6.830
49.76000 2.374
49.78000 4.755
49.80000 8.131
49.82000 3.570
49.84000 2.282
49.86000 7.163
49.88000 4.474
49.90000 6.987
49.92000 1.465
49.94000 -1.708
49.96000 3.204
49.98000 4.663
50.00000 6.046
50.02000 10.429
50.04000 7.060
50.06000 -0.390
50.08000 5.352
50.10000 6.894
50.12000 6.020
50.14000 7.141
50.16000 8.951
50.18000 5.938
50.20000 3.770
50.22000 6.034
50.24000 8.824
50.26000 6.315
50.28000 4.734
50.30000 0.335
50.32000 1.932
50.34000 4.719
50.36000 5.781
50.38000 2.907
50.40000 2.341
50.42000 -0.116
50.44000 -1.382
50.46000 1.138
50.48000 4.229
50.50000 4.954
50.52000 4.699
50.54000 5.391
50.56000 4.861
50.58000 6.820
50.60000 9.844
50.62000 5.072
50.64000 -2.731
50.66000 -2.575
50.68000 0.195
50.70000 4.272
50.72000 2.593
50.74000 6.280
50.76000 6.498
50.78000 3.745
50.80000 4.159
50.82000 4.742
50.84000 3.813
50.86000 3.957
50.88000 6.157
50.90000 4.535
50.92000 9.497
50.94000 2.829
50.96000 2.880
50.98000 5.548
51.00000 4.513
51.02000 -0.913
51.04000 2.046
51.06000 2.905
51.08000 3.977
51.10000 8.194
51.12000 8.594
51.14000 4.515
51.16000 -0.030
51.18000 -1.036
51.20000 -0.519
51.22000 3.816
51.24000 1.959
51.26000 1.700
51.28000 -0.003
51.30000 2.616
51.32000 2.709
51.34000 2.544
51.36000 0.945
51.38000 5.182
51.40000 3.630
51.42000 -0.392
51.44000 4.154
51.46000 4.425
51.48000 3.710
51.50000 0.612
51.52000 2.811
51.54000 4.273
51.56000 -0.229
51.58000 0.088
51.60000 4.194
51.62000 1.263
51.64000 -1.047
51.66000 0.809
51.68000 3.393
51.70000 1.482
51.72000 0.547
51.74000 -0.093
51.76000 0.032
51.78000 1.170
51.80000 3.390
51.82000 3.876
51.84000 5.768
51.86000 8.424
51.88000 3.591
51.90000 1.265
51.92000 -2.273
51.94000 -0.326
51.96000 3.442
51.98000 3.548
52.00000 6.789
52.02000 4.820
52.04000 3.685
52.06000 -0.578
52.08000 -1.140
52.10000 -0.715
52.12000 1.288
52.14000 -2.059
52.16000 -0.150
52.18000 2.422
52.20000 2.632
52.22000 3.718
52.24000 1.731
52.26000 -0.491
52.28000 -2.691
52.30000 3.354
52.32000 4.413
52.34000 6.807
52.36000 2.306
52.38000 2.295
52.40000 2.144
52.42000 -1.162
52.44000 5.790
52.46000 5.433
52.48000 6.197
52.50000 3.598
52.52000 4.145
52.54000 2.234
52.56000 1.732
52.58000 1.388
52.60000 4.156
52.62000 6.290
52.64000 5.865
52.66000 6.812
52.68000 5.161
52.70000 1.402
52.72000 2.834
52.74000 2.023
52.76000 1.259
52.78000 0.334
52.80000 1.969
52.82000 -1.745
52.84000 0.267
52.86000 2.288
52.88000 4.545
52.90000 6.216
52.92000 2.477
52.94000 0.006
52.96000 -2.657
52.98000 0.606
53.00000 5.464
53.02000 2.676
53.04000 1.371
53.06000 -0.694
53.08000 -0.765
53.10000 2.406
53.12000 4.009
53.14000 2.832
53.16000 0.562
53.18000 2.527
53.20000 1.978
53.22000 1.220
53.24000 2.714
53.26000 2.936
53.28000 6.145
53.30000 -0.326
53.32000 1.432
53.34000 1.768
53.36000 1.893
53.38000 3.728
53.40000 0.492
53.42000 4.105
53.44000 0.619
53.46000 2.955
53.48000 1.265
53.50000 5.275
53.52000 5.226
53.54000 2.609
53.56000 -2.100
53.58000 -1.548
53.60000 1.566
53.62000 5.020
53.64000 3.354
53.66000 2.255
53.68000 -1.820
53.70000 -0.560
53.72000 0.596
53.74000 4.548
53.76000 2.520
53.78000 -0.564
53.80000 2.766
53.82000 1.455
53.84000 4.001
53.86000 5.191
53.88000 2.608
53.90000 4.783
53.92000 1.431
53.94000 2.891
53.96000 -1.827
53.98000 1.586
54.00000 6.086
54.02000 5.827
54.04000 1.205
54.06000 -0.656
54.08000 3.863
54.10000 3.865
54.12000 7.026
54.14000 1.878
54.16000 -2.637
54.18000 0.850
54.20000 4.029
54.22000 6.018
54.24000 8.336
54.26000 5.367
54.28000 6.500
54.30000 6.961
54.32000 5.777
54.34000 4.133
54.36000 1.940
54.38000 4.168
54.40000 4.769
54.42000 3.523
54.44000 4.052
54.46000 -0.689
54.48000 -0.877
54.50000 3.125
54.52000 4.197
54.54000 1.980
54.56000 2.565
54.58000 6.566
54.60000 2.368
54.62000 -0.216
54.64000 4.310
54.66000 1.510
54.68000 3.401
54.70000 3.614
54.72000 2.282
54.74000 -1.041
54.76000 3.320
54.78000 3.345
54.80000 6.236
54.82000 4.077
54.84000 5.304
54.86000 0.439
54.88000 1.408
54.90000 5.815
54.92000 3.146
54.94000 -0.148
54.96000 3.375
54.98000 1.877
55.00000 4.466
55.02000 4.131
55.04000 6.586
55.06000 4.096
55.08000 0.880
55.10000 2.532
55.12000 5.635
55.14000 5.412
55.16000 0.085
55.18000 2.276
55.20000 5.640
55.22000 -0.137
55.24000 3.971
55.26000 4.466
55.28000 0.820
55.30000 1.659
55.32000 -2.569
55.34000 -1.442
55.36000 1.892
55.38000 2.380
55.40000 1.858
55.42000 2.059
55.44000 2.495
55.46000 4.195
55.48000 4.571
55.50000 4.276
55.52000 6.337
55.54000 8.532
55.56000 5.736
55.58000 5.440
55.60000 3.597
55.62000 -0.486
55.64000 2.617
55.66000 4.792
55.68000 4.973
55.70000 4.270
55.72000 4.891
55.74000 4.459
55.76000 8.855
55.78000 5.336
55.80000 2.274
55.82000 0.969
55.84000 -1.367
55.86000 -1.340
55.88000 2.516
55.90000 1.821
55.92000 -1.020
55.94000 -2.586
55.96000 -0.828
55.98000 2.026
56.00000 4.457
56.02000 5.509
56.04000 1.807
56.06000 2.348
56.08000 3.088
56.10000 -1.860
56.12000 -2.222
56.14000 -0.748
56.16000 0.606
56.18000 2.685
56.20000 4.705
56.22000 5.965
56.24000 2.288
56.26000 -1.545
56.28000 0.363
56.30000 1.237
56.32000 2.245
56.34000 -0.882
56.36000 -2.590
56.38000 0.943
56.40000 1.392
56.42000 -0.009
56.44000 -1.055
56.46000 1.459
56.48000 1.612
56.50000 3.307
56.52000 2.073
56.54000 -1.443
56.56000 -2.289
56.58000 2.439
56.60000 3.383
56.62000 0.975
56.64000 3.815
56.66000 5.460
56.68000 7.451
56.70000 7.662
56.72000 4.232
56.74000 3.279
56.76000 0.575
56.78000 -2.500
56.80000 -0.472
56.82000 -0.677
56.84000 1.986
56.86000 3.153
56.88000 2.505
56.90000 3.473
56.92000 3.528
56.94000 -1.112
56.96000 -1.774
56.98000 -0.006
57.00000 -0.362
57.02000 1.089
57.04000 2.008
57.06000 -0.928
57.08000 0.721
57.10000 3.301
57.12000 0.803
57.14000 0.870
57.16000 0.338
57.18000 0.427
57.20000 1.007
57.22000 2.446
57.24000 0.098
57.26000 3.035
57.28000 6.127
57.30000 6.130
57.32000 5.406
57.34000 3.395
57.36000 -1.047
57.38000 0.525
57.40000 0.807
57.42000 -2.547
57.44000 2.284
57.46000 3.967
57.48000 4.394
57.50000 -1.451
57.52000 -1.288
57.54000 4.660
57.56000 5.448
57.58000 6.001
57.60000 2.822
57.62000 -0.626
57.64000 -2.530
57.66000 1.612
57.68000 3.094
57.70000 -0.175
57.72000 4.527
57.74000 4.472
57.76000 3.583
57.78000 0.020
57.80000 0.428
57.82000 7.630
57.84000 5.264
57.86000 -2.492
57.88000 0.663
57.90000 0.772
57.92000 0.974
57.94000 0.648
57.96000 -2.525
57.98000 3.910
58.00000 3.188
58.02000 1.996
58.04000 -0.759
58.06000 1.440
58.08000 0.860
58.10000 1.966
58.12000 2.028
58.14000 3.068
58.16000 1.601
58.18000 -1.234
58.20000 0.807
58.22000 -0.338
58.24000 -0.764
58.26000 -2.276
58.28000 0.581
58.30000 0.173
58.32000 -0.004
58.34000 -1.131
58.36000 0.871
58.38000 3.047
58.40000 2.568
58.42000 0.797
58.44000 2.649
58.46000 1.356
58.48000 -0.432
58.50000 -2.259
58.52000 1.024
58.54000 -0.111
58.56000 -0.609
58.58000 -1.007
58.60000 -0.596
58.62000 1.317
58.64000 2.423
58.66000 1.099
58.68000 -0.188
58.70000 0.746
58.72000 1.931
58.74000 1.868
58.76000 4.210
58.78000 4.562
58.80000 1.375
58.82000 3.736
58.84000 4.735
58.86000 1.388
58.88000 2.691
58.90000 5.143
58.92000 4.582
58.94000 0.315
58.96000 2.150
58.98000 1.732
59.00000 1.755
59.02000 3.926
59.04000 4.684
59.06000 2.996
59.08000 4.681
59.10000 2.787
59.12000 0.536
59.14000 6.132
59.16000 5.263
59.18000 4.271
59.20000 3.644
59.22000 7.410
59.24000 4.203
59.26000 4.315
59.28000 0.210
59.30000 2.579
59.32000 5.692
59.34000 5.353
59.36000 6.495
59.38000 7.472
59.40000 7.416
59.42000 3.591
59.44000 0.054
59.46000 -0.749
59.48000 0.634
59.50000 -2.464
59.52000 -0.830
59.54000 1.430
59.56000 4.353
59.58000 2.857
59.60000 4.542
59.62000 5.104
59.64000 1.434
59.66000 0.917
59.68000 2.858
59.70000 1.763
59.72000 2.469
59.74000 3.202
59.76000 2.744
59.78000 4.499
59.80000 7.853
59.82000 3.534
59.84000 4.598
59.86000 4.673
59.88000 2.554
59.90000 1.004
59.92000 3.050
59.94000 2.792
59.96000 1.081
59.98000 -2.463
60.00000 4.164
60.02000 3.264
60.04000 -0.910
60.06000 -0.821
60.08000 1.471
60.10000 5.639
60.12000 5.220
60.14000 4.316
60.16000 2.295
60.18000 1.286
60.20000 0.357
60.22000 2.792
60.24000 2.989
60.26000 -0.734
60.28000 0.573
60.30000 -0.468
60.32000 2.524
60.34000 2.689
60.36000 1.405
60.38000 3.024
60.40000 3.112
60.42000 0.405
60.44000 0.950
60.46000 0.526
60.48000 -1.671
60.50000 -1.899
60.52000 3.785
60.54000 3.865
60.56000 0.848
60.58000 2.723
60.60000 1.546
60.62000 2.025
60.64000 0.820
60.66000 -2.455
60.68000 1.935
60.70000 5.235
60.72000 5.228
60.74000 2.855
60.76000 3.243
60.78000 0.273
60.80000 -1.780
60.82000 2.082
60.84000 3.015
60.86000 0.102
60.88000 -0.442
60.90000 0.995
60.92000 4.880
60.94000 0.968
60.96000 3.201
60.98000 4.039
61.00000 1.407
61.02000 3.866
61.04000 2.839
61.06000 1.192
61.08000 4.486
61.10000 2.657
61.12000 -1.125
61.14000 -2.451
61.16000 3.023
61.18000 5.890
61.20000 4.126
61.22000 -0.375
61.24000 0.103
61.26000 2.441
61.28000 -0.732
61.30000 2.138
61.32000 1.541
61.34000 5.906
61.36000 3.253
61.38000 3.020
61.40000 0.682
61.42000 2.209
61.44000 3.142
61.46000 2.663
61.48000 0.335
61.50000 -1.166
61.52000 -1.637
61.54000 0.117
61.56000 1.421
61.58000 2.047
61.60000 2.566
61.62000 0.802
61.64000 -0.985
61.66000 1.145
61.68000 0.677
61.70000 -0.724
61.72000 3.117
61.74000 0.312
61.76000 -1.816
61.78000 -0.297
61.80000 1.421
61.82000 -1.398
61.84000 -1.257
61.86000 0.436
61.88000 1.900
61.90000 3.521
61.92000 3.615
61.94000 2.958
61.96000 2.506
61.98000 1.352
62.00000 3.347
62.02000 1.959
62.04000 2.542
62.06000 3.802
62.08000 3.706
62.10000 5.880
62.12000 -1.164
62.14000 2.854
62.16000 5.026
62.18000 1.054
62.20000 3.252
62.22000 6.845
62.24000 7.964
62.26000 4.445
62.28000 7.347
62.30000 5.685
62.32000 1.995
62.34000 -0.153
62.36000 -2.388
62.38000 4.316
62.40000 4.188
62.42000 2.558
62.44000 1.127
62.46000 -0.343
62.48000 -1.313
62.50000 2.927
62.52000 1.636
62.54000 3.352
62.56000 4.103
62.58000 -0.487
62.60000 2.032
62.62000 6.441
62.64000 2.420
62.66000 4.175
62.68000 6.023
62.70000 7.396
62.72000 3.280
62.74000 6.269
62.76000 4.327
62.78000 3.935
62.80000 3.273
62.82000 -0.981
62.84000 -1.024
62.86000 1.073
62.88000 1.899
62.90000 4.022
62.92000 6.579
62.94000 5.362
62.96000 2.626
62.98000 3.706
63.00000 1.804
63.02000 1.278
63.04000 3.952
63.06000 4.148
63.08000 2.184
63.10000 -2.374
63.12000 -0.036
63.14000 0.733
63.16000 4.922
63.18000 5.714
63.20000 4.660
63.22000 3.976
63.24000 3.160
63.26000 1.005
63.28000 0.835
63.30000 0.903
63.32000 2.694
63.34000 0.624
63.36000 1.823
63.38000 0.643
63.40000 -1.460
63.42000 3.789
63.44000 5.534
63.46000 3.821
63.48000 1.505
63.50000 1.135
63.52000 1.081
63.54000 3.384
63.56000 2.950
63.58000 0.686
63.60000 3.102
63.62000 6.379
63.64000 0.073
63.66000 -0.740
63.68000 3.865
63.70000 0.796
63.72000 2.554
63.74000 1.746
63.76000 1.400
63.78000 2.768
63.80000 1.356
63.82000 0.621
63.84000 1.725
63.86000 -0.236
63.88000 0.423
63.90000 1.502
63.92000 -0.180
63.94000 -2.259
63.96000 1.056
63.98000 0.698
64.00000 -0.039
64.02000 1.799
64.04000 2.218
64.06000 2.310
64.08000 -0.397
64.10000 -1.159
64.12000 -1.647
64.14000 -1.716
64.16000 -1.578
64.18000 -0.997
64.20000 1.743
64.22000 2.065
64.24000 1.455
64.26000 0.939
64.28000 -1.812
64.30000 -0.312
64.32000 -0.429
64.34000 1.319
64.36000 2.229
64.38000 2.350
64.40000 1.386
64.42000 0.048
64.44000 0.353
64.46000 1.137
64.48000 2.101
64.50000 2.479
64.52000 4.812
64.54000 1.841
64.56000 1.371
64.58000 0.579
64.60000 -2.188
64.62000 -2.385
64.64000 1.677
64.66000 3.367
64.68000 1.210
64.70000 4.612
64.72000 2.854
64.74000 0.180
64.76000 3.301
64.78000 1.139
64.80000 -0.223
64.82000 -0.781
64.84000 4.284
64.86000 5.643
64.88000 2.564
64.90000 -0.031
64.92000 1.293
64.94000 1.697
64.96000 0.662
64.98000 1.139
65.00000 -1.633
65.02000 1.784
65.04000 5.368
65.06000 1.213
65.08000 1.723
65.10000 -0.281
65.12000 -0.188
65.14000 -0.654
65.16000 4.989
65.18000 2.516
65.20000 -0.903
65.22000 -0.795
65.24000 -2.397
65.26000 -1.396
65.28000 -0.066
65.30000 0.293
65.32000 0.063
65.34000 -1.007
65.36000 2.182
65.38000 0.095
65.40000 1.809
65.42000 4.429
65.44000 0.937
65.46000 -0.211
65.48000 3.263
65.50000 2.524
65.52000 -1.812
65.54000 0.331
65.56000 3.132
65.58000 2.374
65.60000 0.537
65.62000 0.726
65.64000 0.118
65.66000 1.227
65.68000 1.831
65.70000 2.897
65.72000 1.228
65.74000 1.185
65.76000 2.659
65.78000 -0.417
65.80000 2.178
65.82000 0.048
65.84000 -0.073
65.86000 0.121
65.88000 0.430
65.90000 1.454
65.92000 -2.399
65.94000 0.534
65.96000 6.267
65.98000 1.009
66.00000 2.701
66.02000 0.913
66.04000 2.109
66.06000 2.449
66.08000 1.709
66.10000 0.353
66.12000 -0.146
66.14000 1.018
66.16000 2.306
66.18000 1.035
66.20000 2.468
66.22000 4.619
66.24000 1.506
66.26000 0.483
66.28000 2.312
66.30000 2.766
66.32000 0.805
66.34000 1.180
66.36000 -2.415
66.38000 0.248
66.40000 2.503
66.42000 3.015
66.44000 5.107
66.46000 6.202
66.48000 3.570
66.50000 2.603
66.52000 5.158
66.54000 5.221
66.56000 5.145
66.58000 4.330
66.60000 3.626
66.62000 2.928
66.64000 2.241
66.66000 2.279
66.68000 2.510
66.70000 8.213
66.72000 5.639
66.74000 2.808
66.76000 4.078
66.78000 6.804
66.80000 6.780
66.82000 2.858
66.84000 4.060
66.86000 5.655
66.88000 5.620
66.90000 8.124
66.92000 7.650
66.94000 7.418
66.96000 9.566
66.98000 5.842
67.00000 6.494
67.02000 7.213
67.04000 5.369
67.06000 6.601
67.08000 9.250
67.10000 8.258
67.12000 8.176
67.14000 7.045
67.16000 8.707
67.18000 9.672
67.20000 11.069
67.22000 10.261
67.24000 10.975
67.26000 9.942
67.28000 13.985
67.30000 11.213
67.32000 10.427
67.34000 9.568
67.36000 11.754
67.38000 13.991
67.40000 13.264
67.42000 12.188
67.44000 13.215
67.46000 13.370
67.48000 14.259
67.50000 15.972
67.52000 14.661
67.54000 10.138
67.56000 12.807
67.58000 15.202
67.60000 15.688
67.62000 19.250
67.64000 21.099
67.66000 18.627
67.68000 19.248
67.70000 18.607
67.72000 14.957
67.74000 16.247
67.76000 17.724
67.78000 20.104
67.80000 20.579
67.82000 18.160
67.84000 16.290
67.86000 16.557
67.88000 14.653
67.90000 14.138
67.92000 16.754
67.94000 17.502
67.96000 18.311
67.98000 19.099
68.00000 21.346
68.02000 18.134
68.04000 16.596
68.06000 15.846
68.08000 15.095
68.10000 16.883
68.12000 17.271
68.14000 17.007
68.16000 17.886
68.18000 16.333
68.20000 13.494
68.22000 13.114
68.24000 13.005
68.26000 14.371
68.28000 14.839
68.30000 16.677
68.32000 14.925
68.34000 14.516
68.36000 14.219
68.38000 13.691
68.40000 13.840
68.42000 12.268
68.44000 9.483
68.46000 9.082
68.48000 7.562
68.50000 7.872
68.52000 9.547
68.54000 9.836
68.56000 9.867
68.58000 7.919
68.60000 5.139
68.62000 7.525
68.64000 7.647
68.66000 8.835
68.68000 8.582
68.70000 7.760
68.72000 5.860
68.74000 5.785
68.76000 6.639
68.78000 3.276
68.80000 1.253
68.82000 3.709
68.84000 0.702
68.86000 3.404
68.88000 3.557
68.90000 3.337
68.92000 4.113
68.94000 3.192
68.96000 0.561
68.98000 0.980
69.00000 -1.226
69.02000 0.892
69.04000 2.206
69.06000 5.105
69.08000 2.774
69.10000 1.773
69.12000 -1.016
69.14000 -1.586
69.16000 1.283
69.18000 1.739
69.20000 4.029
69.22000 0.797
69.24000 -2.320
69.26000 -2.143
69.28000 -1.060
69.30000 -0.764
69.32000 0.908
69.34000 0.918
69.36000 2.159
69.38000 -1.207
69.40000 -1.677
69.42000 0.408
69.44000 -0.607
69.46000 0.820
69.48000 -1.060
69.50000 2.174
69.52000 2.196
69.54000 2.232
69.56000 -0.354
69.58000 -0.342
69.60000 -2.043
69.62000 -1.667
69.64000 0.550
69.66000 0.015
69.68000 1.306
69.70000 0.465
69.72000 0.934
69.74000 -0.668
69.76000 -2.177
69.78000 -0.800
69.80000 0.544
69.82000 1.112
69.84000 1.213
69.86000 0.726
69.88000 -2.240
69.90000 0.569
69.92000 -0.812
69.94000 -0.798
69.96000 1.123
69.98000 3.461
70.00000 4.200
70.02000 2.874
70.04000 1.512
70.06000 -0.440
70.08000 2.246
70.10000 2.020
70.12000 -0.433
70.14000 -2.199
70.16000 -1.675
70.18000 0.643
70.20000 0.550
70.22000 1.994
70.24000 2.240
70.26000 0.769
70.28000 1.009
70.30000 1.915
70.32000 1.656
70.34000 3.305
70.36000 2.313
70.38000 2.639
70.40000 1.390
70.42000 -0.028
70.44000 1.295
70.46000 -0.932
70.48000 -2.100
70.50000 3.132
70.52000 2.786
70.54000 0.950
70.56000 0.023
70.58000 -0.292
70.60000 2.197
70.62000 1.359
70.64000 -1.049
70.66000 -1.094
70.68000 0.071
70.70000 1.236
70.72000 3.120
70.74000 1.912
70.76000 -0.663
70.78000 0.639
70.80000 -1.072
70.82000 0.859
70.84000 0.538
70.86000 -1.972
70.88000 -1.136
70.90000 -1.186
70.92000 -0.770
70.94000 1.550
70.96000 1.054
70.98000 2.485
71.00000 2.170
71.02000 0.762
71.04000 -2.164
71.06000 -2.083
71.08000 2.550
71.10000 2.522
71.12000 0.992
71.14000 0.059
71.16000 1.117
71.18000 1.129
71.20000 1.995
71.22000 0.262
71.24000 -1.270
71.26000 1.613
71.28000 1.384
71.30000 2.613
71.32000 2.777
71.34000 0.176
71.36000 1.843
71.38000 0.353
71.40000 1.051
71.42000 0.620
71.44000 3.971
71.46000 5.251
71.48000 1.620
71.50000 2.422
71.52000 2.890
71.54000 3.387
71.56000 0.039
71.58000 -2.123
71.60000 2.397
71.62000 3.668
71.64000 -0.312
71.66000 -0.815
71.68000 0.402
71.70000 -1.115
71.72000 1.093
71.74000 3.314
71.76000 2.348
71.78000 -0.662
71.80000 3.039
71.82000 1.593
71.84000 1.689
71.86000 1.742
71.88000 3.353
71.90000 2.594
71.92000 1.156
71.94000 -0.895
71.96000 0.447
71.98000 1.651
72.00000 1.439
72.02000 3.658
72.04000 3.061
72.06000 2.272
72.08000 1.357
72.10000 1.188
72.12000 1.101
72.14000 2.314
72.16000 2.242
72.18000 4.939
72.20000 4.677
72.22000 5.686
72.24000 5.224
72.26000 1.555
72.28000 2.021
72.30000 0.655
72.32000 3.118
72.34000 2.517
72.36000 2.848
72.38000 3.609
72.40000 4.608
72.42000 2.291
72.44000 2.390
72.46000 2.305
72.48000 1.370
72.50000 0.746
72.52000 0.404
72.54000 3.658
72.56000 4.998
72.58000 1.812
72.60000 0.959
72.62000 5.377
72.64000 6.112
72.66000 6.002
72.68000 3.459
72.70000 4.103
72.72000 1.966
72.74000 3.366
72.76000 3.362
72.78000 3.009
72.80000 -2.044
72.82000 2.560
72.84000 3.763
72.86000 1.419
72.88000 3.966
72.90000 2.273
72.92000 1.801
72.94000 3.826
72.96000 5.859
72.98000 4.862
73.00000 5.615
73.02000 1.843
73.04000 0.891
73.06000 2.471
73.08000 3.106
73.10000 2.839
73.12000 1.144
73.14000 -0.246
73.16000 0.794
73.18000 -0.487
73.20000 -1.713
73.22000 0.296
73.24000 1.198
73.26000 3.232
73.28000 1.025
73.30000 -2.070
73.32000 -1.541
73.34000 -0.937
73.36000 -1.869
73.38000 0.895
73.40000 2.619
73.42000 4.774
73.44000 1.444
73.46000 2.431
73.48000 3.420
73.50000 2.145
73.52000 0.501
73.54000 -0.505
73.56000 -0.190
73.58000 -1.739
73.60000 -0.280
73.62000 1.878
73.64000 0.804
73.66000 -0.451
73.68000 5.743
73.70000 5.053
73.72000 3.258
73.74000 2.051
73.76000 1.519
73.78000 3.648
73.80000 4.331
73.82000 2.968
73.84000 3.689
73.86000 -1.549
73.88000 -1.284
73.90000 2.536
73.92000 2.696
73.94000 1.413
73.96000 -1.449
73.98000 -0.716
74.00000 0.243
74.02000 -1.530
74.04000 -0.680
74.06000 1.322
74.08000 0.140
74.10000 -0.202
74.12000 2.539
74.14000 0.794
74.16000 0.470
74.18000 0.622
74.20000 4.130
74.22000 2.314
74.24000 -1.909
74.26000 -1.712
74.28000 2.404
74.30000 0.315
74.32000 2.114
74.34000 3.581
74.36000 3.557
74.38000 0.701
74.40000 0.250
74.42000 -1.598
74.44000 -1.494
74.46000 -2.069
74.48000 -0.439
74.50000 1.512
74.52000 2.231
74.54000 3.065
74.56000 1.510
74.58000 1.308
74.60000 1.265
74.62000 -0.524
74.64000 1.808
74.66000 2.131
74.68000 4.523
74.70000 2.360
74.72000 1.645
74.74000 3.720
74.76000 3.964
74.78000 3.576
74.80000 2.911
74.82000 0.865
74.84000 -2.069
74.86000 -0.604
74.88000 0.623
74.90000 1.421
74.92000 2.766
74.94000 3.336
74.96000 -0.815
74.98000 0.599
75.00000 1.930
75.02000 2.307
75.04000 2.515
75.06000 0.484
75.08000 1.100
75.10000 0.402
75.12000 2.990
75.14000 2.772
75.16000 2.348
75.18000 2.399
75.20000 -0.061
75.22000 0.570
75.24000 0.167
75.26000 -2.056
75.28000 -1.561
75.30000 2.051
75.32000 1.377
75.34000 0.313
75.36000 3.558
75.38000 3.464
75.40000 -0.032
75.42000 -1.552
75.44000 -0.892
75.46000 3.042
75.48000 2.592
75.50000 3.034
75.52000 1.009
75.54000 4.883
75.56000 3.320
75.58000 2.951
75.60000 0.869
75.62000 -0.129
75.64000 -1.029
75.66000 0.418
75.68000 -1.021
75.70000 -1.792
75.72000 0.444
75.74000 3.137
75.76000 3.465
75.78000 3.550
75.80000 2.408
75.82000 2.788
75.84000 3.246
75.86000 3.374
75.88000 2.084
75.90000 2.405
75.92000 2.750
75.94000 3.198
75.96000 1.555
75.98000 -0.603
76.00000 2.454
76.02000 1.047
76.04000 1.549
76.06000 2.336
76.08000 3.039
76.10000 4.484
76.12000 2.794
76.14000 0.810
76.16000 2.553
76.18000 3.716
76.20000 1.745
76.22000 0.929
76.24000 4.508
76.26000 4.019
76.28000 1.346
76.30000 -2.047
76.32000 1.014
76.34000 6.377
76.36000 4.365
76.38000 -0.068
76.40000 0.769
76.42000 2.912
76.44000 2.422
76.46000 3.412
76.48000 0.148
76.50000 2.702
76.52000 -0.061
76.54000 -0.360
76.56000 -2.051
76.58000 0.661
76.60000 2.274
76.62000 1.456
76.64000 1.020
76.66000 2.424
76.68000 1.211
76.70000 2.017
76.72000 3.519
76.74000 1.358
76.76000 2.950
76.78000 2.985
76.80000 1.339
76.82000 -0.549
76.84000 -2.069
76.86000 -0.045
76.88000 -0.388
76.90000 0.526
76.92000 1.891
76.94000 0.002
76.96000 -0.736
76.98000 1.866
77.00000 -0.402
77.02000 0.974
77.04000 1.594
77.06000 4.363
77.08000 2.778
77.10000 -0.545
77.12000 1.363
77.14000 3.183
77.16000 2.280
77.18000 3.000
77.20000 4.075
77.22000 2.163
77.24000 -0.425
77.26000 -0.112
77.28000 1.205
77.30000 0.337
77.32000 1.838
77.34000 4.586
77.36000 1.322
77.38000 0.771
77.40000 2.293
77.42000 1.021
77.44000 0.446
77.46000 0.679
77.48000 1.820
77.50000 1.202
77.52000 3.614
77.54000 2.742
77.56000 -0.283
77.58000 -1.261
77.60000 1.290
77.62000 0.163
77.64000 -0.552
77.66000 2.238
77.68000 2.761
77.70000 1.064
77.72000 1.192
77.74000 0.671
77.76000 0.406
77.78000 4.968
77.80000 1.482
77.82000 0.542
77.84000 1.273
77.86000 4.620
77.88000 1.057
77.90000 0.089
77.92000 -0.739
77.94000 -1.838
77.96000 0.313
77.98000 -1.923
78.00000 2.153
78.02000 2.124
78.04000 0.489
78.06000 4.526
78.08000 5.837
78.10000 2.743
78.12000 -0.420
78.14000 -0.489
78.16000 -0.092
78.18000 -2.110
78.20000 0.794
78.22000 2.834
78.24000 1.875
78.26000 1.633
78.28000 2.150
78.30000 3.106
78.32000 3.566
78.34000 2.060
78.36000 1.518
78.38000 3.926
78.40000 2.308
78.42000 1.079
78.44000 0.091
78.46000 0.374
78.48000 -2.121
78.50000 1.728
78.52000 2.479
78.54000 3.498
78.56000 1.720
78.58000 -1.161
78.60000 0.279
78.62000 2.320
78.64000 1.373
78.66000 -0.806
78.68000 -1.598
78.70000 -0.012
78.72000 7.466
78.74000 4.977
78.76000 0.598
78.78000 3.309
78.80000 1.640
78.82000 2.482
78.84000 2.566
78.86000 1.810
78.88000 2.105
78.90000 -0.939
78.92000 2.931
78.94000 2.455
78.96000 1.157
78.98000 -2.133
79.00000 0.293
79.02000 -1.235
79.04000 0.878
79.06000 3.271
79.08000 2.335
79.10000 -0.061
79.12000 -1.461
79.14000 1.300
79.16000 1.900
79.18000 0.847
79.20000 -0.065
79.22000 1.403
79.24000 2.877
79.26000 2.337
79.28000 2.953
79.30000 2.719
79.32000 0.433
79.34000 -0.824
79.36000 3.474
79.38000 4.735
79.40000 -0.577
79.42000 -2.151
79.44000 -0.480
79.46000 1.687
79.48000 0.678
79.50000 0.604
79.52000 3.142
79.54000 3.157
79.56000 1.595
79.58000 1.032
79.60000 3.644
79.62000 3.215
79.64000 1.868
79.66000 1.476
79.68000 1.472
79.70000 4.138
79.72000 -0.589
79.74000 1.897
79.76000 6.010
79.78000 6.702
79.80000 0.355
79.82000 0.506
79.84000 2.748
79.86000 2.039
79.88000 0.338
79.90000 2.019
79.92000 4.309
79.94000 2.763
79.96000 2.392
79.98000 2.133
80.00000 3.765
80.02000 1.439
80.04000 -1.279
80.06000 0.921
80.08000 -1.349
80.10000 -1.436
80.12000 -1.915
80.14000 0.505
80.16000 3.168
80.18000 2.949
80.20000 -0.849
80.22000 -2.271
80.24000 -1.378
80.26000 -1.224
80.28000 1.182
80.30000 0.172
80.32000 3.236
80.34000 5.950
80.36000 -0.115
80.38000 2.016
80.40000 2.449
80.42000 1.441
80.44000 4.602
80.46000 7.701
80.48000 2.030
80.50000 2.341
80.52000 -1.303
80.54000 1.365
80.56000 -1.291
80.58000 0.458
80.60000 2.738
80.62000 3.037
80.64000 3.211
80.66000 1.078
80.68000 3.034
80.70000 3.938
80.72000 3.784
80.74000 5.255
80.76000 3.257
80.78000 6.817
80.80000 6.561
80.82000 5.460
80.84000 8.631
80.86000 8.123
80.88000 6.364
80.90000 4.315
80.92000 6.658
80.94000 6.816
80.96000 7.491
80.98000 6.460
81.00000 3.251
81.02000 4.614
81.04000 9.055
81.06000 8.775
81.08000 9.176
81.10000 8.395
81.12000 7.456
81.14000 9.917
81.16000 12.458
81.18000 8.399
81.20000 11.136
81.22000 13.438
81.24000 10.715
81.26000 13.847
81.28000 14.935
81.30000 13.717
81.32000 12.317
81.34000 13.423
81.36000 13.243
81.38000 13.445
81.40000 11.421
81.42000 11.064
81.44000 7.900
81.46000 8.583
81.48000 11.359
81.50000 14.940
81.52000 15.606
81.54000 16.560
81.56000 18.025
81.58000 19.954
81.60000 16.699
81.62000 16.744
81.64000 17.243
81.66000 21.898
81.68000 19.740
81.70000 18.412
81.72000 19.577
81.74000 22.269
81.76000 21.836
81.78000 25.297
81.80000 24.044
81.82000 18.675
81.84000 21.748
81.86000 22.073
81.88000 23.276
81.90000 21.841
81.92000 16.863
81.94000 16.238
81.96000 19.878
81.98000 20.845
82.00000 23.100
82.02000 20.220
82.04000 17.462
82.06000 24.352
82.08000 23.975
82.10000 21.836
82.12000 18.901
82.14000 19.361
82.16000 23.487
82.18000 26.895
82.20000 24.580
82.22000 22.223
82.24000 20.580
82.26000 17.217
82.28000 17.580
82.30000 17.678
82.32000 22.023
82.34000 23.884
82.36000 20.184
82.38000 18.395
82.40000 18.777
82.42000 15.474
82.44000 16.982
82.46000 16.875
82.48000 18.142
82.50000 15.914
82.52000 14.036
82.54000 14.838
82.56000 12.823
82.58000 10.844
82.60000 13.729
82.62000 17.557
82.64000 16.400
82.66000 15.670
82.68000 10.606
82.70000 11.506
82.72000 8.491
82.74000 11.260
82.76000 13.792
82.78000 12.480
82.80000 9.143
82.82000 8.906
82.84000 6.475
82.86000 6.397
82.88000 6.669
82.90000 5.878
82.92000 6.635
82.94000 7.611
82.96000 10.397
82.98000 6.541
83.00000 3.045
83.02000 3.377
83.04000 6.627
83.06000 7.198
83.08000 4.624
83.10000 3.810
83.12000 5.367
83.14000 4.461
83.16000 7.364
83.18000 5.367
83.20000 1.378
83.22000 2.603
83.24000 2.897
83.26000 2.920
83.28000 4.046
83.30000 3.269
83.32000 4.582
83.34000 2.100
83.36000 5.647
83.38000 6.595
83.40000 3.698
83.42000 1.762
83.44000 3.230
83.46000 6.664
83.48000 7.009
83.50000 6.867
83.52000 7.171
83.54000 4.815
83.56000 3.617
83.58000 2.950
83.60000 1.318
83.62000 -2.213
83.64000 1.042
83.66000 5.453
83.68000 6.613
83.70000 4.302
83.72000 5.176
83.74000 3.624
83.76000 1.630
83.78000 5.443
83.80000 6.508
83.82000 3.973
83.84000 1.663
83.86000 3.009
83.88000 4.626
83.90000 3.133
83.92000 3.993
83.94000 2.104
83.96000 1.505
83.98000 1.125
84.00000 -0.256
84.02000 1.561
84.04000 2.844
84.06000 4.321
84.08000 4.248
84.10000 2.023
84.12000 -0.739
84.14000 1.001
84.16000 0.403
84.18000 0.746
84.20000 -0.095
84.22000 -0.341
84.24000 -0.048
84.26000 2.076
84.28000 -0.008
84.30000 -2.157
84.32000 1.690
84.34000 1.107
84.36000 3.015
84.38000 1.112
84.40000 3.406
84.42000 5.607
84.44000 3.052
84.46000 1.867
84.48000 0.766
84.50000 4.127
84.52000 0.336
84.54000 2.526
84.56000 4.784
84.58000 3.959
84.60000 1.112
84.62000 -0.211
84.64000 2.181
84.66000 3.076
84.68000 4.213
84.70000 2.364
84.72000 1.828
84.74000 5.044
84.76000 7.807
84.78000 3.710
84.80000 2.467
84.82000 0.979
84.84000 2.168
84.86000 2.853
84.88000 6.115
84.90000 2.589
84.92000 1.324
84.94000 1.473
84.96000 -0.019
84.98000 0.909
85.00000 6.308
85.02000 8.717
85.04000 8.760
85.06000 6.169
85.08000 5.544
85.10000 4.693
85.12000 2.536
85.14000 2.589
85.16000 4.293
85.18000 6.367
85.20000 4.855
85.22000 5.888
85.24000 6.188
85.26000 6.526
85.28000 9.157
85.30000 6.381
85.32000 7.992
85.34000 9.685
85.36000 10.405
85.38000 6.191
85.40000 9.644
85.42000 11.198
85.44000 11.771
85.46000 12.787
85.48000 7.384
85.50000 7.849
85.52000 9.480
85.54000 8.786
85.56000 9.621
85.58000 13.953
85.60000 11.813
85.62000 8.787
85.64000 11.051
85.66000 14.708
85.68000 15.391
85.70000 18.566
85.72000 20.846
85.74000 17.277
85.76000 14.880
85.78000 10.449
85.80000 15.308
85.82000 21.197
85.84000 23.382
85.86000 21.590
85.88000 18.658
85.90000 15.173
85.92000 19.454
85.94000 18.344
85.96000 19.053
85.98000 17.494
86.00000 19.211
86.02000 18.854
86.04000 19.617
86.06000 20.288
86.08000 22.186
86.10000 18.124
86.12000 21.469
86.14000 23.110
86.16000 20.692
86.18000 18.977
86.20000 17.561
86.22000 21.817
86.24000 22.425
86.26000 21.814
86.28000 19.071
86.30000 15.787
86.32000 18.040
86.34000 18.444
86.36000 19.145
86.38000 19.799
86.40000 18.942
86.42000 16.364
86.44000 19.070
86.46000 17.497
86.48000 15.158
86.50000 11.689
86.52000 11.095
86.54000 13.319
86.56000 15.598
86.58000 10.121
86.60000 12.973
86.62000 13.816
86.64000 12.285
86.66000 13.860
86.68000 12.964
86.70000 10.531
86.72000 10.295
86.74000 11.097
86.76000 10.311
86.78000 7.657
86.80000 5.165
86.82000 6.811
86.84000 5.012
86.86000 3.902
86.88000 1.421
86.90000 6.094
86.92000 9.126
86.94000 7.659
86.96000 3.581
86.98000 7.446
87.00000 6.909
87.02000 3.518
87.04000 3.805
87.06000 4.767
87.08000 5.750
87.10000 8.904
87.12000 5.274
87.14000 1.031
87.16000 2.156
87.18000 2.846
87.20000 2.858
87.22000 5.088
87.24000 6.184
87.26000 5.486
87.28000 2.268
87.30000 2.354
87.32000 6.185
87.34000 5.783
87.36000 4.630
87.38000 2.456
87.40000 0.153
87.42000 -0.372
87.44000 3.885
87.46000 1.056
87.48000 1.757
87.50000 2.459
87.52000 2.632
87.54000 5.112
87.56000 2.573
87.58000 -0.279
87.60000 0.951
87.62000 2.550
87.64000 2.569
87.66000 1.674
87.68000 0.619
87.70000 2.015
87.72000 -0.866
87.74000 2.777
87.76000 3.107
87.78000 -0.272
87.80000 0.587
87.82000 2.336
87.84000 -0.440
87.86000 1.644
87.88000 0.825
87.90000 -2.023
87.92000 -1.390
87.94000 -1.840
87.96000 -0.232
87.98000 0.357
88.00000 4.169
88.02000 0.353
88.04000 1.172
88.06000 3.181
88.08000 3.245
88.10000 2.364
88.12000 -1.136
88.14000 0.405
88.16000 3.117
88.18000 2.891
88.20000 1.049
88.22000 2.781
88.24000 -0.451
88.26000 -1.972
88.28000 0.838
88.30000 0.847
88.32000 0.378
88.34000 2.459
88.36000 2.836
88.38000 2.379
88.40000 2.096
88.42000 2.057
88.44000 2.592
88.46000 1.929
88.48000 3.581
88.50000 0.840
88.52000 3.541
88.54000 1.753
88.56000 0.840
88.58000 -0.432
88.60000 4.720
88.62000 4.274
88.64000 6.803
88.66000 4.071
88.68000 4.121
88.70000 6.095
88.72000 5.781
88.74000 3.806
88.76000 1.803
88.78000 2.887
88.80000 0.787
88.82000 4.676
88.84000 3.690
88.86000 1.462
88.88000 2.694
88.90000 2.742
88.92000 3.516
88.94000 3.643
88.96000 3.063
88.98000 1.162
89.00000 2.714
89.02000 4.004
89.04000 3.431
89.06000 -0.090
89.08000 -1.890
89.10000 4.495
89.12000 1.067
89.14000 4.999
89.16000 5.795
89.18000 2.775
89.20000 1.960
89.22000 3.106
89.24000 0.715
89.26000 0.703
89.28000 0.031
89.30000 4.540
89.32000 4.214
89.34000 1.676
89.36000 3.013
89.38000 1.722
89.40000 1.196
89.42000 3.299
89.44000 4.719
89.46000 2.839
89.48000 0.077
89.50000 2.869
89.52000 3.985
89.54000 1.605
89.56000 5.321
89.58000 3.875
89.60000 2.737
89.62000 0.055
89.64000 -0.278
89.66000 1.183
89.68000 3.235
89.70000 2.376
89.72000 2.770
89.74000 3.432
89.76000 0.502
89.78000 1.439
89.80000 -1.019
89.82000 3.511
89.84000 4.205
89.86000 3.080
89.88000 2.807
89.90000 1.337
89.92000 2.609
89.94000 3.131
89.96000 3.957
89.98000 2.287
90.00000 0.334
90.02000 -1.239
90.04000 -1.944
90.06000 0.089
90.08000 0.260
90.10000 -0.331
90.12000 0.934
90.14000 1.555
90.16000 -1.919
90.18000 -0.655
90.20000 0.065
90.22000 0.172
90.24000 -1.545
90.26000 -1.166
90.28000 1.525
90.30000 1.717
90.32000 0.691
90.34000 2.192
90.36000 2.361
90.38000 -1.538
90.40000 -1.248
90.42000 2.995
90.44000 2.746
90.46000 -0.246
90.48000 2.091
90.50000 4.080
90.52000 1.286
90.54000 0.741
90.56000 0.317
90.58000 0.570
90.60000 0.174
90.62000 3.116
90.64000 1.689
90.66000 2.892
90.68000 0.710
90.70000 2.014
90.72000 3.775
90.74000 1.646
90.76000 0.628
90.78000 3.686
90.80000 7.037
90.82000 3.282
90.84000 1.962
90.86000 3.838
90.88000 4.423
90.90000 0.898
90.92000 0.401
90.94000 -0.528
90.96000 -0.647
90.98000 0.873
91.00000 0.588
91.02000 -0.148
91.04000 1.747
91.06000 -0.277
91.08000 -1.384
91.10000 -1.374
91.12000 -1.951
91.14000 -1.509
91.16000 -0.792
91.18000 3.082
91.20000 6.528
91.22000 3.230
91.24000 2.621
91.26000 3.728
91.28000 2.169
91.30000 2.414
91.32000 4.399
91.34000 3.581
91.36000 3.819
91.38000 1.188
91.40000 3.264
91.42000 5.875
91.44000 1.863
91.46000 -0.760
91.48000 -0.970
91.50000 -0.258
91.52000 1.819
91.54000 1.333
91.56000 1.929
91.58000 1.499
91.60000 0.025
91.62000 -1.094
91.64000 0.211
91.66000 -0.110
91.68000 0.324
91.70000 2.425
91.72000 2.140
91.74000 0.964
91.76000 0.211
91.78000 -1.869
91.80000 -1.781
91.82000 2.171
91.84000 4.828
91.86000 1.398
91.88000 -0.623
91.90000 1.294
91.92000 1.490
91.94000 0.094
91.96000 0.522
91.98000 1.260
92.00000 2.212
92.02000 0.837
92.04000 1.231
92.06000 -0.137
92.08000 1.033
92.10000 0.165
92.12000 -1.528
92.14000 1.501
92.16000 1.929
92.18000 0.048
92.20000 0.995
92.22000 3.494
92.24000 1.514
92.26000 2.608
92.28000 2.077
92.30000 -1.403
92.32000 0.035
92.34000 2.179
92.36000 2.794
92.38000 3.999
92.40000 2.380
92.42000 1.194
92.44000 2.373
92.46000 2.119
92.48000 -0.876
92.50000 -1.940
92.52000 2.415
92.54000 6.477
92.56000 5.592
92.58000 4.705
92.60000 3.249
92.62000 0.841
92.64000 2.039
92.66000 1.216
92.68000 4.097
92.70000 2.830
92.72000 3.278
92.74000 3.583
92.76000 4.234
92.78000 5.062
92.80000 2.587
92.82000 -0.075
92.84000 2.092
92.86000 5.377
92.88000 3.796
92.90000 1.094
92.92000 1.991
92.94000 0.217
92.96000 -1.146
92.98000 0.954
93.00000 2.366
93.02000 1.296
93.04000 -0.059
93.06000 -0.567
93.08000 1.163
93.10000 0.738
93.12000 0.457
93.14000 4.366
93.16000 2.357
93.18000 3.896
93.20000 2.371
93.22000 2.667
93.24000 1.576
93.26000 0.784
93.28000 0.655
93.30000 -1.193
93.32000 -0.721
93.34000 -1.536
93.36000 0.439
93.38000 -0.430
93.40000 -0.120
93.42000 0.415
93.44000 5.425
93.46000 2.113
93.48000 0.977
93.50000 -0.472
93.52000 1.885
93.54000 3.804
93.56000 5.290
93.58000 4.997
93.60000 3.699
93.62000 2.915
93.64000 1.127
93.66000 -1.598
93.68000 -1.948
93.70000 0.921
93.72000 1.251
93.74000 5.231
93.76000 6.582
93.78000 0.543
93.80000 0.055
93.82000 8.957
93.84000 5.621
93.86000 4.090
93.88000 3.799
93.90000 3.677
93.92000 5.115
93.94000 6.235
93.96000 5.766
93.98000 3.925
94.00000 5.337
94.02000 1.802
94.04000 4.954
94.06000 7.279
94.08000 6.854
94.10000 1.276
94.12000 3.662
94.14000 4.350
94.16000 2.338
94.18000 1.749
94.20000 -0.439
94.22000 -1.600
94.24000 4.833
94.26000 4.805
94.28000 3.749
94.30000 5.883
94.32000 6.319
94.34000 4.686
94.36000 5.103
94.38000 2.375
94.40000 1.366
94.42000 0.148
94.44000 -1.181
94.46000 2.586
94.48000 1.778
94.50000 3.781
94.52000 2.767
94.54000 2.435
94.56000 0.737
94.58000 5.286
94.60000 6.958
94.62000 7.029
94.64000 4.351
94.66000 0.780
94.68000 2.657
94.70000 2.578
94.72000 -1.022
94.74000 1.723
94.76000 4.001
94.78000 3.468
94.80000 1.339
94.82000 -0.334
94.84000 2.963
94.86000 2.368
94.88000 -0.771
94.90000 -1.922
94.92000 0.451
94.94000 3.148
94.96000 1.317
94.98000 1.908
95.00000 5.888
95.02000 3.992
95.04000 -1.218
95.06000 2.529
95.08000 4.694
95.10000 4.513
95.12000 2.437
95.14000 -1.249
95.16000 0.409
95.18000 -0.013
95.20000 3.092
95.22000 7.912
95.24000 3.349
95.26000 4.163
95.28000 3.983
95.30000 2.602
95.32000 1.966
95.34000 3.011
95.36000 2.454
95.38000 6.336
95.40000 6.165
95.42000 1.992
95.44000 -0.939
95.46000 0.603
95.48000 3.681
95.50000 7.127
95.52000 4.911
95.54000 2.842
95.56000 2.940
95.58000 3.724
95.60000 6.195
95.62000 4.029
95.64000 6.453
95.66000 0.822
95.68000 -0.167
95.70000 -1.947
95.72000 2.248
95.74000 4.949
95.76000 -0.526
95.78000 0.591
95.80000 0.488
95.82000 0.131
95.84000 2.582
95.86000 1.787
95.88000 1.119
95.90000 4.917
95.92000 7.062
95.94000 2.105
95.96000 1.960
95.98000 3.738
96.00000 2.798
96.02000 5.656
96.04000 1.083
96.06000 -1.943
96.08000 1.406
96.10000 6.144
96.12000 2.920
96.14000 4.902
96.16000 4.968
96.18000 5.291
96.20000 2.320
96.22000 -1.684
96.24000 1.579
96.26000 -1.325
96.28000 1.299
96.30000 4.988
96.32000 6.644
96.34000 2.694
96.36000 0.133
96.38000 -1.222
96.40000 3.722
96.42000 2.885
96.44000 0.914
96.46000 1.353
96.48000 -0.708
96.50000 1.031
96.52000 -1.907
96.54000 5.043
96.56000 7.276
96.58000 5.834
96.60000 2.099
96.62000 -1.965
96.64000 -1.423
96.66000 0.640
96.68000 3.527
96.70000 0.039
96.72000 2.138
96.74000 7.283
96.76000 4.403
96.78000 1.014
96.80000 2.037
96.82000 2.956
96.84000 1.009
96.86000 0.520
96.88000 0.564
96.90000 -0.651
96.92000 3.594
96.94000 3.726
96.96000 2.490
96.98000 3.569
97.00000 2.193
97.02000 0.655
97.04000 -0.215
97.06000 -1.968
97.08000 -0.587
97.10000 -1.709
97.12000 0.282
97.14000 1.042
97.16000 3.772
97.18000 1.700
97.20000 -0.265
97.22000 2.163
97.24000 2.537
97.26000 1.817
97.28000 0.034
97.30000 1.783
97.32000 3.603
97.34000 -1.292
97.36000 1.108
97.38000 1.829
97.40000 4.210
97.42000 3.751
97.44000 2.637
97.46000 2.364
97.48000 1.417
97.50000 2.248
97.52000 6.398
97.54000 5.028
97.56000 2.693
97.58000 1.414
97.60000 1.619
97.62000 1.832
97.64000 0.775
97.66000 1.049
97.68000 2.826
97.70000 0.992
97.72000 0.178
97.74000 4.743
97.76000 4.744
97.78000 1.330
97.80000 -0.229
97.82000 -0.366
97.84000 -1.287
97.86000 -1.902
97.88000 2.489
97.90000 2.423
97.92000 1.336
97.94000 -1.467
97.96000 -0.335
97.98000 -1.423
98.00000 -0.142
98.02000 2.403
98.04000 7.582
98.06000 6.032
98.08000 2.176
98.10000 0.188
98.12000 1.421
98.14000 4.610
98.16000 4.647
98.18000 3.383
98.20000 5.548
98.22000 3.953
98.24000 -0.531
98.26000 1.563
98.28000 2.704
98.30000 5.289
98.32000 9.739
98.34000 6.228
98.36000 6.276
98.38000 -0.363
98.40000 4.962
98.42000 0.017
98.44000 0.054
98.46000 1.623
98.48000 5.293
98.50000 9.604
98.52000 7.664
98.54000 3.479
98.56000 -0.553
98.58000 -1.891
98.60000 7.909
98.62000 5.586
98.64000 4.519
98.66000 9.706
98.68000 4.423
98.70000 3.420
98.72000 9.237
98.74000 9.123
98.76000 9.036
98.78000 9.630
98.80000 6.778
98.82000 3.275
98.84000 0.077
98.86000 4.075
98.88000 3.382
98.90000 -1.732
98.92000 0.240
98.94000 -1.896
98.96000 1.885
98.98000 1.313
99.00000 2.935
99.02000 1.882
99.04000 2.094
99.06000 1.704
99.08000 4.837
99.10000 2.448
99.12000 1.695
99.14000 7.214
99.16000 4.969
99.18000 9.832
99.20000 6.338
99.22000 3.255
99.24000 1.236
99.26000 -0.787
99.28000 4.960
99.30000 2.412
99.32000 2.405
99.34000 10.439
99.36000 5.552
99.38000 1.353
99.40000 3.910
99.42000 4.433
99.44000 -0.364
99.46000 0.574
99.48000 8.010
99.50000 9.223
99.52000 9.618
99.54000 0.811
99.56000 -0.484
99.58000 2.220
99.60000 5.956
99.62000 4.648
99.64000 12.097
99.66000 14.273
99.68000 10.463
99.70000 1.280
99.72000 7.174
99.74000 -0.324
99.76000 5.547
99.78000 7.579
99.80000 5.290
99.82000 6.579
99.84000 8.307
99.86000 3.567
99.88000 -1.896
99.90000 -0.109
99.92000 2.695
99.94000 3.535
99.96000 0.041
99.98000 0.000
