'Id: "0011389" Comment: "Integrate frame 0011389_Au-Ir-Rh_Au-Rich_XRD_Mapping-316-0000.gfrmwith cursor Wedge Cursor #5" Operator: "B?rgel" Anode: "Cu" Wavelength: "1.5406" Scantype: "2Theta (TwoTheta)" TimePerStep: "1" X: "-4.5" Y: "36" Z: "5.95" 
10.00000 0.000
10.02000 -4.504
10.04000 -2.290
10.06000 1.974
10.08000 19.301
10.10000 -6.474
10.12000 5.048
10.14000 17.596
10.16000 1.476
10.18000 9.269
10.20000 11.720
10.22000 2.635
10.24000 7.414
10.26000 -0.979
10.28000 13.003
10.30000 2.726
10.32000 -4.429
10.34000 16.137
10.36000 16.937
10.38000 28.778
10.40000 28.952
10.42000 29.292
10.44000 8.551
10.46000 15.490
10.48000 7.876
10.50000 12.388
10.52000 16.427
10.54000 -7.368
10.56000 7.997
10.58000 22.393
10.60000 11.314
10.62000 17.272
10.64000 17.682
10.66000 27.468
10.68000 18.585
10.70000 12.076
10.72000 -0.451
10.74000 11.932
10.76000 17.790
10.78000 3.917
10.80000 1.917
10.82000 4.581
10.84000 8.764
10.86000 17.119
10.88000 26.853
10.90000 20.620
10.92000 14.854
10.94000 14.470
10.96000 21.134
10.98000 9.500
11.00000 -2.102
11.02000 -2.592
11.04000 13.793
11.06000 -5.192
11.08000 8.016
11.10000 24.239
11.12000 20.607
11.14000 18.783
11.16000 7.715
11.18000 14.012
11.20000 9.506
11.22000 19.069
11.24000 17.329
11.26000 12.243
11.28000 12.401
11.30000 12.651
11.32000 3.334
11.34000 11.325
11.36000 14.630
11.38000 8.793
11.40000 5.436
11.42000 11.838
11.44000 5.864
11.46000 5.359
11.48000 -4.480
11.50000 3.423
11.52000 8.760
11.54000 13.541
11.56000 12.038
11.58000 14.664
11.60000 6.194
11.62000 3.927
11.64000 6.678
11.66000 21.939
11.68000 12.536
11.70000 6.589
11.72000 10.288
11.74000 6.343
11.76000 -2.598
11.78000 2.660
11.80000 14.339
11.82000 10.126
11.84000 9.066
11.86000 10.872
11.88000 8.566
11.90000 7.886
11.92000 17.789
11.94000 20.835
11.96000 13.853
11.98000 1.619
12.00000 4.491
12.02000 13.631
12.04000 6.734
12.06000 17.667
12.08000 17.535
12.10000 14.055
12.12000 9.529
12.14000 21.824
12.16000 9.534
12.18000 12.743
12.20000 8.016
12.22000 6.916
12.24000 6.351
12.26000 7.307
12.28000 7.218
12.30000 15.284
12.32000 8.811
12.34000 7.081
12.36000 6.244
12.38000 -0.067
12.40000 2.390
12.42000 4.064
12.44000 12.126
12.46000 9.810
12.48000 18.607
12.50000 18.995
12.52000 9.681
12.54000 9.684
12.56000 13.602
12.58000 13.223
12.60000 10.499
12.62000 11.634
12.64000 11.681
12.66000 14.593
12.68000 16.303
12.70000 11.822
12.72000 0.060
12.74000 -1.003
12.76000 -0.204
12.78000 6.379
12.80000 17.543
12.82000 13.226
12.84000 14.234
12.86000 16.773
12.88000 6.570
12.90000 12.328
12.92000 21.460
12.94000 17.381
12.96000 10.968
12.98000 3.113
13.00000 8.966
13.02000 10.012
13.04000 8.872
13.06000 7.938
13.08000 6.911
13.10000 11.815
13.12000 5.329
13.14000 3.240
13.16000 15.492
13.18000 13.986
13.20000 4.234
13.22000 3.374
13.24000 9.882
13.26000 6.882
13.28000 3.753
13.30000 7.145
13.32000 7.373
13.34000 15.249
13.36000 21.357
13.38000 25.849
13.40000 12.032
13.42000 8.914
13.44000 16.697
13.46000 9.912
13.48000 4.966
13.50000 12.726
13.52000 4.084
13.54000 10.741
13.56000 12.150
13.58000 14.846
13.60000 13.140
13.62000 6.392
13.64000 5.360
13.66000 10.614
13.68000 0.349
13.70000 -4.195
13.72000 5.215
13.74000 8.239
13.76000 6.794
13.78000 9.015
13.80000 3.880
13.82000 2.679
13.84000 9.558
13.86000 4.025
13.88000 11.684
13.90000 12.803
13.92000 15.682
13.94000 3.492
13.96000 2.567
13.98000 3.129
14.00000 10.119
14.02000 7.572
14.04000 11.503
14.06000 16.537
14.08000 12.759
14.10000 1.465
14.12000 2.287
14.14000 3.957
14.16000 8.009
14.18000 12.095
14.20000 1.658
14.22000 1.104
14.24000 8.924
14.26000 7.521
14.28000 12.838
14.30000 9.467
14.32000 7.505
14.34000 -0.812
14.36000 0.857
14.38000 8.379
14.40000 9.760
14.42000 7.256
14.44000 5.536
14.46000 9.883
14.48000 7.732
14.50000 9.323
14.52000 12.055
14.54000 7.370
14.56000 1.329
14.58000 3.570
14.60000 6.458
14.62000 13.025
14.64000 5.000
14.66000 9.662
14.68000 16.726
14.70000 1.683
14.72000 -4.422
14.74000 1.201
14.76000 6.357
14.78000 12.215
14.80000 6.542
14.82000 8.208
14.84000 6.783
14.86000 2.862
14.88000 3.423
14.90000 4.069
14.92000 4.257
14.94000 7.678
14.96000 5.483
14.98000 2.746
15.00000 0.493
15.02000 -1.085
15.04000 -2.076
15.06000 6.022
15.08000 8.555
15.10000 12.604
15.12000 8.910
15.14000 6.587
15.16000 2.757
15.18000 2.513
15.20000 4.323
15.22000 7.949
15.24000 5.193
15.26000 3.180
15.28000 0.582
15.30000 9.365
15.32000 15.161
15.34000 18.370
15.36000 21.875
15.38000 18.841
15.40000 9.917
15.42000 3.640
15.44000 -1.115
15.46000 5.096
15.48000 7.134
15.50000 8.208
15.52000 9.622
15.54000 15.616
15.56000 14.322
15.58000 3.025
15.60000 -0.088
15.62000 -4.500
15.64000 6.661
15.66000 3.687
15.68000 7.885
15.70000 13.114
15.72000 5.641
15.74000 3.840
15.76000 1.899
15.78000 1.514
15.80000 4.269
15.82000 9.430
15.84000 13.673
15.86000 14.415
15.88000 7.792
15.90000 1.984
15.92000 7.436
15.94000 7.632
15.96000 8.164
15.98000 7.965
16.00000 5.219
16.02000 5.887
16.04000 9.963
16.06000 8.186
16.08000 3.573
16.10000 1.893
16.12000 7.192
16.14000 11.782
16.16000 2.943
16.18000 2.524
16.20000 9.933
16.22000 4.612
16.24000 11.188
16.26000 17.340
16.28000 4.330
16.30000 3.634
16.32000 9.568
16.34000 12.813
16.36000 15.741
16.38000 14.120
16.40000 7.062
16.42000 -1.296
16.44000 -0.145
16.46000 8.074
16.48000 3.708
16.50000 3.762
16.52000 1.819
16.54000 5.234
16.56000 -2.715
16.58000 1.104
16.60000 -0.737
16.62000 1.678
16.64000 2.717
16.66000 1.791
16.68000 -0.694
16.70000 -1.170
16.72000 2.935
16.74000 10.406
16.76000 10.180
16.78000 14.582
16.80000 9.748
16.82000 4.152
16.84000 -0.686
16.86000 4.060
16.88000 13.572
16.90000 7.101
16.92000 4.556
16.94000 7.537
16.96000 6.715
16.98000 -2.164
17.00000 1.753
17.02000 4.274
17.04000 5.828
17.06000 7.072
17.08000 6.932
17.10000 3.154
17.12000 4.858
17.14000 8.208
17.16000 3.826
17.18000 0.136
17.20000 10.189
17.22000 9.728
17.24000 6.654
17.26000 4.492
17.28000 5.079
17.30000 7.575
17.32000 10.212
17.34000 8.728
17.36000 4.809
17.38000 5.503
17.40000 8.496
17.42000 7.456
17.44000 6.012
17.46000 8.634
17.48000 12.741
17.50000 3.589
17.52000 1.131
17.54000 9.950
17.56000 7.578
17.58000 4.777
17.60000 10.330
17.62000 9.789
17.64000 4.494
17.66000 1.235
17.68000 -4.405
17.70000 2.123
17.72000 5.315
17.74000 1.723
17.76000 0.222
17.78000 4.056
17.80000 8.194
17.82000 2.848
17.84000 -1.785
17.86000 2.368
17.88000 2.830
17.90000 9.408
17.92000 1.838
17.94000 6.228
17.96000 8.635
17.98000 4.540
18.00000 3.465
18.02000 -0.182
18.04000 4.727
18.06000 1.389
18.08000 4.762
18.10000 4.492
18.12000 6.381
18.14000 6.819
18.16000 1.633
18.18000 9.980
18.20000 11.751
18.22000 11.787
18.24000 13.704
18.26000 8.236
18.28000 12.593
18.30000 15.774
18.32000 9.841
18.34000 2.334
18.36000 0.677
18.38000 0.804
18.40000 2.288
18.42000 -1.521
18.44000 5.352
18.46000 6.002
18.48000 2.430
18.50000 3.606
18.52000 7.254
18.54000 15.872
18.56000 11.898
18.58000 15.189
18.60000 11.399
18.62000 5.078
18.64000 3.588
18.66000 10.975
18.68000 -2.154
18.70000 -4.314
18.72000 -0.491
18.74000 4.573
18.76000 8.659
18.78000 9.669
18.80000 8.759
18.82000 6.896
18.84000 14.292
18.86000 8.174
18.88000 3.835
18.90000 9.728
18.92000 16.323
18.94000 13.458
18.96000 10.689
18.98000 4.233
19.00000 -3.825
19.02000 -3.620
19.04000 2.593
19.06000 4.793
19.08000 8.194
19.10000 6.957
19.12000 1.675
19.14000 4.835
19.16000 5.937
19.18000 12.496
19.20000 6.965
19.22000 6.775
19.24000 6.398
19.26000 10.548
19.28000 7.478
19.30000 2.903
19.32000 1.839
19.34000 7.216
19.36000 6.656
19.38000 5.016
19.40000 1.563
19.42000 2.452
19.44000 4.382
19.46000 2.589
19.48000 7.383
19.50000 6.598
19.52000 14.498
19.54000 12.329
19.56000 13.198
19.58000 8.306
19.60000 0.791
19.62000 0.799
19.64000 2.516
19.66000 2.151
19.68000 0.477
19.70000 5.433
19.72000 11.600
19.74000 16.726
19.76000 4.786
19.78000 3.379
19.80000 6.397
19.82000 6.627
19.84000 5.401
19.86000 10.515
19.88000 12.910
19.90000 6.928
19.92000 -0.820
19.94000 2.370
19.96000 -0.800
19.98000 -1.001
20.00000 0.450
20.02000 5.113
20.04000 4.284
20.06000 -3.503
20.08000 -4.235
20.10000 0.913
20.12000 4.068
20.14000 -0.893
20.16000 0.990
20.18000 0.711
20.20000 -0.716
20.22000 6.395
20.24000 7.226
20.26000 7.233
20.28000 6.694
20.30000 6.274
20.32000 13.131
20.34000 9.414
20.36000 4.572
20.38000 6.818
20.40000 7.478
20.42000 -2.182
20.44000 1.506
20.46000 5.559
20.48000 2.756
20.50000 4.969
20.52000 6.875
20.54000 8.585
20.56000 6.262
20.58000 7.818
20.60000 7.530
20.62000 4.762
20.64000 1.867
20.66000 5.068
20.68000 -2.262
20.70000 -1.564
20.72000 0.002
20.74000 -0.321
20.76000 4.765
20.78000 6.906
20.80000 3.509
20.82000 2.549
20.84000 8.050
20.86000 12.797
20.88000 13.166
20.90000 9.070
20.92000 2.919
20.94000 3.581
20.96000 4.748
20.98000 2.489
21.00000 4.235
21.02000 3.744
21.04000 6.251
21.06000 4.146
21.08000 6.239
21.10000 5.796
21.12000 3.971
21.14000 3.095
21.16000 6.997
21.18000 7.257
21.20000 1.147
21.22000 3.589
21.24000 6.591
21.26000 -1.688
21.28000 -3.981
21.30000 -1.883
21.32000 0.675
21.34000 -3.623
21.36000 -1.892
21.38000 2.789
21.40000 3.777
21.42000 0.037
21.44000 1.027
21.46000 8.098
21.48000 9.556
21.50000 11.358
21.52000 10.840
21.54000 1.582
21.56000 4.916
21.58000 10.218
21.60000 9.467
21.62000 4.710
21.64000 6.086
21.66000 7.445
21.68000 2.118
21.70000 0.331
21.72000 -1.795
21.74000 -3.323
21.76000 -3.144
21.78000 -4.150
21.80000 5.465
21.82000 0.986
21.84000 5.892
21.86000 10.087
21.88000 5.628
21.90000 7.288
21.92000 8.975
21.94000 3.093
21.96000 4.929
21.98000 1.466
22.00000 1.058
22.02000 2.472
22.04000 3.436
22.06000 3.507
22.08000 1.164
22.10000 10.318
22.12000 4.987
22.14000 2.775
22.16000 8.514
22.18000 4.831
22.20000 2.223
22.22000 4.994
22.24000 9.976
22.26000 4.607
22.28000 -3.724
22.30000 -1.899
22.32000 5.632
22.34000 5.470
22.36000 3.520
22.38000 9.136
22.40000 5.252
22.42000 2.807
22.44000 3.600
22.46000 2.737
22.48000 1.905
22.50000 -4.115
22.52000 -1.820
22.54000 3.648
22.56000 4.609
22.58000 8.337
22.60000 4.833
22.62000 2.396
22.64000 4.781
22.66000 5.584
22.68000 2.702
22.70000 7.510
22.72000 5.831
22.74000 2.209
22.76000 3.326
22.78000 0.675
22.80000 0.369
22.82000 1.523
22.84000 1.625
22.86000 5.020
22.88000 9.905
22.90000 9.278
22.92000 1.597
22.94000 3.592
22.96000 0.897
22.98000 -0.356
23.00000 3.562
23.02000 0.235
23.04000 -1.286
23.06000 2.703
23.08000 7.276
23.10000 1.385
23.12000 -0.845
23.14000 -0.633
23.16000 4.213
23.18000 3.564
23.20000 1.078
23.22000 11.260
23.24000 7.184
23.26000 4.617
23.28000 -1.841
23.30000 -0.841
23.32000 0.848
23.34000 3.796
23.36000 1.473
23.38000 0.983
23.40000 -0.371
23.42000 -0.128
23.44000 -0.745
23.46000 5.230
23.48000 2.486
23.50000 8.690
23.52000 1.394
23.54000 -1.103
23.56000 8.305
23.58000 7.210
23.60000 6.905
23.62000 9.704
23.64000 2.879
23.66000 -2.418
23.68000 3.673
23.70000 7.687
23.72000 5.375
23.74000 2.301
23.76000 3.061
23.78000 4.073
23.80000 -2.767
23.82000 -0.149
23.84000 -0.154
23.86000 -0.303
23.88000 2.505
23.90000 1.051
23.92000 1.409
23.94000 6.141
23.96000 9.411
23.98000 3.009
24.00000 -0.218
24.02000 0.898
24.04000 5.478
24.06000 0.453
24.08000 -2.031
24.10000 -0.043
24.12000 7.292
24.14000 0.679
24.16000 0.799
24.18000 4.509
24.20000 4.474
24.22000 5.011
24.24000 3.952
24.26000 1.664
24.28000 1.351
24.30000 0.741
24.32000 -2.403
24.34000 2.074
24.36000 3.433
24.38000 -1.531
24.40000 -1.733
24.42000 2.941
24.44000 1.311
24.46000 0.486
24.48000 -2.428
24.50000 2.577
24.52000 3.831
24.54000 2.967
24.56000 -2.402
24.58000 0.595
24.60000 4.407
24.62000 4.491
24.64000 4.427
24.66000 -2.245
24.68000 3.609
24.70000 0.812
24.72000 4.265
24.74000 -0.083
24.76000 1.296
24.78000 6.389
24.80000 -0.281
24.82000 0.758
24.84000 3.478
24.86000 5.118
24.88000 -3.990
24.90000 -1.630
24.92000 10.710
24.94000 7.594
24.96000 5.217
24.98000 -0.598
25.00000 1.255
25.02000 -2.024
25.04000 1.248
25.06000 3.990
25.08000 -2.365
25.10000 -2.317
25.12000 3.915
25.14000 7.167
25.16000 5.106
25.18000 4.485
25.20000 -2.290
25.22000 0.699
25.24000 4.581
25.26000 9.380
25.28000 6.528
25.30000 2.752
25.32000 3.682
25.34000 4.141
25.36000 5.842
25.38000 5.398
25.40000 -0.370
25.42000 0.898
25.44000 2.450
25.46000 1.667
25.48000 2.647
25.50000 0.936
25.52000 4.108
25.54000 5.327
25.56000 3.486
25.58000 -1.517
25.60000 -1.830
25.62000 1.770
25.64000 3.889
25.66000 5.127
25.68000 7.042
25.70000 7.530
25.72000 0.035
25.74000 4.604
25.76000 10.556
25.78000 8.536
25.80000 7.904
25.82000 1.163
25.84000 2.336
25.86000 2.982
25.88000 0.534
25.90000 3.531
25.92000 4.364
25.94000 1.936
25.96000 1.213
25.98000 3.623
26.00000 12.191
26.02000 6.735
26.04000 -2.718
26.06000 1.277
26.08000 -1.525
26.10000 -0.512
26.12000 1.382
26.14000 -1.732
26.16000 1.351
26.18000 -1.788
26.20000 3.954
26.22000 3.723
26.24000 1.191
26.26000 4.039
26.28000 3.842
26.30000 3.406
26.32000 4.131
26.34000 4.859
26.36000 1.207
26.38000 2.000
26.40000 2.319
26.42000 4.341
26.44000 4.416
26.46000 4.561
26.48000 3.177
26.50000 4.781
26.52000 0.347
26.54000 0.985
26.56000 2.130
26.58000 -0.719
26.60000 -0.892
26.62000 2.159
26.64000 6.526
26.66000 4.950
26.68000 2.958
26.70000 6.055
26.72000 6.680
26.74000 5.255
26.76000 3.113
26.78000 1.149
26.80000 -2.180
26.82000 3.546
26.84000 5.883
26.86000 9.161
26.88000 7.651
26.90000 6.424
26.92000 4.961
26.94000 8.289
26.96000 8.653
26.98000 8.329
27.00000 2.848
27.02000 0.948
27.04000 3.387
27.06000 4.451
27.08000 2.534
27.10000 5.783
27.12000 4.764
27.14000 8.344
27.16000 11.036
27.18000 5.705
27.20000 -3.849
27.22000 -3.221
27.24000 4.245
27.26000 4.574
27.28000 4.783
27.30000 3.319
27.32000 1.645
27.34000 8.987
27.36000 10.415
27.38000 11.014
27.40000 5.272
27.42000 2.820
27.44000 1.570
27.46000 3.258
27.48000 6.348
27.50000 7.254
27.52000 7.752
27.54000 4.343
27.56000 2.292
27.58000 6.136
27.60000 5.624
27.62000 2.927
27.64000 4.378
27.66000 5.471
27.68000 4.045
27.70000 4.632
27.72000 7.535
27.74000 6.169
27.76000 3.966
27.78000 3.672
27.80000 4.026
27.82000 6.896
27.84000 1.491
27.86000 -2.267
27.88000 3.506
27.90000 6.902
27.92000 6.195
27.94000 2.720
27.96000 3.953
27.98000 8.355
28.00000 2.230
28.02000 -2.308
28.04000 4.548
28.06000 5.306
28.08000 -1.135
28.10000 5.319
28.12000 4.835
28.14000 0.174
28.16000 1.693
28.18000 2.729
28.20000 4.275
28.22000 2.246
28.24000 5.223
28.26000 5.634
28.28000 -3.817
28.30000 -1.275
28.32000 4.461
28.34000 3.579
28.36000 4.754
28.38000 7.525
28.40000 8.080
28.42000 5.369
28.44000 3.192
28.46000 3.216
28.48000 1.372
28.50000 3.125
28.52000 3.712
28.54000 1.552
28.56000 1.689
28.58000 3.353
28.60000 1.527
28.62000 2.369
28.64000 9.464
28.66000 6.583
28.68000 7.971
28.70000 4.449
28.72000 0.745
28.74000 -1.406
28.76000 -0.020
28.78000 0.231
28.80000 3.933
28.82000 4.847
28.84000 3.996
28.86000 6.083
28.88000 3.058
28.90000 -0.424
28.92000 2.407
28.94000 6.703
28.96000 3.862
28.98000 1.991
29.00000 2.979
29.02000 0.809
29.04000 3.651
29.06000 2.685
29.08000 3.479
29.10000 3.474
29.12000 0.334
29.14000 -1.662
29.16000 3.167
29.18000 2.381
29.20000 3.956
29.22000 1.121
29.24000 -0.935
29.26000 -3.770
29.28000 1.713
29.30000 3.021
29.32000 5.945
29.34000 8.061
29.36000 6.061
29.38000 4.282
29.40000 1.428
29.42000 -0.534
29.44000 -1.897
29.46000 4.554
29.48000 3.008
29.50000 1.965
29.52000 1.380
29.54000 7.569
29.56000 7.200
29.58000 -0.628
29.60000 -1.385
29.62000 1.587
29.64000 -2.469
29.66000 0.631
29.68000 2.404
29.70000 3.010
29.72000 4.827
29.74000 4.658
29.76000 -2.152
29.78000 -0.607
29.80000 1.405
29.82000 6.084
29.84000 7.419
29.86000 6.893
29.88000 7.558
29.90000 3.796
29.92000 1.880
29.94000 -3.490
29.96000 0.829
29.98000 2.501
30.00000 -2.193
30.02000 2.464
30.04000 3.791
30.06000 4.474
30.08000 -0.070
30.10000 1.508
30.12000 4.162
30.14000 5.935
30.16000 2.835
30.18000 2.251
30.20000 -2.465
30.22000 1.278
30.24000 7.164
30.26000 11.391
30.28000 3.430
30.30000 -0.453
30.32000 5.859
30.34000 2.252
30.36000 3.806
30.38000 4.413
30.40000 4.240
30.42000 6.809
30.44000 6.205
30.46000 5.185
30.48000 2.728
30.50000 -2.125
30.52000 0.645
30.54000 2.097
30.56000 3.282
30.58000 -1.862
30.60000 0.328
30.62000 3.166
30.64000 5.671
30.66000 6.740
30.68000 6.268
30.70000 8.703
30.72000 10.808
30.74000 12.926
30.76000 7.775
30.78000 4.036
30.80000 2.508
30.82000 -1.990
30.84000 -1.081
30.86000 3.030
30.88000 2.056
30.90000 5.638
30.92000 2.817
30.94000 4.639
30.96000 3.697
30.98000 0.541
31.00000 -3.053
31.02000 -3.688
31.04000 -1.595
31.06000 2.817
31.08000 4.465
31.10000 3.555
31.12000 3.393
31.14000 1.920
31.16000 0.595
31.18000 0.910
31.20000 4.475
31.22000 8.484
31.24000 8.223
31.26000 7.381
31.28000 5.882
31.30000 4.835
31.32000 4.282
31.34000 2.738
31.36000 4.391
31.38000 5.884
31.40000 1.357
31.42000 0.093
31.44000 -0.350
31.46000 -0.280
31.48000 2.659
31.50000 2.225
31.52000 0.397
31.54000 0.639
31.56000 2.113
31.58000 5.343
31.60000 4.448
31.62000 1.622
31.64000 -3.690
31.66000 1.685
31.68000 0.159
31.70000 0.276
31.72000 1.616
31.74000 3.287
31.76000 4.187
31.78000 5.618
31.80000 3.506
31.82000 1.766
31.84000 -0.148
31.86000 0.499
31.88000 1.004
31.90000 0.964
31.92000 4.384
31.94000 4.870
31.96000 1.336
31.98000 1.200
32.00000 -1.505
32.02000 -2.261
32.04000 0.033
32.06000 1.525
32.08000 -2.316
32.10000 0.554
32.12000 0.825
32.14000 0.735
32.16000 2.813
32.18000 -0.831
32.20000 -3.071
32.22000 -2.001
32.24000 1.655
32.26000 2.360
32.28000 2.512
32.30000 -2.931
32.32000 1.173
32.34000 2.156
32.36000 3.061
32.38000 5.538
32.40000 6.677
32.42000 2.186
32.44000 -2.511
32.46000 -3.111
32.48000 -0.346
32.50000 2.220
32.52000 2.865
32.54000 0.845
32.56000 -2.830
32.58000 -2.242
32.60000 0.862
32.62000 -1.334
32.64000 -0.267
32.66000 -2.929
32.68000 -3.676
32.70000 -0.501
32.72000 3.509
32.74000 -0.714
32.76000 1.424
32.78000 4.721
32.80000 5.095
32.82000 5.604
32.84000 -1.057
32.86000 -3.104
32.88000 3.857
32.90000 7.059
32.92000 5.600
32.94000 3.294
32.96000 5.006
32.98000 3.273
33.00000 4.472
33.02000 5.362
33.04000 6.325
33.06000 3.504
33.08000 -1.745
33.10000 3.546
33.12000 2.440
33.14000 3.164
33.16000 -0.108
33.18000 0.091
33.20000 -3.190
33.22000 1.073
33.24000 1.052
33.26000 0.249
33.28000 1.475
33.30000 2.375
33.32000 6.646
33.34000 5.383
33.36000 1.858
33.38000 -0.561
33.40000 -2.345
33.42000 -3.091
33.44000 -0.103
33.46000 7.901
33.48000 3.306
33.50000 3.998
33.52000 2.244
33.54000 6.560
33.56000 7.855
33.58000 3.930
33.60000 7.838
33.62000 2.508
33.64000 1.603
33.66000 -0.885
33.68000 -2.430
33.70000 3.579
33.72000 8.424
33.74000 5.762
33.76000 4.175
33.78000 9.874
33.80000 4.979
33.82000 -3.625
33.84000 0.153
33.86000 2.975
33.88000 1.889
33.90000 5.671
33.92000 9.417
33.94000 13.609
33.96000 9.224
33.98000 8.709
34.00000 8.888
34.02000 6.206
34.04000 6.984
34.06000 4.905
34.08000 2.158
34.10000 0.103
34.12000 0.754
34.14000 5.656
34.16000 9.978
34.18000 7.589
34.20000 9.743
34.22000 7.027
34.24000 2.775
34.26000 2.978
34.28000 6.858
34.30000 8.243
34.32000 12.045
34.34000 9.801
34.36000 4.780
34.38000 0.614
34.40000 3.356
34.42000 3.869
34.44000 4.337
34.46000 0.494
34.48000 2.190
34.50000 2.284
34.52000 3.828
34.54000 6.101
34.56000 7.571
34.58000 3.896
34.60000 -1.151
34.62000 0.912
34.64000 1.130
34.66000 -1.662
34.68000 -1.277
34.70000 1.257
34.72000 4.956
34.74000 2.339
34.76000 -2.064
34.78000 -3.616
34.80000 -0.154
34.82000 4.023
34.84000 5.690
34.86000 2.542
34.88000 3.329
34.90000 5.509
34.92000 3.843
34.94000 5.102
34.96000 3.371
34.98000 3.037
35.00000 2.390
35.02000 2.466
35.04000 -0.629
35.06000 1.935
35.08000 4.658
35.10000 2.814
35.12000 1.298
35.14000 1.782
35.16000 1.253
35.18000 3.786
35.20000 5.120
35.22000 7.620
35.24000 7.824
35.26000 3.953
35.28000 1.374
35.30000 4.547
35.32000 4.865
35.34000 6.501
35.36000 -0.969
35.38000 -3.623
35.40000 2.982
35.42000 2.162
35.44000 6.871
35.46000 4.665
35.48000 2.251
35.50000 0.855
35.52000 -1.283
35.54000 -0.776
35.56000 4.743
35.58000 6.357
35.60000 8.301
35.62000 3.443
35.64000 2.907
35.66000 -0.187
35.68000 -1.706
35.70000 -3.506
35.72000 6.541
35.74000 9.072
35.76000 5.347
35.78000 4.723
35.80000 2.049
35.82000 -0.772
35.84000 3.585
35.86000 4.022
35.88000 1.341
35.90000 -1.706
35.92000 0.135
35.94000 -1.035
35.96000 -3.395
35.98000 1.121
36.00000 3.044
36.02000 -0.096
36.04000 -0.671
36.06000 2.667
36.08000 -1.011
36.10000 -0.735
36.12000 4.240
36.14000 2.683
36.16000 -1.164
36.18000 0.890
36.20000 -0.054
36.22000 1.383
36.24000 -0.861
36.26000 -1.266
36.28000 3.042
36.30000 3.423
36.32000 1.912
36.34000 1.084
36.36000 3.860
36.38000 1.771
36.40000 1.706
36.42000 -0.821
36.44000 0.209
36.46000 0.227
36.48000 1.622
36.50000 1.437
36.52000 0.016
36.54000 0.093
36.56000 1.839
36.58000 4.186
36.60000 3.549
36.62000 9.223
36.64000 8.844
36.66000 2.899
36.68000 -0.177
36.70000 1.025
36.72000 3.673
36.74000 0.510
36.76000 2.842
36.78000 11.527
36.80000 11.418
36.82000 6.453
36.84000 3.745
36.86000 8.111
36.88000 11.530
36.90000 14.665
36.92000 14.459
36.94000 10.184
36.96000 9.219
36.98000 9.067
37.00000 13.525
37.02000 19.261
37.04000 15.894
37.06000 9.730
37.08000 10.237
37.10000 14.818
37.12000 19.690
37.14000 19.181
37.16000 13.936
37.18000 10.710
37.20000 14.357
37.22000 10.968
37.24000 10.853
37.26000 16.186
37.28000 21.028
37.30000 14.792
37.32000 14.054
37.34000 17.330
37.36000 17.412
37.38000 20.330
37.40000 21.765
37.42000 23.162
37.44000 23.408
37.46000 26.342
37.48000 26.994
37.50000 21.926
37.52000 28.192
37.54000 26.898
37.56000 25.305
37.58000 29.830
37.60000 26.871
37.62000 27.680
37.64000 28.857
37.66000 29.638
37.68000 25.851
37.70000 26.140
37.72000 30.514
37.74000 30.917
37.76000 36.902
37.78000 32.175
37.80000 34.700
37.82000 36.664
37.84000 31.381
37.86000 29.583
37.88000 35.193
37.90000 39.008
37.92000 42.424
37.94000 44.119
37.96000 42.881
37.98000 41.575
38.00000 46.940
38.02000 45.564
38.04000 45.969
38.06000 49.804
38.08000 55.895
38.10000 61.270
38.12000 65.301
38.14000 62.920
38.16000 60.568
38.18000 64.260
38.20000 70.143
38.22000 72.882
38.24000 78.403
38.26000 77.496
38.28000 78.627
38.30000 86.104
38.32000 88.093
38.34000 90.005
38.36000 97.916
38.38000 102.369
38.40000 114.950
38.42000 117.435
38.44000 131.438
38.46000 140.788
38.48000 144.237
38.50000 142.213
38.52000 151.379
38.54000 163.126
38.56000 174.910
38.58000 184.637
38.60000 193.989
38.62000 201.459
38.64000 217.569
38.66000 235.208
38.68000 245.305
38.70000 248.560
38.72000 266.510
38.74000 272.841
38.76000 275.469
38.78000 286.144
38.80000 299.981
38.82000 301.182
38.84000 301.988
38.86000 306.445
38.88000 310.279
38.90000 308.556
38.92000 312.658
38.94000 311.883
38.96000 312.034
38.98000 307.012
39.00000 297.815
39.02000 294.910
39.04000 285.629
39.06000 273.581
39.08000 265.065
39.10000 257.521
39.12000 249.742
39.14000 233.102
39.16000 219.054
39.18000 207.373
39.20000 197.588
39.22000 191.406
39.24000 180.086
39.26000 164.601
39.28000 158.001
39.30000 152.697
39.32000 144.489
39.34000 136.883
39.36000 127.805
39.38000 121.678
39.40000 105.917
39.42000 103.507
39.44000 106.693
39.46000 94.943
39.48000 87.054
39.50000 86.706
39.52000 82.065
39.54000 79.599
39.56000 76.032
39.58000 69.904
39.60000 65.237
39.62000 62.154
39.64000 55.542
39.66000 55.868
39.68000 47.560
39.70000 46.769
39.72000 50.017
39.74000 46.494
39.76000 39.975
39.78000 39.203
39.80000 39.706
39.82000 39.526
39.84000 41.011
39.86000 40.038
39.88000 37.577
39.90000 31.021
39.92000 33.541
39.94000 31.902
39.96000 26.675
39.98000 25.287
40.00000 25.089
40.02000 23.880
40.04000 19.613
40.06000 17.712
40.08000 23.110
40.10000 27.042
40.12000 18.645
40.14000 24.037
40.16000 19.823
40.18000 20.770
40.20000 19.971
40.22000 23.840
40.24000 25.713
40.26000 21.081
40.28000 18.950
40.30000 14.421
40.32000 15.375
40.34000 13.348
40.36000 12.879
40.38000 10.262
40.40000 10.786
40.42000 13.122
40.44000 11.988
40.46000 13.755
40.48000 12.475
40.50000 9.779
40.52000 12.781
40.54000 7.755
40.56000 9.928
40.58000 14.921
40.60000 7.762
40.62000 9.367
40.64000 4.154
40.66000 4.950
40.68000 4.346
40.70000 8.323
40.72000 10.820
40.74000 9.075
40.76000 8.167
40.78000 6.745
40.80000 6.609
40.82000 5.011
40.84000 4.211
40.86000 5.317
40.88000 1.427
40.90000 -0.582
40.92000 3.452
40.94000 7.434
40.96000 7.180
40.98000 5.954
41.00000 5.069
41.02000 6.393
41.04000 3.406
41.06000 4.464
41.08000 6.414
41.10000 4.179
41.12000 5.488
41.14000 2.392
41.16000 0.508
41.18000 3.579
41.20000 5.820
41.22000 1.206
41.24000 -0.446
41.26000 2.562
41.28000 5.637
41.30000 0.822
41.32000 3.769
41.34000 5.388
41.36000 3.841
41.38000 2.522
41.40000 -1.858
41.42000 1.232
41.44000 4.227
41.46000 -0.105
41.48000 -0.897
41.50000 4.635
41.52000 4.592
41.54000 0.065
41.56000 0.588
41.58000 1.785
41.60000 2.015
41.62000 5.049
41.64000 1.019
41.66000 0.145
41.68000 5.899
41.70000 1.103
41.72000 -3.363
41.74000 2.858
41.76000 4.462
41.78000 -0.423
41.80000 -3.455
41.82000 1.809
41.84000 4.256
41.86000 1.709
41.88000 3.138
41.90000 5.769
41.92000 3.583
41.94000 2.101
41.96000 -0.316
41.98000 -0.299
42.00000 -3.428
42.02000 -0.030
42.04000 3.178
42.06000 1.967
42.08000 1.429
42.10000 -1.336
42.12000 1.623
42.14000 1.856
42.16000 1.885
42.18000 -0.235
42.20000 0.251
42.22000 0.366
42.24000 0.985
42.26000 -1.373
42.28000 -1.288
42.30000 -0.767
42.32000 2.135
42.34000 5.836
42.36000 2.024
42.38000 3.325
42.40000 4.087
42.42000 1.875
42.44000 1.679
42.46000 3.544
42.48000 0.557
42.50000 -3.375
42.52000 -1.253
42.54000 1.076
42.56000 2.270
42.58000 2.348
42.60000 -0.620
42.62000 -1.252
42.64000 -2.317
42.66000 -2.217
42.68000 -1.142
42.70000 3.580
42.72000 -1.304
42.74000 -2.959
42.76000 -0.266
42.78000 -3.346
42.80000 -2.369
42.82000 -1.570
42.84000 -1.911
42.86000 -0.700
42.88000 1.536
42.90000 3.894
42.92000 0.912
42.94000 -0.645
42.96000 0.051
42.98000 1.624
43.00000 -0.409
43.02000 -2.158
43.04000 -0.189
43.06000 0.987
43.08000 4.089
43.10000 4.210
43.12000 4.889
43.14000 1.919
43.16000 2.383
43.18000 3.139
43.20000 3.675
43.22000 -1.488
43.24000 -1.086
43.26000 2.084
43.28000 1.496
43.30000 0.790
43.32000 -3.322
43.34000 -1.722
43.36000 -0.517
43.38000 -1.849
43.40000 -2.521
43.42000 -2.274
43.44000 -3.058
43.46000 -2.502
43.48000 1.075
43.50000 0.490
43.52000 -0.450
43.54000 -0.998
43.56000 -1.035
43.58000 6.400
43.60000 2.544
43.62000 -1.675
43.64000 -0.395
43.66000 -0.432
43.68000 -2.798
43.70000 -2.161
43.72000 -2.546
43.74000 -2.415
43.76000 0.836
43.78000 0.133
43.80000 0.093
43.82000 0.821
43.84000 4.298
43.86000 3.551
43.88000 -1.179
43.90000 1.565
43.92000 4.266
43.94000 0.854
43.96000 0.215
43.98000 3.588
44.00000 3.006
44.02000 1.987
44.04000 1.526
44.06000 3.711
44.08000 2.052
44.10000 3.108
44.12000 0.671
44.14000 6.551
44.16000 2.359
44.18000 4.819
44.20000 5.810
44.22000 6.702
44.24000 6.695
44.26000 8.427
44.28000 10.199
44.30000 10.043
44.32000 13.407
44.34000 16.668
44.36000 17.055
44.38000 14.583
44.40000 11.508
44.42000 10.606
44.44000 13.581
44.46000 12.650
44.48000 14.059
44.50000 15.018
44.52000 16.265
44.54000 19.045
44.56000 23.418
44.58000 23.341
44.60000 23.518
44.62000 25.752
44.64000 30.756
44.66000 32.719
44.68000 31.063
44.70000 31.053
44.72000 35.215
44.74000 37.079
44.76000 39.881
44.78000 43.487
44.80000 44.103
44.82000 45.321
44.84000 51.050
44.86000 54.072
44.88000 56.764
44.90000 55.744
44.92000 62.067
44.94000 62.140
44.96000 65.150
44.98000 71.202
45.00000 77.567
45.02000 80.359
45.04000 80.151
45.06000 82.758
45.08000 81.821
45.10000 86.391
45.12000 98.561
45.14000 102.434
45.16000 104.747
45.18000 105.845
45.20000 108.245
45.22000 110.695
45.24000 112.964
45.26000 116.926
45.28000 121.560
45.30000 120.714
45.32000 112.490
45.34000 119.259
45.36000 123.405
45.38000 126.841
45.40000 124.364
45.42000 120.750
45.44000 120.019
45.46000 111.594
45.48000 108.327
45.50000 105.364
45.52000 96.801
45.54000 101.543
45.56000 103.857
45.58000 99.188
45.60000 92.087
45.62000 95.421
45.64000 97.209
45.66000 86.020
45.68000 82.278
45.70000 78.852
45.72000 69.842
45.74000 65.778
45.76000 61.536
45.78000 58.540
45.80000 57.753
45.82000 54.292
45.84000 49.342
45.86000 43.561
45.88000 41.340
45.90000 38.165
45.92000 37.844
45.94000 34.548
45.96000 40.978
45.98000 34.919
46.00000 27.942
46.02000 25.284
46.04000 26.448
46.06000 22.307
46.08000 19.815
46.10000 22.120
46.12000 21.228
46.14000 21.567
46.16000 14.732
46.18000 10.855
46.20000 12.142
46.22000 18.126
46.24000 14.794
46.26000 13.438
46.28000 8.388
46.30000 6.303
46.32000 4.865
46.34000 6.229
46.36000 9.926
46.38000 7.746
46.40000 9.374
46.42000 4.856
46.44000 5.912
46.46000 6.407
46.48000 10.573
46.50000 7.140
46.52000 1.057
46.54000 3.401
46.56000 6.368
46.58000 2.378
46.60000 1.464
46.62000 4.472
46.64000 5.877
46.66000 2.436
46.68000 1.537
46.70000 8.272
46.72000 3.795
46.74000 3.100
46.76000 2.530
46.78000 0.416
46.80000 0.112
46.82000 -0.636
46.84000 0.998
46.86000 2.200
46.88000 2.452
46.90000 5.787
46.92000 0.584
46.94000 3.448
46.96000 3.725
46.98000 2.280
47.00000 -2.937
47.02000 -1.198
47.04000 0.678
47.06000 -1.033
47.08000 0.974
47.10000 -2.589
47.12000 0.047
47.14000 -0.308
47.16000 0.399
47.18000 3.251
47.20000 4.440
47.22000 2.128
47.24000 0.526
47.26000 4.425
47.28000 4.467
47.30000 2.491
47.32000 -1.961
47.34000 -1.027
47.36000 -0.866
47.38000 -2.144
47.40000 -0.265
47.42000 4.731
47.44000 3.754
47.46000 3.828
47.48000 3.370
47.50000 4.866
47.52000 2.333
47.54000 1.298
47.56000 0.232
47.58000 -1.570
47.60000 0.905
47.62000 1.869
47.64000 1.687
47.66000 3.076
47.68000 1.738
47.70000 1.715
47.72000 -1.010
47.74000 -1.830
47.76000 -0.335
47.78000 1.456
47.80000 2.133
47.82000 0.232
47.84000 0.277
47.86000 2.782
47.88000 5.587
47.90000 3.326
47.92000 3.643
47.94000 2.801
47.96000 4.325
47.98000 -1.006
48.00000 2.625
48.02000 2.768
48.04000 2.927
48.06000 -2.367
48.08000 2.074
48.10000 0.730
48.12000 0.876
48.14000 -1.497
48.16000 0.588
48.18000 1.517
48.20000 3.243
48.22000 0.258
48.24000 3.101
48.26000 2.456
48.28000 -0.412
48.30000 1.748
48.32000 1.584
48.34000 3.363
48.36000 8.135
48.38000 6.864
48.40000 2.432
48.42000 2.849
48.44000 2.767
48.46000 -2.740
48.48000 -0.404
48.50000 1.826
48.52000 5.781
48.54000 4.479
48.56000 4.665
48.58000 6.389
48.60000 5.067
48.62000 6.569
48.64000 5.808
48.66000 7.005
48.68000 6.122
48.70000 4.873
48.72000 4.090
48.74000 3.583
48.76000 6.802
48.78000 5.928
48.80000 1.584
48.82000 2.442
48.84000 -0.589
48.86000 3.097
48.88000 5.382
48.90000 5.795
48.92000 5.331
48.94000 1.866
48.96000 3.017
48.98000 4.932
49.00000 6.914
49.02000 5.144
49.04000 6.137
49.06000 7.720
49.08000 7.929
49.10000 7.336
49.12000 6.879
49.14000 7.479
49.16000 1.999
49.18000 4.569
49.20000 3.215
49.22000 1.143
49.24000 -2.670
49.26000 0.928
49.28000 4.651
49.30000 3.326
49.32000 6.856
49.34000 7.616
49.36000 6.403
49.38000 8.874
49.40000 7.064
49.42000 3.083
49.44000 3.042
49.46000 3.344
49.48000 2.384
49.50000 5.014
49.52000 1.562
49.54000 0.917
49.56000 5.424
49.58000 8.498
49.60000 4.189
49.62000 6.317
49.64000 11.549
49.66000 11.020
49.68000 4.953
49.70000 2.810
49.72000 6.174
49.74000 9.004
49.76000 9.791
49.78000 0.995
49.80000 6.698
49.82000 8.800
49.84000 6.704
49.86000 6.942
49.88000 8.176
49.90000 2.195
49.92000 0.494
49.94000 -1.026
49.96000 4.483
49.98000 4.709
50.00000 5.757
50.02000 3.505
50.04000 0.969
50.06000 -1.748
50.08000 -1.927
50.10000 1.279
50.12000 -2.368
50.14000 1.619
50.16000 5.441
50.18000 8.366
50.20000 6.928
50.22000 3.117
50.24000 1.131
50.26000 1.258
50.28000 5.243
50.30000 4.698
50.32000 10.078
50.34000 7.815
50.36000 3.880
50.38000 -1.697
50.40000 -0.235
50.42000 2.331
50.44000 3.142
50.46000 -0.158
50.48000 7.907
50.50000 3.365
50.52000 0.239
50.54000 1.443
50.56000 -0.118
50.58000 2.717
50.60000 8.359
50.62000 9.105
50.64000 2.262
50.66000 1.739
50.68000 1.363
50.70000 -0.137
50.72000 1.903
50.74000 0.233
50.76000 2.578
50.78000 2.876
50.80000 0.659
50.82000 0.551
50.84000 -1.006
50.86000 2.545
50.88000 2.607
50.90000 4.831
50.92000 5.395
50.94000 4.261
50.96000 1.932
50.98000 1.158
51.00000 2.018
51.02000 3.100
51.04000 2.271
51.06000 3.017
51.08000 3.690
51.10000 0.795
51.12000 -0.261
51.14000 0.363
51.16000 0.301
51.18000 0.690
51.20000 4.331
51.22000 3.008
51.24000 -0.708
51.26000 1.286
51.28000 1.575
51.30000 2.703
51.32000 1.406
51.34000 1.964
51.36000 2.551
51.38000 4.840
51.40000 1.666
51.42000 4.896
51.44000 5.600
51.46000 6.490
51.48000 2.795
51.50000 3.639
51.52000 0.627
51.54000 -1.785
51.56000 1.523
51.58000 -2.019
51.60000 1.729
51.62000 3.274
51.64000 2.330
51.66000 4.921
51.68000 6.880
51.70000 3.803
51.72000 1.957
51.74000 5.877
51.76000 5.044
51.78000 5.061
51.80000 6.332
51.82000 3.512
51.84000 0.687
51.86000 2.563
51.88000 0.530
51.90000 1.528
51.92000 2.095
51.94000 3.051
51.96000 1.837
51.98000 0.848
52.00000 1.374
52.02000 4.720
52.04000 2.490
52.06000 4.807
52.08000 4.655
52.10000 3.537
52.12000 4.036
52.14000 7.340
52.16000 5.118
52.18000 6.192
52.20000 2.463
52.22000 0.892
52.24000 -2.570
52.26000 -1.392
52.28000 7.519
52.30000 8.982
52.32000 4.063
52.34000 3.440
52.36000 4.217
52.38000 7.855
52.40000 6.493
52.42000 3.002
52.44000 6.131
52.46000 9.034
52.48000 7.037
52.50000 6.029
52.52000 7.170
52.54000 6.440
52.56000 1.028
52.58000 2.825
52.60000 7.701
52.62000 8.519
52.64000 6.080
52.66000 2.004
52.68000 6.203
52.70000 6.184
52.72000 2.981
52.74000 3.063
52.76000 0.939
52.78000 -0.032
52.80000 1.675
52.82000 2.544
52.84000 3.207
52.86000 1.918
52.88000 6.278
52.90000 7.958
52.92000 6.559
52.94000 0.138
52.96000 4.394
52.98000 3.290
53.00000 2.467
53.02000 -1.647
53.04000 3.033
53.06000 3.176
53.08000 4.601
53.10000 3.005
53.12000 1.974
53.14000 1.871
53.16000 3.268
53.18000 6.373
53.20000 4.065
53.22000 7.722
53.24000 6.497
53.26000 -0.053
53.28000 4.792
53.30000 6.440
53.32000 5.522
53.34000 4.264
53.36000 2.104
53.38000 3.804
53.40000 6.423
53.42000 5.982
53.44000 10.194
53.46000 4.723
53.48000 5.539
53.50000 1.494
53.52000 0.339
53.54000 2.038
53.56000 6.173
53.58000 3.865
53.60000 3.839
53.62000 1.722
53.64000 -1.534
53.66000 3.711
53.68000 0.704
53.70000 3.125
53.72000 2.605
53.74000 3.886
53.76000 1.820
53.78000 0.275
53.80000 0.070
53.82000 3.870
53.84000 2.182
53.86000 1.166
53.88000 4.148
53.90000 6.146
53.92000 4.775
53.94000 1.441
53.96000 0.882
53.98000 3.816
54.00000 -0.149
54.02000 -2.471
54.04000 1.250
54.06000 -1.876
54.08000 -1.698
54.10000 -1.164
54.12000 -2.567
54.14000 -0.079
54.16000 3.550
54.18000 0.652
54.20000 0.809
54.22000 2.630
54.24000 2.601
54.26000 1.378
54.28000 1.315
54.30000 1.244
54.32000 4.254
54.34000 2.174
54.36000 -1.793
54.38000 0.141
54.40000 2.846
54.42000 2.648
54.44000 3.113
54.46000 5.119
54.48000 4.890
54.50000 5.283
54.52000 2.056
54.54000 3.566
54.56000 0.753
54.58000 1.758
54.60000 1.221
54.62000 -0.392
54.64000 -1.160
54.66000 2.108
54.68000 1.561
54.70000 2.436
54.72000 -0.687
54.74000 -1.713
54.76000 0.602
54.78000 -2.033
54.80000 1.485
54.82000 -0.418
54.84000 1.732
54.86000 1.747
54.88000 0.330
54.90000 2.687
54.92000 3.977
54.94000 3.911
54.96000 3.974
54.98000 3.436
55.00000 -0.537
55.02000 -0.232
55.04000 3.289
55.06000 4.367
55.08000 3.815
55.10000 3.412
55.12000 7.950
55.14000 7.393
55.16000 2.621
55.18000 1.801
55.20000 3.462
55.22000 3.508
55.24000 0.622
55.26000 0.809
55.28000 4.740
55.30000 3.971
55.32000 3.196
55.34000 3.114
55.36000 0.958
55.38000 -0.668
55.40000 2.998
55.42000 4.267
55.44000 4.721
55.46000 5.757
55.48000 1.754
55.50000 4.376
55.52000 -0.191
55.54000 -0.442
55.56000 -2.295
55.58000 2.324
55.60000 3.562
55.62000 6.150
55.64000 6.956
55.66000 3.640
55.68000 2.550
55.70000 3.658
55.72000 8.429
55.74000 6.933
55.76000 1.174
55.78000 2.246
55.80000 1.291
55.82000 3.195
55.84000 2.547
55.86000 -0.349
55.88000 -0.707
55.90000 4.801
55.92000 2.448
55.94000 0.340
55.96000 3.918
55.98000 3.432
56.00000 0.917
56.02000 -1.507
56.04000 -0.770
56.06000 2.450
56.08000 6.474
56.10000 4.208
56.12000 4.149
56.14000 2.294
56.16000 6.772
56.18000 5.243
56.20000 0.929
56.22000 -0.240
56.24000 5.223
56.26000 2.313
56.28000 -2.524
56.30000 0.463
56.32000 -0.426
56.34000 1.523
56.36000 2.446
56.38000 3.544
56.40000 5.048
56.42000 6.097
56.44000 0.767
56.46000 4.517
56.48000 5.204
56.50000 5.725
56.52000 3.391
56.54000 7.963
56.56000 3.903
56.58000 4.440
56.60000 0.833
56.62000 -1.083
56.64000 0.059
56.66000 0.228
56.68000 3.693
56.70000 1.021
56.72000 1.347
56.74000 4.073
56.76000 4.068
56.78000 4.234
56.80000 6.172
56.82000 4.098
56.84000 -2.479
56.86000 1.145
56.88000 4.932
56.90000 7.010
56.92000 5.272
56.94000 4.806
56.96000 3.039
56.98000 1.722
57.00000 -0.025
57.02000 1.434
57.04000 1.760
57.06000 1.231
57.08000 2.256
57.10000 5.320
57.12000 5.783
57.14000 8.114
57.16000 3.818
57.18000 2.091
57.20000 -0.216
57.22000 -0.272
57.24000 2.008
57.26000 3.045
57.28000 2.571
57.30000 2.034
57.32000 3.182
57.34000 3.377
57.36000 2.276
57.38000 1.415
57.40000 2.051
57.42000 0.445
57.44000 -1.471
57.46000 1.803
57.48000 4.728
57.50000 2.400
57.52000 1.836
57.54000 3.314
57.56000 2.963
57.58000 2.641
57.60000 4.675
57.62000 3.368
57.64000 4.446
57.66000 4.078
57.68000 3.309
57.70000 -0.243
57.72000 1.321
57.74000 -0.116
57.76000 3.254
57.78000 3.530
57.80000 1.922
57.82000 6.038
57.84000 7.057
57.86000 3.314
57.88000 2.561
57.90000 -0.364
57.92000 2.112
57.94000 -0.800
57.96000 1.618
57.98000 6.552
58.00000 0.698
58.02000 -0.650
58.04000 4.242
58.06000 5.691
58.08000 -1.311
58.10000 1.431
58.12000 4.385
58.14000 2.477
58.16000 1.220
58.18000 -0.635
58.20000 -2.449
58.22000 1.728
58.24000 1.633
58.26000 0.740
58.28000 1.685
58.30000 2.886
58.32000 0.794
58.34000 -1.023
58.36000 4.131
58.38000 3.634
58.40000 0.147
58.42000 1.603
58.44000 -1.348
58.46000 3.250
58.48000 5.394
58.50000 3.861
58.52000 2.598
58.54000 3.729
58.56000 4.167
58.58000 1.338
58.60000 6.879
58.62000 2.809
58.64000 2.349
58.66000 5.954
58.68000 1.974
58.70000 2.306
58.72000 4.171
58.74000 7.753
58.76000 5.178
58.78000 2.586
58.80000 -0.719
58.82000 -2.406
58.84000 2.370
58.86000 5.323
58.88000 8.122
58.90000 4.362
58.92000 4.962
58.94000 5.177
58.96000 7.022
58.98000 3.749
59.00000 2.161
59.02000 0.689
59.04000 2.447
59.06000 2.424
59.08000 0.905
59.10000 -0.924
59.12000 1.506
59.14000 2.226
59.16000 3.871
59.18000 3.486
59.20000 2.364
59.22000 3.447
59.24000 5.066
59.26000 1.130
59.28000 2.058
59.30000 2.396
59.32000 2.568
59.34000 3.753
59.36000 2.355
59.38000 3.303
59.40000 8.196
59.42000 2.062
59.44000 6.392
59.46000 4.279
59.48000 1.531
59.50000 2.581
59.52000 1.802
59.54000 1.743
59.56000 7.937
59.58000 8.165
59.60000 6.142
59.62000 4.700
59.64000 2.885
59.66000 0.605
59.68000 4.371
59.70000 5.187
59.72000 0.217
59.74000 -2.376
59.76000 1.156
59.78000 5.488
59.80000 2.456
59.82000 2.543
59.84000 3.539
59.86000 1.762
59.88000 -1.522
59.90000 1.490
59.92000 3.248
59.94000 -0.072
59.96000 1.326
59.98000 3.073
60.00000 3.121
60.02000 4.316
60.04000 4.308
60.06000 2.857
60.08000 0.604
60.10000 2.122
60.12000 2.984
60.14000 2.364
60.16000 7.100
60.18000 4.675
60.20000 3.995
60.22000 1.698
60.24000 3.456
60.26000 2.240
60.28000 0.945
60.30000 -0.886
60.32000 0.495
60.34000 2.844
60.36000 2.501
60.38000 2.056
60.40000 0.687
60.42000 0.732
60.44000 1.621
60.46000 1.442
60.48000 1.335
60.50000 5.037
60.52000 5.093
60.54000 0.629
60.56000 3.024
60.58000 6.156
60.60000 5.706
60.62000 3.627
60.64000 3.428
60.66000 -0.982
60.68000 -1.916
60.70000 0.280
60.72000 1.120
60.74000 -0.406
60.76000 0.999
60.78000 -0.021
60.80000 -2.378
60.82000 -1.615
60.84000 0.478
60.86000 1.973
60.88000 2.910
60.90000 2.890
60.92000 -2.125
60.94000 -1.031
60.96000 1.459
60.98000 3.001
61.00000 2.576
61.02000 1.559
61.04000 1.402
61.06000 2.336
61.08000 4.379
61.10000 0.904
61.12000 1.279
61.14000 0.490
61.16000 0.929
61.18000 0.440
61.20000 2.529
61.22000 4.132
61.24000 5.230
61.26000 2.700
61.28000 3.148
61.30000 2.267
61.32000 -0.691
61.34000 1.867
61.36000 0.620
61.38000 -1.687
61.40000 -0.720
61.42000 -0.407
61.44000 0.884
61.46000 2.852
61.48000 -1.704
61.50000 1.657
61.52000 0.268
61.54000 -0.298
61.56000 3.347
61.58000 -0.415
61.60000 2.489
61.62000 1.673
61.64000 1.664
61.66000 -0.511
61.68000 1.640
61.70000 3.871
61.72000 2.083
61.74000 0.904
61.76000 -0.637
61.78000 1.794
61.80000 5.310
61.82000 0.246
61.84000 -0.480
61.86000 1.579
61.88000 4.079
61.90000 -1.048
61.92000 2.879
61.94000 2.709
61.96000 -0.925
61.98000 1.179
62.00000 0.129
62.02000 -2.333
62.04000 0.749
62.06000 0.212
62.08000 2.485
62.10000 3.701
62.12000 3.083
62.14000 4.960
62.16000 4.438
62.18000 3.772
62.20000 2.144
62.22000 0.934
62.24000 0.785
62.26000 0.092
62.28000 1.141
62.30000 3.323
62.32000 0.726
62.34000 1.060
62.36000 1.371
62.38000 -1.062
62.40000 -1.693
62.42000 -0.829
62.44000 1.252
62.46000 3.415
62.48000 6.299
62.50000 1.537
62.52000 4.779
62.54000 2.851
62.56000 -2.121
62.58000 0.168
62.60000 4.325
62.62000 3.205
62.64000 1.763
62.66000 2.064
62.68000 4.435
62.70000 3.118
62.72000 2.450
62.74000 0.520
62.76000 2.327
62.78000 3.234
62.80000 -0.862
62.82000 -2.326
62.84000 -1.161
62.86000 0.832
62.88000 1.412
62.90000 0.947
62.92000 0.080
62.94000 1.293
62.96000 -2.325
62.98000 -0.436
63.00000 -0.985
63.02000 1.989
63.04000 2.011
63.06000 5.032
63.08000 4.353
63.10000 -2.087
63.12000 -0.410
63.14000 2.528
63.16000 2.495
63.18000 1.512
63.20000 2.130
63.22000 0.279
63.24000 -0.996
63.26000 -0.039
63.28000 -0.522
63.30000 0.583
63.32000 1.078
63.34000 -0.773
63.36000 1.491
63.38000 1.665
63.40000 3.448
63.42000 2.834
63.44000 -0.381
63.46000 1.094
63.48000 4.944
63.50000 3.676
63.52000 2.794
63.54000 1.103
63.56000 3.452
63.58000 -0.142
63.60000 0.161
63.62000 -1.715
63.64000 -1.408
63.66000 0.370
63.68000 0.835
63.70000 -0.624
63.72000 -0.499
63.74000 2.372
63.76000 2.104
63.78000 0.027
63.80000 -0.131
63.82000 2.866
63.84000 3.009
63.86000 2.290
63.88000 0.712
63.90000 -0.262
63.92000 0.498
63.94000 -1.815
63.96000 -0.655
63.98000 1.725
64.00000 3.400
64.02000 1.171
64.04000 0.430
64.06000 2.983
64.08000 2.975
64.10000 2.743
64.12000 1.982
64.14000 2.957
64.16000 0.576
64.18000 -2.324
64.20000 0.367
64.22000 2.448
64.24000 2.251
64.26000 3.196
64.28000 1.241
64.30000 -0.281
64.32000 -0.303
64.34000 0.502
64.36000 2.001
64.38000 -0.346
64.40000 1.662
64.42000 2.488
64.44000 0.360
64.46000 1.807
64.48000 0.182
64.50000 0.609
64.52000 -1.745
64.54000 0.131
64.56000 2.377
64.58000 1.152
64.60000 1.719
64.62000 0.929
64.64000 0.103
64.66000 2.488
64.68000 -0.071
64.70000 1.165
64.72000 1.242
64.74000 -1.242
64.76000 2.881
64.78000 4.185
64.80000 3.486
64.82000 -1.988
64.84000 -1.347
64.86000 2.220
64.88000 2.735
64.90000 -0.296
64.92000 -1.683
64.94000 -1.697
64.96000 -0.830
64.98000 0.283
65.00000 -1.326
65.02000 0.004
65.04000 0.577
65.06000 -1.756
65.08000 1.039
65.10000 1.664
65.12000 -0.826
65.14000 0.126
65.16000 0.268
65.18000 0.848
65.20000 -0.708
65.22000 0.495
65.24000 4.923
65.26000 3.449
65.28000 3.574
65.30000 3.076
65.32000 2.448
65.34000 2.840
65.36000 -0.237
65.38000 -0.824
65.40000 2.699
65.42000 2.102
65.44000 3.074
65.46000 5.258
65.48000 2.569
65.50000 1.766
65.52000 1.832
65.54000 3.007
65.56000 3.459
65.58000 0.007
65.60000 2.713
65.62000 4.820
65.64000 2.953
65.66000 -0.099
65.68000 1.254
65.70000 4.930
65.72000 4.627
65.74000 2.776
65.76000 3.609
65.78000 4.262
65.80000 5.578
65.82000 4.589
65.84000 7.302
65.86000 2.927
65.88000 3.541
65.90000 4.694
65.92000 8.087
65.94000 6.099
65.96000 2.677
65.98000 3.619
66.00000 5.392
66.02000 5.119
66.04000 3.609
66.06000 8.874
66.08000 10.174
66.10000 6.092
66.12000 4.234
66.14000 4.225
66.16000 4.483
66.18000 9.520
66.20000 7.483
66.22000 6.726
66.24000 6.467
66.26000 3.636
66.28000 1.933
66.30000 5.314
66.32000 4.798
66.34000 6.032
66.36000 0.573
66.38000 3.799
66.40000 5.117
66.42000 5.958
66.44000 1.606
66.46000 0.717
66.48000 1.302
66.50000 2.059
66.52000 1.548
66.54000 1.302
66.56000 -0.501
66.58000 -2.307
66.60000 0.779
66.62000 2.017
66.64000 1.710
66.66000 2.198
66.68000 0.350
66.70000 2.610
66.72000 1.099
66.74000 2.779
66.76000 -0.308
66.78000 -2.294
66.80000 -0.970
66.82000 2.076
66.84000 2.056
66.86000 4.231
66.88000 4.204
66.90000 3.120
66.92000 3.419
66.94000 0.272
66.96000 -0.165
66.98000 1.710
67.00000 1.048
67.02000 0.733
67.04000 1.424
67.06000 1.784
67.08000 0.072
67.10000 -0.092
67.12000 3.021
67.14000 2.909
67.16000 2.289
67.18000 -0.778
67.20000 -0.952
67.22000 0.168
67.24000 -1.516
67.26000 -2.261
67.28000 1.513
67.30000 0.538
67.32000 2.272
67.34000 2.000
67.36000 -0.126
67.38000 0.330
67.40000 0.775
67.42000 2.103
67.44000 2.256
67.46000 2.281
67.48000 4.607
67.50000 3.965
67.52000 2.821
67.54000 2.302
67.56000 4.051
67.58000 0.673
67.60000 -2.248
67.62000 2.281
67.64000 1.594
67.66000 3.291
67.68000 2.148
67.70000 1.855
67.72000 -1.054
67.74000 0.207
67.76000 -0.400
67.78000 0.332
67.80000 1.070
67.82000 -1.334
67.84000 0.103
67.86000 1.353
67.88000 -0.395
67.90000 -0.237
67.92000 3.192
67.94000 2.408
67.96000 -1.341
67.98000 -1.445
68.00000 -1.189
68.02000 0.839
68.04000 0.813
68.06000 -0.210
68.08000 0.344
68.10000 1.674
68.12000 0.877
68.14000 -0.675
68.16000 0.411
68.18000 -0.264
68.20000 0.545
68.22000 -0.947
68.24000 -1.222
68.26000 -0.714
68.28000 0.270
68.30000 -0.731
68.32000 -0.845
68.34000 0.504
68.36000 -2.226
68.38000 -0.524
68.40000 -0.955
68.42000 0.066
68.44000 0.244
68.46000 0.396
68.48000 1.228
68.50000 -1.088
68.52000 -0.683
68.54000 0.134
68.56000 0.535
68.58000 0.222
68.60000 -0.023
68.62000 -0.122
68.64000 1.495
68.66000 1.132
68.68000 1.640
68.70000 1.019
68.72000 1.474
68.74000 3.381
68.76000 -0.241
68.78000 1.153
68.80000 3.103
68.82000 1.668
68.84000 0.689
68.86000 1.151
68.88000 1.369
68.90000 1.044
68.92000 -1.053
68.94000 -0.729
68.96000 0.347
68.98000 3.323
69.00000 3.047
69.02000 2.128
69.04000 1.712
69.06000 1.059
69.08000 0.610
69.10000 -0.364
69.12000 0.112
69.14000 -0.960
69.16000 -0.178
69.18000 1.006
69.20000 2.649
69.22000 1.839
69.24000 0.886
69.26000 2.483
69.28000 1.687
69.30000 0.154
69.32000 1.859
69.34000 3.093
69.36000 1.873
69.38000 -0.015
69.40000 2.919
69.42000 2.734
69.44000 -2.152
69.46000 0.155
69.48000 3.790
69.50000 -1.291
69.52000 0.169
69.54000 1.876
69.56000 3.824
69.58000 2.111
69.60000 1.892
69.62000 2.740
69.64000 1.239
69.66000 2.310
69.68000 2.988
69.70000 1.485
69.72000 1.700
69.74000 2.518
69.76000 1.738
69.78000 2.721
69.80000 3.872
69.82000 2.536
69.84000 -2.132
69.86000 -0.077
69.88000 3.138
69.90000 3.337
69.92000 2.356
69.94000 1.209
69.96000 0.322
69.98000 -0.248
70.00000 1.145
70.02000 3.882
70.04000 2.048
70.06000 2.421
70.08000 4.066
70.10000 2.436
70.12000 1.768
70.14000 2.659
70.16000 1.104
70.18000 0.954
70.20000 3.014
70.22000 6.090
70.24000 4.424
70.26000 3.553
70.28000 0.589
70.30000 2.939
70.32000 4.874
70.34000 1.018
70.36000 0.186
70.38000 -0.836
70.40000 -2.115
70.42000 -1.887
70.44000 0.429
70.46000 1.598
70.48000 1.518
70.50000 0.441
70.52000 1.155
70.54000 1.204
70.56000 1.506
70.58000 1.450
70.60000 1.334
70.62000 2.577
70.64000 2.635
70.66000 1.428
70.68000 1.267
70.70000 0.770
70.72000 0.897
70.74000 1.849
70.76000 0.135
70.78000 3.149
70.80000 1.919
70.82000 0.357
70.84000 0.983
70.86000 0.461
70.88000 2.664
70.90000 2.731
70.92000 1.150
70.94000 0.560
70.96000 -0.797
70.98000 -1.813
71.00000 -0.582
71.02000 -0.437
71.04000 -0.922
71.06000 0.443
71.08000 1.992
71.10000 2.413
71.12000 0.437
71.14000 2.423
71.16000 1.851
71.18000 0.344
71.20000 0.693
71.22000 -0.112
71.24000 0.287
71.26000 -2.084
71.28000 -0.535
71.30000 0.366
71.32000 1.193
71.34000 -0.505
71.36000 -0.649
71.38000 1.204
71.40000 2.061
71.42000 -0.368
71.44000 0.199
71.46000 -0.471
71.48000 2.210
71.50000 0.020
71.52000 0.362
71.54000 2.254
71.56000 2.249
71.58000 0.563
71.60000 0.266
71.62000 1.877
71.64000 -0.770
71.66000 3.572
71.68000 2.811
71.70000 1.756
71.72000 0.914
71.74000 1.899
71.76000 0.925
71.78000 1.981
71.80000 1.902
71.82000 0.187
71.84000 -1.607
71.86000 -1.210
71.88000 1.728
71.90000 0.848
71.92000 0.892
71.94000 2.601
71.96000 2.097
71.98000 2.558
72.00000 2.399
72.02000 -1.198
72.04000 0.433
72.06000 1.956
72.08000 -0.505
72.10000 1.180
72.12000 3.534
72.14000 1.898
72.16000 2.014
72.18000 5.301
72.20000 1.948
72.22000 0.705
72.24000 1.193
72.26000 3.109
72.28000 1.380
72.30000 0.442
72.32000 1.039
72.34000 4.040
72.36000 3.355
72.38000 1.118
72.40000 1.762
72.42000 0.039
72.44000 0.047
72.46000 1.081
72.48000 -1.921
72.50000 -2.050
72.52000 2.708
72.54000 0.241
72.56000 -0.186
72.58000 1.337
72.60000 1.630
72.62000 -0.739
72.64000 2.787
72.66000 1.690
72.68000 -0.805
72.70000 1.761
72.72000 2.247
72.74000 1.893
72.76000 1.355
72.78000 2.193
72.80000 -1.162
72.82000 -2.044
72.84000 1.360
72.86000 2.204
72.88000 -0.221
72.90000 -0.966
72.92000 0.798
72.94000 0.929
72.96000 1.975
72.98000 3.209
73.00000 4.269
73.02000 2.392
73.04000 1.617
73.06000 0.540
73.08000 1.686
73.10000 2.145
73.12000 -0.094
73.14000 0.253
73.16000 5.331
73.18000 4.500
73.20000 2.878
73.22000 2.919
73.24000 2.123
73.26000 2.351
73.28000 -0.784
73.30000 0.023
73.32000 2.331
73.34000 1.460
73.36000 0.663
73.38000 0.711
73.40000 1.955
73.42000 3.028
73.44000 3.125
73.46000 2.401
73.48000 -0.266
73.50000 0.910
73.52000 2.942
73.54000 3.894
73.56000 1.917
73.58000 1.404
73.60000 -0.274
73.62000 0.261
73.64000 3.757
73.66000 1.887
73.68000 3.354
73.70000 2.391
73.72000 -1.148
73.74000 -1.368
73.76000 2.132
73.78000 4.458
73.80000 3.672
73.82000 3.316
73.84000 1.507
73.86000 0.803
73.88000 2.801
73.90000 2.395
73.92000 3.390
73.94000 0.727
73.96000 -2.037
73.98000 1.589
74.00000 2.413
74.02000 2.516
74.04000 2.106
74.06000 2.953
74.08000 3.568
74.10000 0.845
74.12000 3.455
74.14000 3.762
74.16000 5.571
74.18000 5.738
74.20000 3.182
74.22000 2.063
74.24000 3.213
74.26000 2.295
74.28000 0.866
74.30000 -2.021
74.32000 -0.348
74.34000 0.434
74.36000 -0.388
74.38000 0.617
74.40000 1.096
74.42000 4.502
74.44000 3.942
74.46000 8.977
74.48000 5.447
74.50000 1.746
74.52000 6.345
74.54000 5.755
74.56000 3.449
74.58000 2.902
74.60000 5.358
74.62000 4.550
74.64000 -0.615
74.66000 -0.464
74.68000 3.012
74.70000 1.012
74.72000 6.240
74.74000 3.910
74.76000 1.382
74.78000 2.113
74.80000 2.104
74.82000 4.629
74.84000 7.626
74.86000 5.828
74.88000 4.719
74.90000 1.627
74.92000 -0.057
74.94000 2.758
74.96000 5.149
74.98000 6.306
75.00000 3.964
75.02000 3.260
75.04000 2.410
75.06000 -0.407
75.08000 -2.011
75.10000 1.990
75.12000 4.656
75.14000 4.051
75.16000 4.142
75.18000 5.900
75.20000 3.566
75.22000 2.484
75.24000 4.025
75.26000 2.913
75.28000 4.323
75.30000 2.142
75.32000 -0.225
75.34000 0.648
75.36000 1.724
75.38000 2.627
75.40000 1.265
75.42000 -0.202
75.44000 2.249
75.46000 1.927
75.48000 2.667
75.50000 5.238
75.52000 3.840
75.54000 1.790
75.56000 -0.502
75.58000 0.260
75.60000 0.835
75.62000 3.468
75.64000 5.153
75.66000 2.450
75.68000 3.639
75.70000 1.592
75.72000 3.780
75.74000 1.554
75.76000 1.272
75.78000 1.325
75.80000 2.283
75.82000 3.709
75.84000 4.218
75.86000 -1.970
75.88000 2.811
75.90000 2.059
75.92000 1.540
75.94000 -0.236
75.96000 0.924
75.98000 0.835
76.00000 -0.639
76.02000 5.129
76.04000 3.867
76.06000 0.464
76.08000 0.814
76.10000 -0.551
76.12000 0.529
76.14000 4.132
76.16000 0.843
76.18000 2.111
76.20000 0.939
76.22000 1.193
76.24000 0.222
76.26000 1.869
76.28000 -0.186
76.30000 1.895
76.32000 2.209
76.34000 0.408
76.36000 -0.668
76.38000 0.226
76.40000 4.218
76.42000 0.224
76.44000 -0.230
76.46000 0.379
76.48000 -2.086
76.50000 1.519
76.52000 1.652
76.54000 -1.442
76.56000 -0.468
76.58000 1.812
76.60000 -1.307
76.62000 -1.819
76.64000 1.876
76.66000 2.911
76.68000 1.180
76.70000 1.233
76.72000 0.682
76.74000 0.350
76.76000 1.415
76.78000 3.241
76.80000 5.027
76.82000 6.027
76.84000 3.594
76.86000 0.089
76.88000 1.256
76.90000 2.894
76.92000 -0.058
76.94000 0.682
76.96000 1.534
76.98000 3.177
77.00000 4.853
77.02000 1.931
77.04000 3.663
77.06000 3.709
77.08000 1.861
77.10000 -2.104
77.12000 1.406
77.14000 4.903
77.16000 2.710
77.18000 1.957
77.20000 2.347
77.22000 3.469
77.24000 1.994
77.26000 1.086
77.28000 0.608
77.30000 1.250
77.32000 3.624
77.34000 3.570
77.36000 0.172
77.38000 1.215
77.40000 -1.018
77.42000 -0.512
77.44000 -1.495
77.46000 0.871
77.48000 2.329
77.50000 -0.939
77.52000 1.120
77.54000 0.104
77.56000 5.728
77.58000 4.386
77.60000 3.258
77.62000 2.776
77.64000 1.568
77.66000 3.179
77.68000 3.180
77.70000 2.304
77.72000 4.644
77.74000 2.060
77.76000 1.550
77.78000 2.399
77.80000 -0.839
77.82000 1.409
77.84000 0.814
77.86000 -0.833
77.88000 1.733
77.90000 0.625
77.92000 -0.890
77.94000 -0.151
77.96000 0.094
77.98000 1.949
78.00000 -2.200
78.02000 1.725
78.04000 2.589
78.06000 5.214
78.08000 4.219
78.10000 3.614
78.12000 0.137
78.14000 -0.724
78.16000 0.706
78.18000 3.068
78.20000 7.807
78.22000 6.244
78.24000 3.942
78.26000 1.309
78.28000 1.102
78.30000 0.170
78.32000 3.947
78.34000 4.331
78.36000 3.501
78.38000 2.662
78.40000 -0.416
78.42000 1.321
78.44000 2.294
78.46000 8.138
78.48000 10.011
78.50000 6.062
78.52000 5.753
78.54000 7.826
78.56000 7.784
78.58000 9.082
78.60000 6.997
78.62000 7.094
78.64000 8.334
78.66000 8.618
78.68000 12.245
78.70000 10.964
78.72000 10.399
78.74000 11.541
78.76000 9.885
78.78000 13.429
78.80000 16.321
78.82000 18.705
78.84000 19.530
78.86000 15.181
78.88000 16.414
78.90000 18.874
78.92000 17.266
78.94000 20.792
78.96000 23.900
78.98000 24.421
79.00000 25.164
79.02000 23.401
79.04000 18.572
79.06000 22.487
79.08000 24.509
79.10000 22.882
79.12000 25.081
79.14000 26.280
79.16000 26.891
79.18000 29.851
79.20000 30.497
79.22000 29.265
79.24000 27.851
79.26000 28.487
79.28000 26.391
79.30000 28.136
79.32000 31.206
79.34000 33.384
79.36000 30.022
79.38000 25.869
79.40000 28.779
79.42000 31.664
79.44000 31.127
79.46000 33.858
79.48000 32.658
79.50000 30.062
79.52000 24.967
79.54000 28.722
79.56000 24.279
79.58000 25.995
79.60000 32.053
79.62000 25.869
79.64000 23.366
79.66000 22.885
79.68000 22.134
79.70000 18.780
79.72000 18.882
79.74000 19.093
79.76000 22.803
79.78000 23.587
79.80000 21.572
79.82000 21.594
79.84000 20.422
79.86000 21.312
79.88000 22.983
79.90000 22.455
79.92000 20.664
79.94000 20.571
79.96000 15.017
79.98000 12.581
80.00000 11.504
80.02000 12.884
80.04000 14.700
80.06000 14.565
80.08000 12.233
80.10000 8.652
80.12000 9.093
80.14000 8.350
80.16000 6.072
80.18000 7.310
80.20000 7.098
80.22000 9.634
80.24000 7.031
80.26000 8.390
80.28000 6.439
80.30000 6.005
80.32000 5.707
80.34000 5.751
80.36000 5.249
80.38000 3.550
80.40000 -0.052
80.42000 -2.358
80.44000 1.577
80.46000 3.890
80.48000 5.315
80.50000 2.219
80.52000 4.232
80.54000 2.208
80.56000 1.478
80.58000 1.707
80.60000 -0.408
80.62000 -1.952
80.64000 -0.491
80.66000 -1.421
80.68000 0.041
80.70000 5.619
80.72000 3.651
80.74000 5.159
80.76000 0.461
80.78000 3.018
80.80000 0.867
80.82000 0.719
80.84000 0.152
80.86000 0.951
80.88000 3.107
80.90000 -0.246
80.92000 -2.349
80.94000 -2.308
80.96000 0.197
80.98000 -0.246
81.00000 1.621
81.02000 1.288
81.04000 0.840
81.06000 4.876
81.08000 6.562
81.10000 4.015
81.12000 1.352
81.14000 -0.086
81.16000 2.963
81.18000 0.825
81.20000 3.044
81.22000 4.901
81.24000 1.434
81.26000 2.936
81.28000 1.254
81.30000 -0.642
81.32000 4.111
81.34000 0.862
81.36000 -0.110
81.38000 3.072
81.40000 3.101
81.42000 2.285
81.44000 4.267
81.46000 2.840
81.48000 0.577
81.50000 -0.368
81.52000 1.598
81.54000 4.380
81.56000 4.333
81.58000 1.173
81.60000 1.393
81.62000 2.705
81.64000 3.297
81.66000 4.967
81.68000 3.880
81.70000 1.211
81.72000 4.119
81.74000 4.074
81.76000 0.844
81.78000 3.009
81.80000 1.529
81.82000 0.265
81.84000 0.960
81.86000 2.878
81.88000 -2.354
81.90000 0.606
81.92000 4.114
81.94000 4.785
81.96000 4.002
81.98000 3.986
82.00000 6.798
82.02000 8.514
82.04000 6.011
82.06000 2.904
82.08000 3.402
82.10000 5.656
82.12000 5.711
82.14000 6.676
82.16000 4.970
82.18000 7.844
82.20000 9.662
82.22000 6.434
82.24000 6.590
82.26000 7.307
82.28000 11.231
82.30000 15.494
82.32000 17.050
82.34000 9.011
82.36000 8.485
82.38000 13.977
82.40000 9.471
82.42000 13.486
82.44000 13.659
82.46000 14.898
82.48000 13.125
82.50000 16.011
82.52000 17.651
82.54000 17.947
82.56000 18.067
82.58000 21.226
82.60000 21.488
82.62000 19.188
82.64000 19.831
82.66000 23.792
82.68000 22.893
82.70000 25.549
82.72000 24.899
82.74000 24.751
82.76000 22.776
82.78000 24.243
82.80000 31.643
82.82000 30.575
82.84000 29.854
82.86000 32.162
82.88000 35.329
82.90000 34.340
82.92000 31.908
82.94000 31.644
82.96000 36.823
82.98000 42.903
83.00000 43.193
83.02000 41.602
83.04000 44.103
83.06000 46.545
83.08000 48.024
83.10000 53.750
83.12000 54.874
83.14000 58.846
83.16000 60.033
83.18000 57.265
83.20000 60.457
83.22000 61.589
83.24000 62.261
83.26000 65.460
83.28000 69.470
83.30000 76.664
83.32000 76.944
83.34000 72.448
83.36000 74.367
83.38000 74.997
83.40000 78.993
83.42000 74.934
83.44000 72.205
83.46000 75.291
83.48000 80.224
83.50000 79.291
83.52000 78.653
83.54000 74.880
83.56000 73.712
83.58000 73.235
83.60000 71.700
83.62000 69.615
83.64000 69.372
83.66000 66.378
83.68000 68.165
83.70000 69.261
83.72000 65.293
83.74000 59.252
83.76000 61.429
83.78000 59.312
83.80000 56.560
83.82000 54.611
83.84000 53.819
83.86000 53.837
83.88000 52.746
83.90000 51.437
83.92000 42.446
83.94000 41.688
83.96000 40.091
83.98000 41.199
84.00000 43.202
84.02000 39.642
84.04000 33.763
84.06000 32.023
84.08000 32.825
84.10000 31.386
84.12000 29.147
84.14000 26.878
84.16000 21.065
84.18000 20.453
84.20000 22.193
84.22000 21.072
84.24000 19.414
84.26000 20.296
84.28000 18.901
84.30000 17.695
84.32000 17.846
84.34000 16.810
84.36000 16.152
84.38000 11.514
84.40000 9.835
84.42000 13.469
84.44000 12.267
84.46000 11.982
84.48000 7.660
84.50000 9.100
84.52000 11.679
84.54000 7.926
84.56000 6.484
84.58000 7.434
84.60000 6.118
84.62000 5.754
84.64000 6.287
84.66000 7.958
84.68000 8.293
84.70000 6.633
84.72000 7.501
84.74000 8.318
84.76000 7.447
84.78000 7.872
84.80000 5.983
84.82000 2.808
84.84000 2.267
84.86000 0.530
84.88000 3.034
84.90000 4.694
84.92000 -0.055
84.94000 0.342
84.96000 2.264
84.98000 0.585
85.00000 1.286
85.02000 2.010
85.04000 -1.053
85.06000 -0.966
85.08000 -0.679
85.10000 1.904
85.12000 6.250
85.14000 4.929
85.16000 -0.863
85.18000 -1.568
85.20000 3.999
85.22000 3.753
85.24000 0.707
85.26000 -2.067
85.28000 1.719
85.30000 3.608
85.32000 3.054
85.34000 4.968
85.36000 2.625
85.38000 4.084
85.40000 3.163
85.42000 3.515
85.44000 4.332
85.46000 3.894
85.48000 4.793
85.50000 3.103
85.52000 2.527
85.54000 1.068
85.56000 0.346
85.58000 5.401
85.60000 4.646
85.62000 1.200
85.64000 0.993
85.66000 4.083
85.68000 3.830
85.70000 1.174
85.72000 1.658
85.74000 -0.351
85.76000 3.458
85.78000 6.412
85.80000 3.130
85.82000 0.403
85.84000 0.312
85.86000 0.439
85.88000 2.837
85.90000 3.919
85.92000 2.549
85.94000 2.008
85.96000 -0.075
85.98000 0.072
86.00000 2.828
86.02000 4.810
86.04000 1.177
86.06000 4.074
86.08000 7.132
86.10000 1.991
86.12000 0.695
86.14000 -0.887
86.16000 0.828
86.18000 0.843
86.20000 1.370
86.22000 4.214
86.24000 2.134
86.26000 -1.952
86.28000 -1.835
86.30000 0.718
86.32000 2.814
86.34000 7.252
86.36000 4.273
86.38000 -0.524
86.40000 -0.148
86.42000 2.950
86.44000 3.320
86.46000 1.903
86.48000 2.312
86.50000 1.597
86.52000 3.432
86.54000 2.178
86.56000 0.681
86.58000 2.006
86.60000 1.906
86.62000 0.732
86.64000 2.549
86.66000 3.501
86.68000 0.119
86.70000 0.489
86.72000 4.377
86.74000 2.225
86.76000 0.111
86.78000 3.772
86.80000 6.257
86.82000 2.892
86.84000 4.749
86.86000 4.710
86.88000 3.171
86.90000 3.106
86.92000 1.454
86.94000 -0.649
86.96000 3.823
86.98000 3.784
87.00000 1.423
87.02000 1.326
87.04000 -0.081
87.06000 0.959
87.08000 2.269
87.10000 2.000
87.12000 1.151
87.14000 -0.147
87.16000 2.740
87.18000 2.725
87.20000 1.979
87.22000 0.801
87.24000 0.872
87.26000 -0.035
87.28000 -0.952
87.30000 0.993
87.32000 5.483
87.34000 3.401
87.36000 1.686
87.38000 0.482
87.40000 0.292
87.42000 -0.694
87.44000 0.524
87.46000 2.996
87.48000 3.783
87.50000 2.253
87.52000 2.723
87.54000 0.256
87.56000 1.154
87.58000 2.871
87.60000 0.364
87.62000 -1.451
87.64000 1.700
87.66000 2.863
87.68000 0.606
87.70000 -1.606
87.72000 0.165
87.74000 3.539
87.76000 2.741
87.78000 2.734
87.80000 0.896
87.82000 -1.925
87.84000 0.775
87.86000 1.627
87.88000 0.403
87.90000 1.712
87.92000 3.737
87.94000 1.641
87.96000 3.741
87.98000 4.242
88.00000 2.982
88.02000 4.170
88.04000 2.605
88.06000 3.249
88.08000 0.319
88.10000 1.236
88.12000 -0.277
88.14000 -1.900
88.16000 3.367
88.18000 1.273
88.20000 -0.562
88.22000 4.683
88.24000 4.697
88.26000 1.681
88.28000 -1.420
88.30000 -0.657
88.32000 -0.150
88.34000 5.772
88.36000 6.685
88.38000 0.469
88.40000 -0.541
88.42000 -1.231
88.44000 2.916
88.46000 4.023
88.48000 3.954
88.50000 5.532
88.52000 4.454
88.54000 2.706
88.56000 3.047
88.58000 3.007
88.60000 0.815
88.62000 1.036
88.64000 2.485
88.66000 -0.345
88.68000 0.015
88.70000 -0.150
88.72000 -1.510
88.74000 0.778
88.76000 4.983
88.78000 1.320
88.80000 1.334
88.82000 3.028
88.84000 4.225
88.86000 2.895
88.88000 3.961
88.90000 4.344
88.92000 2.712
88.94000 0.221
88.96000 -0.386
88.98000 -0.950
89.00000 2.087
89.02000 1.633
89.04000 1.316
89.06000 1.182
89.08000 -1.219
89.10000 1.472
89.12000 2.565
89.14000 2.698
89.16000 3.322
89.18000 2.778
89.20000 6.030
89.22000 5.597
89.24000 3.026
89.26000 1.942
89.28000 0.455
89.30000 1.263
89.32000 -1.872
89.34000 0.781
89.36000 2.620
89.38000 2.708
89.40000 4.228
89.42000 4.036
89.44000 3.425
89.46000 0.938
89.48000 1.640
89.50000 1.611
89.52000 1.596
89.54000 1.503
89.56000 1.953
89.58000 1.761
89.60000 4.514
89.62000 2.911
89.64000 2.024
89.66000 2.211
89.68000 1.798
89.70000 1.605
89.72000 1.198
89.74000 2.262
89.76000 2.021
89.78000 3.504
89.80000 1.157
89.82000 -1.882
89.84000 1.576
89.86000 3.563
89.88000 5.146
89.90000 2.042
89.92000 -0.649
89.94000 -0.394
89.96000 0.216
89.98000 2.774
90.00000 4.757
90.02000 3.420
90.04000 0.858
90.06000 0.503
90.08000 0.590
90.10000 4.242
90.12000 1.295
90.14000 0.203
90.16000 4.226
90.18000 1.649
90.20000 -0.292
90.22000 0.242
90.24000 1.638
90.26000 0.377
90.28000 1.151
90.30000 3.485
90.32000 6.119
90.34000 6.945
90.36000 2.705
90.38000 1.516
90.40000 3.362
90.42000 3.190
90.44000 5.531
90.46000 5.669
90.48000 1.800
90.50000 3.202
90.52000 7.494
90.54000 6.322
90.56000 2.436
90.58000 1.988
90.60000 5.806
90.62000 5.178
90.64000 2.905
90.66000 2.539
90.68000 1.166
90.70000 2.039
90.72000 3.536
90.74000 3.536
90.76000 3.282
90.78000 2.044
90.80000 3.955
90.82000 1.712
90.84000 2.397
90.86000 1.152
90.88000 2.585
90.90000 2.609
90.92000 3.705
90.94000 4.189
90.96000 4.751
90.98000 4.490
91.00000 4.648
91.02000 7.208
91.04000 7.376
91.06000 6.087
91.08000 4.689
91.10000 5.752
91.12000 6.233
91.14000 4.103
91.16000 3.000
91.18000 4.721
91.20000 4.383
91.22000 2.099
91.24000 -1.837
91.26000 0.011
91.28000 1.211
91.30000 5.540
91.32000 7.880
91.34000 2.151
91.36000 3.060
91.38000 3.800
91.40000 4.516
91.42000 3.874
91.44000 5.446
91.46000 3.904
91.48000 2.877
91.50000 7.074
91.52000 4.443
91.54000 3.376
91.56000 2.040
91.58000 2.982
91.60000 4.778
91.62000 4.455
91.64000 1.668
91.66000 3.260
91.68000 7.610
91.70000 3.231
91.72000 3.303
91.74000 5.126
91.76000 2.712
91.78000 1.550
91.80000 2.097
91.82000 5.516
91.84000 10.596
91.86000 7.142
91.88000 5.111
91.90000 5.498
91.92000 3.213
91.94000 1.795
91.96000 3.758
91.98000 3.461
92.00000 4.219
92.02000 4.044
92.04000 4.643
92.06000 5.706
92.08000 2.292
92.10000 2.357
92.12000 2.458
92.14000 -0.158
92.16000 -0.647
92.18000 0.462
92.20000 1.813
92.22000 3.347
92.24000 3.148
92.26000 5.557
92.28000 7.040
92.30000 3.802
92.32000 3.365
92.34000 3.532
92.36000 1.110
92.38000 3.952
92.40000 1.006
92.42000 2.089
92.44000 -0.087
92.46000 -0.374
92.48000 -0.806
92.50000 -1.588
92.52000 2.669
92.54000 3.841
92.56000 3.807
92.58000 5.605
92.60000 3.219
92.62000 1.746
92.64000 5.365
92.66000 3.404
92.68000 4.696
92.70000 2.426
92.72000 2.776
92.74000 -1.893
92.76000 0.340
92.78000 2.356
92.80000 3.748
92.82000 5.067
92.84000 2.873
92.86000 1.726
92.88000 4.375
92.90000 2.481
92.92000 0.216
92.94000 3.875
92.96000 4.802
92.98000 4.789
93.00000 2.088
93.02000 1.592
93.04000 3.541
93.06000 3.638
93.08000 2.950
93.10000 2.806
93.12000 3.742
93.14000 6.331
93.16000 2.190
93.18000 1.952
93.20000 1.945
93.22000 2.062
93.24000 1.702
93.26000 1.257
93.28000 1.210
93.30000 2.969
93.32000 2.604
93.34000 3.796
93.36000 5.210
93.38000 2.398
93.40000 0.311
93.42000 3.039
93.44000 0.770
93.46000 0.646
93.48000 0.359
93.50000 1.724
93.52000 6.268
93.54000 6.797
93.56000 2.805
93.58000 -0.764
93.60000 2.090
93.62000 3.724
93.64000 3.290
93.66000 2.280
93.68000 0.248
93.70000 2.480
93.72000 5.672
93.74000 3.759
93.76000 4.443
93.78000 3.851
93.80000 6.520
93.82000 3.369
93.84000 3.609
93.86000 1.186
93.88000 -1.905
93.90000 5.296
93.92000 4.923
93.94000 0.335
93.96000 -0.056
93.98000 2.678
94.00000 -1.394
94.02000 -0.384
94.04000 -1.299
94.06000 2.060
94.08000 3.559
94.10000 3.055
94.12000 2.171
94.14000 3.026
94.16000 3.178
94.18000 5.712
94.20000 5.776
94.22000 4.801
94.24000 4.559
94.26000 4.441
94.28000 3.983
94.30000 3.337
94.32000 3.859
94.34000 3.070
94.36000 6.346
94.38000 5.543
94.40000 4.190
94.42000 4.936
94.44000 6.421
94.46000 2.488
94.48000 -1.895
94.50000 4.780
94.52000 4.997
94.54000 5.795
94.56000 7.033
94.58000 7.927
94.60000 8.128
94.62000 5.284
94.64000 1.681
94.66000 3.208
94.68000 7.223
94.70000 5.311
94.72000 4.937
94.74000 6.183
94.76000 5.109
94.78000 0.153
94.80000 -1.473
94.82000 3.772
94.84000 5.101
94.86000 7.009
94.88000 4.324
94.90000 2.170
94.92000 2.039
94.94000 0.268
94.96000 0.764
94.98000 3.013
95.00000 4.028
95.02000 -0.447
95.04000 0.778
95.06000 4.081
95.08000 2.565
95.10000 0.944
95.12000 4.363
95.14000 4.765
95.16000 -0.724
95.18000 3.446
95.20000 6.898
95.22000 3.732
95.24000 1.833
95.26000 4.794
95.28000 5.241
95.30000 5.408
95.32000 1.694
95.34000 2.008
95.36000 2.801
95.38000 5.650
95.40000 5.526
95.42000 6.128
95.44000 4.872
95.46000 2.498
95.48000 2.955
95.50000 0.818
95.52000 -1.919
95.54000 0.671
95.56000 3.108
95.58000 1.751
95.60000 0.759
95.62000 1.640
95.64000 4.622
95.66000 1.868
95.68000 3.641
95.70000 4.803
95.72000 4.065
95.74000 6.008
95.76000 4.631
95.78000 3.951
95.80000 4.535
95.82000 5.267
95.84000 0.092
95.86000 -0.488
95.88000 -0.531
95.90000 -1.228
95.92000 -0.357
95.94000 1.132
95.96000 2.204
95.98000 5.687
96.00000 1.798
96.02000 3.139
96.04000 4.257
96.06000 5.771
96.08000 4.101
96.10000 2.053
96.12000 8.602
96.14000 6.755
96.16000 6.066
96.18000 5.018
96.20000 4.303
96.22000 2.559
96.24000 -1.719
96.26000 -0.319
96.28000 0.931
96.30000 4.955
96.32000 3.852
96.34000 1.642
96.36000 3.640
96.38000 2.793
96.40000 5.671
96.42000 4.789
96.44000 2.612
96.46000 4.561
96.48000 3.610
96.50000 2.165
96.52000 4.447
96.54000 2.034
96.56000 0.138
96.58000 2.660
96.60000 2.544
96.62000 0.630
96.64000 2.483
96.66000 6.621
96.68000 2.972
96.70000 2.361
96.72000 2.567
96.74000 4.386
96.76000 4.661
96.78000 3.416
96.80000 3.019
96.82000 2.954
96.84000 2.164
96.86000 4.160
96.88000 3.736
96.90000 4.064
96.92000 3.900
96.94000 6.572
96.96000 3.483
96.98000 -1.902
97.00000 -1.640
97.02000 -0.659
97.04000 3.228
97.06000 2.743
97.08000 3.014
97.10000 1.384
97.12000 4.528
97.14000 4.474
97.16000 7.506
97.18000 7.414
97.20000 0.408
97.22000 5.648
97.24000 3.192
97.26000 2.655
97.28000 3.569
97.30000 5.299
97.32000 3.640
97.34000 1.075
97.36000 3.385
97.38000 5.981
97.40000 5.864
97.42000 6.748
97.44000 7.884
97.46000 4.422
97.48000 -2.471
97.50000 5.260
97.52000 7.875
97.54000 4.061
97.56000 -0.662
97.58000 1.719
97.60000 4.398
97.62000 4.046
97.64000 2.405
97.66000 2.886
97.68000 5.433
97.70000 6.101
97.72000 2.506
97.74000 0.799
97.76000 3.706
97.78000 3.891
97.80000 1.847
97.82000 4.840
97.84000 -0.815
97.86000 1.488
97.88000 2.767
97.90000 4.169
97.92000 2.341
97.94000 1.889
97.96000 3.878
97.98000 6.748
98.00000 6.250
98.02000 2.571
98.04000 3.140
98.06000 5.076
98.08000 5.820
98.10000 7.923
98.12000 3.758
98.14000 7.386
98.16000 6.914
98.18000 -0.562
98.20000 -0.417
98.22000 3.604
98.24000 8.157
98.26000 7.125
98.28000 2.970
98.30000 3.024
98.32000 5.099
98.34000 4.958
98.36000 2.217
98.38000 2.623
98.40000 2.235
98.42000 9.983
98.44000 3.633
98.46000 2.283
98.48000 6.139
98.50000 6.450
98.52000 7.198
98.54000 6.526
98.56000 7.657
98.58000 2.623
98.60000 5.466
98.62000 4.574
98.64000 3.086
98.66000 9.643
98.68000 10.908
98.70000 12.182
98.72000 2.814
98.74000 0.609
98.76000 5.649
98.78000 11.226
98.80000 4.468
98.82000 8.340
98.84000 11.874
98.86000 4.633
98.88000 4.630
98.90000 2.513
98.92000 2.791
98.94000 -0.050
98.96000 2.566
98.98000 7.133
99.00000 8.486
99.02000 9.648
99.04000 8.698
99.06000 1.599
99.08000 -1.827
99.10000 -1.076
99.12000 1.670
99.14000 4.131
99.16000 8.661
99.18000 7.622
99.20000 7.363
99.22000 5.932
99.24000 -1.202
99.26000 0.972
99.28000 1.754
99.30000 2.410
99.32000 -1.823
99.34000 6.256
99.36000 10.841
99.38000 7.912
99.40000 7.310
99.42000 3.028
99.44000 1.680
99.46000 6.798
99.48000 3.936
99.50000 4.606
99.52000 7.202
99.54000 7.845
99.56000 0.039
99.58000 2.623
99.60000 11.910
99.62000 10.401
99.64000 9.041
99.66000 7.426
99.68000 1.099
99.70000 0.883
99.72000 -1.406
99.74000 2.382
99.76000 8.542
99.78000 11.924
99.80000 8.402
99.82000 3.162
99.84000 2.231
99.86000 -0.287
99.88000 -0.412
99.90000 7.902
99.92000 -2.918
99.94000 1.148
99.96000 3.155
99.98000 0.000
