'Id: "0011387" Comment: "Integrate frame 0011387_Au-Ir-Rh_Rh-rich_XRD-Mapping-195-0000.gfrmwith cursor Wedge Cursor #5" Operator: "B?rgel" Anode: "Cu" Wavelength: "1.5406" Scantype: "2Theta (TwoTheta)" TimePerStep: "1" X: "31.5" Y: "4.5" Z: "5.95" 
10.00000 0.000
10.02000 14.749
10.04000 13.290
10.06000 3.256
10.08000 4.679
10.10000 14.490
10.12000 18.604
10.14000 20.553
10.16000 6.713
10.18000 4.018
10.20000 -3.410
10.22000 8.564
10.24000 10.780
10.26000 1.838
10.28000 -1.158
10.30000 8.994
10.32000 15.235
10.34000 23.536
10.36000 10.895
10.38000 9.583
10.40000 11.767
10.42000 9.940
10.44000 14.750
10.46000 15.891
10.48000 18.079
10.50000 6.995
10.52000 11.507
10.54000 10.745
10.56000 12.564
10.58000 21.757
10.60000 19.610
10.62000 20.539
10.64000 19.908
10.66000 23.231
10.68000 12.226
10.70000 14.233
10.72000 10.637
10.74000 17.509
10.76000 20.596
10.78000 11.067
10.80000 13.532
10.82000 19.153
10.84000 19.920
10.86000 21.607
10.88000 20.242
10.90000 27.097
10.92000 16.055
10.94000 18.644
10.96000 20.011
10.98000 33.637
11.00000 30.274
11.02000 24.942
11.04000 29.505
11.06000 28.292
11.08000 27.767
11.10000 28.726
11.12000 28.063
11.14000 25.109
11.16000 25.768
11.18000 34.844
11.20000 25.970
11.22000 23.659
11.24000 23.262
11.26000 17.380
11.28000 11.819
11.30000 15.680
11.32000 24.721
11.34000 33.294
11.36000 32.262
11.38000 24.398
11.40000 22.483
11.42000 32.145
11.44000 30.562
11.46000 34.312
11.48000 33.380
11.50000 18.740
11.52000 16.537
11.54000 16.753
11.56000 22.223
11.58000 29.587
11.60000 44.661
11.62000 39.369
11.64000 34.359
11.66000 37.031
11.68000 35.245
11.70000 32.458
11.72000 37.711
11.74000 31.484
11.76000 32.299
11.78000 36.266
11.80000 37.924
11.82000 34.934
11.84000 33.788
11.86000 39.392
11.88000 42.958
11.90000 40.643
11.92000 43.958
11.94000 37.700
11.96000 39.640
11.98000 24.105
12.00000 26.166
12.02000 28.418
12.04000 42.112
12.06000 36.111
12.08000 33.758
12.10000 32.580
12.12000 34.620
12.14000 35.676
12.16000 30.202
12.18000 26.378
12.20000 31.056
12.22000 37.709
12.24000 35.312
12.26000 33.293
12.28000 40.013
12.30000 49.009
12.32000 44.715
12.34000 47.368
12.36000 36.033
12.38000 24.911
12.40000 39.207
12.42000 38.146
12.44000 35.920
12.46000 26.315
12.48000 42.619
12.50000 40.697
12.52000 38.146
12.54000 43.308
12.56000 39.274
12.58000 38.246
12.60000 40.874
12.62000 44.662
12.64000 43.566
12.66000 42.251
12.68000 31.504
12.70000 36.391
12.72000 37.121
12.74000 35.770
12.76000 37.498
12.78000 51.631
12.80000 47.590
12.82000 39.986
12.84000 40.825
12.86000 35.260
12.88000 40.440
12.90000 47.147
12.92000 36.044
12.94000 38.506
12.96000 35.897
12.98000 34.436
13.00000 33.629
13.02000 42.497
13.04000 46.498
13.06000 47.681
13.08000 39.394
13.10000 37.532
13.12000 38.865
13.14000 36.773
13.16000 39.065
13.18000 47.491
13.20000 44.447
13.22000 38.749
13.24000 24.533
13.26000 26.897
13.28000 31.930
13.30000 38.762
13.32000 44.628
13.34000 39.871
13.36000 31.482
13.38000 34.936
13.40000 38.612
13.42000 37.701
13.44000 43.848
13.46000 39.484
13.48000 32.504
13.50000 27.154
13.52000 38.462
13.54000 28.519
13.56000 31.036
13.58000 29.940
13.60000 32.394
13.62000 28.699
13.64000 28.572
13.66000 37.621
13.68000 36.357
13.70000 39.101
13.72000 36.378
13.74000 30.024
13.76000 28.037
13.78000 26.053
13.80000 26.749
13.82000 26.960
13.84000 31.173
13.86000 43.311
13.88000 37.002
13.90000 33.728
13.92000 24.007
13.94000 28.517
13.96000 35.868
13.98000 35.779
14.00000 29.138
14.02000 20.812
14.04000 31.293
14.06000 19.888
14.08000 25.251
14.10000 27.036
14.12000 30.146
14.14000 21.416
14.16000 32.928
14.18000 37.925
14.20000 25.444
14.22000 24.017
14.24000 33.931
14.26000 29.757
14.28000 22.963
14.30000 27.918
14.32000 25.490
14.34000 27.600
14.36000 28.052
14.38000 26.875
14.40000 25.676
14.42000 21.814
14.44000 31.502
14.46000 29.807
14.48000 24.014
14.50000 19.171
14.52000 24.130
14.54000 26.004
14.56000 25.938
14.58000 29.449
14.60000 30.943
14.62000 22.260
14.64000 27.123
14.66000 30.896
14.68000 28.076
14.70000 20.403
14.72000 21.539
14.74000 25.081
14.76000 19.375
14.78000 19.590
14.80000 22.678
14.82000 30.949
14.84000 20.849
14.86000 23.163
14.88000 24.615
14.90000 23.826
14.92000 32.320
14.94000 24.060
14.96000 10.692
14.98000 16.672
15.00000 16.531
15.02000 17.991
15.04000 22.593
15.06000 24.926
15.08000 31.370
15.10000 24.627
15.12000 25.781
15.14000 24.926
15.16000 21.272
15.18000 17.385
15.20000 18.162
15.22000 20.284
15.24000 20.275
15.26000 23.384
15.28000 27.941
15.30000 27.516
15.32000 18.174
15.34000 22.422
15.36000 17.140
15.38000 10.709
15.40000 17.199
15.42000 11.311
15.44000 20.543
15.46000 25.683
15.48000 25.032
15.50000 14.430
15.52000 15.072
15.54000 19.296
15.56000 17.699
15.58000 12.036
15.60000 11.514
15.62000 18.458
15.64000 19.981
15.66000 23.400
15.68000 16.566
15.70000 18.027
15.72000 14.933
15.74000 18.200
15.76000 8.718
15.78000 9.448
15.80000 12.679
15.82000 12.590
15.84000 22.903
15.86000 20.161
15.88000 14.583
15.90000 16.737
15.92000 14.605
15.94000 13.573
15.96000 15.244
15.98000 16.566
16.00000 7.743
16.02000 7.930
16.04000 20.732
16.06000 16.662
16.08000 6.428
16.10000 5.054
16.12000 11.494
16.14000 15.251
16.16000 17.329
16.18000 25.218
16.20000 23.742
16.22000 23.485
16.24000 16.976
16.26000 17.820
16.28000 13.194
16.30000 8.114
16.32000 7.131
16.34000 8.592
16.36000 16.959
16.38000 15.220
16.40000 7.525
16.42000 6.941
16.44000 4.438
16.46000 6.032
16.48000 13.996
16.50000 15.878
16.52000 18.767
16.54000 12.316
16.56000 17.952
16.58000 17.449
16.60000 16.253
16.62000 11.667
16.64000 17.682
16.66000 13.338
16.68000 9.969
16.70000 5.911
16.72000 8.482
16.74000 13.536
16.76000 16.609
16.78000 7.920
16.80000 5.069
16.82000 1.514
16.84000 13.142
16.86000 18.648
16.88000 14.375
16.90000 13.011
16.92000 11.697
16.94000 6.558
16.96000 6.374
16.98000 9.558
17.00000 6.696
17.02000 7.556
17.04000 14.124
17.06000 9.369
17.08000 15.590
17.10000 11.707
17.12000 14.282
17.14000 14.811
17.16000 9.530
17.18000 6.707
17.20000 12.985
17.22000 18.568
17.24000 13.134
17.26000 14.225
17.28000 12.465
17.30000 12.256
17.32000 10.830
17.34000 5.953
17.36000 7.774
17.38000 14.215
17.40000 11.082
17.42000 11.176
17.44000 21.237
17.46000 15.286
17.48000 12.979
17.50000 14.374
17.52000 7.540
17.54000 4.244
17.56000 12.403
17.58000 10.104
17.60000 14.486
17.62000 10.982
17.64000 8.457
17.66000 9.646
17.68000 5.466
17.70000 3.098
17.72000 8.437
17.74000 7.656
17.76000 5.354
17.78000 13.283
17.80000 13.252
17.82000 6.383
17.84000 6.990
17.86000 4.414
17.88000 3.789
17.90000 2.100
17.92000 -2.489
17.94000 7.042
17.96000 7.621
17.98000 4.927
18.00000 -4.328
18.02000 0.494
18.04000 9.717
18.06000 -0.554
18.08000 6.528
18.10000 5.283
18.12000 1.391
18.14000 2.915
18.16000 2.743
18.18000 -0.896
18.20000 2.800
18.22000 8.895
18.24000 8.612
18.26000 0.681
18.28000 -0.508
18.30000 -0.392
18.32000 6.810
18.34000 13.793
18.36000 0.986
18.38000 0.124
18.40000 3.029
18.42000 -0.540
18.44000 1.863
18.46000 0.220
18.48000 6.822
18.50000 5.362
18.52000 0.348
18.54000 4.084
18.56000 5.731
18.58000 2.583
18.60000 1.578
18.62000 0.861
18.64000 2.623
18.66000 8.596
18.68000 6.425
18.70000 7.165
18.72000 3.033
18.74000 1.576
18.76000 -2.648
18.78000 -1.388
18.80000 0.308
18.82000 4.013
18.84000 5.820
18.86000 10.603
18.88000 9.323
18.90000 0.825
18.92000 4.402
18.94000 -1.130
18.96000 -2.021
18.98000 -1.832
19.00000 0.851
19.02000 5.346
19.04000 3.901
19.06000 4.106
19.08000 1.887
19.10000 2.978
19.12000 3.514
19.14000 -2.697
19.16000 1.748
19.18000 7.520
19.20000 3.205
19.22000 6.822
19.24000 6.109
19.26000 5.630
19.28000 3.586
19.30000 6.719
19.32000 5.786
19.34000 2.748
19.36000 1.299
19.38000 2.673
19.40000 8.770
19.42000 5.825
19.44000 5.478
19.46000 3.791
19.48000 -1.232
19.50000 -4.258
19.52000 -0.948
19.54000 0.210
19.56000 6.626
19.58000 13.512
19.60000 9.614
19.62000 5.154
19.64000 7.266
19.66000 4.831
19.68000 -1.881
19.70000 0.833
19.72000 0.431
19.74000 4.463
19.76000 7.680
19.78000 11.650
19.80000 9.512
19.82000 11.128
19.84000 6.740
19.86000 4.117
19.88000 11.254
19.90000 15.470
19.92000 10.696
19.94000 -1.302
19.96000 -1.240
19.98000 4.030
20.00000 3.666
20.02000 2.760
20.04000 9.264
20.06000 12.856
20.08000 5.909
20.10000 4.376
20.12000 14.103
20.14000 8.622
20.16000 4.498
20.18000 3.359
20.20000 8.885
20.22000 8.247
20.24000 11.329
20.26000 6.573
20.28000 1.384
20.30000 4.250
20.32000 0.979
20.34000 3.074
20.36000 6.666
20.38000 8.940
20.40000 8.449
20.42000 7.154
20.44000 9.928
20.46000 13.811
20.48000 7.811
20.50000 4.673
20.52000 2.285
20.54000 -4.193
20.56000 -3.085
20.58000 0.874
20.60000 4.997
20.62000 -4.150
20.64000 -0.923
20.66000 0.763
20.68000 4.176
20.70000 5.131
20.72000 3.612
20.74000 7.559
20.76000 6.032
20.78000 -0.266
20.80000 2.714
20.82000 9.964
20.84000 3.504
20.86000 -0.056
20.88000 0.988
20.90000 0.064
20.92000 7.606
20.94000 13.861
20.96000 12.358
20.98000 8.015
21.00000 8.338
21.02000 9.477
21.04000 11.794
21.06000 9.694
21.08000 5.023
21.10000 2.281
21.12000 0.644
21.14000 3.038
21.16000 7.723
21.18000 7.066
21.20000 1.224
21.22000 0.416
21.24000 15.288
21.26000 17.984
21.28000 14.055
21.30000 15.495
21.32000 8.858
21.34000 2.625
21.36000 8.289
21.38000 8.573
21.40000 5.200
21.42000 3.920
21.44000 6.971
21.46000 7.135
21.48000 5.717
21.50000 10.207
21.52000 5.689
21.54000 3.498
21.56000 4.241
21.58000 6.459
21.60000 6.698
21.62000 6.370
21.64000 -0.270
21.66000 3.864
21.68000 4.166
21.70000 5.988
21.72000 5.127
21.74000 11.432
21.76000 11.551
21.78000 9.767
21.80000 9.629
21.82000 11.392
21.84000 12.453
21.86000 12.132
21.88000 9.189
21.90000 10.839
21.92000 14.183
21.94000 9.099
21.96000 6.159
21.98000 7.384
22.00000 9.551
22.02000 8.379
22.04000 10.001
22.06000 11.730
22.08000 4.593
22.10000 8.932
22.12000 14.917
22.14000 8.547
22.16000 -4.083
22.18000 -1.212
22.20000 4.627
22.22000 5.541
22.24000 7.298
22.26000 2.136
22.28000 0.523
22.30000 2.254
22.32000 11.680
22.34000 6.292
22.36000 -0.844
22.38000 -1.886
22.40000 2.322
22.42000 9.991
22.44000 9.007
22.46000 5.222
22.48000 4.442
22.50000 5.130
22.52000 8.130
22.54000 8.658
22.56000 5.274
22.58000 7.044
22.60000 8.495
22.62000 8.851
22.64000 -0.106
22.66000 -1.312
22.68000 4.850
22.70000 11.288
22.72000 3.119
22.74000 -0.985
22.76000 -0.839
22.78000 -1.232
22.80000 -0.733
22.82000 -2.619
22.84000 0.509
22.86000 2.798
22.88000 4.997
22.90000 6.529
22.92000 6.853
22.94000 10.302
22.96000 6.419
22.98000 3.241
23.00000 -2.430
23.02000 2.426
23.04000 5.304
23.06000 -0.375
23.08000 0.997
23.10000 8.025
23.12000 2.508
23.14000 0.487
23.16000 2.783
23.18000 -2.584
23.20000 7.359
23.22000 5.875
23.24000 8.782
23.26000 6.622
23.28000 -0.839
23.30000 -0.325
23.32000 3.311
23.34000 0.979
23.36000 -1.304
23.38000 0.936
23.40000 7.240
23.42000 1.450
23.44000 9.823
23.46000 10.986
23.48000 6.467
23.50000 -0.667
23.52000 0.181
23.54000 2.289
23.56000 1.584
23.58000 5.408
23.60000 6.218
23.62000 3.187
23.64000 -2.058
23.66000 0.815
23.68000 1.476
23.70000 3.357
23.72000 2.068
23.74000 -4.025
23.76000 -0.205
23.78000 3.256
23.80000 3.971
23.82000 4.513
23.84000 -0.904
23.86000 2.609
23.88000 3.430
23.90000 2.949
23.92000 5.645
23.94000 2.392
23.96000 2.846
23.98000 3.595
24.00000 2.675
24.02000 1.258
24.04000 3.797
24.06000 0.631
24.08000 6.938
24.10000 5.540
24.12000 4.555
24.14000 5.646
24.16000 10.168
24.18000 7.364
24.20000 12.813
24.22000 6.754
24.24000 4.822
24.26000 9.702
24.28000 10.675
24.30000 5.839
24.32000 5.050
24.34000 4.217
24.36000 5.092
24.38000 4.439
24.40000 7.886
24.42000 2.051
24.44000 3.570
24.46000 9.005
24.48000 13.464
24.50000 8.395
24.52000 5.261
24.54000 4.842
24.56000 5.865
24.58000 2.010
24.60000 0.735
24.62000 4.108
24.64000 3.205
24.66000 2.745
24.68000 2.531
24.70000 3.163
24.72000 5.121
24.74000 3.614
24.76000 7.001
24.78000 3.874
24.80000 3.346
24.82000 4.815
24.84000 5.985
24.86000 2.879
24.88000 -1.128
24.90000 2.895
24.92000 10.296
24.94000 14.276
24.96000 5.791
24.98000 9.587
25.00000 8.951
25.02000 7.554
25.04000 0.118
25.06000 -3.772
25.08000 -3.923
25.10000 0.261
25.12000 2.004
25.14000 1.726
25.16000 7.084
25.18000 13.412
25.20000 10.405
25.22000 1.562
25.24000 1.621
25.26000 5.236
25.28000 7.239
25.30000 7.936
25.32000 7.883
25.34000 2.577
25.36000 5.989
25.38000 13.060
25.40000 13.281
25.42000 8.366
25.44000 9.498
25.46000 12.119
25.48000 9.232
25.50000 6.870
25.52000 4.553
25.54000 8.481
25.56000 8.002
25.58000 1.920
25.60000 3.324
25.62000 3.132
25.64000 8.231
25.66000 8.608
25.68000 3.567
25.70000 2.538
25.72000 1.880
25.74000 5.660
25.76000 5.149
25.78000 3.492
25.80000 4.769
25.82000 6.447
25.84000 3.680
25.86000 5.401
25.88000 -1.438
25.90000 2.253
25.92000 4.526
25.94000 -0.587
25.96000 4.438
25.98000 4.300
26.00000 2.838
26.02000 1.038
26.04000 3.085
26.06000 5.444
26.08000 4.694
26.10000 4.175
26.12000 4.109
26.14000 4.426
26.16000 0.783
26.18000 1.783
26.20000 7.639
26.22000 1.793
26.24000 4.615
26.26000 12.207
26.28000 13.390
26.30000 4.242
26.32000 3.695
26.34000 5.849
26.36000 7.256
26.38000 8.002
26.40000 7.172
26.42000 1.470
26.44000 7.117
26.46000 11.211
26.48000 9.440
26.50000 7.421
26.52000 9.344
26.54000 5.994
26.56000 7.843
26.58000 4.457
26.60000 1.875
26.62000 4.962
26.64000 10.413
26.66000 9.169
26.68000 11.338
26.70000 7.860
26.72000 3.483
26.74000 7.320
26.76000 8.408
26.78000 9.145
26.80000 3.767
26.82000 9.497
26.84000 1.295
26.86000 -3.795
26.88000 2.152
26.90000 7.652
26.92000 11.117
26.94000 10.920
26.96000 11.249
26.98000 12.217
27.00000 11.576
27.02000 3.861
27.04000 8.586
27.06000 7.055
27.08000 8.597
27.10000 9.756
27.12000 11.630
27.14000 9.212
27.16000 8.769
27.18000 7.656
27.20000 5.660
27.22000 4.097
27.24000 5.262
27.26000 2.109
27.28000 7.356
27.30000 10.574
27.32000 9.481
27.34000 3.646
27.36000 2.997
27.38000 2.203
27.40000 6.766
27.42000 7.502
27.44000 3.160
27.46000 3.145
27.48000 5.869
27.50000 9.331
27.52000 8.976
27.54000 7.266
27.56000 10.229
27.58000 6.440
27.60000 9.022
27.62000 5.929
27.64000 2.462
27.66000 3.270
27.68000 5.049
27.70000 2.334
27.72000 9.226
27.74000 8.930
27.76000 5.243
27.78000 7.674
27.80000 5.550
27.82000 2.215
27.84000 0.443
27.86000 0.566
27.88000 -1.547
27.90000 3.369
27.92000 3.473
27.94000 3.516
27.96000 0.855
27.98000 3.305
28.00000 1.022
28.02000 -3.782
28.04000 -0.521
28.06000 -0.875
28.08000 -0.442
28.10000 3.938
28.12000 -3.780
28.14000 -3.209
28.16000 3.312
28.18000 4.129
28.20000 0.183
28.22000 -0.952
28.24000 -1.969
28.26000 3.026
28.28000 4.150
28.30000 2.076
28.32000 2.982
28.34000 3.152
28.36000 4.489
28.38000 4.998
28.40000 6.600
28.42000 5.148
28.44000 3.033
28.46000 1.758
28.48000 3.932
28.50000 4.928
28.52000 5.846
28.54000 3.449
28.56000 5.601
28.58000 2.151
28.60000 2.958
28.62000 -1.366
28.64000 -2.163
28.66000 -3.043
28.68000 -0.647
28.70000 0.532
28.72000 -0.759
28.74000 -0.999
28.76000 1.704
28.78000 -0.157
28.80000 1.660
28.82000 2.163
28.84000 1.821
28.86000 1.504
28.88000 -1.792
28.90000 0.406
28.92000 2.268
28.94000 1.048
28.96000 -0.033
28.98000 1.354
29.00000 1.619
29.02000 0.130
29.04000 -1.214
29.06000 -0.784
29.08000 -0.634
29.10000 -1.207
29.12000 4.721
29.14000 7.479
29.16000 6.039
29.18000 4.006
29.20000 2.735
29.22000 8.345
29.24000 4.143
29.26000 4.287
29.28000 -1.297
29.30000 3.116
29.32000 4.132
29.34000 5.013
29.36000 2.429
29.38000 2.235
29.40000 5.179
29.42000 3.236
29.44000 2.623
29.46000 0.628
29.48000 -0.965
29.50000 2.741
29.52000 5.882
29.54000 2.277
29.56000 4.272
29.58000 -2.740
29.60000 4.474
29.62000 1.129
29.64000 2.617
29.66000 3.232
29.68000 5.554
29.70000 -0.969
29.72000 -0.610
29.74000 2.857
29.76000 5.556
29.78000 5.922
29.80000 2.376
29.82000 2.981
29.84000 4.003
29.86000 1.696
29.88000 1.872
29.90000 -1.685
29.92000 5.386
29.94000 2.886
29.96000 4.048
29.98000 2.721
30.00000 3.710
30.02000 1.128
30.04000 3.314
30.06000 5.342
30.08000 6.131
30.10000 5.798
30.12000 4.046
30.14000 0.613
30.16000 -3.671
30.18000 -0.389
30.20000 2.194
30.22000 -1.311
30.24000 5.128
30.26000 5.347
30.28000 1.295
30.30000 0.835
30.32000 3.629
30.34000 0.736
30.36000 1.231
30.38000 4.991
30.40000 4.620
30.42000 4.796
30.44000 3.408
30.46000 2.086
30.48000 3.256
30.50000 7.401
30.52000 2.820
30.54000 1.583
30.56000 1.007
30.58000 8.245
30.60000 9.752
30.62000 3.692
30.64000 2.430
30.66000 3.509
30.68000 2.312
30.70000 0.590
30.72000 3.312
30.74000 5.033
30.76000 8.989
30.78000 10.850
30.80000 3.986
30.82000 6.374
30.84000 6.170
30.86000 12.581
30.88000 5.332
30.90000 0.554
30.92000 4.702
30.94000 5.186
30.96000 1.880
30.98000 0.710
31.00000 4.747
31.02000 5.296
31.04000 5.593
31.06000 8.570
31.08000 6.889
31.10000 2.154
31.12000 3.897
31.14000 8.114
31.16000 9.749
31.18000 5.953
31.20000 0.317
31.22000 3.589
31.24000 3.347
31.26000 3.685
31.28000 3.774
31.30000 4.539
31.32000 8.252
31.34000 4.071
31.36000 0.790
31.38000 1.110
31.40000 -3.575
31.42000 0.839
31.44000 8.973
31.46000 3.978
31.48000 3.454
31.50000 8.461
31.52000 5.875
31.54000 8.461
31.56000 10.271
31.58000 2.446
31.60000 2.720
31.62000 3.837
31.64000 0.196
31.66000 2.267
31.68000 7.045
31.70000 4.375
31.72000 3.693
31.74000 6.611
31.76000 6.168
31.78000 8.141
31.80000 7.872
31.82000 7.987
31.84000 6.736
31.86000 6.133
31.88000 5.003
31.90000 4.906
31.92000 5.480
31.94000 4.162
31.96000 4.397
31.98000 2.033
32.00000 1.062
32.02000 -1.393
32.04000 -0.311
32.06000 2.434
32.08000 7.810
32.10000 4.164
32.12000 3.265
32.14000 4.256
32.16000 1.716
32.18000 -1.139
32.20000 -0.905
32.22000 5.950
32.24000 9.648
32.26000 4.684
32.28000 1.413
32.30000 3.709
32.32000 2.723
32.34000 -1.707
32.36000 -2.809
32.38000 -0.696
32.40000 -1.321
32.42000 -0.198
32.44000 2.471
32.46000 0.258
32.48000 0.534
32.50000 0.349
32.52000 -0.786
32.54000 1.900
32.56000 2.730
32.58000 1.637
32.60000 -2.196
32.62000 0.869
32.64000 3.102
32.66000 3.088
32.68000 3.999
32.70000 4.371
32.72000 3.718
32.74000 2.865
32.76000 -2.066
32.78000 -0.805
32.80000 4.320
32.82000 4.829
32.84000 -3.590
32.86000 -1.407
32.88000 1.778
32.90000 -1.218
32.92000 -1.499
32.94000 -1.615
32.96000 1.607
32.98000 3.008
33.00000 -1.256
33.02000 -0.713
33.04000 2.649
33.06000 1.037
33.08000 -1.374
33.10000 5.376
33.12000 2.746
33.14000 2.078
33.16000 -0.731
33.18000 6.496
33.20000 5.859
33.22000 1.485
33.24000 4.143
33.26000 2.765
33.28000 0.580
33.30000 3.053
33.32000 3.289
33.34000 6.876
33.36000 9.577
33.38000 9.664
33.40000 1.768
33.42000 4.349
33.44000 7.545
33.46000 6.296
33.48000 3.326
33.50000 1.293
33.52000 0.141
33.54000 2.772
33.56000 1.729
33.58000 1.673
33.60000 -0.032
33.62000 -3.583
33.64000 1.052
33.66000 2.696
33.68000 3.080
33.70000 3.039
33.72000 2.822
33.74000 2.060
33.76000 3.032
33.78000 7.111
33.80000 6.298
33.82000 1.216
33.84000 0.973
33.86000 3.413
33.88000 -0.614
33.90000 -0.749
33.92000 0.913
33.94000 2.402
33.96000 -0.147
33.98000 1.860
34.00000 -1.897
34.02000 -0.279
34.04000 -0.068
34.06000 0.061
34.08000 -0.515
34.10000 -0.637
34.12000 -1.341
34.14000 -1.025
34.16000 2.203
34.18000 -0.227
34.20000 0.076
34.22000 3.363
34.24000 8.383
34.26000 7.583
34.28000 3.022
34.30000 -1.504
34.32000 4.396
34.34000 3.987
34.36000 4.652
34.38000 0.186
34.40000 -3.562
34.42000 4.315
34.44000 5.229
34.46000 5.896
34.48000 2.596
34.50000 0.836
34.52000 5.110
34.54000 6.993
34.56000 5.583
34.58000 4.422
34.60000 7.475
34.62000 7.279
34.64000 4.236
34.66000 -1.595
34.68000 -3.550
34.70000 1.077
34.72000 1.804
34.74000 1.177
34.76000 -0.152
34.78000 -1.923
34.80000 0.208
34.82000 0.771
34.84000 -2.908
34.86000 -2.815
34.88000 2.583
34.90000 5.569
34.92000 4.059
34.94000 0.449
34.96000 -0.969
34.98000 1.692
35.00000 0.471
35.02000 -0.027
35.04000 -0.099
35.06000 0.470
35.08000 1.796
35.10000 4.259
35.12000 3.143
35.14000 -3.253
35.16000 -0.281
35.18000 3.349
35.20000 -0.855
35.22000 -1.785
35.24000 0.379
35.26000 3.465
35.28000 5.425
35.30000 6.845
35.32000 6.011
35.34000 4.216
35.36000 3.215
35.38000 4.105
35.40000 2.579
35.42000 1.108
35.44000 1.875
35.46000 -1.236
35.48000 2.951
35.50000 1.892
35.52000 4.994
35.54000 5.055
35.56000 4.977
35.58000 3.810
35.60000 4.435
35.62000 2.297
35.64000 0.253
35.66000 1.996
35.68000 3.799
35.70000 2.292
35.72000 -0.828
35.74000 9.489
35.76000 8.501
35.78000 4.383
35.80000 3.265
35.82000 4.561
35.84000 6.381
35.86000 2.639
35.88000 2.735
35.90000 4.757
35.92000 7.971
35.94000 0.241
35.96000 -3.477
35.98000 1.822
36.00000 6.937
36.02000 1.308
36.04000 3.100
36.06000 6.182
36.08000 -1.687
36.10000 2.604
36.12000 6.497
36.14000 1.438
36.16000 6.385
36.18000 7.820
36.20000 5.385
36.22000 1.753
36.24000 2.593
36.26000 -0.423
36.28000 3.765
36.30000 5.648
36.32000 2.804
36.34000 3.978
36.36000 2.935
36.38000 4.931
36.40000 3.739
36.42000 1.746
36.44000 4.351
36.46000 5.770
36.48000 1.392
36.50000 -1.550
36.52000 0.090
36.54000 0.191
36.56000 2.018
36.58000 -2.181
36.60000 -2.063
36.62000 2.143
36.64000 7.042
36.66000 4.578
36.68000 1.835
36.70000 4.641
36.72000 2.493
36.74000 1.917
36.76000 3.414
36.78000 1.625
36.80000 -1.061
36.82000 0.015
36.84000 1.275
36.86000 -1.771
36.88000 -3.542
36.90000 0.512
36.92000 1.551
36.94000 0.175
36.96000 3.775
36.98000 8.665
37.00000 1.264
37.02000 -0.878
37.04000 4.019
37.06000 0.931
37.08000 -0.541
37.10000 -1.800
37.12000 -0.114
37.14000 7.710
37.16000 8.623
37.18000 5.628
37.20000 0.892
37.22000 -0.974
37.24000 4.476
37.26000 4.634
37.28000 -0.275
37.30000 -1.796
37.32000 -3.562
37.34000 -2.970
37.36000 -1.223
37.38000 -2.798
37.40000 -0.601
37.42000 0.038
37.44000 -2.672
37.46000 -2.905
37.48000 1.628
37.50000 1.242
37.52000 -2.730
37.54000 -1.869
37.56000 0.380
37.58000 5.975
37.60000 5.658
37.62000 3.105
37.64000 4.494
37.66000 0.667
37.68000 -1.763
37.70000 -0.040
37.72000 4.936
37.74000 -0.515
37.76000 1.836
37.78000 3.845
37.80000 1.170
37.82000 1.512
37.84000 4.300
37.86000 7.773
37.88000 7.008
37.90000 8.043
37.92000 7.171
37.94000 11.407
37.96000 6.452
37.98000 4.280
38.00000 4.830
38.02000 2.847
38.04000 6.024
38.06000 7.043
38.08000 3.879
38.10000 2.988
38.12000 10.247
38.14000 13.145
38.16000 11.608
38.18000 9.931
38.20000 7.253
38.22000 8.702
38.24000 7.521
38.26000 10.532
38.28000 11.380
38.30000 11.175
38.32000 7.308
38.34000 6.589
38.36000 9.026
38.38000 12.485
38.40000 11.943
38.42000 11.782
38.44000 15.836
38.46000 19.441
38.48000 17.512
38.50000 14.892
38.52000 14.404
38.54000 13.026
38.56000 12.260
38.58000 16.267
38.60000 17.361
38.62000 18.674
38.64000 17.974
38.66000 16.763
38.68000 19.522
38.70000 19.104
38.72000 21.104
38.74000 23.268
38.76000 22.386
38.78000 18.896
38.80000 19.345
38.82000 20.350
38.84000 25.954
38.86000 27.556
38.88000 27.890
38.90000 27.231
38.92000 26.938
38.94000 26.324
38.96000 21.593
38.98000 26.832
39.00000 30.748
39.02000 28.007
39.04000 28.816
39.06000 30.688
39.08000 39.018
39.10000 42.171
39.12000 40.957
39.14000 38.390
39.16000 42.062
39.18000 42.924
39.20000 44.454
39.22000 52.035
39.24000 50.543
39.26000 50.522
39.28000 49.882
39.30000 53.952
39.32000 52.943
39.34000 54.511
39.36000 60.393
39.38000 62.648
39.40000 70.995
39.42000 74.852
39.44000 75.600
39.46000 77.065
39.48000 77.596
39.50000 81.969
39.52000 91.202
39.54000 92.832
39.56000 90.054
39.58000 95.570
39.60000 103.995
39.62000 105.943
39.64000 115.244
39.66000 124.085
39.68000 126.446
39.70000 132.335
39.72000 142.408
39.74000 152.391
39.76000 167.230
39.78000 169.630
39.80000 171.704
39.82000 180.691
39.84000 193.825
39.86000 200.535
39.88000 217.594
39.90000 233.390
39.92000 247.798
39.94000 254.379
39.96000 257.876
39.98000 282.459
40.00000 298.042
40.02000 315.146
40.04000 327.829
40.06000 337.207
40.08000 358.846
40.10000 383.966
40.12000 405.661
40.14000 418.517
40.16000 420.593
40.18000 435.315
40.20000 455.280
40.22000 482.664
40.24000 504.026
40.26000 508.435
40.28000 520.924
40.30000 541.117
40.32000 553.199
40.34000 559.555
40.36000 567.997
40.38000 581.200
40.40000 584.614
40.42000 577.121
40.44000 585.367
40.46000 579.814
40.48000 582.790
40.50000 574.211
40.52000 567.497
40.54000 558.173
40.56000 549.316
40.58000 537.159
40.60000 530.160
40.62000 511.533
40.64000 506.164
40.66000 491.017
40.68000 476.420
40.70000 455.842
40.72000 437.357
40.74000 427.315
40.76000 418.263
40.78000 406.748
40.80000 389.437
40.82000 368.991
40.84000 346.329
40.86000 329.269
40.88000 314.353
40.90000 303.816
40.92000 295.829
40.94000 279.512
40.96000 260.301
40.98000 264.557
41.00000 248.768
41.02000 224.025
41.04000 209.285
41.06000 198.827
41.08000 188.946
41.10000 180.729
41.12000 177.312
41.14000 165.884
41.16000 158.056
41.18000 147.975
41.20000 144.192
41.22000 133.890
41.24000 124.421
41.26000 117.494
41.28000 106.266
41.30000 105.637
41.32000 106.135
41.34000 102.728
41.36000 92.549
41.38000 87.799
41.40000 84.580
41.42000 79.255
41.44000 76.651
41.46000 69.837
41.48000 65.487
41.50000 65.010
41.52000 60.520
41.54000 58.625
41.56000 57.824
41.58000 55.523
41.60000 50.283
41.62000 50.089
41.64000 45.080
41.66000 45.203
41.68000 40.778
41.70000 38.292
41.72000 36.580
41.74000 37.521
41.76000 36.023
41.78000 32.057
41.80000 34.272
41.82000 33.677
41.84000 28.210
41.86000 29.327
41.88000 29.089
41.90000 26.883
41.92000 30.117
41.94000 21.105
41.96000 17.067
41.98000 19.874
42.00000 19.934
42.02000 19.179
42.04000 20.005
42.06000 12.194
42.08000 12.374
42.10000 13.533
42.12000 13.841
42.14000 12.437
42.16000 11.552
42.18000 13.286
42.20000 11.244
42.22000 7.473
42.24000 14.310
42.26000 16.357
42.28000 11.748
42.30000 8.401
42.32000 8.358
42.34000 10.017
42.36000 8.058
42.38000 9.198
42.40000 3.766
42.42000 4.345
42.44000 4.985
42.46000 7.246
42.48000 8.999
42.50000 7.663
42.52000 5.325
42.54000 7.165
42.56000 6.790
42.58000 4.008
42.60000 0.471
42.62000 3.340
42.64000 1.499
42.66000 -1.907
42.68000 -0.777
42.70000 1.850
42.72000 3.640
42.74000 4.600
42.76000 4.610
42.78000 4.838
42.80000 5.334
42.82000 2.846
42.84000 7.119
42.86000 6.998
42.88000 0.737
42.90000 2.644
42.92000 4.446
42.94000 1.525
42.96000 4.809
42.98000 9.022
43.00000 6.023
43.02000 6.333
43.04000 2.073
43.06000 5.084
43.08000 4.852
43.10000 3.822
43.12000 5.270
43.14000 0.885
43.16000 -1.384
43.18000 3.289
43.20000 3.722
43.22000 2.525
43.24000 -0.702
43.26000 0.883
43.28000 -1.722
43.30000 2.458
43.32000 0.635
43.34000 0.876
43.36000 2.463
43.38000 2.152
43.40000 -3.409
43.42000 -3.070
43.44000 1.335
43.46000 3.104
43.48000 3.658
43.50000 0.483
43.52000 0.053
43.54000 -0.851
43.56000 0.333
43.58000 3.158
43.60000 1.046
43.62000 -0.298
43.64000 2.339
43.66000 4.580
43.68000 4.635
43.70000 2.497
43.72000 -0.343
43.74000 -0.140
43.76000 -0.740
43.78000 2.574
43.80000 3.961
43.82000 0.491
43.84000 0.749
43.86000 -2.825
43.88000 1.059
43.90000 -0.188
43.92000 2.393
43.94000 -0.225
43.96000 -3.160
43.98000 2.631
44.00000 1.231
44.02000 -0.181
44.04000 -2.328
44.06000 -1.722
44.08000 -2.908
44.10000 -0.522
44.12000 -0.288
44.14000 -0.494
44.16000 3.505
44.18000 3.860
44.20000 2.287
44.22000 0.692
44.24000 0.708
44.26000 -2.676
44.28000 -2.037
44.30000 -3.360
44.32000 -0.117
44.34000 2.355
44.36000 1.229
44.38000 -1.313
44.40000 2.000
44.42000 2.551
44.44000 1.228
44.46000 -1.815
44.48000 1.116
44.50000 1.751
44.52000 1.571
44.54000 3.040
44.56000 3.964
44.58000 4.989
44.60000 4.621
44.62000 -0.178
44.64000 -2.010
44.66000 -1.613
44.68000 0.741
44.70000 4.042
44.72000 4.533
44.74000 1.370
44.76000 0.588
44.78000 2.321
44.80000 4.868
44.82000 4.092
44.84000 2.052
44.86000 3.908
44.88000 3.574
44.90000 -0.578
44.92000 -2.612
44.94000 -0.591
44.96000 0.894
44.98000 0.342
45.00000 6.489
45.02000 8.394
45.04000 6.269
45.06000 6.061
45.08000 8.031
45.10000 2.782
45.12000 3.467
45.14000 11.704
45.16000 6.017
45.18000 5.648
45.20000 2.446
45.22000 -3.307
45.24000 0.253
45.26000 5.238
45.28000 8.252
45.30000 7.731
45.32000 7.120
45.34000 8.189
45.36000 9.997
45.38000 10.474
45.40000 11.126
45.42000 7.678
45.44000 6.349
45.46000 4.949
45.48000 7.370
45.50000 5.318
45.52000 12.768
45.54000 17.379
45.56000 12.285
45.58000 14.620
45.60000 13.501
45.62000 14.352
45.64000 13.472
45.66000 15.104
45.68000 10.959
45.70000 9.369
45.72000 5.954
45.74000 9.673
45.76000 14.247
45.78000 20.891
45.80000 17.057
45.82000 20.883
45.84000 21.928
45.86000 20.445
45.88000 24.046
45.90000 20.508
45.92000 17.974
45.94000 19.066
45.96000 25.426
45.98000 28.093
46.00000 27.138
46.02000 26.631
46.04000 29.463
46.06000 31.875
46.08000 31.565
46.10000 31.931
46.12000 30.301
46.14000 29.304
46.16000 32.433
46.18000 37.549
46.20000 37.211
46.22000 36.630
46.24000 40.764
46.26000 47.550
46.28000 44.020
46.30000 47.193
46.32000 46.430
46.34000 43.892
46.36000 46.226
46.38000 46.423
46.40000 47.999
46.42000 51.949
46.44000 47.719
46.46000 49.943
46.48000 55.796
46.50000 55.046
46.52000 60.050
46.54000 64.549
46.56000 62.521
46.58000 62.877
46.60000 68.942
46.62000 71.912
46.64000 68.909
46.66000 67.865
46.68000 69.631
46.70000 73.658
46.72000 71.827
46.74000 74.662
46.76000 80.475
46.78000 84.883
46.80000 84.242
46.82000 85.262
46.84000 87.822
46.86000 87.706
46.88000 81.584
46.90000 82.534
46.92000 85.210
46.94000 80.971
46.96000 87.444
46.98000 91.062
47.00000 94.255
47.02000 94.051
47.04000 97.528
47.06000 100.416
47.08000 97.906
47.10000 92.995
47.12000 90.392
47.14000 89.897
47.16000 91.703
47.18000 89.629
47.20000 93.477
47.22000 89.674
47.24000 84.184
47.26000 83.457
47.28000 83.786
47.30000 89.917
47.32000 87.190
47.34000 83.093
47.36000 83.625
47.38000 85.432
47.40000 85.015
47.42000 73.163
47.44000 69.553
47.46000 72.099
47.48000 67.472
47.50000 62.619
47.52000 59.747
47.54000 60.598
47.56000 59.600
47.58000 57.615
47.60000 53.385
47.62000 57.314
47.64000 54.701
47.66000 53.326
47.68000 47.972
47.70000 41.788
47.72000 45.940
47.74000 47.154
47.76000 48.392
47.78000 40.122
47.80000 37.330
47.82000 40.614
47.84000 36.646
47.86000 39.209
47.88000 35.358
47.90000 32.280
47.92000 32.657
47.94000 30.897
47.96000 25.299
47.98000 26.899
48.00000 28.622
48.02000 22.992
48.04000 27.747
48.06000 27.232
48.08000 25.236
48.10000 25.329
48.12000 21.386
48.14000 18.047
48.16000 14.548
48.18000 10.244
48.20000 12.328
48.22000 17.114
48.24000 16.958
48.26000 11.954
48.28000 11.260
48.30000 12.475
48.32000 12.628
48.34000 10.143
48.36000 9.758
48.38000 9.455
48.40000 8.821
48.42000 9.293
48.44000 10.693
48.46000 11.100
48.48000 5.271
48.50000 3.705
48.52000 2.300
48.54000 5.255
48.56000 2.531
48.58000 -1.007
48.60000 0.493
48.62000 -1.788
48.64000 2.148
48.66000 0.481
48.68000 5.336
48.70000 6.975
48.72000 4.712
48.74000 7.308
48.76000 3.854
48.78000 -1.201
48.80000 -2.688
48.82000 1.460
48.84000 0.038
48.86000 -0.180
48.88000 0.027
48.90000 -1.440
48.92000 1.099
48.94000 -0.856
48.96000 -1.140
48.98000 1.781
49.00000 5.063
49.02000 7.975
49.04000 9.312
49.06000 3.636
49.08000 -0.384
49.10000 -1.144
49.12000 0.910
49.14000 1.912
49.16000 1.480
49.18000 5.015
49.20000 4.459
49.22000 3.682
49.24000 3.573
49.26000 3.388
49.28000 1.745
49.30000 1.542
49.32000 1.761
49.34000 0.161
49.36000 0.624
49.38000 2.668
49.40000 0.737
49.42000 -2.881
49.44000 -1.850
49.46000 -2.778
49.48000 2.686
49.50000 8.331
49.52000 7.833
49.54000 4.153
49.56000 -1.059
49.58000 -0.446
49.60000 2.439
49.62000 3.627
49.64000 3.135
49.66000 3.918
49.68000 1.346
49.70000 8.740
49.72000 6.472
49.74000 1.442
49.76000 2.533
49.78000 5.891
49.80000 1.808
49.82000 -0.411
49.84000 1.735
49.86000 5.479
49.88000 2.735
49.90000 0.692
49.92000 1.066
49.94000 2.691
49.96000 3.292
49.98000 3.319
50.00000 1.248
50.02000 -1.785
50.04000 0.586
50.06000 -1.378
50.08000 1.298
50.10000 6.126
50.12000 3.381
50.14000 -0.392
50.16000 -2.041
50.18000 -2.522
50.20000 2.084
50.22000 3.516
50.24000 -2.206
50.26000 -2.805
50.28000 2.831
50.30000 3.219
50.32000 7.171
50.34000 3.322
50.36000 1.875
50.38000 3.384
50.40000 4.728
50.42000 6.283
50.44000 4.370
50.46000 1.265
50.48000 -1.116
50.50000 -2.072
50.52000 -0.557
50.54000 2.326
50.56000 5.472
50.58000 3.327
50.60000 3.675
50.62000 2.803
50.64000 -0.379
50.66000 -2.753
50.68000 1.866
50.70000 1.197
50.72000 2.672
50.74000 4.567
50.76000 1.751
50.78000 0.868
50.80000 -1.016
50.82000 3.638
50.84000 1.721
50.86000 -0.636
50.88000 -2.383
50.90000 1.496
50.92000 5.150
50.94000 3.192
50.96000 3.612
50.98000 4.570
51.00000 3.755
51.02000 -0.592
51.04000 -0.272
51.06000 0.382
51.08000 -0.343
51.10000 3.403
51.12000 4.482
51.14000 5.749
51.16000 -0.377
51.18000 4.164
51.20000 3.480
51.22000 5.290
51.24000 4.119
51.26000 4.947
51.28000 3.669
51.30000 3.936
51.32000 3.698
51.34000 6.033
51.36000 2.369
51.38000 -0.580
51.40000 1.230
51.42000 4.087
51.44000 1.256
51.46000 2.900
51.48000 6.330
51.50000 5.595
51.52000 4.821
51.54000 1.631
51.56000 1.483
51.58000 -2.739
51.60000 2.374
51.62000 3.474
51.64000 -2.522
51.66000 0.853
51.68000 3.358
51.70000 3.088
51.72000 2.215
51.74000 0.233
51.76000 4.168
51.78000 3.994
51.80000 5.127
51.82000 3.479
51.84000 3.870
51.86000 -0.766
51.88000 -0.229
51.90000 -0.569
51.92000 -1.129
51.94000 1.507
51.96000 6.075
51.98000 4.022
52.00000 3.373
52.02000 2.499
52.04000 -0.284
52.06000 -0.507
52.08000 0.343
52.10000 -0.459
52.12000 -1.134
52.14000 1.813
52.16000 3.253
52.18000 3.077
52.20000 8.437
52.22000 8.738
52.24000 4.249
52.26000 3.432
52.28000 4.195
52.30000 8.346
52.32000 9.871
52.34000 5.536
52.36000 0.078
52.38000 -1.003
52.40000 1.407
52.42000 2.373
52.44000 5.606
52.46000 3.936
52.48000 3.167
52.50000 0.051
52.52000 -0.778
52.54000 1.908
52.56000 -2.688
52.58000 -1.092
52.60000 4.669
52.62000 6.413
52.64000 1.624
52.66000 1.763
52.68000 3.835
52.70000 1.132
52.72000 3.999
52.74000 5.296
52.76000 7.445
52.78000 4.652
52.80000 2.547
52.82000 3.001
52.84000 2.896
52.86000 3.367
52.88000 1.346
52.90000 -0.311
52.92000 1.276
52.94000 3.714
52.96000 1.931
52.98000 1.713
53.00000 1.449
53.02000 6.050
53.04000 4.997
53.06000 2.961
53.08000 3.038
53.10000 1.983
53.12000 0.280
53.14000 4.641
53.16000 4.237
53.18000 4.985
53.20000 4.169
53.22000 4.017
53.24000 6.427
53.26000 5.249
53.28000 0.974
53.30000 -1.715
53.32000 -1.332
53.34000 -1.272
53.36000 -1.064
53.38000 -2.669
53.40000 -0.893
53.42000 5.156
53.44000 0.196
53.46000 1.310
53.48000 4.075
53.50000 3.888
53.52000 3.453
53.54000 7.529
53.56000 2.920
53.58000 3.592
53.60000 1.246
53.62000 2.953
53.64000 4.931
53.66000 1.180
53.68000 2.432
53.70000 1.199
53.72000 -2.414
53.74000 -2.652
53.76000 0.004
53.78000 2.257
53.80000 2.117
53.82000 4.035
53.84000 6.667
53.86000 5.473
53.88000 -0.480
53.90000 -1.491
53.92000 1.241
53.94000 -0.043
53.96000 3.552
53.98000 2.330
54.00000 3.983
54.02000 2.503
54.04000 2.039
54.06000 2.466
54.08000 3.086
54.10000 2.888
54.12000 2.150
54.14000 5.678
54.16000 4.782
54.18000 0.244
54.20000 2.068
54.22000 -0.347
54.24000 2.295
54.26000 4.340
54.28000 3.016
54.30000 0.883
54.32000 -1.002
54.34000 1.970
54.36000 1.575
54.38000 2.889
54.40000 1.169
54.42000 -0.275
54.44000 -1.325
54.46000 -2.647
54.48000 1.304
54.50000 0.414
54.52000 0.167
54.54000 -0.247
54.56000 1.962
54.58000 4.563
54.60000 2.872
54.62000 0.882
54.64000 0.191
54.66000 2.084
54.68000 1.942
54.70000 2.320
54.72000 1.883
54.74000 1.288
54.76000 0.646
54.78000 -0.441
54.80000 0.548
54.82000 7.408
54.84000 3.276
54.86000 -1.120
54.88000 -0.215
54.90000 1.413
54.92000 -1.396
54.94000 5.267
54.96000 8.472
54.98000 5.908
55.00000 3.172
55.02000 4.304
55.04000 -0.957
55.06000 4.737
55.08000 5.182
55.10000 6.244
55.12000 5.858
55.14000 5.286
55.16000 0.088
55.18000 0.822
55.20000 3.053
55.22000 7.412
55.24000 4.263
55.26000 1.170
55.28000 -2.609
55.30000 1.774
55.32000 0.750
55.34000 -2.589
55.36000 3.100
55.38000 6.894
55.40000 7.045
55.42000 2.619
55.44000 2.971
55.46000 2.169
55.48000 3.043
55.50000 3.164
55.52000 3.504
55.54000 2.487
55.56000 3.605
55.58000 3.746
55.60000 4.765
55.62000 4.673
55.64000 0.177
55.66000 2.421
55.68000 3.330
55.70000 3.913
55.72000 0.306
55.74000 1.577
55.76000 -0.436
55.78000 1.358
55.80000 0.929
55.82000 1.216
55.84000 2.589
55.86000 4.098
55.88000 8.788
55.90000 9.531
55.92000 5.061
55.94000 5.799
55.96000 6.850
55.98000 3.104
56.00000 4.252
56.02000 6.778
56.04000 8.353
56.06000 5.683
56.08000 2.652
56.10000 0.396
56.12000 1.106
56.14000 1.769
56.16000 3.241
56.18000 -0.046
56.20000 1.950
56.22000 8.268
56.24000 5.652
56.26000 2.007
56.28000 -0.379
56.30000 1.614
56.32000 2.599
56.34000 -0.142
56.36000 2.033
56.38000 3.952
56.40000 5.768
56.42000 4.321
56.44000 2.998
56.46000 3.776
56.48000 3.640
56.50000 4.786
56.52000 4.414
56.54000 4.381
56.56000 2.723
56.58000 0.217
56.60000 1.886
56.62000 1.335
56.64000 4.281
56.66000 5.827
56.68000 5.326
56.70000 -1.079
56.72000 -2.553
56.74000 1.969
56.76000 6.840
56.78000 9.526
56.80000 7.757
56.82000 5.274
56.84000 4.586
56.86000 5.679
56.88000 5.999
56.90000 6.432
56.92000 3.945
56.94000 4.535
56.96000 1.412
56.98000 4.436
57.00000 4.062
57.02000 1.004
57.04000 4.730
57.06000 3.171
57.08000 2.760
57.10000 5.750
57.12000 6.560
57.14000 7.019
57.16000 5.175
57.18000 1.674
57.20000 -0.483
57.22000 -1.613
57.24000 1.404
57.26000 1.594
57.28000 1.749
57.30000 0.230
57.32000 1.521
57.34000 5.767
57.36000 2.376
57.38000 3.692
57.40000 7.900
57.42000 4.215
57.44000 -0.065
57.46000 3.296
57.48000 -2.548
57.50000 -2.097
57.52000 3.883
57.54000 4.766
57.56000 2.060
57.58000 3.244
57.60000 1.196
57.62000 4.074
57.64000 6.940
57.66000 1.032
57.68000 2.949
57.70000 6.972
57.72000 3.739
57.74000 4.307
57.76000 3.848
57.78000 4.271
57.80000 3.910
57.82000 3.157
57.84000 0.247
57.86000 -1.019
57.88000 3.585
57.90000 3.959
57.92000 4.307
57.94000 4.070
57.96000 4.336
57.98000 5.544
58.00000 3.241
58.02000 3.874
58.04000 5.147
58.06000 5.848
58.08000 7.318
58.10000 -1.421
58.12000 -1.303
58.14000 1.794
58.16000 5.486
58.18000 2.124
58.20000 2.184
58.22000 2.221
58.24000 1.751
58.26000 3.710
58.28000 1.897
58.30000 0.626
58.32000 -1.856
58.34000 0.220
58.36000 3.334
58.38000 0.141
58.40000 1.816
58.42000 2.809
58.44000 3.214
58.46000 6.198
58.48000 3.531
58.50000 1.414
58.52000 -0.143
58.54000 -0.500
58.56000 1.663
58.58000 2.131
58.60000 0.343
58.62000 1.677
58.64000 0.127
58.66000 -2.481
58.68000 0.733
58.70000 1.279
58.72000 5.316
58.74000 5.633
58.76000 3.993
58.78000 4.256
58.80000 -0.244
58.82000 1.063
58.84000 0.240
58.86000 1.222
58.88000 5.123
58.90000 3.811
58.92000 4.633
58.94000 5.316
58.96000 0.772
58.98000 3.231
59.00000 -0.498
59.02000 4.508
59.04000 3.433
59.06000 1.649
59.08000 3.275
59.10000 4.450
59.12000 -0.042
59.14000 -1.790
59.16000 1.442
59.18000 0.169
59.20000 0.778
59.22000 6.459
59.24000 3.961
59.26000 0.585
59.28000 2.104
59.30000 -2.199
59.32000 -0.542
59.34000 1.898
59.36000 -0.162
59.38000 4.412
59.40000 3.816
59.42000 2.614
59.44000 4.724
59.46000 2.829
59.48000 -0.640
59.50000 -1.724
59.52000 -0.223
59.54000 -1.018
59.56000 -1.402
59.58000 -1.064
59.60000 1.621
59.62000 4.215
59.64000 4.024
59.66000 5.430
59.68000 2.017
59.70000 -1.911
59.72000 2.567
59.74000 -2.406
59.76000 -2.494
59.78000 -0.691
59.80000 1.739
59.82000 -0.038
59.84000 0.186
59.86000 0.710
59.88000 3.356
59.90000 2.661
59.92000 4.366
59.94000 2.488
59.96000 -1.684
59.98000 -2.488
60.00000 2.538
60.02000 3.953
60.04000 1.854
60.06000 -1.671
60.08000 -0.761
60.10000 0.185
60.12000 2.678
60.14000 3.289
60.16000 0.989
60.18000 -1.091
60.20000 -1.028
60.22000 2.184
60.24000 3.553
60.26000 -0.382
60.28000 0.306
60.30000 0.721
60.32000 -0.931
60.34000 -2.255
60.36000 1.716
60.38000 0.480
60.40000 -1.109
60.42000 -1.570
60.44000 -0.188
60.46000 -0.217
60.48000 0.274
60.50000 0.163
60.52000 0.193
60.54000 1.612
60.56000 3.093
60.58000 -0.039
60.60000 0.856
60.62000 1.154
60.64000 0.826
60.66000 3.275
60.68000 2.434
60.70000 0.323
60.72000 0.591
60.74000 5.595
60.76000 2.377
60.78000 -0.487
60.80000 0.012
60.82000 0.142
60.84000 -2.456
60.86000 -0.118
60.88000 -0.322
60.90000 1.610
60.92000 2.640
60.94000 3.287
60.96000 2.559
60.98000 2.570
61.00000 -0.238
61.02000 3.359
61.04000 3.601
61.06000 4.937
61.08000 4.478
61.10000 3.585
61.12000 2.519
61.14000 0.187
61.16000 2.153
61.18000 2.705
61.20000 0.356
61.22000 0.367
61.24000 2.546
61.26000 -0.035
61.28000 -1.699
61.30000 -0.582
61.32000 4.042
61.34000 4.808
61.36000 0.551
61.38000 2.384
61.40000 -0.842
61.42000 1.014
61.44000 -1.982
61.46000 -0.109
61.48000 2.707
61.50000 2.899
61.52000 2.346
61.54000 1.174
61.56000 1.427
61.58000 0.528
61.60000 1.807
61.62000 3.152
61.64000 2.312
61.66000 1.098
61.68000 -0.502
61.70000 0.954
61.72000 0.148
61.74000 3.270
61.76000 3.226
61.78000 3.856
61.80000 0.495
61.82000 1.293
61.84000 3.849
61.86000 3.124
61.88000 2.125
61.90000 2.162
61.92000 2.055
61.94000 6.373
61.96000 6.688
61.98000 5.377
62.00000 3.586
62.02000 3.436
62.04000 6.010
62.06000 5.814
62.08000 5.334
62.10000 5.425
62.12000 7.908
62.14000 6.287
62.16000 7.116
62.18000 5.599
62.20000 3.041
62.22000 2.230
62.24000 2.602
62.26000 2.816
62.28000 1.481
62.30000 2.760
62.32000 5.754
62.34000 5.934
62.36000 4.455
62.38000 3.487
62.40000 3.915
62.42000 0.237
62.44000 -2.359
62.46000 1.852
62.48000 4.131
62.50000 7.494
62.52000 5.770
62.54000 6.932
62.56000 9.747
62.58000 4.368
62.60000 5.081
62.62000 3.508
62.64000 6.379
62.66000 7.799
62.68000 5.463
62.70000 8.450
62.72000 4.906
62.74000 4.189
62.76000 5.953
62.78000 4.379
62.80000 3.585
62.82000 1.608
62.84000 2.944
62.86000 4.324
62.88000 2.446
62.90000 3.857
62.92000 4.700
62.94000 3.268
62.96000 2.860
62.98000 3.021
63.00000 3.698
63.02000 3.243
63.04000 5.606
63.06000 4.899
63.08000 4.325
63.10000 -0.137
63.12000 2.922
63.14000 7.746
63.16000 4.308
63.18000 1.874
63.20000 0.741
63.22000 1.499
63.24000 2.447
63.26000 2.248
63.28000 0.669
63.30000 0.574
63.32000 0.691
63.34000 5.144
63.36000 3.437
63.38000 3.837
63.40000 5.753
63.42000 2.578
63.44000 -2.412
63.46000 1.338
63.48000 -0.515
63.50000 -1.429
63.52000 0.036
63.54000 0.337
63.56000 1.508
63.58000 0.121
63.60000 -0.430
63.62000 -0.699
63.64000 2.458
63.66000 4.619
63.68000 -1.507
63.70000 -0.240
63.72000 -1.319
63.74000 0.032
63.76000 1.328
63.78000 -0.201
63.80000 0.082
63.82000 -1.974
63.84000 0.206
63.86000 1.632
63.88000 -0.080
63.90000 0.961
63.92000 -0.653
63.94000 -1.417
63.96000 1.198
63.98000 3.113
64.00000 1.164
64.02000 -1.775
64.04000 -1.411
64.06000 2.862
64.08000 3.819
64.10000 1.728
64.12000 -0.293
64.14000 0.858
64.16000 1.081
64.18000 0.357
64.20000 -1.833
64.22000 -1.870
64.24000 0.407
64.26000 4.310
64.28000 2.751
64.30000 1.222
64.32000 0.583
64.34000 1.147
64.36000 3.206
64.38000 8.170
64.40000 3.525
64.42000 0.487
64.44000 4.749
64.46000 3.708
64.48000 2.620
64.50000 1.762
64.52000 2.799
64.54000 4.588
64.56000 3.341
64.58000 1.810
64.60000 2.083
64.62000 1.208
64.64000 2.626
64.66000 0.774
64.68000 3.512
64.70000 4.997
64.72000 6.800
64.74000 5.927
64.76000 -0.003
64.78000 1.417
64.80000 2.139
64.82000 0.573
64.84000 0.388
64.86000 0.553
64.88000 -2.404
64.90000 -1.847
64.92000 1.505
64.94000 3.213
64.96000 1.613
64.98000 0.188
65.00000 -0.668
65.02000 1.828
65.04000 0.325
65.06000 0.752
65.08000 0.560
65.10000 3.798
65.12000 4.418
65.14000 5.566
65.16000 2.485
65.18000 3.454
65.20000 7.698
65.22000 4.029
65.24000 3.269
65.26000 3.713
65.28000 -1.353
65.30000 -0.792
65.32000 2.946
65.34000 0.327
65.36000 -0.672
65.38000 0.824
65.40000 3.475
65.42000 0.591
65.44000 2.884
65.46000 3.684
65.48000 4.952
65.50000 4.219
65.52000 5.332
65.54000 3.329
65.56000 2.444
65.58000 4.085
65.60000 7.577
65.62000 4.767
65.64000 1.302
65.66000 4.914
65.68000 5.860
65.70000 4.464
65.72000 1.071
65.74000 3.672
65.76000 5.133
65.78000 0.137
65.80000 -2.389
65.82000 2.066
65.84000 1.533
65.86000 0.791
65.88000 3.076
65.90000 4.396
65.92000 1.742
65.94000 3.800
65.96000 1.263
65.98000 0.128
66.00000 1.758
66.02000 0.251
66.04000 0.382
66.06000 -1.100
66.08000 0.080
66.10000 2.530
66.12000 3.173
66.14000 4.496
66.16000 4.127
66.18000 1.775
66.20000 1.269
66.22000 1.673
66.24000 0.402
66.26000 -0.615
66.28000 1.924
66.30000 -0.402
66.32000 1.056
66.34000 0.012
66.36000 0.362
66.38000 3.436
66.40000 0.496
66.42000 0.406
66.44000 3.329
66.46000 1.785
66.48000 2.134
66.50000 0.349
66.52000 -0.809
66.54000 0.435
66.56000 -1.675
66.58000 0.000
66.60000 2.101
66.62000 0.166
66.64000 -0.558
66.66000 0.523
66.68000 1.169
66.70000 -0.201
66.72000 -2.193
66.74000 -1.386
66.76000 -0.850
66.78000 -0.210
66.80000 -0.280
66.82000 0.102
66.84000 0.881
66.86000 0.048
66.88000 -0.802
66.90000 3.204
66.92000 2.386
66.94000 -1.276
66.96000 -1.427
66.98000 1.071
67.00000 -0.651
67.02000 -0.901
67.04000 0.829
67.06000 1.459
67.08000 1.594
67.10000 0.981
67.12000 0.852
67.14000 1.071
67.16000 2.113
67.18000 0.731
67.20000 1.132
67.22000 2.224
67.24000 2.981
67.26000 2.933
67.28000 -2.516
67.30000 -1.055
67.32000 0.787
67.34000 0.511
67.36000 -0.218
67.38000 -1.026
67.40000 2.937
67.42000 1.845
67.44000 -0.762
67.46000 2.168
67.48000 3.366
67.50000 2.387
67.52000 1.466
67.54000 3.015
67.56000 2.050
67.58000 2.726
67.60000 2.403
67.62000 2.418
67.64000 3.916
67.66000 3.553
67.68000 3.821
67.70000 5.356
67.72000 6.224
67.74000 3.339
67.76000 5.097
67.78000 5.108
67.80000 7.130
67.82000 4.473
67.84000 5.391
67.86000 6.038
67.88000 8.197
67.90000 7.362
67.92000 9.861
67.94000 11.027
67.96000 12.227
67.98000 9.813
68.00000 5.926
68.02000 8.893
68.04000 11.008
68.06000 10.486
68.08000 8.234
68.10000 10.801
68.12000 15.348
68.14000 12.903
68.16000 10.362
68.18000 10.033
68.20000 10.630
68.22000 14.772
68.24000 16.577
68.26000 14.808
68.28000 14.119
68.30000 14.200
68.32000 11.101
68.34000 12.312
68.36000 20.407
68.38000 19.514
68.40000 22.280
68.42000 18.851
68.44000 19.957
68.46000 18.304
68.48000 20.080
68.50000 23.501
68.52000 22.629
68.54000 23.149
68.56000 20.848
68.58000 21.392
68.60000 21.919
68.62000 22.758
68.64000 23.234
68.66000 24.069
68.68000 23.235
68.70000 23.302
68.72000 28.318
68.74000 29.072
68.76000 28.511
68.78000 28.131
68.80000 26.434
68.82000 24.232
68.84000 26.739
68.86000 25.221
68.88000 23.382
68.90000 23.007
68.92000 21.660
68.94000 21.142
68.96000 21.967
68.98000 24.721
69.00000 23.669
69.02000 21.798
69.04000 26.096
69.06000 23.484
69.08000 22.734
69.10000 19.353
69.12000 19.922
69.14000 20.871
69.16000 20.175
69.18000 20.841
69.20000 18.270
69.22000 15.941
69.24000 16.645
69.26000 17.201
69.28000 14.103
69.30000 14.166
69.32000 13.861
69.34000 18.392
69.36000 14.498
69.38000 11.230
69.40000 11.545
69.42000 11.826
69.44000 12.802
69.46000 9.542
69.48000 11.814
69.50000 9.896
69.52000 7.586
69.54000 8.788
69.56000 8.290
69.58000 10.029
69.60000 6.426
69.62000 5.574
69.64000 5.718
69.66000 8.099
69.68000 8.505
69.70000 7.771
69.72000 6.500
69.74000 7.867
69.76000 8.332
69.78000 4.622
69.80000 7.381
69.82000 7.120
69.84000 3.645
69.86000 4.456
69.88000 5.980
69.90000 3.672
69.92000 0.500
69.94000 -2.282
69.96000 -0.644
69.98000 2.149
70.00000 1.793
70.02000 1.705
70.04000 -2.443
70.06000 1.207
70.08000 3.568
70.10000 3.061
70.12000 4.044
70.14000 2.143
70.16000 0.895
70.18000 1.774
70.20000 -1.081
70.22000 0.290
70.24000 0.980
70.26000 -1.083
70.28000 -0.056
70.30000 1.330
70.32000 4.846
70.34000 1.352
70.36000 0.302
70.38000 0.868
70.40000 -0.900
70.42000 0.819
70.44000 3.511
70.46000 1.974
70.48000 4.155
70.50000 3.900
70.52000 0.283
70.54000 4.346
70.56000 -1.364
70.58000 3.651
70.60000 9.561
70.62000 4.028
70.64000 0.781
70.66000 -2.360
70.68000 0.970
70.70000 5.824
70.72000 0.066
70.74000 3.947
70.76000 7.506
70.78000 7.358
70.80000 5.530
70.82000 3.557
70.84000 2.203
70.86000 -0.769
70.88000 -1.519
70.90000 0.122
70.92000 -0.523
70.94000 2.799
70.96000 0.522
70.98000 -0.784
71.00000 -0.517
71.02000 2.062
71.04000 4.189
71.06000 5.568
71.08000 3.854
71.10000 2.210
71.12000 0.502
71.14000 -2.326
71.16000 1.653
71.18000 1.503
71.20000 1.024
71.22000 4.923
71.24000 0.942
71.26000 0.343
71.28000 0.508
71.30000 2.292
71.32000 0.390
71.34000 -0.361
71.36000 1.651
71.38000 2.708
71.40000 5.132
71.42000 3.454
71.44000 4.228
71.46000 2.368
71.48000 2.857
71.50000 4.216
71.52000 0.411
71.54000 2.530
71.56000 0.448
71.58000 -0.886
71.60000 0.748
71.62000 3.759
71.64000 2.515
71.66000 3.890
71.68000 3.091
71.70000 1.098
71.72000 2.479
71.74000 -2.165
71.76000 1.433
71.78000 3.117
71.80000 -0.470
71.82000 -2.212
71.84000 -1.941
71.86000 0.268
71.88000 -1.388
71.90000 1.738
71.92000 -1.225
71.94000 -1.990
71.96000 1.333
71.98000 0.891
72.00000 -1.045
72.02000 2.131
72.04000 3.765
72.06000 -1.113
72.08000 -0.773
72.10000 0.125
72.12000 1.324
72.14000 -2.100
72.16000 -0.701
72.18000 3.902
72.20000 8.419
72.22000 1.640
72.24000 -0.621
72.26000 0.967
72.28000 3.060
72.30000 9.019
72.32000 7.353
72.34000 -0.493
72.36000 -0.311
72.38000 -1.026
72.40000 -2.306
72.42000 -1.268
72.44000 2.016
72.46000 0.900
72.48000 0.334
72.50000 0.529
72.52000 -0.160
72.54000 2.282
72.56000 0.761
72.58000 0.704
72.60000 1.801
72.62000 0.887
72.64000 -0.840
72.66000 -0.203
72.68000 -1.542
72.70000 -1.252
72.72000 2.156
72.74000 2.289
72.76000 -1.002
72.78000 -2.282
72.80000 -0.030
72.82000 -2.253
72.84000 -0.460
72.86000 -1.717
72.88000 1.887
72.90000 -0.039
72.92000 -1.569
72.94000 -0.158
72.96000 1.756
72.98000 2.922
73.00000 3.532
73.02000 4.481
73.04000 2.399
73.06000 3.877
73.08000 3.329
73.10000 0.662
73.12000 -1.428
73.14000 3.416
73.16000 2.227
73.18000 4.796
73.20000 3.232
73.22000 0.440
73.24000 3.667
73.26000 2.412
73.28000 1.548
73.30000 1.886
73.32000 3.687
73.34000 2.236
73.36000 -2.249
73.38000 -1.497
73.40000 3.101
73.42000 5.394
73.44000 4.290
73.46000 7.316
73.48000 3.647
73.50000 3.319
73.52000 3.986
73.54000 3.825
73.56000 3.374
73.58000 3.308
73.60000 1.418
73.62000 -0.042
73.64000 4.467
73.66000 3.743
73.68000 8.529
73.70000 7.817
73.72000 5.557
73.74000 3.975
73.76000 1.949
73.78000 4.301
73.80000 5.966
73.82000 2.488
73.84000 1.696
73.86000 4.659
73.88000 3.370
73.90000 0.979
73.92000 -0.834
73.94000 0.746
73.96000 1.207
73.98000 1.981
74.00000 0.141
74.02000 -0.018
74.04000 2.432
74.06000 2.665
74.08000 1.016
74.10000 2.052
74.12000 1.271
74.14000 3.353
74.16000 1.429
74.18000 1.514
74.20000 1.557
74.22000 5.021
74.24000 2.090
74.26000 2.594
74.28000 -1.384
74.30000 5.661
74.32000 8.886
74.34000 7.697
74.36000 6.647
74.38000 1.896
74.40000 0.434
74.42000 0.666
74.44000 -0.684
74.46000 1.177
74.48000 2.618
74.50000 4.755
74.52000 3.855
74.54000 5.966
74.56000 1.754
74.58000 -2.217
74.60000 0.171
74.62000 3.456
74.64000 1.275
74.66000 1.018
74.68000 3.333
74.70000 4.400
74.72000 2.442
74.74000 5.119
74.76000 2.473
74.78000 0.294
74.80000 -0.074
74.82000 3.323
74.84000 5.323
74.86000 2.264
74.88000 1.357
74.90000 1.475
74.92000 1.977
74.94000 1.908
74.96000 2.497
74.98000 4.064
75.00000 7.957
75.02000 8.163
75.04000 2.540
75.06000 2.306
75.08000 2.438
75.10000 5.169
75.12000 2.811
75.14000 6.573
75.16000 4.093
75.18000 -1.709
75.20000 -0.607
75.22000 1.992
75.24000 0.097
75.26000 -2.257
75.28000 0.061
75.30000 0.278
75.32000 3.057
75.34000 1.577
75.36000 2.997
75.38000 1.946
75.40000 1.277
75.42000 -2.262
75.44000 -2.020
75.46000 -2.101
75.48000 -0.316
75.50000 -2.075
75.52000 -0.308
75.54000 2.279
75.56000 -1.202
75.58000 -1.371
75.60000 1.005
75.62000 -0.397
75.64000 3.653
75.66000 1.790
75.68000 1.777
75.70000 -0.350
75.72000 -0.314
75.74000 0.004
75.76000 1.906
75.78000 3.572
75.80000 1.502
75.82000 1.023
75.84000 2.240
75.86000 1.038
75.88000 1.802
75.90000 1.392
75.92000 5.564
75.94000 4.341
75.96000 2.912
75.98000 -0.775
76.00000 -2.159
76.02000 3.447
76.04000 2.868
76.06000 4.894
76.08000 5.420
76.10000 3.795
76.12000 4.669
76.14000 5.587
76.16000 6.923
76.18000 5.170
76.20000 0.402
76.22000 3.459
76.24000 8.936
76.26000 3.146
76.28000 1.147
76.30000 0.316
76.32000 -1.765
76.34000 0.499
76.36000 2.405
76.38000 3.959
76.40000 2.384
76.42000 2.672
76.44000 4.584
76.46000 3.690
76.48000 0.946
76.50000 1.254
76.52000 0.122
76.54000 2.425
76.56000 4.144
76.58000 1.034
76.60000 1.481
76.62000 4.209
76.64000 6.251
76.66000 5.164
76.68000 0.356
76.70000 -0.518
76.72000 0.203
76.74000 -2.237
76.76000 -0.836
76.78000 1.843
76.80000 -0.376
76.82000 3.528
76.84000 7.038
76.86000 2.323
76.88000 2.927
76.90000 2.389
76.92000 3.374
76.94000 10.202
76.96000 7.113
76.98000 1.753
77.00000 -0.945
77.02000 -1.434
77.04000 1.209
77.06000 2.014
77.08000 0.762
77.10000 3.305
77.12000 3.334
77.14000 6.410
77.16000 2.953
77.18000 2.610
77.20000 6.282
77.22000 6.224
77.24000 3.365
77.26000 -0.655
77.28000 1.190
77.30000 1.409
77.32000 2.972
77.34000 0.786
77.36000 1.090
77.38000 0.154
77.40000 4.779
77.42000 1.637
77.44000 2.102
77.46000 2.269
77.48000 3.749
77.50000 2.974
77.52000 1.412
77.54000 5.762
77.56000 4.198
77.58000 1.181
77.60000 2.954
77.62000 2.684
77.64000 3.189
77.66000 3.214
77.68000 2.706
77.70000 4.726
77.72000 5.688
77.74000 6.062
77.76000 5.018
77.78000 4.346
77.80000 3.752
77.82000 3.884
77.84000 2.602
77.86000 0.518
77.88000 -2.257
77.90000 1.233
77.92000 1.309
77.94000 -0.213
77.96000 4.538
77.98000 -0.798
78.00000 -0.996
78.02000 2.520
78.04000 3.675
78.06000 1.306
78.08000 0.835
78.10000 4.221
78.12000 1.281
78.14000 1.577
78.16000 2.203
78.18000 0.707
78.20000 3.107
78.22000 0.020
78.24000 0.899
78.26000 2.168
78.28000 0.028
78.30000 1.146
78.32000 -0.050
78.34000 3.651
78.36000 3.819
78.38000 2.264
78.40000 -1.301
78.42000 -0.401
78.44000 -0.095
78.46000 2.412
78.48000 4.992
78.50000 5.324
78.52000 -0.631
78.54000 5.401
78.56000 8.044
78.58000 6.803
78.60000 1.958
78.62000 2.074
78.64000 4.953
78.66000 3.057
78.68000 1.918
78.70000 5.496
78.72000 0.890
78.74000 3.318
78.76000 3.883
78.78000 3.913
78.80000 3.409
78.82000 -0.104
78.84000 -1.296
78.86000 0.322
78.88000 0.629
78.90000 1.166
78.92000 3.388
78.94000 3.339
78.96000 3.565
78.98000 1.974
79.00000 4.088
79.02000 8.854
79.04000 7.591
79.06000 2.083
79.08000 0.439
79.10000 0.908
79.12000 2.508
79.14000 1.453
79.16000 1.325
79.18000 -2.303
79.20000 2.570
79.22000 4.634
79.24000 2.910
79.26000 3.271
79.28000 2.722
79.30000 3.513
79.32000 1.122
79.34000 -2.167
79.36000 2.375
79.38000 1.929
79.40000 4.670
79.42000 1.860
79.44000 0.786
79.46000 -0.512
79.48000 3.571
79.50000 3.702
79.52000 3.156
79.54000 2.419
79.56000 -0.213
79.58000 2.491
79.60000 3.726
79.62000 2.294
79.64000 -2.295
79.66000 -0.347
79.68000 6.969
79.70000 6.323
79.72000 4.629
79.74000 1.797
79.76000 0.785
79.78000 2.400
79.80000 5.173
79.82000 3.544
79.84000 6.097
79.86000 4.883
79.88000 -0.819
79.90000 -0.373
79.92000 0.212
79.94000 0.644
79.96000 -0.483
79.98000 -2.306
80.00000 -0.466
80.02000 2.493
80.04000 2.412
80.06000 -2.069
80.08000 1.578
80.10000 5.312
80.12000 1.754
80.14000 4.313
80.16000 1.678
80.18000 -1.277
80.20000 0.361
80.22000 4.890
80.24000 6.321
80.26000 1.077
80.28000 1.874
80.30000 3.925
80.32000 5.483
80.34000 0.990
80.36000 1.580
80.38000 1.292
80.40000 -0.309
80.42000 3.392
80.44000 4.594
80.46000 3.953
80.48000 4.418
80.50000 4.029
80.52000 2.973
80.54000 1.483
80.56000 -2.317
80.58000 -1.249
80.60000 1.125
80.62000 1.078
80.64000 -0.928
80.66000 2.563
80.68000 5.589
80.70000 7.323
80.72000 9.278
80.74000 2.536
80.76000 0.638
80.78000 -0.654
80.80000 2.679
80.82000 3.814
80.84000 2.255
80.86000 2.323
80.88000 2.987
80.90000 2.628
80.92000 4.564
80.94000 4.766
80.96000 2.821
80.98000 5.188
81.00000 4.890
81.02000 5.851
81.04000 3.980
81.06000 0.877
81.08000 1.232
81.10000 -0.990
81.12000 0.320
81.14000 2.411
81.16000 1.684
81.18000 3.283
81.20000 3.849
81.22000 2.635
81.24000 7.720
81.26000 4.094
81.28000 3.107
81.30000 5.858
81.32000 4.213
81.34000 4.743
81.36000 0.512
81.38000 2.983
81.40000 2.402
81.42000 5.626
81.44000 8.227
81.46000 5.714
81.48000 1.420
81.50000 3.991
81.52000 2.676
81.54000 4.083
81.56000 4.124
81.58000 3.073
81.60000 7.026
81.62000 1.871
81.64000 -0.705
81.66000 2.652
81.68000 7.608
81.70000 8.372
81.72000 11.587
81.74000 9.204
81.76000 4.219
81.78000 3.863
81.80000 6.660
81.82000 11.081
81.84000 8.691
81.86000 10.939
81.88000 8.371
81.90000 8.242
81.92000 10.673
81.94000 12.245
81.96000 13.118
81.98000 7.916
82.00000 7.417
82.02000 14.182
82.04000 16.405
82.06000 16.218
82.08000 16.346
82.10000 11.811
82.12000 15.141
82.14000 15.934
82.16000 15.111
82.18000 14.522
82.20000 8.815
82.22000 8.661
82.24000 7.792
82.26000 6.115
82.28000 12.232
82.30000 13.834
82.32000 19.913
82.34000 18.674
82.36000 17.810
82.38000 20.305
82.40000 24.207
82.42000 16.209
82.44000 17.229
82.46000 21.302
82.48000 17.427
82.50000 18.829
82.52000 25.314
82.54000 22.256
82.56000 23.674
82.58000 22.109
82.60000 24.652
82.62000 26.029
82.64000 28.985
82.66000 27.059
82.68000 29.873
82.70000 29.940
82.72000 32.362
82.74000 31.053
82.76000 29.620
82.78000 33.924
82.80000 31.588
82.82000 27.803
82.84000 26.992
82.86000 26.426
82.88000 28.610
82.90000 30.432
82.92000 36.739
82.94000 30.840
82.96000 32.091
82.98000 32.258
83.00000 28.670
83.02000 33.621
83.04000 38.832
83.06000 35.801
83.08000 35.112
83.10000 33.116
83.12000 39.225
83.14000 36.437
83.16000 31.535
83.18000 31.761
83.20000 34.944
83.22000 39.844
83.24000 33.914
83.26000 37.319
83.28000 36.102
83.30000 33.341
83.32000 33.211
83.34000 36.538
83.36000 31.087
83.38000 27.854
83.40000 23.866
83.42000 25.624
83.44000 29.032
83.46000 27.388
83.48000 28.400
83.50000 25.866
83.52000 26.974
83.54000 24.977
83.56000 22.982
83.58000 23.413
83.60000 23.172
83.62000 21.976
83.64000 21.825
83.66000 17.296
83.68000 21.607
83.70000 19.247
83.72000 13.278
83.74000 15.478
83.76000 18.619
83.78000 15.842
83.80000 16.323
83.82000 17.628
83.84000 19.533
83.86000 17.907
83.88000 13.740
83.90000 12.622
83.92000 15.030
83.94000 11.650
83.96000 13.919
83.98000 14.331
84.00000 9.363
84.02000 11.042
84.04000 15.448
84.06000 12.169
84.08000 13.020
84.10000 10.875
84.12000 9.254
84.14000 7.191
84.16000 11.261
84.18000 10.835
84.20000 7.537
84.22000 7.551
84.24000 11.281
84.26000 8.077
84.28000 4.113
84.30000 7.615
84.32000 7.015
84.34000 7.273
84.36000 7.553
84.38000 7.384
84.40000 8.919
84.42000 9.509
84.44000 10.243
84.46000 12.339
84.48000 7.203
84.50000 10.319
84.52000 7.140
84.54000 5.956
84.56000 7.184
84.58000 6.351
84.60000 6.253
84.62000 6.781
84.64000 6.102
84.66000 5.630
84.68000 -1.658
84.70000 0.511
84.72000 5.710
84.74000 3.929
84.76000 1.937
84.78000 -2.115
84.80000 3.641
84.82000 2.635
84.84000 -1.427
84.86000 0.184
84.88000 3.941
84.90000 5.757
84.92000 8.801
84.94000 4.118
84.96000 5.603
84.98000 3.698
85.00000 1.210
85.02000 1.679
85.04000 2.183
85.06000 5.218
85.08000 5.841
85.10000 2.550
85.12000 5.230
85.14000 3.981
85.16000 1.305
85.18000 5.863
85.20000 5.278
85.22000 0.409
85.24000 -2.281
85.26000 -0.177
85.28000 1.831
85.30000 2.725
85.32000 3.082
85.34000 3.827
85.36000 4.370
85.38000 6.229
85.40000 7.702
85.42000 5.138
85.44000 0.331
85.46000 1.676
85.48000 3.680
85.50000 2.926
85.52000 -0.988
85.54000 0.814
85.56000 -0.338
85.58000 2.977
85.60000 5.666
85.62000 6.458
85.64000 8.643
85.66000 6.432
85.68000 2.713
85.70000 2.037
85.72000 6.649
85.74000 4.624
85.76000 3.452
85.78000 2.465
85.80000 3.131
85.82000 1.951
85.84000 4.843
85.86000 2.955
85.88000 4.869
85.90000 3.572
85.92000 2.288
85.94000 1.309
85.96000 3.447
85.98000 6.544
86.00000 1.485
86.02000 4.212
86.04000 7.024
86.06000 6.765
86.08000 3.932
86.10000 3.762
86.12000 4.492
86.14000 6.470
86.16000 2.516
86.18000 -0.265
86.20000 3.123
86.22000 5.250
86.24000 4.124
86.26000 2.912
86.28000 -2.290
86.30000 3.203
86.32000 6.466
86.34000 0.872
86.36000 3.315
86.38000 1.487
86.40000 0.346
86.42000 3.036
86.44000 1.673
86.46000 5.650
86.48000 6.954
86.50000 7.985
86.52000 11.224
86.54000 6.159
86.56000 3.400
86.58000 6.119
86.60000 9.581
86.62000 6.230
86.64000 4.777
86.66000 8.252
86.68000 11.406
86.70000 12.175
86.72000 12.243
86.74000 8.832
86.76000 6.976
86.78000 6.074
86.80000 13.364
86.82000 12.318
86.84000 11.511
86.86000 7.089
86.88000 8.620
86.90000 10.524
86.92000 9.238
86.94000 9.773
86.96000 13.935
86.98000 14.304
87.00000 12.289
87.02000 15.171
87.04000 16.815
87.06000 19.716
87.08000 18.556
87.10000 18.410
87.12000 16.267
87.14000 18.007
87.16000 16.393
87.18000 18.700
87.20000 13.016
87.22000 14.911
87.24000 15.463
87.26000 17.461
87.28000 16.466
87.30000 21.148
87.32000 21.267
87.34000 23.212
87.36000 25.313
87.38000 23.299
87.40000 20.371
87.42000 14.757
87.44000 17.464
87.46000 18.831
87.48000 20.977
87.50000 24.881
87.52000 28.473
87.54000 23.535
87.56000 21.303
87.58000 19.008
87.60000 20.723
87.62000 20.173
87.64000 19.435
87.66000 15.271
87.68000 19.861
87.70000 17.283
87.72000 20.020
87.74000 22.413
87.76000 17.004
87.78000 19.378
87.80000 17.554
87.82000 12.543
87.84000 14.564
87.86000 19.419
87.88000 16.107
87.90000 14.618
87.92000 11.710
87.94000 15.213
87.96000 15.574
87.98000 16.035
88.00000 13.767
88.02000 11.010
88.04000 11.677
88.06000 13.980
88.08000 10.737
88.10000 8.657
88.12000 11.008
88.14000 14.220
88.16000 10.188
88.18000 10.615
88.20000 13.466
88.22000 12.872
88.24000 8.633
88.26000 8.158
88.28000 9.166
88.30000 6.381
88.32000 5.994
88.34000 6.822
88.36000 5.035
88.38000 1.389
88.40000 2.443
88.42000 3.703
88.44000 1.665
88.46000 5.660
88.48000 3.249
88.50000 4.318
88.52000 5.009
88.54000 5.986
88.56000 5.162
88.58000 4.490
88.60000 4.971
88.62000 6.512
88.64000 0.596
88.66000 -1.254
88.68000 3.522
88.70000 4.066
88.72000 1.196
88.74000 0.011
88.76000 3.952
88.78000 6.397
88.80000 1.773
88.82000 -0.099
88.84000 2.470
88.86000 1.491
88.88000 -2.230
88.90000 4.402
88.92000 -0.261
88.94000 0.932
88.96000 1.447
88.98000 5.159
89.00000 0.329
89.02000 -1.380
89.04000 3.411
89.06000 4.924
89.08000 1.824
89.10000 3.922
89.12000 2.805
89.14000 5.038
89.16000 2.358
89.18000 0.409
89.20000 1.367
89.22000 0.706
89.24000 2.621
89.26000 3.372
89.28000 1.763
89.30000 2.583
89.32000 1.654
89.34000 3.851
89.36000 -0.597
89.38000 -2.184
89.40000 -0.320
89.42000 0.788
89.44000 -1.466
89.46000 2.611
89.48000 2.270
89.50000 -0.199
89.52000 1.782
89.54000 2.874
89.56000 0.819
89.58000 0.305
89.60000 3.074
89.62000 4.903
89.64000 0.119
89.66000 -1.863
89.68000 2.348
89.70000 5.844
89.72000 1.931
89.74000 1.120
89.76000 -0.154
89.78000 -2.148
89.80000 0.960
89.82000 0.589
89.84000 -0.338
89.86000 -0.378
89.88000 0.189
89.90000 3.800
89.92000 3.629
89.94000 -0.090
89.96000 -0.474
89.98000 1.586
90.00000 1.093
90.02000 0.505
90.04000 3.162
90.06000 4.856
90.08000 2.656
90.10000 3.126
90.12000 5.294
90.14000 3.982
90.16000 1.239
90.18000 0.055
90.20000 1.463
90.22000 3.030
90.24000 1.783
90.26000 0.858
90.28000 3.194
90.30000 2.619
90.32000 3.193
90.34000 4.079
90.36000 0.682
90.38000 3.996
90.40000 1.287
90.42000 4.460
90.44000 1.168
90.46000 2.020
90.48000 2.985
90.50000 5.923
90.52000 1.055
90.54000 -1.120
90.56000 3.234
90.58000 1.268
90.60000 2.723
90.62000 2.646
90.64000 4.638
90.66000 6.328
90.68000 5.448
90.70000 2.752
90.72000 -0.494
90.74000 0.858
90.76000 5.038
90.78000 4.754
90.80000 4.754
90.82000 4.239
90.84000 0.919
90.86000 -0.085
90.88000 -2.115
90.90000 0.752
90.92000 -1.690
90.94000 1.210
90.96000 5.044
90.98000 2.639
91.00000 5.029
91.02000 5.068
91.04000 3.291
91.06000 3.024
91.08000 4.254
91.10000 3.347
91.12000 0.150
91.14000 -0.953
91.16000 2.664
91.18000 0.458
91.20000 -1.444
91.22000 -0.667
91.24000 1.016
91.26000 4.989
91.28000 0.708
91.30000 3.916
91.32000 3.930
91.34000 2.202
91.36000 0.373
91.38000 1.057
91.40000 1.892
91.42000 1.643
91.44000 4.141
91.46000 2.749
91.48000 6.394
91.50000 3.375
91.52000 5.473
91.54000 6.184
91.56000 9.749
91.58000 7.949
91.60000 4.157
91.62000 3.255
91.64000 2.489
91.66000 2.999
91.68000 3.378
91.70000 2.779
91.72000 2.810
91.74000 6.272
91.76000 3.906
91.78000 0.130
91.80000 -2.088
91.82000 5.916
91.84000 11.944
91.86000 9.083
91.88000 8.783
91.90000 4.908
91.92000 0.785
91.94000 4.817
91.96000 4.001
91.98000 5.156
92.00000 7.259
92.02000 7.060
92.04000 5.838
92.06000 5.198
92.08000 4.446
92.10000 -0.714
92.12000 3.252
92.14000 6.007
92.16000 7.368
92.18000 7.203
92.20000 3.769
92.22000 2.449
92.24000 4.407
92.26000 0.539
92.28000 2.732
92.30000 4.963
92.32000 4.284
92.34000 3.645
92.36000 5.885
92.38000 4.955
92.40000 3.229
92.42000 6.693
92.44000 6.900
92.46000 3.777
92.48000 1.162
92.50000 2.051
92.52000 2.561
92.54000 0.039
92.56000 6.205
92.58000 5.615
92.60000 1.351
92.62000 2.686
92.64000 1.016
92.66000 1.062
92.68000 2.093
92.70000 1.792
92.72000 -1.260
92.74000 2.783
92.76000 1.798
92.78000 0.279
92.80000 1.427
92.82000 4.885
92.84000 10.763
92.86000 5.031
92.88000 0.652
92.90000 2.669
92.92000 5.403
92.94000 3.423
92.96000 0.137
92.98000 0.853
93.00000 2.463
93.02000 1.442
93.04000 0.875
93.06000 1.040
93.08000 2.572
93.10000 3.366
93.12000 1.354
93.14000 0.815
93.16000 2.445
93.18000 1.734
93.20000 2.374
93.22000 2.687
93.24000 4.317
93.26000 1.451
93.28000 0.485
93.30000 1.011
93.32000 2.583
93.34000 0.827
93.36000 -0.050
93.38000 -1.887
93.40000 2.806
93.42000 7.551
93.44000 1.773
93.46000 -0.775
93.48000 -2.125
93.50000 3.480
93.52000 4.498
93.54000 4.411
93.56000 3.332
93.58000 2.708
93.60000 2.391
93.62000 1.671
93.64000 1.429
93.66000 3.110
93.68000 4.035
93.70000 -1.820
93.72000 2.015
93.74000 1.120
93.76000 4.147
93.78000 7.892
93.80000 7.589
93.82000 5.476
93.84000 8.025
93.86000 2.982
93.88000 -2.127
93.90000 2.384
93.92000 1.875
93.94000 1.511
93.96000 1.936
93.98000 1.442
94.00000 4.616
94.02000 5.528
94.04000 2.947
94.06000 2.463
94.08000 7.300
94.10000 4.788
94.12000 4.880
94.14000 4.476
94.16000 9.952
94.18000 6.119
94.20000 5.399
94.22000 2.066
94.24000 2.177
94.26000 3.142
94.28000 2.682
94.30000 1.259
94.32000 2.444
94.34000 6.934
94.36000 4.006
94.38000 5.253
94.40000 4.577
94.42000 4.459
94.44000 1.061
94.46000 2.172
94.48000 5.766
94.50000 6.777
94.52000 5.346
94.54000 8.959
94.56000 7.536
94.58000 2.579
94.60000 2.540
94.62000 5.063
94.64000 3.662
94.66000 1.866
94.68000 3.875
94.70000 1.510
94.72000 1.232
94.74000 4.761
94.76000 6.115
94.78000 11.670
94.80000 9.115
94.82000 10.796
94.84000 8.147
94.86000 8.287
94.88000 8.170
94.90000 9.759
94.92000 7.854
94.94000 0.301
94.96000 4.398
94.98000 5.347
95.00000 8.335
95.02000 8.236
95.04000 7.003
95.06000 7.144
95.08000 2.109
95.10000 -2.132
95.12000 -0.611
95.14000 6.146
95.16000 6.386
95.18000 1.016
95.20000 1.370
95.22000 1.791
95.24000 -0.896
95.26000 2.168
95.28000 0.474
95.30000 6.783
95.32000 7.272
95.34000 5.669
95.36000 5.646
95.38000 6.466
95.40000 5.578
95.42000 4.019
95.44000 6.851
95.46000 8.873
95.48000 9.717
95.50000 7.502
95.52000 7.113
95.54000 5.147
95.56000 3.195
95.58000 4.672
95.60000 4.233
95.62000 12.112
95.64000 7.779
95.66000 1.308
95.68000 4.589
95.70000 2.926
95.72000 6.054
95.74000 4.919
95.76000 2.799
95.78000 6.075
95.80000 3.370
95.82000 -1.092
95.84000 -2.120
95.86000 1.888
95.88000 3.445
95.90000 4.820
95.92000 2.647
95.94000 2.493
95.96000 2.582
95.98000 6.211
96.00000 6.074
96.02000 6.745
96.04000 7.721
96.06000 9.355
96.08000 5.879
96.10000 6.373
96.12000 9.142
96.14000 8.371
96.16000 9.433
96.18000 8.933
96.20000 6.075
96.22000 6.029
96.24000 5.433
96.26000 -0.506
96.28000 2.438
96.30000 4.824
96.32000 1.041
96.34000 2.960
96.36000 9.312
96.38000 6.587
96.40000 4.668
96.42000 3.631
96.44000 4.913
96.46000 8.115
96.48000 5.792
96.50000 3.847
96.52000 1.710
96.54000 0.514
96.56000 6.557
96.58000 5.149
96.60000 5.436
96.62000 4.256
96.64000 -0.576
96.66000 4.170
96.68000 3.640
96.70000 5.212
96.72000 4.737
96.74000 7.364
96.76000 6.399
96.78000 4.280
96.80000 3.237
96.82000 2.404
96.84000 3.812
96.86000 1.258
96.88000 3.244
96.90000 5.172
96.92000 9.165
96.94000 12.947
96.96000 7.715
96.98000 3.008
97.00000 0.326
97.02000 -2.087
97.04000 4.934
97.06000 8.114
97.08000 5.594
97.10000 6.119
97.12000 1.761
97.14000 2.696
97.16000 5.872
97.18000 5.341
97.20000 9.731
97.22000 5.550
97.24000 6.323
97.26000 9.415
97.28000 8.034
97.30000 1.875
97.32000 5.017
97.34000 7.112
97.36000 8.244
97.38000 7.521
97.40000 3.834
97.42000 1.421
97.44000 2.639
97.46000 2.329
97.48000 1.735
97.50000 4.354
97.52000 10.881
97.54000 10.264
97.56000 1.570
97.58000 5.104
97.60000 4.307
97.62000 4.759
97.64000 0.885
97.66000 1.488
97.68000 3.050
97.70000 4.997
97.72000 4.335
97.74000 -0.219
97.76000 -1.275
97.78000 7.379
97.80000 4.945
97.82000 1.899
97.84000 0.944
97.86000 0.614
97.88000 3.516
97.90000 5.313
97.92000 -2.425
97.94000 5.483
97.96000 7.280
97.98000 4.122
98.00000 4.300
98.02000 4.138
98.04000 2.860
98.06000 3.395
98.08000 5.976
98.10000 4.328
98.12000 -0.114
98.14000 0.049
98.16000 3.446
98.18000 5.880
98.20000 6.712
98.22000 4.960
98.24000 1.537
98.26000 -1.990
98.28000 -0.841
98.30000 5.833
98.32000 12.011
98.34000 13.711
98.36000 10.055
98.38000 3.043
98.40000 1.496
98.42000 2.063
98.44000 2.194
98.46000 7.882
98.48000 13.108
98.50000 3.632
98.52000 0.309
98.54000 -0.043
98.56000 3.089
98.58000 2.733
98.60000 5.575
98.62000 6.532
98.64000 5.180
98.66000 4.795
98.68000 2.456
98.70000 2.484
98.72000 3.868
98.74000 10.729
98.76000 3.591
98.78000 4.730
98.80000 6.164
98.82000 9.808
98.84000 13.520
98.86000 11.577
98.88000 8.359
98.90000 6.821
98.92000 6.260
98.94000 3.724
98.96000 5.515
98.98000 7.629
99.00000 9.541
99.02000 7.510
99.04000 16.759
99.06000 8.535
99.08000 11.961
99.10000 12.569
99.12000 8.367
99.14000 13.778
99.16000 14.887
99.18000 15.009
99.20000 10.801
99.22000 10.634
99.24000 8.062
99.26000 3.774
99.28000 7.498
99.30000 6.745
99.32000 12.711
99.34000 11.937
99.36000 -2.640
99.38000 -1.760
99.40000 3.776
99.42000 5.371
99.44000 9.255
99.46000 3.999
99.48000 9.189
99.50000 9.119
99.52000 9.215
99.54000 0.863
99.56000 0.728
99.58000 7.497
99.60000 16.422
99.62000 8.101
99.64000 8.785
99.66000 8.254
99.68000 12.195
99.70000 11.159
99.72000 6.083
99.74000 -6.120
99.76000 4.171
99.78000 14.634
99.80000 13.104
99.82000 13.216
99.84000 8.172
99.86000 18.219
99.88000 14.882
99.90000 8.790
99.92000 9.178
99.94000 7.367
99.96000 -2.093
99.98000 0.000
