'Id: "0011388" Comment: "Integrate frame 0011388_Au-Ir-Rh_Rh-rich_XRD-Mapping-095-0000.gfrmwith cursor Wedge Cursor #5" Operator: "B?rgel" Anode: "Cu" Wavelength: "1.5406" Scantype: "2Theta (TwoTheta)" TimePerStep: "1" X: "-40.5" Y: "-13.5" Z: "5.95" 
10.00000 0.000
10.02000 0.597
10.04000 -0.749
10.06000 -4.617
10.08000 12.588
10.10000 16.076
10.12000 0.374
10.14000 -4.542
10.16000 -3.173
10.18000 6.985
10.20000 12.394
10.22000 13.017
10.24000 8.484
10.26000 9.845
10.28000 15.532
10.30000 7.557
10.32000 3.983
10.34000 8.711
10.36000 20.856
10.38000 11.424
10.40000 -2.064
10.42000 3.913
10.44000 19.328
10.46000 16.153
10.48000 19.918
10.50000 6.448
10.52000 0.133
10.54000 4.581
10.56000 23.468
10.58000 24.649
10.60000 16.986
10.62000 14.366
10.64000 22.849
10.66000 18.313
10.68000 14.898
10.70000 7.593
10.72000 7.954
10.74000 13.177
10.76000 14.551
10.78000 1.086
10.80000 9.824
10.82000 20.002
10.84000 2.502
10.86000 7.677
10.88000 0.366
10.90000 10.633
10.92000 8.509
10.94000 21.171
10.96000 22.803
10.98000 17.833
11.00000 5.946
11.02000 13.004
11.04000 7.856
11.06000 4.835
11.08000 8.305
11.10000 9.620
11.12000 1.956
11.14000 7.641
11.16000 8.378
11.18000 9.715
11.20000 8.673
11.22000 24.867
11.24000 23.504
11.26000 20.550
11.28000 19.053
11.30000 4.698
11.32000 7.354
11.34000 1.535
11.36000 8.743
11.38000 11.006
11.40000 12.256
11.42000 30.450
11.44000 22.290
11.46000 11.467
11.48000 17.052
11.50000 15.284
11.52000 9.390
11.54000 -4.507
11.56000 4.780
11.58000 12.102
11.60000 19.509
11.62000 8.945
11.64000 10.274
11.66000 3.361
11.68000 2.988
11.70000 10.509
11.72000 5.990
11.74000 14.141
11.76000 15.815
11.78000 11.264
11.80000 3.939
11.82000 4.908
11.84000 10.139
11.86000 2.771
11.88000 -0.005
11.90000 13.980
11.92000 27.418
11.94000 25.117
11.96000 13.608
11.98000 17.205
12.00000 14.103
12.02000 2.890
12.04000 -0.337
12.06000 5.941
12.08000 4.485
12.10000 3.510
12.12000 3.592
12.14000 4.705
12.16000 13.009
12.18000 14.687
12.20000 6.278
12.22000 -2.626
12.24000 6.906
12.26000 14.465
12.28000 6.315
12.30000 3.566
12.32000 5.845
12.34000 0.838
12.36000 4.850
12.38000 0.894
12.40000 7.280
12.42000 18.037
12.44000 22.221
12.46000 15.305
12.48000 1.228
12.50000 0.821
12.52000 9.723
12.54000 1.215
12.56000 2.482
12.58000 10.034
12.60000 11.524
12.62000 10.065
12.64000 16.626
12.66000 6.661
12.68000 2.324
12.70000 1.513
12.72000 5.430
12.74000 7.211
12.76000 9.361
12.78000 14.107
12.80000 19.310
12.82000 18.514
12.84000 5.578
12.86000 0.899
12.88000 -1.007
12.90000 7.628
12.92000 8.148
12.94000 12.178
12.96000 5.041
12.98000 4.561
13.00000 1.354
13.02000 8.462
13.04000 20.321
13.06000 17.956
13.08000 2.360
13.10000 3.301
13.12000 11.576
13.14000 15.379
13.16000 21.912
13.18000 17.901
13.20000 18.624
13.22000 12.652
13.24000 6.698
13.26000 9.460
13.28000 24.354
13.30000 15.217
13.32000 10.288
13.34000 1.932
13.36000 14.993
13.38000 14.489
13.40000 15.221
13.42000 8.970
13.44000 -0.627
13.46000 -1.305
13.48000 1.920
13.50000 12.702
13.52000 18.544
13.54000 20.832
13.56000 6.390
13.58000 4.465
13.60000 -4.485
13.62000 -2.821
13.64000 3.938
13.66000 9.872
13.68000 3.008
13.70000 8.428
13.72000 9.863
13.74000 8.186
13.76000 2.373
13.78000 3.316
13.80000 8.116
13.82000 14.452
13.84000 4.312
13.86000 6.885
13.88000 2.358
13.90000 5.934
13.92000 9.961
13.94000 2.262
13.96000 -3.149
13.98000 2.463
14.00000 7.954
14.02000 10.970
14.04000 11.745
14.06000 1.160
14.08000 12.010
14.10000 17.331
14.12000 18.173
14.14000 12.191
14.16000 4.715
14.18000 5.281
14.20000 20.120
14.22000 12.769
14.24000 6.568
14.26000 18.102
14.28000 18.247
14.30000 10.424
14.32000 12.384
14.34000 12.217
14.36000 9.121
14.38000 5.497
14.40000 6.645
14.42000 11.214
14.44000 9.574
14.46000 -4.453
14.48000 3.520
14.50000 2.961
14.52000 7.588
14.54000 4.169
14.56000 -3.572
14.58000 3.020
14.60000 15.243
14.62000 7.247
14.64000 10.463
14.66000 5.766
14.68000 5.026
14.70000 5.864
14.72000 8.517
14.74000 8.743
14.76000 8.666
14.78000 -4.046
14.80000 6.680
14.82000 14.987
14.84000 13.780
14.86000 7.954
14.88000 1.717
14.90000 6.434
14.92000 11.010
14.94000 2.431
14.96000 8.766
14.98000 12.165
15.00000 14.933
15.02000 9.395
15.04000 9.785
15.06000 13.401
15.08000 11.423
15.10000 10.691
15.12000 6.361
15.14000 4.866
15.16000 6.217
15.18000 4.036
15.20000 7.713
15.22000 14.327
15.24000 13.677
15.26000 11.094
15.28000 19.504
15.30000 17.166
15.32000 15.610
15.34000 5.230
15.36000 3.865
15.38000 2.683
15.40000 -3.342
15.42000 6.721
15.44000 8.557
15.46000 7.479
15.48000 10.880
15.50000 11.867
15.52000 17.328
15.54000 8.233
15.56000 -0.189
15.58000 -3.130
15.60000 -2.418
15.62000 3.408
15.64000 1.910
15.66000 1.177
15.68000 11.045
15.70000 11.154
15.72000 10.312
15.74000 9.092
15.76000 10.345
15.78000 5.796
15.80000 3.644
15.82000 9.614
15.84000 15.518
15.86000 13.430
15.88000 10.156
15.90000 -1.424
15.92000 6.289
15.94000 18.327
15.96000 4.217
15.98000 -4.390
16.00000 1.914
16.02000 5.802
16.04000 8.230
16.06000 5.628
16.08000 7.149
16.10000 10.697
16.12000 7.451
16.14000 8.487
16.16000 10.384
16.18000 3.406
16.20000 1.926
16.22000 4.947
16.24000 4.257
16.26000 3.578
16.28000 7.871
16.30000 9.490
16.32000 10.563
16.34000 10.222
16.36000 5.544
16.38000 3.479
16.40000 -0.228
16.42000 -2.548
16.44000 -3.940
16.46000 8.214
16.48000 10.786
16.50000 5.567
16.52000 -1.063
16.54000 0.426
16.56000 -1.981
16.58000 3.601
16.60000 8.042
16.62000 10.701
16.64000 15.479
16.66000 7.908
16.68000 8.274
16.70000 3.415
16.72000 11.052
16.74000 13.263
16.76000 6.528
16.78000 11.577
16.80000 7.108
16.82000 15.472
16.84000 11.028
16.86000 6.746
16.88000 3.072
16.90000 -1.515
16.92000 -1.215
16.94000 5.366
16.96000 5.562
16.98000 7.425
17.00000 10.018
17.02000 8.953
17.04000 7.163
17.06000 3.828
17.08000 3.140
17.10000 4.450
17.12000 1.061
17.14000 -0.496
17.16000 -3.742
17.18000 2.210
17.20000 13.818
17.22000 13.336
17.24000 9.375
17.26000 10.794
17.28000 9.732
17.30000 2.868
17.32000 4.383
17.34000 9.777
17.36000 16.253
17.38000 13.374
17.40000 12.469
17.42000 5.314
17.44000 5.198
17.46000 7.981
17.48000 7.359
17.50000 6.560
17.52000 3.764
17.54000 4.564
17.56000 5.247
17.58000 0.990
17.60000 -3.360
17.62000 -1.750
17.64000 2.818
17.66000 10.194
17.68000 12.751
17.70000 0.690
17.72000 1.512
17.74000 5.214
17.76000 6.259
17.78000 6.107
17.80000 1.267
17.82000 -0.905
17.84000 -0.373
17.86000 -2.220
17.88000 5.681
17.90000 7.058
17.92000 6.075
17.94000 5.168
17.96000 8.141
17.98000 12.090
18.00000 6.539
18.02000 1.369
18.04000 7.358
18.06000 5.816
18.08000 -2.253
18.10000 3.524
18.12000 17.541
18.14000 17.762
18.16000 3.604
18.18000 1.611
18.20000 9.570
18.22000 8.968
18.24000 10.978
18.26000 6.714
18.28000 9.505
18.30000 6.938
18.32000 2.797
18.34000 8.611
18.36000 3.941
18.38000 4.792
18.40000 -4.283
18.42000 0.003
18.44000 2.856
18.46000 6.397
18.48000 9.704
18.50000 9.269
18.52000 4.567
18.54000 14.094
18.56000 8.723
18.58000 2.343
18.60000 3.578
18.62000 1.376
18.64000 0.603
18.66000 8.350
18.68000 9.890
18.70000 2.812
18.72000 0.427
18.74000 3.787
18.76000 6.668
18.78000 5.607
18.80000 8.419
18.82000 -1.361
18.84000 -3.403
18.86000 10.275
18.88000 15.029
18.90000 13.265
18.92000 8.734
18.94000 3.407
18.96000 5.210
18.98000 5.860
19.00000 5.189
19.02000 -0.806
19.04000 -2.871
19.06000 -0.585
19.08000 2.700
19.10000 5.487
19.12000 6.913
19.14000 8.352
19.16000 3.669
19.18000 2.380
19.20000 2.550
19.22000 6.485
19.24000 -0.457
19.26000 1.149
19.28000 6.996
19.30000 3.058
19.32000 -2.368
19.34000 7.456
19.36000 8.734
19.38000 5.975
19.40000 2.389
19.42000 3.353
19.44000 4.343
19.46000 4.619
19.48000 4.603
19.50000 6.525
19.52000 2.880
19.54000 3.882
19.56000 12.693
19.58000 8.957
19.60000 2.112
19.62000 -2.359
19.64000 0.164
19.66000 3.747
19.68000 4.143
19.70000 1.815
19.72000 2.521
19.74000 8.586
19.76000 6.300
19.78000 6.446
19.80000 7.326
19.82000 2.824
19.84000 0.420
19.86000 2.244
19.88000 0.253
19.90000 1.894
19.92000 9.937
19.94000 6.944
19.96000 -0.041
19.98000 3.288
20.00000 1.897
20.02000 0.564
20.04000 2.272
20.06000 5.524
20.08000 8.481
20.10000 8.849
20.12000 4.244
20.14000 0.207
20.16000 1.993
20.18000 0.509
20.20000 -1.167
20.22000 2.335
20.24000 4.213
20.26000 4.484
20.28000 5.567
20.30000 7.671
20.32000 7.934
20.34000 6.809
20.36000 8.867
20.38000 12.708
20.40000 9.640
20.42000 -4.172
20.44000 -0.412
20.46000 2.452
20.48000 4.765
20.50000 9.258
20.52000 11.074
20.54000 12.236
20.56000 6.995
20.58000 2.009
20.60000 5.193
20.62000 1.265
20.64000 2.192
20.66000 3.624
20.68000 2.639
20.70000 0.288
20.72000 4.919
20.74000 8.840
20.76000 6.505
20.78000 9.818
20.80000 9.687
20.82000 12.541
20.84000 3.078
20.86000 1.312
20.88000 -2.034
20.90000 2.806
20.92000 3.848
20.94000 7.464
20.96000 1.706
20.98000 6.904
21.00000 8.961
21.02000 10.756
21.04000 6.004
21.06000 9.611
21.08000 13.609
21.10000 8.140
21.12000 6.670
21.14000 5.153
21.16000 0.978
21.18000 3.273
21.20000 4.789
21.22000 4.537
21.24000 -1.683
21.26000 -4.116
21.28000 -3.175
21.30000 8.497
21.32000 8.961
21.34000 4.569
21.36000 6.618
21.38000 5.553
21.40000 5.002
21.42000 2.480
21.44000 1.180
21.46000 4.395
21.48000 4.237
21.50000 4.531
21.52000 7.278
21.54000 8.861
21.56000 9.846
21.58000 4.485
21.60000 -1.066
21.62000 5.098
21.64000 1.181
21.66000 9.135
21.68000 7.272
21.70000 -1.423
21.72000 3.482
21.74000 10.925
21.76000 9.477
21.78000 9.737
21.80000 15.044
21.82000 13.233
21.84000 9.825
21.86000 8.945
21.88000 6.670
21.90000 6.739
21.92000 2.456
21.94000 3.098
21.96000 9.786
21.98000 12.355
22.00000 9.506
22.02000 4.189
22.04000 5.062
22.06000 1.100
22.08000 0.203
22.10000 2.990
22.12000 5.765
22.14000 6.196
22.16000 4.221
22.18000 6.086
22.20000 7.884
22.22000 9.028
22.24000 10.786
22.26000 6.070
22.28000 1.343
22.30000 4.968
22.32000 1.273
22.34000 3.687
22.36000 0.541
22.38000 5.021
22.40000 9.156
22.42000 5.416
22.44000 7.484
22.46000 4.580
22.48000 5.582
22.50000 1.578
22.52000 4.855
22.54000 8.977
22.56000 10.226
22.58000 9.456
22.60000 5.902
22.62000 2.024
22.64000 4.386
22.66000 9.770
22.68000 11.204
22.70000 13.714
22.72000 10.841
22.74000 2.447
22.76000 2.856
22.78000 4.904
22.80000 0.124
22.82000 -1.046
22.84000 -4.014
22.86000 -4.026
22.88000 -1.930
22.90000 1.149
22.92000 4.974
22.94000 8.359
22.96000 6.940
22.98000 8.580
23.00000 10.911
23.02000 6.888
23.04000 1.711
23.06000 3.844
23.08000 3.597
23.10000 10.023
23.12000 10.739
23.14000 7.376
23.16000 3.711
23.18000 -1.497
23.20000 1.163
23.22000 3.712
23.24000 5.086
23.26000 6.244
23.28000 7.363
23.30000 7.842
23.32000 3.333
23.34000 1.992
23.36000 3.358
23.38000 5.828
23.40000 2.902
23.42000 4.790
23.44000 4.602
23.46000 3.069
23.48000 0.405
23.50000 3.883
23.52000 6.819
23.54000 0.173
23.56000 2.280
23.58000 3.482
23.60000 2.654
23.62000 6.207
23.64000 2.958
23.66000 6.480
23.68000 5.994
23.70000 1.542
23.72000 0.234
23.74000 3.254
23.76000 2.014
23.78000 2.654
23.80000 2.835
23.82000 1.719
23.84000 -0.145
23.86000 -0.510
23.88000 0.147
23.90000 3.361
23.92000 1.645
23.94000 2.252
23.96000 4.221
23.98000 4.834
24.00000 8.633
24.02000 11.165
24.04000 7.998
24.06000 2.176
24.08000 7.704
24.10000 5.140
24.12000 1.507
24.14000 -1.591
24.16000 0.325
24.18000 4.198
24.20000 3.714
24.22000 -0.649
24.24000 -3.945
24.26000 -1.067
24.28000 5.077
24.30000 5.116
24.32000 2.865
24.34000 11.633
24.36000 17.189
24.38000 11.372
24.40000 4.204
24.42000 4.760
24.44000 2.945
24.46000 -3.970
24.48000 -2.333
24.50000 0.957
24.52000 2.323
24.54000 -1.135
24.56000 2.138
24.58000 -0.872
24.60000 2.560
24.62000 3.670
24.64000 1.371
24.66000 -0.820
24.68000 -1.257
24.70000 -2.262
24.72000 -2.694
24.74000 -0.434
24.76000 5.149
24.78000 6.471
24.80000 3.170
24.82000 2.278
24.84000 3.908
24.86000 4.417
24.88000 1.284
24.90000 2.655
24.92000 0.035
24.94000 0.488
24.96000 -1.387
24.98000 1.008
25.00000 0.809
25.02000 0.034
25.04000 -2.648
25.06000 2.700
25.08000 3.265
25.10000 -1.194
25.12000 2.275
25.14000 1.220
25.16000 3.257
25.18000 -3.928
25.20000 1.094
25.22000 2.236
25.24000 4.756
25.26000 6.110
25.28000 3.032
25.30000 0.743
25.32000 3.039
25.34000 3.994
25.36000 1.017
25.38000 8.804
25.40000 6.315
25.42000 -2.384
25.44000 -0.166
25.46000 10.868
25.48000 13.392
25.50000 12.291
25.52000 8.305
25.54000 2.078
25.56000 4.751
25.58000 8.288
25.60000 4.788
25.62000 0.786
25.64000 0.342
25.66000 2.936
25.68000 3.476
25.70000 1.627
25.72000 2.763
25.74000 -2.091
25.76000 -3.887
25.78000 4.126
25.80000 3.419
25.82000 -1.462
25.84000 -0.994
25.86000 4.651
25.88000 7.221
25.90000 2.356
25.92000 4.112
25.94000 9.787
25.96000 4.998
25.98000 2.310
26.00000 4.668
26.02000 5.987
26.04000 -0.472
26.06000 -2.511
26.08000 2.467
26.10000 5.464
26.12000 1.911
26.14000 2.323
26.16000 3.587
26.18000 0.621
26.20000 1.182
26.22000 0.482
26.24000 3.690
26.26000 7.190
26.28000 7.135
26.30000 8.971
26.32000 6.524
26.34000 3.132
26.36000 2.893
26.38000 -0.003
26.40000 1.997
26.42000 4.849
26.44000 3.971
26.46000 2.031
26.48000 11.094
26.50000 4.929
26.52000 1.062
26.54000 3.627
26.56000 6.849
26.58000 3.989
26.60000 -0.847
26.62000 6.103
26.64000 9.711
26.66000 12.342
26.68000 8.578
26.70000 11.532
26.72000 6.166
26.74000 1.225
26.76000 3.326
26.78000 9.345
26.80000 7.703
26.82000 3.155
26.84000 -0.207
26.86000 1.827
26.88000 -1.553
26.90000 -3.810
26.92000 -0.015
26.94000 1.835
26.96000 6.388
26.98000 1.945
27.00000 9.426
27.02000 15.619
27.04000 12.629
27.06000 7.577
27.08000 4.502
27.10000 2.994
27.12000 1.907
27.14000 5.437
27.16000 6.078
27.18000 3.115
27.20000 -0.116
27.22000 2.758
27.24000 8.272
27.26000 6.889
27.28000 6.096
27.30000 5.027
27.32000 8.949
27.34000 2.929
27.36000 2.316
27.38000 -0.538
27.40000 1.174
27.42000 0.038
27.44000 -3.784
27.46000 3.419
27.48000 6.850
27.50000 2.517
27.52000 10.744
27.54000 5.577
27.56000 3.448
27.58000 2.280
27.60000 3.815
27.62000 -1.253
27.64000 0.355
27.66000 7.681
27.68000 6.170
27.70000 1.697
27.72000 -2.334
27.74000 2.478
27.76000 1.108
27.78000 1.811
27.80000 1.890
27.82000 6.312
27.84000 3.252
27.86000 0.635
27.88000 3.559
27.90000 3.166
27.92000 -2.300
27.94000 -1.289
27.96000 1.798
27.98000 2.313
28.00000 -0.449
28.02000 4.531
28.04000 7.510
28.06000 3.591
28.08000 0.921
28.10000 7.209
28.12000 4.954
28.14000 0.370
28.16000 -1.761
28.18000 4.044
28.20000 5.072
28.22000 0.551
28.24000 0.822
28.26000 5.956
28.28000 -0.371
28.30000 -3.745
28.32000 2.030
28.34000 1.118
28.36000 6.073
28.38000 8.537
28.40000 0.620
28.42000 4.047
28.44000 2.376
28.46000 -0.738
28.48000 -0.834
28.50000 1.571
28.52000 4.535
28.54000 4.159
28.56000 2.520
28.58000 -1.949
28.60000 -0.993
28.62000 -1.899
28.64000 8.506
28.66000 6.981
28.68000 1.395
28.70000 -1.281
28.72000 -0.620
28.74000 3.662
28.76000 4.609
28.78000 -2.585
28.80000 -1.949
28.82000 3.788
28.84000 3.336
28.86000 -0.554
28.88000 0.493
28.90000 6.192
28.92000 1.249
28.94000 5.205
28.96000 5.182
28.98000 7.793
29.00000 7.211
29.02000 2.611
29.04000 -2.470
29.06000 -0.287
29.08000 -0.652
29.10000 -1.357
29.12000 -0.875
29.14000 2.361
29.16000 -0.299
29.18000 -0.961
29.20000 -0.041
29.22000 -2.279
29.24000 -1.630
29.26000 7.886
29.28000 7.026
29.30000 5.183
29.32000 10.145
29.34000 7.390
29.36000 1.470
29.38000 0.643
29.40000 0.540
29.42000 -3.422
29.44000 -1.944
29.46000 2.766
29.48000 2.095
29.50000 -0.425
29.52000 -0.170
29.54000 4.618
29.56000 0.861
29.58000 1.995
29.60000 0.720
29.62000 1.348
29.64000 0.646
29.66000 0.680
29.68000 -3.695
29.70000 0.729
29.72000 0.363
29.74000 -2.726
29.76000 0.349
29.78000 2.409
29.80000 2.094
29.82000 -1.015
29.84000 1.290
29.86000 2.987
29.88000 8.326
29.90000 6.536
29.92000 3.186
29.94000 2.076
29.96000 1.013
29.98000 0.587
30.00000 2.028
30.02000 1.840
30.04000 -2.102
30.06000 -2.506
30.08000 -3.345
30.10000 0.257
30.12000 1.675
30.14000 4.074
30.16000 5.550
30.18000 3.923
30.20000 -0.321
30.22000 -0.951
30.24000 -2.902
30.26000 -3.150
30.28000 -1.236
30.30000 -0.311
30.32000 1.372
30.34000 0.438
30.36000 -1.258
30.38000 -1.792
30.40000 2.390
30.42000 3.928
30.44000 3.057
30.46000 5.760
30.48000 4.090
30.50000 2.092
30.52000 -0.450
30.54000 0.781
30.56000 -0.823
30.58000 -0.678
30.60000 -2.519
30.62000 -2.765
30.64000 2.281
30.66000 3.052
30.68000 3.523
30.70000 5.565
30.72000 2.680
30.74000 3.573
30.76000 3.137
30.78000 1.308
30.80000 0.062
30.82000 0.475
30.84000 1.982
30.86000 4.462
30.88000 5.450
30.90000 4.270
30.92000 0.010
30.94000 -3.634
30.96000 1.884
30.98000 2.730
31.00000 2.228
31.02000 5.323
31.04000 5.117
31.06000 4.452
31.08000 6.114
31.10000 2.234
31.12000 4.244
31.14000 1.784
31.16000 1.411
31.18000 2.473
31.20000 -0.019
31.22000 2.154
31.24000 2.934
31.26000 -0.997
31.28000 2.759
31.30000 2.674
31.32000 5.294
31.34000 6.987
31.36000 1.194
31.38000 1.655
31.40000 1.730
31.42000 2.405
31.44000 7.254
31.46000 9.430
31.48000 6.310
31.50000 4.732
31.52000 1.486
31.54000 8.293
31.56000 4.654
31.58000 3.914
31.60000 5.905
31.62000 3.190
31.64000 4.346
31.66000 7.067
31.68000 0.421
31.70000 1.168
31.72000 1.393
31.74000 4.306
31.76000 4.339
31.78000 3.209
31.80000 1.565
31.82000 -1.512
31.84000 5.786
31.86000 5.158
31.88000 3.997
31.90000 2.222
31.92000 4.181
31.94000 4.486
31.96000 1.996
31.98000 0.320
32.00000 6.399
32.02000 3.860
32.04000 -0.855
32.06000 4.196
32.08000 5.378
32.10000 7.286
32.12000 8.623
32.14000 8.806
32.16000 10.275
32.18000 9.965
32.20000 6.929
32.22000 -3.546
32.24000 -2.401
32.26000 -0.229
32.28000 4.095
32.30000 5.409
32.32000 3.524
32.34000 5.960
32.36000 6.066
32.38000 4.504
32.40000 3.228
32.42000 5.256
32.44000 2.926
32.46000 -0.244
32.48000 0.888
32.50000 0.780
32.52000 2.393
32.54000 3.774
32.56000 6.801
32.58000 3.010
32.60000 7.999
32.62000 9.661
32.64000 5.321
32.66000 3.548
32.68000 2.727
32.70000 7.921
32.72000 7.222
32.74000 5.195
32.76000 9.415
32.78000 6.685
32.80000 6.600
32.82000 -0.683
32.84000 -0.946
32.86000 -0.307
32.88000 0.777
32.90000 4.753
32.92000 3.427
32.94000 2.781
32.96000 3.308
32.98000 6.041
33.00000 1.843
33.02000 2.527
33.04000 4.182
33.06000 5.368
33.08000 3.314
33.10000 8.712
33.12000 4.027
33.14000 2.196
33.16000 0.951
33.18000 4.683
33.20000 6.146
33.22000 -0.046
33.24000 0.726
33.26000 7.892
33.28000 4.258
33.30000 1.634
33.32000 4.181
33.34000 3.449
33.36000 -3.525
33.38000 0.378
33.40000 6.131
33.42000 4.516
33.44000 2.636
33.46000 2.149
33.48000 1.839
33.50000 6.107
33.52000 2.201
33.54000 0.070
33.56000 0.609
33.58000 -0.999
33.60000 4.400
33.62000 4.003
33.64000 -1.836
33.66000 4.350
33.68000 3.724
33.70000 -0.460
33.72000 4.018
33.74000 4.234
33.76000 4.356
33.78000 12.068
33.80000 7.029
33.82000 3.348
33.84000 2.256
33.86000 3.259
33.88000 6.239
33.90000 6.814
33.92000 1.874
33.94000 1.850
33.96000 3.245
33.98000 3.084
34.00000 0.961
34.02000 3.988
34.04000 4.926
34.06000 1.664
34.08000 1.667
34.10000 2.686
34.12000 1.617
34.14000 -2.629
34.16000 -0.834
34.18000 2.091
34.20000 5.540
34.22000 3.435
34.24000 -1.365
34.26000 -1.677
34.28000 -0.030
34.30000 -0.361
34.32000 1.134
34.34000 -0.380
34.36000 2.159
34.38000 4.477
34.40000 2.629
34.42000 2.535
34.44000 0.865
34.46000 3.695
34.48000 4.662
34.50000 7.205
34.52000 1.682
34.54000 3.530
34.56000 2.942
34.58000 0.615
34.60000 5.172
34.62000 3.454
34.64000 0.089
34.66000 1.082
34.68000 1.906
34.70000 1.338
34.72000 -0.328
34.74000 -0.728
34.76000 1.576
34.78000 3.428
34.80000 2.911
34.82000 -1.444
34.84000 1.619
34.86000 3.182
34.88000 2.978
34.90000 0.460
34.92000 4.235
34.94000 4.561
34.96000 4.310
34.98000 0.738
35.00000 2.344
35.02000 3.046
35.04000 2.070
35.06000 -0.333
35.08000 -1.986
35.10000 -0.280
35.12000 2.809
35.14000 1.169
35.16000 3.519
35.18000 4.080
35.20000 1.218
35.22000 -0.688
35.24000 -2.563
35.26000 2.080
35.28000 2.010
35.30000 4.778
35.32000 2.666
35.34000 1.854
35.36000 3.904
35.38000 1.975
35.40000 -1.567
35.42000 -2.259
35.44000 0.023
35.46000 1.869
35.48000 0.233
35.50000 -2.226
35.52000 2.887
35.54000 3.046
35.56000 -3.477
35.58000 -1.285
35.60000 -0.431
35.62000 2.092
35.64000 6.578
35.66000 6.827
35.68000 -0.182
35.70000 -1.227
35.72000 -0.265
35.74000 1.265
35.76000 3.801
35.78000 0.539
35.80000 3.036
35.82000 0.566
35.84000 6.364
35.86000 4.014
35.88000 7.050
35.90000 11.179
35.92000 7.516
35.94000 7.408
35.96000 7.870
35.98000 7.751
36.00000 2.185
36.02000 4.525
36.04000 6.626
36.06000 5.497
36.08000 4.341
36.10000 3.040
36.12000 2.208
36.14000 0.341
36.16000 6.327
36.18000 7.570
36.20000 8.938
36.22000 5.953
36.24000 4.865
36.26000 1.576
36.28000 4.124
36.30000 3.397
36.32000 7.193
36.34000 4.621
36.36000 4.164
36.38000 5.081
36.40000 4.495
36.42000 0.740
36.44000 -0.595
36.46000 -3.465
36.48000 1.245
36.50000 6.006
36.52000 9.147
36.54000 7.264
36.56000 2.607
36.58000 0.370
36.60000 3.846
36.62000 5.938
36.64000 6.267
36.66000 2.111
36.68000 0.937
36.70000 -1.971
36.72000 0.900
36.74000 3.376
36.76000 -0.522
36.78000 0.250
36.80000 0.988
36.82000 3.216
36.84000 1.784
36.86000 0.347
36.88000 0.837
36.90000 6.444
36.92000 6.070
36.94000 1.750
36.96000 3.450
36.98000 1.980
37.00000 -3.507
37.02000 -0.890
37.04000 -1.816
37.06000 -2.127
37.08000 0.010
37.10000 5.259
37.12000 5.824
37.14000 8.182
37.16000 2.883
37.18000 1.345
37.20000 -2.320
37.22000 -1.408
37.24000 3.437
37.26000 5.388
37.28000 4.204
37.30000 4.242
37.32000 2.661
37.34000 -0.666
37.36000 0.637
37.38000 -3.187
37.40000 3.118
37.42000 4.134
37.44000 2.307
37.46000 0.392
37.48000 0.084
37.50000 -2.506
37.52000 -1.311
37.54000 -3.574
37.56000 -1.996
37.58000 4.126
37.60000 3.077
37.62000 0.499
37.64000 2.834
37.66000 5.181
37.68000 7.556
37.70000 5.010
37.72000 0.955
37.74000 -1.794
37.76000 -0.412
37.78000 6.146
37.80000 0.648
37.82000 -1.765
37.84000 2.558
37.86000 0.908
37.88000 3.198
37.90000 2.641
37.92000 -1.002
37.94000 -0.618
37.96000 8.486
37.98000 8.722
38.00000 1.813
38.02000 5.521
38.04000 9.154
38.06000 8.939
38.08000 10.993
38.10000 6.088
38.12000 4.036
38.14000 7.045
38.16000 9.648
38.18000 10.439
38.20000 9.875
38.22000 9.751
38.24000 9.643
38.26000 7.468
38.28000 5.642
38.30000 8.520
38.32000 7.556
38.34000 8.511
38.36000 10.341
38.38000 13.066
38.40000 13.074
38.42000 15.892
38.44000 14.732
38.46000 18.255
38.48000 18.856
38.50000 14.818
38.52000 17.318
38.54000 17.592
38.56000 15.844
38.58000 17.165
38.60000 16.373
38.62000 19.685
38.64000 19.125
38.66000 18.265
38.68000 15.490
38.70000 18.605
38.72000 18.235
38.74000 19.359
38.76000 23.351
38.78000 20.392
38.80000 20.713
38.82000 23.446
38.84000 25.976
38.86000 22.894
38.88000 24.798
38.90000 26.888
38.92000 29.716
38.94000 31.307
38.96000 30.047
38.98000 31.639
39.00000 29.382
39.02000 32.077
39.04000 32.916
39.06000 30.181
39.08000 33.687
39.10000 39.560
39.12000 42.996
39.14000 42.248
39.16000 44.814
39.18000 47.702
39.20000 49.715
39.22000 47.753
39.24000 53.214
39.26000 55.988
39.28000 62.285
39.30000 54.236
39.32000 54.487
39.34000 62.352
39.36000 68.990
39.38000 72.523
39.40000 76.298
39.42000 78.728
39.44000 79.095
39.46000 82.542
39.48000 87.217
39.50000 98.981
39.52000 103.738
39.54000 109.823
39.56000 112.481
39.58000 113.536
39.60000 121.946
39.62000 128.968
39.64000 130.998
39.66000 137.425
39.68000 149.784
39.70000 156.857
39.72000 161.214
39.74000 176.700
39.76000 187.033
39.78000 188.659
39.80000 198.055
39.82000 213.249
39.84000 220.253
39.86000 240.544
39.88000 247.031
39.90000 256.785
39.92000 277.951
39.94000 290.334
39.96000 299.849
39.98000 324.752
40.00000 334.327
40.02000 349.416
40.04000 372.741
40.06000 394.572
40.08000 407.690
40.10000 420.703
40.12000 434.187
40.14000 453.106
40.16000 473.073
40.18000 493.228
40.20000 493.227
40.22000 511.812
40.24000 537.206
40.26000 555.097
40.28000 567.073
40.30000 572.008
40.32000 572.708
40.34000 585.365
40.36000 596.537
40.38000 595.810
40.40000 601.887
40.42000 605.406
40.44000 620.996
40.46000 627.344
40.48000 612.658
40.50000 601.275
40.52000 595.451
40.54000 585.730
40.56000 562.424
40.58000 554.593
40.60000 559.672
40.62000 529.860
40.64000 512.778
40.66000 494.540
40.68000 485.691
40.70000 470.959
40.72000 446.528
40.74000 430.521
40.76000 416.495
40.78000 406.406
40.80000 381.787
40.82000 364.165
40.84000 349.924
40.86000 334.430
40.88000 314.017
40.90000 290.752
40.92000 283.054
40.94000 265.669
40.96000 249.907
40.98000 238.662
41.00000 224.542
41.02000 210.227
41.04000 196.824
41.06000 181.917
41.08000 176.337
41.10000 172.099
41.12000 171.047
41.14000 160.713
41.16000 147.700
41.18000 134.487
41.20000 127.583
41.22000 125.330
41.24000 116.078
41.26000 112.943
41.28000 102.113
41.30000 97.255
41.32000 95.341
41.34000 86.501
41.36000 77.637
41.38000 75.921
41.40000 73.180
41.42000 64.371
41.44000 65.614
41.46000 62.102
41.48000 57.013
41.50000 51.865
41.52000 51.168
41.54000 56.888
41.56000 57.293
41.58000 50.705
41.60000 44.074
41.62000 36.982
41.64000 41.513
41.66000 36.191
41.68000 32.167
41.70000 29.293
41.72000 31.630
41.74000 30.211
41.76000 31.447
41.78000 31.735
41.80000 26.225
41.82000 23.822
41.84000 22.949
41.86000 22.974
41.88000 20.609
41.90000 24.807
41.92000 23.447
41.94000 18.877
41.96000 11.820
41.98000 18.075
42.00000 22.189
42.02000 18.139
42.04000 11.472
42.06000 11.488
42.08000 11.283
42.10000 5.463
42.12000 9.587
42.14000 9.893
42.16000 15.274
42.18000 10.963
42.20000 10.364
42.22000 11.817
42.24000 12.021
42.26000 9.956
42.28000 10.767
42.30000 6.822
42.32000 6.421
42.34000 5.308
42.36000 5.237
42.38000 4.495
42.40000 7.674
42.42000 6.251
42.44000 4.500
42.46000 5.208
42.48000 -0.330
42.50000 1.086
42.52000 1.447
42.54000 0.615
42.56000 2.996
42.58000 3.198
42.60000 -0.998
42.62000 0.287
42.64000 4.236
42.66000 7.076
42.68000 6.250
42.70000 1.000
42.72000 3.147
42.74000 4.795
42.76000 -0.452
42.78000 -0.429
42.80000 2.474
42.82000 5.387
42.84000 0.123
42.86000 0.551
42.88000 4.373
42.90000 1.783
42.92000 0.479
42.94000 3.856
42.96000 6.005
42.98000 0.477
43.00000 -2.141
43.02000 -3.496
43.04000 4.463
43.06000 6.525
43.08000 2.682
43.10000 4.185
43.12000 5.089
43.14000 4.234
43.16000 1.940
43.18000 1.736
43.20000 3.469
43.22000 5.389
43.24000 3.233
43.26000 -2.114
43.28000 -3.455
43.30000 -0.469
43.32000 0.278
43.34000 2.286
43.36000 2.678
43.38000 1.188
43.40000 -2.424
43.42000 2.754
43.44000 3.886
43.46000 2.163
43.48000 -2.064
43.50000 0.287
43.52000 3.030
43.54000 6.124
43.56000 6.786
43.58000 3.602
43.60000 1.499
43.62000 3.256
43.64000 -1.502
43.66000 -3.405
43.68000 2.348
43.70000 7.199
43.72000 3.796
43.74000 1.828
43.76000 6.572
43.78000 2.182
43.80000 1.966
43.82000 5.357
43.84000 3.846
43.86000 3.047
43.88000 6.247
43.90000 3.474
43.92000 2.472
43.94000 1.665
43.96000 2.490
43.98000 6.452
44.00000 1.964
44.02000 2.761
44.04000 3.082
44.06000 4.799
44.08000 3.128
44.10000 2.426
44.12000 -3.390
44.14000 -2.003
44.16000 2.540
44.18000 1.002
44.20000 0.610
44.22000 2.970
44.24000 5.955
44.26000 6.078
44.28000 7.060
44.30000 3.678
44.32000 0.380
44.34000 -0.764
44.36000 2.316
44.38000 4.097
44.40000 -2.961
44.42000 -1.980
44.44000 3.211
44.46000 -3.283
44.48000 -3.166
44.50000 0.972
44.52000 3.877
44.54000 0.391
44.56000 -1.278
44.58000 0.308
44.60000 -0.463
44.62000 3.575
44.64000 5.754
44.66000 1.590
44.68000 -0.318
44.70000 3.259
44.72000 -2.804
44.74000 -0.693
44.76000 3.417
44.78000 1.229
44.80000 1.827
44.82000 1.229
44.84000 3.565
44.86000 2.800
44.88000 1.267
44.90000 -1.280
44.92000 0.653
44.94000 -2.731
44.96000 -1.562
44.98000 -0.088
45.00000 4.988
45.02000 5.233
45.04000 2.718
45.06000 1.425
45.08000 7.607
45.10000 3.660
45.12000 -1.199
45.14000 2.204
45.16000 4.165
45.18000 3.222
45.20000 0.186
45.22000 1.895
45.24000 5.468
45.26000 4.606
45.28000 1.290
45.30000 5.653
45.32000 6.711
45.34000 3.577
45.36000 4.162
45.38000 9.716
45.40000 8.169
45.42000 6.378
45.44000 8.268
45.46000 8.627
45.48000 14.549
45.50000 7.134
45.52000 8.754
45.54000 10.279
45.56000 7.856
45.58000 7.711
45.60000 7.408
45.62000 9.561
45.64000 15.589
45.66000 17.118
45.68000 18.049
45.70000 18.114
45.72000 12.601
45.74000 14.275
45.76000 18.991
45.78000 21.270
45.80000 17.039
45.82000 15.259
45.84000 17.345
45.86000 17.991
45.88000 19.261
45.90000 25.525
45.92000 22.867
45.94000 27.317
45.96000 22.379
45.98000 17.871
46.00000 23.143
46.02000 24.413
46.04000 33.769
46.06000 39.091
46.08000 37.403
46.10000 29.759
46.12000 30.514
46.14000 39.576
46.16000 39.258
46.18000 38.193
46.20000 39.384
46.22000 42.562
46.24000 39.215
46.26000 38.617
46.28000 43.698
46.30000 47.010
46.32000 47.768
46.34000 46.224
46.36000 52.034
46.38000 60.614
46.40000 58.224
46.42000 62.457
46.44000 58.901
46.46000 53.169
46.48000 54.921
46.50000 59.997
46.52000 63.348
46.54000 69.077
46.56000 67.304
46.58000 70.455
46.60000 78.719
46.62000 75.943
46.64000 75.898
46.66000 84.472
46.68000 82.807
46.70000 76.465
46.72000 81.033
46.74000 88.600
46.76000 87.734
46.78000 81.514
46.80000 80.782
46.82000 80.027
46.84000 84.846
46.86000 88.341
46.88000 89.612
46.90000 93.783
46.92000 91.438
46.94000 82.238
46.96000 83.626
46.98000 88.976
47.00000 95.318
47.02000 99.964
47.04000 91.676
47.06000 95.518
47.08000 103.019
47.10000 103.251
47.12000 97.653
47.14000 94.576
47.16000 92.754
47.18000 88.279
47.20000 87.863
47.22000 88.277
47.24000 91.776
47.26000 90.006
47.28000 94.704
47.30000 88.626
47.32000 88.903
47.34000 78.988
47.36000 83.687
47.38000 76.225
47.40000 69.801
47.42000 70.385
47.44000 60.685
47.46000 67.287
47.48000 71.082
47.50000 71.717
47.52000 66.803
47.54000 62.812
47.56000 62.815
47.58000 56.428
47.60000 54.902
47.62000 51.972
47.64000 52.048
47.66000 46.395
47.68000 41.410
47.70000 45.212
47.72000 50.361
47.74000 48.809
47.76000 45.933
47.78000 39.851
47.80000 32.762
47.82000 31.565
47.84000 31.811
47.86000 35.345
47.88000 29.716
47.90000 29.235
47.92000 27.734
47.94000 25.161
47.96000 24.769
47.98000 26.059
48.00000 30.578
48.02000 27.142
48.04000 23.692
48.06000 19.336
48.08000 18.561
48.10000 16.687
48.12000 13.586
48.14000 13.860
48.16000 16.991
48.18000 16.181
48.20000 14.963
48.22000 16.172
48.24000 10.987
48.26000 13.248
48.28000 19.026
48.30000 15.057
48.32000 12.463
48.34000 10.404
48.36000 6.098
48.38000 0.467
48.40000 2.972
48.42000 7.738
48.44000 6.606
48.46000 4.135
48.48000 8.491
48.50000 9.208
48.52000 6.789
48.54000 6.086
48.56000 1.936
48.58000 0.432
48.60000 3.818
48.62000 4.960
48.64000 5.665
48.66000 5.273
48.68000 4.960
48.70000 2.046
48.72000 4.009
48.74000 1.689
48.76000 -1.513
48.78000 -0.793
48.80000 4.068
48.82000 -1.886
48.84000 -0.940
48.86000 6.149
48.88000 4.938
48.90000 4.708
48.92000 3.118
48.94000 0.268
48.96000 3.248
48.98000 -0.996
49.00000 -3.072
49.02000 -0.178
49.04000 2.044
49.06000 4.181
49.08000 2.505
49.10000 2.466
49.12000 -0.566
49.14000 -3.047
49.16000 7.869
49.18000 9.018
49.20000 3.545
49.22000 -0.222
49.24000 0.979
49.26000 2.917
49.28000 3.438
49.30000 -0.311
49.32000 2.883
49.34000 1.878
49.36000 2.622
49.38000 1.963
49.40000 -1.360
49.42000 -1.711
49.44000 -2.993
49.46000 -2.072
49.48000 3.927
49.50000 3.836
49.52000 2.093
49.54000 3.656
49.56000 4.797
49.58000 3.735
49.60000 4.193
49.62000 4.039
49.64000 4.065
49.66000 0.570
49.68000 -0.066
49.70000 2.246
49.72000 3.600
49.74000 0.094
49.76000 -1.190
49.78000 -0.626
49.80000 2.732
49.82000 3.413
49.84000 1.705
49.86000 -1.680
49.88000 0.667
49.90000 -1.279
49.92000 -2.823
49.94000 3.687
49.96000 2.189
49.98000 -1.503
50.00000 0.344
50.02000 1.887
50.04000 2.935
50.06000 3.519
50.08000 3.070
50.10000 5.200
50.12000 0.519
50.14000 1.179
50.16000 0.637
50.18000 -2.906
50.20000 -2.057
50.22000 0.905
50.24000 4.184
50.26000 3.275
50.28000 -0.934
50.30000 3.527
50.32000 4.577
50.34000 2.305
50.36000 -0.028
50.38000 1.120
50.40000 4.159
50.42000 -1.520
50.44000 -2.383
50.46000 0.847
50.48000 5.014
50.50000 5.916
50.52000 4.699
50.54000 5.330
50.56000 4.686
50.58000 1.755
50.60000 2.069
50.62000 2.322
50.64000 3.696
50.66000 8.453
50.68000 3.727
50.70000 -0.552
50.72000 3.071
50.74000 -0.676
50.76000 -2.836
50.78000 3.335
50.80000 3.527
50.82000 3.776
50.84000 3.895
50.86000 2.018
50.88000 4.367
50.90000 0.731
50.92000 1.627
50.94000 6.270
50.96000 10.504
50.98000 4.799
51.00000 3.290
51.02000 1.624
51.04000 5.011
51.06000 7.135
51.08000 8.211
51.10000 5.981
51.12000 3.544
51.14000 1.060
51.16000 -1.433
51.18000 2.830
51.20000 5.858
51.22000 8.244
51.24000 3.573
51.26000 2.194
51.28000 4.635
51.30000 8.921
51.32000 1.703
51.34000 -0.377
51.36000 3.275
51.38000 2.028
51.40000 10.637
51.42000 13.111
51.44000 10.012
51.46000 9.481
51.48000 7.245
51.50000 4.591
51.52000 8.076
51.54000 6.012
51.56000 5.466
51.58000 3.142
51.60000 -0.195
51.62000 -2.768
51.64000 5.700
51.66000 14.070
51.68000 11.998
51.70000 5.870
51.72000 4.349
51.74000 5.996
51.76000 3.692
51.78000 -1.238
51.80000 4.868
51.82000 11.161
51.84000 4.573
51.86000 3.594
51.88000 4.944
51.90000 0.559
51.92000 0.713
51.94000 4.419
51.96000 9.296
51.98000 6.965
52.00000 5.896
52.02000 5.672
52.04000 2.956
52.06000 1.550
52.08000 0.836
52.10000 3.936
52.12000 2.780
52.14000 -2.024
52.16000 3.885
52.18000 2.846
52.20000 -0.048
52.22000 -1.021
52.24000 1.324
52.26000 0.536
52.28000 1.736
52.30000 1.806
52.32000 1.408
52.34000 3.278
52.36000 -0.403
52.38000 1.725
52.40000 7.066
52.42000 6.913
52.44000 4.332
52.46000 1.154
52.48000 -2.070
52.50000 -1.802
52.52000 0.144
52.54000 -0.159
52.56000 4.570
52.58000 6.159
52.60000 1.183
52.62000 2.480
52.64000 4.390
52.66000 3.554
52.68000 1.385
52.70000 3.431
52.72000 2.265
52.74000 5.575
52.76000 6.128
52.78000 9.126
52.80000 5.931
52.82000 2.534
52.84000 -0.624
52.86000 1.520
52.88000 3.482
52.90000 0.386
52.92000 1.690
52.94000 4.746
52.96000 2.330
52.98000 3.457
53.00000 4.250
53.02000 -2.777
53.04000 1.292
53.06000 2.045
53.08000 4.318
53.10000 6.699
53.12000 5.747
53.14000 3.138
53.16000 4.521
53.18000 6.405
53.20000 0.989
53.22000 6.508
53.24000 6.725
53.26000 4.111
53.28000 1.012
53.30000 1.829
53.32000 -1.442
53.34000 1.887
53.36000 3.070
53.38000 1.805
53.40000 2.605
53.42000 -0.882
53.44000 -0.806
53.46000 1.864
53.48000 5.633
53.50000 5.305
53.52000 2.243
53.54000 0.400
53.56000 3.485
53.58000 5.684
53.60000 5.448
53.62000 3.379
53.64000 3.037
53.66000 4.876
53.68000 4.914
53.70000 1.939
53.72000 -1.133
53.74000 -2.736
53.76000 4.287
53.78000 7.925
53.80000 7.731
53.82000 5.370
53.84000 0.858
53.86000 -0.230
53.88000 -0.862
53.90000 1.663
53.92000 7.710
53.94000 7.596
53.96000 4.169
53.98000 3.820
54.00000 7.511
54.02000 0.879
54.04000 -1.950
54.06000 1.520
54.08000 2.655
54.10000 4.814
54.12000 6.617
54.14000 4.124
54.16000 0.254
54.18000 0.615
54.20000 6.450
54.22000 3.066
54.24000 6.858
54.26000 7.054
54.28000 8.179
54.30000 2.324
54.32000 -2.731
54.34000 1.283
54.36000 1.680
54.38000 -1.794
54.40000 1.371
54.42000 0.316
54.44000 2.995
54.46000 2.430
54.48000 2.576
54.50000 -0.045
54.52000 0.326
54.54000 2.634
54.56000 6.257
54.58000 1.429
54.60000 -0.274
54.62000 5.080
54.64000 3.343
54.66000 -0.960
54.68000 -2.725
54.70000 5.158
54.72000 4.749
54.74000 2.060
54.76000 4.496
54.78000 8.737
54.80000 5.455
54.82000 4.458
54.84000 4.712
54.86000 7.522
54.88000 5.444
54.90000 -0.998
54.92000 2.074
54.94000 1.138
54.96000 1.851
54.98000 1.826
55.00000 2.669
55.02000 4.813
55.04000 7.000
55.06000 6.274
55.08000 4.289
55.10000 -2.715
55.12000 -0.376
55.14000 2.880
55.16000 4.035
55.18000 6.351
55.20000 2.012
55.22000 3.537
55.24000 7.172
55.26000 7.083
55.28000 9.212
55.30000 6.501
55.32000 4.693
55.34000 3.240
55.36000 6.283
55.38000 9.085
55.40000 3.890
55.42000 2.671
55.44000 6.307
55.46000 5.255
55.48000 7.645
55.50000 2.711
55.52000 2.347
55.54000 4.072
55.56000 4.279
55.58000 2.558
55.60000 2.416
55.62000 0.230
55.64000 0.300
55.66000 1.565
55.68000 5.749
55.70000 3.010
55.72000 2.522
55.74000 6.316
55.76000 7.167
55.78000 2.397
55.80000 -0.878
55.82000 1.786
55.84000 8.020
55.86000 5.789
55.88000 1.808
55.90000 5.413
55.92000 7.820
55.94000 1.529
55.96000 4.271
55.98000 3.059
56.00000 -0.219
56.02000 0.999
56.04000 1.530
56.06000 5.099
56.08000 6.810
56.10000 6.095
56.12000 3.347
56.14000 1.890
56.16000 1.075
56.18000 -2.655
56.20000 0.604
56.22000 4.746
56.24000 2.462
56.26000 5.712
56.28000 6.985
56.30000 8.271
56.32000 6.232
56.34000 2.690
56.36000 -0.740
56.38000 2.842
56.40000 2.451
56.42000 2.649
56.44000 -0.318
56.46000 0.191
56.48000 0.676
56.50000 2.180
56.52000 3.646
56.54000 4.239
56.56000 4.788
56.58000 4.743
56.60000 -0.610
56.62000 -0.347
56.64000 3.198
56.66000 6.534
56.68000 9.164
56.70000 6.514
56.72000 2.684
56.74000 -2.647
56.76000 4.980
56.78000 5.059
56.80000 3.277
56.82000 -0.580
56.84000 3.203
56.86000 8.574
56.88000 7.498
56.90000 1.886
56.92000 9.215
56.94000 4.100
56.96000 -0.971
56.98000 2.163
57.00000 3.584
57.02000 3.968
57.04000 -0.181
57.06000 1.268
57.08000 3.029
57.10000 4.197
57.12000 3.267
57.14000 2.266
57.16000 8.122
57.18000 4.756
57.20000 -1.037
57.22000 -0.349
57.24000 0.311
57.26000 1.753
57.28000 1.033
57.30000 1.344
57.32000 3.355
57.34000 3.130
57.36000 7.614
57.38000 6.183
57.40000 2.927
57.42000 3.737
57.44000 3.055
57.46000 8.119
57.48000 5.586
57.50000 3.579
57.52000 -0.639
57.54000 -2.612
57.56000 8.621
57.58000 12.549
57.60000 7.010
57.62000 3.120
57.64000 0.789
57.66000 3.017
57.68000 1.038
57.70000 2.639
57.72000 5.626
57.74000 6.207
57.76000 4.870
57.78000 6.502
57.80000 5.559
57.82000 0.519
57.84000 2.102
57.86000 5.007
57.88000 3.888
57.90000 4.243
57.92000 4.123
57.94000 5.768
57.96000 4.506
57.98000 2.534
58.00000 1.696
58.02000 6.730
58.04000 4.126
58.06000 4.792
58.08000 4.848
58.10000 3.906
58.12000 5.463
58.14000 5.661
58.16000 1.244
58.18000 4.045
58.20000 8.906
58.22000 5.760
58.24000 4.313
58.26000 3.982
58.28000 3.878
58.30000 4.365
58.32000 5.035
58.34000 8.242
58.36000 4.743
58.38000 1.950
58.40000 1.906
58.42000 4.844
58.44000 1.519
58.46000 0.484
58.48000 1.002
58.50000 5.639
58.52000 5.178
58.54000 3.968
58.56000 -0.613
58.58000 -2.578
58.60000 3.868
58.62000 3.837
58.64000 0.057
58.66000 1.025
58.68000 2.259
58.70000 6.777
58.72000 4.870
58.74000 4.758
58.76000 6.056
58.78000 3.573
58.80000 3.165
58.82000 2.714
58.84000 2.900
58.86000 7.253
58.88000 7.752
58.90000 6.069
58.92000 3.105
58.94000 1.555
58.96000 1.442
58.98000 2.553
59.00000 2.483
59.02000 1.590
59.04000 1.745
59.06000 0.277
59.08000 0.999
59.10000 1.805
59.12000 8.156
59.14000 8.435
59.16000 5.317
59.18000 2.301
59.20000 2.941
59.22000 2.224
59.24000 2.730
59.26000 5.181
59.28000 5.106
59.30000 4.437
59.32000 2.620
59.34000 -2.554
59.36000 1.302
59.38000 -1.057
59.40000 2.068
59.42000 5.195
59.44000 4.520
59.46000 5.028
59.48000 4.152
59.50000 2.896
59.52000 2.579
59.54000 3.623
59.56000 1.316
59.58000 3.433
59.60000 -0.288
59.62000 1.786
59.64000 5.270
59.66000 4.775
59.68000 6.211
59.70000 6.826
59.72000 3.380
59.74000 1.973
59.76000 3.796
59.78000 5.547
59.80000 4.038
59.82000 -1.557
59.84000 0.821
59.86000 2.325
59.88000 2.547
59.90000 -0.053
59.92000 1.569
59.94000 7.184
59.96000 4.762
59.98000 2.444
60.00000 5.516
60.02000 3.721
60.04000 1.085
60.06000 2.013
60.08000 3.024
60.10000 2.473
60.12000 3.228
60.14000 3.098
60.16000 3.752
60.18000 2.363
60.20000 2.377
60.22000 -0.530
60.24000 1.921
60.26000 -0.504
60.28000 -1.441
60.30000 1.977
60.32000 3.395
60.34000 5.010
60.36000 5.959
60.38000 4.883
60.40000 7.944
60.42000 8.360
60.44000 5.185
60.46000 5.093
60.48000 5.320
60.50000 0.859
60.52000 -0.413
60.54000 -0.395
60.56000 0.400
60.58000 1.003
60.60000 3.858
60.62000 1.006
60.64000 2.310
60.66000 4.105
60.68000 5.900
60.70000 6.232
60.72000 2.530
60.74000 2.051
60.76000 0.511
60.78000 2.392
60.80000 4.806
60.82000 5.028
60.84000 4.984
60.86000 3.926
60.88000 -0.187
60.90000 2.895
60.92000 2.373
60.94000 2.231
60.96000 0.427
60.98000 0.223
61.00000 1.570
61.02000 5.586
61.04000 4.382
61.06000 3.781
61.08000 0.817
61.10000 -0.919
61.12000 -2.267
61.14000 5.122
61.16000 2.786
61.18000 1.875
61.20000 3.009
61.22000 3.443
61.24000 0.955
61.26000 -2.478
61.28000 -1.132
61.30000 1.608
61.32000 1.548
61.34000 2.421
61.36000 5.887
61.38000 5.166
61.40000 4.847
61.42000 1.249
61.44000 5.388
61.46000 5.900
61.48000 6.008
61.50000 3.686
61.52000 4.536
61.54000 6.510
61.56000 3.347
61.58000 1.724
61.60000 3.593
61.62000 0.514
61.64000 -2.480
61.66000 2.699
61.68000 3.673
61.70000 3.083
61.72000 1.432
61.74000 2.732
61.76000 3.021
61.78000 4.101
61.80000 3.693
61.82000 4.346
61.84000 6.152
61.86000 4.575
61.88000 4.928
61.90000 4.008
61.92000 2.998
61.94000 2.093
61.96000 4.145
61.98000 2.169
62.00000 3.925
62.02000 5.898
62.04000 3.546
62.06000 5.049
62.08000 2.993
62.10000 4.544
62.12000 3.823
62.14000 6.110
62.16000 1.567
62.18000 -2.482
62.20000 -2.201
62.22000 -0.548
62.24000 -0.765
62.26000 1.876
62.28000 7.258
62.30000 2.021
62.32000 1.927
62.34000 3.752
62.36000 2.306
62.38000 1.045
62.40000 2.295
62.42000 -0.807
62.44000 0.379
62.46000 2.586
62.48000 0.947
62.50000 3.856
62.52000 1.241
62.54000 -1.695
62.56000 -0.530
62.58000 -0.437
62.60000 -1.072
62.62000 0.941
62.64000 1.838
62.66000 2.062
62.68000 1.933
62.70000 1.366
62.72000 -0.564
62.74000 1.562
62.76000 3.720
62.78000 3.534
62.80000 2.406
62.82000 1.064
62.84000 -0.365
62.86000 -1.085
62.88000 2.350
62.90000 -0.372
62.92000 -1.323
62.94000 1.306
62.96000 1.806
62.98000 2.148
63.00000 5.272
63.02000 2.567
63.04000 1.783
63.06000 2.203
63.08000 3.430
63.10000 3.426
63.12000 3.678
63.14000 1.338
63.16000 -1.820
63.18000 0.100
63.20000 1.764
63.22000 3.676
63.24000 1.805
63.26000 4.862
63.28000 -2.499
63.30000 0.009
63.32000 1.554
63.34000 3.820
63.36000 2.953
63.38000 0.739
63.40000 -0.652
63.42000 -2.495
63.44000 -0.254
63.46000 -0.032
63.48000 -1.693
63.50000 -2.153
63.52000 -0.372
63.54000 1.043
63.56000 3.899
63.58000 3.424
63.60000 -0.180
63.62000 -0.173
63.64000 6.256
63.66000 5.657
63.68000 4.813
63.70000 2.124
63.72000 -0.671
63.74000 -1.282
63.76000 1.914
63.78000 -0.808
63.80000 -2.504
63.82000 1.462
63.84000 6.780
63.86000 4.517
63.88000 0.168
63.90000 -0.196
63.92000 -1.775
63.94000 -0.046
63.96000 -1.352
63.98000 -2.230
64.00000 -0.225
64.02000 3.037
64.04000 0.402
64.06000 -1.126
64.08000 -0.761
64.10000 -2.507
64.12000 -1.115
64.14000 0.170
64.16000 -1.270
64.18000 0.734
64.20000 5.405
64.22000 6.599
64.24000 2.569
64.26000 0.799
64.28000 -0.935
64.30000 0.055
64.32000 -2.357
64.34000 -0.279
64.36000 0.556
64.38000 -2.505
64.40000 -0.657
64.42000 2.011
64.44000 1.086
64.46000 0.410
64.48000 5.242
64.50000 1.842
64.52000 2.864
64.54000 2.155
64.56000 3.332
64.58000 2.142
64.60000 0.178
64.62000 3.001
64.64000 -1.063
64.66000 -1.578
64.68000 0.682
64.70000 0.352
64.72000 -2.310
64.74000 2.627
64.76000 4.964
64.78000 4.893
64.80000 1.841
64.82000 5.197
64.84000 4.749
64.86000 3.110
64.88000 1.484
64.90000 1.903
64.92000 2.631
64.94000 3.557
64.96000 -0.429
64.98000 -1.262
65.00000 2.634
65.02000 1.653
65.04000 0.099
65.06000 -0.569
65.08000 3.383
65.10000 1.787
65.12000 0.752
65.14000 3.723
65.16000 3.192
65.18000 -1.041
65.20000 -0.844
65.22000 -1.225
65.24000 -0.308
65.26000 0.217
65.28000 -0.118
65.30000 1.566
65.32000 0.187
65.34000 1.799
65.36000 3.775
65.38000 0.357
65.40000 0.712
65.42000 -0.417
65.44000 0.850
65.46000 -2.505
65.48000 -0.778
65.50000 2.069
65.52000 1.638
65.54000 -0.155
65.56000 -1.003
65.58000 3.833
65.60000 2.993
65.62000 0.808
65.64000 -0.449
65.66000 2.905
65.68000 2.367
65.70000 0.880
65.72000 3.097
65.74000 4.594
65.76000 5.525
65.78000 1.770
65.80000 0.205
65.82000 4.039
65.84000 5.905
65.86000 4.748
65.88000 2.108
65.90000 5.524
65.92000 2.789
65.94000 1.799
65.96000 2.543
65.98000 4.321
66.00000 7.494
66.02000 2.820
66.04000 0.858
66.06000 0.393
66.08000 -0.053
66.10000 3.648
66.12000 4.717
66.14000 2.203
66.16000 3.236
66.18000 0.626
66.20000 -0.233
66.22000 -2.133
66.24000 -2.498
66.26000 2.190
66.28000 2.240
66.30000 5.559
66.32000 5.599
66.34000 2.600
66.36000 -0.172
66.38000 3.867
66.40000 0.404
66.42000 -2.309
66.44000 0.250
66.46000 0.456
66.48000 -0.279
66.50000 0.499
66.52000 -1.434
66.54000 -1.320
66.56000 3.099
66.58000 6.933
66.60000 3.983
66.62000 3.508
66.64000 2.101
66.66000 2.083
66.68000 1.045
66.70000 5.214
66.72000 3.872
66.74000 3.020
66.76000 1.980
66.78000 1.878
66.80000 2.604
66.82000 2.453
66.84000 -0.491
66.86000 -0.339
66.88000 5.196
66.90000 6.108
66.92000 5.674
66.94000 2.996
66.96000 -2.528
66.98000 0.935
67.00000 -0.523
67.02000 -2.532
67.04000 1.498
67.06000 3.759
67.08000 4.362
67.10000 4.250
67.12000 3.380
67.14000 2.933
67.16000 2.470
67.18000 1.811
67.20000 3.008
67.22000 5.646
67.24000 4.614
67.26000 5.405
67.28000 3.689
67.30000 2.052
67.32000 2.246
67.34000 0.062
67.36000 0.732
67.38000 1.991
67.40000 4.268
67.42000 6.778
67.44000 5.836
67.46000 6.306
67.48000 6.622
67.50000 7.492
67.52000 7.408
67.54000 3.421
67.56000 3.831
67.58000 9.376
67.60000 7.497
67.62000 3.303
67.64000 4.543
67.66000 5.019
67.68000 1.232
67.70000 5.814
67.72000 9.605
67.74000 7.419
67.76000 10.661
67.78000 6.600
67.80000 5.698
67.82000 8.406
67.84000 13.303
67.86000 12.379
67.88000 9.939
67.90000 7.709
67.92000 8.367
67.94000 9.521
67.96000 13.173
67.98000 12.983
68.00000 13.113
68.02000 11.343
68.04000 10.781
68.06000 10.195
68.08000 9.755
68.10000 11.949
68.12000 13.870
68.14000 12.618
68.16000 17.846
68.18000 17.458
68.20000 14.324
68.22000 16.410
68.24000 16.678
68.26000 14.276
68.28000 12.484
68.30000 15.066
68.32000 13.339
68.34000 17.963
68.36000 21.758
68.38000 18.350
68.40000 18.448
68.42000 17.168
68.44000 16.164
68.46000 13.634
68.48000 19.472
68.50000 21.393
68.52000 17.776
68.54000 11.664
68.56000 13.898
68.58000 19.499
68.60000 22.983
68.62000 22.424
68.64000 19.524
68.66000 21.860
68.68000 20.812
68.70000 20.428
68.72000 20.510
68.74000 20.451
68.76000 20.021
68.78000 19.421
68.80000 18.036
68.82000 19.267
68.84000 16.757
68.86000 15.205
68.88000 14.916
68.90000 16.998
68.92000 20.756
68.94000 17.315
68.96000 12.945
68.98000 9.119
69.00000 10.942
69.02000 11.832
69.04000 13.322
69.06000 14.199
69.08000 16.346
69.10000 14.076
69.12000 12.439
69.14000 9.690
69.16000 8.058
69.18000 10.824
69.20000 14.049
69.22000 11.123
69.24000 7.226
69.26000 5.527
69.28000 5.438
69.30000 7.177
69.32000 12.411
69.34000 12.390
69.36000 10.762
69.38000 9.634
69.40000 6.115
69.42000 7.027
69.44000 9.096
69.46000 6.742
69.48000 5.647
69.50000 4.929
69.52000 7.988
69.54000 7.088
69.56000 5.585
69.58000 4.585
69.60000 7.761
69.62000 8.269
69.64000 8.686
69.66000 5.771
69.68000 1.231
69.70000 5.432
69.72000 6.692
69.74000 4.431
69.76000 3.061
69.78000 2.495
69.80000 3.959
69.82000 6.221
69.84000 1.206
69.86000 -1.333
69.88000 -1.054
69.90000 -1.326
69.92000 0.401
69.94000 1.328
69.96000 5.996
69.98000 4.000
70.00000 0.546
70.02000 3.400
70.04000 5.974
70.06000 6.172
70.08000 3.830
70.10000 1.604
70.12000 -0.339
70.14000 -2.493
70.16000 0.534
70.18000 0.532
70.20000 -0.304
70.22000 1.451
70.24000 1.824
70.26000 1.093
70.28000 2.632
70.30000 -0.034
70.32000 0.549
70.34000 5.595
70.36000 6.687
70.38000 2.196
70.40000 1.518
70.42000 -0.363
70.44000 5.498
70.46000 6.047
70.48000 5.079
70.50000 2.909
70.52000 1.495
70.54000 4.807
70.56000 4.468
70.58000 -0.886
70.60000 -2.422
70.62000 3.259
70.64000 5.737
70.66000 2.624
70.68000 2.500
70.70000 2.754
70.72000 1.576
70.74000 -0.420
70.76000 1.481
70.78000 2.391
70.80000 1.544
70.82000 3.403
70.84000 3.002
70.86000 2.782
70.88000 2.616
70.90000 1.079
70.92000 1.052
70.94000 -0.741
70.96000 -2.389
70.98000 -1.848
71.00000 1.719
71.02000 2.001
71.04000 3.380
71.06000 6.527
71.08000 0.739
71.10000 -1.273
71.12000 -2.378
71.14000 -1.650
71.16000 0.598
71.18000 2.461
71.20000 5.001
71.22000 8.196
71.24000 2.678
71.26000 3.566
71.28000 7.803
71.30000 3.587
71.32000 3.080
71.34000 1.064
71.36000 3.808
71.38000 1.332
71.40000 2.620
71.42000 3.640
71.44000 3.101
71.46000 9.217
71.48000 8.384
71.50000 4.682
71.52000 0.914
71.54000 1.974
71.56000 3.633
71.58000 3.666
71.60000 6.334
71.62000 6.917
71.64000 1.477
71.66000 7.649
71.68000 7.353
71.70000 5.214
71.72000 4.974
71.74000 8.569
71.76000 6.799
71.78000 5.307
71.80000 6.247
71.82000 5.042
71.84000 -2.328
71.86000 -1.488
71.88000 1.607
71.90000 1.325
71.92000 1.697
71.94000 2.056
71.96000 1.726
71.98000 5.286
72.00000 3.000
72.02000 3.764
72.04000 3.635
72.06000 3.289
72.08000 2.004
72.10000 2.025
72.12000 3.185
72.14000 0.402
72.16000 6.883
72.18000 3.604
72.20000 3.439
72.22000 1.959
72.24000 7.090
72.26000 7.779
72.28000 5.577
72.30000 1.980
72.32000 2.192
72.34000 3.945
72.36000 3.171
72.38000 5.979
72.40000 7.024
72.42000 7.032
72.44000 -0.453
72.46000 -1.882
72.48000 -0.615
72.50000 3.106
72.52000 5.647
72.54000 3.025
72.56000 4.415
72.58000 5.811
72.60000 -0.166
72.62000 0.952
72.64000 0.386
72.66000 0.374
72.68000 5.187
72.70000 2.734
72.72000 -1.799
72.74000 -0.939
72.76000 2.451
72.78000 2.175
72.80000 2.233
72.82000 1.008
72.84000 3.406
72.86000 4.063
72.88000 2.762
72.90000 3.684
72.92000 -0.196
72.94000 3.664
72.96000 3.264
72.98000 3.633
73.00000 4.942
73.02000 3.544
73.04000 5.142
73.06000 1.439
73.08000 2.628
73.10000 5.277
73.12000 6.369
73.14000 7.082
73.16000 6.905
73.18000 7.890
73.20000 3.618
73.22000 -0.182
73.24000 0.590
73.26000 5.674
73.28000 3.776
73.30000 3.584
73.32000 3.988
73.34000 4.189
73.36000 7.290
73.38000 5.016
73.40000 -2.263
73.42000 3.777
73.44000 6.694
73.46000 2.336
73.48000 1.009
73.50000 3.801
73.52000 5.423
73.54000 4.515
73.56000 3.824
73.58000 4.982
73.60000 8.099
73.62000 6.583
73.64000 6.965
73.66000 7.422
73.68000 4.086
73.70000 5.048
73.72000 4.359
73.74000 3.892
73.76000 4.204
73.78000 4.100
73.80000 2.483
73.82000 1.919
73.84000 3.869
73.86000 6.873
73.88000 2.001
73.90000 3.392
73.92000 3.964
73.94000 -0.784
73.96000 1.968
73.98000 0.648
74.00000 4.533
74.02000 7.022
74.04000 9.917
74.06000 5.620
74.08000 6.023
74.10000 1.980
74.12000 5.314
74.14000 4.440
74.16000 5.050
74.18000 -0.212
74.20000 3.331
74.22000 5.715
74.24000 3.529
74.26000 2.754
74.28000 -1.763
74.30000 -2.296
74.32000 3.278
74.34000 6.283
74.36000 3.139
74.38000 2.635
74.40000 -2.298
74.42000 -0.522
74.44000 4.779
74.46000 0.119
74.48000 1.999
74.50000 4.647
74.52000 4.002
74.54000 -0.161
74.56000 0.200
74.58000 3.257
74.60000 4.540
74.62000 -0.600
74.64000 4.307
74.66000 5.943
74.68000 7.504
74.70000 4.908
74.72000 6.548
74.74000 5.491
74.76000 6.333
74.78000 4.481
74.80000 5.067
74.82000 1.331
74.84000 2.506
74.86000 -0.172
74.88000 0.365
74.90000 1.115
74.92000 1.888
74.94000 3.702
74.96000 3.726
74.98000 2.316
75.00000 3.476
75.02000 5.633
75.04000 0.211
75.06000 0.821
75.08000 1.896
75.10000 3.594
75.12000 3.917
75.14000 6.759
75.16000 3.633
75.18000 1.487
75.20000 -2.102
75.22000 1.952
75.24000 4.012
75.26000 -1.150
75.28000 1.455
75.30000 1.098
75.32000 0.283
75.34000 3.355
75.36000 3.745
75.38000 1.665
75.40000 7.132
75.42000 2.366
75.44000 1.144
75.46000 4.143
75.48000 2.493
75.50000 1.145
75.52000 -1.386
75.54000 1.961
75.56000 4.635
75.58000 7.657
75.60000 5.547
75.62000 0.644
75.64000 -2.320
75.66000 1.002
75.68000 1.856
75.70000 1.056
75.72000 2.782
75.74000 -0.475
75.76000 1.365
75.78000 4.458
75.80000 1.678
75.82000 6.534
75.84000 1.107
75.86000 -1.446
75.88000 -1.975
75.90000 0.589
75.92000 6.080
75.94000 5.285
75.96000 3.160
75.98000 3.546
76.00000 7.423
76.02000 2.901
76.04000 -0.585
76.06000 0.583
76.08000 2.246
76.10000 3.412
76.12000 5.029
76.14000 1.866
76.16000 1.167
76.18000 2.868
76.20000 4.533
76.22000 6.196
76.24000 5.166
76.26000 1.148
76.28000 5.235
76.30000 5.939
76.32000 3.425
76.34000 0.721
76.36000 1.494
76.38000 5.598
76.40000 6.469
76.42000 1.812
76.44000 -0.658
76.46000 3.269
76.48000 11.513
76.50000 9.204
76.52000 2.837
76.54000 -1.466
76.56000 2.565
76.58000 1.901
76.60000 -2.133
76.62000 -2.329
76.64000 3.349
76.66000 2.993
76.68000 4.995
76.70000 3.054
76.72000 6.027
76.74000 3.427
76.76000 -0.002
76.78000 3.229
76.80000 4.341
76.82000 2.887
76.84000 6.643
76.86000 7.589
76.88000 3.873
76.90000 0.525
76.92000 3.608
76.94000 0.959
76.96000 0.462
76.98000 -0.992
77.00000 0.875
77.02000 4.009
77.04000 3.770
77.06000 2.379
77.08000 3.390
77.10000 3.157
77.12000 1.497
77.14000 3.511
77.16000 1.927
77.18000 3.463
77.20000 4.217
77.22000 4.920
77.24000 4.000
77.26000 7.150
77.28000 2.493
77.30000 2.058
77.32000 5.870
77.34000 5.100
77.36000 8.149
77.38000 8.751
77.40000 2.826
77.42000 5.941
77.44000 6.956
77.46000 6.705
77.48000 3.031
77.50000 0.275
77.52000 2.736
77.54000 4.096
77.56000 2.877
77.58000 5.426
77.60000 6.160
77.62000 6.500
77.64000 5.801
77.66000 5.381
77.68000 3.879
77.70000 6.605
77.72000 5.674
77.74000 3.389
77.76000 -2.297
77.78000 -1.981
77.80000 2.537
77.82000 3.395
77.84000 4.256
77.86000 8.280
77.88000 8.759
77.90000 4.895
77.92000 0.445
77.94000 7.263
77.96000 8.081
77.98000 4.042
78.00000 4.265
78.02000 5.011
78.04000 6.486
78.06000 5.421
78.08000 2.542
78.10000 4.407
78.12000 5.733
78.14000 3.040
78.16000 4.403
78.18000 7.136
78.20000 5.818
78.22000 8.655
78.24000 7.310
78.26000 8.414
78.28000 3.896
78.30000 4.986
78.32000 6.764
78.34000 6.530
78.36000 7.958
78.38000 8.498
78.40000 8.787
78.42000 7.075
78.44000 2.803
78.46000 5.021
78.48000 3.215
78.50000 3.769
78.52000 3.770
78.54000 2.646
78.56000 6.695
78.58000 4.182
78.60000 -1.934
78.62000 -2.331
78.64000 1.170
78.66000 4.687
78.68000 7.093
78.70000 1.122
78.72000 2.720
78.74000 2.614
78.76000 5.148
78.78000 2.536
78.80000 1.787
78.82000 2.893
78.84000 4.936
78.86000 6.843
78.88000 2.042
78.90000 -0.590
78.92000 2.193
78.94000 1.508
78.96000 4.284
78.98000 2.242
79.00000 2.070
79.02000 2.826
79.04000 2.038
79.06000 2.835
79.08000 1.352
79.10000 1.141
79.12000 2.612
79.14000 1.626
79.16000 4.412
79.18000 4.241
79.20000 4.986
79.22000 6.172
79.24000 1.750
79.26000 2.669
79.28000 2.869
79.30000 1.825
79.32000 0.496
79.34000 -0.871
79.36000 -1.547
79.38000 -1.822
79.40000 2.109
79.42000 0.684
79.44000 -2.039
79.46000 1.664
79.48000 2.907
79.50000 -1.177
79.52000 -2.402
79.54000 1.204
79.56000 1.391
79.58000 3.623
79.60000 0.741
79.62000 1.796
79.64000 1.390
79.66000 -0.756
79.68000 5.019
79.70000 4.079
79.72000 -0.549
79.74000 1.989
79.76000 4.423
79.78000 2.862
79.80000 1.479
79.82000 -1.767
79.84000 -0.300
79.86000 3.023
79.88000 2.206
79.90000 -0.070
79.92000 -1.186
79.94000 9.156
79.96000 4.127
79.98000 1.686
80.00000 3.370
80.02000 4.304
80.04000 2.054
80.06000 4.361
80.08000 3.283
80.10000 4.598
80.12000 4.496
80.14000 4.939
80.16000 3.192
80.18000 0.316
80.20000 0.576
80.22000 0.013
80.24000 1.308
80.26000 5.577
80.28000 3.890
80.30000 4.982
80.32000 8.116
80.34000 4.039
80.36000 -0.120
80.38000 5.771
80.40000 4.432
80.42000 1.880
80.44000 1.330
80.46000 3.069
80.48000 -2.441
80.50000 1.757
80.52000 4.972
80.54000 3.694
80.56000 4.844
80.58000 4.415
80.60000 2.655
80.62000 1.899
80.64000 2.340
80.66000 0.291
80.68000 0.821
80.70000 3.782
80.72000 0.836
80.74000 -0.599
80.76000 -0.964
80.78000 0.584
80.80000 3.867
80.82000 5.194
80.84000 1.746
80.86000 2.953
80.88000 6.475
80.90000 1.275
80.92000 1.315
80.94000 1.394
80.96000 -0.457
80.98000 2.813
81.00000 6.525
81.02000 7.373
81.04000 5.756
81.06000 3.734
81.08000 2.645
81.10000 2.509
81.12000 1.014
81.14000 3.588
81.16000 6.595
81.18000 6.546
81.20000 5.516
81.22000 3.438
81.24000 2.368
81.26000 1.763
81.28000 5.021
81.30000 5.933
81.32000 5.865
81.34000 4.449
81.36000 4.602
81.38000 8.905
81.40000 8.186
81.42000 4.603
81.44000 8.198
81.46000 4.578
81.48000 4.819
81.50000 6.474
81.52000 9.810
81.54000 9.107
81.56000 7.825
81.58000 2.474
81.60000 -2.546
81.62000 -1.503
81.64000 0.883
81.66000 7.027
81.68000 7.886
81.70000 9.500
81.72000 11.903
81.74000 9.344
81.76000 10.769
81.78000 10.237
81.80000 2.159
81.82000 4.952
81.84000 10.484
81.86000 13.503
81.88000 14.166
81.90000 18.150
81.92000 12.003
81.94000 12.425
81.96000 10.419
81.98000 10.972
82.00000 10.092
82.02000 6.336
82.04000 10.767
82.06000 19.256
82.08000 15.298
82.10000 13.465
82.12000 10.605
82.14000 14.791
82.16000 13.706
82.18000 13.100
82.20000 14.947
82.22000 19.347
82.24000 14.151
82.26000 14.876
82.28000 21.910
82.30000 22.595
82.32000 17.213
82.34000 17.836
82.36000 17.474
82.38000 18.324
82.40000 15.023
82.42000 13.830
82.44000 17.050
82.46000 18.009
82.48000 21.302
82.50000 20.199
82.52000 18.318
82.54000 16.849
82.56000 21.540
82.58000 20.250
82.60000 17.460
82.62000 18.276
82.64000 26.838
82.66000 29.502
82.68000 26.418
82.70000 30.052
82.72000 26.193
82.74000 29.396
82.76000 24.486
82.78000 23.488
82.80000 21.435
82.82000 20.672
82.84000 27.861
82.86000 29.191
82.88000 29.797
82.90000 27.782
82.92000 24.970
82.94000 19.488
82.96000 24.015
82.98000 28.144
83.00000 31.921
83.02000 31.468
83.04000 30.387
83.06000 26.971
83.08000 26.807
83.10000 25.609
83.12000 18.703
83.14000 25.205
83.16000 28.913
83.18000 26.487
83.20000 24.274
83.22000 23.449
83.24000 28.002
83.26000 28.241
83.28000 22.947
83.30000 19.058
83.32000 24.569
83.34000 24.355
83.36000 17.146
83.38000 17.089
83.40000 16.655
83.42000 13.126
83.44000 14.884
83.46000 18.175
83.48000 19.501
83.50000 16.763
83.52000 19.007
83.54000 21.388
83.56000 22.157
83.58000 20.879
83.60000 12.034
83.62000 15.158
83.64000 13.367
83.66000 15.695
83.68000 14.056
83.70000 13.177
83.72000 13.383
83.74000 12.001
83.76000 9.479
83.78000 8.031
83.80000 12.047
83.82000 11.347
83.84000 10.288
83.86000 10.651
83.88000 8.448
83.90000 9.360
83.92000 11.467
83.94000 11.908
83.96000 9.999
83.98000 5.686
84.00000 8.027
84.02000 3.890
84.04000 1.785
84.06000 4.417
84.08000 4.358
84.10000 -0.185
84.12000 -1.596
84.14000 1.767
84.16000 1.276
84.18000 0.330
84.20000 0.749
84.22000 2.717
84.24000 3.036
84.26000 3.242
84.28000 7.937
84.30000 4.992
84.32000 1.751
84.34000 3.537
84.36000 5.168
84.38000 2.096
84.40000 0.864
84.42000 6.427
84.44000 2.617
84.46000 2.464
84.48000 4.770
84.50000 1.058
84.52000 0.982
84.54000 2.746
84.56000 0.960
84.58000 1.637
84.60000 2.093
84.62000 4.338
84.64000 2.721
84.66000 0.777
84.68000 1.839
84.70000 0.928
84.72000 4.268
84.74000 7.389
84.76000 1.020
84.78000 3.697
84.80000 3.083
84.82000 1.813
84.84000 1.283
84.86000 2.154
84.88000 -2.441
84.90000 1.259
84.92000 0.943
84.94000 6.983
84.96000 6.817
84.98000 6.612
85.00000 1.949
85.02000 -1.266
85.04000 -1.798
85.06000 -2.172
85.08000 -2.436
85.10000 0.539
85.12000 3.341
85.14000 1.431
85.16000 2.360
85.18000 2.600
85.20000 3.266
85.22000 4.544
85.24000 1.712
85.26000 -1.381
85.28000 -0.735
85.30000 -2.439
85.32000 0.143
85.34000 1.849
85.36000 2.931
85.38000 1.533
85.40000 1.215
85.42000 -1.156
85.44000 0.399
85.46000 2.146
85.48000 -0.385
85.50000 0.931
85.52000 -0.920
85.54000 0.002
85.56000 3.530
85.58000 0.383
85.60000 3.269
85.62000 4.782
85.64000 -2.320
85.66000 -2.455
85.68000 0.129
85.70000 0.223
85.72000 1.033
85.74000 -1.389
85.76000 -1.309
85.78000 1.441
85.80000 4.530
85.82000 0.654
85.84000 3.744
85.86000 -0.329
85.88000 1.977
85.90000 3.338
85.92000 3.315
85.94000 4.460
85.96000 7.683
85.98000 6.773
86.00000 3.963
86.02000 5.918
86.04000 4.279
86.06000 3.196
86.08000 -1.820
86.10000 -0.776
86.12000 4.092
86.14000 1.351
86.16000 4.761
86.18000 2.500
86.20000 4.392
86.22000 5.125
86.24000 5.476
86.26000 8.806
86.28000 7.351
86.30000 3.851
86.32000 6.238
86.34000 3.546
86.36000 3.111
86.38000 0.247
86.40000 4.018
86.42000 7.395
86.44000 7.763
86.46000 10.027
86.48000 10.579
86.50000 9.942
86.52000 7.423
86.54000 11.284
86.56000 9.465
86.58000 9.651
86.60000 13.880
86.62000 13.791
86.64000 6.044
86.66000 10.168
86.68000 14.106
86.70000 14.238
86.72000 13.372
86.74000 17.166
86.76000 19.388
86.78000 24.280
86.80000 17.359
86.82000 13.883
86.84000 19.118
86.86000 16.951
86.88000 16.172
86.90000 19.017
86.92000 23.461
86.94000 23.162
86.96000 15.216
86.98000 17.339
87.00000 22.240
87.02000 28.286
87.04000 21.019
87.06000 19.407
87.08000 21.642
87.10000 21.352
87.12000 25.262
87.14000 30.050
87.16000 28.865
87.18000 27.004
87.20000 26.097
87.22000 24.477
87.24000 27.830
87.26000 26.110
87.28000 27.286
87.30000 25.292
87.32000 25.337
87.34000 22.601
87.36000 24.961
87.38000 22.928
87.40000 24.151
87.42000 30.499
87.44000 29.779
87.46000 25.079
87.48000 24.084
87.50000 24.143
87.52000 24.997
87.54000 25.024
87.56000 19.269
87.58000 20.702
87.60000 21.817
87.62000 25.550
87.64000 20.463
87.66000 18.126
87.68000 17.347
87.70000 17.632
87.72000 18.665
87.74000 14.517
87.76000 8.961
87.78000 11.000
87.80000 17.905
87.82000 18.213
87.84000 13.530
87.86000 9.576
87.88000 8.117
87.90000 15.020
87.92000 19.997
87.94000 16.218
87.96000 11.907
87.98000 12.743
88.00000 12.033
88.02000 11.840
88.04000 11.737
88.06000 14.986
88.08000 9.243
88.10000 9.211
88.12000 9.402
88.14000 6.674
88.16000 10.234
88.18000 6.160
88.20000 10.749
88.22000 12.396
88.24000 10.042
88.26000 9.537
88.28000 10.147
88.30000 5.918
88.32000 5.673
88.34000 4.856
88.36000 7.678
88.38000 5.819
88.40000 4.186
88.42000 6.744
88.44000 9.702
88.46000 8.613
88.48000 2.961
88.50000 4.811
88.52000 7.567
88.54000 1.851
88.56000 4.606
88.58000 5.226
88.60000 2.724
88.62000 2.050
88.64000 3.053
88.66000 3.063
88.68000 0.631
88.70000 3.486
88.72000 2.523
88.74000 4.463
88.76000 1.112
88.78000 -2.287
88.80000 2.935
88.82000 1.565
88.84000 -0.312
88.86000 -0.327
88.88000 0.220
88.90000 -0.352
88.92000 2.473
88.94000 5.741
88.96000 2.722
88.98000 2.937
89.00000 3.312
89.02000 4.434
89.04000 -0.101
89.06000 0.100
89.08000 -0.347
89.10000 1.096
89.12000 4.309
89.14000 0.347
89.16000 1.684
89.18000 0.814
89.20000 -0.233
89.22000 3.656
89.24000 2.920
89.26000 0.060
89.28000 2.489
89.30000 0.823
89.32000 -0.092
89.34000 1.315
89.36000 4.736
89.38000 4.454
89.40000 5.838
89.42000 -0.525
89.44000 2.004
89.46000 5.587
89.48000 1.203
89.50000 -2.221
89.52000 -0.181
89.54000 3.878
89.56000 6.681
89.58000 7.742
89.60000 6.651
89.62000 3.838
89.64000 3.108
89.66000 4.335
89.68000 6.173
89.70000 2.790
89.72000 2.967
89.74000 4.568
89.76000 3.092
89.78000 5.040
89.80000 1.236
89.82000 4.290
89.84000 3.328
89.86000 0.989
89.88000 0.794
89.90000 1.486
89.92000 2.402
89.94000 -0.032
89.96000 -0.172
89.98000 2.095
90.00000 3.290
90.02000 4.269
90.04000 6.793
90.06000 6.872
90.08000 1.308
90.10000 -0.669
90.12000 2.722
90.14000 1.785
90.16000 -2.184
90.18000 3.668
90.20000 2.670
90.22000 5.029
90.24000 3.245
90.26000 5.088
90.28000 5.198
90.30000 0.408
90.32000 -0.419
90.34000 4.781
90.36000 6.175
90.38000 6.048
90.40000 3.824
90.42000 5.975
90.44000 1.632
90.46000 -1.634
90.48000 0.382
90.50000 6.757
90.52000 3.880
90.54000 -2.176
90.56000 1.581
90.58000 6.572
90.60000 4.962
90.62000 8.668
90.64000 12.606
90.66000 7.492
90.68000 -0.504
90.70000 3.302
90.72000 4.262
90.74000 4.343
90.76000 3.009
90.78000 2.666
90.80000 1.045
90.82000 4.489
90.84000 5.535
90.86000 6.339
90.88000 3.241
90.90000 4.622
90.92000 2.218
90.94000 5.327
90.96000 4.801
90.98000 1.541
91.00000 1.192
91.02000 4.830
91.04000 2.493
91.06000 1.739
91.08000 1.917
91.10000 1.243
91.12000 3.357
91.14000 4.009
91.16000 3.603
91.18000 7.211
91.20000 5.860
91.22000 3.693
91.24000 7.849
91.26000 7.195
91.28000 5.649
91.30000 4.560
91.32000 0.366
91.34000 2.735
91.36000 3.502
91.38000 2.508
91.40000 5.481
91.42000 5.435
91.44000 2.475
91.46000 1.037
91.48000 5.598
91.50000 5.220
91.52000 4.827
91.54000 1.904
91.56000 1.593
91.58000 4.621
91.60000 0.327
91.62000 1.553
91.64000 8.976
91.66000 9.684
91.68000 6.477
91.70000 -0.532
91.72000 -2.189
91.74000 3.754
91.76000 3.066
91.78000 5.059
91.80000 -0.582
91.82000 0.255
91.84000 4.487
91.86000 6.830
91.88000 3.841
91.90000 3.392
91.92000 2.287
91.94000 3.253
91.96000 2.554
91.98000 2.391
92.00000 2.537
92.02000 -1.018
92.04000 -1.003
92.06000 1.936
92.08000 1.667
92.10000 0.678
92.12000 1.817
92.14000 6.673
92.16000 4.843
92.18000 5.645
92.20000 3.788
92.22000 0.219
92.24000 1.624
92.26000 -0.504
92.28000 3.165
92.30000 4.870
92.32000 1.901
92.34000 -0.193
92.36000 1.662
92.38000 2.744
92.40000 -1.627
92.42000 0.254
92.44000 0.830
92.46000 4.781
92.48000 -1.360
92.50000 -2.209
92.52000 1.944
92.54000 4.145
92.56000 0.067
92.58000 3.001
92.60000 6.655
92.62000 4.000
92.64000 1.525
92.66000 -1.565
92.68000 -0.302
92.70000 5.378
92.72000 7.911
92.74000 2.991
92.76000 0.217
92.78000 1.212
92.80000 -1.061
92.82000 -1.676
92.84000 -2.211
92.86000 -1.759
92.88000 5.004
92.90000 5.476
92.92000 3.276
92.94000 3.876
92.96000 2.835
92.98000 7.578
93.00000 4.787
93.02000 7.578
93.04000 10.849
93.06000 7.354
93.08000 3.658
93.10000 5.088
93.12000 0.964
93.14000 2.583
93.16000 0.147
93.18000 -2.210
93.20000 5.493
93.22000 4.287
93.24000 5.228
93.26000 5.863
93.28000 5.437
93.30000 1.939
93.32000 3.819
93.34000 4.538
93.36000 4.052
93.38000 3.374
93.40000 4.486
93.42000 6.614
93.44000 8.119
93.46000 2.886
93.48000 3.617
93.50000 4.797
93.52000 3.058
93.54000 6.980
93.56000 8.359
93.58000 4.788
93.60000 4.230
93.62000 2.280
93.64000 1.737
93.66000 0.626
93.68000 3.972
93.70000 4.855
93.72000 5.378
93.74000 3.027
93.76000 2.285
93.78000 7.183
93.80000 7.306
93.82000 6.430
93.84000 -2.184
93.86000 -0.293
93.88000 1.755
93.90000 5.459
93.92000 11.790
93.94000 9.565
93.96000 9.102
93.98000 7.326
94.00000 6.664
94.02000 6.345
94.04000 6.635
94.06000 2.265
94.08000 1.923
94.10000 5.217
94.12000 3.923
94.14000 3.980
94.16000 0.854
94.18000 6.611
94.20000 4.394
94.22000 4.595
94.24000 2.768
94.26000 1.559
94.28000 -0.867
94.30000 -0.104
94.32000 2.085
94.34000 3.882
94.36000 5.597
94.38000 2.596
94.40000 2.717
94.42000 0.044
94.44000 6.520
94.46000 6.702
94.48000 -2.088
94.50000 0.070
94.52000 5.166
94.54000 7.376
94.56000 2.903
94.58000 7.001
94.60000 4.617
94.62000 8.551
94.64000 7.738
94.66000 1.647
94.68000 -2.090
94.70000 6.760
94.72000 4.450
94.74000 2.959
94.76000 5.796
94.78000 5.164
94.80000 2.985
94.82000 3.248
94.84000 7.520
94.86000 6.122
94.88000 1.862
94.90000 6.757
94.92000 4.281
94.94000 5.123
94.96000 6.348
94.98000 2.388
95.00000 0.112
95.02000 0.737
95.04000 2.974
95.06000 1.692
95.08000 2.427
95.10000 1.759
95.12000 -0.540
95.14000 -0.746
95.16000 -2.207
95.18000 -0.708
95.20000 0.759
95.22000 4.160
95.24000 6.833
95.26000 0.474
95.28000 -0.303
95.30000 5.336
95.32000 7.561
95.34000 1.684
95.36000 4.503
95.38000 4.585
95.40000 4.665
95.42000 6.274
95.44000 2.922
95.46000 -2.201
95.48000 0.668
95.50000 4.587
95.52000 1.202
95.54000 3.564
95.56000 8.288
95.58000 9.146
95.60000 5.811
95.62000 2.011
95.64000 -1.016
95.66000 3.694
95.68000 3.695
95.70000 3.279
95.72000 3.277
95.74000 1.819
95.76000 4.460
95.78000 10.469
95.80000 3.922
95.82000 1.291
95.84000 2.100
95.86000 5.809
95.88000 5.693
95.90000 9.535
95.92000 5.097
95.94000 5.877
95.96000 8.166
95.98000 6.933
96.00000 6.464
96.02000 8.787
96.04000 9.920
96.06000 10.733
96.08000 13.821
96.10000 10.802
96.12000 4.916
96.14000 5.104
96.16000 4.600
96.18000 2.169
96.20000 3.601
96.22000 4.294
96.24000 3.134
96.26000 4.870
96.28000 8.478
96.30000 4.063
96.32000 0.254
96.34000 -1.466
96.36000 -0.098
96.38000 0.442
96.40000 6.414
96.42000 6.283
96.44000 12.409
96.46000 9.294
96.48000 8.179
96.50000 9.727
96.52000 4.362
96.54000 5.143
96.56000 5.394
96.58000 3.901
96.60000 2.319
96.62000 -0.585
96.64000 -0.397
96.66000 3.639
96.68000 -0.085
96.70000 -2.215
96.72000 2.137
96.74000 1.070
96.76000 1.709
96.78000 6.719
96.80000 4.126
96.82000 5.305
96.84000 8.647
96.86000 10.022
96.88000 5.238
96.90000 7.599
96.92000 10.348
96.94000 4.624
96.96000 3.568
96.98000 3.606
97.00000 1.013
97.02000 3.790
97.04000 1.204
97.06000 1.775
97.08000 4.096
97.10000 2.276
97.12000 4.364
97.14000 1.077
97.16000 -1.346
97.18000 3.903
97.20000 5.052
97.22000 3.325
97.24000 7.504
97.26000 7.905
97.28000 8.790
97.30000 2.164
97.32000 -1.291
97.34000 2.672
97.36000 7.002
97.38000 9.022
97.40000 8.189
97.42000 4.803
97.44000 6.961
97.46000 8.745
97.48000 4.797
97.50000 3.602
97.52000 3.047
97.54000 5.536
97.56000 9.284
97.58000 7.236
97.60000 7.113
97.62000 2.534
97.64000 0.216
97.66000 3.744
97.68000 7.485
97.70000 3.058
97.72000 4.463
97.74000 6.210
97.76000 6.951
97.78000 4.026
97.80000 3.985
97.82000 5.141
97.84000 7.980
97.86000 8.810
97.88000 5.293
97.90000 -2.172
97.92000 2.118
97.94000 7.707
97.96000 5.665
97.98000 7.277
98.00000 13.622
98.02000 4.970
98.04000 5.803
98.06000 5.466
98.08000 2.182
98.10000 2.609
98.12000 5.887
98.14000 0.947
98.16000 2.614
98.18000 9.867
98.20000 10.010
98.22000 -1.648
98.24000 -2.143
98.26000 2.225
98.28000 8.243
98.30000 0.296
98.32000 1.080
98.34000 5.319
98.36000 1.585
98.38000 5.177
98.40000 0.415
98.42000 10.843
98.44000 3.385
98.46000 1.113
98.48000 6.250
98.50000 5.097
98.52000 8.098
98.54000 5.457
98.56000 6.076
98.58000 4.660
98.60000 6.359
98.62000 9.199
98.64000 7.671
98.66000 12.623
98.68000 8.757
98.70000 8.206
98.72000 0.207
98.74000 3.034
98.76000 5.934
98.78000 8.479
98.80000 14.227
98.82000 10.921
98.84000 20.589
98.86000 12.442
98.88000 14.368
98.90000 10.056
98.92000 3.060
98.94000 8.358
98.96000 6.673
98.98000 7.182
99.00000 -0.858
99.02000 1.713
99.04000 5.869
99.06000 6.284
99.08000 4.114
99.10000 15.990
99.12000 14.283
99.14000 7.998
99.16000 1.482
99.18000 -0.583
99.20000 2.367
99.22000 7.519
99.24000 4.851
99.26000 3.820
99.28000 6.576
99.30000 10.891
99.32000 8.064
99.34000 -2.084
99.36000 0.115
99.38000 2.338
99.40000 11.888
99.42000 13.247
99.44000 4.110
99.46000 -0.131
99.48000 6.070
99.50000 5.606
99.52000 9.700
99.54000 9.191
99.56000 10.021
99.58000 4.899
99.60000 2.599
99.62000 5.870
99.64000 3.430
99.66000 4.676
99.68000 14.109
99.70000 8.509
99.72000 -0.547
99.74000 -1.889
99.76000 -2.226
99.78000 5.494
99.80000 9.889
99.82000 11.134
99.84000 -3.106
99.86000 0.418
99.88000 2.936
99.90000 -0.104
99.92000 3.641
99.94000 1.018
99.96000 1.564
99.98000 0.000
