'Id: "0011389" Comment: "Integrate frame 0011389_Au-Ir-Rh_Au-Rich_XRD_Mapping-167-0000.gfrmwith cursor Wedge Cursor #5" Operator: "B?rgel" Anode: "Cu" Wavelength: "1.5406" Scantype: "2Theta (TwoTheta)" TimePerStep: "1" X: "0" Y: "0" Z: "5.95" 
10.00000 0.000
10.02000 9.921
10.04000 -4.140
10.06000 3.013
10.08000 -4.117
10.10000 -3.125
10.12000 18.356
10.14000 33.232
10.16000 33.626
10.18000 12.973
10.20000 -6.250
10.22000 5.917
10.24000 16.945
10.26000 21.538
10.28000 16.315
10.30000 3.043
10.32000 15.413
10.34000 1.327
10.36000 -0.916
10.38000 12.582
10.40000 27.226
10.42000 35.118
10.44000 25.968
10.46000 17.399
10.48000 6.730
10.50000 5.149
10.52000 7.444
10.54000 8.430
10.56000 14.458
10.58000 18.274
10.60000 20.105
10.62000 19.390
10.64000 15.669
10.66000 14.111
10.68000 14.612
10.70000 11.113
10.72000 19.241
10.74000 39.234
10.76000 35.178
10.78000 22.483
10.80000 23.623
10.82000 14.283
10.84000 4.444
10.86000 19.517
10.88000 20.629
10.90000 17.790
10.92000 6.965
10.94000 9.953
10.96000 28.768
10.98000 18.318
11.00000 21.419
11.02000 23.316
11.04000 13.945
11.06000 11.004
11.08000 20.008
11.10000 19.916
11.12000 13.745
11.14000 14.111
11.16000 20.292
11.18000 15.998
11.20000 20.981
11.22000 26.763
11.24000 27.242
11.26000 13.454
11.28000 18.309
11.30000 11.695
11.32000 10.651
11.34000 4.903
11.36000 7.275
11.38000 7.617
11.40000 8.103
11.42000 13.540
11.44000 6.295
11.46000 9.902
11.48000 7.283
11.50000 13.263
11.52000 16.458
11.54000 17.936
11.56000 16.065
11.58000 14.639
11.60000 14.278
11.62000 4.447
11.64000 5.383
11.66000 8.326
11.68000 8.852
11.70000 15.628
11.72000 12.206
11.74000 15.884
11.76000 17.067
11.78000 10.961
11.80000 9.316
11.82000 11.910
11.84000 0.925
11.86000 4.938
11.88000 10.470
11.90000 20.854
11.92000 17.041
11.94000 14.231
11.96000 11.484
11.98000 8.664
12.00000 13.629
12.02000 9.608
12.04000 12.645
12.06000 13.540
12.08000 18.796
12.10000 15.806
12.12000 15.690
12.14000 20.443
12.16000 30.224
12.18000 13.178
12.20000 18.554
12.22000 17.375
12.24000 9.378
12.26000 8.747
12.28000 18.041
12.30000 16.111
12.32000 15.331
12.34000 20.055
12.36000 18.051
12.38000 16.109
12.40000 24.391
12.42000 20.429
12.44000 20.215
12.46000 13.110
12.48000 16.317
12.50000 20.617
12.52000 16.742
12.54000 6.747
12.56000 13.133
12.58000 20.333
12.60000 31.145
12.62000 29.210
12.64000 26.671
12.66000 25.132
12.68000 19.656
12.70000 20.960
12.72000 23.465
12.74000 23.512
12.76000 13.757
12.78000 18.582
12.80000 19.893
12.82000 14.760
12.84000 19.853
12.86000 13.839
12.88000 14.807
12.90000 23.335
12.92000 19.151
12.94000 13.373
12.96000 16.221
12.98000 16.940
13.00000 28.940
13.02000 28.830
13.04000 9.689
13.06000 7.921
13.08000 10.368
13.10000 14.163
13.12000 4.255
13.14000 18.882
13.16000 25.715
13.18000 29.820
13.20000 12.059
13.22000 4.293
13.24000 10.331
13.26000 10.473
13.28000 7.428
13.30000 12.636
13.32000 9.532
13.34000 13.385
13.36000 12.170
13.38000 19.772
13.40000 19.724
13.42000 12.457
13.44000 18.598
13.46000 11.649
13.48000 17.721
13.50000 17.678
13.52000 23.031
13.54000 18.829
13.56000 12.369
13.58000 5.613
13.60000 19.160
13.62000 20.938
13.64000 20.244
13.66000 18.060
13.68000 13.897
13.70000 18.952
13.72000 18.315
13.74000 13.638
13.76000 15.053
13.78000 14.195
13.80000 19.015
13.82000 15.569
13.84000 24.104
13.86000 28.334
13.88000 22.520
13.90000 18.679
13.92000 13.872
13.94000 15.226
13.96000 13.796
13.98000 7.536
14.00000 16.500
14.02000 28.034
14.04000 20.737
14.06000 11.909
14.08000 9.484
14.10000 12.260
14.12000 9.931
14.14000 12.868
14.16000 19.484
14.18000 10.899
14.20000 2.519
14.22000 11.553
14.24000 16.142
14.26000 17.792
14.28000 14.128
14.30000 5.326
14.32000 13.700
14.34000 10.858
14.36000 8.752
14.38000 17.855
14.40000 23.794
14.42000 20.773
14.44000 14.281
14.46000 18.734
14.48000 22.532
14.50000 12.990
14.52000 -4.433
14.54000 3.411
14.56000 7.322
14.58000 13.596
14.60000 7.713
14.62000 5.465
14.64000 3.518
14.66000 4.316
14.68000 16.766
14.70000 13.734
14.72000 -3.503
14.74000 7.286
14.76000 9.153
14.78000 8.781
14.80000 18.755
14.82000 12.047
14.84000 5.103
14.86000 5.805
14.88000 5.053
14.90000 15.096
14.92000 17.137
14.94000 17.629
14.96000 20.179
14.98000 19.918
15.00000 16.204
15.02000 18.480
15.04000 8.881
15.06000 3.634
15.08000 2.826
15.10000 1.826
15.12000 10.451
15.14000 16.923
15.16000 8.613
15.18000 4.555
15.20000 13.058
15.22000 16.926
15.24000 9.473
15.26000 13.264
15.28000 9.855
15.30000 2.588
15.32000 0.020
15.34000 3.172
15.36000 4.913
15.38000 5.690
15.40000 4.952
15.42000 3.120
15.44000 0.678
15.46000 7.165
15.48000 16.954
15.50000 19.950
15.52000 13.558
15.54000 8.868
15.56000 13.094
15.58000 7.466
15.60000 -0.455
15.62000 7.941
15.64000 13.409
15.66000 7.587
15.68000 6.502
15.70000 3.682
15.72000 10.395
15.74000 17.067
15.76000 13.710
15.78000 7.851
15.80000 14.159
15.82000 14.797
15.84000 14.806
15.86000 7.164
15.88000 7.253
15.90000 8.411
15.92000 1.360
15.94000 2.223
15.96000 4.184
15.98000 3.592
16.00000 4.286
16.02000 8.506
16.04000 0.420
16.06000 0.362
16.08000 0.073
16.10000 4.481
16.12000 4.692
16.14000 4.407
16.16000 4.207
16.18000 -0.668
16.20000 6.345
16.22000 2.414
16.24000 5.732
16.26000 6.949
16.28000 7.771
16.30000 12.009
16.32000 7.191
16.34000 2.953
16.36000 4.119
16.38000 3.531
16.40000 3.718
16.42000 6.011
16.44000 7.124
16.46000 3.981
16.48000 3.048
16.50000 -4.429
16.52000 -0.886
16.54000 6.719
16.56000 5.433
16.58000 -1.474
16.60000 -3.359
16.62000 8.861
16.64000 11.132
16.66000 10.510
16.68000 9.221
16.70000 8.950
16.72000 18.747
16.74000 14.594
16.76000 9.350
16.78000 10.294
16.80000 8.318
16.82000 1.452
16.84000 11.740
16.86000 6.444
16.88000 -4.422
16.90000 5.727
16.92000 9.410
16.94000 5.591
16.96000 9.640
16.98000 5.074
17.00000 8.678
17.02000 19.199
17.04000 11.442
17.06000 6.208
17.08000 5.775
17.10000 4.345
17.12000 2.422
17.14000 -1.020
17.16000 -0.800
17.18000 4.178
17.20000 4.783
17.22000 7.239
17.24000 6.793
17.26000 5.183
17.28000 -0.703
17.30000 3.851
17.32000 2.328
17.34000 1.793
17.36000 -3.518
17.38000 -0.492
17.40000 1.664
17.42000 12.726
17.44000 11.730
17.46000 5.233
17.48000 3.842
17.50000 -2.481
17.52000 5.484
17.54000 5.553
17.56000 0.589
17.58000 -1.978
17.60000 2.416
17.62000 6.409
17.64000 14.677
17.66000 13.239
17.68000 5.667
17.70000 -0.462
17.72000 3.735
17.74000 4.630
17.76000 3.203
17.78000 0.496
17.80000 6.423
17.82000 6.464
17.84000 7.106
17.86000 5.747
17.88000 1.981
17.90000 -2.589
17.92000 2.546
17.94000 4.879
17.96000 -1.006
17.98000 -1.799
18.00000 2.776
18.02000 4.161
18.04000 2.219
18.06000 0.083
18.08000 4.832
18.10000 5.102
18.12000 9.479
18.14000 4.859
18.16000 4.968
18.18000 8.971
18.20000 7.452
18.22000 -1.329
18.24000 1.107
18.26000 1.403
18.28000 4.898
18.30000 3.214
18.32000 2.095
18.34000 1.869
18.36000 3.949
18.38000 1.962
18.40000 3.432
18.42000 -3.686
18.44000 2.105
18.46000 7.544
18.48000 4.647
18.50000 2.279
18.52000 4.657
18.54000 5.066
18.56000 8.537
18.58000 -1.092
18.60000 -4.004
18.62000 -4.335
18.64000 2.260
18.66000 1.802
18.68000 0.675
18.70000 0.036
18.72000 5.404
18.74000 4.006
18.76000 -3.562
18.78000 -0.817
18.80000 5.287
18.82000 7.307
18.84000 5.801
18.86000 5.736
18.88000 6.786
18.90000 2.323
18.92000 -0.611
18.94000 3.174
18.96000 2.836
18.98000 -4.306
19.00000 -4.057
19.02000 1.443
19.04000 4.871
19.06000 -0.637
19.08000 -0.240
19.10000 2.482
19.12000 3.340
19.14000 1.474
19.16000 6.736
19.18000 7.104
19.20000 6.488
19.22000 4.660
19.24000 10.225
19.26000 6.744
19.28000 2.980
19.30000 2.378
19.32000 6.053
19.34000 3.109
19.36000 6.901
19.38000 4.781
19.40000 7.140
19.42000 7.534
19.44000 1.317
19.46000 0.898
19.48000 -0.196
19.50000 4.718
19.52000 4.162
19.54000 4.482
19.56000 6.036
19.58000 7.387
19.60000 5.340
19.62000 5.043
19.64000 8.990
19.66000 5.772
19.68000 2.577
19.70000 8.073
19.72000 11.490
19.74000 9.339
19.76000 5.613
19.78000 4.176
19.80000 -4.228
19.82000 4.232
19.84000 5.601
19.86000 2.695
19.88000 3.648
19.90000 3.762
19.92000 10.005
19.94000 10.868
19.96000 12.151
19.98000 1.901
20.00000 0.493
20.02000 1.092
20.04000 10.558
20.06000 13.538
20.08000 10.055
20.10000 11.110
20.12000 7.995
20.14000 5.190
20.16000 5.580
20.18000 2.775
20.20000 -1.176
20.22000 -2.224
20.24000 4.927
20.26000 2.060
20.28000 3.676
20.30000 1.642
20.32000 5.280
20.34000 10.489
20.36000 6.607
20.38000 9.833
20.40000 14.001
20.42000 12.835
20.44000 9.718
20.46000 6.428
20.48000 5.861
20.50000 0.992
20.52000 5.202
20.54000 4.140
20.56000 1.103
20.58000 5.037
20.60000 3.857
20.62000 0.085
20.64000 0.847
20.66000 4.040
20.68000 7.995
20.70000 5.999
20.72000 7.631
20.74000 9.791
20.76000 6.092
20.78000 -1.817
20.80000 5.164
20.82000 10.254
20.84000 9.196
20.86000 3.857
20.88000 2.259
20.90000 0.808
20.92000 5.293
20.94000 7.548
20.96000 10.862
20.98000 10.657
21.00000 7.517
21.02000 1.603
21.04000 3.873
21.06000 4.734
21.08000 0.807
21.10000 -0.573
21.12000 -1.165
21.14000 6.233
21.16000 8.783
21.18000 5.243
21.20000 3.629
21.22000 3.942
21.24000 0.888
21.26000 3.471
21.28000 9.393
21.30000 10.143
21.32000 9.278
21.34000 2.821
21.36000 4.803
21.38000 0.937
21.40000 3.734
21.42000 5.441
21.44000 -1.456
21.46000 11.734
21.48000 8.873
21.50000 2.947
21.52000 6.066
21.54000 1.403
21.56000 -2.775
21.58000 1.657
21.60000 7.933
21.62000 3.611
21.64000 2.693
21.66000 3.672
21.68000 2.737
21.70000 2.376
21.72000 7.188
21.74000 10.608
21.76000 4.172
21.78000 -3.420
21.80000 2.535
21.82000 7.454
21.84000 7.178
21.86000 6.440
21.88000 5.671
21.90000 6.515
21.92000 5.014
21.94000 -0.005
21.96000 -1.767
21.98000 -4.112
22.00000 1.781
22.02000 5.822
22.04000 4.568
22.06000 3.019
22.08000 -0.296
22.10000 4.547
22.12000 4.514
22.14000 6.963
22.16000 -0.514
22.18000 -1.618
22.20000 4.716
22.22000 8.402
22.24000 7.235
22.26000 5.287
22.28000 5.614
22.30000 2.322
22.32000 4.114
22.34000 0.099
22.36000 5.964
22.38000 11.248
22.40000 5.472
22.42000 4.160
22.44000 1.485
22.46000 0.813
22.48000 1.904
22.50000 4.349
22.52000 5.503
22.54000 -2.192
22.56000 -1.998
22.58000 6.131
22.60000 5.338
22.62000 3.305
22.64000 -0.320
22.66000 2.151
22.68000 3.980
22.70000 4.967
22.72000 6.650
22.74000 10.561
22.76000 8.247
22.78000 4.721
22.80000 5.454
22.82000 4.147
22.84000 4.788
22.86000 2.921
22.88000 -0.073
22.90000 0.889
22.92000 7.464
22.94000 6.399
22.96000 0.962
22.98000 3.425
23.00000 5.183
23.02000 4.508
23.04000 3.292
23.06000 4.912
23.08000 1.323
23.10000 -0.034
23.12000 7.083
23.14000 9.581
23.16000 10.212
23.18000 6.864
23.20000 2.107
23.22000 4.923
23.24000 8.468
23.26000 7.092
23.28000 6.622
23.30000 2.481
23.32000 4.743
23.34000 7.258
23.36000 3.749
23.38000 1.114
23.40000 -2.930
23.42000 6.213
23.44000 7.109
23.46000 7.189
23.48000 8.575
23.50000 4.256
23.52000 3.227
23.54000 1.859
23.56000 6.266
23.58000 6.920
23.60000 4.438
23.62000 5.895
23.64000 12.391
23.66000 10.673
23.68000 6.020
23.70000 0.798
23.72000 -1.921
23.74000 4.693
23.76000 4.831
23.78000 6.970
23.80000 14.267
23.82000 5.050
23.84000 1.616
23.86000 1.793
23.88000 2.228
23.90000 -3.975
23.92000 6.647
23.94000 9.878
23.96000 11.785
23.98000 7.168
24.00000 0.855
24.02000 5.212
24.04000 11.671
24.06000 8.102
24.08000 6.743
24.10000 10.058
24.12000 7.151
24.14000 6.755
24.16000 0.369
24.18000 3.369
24.20000 1.092
24.22000 5.078
24.24000 7.597
24.26000 6.502
24.28000 0.133
24.30000 11.196
24.32000 21.144
24.34000 9.638
24.36000 3.294
24.38000 5.508
24.40000 10.658
24.42000 10.933
24.44000 8.548
24.46000 3.946
24.48000 2.467
24.50000 4.815
24.52000 5.368
24.54000 5.096
24.56000 6.414
24.58000 3.466
24.60000 3.538
24.62000 2.568
24.64000 2.806
24.66000 2.381
24.68000 -2.100
24.70000 6.736
24.72000 4.544
24.74000 5.979
24.76000 8.028
24.78000 9.820
24.80000 2.802
24.82000 6.211
24.84000 7.916
24.86000 3.873
24.88000 6.222
24.90000 5.941
24.92000 3.029
24.94000 6.325
24.96000 2.673
24.98000 2.691
25.00000 6.740
25.02000 3.134
25.04000 -1.025
25.06000 2.590
25.08000 4.948
25.10000 2.279
25.12000 6.756
25.14000 9.536
25.16000 4.566
25.18000 4.618
25.20000 4.715
25.22000 -2.324
25.24000 2.498
25.26000 3.825
25.28000 3.707
25.30000 -1.509
25.32000 -3.925
25.34000 2.759
25.36000 4.155
25.38000 2.609
25.40000 4.716
25.42000 7.150
25.44000 3.727
25.46000 4.650
25.48000 6.571
25.50000 4.922
25.52000 6.080
25.54000 0.439
25.56000 -0.170
25.58000 1.177
25.60000 1.550
25.62000 7.163
25.64000 10.187
25.66000 6.353
25.68000 4.121
25.70000 0.314
25.72000 -1.679
25.74000 5.908
25.76000 6.642
25.78000 2.856
25.80000 2.911
25.82000 2.236
25.84000 2.908
25.86000 7.826
25.88000 6.973
25.90000 4.502
25.92000 3.492
25.94000 2.458
25.96000 2.941
25.98000 -3.019
26.00000 -2.980
26.02000 0.615
26.04000 3.816
26.06000 3.850
26.08000 8.189
26.10000 9.567
26.12000 6.028
26.14000 4.928
26.16000 3.459
26.18000 2.318
26.20000 1.869
26.22000 -2.551
26.24000 -0.371
26.26000 2.271
26.28000 1.304
26.30000 2.953
26.32000 3.042
26.34000 1.648
26.36000 2.557
26.38000 1.200
26.40000 0.992
26.42000 0.114
26.44000 0.889
26.46000 2.408
26.48000 0.731
26.50000 -1.242
26.52000 0.168
26.54000 6.621
26.56000 8.554
26.58000 6.908
26.60000 -0.046
26.62000 -0.604
26.64000 -3.454
26.66000 3.249
26.68000 6.747
26.70000 -1.258
26.72000 -1.501
26.74000 4.308
26.76000 0.564
26.78000 0.758
26.80000 2.375
26.82000 1.394
26.84000 -1.663
26.86000 0.055
26.88000 4.049
26.90000 4.616
26.92000 0.618
26.94000 0.814
26.96000 1.653
26.98000 -1.900
27.00000 -2.733
27.02000 2.600
27.04000 11.073
27.06000 11.647
27.08000 3.143
27.10000 -0.649
27.12000 -1.629
27.14000 -3.440
27.16000 2.784
27.18000 3.503
27.20000 1.314
27.22000 5.092
27.24000 6.935
27.26000 2.896
27.28000 -3.848
27.30000 -0.651
27.32000 4.234
27.34000 7.801
27.36000 5.487
27.38000 9.040
27.40000 9.634
27.42000 3.230
27.44000 1.086
27.46000 1.009
27.48000 2.116
27.50000 5.282
27.52000 5.285
27.54000 3.550
27.56000 4.450
27.58000 1.012
27.60000 -0.345
27.62000 4.424
27.64000 3.771
27.66000 4.287
27.68000 3.750
27.70000 3.706
27.72000 -0.079
27.74000 4.721
27.76000 11.455
27.78000 3.844
27.80000 -1.097
27.82000 0.735
27.84000 6.892
27.86000 8.796
27.88000 7.337
27.90000 8.758
27.92000 4.931
27.94000 4.922
27.96000 1.171
27.98000 3.100
28.00000 5.791
28.02000 0.453
28.04000 -1.224
28.06000 3.774
28.08000 4.486
28.10000 8.684
28.12000 5.613
28.14000 -1.169
28.16000 -1.694
28.18000 2.615
28.20000 0.251
28.22000 -2.041
28.24000 -0.696
28.26000 1.712
28.28000 -0.144
28.30000 1.430
28.32000 1.538
28.34000 0.072
28.36000 1.327
28.38000 2.656
28.40000 4.101
28.42000 3.781
28.44000 4.774
28.46000 3.671
28.48000 1.723
28.50000 4.685
28.52000 7.544
28.54000 6.902
28.56000 5.114
28.58000 2.429
28.60000 -1.281
28.62000 1.893
28.64000 5.389
28.66000 3.032
28.68000 -0.102
28.70000 5.130
28.72000 1.972
28.74000 -3.768
28.76000 2.273
28.78000 4.365
28.80000 2.601
28.82000 3.149
28.84000 2.174
28.86000 3.382
28.88000 10.198
28.90000 6.797
28.92000 7.582
28.94000 5.420
28.96000 1.506
28.98000 6.761
29.00000 3.095
29.02000 9.156
29.04000 2.216
29.06000 -2.909
29.08000 -3.563
29.10000 4.218
29.12000 4.826
29.14000 2.445
29.16000 4.331
29.18000 2.720
29.20000 4.463
29.22000 2.095
29.24000 0.594
29.26000 2.368
29.28000 4.679
29.30000 5.518
29.32000 6.018
29.34000 0.390
29.36000 -2.749
29.38000 -3.728
29.40000 0.521
29.42000 3.656
29.44000 2.541
29.46000 8.995
29.48000 7.255
29.50000 7.668
29.52000 4.078
29.54000 -1.261
29.56000 0.188
29.58000 -0.948
29.60000 4.229
29.62000 2.329
29.64000 5.689
29.66000 3.955
29.68000 -1.372
29.70000 0.173
29.72000 0.756
29.74000 2.146
29.76000 -0.435
29.78000 4.285
29.80000 4.733
29.82000 0.496
29.84000 -2.661
29.86000 3.870
29.88000 4.743
29.90000 2.283
29.92000 3.541
29.94000 3.301
29.96000 0.017
29.98000 0.006
30.00000 2.439
30.02000 3.804
30.04000 2.308
30.06000 3.166
30.08000 1.865
30.10000 6.406
30.12000 7.357
30.14000 -2.921
30.16000 0.879
30.18000 2.601
30.20000 -0.216
30.22000 2.080
30.24000 3.253
30.26000 -0.794
30.28000 -3.528
30.30000 -3.703
30.32000 2.901
30.34000 4.992
30.36000 4.045
30.38000 7.431
30.40000 7.004
30.42000 3.266
30.44000 4.018
30.46000 2.774
30.48000 5.078
30.50000 -1.964
30.52000 0.425
30.54000 4.325
30.56000 3.444
30.58000 2.375
30.60000 1.299
30.62000 1.471
30.64000 1.638
30.66000 -1.029
30.68000 2.648
30.70000 -3.685
30.72000 -1.014
30.74000 7.453
30.76000 7.595
30.78000 0.814
30.80000 2.884
30.82000 -0.897
30.84000 2.645
30.86000 0.917
30.88000 1.834
30.90000 3.698
30.92000 3.037
30.94000 0.771
30.96000 0.173
30.98000 1.666
31.00000 1.899
31.02000 2.752
31.04000 2.078
31.06000 3.485
31.08000 4.866
31.10000 5.022
31.12000 4.337
31.14000 6.969
31.16000 1.255
31.18000 -0.411
31.20000 2.671
31.22000 2.631
31.24000 7.915
31.26000 3.996
31.28000 0.144
31.30000 -0.984
31.32000 -2.879
31.34000 -0.364
31.36000 3.474
31.38000 7.236
31.40000 3.931
31.42000 6.798
31.44000 1.478
31.46000 -0.106
31.48000 -1.979
31.50000 2.540
31.52000 3.101
31.54000 1.506
31.56000 2.858
31.58000 3.373
31.60000 8.314
31.62000 2.803
31.64000 -0.822
31.66000 -0.956
31.68000 0.099
31.70000 -1.232
31.72000 -0.359
31.74000 3.204
31.76000 8.538
31.78000 8.387
31.80000 8.154
31.82000 3.010
31.84000 2.481
31.86000 1.998
31.88000 2.475
31.90000 4.669
31.92000 5.388
31.94000 2.911
31.96000 2.750
31.98000 3.486
32.00000 -3.609
32.02000 -2.773
32.04000 1.085
32.06000 -0.236
32.08000 0.654
32.10000 -1.904
32.12000 5.143
32.14000 1.038
32.16000 1.451
32.18000 1.494
32.20000 2.656
32.22000 1.278
32.24000 0.588
32.26000 4.855
32.28000 5.288
32.30000 7.030
32.32000 2.430
32.34000 5.637
32.36000 9.187
32.38000 6.659
32.40000 -0.258
32.42000 1.717
32.44000 6.778
32.46000 3.412
32.48000 7.189
32.50000 4.884
32.52000 0.674
32.54000 1.166
32.56000 4.693
32.58000 6.555
32.60000 9.194
32.62000 3.942
32.64000 8.606
32.66000 6.265
32.68000 6.067
32.70000 1.958
32.72000 2.765
32.74000 5.643
32.76000 5.876
32.78000 5.160
32.80000 0.914
32.82000 2.248
32.84000 -3.593
32.86000 -0.081
32.88000 1.001
32.90000 3.699
32.92000 1.987
32.94000 2.693
32.96000 3.283
32.98000 4.356
33.00000 2.372
33.02000 1.970
33.04000 0.501
33.06000 0.214
33.08000 3.764
33.10000 4.203
33.12000 -1.668
33.14000 7.734
33.16000 6.743
33.18000 4.710
33.20000 2.511
33.22000 -1.580
33.24000 2.337
33.26000 6.517
33.28000 7.041
33.30000 3.951
33.32000 1.606
33.34000 6.054
33.36000 6.566
33.38000 3.318
33.40000 4.906
33.42000 2.082
33.44000 1.028
33.46000 1.891
33.48000 3.699
33.50000 1.603
33.52000 0.531
33.54000 2.437
33.56000 4.835
33.58000 9.263
33.60000 6.184
33.62000 3.116
33.64000 6.014
33.66000 8.901
33.68000 3.634
33.70000 3.084
33.72000 4.009
33.74000 2.453
33.76000 4.684
33.78000 7.830
33.80000 7.389
33.82000 4.035
33.84000 1.700
33.86000 4.596
33.88000 6.231
33.90000 0.560
33.92000 0.078
33.94000 -0.591
33.96000 -0.486
33.98000 3.361
34.00000 1.111
34.02000 -1.313
34.04000 -1.737
34.06000 -1.996
34.08000 2.731
34.10000 5.062
34.12000 1.641
34.14000 0.222
34.16000 5.740
34.18000 1.826
34.20000 0.607
34.22000 3.541
34.24000 2.742
34.26000 2.696
34.28000 0.081
34.30000 3.549
34.32000 3.786
34.34000 5.671
34.36000 0.776
34.38000 8.167
34.40000 10.694
34.42000 2.539
34.44000 1.940
34.46000 0.853
34.48000 2.109
34.50000 3.512
34.52000 2.090
34.54000 4.704
34.56000 0.924
34.58000 1.238
34.60000 7.800
34.62000 4.665
34.64000 3.642
34.66000 2.840
34.68000 5.399
34.70000 3.452
34.72000 3.957
34.74000 6.780
34.76000 3.260
34.78000 5.749
34.80000 7.155
34.82000 2.567
34.84000 3.100
34.86000 1.262
34.88000 4.970
34.90000 1.311
34.92000 1.278
34.94000 0.025
34.96000 4.693
34.98000 5.878
35.00000 -0.796
35.02000 -0.904
35.04000 2.245
35.06000 0.017
35.08000 1.790
35.10000 3.471
35.12000 6.955
35.14000 5.396
35.16000 3.794
35.18000 1.703
35.20000 5.763
35.22000 8.490
35.24000 3.340
35.26000 4.985
35.28000 1.925
35.30000 -2.791
35.32000 -3.560
35.34000 -2.377
35.36000 0.231
35.38000 0.434
35.40000 2.194
35.42000 4.077
35.44000 2.539
35.46000 -0.323
35.48000 1.124
35.50000 2.097
35.52000 3.199
35.54000 1.426
35.56000 1.339
35.58000 1.216
35.60000 5.204
35.62000 6.605
35.64000 8.954
35.66000 6.421
35.68000 7.436
35.70000 3.027
35.72000 2.540
35.74000 5.639
35.76000 2.650
35.78000 2.624
35.80000 6.346
35.82000 5.913
35.84000 2.597
35.86000 4.744
35.88000 -0.469
35.90000 -3.160
35.92000 4.144
35.94000 3.050
35.96000 -1.012
35.98000 -1.467
36.00000 -0.025
36.02000 -1.855
36.04000 1.182
36.06000 4.161
36.08000 6.130
36.10000 4.968
36.12000 6.499
36.14000 5.656
36.16000 4.490
36.18000 7.979
36.20000 7.187
36.22000 2.913
36.24000 1.182
36.26000 2.224
36.28000 0.099
36.30000 -0.248
36.32000 0.711
36.34000 -3.624
36.36000 -0.123
36.38000 -1.306
36.40000 1.024
36.42000 3.180
36.44000 0.485
36.46000 5.179
36.48000 7.635
36.50000 7.374
36.52000 1.824
36.54000 -1.928
36.56000 -2.060
36.58000 0.360
36.60000 1.204
36.62000 3.826
36.64000 5.216
36.66000 5.681
36.68000 0.834
36.70000 5.302
36.72000 0.541
36.74000 -0.031
36.76000 3.383
36.78000 3.944
36.80000 3.015
36.82000 6.174
36.84000 8.648
36.86000 8.234
36.88000 6.016
36.90000 -1.774
36.92000 1.845
36.94000 6.301
36.96000 5.107
36.98000 6.718
37.00000 7.353
37.02000 5.455
37.04000 3.772
37.06000 5.551
37.08000 8.205
37.10000 7.143
37.12000 2.614
37.14000 5.416
37.16000 7.150
37.18000 3.294
37.20000 2.517
37.22000 6.980
37.24000 10.289
37.26000 2.649
37.28000 2.078
37.30000 4.935
37.32000 3.555
37.34000 6.216
37.36000 6.265
37.38000 5.878
37.40000 8.148
37.42000 13.347
37.44000 9.729
37.46000 10.581
37.48000 10.451
37.50000 14.123
37.52000 11.834
37.54000 9.310
37.56000 11.523
37.58000 15.954
37.60000 14.225
37.62000 12.701
37.64000 14.117
37.66000 15.065
37.68000 13.415
37.70000 17.412
37.72000 22.845
37.74000 22.441
37.76000 22.020
37.78000 22.823
37.80000 22.508
37.82000 18.869
37.84000 20.370
37.86000 24.633
37.88000 22.045
37.90000 24.125
37.92000 27.522
37.94000 23.765
37.96000 23.926
37.98000 24.825
38.00000 27.904
38.02000 29.362
38.04000 25.434
38.06000 28.095
38.08000 27.684
38.10000 30.221
38.12000 36.676
38.14000 36.813
38.16000 36.337
38.18000 41.186
38.20000 37.221
38.22000 37.314
38.24000 40.384
38.26000 46.366
38.28000 47.522
38.30000 50.143
38.32000 52.505
38.34000 50.112
38.36000 52.158
38.38000 59.196
38.40000 60.381
38.42000 54.698
38.44000 62.614
38.46000 70.524
38.48000 69.166
38.50000 67.961
38.52000 71.826
38.54000 78.733
38.56000 85.590
38.58000 87.863
38.60000 81.799
38.62000 85.573
38.64000 96.423
38.66000 101.824
38.68000 108.071
38.70000 117.814
38.72000 121.891
38.74000 129.403
38.76000 138.278
38.78000 146.134
38.80000 146.393
38.82000 151.412
38.84000 165.453
38.86000 180.799
38.88000 195.479
38.90000 203.881
38.92000 216.636
38.94000 226.161
38.96000 247.913
38.98000 261.486
39.00000 266.069
39.02000 275.840
39.04000 295.349
39.06000 314.332
39.08000 335.078
39.10000 356.642
39.12000 367.951
39.14000 398.306
39.16000 414.652
39.18000 423.778
39.20000 441.212
39.22000 460.126
39.24000 468.353
39.26000 482.812
39.28000 493.477
39.30000 504.150
39.32000 513.315
39.34000 526.312
39.36000 525.129
39.38000 517.312
39.40000 514.041
39.42000 501.837
39.44000 508.497
39.46000 497.062
39.48000 488.336
39.50000 484.357
39.52000 482.549
39.54000 460.399
39.56000 431.310
39.58000 418.115
39.60000 402.639
39.62000 388.027
39.64000 371.880
39.66000 356.966
39.68000 332.062
39.70000 324.986
39.72000 311.532
39.74000 285.206
39.76000 263.990
39.78000 252.757
39.80000 241.386
39.82000 223.477
39.84000 214.086
39.86000 196.719
39.88000 183.673
39.90000 176.984
39.92000 161.028
39.94000 151.829
39.96000 139.918
39.98000 134.331
40.00000 126.040
40.02000 118.572
40.04000 109.398
40.06000 104.621
40.08000 98.038
40.10000 89.543
40.12000 82.065
40.14000 80.833
40.16000 78.852
40.18000 70.881
40.20000 65.800
40.22000 65.564
40.24000 60.951
40.26000 52.629
40.28000 49.931
40.30000 48.126
40.32000 45.460
40.34000 44.316
40.36000 44.550
40.38000 40.971
40.40000 36.072
40.42000 30.241
40.44000 33.625
40.46000 29.571
40.48000 32.126
40.50000 32.778
40.52000 30.573
40.54000 28.656
40.56000 21.608
40.58000 17.841
40.60000 21.801
40.62000 20.393
40.64000 25.713
40.66000 27.005
40.68000 21.546
40.70000 18.226
40.72000 17.521
40.74000 20.063
40.76000 21.007
40.78000 18.785
40.80000 14.535
40.82000 14.109
40.84000 19.592
40.86000 17.391
40.88000 10.603
40.90000 8.863
40.92000 13.659
40.94000 11.403
40.96000 7.689
40.98000 8.961
41.00000 8.991
41.02000 8.609
41.04000 6.494
41.06000 6.480
41.08000 5.674
41.10000 4.897
41.12000 3.869
41.14000 7.530
41.16000 6.851
41.18000 6.764
41.20000 3.786
41.22000 5.237
41.24000 4.562
41.26000 4.976
41.28000 7.754
41.30000 3.503
41.32000 2.903
41.34000 5.085
41.36000 1.958
41.38000 1.498
41.40000 1.779
41.42000 0.699
41.44000 2.159
41.46000 -0.325
41.48000 -3.289
41.50000 3.634
41.52000 3.812
41.54000 4.253
41.56000 4.506
41.58000 -0.413
41.60000 1.217
41.62000 4.079
41.64000 1.862
41.66000 2.870
41.68000 0.493
41.70000 -1.154
41.72000 -1.472
41.74000 0.702
41.76000 -1.458
41.78000 -0.489
41.80000 -0.428
41.82000 1.077
41.84000 4.915
41.86000 -1.094
41.88000 -0.864
41.90000 3.769
41.92000 3.130
41.94000 0.664
41.96000 1.002
41.98000 2.638
42.00000 3.323
42.02000 2.680
42.04000 3.829
42.06000 -0.110
42.08000 -0.526
42.10000 2.500
42.12000 0.849
42.14000 0.014
42.16000 2.218
42.18000 -1.333
42.20000 -3.069
42.22000 2.706
42.24000 0.184
42.26000 -0.234
42.28000 -0.022
42.30000 -1.673
42.32000 -3.308
42.34000 -0.582
42.36000 2.843
42.38000 0.515
42.40000 0.900
42.42000 1.227
42.44000 -1.816
42.46000 -1.706
42.48000 -3.228
42.50000 0.838
42.52000 2.997
42.54000 3.774
42.56000 5.324
42.58000 2.272
42.60000 -3.261
42.62000 2.658
42.64000 -1.197
42.66000 -0.926
42.68000 2.423
42.70000 -0.103
42.72000 -1.509
42.74000 -0.364
42.76000 -1.429
42.78000 2.512
42.80000 2.497
42.82000 4.494
42.84000 2.306
42.86000 1.710
42.88000 1.337
42.90000 3.211
42.92000 1.906
42.94000 -3.242
42.96000 -2.084
42.98000 -0.730
43.00000 -2.085
43.02000 -1.148
43.04000 -2.630
43.06000 0.588
43.08000 -1.658
43.10000 -1.114
43.12000 4.889
43.14000 2.657
43.16000 1.871
43.18000 0.527
43.20000 1.130
43.22000 0.878
43.24000 -1.157
43.26000 -2.330
43.28000 -0.941
43.30000 -1.525
43.32000 3.062
43.34000 1.166
43.36000 1.663
43.38000 1.793
43.40000 -1.216
43.42000 -1.188
43.44000 0.634
43.46000 -1.721
43.48000 -0.974
43.50000 0.083
43.52000 1.858
43.54000 1.747
43.56000 -2.105
43.58000 -2.284
43.60000 -1.011
43.62000 1.168
43.64000 1.608
43.66000 -0.594
43.68000 -0.151
43.70000 0.917
43.72000 0.951
43.74000 1.948
43.76000 0.814
43.78000 -1.693
43.80000 0.270
43.82000 -1.459
43.84000 -0.618
43.86000 3.243
43.88000 1.534
43.90000 2.014
43.92000 2.199
43.94000 -0.715
43.96000 -0.700
43.98000 -0.579
44.00000 -1.478
44.02000 -1.240
44.04000 2.281
44.06000 4.505
44.08000 -1.431
44.10000 -3.135
44.12000 -0.918
44.14000 4.602
44.16000 2.552
44.18000 1.085
44.20000 4.606
44.22000 2.578
44.24000 1.264
44.26000 2.273
44.28000 0.846
44.30000 -0.397
44.32000 2.425
44.34000 3.033
44.36000 3.116
44.38000 3.199
44.40000 2.257
44.42000 3.050
44.44000 6.976
44.46000 6.909
44.48000 7.230
44.50000 2.221
44.52000 0.855
44.54000 1.897
44.56000 2.520
44.58000 2.803
44.60000 0.835
44.62000 0.744
44.64000 6.851
44.66000 5.863
44.68000 5.313
44.70000 0.329
44.72000 3.783
44.74000 9.325
44.76000 8.106
44.78000 7.527
44.80000 11.418
44.82000 4.812
44.84000 7.120
44.86000 12.354
44.88000 10.227
44.90000 8.255
44.92000 10.878
44.94000 9.763
44.96000 11.148
44.98000 13.487
45.00000 11.414
45.02000 9.250
45.04000 9.341
45.06000 16.443
45.08000 18.322
45.10000 13.309
45.12000 14.442
45.14000 11.164
45.16000 10.157
45.18000 14.217
45.20000 16.208
45.22000 20.335
45.24000 21.593
45.26000 19.146
45.28000 20.243
45.30000 22.714
45.32000 23.632
45.34000 23.185
45.36000 25.507
45.38000 27.947
45.40000 30.290
45.42000 29.653
45.44000 33.063
45.46000 32.357
45.48000 34.957
45.50000 36.950
45.52000 34.800
45.54000 37.217
45.56000 41.404
45.58000 42.949
45.60000 42.395
45.62000 43.576
45.64000 44.642
45.66000 44.596
45.68000 45.302
45.70000 47.557
45.72000 55.241
45.74000 56.595
45.76000 56.671
45.78000 55.455
45.80000 59.635
45.82000 59.764
45.84000 59.765
45.86000 58.119
45.88000 60.167
45.90000 61.780
45.92000 60.164
45.94000 61.769
45.96000 65.832
45.98000 67.496
46.00000 63.111
46.02000 62.510
46.04000 67.466
46.06000 67.127
46.08000 61.536
46.10000 61.635
46.12000 63.057
46.14000 61.873
46.16000 60.821
46.18000 57.320
46.20000 57.511
46.22000 57.570
46.24000 54.619
46.26000 58.499
46.28000 55.933
46.30000 53.623
46.32000 54.926
46.34000 52.095
46.36000 50.779
46.38000 48.216
46.40000 47.826
46.42000 40.109
46.44000 38.710
46.46000 35.085
46.48000 39.480
46.50000 40.122
46.52000 36.394
46.54000 36.278
46.56000 34.793
46.58000 31.338
46.60000 29.856
46.62000 28.173
46.64000 26.758
46.66000 22.322
46.68000 23.265
46.70000 23.329
46.72000 21.015
46.74000 16.258
46.76000 14.796
46.78000 14.891
46.80000 18.428
46.82000 20.773
46.84000 13.614
46.86000 10.103
46.88000 14.078
46.90000 13.864
46.92000 11.429
46.94000 12.091
46.96000 8.675
46.98000 7.915
47.00000 7.491
47.02000 9.904
47.04000 6.464
47.06000 8.319
47.08000 5.564
47.10000 1.814
47.12000 5.153
47.14000 5.413
47.16000 3.701
47.18000 6.004
47.20000 6.256
47.22000 7.775
47.24000 2.424
47.26000 -2.806
47.28000 2.309
47.30000 1.892
47.32000 -2.210
47.34000 1.534
47.36000 3.715
47.38000 4.453
47.40000 7.075
47.42000 2.945
47.44000 -0.303
47.46000 2.017
47.48000 4.991
47.50000 4.547
47.52000 2.821
47.54000 -0.135
47.56000 -0.110
47.58000 0.397
47.60000 3.425
47.62000 -0.948
47.64000 -2.171
47.66000 -0.106
47.68000 2.747
47.70000 3.124
47.72000 4.304
47.74000 4.584
47.76000 1.137
47.78000 -0.130
47.80000 1.307
47.82000 0.935
47.84000 1.769
47.86000 1.520
47.88000 2.859
47.90000 1.936
47.92000 0.228
47.94000 3.630
47.96000 4.188
47.98000 -0.368
48.00000 -2.692
48.02000 1.288
48.04000 0.887
48.06000 -0.845
48.08000 1.995
48.10000 3.910
48.12000 3.850
48.14000 2.355
48.16000 3.432
48.18000 2.085
48.20000 3.307
48.22000 4.591
48.24000 5.333
48.26000 1.618
48.28000 -0.276
48.30000 1.674
48.32000 -0.021
48.34000 2.895
48.36000 3.037
48.38000 6.137
48.40000 5.789
48.42000 5.440
48.44000 2.033
48.46000 -0.305
48.48000 -2.627
48.50000 -2.396
48.52000 -0.633
48.54000 -0.410
48.56000 2.529
48.58000 1.456
48.60000 1.087
48.62000 1.788
48.64000 2.723
48.66000 -1.016
48.68000 -1.238
48.70000 -0.593
48.72000 -1.237
48.74000 1.162
48.76000 2.020
48.78000 5.369
48.80000 3.169
48.82000 2.445
48.84000 -0.768
48.86000 -0.643
48.88000 2.897
48.90000 1.726
48.92000 0.815
48.94000 -0.620
48.96000 -0.749
48.98000 -1.559
49.00000 2.035
49.02000 2.416
49.04000 3.425
49.06000 1.505
49.08000 5.732
49.10000 6.884
49.12000 2.761
49.14000 -0.127
49.16000 2.863
49.18000 2.898
49.20000 1.963
49.22000 0.622
49.24000 0.858
49.26000 -0.032
49.28000 -0.630
49.30000 2.985
49.32000 6.816
49.34000 4.025
49.36000 0.579
49.38000 6.182
49.40000 8.326
49.42000 1.230
49.44000 -1.618
49.46000 3.483
49.48000 2.797
49.50000 -1.645
49.52000 -1.472
49.54000 -2.116
49.56000 -1.593
49.58000 -0.816
49.60000 -1.601
49.62000 -2.481
49.64000 -2.596
49.66000 0.577
49.68000 3.975
49.70000 0.257
49.72000 2.474
49.74000 2.890
49.76000 0.148
49.78000 0.972
49.80000 -0.207
49.82000 2.224
49.84000 2.803
49.86000 -0.326
49.88000 2.000
49.90000 1.926
49.92000 -1.565
49.94000 -0.370
49.96000 1.960
49.98000 0.859
50.00000 -0.256
50.02000 2.485
50.04000 0.660
50.06000 0.828
50.08000 2.049
50.10000 -0.368
50.12000 -0.359
50.14000 2.010
50.16000 5.077
50.18000 3.772
50.20000 1.943
50.22000 0.680
50.24000 -0.737
50.26000 3.762
50.28000 4.525
50.30000 2.000
50.32000 0.681
50.34000 3.857
50.36000 3.322
50.38000 2.165
50.40000 1.518
50.42000 3.605
50.44000 3.227
50.46000 4.240
50.48000 4.995
50.50000 4.627
50.52000 2.135
50.54000 -2.530
50.56000 -2.151
50.58000 2.581
50.60000 2.603
50.62000 2.559
50.64000 -0.366
50.66000 3.017
50.68000 4.278
50.70000 1.809
50.72000 4.786
50.74000 5.098
50.76000 4.914
50.78000 4.423
50.80000 3.837
50.82000 3.849
50.84000 -0.073
50.86000 -0.351
50.88000 1.590
50.90000 -1.788
50.92000 6.117
50.94000 2.678
50.96000 0.796
50.98000 -0.074
51.00000 -0.888
51.02000 1.254
51.04000 1.853
51.06000 2.813
51.08000 1.683
51.10000 2.011
51.12000 0.672
51.14000 4.448
51.16000 6.500
51.18000 4.361
51.20000 1.914
51.22000 2.170
51.24000 1.630
51.26000 -0.669
51.28000 3.077
51.30000 4.774
51.32000 3.610
51.34000 3.170
51.36000 4.515
51.38000 2.338
51.40000 -1.884
51.42000 1.313
51.44000 4.492
51.46000 3.317
51.48000 -0.973
51.50000 1.841
51.52000 2.292
51.54000 2.671
51.56000 3.448
51.58000 -1.654
51.60000 -1.638
51.62000 3.931
51.64000 2.826
51.66000 -1.618
51.68000 -0.234
51.70000 4.087
51.72000 4.938
51.74000 3.881
51.76000 3.516
51.78000 2.756
51.80000 0.963
51.82000 1.610
51.84000 2.268
51.86000 1.884
51.88000 2.547
51.90000 0.968
51.92000 2.283
51.94000 3.933
51.96000 2.520
51.98000 3.537
52.00000 2.069
52.02000 -1.490
52.04000 -0.958
52.06000 -2.273
52.08000 2.065
52.10000 -0.111
52.12000 -2.486
52.14000 2.186
52.16000 5.021
52.18000 3.511
52.20000 1.481
52.22000 3.590
52.24000 3.334
52.26000 2.786
52.28000 3.710
52.30000 3.460
52.32000 -0.952
52.34000 0.523
52.36000 0.421
52.38000 0.553
52.40000 2.800
52.42000 2.478
52.44000 2.456
52.46000 1.782
52.48000 2.018
52.50000 -0.655
52.52000 0.440
52.54000 4.722
52.56000 0.888
52.58000 0.169
52.60000 0.561
52.62000 2.974
52.64000 3.503
52.66000 -0.102
52.68000 1.173
52.70000 0.865
52.72000 1.548
52.74000 0.741
52.76000 3.941
52.78000 4.288
52.80000 2.920
52.82000 1.114
52.84000 1.295
52.86000 1.499
52.88000 -0.673
52.90000 3.822
52.92000 2.456
52.94000 0.531
52.96000 -0.005
52.98000 0.174
53.00000 0.641
53.02000 -0.213
53.04000 0.186
53.06000 2.038
53.08000 2.043
53.10000 -1.332
53.12000 -0.583
53.14000 -1.377
53.16000 -0.442
53.18000 0.615
53.20000 2.622
53.22000 -0.450
53.24000 0.798
53.26000 -1.750
53.28000 -2.386
53.30000 0.587
53.32000 1.960
53.34000 -1.329
53.36000 2.810
53.38000 3.174
53.40000 3.301
53.42000 1.582
53.44000 1.778
53.46000 0.909
53.48000 1.501
53.50000 3.717
53.52000 2.623
53.54000 0.333
53.56000 -0.397
53.58000 -0.216
53.60000 2.998
53.62000 1.793
53.64000 -0.332
53.66000 -0.002
53.68000 0.400
53.70000 3.967
53.72000 4.228
53.74000 2.546
53.76000 3.664
53.78000 3.801
53.80000 2.049
53.82000 2.875
53.84000 1.340
53.86000 0.707
53.88000 0.204
53.90000 0.071
53.92000 -1.286
53.94000 -2.440
53.96000 3.380
53.98000 0.864
54.00000 -0.785
54.02000 0.941
54.04000 5.591
54.06000 10.886
54.08000 7.125
54.10000 4.449
54.12000 1.211
54.14000 -1.161
54.16000 -0.741
54.18000 2.175
54.20000 2.520
54.22000 0.586
54.24000 -1.765
54.26000 -1.364
54.28000 1.467
54.30000 3.374
54.32000 5.348
54.34000 5.348
54.36000 5.753
54.38000 5.423
54.40000 2.134
54.42000 -1.598
54.44000 0.590
54.46000 -0.708
54.48000 -0.366
54.50000 3.732
54.52000 4.789
54.54000 2.646
54.56000 4.136
54.58000 4.914
54.60000 2.579
54.62000 2.256
54.64000 0.930
54.66000 1.346
54.68000 2.930
54.70000 4.634
54.72000 5.234
54.74000 0.368
54.76000 1.816
54.78000 2.954
54.80000 0.372
54.82000 -0.535
54.84000 -1.096
54.86000 -1.091
54.88000 0.780
54.90000 0.823
54.92000 3.404
54.94000 5.238
54.96000 2.053
54.98000 0.437
55.00000 0.500
55.02000 2.571
55.04000 5.929
55.06000 -0.427
55.08000 -1.443
55.10000 -2.408
55.12000 4.633
55.14000 4.950
55.16000 7.689
55.18000 3.175
55.20000 1.266
55.22000 4.216
55.24000 3.192
55.26000 3.630
55.28000 1.531
55.30000 3.565
55.32000 2.726
55.34000 1.758
55.36000 1.689
55.38000 1.165
55.40000 1.753
55.42000 0.701
55.44000 0.778
55.46000 -2.401
55.48000 -1.428
55.50000 1.846
55.52000 2.916
55.54000 5.113
55.56000 2.855
55.58000 3.155
55.60000 5.907
55.62000 3.815
55.64000 1.807
55.66000 1.547
55.68000 1.476
55.70000 1.810
55.72000 -1.250
55.74000 4.086
55.76000 0.952
55.78000 2.640
55.80000 -1.094
55.82000 -0.764
55.84000 -0.137
55.86000 3.311
55.88000 3.699
55.90000 6.382
55.92000 7.841
55.94000 5.723
55.96000 2.168
55.98000 3.891
56.00000 5.578
56.02000 3.925
56.04000 1.491
56.06000 3.010
56.08000 0.320
56.10000 3.032
56.12000 4.936
56.14000 4.618
56.16000 3.590
56.18000 2.139
56.20000 6.025
56.22000 7.525
56.24000 3.046
56.26000 6.069
56.28000 2.192
56.30000 0.215
56.32000 0.550
56.34000 4.713
56.36000 3.770
56.38000 4.307
56.40000 6.953
56.42000 7.089
56.44000 1.664
56.46000 1.022
56.48000 1.639
56.50000 4.142
56.52000 3.790
56.54000 4.804
56.56000 8.557
56.58000 5.105
56.60000 4.543
56.62000 4.053
56.64000 5.080
56.66000 2.740
56.68000 0.435
56.70000 3.424
56.72000 6.677
56.74000 4.932
56.76000 2.855
56.78000 -2.348
56.80000 5.011
56.82000 6.778
56.84000 3.071
56.86000 3.545
56.88000 2.817
56.90000 2.302
56.92000 0.027
56.94000 6.599
56.96000 4.405
56.98000 -2.344
57.00000 -1.219
57.02000 3.373
57.04000 0.717
57.06000 2.065
57.08000 3.036
57.10000 1.111
57.12000 2.677
57.14000 3.488
57.16000 -0.185
57.18000 0.329
57.20000 0.689
57.22000 2.671
57.24000 1.599
57.26000 -0.532
57.28000 0.405
57.30000 4.985
57.32000 6.544
57.34000 1.835
57.36000 0.802
57.38000 1.743
57.40000 -2.209
57.42000 0.158
57.44000 1.206
57.46000 2.332
57.48000 1.148
57.50000 1.753
57.52000 2.878
57.54000 5.683
57.56000 2.556
57.58000 2.759
57.60000 1.417
57.62000 -0.084
57.64000 0.265
57.66000 -0.434
57.68000 0.356
57.70000 0.970
57.72000 2.401
57.74000 2.119
57.76000 2.813
57.78000 1.781
57.80000 1.750
57.82000 2.165
57.84000 0.804
57.86000 2.005
57.88000 3.064
57.90000 3.560
57.92000 1.026
57.94000 1.189
57.96000 -0.276
57.98000 0.175
58.00000 2.833
58.02000 3.053
58.04000 -0.137
58.06000 2.235
58.08000 4.021
58.10000 3.190
58.12000 1.498
58.14000 1.358
58.16000 0.337
58.18000 -0.646
58.20000 -1.534
58.22000 -0.787
58.24000 -1.966
58.26000 -2.020
58.28000 -2.235
58.30000 1.897
58.32000 0.644
58.34000 -0.544
58.36000 1.279
58.38000 2.810
58.40000 5.215
58.42000 2.731
58.44000 3.535
58.46000 2.790
58.48000 3.722
58.50000 4.125
58.52000 5.636
58.54000 2.785
58.56000 1.162
58.58000 2.427
58.60000 0.183
58.62000 0.695
58.64000 2.928
58.66000 1.363
58.68000 -1.287
58.70000 3.067
58.72000 4.854
58.74000 7.386
58.76000 2.542
58.78000 2.402
58.80000 -0.213
58.82000 -1.027
58.84000 3.301
58.86000 1.325
58.88000 0.830
58.90000 0.350
58.92000 -1.980
58.94000 -0.962
58.96000 1.466
58.98000 5.806
59.00000 8.398
59.02000 3.564
59.04000 1.167
59.06000 1.301
59.08000 1.783
59.10000 -1.036
59.12000 -1.437
59.14000 -2.304
59.16000 2.203
59.18000 4.605
59.20000 2.911
59.22000 1.564
59.24000 3.718
59.26000 1.522
59.28000 1.536
59.30000 2.557
59.32000 1.360
59.34000 3.184
59.36000 2.820
59.38000 2.447
59.40000 2.356
59.42000 -0.058
59.44000 -1.184
59.46000 0.588
59.48000 -1.591
59.50000 -0.635
59.52000 -2.166
59.54000 -2.296
59.56000 2.999
59.58000 2.006
59.60000 0.862
59.62000 -1.187
59.64000 1.347
59.66000 1.730
59.68000 0.213
59.70000 3.507
59.72000 4.600
59.74000 1.620
59.76000 1.308
59.78000 1.955
59.80000 0.878
59.82000 1.134
59.84000 1.271
59.86000 0.589
59.88000 1.010
59.90000 1.796
59.92000 2.611
59.94000 1.563
59.96000 -0.089
59.98000 -1.742
60.00000 1.033
60.02000 2.811
60.04000 4.591
60.06000 3.849
60.08000 1.390
60.10000 3.413
60.12000 4.236
60.14000 3.997
60.16000 7.171
60.18000 5.573
60.20000 2.004
60.22000 1.720
60.24000 6.178
60.26000 5.324
60.28000 1.048
60.30000 -0.157
60.32000 -1.572
60.34000 1.809
60.36000 3.404
60.38000 1.533
60.40000 1.998
60.42000 4.563
60.44000 5.372
60.46000 0.900
60.48000 1.757
60.50000 3.079
60.52000 1.501
60.54000 2.424
60.56000 3.472
60.58000 0.268
60.60000 -0.372
60.62000 -0.567
60.64000 2.987
60.66000 3.407
60.68000 1.798
60.70000 3.364
60.72000 2.152
60.74000 -0.507
60.76000 -1.635
60.78000 -2.253
60.80000 -1.628
60.82000 0.491
60.84000 0.696
60.86000 1.811
60.88000 1.310
60.90000 -2.253
60.92000 0.820
60.94000 1.922
60.96000 2.440
60.98000 5.174
61.00000 1.399
61.02000 -0.822
61.04000 1.726
61.06000 0.668
61.08000 0.068
61.10000 -1.503
61.12000 0.083
61.14000 -1.366
61.16000 -0.713
61.18000 2.688
61.20000 1.405
61.22000 1.552
61.24000 2.536
61.26000 1.441
61.28000 1.653
61.30000 1.735
61.32000 1.130
61.34000 3.445
61.36000 1.683
61.38000 -1.632
61.40000 2.794
61.42000 2.482
61.44000 1.273
61.46000 2.063
61.48000 3.596
61.50000 2.771
61.52000 3.531
61.54000 4.148
61.56000 3.209
61.58000 2.301
61.60000 1.642
61.62000 1.992
61.64000 1.553
61.66000 2.913
61.68000 0.560
61.70000 3.453
61.72000 0.696
61.74000 0.424
61.76000 2.278
61.78000 -1.462
61.80000 0.503
61.82000 1.369
61.84000 -0.669
61.86000 -2.148
61.88000 0.224
61.90000 1.135
61.92000 0.997
61.94000 1.756
61.96000 0.709
61.98000 0.548
62.00000 1.499
62.02000 4.126
62.04000 5.091
62.06000 0.597
62.08000 -0.352
62.10000 2.399
62.12000 3.919
62.14000 1.828
62.16000 0.539
62.18000 -0.997
62.20000 -0.833
62.22000 -0.478
62.24000 1.589
62.26000 0.532
62.28000 5.173
62.30000 6.625
62.32000 5.904
62.34000 0.452
62.36000 0.504
62.38000 4.835
62.40000 2.584
62.42000 0.459
62.44000 3.167
62.46000 0.092
62.48000 -2.200
62.50000 2.696
62.52000 4.258
62.54000 1.662
62.56000 3.755
62.58000 3.785
62.60000 0.550
62.62000 3.369
62.64000 4.959
62.66000 2.881
62.68000 2.930
62.70000 1.074
62.72000 1.191
62.74000 0.857
62.76000 0.756
62.78000 2.539
62.80000 0.850
62.82000 0.825
62.84000 2.739
62.86000 4.678
62.88000 4.798
62.90000 2.714
62.92000 -0.990
62.94000 -0.863
62.96000 1.690
62.98000 1.923
63.00000 5.963
63.02000 6.409
63.04000 3.513
63.06000 4.562
63.08000 3.643
63.10000 4.318
63.12000 3.473
63.14000 2.214
63.16000 -2.178
63.18000 -0.079
63.20000 5.254
63.22000 4.094
63.24000 3.422
63.26000 2.901
63.28000 3.585
63.30000 2.911
63.32000 0.200
63.34000 2.319
63.36000 4.261
63.38000 3.008
63.40000 4.322
63.42000 1.121
63.44000 -0.966
63.46000 2.238
63.48000 1.946
63.50000 1.811
63.52000 4.424
63.54000 4.413
63.56000 5.510
63.58000 7.803
63.60000 4.153
63.62000 1.820
63.64000 -2.198
63.66000 0.407
63.68000 2.626
63.70000 0.685
63.72000 4.209
63.74000 2.496
63.76000 1.579
63.78000 2.181
63.80000 4.338
63.82000 2.201
63.84000 0.891
63.86000 1.247
63.88000 5.168
63.90000 3.738
63.92000 0.572
63.94000 0.486
63.96000 -0.789
63.98000 -0.884
64.00000 -2.206
64.02000 0.687
64.04000 -1.507
64.06000 2.000
64.08000 0.802
64.10000 -0.277
64.12000 0.181
64.14000 1.092
64.16000 1.584
64.18000 -0.626
64.20000 -2.067
64.22000 -0.747
64.24000 0.208
64.26000 2.450
64.28000 -1.205
64.30000 -1.077
64.32000 2.260
64.34000 2.915
64.36000 2.054
64.38000 2.407
64.40000 0.524
64.42000 0.093
64.44000 0.287
64.46000 0.884
64.48000 -1.860
64.50000 1.662
64.52000 -0.197
64.54000 1.239
64.56000 4.591
64.58000 2.513
64.60000 -1.302
64.62000 0.915
64.64000 2.689
64.66000 4.303
64.68000 4.023
64.70000 4.909
64.72000 2.735
64.74000 2.052
64.76000 -0.521
64.78000 -0.736
64.80000 -1.467
64.82000 2.531
64.84000 3.062
64.86000 2.954
64.88000 3.059
64.90000 2.446
64.92000 0.813
64.94000 3.123
64.96000 1.624
64.98000 0.282
65.00000 0.257
65.02000 -1.016
65.04000 -0.662
65.06000 2.337
65.08000 1.697
65.10000 0.529
65.12000 -0.739
65.14000 -0.303
65.16000 1.164
65.18000 -2.208
65.20000 1.063
65.22000 3.274
65.24000 1.329
65.26000 -0.392
65.28000 1.850
65.30000 1.588
65.32000 0.619
65.34000 -2.164
65.36000 1.040
65.38000 0.052
65.40000 0.852
65.42000 1.036
65.44000 -1.056
65.46000 -0.196
65.48000 1.623
65.50000 -1.968
65.52000 -0.284
65.54000 0.377
65.56000 1.653
65.58000 -1.612
65.60000 -2.225
65.62000 0.800
65.64000 1.412
65.66000 -0.335
65.68000 0.669
65.70000 1.221
65.72000 2.360
65.74000 0.917
65.76000 0.302
65.78000 -1.068
65.80000 -0.739
65.82000 0.164
65.84000 -0.402
65.86000 -0.743
65.88000 1.357
65.90000 -0.463
65.92000 1.614
65.94000 1.078
65.96000 1.339
65.98000 2.161
66.00000 -0.398
66.02000 -1.637
66.04000 -2.230
66.06000 0.070
66.08000 0.859
66.10000 -0.632
66.12000 0.685
66.14000 -0.434
66.16000 -0.221
66.18000 1.860
66.20000 -0.379
66.22000 0.887
66.24000 1.108
66.26000 -0.103
66.28000 1.113
66.30000 2.701
66.32000 3.099
66.34000 2.275
66.36000 -0.441
66.38000 2.630
66.40000 2.876
66.42000 3.554
66.44000 3.477
66.46000 2.674
66.48000 3.694
66.50000 1.914
66.52000 4.303
66.54000 3.672
66.56000 5.430
66.58000 4.274
66.60000 3.964
66.62000 6.219
66.64000 5.825
66.66000 8.118
66.68000 6.542
66.70000 5.541
66.72000 5.741
66.74000 6.107
66.76000 6.222
66.78000 6.709
66.80000 7.814
66.82000 10.539
66.84000 6.893
66.86000 7.640
66.88000 7.602
66.90000 5.522
66.92000 5.992
66.94000 11.024
66.96000 9.334
66.98000 7.162
67.00000 8.173
67.02000 7.841
67.04000 7.540
67.06000 9.029
67.08000 6.439
67.10000 7.939
67.12000 6.169
67.14000 6.173
67.16000 9.102
67.18000 9.412
67.20000 7.336
67.22000 7.304
67.24000 7.443
67.26000 6.500
67.28000 7.943
67.30000 9.017
67.32000 5.824
67.34000 4.552
67.36000 4.362
67.38000 5.450
67.40000 3.406
67.42000 2.774
67.44000 2.798
67.46000 1.933
67.48000 2.073
67.50000 0.789
67.52000 3.069
67.54000 3.357
67.56000 1.159
67.58000 -0.645
67.60000 2.406
67.62000 4.328
67.64000 2.789
67.66000 1.862
67.68000 2.004
67.70000 2.036
67.72000 3.964
67.74000 2.037
67.76000 1.669
67.78000 0.098
67.80000 1.590
67.82000 3.124
67.84000 2.872
67.86000 2.084
67.88000 2.717
67.90000 0.748
67.92000 0.526
67.94000 0.805
67.96000 0.757
67.98000 1.921
68.00000 0.097
68.02000 1.307
68.04000 1.287
68.06000 1.751
68.08000 1.840
68.10000 0.483
68.12000 -0.152
68.14000 0.529
68.16000 2.996
68.18000 3.487
68.20000 0.794
68.22000 1.412
68.24000 0.616
68.26000 1.000
68.28000 1.020
68.30000 0.594
68.32000 -1.261
68.34000 1.609
68.36000 2.932
68.38000 2.325
68.40000 5.307
68.42000 5.202
68.44000 3.337
68.46000 2.052
68.48000 2.621
68.50000 1.806
68.52000 4.046
68.54000 3.668
68.56000 -1.730
68.58000 -2.044
68.60000 1.190
68.62000 1.659
68.64000 2.193
68.66000 2.451
68.68000 3.211
68.70000 4.518
68.72000 2.229
68.74000 1.228
68.76000 1.991
68.78000 1.803
68.80000 0.729
68.82000 0.717
68.84000 0.076
68.86000 0.309
68.88000 2.979
68.90000 1.608
68.92000 1.059
68.94000 1.996
68.96000 -0.026
68.98000 1.310
69.00000 1.471
69.02000 2.971
69.04000 1.141
69.06000 -1.892
69.08000 1.006
69.10000 2.362
69.12000 0.385
69.14000 -0.254
69.16000 -0.294
69.18000 2.109
69.20000 1.900
69.22000 0.886
69.24000 3.151
69.26000 1.412
69.28000 1.096
69.30000 2.201
69.32000 1.126
69.34000 -0.027
69.36000 0.141
69.38000 1.492
69.40000 -0.516
69.42000 -1.352
69.44000 -1.914
69.46000 -0.160
69.48000 -0.176
69.50000 -1.487
69.52000 -0.683
69.54000 -0.859
69.56000 1.472
69.58000 -1.361
69.60000 -0.500
69.62000 0.244
69.64000 0.266
69.66000 -0.925
69.68000 0.055
69.70000 0.727
69.72000 -1.236
69.74000 -0.982
69.76000 -0.192
69.78000 0.132
69.80000 -0.414
69.82000 -0.149
69.84000 -0.808
69.86000 1.063
69.88000 -1.636
69.90000 -0.156
69.92000 0.889
69.94000 2.223
69.96000 2.335
69.98000 -1.419
70.00000 -1.183
70.02000 1.072
70.04000 2.420
70.06000 0.262
70.08000 2.027
70.10000 0.978
70.12000 -0.264
70.14000 -0.046
70.16000 -0.384
70.18000 -0.949
70.20000 -0.087
70.22000 -0.868
70.24000 1.398
70.26000 0.290
70.28000 -0.524
70.30000 -2.030
70.32000 -0.936
70.34000 1.689
70.36000 -0.437
70.38000 0.833
70.40000 2.280
70.42000 0.983
70.44000 1.202
70.46000 -0.676
70.48000 -2.015
70.50000 -2.014
70.52000 -1.197
70.54000 -1.672
70.56000 -0.162
70.58000 -1.915
70.60000 -1.030
70.62000 -0.896
70.64000 0.348
70.66000 -0.447
70.68000 -0.206
70.70000 -0.440
70.72000 1.313
70.74000 -1.277
70.76000 -0.111
70.78000 -0.426
70.80000 0.569
70.82000 1.114
70.84000 0.659
70.86000 1.650
70.88000 2.167
70.90000 -0.020
70.92000 -1.989
70.94000 -0.120
70.96000 1.288
70.98000 1.340
71.00000 0.852
71.02000 1.547
71.04000 -1.233
71.06000 2.652
71.08000 2.505
71.10000 0.800
71.12000 -0.116
71.14000 2.898
71.16000 0.099
71.18000 -1.971
71.20000 0.357
71.22000 2.742
71.24000 0.980
71.26000 4.048
71.28000 6.881
71.30000 4.129
71.32000 2.301
71.34000 1.976
71.36000 2.079
71.38000 2.665
71.40000 2.220
71.42000 1.435
71.44000 1.585
71.46000 0.062
71.48000 -0.824
71.50000 -0.809
71.52000 0.424
71.54000 0.127
71.56000 0.396
71.58000 -1.454
71.60000 0.063
71.62000 2.417
71.64000 1.072
71.66000 -0.149
71.68000 3.438
71.70000 2.365
71.72000 1.407
71.74000 4.459
71.76000 5.485
71.78000 1.071
71.80000 -0.906
71.82000 -0.130
71.84000 -0.245
71.86000 -1.179
71.88000 2.632
71.90000 1.917
71.92000 -0.384
71.94000 -0.757
71.96000 -0.794
71.98000 1.175
72.00000 2.114
72.02000 1.667
72.04000 2.160
72.06000 1.405
72.08000 0.278
72.10000 1.464
72.12000 2.524
72.14000 2.762
72.16000 -0.911
72.18000 -0.975
72.20000 -1.961
72.22000 0.496
72.24000 3.860
72.26000 0.820
72.28000 0.882
72.30000 1.814
72.32000 1.213
72.34000 2.573
72.36000 0.929
72.38000 0.404
72.40000 1.984
72.42000 2.546
72.44000 5.180
72.46000 3.577
72.48000 1.132
72.50000 0.963
72.52000 2.965
72.54000 4.201
72.56000 4.593
72.58000 0.942
72.60000 0.578
72.62000 0.855
72.64000 -1.939
72.66000 -1.533
72.68000 1.439
72.70000 2.358
72.72000 3.689
72.74000 1.792
72.76000 -0.454
72.78000 1.243
72.80000 1.000
72.82000 -0.450
72.84000 0.760
72.86000 3.864
72.88000 0.957
72.90000 0.772
72.92000 1.412
72.94000 3.413
72.96000 1.459
72.98000 -1.920
73.00000 -0.475
73.02000 1.588
73.04000 -0.077
73.06000 0.649
73.08000 0.335
73.10000 3.099
73.12000 1.744
73.14000 0.883
73.16000 4.003
73.18000 3.246
73.20000 4.155
73.22000 0.274
73.24000 0.394
73.26000 0.040
73.28000 0.902
73.30000 2.559
73.32000 2.601
73.34000 0.932
73.36000 3.198
73.38000 3.979
73.40000 2.434
73.42000 1.470
73.44000 4.213
73.46000 3.567
73.48000 4.288
73.50000 1.723
73.52000 2.379
73.54000 3.244
73.56000 2.526
73.58000 4.568
73.60000 2.575
73.62000 -0.294
73.64000 1.568
73.66000 1.490
73.68000 1.853
73.70000 4.059
73.72000 7.084
73.74000 3.829
73.76000 0.995
73.78000 1.135
73.80000 0.716
73.82000 1.351
73.84000 1.233
73.86000 4.645
73.88000 4.837
73.90000 3.872
73.92000 2.526
73.94000 -1.860
73.96000 0.014
73.98000 1.674
74.00000 3.522
74.02000 6.731
74.04000 5.856
74.06000 4.436
74.08000 4.923
74.10000 5.263
74.12000 3.520
74.14000 3.631
74.16000 2.884
74.18000 -0.089
74.20000 0.923
74.22000 0.629
74.24000 0.422
74.26000 -1.161
74.28000 -1.068
74.30000 -1.330
74.32000 -0.447
74.34000 1.439
74.36000 1.890
74.38000 0.131
74.40000 1.398
74.42000 4.487
74.44000 1.824
74.46000 4.145
74.48000 2.859
74.50000 0.182
74.52000 -0.188
74.54000 1.944
74.56000 1.655
74.58000 3.156
74.60000 2.812
74.62000 3.384
74.64000 3.235
74.66000 4.558
74.68000 3.353
74.70000 2.145
74.72000 3.620
74.74000 2.170
74.76000 -0.399
74.78000 0.719
74.80000 1.435
74.82000 1.658
74.84000 1.113
74.86000 0.621
74.88000 1.859
74.90000 0.889
74.92000 2.447
74.94000 3.116
74.96000 5.631
74.98000 4.313
75.00000 2.942
75.02000 0.275
75.04000 1.495
75.06000 3.183
75.08000 2.658
75.10000 1.265
75.12000 -0.621
75.14000 0.503
75.16000 3.118
75.18000 4.168
75.20000 2.919
75.22000 1.689
75.24000 2.686
75.26000 1.849
75.28000 2.876
75.30000 2.691
75.32000 0.197
75.34000 2.957
75.36000 3.136
75.38000 -1.886
75.40000 -0.227
75.42000 0.747
75.44000 0.714
75.46000 1.034
75.48000 -0.187
75.50000 2.068
75.52000 1.838
75.54000 2.004
75.56000 1.880
75.58000 0.851
75.60000 2.484
75.62000 2.386
75.64000 1.590
75.66000 2.252
75.68000 -0.992
75.70000 0.236
75.72000 -1.893
75.74000 1.244
75.76000 0.552
75.78000 -1.686
75.80000 0.171
75.82000 1.449
75.84000 2.829
75.86000 4.862
75.88000 2.866
75.90000 0.637
75.92000 1.847
75.94000 5.064
75.96000 3.765
75.98000 4.739
76.00000 3.153
76.02000 1.623
76.04000 3.176
76.06000 1.588
76.08000 1.791
76.10000 2.776
76.12000 1.640
76.14000 1.458
76.16000 3.497
76.18000 2.233
76.20000 1.187
76.22000 1.428
76.24000 0.977
76.26000 2.617
76.28000 4.688
76.30000 0.728
76.32000 0.559
76.34000 -1.291
76.36000 -1.064
76.38000 -0.224
76.40000 -0.552
76.42000 2.371
76.44000 2.430
76.46000 2.952
76.48000 0.984
76.50000 3.061
76.52000 4.997
76.54000 3.470
76.56000 -0.149
76.58000 -1.383
76.60000 2.313
76.62000 1.187
76.64000 0.906
76.66000 1.506
76.68000 1.135
76.70000 -0.723
76.72000 2.497
76.74000 3.887
76.76000 2.472
76.78000 3.492
76.80000 0.401
76.82000 1.718
76.84000 1.718
76.86000 2.119
76.88000 3.339
76.90000 2.395
76.92000 1.605
76.94000 2.949
76.96000 5.263
76.98000 6.546
77.00000 3.093
77.02000 0.919
77.04000 0.076
77.06000 2.700
77.08000 3.242
77.10000 2.782
77.12000 0.855
77.14000 1.994
77.16000 2.672
77.18000 3.455
77.20000 2.973
77.22000 4.399
77.24000 4.561
77.26000 2.656
77.28000 3.337
77.30000 -0.636
77.32000 -1.950
77.34000 -0.139
77.36000 1.260
77.38000 1.543
77.40000 -1.428
77.42000 -0.150
77.44000 2.951
77.46000 3.430
77.48000 4.853
77.50000 5.156
77.52000 5.861
77.54000 5.172
77.56000 -0.817
77.58000 0.225
77.60000 2.249
77.62000 -0.076
77.64000 3.688
77.66000 4.362
77.68000 1.200
77.70000 3.554
77.72000 3.110
77.74000 3.754
77.76000 3.464
77.78000 2.259
77.80000 2.202
77.82000 1.452
77.84000 -1.948
77.86000 1.482
77.88000 2.317
77.90000 2.499
77.92000 1.561
77.94000 -0.891
77.96000 -1.375
77.98000 -0.109
78.00000 3.625
78.02000 4.732
78.04000 2.353
78.06000 2.368
78.08000 -0.049
78.10000 1.425
78.12000 1.570
78.14000 3.635
78.16000 2.602
78.18000 0.488
78.20000 4.340
78.22000 5.898
78.24000 2.326
78.26000 2.408
78.28000 1.832
78.30000 3.055
78.32000 3.817
78.34000 4.222
78.36000 4.189
78.38000 5.950
78.40000 5.066
78.42000 3.302
78.44000 5.276
78.46000 3.044
78.48000 5.912
78.50000 3.905
78.52000 3.265
78.54000 4.161
78.56000 2.981
78.58000 2.030
78.60000 4.131
78.62000 0.865
78.64000 -1.979
78.66000 2.739
78.68000 3.793
78.70000 4.453
78.72000 5.460
78.74000 5.640
78.76000 2.615
78.78000 2.762
78.80000 1.617
78.82000 0.246
78.84000 0.800
78.86000 3.149
78.88000 2.593
78.90000 3.124
78.92000 4.300
78.94000 2.732
78.96000 -0.139
78.98000 -0.070
79.00000 -0.136
79.02000 2.978
79.04000 2.306
79.06000 2.570
79.08000 0.104
79.10000 0.151
79.12000 0.451
79.14000 0.427
79.16000 0.578
79.18000 1.808
79.20000 0.946
79.22000 1.681
79.24000 3.275
79.26000 1.474
79.28000 1.376
79.30000 3.397
79.32000 1.494
79.34000 0.509
79.36000 3.221
79.38000 2.236
79.40000 0.891
79.42000 2.579
79.44000 1.875
79.46000 4.384
79.48000 0.125
79.50000 0.184
79.52000 1.049
79.54000 -0.820
79.56000 -1.461
79.58000 3.037
79.60000 2.601
79.62000 2.904
79.64000 3.377
79.66000 4.468
79.68000 5.290
79.70000 3.195
79.72000 3.406
79.74000 5.682
79.76000 7.928
79.78000 3.289
79.80000 4.862
79.82000 3.529
79.84000 8.180
79.86000 6.630
79.88000 5.233
79.90000 4.257
79.92000 3.721
79.94000 7.350
79.96000 8.430
79.98000 8.688
80.00000 10.043
80.02000 11.616
80.04000 8.769
80.06000 8.576
80.08000 8.232
80.10000 10.069
80.12000 10.967
80.14000 8.794
80.16000 10.067
80.18000 13.824
80.20000 11.262
80.22000 11.753
80.24000 8.679
80.26000 10.881
80.28000 11.983
80.30000 15.510
80.32000 16.392
80.34000 15.821
80.36000 16.604
80.38000 15.724
80.40000 15.912
80.42000 14.706
80.44000 13.636
80.46000 16.661
80.48000 15.854
80.50000 13.045
80.52000 16.481
80.54000 19.505
80.56000 18.213
80.58000 20.300
80.60000 20.172
80.62000 19.024
80.64000 18.428
80.66000 18.523
80.68000 16.805
80.70000 16.223
80.72000 18.259
80.74000 18.572
80.76000 19.115
80.78000 20.987
80.80000 21.579
80.82000 19.617
80.84000 18.662
80.86000 21.368
80.88000 20.751
80.90000 19.543
80.92000 19.028
80.94000 17.110
80.96000 15.337
80.98000 15.706
81.00000 17.983
81.02000 18.948
81.04000 17.730
81.06000 17.816
81.08000 16.376
81.10000 16.564
81.12000 16.162
81.14000 16.249
81.16000 15.518
81.18000 16.655
81.20000 16.876
81.22000 12.556
81.24000 8.152
81.26000 11.528
81.28000 11.749
81.30000 11.398
81.32000 12.926
81.34000 11.464
81.36000 14.235
81.38000 12.499
81.40000 13.447
81.42000 10.231
81.44000 6.776
81.46000 8.335
81.48000 7.515
81.50000 6.410
81.52000 6.740
81.54000 8.027
81.56000 7.576
81.58000 5.634
81.60000 6.905
81.62000 3.790
81.64000 4.823
81.66000 6.179
81.68000 5.177
81.70000 6.654
81.72000 5.422
81.74000 4.864
81.76000 4.526
81.78000 6.821
81.80000 6.940
81.82000 3.160
81.84000 2.030
81.86000 1.508
81.88000 0.438
81.90000 3.652
81.92000 5.050
81.94000 3.642
81.96000 2.662
81.98000 1.729
82.00000 4.376
82.02000 4.984
82.04000 4.451
82.06000 4.654
82.08000 4.342
82.10000 2.827
82.12000 2.203
82.14000 0.000
82.16000 -2.111
82.18000 0.473
82.20000 1.597
82.22000 -0.155
82.24000 1.500
82.26000 1.235
82.28000 -0.140
82.30000 0.035
82.32000 3.186
82.34000 2.226
82.36000 2.776
82.38000 2.680
82.40000 1.949
82.42000 2.142
82.44000 1.930
82.46000 0.365
82.48000 -0.775
82.50000 0.707
82.52000 4.693
82.54000 3.921
82.56000 1.648
82.58000 2.761
82.60000 1.437
82.62000 -0.650
82.64000 1.882
82.66000 2.002
82.68000 -0.720
82.70000 1.554
82.72000 2.050
82.74000 1.729
82.76000 0.188
82.78000 1.645
82.80000 0.134
82.82000 2.599
82.84000 0.095
82.86000 0.739
82.88000 2.471
82.90000 1.100
82.92000 -2.127
82.94000 0.853
82.96000 2.548
82.98000 1.321
83.00000 -0.936
83.02000 1.621
83.04000 2.585
83.06000 2.384
83.08000 3.183
83.10000 2.181
83.12000 1.923
83.14000 2.318
83.16000 0.206
83.18000 0.402
83.20000 1.751
83.22000 -1.178
83.24000 1.178
83.26000 2.493
83.28000 4.418
83.30000 2.169
83.32000 2.997
83.34000 5.748
83.36000 5.042
83.38000 5.039
83.40000 5.107
83.42000 1.427
83.44000 0.133
83.46000 3.953
83.48000 4.903
83.50000 1.667
83.52000 -2.001
83.54000 0.766
83.56000 3.481
83.58000 2.629
83.60000 6.469
83.62000 6.484
83.64000 4.940
83.66000 5.375
83.68000 5.038
83.70000 5.120
83.72000 5.286
83.74000 6.033
83.76000 8.857
83.78000 8.706
83.80000 8.354
83.82000 8.532
83.84000 6.580
83.86000 9.773
83.88000 12.982
83.90000 10.873
83.92000 10.918
83.94000 13.447
83.96000 12.921
83.98000 16.693
84.00000 15.281
84.02000 13.343
84.04000 14.436
84.06000 13.855
84.08000 12.606
84.10000 13.806
84.12000 18.162
84.14000 17.159
84.16000 16.122
84.18000 16.336
84.20000 16.835
84.22000 16.774
84.24000 16.438
84.26000 18.594
84.28000 20.568
84.30000 21.260
84.32000 20.626
84.34000 19.212
84.36000 20.722
84.38000 19.488
84.40000 25.261
84.42000 23.890
84.44000 23.805
84.46000 21.454
84.48000 22.807
84.50000 24.605
84.52000 25.472
84.54000 23.954
84.56000 19.989
84.58000 18.628
84.60000 23.500
84.62000 22.554
84.64000 21.759
84.66000 22.956
84.68000 22.672
84.70000 21.101
84.72000 22.335
84.74000 18.926
84.76000 21.613
84.78000 22.532
84.80000 22.374
84.82000 23.498
84.84000 23.403
84.86000 23.196
84.88000 24.138
84.90000 23.204
84.92000 24.867
84.94000 22.997
84.96000 22.620
84.98000 20.907
85.00000 22.285
85.02000 20.573
85.04000 19.280
85.06000 17.325
85.08000 17.981
85.10000 18.674
85.12000 15.676
85.14000 15.341
85.16000 15.006
85.18000 13.638
85.20000 15.616
85.22000 12.503
85.24000 11.850
85.26000 10.839
85.28000 10.437
85.30000 12.665
85.32000 10.124
85.34000 7.800
85.36000 6.495
85.38000 8.081
85.40000 5.645
85.42000 6.926
85.44000 6.882
85.46000 8.756
85.48000 7.225
85.50000 7.196
85.52000 6.992
85.54000 8.133
85.56000 4.420
85.58000 5.108
85.60000 3.373
85.62000 2.721
85.64000 5.437
85.66000 6.217
85.68000 5.474
85.70000 6.323
85.72000 4.829
85.74000 2.880
85.76000 -0.166
85.78000 1.693
85.80000 1.985
85.82000 0.689
85.84000 2.215
85.86000 1.369
85.88000 0.342
85.90000 0.654
85.92000 -0.034
85.94000 -1.967
85.96000 2.195
85.98000 3.758
86.00000 4.162
86.02000 4.474
86.04000 1.811
86.06000 1.874
86.08000 -0.174
86.10000 0.022
86.12000 0.033
86.14000 -1.946
86.16000 0.310
86.18000 -1.734
86.20000 -1.485
86.22000 2.011
86.24000 -0.167
86.26000 0.545
86.28000 -0.904
86.30000 0.774
86.32000 1.664
86.34000 2.642
86.36000 -0.436
86.38000 1.305
86.40000 1.799
86.42000 0.412
86.44000 0.454
86.46000 2.874
86.48000 2.036
86.50000 2.214
86.52000 0.107
86.54000 0.023
86.56000 0.633
86.58000 -1.027
86.60000 -0.467
86.62000 1.386
86.64000 3.766
86.66000 0.338
86.68000 -1.896
86.70000 -0.862
86.72000 -1.535
86.74000 -1.765
86.76000 1.222
86.78000 -0.274
86.80000 -1.017
86.82000 1.491
86.84000 0.601
86.86000 2.142
86.88000 -0.214
86.90000 -1.875
86.92000 -1.274
86.94000 1.952
86.96000 2.205
86.98000 1.369
87.00000 -0.579
87.02000 -0.445
87.04000 2.453
87.06000 2.918
87.08000 1.461
87.10000 -0.885
87.12000 -0.185
87.14000 1.567
87.16000 2.099
87.18000 0.713
87.20000 -1.818
87.22000 -0.028
87.24000 0.758
87.26000 2.086
87.28000 1.977
87.30000 2.190
87.32000 2.455
87.34000 2.157
87.36000 -0.798
87.38000 -0.096
87.40000 1.131
87.42000 2.167
87.44000 1.775
87.46000 -0.677
87.48000 1.333
87.50000 0.740
87.52000 -1.837
87.54000 -0.555
87.56000 0.545
87.58000 -1.144
87.60000 0.280
87.62000 3.103
87.64000 3.555
87.66000 1.637
87.68000 1.773
87.70000 -1.216
87.72000 0.258
87.74000 -0.056
87.76000 2.182
87.78000 -1.190
87.80000 0.159
87.82000 1.897
87.84000 1.591
87.86000 -0.061
87.88000 -0.435
87.90000 0.355
87.92000 1.397
87.94000 1.673
87.96000 -0.122
87.98000 0.840
88.00000 -1.474
88.02000 1.085
88.04000 2.366
88.06000 1.521
88.08000 -0.295
88.10000 -0.494
88.12000 2.782
88.14000 -1.201
88.16000 -1.011
88.18000 2.549
88.20000 4.508
88.22000 0.452
88.24000 0.463
88.26000 1.846
88.28000 0.498
88.30000 -1.621
88.32000 -0.603
88.34000 -0.780
88.36000 -1.157
88.38000 0.895
88.40000 1.199
88.42000 2.420
88.44000 1.981
88.46000 -0.359
88.48000 -0.605
88.50000 -0.230
88.52000 1.928
88.54000 2.024
88.56000 1.583
88.58000 1.506
88.60000 2.763
88.62000 1.046
88.64000 0.484
88.66000 1.398
88.68000 3.563
88.70000 3.293
88.72000 0.792
88.74000 -1.798
88.76000 -0.583
88.78000 2.196
88.80000 2.558
88.82000 1.791
88.84000 1.466
88.86000 1.512
88.88000 1.984
88.90000 0.883
88.92000 0.156
88.94000 1.151
88.96000 2.235
88.98000 2.074
89.00000 4.468
89.02000 2.333
89.04000 1.614
89.06000 0.874
89.08000 0.756
89.10000 -1.488
89.12000 -0.396
89.14000 1.396
89.16000 0.881
89.18000 1.403
89.20000 -1.803
89.22000 0.405
89.24000 2.265
89.26000 2.940
89.28000 3.246
89.30000 3.032
89.32000 1.371
89.34000 2.048
89.36000 2.398
89.38000 -1.228
89.40000 0.749
89.42000 1.551
89.44000 0.939
89.46000 1.174
89.48000 2.775
89.50000 2.176
89.52000 2.173
89.54000 3.739
89.56000 1.829
89.58000 -0.026
89.60000 1.072
89.62000 1.991
89.64000 0.932
89.66000 2.437
89.68000 2.264
89.70000 0.306
89.72000 0.708
89.74000 -0.252
89.76000 -0.631
89.78000 -0.399
89.80000 -1.794
89.82000 1.902
89.84000 1.268
89.86000 3.117
89.88000 2.839
89.90000 2.553
89.92000 0.083
89.94000 -0.099
89.96000 2.489
89.98000 3.310
90.00000 1.246
90.02000 0.461
90.04000 2.282
90.06000 3.620
90.08000 1.432
90.10000 2.634
90.12000 1.019
90.14000 2.529
90.16000 0.398
90.18000 4.636
90.20000 1.361
90.22000 2.451
90.24000 3.131
90.26000 0.401
90.28000 2.847
90.30000 2.972
90.32000 1.443
90.34000 0.200
90.36000 0.865
90.38000 2.352
90.40000 -1.785
90.42000 -1.235
90.44000 2.682
90.46000 1.601
90.48000 3.583
90.50000 0.597
90.52000 -0.782
90.54000 0.355
90.56000 3.267
90.58000 1.416
90.60000 0.932
90.62000 -0.103
90.64000 1.837
90.66000 0.656
90.68000 -1.584
90.70000 0.940
90.72000 3.733
90.74000 2.330
90.76000 1.505
90.78000 0.093
90.80000 3.165
90.82000 4.454
90.84000 2.524
90.86000 1.229
90.88000 0.794
90.90000 -1.219
90.92000 0.483
90.94000 3.052
90.96000 3.752
90.98000 0.878
91.00000 0.861
91.02000 -0.266
91.04000 -1.796
91.06000 0.324
91.08000 2.260
91.10000 2.556
91.12000 1.573
91.14000 2.690
91.16000 4.381
91.18000 1.277
91.20000 3.290
91.22000 2.551
91.24000 3.812
91.26000 2.404
91.28000 -0.678
91.30000 -0.745
91.32000 0.380
91.34000 -1.303
91.36000 -0.286
91.38000 0.456
91.40000 2.286
91.42000 2.114
91.44000 0.577
91.46000 3.172
91.48000 4.318
91.50000 1.764
91.52000 0.181
91.54000 0.265
91.56000 -1.181
91.58000 0.262
91.60000 -0.632
91.62000 1.993
91.64000 2.228
91.66000 2.315
91.68000 2.642
91.70000 2.355
91.72000 -0.296
91.74000 -0.523
91.76000 1.308
91.78000 4.090
91.80000 -1.501
91.82000 1.855
91.84000 1.193
91.86000 -1.772
91.88000 1.267
91.90000 2.258
91.92000 2.496
91.94000 0.441
91.96000 1.802
91.98000 2.443
92.00000 3.327
92.02000 3.162
92.04000 -0.123
92.06000 0.205
92.08000 -0.601
92.10000 0.462
92.12000 0.798
92.14000 4.496
92.16000 3.378
92.18000 1.073
92.20000 1.204
92.22000 2.193
92.24000 1.076
92.26000 1.068
92.28000 -0.897
92.30000 0.540
92.32000 3.540
92.34000 4.930
92.36000 3.266
92.38000 1.382
92.40000 3.273
92.42000 5.001
92.44000 5.157
92.46000 7.033
92.48000 6.525
92.50000 2.431
92.52000 4.098
92.54000 5.850
92.56000 2.962
92.58000 1.201
92.60000 2.026
92.62000 1.227
92.64000 0.534
92.66000 -0.934
92.68000 -0.105
92.70000 -0.207
92.72000 0.672
92.74000 2.864
92.76000 1.022
92.78000 1.517
92.80000 2.048
92.82000 2.691
92.84000 4.444
92.86000 5.172
92.88000 4.732
92.90000 3.440
92.92000 0.801
92.94000 1.318
92.96000 3.211
92.98000 1.475
93.00000 2.041
93.02000 5.220
93.04000 4.106
93.06000 0.259
93.08000 -1.605
93.10000 0.723
93.12000 0.502
93.14000 -1.071
93.16000 1.454
93.18000 4.892
93.20000 6.036
93.22000 4.225
93.24000 2.270
93.26000 4.361
93.28000 1.489
93.30000 -0.972
93.32000 -0.388
93.34000 0.940
93.36000 4.082
93.38000 5.394
93.40000 3.778
93.42000 2.072
93.44000 1.319
93.46000 2.542
93.48000 2.328
93.50000 -1.747
93.52000 1.285
93.54000 1.243
93.56000 4.647
93.58000 7.666
93.60000 6.654
93.62000 3.659
93.64000 3.657
93.66000 4.135
93.68000 1.803
93.70000 2.963
93.72000 4.205
93.74000 2.719
93.76000 5.681
93.78000 7.981
93.80000 5.031
93.82000 3.699
93.84000 7.273
93.86000 3.263
93.88000 2.779
93.90000 2.571
93.92000 3.034
93.94000 1.698
93.96000 3.971
93.98000 4.412
94.00000 5.121
94.02000 1.774
94.04000 4.340
94.06000 1.705
94.08000 0.215
94.10000 1.969
94.12000 5.071
94.14000 3.913
94.16000 4.273
94.18000 3.653
94.20000 0.187
94.22000 4.410
94.24000 1.208
94.26000 2.887
94.28000 5.421
94.30000 4.779
94.32000 5.149
94.34000 1.191
94.36000 1.154
94.38000 1.550
94.40000 2.392
94.42000 1.679
94.44000 1.199
94.46000 0.924
94.48000 1.253
94.50000 3.529
94.52000 3.998
94.54000 2.615
94.56000 0.049
94.58000 -0.604
94.60000 0.367
94.62000 0.940
94.64000 0.894
94.66000 1.214
94.68000 -0.113
94.70000 -0.737
94.72000 0.575
94.74000 3.769
94.76000 3.262
94.78000 1.565
94.80000 1.900
94.82000 6.393
94.84000 5.659
94.86000 0.661
94.88000 4.545
94.90000 6.060
94.92000 3.787
94.94000 1.290
94.96000 1.442
94.98000 3.338
95.00000 4.286
95.02000 5.201
95.04000 1.323
95.06000 1.128
95.08000 0.324
95.10000 1.443
95.12000 -0.395
95.14000 2.478
95.16000 2.520
95.18000 2.277
95.20000 5.916
95.22000 6.275
95.24000 5.710
95.26000 4.766
95.28000 6.031
95.30000 5.074
95.32000 3.161
95.34000 4.790
95.36000 9.336
95.38000 7.077
95.40000 8.563
95.42000 7.114
95.44000 2.810
95.46000 5.701
95.48000 4.279
95.50000 4.546
95.52000 7.746
95.54000 5.710
95.56000 4.043
95.58000 4.117
95.60000 7.551
95.62000 8.280
95.64000 4.877
95.66000 6.930
95.68000 6.092
95.70000 4.643
95.72000 6.208
95.74000 6.237
95.76000 6.563
95.78000 5.010
95.80000 4.067
95.82000 6.039
95.84000 8.616
95.86000 3.755
95.88000 -1.733
95.90000 0.820
95.92000 3.207
95.94000 6.849
95.96000 0.260
95.98000 2.869
96.00000 4.013
96.02000 5.522
96.04000 4.199
96.06000 0.446
96.08000 3.984
96.10000 2.527
96.12000 1.976
96.14000 -0.025
96.16000 4.753
96.18000 5.485
96.20000 3.187
96.22000 7.130
96.24000 9.999
96.26000 8.497
96.28000 8.267
96.30000 5.894
96.32000 3.392
96.34000 4.108
96.36000 3.382
96.38000 5.736
96.40000 4.376
96.42000 -0.376
96.44000 1.393
96.46000 4.939
96.48000 5.172
96.50000 6.580
96.52000 4.631
96.54000 4.939
96.56000 4.432
96.58000 5.415
96.60000 4.224
96.62000 5.914
96.64000 4.794
96.66000 2.333
96.68000 1.538
96.70000 1.008
96.72000 1.638
96.74000 5.266
96.76000 2.714
96.78000 3.464
96.80000 5.030
96.82000 8.496
96.84000 5.430
96.86000 2.143
96.88000 4.038
96.90000 3.268
96.92000 3.176
96.94000 2.928
96.96000 3.300
96.98000 4.046
97.00000 6.819
97.02000 6.106
97.04000 7.371
97.06000 8.964
97.08000 6.445
97.10000 5.340
97.12000 7.254
97.14000 4.364
97.16000 0.382
97.18000 0.587
97.20000 0.785
97.22000 0.577
97.24000 4.140
97.26000 3.247
97.28000 0.450
97.30000 -0.780
97.32000 2.376
97.34000 6.384
97.36000 3.524
97.38000 1.644
97.40000 2.379
97.42000 4.328
97.44000 3.433
97.46000 2.396
97.48000 0.133
97.50000 -1.790
97.52000 3.836
97.54000 1.696
97.56000 3.642
97.58000 4.745
97.60000 0.450
97.62000 -0.563
97.64000 0.018
97.66000 3.225
97.68000 6.132
97.70000 8.823
97.72000 6.018
97.74000 5.038
97.76000 0.171
97.78000 1.927
97.80000 4.058
97.82000 2.929
97.84000 0.325
97.86000 2.122
97.88000 3.328
97.90000 4.830
97.92000 4.480
97.94000 3.360
97.96000 0.430
97.98000 7.155
98.00000 4.415
98.02000 1.370
98.04000 3.834
98.06000 2.715
98.08000 -1.780
98.10000 -0.325
98.12000 3.818
98.14000 6.514
98.16000 2.856
98.18000 -1.523
98.20000 -1.039
98.22000 0.377
98.24000 -0.564
98.26000 1.539
98.28000 1.201
98.30000 -0.233
98.32000 2.586
98.34000 1.444
98.36000 3.504
98.38000 3.608
98.40000 -0.350
98.42000 -0.705
98.44000 2.134
98.46000 0.496
98.48000 4.575
98.50000 2.918
98.52000 3.415
98.54000 9.141
98.56000 4.634
98.58000 2.701
98.60000 2.638
98.62000 3.057
98.64000 2.180
98.66000 3.849
98.68000 0.030
98.70000 1.938
98.72000 1.727
98.74000 -0.754
98.76000 -0.798
98.78000 3.251
98.80000 1.874
98.82000 1.478
98.84000 -0.370
98.86000 2.514
98.88000 -1.776
98.90000 0.638
98.92000 6.149
98.94000 4.111
98.96000 5.077
98.98000 4.529
99.00000 4.451
99.02000 7.772
99.04000 5.032
99.06000 5.923
99.08000 6.234
99.10000 3.198
99.12000 0.984
99.14000 3.398
99.16000 3.002
99.18000 1.712
99.20000 1.958
99.22000 -1.787
99.24000 3.091
99.26000 1.230
99.28000 1.538
99.30000 3.542
99.32000 2.929
99.34000 4.982
99.36000 8.074
99.38000 5.330
99.40000 1.806
99.42000 0.793
99.44000 2.955
99.46000 2.799
99.48000 6.827
99.50000 6.569
99.52000 4.704
99.54000 1.817
99.56000 0.844
99.58000 -0.169
99.60000 -0.444
99.62000 -1.088
99.64000 0.277
99.66000 8.810
99.68000 2.053
99.70000 0.028
99.72000 -0.363
99.74000 0.836
99.76000 -1.840
99.78000 1.039
99.80000 12.992
99.82000 6.488
99.84000 2.876
99.86000 0.699
99.88000 -0.736
99.90000 1.268
99.92000 -1.883
99.94000 1.438
99.96000 -0.246
99.98000 0.000
