'Id: "0011388" Comment: "Integrate frame 0011388_Au-Ir-Rh_Rh-rich_XRD-Mapping-135-0000.gfrmwith cursor Wedge Cursor #5" Operator: "B?rgel" Anode: "Cu" Wavelength: "1.5406" Scantype: "2Theta (TwoTheta)" TimePerStep: "1" X: "45" Y: "-9" Z: "5.95" 
10.00000 0.000
10.02000 6.815
10.04000 8.309
10.06000 2.951
10.08000 8.233
10.10000 4.963
10.12000 10.077
10.14000 22.046
10.16000 3.360
10.18000 1.761
10.20000 6.952
10.22000 8.799
10.24000 23.927
10.26000 19.194
10.28000 16.711
10.30000 13.229
10.32000 14.880
10.34000 18.065
10.36000 15.119
10.38000 22.053
10.40000 11.990
10.42000 8.536
10.44000 24.838
10.46000 25.580
10.48000 14.700
10.50000 15.198
10.52000 15.186
10.54000 21.765
10.56000 20.101
10.58000 17.989
10.60000 26.193
10.62000 21.307
10.64000 20.976
10.66000 33.910
10.68000 30.736
10.70000 29.189
10.72000 31.418
10.74000 16.949
10.76000 18.519
10.78000 28.782
10.80000 36.605
10.82000 35.460
10.84000 29.025
10.86000 24.976
10.88000 28.040
10.90000 32.899
10.92000 39.542
10.94000 44.637
10.96000 46.958
10.98000 44.634
11.00000 40.304
11.02000 33.084
11.04000 21.203
11.06000 26.441
11.08000 46.467
11.10000 41.488
11.12000 40.756
11.14000 36.473
11.16000 36.791
11.18000 30.474
11.20000 38.140
11.22000 42.786
11.24000 44.643
11.26000 41.556
11.28000 45.226
11.30000 41.406
11.32000 37.938
11.34000 39.090
11.36000 40.334
11.38000 54.156
11.40000 44.988
11.42000 45.878
11.44000 54.615
11.46000 49.455
11.48000 45.009
11.50000 44.453
11.52000 44.070
11.54000 44.692
11.56000 47.584
11.58000 52.373
11.60000 55.716
11.62000 55.529
11.64000 55.058
11.66000 49.353
11.68000 44.748
11.70000 54.635
11.72000 51.583
11.74000 55.818
11.76000 57.403
11.78000 52.191
11.80000 44.057
11.82000 39.806
11.84000 48.360
11.86000 48.699
11.88000 46.647
11.90000 47.225
11.92000 44.987
11.94000 53.917
11.96000 61.478
11.98000 49.512
12.00000 48.700
12.02000 52.919
12.04000 57.150
12.06000 63.273
12.08000 60.496
12.10000 55.555
12.12000 54.006
12.14000 54.865
12.16000 58.339
12.18000 54.325
12.20000 50.828
12.22000 54.961
12.24000 62.687
12.26000 61.351
12.28000 67.402
12.30000 67.436
12.32000 58.528
12.34000 60.748
12.36000 49.565
12.38000 48.844
12.40000 61.111
12.42000 64.871
12.44000 64.119
12.46000 62.049
12.48000 61.662
12.50000 57.802
12.52000 63.444
12.54000 64.204
12.56000 66.335
12.58000 68.614
12.60000 73.839
12.62000 71.493
12.64000 63.984
12.66000 59.455
12.68000 57.294
12.70000 55.076
12.72000 59.153
12.74000 61.495
12.76000 61.595
12.78000 50.061
12.80000 56.739
12.82000 69.438
12.84000 66.132
12.86000 59.342
12.88000 62.814
12.90000 58.945
12.92000 60.042
12.94000 65.212
12.96000 72.622
12.98000 63.616
13.00000 62.956
13.02000 63.412
13.04000 57.237
13.06000 59.070
13.08000 53.359
13.10000 63.498
13.12000 66.750
13.14000 59.922
13.16000 54.268
13.18000 57.623
13.20000 61.443
13.22000 69.820
13.24000 64.617
13.26000 52.310
13.28000 60.488
13.30000 64.087
13.32000 58.680
13.34000 55.228
13.36000 56.616
13.38000 64.226
13.40000 65.555
13.42000 65.017
13.44000 52.681
13.46000 52.701
13.48000 58.785
13.50000 56.534
13.52000 57.361
13.54000 68.763
13.56000 63.702
13.58000 57.099
13.60000 53.686
13.62000 54.950
13.64000 55.233
13.66000 58.228
13.68000 63.067
13.70000 60.577
13.72000 55.681
13.74000 50.517
13.76000 59.180
13.78000 56.823
13.80000 53.558
13.82000 54.637
13.84000 56.638
13.86000 54.739
13.88000 56.769
13.90000 49.958
13.92000 50.779
13.94000 50.888
13.96000 47.348
13.98000 50.098
14.00000 40.095
14.02000 46.817
14.04000 59.425
14.06000 52.980
14.08000 48.091
14.10000 44.157
14.12000 52.165
14.14000 48.042
14.16000 47.565
14.18000 51.880
14.20000 53.946
14.22000 46.884
14.24000 50.896
14.26000 55.117
14.28000 51.904
14.30000 48.548
14.32000 53.031
14.34000 49.714
14.36000 48.031
14.38000 48.403
14.40000 49.416
14.42000 55.913
14.44000 51.721
14.46000 41.737
14.48000 45.221
14.50000 48.614
14.52000 50.154
14.54000 51.462
14.56000 49.531
14.58000 45.100
14.60000 44.253
14.62000 44.541
14.64000 44.231
14.66000 39.203
14.68000 37.687
14.70000 45.233
14.72000 50.735
14.74000 44.270
14.76000 34.393
14.78000 35.213
14.80000 43.463
14.82000 43.262
14.84000 45.632
14.86000 46.844
14.88000 41.210
14.90000 34.760
14.92000 34.840
14.94000 35.590
14.96000 35.998
14.98000 32.363
15.00000 36.938
15.02000 38.591
15.04000 39.970
15.06000 42.557
15.08000 47.238
15.10000 42.622
15.12000 39.528
15.14000 38.720
15.16000 31.176
15.18000 30.800
15.20000 36.939
15.22000 37.581
15.24000 34.746
15.26000 42.147
15.28000 47.760
15.30000 43.968
15.32000 44.932
15.34000 34.617
15.36000 25.607
15.38000 34.289
15.40000 35.100
15.42000 25.785
15.44000 33.286
15.46000 31.853
15.48000 32.106
15.50000 34.089
15.52000 34.085
15.54000 36.956
15.56000 37.122
15.58000 39.366
15.60000 39.231
15.62000 37.248
15.64000 34.685
15.66000 32.959
15.68000 34.037
15.70000 42.324
15.72000 41.319
15.74000 29.997
15.76000 22.489
15.78000 31.475
15.80000 38.899
15.82000 37.901
15.84000 35.227
15.86000 23.370
15.88000 26.436
15.90000 33.530
15.92000 31.045
15.94000 32.266
15.96000 29.395
15.98000 24.816
16.00000 18.990
16.02000 31.325
16.04000 30.921
16.06000 21.306
16.08000 28.019
16.10000 26.750
16.12000 28.170
16.14000 28.660
16.16000 18.249
16.18000 19.571
16.20000 22.894
16.22000 28.950
16.24000 30.101
16.26000 21.721
16.28000 17.397
16.30000 26.246
16.32000 28.751
16.34000 24.313
16.36000 31.208
16.38000 25.202
16.40000 28.287
16.42000 36.605
16.44000 32.400
16.46000 23.486
16.48000 26.015
16.50000 21.902
16.52000 19.936
16.54000 18.839
16.56000 12.169
16.58000 18.503
16.60000 22.508
16.62000 25.841
16.64000 27.459
16.66000 17.144
16.68000 18.994
16.70000 32.022
16.72000 29.055
16.74000 24.105
16.76000 26.324
16.78000 22.114
16.80000 22.613
16.82000 23.806
16.84000 18.516
16.86000 19.526
16.88000 28.202
16.90000 25.445
16.92000 26.522
16.94000 17.109
16.96000 14.325
16.98000 16.669
17.00000 18.264
17.02000 25.613
17.04000 21.819
17.06000 16.451
17.08000 13.811
17.10000 12.646
17.12000 14.712
17.14000 32.194
17.16000 23.158
17.18000 16.419
17.20000 18.489
17.22000 21.050
17.24000 29.017
17.26000 23.112
17.28000 15.893
17.30000 18.451
17.32000 18.290
17.34000 28.024
17.36000 23.207
17.38000 8.046
17.40000 14.117
17.42000 26.489
17.44000 20.926
17.46000 13.439
17.48000 14.984
17.50000 12.580
17.52000 17.299
17.54000 14.139
17.56000 19.183
17.58000 12.381
17.60000 16.814
17.62000 7.873
17.64000 7.332
17.66000 16.686
17.68000 17.039
17.70000 19.630
17.72000 19.357
17.74000 13.388
17.76000 9.197
17.78000 12.623
17.80000 11.826
17.82000 12.949
17.84000 15.577
17.86000 9.287
17.88000 12.845
17.90000 13.598
17.92000 8.136
17.94000 10.503
17.96000 15.017
17.98000 18.921
18.00000 16.260
18.02000 5.845
18.04000 5.170
18.06000 15.990
18.08000 10.231
18.10000 10.827
18.12000 13.879
18.14000 5.173
18.16000 7.695
18.18000 13.279
18.20000 8.974
18.22000 10.286
18.24000 5.709
18.26000 -0.568
18.28000 3.580
18.30000 13.738
18.32000 9.242
18.34000 12.432
18.36000 13.904
18.38000 13.430
18.40000 13.518
18.42000 12.538
18.44000 3.059
18.46000 1.071
18.48000 10.134
18.50000 17.581
18.52000 15.326
18.54000 8.957
18.56000 8.523
18.58000 7.219
18.60000 8.036
18.62000 14.172
18.64000 9.588
18.66000 3.595
18.68000 8.469
18.70000 4.044
18.72000 -4.237
18.74000 -2.069
18.76000 2.035
18.78000 7.450
18.80000 16.046
18.82000 9.844
18.84000 8.303
18.86000 5.269
18.88000 6.449
18.90000 4.506
18.92000 5.454
18.94000 9.597
18.96000 11.103
18.98000 8.000
19.00000 8.861
19.02000 6.838
19.04000 10.589
19.06000 7.534
19.08000 5.857
19.10000 13.462
19.12000 14.713
19.14000 9.993
19.16000 5.794
19.18000 11.207
19.20000 17.198
19.22000 14.943
19.24000 5.865
19.26000 4.022
19.28000 10.597
19.30000 10.529
19.32000 10.995
19.34000 8.916
19.36000 6.655
19.38000 4.814
19.40000 1.357
19.42000 3.256
19.44000 7.185
19.46000 6.245
19.48000 7.399
19.50000 4.273
19.52000 12.539
19.54000 10.774
19.56000 6.563
19.58000 11.622
19.60000 14.931
19.62000 5.958
19.64000 10.295
19.66000 6.257
19.68000 5.835
19.70000 6.650
19.72000 9.263
19.74000 8.735
19.76000 10.248
19.78000 13.368
19.80000 7.052
19.82000 6.957
19.84000 8.780
19.86000 9.559
19.88000 7.510
19.90000 4.341
19.92000 7.146
19.94000 7.879
19.96000 8.170
19.98000 9.486
20.00000 11.878
20.02000 11.846
20.04000 13.103
20.06000 15.194
20.08000 14.167
20.10000 10.409
20.12000 4.919
20.14000 -4.172
20.16000 6.827
20.18000 10.622
20.20000 7.019
20.22000 8.347
20.24000 14.724
20.26000 10.837
20.28000 3.509
20.30000 3.176
20.32000 10.319
20.34000 9.449
20.36000 6.357
20.38000 6.402
20.40000 2.305
20.42000 8.346
20.44000 7.853
20.46000 8.150
20.48000 12.667
20.50000 6.071
20.52000 5.298
20.54000 5.412
20.56000 2.662
20.58000 5.265
20.60000 6.851
20.62000 5.257
20.64000 6.832
20.66000 12.074
20.68000 3.670
20.70000 4.748
20.72000 6.650
20.74000 6.104
20.76000 11.338
20.78000 6.907
20.80000 4.312
20.82000 5.349
20.84000 0.359
20.86000 -3.529
20.88000 -2.723
20.90000 3.702
20.92000 6.091
20.94000 12.797
20.96000 10.936
20.98000 3.067
21.00000 1.301
21.02000 4.219
21.04000 -0.197
21.06000 -3.099
21.08000 -1.612
21.10000 -0.261
21.12000 3.920
21.14000 -0.536
21.16000 -0.233
21.18000 4.803
21.20000 5.307
21.22000 -0.010
21.24000 3.679
21.26000 3.391
21.28000 1.455
21.30000 8.461
21.32000 2.784
21.34000 -0.583
21.36000 -1.793
21.38000 0.709
21.40000 4.072
21.42000 12.524
21.44000 6.286
21.46000 5.159
21.48000 0.899
21.50000 8.469
21.52000 10.750
21.54000 7.526
21.56000 1.808
21.58000 0.891
21.60000 -0.838
21.62000 -0.105
21.64000 6.291
21.66000 2.475
21.68000 3.086
21.70000 3.905
21.72000 -1.070
21.74000 1.518
21.76000 5.102
21.78000 7.532
21.80000 10.192
21.82000 5.485
21.84000 2.184
21.86000 -4.134
21.88000 0.464
21.90000 5.092
21.92000 1.266
21.94000 -0.948
21.96000 4.816
21.98000 7.527
22.00000 1.292
22.02000 -0.656
22.04000 -2.262
22.06000 1.446
22.08000 2.470
22.10000 8.109
22.12000 10.073
22.14000 2.892
22.16000 7.822
22.18000 10.274
22.20000 7.931
22.22000 -0.036
22.24000 -4.120
22.26000 -1.735
22.28000 5.757
22.30000 3.739
22.32000 0.393
22.34000 -3.080
22.36000 -0.994
22.38000 0.031
22.40000 -2.219
22.42000 5.950
22.44000 5.186
22.46000 -2.089
22.48000 4.338
22.50000 7.400
22.52000 8.338
22.54000 7.326
22.56000 3.846
22.58000 -0.517
22.60000 6.444
22.62000 10.372
22.64000 6.379
22.66000 -0.369
22.68000 -0.284
22.70000 2.924
22.72000 -0.688
22.74000 -2.357
22.76000 2.051
22.78000 1.089
22.80000 4.362
22.82000 4.613
22.84000 -1.582
22.86000 3.308
22.88000 5.948
22.90000 8.746
22.92000 5.465
22.94000 -0.689
22.96000 2.800
22.98000 5.095
23.00000 4.798
23.02000 4.078
23.04000 9.058
23.06000 3.249
23.08000 4.829
23.10000 6.403
23.12000 9.807
23.14000 6.711
23.16000 -0.896
23.18000 0.199
23.20000 -0.316
23.22000 0.144
23.24000 5.418
23.26000 9.414
23.28000 1.756
23.30000 -4.057
23.32000 -1.131
23.34000 -3.637
23.36000 -1.590
23.38000 7.636
23.40000 8.026
23.42000 1.080
23.44000 -0.897
23.46000 -4.045
23.48000 -3.740
23.50000 -1.067
23.52000 2.537
23.54000 13.545
23.56000 9.461
23.58000 6.946
23.60000 2.446
23.62000 6.249
23.64000 7.387
23.66000 8.984
23.68000 7.562
23.70000 4.746
23.72000 -1.725
23.74000 1.979
23.76000 3.615
23.78000 -0.086
23.80000 -0.951
23.82000 -1.042
23.84000 6.311
23.86000 5.921
23.88000 1.850
23.90000 2.868
23.92000 0.133
23.94000 -4.020
23.96000 -2.191
23.98000 3.706
24.00000 7.938
24.02000 7.324
24.04000 0.612
24.06000 0.398
24.08000 6.079
24.10000 4.002
24.12000 6.534
24.14000 -0.008
24.16000 0.897
24.18000 6.189
24.20000 8.313
24.22000 2.610
24.24000 -1.882
24.26000 4.435
24.28000 7.692
24.30000 1.587
24.32000 1.087
24.34000 2.158
24.36000 0.009
24.38000 -2.296
24.40000 -3.051
24.42000 1.345
24.44000 2.522
24.46000 1.684
24.48000 6.145
24.50000 2.810
24.52000 2.364
24.54000 -0.501
24.56000 0.880
24.58000 -3.994
24.60000 -1.469
24.62000 -1.006
24.64000 1.346
24.66000 0.451
24.68000 3.163
24.70000 1.539
24.72000 4.943
24.74000 4.565
24.76000 -2.320
24.78000 3.262
24.80000 4.134
24.82000 -0.800
24.84000 -0.510
24.86000 -1.825
24.88000 -3.971
24.90000 5.259
24.92000 1.458
24.94000 2.706
24.96000 1.998
24.98000 -1.875
25.00000 6.265
25.02000 4.820
25.04000 0.793
25.06000 0.959
25.08000 3.001
25.10000 4.691
25.12000 0.235
25.14000 3.410
25.16000 1.342
25.18000 0.186
25.20000 -1.207
25.22000 1.767
25.24000 -3.814
25.26000 -1.480
25.28000 7.870
25.30000 7.201
25.32000 4.064
25.34000 2.823
25.36000 -0.409
25.38000 -3.389
25.40000 -1.259
25.42000 1.387
25.44000 -3.387
25.46000 -3.934
25.48000 4.141
25.50000 5.138
25.52000 2.684
25.54000 -1.259
25.56000 3.988
25.58000 6.236
25.60000 4.099
25.62000 0.914
25.64000 0.974
25.66000 -1.085
25.68000 5.625
25.70000 1.925
25.72000 0.502
25.74000 6.176
25.76000 7.558
25.78000 3.891
25.80000 3.864
25.82000 -0.756
25.84000 0.099
25.86000 3.865
25.88000 0.069
25.90000 0.927
25.92000 3.558
25.94000 -0.514
25.96000 0.212
25.98000 -3.008
26.00000 -3.797
26.02000 -3.112
26.04000 1.435
26.06000 4.275
26.08000 7.160
26.10000 2.626
26.12000 2.177
26.14000 -2.962
26.16000 1.208
26.18000 2.727
26.20000 -0.101
26.22000 0.302
26.24000 -1.224
26.26000 1.245
26.28000 5.593
26.30000 3.022
26.32000 5.199
26.34000 7.574
26.36000 8.615
26.38000 0.226
26.40000 -1.769
26.42000 1.541
26.44000 4.655
26.46000 2.971
26.48000 3.590
26.50000 4.880
26.52000 9.266
26.54000 6.216
26.56000 5.400
26.58000 5.156
26.60000 7.979
26.62000 7.013
26.64000 8.523
26.66000 1.618
26.68000 1.082
26.70000 4.666
26.72000 2.346
26.74000 5.716
26.76000 2.949
26.78000 -1.194
26.80000 -0.008
26.82000 1.872
26.84000 2.657
26.86000 0.555
26.88000 -0.072
26.90000 3.572
26.92000 3.922
26.94000 0.648
26.96000 0.849
26.98000 -0.525
27.00000 5.300
27.02000 5.457
27.04000 7.933
27.06000 1.638
27.08000 -1.454
27.10000 3.862
27.12000 4.689
27.14000 2.293
27.16000 -2.315
27.18000 3.116
27.20000 6.993
27.22000 6.493
27.24000 4.841
27.26000 -0.330
27.28000 0.438
27.30000 5.207
27.32000 10.066
27.34000 2.721
27.36000 -0.379
27.38000 4.032
27.40000 -0.107
27.42000 -3.795
27.44000 -3.811
27.46000 1.291
27.48000 -3.593
27.50000 -3.805
27.52000 0.274
27.54000 0.564
27.56000 -1.784
27.58000 7.881
27.60000 8.704
27.62000 1.180
27.64000 -0.393
27.66000 5.128
27.68000 5.207
27.70000 3.498
27.72000 0.688
27.74000 1.891
27.76000 3.088
27.78000 2.800
27.80000 -1.094
27.82000 3.546
27.84000 1.486
27.86000 4.391
27.88000 4.032
27.90000 4.637
27.92000 6.909
27.94000 1.382
27.96000 -0.361
27.98000 4.190
28.00000 2.874
28.02000 2.593
28.04000 -1.124
28.06000 2.141
28.08000 1.736
28.10000 2.499
28.12000 4.355
28.14000 2.914
28.16000 3.369
28.18000 5.381
28.20000 1.986
28.22000 1.997
28.24000 5.767
28.26000 1.894
28.28000 1.434
28.30000 4.209
28.32000 4.933
28.34000 0.520
28.36000 -1.604
28.38000 -0.991
28.40000 4.853
28.42000 6.139
28.44000 2.179
28.46000 7.324
28.48000 9.358
28.50000 4.867
28.52000 2.950
28.54000 3.755
28.56000 2.525
28.58000 3.264
28.60000 3.540
28.62000 2.854
28.64000 2.851
28.66000 1.119
28.68000 7.887
28.70000 10.869
28.72000 2.053
28.74000 -3.722
28.76000 1.619
28.78000 5.623
28.80000 9.390
28.82000 5.246
28.84000 1.289
28.86000 6.851
28.88000 6.813
28.90000 5.613
28.92000 5.686
28.94000 2.426
28.96000 5.427
28.98000 1.976
29.00000 2.531
29.02000 6.600
29.04000 4.012
29.06000 4.454
29.08000 3.339
29.10000 3.214
29.12000 5.026
29.14000 6.260
29.16000 3.176
29.18000 2.884
29.20000 4.750
29.22000 8.455
29.24000 5.913
29.26000 5.360
29.28000 3.789
29.30000 -0.482
29.32000 2.027
29.34000 5.178
29.36000 2.533
29.38000 1.185
29.40000 3.515
29.42000 7.380
29.44000 6.500
29.46000 1.453
29.48000 -3.699
29.50000 -1.919
29.52000 2.331
29.54000 3.639
29.56000 -0.356
29.58000 3.822
29.60000 1.897
29.62000 -1.821
29.64000 0.058
29.66000 -2.483
29.68000 -2.338
29.70000 1.185
29.72000 2.538
29.74000 5.102
29.76000 5.295
29.78000 -1.594
29.80000 2.833
29.82000 7.664
29.84000 4.485
29.86000 3.514
29.88000 5.082
29.90000 4.813
29.92000 2.045
29.94000 0.658
29.96000 -0.889
29.98000 2.886
30.00000 4.652
30.02000 7.291
30.04000 6.412
30.06000 3.722
30.08000 8.836
30.10000 7.037
30.12000 3.619
30.14000 4.231
30.16000 5.035
30.18000 4.525
30.20000 2.731
30.22000 6.202
30.24000 6.609
30.26000 3.332
30.28000 -2.811
30.30000 -3.075
30.32000 -1.856
30.34000 -1.954
30.36000 -3.681
30.38000 0.049
30.40000 -1.708
30.42000 3.060
30.44000 3.770
30.46000 -1.112
30.48000 1.877
30.50000 -2.118
30.52000 -0.180
30.54000 2.219
30.56000 -2.234
30.58000 -2.322
30.60000 3.540
30.62000 4.895
30.64000 2.758
30.66000 -2.090
30.68000 -1.912
30.70000 -2.326
30.72000 0.560
30.74000 0.487
30.76000 0.310
30.78000 -2.821
30.80000 -1.977
30.82000 6.633
30.84000 5.315
30.86000 -0.943
30.88000 -2.160
30.90000 0.029
30.92000 -0.522
30.94000 1.252
30.96000 -3.108
30.98000 -1.971
31.00000 -0.862
31.02000 -2.830
31.04000 -3.614
31.06000 1.224
31.08000 2.779
31.10000 1.349
31.12000 3.527
31.14000 0.565
31.16000 -0.494
31.18000 -0.729
31.20000 0.708
31.22000 1.166
31.24000 -3.245
31.26000 -3.663
31.28000 -0.452
31.30000 -1.865
31.32000 0.506
31.34000 -3.206
31.36000 -2.268
31.38000 -1.099
31.40000 -2.728
31.42000 0.291
31.44000 2.879
31.46000 -0.045
31.48000 -3.075
31.50000 -0.638
31.52000 0.193
31.54000 -1.875
31.56000 0.769
31.58000 -0.538
31.60000 -0.213
31.62000 -0.034
31.64000 0.516
31.66000 -2.680
31.68000 -0.052
31.70000 3.103
31.72000 1.213
31.74000 7.684
31.76000 5.131
31.78000 2.323
31.80000 0.549
31.82000 2.132
31.84000 1.678
31.86000 2.582
31.88000 2.227
31.90000 5.875
31.92000 3.512
31.94000 2.855
31.96000 -0.511
31.98000 2.587
32.00000 -1.014
32.02000 -3.013
32.04000 -1.110
32.06000 -3.618
32.08000 -3.096
32.10000 -0.256
32.12000 -1.570
32.14000 0.067
32.16000 -3.198
32.18000 0.572
32.20000 4.830
32.22000 2.088
32.24000 3.977
32.26000 5.649
32.28000 8.317
32.30000 3.886
32.32000 -0.819
32.34000 -3.293
32.36000 1.040
32.38000 -1.542
32.40000 -3.591
32.42000 -0.036
32.44000 -1.056
32.46000 3.879
32.48000 0.701
32.50000 1.189
32.52000 0.344
32.54000 2.808
32.56000 -3.583
32.58000 -0.214
32.60000 -1.184
32.62000 1.948
32.64000 4.585
32.66000 4.178
32.68000 2.138
32.70000 1.268
32.72000 1.119
32.74000 0.927
32.76000 1.409
32.78000 4.358
32.80000 3.087
32.82000 1.851
32.84000 2.695
32.86000 4.532
32.88000 4.016
32.90000 3.666
32.92000 6.633
32.94000 6.175
32.96000 5.777
32.98000 -0.323
33.00000 -0.624
33.02000 -3.565
33.04000 1.168
33.06000 -1.096
33.08000 1.107
33.10000 1.291
33.12000 -1.597
33.14000 2.103
33.16000 3.957
33.18000 4.504
33.20000 2.076
33.22000 2.701
33.24000 3.195
33.26000 3.994
33.28000 -0.227
33.30000 3.468
33.32000 3.074
33.34000 3.482
33.36000 5.775
33.38000 2.726
33.40000 1.253
33.42000 1.700
33.44000 5.199
33.46000 2.897
33.48000 0.688
33.50000 2.827
33.52000 2.199
33.54000 5.832
33.56000 3.873
33.58000 0.949
33.60000 0.628
33.62000 0.830
33.64000 2.161
33.66000 5.221
33.68000 4.274
33.70000 -0.174
33.72000 3.003
33.74000 6.345
33.76000 3.000
33.78000 -0.956
33.80000 0.260
33.82000 1.152
33.84000 2.968
33.86000 6.855
33.88000 8.012
33.90000 9.549
33.92000 2.057
33.94000 2.835
33.96000 1.911
33.98000 0.166
34.00000 1.847
34.02000 2.160
34.04000 4.907
34.06000 2.794
34.08000 1.243
34.10000 8.084
34.12000 7.404
34.14000 1.540
34.16000 0.307
34.18000 -0.052
34.20000 1.093
34.22000 5.004
34.24000 4.589
34.26000 6.071
34.28000 1.196
34.30000 3.147
34.32000 4.831
34.34000 2.586
34.36000 4.287
34.38000 4.222
34.40000 -3.532
34.42000 -2.133
34.44000 -1.265
34.46000 -2.225
34.48000 -0.348
34.50000 -2.257
34.52000 -0.290
34.54000 -2.813
34.56000 -0.877
34.58000 4.676
34.60000 5.478
34.62000 3.677
34.64000 3.935
34.66000 3.413
34.68000 0.220
34.70000 3.384
34.72000 1.179
34.74000 -0.314
34.76000 1.227
34.78000 0.708
34.80000 0.786
34.82000 4.092
34.84000 3.578
34.86000 1.710
34.88000 3.111
34.90000 1.863
34.92000 -0.065
34.94000 -1.898
34.96000 1.181
34.98000 3.638
35.00000 4.984
35.02000 -3.457
35.04000 -1.616
35.06000 -0.704
35.08000 -1.581
35.10000 -1.895
35.12000 1.037
35.14000 0.693
35.16000 -2.893
35.18000 0.550
35.20000 2.621
35.22000 -0.351
35.24000 -3.519
35.26000 -0.985
35.28000 -0.341
35.30000 0.459
35.32000 -1.773
35.34000 -0.650
35.36000 0.093
35.38000 1.282
35.40000 0.960
35.42000 -3.036
35.44000 4.381
35.46000 4.681
35.48000 4.678
35.50000 4.641
35.52000 1.668
35.54000 -2.115
35.56000 2.229
35.58000 2.905
35.60000 6.147
35.62000 2.748
35.64000 3.166
35.66000 0.302
35.68000 0.253
35.70000 1.408
35.72000 2.213
35.74000 2.958
35.76000 1.261
35.78000 1.096
35.80000 3.108
35.82000 3.242
35.84000 -3.508
35.86000 -1.024
35.88000 3.066
35.90000 4.264
35.92000 0.260
35.94000 4.420
35.96000 6.178
35.98000 6.699
36.00000 1.792
36.02000 0.151
36.04000 4.180
36.06000 5.799
36.08000 3.337
36.10000 3.742
36.12000 4.667
36.14000 1.394
36.16000 0.416
36.18000 -1.877
36.20000 -0.979
36.22000 -3.504
36.24000 -0.261
36.26000 3.580
36.28000 -1.698
36.30000 0.283
36.32000 7.400
36.34000 5.857
36.36000 2.248
36.38000 2.389
36.40000 2.001
36.42000 -0.263
36.44000 0.864
36.46000 -0.952
36.48000 -0.866
36.50000 1.685
36.52000 0.363
36.54000 -0.847
36.56000 2.834
36.58000 3.158
36.60000 1.403
36.62000 0.456
36.64000 -0.536
36.66000 5.886
36.68000 0.333
36.70000 0.768
36.72000 3.094
36.74000 3.550
36.76000 0.548
36.78000 -2.338
36.80000 -0.706
36.82000 0.038
36.84000 2.116
36.86000 3.178
36.88000 0.502
36.90000 4.240
36.92000 0.801
36.94000 0.286
36.96000 -0.700
36.98000 4.834
37.00000 2.556
37.02000 2.766
37.04000 0.496
37.06000 -1.890
37.08000 -1.273
37.10000 -2.126
37.12000 -2.428
37.14000 0.293
37.16000 6.264
37.18000 3.718
37.20000 2.200
37.22000 6.216
37.24000 4.920
37.26000 2.149
37.28000 3.507
37.30000 4.364
37.32000 1.039
37.34000 -3.535
37.36000 0.588
37.38000 1.243
37.40000 -1.749
37.42000 2.544
37.44000 1.692
37.46000 3.456
37.48000 0.805
37.50000 -2.123
37.52000 -1.526
37.54000 3.279
37.56000 1.504
37.58000 1.893
37.60000 4.144
37.62000 0.901
37.64000 -1.970
37.66000 -1.689
37.68000 -1.273
37.70000 1.479
37.72000 5.257
37.74000 2.323
37.76000 -0.299
37.78000 -0.991
37.80000 3.691
37.82000 5.751
37.84000 6.762
37.86000 4.051
37.88000 0.836
37.90000 5.385
37.92000 6.355
37.94000 6.356
37.96000 6.981
37.98000 7.193
38.00000 2.739
38.02000 -0.032
38.04000 -0.917
38.06000 0.682
38.08000 1.566
38.10000 7.348
38.12000 6.535
38.14000 4.121
38.16000 3.499
38.18000 5.514
38.20000 8.877
38.22000 6.861
38.24000 6.109
38.26000 8.735
38.28000 7.386
38.30000 6.315
38.32000 10.944
38.34000 7.283
38.36000 8.929
38.38000 12.784
38.40000 17.191
38.42000 16.183
38.44000 15.668
38.46000 17.619
38.48000 15.275
38.50000 15.029
38.52000 16.280
38.54000 17.559
38.56000 10.555
38.58000 11.012
38.60000 17.291
38.62000 16.895
38.64000 14.475
38.66000 14.216
38.68000 16.879
38.70000 20.076
38.72000 14.079
38.74000 15.070
38.76000 16.373
38.78000 16.055
38.80000 14.477
38.82000 17.264
38.84000 24.149
38.86000 24.009
38.88000 18.624
38.90000 22.955
38.92000 22.967
38.94000 20.644
38.96000 22.632
38.98000 24.319
39.00000 21.318
39.02000 19.548
39.04000 25.671
39.06000 29.362
39.08000 28.461
39.10000 20.674
39.12000 23.578
39.14000 23.724
39.16000 25.654
39.18000 29.940
39.20000 34.785
39.22000 34.064
39.24000 28.068
39.26000 31.150
39.28000 36.361
39.30000 39.275
39.32000 37.082
39.34000 38.873
39.36000 42.013
39.38000 42.322
39.40000 44.068
39.42000 44.665
39.44000 45.662
39.46000 49.614
39.48000 55.048
39.50000 57.480
39.52000 60.306
39.54000 59.215
39.56000 57.635
39.58000 61.409
39.60000 63.119
39.62000 65.130
39.64000 64.469
39.66000 65.896
39.68000 71.193
39.70000 77.805
39.72000 85.997
39.74000 86.250
39.76000 94.825
39.78000 95.623
39.80000 94.030
39.82000 95.147
39.84000 102.703
39.86000 110.813
39.88000 117.910
39.90000 121.909
39.92000 125.482
39.94000 127.926
39.96000 136.725
39.98000 145.379
40.00000 148.471
40.02000 159.620
40.04000 170.732
40.06000 182.863
40.08000 194.629
40.10000 204.743
40.12000 205.100
40.14000 210.759
40.16000 221.088
40.18000 238.892
40.20000 251.543
40.22000 258.114
40.24000 279.356
40.26000 288.938
40.28000 299.335
40.30000 310.361
40.32000 330.710
40.34000 345.334
40.36000 357.578
40.38000 375.786
40.40000 387.743
40.42000 411.174
40.44000 437.253
40.46000 437.819
40.48000 455.702
40.50000 491.204
40.52000 500.554
40.54000 522.783
40.56000 538.576
40.58000 554.559
40.60000 571.986
40.62000 588.950
40.64000 608.512
40.66000 626.335
40.68000 619.701
40.70000 623.518
40.72000 645.907
40.74000 653.641
40.76000 664.780
40.78000 662.153
40.80000 669.301
40.82000 672.334
40.84000 675.384
40.86000 683.974
40.88000 677.201
40.90000 674.982
40.92000 666.495
40.94000 658.607
40.96000 654.013
40.98000 652.884
41.00000 640.752
41.02000 626.401
41.04000 606.847
41.06000 579.073
41.08000 569.847
41.10000 554.629
41.12000 539.341
41.14000 521.380
41.16000 500.148
41.18000 471.217
41.20000 455.980
41.22000 431.848
41.24000 414.258
41.26000 395.500
41.28000 383.164
41.30000 370.878
41.32000 347.718
41.34000 331.691
41.36000 315.006
41.38000 303.321
41.40000 281.935
41.42000 267.709
41.44000 253.117
41.46000 239.929
41.48000 224.842
41.50000 216.090
41.52000 205.598
41.54000 193.219
41.56000 177.246
41.58000 165.053
41.60000 158.900
41.62000 155.146
41.64000 143.670
41.66000 139.770
41.68000 134.129
41.70000 122.268
41.72000 116.703
41.74000 111.940
41.76000 105.640
41.78000 103.230
41.80000 96.338
41.82000 85.470
41.84000 84.723
41.86000 79.268
41.88000 72.937
41.90000 67.127
41.92000 66.229
41.94000 64.556
41.96000 57.710
41.98000 57.370
42.00000 62.463
42.02000 54.660
42.04000 49.605
42.06000 45.427
42.08000 44.050
42.10000 42.317
42.12000 39.887
42.14000 39.724
42.16000 39.967
42.18000 35.383
42.20000 31.771
42.22000 28.497
42.24000 29.232
42.26000 35.044
42.28000 32.175
42.30000 25.417
42.32000 23.162
42.34000 23.916
42.36000 24.437
42.38000 24.317
42.40000 25.680
42.42000 22.580
42.44000 22.358
42.46000 17.366
42.48000 12.181
42.50000 15.359
42.52000 15.262
42.54000 11.218
42.56000 7.390
42.58000 2.863
42.60000 5.954
42.62000 4.638
42.64000 6.127
42.66000 7.585
42.68000 13.517
42.70000 9.445
42.72000 7.124
42.74000 6.063
42.76000 5.789
42.78000 5.814
42.80000 4.871
42.82000 1.299
42.84000 3.322
42.86000 2.943
42.88000 -1.175
42.90000 -0.255
42.92000 8.014
42.94000 14.110
42.96000 10.171
42.98000 6.496
43.00000 2.502
43.02000 0.962
43.04000 -0.015
43.06000 5.920
43.08000 3.633
43.10000 2.161
43.12000 3.882
43.14000 6.193
43.16000 5.165
43.18000 2.315
43.20000 2.670
43.22000 7.582
43.24000 2.801
43.26000 -0.674
43.28000 -3.197
43.30000 2.816
43.32000 -0.904
43.34000 -3.659
43.36000 -0.621
43.38000 -0.456
43.40000 -2.556
43.42000 -1.441
43.44000 2.831
43.46000 0.316
43.48000 1.313
43.50000 7.117
43.52000 3.424
43.54000 -2.314
43.56000 -2.757
43.58000 -0.901
43.60000 7.016
43.62000 5.789
43.64000 0.652
43.66000 2.692
43.68000 -0.410
43.70000 -0.286
43.72000 -2.618
43.74000 -1.726
43.76000 -2.534
43.78000 -0.238
43.80000 1.305
43.82000 3.580
43.84000 -1.393
43.86000 -3.479
43.88000 -0.160
43.90000 -2.401
43.92000 -3.593
43.94000 -1.866
43.96000 -1.059
43.98000 -1.516
44.00000 -2.002
44.02000 -1.630
44.04000 0.343
44.06000 4.034
44.08000 2.071
44.10000 1.612
44.12000 1.325
44.14000 -2.570
44.16000 1.848
44.18000 3.389
44.20000 2.960
44.22000 3.176
44.24000 -1.218
44.26000 3.228
44.28000 2.354
44.30000 -0.213
44.32000 -3.068
44.34000 0.634
44.36000 0.229
44.38000 1.974
44.40000 2.486
44.42000 -1.537
44.44000 -1.060
44.46000 -0.217
44.48000 -2.468
44.50000 2.113
44.52000 2.688
44.54000 1.090
44.56000 -1.787
44.58000 -0.765
44.60000 6.170
44.62000 0.682
44.64000 -0.020
44.66000 -1.967
44.68000 -0.469
44.70000 -1.288
44.72000 -2.571
44.74000 -0.180
44.76000 0.544
44.78000 -1.688
44.80000 -3.552
44.82000 -1.327
44.84000 0.871
44.86000 5.342
44.88000 3.498
44.90000 2.653
44.92000 -2.183
44.94000 -2.271
44.96000 -1.206
44.98000 0.369
45.00000 8.333
45.02000 7.132
45.04000 0.988
45.06000 -1.133
45.08000 -0.309
45.10000 5.876
45.12000 5.419
45.14000 5.935
45.16000 7.216
45.18000 -0.514
45.20000 -3.533
45.22000 0.458
45.24000 2.786
45.26000 2.290
45.28000 4.434
45.30000 5.823
45.32000 0.482
45.34000 -3.525
45.36000 1.553
45.38000 2.538
45.40000 -0.085
45.42000 1.825
45.44000 2.543
45.46000 2.023
45.48000 2.248
45.50000 6.825
45.52000 2.126
45.54000 4.887
45.56000 7.564
45.58000 4.726
45.60000 5.118
45.62000 3.405
45.64000 6.370
45.66000 8.584
45.68000 5.535
45.70000 4.919
45.72000 4.290
45.74000 7.114
45.76000 8.652
45.78000 14.208
45.80000 16.698
45.82000 12.528
45.84000 13.049
45.86000 9.322
45.88000 12.194
45.90000 17.415
45.92000 13.882
45.94000 15.178
45.96000 12.257
45.98000 14.599
46.00000 14.224
46.02000 15.389
46.04000 22.230
46.06000 25.404
46.08000 11.531
46.10000 18.428
46.12000 20.727
46.14000 26.052
46.16000 20.135
46.18000 15.825
46.20000 17.908
46.22000 18.488
46.24000 21.010
46.26000 16.486
46.28000 20.438
46.30000 25.495
46.32000 23.543
46.34000 20.472
46.36000 23.657
46.38000 28.411
46.40000 26.598
46.42000 27.068
46.44000 30.090
46.46000 21.628
46.48000 23.048
46.50000 30.242
46.52000 33.585
46.54000 34.724
46.56000 36.995
46.58000 29.022
46.60000 30.057
46.62000 32.604
46.64000 37.142
46.66000 38.383
46.68000 49.285
46.70000 47.537
46.72000 44.627
46.74000 41.557
46.76000 39.520
46.78000 36.891
46.80000 42.447
46.82000 41.872
46.84000 47.863
46.86000 50.083
46.88000 47.723
46.90000 46.057
46.92000 52.507
46.94000 60.246
46.96000 59.354
46.98000 54.365
47.00000 51.957
47.02000 59.676
47.04000 62.987
47.06000 66.300
47.08000 64.442
47.10000 54.568
47.12000 56.460
47.14000 54.731
47.16000 66.890
47.18000 67.142
47.20000 71.126
47.22000 68.735
47.24000 67.729
47.26000 62.649
47.28000 69.372
47.30000 71.554
47.32000 73.549
47.34000 66.802
47.36000 61.483
47.38000 65.136
47.40000 72.153
47.42000 65.709
47.44000 65.499
47.46000 67.632
47.48000 66.774
47.50000 67.938
47.52000 68.765
47.54000 72.606
47.56000 71.642
47.58000 64.774
47.60000 62.243
47.62000 63.513
47.64000 61.252
47.66000 64.373
47.68000 58.555
47.70000 59.680
47.72000 62.445
47.74000 62.604
47.76000 59.631
47.78000 59.645
47.80000 56.547
47.82000 60.694
47.84000 57.338
47.86000 48.211
47.88000 46.865
47.90000 41.265
47.92000 41.833
47.94000 43.564
47.96000 43.259
47.98000 46.127
48.00000 42.710
48.02000 36.509
48.04000 42.710
48.06000 42.683
48.08000 31.334
48.10000 34.144
48.12000 37.522
48.14000 40.383
48.16000 31.620
48.18000 27.416
48.20000 24.376
48.22000 21.938
48.24000 23.801
48.26000 28.147
48.28000 25.288
48.30000 20.343
48.32000 19.399
48.34000 13.045
48.36000 12.273
48.38000 13.602
48.40000 15.681
48.42000 16.895
48.44000 21.773
48.46000 14.162
48.48000 14.359
48.50000 17.594
48.52000 14.814
48.54000 12.248
48.56000 11.319
48.58000 7.422
48.60000 7.245
48.62000 6.736
48.64000 11.456
48.66000 7.943
48.68000 4.991
48.70000 1.009
48.72000 3.932
48.74000 -0.376
48.76000 1.487
48.78000 6.614
48.80000 12.227
48.82000 10.624
48.84000 6.631
48.86000 8.043
48.88000 9.375
48.90000 10.386
48.92000 7.269
48.94000 1.771
48.96000 3.395
48.98000 3.365
49.00000 2.322
49.02000 8.593
49.04000 7.927
49.06000 6.629
49.08000 4.992
49.10000 6.122
49.12000 2.065
49.14000 -0.233
49.16000 4.403
49.18000 6.784
49.20000 3.717
49.22000 -0.517
49.24000 0.776
49.26000 3.328
49.28000 0.523
49.30000 -0.054
49.32000 4.029
49.34000 1.264
49.36000 3.803
49.38000 5.943
49.40000 2.492
49.42000 8.718
49.44000 7.590
49.46000 0.242
49.48000 8.075
49.50000 8.285
49.52000 5.676
49.54000 -3.144
49.56000 0.954
49.58000 10.223
49.60000 8.646
49.62000 3.395
49.64000 2.698
49.66000 2.176
49.68000 7.329
49.70000 7.110
49.72000 8.051
49.74000 7.353
49.76000 7.823
49.78000 0.575
49.80000 -0.760
49.82000 8.890
49.84000 8.040
49.86000 4.883
49.88000 8.434
49.90000 9.875
49.92000 2.941
49.94000 0.191
49.96000 2.792
49.98000 1.748
50.00000 4.351
50.02000 -1.084
50.04000 2.139
50.06000 -3.093
50.08000 0.479
50.10000 1.777
50.12000 2.222
50.14000 6.757
50.16000 6.764
50.18000 3.630
50.20000 6.389
50.22000 3.463
50.24000 1.829
50.26000 -1.500
50.28000 1.764
50.30000 3.422
50.32000 3.297
50.34000 1.219
50.36000 2.835
50.38000 5.077
50.40000 0.876
50.42000 -1.607
50.44000 -1.369
50.46000 2.070
50.48000 5.563
50.50000 0.969
50.52000 -0.506
50.54000 2.140
50.56000 2.661
50.58000 5.505
50.60000 9.367
50.62000 0.574
50.64000 1.598
50.66000 2.423
50.68000 5.411
50.70000 5.398
50.72000 4.729
50.74000 2.758
50.76000 -0.707
50.78000 -0.307
50.80000 -1.291
50.82000 -3.053
50.84000 1.821
50.86000 2.692
50.88000 -1.651
50.90000 0.330
50.92000 2.431
50.94000 6.716
50.96000 2.392
50.98000 -1.973
51.00000 -0.828
51.02000 -2.244
51.04000 3.624
51.06000 6.599
51.08000 6.826
51.10000 4.726
51.12000 0.789
51.14000 4.747
51.16000 -1.204
51.18000 -2.026
51.20000 1.036
51.22000 1.743
51.24000 1.268
51.26000 3.762
51.28000 4.726
51.30000 5.725
51.32000 -0.622
51.34000 0.146
51.36000 -1.473
51.38000 1.797
51.40000 2.957
51.42000 3.086
51.44000 1.440
51.46000 0.482
51.48000 -1.567
51.50000 -1.850
51.52000 -1.896
51.54000 0.853
51.56000 -0.427
51.58000 -1.586
51.60000 -0.140
51.62000 -1.431
51.64000 2.584
51.66000 4.091
51.68000 3.771
51.70000 3.554
51.72000 7.258
51.74000 0.496
51.76000 -2.025
51.78000 0.867
51.80000 6.584
51.82000 6.162
51.84000 4.259
51.86000 0.708
51.88000 5.311
51.90000 5.582
51.92000 -0.178
51.94000 -2.994
51.96000 -1.970
51.98000 3.891
52.00000 4.170
52.02000 2.090
52.04000 2.994
52.06000 3.919
52.08000 4.466
52.10000 7.588
52.12000 -1.044
52.14000 -0.470
52.16000 3.188
52.18000 8.450
52.20000 5.369
52.22000 2.402
52.24000 4.315
52.26000 9.025
52.28000 7.294
52.30000 8.991
52.32000 1.546
52.34000 1.131
52.36000 8.129
52.38000 6.234
52.40000 0.255
52.42000 -2.945
52.44000 0.331
52.46000 4.259
52.48000 1.301
52.50000 0.320
52.52000 4.938
52.54000 8.476
52.56000 3.540
52.58000 3.958
52.60000 8.496
52.62000 6.432
52.64000 8.497
52.66000 6.973
52.68000 1.491
52.70000 4.862
52.72000 1.805
52.74000 3.858
52.76000 5.810
52.78000 2.407
52.80000 2.869
52.82000 8.296
52.84000 8.578
52.86000 3.652
52.88000 5.309
52.90000 -1.642
52.92000 1.328
52.94000 5.908
52.96000 4.804
52.98000 3.564
53.00000 -2.934
53.02000 -0.904
53.04000 3.118
53.06000 7.766
53.08000 10.331
53.10000 7.164
53.12000 4.554
53.14000 2.947
53.16000 4.589
53.18000 0.429
53.20000 1.323
53.22000 4.137
53.24000 4.560
53.26000 5.302
53.28000 6.139
53.30000 4.220
53.32000 2.273
53.34000 6.222
53.36000 10.275
53.38000 10.601
53.40000 8.539
53.42000 7.376
53.44000 9.169
53.46000 10.385
53.48000 5.320
53.50000 7.308
53.52000 5.898
53.54000 6.652
53.56000 10.771
53.58000 4.702
53.60000 3.729
53.62000 0.535
53.64000 9.158
53.66000 9.581
53.68000 5.884
53.70000 5.248
53.72000 4.669
53.74000 3.991
53.76000 7.643
53.78000 5.243
53.80000 -1.285
53.82000 0.994
53.84000 6.860
53.86000 2.239
53.88000 5.852
53.90000 7.992
53.92000 4.060
53.94000 2.853
53.96000 3.309
53.98000 2.565
54.00000 6.612
54.02000 4.924
54.04000 -2.161
54.06000 4.669
54.08000 6.625
54.10000 4.795
54.12000 0.455
54.14000 5.778
54.16000 5.370
54.18000 4.031
54.20000 7.305
54.22000 6.729
54.24000 3.692
54.26000 0.989
54.28000 3.868
54.30000 4.673
54.32000 5.639
54.34000 6.304
54.36000 11.137
54.38000 1.555
54.40000 1.248
54.42000 6.211
54.44000 9.281
54.46000 3.413
54.48000 -2.858
54.50000 2.226
54.52000 6.429
54.54000 9.119
54.56000 6.352
54.58000 9.190
54.60000 9.406
54.62000 7.893
54.64000 3.951
54.66000 1.089
54.68000 1.023
54.70000 4.092
54.72000 -0.131
54.74000 3.802
54.76000 8.687
54.78000 0.132
54.80000 1.973
54.82000 5.888
54.84000 7.477
54.86000 7.419
54.88000 1.056
54.90000 4.999
54.92000 5.876
54.94000 7.524
54.96000 7.526
54.98000 3.636
55.00000 10.100
55.02000 7.480
55.04000 1.311
55.06000 2.029
55.08000 7.311
55.10000 6.897
55.12000 3.388
55.14000 5.171
55.16000 6.240
55.18000 6.498
55.20000 4.622
55.22000 4.359
55.24000 6.971
55.26000 5.086
55.28000 9.478
55.30000 10.774
55.32000 8.321
55.34000 8.763
55.36000 8.609
55.38000 3.466
55.40000 3.509
55.42000 4.424
55.44000 2.185
55.46000 3.969
55.48000 0.242
55.50000 2.346
55.52000 11.417
55.54000 7.086
55.56000 5.123
55.58000 9.825
55.60000 8.536
55.62000 2.559
55.64000 0.214
55.66000 6.314
55.68000 3.507
55.70000 0.832
55.72000 -0.082
55.74000 1.754
55.76000 -1.037
55.78000 -2.865
55.80000 -1.128
55.82000 1.715
55.84000 -0.090
55.86000 3.255
55.88000 6.705
55.90000 2.767
55.92000 3.368
55.94000 5.478
55.96000 4.853
55.98000 5.769
56.00000 5.901
56.02000 4.127
56.04000 3.586
56.06000 7.079
56.08000 -0.165
56.10000 0.912
56.12000 4.391
56.14000 9.434
56.16000 7.389
56.18000 10.545
56.20000 3.303
56.22000 2.115
56.24000 1.987
56.26000 2.819
56.28000 0.803
56.30000 -0.140
56.32000 -0.014
56.34000 3.593
56.36000 5.025
56.38000 5.272
56.40000 3.721
56.42000 7.989
56.44000 2.422
56.46000 5.650
56.48000 6.751
56.50000 8.110
56.52000 7.947
56.54000 6.760
56.56000 6.415
56.58000 5.502
56.60000 8.413
56.62000 7.049
56.64000 -0.476
56.66000 -0.688
56.68000 0.457
56.70000 -2.831
56.72000 -2.443
56.74000 0.984
56.76000 0.736
56.78000 0.477
56.80000 1.923
56.82000 3.020
56.84000 7.167
56.86000 1.849
56.88000 1.554
56.90000 5.131
56.92000 2.522
56.94000 2.729
56.96000 1.024
56.98000 1.895
57.00000 3.854
57.02000 3.228
57.04000 4.297
57.06000 2.813
57.08000 2.053
57.10000 1.068
57.12000 1.483
57.14000 4.268
57.16000 2.218
57.18000 2.782
57.20000 2.858
57.22000 1.411
57.24000 0.094
57.26000 -0.577
57.28000 1.706
57.30000 0.685
57.32000 2.655
57.34000 2.913
57.36000 0.574
57.38000 4.001
57.40000 6.781
57.42000 -2.806
57.44000 -0.528
57.46000 1.556
57.48000 5.570
57.50000 6.797
57.52000 1.996
57.54000 -1.065
57.56000 3.070
57.58000 6.265
57.60000 2.527
57.62000 1.818
57.64000 3.483
57.66000 1.068
57.68000 1.565
57.70000 3.892
57.72000 -0.822
57.74000 -0.068
57.76000 -0.706
57.78000 -1.259
57.80000 -2.795
57.82000 0.771
57.84000 2.362
57.86000 -1.464
57.88000 2.819
57.90000 1.078
57.92000 -1.566
57.94000 -2.274
57.96000 0.464
57.98000 2.638
58.00000 1.941
58.02000 4.266
58.04000 8.382
58.06000 6.129
58.08000 4.773
58.10000 4.176
58.12000 2.368
58.14000 7.924
58.16000 3.852
58.18000 -0.357
58.20000 -1.489
58.22000 2.439
58.24000 -1.850
58.26000 1.841
58.28000 3.008
58.30000 4.560
58.32000 -1.009
58.34000 -2.616
58.36000 -0.936
58.38000 -0.842
58.40000 -0.144
58.42000 3.395
58.44000 2.461
58.46000 4.403
58.48000 4.685
58.50000 6.199
58.52000 -0.034
58.54000 2.183
58.56000 6.772
58.58000 4.739
58.60000 6.900
58.62000 0.629
58.64000 0.193
58.66000 2.483
58.68000 2.038
58.70000 5.487
58.72000 1.258
58.74000 -2.787
58.76000 2.884
58.78000 2.050
58.80000 2.983
58.82000 5.033
58.84000 2.354
58.86000 2.753
58.88000 4.695
58.90000 6.011
58.92000 4.635
58.94000 3.493
58.96000 4.506
58.98000 6.767
59.00000 3.042
59.02000 3.152
59.04000 7.999
59.06000 3.383
59.08000 -1.202
59.10000 1.034
59.12000 3.118
59.14000 4.623
59.16000 3.128
59.18000 0.148
59.20000 0.821
59.22000 0.956
59.24000 -1.634
59.26000 2.355
59.28000 1.051
59.30000 1.883
59.32000 2.829
59.34000 2.681
59.36000 1.523
59.38000 5.551
59.40000 4.171
59.42000 -0.792
59.44000 5.782
59.46000 3.025
59.48000 -1.561
59.50000 4.266
59.52000 5.385
59.54000 3.145
59.56000 1.194
59.58000 3.030
59.60000 6.249
59.62000 2.003
59.64000 0.361
59.66000 0.084
59.68000 1.674
59.70000 1.680
59.72000 2.569
59.74000 2.529
59.76000 0.975
59.78000 2.157
59.80000 3.659
59.82000 1.669
59.84000 1.587
59.86000 5.490
59.88000 -0.062
59.90000 2.649
59.92000 4.393
59.94000 4.358
59.96000 1.283
59.98000 -2.154
60.00000 -0.003
60.02000 -1.514
60.04000 -2.702
60.06000 -1.807
60.08000 1.094
60.10000 0.765
60.12000 -0.204
60.14000 2.377
60.16000 -1.230
60.18000 -1.126
60.20000 7.284
60.22000 3.363
60.24000 1.159
60.26000 3.206
60.28000 4.085
60.30000 2.736
60.32000 -0.191
60.34000 -1.401
60.36000 0.984
60.38000 1.573
60.40000 5.039
60.42000 4.734
60.44000 4.124
60.46000 5.551
60.48000 4.070
60.50000 1.525
60.52000 5.154
60.54000 8.899
60.56000 6.276
60.58000 1.164
60.60000 -2.580
60.62000 0.014
60.64000 -2.679
60.66000 -1.135
60.68000 0.942
60.70000 6.113
60.72000 5.757
60.74000 1.582
60.76000 -1.486
60.78000 2.007
60.80000 1.833
60.82000 2.512
60.84000 1.549
60.86000 6.353
60.88000 7.859
60.90000 5.816
60.92000 4.849
60.94000 6.908
60.96000 2.584
60.98000 5.974
61.00000 9.399
61.02000 5.739
61.04000 2.912
61.06000 4.171
61.08000 8.197
61.10000 6.002
61.12000 3.375
61.14000 1.789
61.16000 0.920
61.18000 3.568
61.20000 1.519
61.22000 1.264
61.24000 1.358
61.26000 3.719
61.28000 4.963
61.30000 3.996
61.32000 1.007
61.34000 3.343
61.36000 4.191
61.38000 -0.006
61.40000 4.141
61.42000 4.106
61.44000 6.246
61.46000 6.264
61.48000 2.503
61.50000 1.263
61.52000 0.654
61.54000 -2.279
61.56000 1.588
61.58000 2.419
61.60000 3.525
61.62000 3.386
61.64000 0.401
61.66000 -0.761
61.68000 -2.634
61.70000 0.518
61.72000 6.339
61.74000 9.210
61.76000 6.856
61.78000 1.767
61.80000 2.073
61.82000 4.931
61.84000 5.534
61.86000 3.017
61.88000 8.248
61.90000 7.371
61.92000 1.587
61.94000 0.597
61.96000 1.691
61.98000 2.577
62.00000 4.265
62.02000 2.611
62.04000 5.498
62.06000 7.209
62.08000 10.378
62.10000 10.213
62.12000 4.748
62.14000 1.441
62.16000 -2.604
62.18000 4.621
62.20000 7.070
62.22000 4.903
62.24000 4.355
62.26000 4.231
62.28000 4.083
62.30000 0.124
62.32000 2.558
62.34000 3.226
62.36000 4.675
62.38000 2.706
62.40000 4.433
62.42000 3.114
62.44000 2.437
62.46000 5.249
62.48000 3.145
62.50000 2.720
62.52000 1.924
62.54000 -1.044
62.56000 3.248
62.58000 5.435
62.60000 5.015
62.62000 5.277
62.64000 3.182
62.66000 2.262
62.68000 0.313
62.70000 2.014
62.72000 -1.568
62.74000 0.646
62.76000 0.799
62.78000 5.318
62.80000 1.687
62.82000 -0.196
62.84000 3.640
62.86000 3.378
62.88000 -1.344
62.90000 -0.360
62.92000 3.135
62.94000 6.124
62.96000 1.028
62.98000 1.508
63.00000 -1.540
63.02000 -2.617
63.04000 -1.377
63.06000 -0.720
63.08000 -1.426
63.10000 -0.182
63.12000 1.231
63.14000 -1.343
63.16000 -1.449
63.18000 2.345
63.20000 5.483
63.22000 4.769
63.24000 7.766
63.26000 7.345
63.28000 3.518
63.30000 2.114
63.32000 2.556
63.34000 2.082
63.36000 1.311
63.38000 1.247
63.40000 -0.337
63.42000 -0.465
63.44000 -0.982
63.46000 4.942
63.48000 1.933
63.50000 0.315
63.52000 -0.195
63.54000 -2.606
63.56000 -0.060
63.58000 2.200
63.60000 6.798
63.62000 8.220
63.64000 5.952
63.66000 8.265
63.68000 5.927
63.70000 3.944
63.72000 0.870
63.74000 0.639
63.76000 2.355
63.78000 3.914
63.80000 7.410
63.82000 2.057
63.84000 0.859
63.86000 1.018
63.88000 3.442
63.90000 1.334
63.92000 -1.019
63.94000 2.131
63.96000 3.148
63.98000 2.365
64.00000 2.781
64.02000 0.374
64.04000 1.257
64.06000 -0.769
64.08000 -1.433
64.10000 0.214
64.12000 -0.726
64.14000 1.306
64.16000 2.054
64.18000 -0.698
64.20000 -0.718
64.22000 4.386
64.24000 2.820
64.26000 1.899
64.28000 4.467
64.30000 3.364
64.32000 1.445
64.34000 0.653
64.36000 1.125
64.38000 2.474
64.40000 1.124
64.42000 -0.638
64.44000 0.892
64.46000 2.688
64.48000 1.066
64.50000 2.214
64.52000 4.437
64.54000 6.219
64.56000 0.889
64.58000 0.425
64.60000 -2.056
64.62000 0.863
64.64000 5.728
64.66000 2.174
64.68000 1.227
64.70000 2.137
64.72000 3.529
64.74000 1.498
64.76000 2.829
64.78000 -2.607
64.80000 -0.369
64.82000 1.100
64.84000 1.063
64.86000 5.037
64.88000 5.046
64.90000 1.392
64.92000 3.374
64.94000 0.180
64.96000 -0.758
64.98000 4.502
65.00000 3.594
65.02000 -1.029
65.04000 0.671
65.06000 -0.333
65.08000 3.141
65.10000 1.977
65.12000 2.433
65.14000 5.133
65.16000 3.365
65.18000 4.093
65.20000 4.954
65.22000 1.069
65.24000 -0.478
65.26000 0.565
65.28000 2.615
65.30000 4.369
65.32000 4.262
65.34000 0.465
65.36000 2.007
65.38000 -0.952
65.40000 1.085
65.42000 1.734
65.44000 2.314
65.46000 2.246
65.48000 2.276
65.50000 0.903
65.52000 1.460
65.54000 2.833
65.56000 2.569
65.58000 4.331
65.60000 1.372
65.62000 -2.143
65.64000 4.409
65.66000 -0.633
65.68000 2.503
65.70000 2.689
65.72000 -2.574
65.74000 -2.176
65.76000 4.059
65.78000 4.347
65.80000 0.867
65.82000 1.464
65.84000 4.620
65.86000 1.959
65.88000 2.783
65.90000 3.970
65.92000 -2.563
65.94000 -2.562
65.96000 1.596
65.98000 1.962
66.00000 0.682
66.02000 -0.074
66.04000 0.745
66.06000 3.221
66.08000 2.098
66.10000 4.939
66.12000 2.201
66.14000 2.081
66.16000 1.701
66.18000 1.802
66.20000 4.188
66.22000 1.048
66.24000 0.993
66.26000 1.939
66.28000 3.639
66.30000 5.278
66.32000 5.237
66.34000 3.259
66.36000 3.097
66.38000 2.035
66.40000 1.753
66.42000 2.887
66.44000 2.351
66.46000 -0.078
66.48000 1.185
66.50000 3.524
66.52000 3.020
66.54000 2.793
66.56000 3.210
66.58000 -0.316
66.60000 0.673
66.62000 2.963
66.64000 3.587
66.66000 2.897
66.68000 2.733
66.70000 -0.485
66.72000 0.730
66.74000 2.730
66.76000 -0.724
66.78000 1.659
66.80000 4.542
66.82000 4.298
66.84000 2.120
66.86000 2.524
66.88000 3.444
66.90000 3.102
66.92000 2.284
66.94000 0.953
66.96000 -2.553
66.98000 2.869
67.00000 3.079
67.02000 4.255
67.04000 0.344
67.06000 1.721
67.08000 -0.830
67.10000 -1.979
67.12000 0.657
67.14000 3.150
67.16000 2.542
67.18000 3.519
67.20000 4.014
67.22000 3.604
67.24000 2.064
67.26000 2.194
67.28000 3.453
67.30000 5.155
67.32000 2.740
67.34000 2.419
67.36000 5.267
67.38000 4.114
67.40000 3.479
67.42000 3.025
67.44000 2.453
67.46000 3.768
67.48000 3.353
67.50000 2.944
67.52000 0.241
67.54000 1.735
67.56000 2.794
67.58000 3.081
67.60000 2.397
67.62000 -1.839
67.64000 0.978
67.66000 1.409
67.68000 -1.112
67.70000 -0.975
67.72000 -0.776
67.74000 -1.805
67.76000 -0.728
67.78000 -1.020
67.80000 0.993
67.82000 -0.333
67.84000 -0.833
67.86000 -0.168
67.88000 2.695
67.90000 0.936
67.92000 0.915
67.94000 0.304
67.96000 -1.381
67.98000 -2.625
68.00000 -2.346
68.02000 -1.254
68.04000 2.952
68.06000 4.425
68.08000 2.372
68.10000 4.881
68.12000 6.287
68.14000 3.582
68.16000 3.183
68.18000 3.895
68.20000 4.201
68.22000 5.102
68.24000 3.319
68.26000 2.835
68.28000 2.461
68.30000 5.198
68.32000 2.664
68.34000 3.290
68.36000 5.196
68.38000 6.585
68.40000 3.122
68.42000 6.604
68.44000 4.782
68.46000 4.216
68.48000 6.475
68.50000 4.550
68.52000 5.094
68.54000 6.047
68.56000 3.274
68.58000 5.322
68.60000 7.577
68.62000 9.939
68.64000 12.101
68.66000 11.821
68.68000 13.746
68.70000 15.538
68.72000 11.713
68.74000 7.808
68.76000 11.146
68.78000 11.586
68.80000 12.031
68.82000 15.443
68.84000 12.470
68.86000 14.684
68.88000 13.137
68.90000 16.068
68.92000 15.063
68.94000 19.253
68.96000 17.997
68.98000 17.871
69.00000 17.449
69.02000 22.410
69.04000 21.756
69.06000 19.690
69.08000 17.911
69.10000 20.379
69.12000 18.135
69.14000 22.938
69.16000 25.710
69.18000 23.804
69.20000 26.099
69.22000 25.625
69.24000 26.190
69.26000 25.734
69.28000 28.566
69.30000 27.903
69.32000 26.991
69.34000 26.111
69.36000 24.003
69.38000 20.197
69.40000 23.361
69.42000 29.456
69.44000 29.191
69.46000 26.733
69.48000 24.283
69.50000 23.281
69.52000 27.936
69.54000 23.817
69.56000 20.514
69.58000 23.728
69.60000 27.939
69.62000 27.690
69.64000 22.840
69.66000 23.141
69.68000 20.667
69.70000 21.976
69.72000 19.587
69.74000 16.036
69.76000 19.695
69.78000 20.276
69.80000 18.220
69.82000 18.578
69.84000 18.690
69.86000 14.582
69.88000 14.175
69.90000 14.790
69.92000 12.710
69.94000 18.313
69.96000 16.710
69.98000 13.403
70.00000 15.388
70.02000 11.668
70.04000 9.807
70.06000 8.575
70.08000 12.267
70.10000 10.651
70.12000 7.491
70.14000 7.314
70.16000 7.652
70.18000 9.054
70.20000 8.276
70.22000 8.180
70.24000 7.341
70.26000 7.411
70.28000 8.179
70.30000 4.616
70.32000 7.145
70.34000 2.670
70.36000 3.197
70.38000 6.626
70.40000 6.964
70.42000 4.884
70.44000 0.371
70.46000 2.347
70.48000 3.733
70.50000 4.761
70.52000 4.166
70.54000 2.868
70.56000 2.824
70.58000 3.340
70.60000 1.672
70.62000 1.170
70.64000 3.516
70.66000 2.699
70.68000 -1.849
70.70000 -2.467
70.72000 0.019
70.74000 2.922
70.76000 4.920
70.78000 0.278
70.80000 -0.442
70.82000 1.920
70.84000 4.384
70.86000 0.671
70.88000 2.803
70.90000 5.101
70.92000 3.576
70.94000 4.876
70.96000 -0.165
70.98000 -1.937
71.00000 -0.767
71.02000 2.355
71.04000 1.486
71.06000 3.400
71.08000 2.589
71.10000 -1.771
71.12000 -0.690
71.14000 6.014
71.16000 1.488
71.18000 1.213
71.20000 3.503
71.22000 4.266
71.24000 2.744
71.26000 4.328
71.28000 3.687
71.30000 2.523
71.32000 1.198
71.34000 6.999
71.36000 6.770
71.38000 9.899
71.40000 6.648
71.42000 4.246
71.44000 -0.588
71.46000 3.611
71.48000 7.769
71.50000 7.605
71.52000 8.424
71.54000 4.013
71.56000 4.784
71.58000 2.373
71.60000 2.037
71.62000 -2.317
71.64000 -1.200
71.66000 2.822
71.68000 4.614
71.70000 7.342
71.72000 5.517
71.74000 5.229
71.76000 2.809
71.78000 3.282
71.80000 3.269
71.82000 2.482
71.84000 -0.464
71.86000 3.245
71.88000 4.666
71.90000 4.358
71.92000 4.305
71.94000 4.357
71.96000 2.086
71.98000 2.564
72.00000 2.156
72.02000 1.096
72.04000 5.195
72.06000 2.721
72.08000 4.633
72.10000 8.904
72.12000 9.989
72.14000 3.038
72.16000 5.023
72.18000 0.903
72.20000 0.632
72.22000 2.850
72.24000 3.785
72.26000 5.151
72.28000 2.815
72.30000 5.388
72.32000 3.083
72.34000 4.931
72.36000 3.480
72.38000 -0.263
72.40000 -0.913
72.42000 1.206
72.44000 4.025
72.46000 4.851
72.48000 4.176
72.50000 3.203
72.52000 0.209
72.54000 -1.453
72.56000 1.423
72.58000 3.177
72.60000 1.296
72.62000 -2.303
72.64000 1.311
72.66000 3.525
72.68000 2.209
72.70000 0.506
72.72000 -0.488
72.74000 2.521
72.76000 2.419
72.78000 2.868
72.80000 1.112
72.82000 -0.407
72.84000 2.654
72.86000 4.433
72.88000 0.632
72.90000 0.101
72.92000 2.784
72.94000 2.299
72.96000 2.018
72.98000 1.254
73.00000 3.096
73.02000 3.208
73.04000 3.810
73.06000 12.834
73.08000 7.957
73.10000 5.672
73.12000 3.778
73.14000 -0.930
73.16000 0.819
73.18000 2.262
73.20000 1.906
73.22000 0.303
73.24000 0.728
73.26000 2.658
73.28000 4.006
73.30000 1.488
73.32000 0.844
73.34000 0.554
73.36000 -2.258
73.38000 1.593
73.40000 4.768
73.42000 1.028
73.44000 4.613
73.46000 2.002
73.48000 0.617
73.50000 1.658
73.52000 1.602
73.54000 2.669
73.56000 1.567
73.58000 -0.542
73.60000 0.319
73.62000 4.046
73.64000 2.400
73.66000 0.899
73.68000 -0.462
73.70000 1.600
73.72000 2.464
73.74000 2.231
73.76000 3.500
73.78000 6.979
73.80000 5.525
73.82000 5.209
73.84000 -0.142
73.86000 0.017
73.88000 0.656
73.90000 -2.221
73.92000 -0.070
73.94000 5.231
73.96000 6.443
73.98000 6.567
74.00000 4.710
74.02000 -1.526
74.04000 -0.403
74.06000 3.076
74.08000 3.245
74.10000 6.037
74.12000 3.204
74.14000 -2.214
74.16000 2.375
74.18000 5.137
74.20000 4.815
74.22000 6.116
74.24000 5.071
74.26000 4.220
74.28000 4.005
74.30000 6.056
74.32000 7.010
74.34000 5.519
74.36000 3.473
74.38000 0.474
74.40000 1.397
74.42000 5.575
74.44000 3.244
74.46000 1.161
74.48000 1.215
74.50000 1.891
74.52000 2.423
74.54000 2.305
74.56000 1.412
74.58000 3.000
74.60000 2.129
74.62000 1.069
74.64000 0.964
74.66000 3.071
74.68000 -0.056
74.70000 2.456
74.72000 1.644
74.74000 -2.237
74.76000 2.377
74.78000 5.775
74.80000 8.426
74.82000 8.907
74.84000 3.958
74.86000 2.574
74.88000 -0.598
74.90000 -0.289
74.92000 -0.373
74.94000 3.669
74.96000 4.631
74.98000 3.874
75.00000 4.048
75.02000 1.999
75.04000 0.947
75.06000 5.083
75.08000 6.249
75.10000 5.349
75.12000 4.823
75.14000 1.307
75.16000 -0.817
75.18000 -0.313
75.20000 -2.252
75.22000 1.408
75.24000 2.508
75.26000 6.070
75.28000 2.548
75.30000 -1.377
75.32000 1.612
75.34000 4.148
75.36000 7.073
75.38000 3.602
75.40000 2.646
75.42000 5.811
75.44000 4.151
75.46000 3.700
75.48000 3.205
75.50000 -0.313
75.52000 0.512
75.54000 -0.666
75.56000 0.115
75.58000 1.190
75.60000 0.278
75.62000 2.514
75.64000 0.067
75.66000 1.003
75.68000 1.058
75.70000 1.735
75.72000 3.502
75.74000 2.600
75.76000 6.582
75.78000 4.504
75.80000 -0.222
75.82000 1.964
75.84000 4.524
75.86000 1.450
75.88000 -1.193
75.90000 -0.956
75.92000 4.931
75.94000 4.227
75.96000 2.215
75.98000 0.593
76.00000 0.569
76.02000 0.898
76.04000 0.975
76.06000 1.186
76.08000 1.428
76.10000 2.328
76.12000 8.735
76.14000 3.654
76.16000 3.256
76.18000 1.270
76.20000 1.826
76.22000 3.488
76.24000 3.678
76.26000 3.504
76.28000 -2.242
76.30000 1.821
76.32000 1.056
76.34000 5.146
76.36000 3.984
76.38000 3.637
76.40000 1.938
76.42000 2.169
76.44000 2.051
76.46000 0.606
76.48000 -2.248
76.50000 0.979
76.52000 3.635
76.54000 3.508
76.56000 5.521
76.58000 4.572
76.60000 1.257
76.62000 3.900
76.64000 3.422
76.66000 -0.055
76.68000 0.580
76.70000 0.556
76.72000 1.374
76.74000 5.042
76.76000 4.411
76.78000 2.059
76.80000 3.370
76.82000 3.962
76.84000 1.796
76.86000 1.246
76.88000 2.221
76.90000 -0.114
76.92000 1.985
76.94000 0.263
76.96000 0.857
76.98000 -2.220
77.00000 -0.298
77.02000 1.237
77.04000 0.309
77.06000 4.055
77.08000 5.582
77.10000 4.265
77.12000 2.145
77.14000 -2.273
77.16000 -0.556
77.18000 1.166
77.20000 3.189
77.22000 3.713
77.24000 1.138
77.26000 -1.738
77.28000 -1.346
77.30000 1.584
77.32000 6.832
77.34000 5.167
77.36000 -0.069
77.38000 -0.556
77.40000 3.282
77.42000 5.760
77.44000 6.125
77.46000 2.656
77.48000 2.569
77.50000 4.075
77.52000 0.200
77.54000 -0.493
77.56000 4.571
77.58000 1.706
77.60000 2.402
77.62000 -0.617
77.64000 -2.269
77.66000 -0.258
77.68000 2.978
77.70000 4.851
77.72000 4.838
77.74000 5.776
77.76000 -0.248
77.78000 4.004
77.80000 3.341
77.82000 4.794
77.84000 3.999
77.86000 3.327
77.88000 2.020
77.90000 2.398
77.92000 3.199
77.94000 4.320
77.96000 0.964
77.98000 2.126
78.00000 5.198
78.02000 2.662
78.04000 3.651
78.06000 5.019
78.08000 3.603
78.10000 5.329
78.12000 5.655
78.14000 4.097
78.16000 0.697
78.18000 2.452
78.20000 3.410
78.22000 9.040
78.24000 6.784
78.26000 4.771
78.28000 5.744
78.30000 1.166
78.32000 -0.075
78.34000 1.978
78.36000 3.111
78.38000 4.120
78.40000 4.756
78.42000 0.150
78.44000 1.543
78.46000 5.384
78.48000 4.528
78.50000 5.828
78.52000 4.653
78.54000 0.659
78.56000 -2.253
78.58000 1.889
78.60000 1.666
78.62000 5.487
78.64000 1.850
78.66000 6.128
78.68000 6.062
78.70000 1.762
78.72000 2.435
78.74000 5.117
78.76000 5.543
78.78000 4.430
78.80000 3.368
78.82000 3.278
78.84000 0.141
78.86000 -1.343
78.88000 0.752
78.90000 3.466
78.92000 0.105
78.94000 1.097
78.96000 -0.815
78.98000 -0.855
79.00000 5.249
79.02000 4.862
79.04000 3.103
79.06000 -0.011
79.08000 3.288
79.10000 5.306
79.12000 0.543
79.14000 0.193
79.16000 3.293
79.18000 4.210
79.20000 2.653
79.22000 2.515
79.24000 1.128
79.26000 1.888
79.28000 1.883
79.30000 1.836
79.32000 3.236
79.34000 4.763
79.36000 4.907
79.38000 5.324
79.40000 6.306
79.42000 4.144
79.44000 1.489
79.46000 5.392
79.48000 1.115
79.50000 4.861
79.52000 5.087
79.54000 4.725
79.56000 0.571
79.58000 0.846
79.60000 -1.363
79.62000 -1.866
79.64000 0.423
79.66000 3.009
79.68000 2.593
79.70000 0.082
79.72000 0.315
79.74000 2.936
79.76000 1.698
79.78000 4.944
79.80000 6.007
79.82000 4.390
79.84000 2.088
79.86000 -0.653
79.88000 2.214
79.90000 1.692
79.92000 2.792
79.94000 3.176
79.96000 3.551
79.98000 -2.266
80.00000 0.535
80.02000 1.217
80.04000 1.773
80.06000 4.026
80.08000 6.934
80.10000 3.680
80.12000 4.507
80.14000 0.049
80.16000 -0.872
80.18000 5.065
80.20000 2.395
80.22000 2.523
80.24000 5.572
80.26000 6.838
80.28000 5.495
80.30000 0.617
80.32000 2.524
80.34000 5.625
80.36000 5.332
80.38000 3.159
80.40000 1.522
80.42000 5.734
80.44000 5.157
80.46000 5.334
80.48000 2.902
80.50000 -0.698
80.52000 3.810
80.54000 6.351
80.56000 6.567
80.58000 4.969
80.60000 4.177
80.62000 5.072
80.64000 1.457
80.66000 1.938
80.68000 5.383
80.70000 5.556
80.72000 2.276
80.74000 1.881
80.76000 4.548
80.78000 4.273
80.80000 -2.291
80.82000 -1.909
80.84000 0.112
80.86000 4.674
80.88000 6.149
80.90000 2.065
80.92000 1.743
80.94000 0.627
80.96000 0.412
80.98000 2.556
81.00000 1.513
81.02000 3.418
81.04000 3.003
81.06000 2.589
81.08000 4.211
81.10000 3.809
81.12000 6.587
81.14000 6.144
81.16000 9.259
81.18000 7.577
81.20000 0.766
81.22000 0.881
81.24000 2.792
81.26000 2.538
81.28000 4.361
81.30000 4.873
81.32000 2.126
81.34000 2.323
81.36000 -1.650
81.38000 4.506
81.40000 5.624
81.42000 -0.009
81.44000 -0.576
81.46000 0.317
81.48000 -2.046
81.50000 -2.137
81.52000 -1.447
81.54000 -2.341
81.56000 0.476
81.58000 6.702
81.60000 4.852
81.62000 6.327
81.64000 4.689
81.66000 4.153
81.68000 0.803
81.70000 2.218
81.72000 2.488
81.74000 0.011
81.76000 -1.664
81.78000 0.633
81.80000 5.520
81.82000 2.471
81.84000 3.897
81.86000 0.655
81.88000 -0.321
81.90000 -0.733
81.92000 0.709
81.94000 0.905
81.96000 0.640
81.98000 3.118
82.00000 1.729
82.02000 -2.408
82.04000 -0.456
82.06000 0.693
82.08000 2.049
82.10000 1.761
82.12000 2.185
82.14000 -1.774
82.16000 -1.564
82.18000 1.217
82.20000 -1.112
82.22000 -1.622
82.24000 2.732
82.26000 1.562
82.28000 4.726
82.30000 6.686
82.32000 5.456
82.34000 4.754
82.36000 5.646
82.38000 5.141
82.40000 4.113
82.42000 2.235
82.44000 2.674
82.46000 5.914
82.48000 3.325
82.50000 6.122
82.52000 4.100
82.54000 4.719
82.56000 1.246
82.58000 0.556
82.60000 5.178
82.62000 3.774
82.64000 3.377
82.66000 5.773
82.68000 6.857
82.70000 7.948
82.72000 7.184
82.74000 8.427
82.76000 10.742
82.78000 6.450
82.80000 4.116
82.82000 9.489
82.84000 12.890
82.86000 9.682
82.88000 7.564
82.90000 5.064
82.92000 8.244
82.94000 7.644
82.96000 8.988
82.98000 7.058
83.00000 5.273
83.02000 10.247
83.04000 11.641
83.06000 12.112
83.08000 9.504
83.10000 12.557
83.12000 10.364
83.14000 6.128
83.16000 13.449
83.18000 18.918
83.20000 16.149
83.22000 14.936
83.24000 15.885
83.26000 15.445
83.28000 10.301
83.30000 11.626
83.32000 15.557
83.34000 19.518
83.36000 15.686
83.38000 13.038
83.40000 9.736
83.42000 12.504
83.44000 18.588
83.46000 19.152
83.48000 16.630
83.50000 17.092
83.52000 16.065
83.54000 22.537
83.56000 20.401
83.58000 17.249
83.60000 24.228
83.62000 20.257
83.64000 16.507
83.66000 15.709
83.68000 22.268
83.70000 23.197
83.72000 24.624
83.74000 25.131
83.76000 23.764
83.78000 18.581
83.80000 17.494
83.82000 27.101
83.84000 29.822
83.86000 26.471
83.88000 20.240
83.90000 20.268
83.92000 23.053
83.94000 20.639
83.96000 21.730
83.98000 18.967
84.00000 20.777
84.02000 26.501
84.04000 27.803
84.06000 23.540
84.08000 24.552
84.10000 25.752
84.12000 24.736
84.14000 28.911
84.16000 23.601
84.18000 20.765
84.20000 19.414
84.22000 18.970
84.24000 17.148
84.26000 19.143
84.28000 21.351
84.30000 18.143
84.32000 17.931
84.34000 17.008
84.36000 14.252
84.38000 16.469
84.40000 12.963
84.42000 11.104
84.44000 13.982
84.46000 18.866
84.48000 16.878
84.50000 11.112
84.52000 10.252
84.54000 14.454
84.56000 9.819
84.58000 8.305
84.60000 9.941
84.62000 13.040
84.64000 12.690
84.66000 10.912
84.68000 11.602
84.70000 10.186
84.72000 9.636
84.74000 12.075
84.76000 6.504
84.78000 10.007
84.80000 10.327
84.82000 9.665
84.84000 9.074
84.86000 5.100
84.88000 6.506
84.90000 7.237
84.92000 8.085
84.94000 6.488
84.96000 7.197
84.98000 7.135
85.00000 7.625
85.02000 8.229
85.04000 8.564
85.06000 4.199
85.08000 2.639
85.10000 6.008
85.12000 5.974
85.14000 5.817
85.16000 10.447
85.18000 10.973
85.20000 7.396
85.22000 0.621
85.24000 1.612
85.26000 5.032
85.28000 0.865
85.30000 2.622
85.32000 0.790
85.34000 -2.401
85.36000 -0.286
85.38000 5.052
85.40000 5.695
85.42000 -2.392
85.44000 -0.393
85.46000 1.987
85.48000 1.090
85.50000 2.112
85.52000 0.034
85.54000 -0.631
85.56000 0.436
85.58000 0.965
85.60000 3.688
85.62000 0.738
85.64000 2.024
85.66000 1.986
85.68000 0.337
85.70000 1.417
85.72000 2.759
85.74000 3.989
85.76000 4.670
85.78000 -0.099
85.80000 0.670
85.82000 3.400
85.84000 4.057
85.86000 2.751
85.88000 -1.456
85.90000 -0.174
85.92000 2.476
85.94000 2.429
85.96000 1.431
85.98000 0.250
86.00000 1.326
86.02000 -0.117
86.04000 -1.121
86.06000 2.687
86.08000 2.566
86.10000 2.886
86.12000 -1.464
86.14000 -1.705
86.16000 2.312
86.18000 2.310
86.20000 -1.447
86.22000 -2.339
86.24000 -0.225
86.26000 1.136
86.28000 1.221
86.30000 2.997
86.32000 0.549
86.34000 2.153
86.36000 3.885
86.38000 -1.867
86.40000 -0.132
86.42000 3.210
86.44000 3.977
86.46000 1.727
86.48000 0.386
86.50000 -1.689
86.52000 1.413
86.54000 6.788
86.56000 7.427
86.58000 3.505
86.60000 3.116
86.62000 0.906
86.64000 -2.341
86.66000 0.331
86.68000 0.971
86.70000 3.773
86.72000 4.219
86.74000 5.846
86.76000 1.440
86.78000 -0.300
86.80000 3.032
86.82000 1.266
86.84000 -0.352
86.86000 -0.313
86.88000 3.556
86.90000 6.108
86.92000 5.268
86.94000 5.168
86.96000 4.714
86.98000 3.943
87.00000 2.587
87.02000 3.864
87.04000 2.830
87.06000 6.263
87.08000 7.569
87.10000 3.378
87.12000 3.116
87.14000 4.880
87.16000 7.971
87.18000 6.411
87.20000 6.977
87.22000 4.288
87.24000 3.875
87.26000 8.595
87.28000 11.988
87.30000 7.076
87.32000 7.721
87.34000 8.483
87.36000 10.290
87.38000 12.172
87.40000 9.275
87.42000 7.043
87.44000 7.269
87.46000 9.522
87.48000 9.900
87.50000 9.852
87.52000 8.997
87.54000 10.501
87.56000 10.093
87.58000 12.528
87.60000 11.596
87.62000 7.730
87.64000 7.856
87.66000 9.966
87.68000 13.002
87.70000 12.972
87.72000 11.325
87.74000 16.764
87.76000 14.295
87.78000 13.228
87.80000 12.244
87.82000 15.089
87.84000 15.288
87.86000 16.120
87.88000 21.302
87.90000 25.971
87.92000 18.427
87.94000 20.247
87.96000 15.814
87.98000 15.953
88.00000 16.566
88.02000 18.886
88.04000 20.679
88.06000 20.589
88.08000 24.758
88.10000 20.026
88.12000 23.918
88.14000 26.156
88.16000 23.172
88.18000 29.237
88.20000 28.092
88.22000 26.191
88.24000 18.395
88.26000 18.987
88.28000 27.979
88.30000 27.944
88.32000 26.295
88.34000 24.211
88.36000 28.781
88.38000 33.564
88.40000 30.284
88.42000 28.568
88.44000 26.454
88.46000 27.640
88.48000 26.457
88.50000 28.922
88.52000 29.281
88.54000 27.627
88.56000 31.425
88.58000 31.403
88.60000 28.704
88.62000 23.411
88.64000 22.373
88.66000 21.982
88.68000 24.753
88.70000 31.924
88.72000 27.251
88.74000 25.651
88.76000 26.353
88.78000 30.534
88.80000 26.256
88.82000 25.100
88.84000 26.270
88.86000 28.948
88.88000 26.197
88.90000 29.018
88.92000 24.875
88.94000 22.538
88.96000 22.746
88.98000 22.934
89.00000 19.346
89.02000 19.574
89.04000 21.376
89.06000 21.005
89.08000 17.237
89.10000 20.271
89.12000 18.844
89.14000 13.649
89.16000 14.303
89.18000 14.879
89.20000 15.956
89.22000 20.086
89.24000 19.498
89.26000 14.460
89.28000 16.310
89.30000 12.901
89.32000 10.676
89.34000 14.195
89.36000 12.682
89.38000 9.677
89.40000 11.671
89.42000 10.297
89.44000 12.982
89.46000 17.339
89.48000 13.913
89.50000 13.339
89.52000 11.897
89.54000 13.439
89.56000 11.989
89.58000 12.164
89.60000 9.211
89.62000 10.146
89.64000 7.056
89.66000 9.698
89.68000 11.728
89.70000 8.033
89.72000 8.181
89.74000 9.434
89.76000 4.831
89.78000 -2.219
89.80000 3.439
89.82000 5.866
89.84000 9.647
89.86000 7.335
89.88000 5.688
89.90000 9.187
89.92000 9.436
89.94000 7.582
89.96000 5.423
89.98000 2.857
90.00000 1.295
90.02000 3.151
90.04000 5.431
90.06000 4.998
90.08000 8.327
90.10000 12.393
90.12000 6.741
90.14000 3.756
90.16000 4.546
90.18000 6.975
90.20000 3.214
90.22000 4.456
90.24000 4.803
90.26000 1.752
90.28000 1.179
90.30000 2.925
90.32000 1.091
90.34000 5.553
90.36000 5.442
90.38000 1.646
90.40000 -1.984
90.42000 -1.027
90.44000 1.348
90.46000 4.824
90.48000 0.241
90.50000 3.196
90.52000 4.934
90.54000 7.923
90.56000 7.195
90.58000 1.897
90.60000 3.359
90.62000 6.103
90.64000 4.563
90.66000 2.819
90.68000 3.108
90.70000 1.301
90.72000 -2.145
90.74000 3.210
90.76000 4.516
90.78000 3.567
90.80000 3.595
90.82000 4.569
90.84000 5.100
90.86000 8.691
90.88000 6.933
90.90000 4.071
90.92000 -0.516
90.94000 4.093
90.96000 5.257
90.98000 3.512
91.00000 0.368
91.02000 2.453
91.04000 0.547
91.06000 0.807
91.08000 3.461
91.10000 1.612
91.12000 0.001
91.14000 0.827
91.16000 2.036
91.18000 1.779
91.20000 -0.418
91.22000 0.509
91.24000 4.173
91.26000 1.959
91.28000 -0.266
91.30000 7.251
91.32000 6.193
91.34000 2.775
91.36000 1.715
91.38000 1.916
91.40000 5.816
91.42000 4.807
91.44000 3.354
91.46000 1.854
91.48000 1.489
91.50000 1.280
91.52000 0.588
91.54000 -0.415
91.56000 0.707
91.58000 6.220
91.60000 7.150
91.62000 2.455
91.64000 -0.025
91.66000 -0.824
91.68000 -0.173
91.70000 2.151
91.72000 5.312
91.74000 4.744
91.76000 2.934
91.78000 -0.209
91.80000 -2.183
91.82000 0.022
91.84000 3.762
91.86000 0.210
91.88000 1.360
91.90000 1.855
91.92000 4.396
91.94000 2.518
91.96000 1.681
91.98000 0.689
92.00000 0.802
92.02000 4.073
92.04000 2.146
92.06000 -0.343
92.08000 -1.536
92.10000 1.838
92.12000 5.063
92.14000 4.309
92.16000 0.987
92.18000 3.781
92.20000 0.933
92.22000 0.173
92.24000 0.921
92.26000 2.879
92.28000 1.778
92.30000 2.536
92.32000 2.225
92.34000 -2.168
92.36000 1.674
92.38000 5.342
92.40000 4.985
92.42000 5.380
92.44000 2.238
92.46000 -1.452
92.48000 0.546
92.50000 4.681
92.52000 4.096
92.54000 4.311
92.56000 4.786
92.58000 4.669
92.60000 2.513
92.62000 2.029
92.64000 -1.797
92.66000 -0.907
92.68000 3.280
92.70000 7.312
92.72000 1.928
92.74000 -1.473
92.76000 7.301
92.78000 4.132
92.80000 -2.150
92.82000 1.567
92.84000 3.429
92.86000 4.281
92.88000 4.605
92.90000 5.387
92.92000 6.598
92.94000 2.739
92.96000 1.026
92.98000 1.063
93.00000 1.974
93.02000 0.753
93.04000 2.156
93.06000 3.377
93.08000 4.578
93.10000 0.444
93.12000 3.881
93.14000 3.981
93.16000 4.863
93.18000 -0.765
93.20000 -0.585
93.22000 2.626
93.24000 2.697
93.26000 0.410
93.28000 0.820
93.30000 2.474
93.32000 -0.751
93.34000 -2.012
93.36000 1.701
93.38000 5.702
93.40000 4.808
93.42000 0.117
93.44000 2.953
93.46000 6.917
93.48000 2.039
93.50000 2.470
93.52000 8.987
93.54000 6.184
93.56000 4.287
93.58000 3.611
93.60000 6.274
93.62000 2.643
93.64000 -2.068
93.66000 3.645
93.68000 3.510
93.70000 -2.157
93.72000 1.208
93.74000 3.508
93.76000 3.135
93.78000 2.940
93.80000 1.715
93.82000 4.024
93.84000 1.790
93.86000 -0.557
93.88000 1.106
93.90000 3.599
93.92000 3.811
93.94000 7.200
93.96000 8.407
93.98000 5.922
94.00000 3.245
94.02000 -2.143
94.04000 1.979
94.06000 3.347
94.08000 2.670
94.10000 3.416
94.12000 3.913
94.14000 4.827
94.16000 3.239
94.18000 7.204
94.20000 6.543
94.22000 5.103
94.24000 1.342
94.26000 0.457
94.28000 4.621
94.30000 6.751
94.32000 2.273
94.34000 -0.060
94.36000 5.091
94.38000 1.697
94.40000 2.426
94.42000 2.994
94.44000 6.588
94.46000 9.861
94.48000 6.346
94.50000 6.145
94.52000 3.975
94.54000 5.745
94.56000 3.045
94.58000 -1.338
94.60000 0.988
94.62000 1.860
94.64000 3.179
94.66000 3.259
94.68000 2.358
94.70000 4.350
94.72000 7.143
94.74000 4.185
94.76000 6.292
94.78000 6.463
94.80000 6.516
94.82000 4.962
94.84000 6.118
94.86000 2.622
94.88000 2.090
94.90000 4.097
94.92000 4.226
94.94000 2.816
94.96000 3.504
94.98000 5.478
95.00000 12.032
95.02000 8.192
95.04000 5.988
95.06000 6.124
95.08000 4.474
95.10000 6.091
95.12000 9.299
95.14000 10.661
95.16000 8.256
95.18000 6.800
95.20000 7.301
95.22000 9.996
95.24000 8.544
95.26000 0.694
95.28000 -2.070
95.30000 4.465
95.32000 5.741
95.34000 6.053
95.36000 7.234
95.38000 5.660
95.40000 6.982
95.42000 8.961
95.44000 9.317
95.46000 5.943
95.48000 9.613
95.50000 9.535
95.52000 6.271
95.54000 5.245
95.56000 2.578
95.58000 -0.956
95.60000 0.057
95.62000 2.455
95.64000 2.617
95.66000 4.863
95.68000 7.555
95.70000 13.379
95.72000 9.474
95.74000 9.449
95.76000 6.092
95.78000 0.473
95.80000 4.304
95.82000 9.479
95.84000 8.516
95.86000 4.593
95.88000 4.571
95.90000 7.358
95.92000 8.062
95.94000 7.941
95.96000 8.458
95.98000 9.924
96.00000 6.410
96.02000 6.402
96.04000 5.919
96.06000 9.182
96.08000 11.609
96.10000 7.557
96.12000 2.303
96.14000 1.583
96.16000 1.494
96.18000 0.242
96.20000 0.570
96.22000 3.170
96.24000 3.428
96.26000 1.015
96.28000 1.720
96.30000 4.842
96.32000 7.248
96.34000 9.996
96.36000 7.984
96.38000 2.164
96.40000 1.049
96.42000 5.236
96.44000 5.262
96.46000 5.414
96.48000 0.826
96.50000 3.827
96.52000 5.983
96.54000 5.549
96.56000 6.295
96.58000 8.017
96.60000 7.720
96.62000 4.854
96.64000 2.660
96.66000 2.948
96.68000 2.354
96.70000 6.925
96.72000 11.294
96.74000 12.017
96.76000 7.540
96.78000 11.207
96.80000 7.435
96.82000 7.428
96.84000 3.544
96.86000 1.928
96.88000 4.905
96.90000 5.100
96.92000 2.304
96.94000 2.446
96.96000 -1.513
96.98000 2.587
97.00000 2.832
97.02000 4.332
97.04000 6.771
97.06000 2.564
97.08000 4.659
97.10000 7.927
97.12000 7.869
97.14000 2.739
97.16000 7.531
97.18000 7.269
97.20000 5.009
97.22000 3.751
97.24000 5.977
97.26000 4.109
97.28000 5.258
97.30000 8.970
97.32000 7.975
97.34000 5.182
97.36000 7.485
97.38000 6.006
97.40000 8.827
97.42000 6.008
97.44000 5.391
97.46000 6.065
97.48000 2.427
97.50000 5.272
97.52000 13.494
97.54000 10.176
97.56000 8.166
97.58000 11.590
97.60000 10.387
97.62000 4.085
97.64000 9.191
97.66000 10.710
97.68000 5.519
97.70000 2.640
97.72000 9.022
97.74000 15.173
97.76000 7.847
97.78000 6.335
97.80000 6.617
97.82000 3.190
97.84000 8.524
97.86000 10.654
97.88000 9.884
97.90000 11.528
97.92000 7.632
97.94000 7.570
97.96000 8.512
97.98000 3.118
98.00000 3.522
98.02000 7.203
98.04000 10.231
98.06000 8.024
98.08000 -2.038
98.10000 -1.058
98.12000 2.020
98.14000 8.757
98.16000 6.671
98.18000 9.394
98.20000 8.253
98.22000 12.357
98.24000 8.396
98.26000 5.218
98.28000 11.973
98.30000 10.311
98.32000 10.512
98.34000 10.267
98.36000 9.679
98.38000 9.635
98.40000 8.357
98.42000 8.179
98.44000 11.575
98.46000 12.081
98.48000 2.442
98.50000 -2.051
98.52000 7.740
98.54000 5.337
98.56000 3.217
98.58000 3.999
98.60000 5.746
98.62000 4.273
98.64000 -0.508
98.66000 2.056
98.68000 7.189
98.70000 9.349
98.72000 3.023
98.74000 3.282
98.76000 3.108
98.78000 2.445
98.80000 8.242
98.82000 5.994
98.84000 6.249
98.86000 5.654
98.88000 5.817
98.90000 2.765
98.92000 5.202
98.94000 4.169
98.96000 6.025
98.98000 8.568
99.00000 6.251
99.02000 6.121
99.04000 8.872
99.06000 16.794
99.08000 10.217
99.10000 9.594
99.12000 3.049
99.14000 4.358
99.16000 8.839
99.18000 11.076
99.20000 13.888
99.22000 11.654
99.24000 8.014
99.26000 10.460
99.28000 13.185
99.30000 1.383
99.32000 0.327
99.34000 13.295
99.36000 17.610
99.38000 17.926
99.40000 10.675
99.42000 7.554
99.44000 10.660
99.46000 8.586
99.48000 7.611
99.50000 12.382
99.52000 9.824
99.54000 6.171
99.56000 8.297
99.58000 11.163
99.60000 5.758
99.62000 7.800
99.64000 8.749
99.66000 6.084
99.68000 2.423
99.70000 4.862
99.72000 7.416
99.74000 7.890
99.76000 14.430
99.78000 15.057
99.80000 0.621
99.82000 -2.039
99.84000 -0.024
99.86000 -2.046
99.88000 2.029
99.90000 9.595
99.92000 2.808
99.94000 3.815
99.96000 3.906
99.98000 0.000
