'Id: "0011388" Comment: "Integrate frame 0011388_Au-Ir-Rh_Rh-rich_XRD-Mapping-065-0000.gfrmwith cursor Wedge Cursor #5" Operator: "B?rgel" Anode: "Cu" Wavelength: "1.5406" Scantype: "2Theta (TwoTheta)" TimePerStep: "1" X: "0" Y: "-22.5" Z: "5.95" 
10.00000 0.000
10.02000 -4.196
10.04000 13.488
10.06000 18.084
10.08000 6.578
10.10000 14.415
10.12000 12.104
10.14000 7.513
10.16000 19.328
10.18000 23.530
10.20000 0.902
10.22000 -4.085
10.24000 14.694
10.26000 31.826
10.28000 35.462
10.30000 21.747
10.32000 16.203
10.34000 16.272
10.36000 10.304
10.38000 10.214
10.40000 15.809
10.42000 29.467
10.44000 14.888
10.46000 9.122
10.48000 11.672
10.50000 19.933
10.52000 3.633
10.54000 19.217
10.56000 23.014
10.58000 19.157
10.60000 19.041
10.62000 21.869
10.64000 14.310
10.66000 2.966
10.68000 11.163
10.70000 9.895
10.72000 14.249
10.74000 9.106
10.76000 12.017
10.78000 18.966
10.80000 18.174
10.82000 16.833
10.84000 10.431
10.86000 -1.457
10.88000 18.551
10.90000 30.349
10.92000 21.840
10.94000 26.207
10.96000 22.805
10.98000 18.307
11.00000 18.905
11.02000 13.920
11.04000 6.926
11.06000 18.565
11.08000 29.294
11.10000 20.859
11.12000 9.418
11.14000 1.899
11.16000 11.652
11.18000 13.435
11.20000 20.255
11.22000 30.640
11.24000 15.546
11.26000 20.248
11.28000 14.026
11.30000 9.011
11.32000 4.102
11.34000 5.545
11.36000 11.170
11.38000 7.715
11.40000 12.518
11.42000 14.727
11.44000 12.455
11.46000 12.616
11.48000 15.473
11.50000 15.431
11.52000 17.129
11.54000 17.298
11.56000 6.179
11.58000 6.325
11.60000 18.750
11.62000 22.595
11.64000 15.941
11.66000 8.635
11.68000 29.585
11.70000 24.403
11.72000 22.549
11.74000 19.221
11.76000 17.236
11.78000 19.927
11.80000 10.146
11.82000 18.417
11.84000 22.726
11.86000 10.056
11.88000 14.433
11.90000 6.917
11.92000 14.870
11.94000 20.078
11.96000 13.169
11.98000 11.285
12.00000 25.485
12.02000 22.895
12.04000 35.953
12.06000 27.066
12.08000 17.619
12.10000 17.085
12.12000 14.220
12.14000 16.486
12.16000 11.802
12.18000 15.705
12.20000 13.751
12.22000 16.613
12.24000 14.685
12.26000 11.024
12.28000 13.818
12.30000 11.583
12.32000 19.739
12.34000 23.040
12.36000 14.569
12.38000 15.934
12.40000 22.353
12.42000 18.607
12.44000 11.983
12.46000 19.962
12.48000 28.658
12.50000 17.005
12.52000 12.018
12.54000 13.277
12.56000 16.939
12.58000 16.927
12.60000 11.714
12.62000 6.271
12.64000 21.461
12.66000 24.789
12.68000 16.607
12.70000 7.772
12.72000 5.203
12.74000 11.102
12.76000 10.338
12.78000 13.761
12.80000 22.221
12.82000 10.193
12.84000 12.772
12.86000 13.256
12.88000 10.281
12.90000 9.274
12.92000 12.183
12.94000 11.997
12.96000 10.023
12.98000 6.781
13.00000 1.845
13.02000 4.364
13.04000 5.501
13.06000 8.357
13.08000 8.096
13.10000 20.504
13.12000 18.893
13.14000 14.865
13.16000 13.663
13.18000 22.440
13.20000 17.952
13.22000 22.257
13.24000 19.075
13.26000 6.838
13.28000 4.022
13.30000 5.912
13.32000 11.338
13.34000 19.129
13.36000 10.485
13.38000 5.875
13.40000 15.534
13.42000 15.083
13.44000 15.089
13.46000 15.070
13.48000 10.904
13.50000 10.495
13.52000 16.712
13.54000 23.088
13.56000 19.833
13.58000 19.667
13.60000 16.898
13.62000 30.020
13.64000 24.192
13.66000 9.479
13.68000 11.792
13.70000 11.677
13.72000 8.868
13.74000 7.848
13.76000 2.193
13.78000 5.816
13.80000 6.214
13.82000 4.070
13.84000 12.620
13.86000 14.093
13.88000 3.086
13.90000 10.663
13.92000 12.373
13.94000 12.090
13.96000 9.883
13.98000 3.934
14.00000 -1.078
14.02000 -2.656
14.04000 4.194
14.06000 7.620
14.08000 14.112
14.10000 9.165
14.12000 2.391
14.14000 6.382
14.16000 10.985
14.18000 11.159
14.20000 9.831
14.22000 5.210
14.24000 9.860
14.26000 16.321
14.28000 11.189
14.30000 2.661
14.32000 11.115
14.34000 12.300
14.36000 9.593
14.38000 4.610
14.40000 2.203
14.42000 16.089
14.44000 12.689
14.46000 -0.972
14.48000 1.581
14.50000 11.365
14.52000 14.302
14.54000 1.063
14.56000 2.715
14.58000 7.451
14.60000 2.404
14.62000 8.328
14.64000 9.441
14.66000 1.494
14.68000 3.389
14.70000 7.430
14.72000 14.882
14.74000 8.973
14.76000 3.675
14.78000 3.106
14.80000 8.936
14.82000 8.852
14.84000 6.044
14.86000 1.601
14.88000 11.096
14.90000 15.983
14.92000 11.797
14.94000 2.861
14.96000 11.944
14.98000 19.338
15.00000 21.833
15.02000 12.191
15.04000 12.180
15.06000 17.697
15.08000 19.593
15.10000 13.544
15.12000 6.246
15.14000 7.392
15.16000 6.939
15.18000 8.173
15.20000 9.438
15.22000 11.833
15.24000 13.181
15.26000 20.021
15.28000 14.585
15.30000 10.616
15.32000 8.636
15.34000 5.639
15.36000 1.938
15.38000 1.582
15.40000 10.325
15.42000 3.271
15.44000 -2.511
15.46000 5.201
15.48000 8.549
15.50000 10.904
15.52000 7.634
15.54000 2.322
15.56000 -4.430
15.58000 8.288
15.60000 14.299
15.62000 14.506
15.64000 1.478
15.66000 5.864
15.68000 12.611
15.70000 10.862
15.72000 3.386
15.74000 5.685
15.76000 11.188
15.78000 8.823
15.80000 7.212
15.82000 7.263
15.84000 12.542
15.86000 8.246
15.88000 -0.627
15.90000 -0.813
15.92000 -0.641
15.94000 12.276
15.96000 3.142
15.98000 4.011
16.00000 0.292
16.02000 8.051
16.04000 8.650
16.06000 4.265
16.08000 8.067
16.10000 7.965
16.12000 -2.441
16.14000 0.768
16.16000 3.426
16.18000 -3.911
16.20000 -1.261
16.22000 -4.405
16.24000 -1.972
16.26000 6.382
16.28000 5.951
16.30000 9.090
16.32000 10.491
16.34000 14.838
16.36000 13.520
16.38000 9.426
16.40000 13.004
16.42000 7.949
16.44000 6.289
16.46000 2.691
16.48000 5.655
16.50000 8.676
16.52000 10.068
16.54000 6.661
16.56000 7.876
16.58000 7.314
16.60000 5.061
16.62000 5.363
16.64000 1.927
16.66000 -1.132
16.68000 5.807
16.70000 5.102
16.72000 8.602
16.74000 8.490
16.76000 7.334
16.78000 12.117
16.80000 12.216
16.82000 10.080
16.84000 9.168
16.86000 6.848
16.88000 -0.569
16.90000 -1.904
16.92000 8.042
16.94000 9.675
16.96000 12.098
16.98000 11.087
17.00000 11.397
17.02000 9.627
17.04000 18.636
17.06000 18.263
17.08000 9.857
17.10000 9.261
17.12000 9.447
17.14000 12.711
17.16000 12.480
17.18000 11.832
17.20000 7.173
17.22000 0.706
17.24000 8.199
17.26000 5.531
17.28000 11.036
17.30000 15.823
17.32000 17.843
17.34000 9.952
17.36000 10.521
17.38000 3.527
17.40000 7.069
17.42000 12.321
17.44000 5.000
17.46000 -3.415
17.48000 6.461
17.50000 10.408
17.52000 10.027
17.54000 9.618
17.56000 8.539
17.58000 2.671
17.60000 -0.087
17.62000 -4.323
17.64000 1.090
17.66000 8.342
17.68000 11.836
17.70000 8.416
17.72000 5.355
17.74000 5.883
17.76000 7.748
17.78000 7.409
17.80000 2.355
17.82000 5.735
17.84000 10.611
17.86000 9.393
17.88000 9.907
17.90000 7.807
17.92000 0.057
17.94000 2.957
17.96000 0.634
17.98000 6.481
18.00000 8.305
18.02000 6.954
18.04000 2.362
18.06000 5.850
18.08000 11.219
18.10000 15.442
18.12000 17.621
18.14000 11.888
18.16000 8.391
18.18000 -2.146
18.20000 -1.714
18.22000 11.536
18.24000 7.340
18.26000 12.037
18.28000 7.822
18.30000 8.956
18.32000 6.424
18.34000 -3.799
18.36000 1.303
18.38000 5.735
18.40000 3.845
18.42000 7.470
18.44000 4.310
18.46000 4.075
18.48000 8.665
18.50000 11.885
18.52000 7.977
18.54000 9.861
18.56000 12.371
18.58000 7.771
18.60000 9.799
18.62000 13.524
18.64000 8.250
18.66000 2.327
18.68000 3.500
18.70000 1.904
18.72000 -0.305
18.74000 -1.013
18.76000 0.538
18.78000 1.309
18.80000 -1.255
18.82000 2.445
18.84000 8.205
18.86000 5.629
18.88000 -1.614
18.90000 1.297
18.92000 12.056
18.94000 7.165
18.96000 3.986
18.98000 -2.967
19.00000 2.485
19.02000 2.719
19.04000 1.363
19.06000 0.330
19.08000 6.071
19.10000 8.387
19.12000 5.948
19.14000 6.173
19.16000 5.851
19.18000 2.396
19.20000 6.845
19.22000 10.006
19.24000 12.030
19.26000 6.470
19.28000 -0.853
19.30000 3.924
19.32000 2.598
19.34000 -4.235
19.36000 -3.475
19.38000 7.661
19.40000 4.964
19.42000 2.114
19.44000 3.269
19.46000 6.639
19.48000 10.803
19.50000 2.202
19.52000 5.614
19.54000 3.870
19.56000 0.814
19.58000 6.839
19.60000 5.870
19.62000 -0.217
19.64000 7.785
19.66000 -0.178
19.68000 -1.258
19.70000 -2.126
19.72000 9.347
19.74000 14.644
19.76000 9.483
19.78000 4.485
19.80000 6.075
19.82000 6.452
19.84000 5.176
19.86000 4.886
19.88000 3.065
19.90000 4.892
19.92000 0.343
19.94000 4.873
19.96000 6.399
19.98000 0.753
20.00000 2.460
20.02000 7.421
20.04000 1.927
20.06000 3.657
20.08000 7.348
20.10000 0.493
20.12000 1.126
20.14000 8.296
20.16000 7.451
20.18000 2.105
20.20000 -4.186
20.22000 0.850
20.24000 5.903
20.26000 5.882
20.28000 1.776
20.30000 4.383
20.32000 5.816
20.34000 5.893
20.36000 7.231
20.38000 8.605
20.40000 11.453
20.42000 5.372
20.44000 -1.533
20.46000 5.473
20.48000 -2.495
20.50000 0.806
20.52000 10.133
20.54000 3.022
20.56000 0.797
20.58000 4.241
20.60000 6.363
20.62000 -0.006
20.64000 0.982
20.66000 5.142
20.68000 9.708
20.70000 10.450
20.72000 11.080
20.74000 9.890
20.76000 4.952
20.78000 4.171
20.80000 2.196
20.82000 5.232
20.84000 9.111
20.86000 8.704
20.88000 9.877
20.90000 0.664
20.92000 4.617
20.94000 10.023
20.96000 2.679
20.98000 3.833
21.00000 10.116
21.02000 7.109
21.04000 2.100
21.06000 0.689
21.08000 -3.336
21.10000 -2.310
21.12000 2.485
21.14000 4.053
21.16000 -1.937
21.18000 -2.899
21.20000 -1.356
21.22000 1.251
21.24000 -1.062
21.26000 4.333
21.28000 6.074
21.30000 8.319
21.32000 0.073
21.34000 2.425
21.36000 -2.135
21.38000 2.543
21.40000 6.087
21.42000 4.343
21.44000 2.923
21.46000 1.522
21.48000 -2.557
21.50000 0.005
21.52000 6.140
21.54000 3.821
21.56000 0.547
21.58000 5.882
21.60000 4.982
21.62000 -1.548
21.64000 1.157
21.66000 1.425
21.68000 4.716
21.70000 6.287
21.72000 4.543
21.74000 3.830
21.76000 4.331
21.78000 3.712
21.80000 -0.973
21.82000 -4.115
21.84000 -0.419
21.86000 -0.017
21.88000 0.714
21.90000 2.445
21.92000 -0.901
21.94000 4.915
21.96000 -0.322
21.98000 1.528
22.00000 2.353
22.02000 0.298
22.04000 8.313
22.06000 11.453
22.08000 7.463
22.10000 -1.065
22.12000 0.115
22.14000 6.783
22.16000 2.969
22.18000 6.128
22.20000 8.607
22.22000 6.704
22.24000 -2.664
22.26000 -3.019
22.28000 -0.846
22.30000 5.365
22.32000 1.161
22.34000 3.021
22.36000 3.482
22.38000 -3.043
22.40000 2.893
22.42000 4.155
22.44000 -0.614
22.46000 -3.410
22.48000 -3.163
22.50000 -0.139
22.52000 7.824
22.54000 -1.565
22.56000 1.099
22.58000 1.322
22.60000 -2.098
22.62000 3.186
22.64000 8.203
22.66000 9.659
22.68000 6.088
22.70000 2.849
22.72000 0.818
22.74000 -1.096
22.76000 2.987
22.78000 3.832
22.80000 3.981
22.82000 1.103
22.84000 -1.350
22.86000 0.149
22.88000 5.272
22.90000 1.931
22.92000 4.455
22.94000 7.387
22.96000 10.141
22.98000 6.257
23.00000 -0.019
23.02000 1.929
23.04000 3.882
23.06000 2.292
23.08000 3.902
23.10000 -2.287
23.12000 -1.161
23.14000 2.808
23.16000 1.738
23.18000 5.625
23.20000 3.334
23.22000 1.445
23.24000 2.843
23.26000 -1.915
23.28000 -2.437
23.30000 0.599
23.32000 0.997
23.34000 -1.066
23.36000 0.124
23.38000 1.552
23.40000 4.905
23.42000 2.678
23.44000 -0.030
23.46000 6.670
23.48000 7.088
23.50000 3.386
23.52000 0.641
23.54000 5.985
23.56000 -0.243
23.58000 2.226
23.60000 8.420
23.62000 8.571
23.64000 4.178
23.66000 2.627
23.68000 1.226
23.70000 1.843
23.72000 3.019
23.74000 5.094
23.76000 12.189
23.78000 10.413
23.80000 9.727
23.82000 6.343
23.84000 7.710
23.86000 3.518
23.88000 -3.543
23.90000 -3.219
23.92000 -3.992
23.94000 -1.812
23.96000 0.223
23.98000 9.397
24.00000 8.778
24.02000 5.303
24.04000 0.525
24.06000 2.965
24.08000 6.892
24.10000 8.057
24.12000 1.558
24.14000 0.815
24.16000 1.604
24.18000 1.266
24.20000 0.336
24.22000 4.586
24.24000 1.425
24.26000 4.164
24.28000 4.638
24.30000 3.823
24.32000 4.974
24.34000 2.987
24.36000 -2.817
24.38000 -1.364
24.40000 -0.244
24.42000 4.376
24.44000 8.495
24.46000 8.297
24.48000 -0.020
24.50000 1.445
24.52000 5.525
24.54000 2.547
24.56000 1.279
24.58000 6.155
24.60000 -3.498
24.62000 -2.818
24.64000 -0.330
24.66000 7.012
24.68000 0.717
24.70000 0.359
24.72000 2.520
24.74000 2.423
24.76000 2.531
24.78000 -1.862
24.80000 0.524
24.82000 2.522
24.84000 -3.936
24.86000 -3.422
24.88000 -0.774
24.90000 5.745
24.92000 3.253
24.94000 2.519
24.96000 2.965
24.98000 8.664
25.00000 3.721
25.02000 3.505
25.04000 2.928
25.06000 7.076
25.08000 6.001
25.10000 6.054
25.12000 3.973
25.14000 1.045
25.16000 8.057
25.18000 9.335
25.20000 -0.479
25.22000 -1.714
25.24000 4.217
25.26000 -0.804
25.28000 0.483
25.30000 -2.413
25.32000 -0.779
25.34000 3.996
25.36000 1.598
25.38000 0.719
25.40000 7.692
25.42000 5.096
25.44000 0.914
25.46000 8.339
25.48000 6.900
25.50000 9.304
25.52000 9.421
25.54000 2.016
25.56000 7.797
25.58000 10.006
25.60000 4.914
25.62000 1.881
25.64000 3.541
25.66000 -1.573
25.68000 -3.895
25.70000 -1.355
25.72000 5.371
25.74000 8.312
25.76000 8.375
25.78000 10.493
25.80000 5.084
25.82000 2.765
25.84000 5.986
25.86000 3.719
25.88000 -1.500
25.90000 -3.882
25.92000 -0.866
25.94000 5.514
25.96000 5.350
25.98000 1.401
26.00000 3.049
26.02000 4.049
26.04000 2.072
26.06000 3.475
26.08000 3.617
26.10000 4.117
26.12000 0.087
26.14000 4.182
26.16000 5.800
26.18000 2.388
26.20000 2.316
26.22000 2.456
26.24000 6.350
26.26000 1.576
26.28000 3.110
26.30000 2.825
26.32000 3.681
26.34000 -0.490
26.36000 -0.414
26.38000 3.502
26.40000 1.353
26.42000 -1.220
26.44000 0.971
26.46000 1.374
26.48000 -0.469
26.50000 0.245
26.52000 5.171
26.54000 8.671
26.56000 10.707
26.58000 5.297
26.60000 1.078
26.62000 -2.677
26.64000 -1.188
26.66000 -2.271
26.68000 1.076
26.70000 8.677
26.72000 4.474
26.74000 1.882
26.76000 -3.246
26.78000 -1.515
26.80000 -0.209
26.82000 -0.786
26.84000 0.355
26.86000 0.776
26.88000 -1.398
26.90000 -0.873
26.92000 4.031
26.94000 3.987
26.96000 7.394
26.98000 1.348
27.00000 -0.733
27.02000 0.008
27.04000 4.523
27.06000 5.186
27.08000 2.187
27.10000 5.121
27.12000 2.816
27.14000 -0.856
27.16000 2.359
27.18000 8.114
27.20000 4.132
27.22000 -1.994
27.24000 1.824
27.26000 4.204
27.28000 3.030
27.30000 4.764
27.32000 2.128
27.34000 5.592
27.36000 6.126
27.38000 5.742
27.40000 2.551
27.42000 2.757
27.44000 -3.694
27.46000 0.475
27.48000 -2.062
27.50000 -3.818
27.52000 -0.115
27.54000 -0.742
27.56000 5.788
27.58000 2.385
27.60000 -0.498
27.62000 3.362
27.64000 3.010
27.66000 -0.929
27.68000 -3.556
27.70000 0.389
27.72000 1.359
27.74000 -1.410
27.76000 2.434
27.78000 6.877
27.80000 12.698
27.82000 4.452
27.84000 -0.687
27.86000 0.800
27.88000 2.869
27.90000 1.460
27.92000 -1.390
27.94000 1.697
27.96000 3.636
27.98000 4.711
28.00000 5.433
28.02000 3.064
28.04000 -3.776
28.06000 1.027
28.08000 4.806
28.10000 7.319
28.12000 6.075
28.14000 3.272
28.16000 3.903
28.18000 3.552
28.20000 -1.018
28.22000 6.294
28.24000 5.506
28.26000 2.539
28.28000 2.328
28.30000 5.348
28.32000 9.502
28.34000 8.097
28.36000 3.350
28.38000 7.772
28.40000 4.321
28.42000 1.852
28.44000 6.308
28.46000 5.123
28.48000 -1.909
28.50000 -0.485
28.52000 6.749
28.54000 3.938
28.56000 -3.735
28.58000 1.825
28.60000 2.590
28.62000 2.269
28.64000 2.677
28.66000 2.908
28.68000 0.781
28.70000 5.639
28.72000 6.442
28.74000 8.649
28.76000 6.107
28.78000 2.379
28.80000 1.609
28.82000 1.624
28.84000 3.869
28.86000 5.529
28.88000 6.050
28.90000 1.993
28.92000 0.340
28.94000 -0.038
28.96000 5.752
28.98000 6.447
29.00000 4.821
29.02000 4.129
29.04000 0.746
29.06000 2.948
29.08000 3.858
29.10000 2.879
29.12000 1.693
29.14000 -2.771
29.16000 6.432
29.18000 9.111
29.20000 0.063
29.22000 5.580
29.24000 5.282
29.26000 5.140
29.28000 4.183
29.30000 3.915
29.32000 2.342
29.34000 2.256
29.36000 1.318
29.38000 6.456
29.40000 5.861
29.42000 3.904
29.44000 2.320
29.46000 0.165
29.48000 6.557
29.50000 9.558
29.52000 7.950
29.54000 5.659
29.56000 6.281
29.58000 9.831
29.60000 6.895
29.62000 1.209
29.64000 0.179
29.66000 3.505
29.68000 -1.476
29.70000 1.309
29.72000 3.142
29.74000 5.604
29.76000 3.555
29.78000 -0.946
29.80000 -3.482
29.82000 3.910
29.84000 4.705
29.86000 5.759
29.88000 5.787
29.90000 3.933
29.92000 0.905
29.94000 -1.026
29.96000 -3.670
29.98000 5.595
30.00000 7.200
30.02000 3.603
30.04000 1.817
30.06000 1.312
30.08000 4.245
30.10000 5.310
30.12000 3.956
30.14000 2.211
30.16000 6.766
30.18000 6.690
30.20000 3.346
30.22000 2.502
30.24000 7.802
30.26000 6.792
30.28000 4.702
30.30000 -0.202
30.32000 -0.973
30.34000 -3.184
30.36000 -3.640
30.38000 0.669
30.40000 1.710
30.42000 2.881
30.44000 6.091
30.46000 10.434
30.48000 9.783
30.50000 7.083
30.52000 5.474
30.54000 3.652
30.56000 -0.795
30.58000 2.700
30.60000 4.242
30.62000 5.809
30.64000 5.818
30.66000 0.993
30.68000 4.823
30.70000 3.822
30.72000 2.080
30.74000 -1.122
30.76000 0.164
30.78000 3.084
30.80000 0.786
30.82000 0.713
30.84000 3.679
30.86000 6.345
30.88000 4.220
30.90000 2.678
30.92000 -1.103
30.94000 0.345
30.96000 5.570
30.98000 8.945
31.00000 3.215
31.02000 4.647
31.04000 5.271
31.06000 8.289
31.08000 1.482
31.10000 1.479
31.12000 10.867
31.14000 8.305
31.16000 0.528
31.18000 -3.603
31.20000 -2.272
31.22000 2.799
31.24000 3.777
31.26000 2.686
31.28000 1.895
31.30000 4.165
31.32000 2.777
31.34000 3.444
31.36000 2.737
31.38000 2.853
31.40000 -1.869
31.42000 3.329
31.44000 3.533
31.46000 -3.589
31.48000 0.353
31.50000 3.260
31.52000 5.930
31.54000 0.577
31.56000 0.908
31.58000 5.319
31.60000 6.190
31.62000 5.241
31.64000 3.638
31.66000 -1.019
31.68000 -3.587
31.70000 2.540
31.72000 3.882
31.74000 8.268
31.76000 8.646
31.78000 2.663
31.80000 -2.349
31.82000 3.432
31.84000 3.289
31.86000 -2.728
31.88000 -0.087
31.90000 0.077
31.92000 2.695
31.94000 3.534
31.96000 2.677
31.98000 0.947
32.00000 -1.758
32.02000 -0.604
32.04000 2.598
32.06000 1.971
32.08000 3.367
32.10000 2.362
32.12000 0.272
32.14000 1.907
32.16000 0.828
32.18000 6.458
32.20000 3.087
32.22000 4.916
32.24000 2.887
32.26000 1.482
32.28000 2.360
32.30000 2.682
32.32000 -2.262
32.34000 -2.563
32.36000 1.794
32.38000 1.166
32.40000 -1.569
32.42000 2.731
32.44000 4.484
32.46000 4.370
32.48000 0.616
32.50000 0.908
32.52000 -1.751
32.54000 -3.322
32.56000 0.284
32.58000 3.930
32.60000 7.124
32.62000 7.571
32.64000 -0.709
32.66000 -0.599
32.68000 4.077
32.70000 6.879
32.72000 5.172
32.74000 4.221
32.76000 6.277
32.78000 8.163
32.80000 -0.475
32.82000 4.323
32.84000 1.966
32.86000 -0.838
32.88000 -3.107
32.90000 -1.704
32.92000 0.444
32.94000 1.494
32.96000 -1.432
32.98000 4.803
33.00000 3.809
33.02000 -1.199
33.04000 -0.780
33.06000 6.322
33.08000 1.442
33.10000 -3.570
33.12000 0.043
33.14000 -3.310
33.16000 0.881
33.18000 5.653
33.20000 2.936
33.22000 -0.609
33.24000 0.128
33.26000 5.784
33.28000 0.809
33.30000 0.114
33.32000 6.346
33.34000 1.768
33.36000 -0.532
33.38000 2.693
33.40000 5.399
33.42000 4.395
33.44000 0.401
33.46000 2.740
33.48000 5.859
33.50000 5.553
33.52000 7.409
33.54000 -0.457
33.56000 -1.287
33.58000 3.697
33.60000 5.861
33.62000 -1.884
33.64000 3.054
33.66000 8.120
33.68000 3.439
33.70000 4.973
33.72000 4.570
33.74000 -0.237
33.76000 -0.847
33.78000 3.097
33.80000 0.204
33.82000 3.702
33.84000 -1.045
33.86000 1.681
33.88000 1.955
33.90000 -1.299
33.92000 -2.382
33.94000 5.131
33.96000 9.740
33.98000 7.050
34.00000 1.561
34.02000 0.433
34.04000 1.895
34.06000 3.489
34.08000 3.125
34.10000 4.995
34.12000 1.860
34.14000 2.195
34.16000 8.067
34.18000 3.955
34.20000 0.084
34.22000 2.281
34.24000 8.149
34.26000 7.799
34.28000 5.007
34.30000 3.082
34.32000 7.684
34.34000 7.647
34.36000 0.441
34.38000 1.746
34.40000 0.731
34.42000 2.765
34.44000 7.031
34.46000 7.242
34.48000 10.617
34.50000 9.628
34.52000 8.370
34.54000 4.274
34.56000 2.130
34.58000 -3.489
34.60000 1.449
34.62000 8.004
34.64000 4.553
34.66000 4.559
34.68000 8.373
34.70000 5.127
34.72000 5.696
34.74000 7.687
34.76000 4.267
34.78000 0.003
34.80000 1.660
34.82000 2.698
34.84000 1.025
34.86000 -0.244
34.88000 -0.639
34.90000 -1.652
34.92000 5.715
34.94000 10.942
34.96000 5.380
34.98000 1.709
35.00000 0.830
35.02000 -1.321
35.04000 -1.458
35.06000 0.489
35.08000 1.823
35.10000 0.608
35.12000 0.412
35.14000 -0.327
35.16000 1.343
35.18000 0.909
35.20000 0.008
35.22000 1.056
35.24000 6.005
35.26000 7.723
35.28000 10.850
35.30000 5.716
35.32000 3.390
35.34000 -0.310
35.36000 0.665
35.38000 1.888
35.40000 1.402
35.42000 -0.260
35.44000 2.262
35.46000 -0.487
35.48000 5.245
35.50000 3.099
35.52000 3.198
35.54000 2.386
35.56000 0.079
35.58000 3.097
35.60000 4.523
35.62000 4.412
35.64000 0.369
35.66000 -3.473
35.68000 2.150
35.70000 0.864
35.72000 3.963
35.74000 -0.136
35.76000 3.570
35.78000 6.693
35.80000 2.198
35.82000 -0.226
35.84000 5.124
35.86000 10.283
35.88000 2.482
35.90000 0.981
35.92000 2.377
35.94000 4.989
35.96000 3.217
35.98000 4.956
36.00000 3.642
36.02000 2.814
36.04000 2.184
36.06000 2.295
36.08000 5.442
36.10000 6.221
36.12000 7.646
36.14000 7.653
36.16000 6.182
36.18000 3.792
36.20000 3.903
36.22000 3.849
36.24000 0.548
36.26000 6.431
36.28000 7.353
36.30000 4.228
36.32000 3.639
36.34000 6.760
36.36000 2.666
36.38000 4.317
36.40000 1.194
36.42000 2.843
36.44000 4.217
36.46000 7.107
36.48000 3.219
36.50000 0.030
36.52000 6.569
36.54000 9.440
36.56000 10.068
36.58000 11.702
36.60000 7.238
36.62000 8.909
36.64000 5.382
36.66000 0.625
36.68000 2.669
36.70000 7.342
36.72000 7.233
36.74000 2.617
36.76000 4.562
36.78000 6.547
36.80000 3.547
36.82000 2.803
36.84000 -3.446
36.86000 3.635
36.88000 7.984
36.90000 5.597
36.92000 2.876
36.94000 1.725
36.96000 2.435
36.98000 0.776
37.00000 4.670
37.02000 8.164
37.04000 3.171
37.06000 0.944
37.08000 0.401
37.10000 2.514
37.12000 1.271
37.14000 2.662
37.16000 6.783
37.18000 4.859
37.20000 0.145
37.22000 -0.666
37.24000 0.129
37.26000 1.916
37.28000 -0.865
37.30000 2.995
37.32000 1.985
37.34000 3.959
37.36000 0.907
37.38000 4.362
37.40000 6.867
37.42000 7.759
37.44000 4.438
37.46000 3.247
37.48000 0.673
37.50000 5.251
37.52000 4.022
37.54000 -2.762
37.56000 -0.836
37.58000 -0.408
37.60000 0.180
37.62000 0.561
37.64000 2.842
37.66000 0.538
37.68000 0.872
37.70000 3.999
37.72000 0.180
37.74000 3.737
37.76000 1.048
37.78000 -0.097
37.80000 -3.066
37.82000 -2.440
37.84000 -1.027
37.86000 1.036
37.88000 0.812
37.90000 -0.283
37.92000 3.913
37.94000 -0.956
37.96000 -0.995
37.98000 1.371
38.00000 2.194
38.02000 3.221
38.04000 -0.763
38.06000 -1.476
38.08000 3.604
38.10000 7.577
38.12000 7.004
38.14000 7.867
38.16000 4.760
38.18000 7.289
38.20000 6.755
38.22000 7.920
38.24000 10.828
38.26000 8.892
38.28000 7.512
38.30000 11.082
38.32000 11.993
38.34000 14.193
38.36000 10.976
38.38000 6.907
38.40000 10.412
38.42000 15.270
38.44000 7.622
38.46000 7.799
38.48000 10.860
38.50000 16.339
38.52000 14.699
38.54000 14.740
38.56000 15.164
38.58000 11.017
38.60000 11.336
38.62000 16.060
38.64000 17.439
38.66000 12.532
38.68000 13.990
38.70000 14.760
38.72000 15.347
38.74000 22.508
38.76000 18.764
38.78000 14.701
38.80000 14.305
38.82000 15.261
38.84000 18.548
38.86000 18.577
38.88000 22.820
38.90000 20.236
38.92000 24.204
38.94000 26.748
38.96000 24.337
38.98000 19.875
39.00000 23.030
39.02000 25.397
39.04000 20.296
39.06000 23.907
39.08000 24.422
39.10000 26.786
39.12000 27.963
39.14000 28.714
39.16000 29.085
39.18000 29.737
39.20000 34.244
39.22000 31.390
39.24000 33.738
39.26000 32.548
39.28000 34.944
39.30000 41.263
39.32000 40.890
39.34000 39.993
39.36000 42.338
39.38000 39.850
39.40000 42.687
39.42000 47.868
39.44000 52.404
39.46000 52.049
39.48000 54.370
39.50000 63.983
39.52000 64.995
39.54000 65.539
39.56000 66.704
39.58000 72.525
39.60000 78.071
39.62000 80.530
39.64000 79.156
39.66000 83.698
39.68000 93.470
39.70000 101.758
39.72000 105.732
39.74000 104.198
39.76000 107.604
39.78000 114.870
39.80000 121.950
39.82000 125.854
39.84000 132.666
39.86000 136.996
39.88000 146.736
39.90000 155.484
39.92000 168.507
39.94000 174.423
39.96000 175.790
39.98000 186.434
40.00000 197.668
40.02000 206.208
40.04000 214.221
40.06000 228.692
40.08000 241.742
40.10000 249.770
40.12000 265.623
40.14000 275.257
40.16000 292.517
40.18000 300.374
40.20000 311.371
40.22000 320.759
40.24000 343.515
40.26000 363.488
40.28000 376.046
40.30000 391.517
40.32000 408.237
40.34000 411.575
40.36000 434.148
40.38000 447.955
40.40000 459.082
40.42000 474.325
40.44000 486.644
40.46000 496.673
40.48000 506.320
40.50000 507.173
40.52000 502.154
40.54000 509.602
40.56000 521.215
40.58000 538.235
40.60000 539.440
40.62000 539.773
40.64000 537.516
40.66000 539.792
40.68000 533.828
40.70000 526.417
40.72000 522.106
40.74000 509.620
40.76000 500.286
40.78000 500.724
40.80000 493.157
40.82000 473.811
40.84000 467.246
40.86000 459.040
40.88000 447.492
40.90000 434.891
40.92000 415.456
40.94000 387.332
40.96000 376.328
40.98000 364.406
41.00000 351.500
41.02000 338.456
41.04000 318.064
41.06000 302.921
41.08000 287.392
41.10000 278.241
41.12000 267.933
41.14000 253.499
41.16000 245.916
41.18000 235.404
41.20000 222.443
41.22000 213.194
41.24000 204.338
41.26000 192.339
41.28000 180.728
41.30000 173.185
41.32000 163.828
41.34000 159.019
41.36000 149.340
41.38000 138.058
41.40000 125.633
41.42000 122.410
41.44000 115.086
41.46000 108.352
41.48000 106.314
41.50000 102.028
41.52000 97.522
41.54000 91.064
41.56000 88.018
41.58000 84.525
41.60000 76.184
41.62000 74.548
41.64000 78.203
41.66000 75.863
41.68000 63.876
41.70000 63.621
41.72000 60.448
41.74000 51.626
41.76000 51.285
41.78000 49.107
41.80000 50.587
41.82000 45.631
41.84000 39.500
41.86000 39.627
41.88000 44.121
41.90000 40.991
41.92000 34.038
41.94000 29.894
41.96000 27.813
41.98000 28.780
42.00000 26.063
42.02000 25.326
42.04000 26.222
42.06000 23.927
42.08000 23.358
42.10000 20.355
42.12000 21.118
42.14000 26.426
42.16000 21.458
42.18000 20.174
42.20000 18.312
42.22000 17.617
42.24000 15.628
42.26000 17.299
42.28000 13.392
42.30000 14.010
42.32000 11.940
42.34000 13.720
42.36000 13.323
42.38000 9.095
42.40000 9.908
42.42000 11.188
42.44000 9.518
42.46000 9.590
42.48000 10.307
42.50000 4.643
42.52000 3.478
42.54000 5.686
42.56000 6.060
42.58000 3.908
42.60000 2.052
42.62000 -1.784
42.64000 -0.416
42.66000 2.340
42.68000 -1.850
42.70000 -2.145
42.72000 0.884
42.74000 1.438
42.76000 3.252
42.78000 0.839
42.80000 2.114
42.82000 2.854
42.84000 1.522
42.86000 2.805
42.88000 2.929
42.90000 4.599
42.92000 3.057
42.94000 2.719
42.96000 -0.055
42.98000 -0.739
43.00000 0.346
43.02000 0.474
43.04000 1.392
43.06000 -0.029
43.08000 1.007
43.10000 -2.246
43.12000 1.300
43.14000 4.757
43.16000 5.526
43.18000 4.471
43.20000 0.523
43.22000 -1.176
43.24000 -0.417
43.26000 -1.335
43.28000 -2.201
43.30000 -3.526
43.32000 -2.711
43.34000 -0.367
43.36000 -1.397
43.38000 2.120
43.40000 3.275
43.42000 -0.681
43.44000 -0.800
43.46000 0.235
43.48000 2.105
43.50000 0.845
43.52000 -3.427
43.54000 -1.754
43.56000 -1.362
43.58000 1.379
43.60000 4.010
43.62000 0.251
43.64000 -2.376
43.66000 -3.474
43.68000 1.293
43.70000 0.444
43.72000 -2.203
43.74000 -1.037
43.76000 0.504
43.78000 0.358
43.80000 3.780
43.82000 6.876
43.84000 3.918
43.86000 0.239
43.88000 0.396
43.90000 -1.993
43.92000 0.565
43.94000 3.692
43.96000 7.100
43.98000 3.136
44.00000 3.682
44.02000 5.293
44.04000 1.845
44.06000 -1.335
44.08000 -3.024
44.10000 1.994
44.12000 3.373
44.14000 3.972
44.16000 -0.605
44.18000 0.686
44.20000 1.895
44.22000 2.178
44.24000 3.113
44.26000 -1.799
44.28000 3.336
44.30000 3.463
44.32000 4.309
44.34000 4.091
44.36000 2.714
44.38000 4.436
44.40000 3.350
44.42000 -0.296
44.44000 -1.477
44.46000 2.202
44.48000 3.090
44.50000 4.460
44.52000 -0.378
44.54000 1.796
44.56000 7.650
44.58000 6.933
44.60000 2.684
44.62000 2.725
44.64000 2.792
44.66000 -0.619
44.68000 -3.397
44.70000 -1.713
44.72000 0.544
44.74000 -1.796
44.76000 0.235
44.78000 1.415
44.80000 3.229
44.82000 7.452
44.84000 6.984
44.86000 1.833
44.88000 0.122
44.90000 2.644
44.92000 7.784
44.94000 3.744
44.96000 0.899
44.98000 -1.369
45.00000 2.294
45.02000 1.537
45.04000 0.875
45.06000 5.393
45.08000 3.971
45.10000 7.715
45.12000 7.257
45.14000 5.864
45.16000 5.652
45.18000 7.119
45.20000 3.571
45.22000 1.728
45.24000 0.732
45.26000 1.358
45.28000 6.406
45.30000 11.296
45.32000 11.836
45.34000 7.398
45.36000 7.909
45.38000 6.443
45.40000 6.408
45.42000 2.901
45.44000 2.274
45.46000 3.700
45.48000 7.966
45.50000 4.963
45.52000 7.220
45.54000 6.223
45.56000 10.713
45.58000 6.214
45.60000 1.832
45.62000 5.255
45.64000 7.828
45.66000 8.446
45.68000 11.534
45.70000 11.888
45.72000 13.474
45.74000 13.367
45.76000 12.106
45.78000 12.870
45.80000 13.393
45.82000 15.104
45.84000 9.296
45.86000 12.069
45.88000 16.130
45.90000 14.780
45.92000 16.865
45.94000 16.258
45.96000 20.661
45.98000 23.506
46.00000 25.922
46.02000 20.451
46.04000 16.142
46.06000 18.844
46.08000 21.002
46.10000 26.785
46.12000 22.714
46.14000 25.711
46.16000 26.780
46.18000 23.492
46.20000 23.533
46.22000 22.737
46.24000 28.720
46.26000 29.574
46.28000 30.732
46.30000 28.186
46.32000 29.987
46.34000 33.601
46.36000 35.151
46.38000 39.055
46.40000 40.145
46.42000 36.900
46.44000 36.046
46.46000 37.688
46.48000 35.229
46.50000 41.559
46.52000 39.551
46.54000 43.054
46.56000 45.071
46.58000 46.166
46.60000 55.106
46.62000 53.432
46.64000 56.548
46.66000 56.443
46.68000 56.723
46.70000 54.134
46.72000 52.154
46.74000 51.138
46.76000 62.363
46.78000 69.098
46.80000 61.754
46.82000 56.393
46.84000 59.773
46.86000 66.993
46.88000 70.690
46.90000 68.248
46.92000 66.683
46.94000 73.914
46.96000 76.190
46.98000 64.906
47.00000 66.507
47.02000 74.950
47.04000 73.756
47.06000 73.816
47.08000 75.670
47.10000 74.785
47.12000 72.092
47.14000 72.879
47.16000 68.441
47.18000 68.375
47.20000 67.072
47.22000 70.646
47.24000 73.036
47.26000 74.949
47.28000 68.336
47.30000 67.978
47.32000 73.880
47.34000 70.467
47.36000 68.376
47.38000 79.948
47.40000 71.825
47.42000 65.165
47.44000 64.011
47.46000 66.444
47.48000 64.584
47.50000 66.683
47.52000 59.641
47.54000 60.163
47.56000 63.578
47.58000 61.113
47.60000 56.760
47.62000 58.802
47.64000 53.188
47.66000 53.240
47.68000 52.212
47.70000 48.442
47.72000 49.471
47.74000 51.994
47.76000 52.840
47.78000 49.999
47.80000 48.965
47.82000 41.925
47.84000 39.302
47.86000 40.522
47.88000 39.851
47.90000 38.159
47.92000 38.933
47.94000 34.357
47.96000 29.440
47.98000 34.444
48.00000 37.039
48.02000 33.660
48.04000 33.382
48.06000 30.001
48.08000 26.217
48.10000 25.952
48.12000 27.345
48.14000 30.958
48.16000 27.867
48.18000 17.552
48.20000 19.878
48.22000 20.317
48.24000 22.125
48.26000 20.806
48.28000 13.780
48.30000 16.234
48.32000 11.401
48.34000 10.481
48.36000 9.551
48.38000 17.132
48.40000 14.845
48.42000 9.391
48.44000 7.835
48.46000 8.437
48.48000 12.740
48.50000 10.476
48.52000 8.847
48.54000 9.292
48.56000 12.418
48.58000 9.480
48.60000 6.763
48.62000 12.493
48.64000 7.157
48.66000 6.179
48.68000 6.878
48.70000 2.768
48.72000 0.570
48.74000 7.883
48.76000 12.577
48.78000 10.825
48.80000 9.711
48.82000 8.377
48.84000 -0.068
48.86000 -0.078
48.88000 -2.100
48.90000 -2.666
48.92000 1.083
48.94000 0.115
48.96000 -3.143
48.98000 1.350
49.00000 3.343
49.02000 0.857
49.04000 1.656
49.06000 2.048
49.08000 1.739
49.10000 1.927
49.12000 0.280
49.14000 2.838
49.16000 6.607
49.18000 5.669
49.20000 -0.193
49.22000 4.598
49.24000 2.363
49.26000 -2.028
49.28000 5.382
49.30000 1.587
49.32000 4.077
49.34000 3.054
49.36000 3.625
49.38000 1.138
49.40000 3.925
49.42000 2.488
49.44000 1.556
49.46000 -0.401
49.48000 -0.265
49.50000 2.874
49.52000 2.270
49.54000 0.242
49.56000 -2.320
49.58000 -2.991
49.60000 0.674
49.62000 2.311
49.64000 1.884
49.66000 3.986
49.68000 4.839
49.70000 1.456
49.72000 4.469
49.74000 4.350
49.76000 2.567
49.78000 -0.176
49.80000 0.338
49.82000 -0.447
49.84000 -3.003
49.86000 2.476
49.88000 2.589
49.90000 -1.323
49.92000 -1.514
49.94000 2.991
49.96000 3.502
49.98000 0.489
50.00000 1.054
50.02000 2.088
50.04000 4.172
50.06000 7.901
50.08000 4.908
50.10000 -1.510
50.12000 -2.644
50.14000 0.289
50.16000 4.120
50.18000 1.573
50.20000 0.250
50.22000 1.766
50.24000 0.156
50.26000 -1.886
50.28000 4.535
50.30000 4.819
50.32000 5.113
50.34000 2.367
50.36000 3.246
50.38000 0.130
50.40000 -1.305
50.42000 6.071
50.44000 8.114
50.46000 7.904
50.48000 7.248
50.50000 1.855
50.52000 4.568
50.54000 1.397
50.56000 8.068
50.58000 8.368
50.60000 7.085
50.62000 4.127
50.64000 5.549
50.66000 3.752
50.68000 3.057
50.70000 4.563
50.72000 4.037
50.74000 9.533
50.76000 4.541
50.78000 4.812
50.80000 6.841
50.82000 1.889
50.84000 3.567
50.86000 8.357
50.88000 3.517
50.90000 4.464
50.92000 4.760
50.94000 3.914
50.96000 -2.506
50.98000 -2.851
51.00000 0.599
51.02000 4.231
51.04000 4.771
51.06000 -0.279
51.08000 1.949
51.10000 9.108
51.12000 3.921
51.14000 3.310
51.16000 5.429
51.18000 7.447
51.20000 5.995
51.22000 2.319
51.24000 6.039
51.26000 3.491
51.28000 6.011
51.30000 5.506
51.32000 1.724
51.34000 2.209
51.36000 3.991
51.38000 4.792
51.40000 7.540
51.42000 3.629
51.44000 0.382
51.46000 5.470
51.48000 5.067
51.50000 4.558
51.52000 1.931
51.54000 2.938
51.56000 1.110
51.58000 3.179
51.60000 4.709
51.62000 2.228
51.64000 2.318
51.66000 -1.175
51.68000 -0.465
51.70000 -2.862
51.72000 -2.867
51.74000 -0.899
51.76000 1.098
51.78000 6.545
51.80000 6.863
51.82000 4.528
51.84000 1.285
51.86000 4.913
51.88000 -0.118
51.90000 0.414
51.92000 4.604
51.94000 -0.626
51.96000 2.855
51.98000 1.955
52.00000 -0.115
52.02000 -1.607
52.04000 -1.263
52.06000 -0.284
52.08000 -0.378
52.10000 -0.439
52.12000 5.001
52.14000 4.571
52.16000 3.667
52.18000 5.982
52.20000 5.186
52.22000 0.119
52.24000 -2.292
52.26000 4.094
52.28000 -0.240
52.30000 -2.858
52.32000 1.877
52.34000 3.156
52.36000 2.938
52.38000 2.656
52.40000 4.642
52.42000 -0.349
52.44000 -2.217
52.46000 0.415
52.48000 -2.172
52.50000 1.524
52.52000 2.532
52.54000 2.359
52.56000 1.540
52.58000 1.735
52.60000 0.462
52.62000 0.433
52.64000 5.003
52.66000 6.265
52.68000 8.326
52.70000 7.330
52.72000 4.354
52.74000 4.660
52.76000 3.096
52.78000 -0.021
52.80000 0.577
52.82000 4.192
52.84000 3.572
52.86000 3.142
52.88000 0.467
52.90000 -0.311
52.92000 2.187
52.94000 7.269
52.96000 3.684
52.98000 0.924
53.00000 -1.338
53.02000 2.926
53.04000 4.395
53.06000 0.663
53.08000 3.309
53.10000 6.108
53.12000 7.426
53.14000 4.519
53.16000 1.467
53.18000 -1.768
53.20000 0.157
53.22000 1.733
53.24000 2.056
53.26000 -1.407
53.28000 -2.809
53.30000 5.945
53.32000 8.591
53.34000 7.524
53.36000 5.882
53.38000 3.433
53.40000 0.095
53.42000 1.271
53.44000 3.908
53.46000 9.686
53.48000 5.472
53.50000 2.940
53.52000 3.763
53.54000 5.742
53.56000 4.825
53.58000 2.815
53.60000 3.950
53.62000 0.579
53.64000 0.871
53.66000 6.500
53.68000 3.897
53.70000 -0.623
53.72000 4.993
53.74000 5.589
53.76000 4.000
53.78000 -2.793
53.80000 -1.808
53.82000 0.436
53.84000 3.528
53.86000 5.424
53.88000 4.412
53.90000 5.576
53.92000 4.438
53.94000 3.065
53.96000 2.970
53.98000 3.543
54.00000 0.775
54.02000 1.123
54.04000 3.915
54.06000 2.171
54.08000 -1.622
54.10000 -2.002
54.12000 0.503
54.14000 -0.469
54.16000 -2.685
54.18000 1.367
54.20000 4.401
54.22000 -1.042
54.24000 1.199
54.26000 4.169
54.28000 1.232
54.30000 2.321
54.32000 5.591
54.34000 -0.920
54.36000 -2.785
54.38000 -1.322
54.40000 4.300
54.42000 2.999
54.44000 3.006
54.46000 1.733
54.48000 3.644
54.50000 2.231
54.52000 0.517
54.54000 2.693
54.56000 2.144
54.58000 1.202
54.60000 1.188
54.62000 4.439
54.64000 5.521
54.66000 1.233
54.68000 -0.621
54.70000 3.819
54.72000 1.297
54.74000 1.241
54.76000 3.981
54.78000 -0.171
54.80000 3.521
54.82000 7.197
54.84000 2.597
54.86000 2.404
54.88000 -0.161
54.90000 -0.872
54.92000 1.512
54.94000 1.564
54.96000 3.034
54.98000 2.109
55.00000 3.256
55.02000 5.420
55.04000 2.984
55.06000 0.167
55.08000 0.499
55.10000 2.218
55.12000 0.869
55.14000 2.791
55.16000 2.522
55.18000 -0.334
55.20000 0.020
55.22000 0.956
55.24000 -1.390
55.26000 1.407
55.28000 1.382
55.30000 0.674
55.32000 7.229
55.34000 4.174
55.36000 3.813
55.38000 6.078
55.40000 2.693
55.42000 -2.132
55.44000 -2.749
55.46000 1.615
55.48000 4.843
55.50000 4.979
55.52000 4.573
55.54000 4.116
55.56000 6.542
55.58000 3.089
55.60000 2.798
55.62000 1.475
55.64000 1.399
55.66000 2.671
55.68000 2.205
55.70000 1.921
55.72000 3.499
55.74000 0.253
55.76000 -1.172
55.78000 -0.266
55.80000 2.803
55.82000 8.489
55.84000 6.695
55.86000 -1.923
55.88000 0.264
55.90000 3.681
55.92000 4.917
55.94000 3.274
55.96000 2.304
55.98000 3.628
56.00000 3.470
56.02000 6.547
56.04000 8.296
56.06000 11.455
56.08000 10.598
56.10000 5.912
56.12000 3.811
56.14000 2.493
56.16000 -0.226
56.18000 3.711
56.20000 7.800
56.22000 7.817
56.24000 2.698
56.26000 1.238
56.28000 2.637
56.30000 -0.043
56.32000 0.954
56.34000 1.537
56.36000 1.611
56.38000 2.489
56.40000 -1.493
56.42000 4.158
56.44000 6.203
56.46000 1.967
56.48000 -2.692
56.50000 2.345
56.52000 5.023
56.54000 6.504
56.56000 4.467
56.58000 6.041
56.60000 8.585
56.62000 5.524
56.64000 2.630
56.66000 7.695
56.68000 7.230
56.70000 4.320
56.72000 1.965
56.74000 1.078
56.76000 7.497
56.78000 3.084
56.80000 4.856
56.82000 6.019
56.84000 8.927
56.86000 8.352
56.88000 3.844
56.90000 3.525
56.92000 3.702
56.94000 2.204
56.96000 6.714
56.98000 7.016
57.00000 4.371
57.02000 2.140
57.04000 3.089
57.06000 -1.708
57.08000 -0.228
57.10000 -0.542
57.12000 0.256
57.14000 2.449
57.16000 1.318
57.18000 -2.703
57.20000 2.988
57.22000 2.887
57.24000 2.096
57.26000 4.358
57.28000 4.895
57.30000 6.163
57.32000 3.562
57.34000 -0.357
57.36000 3.776
57.38000 2.302
57.40000 -1.916
57.42000 -1.145
57.44000 0.174
57.46000 0.492
57.48000 0.470
57.50000 2.275
57.52000 3.057
57.54000 4.035
57.56000 4.117
57.58000 0.239
57.60000 -1.253
57.62000 -0.725
57.64000 1.745
57.66000 4.439
57.68000 1.020
57.70000 1.482
57.72000 0.875
57.74000 2.907
57.76000 4.137
57.78000 4.378
57.80000 2.694
57.82000 -1.900
57.84000 -1.168
57.86000 1.990
57.88000 1.677
57.90000 2.184
57.92000 1.385
57.94000 -2.687
57.96000 -0.122
57.98000 0.362
58.00000 -0.115
58.02000 -0.061
58.04000 2.732
58.06000 2.776
58.08000 2.715
58.10000 0.796
58.12000 0.332
58.14000 3.040
58.16000 4.677
58.18000 4.469
58.20000 3.992
58.22000 2.659
58.24000 2.819
58.26000 1.603
58.28000 0.730
58.30000 -1.056
58.32000 -2.494
58.34000 -1.889
58.36000 1.704
58.38000 7.102
58.40000 8.097
58.42000 4.822
58.44000 2.276
58.46000 0.937
58.48000 -1.042
58.50000 -1.844
58.52000 -1.720
58.54000 0.790
58.56000 -2.124
58.58000 -2.493
58.60000 3.381
58.62000 2.640
58.64000 1.851
58.66000 2.459
58.68000 4.506
58.70000 5.284
58.72000 1.013
58.74000 5.226
58.76000 1.939
58.78000 3.125
58.80000 0.658
58.82000 2.632
58.84000 6.957
58.86000 4.105
58.88000 -0.335
58.90000 -2.202
58.92000 -0.494
58.94000 2.198
58.96000 1.265
58.98000 6.537
59.00000 1.552
59.02000 -1.203
59.04000 5.802
59.06000 4.771
59.08000 0.980
59.10000 -0.739
59.12000 1.221
59.14000 4.296
59.16000 5.306
59.18000 1.445
59.20000 -0.505
59.22000 -2.618
59.24000 -2.077
59.26000 2.059
59.28000 1.498
59.30000 1.732
59.32000 0.738
59.34000 -2.434
59.36000 0.796
59.38000 -0.897
59.40000 3.461
59.42000 4.205
59.44000 -0.014
59.46000 0.915
59.48000 5.585
59.50000 4.227
59.52000 3.905
59.54000 4.487
59.56000 2.416
59.58000 -1.373
59.60000 0.681
59.62000 4.952
59.64000 3.519
59.66000 2.461
59.68000 0.161
59.70000 0.831
59.72000 4.148
59.74000 2.560
59.76000 -1.848
59.78000 1.167
59.80000 4.508
59.82000 5.616
59.84000 6.039
59.86000 6.368
59.88000 3.619
59.90000 7.208
59.92000 5.186
59.94000 4.983
59.96000 5.049
59.98000 6.489
60.00000 8.787
60.02000 6.500
60.04000 4.079
60.06000 2.213
60.08000 -0.458
60.10000 1.897
60.12000 4.285
60.14000 4.761
60.16000 4.536
60.18000 2.592
60.20000 4.872
60.22000 3.107
60.24000 -1.993
60.26000 -2.549
60.28000 1.963
60.30000 3.312
60.32000 2.643
60.34000 3.794
60.36000 7.478
60.38000 2.087
60.40000 1.432
60.42000 2.432
60.44000 3.113
60.46000 6.209
60.48000 5.086
60.50000 5.039
60.52000 6.908
60.54000 2.843
60.56000 3.780
60.58000 8.338
60.60000 5.692
60.62000 3.332
60.64000 -0.270
60.66000 2.875
60.68000 4.083
60.70000 0.424
60.72000 -2.559
60.74000 0.643
60.76000 0.589
60.78000 1.433
60.80000 3.593
60.82000 6.833
60.84000 5.979
60.86000 6.553
60.88000 3.839
60.90000 1.156
60.92000 5.206
60.94000 0.979
60.96000 2.619
60.98000 2.611
61.00000 1.498
61.02000 2.904
61.04000 6.858
61.06000 6.510
61.08000 5.186
61.10000 7.413
61.12000 6.182
61.14000 3.326
61.16000 2.254
61.18000 1.967
61.20000 2.831
61.22000 5.426
61.24000 -1.303
61.26000 -1.249
61.28000 -1.531
61.30000 0.182
61.32000 4.232
61.34000 2.984
61.36000 3.470
61.38000 6.482
61.40000 3.208
61.42000 -1.654
61.44000 -2.282
61.46000 -1.285
61.48000 0.552
61.50000 3.923
61.52000 1.671
61.54000 2.697
61.56000 3.754
61.58000 2.316
61.60000 4.663
61.62000 3.330
61.64000 3.737
61.66000 -0.477
61.68000 0.863
61.70000 -2.561
61.72000 -0.248
61.74000 0.440
61.76000 4.719
61.78000 3.019
61.80000 -2.263
61.82000 -1.451
61.84000 1.712
61.86000 4.135
61.88000 1.698
61.90000 -1.901
61.92000 2.098
61.94000 0.634
61.96000 -1.411
61.98000 0.232
62.00000 0.687
62.02000 0.169
62.04000 2.150
62.06000 2.444
62.08000 2.680
62.10000 0.290
62.12000 1.138
62.14000 1.434
62.16000 -0.439
62.18000 -2.497
62.20000 -1.269
62.22000 0.892
62.24000 1.064
62.26000 3.617
62.28000 0.419
62.30000 1.987
62.32000 3.690
62.34000 -1.216
62.36000 -2.535
62.38000 0.088
62.40000 6.256
62.42000 5.462
62.44000 1.498
62.46000 6.985
62.48000 1.151
62.50000 0.334
62.52000 3.704
62.54000 7.143
62.56000 5.110
62.58000 3.916
62.60000 2.724
62.62000 0.831
62.64000 -0.076
62.66000 4.454
62.68000 1.315
62.70000 -0.215
62.72000 3.847
62.74000 1.633
62.76000 0.180
62.78000 5.001
62.80000 2.908
62.82000 1.118
62.84000 1.491
62.86000 2.920
62.88000 1.514
62.90000 5.036
62.92000 6.726
62.94000 3.479
62.96000 2.378
62.98000 4.272
63.00000 2.885
63.02000 1.534
63.04000 -0.597
63.06000 -0.702
63.08000 3.063
63.10000 2.966
63.12000 0.714
63.14000 2.980
63.16000 3.497
63.18000 4.205
63.20000 1.326
63.22000 -2.515
63.24000 -0.739
63.26000 -0.219
63.28000 0.356
63.30000 3.971
63.32000 5.227
63.34000 1.592
63.36000 3.187
63.38000 5.162
63.40000 4.666
63.42000 4.917
63.44000 0.736
63.46000 -0.570
63.48000 -1.171
63.50000 2.739
63.52000 1.098
63.54000 2.358
63.56000 7.263
63.58000 5.148
63.60000 3.714
63.62000 3.204
63.64000 -0.302
63.66000 2.590
63.68000 2.294
63.70000 2.223
63.72000 2.640
63.74000 4.312
63.76000 6.612
63.78000 4.631
63.80000 4.095
63.82000 0.013
63.84000 2.256
63.86000 0.712
63.88000 -0.167
63.90000 -0.603
63.92000 0.196
63.94000 -2.527
63.96000 1.948
63.98000 6.243
64.00000 5.913
64.02000 6.217
64.04000 3.840
64.06000 2.675
64.08000 3.598
64.10000 5.072
64.12000 3.012
64.14000 1.555
64.16000 3.592
64.18000 4.094
64.20000 -1.285
64.22000 -0.430
64.24000 0.768
64.26000 1.750
64.28000 3.287
64.30000 3.762
64.32000 2.880
64.34000 1.640
64.36000 4.270
64.38000 3.003
64.40000 1.337
64.42000 0.179
64.44000 0.778
64.46000 2.109
64.48000 3.592
64.50000 3.435
64.52000 1.249
64.54000 1.794
64.56000 -1.994
64.58000 -1.089
64.60000 3.604
64.62000 3.001
64.64000 3.270
64.66000 3.708
64.68000 -0.508
64.70000 1.445
64.72000 -0.649
64.74000 -2.111
64.76000 0.592
64.78000 -0.447
64.80000 2.556
64.82000 3.381
64.84000 1.793
64.86000 3.535
64.88000 3.005
64.90000 -0.861
64.92000 -1.345
64.94000 -0.287
64.96000 -0.475
64.98000 2.612
65.00000 3.361
65.02000 -0.245
65.04000 -2.551
65.06000 2.011
65.08000 4.622
65.10000 2.303
65.12000 1.789
65.14000 1.142
65.16000 2.831
65.18000 3.017
65.20000 1.491
65.22000 3.478
65.24000 1.828
65.26000 1.929
65.28000 6.129
65.30000 6.528
65.32000 4.250
65.34000 4.807
65.36000 2.064
65.38000 2.864
65.40000 7.418
65.42000 3.326
65.44000 1.704
65.46000 3.065
65.48000 3.410
65.50000 1.816
65.52000 3.931
65.54000 3.572
65.56000 1.017
65.58000 -2.491
65.60000 1.496
65.62000 1.569
65.64000 -0.617
65.66000 0.716
65.68000 1.139
65.70000 1.239
65.72000 4.079
65.74000 5.726
65.76000 4.361
65.78000 5.393
65.80000 4.583
65.82000 3.561
65.84000 1.373
65.86000 2.259
65.88000 4.626
65.90000 1.535
65.92000 -2.525
65.94000 2.135
65.96000 3.670
65.98000 4.955
66.00000 4.277
66.02000 5.327
66.04000 3.917
66.06000 -0.026
66.08000 -0.333
66.10000 3.237
66.12000 3.971
66.14000 4.245
66.16000 2.736
66.18000 0.623
66.20000 0.306
66.22000 1.015
66.24000 -0.365
66.26000 3.586
66.28000 3.929
66.30000 1.563
66.32000 -0.132
66.34000 -2.219
66.36000 -0.843
66.38000 -0.550
66.40000 -0.373
66.42000 0.521
66.44000 3.113
66.46000 0.625
66.48000 2.093
66.50000 -0.111
66.52000 2.995
66.54000 1.718
66.56000 3.227
66.58000 3.663
66.60000 3.311
66.62000 2.759
66.64000 3.784
66.66000 5.306
66.68000 3.478
66.70000 -0.167
66.72000 2.042
66.74000 1.666
66.76000 1.161
66.78000 1.491
66.80000 1.423
66.82000 0.329
66.84000 -1.770
66.86000 -0.855
66.88000 0.965
66.90000 3.769
66.92000 6.173
66.94000 3.076
66.96000 2.532
66.98000 2.640
67.00000 4.512
67.02000 3.025
67.04000 1.593
67.06000 3.334
67.08000 8.121
67.10000 1.115
67.12000 0.722
67.14000 2.616
67.16000 4.390
67.18000 0.091
67.20000 -2.568
67.22000 0.289
67.24000 2.125
67.26000 4.499
67.28000 3.670
67.30000 -0.898
67.32000 -0.515
67.34000 2.282
67.36000 3.974
67.38000 6.583
67.40000 5.045
67.42000 -0.294
67.44000 2.067
67.46000 4.962
67.48000 4.367
67.50000 1.065
67.52000 -0.674
67.54000 2.834
67.56000 4.026
67.58000 2.806
67.60000 4.094
67.62000 5.453
67.64000 5.730
67.66000 3.737
67.68000 4.966
67.70000 5.122
67.72000 4.977
67.74000 3.077
67.76000 2.869
67.78000 4.537
67.80000 1.099
67.82000 3.506
67.84000 4.846
67.86000 5.822
67.88000 5.165
67.90000 4.507
67.92000 4.684
67.94000 1.736
67.96000 6.846
67.98000 12.021
68.00000 10.517
68.02000 7.081
68.04000 9.386
68.06000 11.777
68.08000 11.552
68.10000 9.285
68.12000 7.527
68.14000 8.799
68.16000 12.201
68.18000 11.537
68.20000 10.597
68.22000 16.461
68.24000 14.133
68.26000 7.796
68.28000 7.363
68.30000 14.147
68.32000 15.724
68.34000 14.501
68.36000 12.865
68.38000 11.377
68.40000 13.009
68.42000 14.483
68.44000 12.776
68.46000 14.392
68.48000 14.602
68.50000 13.318
68.52000 15.373
68.54000 14.285
68.56000 16.769
68.58000 19.846
68.60000 16.592
68.62000 15.932
68.64000 20.513
68.66000 21.615
68.68000 20.492
68.70000 19.063
68.72000 18.633
68.74000 19.807
68.76000 18.676
68.78000 17.851
68.80000 17.590
68.82000 21.008
68.84000 22.097
68.86000 23.336
68.88000 22.866
68.90000 23.920
68.92000 23.348
68.94000 21.939
68.96000 21.409
68.98000 22.803
69.00000 21.573
69.02000 22.794
69.04000 21.472
69.06000 16.508
69.08000 21.272
69.10000 23.190
69.12000 22.016
69.14000 21.544
69.16000 21.918
69.18000 22.935
69.20000 20.605
69.22000 21.413
69.24000 20.902
69.26000 19.770
69.28000 20.369
69.30000 20.612
69.32000 18.984
69.34000 21.605
69.36000 16.694
69.38000 14.737
69.40000 17.299
69.42000 16.303
69.44000 17.879
69.46000 15.130
69.48000 12.548
69.50000 13.924
69.52000 11.977
69.54000 9.303
69.56000 12.295
69.58000 13.157
69.60000 12.493
69.62000 17.482
69.64000 16.409
69.66000 15.011
69.68000 9.564
69.70000 8.994
69.72000 9.134
69.74000 10.177
69.76000 11.950
69.78000 6.129
69.80000 7.952
69.82000 8.233
69.84000 3.114
69.86000 4.947
69.88000 11.203
69.90000 10.616
69.92000 9.570
69.94000 8.773
69.96000 10.605
69.98000 9.784
70.00000 7.702
70.02000 7.997
70.04000 6.166
70.06000 5.493
70.08000 5.126
70.10000 5.718
70.12000 5.268
70.14000 3.606
70.16000 4.079
70.18000 5.938
70.20000 3.191
70.22000 6.552
70.24000 4.259
70.26000 1.807
70.28000 -0.194
70.30000 2.515
70.32000 3.078
70.34000 2.398
70.36000 -0.690
70.38000 -2.524
70.40000 0.494
70.42000 4.348
70.44000 3.865
70.46000 4.807
70.48000 1.428
70.50000 1.443
70.52000 0.409
70.54000 2.092
70.56000 -1.270
70.58000 -2.150
70.60000 1.670
70.62000 2.017
70.64000 2.484
70.66000 2.438
70.68000 1.016
70.70000 -0.730
70.72000 0.912
70.74000 1.773
70.76000 3.052
70.78000 1.487
70.80000 -0.753
70.82000 4.157
70.84000 3.147
70.86000 3.152
70.88000 2.531
70.90000 -0.971
70.92000 1.317
70.94000 2.001
70.96000 3.679
70.98000 0.757
71.00000 -0.680
71.02000 3.492
71.04000 3.758
71.06000 1.073
71.08000 3.618
71.10000 4.170
71.12000 0.690
71.14000 2.583
71.16000 2.101
71.18000 1.405
71.20000 5.841
71.22000 1.678
71.24000 -0.008
71.26000 -0.160
71.28000 1.733
71.30000 1.027
71.32000 1.259
71.34000 3.301
71.36000 0.333
71.38000 -1.086
71.40000 -1.727
71.42000 0.748
71.44000 -2.453
71.46000 1.421
71.48000 4.764
71.50000 5.982
71.52000 1.414
71.54000 -2.443
71.56000 2.307
71.58000 1.009
71.60000 3.370
71.62000 0.309
71.64000 -2.037
71.66000 -0.401
71.68000 6.734
71.70000 6.352
71.72000 1.621
71.74000 -2.424
71.76000 -0.595
71.78000 1.459
71.80000 -1.431
71.82000 2.312
71.84000 2.731
71.86000 4.068
71.88000 0.857
71.90000 5.069
71.92000 3.680
71.94000 1.733
71.96000 -1.956
71.98000 -0.397
72.00000 2.013
72.02000 0.667
72.04000 1.039
72.06000 -0.561
72.08000 -0.576
72.10000 -2.405
72.12000 -0.829
72.14000 -1.360
72.16000 0.332
72.18000 0.432
72.20000 -1.174
72.22000 3.450
72.24000 1.134
72.26000 0.764
72.28000 3.257
72.30000 -0.131
72.32000 -2.399
72.34000 -0.532
72.36000 1.441
72.38000 7.854
72.40000 5.561
72.42000 -0.079
72.44000 -1.138
72.46000 -0.987
72.48000 0.388
72.50000 -1.961
72.52000 -0.190
72.54000 3.881
72.56000 6.969
72.58000 0.037
72.60000 1.828
72.62000 5.948
72.64000 7.789
72.66000 6.507
72.68000 2.256
72.70000 1.292
72.72000 5.321
72.74000 2.889
72.76000 -0.066
72.78000 1.089
72.80000 5.811
72.82000 4.756
72.84000 -1.839
72.86000 0.497
72.88000 1.773
72.90000 -0.410
72.92000 1.992
72.94000 2.082
72.96000 0.623
72.98000 -2.362
73.00000 1.450
73.02000 2.048
73.04000 2.202
73.06000 1.548
73.08000 0.703
73.10000 3.101
73.12000 1.163
73.14000 0.404
73.16000 1.243
73.18000 1.308
73.20000 3.254
73.22000 -0.368
73.24000 1.393
73.26000 2.168
73.28000 3.297
73.30000 5.038
73.32000 1.585
73.34000 -0.857
73.36000 0.385
73.38000 -0.172
73.40000 5.575
73.42000 3.943
73.44000 6.183
73.46000 2.229
73.48000 0.452
73.50000 -1.724
73.52000 2.226
73.54000 2.702
73.56000 3.799
73.58000 0.435
73.60000 4.914
73.62000 6.983
73.64000 5.192
73.66000 3.482
73.68000 5.545
73.70000 0.823
73.72000 0.476
73.74000 0.955
73.76000 0.354
73.78000 2.112
73.80000 3.563
73.82000 2.818
73.84000 2.931
73.86000 2.237
73.88000 -2.349
73.90000 -0.739
73.92000 7.785
73.94000 2.784
73.96000 3.881
73.98000 5.672
74.00000 7.913
74.02000 4.646
74.04000 1.441
74.06000 1.114
74.08000 4.491
74.10000 3.209
74.12000 1.473
74.14000 -1.270
74.16000 1.804
74.18000 -0.273
74.20000 4.274
74.22000 4.061
74.24000 2.443
74.26000 4.155
74.28000 0.529
74.30000 -0.524
74.32000 -0.761
74.34000 1.781
74.36000 0.578
74.38000 -1.325
74.40000 -0.933
74.42000 -2.328
74.44000 0.367
74.46000 2.319
74.48000 2.484
74.50000 3.486
74.52000 4.489
74.54000 5.782
74.56000 2.784
74.58000 1.359
74.60000 3.272
74.62000 5.599
74.64000 5.302
74.66000 1.406
74.68000 2.756
74.70000 4.038
74.72000 5.506
74.74000 9.397
74.76000 4.308
74.78000 1.909
74.80000 7.334
74.82000 8.636
74.84000 7.454
74.86000 3.723
74.88000 2.526
74.90000 3.873
74.92000 2.704
74.94000 2.545
74.96000 5.256
74.98000 1.151
75.00000 2.402
75.02000 1.324
75.04000 1.210
75.06000 1.430
75.08000 4.175
75.10000 6.189
75.12000 3.426
75.14000 1.191
75.16000 1.249
75.18000 1.565
75.20000 4.375
75.22000 0.925
75.24000 -0.662
75.26000 -2.323
75.28000 0.565
75.30000 5.454
75.32000 2.190
75.34000 1.553
75.36000 2.518
75.38000 3.481
75.40000 3.859
75.42000 2.040
75.44000 2.048
75.46000 -0.270
75.48000 4.089
75.50000 2.997
75.52000 1.505
75.54000 0.511
75.56000 3.673
75.58000 5.730
75.60000 5.406
75.62000 -0.040
75.64000 1.345
75.66000 -1.415
75.68000 1.718
75.70000 5.241
75.72000 2.339
75.74000 1.942
75.76000 2.911
75.78000 6.836
75.80000 4.763
75.82000 3.808
75.84000 2.839
75.86000 0.838
75.88000 2.132
75.90000 1.921
75.92000 0.693
75.94000 0.402
75.96000 0.445
75.98000 0.970
76.00000 1.338
76.02000 1.663
76.04000 -0.583
76.06000 1.497
76.08000 0.662
76.10000 0.703
76.12000 4.532
76.14000 5.047
76.16000 -2.247
76.18000 -1.066
76.20000 3.065
76.22000 -0.533
76.24000 1.859
76.26000 2.012
76.28000 3.026
76.30000 6.155
76.32000 5.123
76.34000 2.057
76.36000 -0.317
76.38000 3.377
76.40000 4.139
76.42000 -1.093
76.44000 -0.136
76.46000 3.195
76.48000 1.045
76.50000 1.866
76.52000 3.906
76.54000 1.548
76.56000 -2.375
76.58000 -0.415
76.60000 0.925
76.62000 5.218
76.64000 2.802
76.66000 1.387
76.68000 -0.680
76.70000 0.967
76.72000 4.421
76.74000 1.703
76.76000 2.365
76.78000 2.697
76.80000 6.473
76.82000 7.382
76.84000 2.796
76.86000 -0.374
76.88000 0.353
76.90000 3.382
76.92000 4.574
76.94000 1.914
76.96000 2.588
76.98000 0.790
77.00000 5.668
77.02000 2.034
77.04000 2.051
77.06000 7.375
77.08000 0.606
77.10000 -1.126
77.12000 1.264
77.14000 3.783
77.16000 0.357
77.18000 3.225
77.20000 1.639
77.22000 0.507
77.24000 3.555
77.26000 -0.721
77.28000 0.772
77.30000 -0.029
77.32000 0.310
77.34000 -1.358
77.36000 2.752
77.38000 4.958
77.40000 5.092
77.42000 4.849
77.44000 6.172
77.46000 7.155
77.48000 3.415
77.50000 -0.497
77.52000 -2.352
77.54000 4.100
77.56000 5.251
77.58000 3.307
77.60000 6.278
77.62000 7.892
77.64000 5.961
77.66000 7.649
77.68000 5.498
77.70000 3.390
77.72000 0.716
77.74000 2.973
77.76000 1.045
77.78000 3.426
77.80000 2.142
77.82000 -0.664
77.84000 3.457
77.86000 -0.142
77.88000 0.844
77.90000 1.025
77.92000 -0.161
77.94000 0.690
77.96000 3.356
77.98000 1.443
78.00000 4.762
78.02000 2.696
78.04000 3.672
78.06000 2.076
78.08000 3.844
78.10000 1.253
78.12000 -0.474
78.14000 0.794
78.16000 -0.296
78.18000 3.414
78.20000 3.516
78.22000 7.813
78.24000 2.641
78.26000 -0.382
78.28000 4.802
78.30000 2.759
78.32000 0.247
78.34000 -1.567
78.36000 -0.474
78.38000 2.879
78.40000 4.682
78.42000 5.746
78.44000 6.710
78.46000 2.691
78.48000 1.994
78.50000 5.220
78.52000 3.568
78.54000 3.110
78.56000 4.473
78.58000 8.083
78.60000 2.561
78.62000 1.145
78.64000 3.074
78.66000 6.219
78.68000 3.602
78.70000 1.892
78.72000 0.819
78.74000 2.058
78.76000 0.357
78.78000 1.787
78.80000 1.188
78.82000 0.699
78.84000 -2.133
78.86000 -1.222
78.88000 4.702
78.90000 4.398
78.92000 6.455
78.94000 4.014
78.96000 3.647
78.98000 2.996
79.00000 1.912
79.02000 2.171
79.04000 -2.366
79.06000 -0.841
79.08000 2.165
79.10000 2.848
79.12000 5.242
79.14000 1.786
79.16000 2.658
79.18000 1.917
79.20000 3.390
79.22000 4.258
79.24000 3.132
79.26000 3.453
79.28000 2.949
79.30000 1.244
79.32000 1.174
79.34000 1.171
79.36000 3.890
79.38000 4.082
79.40000 6.195
79.42000 4.660
79.44000 2.161
79.46000 3.802
79.48000 0.885
79.50000 5.011
79.52000 3.015
79.54000 2.637
79.56000 1.351
79.58000 1.049
79.60000 1.357
79.62000 1.139
79.64000 4.017
79.66000 7.196
79.68000 7.910
79.70000 3.816
79.72000 4.293
79.74000 -0.121
79.76000 -0.973
79.78000 0.758
79.80000 3.331
79.82000 4.363
79.84000 4.082
79.86000 2.951
79.88000 1.492
79.90000 4.818
79.92000 5.980
79.94000 3.350
79.96000 3.978
79.98000 5.410
80.00000 0.364
80.02000 2.454
80.04000 3.098
80.06000 7.593
80.08000 8.665
80.10000 6.836
80.12000 10.745
80.14000 8.280
80.16000 2.012
80.18000 -2.377
80.20000 -1.145
80.22000 4.123
80.24000 9.192
80.26000 3.398
80.28000 1.451
80.30000 0.938
80.32000 3.948
80.34000 3.849
80.36000 3.435
80.38000 2.005
80.40000 0.556
80.42000 0.915
80.44000 4.203
80.46000 6.680
80.48000 6.448
80.50000 4.922
80.52000 -0.209
80.54000 -2.421
80.56000 -0.901
80.58000 -0.444
80.60000 2.374
80.62000 1.369
80.64000 3.595
80.66000 3.698
80.68000 4.573
80.70000 4.715
80.72000 0.547
80.74000 0.423
80.76000 1.028
80.78000 3.129
80.80000 3.030
80.82000 2.297
80.84000 2.916
80.86000 -0.153
80.88000 4.667
80.90000 1.571
80.92000 4.707
80.94000 1.421
80.96000 1.342
80.98000 3.708
81.00000 5.129
81.02000 4.874
81.04000 4.393
81.06000 1.389
81.08000 6.013
81.10000 9.723
81.12000 6.446
81.14000 -0.636
81.16000 -0.218
81.18000 -2.480
81.20000 0.779
81.22000 1.643
81.24000 0.168
81.26000 4.207
81.28000 2.474
81.30000 -2.420
81.32000 -0.135
81.34000 2.045
81.36000 3.078
81.38000 4.033
81.40000 3.958
81.42000 6.418
81.44000 8.389
81.46000 2.687
81.48000 3.299
81.50000 2.239
81.52000 9.439
81.54000 5.200
81.56000 -2.124
81.58000 1.481
81.60000 5.969
81.62000 4.248
81.64000 7.324
81.66000 4.598
81.68000 7.746
81.70000 9.858
81.72000 6.999
81.74000 -2.000
81.76000 -1.470
81.78000 7.316
81.80000 6.859
81.82000 6.387
81.84000 7.332
81.86000 2.473
81.88000 3.083
81.90000 1.745
81.92000 3.723
81.94000 6.102
81.96000 6.057
81.98000 4.459
82.00000 7.422
82.02000 10.393
82.04000 11.792
82.06000 8.849
82.08000 5.298
82.10000 5.957
82.12000 3.270
82.14000 0.884
82.16000 2.112
82.18000 9.456
82.20000 8.134
82.22000 9.471
82.24000 11.606
82.26000 9.610
82.28000 6.327
82.30000 2.866
82.32000 7.887
82.34000 8.543
82.36000 12.234
82.38000 9.247
82.40000 9.236
82.42000 11.403
82.44000 13.731
82.46000 10.869
82.48000 7.623
82.50000 15.815
82.52000 15.557
82.54000 8.940
82.56000 9.061
82.58000 13.311
82.60000 17.537
82.62000 18.802
82.64000 14.541
82.66000 12.965
82.68000 15.600
82.70000 15.918
82.72000 14.168
82.74000 16.099
82.76000 19.162
82.78000 19.112
82.80000 14.875
82.82000 16.785
82.84000 17.017
82.86000 17.640
82.88000 16.777
82.90000 17.501
82.92000 23.499
82.94000 21.234
82.96000 22.105
82.98000 13.181
83.00000 17.680
83.02000 23.328
83.04000 27.363
83.06000 22.820
83.08000 23.989
83.10000 23.806
83.12000 23.161
83.14000 23.694
83.16000 19.466
83.18000 21.982
83.20000 25.736
83.22000 25.563
83.24000 24.356
83.26000 21.399
83.28000 20.173
83.30000 19.385
83.32000 21.014
83.34000 19.341
83.36000 23.493
83.38000 23.245
83.40000 23.846
83.42000 19.434
83.44000 21.317
83.46000 22.005
83.48000 22.913
83.50000 22.446
83.52000 22.097
83.54000 15.853
83.56000 17.223
83.58000 22.330
83.60000 18.451
83.62000 16.632
83.64000 20.157
83.66000 18.502
83.68000 22.574
83.70000 20.392
83.72000 20.876
83.74000 18.830
83.76000 21.816
83.78000 18.503
83.80000 17.787
83.82000 23.063
83.84000 25.766
83.86000 17.999
83.88000 14.352
83.90000 17.409
83.92000 16.938
83.94000 20.199
83.96000 14.858
83.98000 17.296
84.00000 16.076
84.02000 11.314
84.04000 11.458
84.06000 13.722
84.08000 12.136
84.10000 16.030
84.12000 14.626
84.14000 9.450
84.16000 10.362
84.18000 13.361
84.20000 11.649
84.22000 9.242
84.24000 9.241
84.26000 7.948
84.28000 9.501
84.30000 9.723
84.32000 7.295
84.34000 9.548
84.36000 6.181
84.38000 4.230
84.40000 5.669
84.42000 3.986
84.44000 1.501
84.46000 3.227
84.48000 5.062
84.50000 3.482
84.52000 2.732
84.54000 4.285
84.56000 -1.914
84.58000 0.331
84.60000 3.834
84.62000 7.427
84.64000 3.902
84.66000 5.891
84.68000 9.561
84.70000 5.023
84.72000 3.031
84.74000 2.809
84.76000 0.638
84.78000 1.068
84.80000 5.314
84.82000 3.383
84.84000 7.726
84.86000 4.485
84.88000 -0.359
84.90000 -0.723
84.92000 -2.509
84.94000 -0.153
84.96000 2.797
84.98000 1.358
85.00000 2.038
85.02000 2.853
85.04000 1.315
85.06000 3.532
85.08000 6.412
85.10000 3.299
85.12000 1.478
85.14000 4.498
85.16000 7.366
85.18000 7.774
85.20000 0.681
85.22000 2.083
85.24000 1.585
85.26000 -0.539
85.28000 -1.063
85.30000 3.813
85.32000 4.586
85.34000 -1.618
85.36000 -0.045
85.38000 3.474
85.40000 1.095
85.42000 -2.455
85.44000 -0.705
85.46000 0.224
85.48000 -1.063
85.50000 6.327
85.52000 2.590
85.54000 0.111
85.56000 -0.748
85.58000 4.289
85.60000 2.663
85.62000 1.217
85.64000 1.852
85.66000 3.574
85.68000 0.901
85.70000 0.661
85.72000 0.567
85.74000 -1.393
85.76000 -0.735
85.78000 -2.241
85.80000 0.528
85.82000 0.097
85.84000 1.329
85.86000 1.098
85.88000 -2.413
85.90000 -1.863
85.92000 2.758
85.94000 6.429
85.96000 7.339
85.98000 7.778
86.00000 3.132
86.02000 4.640
86.04000 3.044
86.06000 1.104
86.08000 0.619
86.10000 4.097
86.12000 3.336
86.14000 0.802
86.16000 -1.806
86.18000 1.195
86.20000 0.458
86.22000 2.697
86.24000 3.422
86.26000 2.181
86.28000 2.169
86.30000 0.164
86.32000 1.808
86.34000 2.307
86.36000 4.251
86.38000 5.236
86.40000 2.789
86.42000 -0.770
86.44000 0.644
86.46000 3.592
86.48000 6.483
86.50000 4.211
86.52000 -0.778
86.54000 0.019
86.56000 3.817
86.58000 3.642
86.60000 -1.749
86.62000 -2.439
86.64000 5.698
86.66000 7.610
86.68000 5.978
86.70000 8.387
86.72000 4.024
86.74000 1.597
86.76000 2.346
86.78000 5.547
86.80000 6.099
86.82000 0.316
86.84000 -2.443
86.86000 1.344
86.88000 4.555
86.90000 3.714
86.92000 2.315
86.94000 5.758
86.96000 13.410
86.98000 12.175
87.00000 9.974
87.02000 7.251
87.04000 8.657
87.06000 7.039
87.08000 4.482
87.10000 2.677
87.12000 2.488
87.14000 8.197
87.16000 12.599
87.18000 11.589
87.20000 14.482
87.22000 9.779
87.24000 7.324
87.26000 11.412
87.28000 8.738
87.30000 13.645
87.32000 12.609
87.34000 10.630
87.36000 11.396
87.38000 9.330
87.40000 13.564
87.42000 15.311
87.44000 13.773
87.46000 14.707
87.48000 15.507
87.50000 18.141
87.52000 15.110
87.54000 12.853
87.56000 10.304
87.58000 13.855
87.60000 16.990
87.62000 16.411
87.64000 20.043
87.66000 15.182
87.68000 13.251
87.70000 16.605
87.72000 19.242
87.74000 18.868
87.76000 18.072
87.78000 15.528
87.80000 12.033
87.82000 15.251
87.84000 20.067
87.86000 21.933
87.88000 21.930
87.90000 23.968
87.92000 26.953
87.94000 22.134
87.96000 18.237
87.98000 17.288
88.00000 16.100
88.02000 21.054
88.04000 16.973
88.06000 19.989
88.08000 18.389
88.10000 21.917
88.12000 20.465
88.14000 17.183
88.16000 15.995
88.18000 16.956
88.20000 14.785
88.22000 19.446
88.24000 18.980
88.26000 18.702
88.28000 17.160
88.30000 14.838
88.32000 15.102
88.34000 14.777
88.36000 13.942
88.38000 16.645
88.40000 9.156
88.42000 4.750
88.44000 5.623
88.46000 8.708
88.48000 12.321
88.50000 12.007
88.52000 11.430
88.54000 9.831
88.56000 13.950
88.58000 12.261
88.60000 6.632
88.62000 3.728
88.64000 4.541
88.66000 3.905
88.68000 4.773
88.70000 4.813
88.72000 4.891
88.74000 5.272
88.76000 1.710
88.78000 2.711
88.80000 7.117
88.82000 7.250
88.84000 8.013
88.86000 2.824
88.88000 5.457
88.90000 7.419
88.92000 5.474
88.94000 3.898
88.96000 3.467
88.98000 3.318
89.00000 7.233
89.02000 3.243
89.04000 5.130
89.06000 5.442
89.08000 5.820
89.10000 7.868
89.12000 4.089
89.14000 -0.152
89.16000 4.392
89.18000 6.608
89.20000 5.673
89.22000 3.480
89.24000 -2.061
89.26000 0.928
89.28000 0.971
89.30000 4.151
89.32000 0.413
89.34000 1.612
89.36000 2.532
89.38000 -1.356
89.40000 -1.370
89.42000 2.965
89.44000 2.489
89.46000 3.215
89.48000 1.717
89.50000 -0.758
89.52000 2.592
89.54000 0.676
89.56000 -0.533
89.58000 3.563
89.60000 1.728
89.62000 -0.844
89.64000 1.270
89.66000 0.970
89.68000 -0.144
89.70000 2.473
89.72000 0.340
89.74000 -0.269
89.76000 -0.488
89.78000 -2.299
89.80000 0.910
89.82000 -0.643
89.84000 2.028
89.86000 6.025
89.88000 7.204
89.90000 0.727
89.92000 1.446
89.94000 3.320
89.96000 2.566
89.98000 3.169
90.00000 4.266
90.02000 3.204
90.04000 0.139
90.06000 -1.550
90.08000 0.883
90.10000 3.200
90.12000 1.082
90.14000 9.089
90.16000 7.589
90.18000 4.599
90.20000 -0.053
90.22000 -2.259
90.24000 4.857
90.26000 7.147
90.28000 5.118
90.30000 3.937
90.32000 4.659
90.34000 7.520
90.36000 9.060
90.38000 7.484
90.40000 6.210
90.42000 2.439
90.44000 3.608
90.46000 3.791
90.48000 3.164
90.50000 3.765
90.52000 0.374
90.54000 4.959
90.56000 4.855
90.58000 0.394
90.60000 0.898
90.62000 2.032
90.64000 3.029
90.66000 0.613
90.68000 -2.222
90.70000 -0.268
90.72000 4.637
90.74000 8.266
90.76000 2.595
90.78000 3.680
90.80000 5.721
90.82000 -0.687
90.84000 -1.290
90.86000 0.568
90.88000 1.148
90.90000 -0.920
90.92000 -0.020
90.94000 -0.099
90.96000 2.852
90.98000 0.584
91.00000 -1.328
91.02000 2.364
91.04000 2.156
91.06000 4.826
91.08000 6.844
91.10000 -0.450
91.12000 1.664
91.14000 2.356
91.16000 5.564
91.18000 5.942
91.20000 5.407
91.22000 0.105
91.24000 -0.876
91.26000 0.668
91.28000 5.889
91.30000 4.776
91.32000 1.591
91.34000 4.085
91.36000 5.761
91.38000 3.048
91.40000 4.908
91.42000 1.967
91.44000 3.633
91.46000 8.543
91.48000 1.576
91.50000 1.627
91.52000 7.742
91.54000 9.019
91.56000 3.929
91.58000 4.043
91.60000 -0.073
91.62000 -0.567
91.64000 4.574
91.66000 5.003
91.68000 2.580
91.70000 0.607
91.72000 -0.485
91.74000 0.662
91.76000 1.419
91.78000 -1.817
91.80000 -0.589
91.82000 -0.214
91.84000 2.440
91.86000 2.303
91.88000 7.107
91.90000 2.572
91.92000 2.395
91.94000 1.692
91.96000 1.410
91.98000 2.850
92.00000 3.156
92.02000 4.462
92.04000 5.656
92.06000 3.859
92.08000 2.895
92.10000 -1.572
92.12000 -0.127
92.14000 1.010
92.16000 4.282
92.18000 3.432
92.20000 5.019
92.22000 6.174
92.24000 1.845
92.26000 0.300
92.28000 -1.481
92.30000 0.497
92.32000 3.883
92.34000 5.668
92.36000 5.137
92.38000 2.249
92.40000 4.872
92.42000 7.147
92.44000 2.728
92.46000 4.910
92.48000 7.626
92.50000 7.053
92.52000 7.544
92.54000 7.232
92.56000 3.454
92.58000 -2.210
92.60000 0.892
92.62000 5.118
92.64000 5.666
92.66000 4.145
92.68000 3.737
92.70000 -1.269
92.72000 -2.047
92.74000 0.361
92.76000 4.827
92.78000 3.234
92.80000 5.112
92.82000 4.732
92.84000 4.049
92.86000 6.664
92.88000 0.224
92.90000 0.155
92.92000 6.874
92.94000 6.562
92.96000 6.324
92.98000 2.951
93.00000 4.866
93.02000 4.187
93.04000 2.825
93.06000 4.208
93.08000 5.379
93.10000 2.480
93.12000 3.315
93.14000 1.264
93.16000 -1.004
93.18000 1.840
93.20000 6.986
93.22000 4.453
93.24000 -2.230
93.26000 0.759
93.28000 4.414
93.30000 6.597
93.32000 8.483
93.34000 5.186
93.36000 6.917
93.38000 5.012
93.40000 -0.055
93.42000 1.234
93.44000 7.025
93.46000 3.766
93.48000 1.938
93.50000 7.279
93.52000 4.133
93.54000 2.401
93.56000 2.528
93.58000 5.956
93.60000 4.465
93.62000 1.243
93.64000 4.417
93.66000 8.711
93.68000 2.187
93.70000 1.484
93.72000 3.891
93.74000 -0.510
93.76000 -0.252
93.78000 6.112
93.80000 6.546
93.82000 -1.955
93.84000 -1.293
93.86000 -2.219
93.88000 -0.927
93.90000 5.809
93.92000 -0.683
93.94000 4.902
93.96000 6.289
93.98000 8.721
94.00000 4.459
94.02000 1.937
94.04000 1.326
94.06000 7.055
94.08000 4.964
94.10000 7.917
94.12000 13.673
94.14000 7.813
94.16000 4.555
94.18000 4.398
94.20000 7.479
94.22000 8.625
94.24000 5.888
94.26000 3.998
94.28000 0.769
94.30000 -0.508
94.32000 1.492
94.34000 1.919
94.36000 1.781
94.38000 2.874
94.40000 3.293
94.42000 -0.939
94.44000 4.400
94.46000 5.285
94.48000 1.603
94.50000 -2.248
94.52000 0.867
94.54000 2.638
94.56000 5.987
94.58000 1.977
94.60000 -1.474
94.62000 0.880
94.64000 1.438
94.66000 2.207
94.68000 2.996
94.70000 1.498
94.72000 2.985
94.74000 9.669
94.76000 2.653
94.78000 6.771
94.80000 9.138
94.82000 6.450
94.84000 1.409
94.86000 3.211
94.88000 5.185
94.90000 5.566
94.92000 0.781
94.94000 -0.692
94.96000 -1.861
94.98000 -0.510
95.00000 1.826
95.02000 4.420
95.04000 7.586
95.06000 6.372
95.08000 -1.983
95.10000 -1.352
95.12000 4.980
95.14000 2.062
95.16000 0.058
95.18000 2.282
95.20000 2.342
95.22000 2.153
95.24000 3.713
95.26000 8.660
95.28000 5.808
95.30000 9.651
95.32000 7.160
95.34000 0.880
95.36000 3.428
95.38000 6.873
95.40000 7.124
95.42000 4.822
95.44000 7.936
95.46000 4.848
95.48000 3.684
95.50000 2.091
95.52000 1.638
95.54000 4.806
95.56000 4.279
95.58000 0.351
95.60000 3.161
95.62000 -1.681
95.64000 -2.258
95.66000 -1.073
95.68000 1.296
95.70000 1.765
95.72000 -1.933
95.74000 6.103
95.76000 2.851
95.78000 2.244
95.80000 6.184
95.82000 2.405
95.84000 5.326
95.86000 4.156
95.88000 4.247
95.90000 3.179
95.92000 8.253
95.94000 8.387
95.96000 7.291
95.98000 8.418
96.00000 5.823
96.02000 5.334
96.04000 -0.883
96.06000 -2.258
96.08000 8.063
96.10000 5.803
96.12000 12.108
96.14000 11.017
96.16000 6.523
96.18000 1.204
96.20000 5.715
96.22000 7.156
96.24000 3.989
96.26000 -0.639
96.28000 4.205
96.30000 7.420
96.32000 3.319
96.34000 4.876
96.36000 3.075
96.38000 1.936
96.40000 3.989
96.42000 9.064
96.44000 1.707
96.46000 -2.046
96.48000 2.164
96.50000 1.141
96.52000 4.992
96.54000 1.937
96.56000 1.657
96.58000 4.826
96.60000 2.467
96.62000 4.259
96.64000 6.990
96.66000 2.459
96.68000 0.973
96.70000 3.305
96.72000 6.954
96.74000 4.168
96.76000 4.975
96.78000 8.408
96.80000 4.624
96.82000 3.785
96.84000 3.830
96.86000 2.877
96.88000 5.982
96.90000 6.396
96.92000 11.979
96.94000 12.412
96.96000 5.429
96.98000 4.197
97.00000 -0.077
97.02000 3.222
97.04000 5.489
97.06000 5.962
97.08000 7.743
97.10000 0.034
97.12000 4.636
97.14000 -0.233
97.16000 1.279
97.18000 4.468
97.20000 0.191
97.22000 -0.314
97.24000 5.597
97.26000 1.913
97.28000 5.088
97.30000 8.409
97.32000 11.430
97.34000 3.455
97.36000 8.211
97.38000 9.180
97.40000 9.416
97.42000 7.382
97.44000 2.877
97.46000 3.741
97.48000 1.545
97.50000 5.312
97.52000 8.614
97.54000 8.553
97.56000 6.414
97.58000 9.569
97.60000 9.343
97.62000 4.692
97.64000 6.055
97.66000 1.399
97.68000 7.613
97.70000 11.513
97.72000 11.930
97.74000 11.159
97.76000 7.229
97.78000 7.813
97.80000 8.446
97.82000 9.601
97.84000 6.173
97.86000 4.469
97.88000 6.361
97.90000 4.006
97.92000 -2.161
97.94000 3.574
97.96000 9.516
97.98000 5.285
98.00000 8.155
98.02000 10.011
98.04000 7.949
98.06000 10.409
98.08000 7.037
98.10000 0.465
98.12000 -0.251
98.14000 0.678
98.16000 0.634
98.18000 6.744
98.20000 8.481
98.22000 3.517
98.24000 6.523
98.26000 10.161
98.28000 6.832
98.30000 0.965
98.32000 6.610
98.34000 8.257
98.36000 10.012
98.38000 8.271
98.40000 5.174
98.42000 1.072
98.44000 1.740
98.46000 5.904
98.48000 17.089
98.50000 7.399
98.52000 5.917
98.54000 -0.031
98.56000 1.115
98.58000 5.562
98.60000 6.541
98.62000 9.823
98.64000 6.717
98.66000 9.021
98.68000 0.304
98.70000 0.052
98.72000 8.614
98.74000 6.793
98.76000 3.051
98.78000 1.935
98.80000 5.772
98.82000 8.615
98.84000 3.446
98.86000 -0.714
98.88000 0.548
98.90000 8.099
98.92000 15.486
98.94000 11.240
98.96000 0.392
98.98000 1.881
99.00000 9.064
99.02000 6.100
99.04000 7.502
99.06000 2.936
99.08000 8.938
99.10000 5.871
99.12000 0.229
99.14000 5.887
99.16000 2.958
99.18000 8.519
99.20000 6.059
99.22000 2.524
99.24000 9.607
99.26000 -5.096
99.28000 1.451
99.30000 10.282
99.32000 3.646
99.34000 17.383
99.36000 17.364
99.38000 5.792
99.40000 0.405
99.42000 7.820
99.44000 13.248
99.46000 13.413
99.48000 5.827
99.50000 17.819
99.52000 13.305
99.54000 12.835
99.56000 8.162
99.58000 5.738
99.60000 3.792
99.62000 1.379
99.64000 10.937
99.66000 25.656
99.68000 21.735
99.70000 11.181
99.72000 0.070
99.74000 6.819
99.76000 11.473
99.78000 1.908
99.80000 9.867
99.82000 12.669
99.84000 7.147
99.86000 0.302
99.88000 -2.176
99.90000 3.782
99.92000 -1.616
99.94000 3.735
99.96000 -2.368
99.98000 0.000
