'Id: "0011387" Comment: "Integrate frame 0011387_Au-Ir-Rh_Rh-rich_XRD-Mapping-017-0000.gfrmwith cursor Wedge Cursor #5" Operator: "B?rgel" Anode: "Cu" Wavelength: "1.5406" Scantype: "2Theta (TwoTheta)" TimePerStep: "1" X: "0" Y: "-36" Z: "5.95" 
10.00000 0.000
10.02000 14.525
10.04000 6.469
10.06000 -4.458
10.08000 13.716
10.10000 30.646
10.12000 31.023
10.14000 21.479
10.16000 23.704
10.18000 21.295
10.20000 9.756
10.22000 24.969
10.24000 19.235
10.26000 14.303
10.28000 -4.347
10.30000 -0.194
10.32000 27.064
10.34000 21.064
10.36000 5.692
10.38000 1.313
10.40000 12.521
10.42000 28.007
10.44000 17.478
10.46000 26.877
10.48000 37.490
10.50000 31.966
10.52000 24.099
10.54000 12.924
10.56000 22.791
10.58000 33.431
10.60000 14.954
10.62000 7.485
10.64000 8.440
10.66000 8.688
10.68000 19.392
10.70000 18.096
10.72000 16.805
10.74000 24.870
10.76000 33.021
10.78000 22.289
10.80000 20.402
10.82000 16.851
10.84000 16.709
10.86000 28.159
10.88000 41.293
10.90000 41.655
10.92000 17.855
10.94000 28.144
10.96000 18.997
10.98000 9.798
11.00000 13.142
11.02000 28.746
11.04000 22.722
11.06000 23.356
11.08000 27.672
11.10000 27.458
11.12000 11.865
11.14000 7.740
11.16000 5.657
11.18000 22.452
11.20000 31.492
11.22000 8.930
11.24000 14.847
11.26000 20.690
11.28000 14.344
11.30000 15.350
11.32000 8.853
11.34000 18.547
11.36000 15.398
11.38000 9.635
11.40000 6.969
11.42000 7.382
11.44000 3.347
11.46000 11.148
11.48000 3.237
11.50000 9.831
11.52000 16.697
11.54000 34.418
11.56000 24.982
11.58000 3.785
11.60000 10.061
11.62000 22.565
11.64000 15.635
11.66000 13.434
11.68000 15.386
11.70000 15.382
11.72000 17.662
11.74000 33.567
11.76000 29.871
11.78000 16.586
11.80000 8.857
11.82000 12.053
11.84000 23.305
11.86000 25.082
11.88000 21.328
11.90000 10.161
11.92000 6.412
11.94000 2.773
11.96000 -1.638
11.98000 2.337
12.00000 15.482
12.02000 20.892
12.04000 18.274
12.06000 6.395
12.08000 13.094
12.10000 18.430
12.12000 26.754
12.14000 22.489
12.16000 -4.566
12.18000 -4.437
12.20000 8.816
12.22000 12.766
12.24000 20.019
12.26000 26.384
12.28000 20.964
12.30000 17.195
12.32000 13.149
12.34000 15.361
12.36000 7.102
12.38000 11.594
12.40000 15.136
12.42000 13.628
12.44000 17.109
12.46000 16.403
12.48000 8.707
12.50000 2.774
12.52000 2.164
12.54000 10.057
12.56000 22.026
12.58000 21.102
12.60000 5.934
12.62000 3.377
12.64000 8.781
12.66000 0.942
12.68000 -0.624
12.70000 15.188
12.72000 13.454
12.74000 15.989
12.76000 22.375
12.78000 20.586
12.80000 6.280
12.82000 7.633
12.84000 16.755
12.86000 10.463
12.88000 13.366
12.90000 15.188
12.92000 11.773
12.94000 15.832
12.96000 12.530
12.98000 10.972
13.00000 6.883
13.02000 10.046
13.04000 12.429
13.06000 14.020
13.08000 17.987
13.10000 14.933
13.12000 16.990
13.14000 19.797
13.16000 20.811
13.18000 15.937
13.20000 8.630
13.22000 7.567
13.24000 1.270
13.26000 9.432
13.28000 11.539
13.30000 13.611
13.32000 23.168
13.34000 26.463
13.36000 17.156
13.38000 7.251
13.40000 7.815
13.42000 9.347
13.44000 18.633
13.46000 12.191
13.48000 6.978
13.50000 -1.363
13.52000 10.051
13.54000 15.342
13.56000 12.383
13.58000 1.085
13.60000 0.644
13.62000 1.007
13.64000 10.907
13.66000 15.970
13.68000 12.118
13.70000 14.242
13.72000 14.987
13.74000 8.076
13.76000 10.729
13.78000 5.324
13.80000 12.664
13.82000 10.727
13.84000 6.625
13.86000 5.884
13.88000 6.971
13.90000 6.606
13.92000 11.846
13.94000 9.894
13.96000 7.491
13.98000 5.796
14.00000 4.107
14.02000 -4.613
14.04000 3.534
14.06000 8.875
14.08000 12.648
14.10000 11.678
14.12000 8.257
14.14000 4.978
14.16000 1.870
14.18000 0.651
14.20000 4.925
14.22000 2.678
14.24000 3.710
14.26000 8.707
14.28000 6.080
14.30000 8.991
14.32000 9.893
14.34000 4.621
14.36000 0.247
14.38000 4.438
14.40000 11.939
14.42000 7.914
14.44000 9.249
14.46000 8.266
14.48000 8.424
14.50000 8.794
14.52000 7.749
14.54000 -0.290
14.56000 5.161
14.58000 8.622
14.60000 5.039
14.62000 15.300
14.64000 11.794
14.66000 1.773
14.68000 2.669
14.70000 7.580
14.72000 11.788
14.74000 4.791
14.76000 4.885
14.78000 1.852
14.80000 3.528
14.82000 2.701
14.84000 -2.753
14.86000 1.763
14.88000 8.472
14.90000 9.541
14.92000 9.748
14.94000 12.432
14.96000 15.285
14.98000 18.052
15.00000 2.427
15.02000 -3.509
15.04000 5.419
15.06000 8.334
15.08000 2.838
15.10000 5.595
15.12000 11.253
15.14000 4.723
15.16000 3.004
15.18000 15.872
15.20000 17.534
15.22000 12.055
15.24000 7.816
15.26000 13.208
15.28000 6.336
15.30000 2.080
15.32000 14.561
15.34000 5.307
15.36000 8.007
15.38000 10.032
15.40000 10.038
15.42000 10.537
15.44000 11.756
15.46000 11.429
15.48000 16.598
15.50000 7.123
15.52000 12.817
15.54000 13.175
15.56000 3.518
15.58000 2.004
15.60000 7.530
15.62000 3.199
15.64000 -0.886
15.66000 9.406
15.68000 10.559
15.70000 9.928
15.72000 5.705
15.74000 8.906
15.76000 5.853
15.78000 4.067
15.80000 5.388
15.82000 13.461
15.84000 19.063
15.86000 11.051
15.88000 10.421
15.90000 10.487
15.92000 13.409
15.94000 8.735
15.96000 4.148
15.98000 0.494
16.00000 -4.504
16.02000 5.386
16.04000 9.073
16.06000 12.487
16.08000 13.552
16.10000 11.912
16.12000 6.511
16.14000 5.180
16.16000 11.287
16.18000 16.386
16.20000 21.289
16.22000 20.703
16.24000 15.551
16.26000 18.344
16.28000 6.363
16.30000 10.534
16.32000 15.693
16.34000 11.369
16.36000 4.992
16.38000 8.524
16.40000 6.231
16.42000 6.826
16.44000 4.602
16.46000 3.197
16.48000 10.699
16.50000 3.006
16.52000 5.594
16.54000 -2.235
16.56000 1.186
16.58000 9.270
16.60000 5.704
16.62000 3.513
16.64000 0.009
16.66000 7.258
16.68000 16.031
16.70000 21.704
16.72000 19.139
16.74000 10.206
16.76000 6.706
16.78000 4.622
16.80000 7.846
16.82000 12.075
16.84000 15.559
16.86000 15.542
16.88000 10.801
16.90000 8.296
16.92000 1.278
16.94000 2.562
16.96000 7.309
16.98000 8.932
17.00000 15.974
17.02000 13.649
17.04000 12.288
17.06000 16.961
17.08000 21.607
17.10000 17.480
17.12000 7.886
17.14000 6.386
17.16000 11.682
17.18000 5.726
17.20000 4.573
17.22000 11.737
17.24000 10.503
17.26000 16.040
17.28000 13.107
17.30000 6.142
17.32000 10.583
17.34000 8.687
17.36000 7.582
17.38000 8.872
17.40000 6.246
17.42000 7.825
17.44000 9.840
17.46000 -0.503
17.48000 -4.478
17.50000 -2.766
17.52000 0.335
17.54000 12.503
17.56000 10.077
17.58000 3.903
17.60000 4.499
17.62000 3.413
17.64000 9.104
17.66000 14.361
17.68000 4.574
17.70000 0.423
17.72000 1.123
17.74000 5.127
17.76000 8.844
17.78000 5.013
17.80000 4.591
17.82000 6.081
17.84000 1.176
17.86000 -2.140
17.88000 1.240
17.90000 6.612
17.92000 8.016
17.94000 7.977
17.96000 4.851
17.98000 9.001
18.00000 8.921
18.02000 9.414
18.04000 5.050
18.06000 6.809
18.08000 12.529
18.10000 9.389
18.12000 6.510
18.14000 2.457
18.16000 4.903
18.18000 -1.142
18.20000 3.808
18.22000 -1.920
18.24000 4.295
18.26000 8.970
18.28000 8.318
18.30000 5.664
18.32000 6.828
18.34000 3.528
18.36000 4.744
18.38000 6.181
18.40000 4.066
18.42000 2.107
18.44000 3.112
18.46000 6.928
18.48000 10.438
18.50000 5.348
18.52000 7.348
18.54000 5.305
18.56000 7.333
18.58000 6.421
18.60000 -4.148
18.62000 6.214
18.64000 8.258
18.66000 9.884
18.68000 4.381
18.70000 4.834
18.72000 6.474
18.74000 7.853
18.76000 7.812
18.78000 7.681
18.80000 6.798
18.82000 6.412
18.84000 7.659
18.86000 1.926
18.88000 -4.380
18.90000 0.061
18.92000 1.323
18.94000 0.275
18.96000 1.757
18.98000 3.543
19.00000 3.246
19.02000 7.836
19.04000 8.653
19.06000 3.087
19.08000 1.852
19.10000 -2.486
19.12000 4.383
19.14000 10.935
19.16000 16.714
19.18000 11.096
19.20000 6.660
19.22000 10.575
19.24000 2.684
19.26000 8.092
19.28000 5.631
19.30000 3.749
19.32000 9.430
19.34000 11.635
19.36000 13.665
19.38000 6.447
19.40000 4.089
19.42000 6.169
19.44000 -0.236
19.46000 2.968
19.48000 5.630
19.50000 8.861
19.52000 10.634
19.54000 7.595
19.56000 8.834
19.58000 6.179
19.60000 -3.740
19.62000 -0.932
19.64000 2.792
19.66000 -0.294
19.68000 -3.899
19.70000 -2.362
19.72000 -1.806
19.74000 6.067
19.76000 4.698
19.78000 -3.302
19.80000 -4.324
19.82000 1.075
19.84000 8.291
19.86000 2.063
19.88000 1.238
19.90000 0.560
19.92000 3.909
19.94000 1.038
19.96000 7.251
19.98000 6.495
20.00000 -3.156
20.02000 -4.317
20.04000 -3.954
20.06000 3.414
20.08000 4.376
20.10000 6.390
20.12000 5.704
20.14000 1.533
20.16000 0.704
20.18000 -2.686
20.20000 -1.718
20.22000 6.908
20.24000 6.947
20.26000 -1.584
20.28000 -2.210
20.30000 3.203
20.32000 15.277
20.34000 12.355
20.36000 8.947
20.38000 5.218
20.40000 7.453
20.42000 8.009
20.44000 8.248
20.46000 6.186
20.48000 5.566
20.50000 6.192
20.52000 2.971
20.54000 3.129
20.56000 0.609
20.58000 -1.637
20.60000 5.173
20.62000 7.576
20.64000 1.010
20.66000 1.827
20.68000 4.738
20.70000 4.844
20.72000 11.161
20.74000 6.625
20.76000 5.796
20.78000 7.806
20.80000 6.483
20.82000 10.417
20.84000 8.258
20.86000 0.510
20.88000 1.686
20.90000 5.573
20.92000 4.465
20.94000 8.215
20.96000 10.077
20.98000 6.024
21.00000 3.551
21.02000 3.949
21.04000 5.613
21.06000 5.623
21.08000 3.558
21.10000 2.987
21.12000 5.858
21.14000 5.847
21.16000 12.339
21.18000 7.205
21.20000 3.241
21.22000 8.431
21.24000 6.372
21.26000 6.056
21.28000 9.283
21.30000 9.507
21.32000 8.480
21.34000 9.111
21.36000 9.467
21.38000 3.992
21.40000 6.986
21.42000 5.565
21.44000 7.760
21.46000 9.615
21.48000 15.490
21.50000 9.476
21.52000 -0.100
21.54000 2.524
21.56000 4.896
21.58000 6.720
21.60000 8.976
21.62000 9.880
21.64000 12.130
21.66000 6.463
21.68000 4.398
21.70000 3.692
21.72000 -2.420
21.74000 -4.175
21.76000 3.906
21.78000 6.703
21.80000 9.200
21.82000 12.324
21.84000 11.842
21.86000 4.947
21.88000 6.760
21.90000 3.320
21.92000 6.916
21.94000 7.421
21.96000 13.251
21.98000 13.966
22.00000 6.518
22.02000 4.615
22.04000 7.493
22.06000 4.980
22.08000 4.177
22.10000 7.669
22.12000 9.480
22.14000 8.992
22.16000 6.666
22.18000 12.478
22.20000 12.634
22.22000 10.270
22.24000 3.086
22.26000 0.595
22.28000 3.338
22.30000 9.200
22.32000 6.216
22.34000 7.303
22.36000 10.740
22.38000 8.219
22.40000 9.890
22.42000 9.338
22.44000 5.804
22.46000 4.232
22.48000 -4.149
22.50000 -0.695
22.52000 4.357
22.54000 3.894
22.56000 4.162
22.58000 3.614
22.60000 4.929
22.62000 2.883
22.64000 7.269
22.66000 6.251
22.68000 4.006
22.70000 2.783
22.72000 -0.105
22.74000 -1.797
22.76000 4.866
22.78000 3.440
22.80000 1.014
22.82000 3.253
22.84000 4.679
22.86000 4.782
22.88000 10.444
22.90000 13.807
22.92000 9.808
22.94000 5.617
22.96000 -0.772
22.98000 2.553
23.00000 10.383
23.02000 5.808
23.04000 3.353
23.06000 7.938
23.08000 10.131
23.10000 11.611
23.12000 8.408
23.14000 5.038
23.16000 1.667
23.18000 2.150
23.20000 8.858
23.22000 3.416
23.24000 7.426
23.26000 6.157
23.28000 -4.120
23.30000 -2.487
23.32000 9.480
23.34000 15.848
23.36000 4.820
23.38000 4.353
23.40000 9.765
23.42000 9.223
23.44000 4.231
23.46000 8.602
23.48000 3.386
23.50000 2.729
23.52000 8.220
23.54000 6.457
23.56000 7.701
23.58000 5.224
23.60000 -0.368
23.62000 -0.461
23.64000 4.598
23.66000 4.977
23.68000 -1.001
23.70000 4.562
23.72000 9.349
23.74000 8.997
23.76000 8.087
23.78000 1.486
23.80000 -0.238
23.82000 2.680
23.84000 3.293
23.86000 3.873
23.88000 3.243
23.90000 3.977
23.92000 6.436
23.94000 3.166
23.96000 4.243
23.98000 2.560
24.00000 2.584
24.02000 7.205
24.04000 6.950
24.06000 4.383
24.08000 0.032
24.10000 4.842
24.12000 2.260
24.14000 -0.389
24.16000 8.907
24.18000 11.540
24.20000 4.353
24.22000 0.103
24.24000 5.044
24.26000 0.552
24.28000 0.519
24.30000 8.609
24.32000 6.496
24.34000 1.396
24.36000 5.139
24.38000 11.537
24.40000 14.303
24.42000 5.500
24.44000 2.983
24.46000 6.264
24.48000 9.022
24.50000 5.000
24.52000 3.933
24.54000 2.947
24.56000 0.857
24.58000 -4.038
24.60000 0.656
24.62000 2.721
24.64000 3.588
24.66000 7.196
24.68000 12.871
24.70000 2.909
24.72000 -0.498
24.74000 3.427
24.76000 10.897
24.78000 9.519
24.80000 2.945
24.82000 3.904
24.84000 7.768
24.86000 6.893
24.88000 5.451
24.90000 4.906
24.92000 3.202
24.94000 4.387
24.96000 0.354
24.98000 2.754
25.00000 3.302
25.02000 4.602
25.04000 3.314
25.06000 6.114
25.08000 2.746
25.10000 6.590
25.12000 3.899
25.14000 0.475
25.16000 -0.082
25.18000 2.472
25.20000 8.421
25.22000 4.742
25.24000 7.177
25.26000 4.653
25.28000 4.631
25.30000 3.678
25.32000 2.329
25.34000 1.658
25.36000 5.633
25.38000 6.873
25.40000 0.233
25.42000 0.664
25.44000 -1.769
25.46000 3.762
25.48000 1.808
25.50000 1.521
25.52000 -2.377
25.54000 7.648
25.56000 9.670
25.58000 2.576
25.60000 1.448
25.62000 4.994
25.64000 5.821
25.66000 4.695
25.68000 1.587
25.70000 -3.967
25.72000 -0.530
25.74000 2.255
25.76000 4.248
25.78000 2.921
25.80000 1.868
25.82000 4.928
25.84000 2.607
25.86000 2.844
25.88000 4.613
25.90000 2.354
25.92000 1.726
25.94000 8.933
25.96000 4.324
25.98000 6.928
26.00000 4.537
26.02000 4.075
26.04000 3.614
26.06000 -0.089
26.08000 -1.573
26.10000 5.418
26.12000 6.345
26.14000 2.162
26.16000 4.532
26.18000 6.972
26.20000 3.928
26.22000 -3.659
26.24000 -0.902
26.26000 5.406
26.28000 14.251
26.30000 6.994
26.32000 1.678
26.34000 2.771
26.36000 5.220
26.38000 8.626
26.40000 10.675
26.42000 5.148
26.44000 4.503
26.46000 2.665
26.48000 5.050
26.50000 10.186
26.52000 9.893
26.54000 9.634
26.56000 9.715
26.58000 7.078
26.60000 4.684
26.62000 3.871
26.64000 0.656
26.66000 0.828
26.68000 -2.109
26.70000 -1.060
26.72000 -3.187
26.74000 0.903
26.76000 -2.520
26.78000 -0.772
26.80000 2.006
26.82000 4.801
26.84000 -3.335
26.86000 0.509
26.88000 1.772
26.90000 1.751
26.92000 3.486
26.94000 4.847
26.96000 2.037
26.98000 2.859
27.00000 1.974
27.02000 5.521
27.04000 2.531
27.06000 -0.045
27.08000 1.889
27.10000 7.709
27.12000 6.043
27.14000 3.914
27.16000 8.784
27.18000 9.320
27.20000 8.628
27.22000 3.296
27.24000 0.843
27.26000 6.939
27.28000 11.492
27.30000 5.759
27.32000 0.953
27.34000 3.824
27.36000 5.926
27.38000 2.086
27.40000 1.632
27.42000 7.170
27.44000 7.718
27.46000 2.989
27.48000 1.143
27.50000 4.470
27.52000 11.045
27.54000 7.792
27.56000 3.763
27.58000 3.652
27.60000 10.527
27.62000 12.860
27.64000 3.051
27.66000 10.082
27.68000 10.253
27.70000 8.851
27.72000 8.469
27.74000 6.715
27.76000 4.589
27.78000 11.397
27.80000 7.476
27.82000 9.832
27.84000 6.053
27.86000 10.697
27.88000 6.844
27.90000 6.397
27.92000 6.529
27.94000 1.147
27.96000 -3.516
27.98000 -3.818
28.00000 1.522
28.02000 6.316
28.04000 2.953
28.06000 6.021
28.08000 9.953
28.10000 10.025
28.12000 3.729
28.14000 2.997
28.16000 5.445
28.18000 10.712
28.20000 7.509
28.22000 10.629
28.24000 5.633
28.26000 6.131
28.28000 10.591
28.30000 6.250
28.32000 2.455
28.34000 3.146
28.36000 10.712
28.38000 10.055
28.40000 8.187
28.42000 3.351
28.44000 6.297
28.46000 3.340
28.48000 5.277
28.50000 5.758
28.52000 5.348
28.54000 4.832
28.56000 3.733
28.58000 1.423
28.60000 2.237
28.62000 2.108
28.64000 -1.575
28.66000 0.630
28.68000 -0.174
28.70000 4.294
28.72000 3.234
28.74000 -2.519
28.76000 -3.272
28.78000 -1.990
28.80000 5.013
28.82000 3.092
28.84000 -0.883
28.86000 1.100
28.88000 0.817
28.90000 3.265
28.92000 5.120
28.94000 3.061
28.96000 3.103
28.98000 0.633
29.00000 2.145
29.02000 2.377
29.04000 -0.137
29.06000 1.975
29.08000 6.812
29.10000 -0.641
29.12000 2.037
29.14000 6.359
29.16000 6.363
29.18000 5.034
29.20000 4.407
29.22000 3.992
29.24000 4.651
29.26000 1.124
29.28000 4.805
29.30000 8.646
29.32000 5.618
29.34000 4.343
29.36000 1.619
29.38000 5.148
29.40000 -0.617
29.42000 -2.277
29.44000 4.378
29.46000 -0.956
29.48000 -3.808
29.50000 0.786
29.52000 1.432
29.54000 0.637
29.56000 3.322
29.58000 0.658
29.60000 1.317
29.62000 3.254
29.64000 3.198
29.66000 -1.870
29.68000 -0.331
29.70000 -0.679
29.72000 -1.685
29.74000 -1.677
29.76000 1.496
29.78000 2.834
29.80000 -2.873
29.82000 -0.643
29.84000 3.078
29.86000 1.628
29.88000 7.317
29.90000 3.172
29.92000 0.502
29.94000 -2.568
29.96000 -2.198
29.98000 -1.903
30.00000 3.492
30.02000 7.795
30.04000 6.807
30.06000 2.673
30.08000 -2.179
30.10000 3.039
30.12000 4.528
30.14000 4.834
30.16000 -0.468
30.18000 0.531
30.20000 0.487
30.22000 -0.871
30.24000 1.556
30.26000 1.491
30.28000 -2.822
30.30000 -1.900
30.32000 2.443
30.34000 5.869
30.36000 -0.794
30.38000 0.570
30.40000 -2.609
30.42000 -3.290
30.44000 1.988
30.46000 3.180
30.48000 3.191
30.50000 0.125
30.52000 0.730
30.54000 -2.060
30.56000 0.377
30.58000 -3.750
30.60000 -2.446
30.62000 1.651
30.64000 4.566
30.66000 3.244
30.68000 0.134
30.70000 -2.396
30.72000 4.559
30.74000 4.943
30.76000 4.496
30.78000 4.302
30.80000 7.998
30.82000 12.121
30.84000 9.582
30.86000 3.463
30.88000 -1.956
30.90000 -2.173
30.92000 -3.725
30.94000 -1.320
30.96000 -1.858
30.98000 0.802
31.00000 3.523
31.02000 -0.140
31.04000 5.508
31.06000 4.725
31.08000 3.791
31.10000 0.110
31.12000 -2.343
31.14000 -0.239
31.16000 5.200
31.18000 2.637
31.20000 -1.392
31.22000 2.489
31.24000 -0.232
31.26000 0.901
31.28000 6.131
31.30000 4.520
31.32000 2.288
31.34000 0.841
31.36000 0.079
31.38000 0.352
31.40000 4.051
31.42000 9.710
31.44000 4.823
31.46000 3.327
31.48000 1.308
31.50000 1.045
31.52000 4.016
31.54000 0.726
31.56000 -1.585
31.58000 3.811
31.60000 5.459
31.62000 1.952
31.64000 -3.696
31.66000 -2.919
31.68000 -1.251
31.70000 5.710
31.72000 1.172
31.74000 -1.436
31.76000 -0.066
31.78000 -0.187
31.80000 -3.645
31.82000 2.741
31.84000 4.349
31.86000 -0.193
31.88000 -2.763
31.90000 -1.710
31.92000 2.112
31.94000 0.714
31.96000 -2.894
31.98000 -2.452
32.00000 2.496
32.02000 3.816
32.04000 0.956
32.06000 0.912
32.08000 0.492
32.10000 2.679
32.12000 0.504
32.14000 -0.760
32.16000 3.075
32.18000 3.142
32.20000 2.298
32.22000 0.752
32.24000 0.187
32.26000 3.850
32.28000 -0.862
32.30000 -3.658
32.32000 -0.826
32.34000 3.709
32.36000 1.647
32.38000 4.044
32.40000 3.293
32.42000 4.256
32.44000 0.300
32.46000 -0.515
32.48000 -3.448
32.50000 -3.644
32.52000 0.539
32.54000 2.923
32.56000 3.354
32.58000 2.065
32.60000 -1.299
32.62000 -2.171
32.64000 2.354
32.66000 4.081
32.68000 4.614
32.70000 1.499
32.72000 -1.020
32.74000 4.657
32.76000 4.533
32.78000 -1.055
32.80000 3.221
32.82000 3.781
32.84000 1.791
32.86000 -3.519
32.88000 -0.475
32.90000 3.771
32.92000 5.189
32.94000 6.279
32.96000 4.255
32.98000 3.834
33.00000 3.227
33.02000 9.477
33.04000 9.617
33.06000 2.274
33.08000 -0.225
33.10000 3.187
33.12000 8.240
33.14000 2.240
33.16000 1.922
33.18000 3.365
33.20000 6.716
33.22000 5.907
33.24000 6.367
33.26000 4.858
33.28000 -2.363
33.30000 -1.145
33.32000 2.773
33.34000 1.142
33.36000 0.236
33.38000 3.025
33.40000 -3.592
33.42000 -0.679
33.44000 1.284
33.46000 3.430
33.48000 4.770
33.50000 6.454
33.52000 7.747
33.54000 6.200
33.56000 4.858
33.58000 10.581
33.60000 5.011
33.62000 8.705
33.64000 8.855
33.66000 5.498
33.68000 3.491
33.70000 5.433
33.72000 3.621
33.74000 2.540
33.76000 3.324
33.78000 3.529
33.80000 1.578
33.82000 2.365
33.84000 7.847
33.86000 5.524
33.88000 3.964
33.90000 4.704
33.92000 7.548
33.94000 3.968
33.96000 1.725
33.98000 4.069
34.00000 0.242
34.02000 -1.313
34.04000 2.062
34.06000 0.523
34.08000 3.977
34.10000 3.270
34.12000 6.457
34.14000 4.738
34.16000 2.010
34.18000 3.347
34.20000 6.861
34.22000 2.617
34.24000 1.463
34.26000 7.511
34.28000 8.890
34.30000 8.735
34.32000 7.501
34.34000 4.050
34.36000 3.046
34.38000 -0.990
34.40000 0.153
34.42000 2.808
34.44000 3.073
34.46000 3.482
34.48000 4.764
34.50000 6.646
34.52000 3.969
34.54000 7.886
34.56000 8.020
34.58000 4.611
34.60000 5.092
34.62000 3.335
34.64000 1.226
34.66000 -1.007
34.68000 3.634
34.70000 7.024
34.72000 4.536
34.74000 1.383
34.76000 6.880
34.78000 3.939
34.80000 0.733
34.82000 5.383
34.84000 11.123
34.86000 6.368
34.88000 2.626
34.90000 2.992
34.92000 5.163
34.94000 0.706
34.96000 1.680
34.98000 6.415
35.00000 4.694
35.02000 5.741
35.04000 1.870
35.06000 3.422
35.08000 2.520
35.10000 1.063
35.12000 -0.455
35.14000 4.476
35.16000 1.929
35.18000 -0.299
35.20000 -2.836
35.22000 7.854
35.24000 10.362
35.26000 4.539
35.28000 2.735
35.30000 3.865
35.32000 3.581
35.34000 0.942
35.36000 -3.526
35.38000 -1.288
35.40000 6.244
35.42000 6.987
35.44000 3.648
35.46000 2.834
35.48000 6.741
35.50000 7.538
35.52000 7.005
35.54000 5.319
35.56000 3.855
35.58000 4.284
35.60000 3.696
35.62000 4.573
35.64000 6.788
35.66000 8.095
35.68000 4.248
35.70000 1.606
35.72000 2.990
35.74000 3.500
35.76000 6.141
35.78000 3.070
35.80000 -1.974
35.82000 1.621
35.84000 4.086
35.86000 2.742
35.88000 1.307
35.90000 0.720
35.92000 -0.420
35.94000 2.718
35.96000 2.693
35.98000 -1.251
36.00000 -0.676
36.02000 4.057
36.04000 5.784
36.06000 0.240
36.08000 -0.979
36.10000 1.718
36.12000 2.613
36.14000 1.277
36.16000 -0.520
36.18000 2.488
36.20000 0.965
36.22000 -1.259
36.24000 3.888
36.26000 2.879
36.28000 1.114
36.30000 -0.107
36.32000 2.712
36.34000 4.150
36.36000 1.206
36.38000 -0.770
36.40000 2.244
36.42000 1.144
36.44000 -2.151
36.46000 -3.278
36.48000 0.690
36.50000 1.869
36.52000 0.437
36.54000 2.183
36.56000 -2.985
36.58000 -3.561
36.60000 0.940
36.62000 1.973
36.64000 0.423
36.66000 -0.494
36.68000 -1.703
36.70000 -1.953
36.72000 2.211
36.74000 -0.051
36.76000 3.171
36.78000 -0.232
36.80000 -2.770
36.82000 -3.568
36.84000 -0.157
36.86000 -0.743
36.88000 5.573
36.90000 7.789
36.92000 1.752
36.94000 2.505
36.96000 2.055
36.98000 3.035
37.00000 2.278
37.02000 0.517
37.04000 -1.181
37.06000 -0.724
37.08000 -0.917
37.10000 1.519
37.12000 -1.984
37.14000 2.135
37.16000 2.887
37.18000 2.770
37.20000 0.931
37.22000 2.995
37.24000 2.488
37.26000 -1.886
37.28000 1.475
37.30000 0.803
37.32000 -3.587
37.34000 -2.181
37.36000 0.492
37.38000 4.308
37.40000 1.591
37.42000 4.157
37.44000 4.100
37.46000 0.897
37.48000 -3.591
37.50000 -2.349
37.52000 -3.353
37.54000 -3.600
37.56000 0.184
37.58000 -0.243
37.60000 -0.173
37.62000 1.230
37.64000 -1.906
37.66000 -3.527
37.68000 -2.318
37.70000 -1.014
37.72000 0.484
37.74000 -2.230
37.76000 -0.864
37.78000 0.778
37.80000 -1.229
37.82000 1.586
37.84000 5.681
37.86000 4.215
37.88000 5.151
37.90000 5.526
37.92000 5.834
37.94000 0.936
37.96000 2.129
37.98000 2.335
38.00000 2.079
38.02000 4.213
38.04000 3.848
38.06000 0.202
38.08000 2.123
38.10000 3.772
38.12000 3.745
38.14000 7.446
38.16000 9.282
38.18000 6.844
38.20000 5.852
38.22000 9.296
38.24000 8.754
38.26000 11.746
38.28000 9.408
38.30000 8.680
38.32000 6.545
38.34000 9.632
38.36000 8.049
38.38000 5.033
38.40000 9.125
38.42000 14.119
38.44000 15.218
38.46000 12.109
38.48000 12.009
38.50000 10.710
38.52000 11.354
38.54000 11.105
38.56000 16.733
38.58000 18.337
38.60000 17.226
38.62000 18.068
38.64000 17.572
38.66000 20.372
38.68000 14.926
38.70000 11.067
38.72000 15.392
38.74000 18.019
38.76000 18.940
38.78000 18.202
38.80000 18.188
38.82000 18.141
38.84000 21.337
38.86000 19.486
38.88000 26.775
38.90000 29.517
38.92000 29.487
38.94000 25.023
38.96000 28.816
38.98000 31.027
39.00000 32.616
39.02000 30.032
39.04000 30.714
39.06000 30.294
39.08000 28.244
39.10000 31.274
39.12000 38.011
39.14000 35.054
39.16000 38.557
39.18000 41.475
39.20000 43.327
39.22000 48.047
39.24000 40.751
39.26000 42.958
39.28000 49.963
39.30000 49.548
39.32000 48.076
39.34000 50.347
39.36000 52.895
39.38000 57.270
39.40000 56.419
39.42000 61.050
39.44000 67.983
39.46000 72.975
39.48000 72.068
39.50000 76.945
39.52000 81.238
39.54000 84.674
39.56000 94.382
39.58000 97.731
39.60000 96.048
39.62000 110.705
39.64000 118.011
39.66000 121.606
39.68000 124.399
39.70000 138.252
39.72000 145.194
39.74000 147.451
39.76000 157.793
39.78000 165.479
39.80000 173.482
39.82000 188.128
39.84000 200.287
39.86000 224.580
39.88000 239.992
39.90000 257.907
39.92000 278.473
39.94000 293.043
39.96000 315.425
39.98000 336.920
40.00000 365.563
40.02000 383.885
40.04000 421.308
40.06000 450.816
40.08000 493.245
40.10000 528.831
40.12000 563.672
40.14000 607.248
40.16000 638.491
40.18000 683.776
40.20000 734.249
40.22000 786.349
40.24000 828.625
40.26000 879.667
40.28000 925.288
40.30000 957.830
40.32000 998.572
40.34000 1052.479
40.36000 1103.439
40.38000 1141.972
40.40000 1157.029
40.42000 1169.189
40.44000 1204.793
40.46000 1220.197
40.48000 1223.269
40.50000 1225.824
40.52000 1234.152
40.54000 1223.711
40.56000 1206.574
40.58000 1184.477
40.60000 1157.016
40.62000 1141.566
40.64000 1116.761
40.66000 1105.776
40.68000 1046.091
40.70000 1008.542
40.72000 980.234
40.74000 959.693
40.76000 923.335
40.78000 891.428
40.80000 858.044
40.82000 826.234
40.84000 784.165
40.86000 743.309
40.88000 711.018
40.90000 681.923
40.92000 658.217
40.94000 616.314
40.96000 579.887
40.98000 565.239
41.00000 534.584
41.02000 493.711
41.04000 460.827
41.06000 446.293
41.08000 424.528
41.10000 401.855
41.12000 387.132
41.14000 365.314
41.16000 340.676
41.18000 326.562
41.20000 312.814
41.22000 284.759
41.24000 268.701
41.26000 253.184
41.28000 236.828
41.30000 228.134
41.32000 215.528
41.34000 204.439
41.36000 192.041
41.38000 184.766
41.40000 176.185
41.42000 170.284
41.44000 163.617
41.46000 154.794
41.48000 147.624
41.50000 141.637
41.52000 132.223
41.54000 129.522
41.56000 122.705
41.58000 112.305
41.60000 105.949
41.62000 103.965
41.64000 98.762
41.66000 97.195
41.68000 93.909
41.70000 89.242
41.72000 79.827
41.74000 76.038
41.76000 73.648
41.78000 71.355
41.80000 69.498
41.82000 70.841
41.84000 69.103
41.86000 67.440
41.88000 63.070
41.90000 60.523
41.92000 56.052
41.94000 53.005
41.96000 45.357
41.98000 43.692
42.00000 43.135
42.02000 44.223
42.04000 46.726
42.06000 39.835
42.08000 39.961
42.10000 38.833
42.12000 41.108
42.14000 32.043
42.16000 31.217
42.18000 35.163
42.20000 34.044
42.22000 30.987
42.24000 30.283
42.26000 30.558
42.28000 32.380
42.30000 23.848
42.32000 19.929
42.34000 27.686
42.36000 28.077
42.38000 19.876
42.40000 22.810
42.42000 27.435
42.44000 23.347
42.46000 19.125
42.48000 14.782
42.50000 17.182
42.52000 18.707
42.54000 14.993
42.56000 17.650
42.58000 17.938
42.60000 12.420
42.62000 13.520
42.64000 15.117
42.66000 14.619
42.68000 16.092
42.70000 15.170
42.72000 9.045
42.74000 14.245
42.76000 14.236
42.78000 13.455
42.80000 10.535
42.82000 12.470
42.84000 9.843
42.86000 6.284
42.88000 3.452
42.90000 5.208
42.92000 9.986
42.94000 10.628
42.96000 5.047
42.98000 6.961
43.00000 7.841
43.02000 6.539
43.04000 3.439
43.06000 5.061
43.08000 5.169
43.10000 9.650
43.12000 5.488
43.14000 2.974
43.16000 3.173
43.18000 3.302
43.20000 6.733
43.22000 5.096
43.24000 6.947
43.26000 3.442
43.28000 2.893
43.30000 1.559
43.32000 6.434
43.34000 5.087
43.36000 2.922
43.38000 4.560
43.40000 8.458
43.42000 4.686
43.44000 2.274
43.46000 5.810
43.48000 2.599
43.50000 6.045
43.52000 4.700
43.54000 1.680
43.56000 -3.386
43.58000 1.223
43.60000 1.268
43.62000 1.430
43.64000 0.968
43.66000 -0.886
43.68000 3.765
43.70000 0.778
43.72000 1.926
43.74000 -1.081
43.76000 3.549
43.78000 5.616
43.80000 2.711
43.82000 0.729
43.84000 6.369
43.86000 5.860
43.88000 1.685
43.90000 0.311
43.92000 -0.742
43.94000 1.407
43.96000 2.511
43.98000 3.045
44.00000 2.348
44.02000 -0.351
44.04000 0.255
44.06000 0.145
44.08000 1.066
44.10000 4.414
44.12000 -0.775
44.14000 1.631
44.16000 3.924
44.18000 -0.742
44.20000 1.065
44.22000 2.612
44.24000 -0.418
44.26000 -1.528
44.28000 -0.179
44.30000 1.010
44.32000 -1.849
44.34000 1.574
44.36000 -1.288
44.38000 0.924
44.40000 3.762
44.42000 6.910
44.44000 5.088
44.46000 -3.189
44.48000 -3.257
44.50000 -0.698
44.52000 -2.628
44.54000 -3.255
44.56000 5.954
44.58000 6.023
44.60000 3.219
44.62000 1.207
44.64000 -0.403
44.66000 2.968
44.68000 2.676
44.70000 5.424
44.72000 2.694
44.74000 -0.636
44.76000 1.514
44.78000 -0.879
44.80000 -0.907
44.82000 3.784
44.84000 5.598
44.86000 3.006
44.88000 2.198
44.90000 -0.690
44.92000 3.198
44.94000 5.761
44.96000 1.495
44.98000 1.156
45.00000 0.154
45.02000 -0.831
45.04000 0.500
45.06000 -1.911
45.08000 -2.306
45.10000 -0.212
45.12000 -0.357
45.14000 -1.309
45.16000 0.848
45.18000 -3.003
45.20000 -1.690
45.22000 -0.287
45.24000 3.136
45.26000 3.849
45.28000 4.646
45.30000 2.129
45.32000 2.410
45.34000 1.628
45.36000 5.063
45.38000 6.627
45.40000 2.576
45.42000 -3.223
45.44000 2.181
45.46000 3.021
45.48000 4.435
45.50000 3.196
45.52000 3.407
45.54000 3.875
45.56000 6.166
45.58000 5.038
45.60000 3.114
45.62000 2.072
45.64000 7.095
45.66000 8.546
45.68000 2.560
45.70000 7.917
45.72000 8.198
45.74000 11.106
45.76000 12.692
45.78000 11.896
45.80000 9.491
45.82000 10.657
45.84000 12.083
45.86000 10.018
45.88000 6.701
45.90000 9.399
45.92000 13.552
45.94000 10.841
45.96000 9.370
45.98000 10.490
46.00000 12.432
46.02000 17.042
46.04000 14.368
46.06000 15.178
46.08000 17.068
46.10000 21.044
46.12000 22.514
46.14000 19.795
46.16000 21.188
46.18000 21.115
46.20000 20.174
46.22000 23.791
46.24000 26.790
46.26000 24.392
46.28000 22.624
46.30000 24.074
46.32000 27.424
46.34000 28.898
46.36000 31.465
46.38000 29.360
46.40000 30.061
46.42000 32.864
46.44000 33.789
46.46000 35.362
46.48000 37.425
46.50000 41.371
46.52000 42.738
46.54000 48.294
46.56000 48.039
46.58000 46.719
46.60000 50.906
46.62000 57.381
46.64000 62.017
46.66000 57.624
46.68000 57.212
46.70000 63.400
46.72000 63.996
46.74000 68.449
46.76000 70.318
46.78000 65.645
46.80000 77.433
46.82000 81.475
46.84000 83.596
46.86000 88.404
46.88000 88.403
46.90000 92.925
46.92000 98.356
46.94000 99.142
46.96000 102.915
46.98000 105.154
47.00000 110.944
47.02000 116.497
47.04000 121.020
47.06000 118.966
47.08000 124.749
47.10000 125.669
47.12000 124.837
47.14000 119.499
47.16000 115.314
47.18000 115.986
47.20000 116.120
47.22000 118.895
47.24000 110.994
47.26000 113.670
47.28000 118.170
47.30000 112.930
47.32000 112.474
47.34000 108.502
47.36000 109.432
47.38000 104.944
47.40000 106.130
47.42000 102.770
47.44000 104.039
47.46000 98.740
47.48000 95.392
47.50000 88.560
47.52000 87.363
47.54000 83.591
47.56000 78.618
47.58000 75.443
47.60000 70.283
47.62000 62.349
47.64000 60.445
47.66000 61.140
47.68000 64.782
47.70000 58.907
47.72000 57.057
47.74000 51.768
47.76000 45.748
47.78000 40.816
47.80000 39.393
47.82000 36.661
47.84000 37.884
47.86000 36.972
47.88000 33.791
47.90000 32.072
47.92000 31.779
47.94000 27.580
47.96000 21.952
47.98000 25.653
48.00000 22.716
48.02000 23.046
48.04000 22.849
48.06000 24.068
48.08000 19.443
48.10000 17.957
48.12000 18.049
48.14000 17.014
48.16000 13.669
48.18000 14.805
48.20000 13.642
48.22000 12.527
48.24000 10.126
48.26000 6.278
48.28000 5.407
48.30000 2.233
48.32000 5.080
48.34000 7.860
48.36000 7.719
48.38000 6.466
48.40000 4.777
48.42000 5.439
48.44000 6.384
48.46000 5.905
48.48000 5.737
48.50000 6.067
48.52000 5.744
48.54000 5.463
48.56000 4.809
48.58000 4.395
48.60000 1.099
48.62000 1.941
48.64000 0.381
48.66000 -1.341
48.68000 -0.928
48.70000 2.132
48.72000 1.481
48.74000 0.059
48.76000 -0.214
48.78000 -2.581
48.80000 -0.418
48.82000 -1.047
48.84000 -1.969
48.86000 -1.119
48.88000 4.303
48.90000 1.684
48.92000 2.185
48.94000 2.479
48.96000 -0.580
48.98000 -1.198
49.00000 -2.669
49.02000 0.218
49.04000 -0.591
49.06000 2.853
49.08000 4.387
49.10000 -0.030
49.12000 3.062
49.14000 1.772
49.16000 -1.205
49.18000 -2.627
49.20000 -0.161
49.22000 -1.011
49.24000 2.515
49.26000 4.495
49.28000 7.231
49.30000 2.371
49.32000 1.022
49.34000 1.947
49.36000 5.318
49.38000 2.435
49.40000 0.073
49.42000 -1.681
49.44000 0.020
49.46000 2.186
49.48000 2.538
49.50000 -2.047
49.52000 -0.066
49.54000 4.400
49.56000 2.112
49.58000 0.302
49.60000 -2.495
49.62000 -0.394
49.64000 0.608
49.66000 4.927
49.68000 6.444
49.70000 1.029
49.72000 2.570
49.74000 3.594
49.76000 2.676
49.78000 -0.475
49.80000 0.048
49.82000 6.461
49.84000 6.840
49.86000 8.328
49.88000 5.156
49.90000 1.528
49.92000 -2.544
49.94000 -1.429
49.96000 2.621
49.98000 2.030
50.00000 -0.391
50.02000 -1.371
50.04000 -0.837
50.06000 1.690
50.08000 2.903
50.10000 3.635
50.12000 4.165
50.14000 5.595
50.16000 2.611
50.18000 3.939
50.20000 2.589
50.22000 1.702
50.24000 -2.510
50.26000 -0.810
50.28000 0.468
50.30000 -0.263
50.32000 -0.222
50.34000 0.425
50.36000 1.980
50.38000 3.328
50.40000 0.803
50.42000 -1.854
50.44000 2.788
50.46000 0.887
50.48000 0.105
50.50000 1.122
50.52000 2.736
50.54000 2.378
50.56000 0.743
50.58000 4.912
50.60000 6.215
50.62000 5.032
50.64000 0.032
50.66000 1.126
50.68000 1.301
50.70000 -0.923
50.72000 0.442
50.74000 2.307
50.76000 2.634
50.78000 1.617
50.80000 1.290
50.82000 2.456
50.84000 1.242
50.86000 1.926
50.88000 2.558
50.90000 1.020
50.92000 3.129
50.94000 4.530
50.96000 -0.314
50.98000 -1.659
51.00000 0.962
51.02000 0.366
51.04000 -0.565
51.06000 1.531
51.08000 3.648
51.10000 2.819
51.12000 0.262
51.14000 1.442
51.16000 1.678
51.18000 -0.286
51.20000 0.192
51.22000 1.519
51.24000 -2.436
51.26000 -1.878
51.28000 2.689
51.30000 3.440
51.32000 0.510
51.34000 3.367
51.36000 2.529
51.38000 4.234
51.40000 6.261
51.42000 2.647
51.44000 1.543
51.46000 0.346
51.48000 -0.719
51.50000 -0.534
51.52000 0.706
51.54000 2.244
51.56000 2.880
51.58000 5.901
51.60000 -0.409
51.62000 -1.477
51.64000 -0.219
51.66000 1.277
51.68000 1.831
51.70000 3.890
51.72000 2.920
51.74000 3.024
51.76000 5.039
51.78000 2.484
51.80000 2.285
51.82000 0.531
51.84000 1.296
51.86000 1.496
51.88000 1.542
51.90000 0.821
51.92000 1.535
51.94000 2.575
51.96000 1.285
51.98000 1.038
52.00000 0.878
52.02000 0.964
52.04000 2.397
52.06000 -1.223
52.08000 0.607
52.10000 1.825
52.12000 -0.437
52.14000 -2.342
52.16000 -1.868
52.18000 -1.137
52.20000 0.115
52.22000 -2.112
52.24000 -2.424
52.26000 -0.797
52.28000 0.412
52.30000 0.337
52.32000 1.835
52.34000 3.820
52.36000 3.533
52.38000 2.770
52.40000 2.208
52.42000 0.411
52.44000 0.245
52.46000 -2.277
52.48000 1.733
52.50000 1.034
52.52000 -0.216
52.54000 0.917
52.56000 2.106
52.58000 0.421
52.60000 2.612
52.62000 -0.426
52.64000 -0.816
52.66000 -2.422
52.68000 0.395
52.70000 4.364
52.72000 3.053
52.74000 2.331
52.76000 -1.024
52.78000 1.615
52.80000 1.991
52.82000 3.728
52.84000 2.323
52.86000 1.541
52.88000 -0.021
52.90000 -0.759
52.92000 -1.351
52.94000 1.421
52.96000 1.482
52.98000 2.607
53.00000 1.111
53.02000 1.634
53.04000 1.282
53.06000 5.211
53.08000 0.591
53.10000 -1.990
53.12000 0.414
53.14000 1.790
53.16000 2.244
53.18000 -0.053
53.20000 0.606
53.22000 -2.402
53.24000 -0.371
53.26000 -1.052
53.28000 -2.381
53.30000 -2.137
53.32000 0.386
53.34000 -1.237
53.36000 0.182
53.38000 1.707
53.40000 -0.157
53.42000 -2.185
53.44000 0.465
53.46000 5.428
53.48000 2.705
53.50000 0.318
53.52000 -0.077
53.54000 2.223
53.56000 3.100
53.58000 -0.686
53.60000 -0.871
53.62000 -0.201
53.64000 1.133
53.66000 0.513
53.68000 2.135
53.70000 2.059
53.72000 -0.019
53.74000 2.541
53.76000 -0.308
53.78000 -0.014
53.80000 1.875
53.82000 2.122
53.84000 2.130
53.86000 2.468
53.88000 -0.070
53.90000 -2.364
53.92000 -0.688
53.94000 -0.281
53.96000 3.087
53.98000 -2.140
54.00000 0.182
54.02000 1.653
54.04000 5.175
54.06000 1.534
54.08000 5.168
54.10000 6.254
54.12000 2.118
54.14000 2.565
54.16000 4.373
54.18000 0.671
54.20000 0.632
54.22000 3.077
54.24000 -0.038
54.26000 -0.281
54.28000 -0.104
54.30000 3.279
54.32000 3.328
54.34000 -0.835
54.36000 -2.319
54.38000 2.631
54.40000 6.508
54.42000 3.526
54.44000 2.714
54.46000 4.398
54.48000 3.846
54.50000 2.640
54.52000 1.038
54.54000 0.487
54.56000 -0.793
54.58000 -1.519
54.60000 0.093
54.62000 2.328
54.64000 2.011
54.66000 1.324
54.68000 5.693
54.70000 4.218
54.72000 3.689
54.74000 1.595
54.76000 3.794
54.78000 2.162
54.80000 0.879
54.82000 0.442
54.84000 3.388
54.86000 1.763
54.88000 3.888
54.90000 4.828
54.92000 2.730
54.94000 1.277
54.96000 1.807
54.98000 2.289
55.00000 4.212
55.02000 4.645
55.04000 2.950
55.06000 3.840
55.08000 1.592
55.10000 -0.993
55.12000 1.173
55.14000 0.072
55.16000 -1.137
55.18000 3.018
55.20000 1.472
55.22000 -2.332
55.24000 -2.044
55.26000 1.246
55.28000 3.962
55.30000 3.096
55.32000 2.750
55.34000 -1.213
55.36000 1.727
55.38000 0.082
55.40000 0.823
55.42000 1.539
55.44000 3.797
55.46000 3.698
55.48000 2.057
55.50000 -1.327
55.52000 -2.326
55.54000 1.455
55.56000 1.841
55.58000 -0.779
55.60000 1.814
55.62000 2.222
55.64000 3.672
55.66000 -0.142
55.68000 -0.198
55.70000 2.061
55.72000 2.872
55.74000 3.129
55.76000 -0.036
55.78000 2.670
55.80000 0.923
55.82000 1.282
55.84000 1.536
55.86000 0.765
55.88000 1.890
55.90000 0.806
55.92000 0.674
55.94000 1.024
55.96000 1.231
55.98000 0.594
56.00000 3.879
56.02000 1.317
56.04000 -2.299
56.06000 2.148
56.08000 1.408
56.10000 0.194
56.12000 1.972
56.14000 4.934
56.16000 2.775
56.18000 -0.112
56.20000 2.253
56.22000 -0.372
56.24000 2.250
56.26000 0.183
56.28000 2.114
56.30000 1.907
56.32000 1.385
56.34000 -0.002
56.36000 5.820
56.38000 5.604
56.40000 -1.272
56.42000 -0.503
56.44000 1.955
56.46000 2.794
56.48000 4.485
56.50000 5.233
56.52000 3.867
56.54000 1.688
56.56000 1.912
56.58000 2.793
56.60000 5.764
56.62000 3.289
56.64000 -1.758
56.66000 -2.292
56.68000 -2.147
56.70000 -1.537
56.72000 1.686
56.74000 4.375
56.76000 3.071
56.78000 0.724
56.80000 2.252
56.82000 2.937
56.84000 0.816
56.86000 3.325
56.88000 1.859
56.90000 0.827
56.92000 -0.440
56.94000 1.130
56.96000 6.726
56.98000 5.575
57.00000 1.632
57.02000 -0.398
57.04000 0.648
57.06000 0.816
57.08000 2.098
57.10000 1.600
57.12000 2.319
57.14000 4.380
57.16000 6.056
57.18000 6.372
57.20000 4.572
57.22000 2.592
57.24000 2.162
57.26000 0.582
57.28000 -0.417
57.30000 2.398
57.32000 1.027
57.34000 2.178
57.36000 1.384
57.38000 0.201
57.40000 -2.248
57.42000 3.442
57.44000 2.335
57.46000 0.981
57.48000 3.166
57.50000 1.084
57.52000 -0.746
57.54000 -0.900
57.56000 0.372
57.58000 3.320
57.60000 4.723
57.62000 1.740
57.64000 2.275
57.66000 3.360
57.68000 3.300
57.70000 5.842
57.72000 1.356
57.74000 -0.062
57.76000 2.105
57.78000 2.291
57.80000 2.945
57.82000 3.186
57.84000 1.715
57.86000 -0.634
57.88000 1.723
57.90000 -1.223
57.92000 -0.092
57.94000 0.472
57.96000 1.468
57.98000 4.910
58.00000 3.025
58.02000 -1.621
58.04000 3.348
58.06000 2.284
58.08000 1.294
58.10000 4.169
58.12000 2.010
58.14000 2.132
58.16000 2.629
58.18000 5.349
58.20000 3.623
58.22000 0.228
58.24000 0.474
58.26000 -0.023
58.28000 -0.641
58.30000 -0.117
58.32000 0.425
58.34000 1.561
58.36000 3.162
58.38000 2.375
58.40000 3.031
58.42000 2.407
58.44000 4.625
58.46000 1.473
58.48000 -2.230
58.50000 -0.426
58.52000 4.901
58.54000 4.628
58.56000 2.832
58.58000 0.474
58.60000 2.543
58.62000 2.793
58.64000 5.638
58.66000 0.783
58.68000 -1.130
58.70000 -0.488
58.72000 0.451
58.74000 0.053
58.76000 2.789
58.78000 1.717
58.80000 1.891
58.82000 2.356
58.84000 1.647
58.86000 1.864
58.88000 1.534
58.90000 0.354
58.92000 2.353
58.94000 1.713
58.96000 0.206
58.98000 -1.925
59.00000 -0.382
59.02000 2.062
59.04000 1.981
59.06000 0.066
59.08000 -0.094
59.10000 2.250
59.12000 0.737
59.14000 0.506
59.16000 5.153
59.18000 2.116
59.20000 0.438
59.22000 -2.225
59.24000 1.339
59.26000 3.369
59.28000 0.001
59.30000 1.738
59.32000 0.673
59.34000 2.682
59.36000 2.778
59.38000 1.609
59.40000 -0.099
59.42000 2.642
59.44000 0.107
59.46000 0.769
59.48000 -0.406
59.50000 2.259
59.52000 1.677
59.54000 3.731
59.56000 4.426
59.58000 3.715
59.60000 2.960
59.62000 2.014
59.64000 1.382
59.66000 -0.684
59.68000 -1.075
59.70000 -0.679
59.72000 0.835
59.74000 0.296
59.76000 1.267
59.78000 3.536
59.80000 1.220
59.82000 2.546
59.84000 2.153
59.86000 2.541
59.88000 0.435
59.90000 0.888
59.92000 -2.056
59.94000 0.542
59.96000 -0.860
59.98000 2.540
60.00000 3.471
60.02000 3.067
60.04000 2.952
60.06000 4.688
60.08000 2.529
60.10000 1.392
60.12000 4.052
60.14000 3.152
60.16000 2.843
60.18000 0.262
60.20000 2.057
60.22000 2.528
60.24000 1.542
60.26000 1.399
60.28000 2.400
60.30000 2.303
60.32000 1.746
60.34000 1.229
60.36000 -2.161
60.38000 0.794
60.40000 2.656
60.42000 2.507
60.44000 4.001
60.46000 3.921
60.48000 5.555
60.50000 2.355
60.52000 1.307
60.54000 -1.347
60.56000 1.457
60.58000 3.241
60.60000 2.317
60.62000 5.486
60.64000 4.895
60.66000 2.227
60.68000 -1.707
60.70000 2.206
60.72000 1.314
60.74000 -0.301
60.76000 0.178
60.78000 2.935
60.80000 1.665
60.82000 -0.556
60.84000 0.913
60.86000 3.923
60.88000 2.160
60.90000 1.974
60.92000 1.859
60.94000 2.287
60.96000 1.039
60.98000 3.662
61.00000 2.953
61.02000 0.402
61.04000 -0.402
61.06000 -0.131
61.08000 -0.444
61.10000 -2.158
61.12000 0.238
61.14000 0.766
61.16000 -0.706
61.18000 1.074
61.20000 0.392
61.22000 2.490
61.24000 2.408
61.26000 2.651
61.28000 1.845
61.30000 4.550
61.32000 3.913
61.34000 5.422
61.36000 4.333
61.38000 3.982
61.40000 2.246
61.42000 3.345
61.44000 2.069
61.46000 3.321
61.48000 3.865
61.50000 -0.400
61.52000 -0.204
61.54000 2.796
61.56000 2.636
61.58000 2.835
61.60000 -1.567
61.62000 0.018
61.64000 1.935
61.66000 3.090
61.68000 0.783
61.70000 -0.006
61.72000 -0.067
61.74000 4.113
61.76000 4.963
61.78000 2.951
61.80000 -2.127
61.82000 -0.315
61.84000 0.796
61.86000 0.446
61.88000 1.421
61.90000 3.163
61.92000 3.459
61.94000 2.280
61.96000 2.023
61.98000 -0.090
62.00000 -1.650
62.02000 -1.443
62.04000 -2.122
62.06000 -0.539
62.08000 3.749
62.10000 0.824
62.12000 -0.060
62.14000 1.630
62.16000 5.273
62.18000 6.631
62.20000 6.868
62.22000 2.214
62.24000 1.547
62.26000 3.166
62.28000 1.899
62.30000 4.322
62.32000 2.720
62.34000 3.560
62.36000 1.046
62.38000 3.494
62.40000 1.882
62.42000 2.402
62.44000 1.779
62.46000 -1.930
62.48000 -0.353
62.50000 1.200
62.52000 1.572
62.54000 -0.775
62.56000 -1.089
62.58000 2.026
62.60000 2.191
62.62000 2.510
62.64000 3.776
62.66000 1.208
62.68000 0.294
62.70000 3.129
62.72000 3.124
62.74000 2.876
62.76000 3.756
62.78000 3.038
62.80000 2.113
62.82000 2.187
62.84000 0.932
62.86000 0.279
62.88000 -0.810
62.90000 -0.907
62.92000 -2.094
62.94000 0.732
62.96000 1.097
62.98000 1.180
63.00000 1.121
63.02000 -0.228
63.04000 1.351
63.06000 0.754
63.08000 0.185
63.10000 0.836
63.12000 0.120
63.14000 0.953
63.16000 0.413
63.18000 0.897
63.20000 2.242
63.22000 4.174
63.24000 5.333
63.26000 3.789
63.28000 5.029
63.30000 4.818
63.32000 4.227
63.34000 2.417
63.36000 1.133
63.38000 -2.055
63.40000 0.106
63.42000 2.894
63.44000 1.928
63.46000 3.274
63.48000 4.032
63.50000 3.718
63.52000 4.059
63.54000 0.812
63.56000 -1.631
63.58000 1.792
63.60000 3.035
63.62000 2.228
63.64000 0.525
63.66000 2.063
63.68000 1.578
63.70000 -0.598
63.72000 -1.106
63.74000 0.194
63.76000 2.568
63.78000 5.411
63.80000 1.325
63.82000 1.594
63.84000 0.471
63.86000 1.797
63.88000 3.494
63.90000 -1.268
63.92000 3.742
63.94000 3.282
63.96000 1.741
63.98000 0.817
64.00000 0.798
64.02000 0.110
64.04000 -0.659
64.06000 2.786
64.08000 1.676
64.10000 1.818
64.12000 2.483
64.14000 0.181
64.16000 1.183
64.18000 4.793
64.20000 3.926
64.22000 2.494
64.24000 1.286
64.26000 -0.559
64.28000 -1.610
64.30000 -0.248
64.32000 0.019
64.34000 2.580
64.36000 0.286
64.38000 -1.033
64.40000 1.505
64.42000 1.998
64.44000 1.119
64.46000 0.850
64.48000 3.634
64.50000 4.068
64.52000 1.709
64.54000 -1.750
64.56000 -1.425
64.58000 1.650
64.60000 -0.085
64.62000 -1.388
64.64000 -1.866
64.66000 -2.094
64.68000 -1.203
64.70000 0.934
64.72000 1.609
64.74000 1.973
64.76000 2.038
64.78000 0.723
64.80000 1.483
64.82000 0.656
64.84000 -1.310
64.86000 -1.594
64.88000 0.586
64.90000 0.049
64.92000 -0.086
64.94000 0.370
64.96000 1.479
64.98000 1.526
65.00000 1.055
65.02000 0.194
65.04000 1.453
65.06000 3.819
65.08000 -0.492
65.10000 0.876
65.12000 -0.425
65.14000 0.266
65.16000 -0.783
65.18000 0.155
65.20000 1.514
65.22000 -0.068
65.24000 -1.521
65.26000 -1.404
65.28000 0.260
65.30000 2.654
65.32000 1.206
65.34000 1.891
65.36000 0.424
65.38000 -0.342
65.40000 -0.314
65.42000 -0.402
65.44000 0.055
65.46000 0.379
65.48000 1.655
65.50000 2.633
65.52000 0.135
65.54000 -0.142
65.56000 -1.099
65.58000 -0.582
65.60000 0.441
65.62000 -1.891
65.64000 -1.169
65.66000 -2.069
65.68000 1.003
65.70000 2.626
65.72000 1.049
65.74000 0.821
65.76000 3.354
65.78000 2.328
65.80000 1.987
65.82000 0.845
65.84000 2.577
65.86000 3.238
65.88000 1.408
65.90000 -0.009
65.92000 -0.836
65.94000 0.181
65.96000 1.763
65.98000 1.706
66.00000 0.839
66.02000 0.998
66.04000 -0.243
66.06000 1.277
66.08000 1.973
66.10000 1.950
66.12000 2.581
66.14000 1.974
66.16000 0.289
66.18000 -2.034
66.20000 1.094
66.22000 2.628
66.24000 1.628
66.26000 1.634
66.28000 -0.251
66.30000 0.390
66.32000 -1.145
66.34000 0.945
66.36000 2.810
66.38000 -0.213
66.40000 0.646
66.42000 0.343
66.44000 -0.762
66.46000 -0.570
66.48000 1.970
66.50000 3.401
66.52000 2.575
66.54000 0.159
66.56000 1.722
66.58000 0.135
66.60000 0.498
66.62000 0.144
66.64000 1.193
66.66000 2.037
66.68000 -0.236
66.70000 -0.340
66.72000 -0.492
66.74000 -1.928
66.76000 -1.057
66.78000 0.840
66.80000 -1.056
66.82000 2.692
66.84000 1.416
66.86000 -1.616
66.88000 -1.494
66.90000 -1.616
66.92000 -1.684
66.94000 -1.733
66.96000 -2.091
66.98000 -0.863
67.00000 1.932
67.02000 -0.688
67.04000 -0.200
67.06000 -0.943
67.08000 -1.402
67.10000 -0.771
67.12000 -0.392
67.14000 0.090
67.16000 -1.025
67.18000 -1.913
67.20000 -0.392
67.22000 -0.100
67.24000 2.021
67.26000 0.414
67.28000 -0.121
67.30000 -0.581
67.32000 -1.459
67.34000 0.699
67.36000 -0.733
67.38000 -0.017
67.40000 -0.242
67.42000 -0.727
67.44000 -0.458
67.46000 0.208
67.48000 0.225
67.50000 0.584
67.52000 -2.090
67.54000 -1.748
67.56000 -0.498
67.58000 1.745
67.60000 2.538
67.62000 1.522
67.64000 0.993
67.66000 2.159
67.68000 2.026
67.70000 -0.250
67.72000 0.019
67.74000 -0.423
67.76000 -0.560
67.78000 -1.124
67.80000 -2.094
67.82000 -2.029
67.84000 0.448
67.86000 1.189
67.88000 2.585
67.90000 1.522
67.92000 1.049
67.94000 2.038
67.96000 2.309
67.98000 -0.092
68.00000 -0.862
68.02000 -1.992
68.04000 -0.384
68.06000 -0.887
68.08000 0.585
68.10000 -0.073
68.12000 2.269
68.14000 3.569
68.16000 1.361
68.18000 -0.013
68.20000 1.119
68.22000 2.540
68.24000 -0.664
68.26000 1.015
68.28000 2.074
68.30000 1.308
68.32000 3.096
68.34000 3.591
68.36000 3.540
68.38000 3.105
68.40000 3.166
68.42000 3.078
68.44000 6.012
68.46000 5.833
68.48000 5.928
68.50000 5.287
68.52000 6.207
68.54000 7.411
68.56000 7.557
68.58000 5.254
68.60000 6.421
68.62000 8.932
68.64000 10.848
68.66000 10.702
68.68000 12.802
68.70000 14.863
68.72000 14.148
68.74000 15.100
68.76000 14.811
68.78000 14.564
68.80000 12.521
68.82000 15.545
68.84000 17.882
68.86000 16.469
68.88000 19.933
68.90000 20.565
68.92000 20.098
68.94000 19.956
68.96000 19.423
68.98000 17.680
69.00000 15.963
69.02000 17.092
69.04000 16.245
69.06000 17.495
69.08000 16.439
69.10000 16.035
69.12000 13.699
69.14000 16.887
69.16000 14.268
69.18000 15.776
69.20000 15.224
69.22000 15.737
69.24000 15.004
69.26000 14.050
69.28000 12.780
69.30000 11.237
69.32000 11.457
69.34000 11.749
69.36000 12.194
69.38000 11.409
69.40000 10.940
69.42000 14.337
69.44000 10.515
69.46000 7.308
69.48000 7.487
69.50000 5.786
69.52000 5.916
69.54000 7.188
69.56000 9.246
69.58000 7.097
69.60000 4.314
69.62000 4.852
69.64000 5.902
69.66000 6.825
69.68000 2.097
69.70000 0.357
69.72000 1.440
69.74000 3.272
69.76000 4.013
69.78000 1.798
69.80000 1.254
69.82000 1.903
69.84000 1.631
69.86000 0.604
69.88000 -0.094
69.90000 -0.801
69.92000 1.796
69.94000 1.147
69.96000 -0.381
69.98000 0.380
70.00000 1.778
70.02000 0.494
70.04000 -1.447
70.06000 -0.837
70.08000 1.033
70.10000 0.126
70.12000 -1.389
70.14000 0.816
70.16000 -0.621
70.18000 -1.905
70.20000 0.286
70.22000 1.089
70.24000 -0.849
70.26000 -2.016
70.28000 0.671
70.30000 1.208
70.32000 -0.303
70.34000 0.266
70.36000 1.674
70.38000 0.102
70.40000 -1.225
70.42000 -0.962
70.44000 -0.948
70.46000 -0.779
70.48000 -1.279
70.50000 0.205
70.52000 0.374
70.54000 0.680
70.56000 1.121
70.58000 -0.173
70.60000 -0.279
70.62000 0.431
70.64000 0.925
70.66000 3.117
70.68000 1.840
70.70000 -1.944
70.72000 -1.237
70.74000 0.142
70.76000 1.080
70.78000 -1.344
70.80000 -1.077
70.82000 -1.005
70.84000 1.863
70.86000 1.979
70.88000 0.632
70.90000 0.256
70.92000 1.404
70.94000 0.680
70.96000 -1.925
70.98000 0.575
71.00000 2.406
71.02000 1.758
71.04000 1.532
71.06000 1.023
71.08000 0.873
71.10000 1.011
71.12000 0.161
71.14000 3.160
71.16000 1.748
71.18000 -0.206
71.20000 1.701
71.22000 -1.146
71.24000 -1.907
71.26000 -1.033
71.28000 0.397
71.30000 1.423
71.32000 1.724
71.34000 2.452
71.36000 1.657
71.38000 2.058
71.40000 3.332
71.42000 0.168
71.44000 -0.982
71.46000 -1.895
71.48000 -0.399
71.50000 0.776
71.52000 1.567
71.54000 0.491
71.56000 -0.008
71.58000 -0.070
71.60000 -0.527
71.62000 0.593
71.64000 2.616
71.66000 1.941
71.68000 1.733
71.70000 4.399
71.72000 3.258
71.74000 0.244
71.76000 -0.102
71.78000 -0.509
71.80000 2.203
71.82000 2.918
71.84000 0.797
71.86000 2.094
71.88000 0.780
71.90000 -0.094
71.92000 1.059
71.94000 0.474
71.96000 0.844
71.98000 1.992
72.00000 3.615
72.02000 2.469
72.04000 2.500
72.06000 0.540
72.08000 0.812
72.10000 1.756
72.12000 3.078
72.14000 3.238
72.16000 -0.912
72.18000 -0.996
72.20000 -1.834
72.22000 0.669
72.24000 4.731
72.26000 2.749
72.28000 1.361
72.30000 3.226
72.32000 1.362
72.34000 -0.094
72.36000 1.972
72.38000 0.640
72.40000 -1.821
72.42000 0.689
72.44000 0.371
72.46000 1.256
72.48000 -0.177
72.50000 0.100
72.52000 -0.024
72.54000 -0.192
72.56000 -0.410
72.58000 -0.391
72.60000 1.381
72.62000 0.447
72.64000 0.899
72.66000 -0.842
72.68000 2.185
72.70000 3.862
72.72000 2.253
72.74000 1.092
72.76000 2.964
72.78000 3.165
72.80000 2.594
72.82000 0.917
72.84000 2.489
72.86000 2.745
72.88000 4.096
72.90000 2.382
72.92000 2.380
72.94000 3.153
72.96000 4.181
72.98000 4.291
73.00000 4.395
73.02000 3.179
73.04000 3.552
73.06000 3.374
73.08000 0.412
73.10000 1.771
73.12000 1.890
73.14000 0.779
73.16000 -0.437
73.18000 -0.285
73.20000 1.876
73.22000 2.332
73.24000 2.776
73.26000 3.485
73.28000 1.745
73.30000 -0.579
73.32000 1.433
73.34000 4.227
73.36000 4.514
73.38000 4.318
73.40000 3.841
73.42000 2.068
73.44000 0.912
73.46000 2.912
73.48000 3.820
73.50000 2.353
73.52000 -0.048
73.54000 -1.754
73.56000 -0.310
73.58000 0.758
73.60000 0.556
73.62000 2.444
73.64000 4.277
73.66000 3.248
73.68000 3.938
73.70000 2.750
73.72000 3.275
73.74000 2.162
73.76000 -0.739
73.78000 0.333
73.80000 1.869
73.82000 3.518
73.84000 4.089
73.86000 3.437
73.88000 2.643
73.90000 3.063
73.92000 0.298
73.94000 2.646
73.96000 1.686
73.98000 1.807
74.00000 2.808
74.02000 2.973
74.04000 2.501
74.06000 0.828
74.08000 2.761
74.10000 1.672
74.12000 2.734
74.14000 1.910
74.16000 1.704
74.18000 4.587
74.20000 5.667
74.22000 1.180
74.24000 -1.076
74.26000 0.397
74.28000 3.112
74.30000 2.286
74.32000 0.486
74.34000 2.352
74.36000 4.074
74.38000 3.376
74.40000 1.199
74.42000 -1.253
74.44000 -1.765
74.46000 0.267
74.48000 1.270
74.50000 0.290
74.52000 1.331
74.54000 1.159
74.56000 -0.683
74.58000 1.064
74.60000 0.837
74.62000 -0.955
74.64000 0.734
74.66000 0.589
74.68000 0.044
74.70000 0.708
74.72000 2.661
74.74000 3.635
74.76000 2.526
74.78000 2.616
74.80000 2.506
74.82000 4.262
74.84000 3.596
74.86000 3.147
74.88000 0.296
74.90000 0.876
74.92000 0.964
74.94000 1.371
74.96000 0.258
74.98000 1.823
75.00000 2.544
75.02000 2.674
75.04000 1.315
75.06000 2.614
75.08000 2.672
75.10000 1.335
75.12000 1.759
75.14000 1.496
75.16000 0.393
75.18000 -1.483
75.20000 -1.758
75.22000 -0.494
75.24000 -0.478
75.26000 -0.458
75.28000 -1.484
75.30000 1.026
75.32000 0.806
75.34000 0.739
75.36000 -0.445
75.38000 -0.307
75.40000 1.584
75.42000 1.678
75.44000 2.573
75.46000 2.726
75.48000 4.853
75.50000 0.684
75.52000 1.224
75.54000 0.314
75.56000 1.539
75.58000 0.409
75.60000 0.069
75.62000 -0.537
75.64000 -1.804
75.66000 -0.614
75.68000 3.670
75.70000 3.860
75.72000 2.581
75.74000 2.766
75.76000 3.829
75.78000 2.667
75.80000 3.106
75.82000 3.325
75.84000 2.058
75.86000 -0.316
75.88000 0.855
75.90000 -0.872
75.92000 -0.627
75.94000 0.062
75.96000 0.690
75.98000 0.298
76.00000 0.921
76.02000 -1.809
76.04000 0.150
76.06000 -1.626
76.08000 1.238
76.10000 1.696
76.12000 -0.959
76.14000 -1.045
76.16000 1.199
76.18000 1.757
76.20000 2.666
76.22000 -1.711
76.24000 -0.762
76.26000 1.814
76.28000 4.691
76.30000 4.320
76.32000 3.785
76.34000 2.624
76.36000 0.519
76.38000 -0.855
76.40000 1.305
76.42000 1.114
76.44000 0.488
76.46000 -0.136
76.48000 0.662
76.50000 -0.691
76.52000 -0.598
76.54000 1.177
76.56000 1.084
76.58000 0.366
76.60000 -0.361
76.62000 -0.270
76.64000 -0.376
76.66000 0.387
76.68000 0.944
76.70000 2.532
76.72000 0.278
76.74000 -0.927
76.76000 0.992
76.78000 1.307
76.80000 0.520
76.82000 0.843
76.84000 0.731
76.86000 3.987
76.88000 3.260
76.90000 -1.787
76.92000 0.079
76.94000 1.417
76.96000 0.242
76.98000 4.776
77.00000 4.138
77.02000 2.297
77.04000 -0.033
77.06000 2.543
77.08000 4.404
77.10000 2.058
77.12000 0.446
77.14000 2.502
77.16000 1.448
77.18000 4.148
77.20000 3.910
77.22000 0.906
77.24000 3.074
77.26000 0.368
77.28000 -0.506
77.30000 0.137
77.32000 4.248
77.34000 3.266
77.36000 2.532
77.38000 1.429
77.40000 -0.551
77.42000 0.307
77.44000 0.143
77.46000 3.164
77.48000 3.209
77.50000 2.638
77.52000 0.933
77.54000 1.302
77.56000 0.877
77.58000 0.975
77.60000 1.105
77.62000 0.317
77.64000 -1.448
77.66000 0.649
77.68000 2.354
77.70000 0.048
77.72000 -0.774
77.74000 1.961
77.76000 2.571
77.78000 1.921
77.80000 1.240
77.82000 1.215
77.84000 2.257
77.86000 4.485
77.88000 3.028
77.90000 1.058
77.92000 -1.821
77.94000 0.817
77.96000 0.453
77.98000 1.128
78.00000 2.521
78.02000 3.097
78.04000 0.662
78.06000 -0.073
78.08000 1.467
78.10000 -0.512
78.12000 -0.639
78.14000 -1.812
78.16000 0.871
78.18000 2.652
78.20000 1.399
78.22000 2.924
78.24000 0.410
78.26000 2.536
78.28000 2.661
78.30000 1.749
78.32000 2.898
78.34000 2.947
78.36000 1.886
78.38000 2.425
78.40000 4.419
78.42000 2.099
78.44000 2.433
78.46000 2.985
78.48000 1.708
78.50000 3.091
78.52000 1.915
78.54000 2.370
78.56000 2.426
78.58000 2.097
78.60000 -1.792
78.62000 1.118
78.64000 2.839
78.66000 2.255
78.68000 4.067
78.70000 4.749
78.72000 4.086
78.74000 4.376
78.76000 1.830
78.78000 2.121
78.80000 1.179
78.82000 -1.492
78.84000 1.384
78.86000 0.707
78.88000 0.482
78.90000 0.141
78.92000 3.665
78.94000 4.309
78.96000 2.595
78.98000 -0.821
79.00000 -0.320
79.02000 5.185
79.04000 3.366
79.06000 4.343
79.08000 1.802
79.10000 3.053
79.12000 2.057
79.14000 0.697
79.16000 3.091
79.18000 6.247
79.20000 4.593
79.22000 4.793
79.24000 2.933
79.26000 0.289
79.28000 1.250
79.30000 1.409
79.32000 -0.043
79.34000 2.240
79.36000 1.975
79.38000 0.659
79.40000 1.889
79.42000 0.971
79.44000 0.981
79.46000 3.540
79.48000 3.501
79.50000 1.707
79.52000 1.002
79.54000 4.552
79.56000 4.178
79.58000 3.609
79.60000 3.928
79.62000 3.657
79.64000 2.849
79.66000 6.034
79.68000 5.623
79.70000 1.959
79.72000 4.661
79.74000 5.378
79.76000 4.410
79.78000 5.786
79.80000 5.712
79.82000 3.553
79.84000 -1.819
79.86000 -1.552
79.88000 4.806
79.90000 4.872
79.92000 1.338
79.94000 0.553
79.96000 0.407
79.98000 0.651
80.00000 3.630
80.02000 2.056
80.04000 1.858
80.06000 2.245
80.08000 3.002
80.10000 3.326
80.12000 1.889
80.14000 2.760
80.16000 3.258
80.18000 0.361
80.20000 2.039
80.22000 0.424
80.24000 -0.960
80.26000 1.112
80.28000 3.216
80.30000 2.674
80.32000 1.348
80.34000 0.438
80.36000 1.229
80.38000 -1.147
80.40000 -0.928
80.42000 0.816
80.44000 1.985
80.46000 2.827
80.48000 1.046
80.50000 0.932
80.52000 2.627
80.54000 2.682
80.56000 0.244
80.58000 -0.773
80.60000 -0.390
80.62000 -0.605
80.64000 -0.523
80.66000 2.410
80.68000 2.188
80.70000 1.081
80.72000 0.310
80.74000 -1.169
80.76000 1.266
80.78000 2.592
80.80000 1.929
80.82000 0.527
80.84000 0.543
80.86000 -1.442
80.88000 -0.723
80.90000 0.464
80.92000 -0.260
80.94000 -1.910
80.96000 1.123
80.98000 2.485
81.00000 3.708
81.02000 3.950
81.04000 2.686
81.06000 0.580
81.08000 0.256
81.10000 1.917
81.12000 1.938
81.14000 1.640
81.16000 0.047
81.18000 -0.748
81.20000 -0.214
81.22000 -0.566
81.24000 -1.293
81.26000 0.010
81.28000 0.173
81.30000 0.120
81.32000 1.830
81.34000 1.718
81.36000 -0.772
81.38000 -1.479
81.40000 1.414
81.42000 1.415
81.44000 -1.925
81.46000 -1.857
81.48000 -1.278
81.50000 0.693
81.52000 1.177
81.54000 2.976
81.56000 2.264
81.58000 2.391
81.60000 0.505
81.62000 2.635
81.64000 3.696
81.66000 4.198
81.68000 4.412
81.70000 -0.811
81.72000 -1.813
81.74000 -0.078
81.76000 0.191
81.78000 -0.563
81.80000 0.055
81.82000 -0.905
81.84000 -0.152
81.86000 0.581
81.88000 2.635
81.90000 3.443
81.92000 5.512
81.94000 5.760
81.96000 4.878
81.98000 2.347
82.00000 3.971
82.02000 2.080
82.04000 2.939
82.06000 4.010
82.08000 2.924
82.10000 4.077
82.12000 2.234
82.14000 1.531
82.16000 5.866
82.18000 4.716
82.20000 4.163
82.22000 5.825
82.24000 7.840
82.26000 5.406
82.28000 6.190
82.30000 6.890
82.32000 7.976
82.34000 7.739
82.36000 8.327
82.38000 10.574
82.40000 7.156
82.42000 9.528
82.44000 11.026
82.46000 10.889
82.48000 10.623
82.50000 14.220
82.52000 15.050
82.54000 16.242
82.56000 16.531
82.58000 15.513
82.60000 17.521
82.62000 22.580
82.64000 20.894
82.66000 21.260
82.68000 23.400
82.70000 22.381
82.72000 21.752
82.74000 20.861
82.76000 21.675
82.78000 23.840
82.80000 28.649
82.82000 27.461
82.84000 26.791
82.86000 27.466
82.88000 31.464
82.90000 35.626
82.92000 37.256
82.94000 37.179
82.96000 41.335
82.98000 41.414
83.00000 39.455
83.02000 35.003
83.04000 38.948
83.06000 41.904
83.08000 41.771
83.10000 43.268
83.12000 44.980
83.14000 41.871
83.16000 46.067
83.18000 41.500
83.20000 45.894
83.22000 43.844
83.24000 43.304
83.26000 44.377
83.28000 41.133
83.30000 43.426
83.32000 44.401
83.34000 41.894
83.36000 38.994
83.38000 35.294
83.40000 37.135
83.42000 41.091
83.44000 38.251
83.46000 34.046
83.48000 32.487
83.50000 35.246
83.52000 36.750
83.54000 37.238
83.56000 29.946
83.58000 28.945
83.60000 30.175
83.62000 28.861
83.64000 22.675
83.66000 25.406
83.68000 26.266
83.70000 27.536
83.72000 25.224
83.74000 24.864
83.76000 22.894
83.78000 21.348
83.80000 19.145
83.82000 19.925
83.84000 19.027
83.86000 17.111
83.88000 15.498
83.90000 14.241
83.92000 14.317
83.94000 13.340
83.96000 12.034
83.98000 14.324
84.00000 17.728
84.02000 11.323
84.04000 10.365
84.06000 8.953
84.08000 6.730
84.10000 8.567
84.12000 7.748
84.14000 6.808
84.16000 7.979
84.18000 7.449
84.20000 5.333
84.22000 5.636
84.24000 6.388
84.26000 4.984
84.28000 6.371
84.30000 3.739
84.32000 3.890
84.34000 5.115
84.36000 4.150
84.38000 1.828
84.40000 4.372
84.42000 5.176
84.44000 1.767
84.46000 -0.149
84.48000 0.317
84.50000 2.801
84.52000 5.015
84.54000 3.901
84.56000 1.330
84.58000 2.738
84.60000 5.365
84.62000 1.764
84.64000 -2.015
84.66000 2.218
84.68000 3.574
84.70000 1.994
84.72000 3.730
84.74000 2.296
84.76000 4.378
84.78000 3.893
84.80000 2.340
84.82000 0.488
84.84000 1.319
84.86000 0.204
84.88000 0.442
84.90000 2.506
84.92000 3.800
84.94000 2.040
84.96000 3.019
84.98000 1.532
85.00000 -0.470
85.02000 -0.625
85.04000 0.528
85.06000 -1.946
85.08000 -1.499
85.10000 0.335
85.12000 -1.580
85.14000 -0.021
85.16000 1.914
85.18000 4.206
85.20000 1.375
85.22000 -0.856
85.24000 0.021
85.26000 0.291
85.28000 0.500
85.30000 1.298
85.32000 2.937
85.34000 2.328
85.36000 1.761
85.38000 1.301
85.40000 0.605
85.42000 1.935
85.44000 1.534
85.46000 0.897
85.48000 0.093
85.50000 -1.447
85.52000 -0.786
85.54000 -0.443
85.56000 0.655
85.58000 2.892
85.60000 4.082
85.62000 3.588
85.64000 0.663
85.66000 2.866
85.68000 2.448
85.70000 -1.247
85.72000 0.331
85.74000 -1.291
85.76000 -1.895
85.78000 0.302
85.80000 -0.221
85.82000 -0.233
85.84000 1.066
85.86000 0.227
85.88000 -0.327
85.90000 -0.855
85.92000 0.123
85.94000 2.104
85.96000 1.530
85.98000 2.684
86.00000 1.581
86.02000 0.898
86.04000 2.899
86.06000 4.393
86.08000 2.253
86.10000 -0.304
86.12000 -1.389
86.14000 0.047
86.16000 3.351
86.18000 1.850
86.20000 3.230
86.22000 2.049
86.24000 0.251
86.26000 1.246
86.28000 3.584
86.30000 2.220
86.32000 5.012
86.34000 4.852
86.36000 5.419
86.38000 3.315
86.40000 -1.893
86.42000 -1.196
86.44000 2.679
86.46000 3.853
86.48000 2.335
86.50000 1.668
86.52000 2.775
86.54000 3.260
86.56000 6.634
86.58000 6.676
86.60000 2.979
86.62000 1.339
86.64000 2.444
86.66000 2.318
86.68000 1.858
86.70000 1.978
86.72000 4.428
86.74000 3.775
86.76000 4.302
86.78000 5.672
86.80000 3.323
86.82000 3.994
86.84000 5.317
86.86000 6.463
86.88000 5.313
86.90000 6.911
86.92000 7.198
86.94000 7.699
86.96000 7.955
86.98000 5.708
87.00000 9.143
87.02000 12.898
87.04000 13.647
87.06000 13.556
87.08000 13.918
87.10000 11.099
87.12000 12.074
87.14000 13.362
87.16000 14.804
87.18000 15.855
87.20000 16.810
87.22000 15.648
87.24000 15.161
87.26000 13.435
87.28000 13.889
87.30000 17.980
87.32000 18.831
87.34000 17.823
87.36000 20.149
87.38000 18.650
87.40000 21.585
87.42000 25.770
87.44000 24.262
87.46000 24.721
87.48000 24.368
87.50000 23.299
87.52000 26.095
87.54000 25.830
87.56000 25.816
87.58000 25.866
87.60000 23.532
87.62000 22.330
87.64000 24.733
87.66000 22.974
87.68000 29.628
87.70000 26.616
87.72000 26.723
87.74000 23.729
87.76000 25.758
87.78000 25.923
87.80000 27.558
87.82000 27.487
87.84000 25.276
87.86000 26.283
87.88000 23.365
87.90000 22.035
87.92000 22.782
87.94000 21.751
87.96000 20.650
87.98000 19.600
88.00000 20.042
88.02000 19.291
88.04000 19.245
88.06000 19.462
88.08000 16.566
88.10000 16.709
88.12000 16.154
88.14000 10.903
88.16000 11.630
88.18000 13.193
88.20000 14.614
88.22000 13.820
88.24000 14.507
88.26000 15.053
88.28000 13.917
88.30000 13.714
88.32000 9.850
88.34000 11.243
88.36000 10.157
88.38000 6.990
88.40000 7.584
88.42000 10.601
88.44000 8.551
88.46000 7.532
88.48000 7.370
88.50000 8.118
88.52000 7.085
88.54000 6.017
88.56000 4.059
88.58000 6.761
88.60000 6.100
88.62000 4.642
88.64000 5.603
88.66000 6.673
88.68000 5.991
88.70000 1.877
88.72000 3.961
88.74000 5.939
88.76000 5.694
88.78000 3.554
88.80000 3.264
88.82000 4.194
88.84000 3.307
88.86000 3.104
88.88000 -1.252
88.90000 3.373
88.92000 3.253
88.94000 3.135
88.96000 3.210
88.98000 1.386
89.00000 2.512
89.02000 1.518
89.04000 1.520
89.06000 2.080
89.08000 6.209
89.10000 2.236
89.12000 -1.802
89.14000 0.675
89.16000 2.349
89.18000 3.034
89.20000 1.085
89.22000 2.829
89.24000 4.618
89.26000 5.648
89.28000 3.342
89.30000 2.130
89.32000 -0.719
89.34000 1.098
89.36000 -0.755
89.38000 2.827
89.40000 2.212
89.42000 2.700
89.44000 2.895
89.46000 1.056
89.48000 1.356
89.50000 1.754
89.52000 1.517
89.54000 -0.844
89.56000 2.183
89.58000 -1.781
89.60000 1.202
89.62000 0.243
89.64000 -0.915
89.66000 0.077
89.68000 0.240
89.70000 0.265
89.72000 2.094
89.74000 1.883
89.76000 0.690
89.78000 1.994
89.80000 0.832
89.82000 3.073
89.84000 2.435
89.86000 -1.202
89.88000 1.122
89.90000 1.769
89.92000 0.966
89.94000 -0.789
89.96000 -1.154
89.98000 2.683
90.00000 6.341
90.02000 6.540
90.04000 5.246
90.06000 2.992
90.08000 0.801
90.10000 0.045
90.12000 1.206
90.14000 1.810
90.16000 2.228
90.18000 1.143
90.20000 0.724
90.22000 -0.229
90.24000 0.478
90.26000 1.273
90.28000 2.807
90.30000 2.746
90.32000 0.321
90.34000 0.392
90.36000 -1.725
90.38000 1.015
90.40000 2.888
90.42000 0.715
90.44000 -1.247
90.46000 -0.267
90.48000 -0.855
90.50000 -0.624
90.52000 2.475
90.54000 1.377
90.56000 3.631
90.58000 2.641
90.60000 1.556
90.62000 1.778
90.64000 2.135
90.66000 1.722
90.68000 1.277
90.70000 -0.639
90.72000 -1.257
90.74000 -0.353
90.76000 0.638
90.78000 0.088
90.80000 0.591
90.82000 0.665
90.84000 1.727
90.86000 0.279
90.88000 1.488
90.90000 0.697
90.92000 1.000
90.94000 1.062
90.96000 0.002
90.98000 4.147
91.00000 2.636
91.02000 -0.570
91.04000 0.621
91.06000 1.162
91.08000 -0.108
91.10000 -1.219
91.12000 -0.952
91.14000 0.255
91.16000 1.469
91.18000 -1.116
91.20000 -1.731
91.22000 -0.550
91.24000 0.370
91.26000 -0.515
91.28000 0.754
91.30000 1.595
91.32000 -0.137
91.34000 -0.113
91.36000 -0.407
91.38000 1.353
91.40000 1.960
91.42000 0.467
91.44000 1.622
91.46000 0.020
91.48000 -0.097
91.50000 3.546
91.52000 1.957
91.54000 -0.938
91.56000 0.437
91.58000 4.546
91.60000 2.196
91.62000 -0.185
91.64000 -1.719
91.66000 -0.357
91.68000 0.011
91.70000 0.762
91.72000 -1.103
91.74000 -1.179
91.76000 -0.475
91.78000 -1.129
91.80000 -1.187
91.82000 0.075
91.84000 1.865
91.86000 1.827
91.88000 3.458
91.90000 2.736
91.92000 1.992
91.94000 1.520
91.96000 3.642
91.98000 3.533
92.00000 0.431
92.02000 0.200
92.04000 0.807
92.06000 2.703
92.08000 2.871
92.10000 1.049
92.12000 2.921
92.14000 4.450
92.16000 4.144
92.18000 5.641
92.20000 2.959
92.22000 3.460
92.24000 2.994
92.26000 3.355
92.28000 1.673
92.30000 1.606
92.32000 3.416
92.34000 3.541
92.36000 1.535
92.38000 0.169
92.40000 0.918
92.42000 0.483
92.44000 0.815
92.46000 -0.784
92.48000 -0.140
92.50000 -0.379
92.52000 1.782
92.54000 2.773
92.56000 2.099
92.58000 4.363
92.60000 4.019
92.62000 2.855
92.64000 4.971
92.66000 3.779
92.68000 5.087
92.70000 4.910
92.72000 4.270
92.74000 2.291
92.76000 1.410
92.78000 4.622
92.80000 6.728
92.82000 3.060
92.84000 1.371
92.86000 5.769
92.88000 5.890
92.90000 4.973
92.92000 2.291
92.94000 -0.892
92.96000 -1.670
92.98000 4.460
93.00000 3.765
93.02000 2.150
93.04000 3.522
93.06000 4.113
93.08000 1.795
93.10000 3.761
93.12000 6.717
93.14000 8.427
93.16000 6.954
93.18000 4.465
93.20000 4.310
93.22000 5.802
93.24000 2.815
93.26000 0.461
93.28000 2.486
93.30000 5.319
93.32000 4.801
93.34000 3.937
93.36000 2.803
93.38000 0.506
93.40000 2.259
93.42000 4.123
93.44000 4.020
93.46000 3.580
93.48000 1.231
93.50000 1.487
93.52000 0.379
93.54000 1.512
93.56000 1.911
93.58000 1.285
93.60000 0.380
93.62000 1.296
93.64000 2.930
93.66000 5.379
93.68000 2.546
93.70000 0.095
93.72000 2.694
93.74000 1.340
93.76000 -1.476
93.78000 -0.433
93.80000 4.614
93.82000 1.189
93.84000 0.476
93.86000 2.958
93.88000 3.328
93.90000 5.813
93.92000 3.362
93.94000 -1.055
93.96000 -1.606
93.98000 3.368
94.00000 4.580
94.02000 4.229
94.04000 2.703
94.06000 3.460
94.08000 0.032
94.10000 -1.712
94.12000 2.493
94.14000 5.048
94.16000 5.985
94.18000 2.556
94.20000 2.280
94.22000 2.171
94.24000 3.775
94.26000 1.951
94.28000 2.086
94.30000 4.585
94.32000 4.860
94.34000 4.123
94.36000 4.238
94.38000 4.968
94.40000 0.921
94.42000 1.529
94.44000 1.170
94.46000 -1.708
94.48000 0.764
94.50000 1.435
94.52000 2.571
94.54000 2.744
94.56000 5.179
94.58000 6.212
94.60000 5.960
94.62000 2.220
94.64000 1.046
94.66000 3.599
94.68000 5.087
94.70000 6.132
94.72000 4.220
94.74000 7.448
94.76000 4.653
94.78000 1.835
94.80000 4.809
94.82000 4.160
94.84000 1.984
94.86000 0.470
94.88000 -0.257
94.90000 2.643
94.92000 3.425
94.94000 1.640
94.96000 2.923
94.98000 3.838
95.00000 2.451
95.02000 -1.725
95.04000 -0.155
95.06000 -0.126
95.08000 0.517
95.10000 2.361
95.12000 2.003
95.14000 0.926
95.16000 2.618
95.18000 3.443
95.20000 4.701
95.22000 5.585
95.24000 4.544
95.26000 2.383
95.28000 1.896
95.30000 1.073
95.32000 0.626
95.34000 3.466
95.36000 1.883
95.38000 -1.498
95.40000 0.799
95.42000 0.669
95.44000 2.526
95.46000 2.693
95.48000 4.214
95.50000 4.317
95.52000 3.601
95.54000 3.590
95.56000 3.331
95.58000 -0.092
95.60000 -1.745
95.62000 -0.876
95.64000 -1.081
95.66000 3.350
95.68000 3.741
95.70000 3.883
95.72000 6.924
95.74000 2.877
95.76000 -1.747
95.78000 -1.125
95.80000 1.688
95.82000 2.668
95.84000 1.561
95.86000 -1.752
95.88000 3.835
95.90000 4.663
95.92000 4.691
95.94000 2.852
95.96000 0.597
95.98000 0.739
96.00000 2.277
96.02000 4.033
96.04000 3.130
96.06000 -0.343
96.08000 3.025
96.10000 5.587
96.12000 2.088
96.14000 0.904
96.16000 0.241
96.18000 2.556
96.20000 1.100
96.22000 1.135
96.24000 1.623
96.26000 8.262
96.28000 1.202
96.30000 0.045
96.32000 -1.702
96.34000 4.265
96.36000 1.134
96.38000 1.262
96.40000 2.444
96.42000 5.336
96.44000 6.042
96.46000 3.644
96.48000 0.278
96.50000 -1.755
96.52000 1.265
96.54000 -0.286
96.56000 1.832
96.58000 1.787
96.60000 2.262
96.62000 3.564
96.64000 5.589
96.66000 2.628
96.68000 0.888
96.70000 2.631
96.72000 0.787
96.74000 -0.289
96.76000 -1.056
96.78000 -0.857
96.80000 -0.110
96.82000 2.677
96.84000 1.250
96.86000 0.089
96.88000 2.151
96.90000 2.079
96.92000 -0.110
96.94000 -1.744
96.96000 0.090
96.98000 -0.698
97.00000 0.404
97.02000 1.321
97.04000 0.890
97.06000 3.123
97.08000 3.030
97.10000 6.252
97.12000 4.884
97.14000 2.244
97.16000 0.007
97.18000 2.887
97.20000 3.825
97.22000 2.462
97.24000 1.348
97.26000 0.130
97.28000 4.818
97.30000 5.980
97.32000 3.583
97.34000 2.402
97.36000 1.218
97.38000 5.059
97.40000 4.217
97.42000 1.054
97.44000 0.424
97.46000 4.463
97.48000 3.788
97.50000 4.380
97.52000 4.435
97.54000 4.449
97.56000 6.235
97.58000 6.965
97.60000 7.789
97.62000 3.638
97.64000 0.816
97.66000 0.883
97.68000 3.113
97.70000 6.423
97.72000 5.488
97.74000 4.657
97.76000 2.733
97.78000 0.421
97.80000 -1.023
97.82000 -0.093
97.84000 -0.508
97.86000 -1.698
97.88000 1.921
97.90000 0.199
97.92000 -1.557
97.94000 2.167
97.96000 4.243
97.98000 4.013
98.00000 4.528
98.02000 4.590
98.04000 4.229
98.06000 6.227
98.08000 7.492
98.10000 2.146
98.12000 2.753
98.14000 4.571
98.16000 4.908
98.18000 1.708
98.20000 2.896
98.22000 2.263
98.24000 0.792
98.26000 0.104
98.28000 2.008
98.30000 4.809
98.32000 2.786
98.34000 2.056
98.36000 2.301
98.38000 6.780
98.40000 4.585
98.42000 2.332
98.44000 3.443
98.46000 6.094
98.48000 0.539
98.50000 1.502
98.52000 4.943
98.54000 2.677
98.56000 2.457
98.58000 6.259
98.60000 4.623
98.62000 0.743
98.64000 3.279
98.66000 4.378
98.68000 0.562
98.70000 0.042
98.72000 6.748
98.74000 3.000
98.76000 7.549
98.78000 4.773
98.80000 9.394
98.82000 4.082
98.84000 1.480
98.86000 1.704
98.88000 2.910
98.90000 2.052
98.92000 3.574
98.94000 0.720
98.96000 3.363
98.98000 3.035
99.00000 3.271
99.02000 4.080
99.04000 1.994
99.06000 2.236
99.08000 6.622
99.10000 7.438
99.12000 2.625
99.14000 4.106
99.16000 4.857
99.18000 5.020
99.20000 6.514
99.22000 7.267
99.24000 6.214
99.26000 6.404
99.28000 9.261
99.30000 9.281
99.32000 4.850
99.34000 5.313
99.36000 7.681
99.38000 7.538
99.40000 6.054
99.42000 5.479
99.44000 13.367
99.46000 9.931
99.48000 5.256
99.50000 9.379
99.52000 9.840
99.54000 9.558
99.56000 6.375
99.58000 8.345
99.60000 9.191
99.62000 7.436
99.64000 3.426
99.66000 -1.576
99.68000 1.617
99.70000 12.509
99.72000 16.802
99.74000 5.865
99.76000 3.346
99.78000 2.659
99.80000 6.827
99.82000 7.243
99.84000 3.273
99.86000 -1.654
99.88000 1.382
99.90000 -1.682
99.92000 0.593
99.94000 -0.076
99.96000 -1.807
99.98000 0.000
