'Id: "0011387" Comment: "Integrate frame 0011387_Au-Ir-Rh_Rh-rich_XRD-Mapping-105-0000.gfrmwith cursor Wedge Cursor #5" Operator: "B?rgel" Anode: "Cu" Wavelength: "1.5406" Scantype: "2Theta (TwoTheta)" TimePerStep: "1" X: "4.5" Y: "-13.5" Z: "5.95" 
10.00000 0.000
10.02000 1.630
10.04000 -4.017
10.06000 0.903
10.08000 11.764
10.10000 9.216
10.12000 12.787
10.14000 -1.437
10.16000 3.635
10.18000 -2.038
10.20000 5.532
10.22000 13.406
10.24000 24.210
10.26000 30.799
10.28000 14.351
10.30000 8.559
10.32000 9.236
10.34000 6.345
10.36000 14.023
10.38000 24.904
10.40000 12.655
10.42000 9.353
10.44000 13.705
10.46000 20.892
10.48000 18.681
10.50000 15.885
10.52000 8.025
10.54000 15.483
10.56000 16.958
10.58000 12.091
10.60000 29.494
10.62000 32.281
10.64000 17.758
10.66000 18.101
10.68000 31.172
10.70000 31.505
10.72000 7.119
10.74000 -4.038
10.76000 9.790
10.78000 17.135
10.80000 16.516
10.82000 22.371
10.84000 17.073
10.86000 17.139
10.88000 1.795
10.90000 1.676
10.92000 8.132
10.94000 18.057
10.96000 8.571
10.98000 10.838
11.00000 36.328
11.02000 30.197
11.04000 21.867
11.06000 18.563
11.08000 18.518
11.10000 18.051
11.12000 10.195
11.14000 17.173
11.16000 11.690
11.18000 10.654
11.20000 12.650
11.22000 24.459
11.24000 23.097
11.26000 18.777
11.28000 14.920
11.30000 16.844
11.32000 17.990
11.34000 23.710
11.36000 30.959
11.38000 20.012
11.40000 16.835
11.42000 26.570
11.44000 12.376
11.46000 18.751
11.48000 23.476
11.50000 26.019
11.52000 24.859
11.54000 17.300
11.56000 19.845
11.58000 17.270
11.60000 24.414
11.62000 23.707
11.64000 22.878
11.66000 13.203
11.68000 12.373
11.70000 27.820
11.72000 23.539
11.74000 17.464
11.76000 23.893
11.78000 23.716
11.80000 26.286
11.82000 22.578
11.84000 5.243
11.86000 12.543
11.88000 22.213
11.90000 20.125
11.92000 16.538
11.94000 13.624
11.96000 14.793
11.98000 7.184
12.00000 13.659
12.02000 17.540
12.04000 8.625
12.06000 3.200
12.08000 13.647
12.10000 17.492
12.12000 18.702
12.14000 20.123
12.16000 28.581
12.18000 23.970
12.20000 12.283
12.22000 24.424
12.24000 25.028
12.26000 11.982
12.28000 6.417
12.30000 10.867
12.32000 19.208
12.34000 18.868
12.36000 20.150
12.38000 22.928
12.40000 20.574
12.42000 20.280
12.44000 14.141
12.46000 13.512
12.48000 2.429
12.50000 12.295
12.52000 26.455
12.54000 19.017
12.56000 17.729
12.58000 16.665
12.60000 13.411
12.62000 14.338
12.64000 28.073
12.66000 27.814
12.68000 19.971
12.70000 18.954
12.72000 19.828
12.74000 13.976
12.76000 10.748
12.78000 14.192
12.80000 21.303
12.82000 12.127
12.84000 12.411
12.86000 19.771
12.88000 19.317
12.90000 12.172
12.92000 8.967
12.94000 9.265
12.96000 20.054
12.98000 30.349
13.00000 30.254
13.02000 17.720
13.04000 15.926
13.06000 9.842
13.08000 12.866
13.10000 16.248
13.12000 12.358
13.14000 17.022
13.16000 14.101
13.18000 12.925
13.20000 12.136
13.22000 15.992
13.24000 5.576
13.26000 7.026
13.28000 9.883
13.30000 10.226
13.32000 16.154
13.34000 19.716
13.36000 23.960
13.38000 14.427
13.40000 7.218
13.42000 5.743
13.44000 11.976
13.46000 17.075
13.48000 11.682
13.50000 11.146
13.52000 18.422
13.54000 16.408
13.56000 13.054
13.58000 7.060
13.60000 5.933
13.62000 7.990
13.64000 10.628
13.66000 10.362
13.68000 20.461
13.70000 11.097
13.72000 3.582
13.74000 5.158
13.76000 10.320
13.78000 10.100
13.80000 6.760
13.82000 7.743
13.84000 9.416
13.86000 -0.852
13.88000 2.315
13.90000 9.518
13.92000 4.606
13.94000 7.689
13.96000 12.700
13.98000 16.375
14.00000 18.079
14.02000 19.454
14.04000 23.862
14.06000 20.561
14.08000 9.484
14.10000 7.953
14.12000 -2.397
14.14000 7.906
14.16000 6.653
14.18000 4.547
14.20000 10.108
14.22000 13.604
14.24000 15.722
14.26000 9.879
14.28000 9.605
14.30000 11.230
14.32000 9.273
14.34000 -0.641
14.36000 6.043
14.38000 9.020
14.40000 3.581
14.42000 2.705
14.44000 0.723
14.46000 6.973
14.48000 6.150
14.50000 4.347
14.52000 2.232
14.54000 -3.124
14.56000 4.465
14.58000 13.788
14.60000 21.857
14.62000 9.768
14.64000 11.370
14.66000 14.450
14.68000 7.515
14.70000 14.413
14.72000 10.686
14.74000 8.590
14.76000 11.507
14.78000 15.287
14.80000 7.438
14.82000 1.948
14.84000 14.052
14.86000 19.520
14.88000 8.836
14.90000 4.521
14.92000 3.774
14.94000 -1.308
14.96000 0.703
14.98000 9.435
15.00000 11.887
15.02000 21.271
15.04000 18.681
15.06000 19.978
15.08000 11.855
15.10000 0.201
15.12000 -1.406
15.14000 -2.353
15.16000 -4.058
15.18000 5.753
15.20000 10.073
15.22000 9.476
15.24000 7.123
15.26000 -0.628
15.28000 5.369
15.30000 10.584
15.32000 8.915
15.34000 4.558
15.36000 8.708
15.38000 8.919
15.40000 13.874
15.42000 8.036
15.44000 5.197
15.46000 4.827
15.48000 4.597
15.50000 2.126
15.52000 6.607
15.54000 6.474
15.56000 9.389
15.58000 10.278
15.60000 13.314
15.62000 13.424
15.64000 8.492
15.66000 2.304
15.68000 11.862
15.70000 15.899
15.72000 12.903
15.74000 8.566
15.76000 14.074
15.78000 5.898
15.80000 5.123
15.82000 1.535
15.84000 2.031
15.86000 -2.527
15.88000 2.231
15.90000 7.367
15.92000 -0.136
15.94000 1.349
15.96000 6.834
15.98000 8.168
16.00000 10.625
16.02000 12.756
16.04000 10.006
16.06000 3.919
16.08000 8.878
16.10000 3.706
16.12000 11.045
16.14000 8.825
16.16000 12.982
16.18000 7.901
16.20000 0.736
16.22000 9.568
16.24000 2.798
16.26000 -0.937
16.28000 1.167
16.30000 7.057
16.32000 14.393
16.34000 15.877
16.36000 10.080
16.38000 12.523
16.40000 10.210
16.42000 9.176
16.44000 12.574
16.46000 11.949
16.48000 7.989
16.50000 5.321
16.52000 4.840
16.54000 11.537
16.56000 0.192
16.58000 -4.353
16.60000 0.531
16.62000 2.375
16.64000 -1.705
16.66000 7.434
16.68000 14.617
16.70000 13.297
16.72000 10.998
16.74000 16.808
16.76000 17.065
16.78000 17.579
16.80000 22.682
16.82000 15.954
16.84000 10.790
16.86000 10.992
16.88000 10.849
16.90000 8.921
16.92000 15.276
16.94000 15.129
16.96000 10.396
16.98000 9.087
17.00000 5.718
17.02000 8.770
17.04000 2.052
17.06000 2.993
17.08000 4.551
17.10000 6.906
17.12000 8.410
17.14000 5.771
17.16000 4.629
17.18000 4.834
17.20000 9.196
17.22000 8.182
17.24000 15.574
17.26000 11.300
17.28000 4.600
17.30000 5.395
17.32000 3.754
17.34000 12.754
17.36000 13.398
17.38000 -0.822
17.40000 0.658
17.42000 8.347
17.44000 8.016
17.46000 1.486
17.48000 -1.251
17.50000 0.139
17.52000 3.154
17.54000 3.488
17.56000 5.205
17.58000 2.747
17.60000 7.618
17.62000 5.134
17.64000 3.011
17.66000 8.248
17.68000 10.687
17.70000 5.652
17.72000 3.348
17.74000 6.016
17.76000 4.556
17.78000 9.309
17.80000 4.193
17.82000 8.217
17.84000 11.461
17.86000 6.220
17.88000 6.091
17.90000 11.129
17.92000 9.302
17.94000 4.036
17.96000 14.927
17.98000 16.206
18.00000 9.439
18.02000 2.678
18.04000 0.970
18.06000 2.265
18.08000 -0.981
18.10000 0.951
18.12000 2.429
18.14000 -1.810
18.16000 4.501
18.18000 5.533
18.20000 -0.886
18.22000 -1.910
18.24000 13.897
18.26000 11.180
18.28000 3.959
18.30000 4.434
18.32000 -1.015
18.34000 -4.278
18.36000 -1.647
18.38000 -1.949
18.40000 3.190
18.42000 12.082
18.44000 5.902
18.46000 9.931
18.48000 -4.054
18.50000 -2.372
18.52000 6.145
18.54000 10.194
18.56000 7.552
18.58000 -1.121
18.60000 -2.269
18.62000 -2.224
18.64000 4.500
18.66000 7.255
18.68000 0.140
18.70000 -1.736
18.72000 3.067
18.74000 4.192
18.76000 7.560
18.78000 5.375
18.80000 5.261
18.82000 4.669
18.84000 2.099
18.86000 5.145
18.88000 8.094
18.90000 7.182
18.92000 2.400
18.94000 5.302
18.96000 5.461
18.98000 -2.468
19.00000 1.594
19.02000 3.395
19.04000 2.699
19.06000 3.825
19.08000 3.916
19.10000 6.884
19.12000 7.143
19.14000 9.617
19.16000 7.730
19.18000 -0.447
19.20000 0.483
19.22000 6.685
19.24000 0.627
19.26000 3.924
19.28000 11.844
19.30000 11.897
19.32000 5.435
19.34000 2.113
19.36000 6.985
19.38000 7.383
19.40000 7.231
19.42000 6.987
19.44000 9.318
19.46000 2.982
19.48000 -1.152
19.50000 -4.201
19.52000 3.757
19.54000 12.305
19.56000 8.589
19.58000 10.084
19.60000 18.430
19.62000 7.039
19.64000 8.824
19.66000 9.947
19.68000 6.200
19.70000 0.944
19.72000 10.314
19.74000 11.359
19.76000 6.536
19.78000 2.710
19.80000 7.213
19.82000 6.800
19.84000 7.254
19.86000 8.918
19.88000 3.795
19.90000 4.856
19.92000 9.563
19.94000 8.742
19.96000 5.919
19.98000 11.852
20.00000 5.854
20.02000 3.442
20.04000 1.639
20.06000 3.552
20.08000 6.994
20.10000 7.587
20.12000 4.102
20.14000 6.418
20.16000 10.196
20.18000 10.855
20.20000 10.837
20.22000 5.404
20.24000 2.073
20.26000 4.761
20.28000 7.406
20.30000 3.556
20.32000 -1.239
20.34000 -3.350
20.36000 -3.048
20.38000 1.949
20.40000 -4.182
20.42000 -0.989
20.44000 2.298
20.46000 9.325
20.48000 7.085
20.50000 2.058
20.52000 -1.276
20.54000 5.583
20.56000 8.475
20.58000 1.677
20.60000 6.763
20.62000 7.531
20.64000 3.953
20.66000 8.817
20.68000 -0.999
20.70000 -1.793
20.72000 4.649
20.74000 1.970
20.76000 0.577
20.78000 3.687
20.80000 2.315
20.82000 0.020
20.84000 4.253
20.86000 12.286
20.88000 12.064
20.90000 6.277
20.92000 2.807
20.94000 1.729
20.96000 -2.437
20.98000 -4.149
21.00000 -0.557
21.02000 6.012
21.04000 5.065
21.06000 0.495
21.08000 2.702
21.10000 5.917
21.12000 3.334
21.14000 0.772
21.16000 13.051
21.18000 10.272
21.20000 -0.190
21.22000 -2.384
21.24000 1.584
21.26000 -2.458
21.28000 -1.184
21.30000 1.936
21.32000 6.371
21.34000 7.598
21.36000 3.943
21.38000 5.359
21.40000 1.052
21.42000 0.868
21.44000 3.204
21.46000 3.512
21.48000 -0.051
21.50000 -0.092
21.52000 4.090
21.54000 -1.495
21.56000 -1.869
21.58000 3.288
21.60000 2.844
21.62000 7.189
21.64000 5.886
21.66000 3.616
21.68000 -2.766
21.70000 -1.449
21.72000 -4.106
21.74000 -3.379
21.76000 0.566
21.78000 0.999
21.80000 -1.818
21.82000 0.232
21.84000 5.510
21.86000 6.466
21.88000 8.039
21.90000 5.629
21.92000 0.506
21.94000 0.300
21.96000 3.445
21.98000 2.450
22.00000 -2.191
22.02000 -3.080
22.04000 -2.268
22.06000 2.612
22.08000 0.626
22.10000 -3.849
22.12000 1.280
22.14000 2.726
22.16000 -0.833
22.18000 0.532
22.20000 5.036
22.22000 -4.092
22.24000 -0.626
22.26000 6.167
22.28000 7.897
22.30000 1.127
22.32000 2.414
22.34000 1.840
22.36000 1.749
22.38000 4.882
22.40000 4.941
22.42000 -0.319
22.44000 0.508
22.46000 5.041
22.48000 7.938
22.50000 2.412
22.52000 2.253
22.54000 2.041
22.56000 2.738
22.58000 5.131
22.60000 5.399
22.62000 -3.911
22.64000 0.489
22.66000 3.446
22.68000 -1.472
22.70000 -0.621
22.72000 1.460
22.74000 5.790
22.76000 10.397
22.78000 5.155
22.80000 -0.161
22.82000 -0.709
22.84000 1.711
22.86000 3.043
22.88000 2.127
22.90000 5.461
22.92000 5.998
22.94000 6.890
22.96000 3.714
22.98000 1.550
23.00000 5.278
23.02000 2.458
23.04000 4.047
23.06000 0.979
23.08000 0.951
23.10000 6.421
23.12000 -4.049
23.14000 -1.902
23.16000 0.301
23.18000 3.387
23.20000 0.941
23.22000 7.890
23.24000 5.430
23.26000 8.714
23.28000 -0.936
23.30000 -1.609
23.32000 -0.525
23.34000 1.328
23.36000 -0.001
23.38000 0.447
23.40000 2.004
23.42000 5.764
23.44000 4.008
23.46000 -1.310
23.48000 3.310
23.50000 0.948
23.52000 6.586
23.54000 7.007
23.56000 -2.114
23.58000 -1.978
23.60000 0.597
23.62000 9.447
23.64000 7.343
23.66000 -0.671
23.68000 -4.017
23.70000 -0.239
23.72000 1.904
23.74000 -0.049
23.76000 2.979
23.78000 5.431
23.80000 5.942
23.82000 2.385
23.84000 -2.486
23.86000 4.111
23.88000 4.521
23.90000 -0.225
23.92000 0.303
23.94000 5.139
23.96000 2.999
23.98000 -2.826
24.00000 5.072
24.02000 8.472
24.04000 1.130
24.06000 0.390
24.08000 4.510
24.10000 0.634
24.12000 7.529
24.14000 9.217
24.16000 7.705
24.18000 0.765
24.20000 -0.503
24.22000 1.456
24.24000 -3.001
24.26000 1.592
24.28000 3.904
24.30000 1.008
24.32000 1.620
24.34000 3.654
24.36000 11.594
24.38000 8.135
24.40000 1.708
24.42000 4.725
24.44000 6.891
24.46000 14.354
24.48000 10.651
24.50000 -0.033
24.52000 -0.188
24.54000 4.528
24.56000 5.828
24.58000 -1.774
24.60000 -3.657
24.62000 -0.183
24.64000 4.012
24.66000 3.707
24.68000 1.182
24.70000 3.342
24.72000 3.846
24.74000 5.567
24.76000 7.113
24.78000 5.993
24.80000 1.735
24.82000 -0.336
24.84000 -1.619
24.86000 -3.939
24.88000 -2.447
24.90000 6.144
24.92000 4.706
24.94000 0.645
24.96000 0.192
24.98000 3.010
25.00000 3.409
25.02000 8.344
25.04000 10.464
25.06000 5.636
25.08000 2.371
25.10000 3.750
25.12000 0.931
25.14000 2.288
25.16000 3.823
25.18000 4.345
25.20000 6.619
25.22000 2.574
25.24000 -0.198
25.26000 5.144
25.28000 1.111
25.30000 2.025
25.32000 4.265
25.34000 -1.367
25.36000 3.008
25.38000 3.339
25.40000 -3.139
25.42000 -3.903
25.44000 0.477
25.46000 4.229
25.48000 3.850
25.50000 1.719
25.52000 0.552
25.54000 3.148
25.56000 3.682
25.58000 6.385
25.60000 3.396
25.62000 3.397
25.64000 2.700
25.66000 2.501
25.68000 -0.283
25.70000 0.600
25.72000 2.032
25.74000 1.673
25.76000 2.577
25.78000 4.434
25.80000 4.733
25.82000 3.504
25.84000 3.208
25.86000 0.195
25.88000 0.242
25.90000 3.371
25.92000 7.658
25.94000 6.215
25.96000 4.954
25.98000 3.907
26.00000 6.744
26.02000 11.181
26.04000 7.892
26.06000 4.656
26.08000 9.451
26.10000 9.406
26.12000 7.573
26.14000 4.480
26.16000 0.140
26.18000 -1.768
26.20000 -1.741
26.22000 0.394
26.24000 2.691
26.26000 3.068
26.28000 5.250
26.30000 4.368
26.32000 2.331
26.34000 1.656
26.36000 1.946
26.38000 1.364
26.40000 -2.122
26.42000 -0.862
26.44000 2.578
26.46000 9.004
26.48000 8.554
26.50000 1.599
26.52000 -3.838
26.54000 0.102
26.56000 -0.377
26.58000 3.252
26.60000 7.820
26.62000 5.545
26.64000 -2.041
26.66000 -1.999
26.68000 -1.024
26.70000 4.297
26.72000 1.047
26.74000 7.089
26.76000 3.390
26.78000 1.501
26.80000 -0.544
26.82000 0.798
26.84000 3.975
26.86000 7.032
26.88000 3.830
26.90000 -0.407
26.92000 4.304
26.94000 3.350
26.96000 -2.571
26.98000 2.115
27.00000 7.322
27.02000 5.509
27.04000 4.795
27.06000 6.774
27.08000 6.297
27.10000 8.574
27.12000 3.985
27.14000 0.727
27.16000 -0.935
27.18000 2.321
27.20000 2.579
27.22000 7.203
27.24000 4.963
27.26000 0.329
27.28000 -1.609
27.30000 -0.347
27.32000 5.637
27.34000 7.538
27.36000 7.714
27.38000 9.509
27.40000 11.469
27.42000 6.206
27.44000 0.269
27.46000 -0.109
27.48000 0.452
27.50000 3.700
27.52000 2.600
27.54000 -0.063
27.56000 4.722
27.58000 2.457
27.60000 5.536
27.62000 9.436
27.64000 9.376
27.66000 6.914
27.68000 4.371
27.70000 4.808
27.72000 3.638
27.74000 -1.780
27.76000 -0.254
27.78000 -3.769
27.80000 3.197
27.82000 7.400
27.84000 1.999
27.86000 7.750
27.88000 11.233
27.90000 7.294
27.92000 3.546
27.94000 1.915
27.96000 -1.086
27.98000 -3.206
28.00000 -2.461
28.02000 2.710
28.04000 1.359
28.06000 1.053
28.08000 2.875
28.10000 1.935
28.12000 -1.623
28.14000 2.029
28.16000 6.015
28.18000 6.727
28.20000 7.683
28.22000 3.238
28.24000 3.397
28.26000 6.615
28.28000 10.712
28.30000 10.766
28.32000 9.583
28.34000 5.259
28.36000 -3.740
28.38000 -0.571
28.40000 6.634
28.42000 6.659
28.44000 9.287
28.46000 3.323
28.48000 -1.397
28.50000 1.936
28.52000 7.512
28.54000 5.401
28.56000 7.466
28.58000 8.646
28.60000 2.601
28.62000 -0.659
28.64000 3.162
28.66000 4.079
28.68000 6.336
28.70000 5.766
28.72000 3.845
28.74000 4.847
28.76000 -0.068
28.78000 1.055
28.80000 -0.344
28.82000 0.327
28.84000 12.526
28.86000 5.108
28.88000 5.212
28.90000 2.826
28.92000 1.988
28.94000 2.953
28.96000 4.696
28.98000 0.353
29.00000 0.705
29.02000 -3.720
29.04000 -1.331
29.06000 -2.789
29.08000 -3.262
29.10000 3.689
29.12000 5.719
29.14000 5.722
29.16000 1.369
29.18000 3.595
29.20000 0.470
29.22000 -2.876
29.24000 -3.709
29.26000 0.137
29.28000 -1.187
29.30000 1.850
29.32000 1.415
29.34000 2.020
29.36000 4.447
29.38000 4.673
29.40000 -0.528
29.42000 -0.192
29.44000 2.591
29.46000 0.713
29.48000 0.102
29.50000 -2.673
29.52000 -2.451
29.54000 2.040
29.56000 1.602
29.58000 8.270
29.60000 9.501
29.62000 3.116
29.64000 -1.708
29.66000 2.167
29.68000 -0.432
29.70000 -2.736
29.72000 2.712
29.74000 1.539
29.76000 1.673
29.78000 3.206
29.80000 4.012
29.82000 5.131
29.84000 4.342
29.86000 1.679
29.88000 2.658
29.90000 3.398
29.92000 0.230
29.94000 -3.377
29.96000 -1.962
29.98000 2.748
30.00000 11.464
30.02000 7.320
30.04000 3.951
30.06000 5.990
30.08000 -1.032
30.10000 -1.906
30.12000 1.532
30.14000 3.900
30.16000 2.088
30.18000 3.534
30.20000 2.725
30.22000 0.345
30.24000 0.222
30.26000 3.232
30.28000 3.879
30.30000 3.381
30.32000 3.875
30.34000 2.047
30.36000 -3.629
30.38000 -0.134
30.40000 1.533
30.42000 7.947
30.44000 4.707
30.46000 3.205
30.48000 4.011
30.50000 2.733
30.52000 3.152
30.54000 0.594
30.56000 2.367
30.58000 -1.232
30.60000 -1.941
30.62000 -0.293
30.64000 0.970
30.66000 1.229
30.68000 0.627
30.70000 1.007
30.72000 3.153
30.74000 2.252
30.76000 2.621
30.78000 1.386
30.80000 -0.112
30.82000 4.051
30.84000 7.747
30.86000 7.595
30.88000 5.973
30.90000 1.110
30.92000 -0.689
30.94000 1.492
30.96000 3.909
30.98000 1.717
31.00000 0.500
31.02000 3.278
31.04000 6.606
31.06000 2.401
31.08000 8.656
31.10000 6.371
31.12000 -2.423
31.14000 -2.795
31.16000 0.452
31.18000 -1.306
31.20000 2.596
31.22000 6.581
31.24000 3.576
31.26000 -0.219
31.28000 3.098
31.30000 -0.991
31.32000 3.137
31.34000 3.112
31.36000 1.297
31.38000 -0.746
31.40000 1.132
31.42000 -2.067
31.44000 -3.619
31.46000 -0.377
31.48000 2.436
31.50000 6.787
31.52000 3.211
31.54000 -1.038
31.56000 1.498
31.58000 1.767
31.60000 4.165
31.62000 3.652
31.64000 -2.600
31.66000 -0.078
31.68000 2.645
31.70000 1.647
31.72000 -0.913
31.74000 2.522
31.76000 4.417
31.78000 3.134
31.80000 1.169
31.82000 5.449
31.84000 1.191
31.86000 1.014
31.88000 5.921
31.90000 8.186
31.92000 5.046
31.94000 2.269
31.96000 2.709
31.98000 -3.366
32.00000 -2.985
32.02000 -2.274
32.04000 -0.333
32.06000 -0.753
32.08000 -0.648
32.10000 1.722
32.12000 3.317
32.14000 0.146
32.16000 -3.559
32.18000 -0.531
32.20000 2.442
32.22000 -0.852
32.24000 -1.756
32.26000 1.489
32.28000 1.629
32.30000 2.019
32.32000 0.769
32.34000 -1.482
32.36000 -1.258
32.38000 1.314
32.40000 3.343
32.42000 1.124
32.44000 2.477
32.46000 3.277
32.48000 4.027
32.50000 -3.555
32.52000 -1.771
32.54000 0.945
32.56000 3.193
32.58000 3.989
32.60000 -0.335
32.62000 -1.589
32.64000 2.413
32.66000 3.344
32.68000 -1.347
32.70000 -0.338
32.72000 1.533
32.74000 4.331
32.76000 8.028
32.78000 5.188
32.80000 -0.328
32.82000 2.746
32.84000 2.457
32.86000 -1.499
32.88000 -3.545
32.90000 3.071
32.92000 4.283
32.94000 4.292
32.96000 4.786
32.98000 4.139
33.00000 -1.909
33.02000 -1.231
33.04000 4.338
33.06000 4.105
33.08000 -0.562
33.10000 3.911
33.12000 5.453
33.14000 3.609
33.16000 5.287
33.18000 7.951
33.20000 4.104
33.22000 -1.102
33.24000 -0.773
33.26000 0.458
33.28000 -0.281
33.30000 4.841
33.32000 9.800
33.34000 4.476
33.36000 0.456
33.38000 -0.539
33.40000 0.038
33.42000 1.247
33.44000 2.372
33.46000 7.388
33.48000 4.894
33.50000 4.806
33.52000 2.191
33.54000 2.956
33.56000 0.421
33.58000 -0.011
33.60000 -3.535
33.62000 -1.023
33.64000 1.005
33.66000 5.397
33.68000 3.998
33.70000 3.560
33.72000 1.992
33.74000 0.862
33.76000 -1.931
33.78000 -3.464
33.80000 -1.336
33.82000 -2.486
33.84000 -0.949
33.86000 -0.090
33.88000 2.813
33.90000 4.783
33.92000 5.246
33.94000 2.814
33.96000 5.636
33.98000 5.046
34.00000 0.996
34.02000 1.416
34.04000 0.584
34.06000 4.464
34.08000 9.269
34.10000 6.586
34.12000 3.072
34.14000 -0.008
34.16000 1.091
34.18000 5.111
34.20000 7.298
34.22000 1.920
34.24000 0.080
34.26000 1.254
34.28000 0.444
34.30000 2.954
34.32000 0.159
34.34000 2.776
34.36000 7.458
34.38000 8.838
34.40000 6.076
34.42000 7.345
34.44000 7.912
34.46000 6.191
34.48000 4.563
34.50000 4.514
34.52000 4.282
34.54000 6.001
34.56000 3.835
34.58000 4.302
34.60000 6.871
34.62000 5.254
34.64000 2.630
34.66000 1.419
34.68000 -2.236
34.70000 1.488
34.72000 8.237
34.74000 8.911
34.76000 6.722
34.78000 4.552
34.80000 6.465
34.82000 -0.167
34.84000 1.396
34.86000 -1.801
34.88000 -1.894
34.90000 5.581
34.92000 5.300
34.94000 5.401
34.96000 3.794
34.98000 -0.210
35.00000 0.394
35.02000 4.219
35.04000 3.555
35.06000 -3.152
35.08000 -0.293
35.10000 1.647
35.12000 4.136
35.14000 0.169
35.16000 1.577
35.18000 1.337
35.20000 -3.438
35.22000 3.946
35.24000 4.105
35.26000 5.293
35.28000 5.892
35.30000 9.149
35.32000 1.684
35.34000 0.890
35.36000 5.204
35.38000 1.940
35.40000 5.730
35.42000 8.751
35.44000 6.034
35.46000 5.085
35.48000 4.672
35.50000 7.289
35.52000 6.359
35.54000 8.431
35.56000 6.153
35.58000 0.708
35.60000 0.788
35.62000 2.993
35.64000 1.561
35.66000 5.932
35.68000 1.845
35.70000 -1.481
35.72000 -0.802
35.74000 -2.062
35.76000 -0.607
35.78000 5.748
35.80000 8.880
35.82000 3.421
35.84000 3.405
35.86000 -0.163
35.88000 -2.862
35.90000 0.874
35.92000 2.462
35.94000 5.795
35.96000 4.654
35.98000 -0.743
36.00000 0.325
36.02000 -0.302
36.04000 -1.992
36.06000 1.814
36.08000 1.001
36.10000 0.830
36.12000 -0.256
36.14000 0.407
36.16000 0.687
36.18000 -0.315
36.20000 6.559
36.22000 6.138
36.24000 6.918
36.26000 4.003
36.28000 0.207
36.30000 1.621
36.32000 2.316
36.34000 0.185
36.36000 1.653
36.38000 2.817
36.40000 6.564
36.42000 8.649
36.44000 6.877
36.46000 5.856
36.48000 4.379
36.50000 3.749
36.52000 1.048
36.54000 3.194
36.56000 -3.482
36.58000 0.189
36.60000 4.671
36.62000 1.635
36.64000 4.509
36.66000 3.249
36.68000 -1.019
36.70000 2.113
36.72000 3.529
36.74000 -1.132
36.76000 -1.566
36.78000 1.111
36.80000 7.186
36.82000 4.861
36.84000 3.488
36.86000 2.942
36.88000 4.172
36.90000 5.760
36.92000 7.477
36.94000 8.542
36.96000 3.504
36.98000 -2.262
37.00000 -0.810
37.02000 1.167
37.04000 2.726
37.06000 2.674
37.08000 3.173
37.10000 0.662
37.12000 0.896
37.14000 1.543
37.16000 3.523
37.18000 -0.419
37.20000 1.775
37.22000 3.866
37.24000 -0.605
37.26000 2.351
37.28000 4.368
37.30000 1.437
37.32000 -0.191
37.34000 0.496
37.36000 1.998
37.38000 -1.165
37.40000 -3.514
37.42000 -3.344
37.44000 4.098
37.46000 1.460
37.48000 -2.875
37.50000 3.673
37.52000 4.239
37.54000 2.571
37.56000 2.584
37.58000 3.993
37.60000 2.808
37.62000 3.282
37.64000 3.209
37.66000 -1.214
37.68000 -0.255
37.70000 3.745
37.72000 0.096
37.74000 -0.109
37.76000 2.875
37.78000 5.275
37.80000 6.064
37.82000 6.195
37.84000 3.237
37.86000 4.373
37.88000 1.839
37.90000 3.960
37.92000 6.071
37.94000 8.941
37.96000 9.478
37.98000 6.626
38.00000 4.009
38.02000 4.532
38.04000 2.033
38.06000 7.632
38.08000 7.710
38.10000 7.197
38.12000 10.733
38.14000 9.000
38.16000 12.073
38.18000 14.013
38.20000 12.170
38.22000 16.794
38.24000 11.801
38.26000 11.304
38.28000 12.714
38.30000 11.914
38.32000 14.142
38.34000 15.829
38.36000 12.845
38.38000 17.622
38.40000 15.567
38.42000 7.990
38.44000 9.915
38.46000 15.209
38.48000 19.601
38.50000 16.593
38.52000 14.573
38.54000 17.104
38.56000 16.464
38.58000 14.509
38.60000 17.349
38.62000 20.272
38.64000 23.632
38.66000 23.885
38.68000 24.555
38.70000 21.287
38.72000 24.324
38.74000 30.822
38.76000 26.870
38.78000 24.307
38.80000 23.515
38.82000 21.082
38.84000 21.036
38.86000 26.254
38.88000 26.873
38.90000 24.263
38.92000 26.697
38.94000 29.776
38.96000 27.301
38.98000 25.287
39.00000 26.628
39.02000 29.207
39.04000 32.692
39.06000 34.822
39.08000 33.913
39.10000 37.899
39.12000 37.208
39.14000 38.228
39.16000 41.361
39.18000 41.923
39.20000 44.324
39.22000 46.545
39.24000 45.735
39.26000 42.086
39.28000 47.445
39.30000 49.360
39.32000 56.213
39.34000 59.243
39.36000 55.490
39.38000 57.694
39.40000 61.064
39.42000 61.630
39.44000 68.869
39.46000 72.129
39.48000 73.738
39.50000 78.418
39.52000 87.774
39.54000 91.333
39.56000 94.018
39.58000 101.683
39.60000 102.164
39.62000 109.328
39.64000 115.841
39.66000 123.538
39.68000 135.982
39.70000 133.089
39.72000 139.704
39.74000 150.966
39.76000 159.483
39.78000 164.150
39.80000 171.492
39.82000 186.373
39.84000 199.431
39.86000 212.082
39.88000 226.305
39.90000 237.984
39.92000 259.316
39.94000 271.657
39.96000 291.375
39.98000 315.049
40.00000 331.578
40.02000 355.691
40.04000 377.964
40.06000 397.220
40.08000 418.513
40.10000 444.447
40.12000 479.104
40.14000 509.989
40.16000 539.198
40.18000 564.977
40.20000 605.282
40.22000 632.681
40.24000 664.452
40.26000 692.259
40.28000 716.296
40.30000 744.702
40.32000 783.248
40.34000 801.286
40.36000 820.422
40.38000 833.430
40.40000 858.716
40.42000 876.015
40.44000 890.565
40.46000 884.956
40.48000 879.940
40.50000 880.542
40.52000 888.950
40.54000 874.857
40.56000 871.997
40.58000 860.555
40.60000 834.221
40.62000 808.205
40.64000 796.890
40.66000 790.405
40.68000 758.175
40.70000 729.829
40.72000 706.499
40.74000 686.290
40.76000 661.095
40.78000 632.050
40.80000 604.083
40.82000 573.662
40.84000 547.217
40.86000 525.509
40.88000 502.777
40.90000 478.857
40.92000 451.962
40.94000 427.539
40.96000 413.412
40.98000 388.759
41.00000 365.196
41.02000 339.835
41.04000 322.186
41.06000 308.287
41.08000 291.475
41.10000 275.336
41.12000 258.754
41.14000 236.845
41.16000 225.292
41.18000 219.075
41.20000 205.711
41.22000 192.581
41.24000 182.851
41.26000 171.095
41.28000 162.852
41.30000 154.207
41.32000 147.646
41.34000 140.301
41.36000 136.292
41.38000 129.886
41.40000 117.376
41.42000 112.166
41.44000 106.957
41.46000 105.412
41.48000 95.147
41.50000 87.669
41.52000 80.056
41.54000 77.938
41.56000 80.622
41.58000 74.825
41.60000 74.511
41.62000 72.739
41.64000 70.784
41.66000 67.349
41.68000 60.411
41.70000 61.688
41.72000 61.269
41.74000 57.429
41.76000 50.944
41.78000 44.586
41.80000 45.885
41.82000 45.239
41.84000 44.868
41.86000 41.392
41.88000 38.382
41.90000 37.579
41.92000 36.867
41.94000 32.109
41.96000 27.545
41.98000 31.942
42.00000 29.334
42.02000 28.815
42.04000 30.149
42.06000 27.898
42.08000 22.489
42.10000 24.839
42.12000 25.472
42.14000 24.462
42.16000 21.427
42.18000 17.942
42.20000 13.304
42.22000 11.723
42.24000 12.775
42.26000 16.686
42.28000 14.779
42.30000 11.873
42.32000 9.541
42.34000 9.931
42.36000 12.639
42.38000 13.007
42.40000 8.922
42.42000 13.009
42.44000 13.249
42.46000 12.232
42.48000 4.985
42.50000 4.933
42.52000 8.816
42.54000 9.664
42.56000 8.677
42.58000 8.032
42.60000 6.389
42.62000 5.449
42.64000 6.581
42.66000 6.130
42.68000 7.478
42.70000 7.292
42.72000 7.793
42.74000 4.429
42.76000 6.525
42.78000 5.728
42.80000 3.860
42.82000 0.458
42.84000 -2.783
42.86000 1.480
42.88000 4.017
42.90000 4.328
42.92000 2.157
42.94000 -1.987
42.96000 -0.945
42.98000 1.348
43.00000 2.165
43.02000 2.138
43.04000 1.081
43.06000 3.517
43.08000 3.219
43.10000 2.518
43.12000 2.677
43.14000 1.296
43.16000 3.555
43.18000 4.651
43.20000 0.510
43.22000 -0.782
43.24000 -2.293
43.26000 -3.471
43.28000 -0.875
43.30000 1.042
43.32000 -1.603
43.34000 1.653
43.36000 4.643
43.38000 1.042
43.40000 -2.047
43.42000 0.717
43.44000 -0.398
43.46000 0.198
43.48000 0.648
43.50000 -1.514
43.52000 -1.443
43.54000 -1.435
43.56000 4.192
43.58000 5.557
43.60000 0.519
43.62000 -0.177
43.64000 -2.930
43.66000 -2.291
43.68000 1.769
43.70000 0.118
43.72000 1.554
43.74000 -0.876
43.76000 -2.984
43.78000 -3.127
43.80000 -2.973
43.82000 -3.267
43.84000 -2.430
43.86000 -0.919
43.88000 -0.742
43.90000 -0.981
43.92000 -0.520
43.94000 -3.375
43.96000 -3.371
43.98000 1.162
44.00000 0.342
44.02000 -3.083
44.04000 -3.052
44.06000 2.608
44.08000 2.036
44.10000 -0.270
44.12000 -2.498
44.14000 -3.101
44.16000 0.248
44.18000 -0.549
44.20000 1.728
44.22000 3.263
44.24000 1.692
44.26000 2.616
44.28000 1.366
44.30000 -0.198
44.32000 -0.585
44.34000 -3.305
44.36000 -1.723
44.38000 -2.023
44.40000 -0.167
44.42000 1.194
44.44000 -0.805
44.46000 2.985
44.48000 1.076
44.50000 -0.040
44.52000 6.004
44.54000 6.621
44.56000 1.557
44.58000 1.815
44.60000 2.008
44.62000 5.146
44.64000 2.856
44.66000 0.674
44.68000 -3.273
44.70000 1.301
44.72000 7.565
44.74000 4.590
44.76000 5.312
44.78000 3.842
44.80000 0.289
44.82000 0.512
44.84000 1.709
44.86000 3.102
44.88000 0.990
44.90000 -0.789
44.92000 2.836
44.94000 4.184
44.96000 3.407
44.98000 6.118
45.00000 8.865
45.02000 6.218
45.04000 1.980
45.06000 -0.760
45.08000 2.797
45.10000 5.868
45.12000 1.269
45.14000 1.778
45.16000 2.089
45.18000 6.019
45.20000 5.539
45.22000 6.672
45.24000 4.127
45.26000 6.688
45.28000 9.564
45.30000 5.446
45.32000 6.327
45.34000 6.760
45.36000 1.979
45.38000 2.402
45.40000 5.615
45.42000 4.615
45.44000 4.306
45.46000 1.605
45.48000 2.199
45.50000 5.771
45.52000 6.183
45.54000 5.145
45.56000 5.389
45.58000 7.644
45.60000 4.369
45.62000 5.715
45.64000 3.671
45.66000 6.903
45.68000 7.481
45.70000 7.956
45.72000 9.395
45.74000 12.391
45.76000 10.929
45.78000 10.403
45.80000 14.304
45.82000 11.539
45.84000 9.033
45.86000 11.380
45.88000 12.566
45.90000 15.093
45.92000 12.018
45.94000 10.901
45.96000 16.694
45.98000 18.141
46.00000 17.637
46.02000 15.172
46.04000 17.708
46.06000 17.936
46.08000 21.759
46.10000 20.507
46.12000 21.400
46.14000 27.566
46.16000 29.162
46.18000 29.118
46.20000 29.604
46.22000 29.757
46.24000 33.743
46.26000 37.222
46.28000 40.285
46.30000 40.600
46.32000 41.592
46.34000 39.981
46.36000 43.117
46.38000 46.022
46.40000 44.630
46.42000 43.734
46.44000 50.548
46.46000 55.796
46.48000 55.543
46.50000 60.399
46.52000 62.193
46.54000 70.708
46.56000 71.131
46.58000 70.746
46.60000 77.404
46.62000 83.162
46.64000 77.752
46.66000 82.897
46.68000 87.088
46.70000 82.863
46.72000 86.158
46.74000 94.461
46.76000 98.113
46.78000 96.710
46.80000 99.010
46.82000 104.626
46.84000 112.075
46.86000 119.424
46.88000 121.526
46.90000 120.199
46.92000 123.468
46.94000 129.921
46.96000 122.965
46.98000 129.469
47.00000 134.199
47.02000 137.401
47.04000 142.517
47.06000 142.222
47.08000 139.568
47.10000 142.726
47.12000 142.228
47.14000 144.623
47.16000 136.424
47.18000 132.777
47.20000 135.192
47.22000 132.348
47.24000 131.107
47.26000 126.650
47.28000 124.842
47.30000 117.832
47.32000 120.562
47.34000 118.124
47.36000 112.942
47.38000 110.171
47.40000 109.669
47.42000 108.631
47.44000 101.234
47.46000 97.937
47.48000 89.147
47.50000 84.884
47.52000 87.176
47.54000 89.309
47.56000 85.074
47.58000 84.649
47.60000 76.373
47.62000 72.199
47.64000 64.371
47.66000 60.184
47.68000 61.139
47.70000 51.626
47.72000 45.917
47.74000 47.770
47.76000 49.373
47.78000 46.060
47.80000 44.547
47.82000 48.512
47.84000 41.674
47.86000 37.404
47.88000 38.189
47.90000 27.518
47.92000 25.823
47.94000 27.788
47.96000 26.908
47.98000 24.350
48.00000 26.469
48.02000 28.555
48.04000 21.869
48.06000 16.557
48.08000 19.383
48.10000 24.162
48.12000 20.620
48.14000 11.611
48.16000 13.927
48.18000 15.473
48.20000 14.040
48.22000 8.835
48.24000 7.107
48.26000 9.732
48.28000 10.631
48.30000 10.345
48.32000 8.099
48.34000 5.615
48.36000 3.171
48.38000 6.465
48.40000 8.452
48.42000 2.899
48.44000 4.897
48.46000 2.804
48.48000 1.599
48.50000 2.688
48.52000 1.998
48.54000 6.322
48.56000 6.091
48.58000 7.512
48.60000 8.581
48.62000 3.889
48.64000 4.830
48.66000 3.995
48.68000 -1.409
48.70000 2.029
48.72000 4.446
48.74000 1.816
48.76000 0.065
48.78000 -2.913
48.80000 -2.778
48.82000 0.645
48.84000 -0.803
48.86000 0.161
48.88000 1.588
48.90000 -2.790
48.92000 -1.372
48.94000 3.261
48.96000 1.711
48.98000 1.686
49.00000 -1.966
49.02000 0.496
49.04000 -1.885
49.06000 -2.847
49.08000 -1.195
49.10000 2.854
49.12000 3.343
49.14000 0.943
49.16000 -0.575
49.18000 -1.167
49.20000 -0.470
49.22000 1.306
49.24000 1.191
49.26000 3.267
49.28000 3.522
49.30000 0.428
49.32000 0.883
49.34000 -2.175
49.36000 0.434
49.38000 8.390
49.40000 4.577
49.42000 1.540
49.44000 -0.163
49.46000 3.104
49.48000 2.812
49.50000 0.126
49.52000 -2.512
49.54000 -2.726
49.56000 2.826
49.58000 1.072
49.60000 -0.600
49.62000 2.423
49.64000 5.367
49.66000 4.165
49.68000 5.892
49.70000 1.996
49.72000 1.041
49.74000 6.115
49.76000 5.945
49.78000 5.831
49.80000 4.421
49.82000 5.126
49.84000 0.428
49.86000 -2.687
49.88000 1.861
49.90000 3.574
49.92000 5.210
49.94000 3.944
49.96000 3.931
49.98000 5.345
50.00000 7.443
50.02000 3.741
50.04000 3.262
50.06000 -0.483
50.08000 1.539
50.10000 -2.157
50.12000 4.772
50.14000 6.498
50.16000 3.227
50.18000 3.827
50.20000 6.411
50.22000 0.958
50.24000 3.865
50.26000 4.100
50.28000 0.912
50.30000 4.887
50.32000 2.084
50.34000 3.893
50.36000 9.589
50.38000 1.998
50.40000 -2.660
50.42000 0.405
50.44000 -1.591
50.46000 -0.594
50.48000 3.852
50.50000 4.992
50.52000 3.652
50.54000 2.273
50.56000 4.030
50.58000 2.156
50.60000 -2.654
50.62000 -0.256
50.64000 -0.040
50.66000 3.617
50.68000 6.301
50.70000 -0.177
50.72000 -0.897
50.74000 2.430
50.76000 3.523
50.78000 0.351
50.80000 2.781
50.82000 3.467
50.84000 3.693
50.86000 4.349
50.88000 1.531
50.90000 -0.454
50.92000 -0.404
50.94000 -1.513
50.96000 0.971
50.98000 -1.103
51.00000 -0.294
51.02000 0.188
51.04000 1.548
51.06000 -0.370
51.08000 -2.320
51.10000 -0.741
51.12000 -1.272
51.14000 -0.597
51.16000 -1.533
51.18000 0.838
51.20000 3.748
51.22000 -1.113
51.24000 -2.644
51.26000 5.925
51.28000 1.681
51.30000 1.198
51.32000 4.031
51.34000 2.343
51.36000 0.538
51.38000 -0.973
51.40000 -0.501
51.42000 0.566
51.44000 -2.271
51.46000 -1.397
51.48000 -0.671
51.50000 0.422
51.52000 4.719
51.54000 2.153
51.56000 1.950
51.58000 1.989
51.60000 3.900
51.62000 2.856
51.64000 2.001
51.66000 5.793
51.68000 2.149
51.70000 3.256
51.72000 2.298
51.74000 2.539
51.76000 1.697
51.78000 -0.732
51.80000 1.778
51.82000 4.705
51.84000 1.674
51.86000 -1.295
51.88000 -2.604
51.90000 -1.890
51.92000 -0.263
51.94000 -0.269
51.96000 0.378
51.98000 1.886
52.00000 -0.971
52.02000 0.306
52.04000 2.314
52.06000 6.826
52.08000 3.726
52.10000 5.021
52.12000 3.919
52.14000 2.351
52.16000 0.782
52.18000 -0.211
52.20000 -1.423
52.22000 -0.477
52.24000 -2.590
52.26000 3.902
52.28000 4.504
52.30000 2.742
52.32000 2.203
52.34000 1.844
52.36000 3.074
52.38000 5.460
52.40000 4.707
52.42000 -0.736
52.44000 2.024
52.46000 4.642
52.48000 1.797
52.50000 1.499
52.52000 3.176
52.54000 9.118
52.56000 10.926
52.58000 5.507
52.60000 -2.027
52.62000 -1.293
52.64000 1.544
52.66000 1.527
52.68000 3.670
52.70000 2.209
52.72000 4.190
52.74000 4.528
52.76000 2.182
52.78000 2.276
52.80000 0.138
52.82000 -1.316
52.84000 -2.561
52.86000 0.830
52.88000 0.169
52.90000 1.951
52.92000 2.720
52.94000 2.462
52.96000 -0.102
52.98000 0.558
53.00000 7.321
53.02000 4.987
53.04000 1.854
53.06000 1.710
53.08000 3.681
53.10000 4.503
53.12000 1.520
53.14000 0.873
53.16000 1.504
53.18000 3.179
53.20000 -1.052
53.22000 3.711
53.24000 3.946
53.26000 -0.264
53.28000 0.340
53.30000 1.780
53.32000 1.577
53.34000 0.828
53.36000 1.830
53.38000 4.170
53.40000 0.805
53.42000 2.163
53.44000 3.198
53.46000 0.334
53.48000 -2.548
53.50000 -0.351
53.52000 1.769
53.54000 3.409
53.56000 5.274
53.58000 1.877
53.60000 0.747
53.62000 4.897
53.64000 3.551
53.66000 2.578
53.68000 2.542
53.70000 0.475
53.72000 3.302
53.74000 4.020
53.76000 2.309
53.78000 -0.845
53.80000 -2.536
53.82000 -0.889
53.84000 0.650
53.86000 0.215
53.88000 -2.110
53.90000 1.127
53.92000 2.543
53.94000 1.200
53.96000 1.524
53.98000 2.671
54.00000 -1.503
54.02000 -0.513
54.04000 -0.381
54.06000 0.392
54.08000 3.230
54.10000 4.231
54.12000 0.253
54.14000 2.895
54.16000 -0.887
54.18000 -0.108
54.20000 2.545
54.22000 3.512
54.24000 1.250
54.26000 0.065
54.28000 2.029
54.30000 3.322
54.32000 1.521
54.34000 3.464
54.36000 1.183
54.38000 1.709
54.40000 -2.244
54.42000 -1.430
54.44000 -0.060
54.46000 -2.392
54.48000 -2.517
54.50000 1.265
54.52000 1.686
54.54000 4.861
54.56000 2.120
54.58000 2.256
54.60000 1.869
54.62000 1.031
54.64000 -0.456
54.66000 2.475
54.68000 2.115
54.70000 -1.993
54.72000 -1.635
54.74000 1.765
54.76000 2.623
54.78000 -1.129
54.80000 0.312
54.82000 0.858
54.84000 2.090
54.86000 4.119
54.88000 1.099
54.90000 -0.339
54.92000 2.910
54.94000 1.213
54.96000 2.251
54.98000 0.806
55.00000 -0.655
55.02000 0.594
55.04000 -1.055
55.06000 0.531
55.08000 4.594
55.10000 6.399
55.12000 2.079
55.14000 2.660
55.16000 3.748
55.18000 3.178
55.20000 4.843
55.22000 2.088
55.24000 1.527
55.26000 0.653
55.28000 5.526
55.30000 0.311
55.32000 1.834
55.34000 2.419
55.36000 0.952
55.38000 2.927
55.40000 3.775
55.42000 2.721
55.44000 2.729
55.46000 2.454
55.48000 2.647
55.50000 2.936
55.52000 1.432
55.54000 5.149
55.56000 3.955
55.58000 0.144
55.60000 0.845
55.62000 2.077
55.64000 6.841
55.66000 4.559
55.68000 1.507
55.70000 1.145
55.72000 4.315
55.74000 6.910
55.76000 7.579
55.78000 -1.573
55.80000 0.828
55.82000 -2.459
55.84000 0.375
55.86000 1.789
55.88000 3.716
55.90000 2.751
55.92000 5.137
55.94000 5.387
55.96000 5.127
55.98000 2.279
56.00000 1.549
56.02000 2.051
56.04000 0.800
56.06000 0.275
56.08000 -1.178
56.10000 2.237
56.12000 2.722
56.14000 1.408
56.16000 3.094
56.18000 3.421
56.20000 4.601
56.22000 3.820
56.24000 4.024
56.26000 0.579
56.28000 3.848
56.30000 2.039
56.32000 2.493
56.34000 7.995
56.36000 5.413
56.38000 2.471
56.40000 2.669
56.42000 2.759
56.44000 3.165
56.46000 3.416
56.48000 2.241
56.50000 2.253
56.52000 1.811
56.54000 1.575
56.56000 4.097
56.58000 4.069
56.60000 5.655
56.62000 2.749
56.64000 1.020
56.66000 -0.585
56.68000 -0.916
56.70000 1.761
56.72000 1.737
56.74000 0.889
56.76000 1.432
56.78000 3.372
56.80000 3.562
56.82000 2.997
56.84000 2.830
56.86000 2.407
56.88000 1.866
56.90000 3.388
56.92000 1.916
56.94000 4.963
56.96000 7.797
56.98000 3.354
57.00000 3.236
57.02000 3.822
57.04000 7.285
57.06000 2.756
57.08000 0.148
57.10000 2.924
57.12000 4.735
57.14000 2.899
57.16000 -0.832
57.18000 -2.407
57.20000 2.220
57.22000 4.525
57.24000 3.418
57.26000 1.553
57.28000 2.328
57.30000 2.221
57.32000 3.604
57.34000 3.526
57.36000 2.346
57.38000 5.128
57.40000 3.948
57.42000 1.396
57.44000 2.675
57.46000 3.787
57.48000 4.325
57.50000 4.240
57.52000 0.985
57.54000 2.266
57.56000 6.252
57.58000 3.036
57.60000 -0.236
57.62000 0.388
57.64000 2.010
57.66000 5.451
57.68000 4.896
57.70000 3.821
57.72000 4.070
57.74000 6.917
57.76000 3.842
57.78000 5.184
57.80000 3.434
57.82000 3.067
57.84000 7.241
57.86000 8.412
57.88000 5.167
57.90000 4.021
57.92000 2.907
57.94000 -1.738
57.96000 -2.352
57.98000 3.784
58.00000 2.130
58.02000 2.044
58.04000 1.204
58.06000 2.778
58.08000 2.850
58.10000 4.058
58.12000 5.212
58.14000 4.487
58.16000 5.282
58.18000 2.292
58.20000 1.014
58.22000 4.004
58.24000 6.970
58.26000 5.416
58.28000 7.211
58.30000 3.159
58.32000 5.171
58.34000 6.152
58.36000 5.778
58.38000 2.872
58.40000 4.417
58.42000 2.948
58.44000 6.396
58.46000 3.416
58.48000 1.458
58.50000 3.502
58.52000 4.391
58.54000 3.427
58.56000 4.627
58.58000 4.016
58.60000 1.817
58.62000 1.218
58.64000 5.279
58.66000 5.427
58.68000 -0.377
58.70000 1.169
58.72000 -0.269
58.74000 1.944
58.76000 4.384
58.78000 8.218
58.80000 2.316
58.82000 3.494
58.84000 4.079
58.86000 0.741
58.88000 1.601
58.90000 4.772
58.92000 3.225
58.94000 0.386
58.96000 -2.368
58.98000 2.541
59.00000 2.824
59.02000 3.363
59.04000 3.297
59.06000 2.351
59.08000 3.407
59.10000 3.645
59.12000 6.471
59.14000 1.836
59.16000 0.430
59.18000 0.398
59.20000 -0.928
59.22000 0.677
59.24000 2.016
59.26000 4.489
59.28000 3.381
59.30000 1.803
59.32000 2.130
59.34000 -0.570
59.36000 0.234
59.38000 0.038
59.40000 -0.028
59.42000 0.487
59.44000 2.748
59.46000 0.509
59.48000 0.059
59.50000 -0.630
59.52000 5.886
59.54000 3.586
59.56000 -0.557
59.58000 2.547
59.60000 -0.911
59.62000 3.996
59.64000 5.018
59.66000 5.515
59.68000 4.870
59.70000 5.097
59.72000 4.397
59.74000 1.183
59.76000 0.579
59.78000 3.036
59.80000 1.359
59.82000 1.609
59.84000 2.019
59.86000 2.434
59.88000 2.727
59.90000 2.231
59.92000 3.160
59.94000 1.024
59.96000 0.443
59.98000 0.321
60.00000 1.296
60.02000 2.805
60.04000 -2.359
60.06000 1.521
60.08000 0.649
60.10000 0.895
60.12000 1.468
60.14000 1.455
60.16000 -0.603
60.18000 -1.144
60.20000 3.661
60.22000 6.618
60.24000 0.504
60.26000 -0.433
60.28000 1.690
60.30000 1.365
60.32000 1.139
60.34000 1.325
60.36000 1.051
60.38000 2.727
60.40000 5.011
60.42000 6.554
60.44000 3.467
60.46000 4.012
60.48000 4.351
60.50000 6.332
60.52000 5.941
60.54000 6.071
60.56000 2.870
60.58000 5.635
60.60000 0.866
60.62000 1.918
60.64000 0.311
60.66000 3.938
60.68000 1.258
60.70000 1.427
60.72000 4.556
60.74000 1.130
60.76000 -2.299
60.78000 1.698
60.80000 4.893
60.82000 1.283
60.84000 2.025
60.86000 0.121
60.88000 3.767
60.90000 5.734
60.92000 1.357
60.94000 1.754
60.96000 1.273
60.98000 2.575
61.00000 2.865
61.02000 4.363
61.04000 2.699
61.06000 1.370
61.08000 3.704
61.10000 3.823
61.12000 3.512
61.14000 4.350
61.16000 3.570
61.18000 2.856
61.20000 3.919
61.22000 3.120
61.24000 3.397
61.26000 0.716
61.28000 -1.947
61.30000 -1.665
61.32000 0.963
61.34000 -0.308
61.36000 -0.727
61.38000 -1.578
61.40000 2.257
61.42000 2.683
61.44000 2.391
61.46000 2.577
61.48000 -0.190
61.50000 -2.030
61.52000 1.194
61.54000 2.387
61.56000 0.900
61.58000 3.022
61.60000 3.905
61.62000 2.268
61.64000 4.782
61.66000 2.579
61.68000 2.622
61.70000 1.249
61.72000 0.478
61.74000 1.009
61.76000 1.135
61.78000 1.396
61.80000 3.198
61.82000 5.381
61.84000 4.098
61.86000 3.911
61.88000 3.064
61.90000 0.164
61.92000 -2.291
61.94000 -0.652
61.96000 1.220
61.98000 0.284
62.00000 -2.224
62.02000 1.305
62.04000 5.421
62.06000 2.983
62.08000 2.166
62.10000 5.045
62.12000 6.666
62.14000 3.271
62.16000 1.615
62.18000 0.927
62.20000 0.162
62.22000 0.539
62.24000 2.124
62.26000 0.035
62.28000 2.152
62.30000 2.505
62.32000 1.762
62.34000 -0.914
62.36000 4.012
62.38000 4.378
62.40000 2.445
62.42000 3.595
62.44000 -0.213
62.46000 0.327
62.48000 2.275
62.50000 0.417
62.52000 -2.292
62.54000 -1.968
62.56000 -0.346
62.58000 2.948
62.60000 7.144
62.62000 6.508
62.64000 3.065
62.66000 2.928
62.68000 -0.655
62.70000 -1.147
62.72000 3.789
62.74000 3.672
62.76000 1.984
62.78000 1.079
62.80000 -0.447
62.82000 5.886
62.84000 4.422
62.86000 2.616
62.88000 1.220
62.90000 1.514
62.92000 1.860
62.94000 3.533
62.96000 0.931
62.98000 0.785
63.00000 -0.601
63.02000 2.237
63.04000 3.876
63.06000 3.430
63.08000 2.648
63.10000 2.311
63.12000 2.251
63.14000 1.149
63.16000 0.987
63.18000 1.721
63.20000 0.673
63.22000 2.766
63.24000 2.891
63.26000 -2.287
63.28000 0.434
63.30000 4.395
63.32000 0.469
63.34000 -0.192
63.36000 2.557
63.38000 2.740
63.40000 2.937
63.42000 0.612
63.44000 0.704
63.46000 2.858
63.48000 5.620
63.50000 2.850
63.52000 3.748
63.54000 3.413
63.56000 0.767
63.58000 4.129
63.60000 3.568
63.62000 2.942
63.64000 0.089
63.66000 2.093
63.68000 2.210
63.70000 1.184
63.72000 4.733
63.74000 3.098
63.76000 0.283
63.78000 -1.837
63.80000 1.628
63.82000 -0.480
63.84000 -0.413
63.86000 1.006
63.88000 0.716
63.90000 3.332
63.92000 5.475
63.94000 3.171
63.96000 1.989
63.98000 2.034
64.00000 -0.642
64.02000 -0.867
64.04000 -1.679
64.06000 -2.272
64.08000 0.599
64.10000 -0.337
64.12000 1.426
64.14000 3.403
64.16000 3.301
64.18000 3.533
64.20000 5.169
64.22000 1.778
64.24000 -0.135
64.26000 1.246
64.28000 2.534
64.30000 -0.059
64.32000 3.520
64.34000 2.908
64.36000 0.624
64.38000 -0.716
64.40000 -2.274
64.42000 1.122
64.44000 3.505
64.46000 1.908
64.48000 1.275
64.50000 1.796
64.52000 4.277
64.54000 3.021
64.56000 3.173
64.58000 3.015
64.60000 1.392
64.62000 1.503
64.64000 4.162
64.66000 4.737
64.68000 2.098
64.70000 1.025
64.72000 1.127
64.74000 -0.639
64.76000 0.216
64.78000 0.864
64.80000 3.511
64.82000 4.042
64.84000 0.052
64.86000 -1.792
64.88000 1.451
64.90000 1.419
64.92000 3.156
64.94000 3.776
64.96000 0.934
64.98000 -0.607
65.00000 1.355
65.02000 2.831
65.04000 -0.822
65.06000 0.318
65.08000 2.157
65.10000 3.564
65.12000 4.528
65.14000 1.542
65.16000 -0.517
65.18000 -1.112
65.20000 1.014
65.22000 -0.511
65.24000 0.352
65.26000 4.346
65.28000 5.406
65.30000 1.779
65.32000 1.177
65.34000 0.133
65.36000 0.008
65.38000 2.944
65.40000 3.510
65.42000 4.100
65.44000 2.229
65.46000 4.077
65.48000 5.143
65.50000 4.438
65.52000 1.808
65.54000 1.688
65.56000 1.080
65.58000 -2.274
65.60000 0.096
65.62000 2.355
65.64000 3.824
65.66000 2.005
65.68000 3.526
65.70000 3.506
65.72000 0.127
65.74000 -0.832
65.76000 1.900
65.78000 -0.620
65.80000 1.965
65.82000 3.378
65.84000 2.006
65.86000 1.343
65.88000 0.653
65.90000 2.008
65.92000 2.670
65.94000 0.669
65.96000 2.903
65.98000 1.493
66.00000 -0.980
66.02000 2.120
66.04000 1.165
66.06000 2.203
66.08000 1.694
66.10000 0.967
66.12000 -1.538
66.14000 -0.259
66.16000 -0.105
66.18000 1.419
66.20000 3.703
66.22000 2.994
66.24000 0.448
66.26000 -2.307
66.28000 0.363
66.30000 2.467
66.32000 0.642
66.34000 1.242
66.36000 1.335
66.38000 0.396
66.40000 0.603
66.42000 2.547
66.44000 1.861
66.46000 1.675
66.48000 2.941
66.50000 2.755
66.52000 1.495
66.54000 2.188
66.56000 0.456
66.58000 1.924
66.60000 3.776
66.62000 2.609
66.64000 3.071
66.66000 2.177
66.68000 0.148
66.70000 0.765
66.72000 1.704
66.74000 1.874
66.76000 0.584
66.78000 0.084
66.80000 0.160
66.82000 -0.251
66.84000 -1.219
66.86000 0.718
66.88000 1.109
66.90000 1.666
66.92000 -1.169
66.94000 1.324
66.96000 0.037
66.98000 0.278
67.00000 2.679
67.02000 4.971
67.04000 5.760
67.06000 2.843
67.08000 3.202
67.10000 -2.301
67.12000 0.774
67.14000 4.390
67.16000 3.967
67.18000 4.649
67.20000 7.161
67.22000 5.423
67.24000 3.671
67.26000 1.903
67.28000 3.711
67.30000 2.729
67.32000 1.680
67.34000 1.633
67.36000 1.001
67.38000 -2.316
67.40000 2.521
67.42000 5.121
67.44000 3.997
67.46000 5.366
67.48000 8.089
67.50000 3.821
67.52000 1.411
67.54000 0.537
67.56000 1.074
67.58000 4.139
67.60000 2.247
67.62000 2.784
67.64000 4.928
67.66000 6.504
67.68000 1.939
67.70000 1.707
67.72000 2.081
67.74000 3.106
67.76000 4.041
67.78000 3.680
67.80000 5.228
67.82000 6.202
67.84000 5.058
67.86000 3.897
67.88000 7.200
67.90000 6.509
67.92000 5.505
67.94000 6.435
67.96000 7.205
67.98000 6.541
68.00000 4.770
68.02000 7.606
68.04000 9.989
68.06000 9.035
68.08000 10.448
68.10000 10.770
68.12000 13.509
68.14000 12.847
68.16000 11.450
68.18000 11.807
68.20000 14.159
68.22000 12.288
68.24000 8.206
68.26000 11.781
68.28000 16.182
68.30000 16.352
68.32000 11.882
68.34000 12.660
68.36000 16.604
68.38000 16.870
68.40000 15.165
68.42000 17.213
68.44000 21.816
68.46000 21.171
68.48000 20.229
68.50000 21.640
68.52000 23.232
68.54000 25.997
68.56000 27.649
68.58000 28.773
68.60000 28.219
68.62000 29.949
68.64000 31.581
68.66000 31.472
68.68000 31.144
68.70000 33.700
68.72000 33.625
68.74000 33.348
68.76000 34.317
68.78000 31.876
68.80000 31.606
68.82000 35.292
68.84000 37.778
68.86000 35.866
68.88000 35.251
68.90000 34.386
68.92000 34.883
68.94000 32.525
68.96000 33.507
68.98000 32.478
69.00000 32.313
69.02000 37.498
69.04000 34.944
69.06000 32.443
69.08000 32.057
69.10000 30.296
69.12000 30.833
69.14000 26.394
69.16000 27.363
69.18000 27.480
69.20000 23.605
69.22000 23.487
69.24000 20.460
69.26000 18.857
69.28000 24.509
69.30000 19.151
69.32000 18.758
69.34000 18.794
69.36000 17.929
69.38000 19.805
69.40000 21.210
69.42000 16.156
69.44000 13.866
69.46000 17.541
69.48000 18.570
69.50000 11.392
69.52000 10.476
69.54000 10.872
69.56000 10.593
69.58000 11.014
69.60000 12.993
69.62000 11.404
69.64000 9.974
69.66000 7.642
69.68000 8.502
69.70000 5.459
69.72000 4.409
69.74000 2.935
69.76000 4.576
69.78000 5.777
69.80000 5.180
69.82000 6.605
69.84000 4.744
69.86000 2.899
69.88000 3.269
69.90000 7.404
69.92000 3.621
69.94000 1.762
69.96000 1.004
69.98000 4.237
70.00000 2.897
70.02000 2.585
70.04000 2.702
70.06000 1.205
70.08000 3.769
70.10000 4.429
70.12000 0.144
70.14000 2.499
70.16000 2.021
70.18000 1.627
70.20000 2.621
70.22000 2.276
70.24000 0.501
70.26000 1.369
70.28000 1.630
70.30000 1.730
70.32000 0.377
70.34000 -1.159
70.36000 0.700
70.38000 1.716
70.40000 4.697
70.42000 2.713
70.44000 1.611
70.46000 2.489
70.48000 0.847
70.50000 -2.176
70.52000 2.137
70.54000 -1.575
70.56000 1.345
70.58000 2.600
70.60000 -1.857
70.62000 -2.275
70.64000 -0.405
70.66000 1.265
70.68000 2.159
70.70000 2.113
70.72000 -0.433
70.74000 -0.071
70.76000 0.547
70.78000 1.235
70.80000 3.720
70.82000 -1.033
70.84000 -1.841
70.86000 -1.129
70.88000 -0.855
70.90000 -1.351
70.92000 0.660
70.94000 -0.573
70.96000 0.482
70.98000 2.880
71.00000 1.128
71.02000 0.667
71.04000 3.003
71.06000 2.335
71.08000 -0.959
71.10000 -2.237
71.12000 0.324
71.14000 0.518
71.16000 3.467
71.18000 2.248
71.20000 2.470
71.22000 4.228
71.24000 7.396
71.26000 4.385
71.28000 -0.439
71.30000 1.686
71.32000 6.083
71.34000 3.575
71.36000 2.494
71.38000 3.044
71.40000 1.019
71.42000 4.694
71.44000 5.604
71.46000 4.983
71.48000 2.755
71.50000 3.730
71.52000 3.289
71.54000 0.350
71.56000 2.293
71.58000 0.160
71.60000 -2.178
71.62000 -0.196
71.64000 1.376
71.66000 -0.985
71.68000 -1.867
71.70000 -1.210
71.72000 1.300
71.74000 2.687
71.76000 2.157
71.78000 4.022
71.80000 3.314
71.82000 2.723
71.84000 1.975
71.86000 -2.164
71.88000 1.874
71.90000 -0.398
71.92000 1.207
71.94000 0.527
71.96000 5.255
71.98000 5.994
72.00000 6.032
72.02000 3.874
72.04000 1.828
72.06000 1.884
72.08000 0.454
72.10000 1.619
72.12000 0.117
72.14000 -0.721
72.16000 0.961
72.18000 1.750
72.20000 5.921
72.22000 2.469
72.24000 1.734
72.26000 4.925
72.28000 5.131
72.30000 5.028
72.32000 4.924
72.34000 2.518
72.36000 -0.243
72.38000 0.140
72.40000 1.235
72.42000 3.527
72.44000 -0.472
72.46000 -2.135
72.48000 4.867
72.50000 6.932
72.52000 5.766
72.54000 3.330
72.56000 3.080
72.58000 2.323
72.60000 -2.136
72.62000 -0.334
72.64000 -1.068
72.66000 -0.974
72.68000 -1.657
72.70000 -2.048
72.72000 -0.206
72.74000 2.780
72.76000 2.909
72.78000 2.356
72.80000 3.695
72.82000 6.889
72.84000 2.390
72.86000 -1.373
72.88000 -0.206
72.90000 0.296
72.92000 1.055
72.94000 -0.740
72.96000 0.388
72.98000 1.297
73.00000 -0.668
73.02000 -0.274
73.04000 2.135
73.06000 3.445
73.08000 4.023
73.10000 2.279
73.12000 1.302
73.14000 0.718
73.16000 -0.456
73.18000 4.411
73.20000 6.165
73.22000 4.709
73.24000 3.833
73.26000 5.694
73.28000 3.018
73.30000 0.804
73.32000 0.816
73.34000 -1.758
73.36000 0.373
73.38000 2.707
73.40000 3.808
73.42000 0.619
73.44000 3.086
73.46000 2.229
73.48000 -0.062
73.50000 0.624
73.52000 0.613
73.54000 0.634
73.56000 -0.547
73.58000 2.646
73.60000 4.813
73.62000 2.845
73.64000 2.454
73.66000 1.415
73.68000 3.097
73.70000 2.038
73.72000 2.356
73.74000 1.717
73.76000 1.321
73.78000 1.044
73.80000 1.315
73.82000 -0.255
73.84000 -1.148
73.86000 -2.102
73.88000 -0.876
73.90000 5.717
73.92000 4.265
73.94000 3.787
73.96000 1.103
73.98000 4.240
74.00000 2.526
74.02000 2.447
74.04000 4.138
74.06000 2.914
74.08000 3.617
74.10000 4.485
74.12000 6.223
74.14000 7.744
74.16000 5.315
74.18000 1.071
74.20000 0.174
74.22000 3.205
74.24000 5.155
74.26000 5.459
74.28000 4.018
74.30000 -2.080
74.32000 0.302
74.34000 3.401
74.36000 5.911
74.38000 5.780
74.40000 4.536
74.42000 5.376
74.44000 3.891
74.46000 2.295
74.48000 0.814
74.50000 2.668
74.52000 3.049
74.54000 4.803
74.56000 4.253
74.58000 4.328
74.60000 4.301
74.62000 2.036
74.64000 3.075
74.66000 4.147
74.68000 6.911
74.70000 6.043
74.72000 2.659
74.74000 -2.026
74.76000 1.934
74.78000 3.251
74.80000 1.094
74.82000 2.636
74.84000 1.630
74.86000 0.750
74.88000 1.887
74.90000 0.317
74.92000 1.432
74.94000 2.936
74.96000 4.147
74.98000 3.336
75.00000 -1.881
75.02000 4.227
75.04000 6.943
75.06000 3.398
75.08000 3.821
75.10000 2.036
75.12000 0.051
75.14000 1.659
75.16000 1.637
75.18000 3.691
75.20000 2.469
75.22000 1.848
75.24000 -0.513
75.26000 0.255
75.28000 0.030
75.30000 -1.529
75.32000 0.737
75.34000 1.393
75.36000 1.283
75.38000 0.755
75.40000 4.380
75.42000 3.883
75.44000 3.057
75.46000 3.064
75.48000 4.455
75.50000 2.734
75.52000 -1.364
75.54000 -1.711
75.56000 -2.117
75.58000 1.784
75.60000 3.656
75.62000 2.363
75.64000 2.561
75.66000 2.085
75.68000 0.350
75.70000 2.060
75.72000 2.769
75.74000 5.788
75.76000 8.094
75.78000 5.398
75.80000 2.262
75.82000 2.465
75.84000 1.677
75.86000 1.486
75.88000 1.885
75.90000 5.644
75.92000 0.143
75.94000 -2.119
75.96000 0.668
75.98000 3.798
76.00000 3.752
76.02000 1.056
76.04000 1.319
76.06000 3.175
76.08000 5.782
76.10000 3.493
76.12000 2.398
76.14000 2.164
76.16000 1.638
76.18000 5.138
76.20000 5.566
76.22000 4.711
76.24000 2.959
76.26000 1.443
76.28000 -0.209
76.30000 0.652
76.32000 -0.546
76.34000 3.760
76.36000 4.582
76.38000 1.784
76.40000 -1.370
76.42000 1.288
76.44000 -1.376
76.46000 0.484
76.48000 2.235
76.50000 0.890
76.52000 0.893
76.54000 2.484
76.56000 3.654
76.58000 3.227
76.60000 1.998
76.62000 1.676
76.64000 0.717
76.66000 -0.758
76.68000 -1.167
76.70000 1.069
76.72000 0.114
76.74000 1.388
76.76000 4.941
76.78000 0.250
76.80000 0.773
76.82000 1.568
76.84000 1.588
76.86000 4.824
76.88000 6.766
76.90000 4.887
76.92000 5.692
76.94000 3.058
76.96000 1.125
76.98000 4.989
77.00000 3.930
77.02000 1.586
77.04000 2.882
77.06000 2.494
77.08000 1.832
77.10000 -2.118
77.12000 1.312
77.14000 3.897
77.16000 3.070
77.18000 4.582
77.20000 4.084
77.22000 1.726
77.24000 3.089
77.26000 6.131
77.28000 3.984
77.30000 4.956
77.32000 3.652
77.34000 6.283
77.36000 7.170
77.38000 4.876
77.40000 1.549
77.42000 1.924
77.44000 3.628
77.46000 3.967
77.48000 0.460
77.50000 1.059
77.52000 0.758
77.54000 -0.377
77.56000 0.854
77.58000 2.409
77.60000 1.984
77.62000 2.176
77.64000 -0.084
77.66000 0.919
77.68000 3.404
77.70000 3.355
77.72000 3.776
77.74000 3.066
77.76000 3.381
77.78000 2.137
77.80000 1.922
77.82000 5.172
77.84000 4.778
77.86000 5.167
77.88000 1.576
77.90000 3.845
77.92000 0.214
77.94000 2.642
77.96000 4.267
77.98000 3.044
78.00000 1.663
78.02000 -0.794
78.04000 2.686
78.06000 -1.055
78.08000 1.266
78.10000 8.167
78.12000 5.907
78.14000 5.916
78.16000 4.440
78.18000 3.201
78.20000 4.562
78.22000 2.856
78.24000 3.083
78.26000 4.418
78.28000 0.908
78.30000 -1.443
78.32000 -2.110
78.34000 1.509
78.36000 -0.084
78.38000 0.478
78.40000 5.121
78.42000 6.655
78.44000 3.697
78.46000 0.514
78.48000 2.676
78.50000 4.940
78.52000 5.841
78.54000 4.036
78.56000 6.081
78.58000 2.471
78.60000 0.883
78.62000 4.776
78.64000 7.862
78.66000 5.911
78.68000 6.203
78.70000 4.905
78.72000 4.562
78.74000 6.374
78.76000 3.985
78.78000 7.858
78.80000 5.103
78.82000 1.941
78.84000 3.451
78.86000 3.936
78.88000 2.866
78.90000 5.071
78.92000 5.080
78.94000 8.049
78.96000 8.254
78.98000 2.905
79.00000 6.368
79.02000 3.942
79.04000 2.878
79.06000 5.168
79.08000 2.101
79.10000 1.348
79.12000 1.847
79.14000 3.788
79.16000 0.798
79.18000 -2.133
79.20000 -0.213
79.22000 4.561
79.24000 8.259
79.26000 4.208
79.28000 2.360
79.30000 3.507
79.32000 4.860
79.34000 3.928
79.36000 0.650
79.38000 6.589
79.40000 3.621
79.42000 5.507
79.44000 7.474
79.46000 1.269
79.48000 -1.749
79.50000 3.096
79.52000 3.098
79.54000 3.675
79.56000 10.590
79.58000 11.112
79.60000 3.751
79.62000 1.522
79.64000 4.754
79.66000 4.659
79.68000 5.497
79.70000 5.746
79.72000 7.844
79.74000 8.269
79.76000 3.400
79.78000 1.483
79.80000 1.425
79.82000 -2.141
79.84000 -1.929
79.86000 0.610
79.88000 2.974
79.90000 4.446
79.92000 7.574
79.94000 8.394
79.96000 2.629
79.98000 2.381
80.00000 3.525
80.02000 6.713
80.04000 6.547
80.06000 4.876
80.08000 1.142
80.10000 0.297
80.12000 -2.132
80.14000 2.164
80.16000 3.887
80.18000 3.769
80.20000 1.671
80.22000 4.078
80.24000 3.067
80.26000 4.799
80.28000 4.304
80.30000 2.259
80.32000 6.517
80.34000 2.959
80.36000 2.130
80.38000 2.339
80.40000 5.984
80.42000 6.823
80.44000 7.354
80.46000 6.955
80.48000 3.395
80.50000 2.685
80.52000 5.556
80.54000 5.971
80.56000 4.650
80.58000 1.390
80.60000 -0.528
80.62000 -1.613
80.64000 -2.223
80.66000 -1.691
80.68000 -2.226
80.70000 -0.747
80.72000 -1.081
80.74000 0.209
80.76000 1.183
80.78000 2.376
80.80000 4.812
80.82000 3.472
80.84000 2.488
80.86000 5.229
80.88000 2.689
80.90000 4.075
80.92000 3.800
80.94000 1.607
80.96000 2.993
80.98000 3.690
81.00000 -2.004
81.02000 1.920
81.04000 0.171
81.06000 4.205
81.08000 2.245
81.10000 3.811
81.12000 1.688
81.14000 5.356
81.16000 3.107
81.18000 4.046
81.20000 5.117
81.22000 5.835
81.24000 4.330
81.26000 3.142
81.28000 -2.254
81.30000 1.718
81.32000 6.428
81.34000 5.871
81.36000 5.343
81.38000 3.179
81.40000 -1.599
81.42000 1.471
81.44000 4.617
81.46000 5.169
81.48000 8.278
81.50000 9.019
81.52000 5.799
81.54000 3.018
81.56000 1.710
81.58000 3.582
81.60000 4.991
81.62000 5.136
81.64000 3.148
81.66000 4.679
81.68000 3.799
81.70000 6.931
81.72000 5.299
81.74000 6.768
81.76000 7.857
81.78000 6.876
81.80000 5.982
81.82000 4.437
81.84000 6.902
81.86000 4.912
81.88000 2.126
81.90000 6.565
81.92000 9.406
81.94000 8.736
81.96000 7.141
81.98000 1.795
82.00000 6.873
82.02000 9.283
82.04000 8.212
82.06000 7.519
82.08000 6.782
82.10000 11.048
82.12000 12.134
82.14000 9.631
82.16000 12.043
82.18000 15.329
82.20000 10.790
82.22000 11.679
82.24000 12.474
82.26000 13.488
82.28000 12.199
82.30000 14.238
82.32000 14.608
82.34000 17.885
82.36000 17.702
82.38000 16.788
82.40000 19.285
82.42000 20.567
82.44000 22.958
82.46000 27.350
82.48000 24.990
82.50000 23.704
82.52000 24.981
82.54000 27.426
82.56000 30.929
82.58000 29.669
82.60000 31.971
82.62000 34.824
82.64000 34.630
82.66000 33.223
82.68000 38.908
82.70000 43.053
82.72000 40.053
82.74000 41.953
82.76000 40.081
82.78000 37.040
82.80000 43.346
82.82000 48.309
82.84000 44.298
82.86000 47.031
82.88000 47.806
82.90000 44.603
82.92000 47.399
82.94000 53.270
82.96000 47.771
82.98000 47.261
83.00000 53.816
83.02000 56.075
83.04000 50.756
83.06000 48.517
83.08000 51.979
83.10000 52.579
83.12000 54.698
83.14000 57.012
83.16000 59.272
83.18000 58.346
83.20000 56.089
83.22000 58.960
83.24000 51.992
83.26000 47.968
83.28000 49.875
83.30000 54.685
83.32000 50.273
83.34000 45.998
83.36000 50.503
83.38000 53.565
83.40000 47.194
83.42000 43.774
83.44000 38.433
83.46000 34.011
83.48000 32.552
83.50000 35.627
83.52000 42.281
83.54000 37.491
83.56000 37.974
83.58000 36.944
83.60000 33.612
83.62000 32.932
83.64000 34.038
83.66000 30.911
83.68000 27.160
83.70000 26.023
83.72000 27.230
83.74000 25.158
83.76000 22.695
83.78000 20.242
83.80000 21.547
83.82000 20.754
83.84000 20.220
83.86000 19.042
83.88000 15.169
83.90000 14.638
83.92000 15.598
83.94000 14.590
83.96000 16.767
83.98000 15.461
84.00000 10.486
84.02000 9.202
84.04000 8.898
84.06000 7.788
84.08000 6.070
84.10000 4.542
84.12000 5.434
84.14000 10.207
84.16000 12.727
84.18000 11.880
84.20000 9.780
84.22000 10.184
84.24000 7.139
84.26000 4.742
84.28000 5.108
84.30000 6.136
84.32000 3.150
84.34000 1.823
84.36000 4.330
84.38000 4.067
84.40000 0.383
84.42000 2.964
84.44000 5.484
84.46000 -0.790
84.48000 -0.531
84.50000 1.811
84.52000 2.799
84.54000 2.153
84.56000 6.149
84.58000 4.497
84.60000 8.576
84.62000 2.694
84.64000 2.821
84.66000 2.104
84.68000 -0.786
84.70000 2.111
84.72000 2.515
84.74000 -1.536
84.76000 -0.755
84.78000 3.316
84.80000 6.177
84.82000 4.308
84.84000 0.731
84.86000 1.171
84.88000 1.602
84.90000 2.205
84.92000 2.229
84.94000 0.433
84.96000 1.296
84.98000 0.866
85.00000 -1.024
85.02000 1.792
85.04000 -2.257
85.06000 -1.966
85.08000 2.865
85.10000 2.657
85.12000 -1.981
85.14000 -0.521
85.16000 -2.102
85.18000 -1.017
85.20000 1.632
85.22000 6.221
85.24000 6.685
85.26000 -0.124
85.28000 -0.919
85.30000 -1.118
85.32000 1.762
85.34000 3.036
85.36000 1.747
85.38000 1.084
85.40000 0.058
85.42000 0.993
85.44000 1.015
85.46000 0.122
85.48000 -0.837
85.50000 1.791
85.52000 0.768
85.54000 3.498
85.56000 1.767
85.58000 5.813
85.60000 0.618
85.62000 -0.707
85.64000 2.927
85.66000 2.938
85.68000 -2.217
85.70000 -0.233
85.72000 0.827
85.74000 3.830
85.76000 3.994
85.78000 0.691
85.80000 3.000
85.82000 4.689
85.84000 1.963
85.86000 0.251
85.88000 2.768
85.90000 4.102
85.92000 4.078
85.94000 4.083
85.96000 4.311
85.98000 0.323
86.00000 2.770
86.02000 3.360
86.04000 0.823
86.06000 -0.852
86.08000 0.509
86.10000 -1.165
86.12000 2.165
86.14000 2.789
86.16000 4.704
86.18000 5.109
86.20000 1.964
86.22000 -1.929
86.24000 -1.392
86.26000 0.322
86.28000 1.022
86.30000 1.095
86.32000 -0.474
86.34000 -2.231
86.36000 2.573
86.38000 6.214
86.40000 4.297
86.42000 6.126
86.44000 5.184
86.46000 7.259
86.48000 9.247
86.50000 9.173
86.52000 9.965
86.54000 7.293
86.56000 3.622
86.58000 0.966
86.60000 5.150
86.62000 6.546
86.64000 6.032
86.66000 7.565
86.68000 5.692
86.70000 8.861
86.72000 8.485
86.74000 8.673
86.76000 7.076
86.78000 6.361
86.80000 8.521
86.82000 8.248
86.84000 10.362
86.86000 8.446
86.88000 7.067
86.90000 8.708
86.92000 11.747
86.94000 13.541
86.96000 14.444
86.98000 18.709
87.00000 21.167
87.02000 14.627
87.04000 15.127
87.06000 16.815
87.08000 20.353
87.10000 17.789
87.12000 17.186
87.14000 19.008
87.16000 20.785
87.18000 18.447
87.20000 19.056
87.22000 20.164
87.24000 22.624
87.26000 23.930
87.28000 24.177
87.30000 24.924
87.32000 27.344
87.34000 24.386
87.36000 21.707
87.38000 26.542
87.40000 31.591
87.42000 29.940
87.44000 29.042
87.46000 28.226
87.48000 25.247
87.50000 27.512
87.52000 31.094
87.54000 31.855
87.56000 29.076
87.58000 31.382
87.60000 29.542
87.62000 31.707
87.64000 29.580
87.66000 36.832
87.68000 29.923
87.70000 25.392
87.72000 25.136
87.74000 31.640
87.76000 29.142
87.78000 28.227
87.80000 24.616
87.82000 24.489
87.84000 25.015
87.86000 23.684
87.88000 23.104
87.90000 23.654
87.92000 21.913
87.94000 20.373
87.96000 19.207
87.98000 25.916
88.00000 24.965
88.02000 23.613
88.04000 20.418
88.06000 18.272
88.08000 19.373
88.10000 18.682
88.12000 17.937
88.14000 17.618
88.16000 19.545
88.18000 21.584
88.20000 20.965
88.22000 18.553
88.24000 12.402
88.26000 13.337
88.28000 12.920
88.30000 12.214
88.32000 12.270
88.34000 13.615
88.36000 15.872
88.38000 12.306
88.40000 6.896
88.42000 6.295
88.44000 8.280
88.46000 7.592
88.48000 10.097
88.50000 11.166
88.52000 7.518
88.54000 5.479
88.56000 8.310
88.58000 11.640
88.60000 7.564
88.62000 1.525
88.64000 4.112
88.66000 5.732
88.68000 5.309
88.70000 4.080
88.72000 4.971
88.74000 6.408
88.76000 5.213
88.78000 3.338
88.80000 5.159
88.82000 8.765
88.84000 4.871
88.86000 3.326
88.88000 3.472
88.90000 6.135
88.92000 3.737
88.94000 2.303
88.96000 -1.774
88.98000 0.971
89.00000 5.167
89.02000 3.409
89.04000 -0.107
89.06000 4.065
89.08000 2.045
89.10000 4.161
89.12000 5.937
89.14000 4.770
89.16000 2.759
89.18000 4.733
89.20000 0.233
89.22000 0.719
89.24000 2.752
89.26000 2.237
89.28000 3.101
89.30000 1.710
89.32000 -2.047
89.34000 0.668
89.36000 1.714
89.38000 0.966
89.40000 4.293
89.42000 2.172
89.44000 -1.153
89.46000 -0.020
89.48000 1.257
89.50000 3.006
89.52000 3.176
89.54000 1.933
89.56000 2.670
89.58000 2.649
89.60000 4.640
89.62000 -0.275
89.64000 3.464
89.66000 1.541
89.68000 3.942
89.70000 4.177
89.72000 4.398
89.74000 0.428
89.76000 3.417
89.78000 5.770
89.80000 9.304
89.82000 7.314
89.84000 4.555
89.86000 1.259
89.88000 5.143
89.90000 3.340
89.92000 0.288
89.94000 -0.662
89.96000 -2.039
89.98000 -1.360
90.00000 0.162
90.02000 -1.417
90.04000 -1.954
90.06000 1.751
90.08000 2.185
90.10000 2.272
90.12000 -2.037
90.14000 -0.962
90.16000 2.588
90.18000 5.562
90.20000 4.020
90.22000 -0.662
90.24000 2.467
90.26000 3.989
90.28000 0.678
90.30000 1.193
90.32000 1.838
90.34000 2.551
90.36000 0.055
90.38000 -2.045
90.40000 4.732
90.42000 2.462
90.44000 -0.044
90.46000 2.591
90.48000 2.597
90.50000 -0.533
90.52000 1.186
90.54000 0.029
90.56000 -1.735
90.58000 -0.377
90.60000 0.123
90.62000 1.479
90.64000 4.672
90.66000 1.591
90.68000 2.213
90.70000 1.595
90.72000 0.744
90.74000 0.742
90.76000 1.556
90.78000 1.858
90.80000 -0.688
90.82000 -2.045
90.84000 2.758
90.86000 4.781
90.88000 0.450
90.90000 -0.603
90.92000 2.887
90.94000 0.277
90.96000 -0.533
90.98000 1.315
91.00000 0.453
91.02000 3.611
91.04000 2.398
91.06000 0.081
91.08000 0.716
91.10000 4.372
91.12000 2.251
91.14000 3.164
91.16000 6.427
91.18000 5.091
91.20000 3.792
91.22000 1.258
91.24000 2.459
91.26000 1.597
91.28000 -0.598
91.30000 -0.067
91.32000 1.852
91.34000 1.939
91.36000 0.019
91.38000 0.831
91.40000 3.742
91.42000 2.257
91.44000 2.161
91.46000 0.791
91.48000 -2.031
91.50000 0.406
91.52000 1.232
91.54000 0.392
91.56000 -1.105
91.58000 -0.743
91.60000 1.070
91.62000 4.382
91.64000 2.208
91.66000 0.943
91.68000 -1.184
91.70000 -1.176
91.72000 -0.732
91.74000 -0.926
91.76000 -0.467
91.78000 -0.779
91.80000 0.641
91.82000 1.173
91.84000 4.472
91.86000 1.229
91.88000 3.391
91.90000 0.382
91.92000 2.404
91.94000 0.207
91.96000 -0.850
91.98000 2.548
92.00000 4.031
92.02000 1.069
92.04000 -0.243
92.06000 3.111
92.08000 3.252
92.10000 3.189
92.12000 -1.969
92.14000 -0.212
92.16000 0.914
92.18000 3.419
92.20000 3.296
92.22000 3.872
92.24000 0.288
92.26000 -1.861
92.28000 -0.763
92.30000 -1.841
92.32000 -1.468
92.34000 -1.445
92.36000 -0.814
92.38000 4.321
92.40000 2.170
92.42000 1.401
92.44000 2.469
92.46000 1.185
92.48000 0.622
92.50000 0.759
92.52000 1.757
92.54000 4.309
92.56000 4.353
92.58000 4.239
92.60000 0.376
92.62000 1.484
92.64000 2.000
92.66000 -1.133
92.68000 0.087
92.70000 1.587
92.72000 5.395
92.74000 5.553
92.76000 4.410
92.78000 7.754
92.80000 3.777
92.82000 4.841
92.84000 6.767
92.86000 2.674
92.88000 4.011
92.90000 0.971
92.92000 3.757
92.94000 1.083
92.96000 2.520
92.98000 5.067
93.00000 2.531
93.02000 2.051
93.04000 2.328
93.06000 3.664
93.08000 4.534
93.10000 5.879
93.12000 4.414
93.14000 6.454
93.16000 0.552
93.18000 -1.985
93.20000 -0.401
93.22000 1.421
93.24000 3.045
93.26000 4.707
93.28000 2.174
93.30000 1.144
93.32000 2.480
93.34000 0.667
93.36000 1.082
93.38000 4.862
93.40000 4.700
93.42000 3.108
93.44000 1.433
93.46000 1.695
93.48000 6.268
93.50000 3.508
93.52000 1.449
93.54000 9.389
93.56000 8.355
93.58000 2.095
93.60000 3.895
93.62000 5.262
93.64000 1.998
93.66000 1.919
93.68000 3.137
93.70000 4.417
93.72000 -0.564
93.74000 -2.011
93.76000 0.853
93.78000 2.410
93.80000 2.358
93.82000 4.157
93.84000 4.895
93.86000 5.769
93.88000 5.599
93.90000 2.450
93.92000 0.659
93.94000 2.577
93.96000 2.880
93.98000 2.131
94.00000 2.810
94.02000 3.912
94.04000 2.734
94.06000 0.157
94.08000 -0.912
94.10000 1.032
94.12000 -1.946
94.14000 1.765
94.16000 2.887
94.18000 3.138
94.20000 6.286
94.22000 6.252
94.24000 3.952
94.26000 2.848
94.28000 2.997
94.30000 1.563
94.32000 1.425
94.34000 1.811
94.36000 1.400
94.38000 3.272
94.40000 0.832
94.42000 -0.627
94.44000 -0.312
94.46000 1.412
94.48000 3.653
94.50000 2.937
94.52000 3.642
94.54000 0.811
94.56000 -0.098
94.58000 0.379
94.60000 3.243
94.62000 4.639
94.64000 3.318
94.66000 6.590
94.68000 3.073
94.70000 1.376
94.72000 2.530
94.74000 2.889
94.76000 3.791
94.78000 -2.038
94.80000 -0.618
94.82000 6.133
94.84000 9.552
94.86000 6.035
94.88000 6.703
94.90000 7.708
94.92000 5.194
94.94000 2.271
94.96000 -0.202
94.98000 1.322
95.00000 2.320
95.02000 1.416
95.04000 3.269
95.06000 4.587
95.08000 2.523
95.10000 -1.524
95.12000 -1.345
95.14000 6.961
95.16000 5.731
95.18000 4.202
95.20000 5.704
95.22000 2.709
95.24000 0.870
95.26000 5.411
95.28000 6.406
95.30000 5.186
95.32000 4.937
95.34000 -0.106
95.36000 1.203
95.38000 2.945
95.40000 3.295
95.42000 2.479
95.44000 0.433
95.46000 1.985
95.48000 3.347
95.50000 6.567
95.52000 3.997
95.54000 1.410
95.56000 3.028
95.58000 0.953
95.60000 -0.643
95.62000 1.446
95.64000 0.040
95.66000 -0.310
95.68000 5.606
95.70000 4.303
95.72000 0.267
95.74000 3.303
95.76000 3.155
95.78000 1.125
95.80000 1.504
95.82000 3.943
95.84000 2.550
95.86000 0.255
95.88000 1.415
95.90000 4.757
95.92000 5.508
95.94000 6.251
95.96000 7.066
95.98000 2.888
96.00000 0.648
96.02000 6.934
96.04000 9.944
96.06000 7.473
96.08000 7.216
96.10000 6.967
96.12000 8.515
96.14000 8.584
96.16000 3.298
96.18000 3.836
96.20000 4.334
96.22000 5.289
96.24000 4.026
96.26000 0.003
96.28000 -2.005
96.30000 3.816
96.32000 1.817
96.34000 0.655
96.36000 5.117
96.38000 4.232
96.40000 4.534
96.42000 4.728
96.44000 6.269
96.46000 9.009
96.48000 4.467
96.50000 4.826
96.52000 4.841
96.54000 4.710
96.56000 4.517
96.58000 5.335
96.60000 6.332
96.62000 4.194
96.64000 1.502
96.66000 2.643
96.68000 0.816
96.70000 3.268
96.72000 1.965
96.74000 0.766
96.76000 3.685
96.78000 -1.428
96.80000 -1.874
96.82000 3.760
96.84000 5.750
96.86000 9.158
96.88000 8.920
96.90000 5.889
96.92000 -0.516
96.94000 0.859
96.96000 1.880
96.98000 -0.053
97.00000 -1.734
97.02000 2.488
97.04000 3.362
97.06000 1.600
97.08000 1.743
97.10000 0.917
97.12000 -2.035
97.14000 2.229
97.16000 5.016
97.18000 4.259
97.20000 3.731
97.22000 5.878
97.24000 1.696
97.26000 7.670
97.28000 6.549
97.30000 1.351
97.32000 1.268
97.34000 6.027
97.36000 3.086
97.38000 4.566
97.40000 6.828
97.42000 3.708
97.44000 0.800
97.46000 1.844
97.48000 5.335
97.50000 3.524
97.52000 4.001
97.54000 -0.697
97.56000 1.336
97.58000 7.042
97.60000 2.991
97.62000 2.667
97.64000 2.370
97.66000 -1.971
97.68000 0.653
97.70000 4.234
97.72000 1.753
97.74000 3.092
97.76000 0.776
97.78000 1.515
97.80000 3.654
97.82000 3.868
97.84000 4.087
97.86000 2.304
97.88000 0.504
97.90000 -2.015
97.92000 6.170
97.94000 8.187
97.96000 1.993
97.98000 3.470
98.00000 7.901
98.02000 9.279
98.04000 6.068
98.06000 2.503
98.08000 4.265
98.10000 2.800
98.12000 1.322
98.14000 3.903
98.16000 7.990
98.18000 10.749
98.20000 15.399
98.22000 6.266
98.24000 4.148
98.26000 7.521
98.28000 6.102
98.30000 5.293
98.32000 3.516
98.34000 5.472
98.36000 1.879
98.38000 -1.994
98.40000 2.544
98.42000 2.638
98.44000 0.951
98.46000 5.142
98.48000 1.635
98.50000 8.118
98.52000 9.176
98.54000 7.554
98.56000 2.957
98.58000 4.245
98.60000 7.045
98.62000 3.906
98.64000 8.614
98.66000 3.209
98.68000 -1.274
98.70000 -1.644
98.72000 -0.385
98.74000 4.242
98.76000 5.091
98.78000 8.940
98.80000 5.806
98.82000 1.683
98.84000 -1.091
98.86000 0.783
98.88000 4.540
98.90000 5.728
98.92000 8.134
98.94000 7.523
98.96000 6.940
98.98000 -0.240
99.00000 -0.517
99.02000 -0.214
99.04000 10.517
99.06000 4.793
99.08000 -1.973
99.10000 4.145
99.12000 9.174
99.14000 2.283
99.16000 -1.772
99.18000 0.326
99.20000 8.324
99.22000 2.200
99.24000 1.266
99.26000 7.027
99.28000 2.542
99.30000 1.750
99.32000 7.847
99.34000 6.517
99.36000 2.989
99.38000 4.229
99.40000 4.580
99.42000 4.127
99.44000 10.007
99.46000 8.002
99.48000 1.701
99.50000 15.523
99.52000 10.372
99.54000 7.763
99.56000 2.643
99.58000 6.382
99.60000 3.073
99.62000 0.414
99.64000 8.171
99.66000 2.880
99.68000 9.099
99.70000 -2.165
99.72000 0.763
99.74000 8.027
99.76000 1.427
99.78000 7.257
99.80000 11.676
99.82000 12.352
99.84000 6.522
99.86000 1.744
99.88000 6.116
99.90000 5.240
99.92000 1.376
99.94000 4.436
99.96000 4.184
99.98000 0.000
