'Id: "0011388" Comment: "Integrate frame 0011388_Au-Ir-Rh_Rh-rich_XRD-Mapping-104-0000.gfrmwith cursor Wedge Cursor #5" Operator: "B?rgel" Anode: "Cu" Wavelength: "1.5406" Scantype: "2Theta (TwoTheta)" TimePerStep: "1" X: "0" Y: "-13.5" Z: "5.95" 
10.00000 0.000
10.02000 1.184
10.04000 -4.169
10.06000 -2.972
10.08000 -1.983
10.10000 -0.525
10.12000 5.859
10.14000 -0.733
10.16000 1.436
10.18000 14.833
10.20000 -4.675
10.22000 3.332
10.24000 5.975
10.26000 18.980
10.28000 25.158
10.30000 27.429
10.32000 28.229
10.34000 15.835
10.36000 14.713
10.38000 23.701
10.40000 14.520
10.42000 24.737
10.44000 13.397
10.46000 18.111
10.48000 4.244
10.50000 -4.077
10.52000 -0.030
10.54000 8.915
10.56000 23.077
10.58000 27.762
10.60000 24.601
10.62000 17.745
10.64000 29.716
10.66000 34.421
10.68000 29.429
10.70000 14.447
10.72000 27.966
10.74000 35.203
10.76000 18.601
10.78000 13.490
10.80000 5.128
10.82000 14.293
10.84000 28.771
10.86000 20.751
10.88000 17.048
10.90000 22.468
10.92000 10.992
10.94000 21.723
10.96000 26.214
10.98000 23.482
11.00000 15.212
11.02000 26.852
11.04000 14.510
11.06000 11.170
11.08000 18.207
11.10000 22.280
11.12000 31.522
11.14000 37.937
11.16000 27.092
11.18000 9.414
11.20000 5.337
11.22000 6.786
11.24000 7.125
11.26000 18.276
11.28000 20.127
11.30000 16.935
11.32000 19.143
11.34000 14.405
11.36000 14.727
11.38000 21.286
11.40000 24.803
11.42000 11.610
11.44000 12.052
11.46000 14.442
11.48000 10.041
11.50000 10.488
11.52000 11.575
11.54000 16.995
11.56000 20.705
11.58000 19.290
11.60000 25.022
11.62000 23.876
11.64000 10.874
11.66000 13.271
11.68000 15.991
11.70000 20.494
11.72000 19.408
11.74000 14.089
11.76000 23.327
11.78000 23.937
11.80000 17.743
11.82000 15.099
11.84000 13.585
11.86000 7.067
11.88000 16.459
11.90000 13.663
11.92000 13.426
11.94000 23.545
11.96000 18.746
11.98000 30.209
12.00000 30.973
12.02000 9.050
12.04000 9.093
12.06000 21.077
12.08000 20.845
12.10000 19.653
12.12000 12.163
12.14000 17.291
12.16000 15.997
12.18000 9.232
12.20000 18.392
12.22000 25.052
12.24000 26.855
12.26000 27.444
12.28000 15.797
12.30000 26.953
12.32000 24.343
12.34000 10.676
12.36000 14.351
12.38000 17.612
12.40000 13.520
12.42000 14.391
12.44000 9.560
12.46000 15.444
12.48000 10.257
12.50000 5.027
12.52000 14.150
12.54000 20.158
12.56000 22.450
12.58000 23.140
12.60000 14.215
12.62000 7.351
12.64000 8.661
12.66000 14.774
12.68000 12.281
12.70000 0.056
12.72000 9.974
12.74000 20.363
12.76000 16.852
12.78000 11.384
12.80000 19.960
12.82000 28.255
12.84000 32.038
12.86000 24.203
12.88000 15.366
12.90000 10.068
12.92000 17.747
12.94000 18.425
12.96000 19.359
12.98000 13.181
13.00000 5.493
13.02000 9.680
13.04000 14.354
13.06000 19.459
13.08000 19.347
13.10000 26.788
13.12000 20.769
13.14000 26.365
13.16000 25.140
13.18000 12.235
13.20000 22.386
13.22000 23.530
13.24000 13.662
13.26000 19.999
13.28000 21.141
13.30000 16.889
13.32000 15.068
13.34000 2.720
13.36000 11.591
13.38000 14.650
13.40000 14.764
13.42000 17.116
13.44000 14.935
13.46000 10.087
13.48000 10.161
13.50000 19.451
13.52000 29.098
13.54000 21.405
13.56000 21.538
13.58000 16.997
13.60000 17.049
13.62000 9.228
13.64000 8.242
13.66000 12.311
13.68000 16.898
13.70000 19.420
13.72000 18.905
13.74000 1.816
13.76000 1.260
13.78000 8.957
13.80000 15.009
13.82000 14.753
13.84000 21.647
13.86000 12.480
13.88000 8.955
13.90000 17.977
13.92000 20.630
13.94000 15.316
13.96000 10.414
13.98000 10.690
14.00000 13.699
14.02000 9.256
14.04000 3.161
14.06000 11.186
14.08000 18.343
14.10000 16.794
14.12000 11.467
14.14000 8.424
14.16000 4.742
14.18000 0.298
14.20000 -0.276
14.22000 2.685
14.24000 12.430
14.26000 12.080
14.28000 16.812
14.30000 15.183
14.32000 21.732
14.34000 14.157
14.36000 12.429
14.38000 16.871
14.40000 6.687
14.42000 4.718
14.44000 5.304
14.46000 7.036
14.48000 7.904
14.50000 5.443
14.52000 6.428
14.54000 10.319
14.56000 9.307
14.58000 10.619
14.60000 13.520
14.62000 7.287
14.64000 6.404
14.66000 2.028
14.68000 -2.075
14.70000 -3.050
14.72000 -4.419
14.74000 0.087
14.76000 7.294
14.78000 7.579
14.80000 13.723
14.82000 12.321
14.84000 8.643
14.86000 8.946
14.88000 6.385
14.90000 5.462
14.92000 -0.132
14.94000 8.439
14.96000 5.066
14.98000 6.548
15.00000 12.908
15.02000 5.240
15.04000 5.583
15.06000 11.525
15.08000 14.124
15.10000 13.651
15.12000 14.191
15.14000 8.817
15.16000 5.481
15.18000 10.727
15.20000 13.248
15.22000 -0.243
15.24000 1.416
15.26000 7.523
15.28000 8.124
15.30000 17.446
15.32000 13.259
15.34000 0.993
15.36000 1.310
15.38000 1.298
15.40000 6.825
15.42000 -0.031
15.44000 3.945
15.46000 8.019
15.48000 6.570
15.50000 14.787
15.52000 12.147
15.54000 10.006
15.56000 5.363
15.58000 1.692
15.60000 -1.221
15.62000 -4.136
15.64000 -3.694
15.66000 -1.354
15.68000 4.812
15.70000 7.166
15.72000 2.006
15.74000 2.673
15.76000 4.395
15.78000 6.092
15.80000 -0.783
15.82000 0.306
15.84000 10.630
15.86000 11.542
15.88000 5.688
15.90000 -4.353
15.92000 -3.107
15.94000 -1.457
15.96000 3.374
15.98000 7.349
16.00000 6.078
16.02000 9.332
16.04000 3.843
16.06000 5.911
16.08000 7.643
16.10000 6.604
16.12000 7.510
16.14000 9.684
16.16000 8.853
16.18000 6.697
16.20000 1.549
16.22000 7.172
16.24000 4.867
16.26000 4.081
16.28000 -2.818
16.30000 -1.986
16.32000 -0.628
16.34000 -0.507
16.36000 7.734
16.38000 4.493
16.40000 6.086
16.42000 1.330
16.44000 3.480
16.46000 6.461
16.48000 9.682
16.50000 5.969
16.52000 1.105
16.54000 1.017
16.56000 2.842
16.58000 9.078
16.60000 3.794
16.62000 4.592
16.64000 4.327
16.66000 3.473
16.68000 3.603
16.70000 0.823
16.72000 3.077
16.74000 8.263
16.76000 10.791
16.78000 2.690
16.80000 2.932
16.82000 2.167
16.84000 6.590
16.86000 9.050
16.88000 17.205
16.90000 11.431
16.92000 -2.825
16.94000 -3.438
16.96000 4.672
16.98000 4.552
17.00000 2.801
17.02000 10.344
17.04000 8.014
17.06000 -3.572
17.08000 7.478
17.10000 8.062
17.12000 4.902
17.14000 8.651
17.16000 5.069
17.18000 1.978
17.20000 8.759
17.22000 5.621
17.24000 9.604
17.26000 6.572
17.28000 7.964
17.30000 3.047
17.32000 8.162
17.34000 7.786
17.36000 5.710
17.38000 1.190
17.40000 10.159
17.42000 11.724
17.44000 7.846
17.46000 10.147
17.48000 3.654
17.50000 0.613
17.52000 2.717
17.54000 5.482
17.56000 3.762
17.58000 6.301
17.60000 2.309
17.62000 2.302
17.64000 10.805
17.66000 3.534
17.68000 5.459
17.70000 3.242
17.72000 7.465
17.74000 6.482
17.76000 7.887
17.78000 1.104
17.80000 0.202
17.82000 -0.078
17.84000 4.372
17.86000 5.169
17.88000 4.800
17.90000 7.067
17.92000 7.815
17.94000 5.910
17.96000 4.837
17.98000 7.823
18.00000 4.575
18.02000 3.342
18.04000 -2.218
18.06000 -4.303
18.08000 5.637
18.10000 11.691
18.12000 11.074
18.14000 3.118
18.16000 7.428
18.18000 12.591
18.20000 8.387
18.22000 9.191
18.24000 3.750
18.26000 3.717
18.28000 4.478
18.30000 5.832
18.32000 6.681
18.34000 5.324
18.36000 -3.313
18.38000 0.689
18.40000 7.504
18.42000 -0.719
18.44000 9.241
18.46000 3.248
18.48000 1.431
18.50000 8.215
18.52000 7.243
18.54000 -0.112
18.56000 -3.198
18.58000 -4.266
18.60000 1.830
18.62000 7.112
18.64000 10.985
18.66000 9.660
18.68000 0.575
18.70000 6.013
18.72000 7.415
18.74000 5.208
18.76000 1.845
18.78000 0.938
18.80000 6.807
18.82000 0.796
18.84000 12.265
18.86000 12.474
18.88000 7.067
18.90000 10.116
18.92000 5.616
18.94000 6.803
18.96000 9.462
18.98000 8.311
19.00000 10.169
19.02000 8.473
19.04000 6.644
19.06000 2.148
19.08000 0.544
19.10000 2.050
19.12000 5.233
19.14000 10.155
19.16000 6.061
19.18000 -1.650
19.20000 -4.231
19.22000 2.130
19.24000 6.947
19.26000 8.182
19.28000 5.959
19.30000 8.665
19.32000 8.223
19.34000 1.894
19.36000 6.862
19.38000 12.969
19.40000 8.463
19.42000 -3.430
19.44000 2.217
19.46000 0.270
19.48000 3.772
19.50000 3.918
19.52000 6.263
19.54000 9.187
19.56000 7.789
19.58000 10.535
19.60000 5.485
19.62000 3.625
19.64000 4.809
19.66000 0.925
19.68000 2.676
19.70000 1.425
19.72000 4.713
19.74000 7.160
19.76000 4.925
19.78000 5.393
19.80000 7.183
19.82000 6.636
19.84000 11.098
19.86000 9.428
19.88000 4.479
19.90000 4.960
19.92000 2.206
19.94000 3.740
19.96000 3.312
19.98000 2.152
20.00000 4.577
20.02000 4.781
20.04000 3.458
20.06000 10.202
20.08000 4.092
20.10000 8.314
20.12000 9.296
20.14000 6.423
20.16000 5.627
20.18000 -0.001
20.20000 -1.418
20.22000 -2.305
20.24000 0.204
20.26000 5.760
20.28000 11.330
20.30000 11.764
20.32000 3.882
20.34000 6.656
20.36000 7.471
20.38000 12.345
20.40000 12.028
20.42000 10.654
20.44000 11.308
20.46000 2.079
20.48000 3.154
20.50000 1.894
20.52000 6.608
20.54000 9.392
20.56000 10.090
20.58000 13.388
20.60000 5.714
20.62000 9.324
20.64000 9.201
20.66000 5.698
20.68000 4.456
20.70000 5.029
20.72000 -0.036
20.74000 2.786
20.76000 8.772
20.78000 6.016
20.80000 6.943
20.82000 5.886
20.84000 3.757
20.86000 -4.156
20.88000 -1.550
20.90000 10.566
20.92000 9.536
20.94000 4.282
20.96000 6.447
20.98000 2.481
21.00000 -0.913
21.02000 -1.282
21.04000 5.007
21.06000 5.002
21.08000 5.108
21.10000 4.121
21.12000 2.093
21.14000 2.451
21.16000 -0.002
21.18000 2.951
21.20000 2.858
21.22000 8.086
21.24000 4.318
21.26000 5.899
21.28000 0.523
21.30000 -2.462
21.32000 0.679
21.34000 2.195
21.36000 3.372
21.38000 5.362
21.40000 6.449
21.42000 -0.556
21.44000 -0.109
21.46000 4.468
21.48000 2.276
21.50000 -0.676
21.52000 2.319
21.54000 7.895
21.56000 5.689
21.58000 0.533
21.60000 2.666
21.62000 6.400
21.64000 5.575
21.66000 2.644
21.68000 -0.328
21.70000 -2.667
21.72000 -0.533
21.74000 -2.742
21.76000 -2.835
21.78000 -1.199
21.80000 4.980
21.82000 -0.684
21.84000 -2.312
21.86000 1.603
21.88000 1.939
21.90000 10.106
21.92000 9.339
21.94000 10.400
21.96000 9.578
21.98000 4.287
22.00000 4.517
22.02000 6.174
22.04000 -0.208
22.06000 -2.886
22.08000 -0.093
22.10000 1.502
22.12000 -2.267
22.14000 -1.872
22.16000 0.646
22.18000 3.175
22.20000 5.688
22.22000 9.730
22.24000 1.049
22.26000 -1.479
22.28000 -2.436
22.30000 1.381
22.32000 6.803
22.34000 7.661
22.36000 4.575
22.38000 6.384
22.40000 0.628
22.42000 2.977
22.44000 2.611
22.46000 6.273
22.48000 4.033
22.50000 0.401
22.52000 1.936
22.54000 6.150
22.56000 6.359
22.58000 2.152
22.60000 2.788
22.62000 1.901
22.64000 -4.082
22.66000 -1.546
22.68000 -0.929
22.70000 2.024
22.72000 5.102
22.74000 5.473
22.76000 9.896
22.78000 8.811
22.80000 5.912
22.82000 7.309
22.84000 -2.116
22.86000 1.753
22.88000 2.488
22.90000 2.552
22.92000 3.242
22.94000 1.578
22.96000 0.592
22.98000 2.268
23.00000 4.725
23.02000 0.407
23.04000 -0.923
23.06000 -1.837
23.08000 1.254
23.10000 4.535
23.12000 4.112
23.14000 4.626
23.16000 -0.364
23.18000 -3.170
23.20000 -2.978
23.22000 3.224
23.24000 3.647
23.26000 1.985
23.28000 4.748
23.30000 2.986
23.32000 1.500
23.34000 2.273
23.36000 10.545
23.38000 5.188
23.40000 1.496
23.42000 4.481
23.44000 4.863
23.46000 4.499
23.48000 1.286
23.50000 -2.161
23.52000 5.107
23.54000 3.104
23.56000 2.782
23.58000 7.805
23.60000 3.208
23.62000 -2.791
23.64000 1.484
23.66000 7.337
23.68000 2.669
23.70000 0.692
23.72000 3.142
23.74000 3.045
23.76000 1.688
23.78000 1.519
23.80000 1.315
23.82000 4.446
23.84000 3.717
23.86000 7.268
23.88000 13.775
23.90000 7.284
23.92000 3.977
23.94000 6.628
23.96000 2.897
23.98000 -2.684
24.00000 -3.995
24.02000 2.185
24.04000 6.280
24.06000 4.290
24.08000 6.429
24.10000 2.788
24.12000 2.765
24.14000 7.538
24.16000 -1.568
24.18000 0.327
24.20000 5.611
24.22000 12.967
24.24000 10.007
24.26000 3.249
24.28000 3.226
24.30000 0.211
24.32000 -0.865
24.34000 -2.106
24.36000 3.265
24.38000 1.501
24.40000 -1.751
24.42000 -2.670
24.44000 -3.964
24.46000 3.980
24.48000 8.562
24.50000 8.844
24.52000 3.685
24.54000 -0.923
24.56000 -2.599
24.58000 -3.114
24.60000 0.778
24.62000 1.366
24.64000 0.757
24.66000 2.482
24.68000 4.647
24.70000 6.784
24.72000 4.278
24.74000 9.150
24.76000 6.213
24.78000 4.161
24.80000 5.439
24.82000 9.579
24.84000 8.060
24.86000 7.889
24.88000 6.944
24.90000 2.793
24.92000 9.137
24.94000 13.009
24.96000 10.566
24.98000 4.538
25.00000 1.693
25.02000 6.301
25.04000 10.910
25.06000 3.261
25.08000 6.012
25.10000 5.508
25.12000 0.555
25.14000 1.775
25.16000 3.650
25.18000 2.356
25.20000 1.342
25.22000 4.735
25.24000 7.442
25.26000 6.103
25.28000 1.015
25.30000 5.753
25.32000 9.240
25.34000 7.487
25.36000 8.356
25.38000 8.609
25.40000 3.825
25.42000 5.226
25.44000 10.083
25.46000 6.145
25.48000 3.270
25.50000 4.043
25.52000 8.244
25.54000 3.999
25.56000 2.319
25.58000 0.735
25.60000 1.530
25.62000 0.603
25.64000 4.265
25.66000 5.594
25.68000 7.791
25.70000 4.486
25.72000 4.752
25.74000 2.058
25.76000 4.193
25.78000 7.669
25.80000 5.156
25.82000 6.995
25.84000 4.706
25.86000 6.280
25.88000 3.784
25.90000 5.720
25.92000 6.289
25.94000 6.719
25.96000 2.247
25.98000 1.455
26.00000 -3.841
26.02000 4.222
26.04000 4.424
26.06000 5.852
26.08000 4.448
26.10000 7.005
26.12000 6.238
26.14000 8.211
26.16000 5.702
26.18000 4.718
26.20000 7.838
26.22000 8.392
26.24000 3.112
26.26000 6.071
26.28000 3.967
26.30000 1.845
26.32000 7.444
26.34000 5.182
26.36000 5.630
26.38000 8.127
26.40000 6.851
26.42000 5.603
26.44000 0.369
26.46000 -0.930
26.48000 5.717
26.50000 3.650
26.52000 6.556
26.54000 3.298
26.56000 3.891
26.58000 2.630
26.60000 1.352
26.62000 6.486
26.64000 6.582
26.66000 1.070
26.68000 1.337
26.70000 6.932
26.72000 8.967
26.74000 3.201
26.76000 4.450
26.78000 6.670
26.80000 5.501
26.82000 3.762
26.84000 3.944
26.86000 3.146
26.88000 4.982
26.90000 9.566
26.92000 7.459
26.94000 9.942
26.96000 5.868
26.98000 -1.622
27.00000 3.099
27.02000 6.566
27.04000 10.236
27.06000 5.496
27.08000 -3.318
27.10000 -2.386
27.12000 4.575
27.14000 6.704
27.16000 2.388
27.18000 2.994
27.20000 2.668
27.22000 8.747
27.24000 6.558
27.26000 3.602
27.28000 0.876
27.30000 0.644
27.32000 7.999
27.34000 11.361
27.36000 11.141
27.38000 6.368
27.40000 9.985
27.42000 7.039
27.44000 -0.666
27.46000 0.775
27.48000 6.656
27.50000 6.347
27.52000 4.805
27.54000 4.048
27.56000 3.629
27.58000 4.067
27.60000 5.076
27.62000 3.840
27.64000 5.654
27.66000 4.490
27.68000 5.254
27.70000 6.054
27.72000 7.612
27.74000 5.582
27.76000 1.693
27.78000 3.076
27.80000 1.542
27.82000 2.568
27.84000 -1.331
27.86000 3.226
27.88000 4.891
27.90000 2.463
27.92000 5.038
27.94000 3.655
27.96000 0.766
27.98000 7.199
28.00000 10.980
28.02000 6.403
28.04000 7.518
28.06000 9.798
28.08000 2.187
28.10000 1.814
28.12000 4.582
28.14000 -3.745
28.16000 1.834
28.18000 7.485
28.20000 11.722
28.22000 5.313
28.24000 4.209
28.26000 3.955
28.28000 8.779
28.30000 4.271
28.32000 2.225
28.34000 5.702
28.36000 9.523
28.38000 10.976
28.40000 12.814
28.42000 10.602
28.44000 7.293
28.46000 11.511
28.48000 8.393
28.50000 7.509
28.52000 8.334
28.54000 7.947
28.56000 6.496
28.58000 7.942
28.60000 8.577
28.62000 4.907
28.64000 6.827
28.66000 7.533
28.68000 3.886
28.70000 0.839
28.72000 5.766
28.74000 6.105
28.76000 5.631
28.78000 10.106
28.80000 8.686
28.82000 7.192
28.84000 2.947
28.86000 3.801
28.88000 4.985
28.90000 0.660
28.92000 5.804
28.94000 9.256
28.96000 12.756
28.98000 11.163
29.00000 7.341
29.02000 3.829
29.04000 9.136
29.06000 11.229
29.08000 6.683
29.10000 8.940
29.12000 9.538
29.14000 2.677
29.16000 0.980
29.18000 4.426
29.20000 10.433
29.22000 6.470
29.24000 4.771
29.26000 5.660
29.28000 9.340
29.30000 2.123
29.32000 2.346
29.34000 10.248
29.36000 14.407
29.38000 7.916
29.40000 6.819
29.42000 6.926
29.44000 10.372
29.46000 2.663
29.48000 -3.670
29.50000 1.782
29.52000 11.245
29.54000 9.169
29.56000 11.144
29.58000 12.458
29.60000 8.775
29.62000 3.468
29.64000 5.046
29.66000 8.624
29.68000 6.827
29.70000 4.211
29.72000 5.602
29.74000 2.307
29.76000 6.925
29.78000 10.521
29.80000 2.151
29.82000 0.328
29.84000 -0.005
29.86000 1.696
29.88000 4.425
29.90000 7.047
29.92000 1.279
29.94000 -2.267
29.96000 -3.670
29.98000 -0.524
30.00000 4.533
30.02000 3.120
30.04000 5.986
30.06000 8.649
30.08000 8.140
30.10000 3.720
30.12000 4.807
30.14000 4.477
30.16000 5.587
30.18000 13.780
30.20000 9.887
30.22000 4.642
30.24000 5.985
30.26000 6.084
30.28000 7.600
30.30000 4.626
30.32000 1.558
30.34000 4.147
30.36000 4.753
30.38000 5.959
30.40000 3.988
30.42000 4.844
30.44000 3.143
30.46000 5.795
30.48000 2.100
30.50000 1.848
30.52000 1.826
30.54000 1.734
30.56000 4.774
30.58000 2.575
30.60000 1.789
30.62000 1.407
30.64000 1.345
30.66000 2.097
30.68000 1.156
30.70000 3.579
30.72000 0.834
30.74000 2.717
30.76000 4.249
30.78000 -0.408
30.80000 1.273
30.82000 -1.832
30.84000 3.770
30.86000 6.979
30.88000 2.494
30.90000 5.626
30.92000 0.294
30.94000 4.851
30.96000 3.217
30.98000 4.787
31.00000 0.255
31.02000 -3.637
31.04000 1.892
31.06000 2.165
31.08000 4.331
31.10000 0.230
31.12000 -0.548
31.14000 4.231
31.16000 6.194
31.18000 4.904
31.20000 2.947
31.22000 2.951
31.24000 -0.162
31.26000 0.850
31.28000 0.204
31.30000 0.428
31.32000 3.078
31.34000 4.217
31.36000 5.515
31.38000 4.487
31.40000 -1.572
31.42000 0.720
31.44000 3.783
31.46000 1.400
31.48000 3.173
31.50000 0.627
31.52000 0.552
31.54000 -0.158
31.56000 3.691
31.58000 2.879
31.60000 2.223
31.62000 0.062
31.64000 0.289
31.66000 -0.193
31.68000 2.975
31.70000 3.775
31.72000 -2.041
31.74000 2.632
31.76000 1.151
31.78000 -2.248
31.80000 -0.042
31.82000 -0.159
31.84000 0.394
31.86000 -2.973
31.88000 1.198
31.90000 3.900
31.92000 -0.196
31.94000 -1.474
31.96000 -2.070
31.98000 -2.113
32.00000 -3.404
32.02000 0.593
32.04000 4.651
32.06000 1.536
32.08000 -2.061
32.10000 -0.057
32.12000 -1.945
32.14000 1.154
32.16000 2.085
32.18000 -0.188
32.20000 0.343
32.22000 -0.897
32.24000 -2.747
32.26000 0.294
32.28000 4.717
32.30000 6.009
32.32000 2.106
32.34000 3.865
32.36000 1.314
32.38000 0.185
32.40000 1.557
32.42000 3.879
32.44000 0.550
32.46000 -1.969
32.48000 -0.389
32.50000 1.610
32.52000 1.881
32.54000 2.961
32.56000 0.282
32.58000 -1.789
32.60000 0.089
32.62000 -3.586
32.64000 -0.662
32.66000 -0.117
32.68000 -0.902
32.70000 0.211
32.72000 -2.116
32.74000 -1.205
32.76000 -1.162
32.78000 0.122
32.80000 4.959
32.82000 6.948
32.84000 -1.677
32.86000 -3.569
32.88000 0.594
32.90000 3.211
32.92000 6.446
32.94000 6.909
32.96000 5.332
32.98000 4.149
33.00000 4.681
33.02000 2.295
33.04000 4.822
33.06000 1.213
33.08000 -0.697
33.10000 0.033
33.12000 5.291
33.14000 2.769
33.16000 -1.627
33.18000 1.445
33.20000 2.046
33.22000 2.771
33.24000 5.380
33.26000 3.298
33.28000 6.123
33.30000 4.744
33.32000 3.539
33.34000 6.203
33.36000 9.493
33.38000 4.408
33.40000 1.322
33.42000 1.357
33.44000 1.938
33.46000 -0.308
33.48000 1.712
33.50000 -2.183
33.52000 -3.548
33.54000 2.080
33.56000 -0.281
33.58000 -0.206
33.60000 1.102
33.62000 4.698
33.64000 7.766
33.66000 6.263
33.68000 5.272
33.70000 -1.155
33.72000 -1.417
33.74000 5.129
33.76000 2.680
33.78000 -2.672
33.80000 1.023
33.82000 1.056
33.84000 2.063
33.86000 0.725
33.88000 1.690
33.90000 3.558
33.92000 -0.677
33.94000 -0.454
33.96000 2.133
33.98000 -1.325
34.00000 0.579
34.02000 3.580
34.04000 3.981
34.06000 5.723
34.08000 3.021
34.10000 -2.116
34.12000 4.104
34.14000 1.644
34.16000 7.180
34.18000 9.466
34.20000 2.883
34.22000 -1.131
34.24000 1.835
34.26000 5.301
34.28000 5.617
34.30000 9.267
34.32000 11.197
34.34000 5.246
34.36000 5.800
34.38000 7.990
34.40000 1.670
34.42000 4.358
34.44000 3.100
34.46000 3.025
34.48000 1.645
34.50000 1.139
34.52000 2.046
34.54000 1.745
34.56000 1.715
34.58000 2.332
34.60000 5.682
34.62000 6.033
34.64000 2.587
34.66000 0.764
34.68000 2.457
34.70000 3.327
34.72000 0.576
34.74000 -1.564
34.76000 -1.073
34.78000 2.231
34.80000 2.083
34.82000 6.398
34.84000 1.304
34.86000 -3.527
34.88000 -1.939
34.90000 -2.111
34.92000 -0.883
34.94000 3.014
34.96000 7.038
34.98000 0.708
35.00000 2.026
35.02000 4.553
35.04000 5.448
35.06000 5.285
35.08000 -1.724
35.10000 -3.524
35.12000 0.188
35.14000 -1.429
35.16000 -0.816
35.18000 -1.978
35.20000 0.870
35.22000 -0.268
35.24000 0.821
35.26000 2.450
35.28000 3.295
35.30000 3.386
35.32000 0.177
35.34000 -1.017
35.36000 -3.012
35.38000 -2.921
35.40000 -0.240
35.42000 -0.735
35.44000 -1.349
35.46000 0.409
35.48000 4.425
35.50000 2.568
35.52000 -2.294
35.54000 -3.132
35.56000 0.629
35.58000 -0.963
35.60000 -3.497
35.62000 0.622
35.64000 6.037
35.66000 6.822
35.68000 6.476
35.70000 1.254
35.72000 -3.505
35.74000 0.886
35.76000 3.004
35.78000 0.827
35.80000 3.424
35.82000 4.762
35.84000 1.252
35.86000 1.491
35.88000 5.798
35.90000 6.832
35.92000 4.647
35.94000 2.624
35.96000 2.613
35.98000 2.102
36.00000 2.659
36.02000 0.417
36.04000 -0.462
36.06000 -1.476
36.08000 -1.960
36.10000 2.256
36.12000 2.284
36.14000 7.438
36.16000 7.666
36.18000 5.243
36.20000 3.088
36.22000 3.285
36.24000 0.219
36.26000 1.679
36.28000 2.070
36.30000 1.209
36.32000 4.465
36.34000 6.405
36.36000 5.769
36.38000 5.644
36.40000 1.402
36.42000 -0.963
36.44000 3.273
36.46000 3.180
36.48000 6.591
36.50000 4.169
36.52000 1.382
36.54000 3.442
36.56000 1.005
36.58000 3.287
36.60000 2.923
36.62000 -2.654
36.64000 -0.954
36.66000 -1.239
36.68000 -0.748
36.70000 6.041
36.72000 2.051
36.74000 2.948
36.76000 2.230
36.78000 1.028
36.80000 8.010
36.82000 6.550
36.84000 2.816
36.86000 6.246
36.88000 9.835
36.90000 5.297
36.92000 -0.807
36.94000 3.648
36.96000 5.501
36.98000 4.681
37.00000 4.293
37.02000 -0.459
37.04000 -3.468
37.06000 5.096
37.08000 8.713
37.10000 11.229
37.12000 7.385
37.14000 7.669
37.16000 7.854
37.18000 11.288
37.20000 6.377
37.22000 1.199
37.24000 3.187
37.26000 1.689
37.28000 4.885
37.30000 3.140
37.32000 0.023
37.34000 1.481
37.36000 3.261
37.38000 8.261
37.40000 8.228
37.42000 2.655
37.44000 2.182
37.46000 4.168
37.48000 3.519
37.50000 -1.121
37.52000 1.179
37.54000 6.089
37.56000 6.012
37.58000 3.561
37.60000 2.149
37.62000 4.773
37.64000 2.259
37.66000 0.828
37.68000 1.719
37.70000 2.299
37.72000 4.625
37.74000 4.287
37.76000 4.397
37.78000 3.638
37.80000 3.769
37.82000 4.316
37.84000 5.609
37.86000 7.928
37.88000 7.012
37.90000 6.175
37.92000 7.281
37.94000 8.396
37.96000 5.707
37.98000 7.829
38.00000 10.661
38.02000 8.815
38.04000 9.208
38.06000 5.602
38.08000 6.293
38.10000 8.590
38.12000 2.575
38.14000 6.923
38.16000 6.277
38.18000 7.574
38.20000 7.027
38.22000 9.257
38.24000 6.519
38.26000 7.662
38.28000 13.230
38.30000 17.724
38.32000 17.180
38.34000 19.672
38.36000 16.485
38.38000 9.832
38.40000 13.241
38.42000 14.724
38.44000 13.001
38.46000 14.926
38.48000 16.143
38.50000 16.089
38.52000 15.829
38.54000 17.401
38.56000 18.465
38.58000 19.862
38.60000 20.617
38.62000 24.476
38.64000 20.083
38.66000 17.647
38.68000 23.317
38.70000 20.043
38.72000 21.643
38.74000 22.641
38.76000 17.981
38.78000 18.263
38.80000 22.984
38.82000 22.110
38.84000 18.876
38.86000 23.560
38.88000 27.729
38.90000 22.551
38.92000 22.634
38.94000 24.315
38.96000 29.379
38.98000 26.812
39.00000 27.416
39.02000 31.079
39.04000 32.578
39.06000 32.636
39.08000 30.043
39.10000 28.976
39.12000 36.202
39.14000 36.489
39.16000 40.539
39.18000 35.570
39.20000 40.313
39.22000 41.051
39.24000 45.148
39.26000 47.022
39.28000 47.634
39.30000 48.618
39.32000 47.947
39.34000 51.439
39.36000 58.241
39.38000 57.660
39.40000 52.085
39.42000 61.708
39.44000 60.652
39.46000 63.401
39.48000 66.996
39.50000 68.870
39.52000 73.123
39.54000 74.484
39.56000 79.575
39.58000 83.252
39.60000 93.911
39.62000 97.137
39.64000 102.571
39.66000 99.431
39.68000 100.617
39.70000 108.831
39.72000 123.562
39.74000 130.257
39.76000 133.442
39.78000 135.566
39.80000 135.429
39.82000 146.453
39.84000 156.175
39.86000 162.441
39.88000 168.676
39.90000 184.389
39.92000 193.321
39.94000 195.895
39.96000 204.201
39.98000 218.799
40.00000 228.311
40.02000 235.495
40.04000 242.013
40.06000 257.081
40.08000 274.145
40.10000 290.555
40.12000 296.990
40.14000 304.683
40.16000 319.507
40.18000 337.437
40.20000 350.356
40.22000 355.652
40.24000 376.766
40.26000 397.144
40.28000 411.235
40.30000 422.443
40.32000 429.210
40.34000 435.026
40.36000 443.628
40.38000 459.240
40.40000 477.143
40.42000 490.364
40.44000 501.944
40.46000 505.595
40.48000 508.799
40.50000 519.461
40.52000 519.221
40.54000 512.625
40.56000 512.689
40.58000 526.607
40.60000 533.806
40.62000 521.650
40.64000 521.351
40.66000 516.586
40.68000 511.916
40.70000 508.436
40.72000 493.992
40.74000 480.585
40.76000 468.950
40.78000 464.628
40.80000 454.029
40.82000 438.884
40.84000 424.917
40.86000 413.586
40.88000 396.418
40.90000 383.294
40.92000 365.637
40.94000 348.051
40.96000 337.144
40.98000 330.983
41.00000 328.106
41.02000 307.160
41.04000 288.213
41.06000 263.228
41.08000 257.187
41.10000 253.500
41.12000 237.136
41.14000 227.241
41.16000 216.270
41.18000 209.834
41.20000 200.862
41.22000 184.604
41.24000 174.086
41.26000 166.736
41.28000 157.914
41.30000 146.549
41.32000 142.480
41.34000 146.315
41.36000 134.177
41.38000 124.458
41.40000 117.783
41.42000 111.682
41.44000 109.881
41.46000 104.754
41.48000 97.250
41.50000 96.366
41.52000 89.502
41.54000 82.335
41.56000 80.356
41.58000 70.835
41.60000 72.838
41.62000 71.234
41.64000 60.247
41.66000 59.464
41.68000 56.284
41.70000 54.811
41.72000 51.139
41.74000 45.470
41.76000 46.705
41.78000 46.285
41.80000 48.552
41.82000 43.942
41.84000 42.225
41.86000 36.153
41.88000 32.452
41.90000 31.664
41.92000 33.979
41.94000 32.082
41.96000 31.621
41.98000 28.643
42.00000 26.102
42.02000 27.833
42.04000 20.567
42.06000 19.924
42.08000 17.085
42.10000 16.155
42.12000 19.837
42.14000 18.120
42.16000 16.442
42.18000 15.366
42.20000 19.091
42.22000 17.643
42.24000 13.130
42.26000 12.792
42.28000 12.665
42.30000 15.841
42.32000 12.742
42.34000 8.788
42.36000 9.909
42.38000 9.915
42.40000 7.056
42.42000 9.208
42.44000 10.223
42.46000 7.019
42.48000 9.293
42.50000 7.942
42.52000 7.202
42.54000 7.026
42.56000 3.331
42.58000 3.533
42.60000 4.276
42.62000 5.083
42.64000 5.040
42.66000 5.038
42.68000 2.632
42.70000 2.625
42.72000 9.475
42.74000 6.843
42.76000 3.234
42.78000 1.418
42.80000 3.574
42.82000 0.914
42.84000 2.890
42.86000 5.089
42.88000 3.777
42.90000 5.339
42.92000 6.286
42.94000 -1.778
42.96000 -3.542
42.98000 -0.511
43.00000 1.556
43.02000 -0.920
43.04000 -2.102
43.06000 -0.195
43.08000 1.975
43.10000 2.516
43.12000 1.841
43.14000 1.267
43.16000 1.087
43.18000 0.294
43.20000 3.317
43.22000 5.620
43.24000 4.290
43.26000 1.782
43.28000 1.312
43.30000 0.951
43.32000 1.592
43.34000 4.087
43.36000 2.010
43.38000 -0.534
43.40000 0.352
43.42000 5.275
43.44000 3.618
43.46000 1.170
43.48000 3.010
43.50000 2.578
43.52000 4.039
43.54000 2.374
43.56000 1.320
43.58000 -3.454
43.60000 -0.804
43.62000 1.415
43.64000 2.464
43.66000 4.904
43.68000 2.219
43.70000 -0.490
43.72000 4.567
43.74000 3.039
43.76000 0.775
43.78000 0.767
43.80000 4.076
43.82000 2.290
43.84000 -1.509
43.86000 0.512
43.88000 2.314
43.90000 3.920
43.92000 3.913
43.94000 -0.133
43.96000 -0.256
43.98000 1.759
44.00000 2.175
44.02000 3.910
44.04000 4.239
44.06000 -1.278
44.08000 1.115
44.10000 0.424
44.12000 1.548
44.14000 -2.289
44.16000 -0.802
44.18000 3.162
44.20000 4.674
44.22000 3.287
44.24000 6.669
44.26000 4.245
44.28000 2.794
44.30000 2.437
44.32000 2.821
44.34000 -1.283
44.36000 3.239
44.38000 6.310
44.40000 4.652
44.42000 3.776
44.44000 2.203
44.46000 3.680
44.48000 -2.339
44.50000 -3.434
44.52000 0.343
44.54000 0.410
44.56000 0.382
44.58000 0.620
44.60000 3.382
44.62000 2.249
44.64000 2.495
44.66000 -2.094
44.68000 -3.431
44.70000 -2.191
44.72000 1.896
44.74000 -1.619
44.76000 0.953
44.78000 4.237
44.80000 0.786
44.82000 0.685
44.84000 -2.041
44.86000 -1.816
44.88000 0.237
44.90000 0.990
44.92000 5.295
44.94000 2.014
44.96000 0.584
44.98000 -1.090
45.00000 4.061
45.02000 8.621
45.04000 6.497
45.06000 4.959
45.08000 3.953
45.10000 3.270
45.12000 6.698
45.14000 6.564
45.16000 1.656
45.18000 1.912
45.20000 4.959
45.22000 8.813
45.24000 6.203
45.26000 5.573
45.28000 5.481
45.30000 8.556
45.32000 9.047
45.34000 8.715
45.36000 5.612
45.38000 4.447
45.40000 12.893
45.42000 7.309
45.44000 4.374
45.46000 7.387
45.48000 12.085
45.50000 7.659
45.52000 8.249
45.54000 9.498
45.56000 8.612
45.58000 9.699
45.60000 5.629
45.62000 8.466
45.64000 9.914
45.66000 11.453
45.68000 13.771
45.70000 9.899
45.72000 8.044
45.74000 10.467
45.76000 10.724
45.78000 16.090
45.80000 17.042
45.82000 15.158
45.84000 16.934
45.86000 19.487
45.88000 16.217
45.90000 16.292
45.92000 14.703
45.94000 13.969
45.96000 17.810
45.98000 15.674
46.00000 14.885
46.02000 18.464
46.04000 27.031
46.06000 30.417
46.08000 29.577
46.10000 26.647
46.12000 28.123
46.14000 25.160
46.16000 29.427
46.18000 34.501
46.20000 37.213
46.22000 32.039
46.24000 30.674
46.26000 32.243
46.28000 41.330
46.30000 40.884
46.32000 39.575
46.34000 35.433
46.36000 38.573
46.38000 39.334
46.40000 49.032
46.42000 49.132
46.44000 48.666
46.46000 48.147
46.48000 42.678
46.50000 51.572
46.52000 53.108
46.54000 50.543
46.56000 49.634
46.58000 53.359
46.60000 60.575
46.62000 58.998
46.64000 53.835
46.66000 51.271
46.68000 58.277
46.70000 57.576
46.72000 62.467
46.74000 68.126
46.76000 62.041
46.78000 70.904
46.80000 75.632
46.82000 73.059
46.84000 70.577
46.86000 66.711
46.88000 61.246
46.90000 75.051
46.92000 73.650
46.94000 76.353
46.96000 72.582
46.98000 68.237
47.00000 74.582
47.02000 73.443
47.04000 73.487
47.06000 76.036
47.08000 85.494
47.10000 85.767
47.12000 74.620
47.14000 74.272
47.16000 69.269
47.18000 66.103
47.20000 73.506
47.22000 73.956
47.24000 71.437
47.26000 71.795
47.28000 73.285
47.30000 70.841
47.32000 72.094
47.34000 72.477
47.36000 80.683
47.38000 76.816
47.40000 71.634
47.42000 67.664
47.44000 63.208
47.46000 60.428
47.48000 59.085
47.50000 63.036
47.52000 64.747
47.54000 67.212
47.56000 63.810
47.58000 58.507
47.60000 51.510
47.62000 60.023
47.64000 59.458
47.66000 53.750
47.68000 51.528
47.70000 50.630
47.72000 51.096
47.74000 55.787
47.76000 52.366
47.78000 54.742
47.80000 51.171
47.82000 41.483
47.84000 39.159
47.86000 40.935
47.88000 37.275
47.90000 39.416
47.92000 42.005
47.94000 41.063
47.96000 40.946
47.98000 40.800
48.00000 39.744
48.02000 30.977
48.04000 27.595
48.06000 27.086
48.08000 25.788
48.10000 25.534
48.12000 25.033
48.14000 25.780
48.16000 27.055
48.18000 23.498
48.20000 17.767
48.22000 13.170
48.24000 18.348
48.26000 21.458
48.28000 17.926
48.30000 16.259
48.32000 19.428
48.34000 17.695
48.36000 9.711
48.38000 9.530
48.40000 12.440
48.42000 11.772
48.44000 11.859
48.46000 9.586
48.48000 14.679
48.50000 14.587
48.52000 13.218
48.54000 15.102
48.56000 11.745
48.58000 6.963
48.60000 9.413
48.62000 15.261
48.64000 18.080
48.66000 12.728
48.68000 7.871
48.70000 7.589
48.72000 9.733
48.74000 3.925
48.76000 4.067
48.78000 2.476
48.80000 3.417
48.82000 8.469
48.84000 11.645
48.86000 15.098
48.88000 5.716
48.90000 4.826
48.92000 4.328
48.94000 4.057
48.96000 4.886
48.98000 6.418
49.00000 8.233
49.02000 5.001
49.04000 2.729
49.06000 4.688
49.08000 7.154
49.10000 3.213
49.12000 6.150
49.14000 6.793
49.16000 6.210
49.18000 4.570
49.20000 2.842
49.22000 5.402
49.24000 5.387
49.26000 3.724
49.28000 5.180
49.30000 2.991
49.32000 7.284
49.34000 8.808
49.36000 9.905
49.38000 9.368
49.40000 9.344
49.42000 5.608
49.44000 -2.977
49.46000 0.173
49.48000 0.915
49.50000 0.147
49.52000 4.234
49.54000 3.953
49.56000 7.851
49.58000 9.739
49.60000 5.868
49.62000 3.631
49.64000 7.733
49.66000 5.474
49.68000 4.565
49.70000 3.894
49.72000 5.690
49.74000 4.233
49.76000 4.682
49.78000 2.906
49.80000 6.371
49.82000 5.081
49.84000 3.697
49.86000 1.919
49.88000 5.339
49.90000 6.368
49.92000 1.677
49.94000 3.511
49.96000 5.131
49.98000 6.764
50.00000 5.574
50.02000 7.241
50.04000 7.278
50.06000 2.961
50.08000 2.859
50.10000 4.014
50.12000 -1.667
50.14000 -0.064
50.16000 2.555
50.18000 -1.080
50.20000 0.878
50.22000 1.278
50.24000 1.446
50.26000 3.549
50.28000 2.650
50.30000 2.069
50.32000 -2.125
50.34000 0.111
50.36000 1.112
50.38000 1.761
50.40000 -0.576
50.42000 2.072
50.44000 4.607
50.46000 3.004
50.48000 5.592
50.50000 3.424
50.52000 4.786
50.54000 0.500
50.56000 -0.221
50.58000 0.313
50.60000 -0.799
50.62000 3.897
50.64000 7.331
50.66000 4.854
50.68000 7.111
50.70000 3.264
50.72000 4.772
50.74000 9.302
50.76000 6.149
50.78000 4.002
50.80000 6.460
50.82000 2.746
50.84000 1.572
50.86000 2.066
50.88000 7.109
50.90000 0.047
50.92000 1.160
50.94000 3.900
50.96000 -1.839
50.98000 1.251
51.00000 1.723
51.02000 4.242
51.04000 4.014
51.06000 9.713
51.08000 6.976
51.10000 5.874
51.12000 3.073
51.14000 3.725
51.16000 0.837
51.18000 7.734
51.20000 9.619
51.22000 9.890
51.24000 6.025
51.26000 -2.070
51.28000 -2.872
51.30000 1.236
51.32000 2.490
51.34000 3.438
51.36000 4.659
51.38000 4.731
51.40000 6.797
51.42000 3.508
51.44000 1.167
51.46000 6.343
51.48000 3.794
51.50000 3.203
51.52000 3.827
51.54000 6.531
51.56000 1.222
51.58000 -0.106
51.60000 0.694
51.62000 4.682
51.64000 9.015
51.66000 12.524
51.68000 8.527
51.70000 6.431
51.72000 4.918
51.74000 4.532
51.76000 3.232
51.78000 -1.842
51.80000 1.878
51.82000 2.717
51.84000 1.168
51.86000 1.263
51.88000 -0.382
51.90000 0.663
51.92000 5.704
51.94000 2.828
51.96000 3.811
51.98000 2.752
52.00000 3.444
52.02000 0.436
52.04000 -2.850
52.06000 -0.475
52.08000 2.501
52.10000 1.937
52.12000 4.167
52.14000 1.990
52.16000 5.411
52.18000 6.359
52.20000 4.150
52.22000 5.567
52.24000 4.640
52.26000 2.107
52.28000 6.656
52.30000 4.619
52.32000 1.655
52.34000 8.731
52.36000 2.456
52.38000 2.485
52.40000 6.584
52.42000 5.899
52.44000 3.251
52.46000 5.473
52.48000 6.489
52.50000 4.602
52.52000 8.748
52.54000 7.537
52.56000 8.726
52.58000 9.581
52.60000 2.430
52.62000 0.790
52.64000 3.452
52.66000 5.387
52.68000 -0.702
52.70000 1.228
52.72000 1.375
52.74000 -2.809
52.76000 6.134
52.78000 8.832
52.80000 6.616
52.82000 3.520
52.84000 0.160
52.86000 5.188
52.88000 8.111
52.90000 8.271
52.92000 6.847
52.94000 2.942
52.96000 1.225
52.98000 1.023
53.00000 5.032
53.02000 3.425
53.04000 2.757
53.06000 2.557
53.08000 3.058
53.10000 6.300
53.12000 6.791
53.14000 6.130
53.16000 7.232
53.18000 1.099
53.20000 4.388
53.22000 5.233
53.24000 3.815
53.26000 2.128
53.28000 6.112
53.30000 5.759
53.32000 2.399
53.34000 1.983
53.36000 2.782
53.38000 2.887
53.40000 5.536
53.42000 6.209
53.44000 4.168
53.46000 5.513
53.48000 3.538
53.50000 6.133
53.52000 1.187
53.54000 1.832
53.56000 0.088
53.58000 -2.743
53.60000 4.352
53.62000 5.749
53.64000 4.363
53.66000 5.456
53.68000 2.719
53.70000 1.282
53.72000 1.777
53.74000 8.510
53.76000 7.522
53.78000 -1.186
53.80000 1.017
53.82000 1.729
53.84000 1.796
53.86000 3.044
53.88000 3.838
53.90000 2.037
53.92000 1.946
53.94000 1.434
53.96000 7.647
53.98000 7.558
54.00000 2.616
54.02000 4.385
54.04000 6.871
54.06000 1.218
54.08000 3.270
54.10000 2.789
54.12000 2.588
54.14000 0.994
54.16000 -2.785
54.18000 4.279
54.20000 4.828
54.22000 4.459
54.24000 4.958
54.26000 4.421
54.28000 2.800
54.30000 4.993
54.32000 2.664
54.34000 -0.184
54.36000 3.217
54.38000 3.276
54.40000 2.322
54.42000 1.978
54.44000 3.066
54.46000 2.686
54.48000 4.186
54.50000 -1.172
54.52000 1.688
54.54000 3.704
54.56000 4.640
54.58000 6.449
54.60000 5.832
54.62000 3.585
54.64000 2.983
54.66000 -0.413
54.68000 1.253
54.70000 0.640
54.72000 2.417
54.74000 4.868
54.76000 4.201
54.78000 2.432
54.80000 2.139
54.82000 1.326
54.84000 0.393
54.86000 2.067
54.88000 0.885
54.90000 -2.782
54.92000 -2.578
54.94000 1.219
54.96000 1.573
54.98000 1.500
55.00000 2.597
55.02000 1.615
55.04000 1.156
55.06000 0.513
55.08000 3.021
55.10000 1.890
55.12000 5.568
55.14000 6.935
55.16000 3.910
55.18000 -2.778
55.20000 -0.366
55.22000 0.026
55.24000 1.319
55.26000 0.477
55.28000 -1.033
55.30000 0.886
55.32000 3.625
55.34000 -0.718
55.36000 5.545
55.38000 7.488
55.40000 2.356
55.42000 2.776
55.44000 1.281
55.46000 2.554
55.48000 -0.616
55.50000 -1.429
55.52000 -0.262
55.54000 3.357
55.56000 1.475
55.58000 -0.798
55.60000 -0.290
55.62000 -1.309
55.64000 0.417
55.66000 2.862
55.68000 3.365
55.70000 -2.238
55.72000 -0.871
55.74000 7.998
55.76000 6.466
55.78000 1.786
55.80000 -1.587
55.82000 -0.328
55.84000 1.501
55.86000 1.822
55.88000 0.891
55.90000 4.431
55.92000 1.575
55.94000 -2.773
55.96000 -2.057
55.98000 -1.097
56.00000 -2.422
56.02000 -1.682
56.04000 -1.750
56.06000 1.501
56.08000 -1.532
56.10000 2.620
56.12000 3.164
56.14000 -1.153
56.16000 -2.237
56.18000 1.689
56.20000 1.338
56.22000 2.525
56.24000 3.638
56.26000 3.457
56.28000 0.657
56.30000 2.954
56.32000 2.144
56.34000 1.258
56.36000 1.528
56.38000 3.265
56.40000 2.017
56.42000 3.465
56.44000 3.869
56.46000 3.297
56.48000 2.192
56.50000 1.748
56.52000 0.244
56.54000 0.901
56.56000 7.393
56.58000 6.640
56.60000 4.326
56.62000 8.553
56.64000 6.289
56.66000 3.820
56.68000 1.486
56.70000 6.046
56.72000 4.560
56.74000 1.039
56.76000 0.888
56.78000 1.777
56.80000 -1.856
56.82000 1.894
56.84000 -1.298
56.86000 -2.024
56.88000 -0.134
56.90000 6.001
56.92000 3.775
56.94000 1.074
56.96000 1.969
56.98000 7.078
57.00000 1.630
57.02000 5.002
57.04000 6.094
57.06000 2.546
57.08000 -1.338
57.10000 -0.211
57.12000 -2.719
57.14000 -1.035
57.16000 2.216
57.18000 4.202
57.20000 3.585
57.22000 -0.375
57.24000 2.072
57.26000 4.177
57.28000 2.409
57.30000 -0.929
57.32000 0.211
57.34000 1.338
57.36000 3.101
57.38000 1.600
57.40000 2.099
57.42000 0.771
57.44000 0.311
57.46000 1.086
57.48000 -2.069
57.50000 1.826
57.52000 1.145
57.54000 5.384
57.56000 4.398
57.58000 5.591
57.60000 7.634
57.62000 9.031
57.64000 7.079
57.66000 8.641
57.68000 6.118
57.70000 -0.014
57.72000 3.545
57.74000 2.900
57.76000 6.350
57.78000 5.462
57.80000 6.340
57.82000 5.932
57.84000 -0.218
57.86000 -2.083
57.88000 -2.648
57.90000 0.277
57.92000 0.339
57.94000 4.941
57.96000 0.462
57.98000 2.212
58.00000 7.671
58.02000 3.126
58.04000 4.058
58.06000 6.851
58.08000 5.081
58.10000 2.320
58.12000 2.907
58.14000 3.051
58.16000 1.875
58.18000 8.824
58.20000 4.016
58.22000 4.484
58.24000 7.222
58.26000 4.034
58.28000 2.005
58.30000 4.378
58.32000 3.489
58.34000 3.894
58.36000 3.008
58.38000 3.076
58.40000 2.751
58.42000 2.506
58.44000 5.444
58.46000 1.487
58.48000 0.055
58.50000 -0.614
58.52000 3.450
58.54000 1.651
58.56000 2.246
58.58000 5.427
58.60000 -0.050
58.62000 -0.224
58.64000 3.088
58.66000 2.722
58.68000 2.657
58.70000 5.128
58.72000 -0.561
58.74000 2.749
58.76000 1.173
58.78000 2.944
58.80000 1.344
58.82000 -0.151
58.84000 -0.199
58.86000 2.945
58.88000 7.407
58.90000 6.571
58.92000 2.562
58.94000 2.388
58.96000 4.976
58.98000 7.861
59.00000 4.897
59.02000 4.427
59.04000 6.202
59.06000 5.885
59.08000 5.956
59.10000 2.677
59.12000 3.957
59.14000 5.446
59.16000 3.450
59.18000 6.749
59.20000 5.843
59.22000 0.724
59.24000 3.534
59.26000 3.932
59.28000 3.203
59.30000 3.280
59.32000 3.622
59.34000 3.718
59.36000 3.695
59.38000 1.929
59.40000 3.256
59.42000 3.279
59.44000 4.864
59.46000 2.665
59.48000 0.223
59.50000 -0.067
59.52000 -1.203
59.54000 -0.898
59.56000 -0.248
59.58000 3.427
59.60000 3.844
59.62000 3.996
59.64000 -2.614
59.66000 -0.121
59.68000 3.401
59.70000 -1.680
59.72000 -0.433
59.74000 0.357
59.76000 3.975
59.78000 3.191
59.80000 4.106
59.82000 3.356
59.84000 -0.585
59.86000 -1.284
59.88000 0.562
59.90000 4.855
59.92000 0.769
59.94000 -0.773
59.96000 0.923
59.98000 3.258
60.00000 4.674
60.02000 3.261
60.04000 4.761
60.06000 -1.507
60.08000 1.653
60.10000 5.093
60.12000 2.737
60.14000 0.789
60.16000 -0.162
60.18000 -0.927
60.20000 4.826
60.22000 3.908
60.24000 3.484
60.26000 6.177
60.28000 7.199
60.30000 2.678
60.32000 5.177
60.34000 3.718
60.36000 4.353
60.38000 3.997
60.40000 2.967
60.42000 -0.959
60.44000 2.513
60.46000 2.505
60.48000 3.196
60.50000 2.188
60.52000 5.161
60.54000 8.556
60.56000 5.284
60.58000 1.743
60.60000 4.594
60.62000 -1.119
60.64000 -1.536
60.66000 1.005
60.68000 4.102
60.70000 1.025
60.72000 3.653
60.74000 -2.577
60.76000 -1.132
60.78000 0.207
60.80000 0.573
60.82000 3.188
60.84000 1.052
60.86000 3.405
60.88000 2.126
60.90000 -1.219
60.92000 0.035
60.94000 2.635
60.96000 4.744
60.98000 5.044
61.00000 3.548
61.02000 0.262
61.04000 0.252
61.06000 5.013
61.08000 6.883
61.10000 5.681
61.12000 6.486
61.14000 6.572
61.16000 3.451
61.18000 1.118
61.20000 1.952
61.22000 2.885
61.24000 3.060
61.26000 -2.006
61.28000 1.171
61.30000 5.231
61.32000 6.590
61.34000 5.377
61.36000 5.402
61.38000 5.676
61.40000 6.537
61.42000 1.466
61.44000 1.465
61.46000 2.011
61.48000 0.884
61.50000 0.324
61.52000 3.260
61.54000 8.886
61.56000 5.418
61.58000 5.960
61.60000 5.157
61.62000 5.129
61.64000 8.158
61.66000 0.444
61.68000 -2.516
61.70000 4.159
61.72000 6.127
61.74000 10.362
61.76000 4.495
61.78000 2.511
61.80000 -2.523
61.82000 3.666
61.84000 8.998
61.86000 2.744
61.88000 4.918
61.90000 3.499
61.92000 4.066
61.94000 6.210
61.96000 6.580
61.98000 2.599
62.00000 3.525
62.02000 4.872
62.04000 2.772
62.06000 1.610
62.08000 5.971
62.10000 2.552
62.12000 -0.144
62.14000 0.953
62.16000 -0.945
62.18000 -1.224
62.20000 0.696
62.22000 3.086
62.24000 4.369
62.26000 0.230
62.28000 1.174
62.30000 0.320
62.32000 -2.316
62.34000 1.894
62.36000 2.549
62.38000 6.948
62.40000 2.109
62.42000 2.723
62.44000 0.666
62.46000 1.365
62.48000 1.830
62.50000 0.048
62.52000 -1.110
62.54000 -0.235
62.56000 0.710
62.58000 0.226
62.60000 0.282
62.62000 2.500
62.64000 1.470
62.66000 -0.818
62.68000 -0.076
62.70000 -1.886
62.72000 -2.570
62.74000 -1.400
62.76000 1.656
62.78000 0.895
62.80000 -1.456
62.82000 -1.962
62.84000 -0.077
62.86000 -0.082
62.88000 2.180
62.90000 2.000
62.92000 3.073
62.94000 2.283
62.96000 1.453
62.98000 1.943
63.00000 2.694
63.02000 3.235
63.04000 1.417
63.06000 0.491
63.08000 -0.044
63.10000 0.650
63.12000 3.844
63.14000 1.710
63.16000 0.859
63.18000 0.812
63.20000 -1.815
63.22000 2.895
63.24000 2.697
63.26000 -0.649
63.28000 1.063
63.30000 -1.387
63.32000 -2.341
63.34000 0.966
63.36000 -1.250
63.38000 -2.573
63.40000 1.776
63.42000 4.187
63.44000 1.681
63.46000 0.914
63.48000 -0.742
63.50000 -0.255
63.52000 3.038
63.54000 2.547
63.56000 0.690
63.58000 -1.070
63.60000 1.855
63.62000 3.380
63.64000 3.858
63.66000 -0.275
63.68000 0.256
63.70000 2.280
63.72000 -1.333
63.74000 -2.563
63.76000 -2.547
63.78000 -1.023
63.80000 1.965
63.82000 6.688
63.84000 1.505
63.86000 0.135
63.88000 0.107
63.90000 2.453
63.92000 -0.375
63.94000 0.325
63.96000 0.533
63.98000 -0.351
64.00000 0.644
64.02000 4.399
64.04000 2.247
64.06000 0.678
64.08000 -1.054
64.10000 -0.546
64.12000 1.083
64.14000 0.321
64.16000 1.925
64.18000 -0.382
64.20000 5.124
64.22000 1.459
64.24000 -0.986
64.26000 -1.003
64.28000 0.899
64.30000 -2.489
64.32000 -1.596
64.34000 0.750
64.36000 2.049
64.38000 0.560
64.40000 7.343
64.42000 4.257
64.44000 1.681
64.46000 0.774
64.48000 1.520
64.50000 -1.125
64.52000 -2.549
64.54000 1.648
64.56000 3.761
64.58000 2.168
64.60000 1.008
64.62000 1.122
64.64000 0.896
64.66000 0.134
64.68000 -0.131
64.70000 1.121
64.72000 1.682
64.74000 0.826
64.76000 1.362
64.78000 2.356
64.80000 0.888
64.82000 -0.510
64.84000 -0.827
64.86000 1.585
64.88000 0.374
64.90000 -0.072
64.92000 -1.248
64.94000 -0.043
64.96000 0.984
64.98000 1.119
65.00000 2.468
65.02000 1.327
65.04000 1.068
65.06000 2.007
65.08000 3.203
65.10000 2.592
65.12000 -0.265
65.14000 1.161
65.16000 0.886
65.18000 -0.151
65.20000 3.794
65.22000 2.097
65.24000 3.231
65.26000 4.629
65.28000 0.953
65.30000 1.256
65.32000 2.559
65.34000 -0.501
65.36000 0.656
65.38000 -2.149
65.40000 -1.113
65.42000 1.637
65.44000 -0.681
65.46000 -1.831
65.48000 -1.446
65.50000 2.466
65.52000 2.249
65.54000 0.747
65.56000 -0.172
65.58000 0.259
65.60000 5.699
65.62000 3.128
65.64000 4.225
65.66000 5.364
65.68000 6.705
65.70000 4.222
65.72000 3.751
65.74000 4.374
65.76000 3.377
65.78000 2.785
65.80000 1.381
65.82000 0.138
65.84000 -1.668
65.86000 0.507
65.88000 1.903
65.90000 0.709
65.92000 -2.550
65.94000 -2.059
65.96000 1.870
65.98000 0.513
66.00000 -1.341
66.02000 -1.821
66.04000 -0.063
66.06000 2.364
66.08000 1.324
66.10000 1.248
66.12000 1.128
66.14000 3.567
66.16000 1.493
66.18000 0.707
66.20000 3.167
66.22000 4.772
66.24000 -0.079
66.26000 4.083
66.28000 5.789
66.30000 5.059
66.32000 2.391
66.34000 -0.251
66.36000 -0.302
66.38000 0.743
66.40000 0.135
66.42000 1.350
66.44000 -0.375
66.46000 -1.440
66.48000 1.298
66.50000 2.286
66.52000 0.799
66.54000 2.984
66.56000 4.431
66.58000 4.976
66.60000 6.146
66.62000 1.753
66.64000 0.948
66.66000 -0.916
66.68000 2.698
66.70000 4.310
66.72000 4.451
66.74000 2.802
66.76000 5.453
66.78000 3.355
66.80000 -1.422
66.82000 0.949
66.84000 -2.485
66.86000 -2.607
66.88000 0.611
66.90000 1.104
66.92000 -0.716
66.94000 0.152
66.96000 0.571
66.98000 -0.474
67.00000 1.648
67.02000 -0.081
67.04000 2.887
67.06000 3.771
67.08000 0.089
67.10000 -1.192
67.12000 0.866
67.14000 -0.228
67.16000 1.745
67.18000 5.168
67.20000 6.697
67.22000 2.819
67.24000 2.590
67.26000 2.426
67.28000 1.043
67.30000 -0.021
67.32000 3.004
67.34000 4.623
67.36000 5.781
67.38000 1.322
67.40000 -0.243
67.42000 0.380
67.44000 3.303
67.46000 -0.287
67.48000 3.077
67.50000 4.128
67.52000 4.686
67.54000 0.351
67.56000 1.753
67.58000 2.378
67.60000 6.234
67.62000 6.987
67.64000 4.015
67.66000 -0.339
67.68000 -1.628
67.70000 -1.013
67.72000 1.456
67.74000 1.363
67.76000 2.686
67.78000 4.975
67.80000 3.216
67.82000 4.812
67.84000 4.429
67.86000 6.332
67.88000 10.578
67.90000 6.484
67.92000 11.195
67.94000 9.012
67.96000 7.942
67.98000 10.626
68.00000 9.465
68.02000 10.630
68.04000 7.883
68.06000 5.025
68.08000 6.249
68.10000 10.945
68.12000 11.210
68.14000 13.348
68.16000 11.612
68.18000 12.194
68.20000 13.126
68.22000 14.007
68.24000 9.949
68.26000 9.234
68.28000 11.673
68.30000 17.332
68.32000 19.417
68.34000 15.128
68.36000 9.924
68.38000 13.724
68.40000 12.797
68.42000 13.257
68.44000 13.629
68.46000 18.788
68.48000 16.516
68.50000 18.832
68.52000 16.070
68.54000 14.869
68.56000 15.793
68.58000 18.438
68.60000 19.511
68.62000 20.234
68.64000 21.340
68.66000 20.743
68.68000 16.553
68.70000 17.172
68.72000 22.547
68.74000 20.664
68.76000 22.702
68.78000 21.661
68.80000 22.422
68.82000 22.047
68.84000 25.135
68.86000 25.760
68.88000 26.227
68.90000 23.372
68.92000 25.274
68.94000 27.313
68.96000 24.137
68.98000 24.497
69.00000 27.519
69.02000 24.772
69.04000 21.957
69.06000 21.048
69.08000 18.581
69.10000 21.421
69.12000 23.581
69.14000 26.097
69.16000 21.855
69.18000 18.026
69.20000 16.870
69.22000 16.636
69.24000 15.721
69.26000 20.184
69.28000 22.247
69.30000 23.669
69.32000 18.735
69.34000 16.286
69.36000 10.414
69.38000 10.619
69.40000 14.329
69.42000 13.268
69.44000 10.924
69.46000 8.746
69.48000 9.126
69.50000 11.533
69.52000 13.711
69.54000 9.426
69.56000 10.501
69.58000 9.980
69.60000 7.982
69.62000 9.598
69.64000 7.153
69.66000 7.396
69.68000 12.586
69.70000 13.675
69.72000 7.701
69.74000 7.240
69.76000 10.250
69.78000 10.395
69.80000 10.069
69.82000 10.340
69.84000 7.927
69.86000 5.502
69.88000 4.703
69.90000 2.722
69.92000 3.639
69.94000 6.129
69.96000 8.218
69.98000 6.944
70.00000 5.223
70.02000 7.893
70.04000 8.883
70.06000 5.247
70.08000 3.385
70.10000 2.039
70.12000 4.185
70.14000 3.172
70.16000 1.874
70.18000 1.838
70.20000 2.952
70.22000 2.471
70.24000 0.663
70.26000 -0.690
70.28000 3.532
70.30000 3.652
70.32000 5.222
70.34000 4.337
70.36000 2.218
70.38000 0.460
70.40000 0.612
70.42000 1.256
70.44000 0.180
70.46000 0.365
70.48000 -0.540
70.50000 0.322
70.52000 5.611
70.54000 4.642
70.56000 1.171
70.58000 4.504
70.60000 1.892
70.62000 -1.871
70.64000 1.588
70.66000 4.029
70.68000 4.669
70.70000 3.924
70.72000 1.146
70.74000 -0.458
70.76000 -2.492
70.78000 1.610
70.80000 4.078
70.82000 1.990
70.84000 2.031
70.86000 1.195
70.88000 4.659
70.90000 3.084
70.92000 1.584
70.94000 5.202
70.96000 5.728
70.98000 1.597
71.00000 -2.468
71.02000 -0.601
71.04000 -0.712
71.06000 2.835
71.08000 2.307
71.10000 4.049
71.12000 1.805
71.14000 2.371
71.16000 2.914
71.18000 3.202
71.20000 5.804
71.22000 0.540
71.24000 4.330
71.26000 3.345
71.28000 1.709
71.30000 3.857
71.32000 6.450
71.34000 5.921
71.36000 0.697
71.38000 -1.271
71.40000 0.211
71.42000 3.325
71.44000 5.936
71.46000 1.382
71.48000 2.779
71.50000 5.373
71.52000 8.071
71.54000 4.983
71.56000 1.311
71.58000 3.519
71.60000 0.534
71.62000 3.321
71.64000 3.680
71.66000 3.626
71.68000 6.876
71.70000 6.709
71.72000 1.803
71.74000 0.910
71.76000 1.948
71.78000 0.149
71.80000 -2.427
71.82000 -1.523
71.84000 -0.824
71.86000 2.907
71.88000 2.281
71.90000 2.203
71.92000 1.071
71.94000 2.113
71.96000 2.719
71.98000 1.165
72.00000 4.578
72.02000 4.917
72.04000 2.848
72.06000 -0.469
72.08000 -1.607
72.10000 -1.756
72.12000 0.402
72.14000 -1.861
72.16000 -0.765
72.18000 3.349
72.20000 1.553
72.22000 0.324
72.24000 3.685
72.26000 -1.077
72.28000 -2.424
72.30000 0.695
72.32000 1.975
72.34000 4.482
72.36000 1.953
72.38000 5.943
72.40000 6.101
72.42000 6.354
72.44000 2.702
72.46000 -0.958
72.48000 1.480
72.50000 2.043
72.52000 -1.561
72.54000 0.491
72.56000 -2.420
72.58000 -1.164
72.60000 0.759
72.62000 5.088
72.64000 3.179
72.66000 5.422
72.68000 4.599
72.70000 -0.022
72.72000 1.063
72.74000 1.202
72.76000 -2.227
72.78000 3.969
72.80000 2.714
72.82000 2.933
72.84000 3.086
72.86000 2.516
72.88000 0.078
72.90000 1.126
72.92000 3.109
72.94000 0.325
72.96000 1.350
72.98000 0.506
73.00000 -2.236
73.02000 0.009
73.04000 -0.674
73.06000 -1.711
73.08000 1.688
73.10000 7.085
73.12000 5.872
73.14000 2.314
73.16000 -0.021
73.18000 2.318
73.20000 0.657
73.22000 4.492
73.24000 5.760
73.26000 6.342
73.28000 4.593
73.30000 -2.091
73.32000 0.484
73.34000 4.130
73.36000 7.852
73.38000 5.829
73.40000 -0.730
73.42000 -2.389
73.44000 0.601
73.46000 -0.585
73.48000 2.437
73.50000 5.806
73.52000 6.879
73.54000 5.365
73.56000 1.275
73.58000 4.003
73.60000 6.826
73.62000 -0.588
73.64000 -0.633
73.66000 0.916
73.68000 1.380
73.70000 -1.927
73.72000 0.175
73.74000 1.745
73.76000 2.120
73.78000 2.139
73.80000 6.924
73.82000 3.601
73.84000 0.422
73.86000 3.250
73.88000 8.439
73.90000 7.790
73.92000 8.199
73.94000 10.863
73.96000 6.328
73.98000 2.534
74.00000 2.243
74.02000 4.085
74.04000 7.929
74.06000 6.001
74.08000 3.981
74.10000 4.584
74.12000 5.177
74.14000 7.154
74.16000 5.061
74.18000 2.128
74.20000 2.260
74.22000 2.680
74.24000 5.484
74.26000 2.315
74.28000 2.826
74.30000 2.343
74.32000 7.714
74.34000 12.595
74.36000 6.000
74.38000 2.126
74.40000 2.137
74.42000 -1.642
74.44000 -2.301
74.46000 2.510
74.48000 3.585
74.50000 1.625
74.52000 3.324
74.54000 5.714
74.56000 8.429
74.58000 9.416
74.60000 7.152
74.62000 2.430
74.64000 5.166
74.66000 10.567
74.68000 6.000
74.70000 4.988
74.72000 6.051
74.74000 3.555
74.76000 3.655
74.78000 6.709
74.80000 10.480
74.82000 5.291
74.84000 -0.018
74.86000 0.745
74.88000 2.754
74.90000 6.412
74.92000 10.326
74.94000 7.499
74.96000 8.349
74.98000 6.634
75.00000 4.533
75.02000 2.750
75.04000 7.540
75.06000 3.204
75.08000 4.522
75.10000 2.196
75.12000 1.910
75.14000 4.334
75.16000 5.665
75.18000 6.586
75.20000 6.406
75.22000 5.954
75.24000 4.877
75.26000 3.606
75.28000 4.429
75.30000 6.219
75.32000 8.251
75.34000 4.479
75.36000 4.089
75.38000 5.390
75.40000 6.863
75.42000 7.070
75.44000 7.320
75.46000 8.032
75.48000 7.810
75.50000 4.947
75.52000 2.466
75.54000 3.070
75.56000 1.457
75.58000 4.550
75.60000 2.736
75.62000 7.209
75.64000 6.653
75.66000 9.257
75.68000 5.167
75.70000 2.673
75.72000 5.887
75.74000 8.498
75.76000 4.901
75.78000 4.508
75.80000 2.916
75.82000 0.061
75.84000 3.626
75.86000 2.442
75.88000 5.395
75.90000 3.225
75.92000 2.952
75.94000 -1.290
75.96000 1.011
75.98000 -2.156
76.00000 -1.733
76.02000 3.247
76.04000 3.558
76.06000 -0.302
76.08000 0.155
76.10000 7.574
76.12000 3.357
76.14000 0.125
76.16000 -2.360
76.18000 0.344
76.20000 5.466
76.22000 3.173
76.24000 4.079
76.26000 3.157
76.28000 4.066
76.30000 3.726
76.32000 8.259
76.34000 6.336
76.36000 6.295
76.38000 4.604
76.40000 7.729
76.42000 7.038
76.44000 7.550
76.46000 3.641
76.48000 3.350
76.50000 3.313
76.52000 5.161
76.54000 -0.195
76.56000 -2.365
76.58000 -2.215
76.60000 -1.653
76.62000 6.080
76.64000 9.227
76.66000 2.586
76.68000 2.552
76.70000 0.801
76.72000 4.992
76.74000 4.579
76.76000 2.647
76.78000 4.004
76.80000 6.433
76.82000 4.866
76.84000 4.632
76.86000 8.824
76.88000 7.989
76.90000 3.916
76.92000 3.823
76.94000 2.624
76.96000 2.305
76.98000 2.996
77.00000 0.495
77.02000 1.268
77.04000 2.107
77.06000 2.274
77.08000 2.205
77.10000 6.535
77.12000 5.098
77.14000 3.785
77.16000 1.615
77.18000 -0.608
77.20000 -2.360
77.22000 0.614
77.24000 2.445
77.26000 3.425
77.28000 3.793
77.30000 4.659
77.32000 6.417
77.34000 6.751
77.36000 1.139
77.38000 4.547
77.40000 7.395
77.42000 6.901
77.44000 3.937
77.46000 2.102
77.48000 3.864
77.50000 2.357
77.52000 3.799
77.54000 -0.148
77.56000 6.711
77.58000 5.106
77.60000 4.423
77.62000 1.702
77.64000 2.522
77.66000 -0.721
77.68000 1.431
77.70000 0.089
77.72000 -1.916
77.74000 1.911
77.76000 -2.167
77.78000 -2.380
77.80000 0.196
77.82000 0.769
77.84000 2.620
77.86000 3.970
77.88000 6.731
77.90000 5.666
77.92000 2.287
77.94000 0.409
77.96000 1.222
77.98000 7.495
78.00000 4.962
78.02000 0.708
78.04000 3.872
78.06000 3.355
78.08000 0.268
78.10000 4.847
78.12000 5.614
78.14000 3.209
78.16000 -0.066
78.18000 5.176
78.20000 5.187
78.22000 4.524
78.24000 3.134
78.26000 4.713
78.28000 3.978
78.30000 2.485
78.32000 0.907
78.34000 -0.246
78.36000 -0.041
78.38000 0.961
78.40000 4.103
78.42000 5.092
78.44000 7.824
78.46000 5.161
78.48000 1.856
78.50000 1.896
78.52000 5.268
78.54000 5.905
78.56000 1.139
78.58000 3.746
78.60000 1.703
78.62000 -0.115
78.64000 5.394
78.66000 0.722
78.68000 3.923
78.70000 7.567
78.72000 6.111
78.74000 4.978
78.76000 6.367
78.78000 9.140
78.80000 2.816
78.82000 1.516
78.84000 -0.292
78.86000 4.928
78.88000 4.493
78.90000 8.197
78.92000 3.278
78.94000 1.243
78.96000 2.553
78.98000 2.486
79.00000 -0.769
79.02000 2.531
79.04000 1.476
79.06000 1.230
79.08000 3.897
79.10000 1.357
79.12000 0.143
79.14000 5.284
79.16000 8.706
79.18000 8.827
79.20000 5.947
79.22000 6.135
79.24000 8.367
79.26000 9.251
79.28000 4.828
79.30000 5.692
79.32000 3.666
79.34000 4.429
79.36000 7.515
79.38000 4.421
79.40000 8.789
79.42000 5.347
79.44000 6.519
79.46000 4.432
79.48000 4.261
79.50000 3.832
79.52000 -2.339
79.54000 0.351
79.56000 8.035
79.58000 6.520
79.60000 4.897
79.62000 9.856
79.64000 7.208
79.66000 -0.688
79.68000 4.020
79.70000 5.683
79.72000 6.714
79.74000 9.486
79.76000 10.326
79.78000 2.145
79.80000 -2.224
79.82000 3.978
79.84000 4.114
79.86000 0.639
79.88000 3.079
79.90000 2.816
79.92000 0.747
79.94000 6.235
79.96000 2.930
79.98000 1.040
80.00000 3.106
80.02000 6.636
80.04000 6.762
80.06000 5.445
80.08000 6.837
80.10000 4.012
80.12000 3.433
80.14000 2.545
80.16000 5.643
80.18000 5.769
80.20000 6.826
80.22000 2.179
80.24000 -0.705
80.26000 -0.548
80.28000 -0.664
80.30000 -0.050
80.32000 0.656
80.34000 0.401
80.36000 -0.012
80.38000 -0.995
80.40000 -1.062
80.42000 0.462
80.44000 2.437
80.46000 2.700
80.48000 0.742
80.50000 3.491
80.52000 4.056
80.54000 4.104
80.56000 0.926
80.58000 4.675
80.60000 2.561
80.62000 1.338
80.64000 -2.108
80.66000 1.399
80.68000 6.113
80.70000 6.339
80.72000 0.820
80.74000 5.283
80.76000 2.700
80.78000 1.354
80.80000 2.757
80.82000 3.814
80.84000 -1.743
80.86000 3.679
80.88000 7.361
80.90000 5.304
80.92000 1.853
80.94000 2.782
80.96000 5.260
80.98000 7.412
81.00000 4.584
81.02000 1.002
81.04000 1.652
81.06000 6.695
81.08000 5.723
81.10000 1.577
81.12000 2.784
81.14000 2.491
81.16000 2.830
81.18000 3.014
81.20000 2.933
81.22000 6.175
81.24000 1.878
81.26000 -1.326
81.28000 5.210
81.30000 5.039
81.32000 0.056
81.34000 2.920
81.36000 5.258
81.38000 9.719
81.40000 8.848
81.42000 8.437
81.44000 5.203
81.46000 2.671
81.48000 2.830
81.50000 4.541
81.52000 5.531
81.54000 6.170
81.56000 5.396
81.58000 9.774
81.60000 7.342
81.62000 4.651
81.64000 4.839
81.66000 -1.879
81.68000 0.611
81.70000 9.616
81.72000 10.279
81.74000 7.030
81.76000 8.818
81.78000 2.301
81.80000 -2.568
81.82000 3.398
81.84000 11.062
81.86000 4.912
81.88000 1.816
81.90000 6.099
81.92000 5.430
81.94000 4.775
81.96000 6.429
81.98000 6.838
82.00000 7.234
82.02000 6.448
82.04000 14.395
82.06000 15.303
82.08000 15.083
82.10000 14.823
82.12000 10.208
82.14000 12.049
82.16000 13.261
82.18000 14.180
82.20000 6.897
82.22000 8.104
82.24000 10.285
82.26000 12.740
82.28000 16.777
82.30000 18.133
82.32000 15.586
82.34000 14.490
82.36000 18.715
82.38000 20.869
82.40000 18.690
82.42000 15.965
82.44000 14.437
82.46000 15.002
82.48000 20.227
82.50000 14.576
82.52000 11.215
82.54000 21.121
82.56000 17.387
82.58000 15.195
82.60000 17.710
82.62000 16.358
82.64000 14.127
82.66000 16.188
82.68000 20.414
82.70000 18.224
82.72000 19.144
82.74000 18.380
82.76000 19.342
82.78000 21.192
82.80000 22.750
82.82000 19.730
82.84000 26.753
82.86000 24.990
82.88000 26.024
82.90000 25.361
82.92000 19.594
82.94000 16.763
82.96000 18.190
82.98000 17.505
83.00000 20.344
83.02000 23.295
83.04000 24.058
83.06000 24.802
83.08000 20.482
83.10000 22.937
83.12000 23.001
83.14000 20.024
83.16000 27.426
83.18000 25.427
83.20000 28.267
83.22000 28.217
83.24000 29.693
83.26000 20.834
83.28000 21.606
83.30000 22.327
83.32000 18.068
83.34000 25.832
83.36000 22.232
83.38000 23.292
83.40000 22.751
83.42000 21.225
83.44000 23.191
83.46000 20.417
83.48000 22.438
83.50000 24.306
83.52000 27.913
83.54000 26.157
83.56000 18.142
83.58000 19.793
83.60000 25.027
83.62000 23.263
83.64000 21.298
83.66000 20.800
83.68000 20.889
83.70000 18.829
83.72000 25.608
83.74000 21.058
83.76000 19.342
83.78000 21.846
83.80000 17.041
83.82000 15.276
83.84000 17.394
83.86000 14.819
83.88000 16.455
83.90000 24.568
83.92000 18.580
83.94000 10.866
83.96000 14.422
83.98000 10.390
84.00000 19.440
84.02000 16.005
84.04000 14.229
84.06000 10.603
84.08000 12.114
84.10000 12.665
84.12000 14.176
84.14000 11.062
84.16000 9.747
84.18000 14.563
84.20000 11.340
84.22000 10.689
84.24000 12.778
84.26000 13.315
84.28000 13.839
84.30000 8.104
84.32000 7.281
84.34000 10.987
84.36000 8.520
84.38000 6.730
84.40000 8.020
84.42000 5.650
84.44000 5.567
84.46000 4.175
84.48000 7.599
84.50000 7.615
84.52000 6.211
84.54000 11.002
84.56000 10.607
84.58000 7.953
84.60000 8.821
84.62000 7.368
84.64000 7.632
84.66000 8.672
84.68000 6.129
84.70000 2.451
84.72000 1.702
84.74000 5.387
84.76000 9.142
84.78000 3.276
84.80000 1.413
84.82000 1.170
84.84000 0.872
84.86000 4.384
84.88000 4.103
84.90000 6.332
84.92000 8.027
84.94000 4.831
84.96000 3.714
84.98000 8.742
85.00000 1.745
85.02000 6.448
85.04000 3.488
85.06000 5.962
85.08000 -2.447
85.10000 -1.500
85.12000 -1.755
85.14000 3.701
85.16000 6.229
85.18000 4.873
85.20000 9.690
85.22000 10.069
85.24000 7.523
85.26000 6.336
85.28000 7.231
85.30000 4.389
85.32000 3.772
85.34000 5.752
85.36000 8.336
85.38000 4.541
85.40000 1.444
85.42000 -0.049
85.44000 1.396
85.46000 0.893
85.48000 2.669
85.50000 3.968
85.52000 6.023
85.54000 2.706
85.56000 2.670
85.58000 2.615
85.60000 3.596
85.62000 2.985
85.64000 1.327
85.66000 0.190
85.68000 5.826
85.70000 8.464
85.72000 7.680
85.74000 4.746
85.76000 4.932
85.78000 7.362
85.80000 2.434
85.82000 1.682
85.84000 7.520
85.86000 5.395
85.88000 5.886
85.90000 1.295
85.92000 -0.147
85.94000 -2.405
85.96000 1.463
85.98000 3.908
86.00000 8.483
86.02000 5.359
86.04000 4.347
86.06000 7.772
86.08000 4.756
86.10000 7.236
86.12000 9.018
86.14000 6.431
86.16000 3.503
86.18000 6.865
86.20000 5.666
86.22000 -0.123
86.24000 -2.414
86.26000 1.968
86.28000 7.635
86.30000 8.571
86.32000 9.518
86.34000 4.135
86.36000 2.210
86.38000 5.155
86.40000 5.749
86.42000 5.672
86.44000 4.288
86.46000 1.906
86.48000 5.985
86.50000 5.247
86.52000 3.430
86.54000 0.555
86.56000 5.336
86.58000 5.135
86.60000 6.904
86.62000 6.223
86.64000 4.858
86.66000 1.549
86.68000 0.924
86.70000 1.176
86.72000 5.748
86.74000 2.316
86.76000 8.086
86.78000 3.875
86.80000 1.342
86.82000 2.724
86.84000 9.690
86.86000 10.111
86.88000 14.332
86.90000 10.905
86.92000 12.883
86.94000 11.605
86.96000 12.741
86.98000 12.552
87.00000 12.386
87.02000 10.633
87.04000 11.831
87.06000 15.703
87.08000 14.587
87.10000 17.030
87.12000 13.002
87.14000 10.772
87.16000 15.408
87.18000 19.555
87.20000 12.840
87.22000 11.860
87.24000 10.804
87.26000 14.417
87.28000 22.397
87.30000 20.699
87.32000 18.140
87.34000 13.434
87.36000 13.784
87.38000 17.754
87.40000 13.100
87.42000 14.386
87.44000 21.560
87.46000 22.857
87.48000 22.187
87.50000 19.960
87.52000 21.624
87.54000 17.337
87.56000 15.957
87.58000 18.755
87.60000 17.725
87.62000 18.875
87.64000 16.755
87.66000 17.514
87.68000 19.844
87.70000 18.070
87.72000 18.965
87.74000 20.154
87.76000 13.380
87.78000 12.011
87.80000 15.382
87.82000 23.281
87.84000 19.902
87.86000 18.349
87.88000 15.534
87.90000 16.447
87.92000 19.879
87.94000 22.079
87.96000 23.470
87.98000 18.883
88.00000 15.440
88.02000 15.423
88.04000 20.299
88.06000 17.134
88.08000 12.190
88.10000 15.790
88.12000 21.084
88.14000 16.664
88.16000 16.317
88.18000 17.435
88.20000 17.102
88.22000 12.079
88.24000 12.466
88.26000 9.649
88.28000 10.108
88.30000 11.385
88.32000 8.270
88.34000 11.954
88.36000 14.335
88.38000 12.786
88.40000 8.439
88.42000 9.255
88.44000 6.953
88.46000 7.925
88.48000 8.975
88.50000 11.486
88.52000 14.325
88.54000 13.965
88.56000 8.088
88.58000 2.373
88.60000 2.244
88.62000 6.863
88.64000 10.126
88.66000 5.897
88.68000 1.883
88.70000 9.752
88.72000 10.458
88.74000 7.165
88.76000 4.582
88.78000 7.219
88.80000 5.556
88.82000 3.336
88.84000 3.969
88.86000 5.515
88.88000 3.635
88.90000 5.381
88.92000 6.862
88.94000 8.299
88.96000 3.895
88.98000 -2.083
89.00000 -1.458
89.02000 0.765
89.04000 3.341
89.06000 5.842
89.08000 5.763
89.10000 6.774
89.12000 5.929
89.14000 3.409
89.16000 5.605
89.18000 7.685
89.20000 4.474
89.22000 0.954
89.24000 4.294
89.26000 1.337
89.28000 6.443
89.30000 2.939
89.32000 -1.032
89.34000 1.788
89.36000 4.000
89.38000 6.787
89.40000 4.591
89.42000 5.588
89.44000 3.859
89.46000 1.901
89.48000 0.892
89.50000 3.932
89.52000 3.047
89.54000 6.155
89.56000 3.981
89.58000 6.811
89.60000 4.317
89.62000 3.702
89.64000 -2.291
89.66000 2.127
89.68000 3.500
89.70000 6.080
89.72000 4.096
89.74000 4.220
89.76000 4.871
89.78000 4.103
89.80000 1.080
89.82000 1.542
89.84000 2.054
89.86000 3.207
89.88000 4.459
89.90000 1.425
89.92000 0.720
89.94000 -0.844
89.96000 0.279
89.98000 4.308
90.00000 6.410
90.02000 2.441
90.04000 -2.289
90.06000 2.844
90.08000 7.244
90.10000 0.477
90.12000 2.214
90.14000 6.009
90.16000 2.187
90.18000 -1.837
90.20000 -0.952
90.22000 5.697
90.24000 1.843
90.26000 1.170
90.28000 7.949
90.30000 7.227
90.32000 2.848
90.34000 0.742
90.36000 2.723
90.38000 -0.597
90.40000 -1.030
90.42000 0.634
90.44000 4.937
90.46000 2.797
90.48000 0.394
90.50000 -2.054
90.52000 -1.180
90.54000 -0.964
90.56000 -0.872
90.58000 0.015
90.60000 -1.831
90.62000 0.651
90.64000 -0.244
90.66000 0.032
90.68000 0.386
90.70000 1.322
90.72000 -2.271
90.74000 -0.002
90.76000 2.073
90.78000 0.346
90.80000 3.571
90.82000 4.237
90.84000 5.351
90.86000 2.923
90.88000 0.442
90.90000 0.270
90.92000 1.129
90.94000 3.023
90.96000 0.893
90.98000 2.261
91.00000 -0.639
91.02000 0.058
91.04000 -0.247
91.06000 2.421
91.08000 0.251
91.10000 -1.634
91.12000 0.319
91.14000 0.640
91.16000 0.415
91.18000 -0.343
91.20000 -2.226
91.22000 4.022
91.24000 3.079
91.26000 -2.272
91.28000 -0.307
91.30000 1.333
91.32000 4.417
91.34000 2.605
91.36000 1.228
91.38000 1.654
91.40000 5.907
91.42000 2.528
91.44000 2.040
91.46000 0.904
91.48000 4.427
91.50000 2.254
91.52000 2.990
91.54000 -0.796
91.56000 1.514
91.58000 4.127
91.60000 2.884
91.62000 1.923
91.64000 -1.329
91.66000 1.075
91.68000 0.338
91.70000 1.358
91.72000 -0.619
91.74000 1.925
91.76000 3.102
91.78000 3.033
91.80000 -0.546
91.82000 5.017
91.84000 0.455
91.86000 -0.670
91.88000 -0.941
91.90000 0.502
91.92000 -1.184
91.94000 4.050
91.96000 1.836
91.98000 -0.288
92.00000 0.890
92.02000 -0.118
92.04000 2.773
92.06000 1.039
92.08000 0.948
92.10000 -0.974
92.12000 -0.661
92.14000 1.087
92.16000 2.195
92.18000 3.594
92.20000 4.122
92.22000 3.604
92.24000 3.984
92.26000 -0.133
92.28000 1.393
92.30000 0.113
92.32000 0.354
92.34000 2.640
92.36000 0.250
92.38000 0.016
92.40000 0.417
92.42000 3.365
92.44000 6.385
92.46000 1.641
92.48000 -1.078
92.50000 -1.396
92.52000 5.564
92.54000 5.866
92.56000 2.621
92.58000 2.826
92.60000 -1.394
92.62000 1.801
92.64000 7.226
92.66000 4.694
92.68000 4.730
92.70000 6.202
92.72000 6.562
92.74000 6.485
92.76000 6.208
92.78000 1.507
92.80000 4.720
92.82000 1.230
92.84000 4.927
92.86000 11.457
92.88000 9.046
92.90000 4.708
92.92000 1.843
92.94000 -1.498
92.96000 -2.218
92.98000 -0.962
93.00000 0.339
93.02000 4.203
93.04000 5.346
93.06000 5.593
93.08000 4.173
93.10000 5.574
93.12000 9.039
93.14000 10.664
93.16000 10.208
93.18000 8.405
93.20000 6.757
93.22000 2.181
93.24000 -1.548
93.26000 1.222
93.28000 1.288
93.30000 2.187
93.32000 -0.312
93.34000 1.681
93.36000 4.492
93.38000 8.740
93.40000 12.762
93.42000 6.201
93.44000 0.878
93.46000 0.942
93.48000 0.785
93.50000 7.176
93.52000 6.665
93.54000 6.062
93.56000 2.970
93.58000 4.473
93.60000 8.740
93.62000 7.305
93.64000 2.947
93.66000 0.113
93.68000 1.336
93.70000 7.074
93.72000 6.170
93.74000 0.582
93.76000 0.893
93.78000 4.905
93.80000 6.835
93.82000 1.238
93.84000 1.985
93.86000 2.885
93.88000 3.643
93.90000 3.773
93.92000 4.162
93.94000 3.626
93.96000 5.077
93.98000 4.066
94.00000 4.046
94.02000 5.155
94.04000 8.883
94.06000 7.907
94.08000 7.996
94.10000 12.363
94.12000 10.861
94.14000 6.294
94.16000 6.073
94.18000 2.498
94.20000 3.196
94.22000 2.785
94.24000 7.561
94.26000 6.720
94.28000 6.882
94.30000 6.796
94.32000 6.788
94.34000 5.415
94.36000 3.681
94.38000 1.005
94.40000 3.584
94.42000 4.146
94.44000 4.206
94.46000 0.373
94.48000 1.601
94.50000 -0.766
94.52000 -2.237
94.54000 -1.815
94.56000 1.608
94.58000 6.542
94.60000 5.540
94.62000 3.881
94.64000 8.083
94.66000 3.063
94.68000 3.098
94.70000 3.959
94.72000 5.114
94.74000 5.433
94.76000 2.303
94.78000 1.358
94.80000 1.152
94.82000 1.090
94.84000 6.782
94.86000 4.771
94.88000 1.271
94.90000 5.405
94.92000 3.336
94.94000 3.922
94.96000 5.014
94.98000 4.436
95.00000 3.618
95.02000 8.807
95.04000 10.092
95.06000 5.813
95.08000 7.845
95.10000 10.163
95.12000 7.783
95.14000 6.232
95.16000 7.542
95.18000 6.500
95.20000 8.600
95.22000 6.189
95.24000 2.158
95.26000 -0.440
95.28000 0.973
95.30000 3.210
95.32000 2.278
95.34000 5.941
95.36000 8.030
95.38000 7.258
95.40000 2.538
95.42000 2.886
95.44000 4.364
95.46000 9.037
95.48000 7.139
95.50000 10.883
95.52000 7.327
95.54000 2.438
95.56000 0.072
95.58000 4.150
95.60000 4.248
95.62000 3.722
95.64000 -1.957
95.66000 2.227
95.68000 4.321
95.70000 9.564
95.72000 10.997
95.74000 3.894
95.76000 4.853
95.78000 3.901
95.80000 5.670
95.82000 5.980
95.84000 1.331
95.86000 1.074
95.88000 2.676
95.90000 2.573
95.92000 3.696
95.94000 2.909
95.96000 -2.245
95.98000 3.512
96.00000 8.031
96.02000 6.463
96.04000 6.644
96.06000 7.216
96.08000 6.180
96.10000 3.595
96.12000 3.917
96.14000 4.836
96.16000 3.919
96.18000 5.498
96.20000 4.275
96.22000 9.586
96.24000 5.507
96.26000 3.444
96.28000 5.371
96.30000 1.704
96.32000 -0.561
96.34000 0.725
96.36000 2.501
96.38000 3.624
96.40000 3.149
96.42000 1.064
96.44000 8.066
96.46000 3.888
96.48000 7.710
96.50000 6.732
96.52000 0.466
96.54000 1.599
96.56000 7.422
96.58000 4.473
96.60000 6.260
96.62000 11.514
96.64000 9.114
96.66000 3.406
96.68000 5.232
96.70000 4.785
96.72000 -0.243
96.74000 2.155
96.76000 5.757
96.78000 -0.504
96.80000 0.006
96.82000 5.343
96.84000 1.857
96.86000 -2.258
96.88000 -0.698
96.90000 3.732
96.92000 4.209
96.94000 1.937
96.96000 1.023
96.98000 0.485
97.00000 3.945
97.02000 5.113
97.04000 6.310
97.06000 5.325
97.08000 11.837
97.10000 9.262
97.12000 1.544
97.14000 2.725
97.16000 1.692
97.18000 0.187
97.20000 0.567
97.22000 8.342
97.24000 12.126
97.26000 10.197
97.28000 8.896
97.30000 7.411
97.32000 5.865
97.34000 7.237
97.36000 6.301
97.38000 4.975
97.40000 9.252
97.42000 8.363
97.44000 3.443
97.46000 -0.643
97.48000 -2.229
97.50000 -2.234
97.52000 -2.185
97.54000 0.840
97.56000 4.519
97.58000 5.343
97.60000 7.345
97.62000 3.369
97.64000 2.404
97.66000 0.538
97.68000 2.337
97.70000 0.391
97.72000 1.280
97.74000 5.069
97.76000 -1.794
97.78000 -1.721
97.80000 6.134
97.82000 5.049
97.84000 5.195
97.86000 8.100
97.88000 -1.458
97.90000 0.211
97.92000 7.365
97.94000 5.328
97.96000 -0.176
97.98000 -1.540
98.00000 -2.212
98.02000 1.964
98.04000 6.501
98.06000 6.912
98.08000 0.190
98.10000 -1.199
98.12000 1.210
98.14000 10.151
98.16000 12.491
98.18000 8.147
98.20000 3.423
98.22000 2.477
98.24000 1.566
98.26000 3.200
98.28000 9.446
98.30000 8.668
98.32000 4.348
98.34000 9.879
98.36000 9.328
98.38000 -0.574
98.40000 5.305
98.42000 10.268
98.44000 11.742
98.46000 5.955
98.48000 9.183
98.50000 3.068
98.52000 7.593
98.54000 1.329
98.56000 1.259
98.58000 3.135
98.60000 10.148
98.62000 9.981
98.64000 4.713
98.66000 9.174
98.68000 10.807
98.70000 9.916
98.72000 7.267
98.74000 9.050
98.76000 7.296
98.78000 11.568
98.80000 5.347
98.82000 7.433
98.84000 9.553
98.86000 8.189
98.88000 10.105
98.90000 9.248
98.92000 5.044
98.94000 7.948
98.96000 0.059
98.98000 5.497
99.00000 10.836
99.02000 9.062
99.04000 11.822
99.06000 14.069
99.08000 8.785
99.10000 11.345
99.12000 18.045
99.14000 14.565
99.16000 11.326
99.18000 14.746
99.20000 8.849
99.22000 8.726
99.24000 11.504
99.26000 8.161
99.28000 11.722
99.30000 18.646
99.32000 9.878
99.34000 1.086
99.36000 0.823
99.38000 11.005
99.40000 13.004
99.42000 8.373
99.44000 11.614
99.46000 13.763
99.48000 19.404
99.50000 14.184
99.52000 15.763
99.54000 18.703
99.56000 16.013
99.58000 18.507
99.60000 23.848
99.62000 24.008
99.64000 21.340
99.66000 22.063
99.68000 19.133
99.70000 19.238
99.72000 4.269
99.74000 -2.029
99.76000 3.603
99.78000 14.208
99.80000 16.244
99.82000 10.523
99.84000 9.883
99.86000 7.197
99.88000 2.668
99.90000 9.726
99.92000 1.248
99.94000 8.279
99.96000 5.534
99.98000 0.000
