'Id: "0011389" Comment: "Integrate frame 0011389_Au-Ir-Rh_Au-Rich_XRD_Mapping-106-0000.gfrmwith cursor Wedge Cursor #5" Operator: "B?rgel" Anode: "Cu" Wavelength: "1.5406" Scantype: "2Theta (TwoTheta)" TimePerStep: "1" X: "9" Y: "-13.5" Z: "5.95" 
10.00000 0.000
10.02000 -0.314
10.04000 5.090
10.06000 18.918
10.08000 6.852
10.10000 2.199
10.12000 24.699
10.14000 20.055
10.16000 -3.969
10.18000 -1.648
10.20000 10.356
10.22000 2.132
10.24000 12.810
10.26000 1.190
10.28000 -3.957
10.30000 13.042
10.32000 9.030
10.34000 20.954
10.36000 14.353
10.38000 8.379
10.40000 14.149
10.42000 28.332
10.44000 16.802
10.46000 16.310
10.48000 27.844
10.50000 5.865
10.52000 8.276
10.54000 19.107
10.56000 16.698
10.58000 17.039
10.60000 31.463
10.62000 22.391
10.64000 10.961
10.66000 2.731
10.68000 2.678
10.70000 2.230
10.72000 12.958
10.74000 6.479
10.76000 14.893
10.78000 26.913
10.80000 25.189
10.82000 14.692
10.84000 6.044
10.86000 26.706
10.88000 15.166
10.90000 12.906
10.92000 9.424
10.94000 10.628
10.96000 17.985
10.98000 35.065
11.00000 35.927
11.02000 27.981
11.04000 9.204
11.06000 13.232
11.08000 18.955
11.10000 17.407
11.12000 12.359
11.14000 8.587
11.16000 4.818
11.18000 4.311
11.20000 13.782
11.22000 22.511
11.24000 11.384
11.26000 10.248
11.28000 20.891
11.30000 23.415
11.32000 10.542
11.34000 -0.786
11.36000 17.440
11.38000 4.713
11.40000 15.906
11.42000 10.490
11.44000 16.095
11.46000 20.941
11.48000 20.580
11.50000 10.042
11.52000 1.682
11.54000 5.278
11.56000 27.407
11.58000 20.656
11.60000 28.836
11.62000 18.600
11.64000 14.205
11.66000 11.418
11.68000 9.474
11.70000 15.230
11.72000 18.278
11.74000 27.539
11.76000 16.828
11.78000 9.746
11.80000 20.162
11.82000 26.265
11.84000 18.594
11.86000 12.605
11.88000 6.296
11.90000 12.018
11.92000 23.536
11.94000 32.244
11.96000 24.360
11.98000 25.595
12.00000 30.256
12.02000 20.658
12.04000 16.515
12.06000 21.941
12.08000 15.575
12.10000 10.703
12.12000 15.900
12.14000 19.148
12.16000 12.952
12.18000 9.520
12.20000 11.298
12.22000 30.604
12.24000 27.057
12.26000 19.398
12.28000 21.390
12.30000 24.744
12.32000 10.205
12.34000 17.999
12.36000 20.296
12.38000 29.551
12.40000 21.085
12.42000 9.438
12.44000 7.593
12.46000 16.768
12.48000 9.920
12.50000 14.781
12.52000 13.114
12.54000 20.537
12.56000 30.459
12.58000 28.213
12.60000 17.815
12.62000 18.359
12.64000 20.938
12.66000 9.611
12.68000 7.909
12.70000 14.719
12.72000 15.802
12.74000 18.546
12.76000 23.480
12.78000 17.381
12.80000 17.020
12.82000 22.019
12.84000 29.065
12.86000 26.965
12.88000 9.354
12.90000 11.132
12.92000 18.287
12.94000 21.169
12.96000 19.909
12.98000 16.411
13.00000 14.956
13.02000 19.911
13.04000 11.168
13.06000 7.555
13.08000 6.478
13.10000 16.261
13.12000 13.076
13.14000 8.370
13.16000 21.015
13.18000 25.272
13.20000 25.012
13.22000 16.577
13.24000 12.022
13.26000 7.832
13.28000 12.159
13.30000 15.055
13.32000 13.950
13.34000 11.339
13.36000 21.923
13.38000 22.559
13.40000 25.620
13.42000 28.083
13.44000 10.788
13.46000 18.714
13.48000 8.526
13.50000 19.255
13.52000 20.541
13.54000 21.525
13.56000 22.210
13.58000 9.038
13.60000 4.475
13.62000 4.046
13.64000 10.988
13.66000 16.324
13.68000 19.385
13.70000 19.733
13.72000 13.920
13.74000 18.558
13.76000 26.794
13.78000 22.569
13.80000 11.959
13.82000 13.564
13.84000 17.283
13.86000 9.818
13.88000 6.048
13.90000 10.015
13.92000 15.059
13.94000 8.686
13.96000 6.160
13.98000 11.227
14.00000 9.518
14.02000 6.362
14.04000 9.757
14.06000 9.748
14.08000 12.970
14.10000 9.510
14.12000 9.291
14.14000 6.288
14.16000 4.474
14.18000 4.301
14.20000 5.495
14.22000 7.454
14.24000 15.057
14.26000 21.108
14.28000 20.473
14.30000 10.761
14.32000 11.408
14.34000 14.595
14.36000 19.170
14.38000 8.621
14.40000 3.760
14.42000 11.204
14.44000 19.292
14.46000 18.415
14.48000 16.300
14.50000 16.669
14.52000 7.530
14.54000 1.177
14.56000 -1.115
14.58000 4.863
14.60000 7.986
14.62000 14.975
14.64000 21.477
14.66000 14.044
14.68000 0.999
14.70000 5.905
14.72000 1.669
14.74000 -3.596
14.76000 -0.198
14.78000 9.105
14.80000 11.118
14.82000 9.257
14.84000 7.675
14.86000 15.354
14.88000 13.642
14.90000 13.887
14.92000 13.559
14.94000 13.862
14.96000 13.229
14.98000 13.934
15.00000 20.947
15.02000 16.393
15.04000 11.844
15.06000 11.487
15.08000 15.275
15.10000 8.492
15.12000 5.455
15.14000 9.289
15.16000 7.511
15.18000 4.367
15.20000 10.820
15.22000 7.565
15.24000 -3.248
15.26000 5.223
15.28000 12.900
15.30000 6.253
15.32000 5.954
15.34000 6.155
15.36000 10.976
15.38000 16.617
15.40000 7.499
15.42000 -1.907
15.44000 13.525
15.46000 6.416
15.48000 6.337
15.50000 8.738
15.52000 15.846
15.54000 7.454
15.56000 -4.226
15.58000 -0.863
15.60000 7.328
15.62000 8.288
15.64000 7.929
15.66000 10.411
15.68000 14.787
15.70000 7.319
15.72000 2.372
15.74000 0.546
15.76000 0.587
15.78000 2.365
15.80000 1.953
15.82000 -3.628
15.84000 -4.397
15.86000 3.650
15.88000 14.911
15.90000 17.937
15.92000 19.481
15.94000 12.222
15.96000 15.324
15.98000 9.026
16.00000 2.657
16.02000 9.035
16.04000 2.960
16.06000 11.418
16.08000 9.654
16.10000 13.518
16.12000 16.314
16.14000 9.709
16.16000 4.817
16.18000 5.225
16.20000 8.288
16.22000 4.696
16.24000 3.776
16.26000 7.385
16.28000 6.221
16.30000 4.354
16.32000 9.821
16.34000 12.097
16.36000 3.964
16.38000 4.497
16.40000 9.744
16.42000 9.696
16.44000 11.547
16.46000 11.231
16.48000 0.841
16.50000 0.856
16.52000 3.470
16.54000 3.876
16.56000 3.141
16.58000 14.335
16.60000 14.015
16.62000 17.098
16.64000 12.111
16.66000 9.160
16.68000 14.422
16.70000 4.858
16.72000 9.186
16.74000 5.565
16.76000 0.932
16.78000 2.473
16.80000 2.677
16.82000 1.785
16.84000 6.994
16.86000 6.854
16.88000 8.194
16.90000 8.733
16.92000 2.237
16.94000 9.501
16.96000 10.608
16.98000 6.053
17.00000 5.115
17.02000 10.434
17.04000 6.741
17.06000 3.746
17.08000 2.403
17.10000 5.689
17.12000 4.428
17.14000 4.891
17.16000 2.142
17.18000 4.354
17.20000 1.189
17.22000 -1.405
17.24000 3.490
17.26000 11.334
17.28000 10.291
17.30000 12.604
17.32000 11.838
17.34000 4.661
17.36000 6.711
17.38000 8.696
17.40000 6.652
17.42000 6.257
17.44000 0.298
17.46000 1.495
17.48000 10.410
17.50000 12.584
17.52000 16.149
17.54000 6.959
17.56000 2.012
17.58000 5.400
17.60000 18.137
17.62000 8.355
17.64000 5.285
17.66000 8.995
17.68000 13.515
17.70000 13.643
17.72000 17.598
17.74000 3.329
17.76000 2.216
17.78000 4.203
17.80000 14.374
17.82000 14.300
17.84000 14.783
17.86000 10.795
17.88000 4.179
17.90000 10.170
17.92000 10.456
17.94000 8.862
17.96000 2.478
17.98000 11.005
18.00000 9.112
18.02000 3.385
18.04000 4.975
18.06000 -4.294
18.08000 1.488
18.10000 10.983
18.12000 8.839
18.14000 5.093
18.16000 13.767
18.18000 10.141
18.20000 6.467
18.22000 2.723
18.24000 -1.879
18.26000 7.355
18.28000 8.074
18.30000 4.488
18.32000 7.760
18.34000 11.407
18.36000 2.677
18.38000 4.895
18.40000 10.099
18.42000 4.932
18.44000 4.455
18.46000 1.668
18.48000 3.956
18.50000 8.257
18.52000 5.983
18.54000 7.964
18.56000 6.257
18.58000 10.418
18.60000 4.337
18.62000 6.351
18.64000 3.609
18.66000 4.011
18.68000 2.206
18.70000 9.094
18.72000 11.513
18.74000 2.062
18.76000 -0.443
18.78000 -2.353
18.80000 -1.696
18.82000 2.261
18.84000 1.411
18.86000 3.015
18.88000 9.437
18.90000 8.172
18.92000 5.032
18.94000 4.128
18.96000 3.864
18.98000 11.858
19.00000 12.598
19.02000 10.381
19.04000 9.852
19.06000 8.750
19.08000 3.429
19.10000 1.068
19.12000 1.974
19.14000 14.352
19.16000 10.110
19.18000 0.826
19.20000 -0.526
19.22000 3.835
19.24000 7.523
19.26000 10.928
19.28000 0.218
19.30000 0.289
19.32000 4.926
19.34000 5.898
19.36000 4.637
19.38000 11.646
19.40000 3.336
19.42000 4.703
19.44000 2.599
19.46000 -1.555
19.48000 -4.226
19.50000 1.261
19.52000 7.725
19.54000 5.110
19.56000 4.973
19.58000 12.913
19.60000 12.254
19.62000 12.385
19.64000 5.128
19.66000 5.724
19.68000 1.769
19.70000 -1.438
19.72000 -1.697
19.74000 6.460
19.76000 3.182
19.78000 6.733
19.80000 4.362
19.82000 0.922
19.84000 -0.536
19.86000 -1.134
19.88000 1.194
19.90000 2.895
19.92000 0.875
19.94000 1.450
19.96000 1.847
19.98000 -0.709
20.00000 4.319
20.02000 5.913
20.04000 2.141
20.06000 6.744
20.08000 6.871
20.10000 -1.094
20.12000 5.295
20.14000 7.408
20.16000 5.298
20.18000 3.869
20.20000 2.139
20.22000 7.101
20.24000 6.124
20.26000 -3.683
20.28000 -2.746
20.30000 2.737
20.32000 6.510
20.34000 4.773
20.36000 9.278
20.38000 2.908
20.40000 -0.806
20.42000 0.819
20.44000 5.875
20.46000 4.817
20.48000 0.180
20.50000 0.517
20.52000 6.151
20.54000 6.766
20.56000 -4.181
20.58000 -2.564
20.60000 3.742
20.62000 1.633
20.64000 -0.084
20.66000 2.109
20.68000 3.488
20.70000 6.953
20.72000 13.646
20.74000 10.886
20.76000 14.486
20.78000 12.304
20.80000 13.374
20.82000 4.795
20.84000 -1.019
20.86000 -3.654
20.88000 -0.578
20.90000 8.779
20.92000 7.627
20.94000 10.536
20.96000 13.645
20.98000 7.637
21.00000 6.720
21.02000 7.727
21.04000 7.280
21.06000 6.713
21.08000 4.338
21.10000 2.627
21.12000 9.809
21.14000 2.254
21.16000 0.090
21.18000 2.981
21.20000 -0.055
21.22000 4.089
21.24000 9.082
21.26000 2.725
21.28000 4.838
21.30000 3.708
21.32000 1.969
21.34000 -4.126
21.36000 2.344
21.38000 7.613
21.40000 2.004
21.42000 1.982
21.44000 1.931
21.46000 4.150
21.48000 9.258
21.50000 3.090
21.52000 7.187
21.54000 8.593
21.56000 6.394
21.58000 8.600
21.60000 8.819
21.62000 9.522
21.64000 8.454
21.66000 6.797
21.68000 7.150
21.70000 5.951
21.72000 0.886
21.74000 -1.279
21.76000 -3.314
21.78000 -0.522
21.80000 4.651
21.82000 5.298
21.84000 0.430
21.86000 4.942
21.88000 5.170
21.90000 3.565
21.92000 3.475
21.94000 -4.103
21.96000 -3.341
21.98000 -0.190
22.00000 0.576
22.02000 5.890
22.04000 8.321
22.06000 4.671
22.08000 4.244
22.10000 2.380
22.12000 4.393
22.14000 10.652
22.16000 4.551
22.18000 4.048
22.20000 -2.444
22.22000 2.677
22.24000 1.919
22.26000 -3.018
22.28000 -2.245
22.30000 -0.041
22.32000 -1.873
22.34000 1.887
22.36000 5.080
22.38000 9.784
22.40000 8.452
22.42000 4.153
22.44000 2.492
22.46000 -2.825
22.48000 -1.143
22.50000 1.547
22.52000 0.240
22.54000 7.627
22.56000 2.911
22.58000 -3.211
22.60000 -3.072
22.62000 3.243
22.64000 9.268
22.66000 4.617
22.68000 7.057
22.70000 4.512
22.72000 4.742
22.74000 2.828
22.76000 7.309
22.78000 8.420
22.80000 2.733
22.82000 -2.688
22.84000 3.785
22.86000 3.828
22.88000 2.365
22.90000 4.416
22.92000 -1.168
22.94000 0.671
22.96000 6.450
22.98000 -0.005
23.00000 -0.881
23.02000 -3.115
23.04000 -1.230
23.06000 4.924
23.08000 2.483
23.10000 0.673
23.12000 -3.116
23.14000 3.972
23.16000 6.616
23.18000 4.169
23.20000 0.509
23.22000 0.735
23.24000 8.839
23.26000 6.973
23.28000 1.268
23.30000 -4.052
23.32000 -0.626
23.34000 0.102
23.36000 8.296
23.38000 6.649
23.40000 6.993
23.42000 9.026
23.44000 3.736
23.46000 2.515
23.48000 1.730
23.50000 -1.781
23.52000 -0.783
23.54000 2.666
23.56000 4.242
23.58000 3.166
23.60000 1.353
23.62000 -1.794
23.64000 -2.603
23.66000 0.258
23.68000 -1.156
23.70000 2.915
23.72000 3.853
23.74000 3.718
23.76000 9.479
23.78000 1.886
23.80000 2.781
23.82000 3.228
23.84000 0.868
23.86000 1.339
23.88000 -1.979
23.90000 -1.839
23.92000 2.540
23.94000 5.495
23.96000 9.417
23.98000 8.127
24.00000 5.450
24.02000 2.016
24.04000 2.221
24.06000 -3.993
24.08000 -1.586
24.10000 2.081
24.12000 -1.455
24.14000 -2.469
24.16000 -0.261
24.18000 -2.509
24.20000 2.331
24.22000 -0.564
24.24000 -0.199
24.26000 4.086
24.28000 8.003
24.30000 3.831
24.32000 -1.197
24.34000 -0.894
24.36000 0.985
24.38000 4.659
24.40000 10.910
24.42000 5.748
24.44000 4.655
24.46000 6.731
24.48000 3.932
24.50000 3.010
24.52000 11.307
24.54000 7.124
24.56000 -0.706
24.58000 -0.275
24.60000 2.578
24.62000 4.172
24.64000 0.807
24.66000 -0.245
24.68000 4.202
24.70000 9.592
24.72000 4.345
24.74000 4.193
24.76000 6.218
24.78000 0.295
24.80000 -3.951
24.82000 2.916
24.84000 1.117
24.86000 6.099
24.88000 4.007
24.90000 0.721
24.92000 3.870
24.94000 0.052
24.96000 0.454
24.98000 0.642
25.00000 0.677
25.02000 1.145
25.04000 6.451
25.06000 4.126
25.08000 2.954
25.10000 3.892
25.12000 2.216
25.14000 4.220
25.16000 7.221
25.18000 5.698
25.20000 6.218
25.22000 4.774
25.24000 4.620
25.26000 -2.194
25.28000 1.511
25.30000 2.427
25.32000 3.878
25.34000 6.257
25.36000 5.223
25.38000 5.145
25.40000 7.291
25.42000 3.503
25.44000 0.428
25.46000 3.335
25.48000 0.475
25.50000 -2.024
25.52000 -2.169
25.54000 4.616
25.56000 6.049
25.58000 7.983
25.60000 7.975
25.62000 5.611
25.64000 4.239
25.66000 3.426
25.68000 -1.147
25.70000 1.162
25.72000 1.734
25.74000 -2.116
25.76000 -3.910
25.78000 4.350
25.80000 1.793
25.82000 -0.918
25.84000 -2.127
25.86000 -1.598
25.88000 -2.104
25.90000 4.367
25.92000 7.265
25.94000 10.479
25.96000 6.226
25.98000 2.811
26.00000 -0.279
26.02000 1.000
26.04000 1.341
26.06000 7.377
26.08000 5.245
26.10000 4.441
26.12000 5.251
26.14000 4.060
26.16000 2.779
26.18000 4.363
26.20000 -0.397
26.22000 3.746
26.24000 3.760
26.26000 2.292
26.28000 5.500
26.30000 4.536
26.32000 2.616
26.34000 0.497
26.36000 -2.217
26.38000 3.353
26.40000 2.337
26.42000 1.225
26.44000 2.930
26.46000 0.649
26.48000 4.553
26.50000 7.086
26.52000 1.861
26.54000 -0.572
26.56000 1.866
26.58000 5.980
26.60000 -1.615
26.62000 2.394
26.64000 7.532
26.66000 7.445
26.68000 6.216
26.70000 2.603
26.72000 2.887
26.74000 -1.403
26.76000 2.146
26.78000 7.545
26.80000 7.030
26.82000 5.145
26.84000 3.636
26.86000 0.961
26.88000 3.810
26.90000 4.251
26.92000 1.094
26.94000 -2.729
26.96000 0.125
26.98000 -0.788
27.00000 4.436
27.02000 5.038
27.04000 1.426
27.06000 8.570
27.08000 3.287
27.10000 -3.832
27.12000 -1.759
27.14000 0.216
27.16000 2.933
27.18000 0.972
27.20000 4.247
27.22000 7.191
27.24000 6.748
27.26000 2.794
27.28000 0.837
27.30000 3.104
27.32000 -0.035
27.34000 3.869
27.36000 9.872
27.38000 4.013
27.40000 7.053
27.42000 2.125
27.44000 1.351
27.46000 3.828
27.48000 4.088
27.50000 5.734
27.52000 2.356
27.54000 4.516
27.56000 5.299
27.58000 9.985
27.60000 6.263
27.62000 6.676
27.64000 0.082
27.66000 0.244
27.68000 0.094
27.70000 -3.744
27.72000 -3.289
27.74000 -3.794
27.76000 4.402
27.78000 4.855
27.80000 1.411
27.82000 5.328
27.84000 5.616
27.86000 2.173
27.88000 4.084
27.90000 7.586
27.92000 1.260
27.94000 0.503
27.96000 0.564
27.98000 7.072
28.00000 6.205
28.02000 9.195
28.04000 6.902
28.06000 5.929
28.08000 5.387
28.10000 2.844
28.12000 -0.649
28.14000 4.564
28.16000 5.393
28.18000 5.634
28.20000 2.676
28.22000 0.064
28.24000 1.385
28.26000 -2.736
28.28000 -2.543
28.30000 -2.333
28.32000 1.541
28.34000 6.700
28.36000 6.577
28.38000 1.861
28.40000 2.031
28.42000 9.427
28.44000 12.191
28.46000 3.242
28.48000 1.654
28.50000 -1.455
28.52000 -1.909
28.54000 2.596
28.56000 6.210
28.58000 2.655
28.60000 6.661
28.62000 4.942
28.64000 -3.749
28.66000 5.671
28.68000 0.736
28.70000 4.272
28.72000 5.621
28.74000 -2.141
28.76000 -1.171
28.78000 -0.693
28.80000 2.069
28.82000 5.970
28.84000 2.649
28.86000 2.521
28.88000 0.643
28.90000 0.046
28.92000 2.651
28.94000 9.647
28.96000 8.407
28.98000 9.586
29.00000 6.053
29.02000 2.190
29.04000 0.633
29.06000 3.312
29.08000 2.407
29.10000 2.084
29.12000 4.603
29.14000 0.999
29.16000 2.786
29.18000 4.351
29.20000 4.334
29.22000 6.504
29.24000 4.551
29.26000 2.831
29.28000 5.198
29.30000 3.574
29.32000 3.411
29.34000 1.407
29.36000 2.916
29.38000 5.467
29.40000 2.561
29.42000 5.661
29.44000 2.953
29.46000 3.799
29.48000 6.903
29.50000 5.313
29.52000 2.860
29.54000 3.877
29.56000 -0.921
29.58000 4.397
29.60000 3.660
29.62000 4.026
29.64000 2.340
29.66000 1.499
29.68000 4.413
29.70000 7.444
29.72000 2.565
29.74000 -1.237
29.76000 1.133
29.78000 1.505
29.80000 9.378
29.82000 8.350
29.84000 3.787
29.86000 2.622
29.88000 1.460
29.90000 9.088
29.92000 11.116
29.94000 7.881
29.96000 2.120
29.98000 2.937
30.00000 0.547
30.02000 6.807
30.04000 8.934
30.06000 6.571
30.08000 3.374
30.10000 3.851
30.12000 9.734
30.14000 13.647
30.16000 6.999
30.18000 3.673
30.20000 5.394
30.22000 8.542
30.24000 6.527
30.26000 5.133
30.28000 9.338
30.30000 10.162
30.32000 10.006
30.34000 6.036
30.36000 5.412
30.38000 5.489
30.40000 9.415
30.42000 12.710
30.44000 7.929
30.46000 5.894
30.48000 -1.309
30.50000 -3.597
30.52000 5.908
30.54000 4.838
30.56000 4.491
30.58000 4.945
30.60000 4.666
30.62000 3.542
30.64000 4.980
30.66000 6.318
30.68000 5.663
30.70000 5.449
30.72000 7.325
30.74000 1.237
30.76000 3.934
30.78000 3.570
30.80000 -0.518
30.82000 4.966
30.84000 10.981
30.86000 5.670
30.88000 0.578
30.90000 2.447
30.92000 1.007
30.94000 1.402
30.96000 4.328
30.98000 9.490
31.00000 6.342
31.02000 4.785
31.04000 9.609
31.06000 12.767
31.08000 10.227
31.10000 4.422
31.12000 3.380
31.14000 3.034
31.16000 2.783
31.18000 0.347
31.20000 -2.883
31.22000 4.911
31.24000 6.411
31.26000 4.873
31.28000 2.621
31.30000 6.574
31.32000 4.374
31.34000 2.643
31.36000 2.031
31.38000 2.599
31.40000 5.445
31.42000 12.168
31.44000 3.566
31.46000 -0.504
31.48000 3.059
31.50000 6.081
31.52000 5.454
31.54000 8.303
31.56000 6.939
31.58000 4.929
31.60000 2.723
31.62000 1.478
31.64000 1.740
31.66000 4.193
31.68000 3.637
31.70000 1.435
31.72000 2.149
31.74000 0.261
31.76000 -1.372
31.78000 1.735
31.80000 -0.329
31.82000 -2.038
31.84000 -1.660
31.86000 -0.178
31.88000 0.067
31.90000 -1.401
31.92000 2.614
31.94000 2.138
31.96000 0.400
31.98000 1.168
32.00000 6.625
32.02000 1.556
32.04000 -0.365
32.06000 4.947
32.08000 2.723
32.10000 0.403
32.12000 3.282
32.14000 5.448
32.16000 1.886
32.18000 0.601
32.20000 0.932
32.22000 2.001
32.24000 -1.600
32.26000 -1.636
32.28000 0.163
32.30000 0.443
32.32000 2.945
32.34000 0.818
32.36000 0.184
32.38000 6.592
32.40000 1.605
32.42000 3.205
32.44000 1.675
32.46000 0.264
32.48000 -0.469
32.50000 -0.203
32.52000 -3.604
32.54000 -3.459
32.56000 0.388
32.58000 5.329
32.60000 2.523
32.62000 0.484
32.64000 -1.157
32.66000 -1.838
32.68000 -0.608
32.70000 0.077
32.72000 2.577
32.74000 1.814
32.76000 5.130
32.78000 2.358
32.80000 2.938
32.82000 5.969
32.84000 1.655
32.86000 -0.019
32.88000 6.096
32.90000 5.011
32.92000 2.414
32.94000 1.212
32.96000 2.129
32.98000 6.358
33.00000 5.836
33.02000 6.086
33.04000 4.140
33.06000 2.404
33.08000 -0.221
33.10000 2.612
33.12000 3.322
33.14000 2.915
33.16000 4.255
33.18000 0.717
33.20000 3.072
33.22000 -2.623
33.24000 -0.468
33.26000 -2.784
33.28000 -0.221
33.30000 -0.308
33.32000 1.218
33.34000 2.189
33.36000 2.213
33.38000 -0.278
33.40000 -1.745
33.42000 0.358
33.44000 4.230
33.46000 2.674
33.48000 -0.511
33.50000 -3.592
33.52000 -1.159
33.54000 1.286
33.56000 1.598
33.58000 1.839
33.60000 0.488
33.62000 2.381
33.64000 4.335
33.66000 3.843
33.68000 2.146
33.70000 3.573
33.72000 4.114
33.74000 7.544
33.76000 4.687
33.78000 3.818
33.80000 6.155
33.82000 3.625
33.84000 0.896
33.86000 -0.614
33.88000 -0.112
33.90000 2.832
33.92000 4.133
33.94000 0.635
33.96000 -0.478
33.98000 1.249
34.00000 1.654
34.02000 4.671
34.04000 2.504
34.06000 5.660
34.08000 4.067
34.10000 4.085
34.12000 0.246
34.14000 2.338
34.16000 9.861
34.18000 3.740
34.20000 1.604
34.22000 4.913
34.24000 4.360
34.26000 -0.178
34.28000 3.328
34.30000 4.146
34.32000 2.170
34.34000 -2.764
34.36000 -3.460
34.38000 -0.931
34.40000 2.483
34.42000 5.681
34.44000 0.943
34.46000 2.848
34.48000 -1.375
34.50000 -0.128
34.52000 0.916
34.54000 -2.086
34.56000 -1.682
34.58000 -1.284
34.60000 0.628
34.62000 5.474
34.64000 1.485
34.66000 1.574
34.68000 3.108
34.70000 3.527
34.72000 -0.259
34.74000 2.039
34.76000 -0.358
34.78000 1.016
34.80000 2.282
34.82000 6.089
34.84000 5.675
34.86000 4.152
34.88000 2.665
34.90000 0.999
34.92000 0.333
34.94000 -3.580
34.96000 -0.814
34.98000 -2.915
35.00000 -1.385
35.02000 3.571
35.04000 0.471
35.06000 -2.157
35.08000 4.472
35.10000 2.837
35.12000 3.307
35.14000 1.097
35.16000 -1.261
35.18000 -3.571
35.20000 0.944
35.22000 4.402
35.24000 3.091
35.26000 2.119
35.28000 0.480
35.30000 2.298
35.32000 1.245
35.34000 3.923
35.36000 1.179
35.38000 0.166
35.40000 2.963
35.42000 1.581
35.44000 1.626
35.46000 1.355
35.48000 1.474
35.50000 3.661
35.52000 4.008
35.54000 2.904
35.56000 3.293
35.58000 5.023
35.60000 3.254
35.62000 -2.327
35.64000 -3.554
35.66000 0.728
35.68000 6.546
35.70000 4.220
35.72000 2.395
35.74000 2.357
35.76000 1.964
35.78000 3.358
35.80000 4.370
35.82000 5.863
35.84000 0.323
35.86000 -1.747
35.88000 0.334
35.90000 -3.560
35.92000 -3.121
35.94000 5.349
35.96000 8.839
35.98000 3.648
36.00000 5.949
36.02000 7.397
36.04000 2.524
36.06000 1.959
36.08000 2.508
36.10000 4.782
36.12000 4.456
36.14000 3.378
36.16000 5.577
36.18000 5.406
36.20000 -0.797
36.22000 -2.668
36.24000 -0.671
36.26000 4.291
36.28000 5.562
36.30000 6.363
36.32000 6.139
36.34000 4.316
36.36000 1.275
36.38000 -0.536
36.40000 -0.752
36.42000 0.215
36.44000 -0.681
36.46000 1.274
36.48000 6.784
36.50000 5.923
36.52000 1.872
36.54000 4.031
36.56000 1.979
36.58000 0.582
36.60000 3.915
36.62000 4.462
36.64000 3.109
36.66000 0.995
36.68000 0.359
36.70000 -3.604
36.72000 2.030
36.74000 5.934
36.76000 4.675
36.78000 4.820
36.80000 5.256
36.82000 4.211
36.84000 1.785
36.86000 5.127
36.88000 8.164
36.90000 4.537
36.92000 4.266
36.94000 4.241
36.96000 2.281
36.98000 4.226
37.00000 5.425
37.02000 6.059
37.04000 4.195
37.06000 6.736
37.08000 4.143
37.10000 -0.212
37.12000 -0.558
37.14000 2.274
37.16000 6.135
37.18000 7.464
37.20000 8.304
37.22000 5.889
37.24000 6.308
37.26000 6.620
37.28000 5.567
37.30000 5.182
37.32000 7.629
37.34000 9.183
37.36000 11.011
37.38000 7.890
37.40000 8.755
37.42000 8.635
37.44000 4.049
37.46000 3.474
37.48000 7.938
37.50000 13.527
37.52000 12.644
37.54000 12.094
37.56000 11.966
37.58000 6.864
37.60000 8.050
37.62000 13.532
37.64000 13.984
37.66000 12.131
37.68000 11.728
37.70000 14.321
37.72000 11.035
37.74000 11.881
37.76000 12.011
37.78000 17.844
37.80000 16.721
37.82000 15.200
37.84000 16.700
37.86000 16.538
37.88000 17.590
37.90000 17.833
37.92000 21.619
37.94000 22.969
37.96000 21.210
37.98000 19.609
38.00000 16.656
38.02000 21.820
38.04000 24.624
38.06000 24.843
38.08000 24.049
38.10000 23.626
38.12000 26.185
38.14000 26.302
38.16000 26.521
38.18000 34.474
38.20000 30.268
38.22000 28.712
38.24000 33.583
38.26000 37.789
38.28000 35.894
38.30000 34.083
38.32000 39.354
38.34000 42.104
38.36000 43.380
38.38000 46.001
38.40000 41.474
38.42000 43.144
38.44000 45.335
38.46000 49.988
38.48000 49.539
38.50000 51.953
38.52000 52.875
38.54000 55.022
38.56000 59.029
38.58000 58.078
38.60000 62.938
38.62000 71.156
38.64000 72.975
38.66000 72.896
38.68000 76.719
38.70000 79.348
38.72000 91.825
38.74000 96.409
38.76000 95.110
38.78000 96.260
38.80000 101.007
38.82000 108.734
38.84000 110.836
38.86000 114.747
38.88000 124.176
38.90000 125.263
38.92000 135.132
38.94000 142.342
38.96000 151.578
38.98000 159.753
39.00000 169.054
39.02000 179.741
39.04000 190.821
39.06000 206.021
39.08000 218.841
39.10000 225.984
39.12000 235.164
39.14000 251.483
39.16000 269.402
39.18000 281.896
39.20000 302.239
39.22000 314.567
39.24000 333.528
39.26000 350.944
39.28000 370.193
39.30000 396.216
39.32000 415.921
39.34000 435.422
39.36000 451.620
39.38000 484.064
39.40000 499.883
39.42000 520.622
39.44000 542.083
39.46000 562.429
39.48000 583.215
39.50000 600.814
39.52000 611.321
39.54000 623.865
39.56000 645.155
39.58000 663.420
39.60000 672.196
39.62000 667.392
39.64000 664.732
39.66000 664.407
39.68000 660.682
39.70000 662.632
39.72000 654.771
39.74000 650.572
39.76000 640.743
39.78000 618.303
39.80000 605.522
39.82000 587.751
39.84000 572.032
39.86000 553.944
39.88000 525.390
39.90000 500.351
39.92000 481.068
39.94000 464.696
39.96000 440.273
39.98000 415.565
40.00000 395.194
40.02000 375.516
40.04000 353.049
40.06000 327.155
40.08000 320.902
40.10000 304.090
40.12000 284.450
40.14000 269.769
40.16000 253.849
40.18000 238.383
40.20000 227.891
40.22000 210.526
40.24000 193.278
40.26000 179.458
40.28000 167.918
40.30000 160.311
40.32000 141.917
40.34000 132.049
40.36000 132.393
40.38000 123.577
40.40000 115.657
40.42000 105.324
40.44000 101.823
40.46000 95.868
40.48000 90.191
40.50000 84.308
40.52000 76.235
40.54000 73.494
40.56000 68.013
40.58000 63.364
40.60000 58.655
40.62000 56.904
40.64000 52.460
40.66000 51.027
40.68000 48.119
40.70000 44.894
40.72000 43.111
40.74000 42.774
40.76000 42.905
40.78000 42.851
40.80000 41.715
40.82000 35.419
40.84000 33.213
40.86000 29.367
40.88000 30.538
40.90000 28.316
40.92000 26.322
40.94000 19.457
40.96000 18.828
40.98000 19.334
41.00000 19.429
41.02000 26.412
41.04000 19.405
41.06000 17.252
41.08000 16.447
41.10000 18.694
41.12000 19.593
41.14000 15.478
41.16000 15.058
41.18000 15.893
41.20000 13.211
41.22000 9.614
41.24000 8.744
41.26000 8.684
41.28000 10.800
41.30000 12.424
41.32000 10.913
41.34000 9.573
41.36000 8.794
41.38000 5.728
41.40000 4.883
41.42000 4.872
41.44000 2.173
41.46000 3.538
41.48000 7.489
41.50000 2.222
41.52000 -0.800
41.54000 0.125
41.56000 3.179
41.58000 6.114
41.60000 4.480
41.62000 6.015
41.64000 4.138
41.66000 5.790
41.68000 6.039
41.70000 4.232
41.72000 2.178
41.74000 4.085
41.76000 3.662
41.78000 5.489
41.80000 3.325
41.82000 2.256
41.84000 4.897
41.86000 6.842
41.88000 2.403
41.90000 -1.203
41.92000 -1.992
41.94000 0.529
41.96000 0.278
41.98000 2.713
42.00000 5.796
42.02000 3.322
42.04000 3.791
42.06000 2.221
42.08000 0.380
42.10000 0.816
42.12000 -0.322
42.14000 2.433
42.16000 0.819
42.18000 -0.070
42.20000 -2.088
42.22000 1.250
42.24000 -3.327
42.26000 -0.480
42.28000 3.965
42.30000 3.919
42.32000 2.197
42.34000 0.599
42.36000 2.098
42.38000 2.374
42.40000 3.633
42.42000 2.505
42.44000 -1.248
42.46000 -1.468
42.48000 -1.115
42.50000 1.353
42.52000 1.502
42.54000 0.479
42.56000 1.540
42.58000 -0.100
42.60000 1.355
42.62000 3.841
42.64000 0.361
42.66000 1.775
42.68000 2.233
42.70000 -2.275
42.72000 3.096
42.74000 4.744
42.76000 5.768
42.78000 0.732
42.80000 -3.242
42.82000 0.263
42.84000 2.486
42.86000 0.873
42.88000 0.271
42.90000 2.721
42.92000 0.465
42.94000 0.707
42.96000 2.000
42.98000 2.610
43.00000 1.816
43.02000 2.443
43.04000 0.177
43.06000 -0.783
43.08000 2.324
43.10000 1.946
43.12000 0.655
43.14000 -0.462
43.16000 1.008
43.18000 -3.211
43.20000 -2.450
43.22000 0.658
43.24000 3.231
43.26000 4.247
43.28000 6.126
43.30000 3.268
43.32000 2.354
43.34000 2.614
43.36000 3.272
43.38000 -2.233
43.40000 -1.267
43.42000 3.856
43.44000 3.772
43.46000 -0.026
43.48000 2.119
43.50000 4.593
43.52000 1.664
43.54000 0.755
43.56000 -0.899
43.58000 -1.975
43.60000 -3.170
43.62000 4.394
43.64000 2.756
43.66000 1.198
43.68000 1.778
43.70000 -0.640
43.72000 -1.351
43.74000 -0.266
43.76000 -0.169
43.78000 -2.740
43.80000 -1.393
43.82000 3.435
43.84000 1.755
43.86000 -0.621
43.88000 2.289
43.90000 1.386
43.92000 1.704
43.94000 1.115
43.96000 1.017
43.98000 2.318
44.00000 -1.174
44.02000 -1.984
44.04000 2.391
44.06000 2.002
44.08000 -0.804
44.10000 -1.752
44.12000 -3.131
44.14000 -1.178
44.16000 -1.298
44.18000 -0.213
44.20000 0.628
44.22000 0.140
44.24000 -1.294
44.26000 0.621
44.28000 0.391
44.30000 2.594
44.32000 4.573
44.34000 4.519
44.36000 1.168
44.38000 1.103
44.40000 1.118
44.42000 0.843
44.44000 2.728
44.46000 1.594
44.48000 3.217
44.50000 2.639
44.52000 -0.242
44.54000 -0.787
44.56000 1.321
44.58000 3.523
44.60000 2.087
44.62000 1.286
44.64000 -0.799
44.66000 -0.550
44.68000 -1.248
44.70000 3.377
44.72000 3.484
44.74000 1.615
44.76000 -0.622
44.78000 -1.010
44.80000 -0.458
44.82000 0.785
44.84000 3.838
44.86000 0.250
44.88000 1.621
44.90000 2.007
44.92000 6.682
44.94000 4.114
44.96000 3.763
44.98000 5.721
45.00000 6.031
45.02000 7.266
45.04000 8.038
45.06000 5.134
45.08000 0.400
45.10000 1.177
45.12000 1.693
45.14000 4.126
45.16000 6.778
45.18000 5.063
45.20000 4.756
45.22000 8.207
45.24000 11.378
45.26000 7.658
45.28000 10.308
45.30000 10.176
45.32000 10.617
45.34000 12.519
45.36000 12.603
45.38000 14.246
45.40000 9.632
45.42000 12.082
45.44000 13.005
45.46000 15.197
45.48000 15.997
45.50000 16.612
45.52000 16.136
45.54000 17.573
45.56000 19.876
45.58000 19.661
45.60000 25.085
45.62000 25.497
45.64000 23.246
45.66000 24.269
45.68000 28.081
45.70000 29.800
45.72000 29.807
45.74000 29.151
45.76000 28.681
45.78000 35.795
45.80000 41.055
45.82000 37.530
45.84000 36.865
45.86000 36.441
45.88000 39.840
45.90000 41.383
45.92000 42.787
45.94000 44.268
45.96000 44.012
45.98000 47.345
46.00000 49.855
46.02000 51.299
46.04000 52.788
46.06000 52.455
46.08000 54.073
46.10000 54.592
46.12000 57.630
46.14000 61.317
46.16000 62.761
46.18000 59.750
46.20000 61.417
46.22000 65.791
46.24000 63.724
46.26000 61.748
46.28000 61.045
46.30000 64.296
46.32000 67.671
46.34000 61.677
46.36000 62.573
46.38000 62.641
46.40000 67.173
46.42000 69.675
46.44000 64.520
46.46000 61.451
46.48000 60.905
46.50000 58.329
46.52000 53.822
46.54000 53.227
46.56000 52.095
46.58000 54.932
46.60000 54.793
46.62000 55.992
46.64000 54.255
46.66000 53.384
46.68000 49.107
46.70000 46.913
46.72000 43.892
46.74000 43.181
46.76000 42.407
46.78000 38.130
46.80000 35.604
46.82000 34.190
46.84000 37.059
46.86000 35.348
46.88000 31.591
46.90000 29.412
46.92000 28.064
46.94000 26.039
46.96000 28.595
46.98000 27.435
47.00000 24.270
47.02000 23.653
47.04000 22.874
47.06000 20.911
47.08000 19.273
47.10000 15.884
47.12000 12.517
47.14000 12.396
47.16000 13.762
47.18000 13.522
47.20000 12.811
47.22000 13.952
47.24000 14.959
47.26000 10.989
47.28000 9.920
47.30000 9.131
47.32000 9.837
47.34000 6.331
47.36000 7.552
47.38000 7.006
47.40000 4.338
47.42000 5.308
47.44000 3.227
47.46000 1.733
47.48000 2.264
47.50000 0.036
47.52000 4.303
47.54000 3.703
47.56000 -0.557
47.58000 1.476
47.60000 3.756
47.62000 1.825
47.64000 3.089
47.66000 -1.978
47.68000 1.481
47.70000 0.706
47.72000 -0.902
47.74000 1.811
47.76000 -0.169
47.78000 2.427
47.80000 3.591
47.82000 3.825
47.84000 2.225
47.86000 1.543
47.88000 2.587
47.90000 3.908
47.92000 3.137
47.94000 4.091
47.96000 1.554
47.98000 3.323
48.00000 -0.113
48.02000 -2.317
48.04000 -2.740
48.06000 -1.610
48.08000 -1.273
48.10000 -1.220
48.12000 1.469
48.14000 0.734
48.16000 3.094
48.18000 -0.883
48.20000 -0.805
48.22000 0.544
48.24000 4.686
48.26000 2.318
48.28000 0.795
48.30000 1.050
48.32000 -0.162
48.34000 2.803
48.36000 2.799
48.38000 3.301
48.40000 2.794
48.42000 1.252
48.44000 1.594
48.46000 -1.031
48.48000 0.003
48.50000 3.133
48.52000 5.584
48.54000 4.205
48.56000 2.271
48.58000 -0.019
48.60000 -2.655
48.62000 -0.107
48.64000 2.223
48.66000 2.343
48.68000 0.913
48.70000 -0.620
48.72000 -1.611
48.74000 -1.490
48.76000 -2.632
48.78000 0.300
48.80000 3.591
48.82000 2.221
48.84000 1.208
48.86000 1.426
48.88000 4.202
48.90000 4.248
48.92000 6.075
48.94000 5.994
48.96000 4.806
48.98000 1.726
49.00000 2.039
49.02000 1.900
49.04000 2.860
49.06000 4.179
49.08000 3.347
49.10000 2.055
49.12000 -1.146
49.14000 -0.026
49.16000 5.342
49.18000 6.662
49.20000 2.123
49.22000 -1.925
49.24000 -2.629
49.26000 -1.007
49.28000 2.145
49.30000 1.855
49.32000 1.661
49.34000 -1.050
49.36000 1.939
49.38000 -0.304
49.40000 -0.320
49.42000 0.131
49.44000 -2.044
49.46000 -0.414
49.48000 -1.032
49.50000 1.839
49.52000 5.078
49.54000 5.848
49.56000 3.358
49.58000 -0.651
49.60000 -0.847
49.62000 3.149
49.64000 5.646
49.66000 -0.488
49.68000 1.191
49.70000 0.321
49.72000 1.164
49.74000 0.300
49.76000 2.146
49.78000 -2.609
49.80000 -1.593
49.82000 -0.137
49.84000 3.059
49.86000 3.629
49.88000 2.290
49.90000 2.403
49.92000 2.737
49.94000 4.355
49.96000 -1.312
49.98000 -2.017
50.00000 2.553
50.02000 2.919
50.04000 -0.642
50.06000 -1.129
50.08000 5.258
50.10000 3.353
50.12000 -0.337
50.14000 1.285
50.16000 0.672
50.18000 0.653
50.20000 -0.442
50.22000 1.517
50.24000 0.443
50.26000 -0.277
50.28000 3.319
50.30000 7.503
50.32000 3.015
50.34000 4.306
50.36000 3.701
50.38000 0.123
50.40000 -0.684
50.42000 -0.519
50.44000 0.349
50.46000 1.598
50.48000 0.060
50.50000 -0.903
50.52000 1.767
50.54000 1.411
50.56000 2.077
50.58000 -0.278
50.60000 -1.532
50.62000 1.076
50.64000 3.314
50.66000 0.390
50.68000 -0.946
50.70000 -2.527
50.72000 0.136
50.74000 4.391
50.76000 2.381
50.78000 -0.308
50.80000 0.857
50.82000 1.234
50.84000 0.527
50.86000 2.553
50.88000 4.448
50.90000 1.746
50.92000 1.201
50.94000 2.005
50.96000 4.122
50.98000 0.915
51.00000 -2.515
51.02000 1.454
51.04000 3.425
51.06000 5.474
51.08000 4.407
51.10000 2.061
51.12000 1.853
51.14000 4.684
51.16000 4.224
51.18000 5.632
51.20000 2.263
51.22000 5.020
51.24000 2.584
51.26000 0.870
51.28000 -0.913
51.30000 0.209
51.32000 -1.972
51.34000 2.631
51.36000 5.632
51.38000 3.542
51.40000 2.067
51.42000 0.213
51.44000 -2.002
51.46000 -1.979
51.48000 -0.961
51.50000 -0.794
51.52000 0.355
51.54000 3.995
51.56000 1.788
51.58000 3.719
51.60000 0.831
51.62000 0.448
51.64000 1.053
51.66000 4.638
51.68000 4.412
51.70000 2.817
51.72000 1.008
51.74000 -1.528
51.76000 1.775
51.78000 4.536
51.80000 2.329
51.82000 -0.470
51.84000 2.060
51.86000 1.755
51.88000 3.379
51.90000 1.883
51.92000 1.034
51.94000 2.760
51.96000 2.957
51.98000 -0.459
52.00000 1.718
52.02000 1.778
52.04000 0.385
52.06000 2.266
52.08000 1.721
52.10000 -0.100
52.12000 4.752
52.14000 7.248
52.16000 1.866
52.18000 4.145
52.20000 2.729
52.22000 3.328
52.24000 -0.169
52.26000 -2.030
52.28000 -2.501
52.30000 0.679
52.32000 8.203
52.34000 5.115
52.36000 2.076
52.38000 3.797
52.40000 1.586
52.42000 4.518
52.44000 3.619
52.46000 1.136
52.48000 2.008
52.50000 0.261
52.52000 1.239
52.54000 3.756
52.56000 2.959
52.58000 -0.312
52.60000 -1.942
52.62000 1.616
52.64000 4.868
52.66000 8.125
52.68000 5.369
52.70000 0.278
52.72000 -0.213
52.74000 5.027
52.76000 3.929
52.78000 1.780
52.80000 3.511
52.82000 1.779
52.84000 0.187
52.86000 0.933
52.88000 1.315
52.90000 -2.459
52.92000 -0.674
52.94000 2.834
52.96000 1.398
52.98000 3.901
53.00000 6.340
53.02000 5.656
53.04000 5.567
53.06000 4.701
53.08000 1.853
53.10000 3.088
53.12000 3.449
53.14000 2.658
53.16000 4.179
53.18000 2.171
53.20000 0.577
53.22000 4.239
53.24000 7.777
53.26000 5.279
53.28000 0.854
53.30000 1.250
53.32000 5.910
53.34000 1.530
53.36000 2.012
53.38000 3.513
53.40000 3.061
53.42000 3.386
53.44000 1.965
53.46000 -2.456
53.48000 -2.291
53.50000 2.078
53.52000 4.520
53.54000 2.502
53.56000 -0.870
53.58000 -2.457
53.60000 1.076
53.62000 0.058
53.64000 -2.303
53.66000 3.037
53.68000 1.610
53.70000 1.621
53.72000 1.857
53.74000 0.926
53.76000 3.857
53.78000 2.560
53.80000 2.531
53.82000 1.256
53.84000 2.317
53.86000 0.944
53.88000 2.376
53.90000 3.541
53.92000 1.447
53.94000 0.111
53.96000 1.083
53.98000 0.264
54.00000 -0.781
54.02000 1.194
54.04000 1.436
54.06000 0.135
54.08000 2.065
54.10000 0.266
54.12000 -1.421
54.14000 2.450
54.16000 -0.109
54.18000 -1.422
54.20000 -2.450
54.22000 -0.436
54.24000 4.625
54.26000 0.021
54.28000 0.930
54.30000 -0.090
54.32000 0.457
54.34000 3.211
54.36000 2.824
54.38000 3.180
54.40000 5.157
54.42000 6.295
54.44000 1.859
54.46000 1.712
54.48000 2.573
54.50000 5.229
54.52000 1.987
54.54000 2.678
54.56000 2.768
54.58000 2.931
54.60000 -0.200
54.62000 1.998
54.64000 8.876
54.66000 9.358
54.68000 4.598
54.70000 3.581
54.72000 3.385
54.74000 4.384
54.76000 1.350
54.78000 -2.423
54.80000 -0.757
54.82000 2.820
54.84000 4.570
54.86000 3.782
54.88000 2.757
54.90000 3.171
54.92000 3.942
54.94000 0.779
54.96000 4.085
54.98000 4.032
55.00000 4.092
55.02000 0.572
55.04000 1.094
55.06000 0.811
55.08000 0.824
55.10000 2.885
55.12000 0.358
55.14000 1.165
55.16000 2.246
55.18000 0.685
55.20000 -2.186
55.22000 1.615
55.24000 2.202
55.26000 2.182
55.28000 2.969
55.30000 -2.062
55.32000 -1.460
55.34000 3.966
55.36000 5.045
55.38000 4.698
55.40000 3.483
55.42000 5.106
55.44000 2.656
55.46000 2.162
55.48000 -1.157
55.50000 0.710
55.52000 0.582
55.54000 0.497
55.56000 1.999
55.58000 1.060
55.60000 2.352
55.62000 5.266
55.64000 1.173
55.66000 -1.529
55.68000 -2.395
55.70000 -0.664
55.72000 2.558
55.74000 1.285
55.76000 2.037
55.78000 -0.241
55.80000 0.605
55.82000 0.633
55.84000 4.275
55.86000 2.147
55.88000 0.605
55.90000 5.755
55.92000 3.634
55.94000 2.940
55.96000 4.860
55.98000 2.599
56.00000 2.482
56.02000 2.775
56.04000 1.986
56.06000 1.925
56.08000 1.610
56.10000 4.360
56.12000 3.111
56.14000 0.873
56.16000 -1.517
56.18000 1.054
56.20000 1.702
56.22000 2.710
56.24000 2.939
56.26000 3.109
56.28000 3.771
56.30000 2.546
56.32000 3.677
56.34000 4.155
56.36000 2.322
56.38000 4.851
56.40000 3.160
56.42000 2.836
56.44000 2.314
56.46000 0.095
56.48000 2.235
56.50000 4.484
56.52000 4.099
56.54000 0.524
56.56000 2.304
56.58000 -0.546
56.60000 0.394
56.62000 -0.308
56.64000 -1.545
56.66000 -1.044
56.68000 -0.441
56.70000 -0.340
56.72000 -2.397
56.74000 0.960
56.76000 2.098
56.78000 2.089
56.80000 -0.292
56.82000 2.136
56.84000 3.023
56.86000 1.573
56.88000 1.974
56.90000 -0.255
56.92000 1.024
56.94000 2.935
56.96000 4.952
56.98000 3.011
57.00000 4.458
57.02000 5.755
57.04000 4.492
57.06000 -0.475
57.08000 -1.420
57.10000 -0.609
57.12000 0.740
57.14000 3.218
57.16000 3.254
57.18000 1.961
57.20000 -0.219
57.22000 0.076
57.24000 -0.107
57.26000 3.099
57.28000 2.693
57.30000 0.754
57.32000 0.283
57.34000 0.956
57.36000 2.192
57.38000 3.074
57.40000 2.855
57.42000 0.896
57.44000 0.489
57.46000 3.149
57.48000 3.964
57.50000 3.766
57.52000 -2.344
57.54000 -0.300
57.56000 -0.626
57.58000 2.114
57.60000 4.612
57.62000 4.273
57.64000 4.538
57.66000 3.994
57.68000 -0.063
57.70000 -0.786
57.72000 3.468
57.74000 0.392
57.76000 -0.914
57.78000 3.512
57.80000 3.567
57.82000 2.132
57.84000 3.280
57.86000 5.369
57.88000 4.423
57.90000 1.079
57.92000 -2.114
57.94000 -0.005
57.96000 0.783
57.98000 2.986
58.00000 6.074
58.02000 2.738
58.04000 2.162
58.06000 5.454
58.08000 3.506
58.10000 -0.171
58.12000 -1.005
58.14000 -0.856
58.16000 1.869
58.18000 2.478
58.20000 2.839
58.22000 2.663
58.24000 2.184
58.26000 3.794
58.28000 2.729
58.30000 -0.364
58.32000 1.561
58.34000 5.676
58.36000 5.139
58.38000 -2.331
58.40000 0.634
58.42000 4.104
58.44000 3.776
58.46000 3.239
58.48000 1.311
58.50000 -1.897
58.52000 -2.257
58.54000 0.712
58.56000 4.158
58.58000 0.413
58.60000 0.135
58.62000 1.323
58.64000 3.969
58.66000 0.381
58.68000 -1.167
58.70000 -0.752
58.72000 2.815
58.74000 0.606
58.76000 0.069
58.78000 -2.078
58.80000 -1.235
58.82000 4.347
58.84000 1.898
58.86000 0.693
58.88000 -1.000
58.90000 2.766
58.92000 0.673
58.94000 0.649
58.96000 3.122
58.98000 3.813
59.00000 2.578
59.02000 2.612
59.04000 -0.096
59.06000 0.872
59.08000 1.231
59.10000 -0.115
59.12000 0.840
59.14000 1.003
59.16000 2.887
59.18000 4.705
59.20000 3.834
59.22000 4.638
59.24000 3.323
59.26000 4.658
59.28000 4.802
59.30000 3.056
59.32000 1.366
59.34000 4.132
59.36000 2.872
59.38000 4.146
59.40000 2.246
59.42000 0.138
59.44000 -0.171
59.46000 -1.251
59.48000 1.889
59.50000 0.947
59.52000 1.174
59.54000 2.535
59.56000 6.250
59.58000 5.440
59.60000 6.601
59.62000 5.923
59.64000 3.646
59.66000 -0.054
59.68000 -2.067
59.70000 0.337
59.72000 5.052
59.74000 -0.732
59.76000 1.253
59.78000 -1.170
59.80000 -2.267
59.82000 0.712
59.84000 1.939
59.86000 3.565
59.88000 4.599
59.90000 5.013
59.92000 3.599
59.94000 4.008
59.96000 5.268
59.98000 1.824
60.00000 3.663
60.02000 7.270
60.04000 4.717
60.06000 2.791
60.08000 1.720
60.10000 -1.438
60.12000 -0.436
60.14000 0.898
60.16000 3.844
60.18000 1.289
60.20000 3.908
60.22000 2.024
60.24000 -1.019
60.26000 1.754
60.28000 4.652
60.30000 3.445
60.32000 5.283
60.34000 4.985
60.36000 4.604
60.38000 4.580
60.40000 1.705
60.42000 2.337
60.44000 2.952
60.46000 0.241
60.48000 -1.723
60.50000 4.014
60.52000 3.922
60.54000 -0.914
60.56000 3.205
60.58000 4.544
60.60000 1.835
60.62000 1.903
60.64000 0.834
60.66000 0.740
60.68000 -0.689
60.70000 -1.860
60.72000 -1.171
60.74000 1.306
60.76000 4.209
60.78000 3.893
60.80000 3.164
60.82000 3.137
60.84000 0.795
60.86000 2.165
60.88000 4.992
60.90000 1.938
60.92000 -1.995
60.94000 -0.972
60.96000 -0.027
60.98000 5.498
61.00000 1.390
61.02000 -0.310
61.04000 0.807
61.06000 -0.128
61.08000 1.900
61.10000 1.360
61.12000 2.247
61.14000 1.447
61.16000 2.237
61.18000 1.339
61.20000 3.268
61.22000 1.480
61.24000 -2.100
61.26000 -2.224
61.28000 2.250
61.30000 3.667
61.32000 5.649
61.34000 6.553
61.36000 5.360
61.38000 4.261
61.40000 1.511
61.42000 -0.762
61.44000 0.591
61.46000 1.050
61.48000 -0.856
61.50000 2.027
61.52000 0.439
61.54000 -0.133
61.56000 -0.036
61.58000 2.270
61.60000 2.936
61.62000 4.991
61.64000 5.264
61.66000 3.075
61.68000 1.893
61.70000 4.791
61.72000 3.053
61.74000 1.605
61.76000 -0.699
61.78000 1.661
61.80000 3.687
61.82000 0.422
61.84000 0.888
61.86000 1.773
61.88000 3.282
61.90000 3.860
61.92000 3.748
61.94000 3.297
61.96000 4.037
61.98000 2.271
62.00000 -1.298
62.02000 -0.471
62.04000 -2.237
62.06000 -1.296
62.08000 4.358
62.10000 5.811
62.12000 2.718
62.14000 2.088
62.16000 1.431
62.18000 0.300
62.20000 2.347
62.22000 -0.496
62.24000 0.937
62.26000 4.247
62.28000 1.913
62.30000 0.149
62.32000 -1.750
62.34000 -0.547
62.36000 1.236
62.38000 3.696
62.40000 4.152
62.42000 2.353
62.44000 2.614
62.46000 0.685
62.48000 -0.902
62.50000 1.905
62.52000 3.838
62.54000 3.293
62.56000 2.145
62.58000 2.627
62.60000 2.998
62.62000 0.531
62.64000 2.993
62.66000 2.326
62.68000 -0.336
62.70000 -1.629
62.72000 -2.212
62.74000 1.361
62.76000 3.123
62.78000 1.409
62.80000 -0.776
62.82000 2.851
62.84000 3.524
62.86000 2.721
62.88000 1.840
62.90000 1.141
62.92000 2.627
62.94000 1.977
62.96000 2.112
62.98000 0.845
63.00000 1.370
63.02000 0.492
63.04000 -0.280
63.06000 0.766
63.08000 4.686
63.10000 3.528
63.12000 5.557
63.14000 3.509
63.16000 2.369
63.18000 4.083
63.20000 2.883
63.22000 4.453
63.24000 2.548
63.26000 0.128
63.28000 1.202
63.30000 -0.556
63.32000 1.730
63.34000 -1.665
63.36000 -0.452
63.38000 -0.229
63.40000 0.278
63.42000 1.792
63.44000 1.182
63.46000 0.967
63.48000 1.552
63.50000 1.947
63.52000 0.828
63.54000 0.864
63.56000 -0.035
63.58000 -2.199
63.60000 -0.408
63.62000 2.286
63.64000 1.787
63.66000 0.364
63.68000 1.524
63.70000 1.676
63.72000 -0.677
63.74000 -1.616
63.76000 -0.311
63.78000 0.034
63.80000 -0.266
63.82000 0.264
63.84000 -1.392
63.86000 0.213
63.88000 0.701
63.90000 1.691
63.92000 2.546
63.94000 2.207
63.96000 -0.819
63.98000 -0.713
64.00000 0.173
64.02000 -0.703
64.04000 0.237
64.06000 1.097
64.08000 1.935
64.10000 0.088
64.12000 -1.084
64.14000 -1.047
64.16000 4.623
64.18000 2.956
64.20000 4.006
64.22000 3.321
64.24000 1.921
64.26000 0.445
64.28000 0.347
64.30000 1.926
64.32000 1.705
64.34000 1.871
64.36000 3.886
64.38000 3.621
64.40000 1.935
64.42000 0.354
64.44000 -1.164
64.46000 -0.005
64.48000 1.664
64.50000 1.227
64.52000 1.849
64.54000 5.152
64.56000 0.406
64.58000 -1.976
64.60000 1.247
64.62000 0.447
64.64000 -1.039
64.66000 0.782
64.68000 0.037
64.70000 0.446
64.72000 -1.603
64.74000 0.037
64.76000 5.266
64.78000 4.386
64.80000 3.157
64.82000 -0.096
64.84000 -0.585
64.86000 -0.223
64.88000 0.768
64.90000 1.453
64.92000 0.189
64.94000 2.893
64.96000 1.312
64.98000 0.624
65.00000 2.537
65.02000 1.694
65.04000 0.677
65.06000 4.142
65.08000 3.389
65.10000 1.750
65.12000 1.567
65.14000 2.523
65.16000 0.445
65.18000 1.840
65.20000 2.596
65.22000 1.379
65.24000 -1.472
65.26000 -0.673
65.28000 1.521
65.30000 3.307
65.32000 1.859
65.34000 1.339
65.36000 1.050
65.38000 2.442
65.40000 1.295
65.42000 2.282
65.44000 -0.893
65.46000 -1.024
65.48000 -2.178
65.50000 0.502
65.52000 -0.684
65.54000 0.343
65.56000 1.027
65.58000 4.037
65.60000 2.265
65.62000 -0.586
65.64000 -0.172
65.66000 -0.118
65.68000 1.496
65.70000 0.483
65.72000 0.984
65.74000 1.367
65.76000 2.698
65.78000 3.554
65.80000 4.725
65.82000 1.936
65.84000 2.410
65.86000 2.050
65.88000 -1.034
65.90000 -0.598
65.92000 -0.959
65.94000 1.959
65.96000 3.955
65.98000 3.744
66.00000 3.343
66.02000 2.314
66.04000 0.984
66.06000 1.883
66.08000 2.974
66.10000 1.934
66.12000 0.241
66.14000 2.960
66.16000 3.379
66.18000 0.035
66.20000 -0.095
66.22000 -0.268
66.24000 0.394
66.26000 0.209
66.28000 1.269
66.30000 2.374
66.32000 1.201
66.34000 -0.154
66.36000 0.160
66.38000 2.037
66.40000 2.243
66.42000 2.810
66.44000 3.670
66.46000 3.859
66.48000 1.418
66.50000 1.445
66.52000 0.966
66.54000 1.258
66.56000 2.194
66.58000 3.690
66.60000 2.657
66.62000 0.700
66.64000 2.598
66.66000 2.352
66.68000 2.704
66.70000 2.741
66.72000 0.695
66.74000 1.107
66.76000 3.860
66.78000 6.568
66.80000 4.098
66.82000 5.162
66.84000 7.610
66.86000 6.127
66.88000 6.879
66.90000 4.997
66.92000 4.798
66.94000 6.812
66.96000 8.783
66.98000 8.764
67.00000 9.715
67.02000 10.199
67.04000 7.589
67.06000 8.251
67.08000 6.464
67.10000 7.916
67.12000 7.491
67.14000 6.916
67.16000 9.649
67.18000 12.248
67.20000 12.296
67.22000 9.374
67.24000 9.383
67.26000 13.660
67.28000 12.197
67.30000 13.663
67.32000 10.859
67.34000 10.392
67.36000 10.106
67.38000 14.539
67.40000 14.024
67.42000 11.494
67.44000 10.993
67.46000 9.607
67.48000 11.646
67.50000 11.721
67.52000 10.999
67.54000 13.578
67.56000 12.003
67.58000 8.853
67.60000 10.007
67.62000 8.556
67.64000 7.938
67.66000 8.405
67.68000 9.257
67.70000 9.619
67.72000 11.126
67.74000 11.260
67.76000 7.869
67.78000 6.196
67.80000 7.898
67.82000 8.130
67.84000 8.548
67.86000 6.705
67.88000 4.702
67.90000 3.436
67.92000 4.406
67.94000 7.963
67.96000 6.629
67.98000 6.647
68.00000 5.360
68.02000 4.816
68.04000 3.672
68.06000 4.271
68.08000 3.467
68.10000 3.859
68.12000 3.790
68.14000 2.704
68.16000 2.432
68.18000 2.186
68.20000 2.771
68.22000 4.379
68.24000 3.340
68.26000 3.024
68.28000 1.607
68.30000 3.346
68.32000 4.549
68.34000 4.722
68.36000 4.797
68.38000 1.726
68.40000 1.465
68.42000 1.437
68.44000 2.227
68.46000 5.572
68.48000 2.838
68.50000 1.279
68.52000 0.183
68.54000 2.329
68.56000 0.136
68.58000 -0.126
68.60000 -0.250
68.62000 -1.096
68.64000 -1.097
68.66000 -2.129
68.68000 -0.371
68.70000 0.988
68.72000 -2.124
68.74000 -1.272
68.76000 -0.305
68.78000 1.433
68.80000 1.551
68.82000 -0.125
68.84000 0.071
68.86000 1.441
68.88000 1.895
68.90000 4.046
68.92000 3.236
68.94000 1.887
68.96000 0.768
68.98000 -2.105
69.00000 -0.860
69.02000 0.742
69.04000 4.203
69.06000 2.787
69.08000 -0.649
69.10000 -1.706
69.12000 0.230
69.14000 0.551
69.16000 -0.617
69.18000 2.553
69.20000 1.911
69.22000 0.947
69.24000 0.344
69.26000 -1.126
69.28000 -0.564
69.30000 -0.587
69.32000 -1.103
69.34000 0.621
69.36000 1.019
69.38000 0.296
69.40000 -0.463
69.42000 0.930
69.44000 0.953
69.46000 1.534
69.48000 0.225
69.50000 -0.265
69.52000 0.440
69.54000 2.077
69.56000 2.424
69.58000 1.972
69.60000 -0.642
69.62000 -1.455
69.64000 1.189
69.66000 0.572
69.68000 0.336
69.70000 -0.284
69.72000 -2.046
69.74000 0.273
69.76000 3.641
69.78000 1.614
69.80000 0.878
69.82000 3.276
69.84000 3.778
69.86000 1.059
69.88000 -1.653
69.90000 0.956
69.92000 0.032
69.94000 -0.606
69.96000 -0.126
69.98000 0.087
70.00000 0.436
70.02000 0.205
70.04000 0.726
70.06000 -0.144
70.08000 1.480
70.10000 1.596
70.12000 2.416
70.14000 3.002
70.16000 0.245
70.18000 1.377
70.20000 1.331
70.22000 0.273
70.24000 -0.175
70.26000 0.144
70.28000 -0.112
70.30000 2.715
70.32000 1.763
70.34000 -1.777
70.36000 -0.085
70.38000 3.644
70.40000 2.516
70.42000 0.399
70.44000 0.844
70.46000 -0.988
70.48000 -0.862
70.50000 -0.720
70.52000 3.401
70.54000 3.084
70.56000 1.345
70.58000 1.147
70.60000 -0.928
70.62000 0.027
70.64000 2.989
70.66000 2.410
70.68000 1.897
70.70000 2.155
70.72000 1.062
70.74000 2.534
70.76000 0.839
70.78000 1.102
70.80000 0.612
70.82000 2.392
70.84000 2.985
70.86000 4.428
70.88000 1.432
70.90000 -0.063
70.92000 0.259
70.94000 3.508
70.96000 3.973
70.98000 1.395
71.00000 2.515
71.02000 2.522
71.04000 -0.123
71.06000 -0.003
71.08000 -0.126
71.10000 -1.977
71.12000 -0.031
71.14000 1.850
71.16000 1.605
71.18000 1.205
71.20000 0.530
71.22000 0.602
71.24000 0.569
71.26000 -0.651
71.28000 1.914
71.30000 0.832
71.32000 0.765
71.34000 -1.430
71.36000 -0.642
71.38000 2.096
71.40000 -0.517
71.42000 3.012
71.44000 2.716
71.46000 0.648
71.48000 0.530
71.50000 1.278
71.52000 1.024
71.54000 0.662
71.56000 1.664
71.58000 3.235
71.60000 2.447
71.62000 2.004
71.64000 2.548
71.66000 3.357
71.68000 1.879
71.70000 3.879
71.72000 1.860
71.74000 -1.013
71.76000 -1.940
71.78000 -1.419
71.80000 0.259
71.82000 0.228
71.84000 3.006
71.86000 4.915
71.88000 2.863
71.90000 1.127
71.92000 0.774
71.94000 0.248
71.96000 0.688
71.98000 2.541
72.00000 3.036
72.02000 3.369
72.04000 0.807
72.06000 -0.526
72.08000 3.261
72.10000 4.050
72.12000 3.272
72.14000 -1.205
72.16000 -0.442
72.18000 -1.949
72.20000 -1.094
72.22000 2.041
72.24000 2.907
72.26000 1.237
72.28000 1.928
72.30000 1.507
72.32000 1.456
72.34000 1.598
72.36000 -1.772
72.38000 2.671
72.40000 3.121
72.42000 0.671
72.44000 0.956
72.46000 1.594
72.48000 2.608
72.50000 0.916
72.52000 2.135
72.54000 1.865
72.56000 0.939
72.58000 0.002
72.60000 1.607
72.62000 0.462
72.64000 1.580
72.66000 1.393
72.68000 2.726
72.70000 0.478
72.72000 1.710
72.74000 3.012
72.76000 7.123
72.78000 2.979
72.80000 2.671
72.82000 1.338
72.84000 -1.938
72.86000 -0.022
72.88000 1.953
72.90000 3.577
72.92000 1.736
72.94000 2.491
72.96000 4.707
72.98000 2.879
73.00000 0.029
73.02000 1.072
73.04000 1.803
73.06000 3.767
73.08000 6.789
73.10000 3.034
73.12000 0.027
73.14000 -1.925
73.16000 -1.257
73.18000 -0.052
73.20000 4.616
73.22000 4.502
73.24000 1.789
73.26000 0.242
73.28000 0.184
73.30000 -0.651
73.32000 0.705
73.34000 0.425
73.36000 1.709
73.38000 1.578
73.40000 1.913
73.42000 1.380
73.44000 1.646
73.46000 -0.281
73.48000 -1.904
73.50000 -1.104
73.52000 2.120
73.54000 0.546
73.56000 0.053
73.58000 -0.400
73.60000 0.566
73.62000 1.697
73.64000 0.368
73.66000 -0.753
73.68000 -0.295
73.70000 0.964
73.72000 -1.636
73.74000 0.801
73.76000 3.287
73.78000 2.960
73.80000 -0.683
73.82000 -1.054
73.84000 0.275
73.86000 0.568
73.88000 -0.508
73.90000 1.712
73.92000 -0.764
73.94000 1.130
73.96000 2.247
73.98000 1.678
74.00000 1.700
74.02000 4.779
74.04000 1.796
74.06000 -1.912
74.08000 1.438
74.10000 2.274
74.12000 0.637
74.14000 0.691
74.16000 3.241
74.18000 0.827
74.20000 0.356
74.22000 0.359
74.24000 -0.534
74.26000 1.533
74.28000 2.230
74.30000 1.384
74.32000 -0.997
74.34000 0.078
74.36000 0.015
74.38000 3.650
74.40000 3.201
74.42000 0.613
74.44000 -1.006
74.46000 -0.598
74.48000 1.399
74.50000 -0.087
74.52000 -1.909
74.54000 0.802
74.56000 1.624
74.58000 3.399
74.60000 2.365
74.62000 0.802
74.64000 0.299
74.66000 0.921
74.68000 1.170
74.70000 0.832
74.72000 2.214
74.74000 0.483
74.76000 -1.132
74.78000 2.579
74.80000 1.597
74.82000 2.364
74.84000 3.150
74.86000 0.664
74.88000 0.662
74.90000 -0.171
74.92000 -1.799
74.94000 -0.126
74.96000 -0.924
74.98000 0.507
75.00000 0.648
75.02000 -1.501
75.04000 0.711
75.06000 -0.147
75.08000 1.185
75.10000 2.700
75.12000 2.509
75.14000 2.555
75.16000 5.530
75.18000 1.285
75.20000 -1.887
75.22000 0.229
75.24000 2.942
75.26000 1.645
75.28000 0.978
75.30000 1.027
75.32000 1.967
75.34000 3.222
75.36000 3.092
75.38000 1.807
75.40000 1.971
75.42000 5.078
75.44000 0.931
75.46000 0.686
75.48000 -0.472
75.50000 1.938
75.52000 3.775
75.54000 4.877
75.56000 5.600
75.58000 2.405
75.60000 1.039
75.62000 2.212
75.64000 3.477
75.66000 4.629
75.68000 2.071
75.70000 0.758
75.72000 2.184
75.74000 2.120
75.76000 0.727
75.78000 -0.594
75.80000 1.282
75.82000 2.011
75.84000 5.306
75.86000 2.997
75.88000 3.178
75.90000 3.097
75.92000 4.099
75.94000 4.368
75.96000 3.002
75.98000 0.217
76.00000 -0.197
76.02000 3.449
76.04000 0.407
76.06000 -1.903
76.08000 0.945
76.10000 -0.062
76.12000 -0.614
76.14000 0.219
76.16000 1.912
76.18000 1.954
76.20000 -0.113
76.22000 0.620
76.24000 -1.054
76.26000 0.245
76.28000 4.323
76.30000 2.525
76.32000 0.032
76.34000 -0.084
76.36000 2.327
76.38000 2.005
76.40000 1.045
76.42000 0.085
76.44000 -0.728
76.46000 0.275
76.48000 1.411
76.50000 2.896
76.52000 2.837
76.54000 2.338
76.56000 2.317
76.58000 2.183
76.60000 1.426
76.62000 2.224
76.64000 2.718
76.66000 2.388
76.68000 3.394
76.70000 1.643
76.72000 3.635
76.74000 3.567
76.76000 2.041
76.78000 3.701
76.80000 3.563
76.82000 -0.619
76.84000 1.702
76.86000 2.484
76.88000 2.276
76.90000 0.224
76.92000 3.689
76.94000 1.728
76.96000 -1.945
76.98000 0.372
77.00000 2.414
77.02000 1.795
77.04000 3.394
77.06000 1.544
77.08000 -0.140
77.10000 0.525
77.12000 0.693
77.14000 0.637
77.16000 -0.380
77.18000 1.036
77.20000 1.260
77.22000 1.489
77.24000 -1.846
77.26000 -1.341
77.28000 1.308
77.30000 2.702
77.32000 0.228
77.34000 2.635
77.36000 3.280
77.38000 1.236
77.40000 1.722
77.42000 0.811
77.44000 1.543
77.46000 1.924
77.48000 3.657
77.50000 1.376
77.52000 -1.920
77.54000 1.454
77.56000 0.251
77.58000 -1.962
77.60000 -0.603
77.62000 0.726
77.64000 0.253
77.66000 -0.473
77.68000 0.129
77.70000 -0.752
77.72000 -0.263
77.74000 -0.596
77.76000 -0.623
77.78000 0.575
77.80000 1.371
77.82000 -1.315
77.84000 0.624
77.86000 2.280
77.88000 0.550
77.90000 1.258
77.92000 0.194
77.94000 0.795
77.96000 0.457
77.98000 0.852
78.00000 0.351
78.02000 0.732
78.04000 3.529
78.06000 2.226
78.08000 3.698
78.10000 4.884
78.12000 4.292
78.14000 4.377
78.16000 2.821
78.18000 0.663
78.20000 1.514
78.22000 1.180
78.24000 4.192
78.26000 -1.977
78.28000 -0.692
78.30000 1.766
78.32000 2.337
78.34000 2.230
78.36000 2.580
78.38000 2.429
78.40000 3.140
78.42000 2.126
78.44000 2.281
78.46000 0.413
78.48000 -0.743
78.50000 1.227
78.52000 1.712
78.54000 1.380
78.56000 0.432
78.58000 0.787
78.60000 2.249
78.62000 -1.969
78.64000 0.750
78.66000 3.950
78.68000 3.204
78.70000 1.642
78.72000 0.593
78.74000 1.204
78.76000 1.367
78.78000 4.455
78.80000 4.358
78.82000 4.780
78.84000 4.037
78.86000 4.561
78.88000 4.278
78.90000 1.135
78.92000 2.438
78.94000 4.246
78.96000 1.748
78.98000 2.264
79.00000 4.451
79.02000 4.388
79.04000 -0.588
79.06000 -1.983
79.08000 2.183
79.10000 0.344
79.12000 -0.574
79.14000 2.142
79.16000 0.672
79.18000 0.547
79.20000 3.286
79.22000 2.503
79.24000 2.684
79.26000 4.108
79.28000 2.627
79.30000 -0.793
79.32000 -1.386
79.34000 3.032
79.36000 1.611
79.38000 1.562
79.40000 1.332
79.42000 3.201
79.44000 1.040
79.46000 4.099
79.48000 3.253
79.50000 -0.392
79.52000 1.964
79.54000 0.521
79.56000 2.119
79.58000 -0.223
79.60000 -0.120
79.62000 -0.334
79.64000 -1.035
79.66000 -0.754
79.68000 0.081
79.70000 1.265
79.72000 0.055
79.74000 1.257
79.76000 0.877
79.78000 -2.075
79.80000 1.266
79.82000 3.735
79.84000 3.248
79.86000 0.598
79.88000 0.101
79.90000 -0.210
79.92000 -0.333
79.94000 -0.224
79.96000 4.029
79.98000 1.550
80.00000 1.263
80.02000 -1.241
80.04000 -0.691
80.06000 1.458
80.08000 2.471
80.10000 3.207
80.12000 1.945
80.14000 4.007
80.16000 2.613
80.18000 1.492
80.20000 4.229
80.22000 2.193
80.24000 3.362
80.26000 4.684
80.28000 0.912
80.30000 1.096
80.32000 4.771
80.34000 1.858
80.36000 -0.391
80.38000 2.436
80.40000 5.085
80.42000 7.695
80.44000 8.117
80.46000 7.839
80.48000 2.095
80.50000 0.398
80.52000 3.399
80.54000 6.515
80.56000 3.709
80.58000 4.487
80.60000 4.531
80.62000 4.575
80.64000 3.083
80.66000 7.717
80.68000 7.888
80.70000 7.201
80.72000 9.706
80.74000 9.408
80.76000 9.952
80.78000 9.041
80.80000 5.987
80.82000 8.370
80.84000 11.218
80.86000 11.917
80.88000 10.798
80.90000 8.891
80.92000 6.234
80.94000 11.222
80.96000 15.727
80.98000 14.067
81.00000 10.580
81.02000 14.440
81.04000 16.746
81.06000 15.932
81.08000 14.704
81.10000 15.574
81.12000 13.601
81.14000 12.259
81.16000 14.409
81.18000 16.576
81.20000 15.348
81.22000 14.636
81.24000 17.703
81.26000 16.802
81.28000 14.749
81.30000 17.061
81.32000 16.131
81.34000 14.579
81.36000 16.625
81.38000 17.708
81.40000 19.872
81.42000 18.711
81.44000 15.989
81.46000 17.118
81.48000 13.718
81.50000 14.220
81.52000 13.266
81.54000 13.678
81.56000 17.558
81.58000 19.951
81.60000 19.111
81.62000 17.973
81.64000 13.745
81.66000 13.395
81.68000 13.580
81.70000 13.126
81.72000 13.097
81.74000 14.224
81.76000 12.064
81.78000 9.338
81.80000 10.345
81.82000 10.532
81.84000 10.599
81.86000 11.772
81.88000 11.870
81.90000 10.900
81.92000 11.057
81.94000 8.559
81.96000 6.737
81.98000 9.386
82.00000 10.664
82.02000 10.056
82.04000 7.821
82.06000 8.761
82.08000 7.781
82.10000 6.807
82.12000 1.841
82.14000 1.755
82.16000 6.546
82.18000 8.871
82.20000 7.877
82.22000 9.388
82.24000 4.144
82.26000 2.749
82.28000 2.899
82.30000 3.726
82.32000 5.984
82.34000 4.644
82.36000 2.417
82.38000 0.712
82.40000 0.506
82.42000 -2.189
82.44000 -1.181
82.46000 2.555
82.48000 1.935
82.50000 -0.810
82.52000 0.696
82.54000 2.276
82.56000 3.454
82.58000 1.487
82.60000 0.111
82.62000 0.111
82.64000 -0.040
82.66000 -1.684
82.68000 -0.001
82.70000 2.373
82.72000 2.643
82.74000 1.632
82.76000 2.780
82.78000 -2.044
82.80000 -1.474
82.82000 -1.011
82.84000 -1.920
82.86000 1.339
82.88000 -1.550
82.90000 -1.721
82.92000 -0.634
82.94000 -0.216
82.96000 0.034
82.98000 -1.213
83.00000 -2.152
83.02000 -1.232
83.04000 -1.208
83.06000 -1.348
83.08000 -1.787
83.10000 2.047
83.12000 -1.223
83.14000 -1.910
83.16000 -0.880
83.18000 0.059
83.20000 2.898
83.22000 1.565
83.24000 -1.357
83.26000 -1.135
83.28000 -0.138
83.30000 -1.466
83.32000 -2.121
83.34000 -1.012
83.36000 -0.550
83.38000 -1.143
83.40000 -0.928
83.42000 1.312
83.44000 -2.111
83.46000 -1.160
83.48000 -0.648
83.50000 -0.629
83.52000 1.270
83.54000 3.820
83.56000 -1.051
83.58000 1.260
83.60000 1.165
83.62000 1.332
83.64000 1.254
83.66000 -0.371
83.68000 1.723
83.70000 4.116
83.72000 3.865
83.74000 1.360
83.76000 0.366
83.78000 0.034
83.80000 -0.735
83.82000 -0.653
83.84000 0.411
83.86000 1.571
83.88000 3.567
83.90000 3.705
83.92000 3.777
83.94000 3.671
83.96000 3.498
83.98000 4.072
84.00000 5.352
84.02000 4.595
84.04000 3.059
84.06000 1.705
84.08000 -2.062
84.10000 0.012
84.12000 2.694
84.14000 2.870
84.16000 6.317
84.18000 4.297
84.20000 5.050
84.22000 2.402
84.24000 5.442
84.26000 5.272
84.28000 5.189
84.30000 3.343
84.32000 6.482
84.34000 6.758
84.36000 6.181
84.38000 2.300
84.40000 4.378
84.42000 5.086
84.44000 6.361
84.46000 12.025
84.48000 12.765
84.50000 7.476
84.52000 7.043
84.54000 10.828
84.56000 13.960
84.58000 9.847
84.60000 9.507
84.62000 9.291
84.64000 11.065
84.66000 9.469
84.68000 10.809
84.70000 10.337
84.72000 11.662
84.74000 12.483
84.76000 13.439
84.78000 13.876
84.80000 11.470
84.82000 10.981
84.84000 11.325
84.86000 13.079
84.88000 11.632
84.90000 11.843
84.92000 13.195
84.94000 14.940
84.96000 16.381
84.98000 17.229
85.00000 15.343
85.02000 17.745
85.04000 18.498
85.06000 17.073
85.08000 17.808
85.10000 14.213
85.12000 16.016
85.14000 17.369
85.16000 17.326
85.18000 20.015
85.20000 19.493
85.22000 17.748
85.24000 17.084
85.26000 19.919
85.28000 20.250
85.30000 19.670
85.32000 23.891
85.34000 21.770
85.36000 21.552
85.38000 21.942
85.40000 18.123
85.42000 19.566
85.44000 18.347
85.46000 18.251
85.48000 19.656
85.50000 15.899
85.52000 18.395
85.54000 17.533
85.56000 17.400
85.58000 18.543
85.60000 16.129
85.62000 18.308
85.64000 19.115
85.66000 19.251
85.68000 20.093
85.70000 19.381
85.72000 16.324
85.74000 16.416
85.76000 21.186
85.78000 16.870
85.80000 15.904
85.82000 14.008
85.84000 14.297
85.86000 12.579
85.88000 10.906
85.90000 11.674
85.92000 10.075
85.94000 9.399
85.96000 11.794
85.98000 11.746
86.00000 9.584
86.02000 6.627
86.04000 9.472
86.06000 9.778
86.08000 12.005
86.10000 8.054
86.12000 4.366
86.14000 3.715
86.16000 4.615
86.18000 4.511
86.20000 1.968
86.22000 1.833
86.24000 5.762
86.26000 5.180
86.28000 6.059
86.30000 6.729
86.32000 5.174
86.34000 0.921
86.36000 1.678
86.38000 3.328
86.40000 3.052
86.42000 2.229
86.44000 -0.856
86.46000 0.898
86.48000 2.528
86.50000 2.154
86.52000 1.440
86.54000 0.441
86.56000 -0.265
86.58000 -0.051
86.60000 2.193
86.62000 0.360
86.64000 0.065
86.66000 -0.199
86.68000 -0.402
86.70000 2.117
86.72000 2.761
86.74000 1.148
86.76000 1.425
86.78000 2.016
86.80000 2.697
86.82000 0.606
86.84000 -0.005
86.86000 -1.917
86.88000 -0.233
86.90000 -0.902
86.92000 -1.084
86.94000 0.670
86.96000 2.305
86.98000 3.179
87.00000 1.913
87.02000 0.824
87.04000 1.122
87.06000 3.940
87.08000 2.655
87.10000 0.943
87.12000 0.636
87.14000 1.581
87.16000 1.391
87.18000 0.430
87.20000 -1.858
87.22000 0.902
87.24000 2.321
87.26000 -0.925
87.28000 -0.466
87.30000 1.064
87.32000 4.640
87.34000 1.554
87.36000 0.774
87.38000 -0.545
87.40000 3.126
87.42000 1.925
87.44000 1.421
87.46000 0.609
87.48000 1.135
87.50000 -0.894
87.52000 0.050
87.54000 1.371
87.56000 0.691
87.58000 0.196
87.60000 -1.249
87.62000 0.797
87.64000 1.991
87.66000 3.110
87.68000 2.984
87.70000 3.068
87.72000 0.660
87.74000 0.219
87.76000 -0.848
87.78000 -1.300
87.80000 -1.200
87.82000 -0.286
87.84000 0.334
87.86000 -0.114
87.88000 0.898
87.90000 2.121
87.92000 2.154
87.94000 3.735
87.96000 1.125
87.98000 -0.783
88.00000 1.711
88.02000 2.391
88.04000 0.217
88.06000 2.414
88.08000 2.402
88.10000 0.361
88.12000 0.769
88.14000 0.706
88.16000 -0.698
88.18000 1.116
88.20000 1.977
88.22000 -1.303
88.24000 4.098
88.26000 2.279
88.28000 1.006
88.30000 -1.017
88.32000 -1.111
88.34000 0.013
88.36000 -0.996
88.38000 0.109
88.40000 0.886
88.42000 -1.783
88.44000 1.061
88.46000 3.584
88.48000 5.629
88.50000 4.624
88.52000 2.263
88.54000 0.538
88.56000 0.875
88.58000 2.754
88.60000 0.570
88.62000 2.321
88.64000 1.667
88.66000 2.537
88.68000 2.122
88.70000 4.452
88.72000 2.846
88.74000 2.205
88.76000 1.230
88.78000 2.126
88.80000 0.456
88.82000 -0.931
88.84000 0.246
88.86000 0.592
88.88000 1.104
88.90000 2.779
88.92000 4.801
88.94000 4.644
88.96000 0.689
88.98000 -0.487
89.00000 -1.798
89.02000 -0.401
89.04000 1.981
89.06000 1.093
89.08000 -1.528
89.10000 -1.549
89.12000 0.392
89.14000 -1.394
89.16000 0.419
89.18000 -0.842
89.20000 1.932
89.22000 3.519
89.24000 3.133
89.26000 2.640
89.28000 1.856
89.30000 1.391
89.32000 4.596
89.34000 3.576
89.36000 0.285
89.38000 -0.683
89.40000 2.249
89.42000 2.931
89.44000 2.475
89.46000 1.334
89.48000 -0.570
89.50000 1.631
89.52000 2.687
89.54000 1.627
89.56000 2.806
89.58000 0.583
89.60000 2.380
89.62000 2.402
89.64000 -1.009
89.66000 0.388
89.68000 0.137
89.70000 1.166
89.72000 2.331
89.74000 0.520
89.76000 -0.442
89.78000 3.942
89.80000 5.798
89.82000 4.269
89.84000 3.684
89.86000 5.715
89.88000 1.535
89.90000 0.538
89.92000 3.031
89.94000 2.936
89.96000 4.042
89.98000 3.569
90.00000 3.386
90.02000 4.427
90.04000 3.480
90.06000 3.732
90.08000 3.264
90.10000 2.560
90.12000 -1.474
90.14000 -1.669
90.16000 -1.765
90.18000 3.254
90.20000 1.495
90.22000 -0.677
90.24000 -0.283
90.26000 0.925
90.28000 3.502
90.30000 3.843
90.32000 2.256
90.34000 2.945
90.36000 1.311
90.38000 2.721
90.40000 0.571
90.42000 2.861
90.44000 1.250
90.46000 4.810
90.48000 2.706
90.50000 0.404
90.52000 1.286
90.54000 2.742
90.56000 3.753
90.58000 1.687
90.60000 0.954
90.62000 0.319
90.64000 1.822
90.66000 4.304
90.68000 1.820
90.70000 -1.771
90.72000 0.545
90.74000 0.581
90.76000 2.247
90.78000 4.565
90.80000 2.944
90.82000 3.170
90.84000 2.678
90.86000 -0.713
90.88000 0.219
90.90000 1.294
90.92000 2.297
90.94000 1.420
90.96000 -0.347
90.98000 1.432
91.00000 1.487
91.02000 -0.984
91.04000 1.477
91.06000 2.112
91.08000 1.934
91.10000 0.545
91.12000 1.830
91.14000 4.674
91.16000 1.075
91.18000 0.793
91.20000 1.445
91.22000 2.659
91.24000 1.245
91.26000 0.963
91.28000 -1.028
91.30000 -0.168
91.32000 1.420
91.34000 0.965
91.36000 0.340
91.38000 1.814
91.40000 4.058
91.42000 1.930
91.44000 1.081
91.46000 0.537
91.48000 0.519
91.50000 2.775
91.52000 5.412
91.54000 3.821
91.56000 3.192
91.58000 2.419
91.60000 0.885
91.62000 1.081
91.64000 1.036
91.66000 1.750
91.68000 -1.789
91.70000 -1.777
91.72000 -1.277
91.74000 3.127
91.76000 4.578
91.78000 1.683
91.80000 3.640
91.82000 3.745
91.84000 2.312
91.86000 1.949
91.88000 2.693
91.90000 1.692
91.92000 1.845
91.94000 1.848
91.96000 2.814
91.98000 1.091
92.00000 0.762
92.02000 1.894
92.04000 4.807
92.06000 3.754
92.08000 2.980
92.10000 3.929
92.12000 3.753
92.14000 3.616
92.16000 4.698
92.18000 2.587
92.20000 0.741
92.22000 1.113
92.24000 0.223
92.26000 -0.406
92.28000 0.039
92.30000 2.134
92.32000 -0.157
92.34000 -0.660
92.36000 3.639
92.38000 3.620
92.40000 2.337
92.42000 2.967
92.44000 4.597
92.46000 2.412
92.48000 -0.698
92.50000 -0.580
92.52000 -0.468
92.54000 3.508
92.56000 3.553
92.58000 5.218
92.60000 4.986
92.62000 2.173
92.64000 1.676
92.66000 2.203
92.68000 -0.312
92.70000 -1.805
92.72000 0.587
92.74000 1.767
92.76000 1.930
92.78000 0.196
92.80000 2.356
92.82000 2.103
92.84000 0.410
92.86000 2.275
92.88000 5.444
92.90000 1.054
92.92000 0.489
92.94000 1.745
92.96000 3.229
92.98000 3.046
93.00000 2.403
93.02000 1.765
93.04000 2.284
93.06000 2.291
93.08000 0.327
93.10000 1.809
93.12000 3.089
93.14000 5.913
93.16000 4.886
93.18000 2.531
93.20000 5.119
93.22000 2.649
93.24000 2.071
93.26000 0.375
93.28000 1.575
93.30000 2.324
93.32000 3.918
93.34000 3.102
93.36000 3.911
93.38000 2.242
93.40000 1.568
93.42000 2.240
93.44000 4.905
93.46000 3.155
93.48000 3.977
93.50000 3.848
93.52000 1.004
93.54000 -1.760
93.56000 1.381
93.58000 4.470
93.60000 5.353
93.62000 4.929
93.64000 3.364
93.66000 2.928
93.68000 3.262
93.70000 3.992
93.72000 2.283
93.74000 2.870
93.76000 3.740
93.78000 6.912
93.80000 6.243
93.82000 4.345
93.84000 7.157
93.86000 6.291
93.88000 2.894
93.90000 3.294
93.92000 3.264
93.94000 6.930
93.96000 4.335
93.98000 3.561
94.00000 4.627
94.02000 3.944
94.04000 0.911
94.06000 0.780
94.08000 1.302
94.10000 3.416
94.12000 2.273
94.14000 3.194
94.16000 4.187
94.18000 3.455
94.20000 4.698
94.22000 0.720
94.24000 -1.792
94.26000 3.405
94.28000 4.098
94.30000 2.484
94.32000 0.683
94.34000 1.761
94.36000 3.691
94.38000 1.560
94.40000 1.409
94.42000 2.372
94.44000 5.999
94.46000 5.212
94.48000 5.507
94.50000 2.510
94.52000 3.016
94.54000 6.413
94.56000 3.506
94.58000 3.668
94.60000 4.614
94.62000 3.350
94.64000 4.337
94.66000 3.338
94.68000 1.615
94.70000 1.134
94.72000 1.419
94.74000 2.011
94.76000 1.437
94.78000 3.238
94.80000 3.929
94.82000 4.615
94.84000 1.252
94.86000 0.958
94.88000 -1.330
94.90000 -1.779
94.92000 1.748
94.94000 3.763
94.96000 1.572
94.98000 0.543
95.00000 0.433
95.02000 1.757
95.04000 3.999
95.06000 3.511
95.08000 2.067
95.10000 1.986
95.12000 3.714
95.14000 1.698
95.16000 3.401
95.18000 1.752
95.20000 0.656
95.22000 3.153
95.24000 4.445
95.26000 3.162
95.28000 1.781
95.30000 3.186
95.32000 3.677
95.34000 2.999
95.36000 3.490
95.38000 0.168
95.40000 0.917
95.42000 3.850
95.44000 4.936
95.46000 6.451
95.48000 1.194
95.50000 2.165
95.52000 4.356
95.54000 2.957
95.56000 1.681
95.58000 1.703
95.60000 4.331
95.62000 4.189
95.64000 4.746
95.66000 3.127
95.68000 2.477
95.70000 2.432
95.72000 3.114
95.74000 4.772
95.76000 5.487
95.78000 -0.395
95.80000 0.907
95.82000 -0.472
95.84000 1.385
95.86000 0.567
95.88000 1.356
95.90000 3.364
95.92000 5.305
95.94000 3.593
95.96000 0.434
95.98000 -1.801
96.00000 -0.509
96.02000 2.665
96.04000 5.580
96.06000 8.676
96.08000 4.477
96.10000 0.635
96.12000 2.436
96.14000 1.888
96.16000 3.055
96.18000 2.502
96.20000 0.896
96.22000 6.693
96.24000 8.962
96.26000 4.041
96.28000 -1.539
96.30000 -1.405
96.32000 1.508
96.34000 2.316
96.36000 4.778
96.38000 6.471
96.40000 5.546
96.42000 3.125
96.44000 0.203
96.46000 0.209
96.48000 3.160
96.50000 3.689
96.52000 3.724
96.54000 4.024
96.56000 2.999
96.58000 2.779
96.60000 3.947
96.62000 1.139
96.64000 -1.093
96.66000 0.404
96.68000 4.795
96.70000 3.753
96.72000 -0.816
96.74000 2.372
96.76000 0.941
96.78000 2.385
96.80000 0.360
96.82000 -0.338
96.84000 2.248
96.86000 -0.136
96.88000 -0.577
96.90000 -0.032
96.92000 2.319
96.94000 -1.199
96.96000 -0.430
96.98000 1.472
97.00000 2.061
97.02000 3.915
97.04000 3.625
97.06000 1.675
97.08000 6.828
97.10000 6.793
97.12000 2.576
97.14000 -1.832
97.16000 1.392
97.18000 4.465
97.20000 3.740
97.22000 4.869
97.24000 2.487
97.26000 0.315
97.28000 0.410
97.30000 -1.250
97.32000 0.186
97.34000 -0.565
97.36000 4.782
97.38000 4.106
97.40000 4.323
97.42000 2.990
97.44000 4.237
97.46000 0.859
97.48000 0.611
97.50000 3.178
97.52000 1.932
97.54000 0.890
97.56000 2.974
97.58000 1.819
97.60000 4.291
97.62000 3.038
97.64000 1.021
97.66000 2.484
97.68000 2.254
97.70000 0.468
97.72000 1.190
97.74000 0.044
97.76000 1.447
97.78000 4.926
97.80000 6.578
97.82000 2.012
97.84000 -0.461
97.86000 -1.795
97.88000 0.512
97.90000 4.031
97.92000 4.817
97.94000 8.397
97.96000 -0.344
97.98000 4.003
98.00000 2.889
98.02000 3.213
98.04000 3.354
98.06000 4.233
98.08000 2.299
98.10000 5.580
98.12000 1.412
98.14000 -0.812
98.16000 1.501
98.18000 6.384
98.20000 5.647
98.22000 1.398
98.24000 0.757
98.26000 1.290
98.28000 -1.535
98.30000 2.806
98.32000 4.320
98.34000 8.285
98.36000 5.350
98.38000 -0.738
98.40000 2.943
98.42000 2.876
98.44000 0.091
98.46000 1.406
98.48000 1.610
98.50000 1.882
98.52000 2.331
98.54000 -0.069
98.56000 5.305
98.58000 7.675
98.60000 2.720
98.62000 2.320
98.64000 4.162
98.66000 4.960
98.68000 6.509
98.70000 4.944
98.72000 3.343
98.74000 6.021
98.76000 4.132
98.78000 3.004
98.80000 2.728
98.82000 2.821
98.84000 8.647
98.86000 5.469
98.88000 -0.334
98.90000 -1.725
98.92000 3.005
98.94000 5.238
98.96000 -1.395
98.98000 -0.278
99.00000 6.528
99.02000 5.445
99.04000 4.097
99.06000 5.080
99.08000 6.612
99.10000 12.275
99.12000 10.480
99.14000 3.700
99.16000 2.189
99.18000 4.684
99.20000 -0.936
99.22000 2.774
99.24000 4.897
99.26000 4.827
99.28000 2.457
99.30000 3.952
99.32000 3.147
99.34000 3.212
99.36000 3.173
99.38000 5.549
99.40000 2.269
99.42000 -1.617
99.44000 2.501
99.46000 0.828
99.48000 3.575
99.50000 6.083
99.52000 6.414
99.54000 7.276
99.56000 3.265
99.58000 1.095
99.60000 4.192
99.62000 3.200
99.64000 1.095
99.66000 4.112
99.68000 5.060
99.70000 -1.911
99.72000 5.148
99.74000 4.512
99.76000 6.325
99.78000 7.204
99.80000 4.901
99.82000 2.706
99.84000 6.108
99.86000 2.394
99.88000 1.605
99.90000 -1.786
99.92000 7.040
99.94000 5.993
99.96000 3.541
99.98000 0.000
