'Id: "0011387" Comment: "Integrate frame 0011387_Au-Ir-Rh_Rh-rich_XRD-Mapping-091-0000.gfrmwith cursor Wedge Cursor #5" Operator: "B?rgel" Anode: "Cu" Wavelength: "1.5406" Scantype: "2Theta (TwoTheta)" TimePerStep: "1" X: "31.5" Y: "-18" Z: "5.95" 
10.00000 0.000
10.02000 2.627
10.04000 11.040
10.06000 14.015
10.08000 16.595
10.10000 12.733
10.12000 7.376
10.14000 21.118
10.16000 15.843
10.18000 2.696
10.20000 2.716
10.22000 6.594
10.24000 6.409
10.26000 16.786
10.28000 14.392
10.30000 14.592
10.32000 8.829
10.34000 20.010
10.36000 23.619
10.38000 10.139
10.40000 7.122
10.42000 18.310
10.44000 12.625
10.46000 7.496
10.48000 7.165
10.50000 29.849
10.52000 14.737
10.54000 13.752
10.56000 11.661
10.58000 24.520
10.60000 35.370
10.62000 28.393
10.64000 21.316
10.66000 21.636
10.68000 21.925
10.70000 15.278
10.72000 9.448
10.74000 9.069
10.76000 20.937
10.78000 34.780
10.80000 30.180
10.82000 32.783
10.84000 24.970
10.86000 27.387
10.88000 31.063
10.90000 35.847
10.92000 37.327
10.94000 28.866
10.96000 22.311
10.98000 31.016
11.00000 16.746
11.02000 34.612
11.04000 42.026
11.06000 44.286
11.08000 51.001
11.10000 36.573
11.12000 25.990
11.14000 14.019
11.16000 16.813
11.18000 18.411
11.20000 20.387
11.22000 32.417
11.24000 35.724
11.26000 32.745
11.28000 28.455
11.30000 22.077
11.32000 30.522
11.34000 34.008
11.36000 33.901
11.38000 41.072
11.40000 35.405
11.42000 28.683
11.44000 38.638
11.46000 31.496
11.48000 25.611
11.50000 28.626
11.52000 42.013
11.54000 29.766
11.56000 26.112
11.58000 27.016
11.60000 21.518
11.62000 25.035
11.64000 31.198
11.66000 37.489
11.68000 43.481
11.70000 36.064
11.72000 32.026
11.74000 32.703
11.76000 29.545
11.78000 29.325
11.80000 36.503
11.82000 37.712
11.84000 34.976
11.86000 26.690
11.88000 30.635
11.90000 40.436
11.92000 30.783
11.94000 31.704
11.96000 29.228
11.98000 35.422
12.00000 45.622
12.02000 38.408
12.04000 28.029
12.06000 34.859
12.08000 22.975
12.10000 32.507
12.12000 40.105
12.14000 50.176
12.16000 41.957
12.18000 30.648
12.20000 29.977
12.22000 20.936
12.24000 33.088
12.26000 48.561
12.28000 51.593
12.30000 35.479
12.32000 34.336
12.34000 35.817
12.36000 25.447
12.38000 36.163
12.40000 39.665
12.42000 27.107
12.44000 25.979
12.46000 40.211
12.48000 43.486
12.50000 40.799
12.52000 41.420
12.54000 40.863
12.56000 46.163
12.58000 43.787
12.60000 46.796
12.62000 51.871
12.64000 46.203
12.66000 28.365
12.68000 36.297
12.70000 42.118
12.72000 33.629
12.74000 29.444
12.76000 29.266
12.78000 37.602
12.80000 46.896
12.82000 42.993
12.84000 40.107
12.86000 43.374
12.88000 36.978
12.90000 31.170
12.92000 32.617
12.94000 33.863
12.96000 34.875
12.98000 33.083
13.00000 40.754
13.02000 46.190
13.04000 33.704
13.06000 25.337
13.08000 27.817
13.10000 33.183
13.12000 32.797
13.14000 36.137
13.16000 38.994
13.18000 51.807
13.20000 43.416
13.22000 44.931
13.24000 46.003
13.26000 32.222
13.28000 32.956
13.30000 31.884
13.32000 32.662
13.34000 42.374
13.36000 38.698
13.38000 36.452
13.40000 30.425
13.42000 35.903
13.44000 32.259
13.46000 24.147
13.48000 22.893
13.50000 24.112
13.52000 33.423
13.54000 39.506
13.56000 32.611
13.58000 41.151
13.60000 42.380
13.62000 28.709
13.64000 21.809
13.66000 27.911
13.68000 32.310
13.70000 37.162
13.72000 35.783
13.74000 27.457
13.76000 27.329
13.78000 30.826
13.80000 27.194
13.82000 32.087
13.84000 40.266
13.86000 36.791
13.88000 32.991
13.90000 30.731
13.92000 32.524
13.94000 22.040
13.96000 16.761
13.98000 22.244
14.00000 28.363
14.02000 27.031
14.04000 27.695
14.06000 32.239
14.08000 22.517
14.10000 30.671
14.12000 29.984
14.14000 33.209
14.16000 33.120
14.18000 24.142
14.20000 21.287
14.22000 30.482
14.24000 32.905
14.26000 33.059
14.28000 29.122
14.30000 35.384
14.32000 33.824
14.34000 35.338
14.36000 30.634
14.38000 23.662
14.40000 29.558
14.42000 25.176
14.44000 22.828
14.46000 34.477
14.48000 39.225
14.50000 31.287
14.52000 22.507
14.54000 22.354
14.56000 23.110
14.58000 21.862
14.60000 32.006
14.62000 37.103
14.64000 31.979
14.66000 25.209
14.68000 23.401
14.70000 22.222
14.72000 24.919
14.74000 16.701
14.76000 12.431
14.78000 22.605
14.80000 31.690
14.82000 30.207
14.84000 26.391
14.86000 20.334
14.88000 15.225
14.90000 18.787
14.92000 24.106
14.94000 20.129
14.96000 12.716
14.98000 17.804
15.00000 32.779
15.02000 28.116
15.04000 20.228
15.06000 19.904
15.08000 23.586
15.10000 23.773
15.12000 21.044
15.14000 24.760
15.16000 21.535
15.18000 25.504
15.20000 25.389
15.22000 18.787
15.24000 16.331
15.26000 24.528
15.28000 24.876
15.30000 23.770
15.32000 26.571
15.34000 27.663
15.36000 21.037
15.38000 19.494
15.40000 15.893
15.42000 20.926
15.44000 22.175
15.46000 21.111
15.48000 20.589
15.50000 19.790
15.52000 19.116
15.54000 15.828
15.56000 14.870
15.58000 18.605
15.60000 20.016
15.62000 26.078
15.64000 18.582
15.66000 25.289
15.68000 22.834
15.70000 7.440
15.72000 11.537
15.74000 13.820
15.76000 11.530
15.78000 17.260
15.80000 23.814
15.82000 20.716
15.84000 16.092
15.86000 8.870
15.88000 12.205
15.90000 26.515
15.92000 17.928
15.94000 14.446
15.96000 17.185
15.98000 18.686
16.00000 6.960
16.02000 13.097
16.04000 16.183
16.06000 16.902
16.08000 16.712
16.10000 18.157
16.12000 16.069
16.14000 15.568
16.16000 18.576
16.18000 17.360
16.20000 17.770
16.22000 13.140
16.24000 7.326
16.26000 8.360
16.28000 18.347
16.30000 12.249
16.32000 6.304
16.34000 10.690
16.36000 6.611
16.38000 2.773
16.40000 4.248
16.42000 6.846
16.44000 8.555
16.46000 4.120
16.48000 7.208
16.50000 9.156
16.52000 8.816
16.54000 6.146
16.56000 18.394
16.58000 18.251
16.60000 19.435
16.62000 9.501
16.64000 10.721
16.66000 3.244
16.68000 8.212
16.70000 3.977
16.72000 3.140
16.74000 3.602
16.76000 8.114
16.78000 3.272
16.80000 4.475
16.82000 3.558
16.84000 -1.819
16.86000 -1.063
16.88000 9.281
16.90000 15.570
16.92000 12.464
16.94000 15.810
16.96000 8.270
16.98000 4.622
17.00000 13.145
17.02000 17.774
17.04000 10.321
17.06000 14.969
17.08000 12.044
17.10000 3.549
17.12000 6.579
17.14000 3.767
17.16000 3.381
17.18000 6.682
17.20000 4.356
17.22000 10.122
17.24000 15.921
17.26000 7.446
17.28000 9.705
17.30000 5.552
17.32000 6.395
17.34000 9.137
17.36000 9.010
17.38000 12.178
17.40000 14.661
17.42000 14.347
17.44000 15.534
17.46000 12.218
17.48000 4.116
17.50000 8.930
17.52000 10.648
17.54000 13.031
17.56000 18.144
17.58000 19.110
17.60000 12.637
17.62000 7.864
17.64000 7.245
17.66000 6.600
17.68000 6.522
17.70000 2.671
17.72000 0.265
17.74000 7.969
17.76000 -0.051
17.78000 4.273
17.80000 9.784
17.82000 5.981
17.84000 4.798
17.86000 5.994
17.88000 9.354
17.90000 6.923
17.92000 2.436
17.94000 6.619
17.96000 2.671
17.98000 6.371
18.00000 16.460
18.02000 12.502
18.04000 4.989
18.06000 5.885
18.08000 6.574
18.10000 4.575
18.12000 5.489
18.14000 15.601
18.16000 14.211
18.18000 12.941
18.20000 5.099
18.22000 3.411
18.24000 11.763
18.26000 9.727
18.28000 7.846
18.30000 4.624
18.32000 7.058
18.34000 7.643
18.36000 6.859
18.38000 7.202
18.40000 7.360
18.42000 6.973
18.44000 4.490
18.46000 5.021
18.48000 2.394
18.50000 3.845
18.52000 0.428
18.54000 3.576
18.56000 4.530
18.58000 8.006
18.60000 8.622
18.62000 8.474
18.64000 6.145
18.66000 -2.963
18.68000 -2.897
18.70000 -4.244
18.72000 3.431
18.74000 6.033
18.76000 9.812
18.78000 8.329
18.80000 0.715
18.82000 1.635
18.84000 9.812
18.86000 3.893
18.88000 -0.222
18.90000 -4.234
18.92000 -2.006
18.94000 4.257
18.96000 5.980
18.98000 0.551
19.00000 -0.363
19.02000 -0.076
19.04000 -2.491
19.06000 3.878
19.08000 4.073
19.10000 1.637
19.12000 2.131
19.14000 7.331
19.16000 6.676
19.18000 9.721
19.20000 10.665
19.22000 8.042
19.24000 4.995
19.26000 7.752
19.28000 1.809
19.30000 -2.347
19.32000 7.193
19.34000 7.758
19.36000 8.562
19.38000 14.828
19.40000 14.646
19.42000 2.465
19.44000 -1.124
19.46000 5.926
19.48000 6.560
19.50000 2.542
19.52000 0.986
19.54000 -1.411
19.56000 0.531
19.58000 9.711
19.60000 9.587
19.62000 5.651
19.64000 7.911
19.66000 6.151
19.68000 7.408
19.70000 1.756
19.72000 -3.082
19.74000 3.300
19.76000 4.528
19.78000 3.653
19.80000 0.526
19.82000 0.604
19.84000 14.096
19.86000 13.304
19.88000 3.508
19.90000 4.604
19.92000 6.789
19.94000 5.121
19.96000 3.177
19.98000 0.204
20.00000 0.605
20.02000 0.504
20.04000 3.671
20.06000 4.964
20.08000 10.682
20.10000 5.958
20.12000 5.537
20.14000 3.729
20.16000 -2.455
20.18000 5.355
20.20000 1.416
20.22000 1.115
20.24000 9.215
20.26000 6.127
20.28000 4.670
20.30000 7.993
20.32000 8.420
20.34000 5.130
20.36000 5.084
20.38000 1.854
20.40000 2.245
20.42000 -4.175
20.44000 3.818
20.46000 9.274
20.48000 8.363
20.50000 -0.706
20.52000 2.451
20.54000 7.016
20.56000 13.354
20.58000 9.157
20.60000 1.966
20.62000 4.026
20.64000 3.671
20.66000 -2.880
20.68000 1.055
20.70000 6.436
20.72000 13.627
20.74000 11.784
20.76000 6.291
20.78000 2.790
20.80000 -4.153
20.82000 8.635
20.84000 8.101
20.86000 3.771
20.88000 4.709
20.90000 8.742
20.92000 4.185
20.94000 3.972
20.96000 0.220
20.98000 2.016
21.00000 0.770
21.02000 10.723
21.04000 5.943
21.06000 2.703
21.08000 2.022
21.10000 7.383
21.12000 11.709
21.14000 7.927
21.16000 10.331
21.18000 6.122
21.20000 -1.743
21.22000 2.664
21.24000 5.069
21.26000 7.026
21.28000 4.878
21.30000 -0.174
21.32000 7.896
21.34000 8.483
21.36000 11.921
21.38000 6.871
21.40000 4.972
21.42000 3.553
21.44000 0.533
21.46000 8.971
21.48000 7.562
21.50000 7.629
21.52000 -1.249
21.54000 0.597
21.56000 3.789
21.58000 4.857
21.60000 1.197
21.62000 -0.545
21.64000 2.467
21.66000 2.279
21.68000 -0.195
21.70000 1.802
21.72000 8.241
21.74000 4.918
21.76000 -0.363
21.78000 -1.938
21.80000 5.029
21.82000 4.267
21.84000 0.311
21.86000 2.158
21.88000 -1.451
21.90000 1.323
21.92000 0.611
21.94000 0.936
21.96000 2.970
21.98000 -0.087
22.00000 3.390
22.02000 0.762
22.04000 4.325
22.06000 0.881
22.08000 5.584
22.10000 5.717
22.12000 2.452
22.14000 5.046
22.16000 7.965
22.18000 4.543
22.20000 -0.211
22.22000 -0.036
22.24000 -2.246
22.26000 0.460
22.28000 -1.983
22.30000 2.496
22.32000 5.141
22.34000 1.721
22.36000 0.407
22.38000 0.706
22.40000 0.850
22.42000 4.026
22.44000 4.360
22.46000 0.007
22.48000 -2.993
22.50000 -1.920
22.52000 5.635
22.54000 5.384
22.56000 4.532
22.58000 5.256
22.60000 3.378
22.62000 8.192
22.64000 7.416
22.66000 5.017
22.68000 2.838
22.70000 -4.036
22.72000 -3.992
22.74000 3.920
22.76000 8.398
22.78000 6.793
22.80000 4.147
22.82000 3.142
22.84000 5.147
22.86000 3.402
22.88000 7.332
22.90000 9.624
22.92000 10.939
22.94000 10.773
22.96000 7.721
22.98000 6.854
23.00000 2.439
23.02000 3.235
23.04000 2.033
23.06000 5.050
23.08000 5.455
23.10000 5.290
23.12000 4.865
23.14000 4.740
23.16000 4.976
23.18000 -2.849
23.20000 3.046
23.22000 4.785
23.24000 4.885
23.26000 6.712
23.28000 9.642
23.30000 5.696
23.32000 3.200
23.34000 5.457
23.36000 2.274
23.38000 1.903
23.40000 2.335
23.42000 4.622
23.44000 8.238
23.46000 10.949
23.48000 13.667
23.50000 6.331
23.52000 1.924
23.54000 7.464
23.56000 8.192
23.58000 5.924
23.60000 8.660
23.62000 8.358
23.64000 -3.739
23.66000 -0.919
23.68000 2.467
23.70000 3.283
23.72000 3.143
23.74000 2.449
23.76000 4.554
23.78000 6.837
23.80000 8.029
23.82000 6.250
23.84000 1.870
23.86000 -2.174
23.88000 -0.828
23.90000 -0.208
23.92000 2.986
23.94000 4.686
23.96000 2.267
23.98000 -3.964
24.00000 -1.723
24.02000 3.716
24.04000 2.463
24.06000 0.943
24.08000 4.838
24.10000 6.325
24.12000 0.210
24.14000 -2.166
24.16000 1.633
24.18000 -0.512
24.20000 4.269
24.22000 5.785
24.24000 5.659
24.26000 6.825
24.28000 10.397
24.30000 7.611
24.32000 2.555
24.34000 4.371
24.36000 4.352
24.38000 4.117
24.40000 5.214
24.42000 2.227
24.44000 1.246
24.46000 2.785
24.48000 0.897
24.50000 1.609
24.52000 0.361
24.54000 0.154
24.56000 1.012
24.58000 -3.938
24.60000 1.241
24.62000 6.279
24.64000 8.327
24.66000 7.703
24.68000 3.659
24.70000 -2.117
24.72000 -1.597
24.74000 1.625
24.76000 4.003
24.78000 1.498
24.80000 -0.954
24.82000 -2.722
24.84000 -0.043
24.86000 -2.500
24.88000 1.378
24.90000 5.088
24.92000 2.471
24.94000 -0.258
24.96000 5.276
24.98000 7.379
25.00000 3.252
25.02000 0.913
25.04000 4.088
25.06000 3.548
25.08000 -0.002
25.10000 2.248
25.12000 2.613
25.14000 5.594
25.16000 5.214
25.18000 1.523
25.20000 0.281
25.22000 -1.485
25.24000 2.468
25.26000 -1.100
25.28000 3.005
25.30000 -0.603
25.32000 2.959
25.34000 1.921
25.36000 4.749
25.38000 5.770
25.40000 0.516
25.42000 -0.341
25.44000 0.305
25.46000 7.249
25.48000 9.169
25.50000 0.455
25.52000 -3.888
25.54000 -0.561
25.56000 0.175
25.58000 0.881
25.60000 7.457
25.62000 5.556
25.64000 4.110
25.66000 2.216
25.68000 5.342
25.70000 0.425
25.72000 -2.183
25.74000 4.567
25.76000 8.098
25.78000 7.856
25.80000 5.561
25.82000 6.828
25.84000 -1.235
25.86000 -1.528
25.88000 1.500
25.90000 5.494
25.92000 7.700
25.94000 6.743
25.96000 8.075
25.98000 4.593
26.00000 5.479
26.02000 5.857
26.04000 3.244
26.06000 6.183
26.08000 5.892
26.10000 7.287
26.12000 3.534
26.14000 -2.074
26.16000 0.852
26.18000 4.673
26.20000 4.488
26.22000 -1.970
26.24000 0.440
26.26000 -2.227
26.28000 -0.077
26.30000 1.842
26.32000 -3.849
26.34000 -0.368
26.36000 2.214
26.38000 3.447
26.40000 6.952
26.42000 6.339
26.44000 3.220
26.46000 4.586
26.48000 1.714
26.50000 -1.484
26.52000 2.287
26.54000 5.734
26.56000 8.784
26.58000 8.645
26.60000 9.815
26.62000 9.020
26.64000 8.720
26.66000 0.848
26.68000 1.444
26.70000 1.291
26.72000 0.203
26.74000 4.318
26.76000 4.191
26.78000 2.574
26.80000 2.152
26.82000 -1.256
26.84000 3.207
26.86000 11.922
26.88000 4.850
26.90000 3.735
26.92000 6.564
26.94000 3.544
26.96000 -2.089
26.98000 2.580
27.00000 4.845
27.02000 6.854
27.04000 9.113
27.06000 4.009
27.08000 3.327
27.10000 3.938
27.12000 -3.049
27.14000 3.798
27.16000 2.169
27.18000 1.917
27.20000 3.371
27.22000 3.693
27.24000 5.202
27.26000 -2.156
27.28000 1.557
27.30000 6.968
27.32000 -0.304
27.34000 1.431
27.36000 7.748
27.38000 8.696
27.40000 8.085
27.42000 9.075
27.44000 5.213
27.46000 -0.546
27.48000 -1.921
27.50000 7.301
27.52000 3.462
27.54000 -3.786
27.56000 -0.071
27.58000 7.052
27.60000 7.147
27.62000 3.101
27.64000 -1.215
27.66000 4.372
27.68000 4.971
27.70000 5.389
27.72000 9.916
27.74000 3.018
27.76000 2.608
27.78000 4.399
27.80000 3.715
27.82000 2.221
27.84000 -0.410
27.86000 1.250
27.88000 2.707
27.90000 -1.319
27.92000 1.408
27.94000 4.261
27.96000 5.760
27.98000 5.110
28.00000 3.541
28.02000 0.902
28.04000 3.090
28.06000 3.046
28.08000 -2.030
28.10000 -0.596
28.12000 -0.267
28.14000 6.203
28.16000 6.760
28.18000 9.830
28.20000 5.569
28.22000 2.944
28.24000 5.867
28.26000 0.983
28.28000 3.969
28.30000 6.647
28.32000 1.930
28.34000 -2.117
28.36000 -0.260
28.38000 -0.153
28.40000 3.793
28.42000 6.163
28.44000 -0.613
28.46000 -3.746
28.48000 -3.310
28.50000 -3.189
28.52000 1.110
28.54000 1.257
28.56000 -0.340
28.58000 -3.740
28.60000 2.434
28.62000 6.245
28.64000 5.304
28.66000 3.387
28.68000 2.551
28.70000 -0.553
28.72000 0.617
28.74000 1.582
28.76000 7.020
28.78000 5.129
28.80000 2.179
28.82000 2.883
28.84000 1.396
28.86000 0.265
28.88000 2.526
28.90000 5.732
28.92000 -0.317
28.94000 3.467
28.96000 2.738
28.98000 1.731
29.00000 2.442
29.02000 3.740
29.04000 2.943
29.06000 1.659
29.08000 0.856
29.10000 2.863
29.12000 2.819
29.14000 -1.226
29.16000 2.570
29.18000 4.279
29.20000 2.189
29.22000 10.187
29.24000 4.380
29.26000 -1.036
29.28000 1.411
29.30000 2.939
29.32000 6.260
29.34000 6.961
29.36000 1.253
29.38000 2.662
29.40000 3.935
29.42000 4.364
29.44000 2.171
29.46000 2.318
29.48000 5.501
29.50000 10.417
29.52000 5.866
29.54000 4.411
29.56000 4.686
29.58000 4.666
29.60000 5.414
29.62000 8.453
29.64000 6.302
29.66000 3.228
29.68000 4.652
29.70000 7.032
29.72000 3.674
29.74000 1.463
29.76000 6.021
29.78000 5.191
29.80000 -3.646
29.82000 3.424
29.84000 7.908
29.86000 10.126
29.88000 3.735
29.90000 7.755
29.92000 2.886
29.94000 3.016
29.96000 3.445
29.98000 -0.269
30.00000 2.292
30.02000 5.673
30.04000 1.509
30.06000 0.153
30.08000 1.385
30.10000 1.931
30.12000 6.328
30.14000 3.298
30.16000 10.330
30.18000 7.763
30.20000 7.430
30.22000 7.230
30.24000 1.840
30.26000 -1.158
30.28000 -1.123
30.30000 5.284
30.32000 3.938
30.34000 4.421
30.36000 -3.612
30.38000 -0.080
30.40000 1.698
30.42000 4.081
30.44000 7.514
30.46000 11.693
30.48000 5.321
30.50000 5.211
30.52000 4.529
30.54000 3.972
30.56000 6.457
30.58000 2.983
30.60000 2.733
30.62000 7.057
30.64000 8.678
30.66000 5.147
30.68000 5.438
30.70000 9.487
30.72000 9.428
30.74000 4.838
30.76000 4.189
30.78000 3.989
30.80000 6.299
30.82000 4.855
30.84000 5.313
30.86000 4.231
30.88000 6.740
30.90000 8.910
30.92000 5.961
30.94000 5.723
30.96000 7.904
30.98000 6.544
31.00000 3.444
31.02000 0.137
31.04000 5.207
31.06000 6.889
31.08000 5.880
31.10000 9.185
31.12000 12.144
31.14000 9.103
31.16000 4.930
31.18000 2.542
31.20000 4.190
31.22000 8.494
31.24000 8.975
31.26000 6.743
31.28000 -2.562
31.30000 0.918
31.32000 -0.865
31.34000 6.501
31.36000 6.004
31.38000 1.501
31.40000 3.133
31.42000 5.068
31.44000 6.076
31.46000 3.433
31.48000 -0.497
31.50000 3.494
31.52000 -3.587
31.54000 -1.011
31.56000 1.287
31.58000 0.900
31.60000 3.306
31.62000 4.899
31.64000 1.426
31.66000 1.385
31.68000 -0.278
31.70000 5.089
31.72000 8.630
31.74000 5.792
31.76000 4.994
31.78000 4.720
31.80000 0.811
31.82000 4.182
31.84000 2.274
31.86000 0.486
31.88000 -1.349
31.90000 -1.010
31.92000 0.042
31.94000 3.560
31.96000 5.377
31.98000 -0.342
32.00000 1.011
32.02000 2.511
32.04000 1.714
32.06000 4.250
32.08000 0.911
32.10000 -2.824
32.12000 -0.198
32.14000 1.364
32.16000 -0.664
32.18000 -1.424
32.20000 -1.664
32.22000 2.827
32.24000 2.768
32.26000 1.115
32.28000 3.768
32.30000 4.667
32.32000 5.532
32.34000 2.201
32.36000 2.691
32.38000 3.648
32.40000 -1.488
32.42000 -2.856
32.44000 -3.235
32.46000 1.851
32.48000 3.895
32.50000 3.571
32.52000 -1.598
32.54000 -0.365
32.56000 -1.625
32.58000 5.278
32.60000 2.077
32.62000 -1.643
32.64000 -3.050
32.66000 -3.559
32.68000 -2.028
32.70000 -2.099
32.72000 2.063
32.74000 4.637
32.76000 9.348
32.78000 4.930
32.80000 0.322
32.82000 -0.834
32.84000 2.766
32.86000 4.586
32.88000 2.976
32.90000 -2.158
32.92000 -3.099
32.94000 3.341
32.96000 5.106
32.98000 0.294
33.00000 6.631
33.02000 6.434
33.04000 5.683
33.06000 -2.156
33.08000 2.204
33.10000 0.301
33.12000 2.046
33.14000 1.480
33.16000 -3.531
33.18000 -1.697
33.20000 0.405
33.22000 -2.855
33.24000 2.174
33.26000 7.583
33.28000 5.915
33.30000 6.507
33.32000 4.333
33.34000 3.104
33.36000 4.623
33.38000 0.458
33.40000 0.355
33.42000 1.854
33.44000 2.170
33.46000 2.856
33.48000 6.268
33.50000 1.502
33.52000 -3.534
33.54000 -0.440
33.56000 11.236
33.58000 4.706
33.60000 3.151
33.62000 4.443
33.64000 5.222
33.66000 0.282
33.68000 1.137
33.70000 -1.192
33.72000 5.070
33.74000 6.616
33.76000 4.816
33.78000 -1.187
33.80000 -0.301
33.82000 3.813
33.84000 1.489
33.86000 0.509
33.88000 5.950
33.90000 6.644
33.92000 5.972
33.94000 3.161
33.96000 3.284
33.98000 4.464
34.00000 3.220
34.02000 1.732
34.04000 2.983
34.06000 1.499
34.08000 2.949
34.10000 5.006
34.12000 2.914
34.14000 3.340
34.16000 2.501
34.18000 1.577
34.20000 -2.451
34.22000 1.164
34.24000 1.222
34.26000 1.979
34.28000 3.604
34.30000 3.246
34.32000 3.911
34.34000 1.761
34.36000 0.701
34.38000 5.744
34.40000 5.817
34.42000 3.726
34.44000 5.370
34.46000 3.949
34.48000 0.173
34.50000 -3.500
34.52000 2.205
34.54000 6.195
34.56000 3.583
34.58000 0.282
34.60000 -0.107
34.62000 3.144
34.64000 2.005
34.66000 3.385
34.68000 4.944
34.70000 4.065
34.72000 4.933
34.74000 2.220
34.76000 2.098
34.78000 4.414
34.80000 4.425
34.82000 2.969
34.84000 4.659
34.86000 1.505
34.88000 4.724
34.90000 3.365
34.92000 3.252
34.94000 0.561
34.96000 -1.939
34.98000 1.924
35.00000 6.770
35.02000 5.798
35.04000 4.667
35.06000 0.798
35.08000 1.283
35.10000 -3.483
35.12000 2.271
35.14000 -0.295
35.16000 -1.701
35.18000 -1.984
35.20000 -2.379
35.22000 3.491
35.24000 2.228
35.26000 7.585
35.28000 4.227
35.30000 0.801
35.32000 0.756
35.34000 -1.774
35.36000 2.976
35.38000 5.975
35.40000 2.762
35.42000 3.383
35.44000 3.863
35.46000 0.938
35.48000 0.242
35.50000 -2.281
35.52000 -0.981
35.54000 1.026
35.56000 1.700
35.58000 3.277
35.60000 3.554
35.62000 5.309
35.64000 6.115
35.66000 3.600
35.68000 -0.452
35.70000 2.689
35.72000 2.394
35.74000 3.562
35.76000 2.480
35.78000 -0.849
35.80000 3.719
35.82000 -1.451
35.84000 -3.457
35.86000 -2.459
35.88000 -0.326
35.90000 1.602
35.92000 1.190
35.94000 2.004
35.96000 8.560
35.98000 8.924
36.00000 0.668
36.02000 -2.979
36.04000 -1.264
36.06000 -0.382
36.08000 3.098
36.10000 2.696
36.12000 2.405
36.14000 1.912
36.16000 7.023
36.18000 6.799
36.20000 -0.268
36.22000 2.601
36.24000 0.373
36.26000 0.188
36.28000 1.368
36.30000 3.089
36.32000 5.331
36.34000 3.253
36.36000 -1.186
36.38000 1.917
36.40000 5.447
36.42000 4.802
36.44000 2.041
36.46000 1.277
36.48000 -0.923
36.50000 1.906
36.52000 2.744
36.54000 -0.393
36.56000 0.808
36.58000 -1.154
36.60000 0.211
36.62000 -1.056
36.64000 -0.086
36.66000 1.812
36.68000 3.542
36.70000 0.438
36.72000 3.609
36.74000 7.965
36.76000 6.468
36.78000 1.879
36.80000 4.313
36.82000 4.970
36.84000 -0.678
36.86000 -0.419
36.88000 0.103
36.90000 -1.545
36.92000 0.190
36.94000 1.976
36.96000 6.798
36.98000 -0.897
37.00000 2.380
37.02000 3.352
37.04000 5.164
37.06000 4.144
37.08000 0.734
37.10000 1.590
37.12000 0.249
37.14000 4.466
37.16000 7.133
37.18000 6.138
37.20000 2.347
37.22000 2.290
37.24000 4.432
37.26000 2.562
37.28000 2.140
37.30000 3.490
37.32000 3.599
37.34000 1.428
37.36000 -0.909
37.38000 -3.477
37.40000 2.995
37.42000 9.321
37.44000 7.237
37.46000 9.141
37.48000 13.095
37.50000 8.343
37.52000 6.792
37.54000 3.272
37.56000 3.730
37.58000 1.297
37.60000 1.608
37.62000 4.876
37.64000 -0.564
37.66000 -3.498
37.68000 0.594
37.70000 4.017
37.72000 2.063
37.74000 -1.696
37.76000 0.421
37.78000 1.429
37.80000 2.442
37.82000 3.764
37.84000 5.126
37.86000 2.961
37.88000 3.282
37.90000 3.093
37.92000 4.702
37.94000 6.850
37.96000 6.454
37.98000 8.993
38.00000 10.204
38.02000 11.432
38.04000 8.567
38.06000 9.860
38.08000 7.964
38.10000 12.112
38.12000 17.274
38.14000 13.766
38.16000 14.568
38.18000 12.235
38.20000 9.893
38.22000 8.583
38.24000 11.441
38.26000 12.054
38.28000 13.988
38.30000 18.353
38.32000 18.176
38.34000 15.651
38.36000 14.016
38.38000 14.278
38.40000 14.546
38.42000 21.978
38.44000 20.750
38.46000 13.092
38.48000 14.051
38.50000 18.074
38.52000 22.925
38.54000 22.278
38.56000 19.165
38.58000 17.616
38.60000 20.199
38.62000 29.545
38.64000 24.292
38.66000 19.658
38.68000 22.026
38.70000 17.704
38.72000 25.680
38.74000 25.530
38.76000 20.509
38.78000 20.114
38.80000 19.450
38.82000 20.201
38.84000 23.803
38.86000 28.107
38.88000 25.960
38.90000 23.448
38.92000 24.092
38.94000 27.586
38.96000 24.668
38.98000 26.243
39.00000 28.212
39.02000 32.107
39.04000 28.829
39.06000 35.722
39.08000 32.021
39.10000 31.660
39.12000 35.302
39.14000 33.338
39.16000 31.685
39.18000 40.245
39.20000 41.060
39.22000 43.223
39.24000 40.284
39.26000 35.043
39.28000 42.305
39.30000 48.812
39.32000 44.483
39.34000 48.439
39.36000 52.280
39.38000 51.534
39.40000 50.361
39.42000 54.656
39.44000 58.282
39.46000 59.617
39.48000 62.147
39.50000 70.008
39.52000 72.029
39.54000 69.660
39.56000 70.436
39.58000 74.832
39.60000 82.379
39.62000 84.702
39.64000 87.980
39.66000 93.329
39.68000 99.401
39.70000 103.433
39.72000 107.018
39.74000 113.627
39.76000 116.481
39.78000 115.624
39.80000 124.163
39.82000 140.900
39.84000 144.851
39.86000 157.730
39.88000 166.999
39.90000 181.177
39.92000 189.132
39.94000 189.440
39.96000 200.676
39.98000 216.731
40.00000 230.542
40.02000 236.750
40.04000 258.357
40.06000 278.320
40.08000 290.581
40.10000 310.105
40.12000 323.729
40.14000 337.359
40.16000 355.013
40.18000 385.851
40.20000 405.814
40.22000 432.661
40.24000 461.700
40.26000 485.899
40.28000 507.314
40.30000 534.069
40.32000 550.311
40.34000 571.648
40.36000 591.577
40.38000 614.455
40.40000 637.652
40.42000 663.991
40.44000 677.529
40.46000 682.102
40.48000 695.069
40.50000 717.669
40.52000 716.563
40.54000 711.296
40.56000 708.549
40.58000 708.216
40.60000 705.638
40.62000 704.414
40.64000 695.319
40.66000 687.832
40.68000 670.945
40.70000 653.201
40.72000 635.906
40.74000 624.708
40.76000 611.397
40.78000 590.381
40.80000 569.871
40.82000 546.950
40.84000 517.527
40.86000 492.020
40.88000 480.956
40.90000 453.186
40.92000 429.666
40.94000 411.096
40.96000 397.744
40.98000 379.145
41.00000 364.029
41.02000 353.953
41.04000 337.931
41.06000 322.253
41.08000 303.514
41.10000 283.279
41.12000 269.717
41.14000 250.920
41.16000 234.928
41.18000 227.942
41.20000 212.333
41.22000 203.669
41.24000 190.933
41.26000 181.683
41.28000 174.254
41.30000 164.784
41.32000 156.565
41.34000 151.220
41.36000 140.151
41.38000 133.874
41.40000 132.017
41.42000 122.677
41.44000 115.346
41.46000 110.520
41.48000 103.543
41.50000 102.609
41.52000 96.806
41.54000 88.489
41.56000 88.266
41.58000 83.883
41.60000 78.243
41.62000 71.962
41.64000 66.166
41.66000 65.499
41.68000 66.892
41.70000 63.424
41.72000 57.396
41.74000 54.733
41.76000 56.232
41.78000 53.142
41.80000 52.898
41.82000 47.627
41.84000 44.476
41.86000 41.197
41.88000 40.583
41.90000 41.852
41.92000 42.864
41.94000 34.700
41.96000 37.478
41.98000 32.554
42.00000 27.837
42.02000 28.919
42.04000 29.831
42.06000 32.209
42.08000 30.879
42.10000 22.585
42.12000 21.722
42.14000 19.235
42.16000 17.303
42.18000 19.753
42.20000 22.434
42.22000 22.518
42.24000 19.157
42.26000 16.570
42.28000 13.125
42.30000 13.330
42.32000 15.831
42.34000 13.753
42.36000 10.937
42.38000 11.521
42.40000 14.217
42.42000 15.891
42.44000 11.790
42.46000 10.113
42.48000 12.416
42.50000 13.550
42.52000 12.898
42.54000 9.817
42.56000 9.008
42.58000 10.134
42.60000 6.197
42.62000 3.945
42.64000 9.702
42.66000 7.891
42.68000 8.159
42.70000 9.573
42.72000 7.887
42.74000 7.306
42.76000 7.422
42.78000 8.591
42.80000 6.011
42.82000 3.694
42.84000 6.789
42.86000 9.067
42.88000 7.598
42.90000 5.968
42.92000 3.794
42.94000 4.517
42.96000 2.073
42.98000 0.889
43.00000 4.261
43.02000 5.278
43.04000 5.869
43.06000 4.237
43.08000 4.003
43.10000 5.141
43.12000 3.842
43.14000 2.456
43.16000 3.631
43.18000 5.575
43.20000 4.418
43.22000 2.019
43.24000 0.828
43.26000 4.731
43.28000 5.339
43.30000 6.655
43.32000 0.740
43.34000 -2.632
43.36000 -0.258
43.38000 -2.809
43.40000 -3.390
43.42000 1.698
43.44000 -0.271
43.46000 2.057
43.48000 1.650
43.50000 2.048
43.52000 1.810
43.54000 -1.892
43.56000 -1.456
43.58000 -1.523
43.60000 -0.236
43.62000 -0.378
43.64000 -0.334
43.66000 -1.586
43.68000 0.166
43.70000 -1.059
43.72000 -1.455
43.74000 2.087
43.76000 2.843
43.78000 3.728
43.80000 1.179
43.82000 -2.589
43.84000 -0.422
43.86000 0.189
43.88000 -0.551
43.90000 3.635
43.92000 1.544
43.94000 1.209
43.96000 2.691
43.98000 1.013
44.00000 -0.672
44.02000 -0.921
44.04000 -1.908
44.06000 -0.657
44.08000 -3.131
44.10000 -3.323
44.12000 0.018
44.14000 1.937
44.16000 0.055
44.18000 1.309
44.20000 3.696
44.22000 2.605
44.24000 2.431
44.26000 0.580
44.28000 -1.189
44.30000 -0.589
44.32000 -0.915
44.34000 1.468
44.36000 -0.133
44.38000 0.776
44.40000 3.495
44.42000 3.286
44.44000 -0.492
44.46000 -1.221
44.48000 0.027
44.50000 1.932
44.52000 -1.297
44.54000 -0.014
44.56000 -2.949
44.58000 -0.612
44.60000 -1.493
44.62000 -1.718
44.64000 1.787
44.66000 0.577
44.68000 0.950
44.70000 1.872
44.72000 4.179
44.74000 3.148
44.76000 5.589
44.78000 3.269
44.80000 -0.913
44.82000 -0.101
44.84000 0.770
44.86000 3.138
44.88000 1.403
44.90000 0.953
44.92000 2.125
44.94000 -0.817
44.96000 -3.260
44.98000 -0.333
45.00000 1.155
45.02000 -2.397
45.04000 0.495
45.06000 4.438
45.08000 8.375
45.10000 2.249
45.12000 -2.941
45.14000 -0.396
45.16000 3.119
45.18000 -0.098
45.20000 -1.021
45.22000 0.773
45.24000 4.301
45.26000 -0.027
45.28000 4.512
45.30000 6.196
45.32000 5.001
45.34000 2.622
45.36000 1.676
45.38000 -1.145
45.40000 -2.958
45.42000 -1.787
45.44000 -1.282
45.46000 1.947
45.48000 -3.258
45.50000 0.891
45.52000 4.945
45.54000 4.874
45.56000 0.364
45.58000 1.332
45.60000 0.964
45.62000 2.316
45.64000 6.510
45.66000 3.536
45.68000 6.474
45.70000 5.806
45.72000 5.913
45.74000 8.447
45.76000 7.796
45.78000 7.348
45.80000 7.408
45.82000 8.099
45.84000 7.602
45.86000 12.060
45.88000 8.968
45.90000 5.224
45.92000 8.897
45.94000 9.478
45.96000 12.748
45.98000 16.432
46.00000 14.908
46.02000 12.632
46.04000 15.430
46.06000 17.954
46.08000 15.118
46.10000 20.943
46.12000 17.963
46.14000 19.064
46.16000 23.529
46.18000 21.130
46.20000 27.693
46.22000 22.233
46.24000 28.574
46.26000 26.221
46.28000 25.176
46.30000 24.316
46.32000 28.255
46.34000 27.504
46.36000 28.692
46.38000 27.711
46.40000 28.167
46.42000 34.625
46.44000 34.853
46.46000 35.431
46.48000 43.928
46.50000 41.824
46.52000 38.220
46.54000 41.713
46.56000 45.872
46.58000 46.571
46.60000 48.839
46.62000 53.693
46.64000 56.996
46.66000 55.579
46.68000 54.283
46.70000 59.050
46.72000 56.414
46.74000 59.561
46.76000 61.533
46.78000 60.726
46.80000 66.771
46.82000 80.008
46.84000 79.781
46.86000 74.590
46.88000 77.939
46.90000 79.501
46.92000 78.264
46.94000 82.694
46.96000 85.210
46.98000 87.164
47.00000 89.788
47.02000 91.465
47.04000 96.526
47.06000 98.320
47.08000 98.513
47.10000 96.063
47.12000 96.353
47.14000 92.933
47.16000 92.370
47.18000 97.493
47.20000 95.091
47.22000 97.543
47.24000 97.228
47.26000 93.390
47.28000 87.158
47.30000 87.089
47.32000 87.276
47.34000 88.549
47.36000 89.855
47.38000 88.008
47.40000 82.501
47.42000 80.459
47.44000 79.150
47.46000 77.688
47.48000 77.990
47.50000 76.071
47.52000 76.910
47.54000 69.944
47.56000 68.554
47.58000 68.925
47.60000 66.185
47.62000 65.279
47.64000 57.442
47.66000 52.516
47.68000 53.403
47.70000 51.608
47.72000 46.370
47.74000 47.730
47.76000 46.894
47.78000 42.550
47.80000 42.916
47.82000 39.665
47.84000 36.973
47.86000 32.486
47.88000 27.275
47.90000 34.116
47.92000 32.271
47.94000 32.124
47.96000 27.535
47.98000 32.878
48.00000 26.658
48.02000 23.915
48.04000 26.215
48.06000 20.536
48.08000 17.436
48.10000 17.247
48.12000 22.766
48.14000 21.671
48.16000 25.341
48.18000 19.074
48.20000 18.215
48.22000 14.326
48.24000 9.579
48.26000 7.518
48.28000 8.359
48.30000 6.808
48.32000 5.729
48.34000 4.950
48.36000 10.868
48.38000 12.821
48.40000 10.053
48.42000 10.492
48.44000 9.430
48.46000 7.294
48.48000 8.099
48.50000 7.742
48.52000 4.285
48.54000 3.725
48.56000 4.640
48.58000 7.589
48.60000 6.733
48.62000 7.717
48.64000 9.358
48.66000 6.179
48.68000 8.063
48.70000 5.909
48.72000 1.754
48.74000 7.866
48.76000 1.738
48.78000 4.376
48.80000 9.227
48.82000 4.687
48.84000 2.031
48.86000 -0.255
48.88000 -2.574
48.90000 -0.312
48.92000 -2.333
48.94000 1.862
48.96000 3.135
48.98000 1.793
49.00000 2.775
49.02000 5.459
49.04000 4.301
49.06000 5.509
49.08000 3.206
49.10000 5.847
49.12000 7.997
49.14000 5.239
49.16000 0.745
49.18000 -2.782
49.20000 -2.198
49.22000 0.019
49.24000 -2.235
49.26000 0.734
49.28000 2.179
49.30000 5.697
49.32000 6.844
49.34000 8.542
49.36000 8.322
49.38000 1.053
49.40000 1.379
49.42000 6.445
49.44000 9.202
49.46000 0.583
49.48000 2.286
49.50000 3.309
49.52000 2.178
49.54000 0.550
49.56000 3.804
49.58000 3.096
49.60000 3.009
49.62000 1.262
49.64000 2.530
49.66000 3.246
49.68000 4.820
49.70000 1.227
49.72000 1.524
49.74000 0.164
49.76000 2.014
49.78000 4.558
49.80000 5.414
49.82000 3.400
49.84000 3.157
49.86000 3.423
49.88000 2.118
49.90000 2.300
49.92000 3.648
49.94000 -0.560
49.96000 2.938
49.98000 0.443
50.00000 1.560
50.02000 1.936
50.04000 0.476
50.06000 -0.497
50.08000 -2.698
50.10000 0.235
50.12000 6.190
50.14000 1.431
50.16000 1.000
50.18000 0.725
50.20000 2.348
50.22000 0.315
50.24000 -0.122
50.26000 2.206
50.28000 1.571
50.30000 3.326
50.32000 1.128
50.34000 6.147
50.36000 4.139
50.38000 2.984
50.40000 4.533
50.42000 8.429
50.44000 4.455
50.46000 0.586
50.48000 0.162
50.50000 0.678
50.52000 3.888
50.54000 2.472
50.56000 3.580
50.58000 4.563
50.60000 2.687
50.62000 2.449
50.64000 1.916
50.66000 0.722
50.68000 -1.776
50.70000 2.593
50.72000 2.487
50.74000 1.929
50.76000 2.189
50.78000 0.070
50.80000 3.925
50.82000 5.932
50.84000 3.042
50.86000 0.873
50.88000 6.677
50.90000 5.387
50.92000 7.054
50.94000 8.496
50.96000 1.325
50.98000 -0.474
51.00000 0.061
51.02000 -2.624
51.04000 -2.608
51.06000 0.495
51.08000 1.937
51.10000 1.892
51.12000 0.637
51.14000 0.427
51.16000 0.956
51.18000 2.977
51.20000 8.453
51.22000 3.651
51.24000 4.916
51.26000 4.319
51.28000 3.682
51.30000 6.495
51.32000 6.451
51.34000 6.514
51.36000 6.514
51.38000 3.602
51.40000 4.226
51.42000 4.712
51.44000 7.107
51.46000 5.141
51.48000 2.657
51.50000 3.749
51.52000 4.316
51.54000 0.350
51.56000 1.333
51.58000 0.622
51.60000 3.269
51.62000 3.100
51.64000 0.580
51.66000 -1.971
51.68000 0.844
51.70000 0.577
51.72000 0.999
51.74000 0.478
51.76000 3.178
51.78000 0.062
51.80000 -1.528
51.82000 3.541
51.84000 3.380
51.86000 4.162
51.88000 1.675
51.90000 2.684
51.92000 3.918
51.94000 2.785
51.96000 1.399
51.98000 3.555
52.00000 5.549
52.02000 3.239
52.04000 1.035
52.06000 3.512
52.08000 5.032
52.10000 4.897
52.12000 3.037
52.14000 5.718
52.16000 5.828
52.18000 6.909
52.20000 6.839
52.22000 2.459
52.24000 6.779
52.26000 6.286
52.28000 2.777
52.30000 6.063
52.32000 -0.961
52.34000 -2.551
52.36000 0.375
52.38000 3.507
52.40000 7.647
52.42000 7.951
52.44000 4.802
52.46000 2.893
52.48000 4.398
52.50000 2.612
52.52000 -0.353
52.54000 0.073
52.56000 3.711
52.58000 0.600
52.60000 1.503
52.62000 1.185
52.64000 5.040
52.66000 4.767
52.68000 2.036
52.70000 -0.103
52.72000 2.557
52.74000 1.272
52.76000 2.531
52.78000 4.705
52.80000 4.483
52.82000 2.149
52.84000 0.994
52.86000 3.342
52.88000 1.274
52.90000 -0.521
52.92000 0.018
52.94000 0.354
52.96000 -0.298
52.98000 3.820
53.00000 5.923
53.02000 2.732
53.04000 -0.738
53.06000 3.437
53.08000 2.634
53.10000 2.161
53.12000 7.526
53.14000 4.922
53.16000 1.545
53.18000 2.190
53.20000 3.850
53.22000 -0.743
53.24000 1.533
53.26000 -0.620
53.28000 -2.553
53.30000 -1.070
53.32000 -0.175
53.34000 -1.007
53.36000 0.730
53.38000 1.077
53.40000 2.857
53.42000 -0.800
53.44000 -0.704
53.46000 1.281
53.48000 5.265
53.50000 3.918
53.52000 2.583
53.54000 2.297
53.56000 2.129
53.58000 -0.701
53.60000 2.195
53.62000 1.408
53.64000 2.864
53.66000 2.009
53.68000 6.507
53.70000 3.355
53.72000 2.931
53.74000 2.551
53.76000 3.811
53.78000 1.263
53.80000 0.324
53.82000 6.600
53.84000 4.079
53.86000 1.347
53.88000 1.556
53.90000 3.872
53.92000 1.929
53.94000 5.235
53.96000 4.806
53.98000 0.618
54.00000 -1.300
54.02000 2.813
54.04000 3.616
54.06000 -1.424
54.08000 0.626
54.10000 1.626
54.12000 0.101
54.14000 -2.523
54.16000 -2.004
54.18000 1.792
54.20000 3.736
54.22000 4.137
54.24000 3.480
54.26000 2.784
54.28000 6.363
54.30000 4.293
54.32000 0.579
54.34000 1.908
54.36000 2.875
54.38000 2.865
54.40000 0.874
54.42000 2.854
54.44000 5.276
54.46000 5.650
54.48000 1.381
54.50000 -0.210
54.52000 0.449
54.54000 2.686
54.56000 2.115
54.58000 2.824
54.60000 -2.229
54.62000 0.273
54.64000 1.695
54.66000 2.169
54.68000 0.321
54.70000 -1.831
54.72000 -1.457
54.74000 1.480
54.76000 1.680
54.78000 0.234
54.80000 1.344
54.82000 2.578
54.84000 -0.499
54.86000 2.060
54.88000 0.678
54.90000 -0.558
54.92000 2.484
54.94000 3.065
54.96000 2.745
54.98000 -0.992
55.00000 2.362
55.02000 5.180
55.04000 5.667
55.06000 5.234
55.08000 5.180
55.10000 3.886
55.12000 3.933
55.14000 5.445
55.16000 1.305
55.18000 -1.591
55.20000 -2.488
55.22000 -1.160
55.24000 4.076
55.26000 3.033
55.28000 2.931
55.30000 2.377
55.32000 -1.677
55.34000 2.637
55.36000 3.542
55.38000 3.036
55.40000 4.368
55.42000 0.968
55.44000 -0.291
55.46000 0.008
55.48000 0.772
55.50000 6.884
55.52000 5.363
55.54000 3.407
55.56000 3.747
55.58000 1.080
55.60000 0.817
55.62000 2.147
55.64000 4.622
55.66000 2.259
55.68000 3.035
55.70000 0.061
55.72000 0.479
55.74000 -0.027
55.76000 0.906
55.78000 1.824
55.80000 0.180
55.82000 1.404
55.84000 0.976
55.86000 -0.601
55.88000 3.414
55.90000 0.266
55.92000 0.970
55.94000 3.657
55.96000 4.841
55.98000 1.542
56.00000 -1.259
56.02000 -1.055
56.04000 -1.887
56.06000 -1.966
56.08000 -1.053
56.10000 -1.731
56.12000 -0.618
56.14000 -0.352
56.16000 0.932
56.18000 2.249
56.20000 1.310
56.22000 3.912
56.24000 4.799
56.26000 -1.112
56.28000 -2.483
56.30000 0.725
56.32000 2.897
56.34000 4.097
56.36000 3.898
56.38000 1.472
56.40000 1.768
56.42000 1.897
56.44000 -0.242
56.46000 3.893
56.48000 0.108
56.50000 -0.503
56.52000 -0.947
56.54000 1.083
56.56000 3.793
56.58000 3.197
56.60000 2.004
56.62000 3.320
56.64000 5.577
56.66000 4.434
56.68000 2.813
56.70000 5.272
56.72000 2.801
56.74000 4.615
56.76000 4.292
56.78000 1.990
56.80000 0.883
56.82000 3.820
56.84000 5.697
56.86000 6.196
56.88000 4.069
56.90000 1.489
56.92000 1.765
56.94000 1.732
56.96000 0.718
56.98000 0.121
57.00000 3.652
57.02000 6.899
57.04000 1.093
57.06000 -1.551
57.08000 1.827
57.10000 4.010
57.12000 2.358
57.14000 -0.110
57.16000 -0.752
57.18000 2.385
57.20000 0.819
57.22000 -1.478
57.24000 -1.274
57.26000 2.606
57.28000 5.801
57.30000 3.970
57.32000 2.479
57.34000 1.103
57.36000 0.576
57.38000 0.255
57.40000 -2.438
57.42000 -1.993
57.44000 0.802
57.46000 0.323
57.48000 0.996
57.50000 -0.369
57.52000 1.807
57.54000 4.347
57.56000 6.317
57.58000 1.699
57.60000 1.116
57.62000 2.479
57.64000 -0.407
57.66000 2.441
57.68000 3.733
57.70000 3.627
57.72000 3.312
57.74000 3.762
57.76000 4.791
57.78000 6.446
57.80000 4.294
57.82000 -1.110
57.84000 1.778
57.86000 3.462
57.88000 2.316
57.90000 0.500
57.92000 -1.391
57.94000 0.074
57.96000 -1.907
57.98000 0.995
58.00000 3.040
58.02000 -0.006
58.04000 1.598
58.06000 -0.373
58.08000 1.224
58.10000 2.871
58.12000 1.623
58.14000 -1.912
58.16000 1.773
58.18000 4.457
58.20000 5.481
58.22000 6.022
58.24000 4.822
58.26000 1.142
58.28000 -2.391
58.30000 -0.451
58.32000 2.790
58.34000 3.821
58.36000 2.630
58.38000 1.477
58.40000 3.597
58.42000 4.549
58.44000 1.945
58.46000 3.187
58.48000 2.801
58.50000 3.917
58.52000 4.422
58.54000 7.076
58.56000 5.005
58.58000 1.841
58.60000 1.862
58.62000 7.143
58.64000 6.327
58.66000 3.643
58.68000 0.925
58.70000 1.745
58.72000 2.077
58.74000 3.204
58.76000 2.044
58.78000 3.957
58.80000 1.765
58.82000 5.757
58.84000 7.712
58.86000 5.758
58.88000 4.052
58.90000 4.430
58.92000 4.544
58.94000 2.525
58.96000 2.413
58.98000 0.765
59.00000 5.582
59.02000 4.828
59.04000 6.197
59.06000 8.157
59.08000 7.092
59.10000 -2.347
59.12000 2.018
59.14000 7.920
59.16000 4.871
59.18000 4.546
59.20000 5.400
59.22000 4.989
59.24000 3.645
59.26000 3.465
59.28000 3.691
59.30000 -0.045
59.32000 5.202
59.34000 5.691
59.36000 5.971
59.38000 3.203
59.40000 3.873
59.42000 6.486
59.44000 7.415
59.46000 5.321
59.48000 4.791
59.50000 -1.574
59.52000 -2.348
59.54000 1.879
59.56000 3.721
59.58000 1.632
59.60000 0.587
59.62000 0.294
59.64000 2.773
59.66000 3.038
59.68000 5.438
59.70000 2.963
59.72000 5.675
59.74000 4.940
59.76000 2.195
59.78000 0.014
59.80000 2.032
59.82000 2.144
59.84000 1.592
59.86000 4.770
59.88000 6.988
59.90000 5.302
59.92000 3.992
59.94000 0.358
59.96000 0.572
59.98000 0.645
60.00000 0.160
60.02000 -0.871
60.04000 0.609
60.06000 1.592
60.08000 2.122
60.10000 3.744
60.12000 3.674
60.14000 1.113
60.16000 2.476
60.18000 3.287
60.20000 1.944
60.22000 -0.405
60.24000 3.331
60.26000 5.042
60.28000 4.941
60.30000 1.152
60.32000 -0.681
60.34000 2.231
60.36000 2.501
60.38000 -0.029
60.40000 3.174
60.42000 7.864
60.44000 4.874
60.46000 2.036
60.48000 3.002
60.50000 1.876
60.52000 -2.041
60.54000 -1.629
60.56000 1.261
60.58000 2.085
60.60000 3.783
60.62000 5.040
60.64000 5.502
60.66000 4.118
60.68000 0.940
60.70000 0.948
60.72000 3.985
60.74000 4.011
60.76000 3.787
60.78000 -0.254
60.80000 -2.321
60.82000 -0.340
60.84000 2.238
60.86000 2.567
60.88000 1.970
60.90000 1.734
60.92000 1.899
60.94000 3.771
60.96000 1.086
60.98000 -0.930
61.00000 -0.446
61.02000 1.893
61.04000 -0.625
61.06000 -0.119
61.08000 1.171
61.10000 -0.481
61.12000 0.087
61.14000 0.375
61.16000 0.211
61.18000 -2.326
61.20000 -2.047
61.22000 1.466
61.24000 3.794
61.26000 1.804
61.28000 -1.070
61.30000 -1.826
61.32000 0.458
61.34000 1.017
61.36000 0.485
61.38000 -0.573
61.40000 0.614
61.42000 2.850
61.44000 -0.410
61.46000 -0.151
61.48000 0.605
61.50000 -0.468
61.52000 -0.668
61.54000 0.433
61.56000 1.994
61.58000 1.801
61.60000 1.066
61.62000 3.740
61.64000 3.989
61.66000 -0.810
61.68000 2.655
61.70000 2.260
61.72000 0.138
61.74000 0.490
61.76000 2.827
61.78000 2.948
61.80000 0.725
61.82000 1.194
61.84000 0.306
61.86000 1.462
61.88000 2.401
61.90000 -0.103
61.92000 -0.198
61.94000 3.299
61.96000 2.679
61.98000 -0.095
62.00000 -0.306
62.02000 1.520
62.04000 2.660
62.06000 1.785
62.08000 0.968
62.10000 0.084
62.12000 -1.033
62.14000 1.465
62.16000 4.722
62.18000 0.851
62.20000 2.514
62.22000 1.729
62.24000 0.261
62.26000 0.789
62.28000 1.849
62.30000 0.452
62.32000 -1.229
62.34000 -1.494
62.36000 -2.303
62.38000 0.079
62.40000 0.242
62.42000 1.134
62.44000 0.905
62.46000 1.755
62.48000 2.091
62.50000 2.363
62.52000 2.563
62.54000 1.834
62.56000 -0.353
62.58000 -1.255
62.60000 1.234
62.62000 2.810
62.64000 -0.724
62.66000 1.482
62.68000 4.586
62.70000 2.529
62.72000 1.400
62.74000 4.425
62.76000 5.977
62.78000 6.040
62.80000 2.897
62.82000 1.335
62.84000 -1.235
62.86000 2.428
62.88000 3.698
62.90000 3.755
62.92000 1.303
62.94000 1.773
62.96000 -0.392
62.98000 -1.063
63.00000 -1.547
63.02000 -1.230
63.04000 -0.826
63.06000 0.585
63.08000 5.178
63.10000 2.703
63.12000 0.398
63.14000 1.046
63.16000 -0.355
63.18000 -2.030
63.20000 1.054
63.22000 2.525
63.24000 -1.272
63.26000 -0.456
63.28000 4.681
63.30000 2.385
63.32000 1.908
63.34000 5.209
63.36000 2.600
63.38000 -1.105
63.40000 -0.313
63.42000 -0.053
63.44000 4.764
63.46000 4.374
63.48000 3.275
63.50000 1.375
63.52000 1.529
63.54000 3.073
63.56000 0.629
63.58000 -1.618
63.60000 -0.286
63.62000 2.321
63.64000 -0.002
63.66000 0.503
63.68000 -0.773
63.70000 -2.270
63.72000 1.606
63.74000 4.525
63.76000 3.802
63.78000 1.027
63.80000 5.099
63.82000 5.284
63.84000 4.813
63.86000 5.200
63.88000 6.593
63.90000 3.658
63.92000 1.029
63.94000 1.539
63.96000 2.226
63.98000 1.466
64.00000 3.322
64.02000 6.051
64.04000 3.279
64.06000 2.246
64.08000 -0.496
64.10000 2.767
64.12000 2.566
64.14000 -0.128
64.16000 2.118
64.18000 3.422
64.20000 2.436
64.22000 4.660
64.24000 4.717
64.26000 3.698
64.28000 4.605
64.30000 4.127
64.32000 3.516
64.34000 0.678
64.36000 0.116
64.38000 1.392
64.40000 3.801
64.42000 4.220
64.44000 0.566
64.46000 -0.633
64.48000 -0.230
64.50000 0.818
64.52000 -0.318
64.54000 -0.312
64.56000 -0.116
64.58000 0.370
64.60000 2.101
64.62000 1.619
64.64000 1.861
64.66000 -1.074
64.68000 -0.632
64.70000 -1.874
64.72000 -2.311
64.74000 -2.091
64.76000 3.240
64.78000 2.610
64.80000 4.859
64.82000 0.959
64.84000 0.247
64.86000 2.909
64.88000 1.046
64.90000 -0.780
64.92000 2.394
64.94000 1.558
64.96000 2.352
64.98000 5.985
65.00000 2.454
65.02000 2.100
65.04000 1.998
65.06000 1.411
65.08000 2.472
65.10000 -1.658
65.12000 0.155
65.14000 1.249
65.16000 -0.990
65.18000 -2.040
65.20000 -0.237
65.22000 0.555
65.24000 -0.734
65.26000 2.125
65.28000 2.472
65.30000 1.029
65.32000 1.731
65.34000 1.178
65.36000 1.783
65.38000 1.809
65.40000 1.062
65.42000 -0.094
65.44000 -0.027
65.46000 -1.120
65.48000 -0.703
65.50000 0.032
65.52000 -1.988
65.54000 -2.309
65.56000 -2.189
65.58000 -0.910
65.60000 3.319
65.62000 2.329
65.64000 -0.784
65.66000 -1.980
65.68000 0.058
65.70000 4.358
65.72000 3.561
65.74000 1.761
65.76000 0.409
65.78000 0.652
65.80000 1.106
65.82000 1.432
65.84000 -0.649
65.86000 1.624
65.88000 2.472
65.90000 1.508
65.92000 0.196
65.94000 0.720
65.96000 4.454
65.98000 3.936
66.00000 -0.891
66.02000 -1.686
66.04000 -2.073
66.06000 -2.254
66.08000 -1.762
66.10000 -0.957
66.12000 0.804
66.14000 3.063
66.16000 2.221
66.18000 0.810
66.20000 0.684
66.22000 2.935
66.24000 0.961
66.26000 0.787
66.28000 3.929
66.30000 6.221
66.32000 5.897
66.34000 3.183
66.36000 4.545
66.38000 0.975
66.40000 1.494
66.42000 1.398
66.44000 -1.267
66.46000 -2.292
66.48000 1.143
66.50000 0.653
66.52000 0.858
66.54000 1.181
66.56000 1.129
66.58000 -0.408
66.60000 -1.813
66.62000 1.044
66.64000 -1.254
66.66000 0.378
66.68000 1.996
66.70000 1.534
66.72000 2.086
66.74000 1.612
66.76000 0.174
66.78000 3.592
66.80000 3.185
66.82000 4.552
66.84000 1.103
66.86000 0.484
66.88000 0.174
66.90000 1.762
66.92000 1.076
66.94000 0.857
66.96000 1.512
66.98000 3.875
67.00000 5.895
67.02000 3.654
67.04000 2.083
67.06000 0.707
67.08000 1.659
67.10000 4.771
67.12000 3.081
67.14000 4.694
67.16000 0.813
67.18000 -2.323
67.20000 2.641
67.22000 4.842
67.24000 3.562
67.26000 2.908
67.28000 3.828
67.30000 4.651
67.32000 2.850
67.34000 1.578
67.36000 1.853
67.38000 0.676
67.40000 1.333
67.42000 0.575
67.44000 -1.032
67.46000 -1.297
67.48000 1.266
67.50000 1.121
67.52000 -0.162
67.54000 2.838
67.56000 1.654
67.58000 1.786
67.60000 1.849
67.62000 2.027
67.64000 2.104
67.66000 0.050
67.68000 -0.732
67.70000 1.458
67.72000 0.995
67.74000 0.165
67.76000 0.930
67.78000 2.103
67.80000 1.909
67.82000 0.735
67.84000 1.643
67.86000 0.223
67.88000 1.538
67.90000 -0.105
67.92000 0.652
67.94000 1.645
67.96000 2.316
67.98000 4.726
68.00000 4.548
68.02000 3.916
68.04000 2.168
68.06000 2.098
68.08000 4.472
68.10000 5.880
68.12000 3.556
68.14000 5.425
68.16000 7.290
68.18000 4.409
68.20000 4.347
68.22000 5.638
68.24000 5.449
68.26000 7.351
68.28000 6.491
68.30000 8.967
68.32000 7.395
68.34000 6.666
68.36000 8.655
68.38000 8.362
68.40000 11.191
68.42000 13.651
68.44000 13.125
68.46000 8.686
68.48000 11.308
68.50000 15.075
68.52000 14.774
68.54000 14.838
68.56000 13.379
68.58000 13.164
68.60000 15.220
68.62000 18.073
68.64000 17.206
68.66000 18.087
68.68000 20.247
68.70000 18.624
68.72000 23.122
68.74000 25.572
68.76000 26.175
68.78000 20.559
68.80000 22.528
68.82000 21.682
68.84000 23.789
68.86000 24.052
68.88000 22.410
68.90000 22.707
68.92000 23.730
68.94000 21.802
68.96000 20.708
68.98000 25.347
69.00000 26.472
69.02000 21.272
69.04000 23.624
69.06000 29.572
69.08000 27.084
69.10000 27.920
69.12000 25.274
69.14000 22.288
69.16000 23.242
69.18000 22.930
69.20000 22.680
69.22000 21.940
69.24000 21.777
69.26000 19.893
69.28000 15.531
69.30000 16.590
69.32000 14.675
69.34000 15.514
69.36000 15.034
69.38000 17.234
69.40000 17.635
69.42000 13.224
69.44000 14.792
69.46000 11.465
69.48000 11.235
69.50000 11.289
69.52000 11.146
69.54000 8.100
69.56000 8.845
69.58000 9.705
69.60000 9.132
69.62000 7.710
69.64000 11.077
69.66000 11.231
69.68000 7.975
69.70000 3.153
69.72000 6.132
69.74000 7.826
69.76000 4.785
69.78000 5.597
69.80000 8.510
69.82000 6.228
69.84000 6.911
69.86000 6.118
69.88000 4.125
69.90000 2.559
69.92000 -0.409
69.94000 4.366
69.96000 4.970
69.98000 4.754
70.00000 3.405
70.02000 -0.761
70.04000 -0.615
70.06000 0.962
70.08000 3.880
70.10000 3.092
70.12000 0.109
70.14000 -1.135
70.16000 2.452
70.18000 -0.769
70.20000 0.569
70.22000 -2.315
70.24000 -0.542
70.26000 2.491
70.28000 0.937
70.30000 -0.596
70.32000 2.024
70.34000 0.657
70.36000 1.017
70.38000 2.019
70.40000 1.853
70.42000 -0.972
70.44000 1.107
70.46000 2.891
70.48000 4.054
70.50000 3.921
70.52000 3.433
70.54000 2.520
70.56000 3.243
70.58000 3.380
70.60000 2.379
70.62000 0.191
70.64000 -1.827
70.66000 -0.126
70.68000 0.026
70.70000 0.251
70.72000 -0.337
70.74000 0.786
70.76000 3.493
70.78000 2.691
70.80000 -2.257
70.82000 -1.998
70.84000 1.369
70.86000 2.778
70.88000 1.651
70.90000 2.140
70.92000 -0.481
70.94000 -0.785
70.96000 -1.533
70.98000 -1.368
71.00000 -0.406
71.02000 0.482
71.04000 0.866
71.06000 1.515
71.08000 -0.488
71.10000 0.157
71.12000 2.595
71.14000 1.997
71.16000 1.792
71.18000 4.263
71.20000 4.254
71.22000 1.288
71.24000 5.871
71.26000 4.516
71.28000 -1.353
71.30000 -0.682
71.32000 -2.227
71.34000 -0.533
71.36000 4.288
71.38000 2.731
71.40000 2.556
71.42000 -0.635
71.44000 -0.578
71.46000 1.720
71.48000 -0.694
71.50000 0.265
71.52000 4.078
71.54000 4.895
71.56000 2.106
71.58000 2.772
71.60000 3.118
71.62000 4.387
71.64000 -0.279
71.66000 2.009
71.68000 1.109
71.70000 -1.888
71.72000 -0.406
71.74000 3.849
71.76000 2.842
71.78000 2.028
71.80000 0.460
71.82000 2.500
71.84000 2.844
71.86000 -0.643
71.88000 0.978
71.90000 2.898
71.92000 1.416
71.94000 2.182
71.96000 0.659
71.98000 2.022
72.00000 0.725
72.02000 -1.190
72.04000 -2.195
72.06000 -1.011
72.08000 -1.227
72.10000 0.932
72.12000 4.578
72.14000 2.017
72.16000 2.584
72.18000 2.821
72.20000 0.071
72.22000 -0.649
72.24000 1.206
72.26000 2.445
72.28000 1.187
72.30000 -0.500
72.32000 2.969
72.34000 0.574
72.36000 -1.023
72.38000 2.842
72.40000 1.855
72.42000 1.541
72.44000 2.219
72.46000 1.718
72.48000 4.254
72.50000 0.720
72.52000 0.897
72.54000 0.727
72.56000 2.807
72.58000 -0.078
72.60000 0.503
72.62000 1.623
72.64000 -0.225
72.66000 -2.160
72.68000 -0.693
72.70000 1.504
72.72000 1.954
72.74000 1.699
72.76000 2.074
72.78000 4.394
72.80000 1.709
72.82000 -1.155
72.84000 0.962
72.86000 3.942
72.88000 0.852
72.90000 -0.204
72.92000 5.622
72.94000 3.422
72.96000 -0.626
72.98000 3.317
73.00000 5.126
73.02000 5.022
73.04000 1.107
73.06000 0.211
73.08000 0.254
73.10000 4.805
73.12000 4.704
73.14000 3.656
73.16000 0.690
73.18000 2.081
73.20000 3.837
73.22000 -0.009
73.24000 -2.119
73.26000 3.589
73.28000 5.057
73.30000 3.694
73.32000 3.085
73.34000 2.516
73.36000 4.126
73.38000 6.623
73.40000 1.875
73.42000 -0.470
73.44000 -0.146
73.46000 0.606
73.48000 1.903
73.50000 2.689
73.52000 2.985
73.54000 0.031
73.56000 2.147
73.58000 0.690
73.60000 -0.288
73.62000 1.037
73.64000 2.417
73.66000 1.280
73.68000 3.710
73.70000 3.678
73.72000 0.041
73.74000 -1.971
73.76000 0.846
73.78000 4.256
73.80000 2.628
73.82000 0.078
73.84000 -0.465
73.86000 1.578
73.88000 2.554
73.90000 -1.156
73.92000 2.107
73.94000 4.336
73.96000 1.549
73.98000 0.066
74.00000 -2.143
74.02000 0.410
74.04000 -1.208
74.06000 0.968
74.08000 2.076
74.10000 5.272
74.12000 0.574
74.14000 -0.228
74.16000 2.775
74.18000 4.833
74.20000 1.817
74.22000 1.135
74.24000 3.185
74.26000 1.376
74.28000 0.060
74.30000 3.490
74.32000 2.496
74.34000 -1.504
74.36000 -1.574
74.38000 0.939
74.40000 0.318
74.42000 0.230
74.44000 -0.587
74.46000 -0.316
74.48000 -0.213
74.50000 1.810
74.52000 1.957
74.54000 2.377
74.56000 0.850
74.58000 0.993
74.60000 0.351
74.62000 -2.129
74.64000 1.330
74.66000 1.685
74.68000 2.147
74.70000 3.115
74.72000 2.944
74.74000 1.397
74.76000 0.131
74.78000 2.402
74.80000 -0.534
74.82000 -1.859
74.84000 -1.704
74.86000 -1.328
74.88000 -0.849
74.90000 2.863
74.92000 4.963
74.94000 6.073
74.96000 1.833
74.98000 4.687
75.00000 3.833
75.02000 2.555
75.04000 2.548
75.06000 1.311
75.08000 3.232
75.10000 2.990
75.12000 3.842
75.14000 3.064
75.16000 2.704
75.18000 5.007
75.20000 3.344
75.22000 4.512
75.24000 -0.708
75.26000 -2.088
75.28000 1.348
75.30000 5.950
75.32000 3.927
75.34000 0.763
75.36000 2.722
75.38000 2.902
75.40000 3.361
75.42000 3.726
75.44000 3.295
75.46000 3.834
75.48000 6.717
75.50000 6.501
75.52000 1.948
75.54000 3.133
75.56000 3.624
75.58000 6.326
75.60000 7.315
75.62000 4.987
75.64000 0.937
75.66000 -2.100
75.68000 4.652
75.70000 0.855
75.72000 -0.285
75.74000 5.352
75.76000 1.807
75.78000 0.622
75.80000 -0.792
75.82000 -0.663
75.84000 1.132
75.86000 0.382
75.88000 -0.841
75.90000 2.967
75.92000 1.509
75.94000 2.609
75.96000 1.851
75.98000 3.571
76.00000 2.546
76.02000 0.808
76.04000 2.011
76.06000 6.189
76.08000 7.297
76.10000 4.148
76.12000 4.715
76.14000 3.315
76.16000 5.326
76.18000 7.967
76.20000 2.427
76.22000 0.189
76.24000 -0.048
76.26000 4.060
76.28000 5.163
76.30000 3.888
76.32000 4.526
76.34000 2.410
76.36000 1.752
76.38000 2.756
76.40000 2.727
76.42000 1.762
76.44000 4.274
76.46000 4.128
76.48000 1.633
76.50000 1.596
76.52000 -0.866
76.54000 -0.086
76.56000 -1.339
76.58000 -2.124
76.60000 0.508
76.62000 2.214
76.64000 1.268
76.66000 3.329
76.68000 4.640
76.70000 0.707
76.72000 1.858
76.74000 0.073
76.76000 6.389
76.78000 5.025
76.80000 1.520
76.82000 1.439
76.84000 -1.977
76.86000 -1.613
76.88000 2.372
76.90000 4.681
76.92000 4.489
76.94000 6.556
76.96000 5.296
76.98000 1.907
77.00000 1.594
77.02000 -0.216
77.04000 -1.016
77.06000 0.515
77.08000 0.553
77.10000 2.125
77.12000 3.437
77.14000 3.857
77.16000 3.452
77.18000 1.857
77.20000 0.938
77.22000 -0.818
77.24000 1.387
77.26000 1.454
77.28000 0.850
77.30000 3.926
77.32000 -0.173
77.34000 0.770
77.36000 1.943
77.38000 0.812
77.40000 5.211
77.42000 3.955
77.44000 1.304
77.46000 1.318
77.48000 3.071
77.50000 3.692
77.52000 3.825
77.54000 5.656
77.56000 3.044
77.58000 0.940
77.60000 3.367
77.62000 6.359
77.64000 6.313
77.66000 2.677
77.68000 6.514
77.70000 3.774
77.72000 5.513
77.74000 2.242
77.76000 -1.454
77.78000 -2.115
77.80000 1.091
77.82000 1.951
77.84000 1.951
77.86000 3.933
77.88000 2.227
77.90000 1.124
77.92000 3.079
77.94000 0.888
77.96000 0.902
77.98000 3.316
78.00000 4.283
78.02000 2.535
78.04000 -0.475
78.06000 2.388
78.08000 4.142
78.10000 2.037
78.12000 4.895
78.14000 6.141
78.16000 2.815
78.18000 -1.661
78.20000 -1.229
78.22000 0.022
78.24000 2.263
78.26000 0.920
78.28000 -0.896
78.30000 -1.870
78.32000 -0.123
78.34000 -1.407
78.36000 0.048
78.38000 1.019
78.40000 0.506
78.42000 2.864
78.44000 3.122
78.46000 2.496
78.48000 1.933
78.50000 5.135
78.52000 5.806
78.54000 4.244
78.56000 2.665
78.58000 2.102
78.60000 1.440
78.62000 -0.797
78.64000 1.206
78.66000 4.579
78.68000 5.205
78.70000 4.007
78.72000 2.056
78.74000 2.975
78.76000 0.089
78.78000 0.496
78.80000 0.315
78.82000 2.068
78.84000 3.735
78.86000 4.913
78.88000 3.207
78.90000 6.490
78.92000 2.941
78.94000 2.054
78.96000 2.411
78.98000 0.069
79.00000 1.425
79.02000 1.734
79.04000 -1.814
79.06000 -0.373
79.08000 3.767
79.10000 1.722
79.12000 3.436
79.14000 1.701
79.16000 1.334
79.18000 5.853
79.20000 5.654
79.22000 6.640
79.24000 6.584
79.26000 4.145
79.28000 3.405
79.30000 4.529
79.32000 2.864
79.34000 -0.764
79.36000 -2.149
79.38000 2.737
79.40000 2.849
79.42000 3.751
79.44000 2.536
79.46000 3.377
79.48000 7.518
79.50000 3.243
79.52000 3.175
79.54000 4.097
79.56000 3.959
79.58000 1.741
79.60000 1.437
79.62000 -0.436
79.64000 -1.150
79.66000 0.741
79.68000 3.827
79.70000 2.260
79.72000 0.879
79.74000 3.558
79.76000 5.743
79.78000 5.100
79.80000 3.909
79.82000 2.644
79.84000 4.324
79.86000 3.146
79.88000 -0.290
79.90000 2.009
79.92000 1.237
79.94000 3.388
79.96000 5.207
79.98000 -0.698
80.00000 -1.488
80.02000 2.014
80.04000 2.652
80.06000 1.895
80.08000 4.521
80.10000 2.971
80.12000 -0.721
80.14000 -2.165
80.16000 1.316
80.18000 -0.714
80.20000 4.086
80.22000 5.229
80.24000 2.907
80.26000 2.572
80.28000 1.318
80.30000 3.411
80.32000 5.226
80.34000 6.259
80.36000 6.327
80.38000 4.985
80.40000 5.045
80.42000 4.786
80.44000 4.491
80.46000 6.481
80.48000 1.772
80.50000 -0.441
80.52000 -0.883
80.54000 -2.200
80.56000 5.800
80.58000 7.217
80.60000 4.005
80.62000 2.361
80.64000 4.239
80.66000 7.876
80.68000 3.567
80.70000 4.476
80.72000 1.326
80.74000 0.246
80.76000 1.681
80.78000 2.450
80.80000 1.283
80.82000 -1.342
80.84000 1.165
80.86000 3.327
80.88000 0.478
80.90000 -1.843
80.92000 -0.381
80.94000 -1.728
80.96000 -1.729
80.98000 0.747
81.00000 0.037
81.02000 0.074
81.04000 3.006
81.06000 0.800
81.08000 2.185
81.10000 3.635
81.12000 0.983
81.14000 2.030
81.16000 2.729
81.18000 6.641
81.20000 2.827
81.22000 -0.130
81.24000 1.673
81.26000 2.533
81.28000 2.116
81.30000 2.686
81.32000 1.072
81.34000 0.998
81.36000 4.571
81.38000 1.583
81.40000 -0.398
81.42000 1.873
81.44000 3.054
81.46000 1.549
81.48000 -2.253
81.50000 0.996
81.52000 4.750
81.54000 2.069
81.56000 1.567
81.58000 3.646
81.60000 4.416
81.62000 3.067
81.64000 2.722
81.66000 3.047
81.68000 2.424
81.70000 4.900
81.72000 5.946
81.74000 5.432
81.76000 2.600
81.78000 5.280
81.80000 6.907
81.82000 3.625
81.84000 5.682
81.86000 5.571
81.88000 3.678
81.90000 2.229
81.92000 4.691
81.94000 4.479
81.96000 5.355
81.98000 4.906
82.00000 5.999
82.02000 5.829
82.04000 3.904
82.06000 7.910
82.08000 5.861
82.10000 5.408
82.12000 6.651
82.14000 5.124
82.16000 5.430
82.18000 4.820
82.20000 4.636
82.22000 7.519
82.24000 7.289
82.26000 5.066
82.28000 9.824
82.30000 13.809
82.32000 13.329
82.34000 12.799
82.36000 11.859
82.38000 9.158
82.40000 8.909
82.42000 7.974
82.44000 12.951
82.46000 12.147
82.48000 8.554
82.50000 11.312
82.52000 10.542
82.54000 15.405
82.56000 16.197
82.58000 14.473
82.60000 16.308
82.62000 13.009
82.64000 15.176
82.66000 17.477
82.68000 16.319
82.70000 17.479
82.72000 21.456
82.74000 19.860
82.76000 24.805
82.78000 24.429
82.80000 25.503
82.82000 25.226
82.84000 24.652
82.86000 27.960
82.88000 30.221
82.90000 28.530
82.92000 33.689
82.94000 33.207
82.96000 33.017
82.98000 30.653
83.00000 31.969
83.02000 37.173
83.04000 35.952
83.06000 36.552
83.08000 34.314
83.10000 33.716
83.12000 39.462
83.14000 34.789
83.16000 37.580
83.18000 36.567
83.20000 37.239
83.22000 36.474
83.24000 35.739
83.26000 37.713
83.28000 41.374
83.30000 43.065
83.32000 40.006
83.34000 41.962
83.36000 42.334
83.38000 40.475
83.40000 37.203
83.42000 34.630
83.44000 30.801
83.46000 33.974
83.48000 36.387
83.50000 36.697
83.52000 35.474
83.54000 38.693
83.56000 33.499
83.58000 34.635
83.60000 29.886
83.62000 29.364
83.64000 32.323
83.66000 33.539
83.68000 31.063
83.70000 26.189
83.72000 26.671
83.74000 25.616
83.76000 28.179
83.78000 27.321
83.80000 28.384
83.82000 27.530
83.84000 24.781
83.86000 23.666
83.88000 21.026
83.90000 21.583
83.92000 18.879
83.94000 20.240
83.96000 20.993
83.98000 21.291
84.00000 16.908
84.02000 17.091
84.04000 13.815
84.06000 13.972
84.08000 10.612
84.10000 13.954
84.12000 11.221
84.14000 7.450
84.16000 7.476
84.18000 9.944
84.20000 7.386
84.22000 8.388
84.24000 7.772
84.26000 6.055
84.28000 3.795
84.30000 3.197
84.32000 9.707
84.34000 10.593
84.36000 7.434
84.38000 8.401
84.40000 6.878
84.42000 4.862
84.44000 6.685
84.46000 3.839
84.48000 4.630
84.50000 2.762
84.52000 2.445
84.54000 3.998
84.56000 3.638
84.58000 4.022
84.60000 1.753
84.62000 2.214
84.64000 5.370
84.66000 7.983
84.68000 3.452
84.70000 1.499
84.72000 0.760
84.74000 4.727
84.76000 2.554
84.78000 0.331
84.80000 0.096
84.82000 0.946
84.84000 3.934
84.86000 3.789
84.88000 6.665
84.90000 4.915
84.92000 -0.350
84.94000 -2.267
84.96000 -1.870
84.98000 -0.957
85.00000 -1.290
85.02000 0.883
85.04000 -0.141
85.06000 1.681
85.08000 3.120
85.10000 -0.304
85.12000 1.393
85.14000 1.804
85.16000 1.755
85.18000 0.414
85.20000 3.416
85.22000 1.266
85.24000 -1.519
85.26000 1.012
85.28000 0.003
85.30000 -1.553
85.32000 -0.715
85.34000 0.107
85.36000 1.046
85.38000 -1.424
85.40000 -1.275
85.42000 1.123
85.44000 3.128
85.46000 1.821
85.48000 2.996
85.50000 2.820
85.52000 5.721
85.54000 1.633
85.56000 -2.219
85.58000 1.283
85.60000 2.593
85.62000 1.780
85.64000 0.825
85.66000 3.323
85.68000 0.945
85.70000 2.077
85.72000 1.213
85.74000 2.115
85.76000 0.756
85.78000 2.666
85.80000 3.772
85.82000 3.910
85.84000 1.096
85.86000 0.570
85.88000 1.821
85.90000 -2.187
85.92000 -1.474
85.94000 3.397
85.96000 -0.680
85.98000 -0.006
86.00000 1.952
86.02000 0.667
86.04000 1.310
86.06000 1.619
86.08000 1.810
86.10000 3.823
86.12000 2.756
86.14000 3.049
86.16000 4.559
86.18000 0.715
86.20000 -0.813
86.22000 2.422
86.24000 1.033
86.26000 2.837
86.28000 -1.248
86.30000 0.718
86.32000 0.878
86.34000 3.134
86.36000 -0.587
86.38000 -1.265
86.40000 0.130
86.42000 -0.034
86.44000 2.693
86.46000 0.648
86.48000 -1.081
86.50000 -1.165
86.52000 1.721
86.54000 0.841
86.56000 4.402
86.58000 1.146
86.60000 -0.279
86.62000 -0.382
86.64000 -0.902
86.66000 -0.027
86.68000 -0.422
86.70000 -0.141
86.72000 1.081
86.74000 4.935
86.76000 2.741
86.78000 4.259
86.80000 0.944
86.82000 -0.006
86.84000 -1.973
86.86000 1.741
86.88000 1.344
86.90000 3.538
86.92000 4.546
86.94000 4.374
86.96000 6.052
86.98000 2.496
87.00000 1.831
87.02000 5.553
87.04000 2.432
87.06000 2.035
87.08000 2.436
87.10000 6.800
87.12000 7.975
87.14000 7.606
87.16000 7.344
87.18000 6.256
87.20000 5.075
87.22000 9.508
87.24000 9.705
87.26000 4.144
87.28000 10.312
87.30000 10.770
87.32000 7.279
87.34000 12.174
87.36000 16.392
87.38000 15.513
87.40000 13.725
87.42000 15.379
87.44000 18.286
87.46000 15.021
87.48000 15.799
87.50000 16.833
87.52000 19.399
87.54000 20.030
87.56000 23.489
87.58000 17.799
87.60000 17.105
87.62000 21.987
87.64000 21.051
87.66000 21.108
87.68000 18.990
87.70000 17.402
87.72000 18.945
87.74000 18.040
87.76000 22.416
87.78000 26.072
87.80000 22.553
87.82000 17.138
87.84000 20.635
87.86000 25.321
87.88000 23.129
87.90000 18.754
87.92000 19.881
87.94000 16.867
87.96000 22.647
87.98000 27.136
88.00000 18.702
88.02000 16.434
88.04000 16.417
88.06000 18.273
88.08000 15.623
88.10000 10.505
88.12000 12.246
88.14000 14.532
88.16000 16.170
88.18000 14.534
88.20000 14.473
88.22000 10.172
88.24000 13.037
88.26000 14.264
88.28000 10.641
88.30000 9.556
88.32000 9.804
88.34000 7.578
88.36000 7.205
88.38000 7.725
88.40000 7.256
88.42000 2.878
88.44000 8.469
88.46000 7.709
88.48000 5.863
88.50000 7.435
88.52000 4.413
88.54000 5.996
88.56000 5.618
88.58000 4.532
88.60000 2.297
88.62000 4.273
88.64000 4.162
88.66000 8.623
88.68000 7.834
88.70000 1.871
88.72000 2.158
88.74000 2.317
88.76000 3.525
88.78000 5.675
88.80000 2.471
88.82000 -0.778
88.84000 -0.239
88.86000 -0.160
88.88000 -1.370
88.90000 0.171
88.92000 1.704
88.94000 5.231
88.96000 4.304
88.98000 -1.240
89.00000 -0.144
89.02000 2.775
89.04000 1.539
89.06000 -2.177
89.08000 1.872
89.10000 3.553
89.12000 2.724
89.14000 0.094
89.16000 0.656
89.18000 2.218
89.20000 3.654
89.22000 0.302
89.24000 -1.645
89.26000 3.853
89.28000 2.086
89.30000 -0.952
89.32000 -0.605
89.34000 2.388
89.36000 -1.883
89.38000 0.917
89.40000 2.634
89.42000 1.062
89.44000 0.180
89.46000 3.250
89.48000 2.194
89.50000 2.957
89.52000 1.403
89.54000 2.219
89.56000 1.801
89.58000 4.507
89.60000 7.792
89.62000 1.780
89.64000 0.690
89.66000 -0.375
89.68000 0.579
89.70000 0.535
89.72000 0.352
89.74000 2.671
89.76000 4.609
89.78000 -1.637
89.80000 -2.056
89.82000 -1.391
89.84000 3.543
89.86000 1.292
89.88000 4.471
89.90000 6.570
89.92000 5.736
89.94000 2.416
89.96000 -0.416
89.98000 -0.551
90.00000 0.856
90.02000 1.989
90.04000 4.197
90.06000 4.391
90.08000 -1.948
90.10000 -0.330
90.12000 2.531
90.14000 1.220
90.16000 1.708
90.18000 2.888
90.20000 1.858
90.22000 5.146
90.24000 3.835
90.26000 2.892
90.28000 1.325
90.30000 0.253
90.32000 1.320
90.34000 -1.522
90.36000 -0.104
90.38000 0.587
90.40000 -2.022
90.42000 0.178
90.44000 -0.329
90.46000 2.044
90.48000 4.127
90.50000 3.128
90.52000 3.042
90.54000 0.182
90.56000 0.081
90.58000 1.686
90.60000 4.900
90.62000 1.925
90.64000 3.544
90.66000 0.952
90.68000 4.694
90.70000 6.019
90.72000 3.189
90.74000 0.278
90.76000 1.176
90.78000 1.020
90.80000 3.369
90.82000 0.555
90.84000 0.678
90.86000 0.517
90.88000 3.191
90.90000 2.395
90.92000 -0.385
90.94000 -2.027
90.96000 1.406
90.98000 2.476
91.00000 4.073
91.02000 3.361
91.04000 2.969
91.06000 3.265
91.08000 -1.142
91.10000 -0.236
91.12000 3.990
91.14000 5.557
91.16000 9.510
91.18000 6.646
91.20000 4.561
91.22000 0.284
91.24000 3.357
91.26000 4.361
91.28000 0.723
91.30000 0.047
91.32000 5.123
91.34000 2.861
91.36000 -1.800
91.38000 -1.354
91.40000 -1.598
91.42000 0.703
91.44000 2.929
91.46000 0.758
91.48000 2.256
91.50000 3.662
91.52000 3.869
91.54000 3.879
91.56000 3.301
91.58000 0.068
91.60000 1.144
91.62000 0.622
91.64000 -0.364
91.66000 4.787
91.68000 8.248
91.70000 8.303
91.72000 3.334
91.74000 6.874
91.76000 1.560
91.78000 0.818
91.80000 -0.647
91.82000 2.422
91.84000 0.662
91.86000 4.371
91.88000 4.519
91.90000 3.474
91.92000 3.173
91.94000 2.506
91.96000 0.694
91.98000 1.819
92.00000 2.214
92.02000 3.161
92.04000 6.831
92.06000 6.596
92.08000 1.867
92.10000 -0.348
92.12000 3.279
92.14000 1.649
92.16000 1.045
92.18000 -1.046
92.20000 2.778
92.22000 1.873
92.24000 -2.001
92.26000 -1.890
92.28000 0.821
92.30000 0.018
92.32000 2.973
92.34000 2.498
92.36000 3.664
92.38000 6.470
92.40000 2.677
92.42000 8.218
92.44000 5.459
92.46000 3.404
92.48000 2.580
92.50000 0.474
92.52000 2.056
92.54000 3.760
92.56000 8.818
92.58000 5.470
92.60000 3.089
92.62000 3.915
92.64000 4.768
92.66000 5.257
92.68000 2.190
92.70000 3.204
92.72000 2.088
92.74000 1.375
92.76000 0.850
92.78000 0.607
92.80000 1.540
92.82000 3.322
92.84000 5.532
92.86000 3.302
92.88000 3.994
92.90000 2.913
92.92000 3.417
92.94000 2.546
92.96000 0.073
92.98000 0.123
93.00000 1.496
93.02000 0.939
93.04000 -2.006
93.06000 5.197
93.08000 3.292
93.10000 0.479
93.12000 4.079
93.14000 4.333
93.16000 0.942
93.18000 -0.228
93.20000 2.608
93.22000 2.452
93.24000 -0.272
93.26000 0.726
93.28000 2.256
93.30000 3.860
93.32000 0.499
93.34000 1.963
93.36000 2.136
93.38000 0.636
93.40000 -0.416
93.42000 2.662
93.44000 5.130
93.46000 3.490
93.48000 2.587
93.50000 0.710
93.52000 1.178
93.54000 2.800
93.56000 4.144
93.58000 2.611
93.60000 2.281
93.62000 1.426
93.64000 2.838
93.66000 6.088
93.68000 3.482
93.70000 2.643
93.72000 5.988
93.74000 4.588
93.76000 -0.072
93.78000 -1.471
93.80000 0.634
93.82000 3.969
93.84000 4.779
93.86000 3.122
93.88000 0.344
93.90000 -0.119
93.92000 -0.726
93.94000 1.466
93.96000 -0.689
93.98000 -0.428
94.00000 -2.029
94.02000 2.459
94.04000 2.870
94.06000 3.773
94.08000 3.251
94.10000 2.540
94.12000 5.677
94.14000 5.186
94.16000 2.903
94.18000 1.036
94.20000 1.995
94.22000 4.173
94.24000 6.398
94.26000 2.008
94.28000 -0.407
94.30000 1.286
94.32000 2.779
94.34000 4.963
94.36000 4.550
94.38000 3.201
94.40000 3.762
94.42000 3.594
94.44000 5.236
94.46000 9.572
94.48000 8.567
94.50000 6.762
94.52000 2.328
94.54000 0.516
94.56000 2.949
94.58000 3.625
94.60000 6.008
94.62000 3.942
94.64000 3.646
94.66000 0.433
94.68000 -0.289
94.70000 -0.404
94.72000 2.352
94.74000 4.108
94.76000 6.074
94.78000 4.578
94.80000 0.894
94.82000 2.006
94.84000 3.318
94.86000 6.874
94.88000 4.672
94.90000 2.533
94.92000 2.247
94.94000 3.620
94.96000 5.610
94.98000 0.653
95.00000 5.052
95.02000 3.895
95.04000 -0.785
95.06000 1.260
95.08000 2.742
95.10000 -2.023
95.12000 1.357
95.14000 4.174
95.16000 5.981
95.18000 5.372
95.20000 7.501
95.22000 6.976
95.24000 2.873
95.26000 2.027
95.28000 4.604
95.30000 5.236
95.32000 5.263
95.34000 2.357
95.36000 3.076
95.38000 5.026
95.40000 3.108
95.42000 2.723
95.44000 1.872
95.46000 3.343
95.48000 0.782
95.50000 0.606
95.52000 6.132
95.54000 5.730
95.56000 4.972
95.58000 2.112
95.60000 2.920
95.62000 2.368
95.64000 4.437
95.66000 0.835
95.68000 1.031
95.70000 4.503
95.72000 1.736
95.74000 0.993
95.76000 -2.049
95.78000 1.064
95.80000 -0.493
95.82000 1.832
95.84000 1.357
95.86000 3.805
95.88000 3.193
95.90000 3.924
95.92000 5.530
95.94000 5.913
95.96000 0.359
95.98000 -0.296
96.00000 2.639
96.02000 3.496
96.04000 1.479
96.06000 7.262
96.08000 5.723
96.10000 -1.310
96.12000 2.503
96.14000 6.128
96.16000 3.690
96.18000 4.385
96.20000 2.806
96.22000 -0.530
96.24000 5.235
96.26000 7.908
96.28000 0.448
96.30000 -2.056
96.32000 -1.191
96.34000 -1.177
96.36000 1.571
96.38000 3.298
96.40000 4.306
96.42000 1.628
96.44000 3.509
96.46000 1.653
96.48000 1.967
96.50000 3.571
96.52000 3.694
96.54000 4.684
96.56000 6.737
96.58000 3.877
96.60000 2.911
96.62000 5.371
96.64000 6.553
96.66000 1.926
96.68000 -0.326
96.70000 1.240
96.72000 3.279
96.74000 1.244
96.76000 0.432
96.78000 -0.540
96.80000 0.717
96.82000 1.385
96.84000 0.999
96.86000 2.568
96.88000 2.695
96.90000 -0.433
96.92000 0.106
96.94000 4.236
96.96000 3.258
96.98000 2.808
97.00000 6.701
97.02000 3.803
97.04000 6.042
97.06000 7.990
97.08000 5.451
97.10000 0.962
97.12000 1.274
97.14000 6.640
97.16000 8.065
97.18000 5.033
97.20000 3.053
97.22000 5.385
97.24000 6.799
97.26000 7.064
97.28000 -1.615
97.30000 -2.040
97.32000 -0.178
97.34000 1.127
97.36000 2.936
97.38000 4.712
97.40000 6.855
97.42000 6.580
97.44000 5.815
97.46000 6.035
97.48000 8.338
97.50000 3.480
97.52000 -0.685
97.54000 -1.474
97.56000 5.117
97.58000 4.382
97.60000 -0.666
97.62000 0.973
97.64000 3.077
97.66000 5.822
97.68000 1.055
97.70000 0.208
97.72000 -0.731
97.74000 3.465
97.76000 2.068
97.78000 2.617
97.80000 3.202
97.82000 -0.310
97.84000 1.363
97.86000 1.296
97.88000 3.221
97.90000 6.663
97.92000 4.664
97.94000 5.743
97.96000 4.258
97.98000 1.994
98.00000 0.228
98.02000 8.088
98.04000 8.266
98.06000 5.446
98.08000 1.591
98.10000 2.887
98.12000 2.246
98.14000 1.560
98.16000 1.796
98.18000 2.697
98.20000 2.913
98.22000 3.987
98.24000 6.116
98.26000 6.161
98.28000 3.775
98.30000 8.130
98.32000 1.590
98.34000 3.555
98.36000 7.841
98.38000 10.602
98.40000 6.909
98.42000 0.156
98.44000 0.322
98.46000 1.213
98.48000 2.240
98.50000 -0.729
98.52000 4.956
98.54000 5.265
98.56000 7.703
98.58000 11.570
98.60000 7.245
98.62000 3.387
98.64000 5.956
98.66000 8.144
98.68000 7.047
98.70000 6.711
98.72000 -1.962
98.74000 2.577
98.76000 6.276
98.78000 3.783
98.80000 10.104
98.82000 1.774
98.84000 5.168
98.86000 6.831
98.88000 4.835
98.90000 5.693
98.92000 4.482
98.94000 10.962
98.96000 6.347
98.98000 10.484
99.00000 15.520
99.02000 14.007
99.04000 5.704
99.06000 10.436
99.08000 4.941
99.10000 5.663
99.12000 9.799
99.14000 1.575
99.16000 3.030
99.18000 9.441
99.20000 8.571
99.22000 0.864
99.24000 7.036
99.26000 18.107
99.28000 11.009
99.30000 8.859
99.32000 10.928
99.34000 10.568
99.36000 13.070
99.38000 14.370
99.40000 7.677
99.42000 15.505
99.44000 8.290
99.46000 10.800
99.48000 9.322
99.50000 6.034
99.52000 1.350
99.54000 -1.828
99.56000 4.537
99.58000 20.116
99.60000 15.884
99.62000 16.792
99.64000 10.759
99.66000 8.628
99.68000 1.965
99.70000 1.227
99.72000 -0.383
99.74000 6.257
99.76000 8.053
99.78000 1.472
99.80000 4.489
99.82000 9.207
99.84000 5.005
99.86000 -2.001
99.88000 -0.735
99.90000 4.151
99.92000 -8.553
99.94000 6.495
99.96000 7.572
99.98000 0.000
