'Id: "0011388" Comment: "Integrate frame 0011388_Au-Ir-Rh_Rh-rich_XRD-Mapping-231-0000.gfrmwith cursor Wedge Cursor #5" Operator: "B?rgel" Anode: "Cu" Wavelength: "1.5406" Scantype: "2Theta (TwoTheta)" TimePerStep: "1" X: "4.5" Y: "13.5" Z: "5.95" 
10.00000 0.000
10.02000 -4.120
10.04000 -4.072
10.06000 -4.028
10.08000 6.180
10.10000 12.710
10.12000 -1.807
10.14000 4.692
10.16000 16.499
10.18000 14.285
10.20000 -2.303
10.22000 1.141
10.24000 19.023
10.26000 21.417
10.28000 8.103
10.30000 16.495
10.32000 16.090
10.34000 13.362
10.36000 24.510
10.38000 10.558
10.40000 0.881
10.42000 1.828
10.44000 24.591
10.46000 11.020
10.48000 21.121
10.50000 27.640
10.52000 9.036
10.54000 16.342
10.56000 23.482
10.58000 14.842
10.60000 10.829
10.62000 6.116
10.64000 4.904
10.66000 -2.985
10.68000 5.368
10.70000 3.878
10.72000 7.032
10.74000 11.447
10.76000 9.673
10.78000 5.510
10.80000 2.385
10.82000 6.521
10.84000 4.438
10.86000 15.973
10.88000 25.524
10.90000 24.607
10.92000 10.307
10.94000 9.864
10.96000 12.929
10.98000 9.334
11.00000 7.074
11.02000 12.203
11.04000 12.544
11.06000 13.375
11.08000 17.395
11.10000 8.159
11.12000 2.993
11.14000 22.149
11.16000 31.911
11.18000 19.588
11.20000 22.058
11.22000 19.143
11.24000 16.252
11.26000 8.975
11.28000 7.334
11.30000 16.978
11.32000 14.440
11.34000 1.336
11.36000 16.396
11.38000 13.969
11.40000 8.263
11.42000 5.279
11.44000 7.388
11.46000 3.360
11.48000 14.087
11.50000 13.111
11.52000 2.822
11.54000 19.104
11.56000 25.002
11.58000 9.667
11.60000 8.638
11.62000 5.492
11.64000 2.235
11.66000 14.165
11.68000 17.230
11.70000 21.875
11.72000 17.568
11.74000 14.193
11.76000 5.942
11.78000 8.512
11.80000 10.409
11.82000 10.247
11.84000 12.497
11.86000 13.338
11.88000 3.230
11.90000 16.453
11.92000 25.229
11.94000 22.874
11.96000 13.163
11.98000 12.625
12.00000 15.292
12.02000 13.943
12.04000 18.043
12.06000 31.859
12.08000 15.550
12.10000 9.856
12.12000 16.108
12.14000 32.595
12.16000 29.485
12.18000 22.351
12.20000 20.703
12.22000 15.690
12.24000 17.849
12.26000 15.790
12.28000 17.219
12.30000 6.134
12.32000 5.671
12.34000 9.971
12.36000 14.752
12.38000 10.440
12.40000 23.060
12.42000 20.410
12.44000 15.290
12.46000 14.883
12.48000 16.972
12.50000 12.172
12.52000 5.944
12.54000 22.933
12.56000 23.291
12.58000 26.100
12.60000 17.041
12.62000 12.287
12.64000 15.023
12.66000 12.288
12.68000 5.855
12.70000 -1.580
12.72000 7.226
12.74000 16.371
12.76000 16.585
12.78000 11.218
12.80000 10.600
12.82000 8.945
12.84000 3.035
12.86000 9.812
12.88000 7.931
12.90000 11.917
12.92000 17.012
12.94000 20.039
12.96000 12.910
12.98000 15.344
13.00000 12.165
13.02000 15.480
13.04000 14.684
13.06000 15.897
13.08000 21.107
13.10000 24.912
13.12000 15.418
13.14000 20.192
13.16000 19.916
13.18000 14.113
13.20000 12.689
13.22000 12.600
13.24000 9.971
13.26000 13.706
13.28000 10.561
13.30000 12.055
13.32000 17.234
13.34000 9.032
13.36000 14.234
13.38000 24.129
13.40000 23.988
13.42000 11.961
13.44000 8.373
13.46000 8.523
13.48000 10.598
13.50000 23.645
13.52000 10.001
13.54000 12.579
13.56000 11.631
13.58000 5.171
13.60000 10.633
13.62000 11.036
13.64000 4.894
13.66000 8.624
13.68000 11.441
13.70000 -1.293
13.72000 0.603
13.74000 4.686
13.76000 9.167
13.78000 13.925
13.80000 15.359
13.82000 13.118
13.84000 12.187
13.86000 3.699
13.88000 16.112
13.90000 18.192
13.92000 10.019
13.94000 -2.652
13.96000 9.348
13.98000 10.532
14.00000 5.148
14.02000 5.423
14.04000 18.215
14.06000 18.419
14.08000 12.581
14.10000 19.419
14.12000 26.728
14.14000 18.279
14.16000 14.102
14.18000 13.636
14.20000 11.729
14.22000 14.290
14.24000 11.843
14.26000 6.477
14.28000 6.992
14.30000 4.935
14.32000 1.059
14.34000 -0.890
14.36000 2.722
14.38000 13.312
14.40000 12.034
14.42000 6.905
14.44000 13.734
14.46000 14.091
14.48000 -0.295
14.50000 9.679
14.52000 13.135
14.54000 8.936
14.56000 -3.102
14.58000 4.985
14.60000 5.990
14.62000 2.898
14.64000 2.169
14.66000 6.056
14.68000 9.892
14.70000 11.613
14.72000 11.768
14.74000 7.438
14.76000 7.626
14.78000 10.366
14.80000 12.322
14.82000 17.749
14.84000 10.475
14.86000 -1.019
14.88000 -1.406
14.90000 -0.544
14.92000 10.195
14.94000 9.344
14.96000 10.451
14.98000 4.330
15.00000 9.357
15.02000 4.560
15.04000 4.211
15.06000 17.731
15.08000 13.366
15.10000 6.288
15.12000 5.347
15.14000 -4.460
15.16000 5.725
15.18000 14.033
15.20000 8.917
15.22000 8.068
15.24000 10.302
15.26000 16.408
15.28000 14.486
15.30000 7.397
15.32000 10.304
15.34000 7.848
15.36000 6.987
15.38000 7.268
15.40000 9.662
15.42000 1.786
15.44000 8.675
15.46000 7.567
15.48000 9.133
15.50000 9.686
15.52000 5.105
15.54000 7.035
15.56000 8.099
15.58000 5.030
15.60000 0.530
15.62000 3.009
15.64000 1.204
15.66000 0.917
15.68000 3.208
15.70000 0.970
15.72000 7.508
15.74000 5.511
15.76000 1.278
15.78000 -0.309
15.80000 3.294
15.82000 9.602
15.84000 12.300
15.86000 4.362
15.88000 7.201
15.90000 2.777
15.92000 3.522
15.94000 19.080
15.96000 13.525
15.98000 10.283
16.00000 2.527
16.02000 2.931
16.04000 9.176
16.06000 10.261
16.08000 5.662
16.10000 -0.268
16.12000 2.432
16.14000 2.049
16.16000 5.174
16.18000 -4.450
16.20000 -1.803
16.22000 4.643
16.24000 12.373
16.26000 9.985
16.28000 6.154
16.30000 1.227
16.32000 11.537
16.34000 11.679
16.36000 3.027
16.38000 3.234
16.40000 -0.069
16.42000 0.377
16.44000 3.058
16.46000 3.881
16.48000 12.690
16.50000 15.584
16.52000 10.655
16.54000 12.503
16.56000 3.314
16.58000 -2.192
16.60000 8.478
16.62000 8.516
16.64000 5.673
16.66000 -2.647
16.68000 0.272
16.70000 5.849
16.72000 12.439
16.74000 12.053
16.76000 4.383
16.78000 7.121
16.80000 6.318
16.82000 -2.881
16.84000 3.318
16.86000 5.271
16.88000 5.214
16.90000 6.494
16.92000 7.947
16.94000 4.846
16.96000 5.237
16.98000 1.261
17.00000 10.251
17.02000 15.059
17.04000 17.729
17.06000 10.555
17.08000 0.364
17.10000 -4.411
17.12000 3.540
17.14000 10.620
17.16000 4.867
17.18000 3.400
17.20000 2.580
17.22000 3.260
17.24000 7.047
17.26000 5.688
17.28000 1.286
17.30000 3.878
17.32000 9.880
17.34000 13.740
17.36000 9.132
17.38000 1.873
17.40000 -2.022
17.42000 1.198
17.44000 2.110
17.46000 -3.899
17.48000 1.741
17.50000 9.730
17.52000 2.026
17.54000 1.035
17.56000 12.815
17.58000 11.296
17.60000 4.027
17.62000 5.451
17.64000 4.211
17.66000 2.712
17.68000 -2.446
17.70000 4.821
17.72000 12.227
17.74000 5.617
17.76000 -4.110
17.78000 0.850
17.80000 5.432
17.82000 10.252
17.84000 8.915
17.86000 1.044
17.88000 2.358
17.90000 7.378
17.92000 6.496
17.94000 8.062
17.96000 11.287
17.98000 6.266
18.00000 7.255
18.02000 3.984
18.04000 1.503
18.06000 1.165
18.08000 5.338
18.10000 6.693
18.12000 10.187
18.14000 13.756
18.16000 12.723
18.18000 10.769
18.20000 -4.132
18.22000 -0.529
18.24000 -0.106
18.26000 3.527
18.28000 3.766
18.30000 5.661
18.32000 9.537
18.34000 7.987
18.36000 9.104
18.38000 9.340
18.40000 4.584
18.42000 4.268
18.44000 -2.069
18.46000 1.076
18.48000 -4.307
18.50000 2.551
18.52000 6.877
18.54000 6.526
18.56000 11.792
18.58000 5.343
18.60000 -2.662
18.62000 4.564
18.64000 4.450
18.66000 9.261
18.68000 13.015
18.70000 11.988
18.72000 5.620
18.74000 1.858
18.76000 9.233
18.78000 4.121
18.80000 8.241
18.82000 10.278
18.84000 1.167
18.86000 1.001
18.88000 2.817
18.90000 4.346
18.92000 -2.195
18.94000 1.870
18.96000 4.368
18.98000 -0.820
19.00000 8.940
19.02000 5.023
19.04000 4.440
19.06000 6.034
19.08000 4.655
19.10000 3.365
19.12000 11.800
19.14000 12.701
19.16000 9.133
19.18000 7.574
19.20000 4.192
19.22000 11.647
19.24000 4.193
19.26000 11.141
19.28000 4.625
19.30000 6.908
19.32000 8.518
19.34000 7.358
19.36000 4.637
19.38000 5.457
19.40000 7.712
19.42000 1.822
19.44000 -4.266
19.46000 4.902
19.48000 5.592
19.50000 5.535
19.52000 3.775
19.54000 2.742
19.56000 -0.639
19.58000 3.743
19.60000 5.445
19.62000 -1.887
19.64000 -1.972
19.66000 1.247
19.68000 9.074
19.70000 9.316
19.72000 7.186
19.74000 10.786
19.76000 7.611
19.78000 5.282
19.80000 9.220
19.82000 14.087
19.84000 9.448
19.86000 7.435
19.88000 12.942
19.90000 7.463
19.92000 6.768
19.94000 4.808
19.96000 12.948
19.98000 6.061
20.00000 -3.040
20.02000 0.562
20.04000 6.032
20.06000 -2.134
20.08000 2.397
20.10000 6.403
20.12000 4.968
20.14000 0.666
20.16000 3.023
20.18000 4.578
20.20000 3.748
20.22000 2.477
20.24000 0.936
20.26000 -0.332
20.28000 -4.219
20.30000 0.273
20.32000 4.671
20.34000 4.052
20.36000 1.373
20.38000 5.008
20.40000 9.914
20.42000 7.688
20.44000 -0.840
20.46000 0.889
20.48000 2.205
20.50000 -0.627
20.52000 0.508
20.54000 1.792
20.56000 6.715
20.58000 7.827
20.60000 2.104
20.62000 3.063
20.64000 3.121
20.66000 -1.234
20.68000 3.959
20.70000 2.255
20.72000 0.449
20.74000 3.824
20.76000 6.319
20.78000 6.676
20.80000 3.635
20.82000 2.179
20.84000 6.013
20.86000 3.449
20.88000 3.241
20.90000 1.652
20.92000 4.593
20.94000 6.217
20.96000 8.027
20.98000 3.396
21.00000 1.881
21.02000 2.905
21.04000 7.045
21.06000 9.029
21.08000 4.677
21.10000 2.069
21.12000 4.051
21.14000 3.495
21.16000 -0.167
21.18000 3.768
21.20000 7.285
21.22000 0.693
21.24000 -1.803
21.26000 -1.547
21.28000 3.620
21.30000 3.222
21.32000 4.152
21.34000 9.436
21.36000 6.637
21.38000 -1.112
21.40000 0.012
21.42000 3.447
21.44000 2.480
21.46000 2.388
21.48000 -0.237
21.50000 4.515
21.52000 6.064
21.54000 2.546
21.56000 3.557
21.58000 -0.847
21.60000 0.971
21.62000 2.871
21.64000 9.080
21.66000 16.364
21.68000 14.493
21.70000 11.637
21.72000 3.762
21.74000 -2.251
21.76000 -0.129
21.78000 0.796
21.80000 6.504
21.82000 4.040
21.84000 4.260
21.86000 6.543
21.88000 5.483
21.90000 4.134
21.92000 3.914
21.94000 2.394
21.96000 2.582
21.98000 6.252
22.00000 6.300
22.02000 6.747
22.04000 11.779
22.06000 9.273
22.08000 2.960
22.10000 -0.765
22.12000 -0.972
22.14000 0.835
22.16000 2.879
22.18000 0.403
22.20000 -0.092
22.22000 2.215
22.24000 -4.121
22.26000 -3.125
22.28000 6.511
22.30000 9.767
22.32000 1.254
22.34000 6.442
22.36000 7.058
22.38000 2.232
22.40000 2.433
22.42000 -0.278
22.44000 -2.170
22.46000 2.715
22.48000 7.088
22.50000 6.975
22.52000 1.812
22.54000 2.965
22.56000 8.841
22.58000 7.482
22.60000 -4.005
22.62000 -0.150
22.64000 0.606
22.66000 3.607
22.68000 4.854
22.70000 5.409
22.72000 7.040
22.74000 10.380
22.76000 3.808
22.78000 -0.931
22.80000 -2.111
22.82000 0.194
22.84000 2.080
22.86000 4.891
22.88000 6.862
22.90000 6.034
22.92000 7.963
22.94000 4.424
22.96000 7.633
22.98000 0.974
23.00000 -0.997
23.02000 -4.084
23.04000 2.104
23.06000 4.817
23.08000 2.474
23.10000 -0.871
23.12000 1.862
23.14000 0.319
23.16000 -3.357
23.18000 -0.332
23.20000 2.154
23.22000 3.009
23.24000 5.732
23.26000 6.719
23.28000 8.985
23.30000 4.258
23.32000 -3.582
23.34000 -0.237
23.36000 -2.403
23.38000 -4.059
23.40000 0.339
23.42000 0.147
23.44000 -0.347
23.46000 0.773
23.48000 4.620
23.50000 4.557
23.52000 7.500
23.54000 3.677
23.56000 3.619
23.58000 9.839
23.60000 13.046
23.62000 6.546
23.64000 6.020
23.66000 4.295
23.68000 2.236
23.70000 3.349
23.72000 4.344
23.74000 -1.475
23.76000 1.851
23.78000 4.013
23.80000 -1.073
23.82000 4.965
23.84000 6.997
23.86000 2.170
23.88000 3.910
23.90000 -0.068
23.92000 1.388
23.94000 5.353
23.96000 4.013
23.98000 0.484
24.00000 3.065
24.02000 0.914
24.04000 5.525
24.06000 9.729
24.08000 5.282
24.10000 7.423
24.12000 5.067
24.14000 9.024
24.16000 11.299
24.18000 4.957
24.20000 1.865
24.22000 4.888
24.24000 5.817
24.26000 5.896
24.28000 11.883
24.30000 8.679
24.32000 4.275
24.34000 4.186
24.36000 -3.989
24.38000 1.351
24.40000 11.181
24.42000 9.067
24.44000 6.662
24.46000 6.960
24.48000 4.429
24.50000 9.181
24.52000 8.648
24.54000 9.146
24.56000 8.954
24.58000 10.626
24.60000 9.126
24.62000 9.222
24.64000 3.323
24.66000 1.349
24.68000 -0.742
24.70000 0.878
24.72000 4.051
24.74000 9.205
24.76000 11.223
24.78000 5.425
24.80000 2.242
24.82000 6.338
24.84000 10.162
24.86000 8.730
24.88000 5.456
24.90000 3.415
24.92000 2.179
24.94000 -0.510
24.96000 5.395
24.98000 9.347
25.00000 6.899
25.02000 9.382
25.04000 7.075
25.06000 5.159
25.08000 5.321
25.10000 6.073
25.12000 3.753
25.14000 0.176
25.16000 2.821
25.18000 1.463
25.20000 0.544
25.22000 2.563
25.24000 7.789
25.26000 7.973
25.28000 -0.852
25.30000 1.973
25.32000 2.581
25.34000 -0.847
25.36000 -1.030
25.38000 -3.939
25.40000 6.386
25.42000 8.386
25.44000 12.055
25.46000 12.581
25.48000 13.187
25.50000 9.844
25.52000 5.722
25.54000 6.913
25.56000 -0.537
25.58000 4.544
25.60000 6.196
25.62000 1.984
25.64000 -1.265
25.66000 1.226
25.68000 4.559
25.70000 2.427
25.72000 4.246
25.74000 9.903
25.76000 3.409
25.78000 5.073
25.80000 6.820
25.82000 0.863
25.84000 -1.257
25.86000 -2.796
25.88000 -3.618
25.90000 -0.378
25.92000 3.721
25.94000 5.630
25.96000 7.713
25.98000 5.645
26.00000 5.245
26.02000 1.895
26.04000 4.625
26.06000 9.868
26.08000 5.477
26.10000 0.451
26.12000 -1.351
26.14000 2.041
26.16000 1.403
26.18000 4.058
26.20000 1.990
26.22000 1.978
26.24000 3.805
26.26000 0.614
26.28000 3.502
26.30000 6.268
26.32000 10.026
26.34000 6.084
26.36000 5.038
26.38000 1.740
26.40000 2.292
26.42000 -0.049
26.44000 -3.896
26.46000 -0.693
26.48000 3.891
26.50000 1.069
26.52000 1.048
26.54000 4.504
26.56000 1.366
26.58000 1.961
26.60000 0.137
26.62000 2.163
26.64000 7.609
26.66000 8.857
26.68000 3.920
26.70000 1.302
26.72000 7.006
26.74000 3.538
26.76000 -0.691
26.78000 -0.607
26.80000 3.541
26.82000 5.027
26.84000 3.588
26.86000 5.596
26.88000 8.856
26.90000 7.696
26.92000 3.880
26.94000 4.636
26.96000 1.716
26.98000 1.628
27.00000 7.691
27.02000 11.283
27.04000 3.804
27.06000 1.208
27.08000 3.401
27.10000 6.077
27.12000 1.977
27.14000 2.981
27.16000 2.033
27.18000 2.864
27.20000 9.384
27.22000 2.774
27.24000 0.390
27.26000 7.346
27.28000 5.875
27.30000 8.035
27.32000 6.376
27.34000 2.168
27.36000 0.564
27.38000 -3.547
27.40000 -1.862
27.42000 -1.612
27.44000 -2.643
27.46000 2.532
27.48000 0.645
27.50000 -0.257
27.52000 -2.367
27.54000 1.006
27.56000 0.378
27.58000 5.703
27.60000 2.781
27.62000 2.402
27.64000 4.311
27.66000 1.503
27.68000 1.674
27.70000 8.256
27.72000 4.678
27.74000 5.800
27.76000 6.930
27.78000 0.014
27.80000 0.032
27.82000 4.578
27.84000 1.795
27.86000 5.569
27.88000 5.156
27.90000 0.807
27.92000 2.251
27.94000 1.868
27.96000 2.452
27.98000 4.754
28.00000 3.656
28.02000 6.561
28.04000 4.685
28.06000 4.767
28.08000 2.432
28.10000 -3.796
28.12000 1.347
28.14000 8.979
28.16000 8.107
28.18000 6.159
28.20000 5.105
28.22000 7.788
28.24000 4.888
28.26000 3.094
28.28000 4.670
28.30000 5.615
28.32000 -0.816
28.34000 -3.446
28.36000 0.727
28.38000 5.359
28.40000 4.516
28.42000 -3.782
28.44000 3.950
28.46000 7.316
28.48000 9.045
28.50000 5.044
28.52000 1.759
28.54000 2.065
28.56000 -0.095
28.58000 2.311
28.60000 -0.548
28.62000 3.269
28.64000 5.143
28.66000 3.971
28.68000 -2.779
28.70000 3.917
28.72000 4.394
28.74000 8.142
28.76000 2.104
28.78000 1.568
28.80000 3.099
28.82000 4.327
28.84000 2.678
28.86000 -1.587
28.88000 1.735
28.90000 -2.355
28.92000 -2.408
28.94000 0.743
28.96000 0.132
28.98000 -0.905
29.00000 0.873
29.02000 0.873
29.04000 2.295
29.06000 -0.393
29.08000 -0.182
29.10000 3.869
29.12000 5.083
29.14000 2.409
29.16000 4.423
29.18000 5.335
29.20000 -1.065
29.22000 -2.156
29.24000 2.324
29.26000 0.784
29.28000 0.939
29.30000 0.071
29.32000 1.255
29.34000 -1.273
29.36000 -1.619
29.38000 5.683
29.40000 3.051
29.42000 -3.058
29.44000 -1.467
29.46000 1.519
29.48000 4.015
29.50000 3.167
29.52000 1.265
29.54000 4.118
29.56000 5.001
29.58000 3.200
29.60000 2.113
29.62000 0.143
29.64000 2.976
29.66000 -0.478
29.68000 3.069
29.70000 -0.748
29.72000 0.423
29.74000 1.674
29.76000 -0.852
29.78000 -1.039
29.80000 2.684
29.82000 0.641
29.84000 -0.562
29.86000 -2.190
29.88000 -1.991
29.90000 0.089
29.92000 0.127
29.94000 4.775
29.96000 2.390
29.98000 3.020
30.00000 -0.607
30.02000 0.066
30.04000 3.697
30.06000 2.114
30.08000 0.752
30.10000 5.129
30.12000 0.540
30.14000 2.988
30.16000 3.010
30.18000 2.801
30.20000 1.749
30.22000 0.749
30.24000 -1.800
30.26000 3.759
30.28000 4.438
30.30000 0.256
30.32000 -3.710
30.34000 -3.184
30.36000 -3.709
30.38000 -1.858
30.40000 5.331
30.42000 6.053
30.44000 1.081
30.46000 4.977
30.48000 5.222
30.50000 3.046
30.52000 1.926
30.54000 2.266
30.56000 4.294
30.58000 0.904
30.60000 2.960
30.62000 2.229
30.64000 1.574
30.66000 1.519
30.68000 -1.070
30.70000 -1.800
30.72000 0.833
30.74000 2.532
30.76000 2.460
30.78000 0.901
30.80000 -1.766
30.82000 -1.347
30.84000 1.120
30.86000 -3.139
30.88000 -1.592
30.90000 -2.981
30.92000 3.207
30.94000 6.725
30.96000 3.475
30.98000 0.065
31.00000 0.893
31.02000 2.049
31.04000 4.129
31.06000 0.069
31.08000 -3.684
31.10000 0.018
31.12000 1.681
31.14000 5.510
31.16000 5.828
31.18000 8.611
31.20000 2.895
31.22000 -1.045
31.24000 1.350
31.26000 1.583
31.28000 2.930
31.30000 1.818
31.32000 4.280
31.34000 1.881
31.36000 6.161
31.38000 10.634
31.40000 7.345
31.42000 6.613
31.44000 4.511
31.46000 -0.675
31.48000 -0.854
31.50000 -1.027
31.52000 1.470
31.54000 0.111
31.56000 0.086
31.58000 2.967
31.60000 1.799
31.62000 1.043
31.64000 3.929
31.66000 9.480
31.68000 4.687
31.70000 5.304
31.72000 4.006
31.74000 1.335
31.76000 0.253
31.78000 1.099
31.80000 1.930
31.82000 7.407
31.84000 11.878
31.86000 7.148
31.88000 0.525
31.90000 4.984
31.92000 5.538
31.94000 0.565
31.96000 3.091
31.98000 -0.323
32.00000 3.659
32.02000 9.938
32.04000 6.720
32.06000 5.505
32.08000 3.041
32.10000 3.838
32.12000 6.883
32.14000 2.835
32.16000 2.770
32.18000 1.318
32.20000 -0.510
32.22000 3.473
32.24000 3.525
32.26000 5.378
32.28000 3.221
32.30000 2.317
32.32000 0.917
32.34000 0.998
32.36000 -0.221
32.38000 0.812
32.40000 3.525
32.42000 3.679
32.44000 -0.887
32.46000 -3.615
32.48000 3.641
32.50000 1.966
32.52000 0.889
32.54000 3.168
32.56000 7.266
32.58000 0.463
32.60000 2.930
32.62000 0.534
32.64000 -3.612
32.66000 1.183
32.68000 0.292
32.70000 1.588
32.72000 -3.020
32.74000 -2.591
32.76000 -0.279
32.78000 2.374
32.80000 -1.476
32.82000 -1.619
32.84000 0.304
32.86000 1.557
32.88000 3.341
32.90000 5.547
32.92000 4.656
32.94000 6.603
32.96000 7.043
32.98000 8.621
33.00000 1.913
33.02000 3.994
33.04000 1.805
33.06000 -1.094
33.08000 3.514
33.10000 2.855
33.12000 1.115
33.14000 1.643
33.16000 1.642
33.18000 -0.382
33.20000 -1.978
33.22000 0.820
33.24000 8.469
33.26000 3.144
33.28000 2.546
33.30000 4.275
33.32000 7.170
33.34000 1.482
33.36000 -1.330
33.38000 -0.569
33.40000 -0.931
33.42000 3.264
33.44000 8.064
33.46000 3.948
33.48000 3.733
33.50000 -3.065
33.52000 -3.612
33.54000 -0.056
33.56000 3.810
33.58000 2.075
33.60000 1.996
33.62000 4.672
33.64000 3.991
33.66000 3.581
33.68000 0.465
33.70000 -0.665
33.72000 -1.057
33.74000 -1.888
33.76000 -2.472
33.78000 -0.523
33.80000 3.230
33.82000 4.865
33.84000 5.815
33.86000 5.118
33.88000 2.801
33.90000 0.230
33.92000 2.282
33.94000 -0.738
33.96000 -3.600
33.98000 -1.544
34.00000 1.818
34.02000 3.687
34.04000 2.497
34.06000 1.823
34.08000 2.509
34.10000 -0.403
34.12000 -2.410
34.14000 1.489
34.16000 -1.117
34.18000 -2.722
34.20000 -0.057
34.22000 3.217
34.24000 2.630
34.26000 4.983
34.28000 3.896
34.30000 4.004
34.32000 2.377
34.34000 -0.021
34.36000 3.340
34.38000 5.024
34.40000 7.066
34.42000 3.032
34.44000 -1.684
34.46000 -2.729
34.48000 0.076
34.50000 -1.135
34.52000 0.720
34.54000 2.181
34.56000 3.406
34.58000 5.140
34.60000 2.199
34.62000 3.328
34.64000 0.820
34.66000 4.660
34.68000 7.484
34.70000 3.829
34.72000 2.904
34.74000 4.892
34.76000 3.607
34.78000 -0.374
34.80000 3.365
34.82000 0.432
34.84000 1.681
34.86000 2.214
34.88000 2.878
34.90000 1.690
34.92000 -1.194
34.94000 5.161
34.96000 9.247
34.98000 4.414
35.00000 3.798
35.02000 1.473
35.04000 2.154
35.06000 0.761
35.08000 -0.051
35.10000 -3.539
35.12000 -0.716
35.14000 3.049
35.16000 7.243
35.18000 6.000
35.20000 4.994
35.22000 5.120
35.24000 4.512
35.26000 -0.006
35.28000 5.365
35.30000 4.005
35.32000 -1.378
35.34000 -0.613
35.36000 1.874
35.38000 7.269
35.40000 3.851
35.42000 3.760
35.44000 5.306
35.46000 3.017
35.48000 3.132
35.50000 3.997
35.52000 6.308
35.54000 1.556
35.56000 2.449
35.58000 1.719
35.60000 0.200
35.62000 2.337
35.64000 1.546
35.66000 1.273
35.68000 4.283
35.70000 2.788
35.72000 1.987
35.74000 1.345
35.76000 -0.110
35.78000 0.723
35.80000 -3.059
35.82000 -1.566
35.84000 -1.470
35.86000 2.131
35.88000 0.904
35.90000 2.836
35.92000 5.514
35.94000 6.772
35.96000 -3.086
35.98000 -3.561
36.00000 2.190
36.02000 2.380
36.04000 0.448
36.06000 2.721
36.08000 1.276
36.10000 -0.066
36.12000 4.617
36.14000 1.449
36.16000 -3.494
36.18000 -0.658
36.20000 4.580
36.22000 3.973
36.24000 3.510
36.26000 4.645
36.28000 3.086
36.30000 0.980
36.32000 2.045
36.34000 2.399
36.36000 1.158
36.38000 1.094
36.40000 -0.577
36.42000 0.065
36.44000 -3.560
36.46000 -0.088
36.48000 0.071
36.50000 -1.478
36.52000 3.766
36.54000 5.544
36.56000 4.427
36.58000 0.192
36.60000 1.772
36.62000 3.282
36.64000 2.405
36.66000 2.948
36.68000 5.818
36.70000 3.219
36.72000 -0.481
36.74000 0.797
36.76000 2.173
36.78000 1.288
36.80000 5.601
36.82000 8.401
36.84000 7.957
36.86000 2.412
36.88000 0.524
36.90000 -0.847
36.92000 0.111
36.94000 0.725
36.96000 0.682
36.98000 1.563
37.00000 -0.416
37.02000 -3.571
37.04000 -0.644
37.06000 0.811
37.08000 2.666
37.10000 0.584
37.12000 4.357
37.14000 3.657
37.16000 1.897
37.18000 0.108
37.20000 -0.624
37.22000 1.160
37.24000 3.765
37.26000 2.290
37.28000 1.226
37.30000 2.249
37.32000 1.248
37.34000 -1.773
37.36000 -3.012
37.38000 -3.606
37.40000 -1.664
37.42000 1.802
37.44000 5.004
37.46000 4.917
37.48000 4.425
37.50000 6.250
37.52000 2.490
37.54000 1.848
37.56000 6.481
37.58000 5.607
37.60000 2.553
37.62000 0.064
37.64000 5.684
37.66000 5.936
37.68000 5.713
37.70000 6.935
37.72000 5.851
37.74000 2.968
37.76000 4.036
37.78000 4.612
37.80000 2.972
37.82000 3.203
37.84000 7.387
37.86000 9.818
37.88000 7.502
37.90000 5.586
37.92000 5.160
37.94000 7.697
37.96000 10.135
37.98000 6.364
38.00000 6.621
38.02000 6.156
38.04000 5.383
38.06000 11.264
38.08000 12.735
38.10000 10.788
38.12000 11.130
38.14000 11.707
38.16000 13.990
38.18000 13.642
38.20000 15.347
38.22000 13.719
38.24000 13.195
38.26000 11.864
38.28000 15.031
38.30000 17.913
38.32000 15.159
38.34000 16.161
38.36000 12.527
38.38000 14.163
38.40000 19.107
38.42000 16.521
38.44000 15.083
38.46000 14.106
38.48000 17.220
38.50000 17.413
38.52000 16.715
38.54000 20.424
38.56000 26.303
38.58000 22.075
38.60000 19.688
38.62000 24.996
38.64000 23.990
38.66000 27.064
38.68000 25.205
38.70000 20.595
38.72000 24.194
38.74000 28.261
38.76000 28.453
38.78000 21.618
38.80000 30.562
38.82000 32.229
38.84000 32.787
38.86000 31.611
38.88000 36.384
38.90000 34.865
38.92000 33.475
38.94000 35.735
38.96000 37.627
38.98000 40.475
39.00000 43.666
39.02000 44.907
39.04000 42.604
39.06000 42.697
39.08000 49.912
39.10000 52.783
39.12000 50.021
39.14000 54.242
39.16000 55.922
39.18000 64.830
39.20000 68.769
39.22000 66.075
39.24000 63.146
39.26000 69.439
39.28000 74.770
39.30000 76.388
39.32000 80.378
39.34000 79.049
39.36000 83.083
39.38000 85.488
39.40000 90.205
39.42000 95.576
39.44000 96.764
39.46000 100.552
39.48000 108.577
39.50000 114.149
39.52000 115.790
39.54000 126.443
39.56000 132.244
39.58000 134.610
39.60000 144.587
39.62000 151.841
39.64000 159.382
39.66000 165.076
39.68000 168.973
39.70000 175.717
39.72000 183.868
39.74000 197.571
39.76000 214.032
39.78000 220.427
39.80000 227.856
39.82000 240.460
39.84000 248.031
39.86000 252.779
39.88000 265.813
39.90000 286.206
39.92000 303.053
39.94000 320.522
39.96000 330.010
39.98000 339.012
40.00000 352.052
40.02000 368.831
40.04000 380.923
40.06000 401.286
40.08000 416.101
40.10000 431.419
40.12000 452.606
40.14000 468.927
40.16000 476.762
40.18000 484.464
40.20000 498.582
40.22000 508.567
40.24000 518.451
40.26000 534.329
40.28000 543.210
40.30000 536.999
40.32000 545.177
40.34000 559.562
40.36000 569.970
40.38000 573.071
40.40000 580.530
40.42000 583.352
40.44000 587.483
40.46000 576.917
40.48000 583.401
40.50000 572.825
40.52000 566.154
40.54000 555.968
40.56000 550.352
40.58000 533.299
40.60000 521.372
40.62000 520.989
40.64000 505.198
40.66000 486.170
40.68000 475.655
40.70000 474.055
40.72000 453.492
40.74000 437.187
40.76000 415.138
40.78000 401.988
40.80000 386.967
40.82000 375.427
40.84000 357.734
40.86000 343.451
40.88000 325.277
40.90000 309.042
40.92000 296.206
40.94000 289.542
40.96000 273.798
40.98000 262.117
41.00000 251.699
41.02000 229.345
41.04000 211.613
41.06000 202.397
41.08000 203.638
41.10000 191.793
41.12000 174.709
41.14000 170.528
41.16000 170.858
41.18000 156.131
41.20000 140.813
41.22000 133.029
41.24000 128.356
41.26000 129.856
41.28000 121.187
41.30000 110.811
41.32000 112.317
41.34000 112.270
41.36000 96.623
41.38000 90.170
41.40000 83.208
41.42000 82.307
41.44000 83.742
41.46000 69.836
41.48000 64.571
41.50000 63.436
41.52000 60.499
41.54000 55.033
41.56000 52.976
41.58000 47.539
41.60000 44.799
41.62000 47.983
41.64000 46.886
41.66000 41.023
41.68000 38.244
41.70000 39.230
41.72000 37.734
41.74000 35.637
41.76000 32.461
41.78000 28.867
41.80000 26.324
41.82000 24.245
41.84000 25.061
41.86000 22.221
41.88000 21.830
41.90000 20.983
41.92000 23.840
41.94000 27.281
41.96000 23.195
41.98000 18.170
42.00000 20.509
42.02000 18.275
42.04000 14.710
42.06000 17.965
42.08000 17.801
42.10000 12.756
42.12000 12.096
42.14000 16.924
42.16000 15.321
42.18000 14.083
42.20000 10.694
42.22000 8.654
42.24000 7.871
42.26000 7.210
42.28000 3.636
42.30000 8.007
42.32000 9.913
42.34000 5.304
42.36000 4.345
42.38000 4.109
42.40000 4.643
42.42000 8.626
42.44000 9.972
42.46000 12.829
42.48000 6.571
42.50000 4.694
42.52000 6.046
42.54000 8.942
42.56000 8.586
42.58000 7.993
42.60000 7.027
42.62000 6.089
42.64000 -0.174
42.66000 3.840
42.68000 3.081
42.70000 -0.378
42.72000 5.607
42.74000 4.344
42.76000 -1.457
42.78000 -3.347
42.80000 1.799
42.82000 1.877
42.84000 3.040
42.86000 0.445
42.88000 -3.385
42.90000 1.957
42.92000 7.199
42.94000 5.194
42.96000 4.055
42.98000 1.568
43.00000 2.239
43.02000 0.981
43.04000 0.658
43.06000 4.999
43.08000 5.067
43.10000 9.762
43.12000 8.219
43.14000 4.918
43.16000 5.824
43.18000 3.208
43.20000 5.771
43.22000 4.061
43.24000 -0.338
43.26000 0.819
43.28000 2.413
43.30000 -0.040
43.32000 1.775
43.34000 0.095
43.36000 -3.522
43.38000 -2.357
43.40000 4.018
43.42000 1.503
43.44000 0.685
43.46000 1.120
43.48000 0.855
43.50000 -1.675
43.52000 -3.509
43.54000 0.941
43.56000 -2.410
43.58000 -2.009
43.60000 -2.000
43.62000 3.360
43.64000 1.310
43.66000 -2.232
43.68000 4.186
43.70000 1.273
43.72000 -3.500
43.74000 0.761
43.76000 -1.089
43.78000 -0.054
43.80000 1.352
43.82000 -2.380
43.84000 -0.533
43.86000 1.870
43.88000 5.999
43.90000 5.433
43.92000 6.282
43.94000 4.640
43.96000 5.119
43.98000 4.366
44.00000 -1.864
44.02000 1.657
44.04000 3.337
44.06000 5.355
44.08000 3.689
44.10000 2.228
44.12000 2.271
44.14000 3.057
44.16000 6.625
44.18000 1.601
44.20000 -0.538
44.22000 0.577
44.24000 1.435
44.26000 0.372
44.28000 -3.485
44.30000 0.997
44.32000 4.371
44.34000 0.373
44.36000 1.657
44.38000 1.419
44.40000 2.113
44.42000 4.659
44.44000 6.167
44.46000 1.914
44.48000 -3.328
44.50000 0.204
44.52000 -0.139
44.54000 -2.636
44.56000 -1.622
44.58000 -2.076
44.60000 -0.876
44.62000 2.133
44.64000 3.298
44.66000 3.004
44.68000 2.982
44.70000 2.131
44.72000 3.515
44.74000 3.710
44.76000 -0.404
44.78000 -3.475
44.80000 -2.028
44.82000 4.057
44.84000 9.084
44.86000 6.721
44.88000 3.620
44.90000 7.920
44.92000 9.386
44.94000 7.867
44.96000 4.858
44.98000 7.287
45.00000 8.987
45.02000 12.241
45.04000 6.485
45.06000 7.534
45.08000 12.416
45.10000 11.824
45.12000 6.927
45.14000 5.263
45.16000 7.892
45.18000 10.544
45.20000 4.829
45.22000 4.975
45.24000 4.716
45.26000 4.808
45.28000 6.229
45.30000 18.694
45.32000 11.336
45.34000 6.214
45.36000 4.798
45.38000 6.732
45.40000 11.986
45.42000 8.754
45.44000 10.820
45.46000 11.278
45.48000 17.711
45.50000 16.551
45.52000 13.748
45.54000 9.610
45.56000 16.004
45.58000 18.496
45.60000 17.449
45.62000 15.508
45.64000 23.570
45.66000 23.911
45.68000 15.431
45.70000 23.812
45.72000 25.598
45.74000 23.866
45.76000 27.348
45.78000 19.735
45.80000 20.900
45.82000 26.478
45.84000 25.156
45.86000 26.291
45.88000 27.491
45.90000 19.410
45.92000 21.563
45.94000 29.166
45.96000 30.094
45.98000 31.787
46.00000 33.919
46.02000 34.805
46.04000 28.805
46.06000 30.721
46.08000 33.062
46.10000 32.861
46.12000 36.942
46.14000 38.843
46.16000 40.371
46.18000 43.745
46.20000 42.480
46.22000 42.254
46.24000 43.229
46.26000 49.877
46.28000 43.495
46.30000 42.757
46.32000 44.508
46.34000 49.028
46.36000 52.870
46.38000 56.859
46.40000 58.514
46.42000 62.459
46.44000 61.207
46.46000 60.856
46.48000 60.639
46.50000 57.500
46.52000 59.285
46.54000 69.668
46.56000 70.409
46.58000 69.074
46.60000 70.250
46.62000 64.211
46.64000 72.224
46.66000 70.651
46.68000 66.489
46.70000 68.662
46.72000 67.748
46.74000 64.524
46.76000 71.601
46.78000 79.785
46.80000 74.183
46.82000 76.123
46.84000 80.102
46.86000 81.948
46.88000 82.135
46.90000 84.668
46.92000 81.031
46.94000 83.789
46.96000 84.142
46.98000 81.223
47.00000 83.671
47.02000 76.041
47.04000 77.544
47.06000 74.686
47.08000 72.590
47.10000 78.204
47.12000 77.422
47.14000 79.915
47.16000 85.345
47.18000 76.083
47.20000 73.066
47.22000 68.573
47.24000 74.654
47.26000 73.926
47.28000 69.610
47.30000 65.447
47.32000 64.480
47.34000 68.568
47.36000 71.592
47.38000 65.650
47.40000 64.057
47.42000 61.916
47.44000 62.302
47.46000 63.754
47.48000 56.951
47.50000 58.182
47.52000 55.841
47.54000 47.586
47.56000 44.846
47.58000 47.883
47.60000 42.431
47.62000 42.610
47.64000 46.564
47.66000 43.406
47.68000 40.912
47.70000 44.479
47.72000 44.482
47.74000 40.504
47.76000 38.706
47.78000 35.133
47.80000 38.038
47.82000 40.565
47.84000 38.472
47.86000 33.279
47.88000 28.907
47.90000 21.580
47.92000 23.572
47.94000 25.481
47.96000 21.797
47.98000 24.396
48.00000 23.015
48.02000 22.495
48.04000 28.428
48.06000 21.474
48.08000 15.831
48.10000 12.882
48.12000 13.405
48.14000 16.800
48.16000 16.486
48.18000 14.540
48.20000 19.675
48.22000 15.272
48.24000 6.198
48.26000 13.451
48.28000 13.013
48.30000 13.317
48.32000 14.003
48.34000 9.299
48.36000 12.049
48.38000 10.530
48.40000 9.647
48.42000 1.809
48.44000 0.825
48.46000 10.055
48.48000 9.183
48.50000 2.767
48.52000 1.107
48.54000 3.172
48.56000 0.896
48.58000 -1.181
48.60000 -2.432
48.62000 3.763
48.64000 0.264
48.66000 2.188
48.68000 0.396
48.70000 1.829
48.72000 4.529
48.74000 4.258
48.76000 4.913
48.78000 0.812
48.80000 2.094
48.82000 5.924
48.84000 5.644
48.86000 1.696
48.88000 -1.132
48.90000 -0.436
48.92000 -0.307
48.94000 4.525
48.96000 0.969
48.98000 1.824
49.00000 3.347
49.02000 3.270
49.04000 1.304
49.06000 10.681
49.08000 7.567
49.10000 -3.003
49.12000 -2.613
49.14000 3.520
49.16000 4.110
49.18000 0.240
49.20000 -1.663
49.22000 2.459
49.24000 4.321
49.26000 7.068
49.28000 3.846
49.30000 3.919
49.32000 7.784
49.34000 5.614
49.36000 -0.402
49.38000 1.196
49.40000 5.835
49.42000 5.314
49.44000 7.908
49.46000 10.684
49.48000 12.062
49.50000 7.034
49.52000 4.117
49.54000 8.310
49.56000 8.178
49.58000 2.288
49.60000 4.510
49.62000 0.823
49.64000 2.479
49.66000 8.187
49.68000 5.082
49.70000 8.604
49.72000 8.894
49.74000 9.703
49.76000 10.621
49.78000 6.099
49.80000 -2.988
49.82000 -1.081
49.84000 0.577
49.86000 5.897
49.88000 5.438
49.90000 4.806
49.92000 6.059
49.94000 6.128
49.96000 4.118
49.98000 7.013
50.00000 10.638
50.02000 6.312
50.04000 8.948
50.06000 9.622
50.08000 11.729
50.10000 8.684
50.12000 6.186
50.14000 3.198
50.16000 5.073
50.18000 3.327
50.20000 3.087
50.22000 5.451
50.24000 5.497
50.26000 9.582
50.28000 3.813
50.30000 6.985
50.32000 5.539
50.34000 4.484
50.36000 2.732
50.38000 4.486
50.40000 0.526
50.42000 4.152
50.44000 7.072
50.46000 7.678
50.48000 4.900
50.50000 3.011
50.52000 6.567
50.54000 7.326
50.56000 5.801
50.58000 7.657
50.60000 6.262
50.62000 7.950
50.64000 6.985
50.66000 6.175
50.68000 8.204
50.70000 7.850
50.72000 8.270
50.74000 7.706
50.76000 8.022
50.78000 6.811
50.80000 7.431
50.82000 8.726
50.84000 14.287
50.86000 11.478
50.88000 7.047
50.90000 2.193
50.92000 3.173
50.94000 6.897
50.96000 8.505
50.98000 9.178
51.00000 3.594
51.02000 -0.545
51.04000 3.691
51.06000 7.293
51.08000 2.902
51.10000 0.913
51.12000 -2.929
51.14000 1.372
51.16000 7.765
51.18000 8.580
51.20000 6.674
51.22000 6.999
51.24000 5.999
51.26000 3.232
51.28000 3.260
51.30000 3.189
51.32000 2.881
51.34000 8.243
51.36000 8.532
51.38000 6.554
51.40000 6.189
51.42000 7.381
51.44000 1.083
51.46000 -1.638
51.48000 1.244
51.50000 6.325
51.52000 8.387
51.54000 7.432
51.56000 5.162
51.58000 3.447
51.60000 5.876
51.62000 7.914
51.64000 5.596
51.66000 7.149
51.68000 11.163
51.70000 10.157
51.72000 8.493
51.74000 8.101
51.76000 10.844
51.78000 4.678
51.80000 9.041
51.82000 4.151
51.84000 12.716
51.86000 11.160
51.88000 10.045
51.90000 7.020
51.92000 4.740
51.94000 4.068
51.96000 5.010
51.98000 8.543
52.00000 9.161
52.02000 7.504
52.04000 6.340
52.06000 11.072
52.08000 11.538
52.10000 5.740
52.12000 6.413
52.14000 6.536
52.16000 8.432
52.18000 0.285
52.20000 -0.017
52.22000 3.407
52.24000 8.407
52.26000 10.417
52.28000 10.208
52.30000 6.235
52.32000 5.534
52.34000 9.984
52.36000 8.895
52.38000 8.218
52.40000 4.824
52.42000 0.659
52.44000 9.737
52.46000 11.522
52.48000 8.585
52.50000 1.926
52.52000 -2.847
52.54000 3.145
52.56000 7.906
52.58000 6.891
52.60000 6.483
52.62000 2.599
52.64000 9.050
52.66000 11.410
52.68000 12.699
52.70000 9.464
52.72000 6.141
52.74000 3.758
52.76000 3.300
52.78000 7.979
52.80000 5.488
52.82000 4.242
52.84000 5.366
52.86000 4.489
52.88000 6.906
52.90000 4.389
52.92000 5.050
52.94000 -0.701
52.96000 2.526
52.98000 4.520
53.00000 4.958
53.02000 7.024
53.04000 5.100
53.06000 5.598
53.08000 8.697
53.10000 8.332
53.12000 6.784
53.14000 4.268
53.16000 4.533
53.18000 2.234
53.20000 4.928
53.22000 4.069
53.24000 3.508
53.26000 0.693
53.28000 0.201
53.30000 1.869
53.32000 4.020
53.34000 2.639
53.36000 5.478
53.38000 6.300
53.40000 10.154
53.42000 5.952
53.44000 7.000
53.46000 5.027
53.48000 6.958
53.50000 5.382
53.52000 5.396
53.54000 4.367
53.56000 0.496
53.58000 2.377
53.60000 3.726
53.62000 6.347
53.64000 3.369
53.66000 3.645
53.68000 4.170
53.70000 2.158
53.72000 4.945
53.74000 4.202
53.76000 5.127
53.78000 5.673
53.80000 8.228
53.82000 2.852
53.84000 6.310
53.86000 6.788
53.88000 2.070
53.90000 4.132
53.92000 8.377
53.94000 5.952
53.96000 3.969
53.98000 2.661
54.00000 -0.640
54.02000 1.322
54.04000 4.001
54.06000 5.294
54.08000 2.512
54.10000 0.077
54.12000 7.164
54.14000 2.471
54.16000 0.057
54.18000 2.153
54.20000 3.758
54.22000 4.361
54.24000 3.122
54.26000 3.788
54.28000 7.346
54.30000 7.411
54.32000 1.039
54.34000 -2.808
54.36000 1.367
54.38000 4.480
54.40000 5.033
54.42000 7.661
54.44000 10.683
54.46000 6.404
54.48000 5.007
54.50000 7.636
54.52000 5.040
54.54000 6.932
54.56000 6.318
54.58000 4.229
54.60000 4.411
54.62000 1.713
54.64000 2.802
54.66000 5.348
54.68000 -1.983
54.70000 0.820
54.72000 7.092
54.74000 6.778
54.76000 7.583
54.78000 5.145
54.80000 2.496
54.82000 -2.551
54.84000 3.551
54.86000 5.577
54.88000 3.742
54.90000 6.167
54.92000 3.377
54.94000 -0.106
54.96000 3.771
54.98000 5.842
55.00000 3.540
55.02000 -0.502
55.04000 -1.513
55.06000 -0.061
55.08000 2.507
55.10000 1.445
55.12000 -0.031
55.14000 0.237
55.16000 -1.413
55.18000 3.618
55.20000 4.075
55.22000 6.049
55.24000 3.241
55.26000 7.127
55.28000 1.519
55.30000 -2.262
55.32000 3.659
55.34000 1.741
55.36000 1.252
55.38000 5.673
55.40000 5.060
55.42000 3.544
55.44000 5.064
55.46000 2.616
55.48000 2.146
55.50000 4.597
55.52000 0.011
55.54000 3.985
55.56000 2.311
55.58000 -2.812
55.60000 -2.200
55.62000 2.112
55.64000 3.910
55.66000 3.390
55.68000 5.758
55.70000 4.493
55.72000 4.085
55.74000 3.514
55.76000 6.375
55.78000 3.854
55.80000 4.503
55.82000 0.041
55.84000 3.693
55.86000 5.380
55.88000 7.118
55.90000 4.445
55.92000 3.777
55.94000 2.726
55.96000 5.875
55.98000 8.521
56.00000 6.112
56.02000 5.182
56.04000 4.239
56.06000 5.798
56.08000 6.935
56.10000 4.819
56.12000 1.616
56.14000 4.370
56.16000 8.112
56.18000 5.061
56.20000 0.182
56.22000 2.088
56.24000 4.490
56.26000 6.548
56.28000 5.940
56.30000 4.238
56.32000 4.052
56.34000 2.594
56.36000 -0.936
56.38000 -2.781
56.40000 0.382
56.42000 1.754
56.44000 2.486
56.46000 6.446
56.48000 5.319
56.50000 2.635
56.52000 6.246
56.54000 5.885
56.56000 5.072
56.58000 4.170
56.60000 8.029
56.62000 6.449
56.64000 2.195
56.66000 3.191
56.68000 2.830
56.70000 1.502
56.72000 4.499
56.74000 1.269
56.76000 3.535
56.78000 1.580
56.80000 -1.423
56.82000 -0.085
56.84000 -0.813
56.86000 2.856
56.88000 7.626
56.90000 8.021
56.92000 5.371
56.94000 3.433
56.96000 3.221
56.98000 4.825
57.00000 1.075
57.02000 4.602
57.04000 8.343
57.06000 8.420
57.08000 6.278
57.10000 9.702
57.12000 3.709
57.14000 4.399
57.16000 7.715
57.18000 -0.313
57.20000 -0.327
57.22000 5.122
57.24000 5.373
57.26000 6.561
57.28000 4.046
57.30000 3.609
57.32000 2.230
57.34000 1.677
57.36000 0.546
57.38000 4.115
57.40000 6.237
57.42000 4.518
57.44000 2.974
57.46000 -2.762
57.48000 2.873
57.50000 5.410
57.52000 8.471
57.54000 7.709
57.56000 3.362
57.58000 10.397
57.60000 7.078
57.62000 0.545
57.64000 2.274
57.66000 4.851
57.68000 2.412
57.70000 7.323
57.72000 10.413
57.74000 5.144
57.76000 1.100
57.78000 4.428
57.80000 2.240
57.82000 -0.053
57.84000 0.613
57.86000 4.164
57.88000 3.932
57.90000 5.674
57.92000 3.443
57.94000 -2.447
57.96000 1.254
57.98000 2.508
58.00000 2.555
58.02000 4.087
58.04000 -0.275
58.06000 3.100
58.08000 7.492
58.10000 3.874
58.12000 1.844
58.14000 -2.740
58.16000 4.989
58.18000 3.421
58.20000 3.443
58.22000 5.432
58.24000 5.335
58.26000 -0.796
58.28000 -0.598
58.30000 0.961
58.32000 3.533
58.34000 5.573
58.36000 6.321
58.38000 5.105
58.40000 8.489
58.42000 6.458
58.44000 5.174
58.46000 2.349
58.48000 4.943
58.50000 0.953
58.52000 -1.725
58.54000 1.731
58.56000 0.067
58.58000 -2.710
58.60000 -2.457
58.62000 1.803
58.64000 2.054
58.66000 5.037
58.68000 2.784
58.70000 5.371
58.72000 5.590
58.74000 3.136
58.76000 4.110
58.78000 5.519
58.80000 6.076
58.82000 6.385
58.84000 6.301
58.86000 2.126
58.88000 1.276
58.90000 3.379
58.92000 4.175
58.94000 1.717
58.96000 3.367
58.98000 1.412
59.00000 5.849
59.02000 7.549
59.04000 3.480
59.06000 5.538
59.08000 5.195
59.10000 2.342
59.12000 3.881
59.14000 8.877
59.16000 6.971
59.18000 5.435
59.20000 2.279
59.22000 0.201
59.24000 -0.649
59.26000 -0.012
59.28000 3.487
59.30000 4.884
59.32000 3.593
59.34000 3.170
59.36000 3.113
59.38000 -2.657
59.40000 4.044
59.42000 8.118
59.44000 8.119
59.46000 3.130
59.48000 3.972
59.50000 5.988
59.52000 1.426
59.54000 0.729
59.56000 5.211
59.58000 4.076
59.60000 7.760
59.62000 8.014
59.64000 4.295
59.66000 3.785
59.68000 3.210
59.70000 5.018
59.72000 4.714
59.74000 9.123
59.76000 6.980
59.78000 2.066
59.80000 1.381
59.82000 1.776
59.84000 1.153
59.86000 5.505
59.88000 4.896
59.90000 -2.673
59.92000 -2.215
59.94000 3.640
59.96000 6.096
59.98000 2.458
60.00000 6.094
60.02000 6.019
60.04000 -1.706
60.06000 -0.011
60.08000 2.804
60.10000 2.311
60.12000 -0.056
60.14000 1.838
60.16000 3.214
60.18000 6.555
60.20000 6.379
60.22000 6.103
60.24000 5.185
60.26000 0.598
60.28000 -0.057
60.30000 2.203
60.32000 3.353
60.34000 1.241
60.36000 1.604
60.38000 1.744
60.40000 1.509
60.42000 1.320
60.44000 0.676
60.46000 -0.058
60.48000 0.833
60.50000 0.012
60.52000 1.879
60.54000 5.106
60.56000 1.752
60.58000 3.132
60.60000 4.539
60.62000 0.451
60.64000 1.499
60.66000 3.152
60.68000 2.369
60.70000 -1.238
60.72000 0.642
60.74000 5.051
60.76000 2.974
60.78000 2.138
60.80000 3.093
60.82000 0.560
60.84000 4.530
60.86000 -0.397
60.88000 -1.457
60.90000 2.129
60.92000 2.731
60.94000 4.189
60.96000 2.296
60.98000 1.139
61.00000 5.881
61.02000 4.791
61.04000 2.211
61.06000 6.946
61.08000 4.358
61.10000 5.291
61.12000 -1.011
61.14000 0.816
61.16000 -0.891
61.18000 -0.366
61.20000 -2.527
61.22000 1.082
61.24000 5.082
61.26000 3.535
61.28000 3.302
61.30000 2.133
61.32000 -0.742
61.34000 6.542
61.36000 7.053
61.38000 -0.687
61.40000 2.435
61.42000 6.504
61.44000 2.350
61.46000 3.201
61.48000 0.097
61.50000 2.201
61.52000 4.363
61.54000 5.420
61.56000 7.497
61.58000 6.267
61.60000 5.305
61.62000 5.012
61.64000 6.078
61.66000 5.256
61.68000 1.652
61.70000 0.970
61.72000 5.176
61.74000 2.823
61.76000 1.345
61.78000 -2.597
61.80000 1.618
61.82000 -0.243
61.84000 -2.022
61.86000 4.473
61.88000 5.506
61.90000 7.707
61.92000 8.037
61.94000 8.293
61.96000 6.068
61.98000 7.082
62.00000 6.883
62.02000 0.776
62.04000 -0.895
62.06000 -1.093
62.08000 -0.800
62.10000 2.275
62.12000 2.765
62.14000 4.207
62.16000 7.760
62.18000 8.411
62.20000 5.094
62.22000 2.305
62.24000 4.279
62.26000 8.229
62.28000 10.615
62.30000 10.174
62.32000 2.343
62.34000 4.425
62.36000 5.353
62.38000 1.781
62.40000 -2.560
62.42000 -0.545
62.44000 1.907
62.46000 5.371
62.48000 5.967
62.50000 9.115
62.52000 12.514
62.54000 9.267
62.56000 7.927
62.58000 9.336
62.60000 12.574
62.62000 8.649
62.64000 3.419
62.66000 4.737
62.68000 8.750
62.70000 6.824
62.72000 5.402
62.74000 2.249
62.76000 0.652
62.78000 3.176
62.80000 3.960
62.82000 4.620
62.84000 4.560
62.86000 3.790
62.88000 3.603
62.90000 7.330
62.92000 4.616
62.94000 6.922
62.96000 5.276
62.98000 0.512
63.00000 -1.484
63.02000 -0.788
63.04000 0.053
63.06000 1.925
63.08000 2.029
63.10000 5.009
63.12000 2.909
63.14000 2.656
63.16000 3.865
63.18000 0.196
63.20000 -0.840
63.22000 -1.450
63.24000 0.302
63.26000 1.367
63.28000 6.701
63.30000 6.254
63.32000 0.981
63.34000 2.442
63.36000 1.858
63.38000 1.852
63.40000 2.324
63.42000 5.554
63.44000 4.317
63.46000 4.903
63.48000 3.205
63.50000 1.693
63.52000 0.289
63.54000 -1.076
63.56000 0.163
63.58000 4.145
63.60000 3.092
63.62000 4.930
63.64000 0.947
63.66000 1.819
63.68000 1.700
63.70000 1.161
63.72000 3.618
63.74000 2.876
63.76000 0.968
63.78000 3.071
63.80000 1.982
63.82000 -0.336
63.84000 2.678
63.86000 3.971
63.88000 5.229
63.90000 3.075
63.92000 2.750
63.94000 5.394
63.96000 5.334
63.98000 2.344
64.00000 5.161
64.02000 5.523
64.04000 3.876
64.06000 3.262
64.08000 0.477
64.10000 -2.591
64.12000 1.571
64.14000 4.162
64.16000 4.758
64.18000 1.881
64.20000 4.325
64.22000 7.420
64.24000 5.863
64.26000 -0.702
64.28000 2.987
64.30000 2.463
64.32000 -0.486
64.34000 0.400
64.36000 2.576
64.38000 4.091
64.40000 4.044
64.42000 1.196
64.44000 3.874
64.46000 4.321
64.48000 4.974
64.50000 5.999
64.52000 2.595
64.54000 4.544
64.56000 5.964
64.58000 4.518
64.60000 2.238
64.62000 2.747
64.64000 -2.588
64.66000 -1.391
64.68000 0.403
64.70000 5.533
64.72000 9.002
64.74000 6.563
64.76000 3.955
64.78000 0.932
64.80000 2.461
64.82000 2.295
64.84000 4.454
64.86000 6.412
64.88000 3.174
64.90000 4.449
64.92000 3.142
64.94000 0.727
64.96000 1.547
64.98000 1.943
65.00000 -0.425
65.02000 -2.458
65.04000 1.646
65.06000 -0.847
65.08000 -2.362
65.10000 1.116
65.12000 6.093
65.14000 5.628
65.16000 2.329
65.18000 2.088
65.20000 0.496
65.22000 -1.531
65.24000 0.276
65.26000 6.016
65.28000 4.573
65.30000 -2.220
65.32000 -1.818
65.34000 -1.380
65.36000 -2.510
65.38000 -2.631
65.40000 1.715
65.42000 0.949
65.44000 0.294
65.46000 3.902
65.48000 1.039
65.50000 -0.524
65.52000 -0.422
65.54000 1.849
65.56000 6.514
65.58000 3.440
65.60000 2.423
65.62000 0.266
65.64000 -2.219
65.66000 1.204
65.68000 1.134
65.70000 1.641
65.72000 -0.200
65.74000 1.502
65.76000 3.813
65.78000 3.252
65.80000 3.881
65.82000 0.691
65.84000 -2.648
65.86000 -2.015
65.88000 -0.340
65.90000 2.127
65.92000 1.321
65.94000 2.031
65.96000 2.890
65.98000 3.449
66.00000 -0.351
66.02000 3.052
66.04000 0.261
66.06000 4.198
66.08000 4.182
66.10000 2.201
66.12000 3.355
66.14000 2.684
66.16000 5.390
66.18000 4.938
66.20000 3.235
66.22000 0.428
66.24000 -1.652
66.26000 -1.548
66.28000 -0.018
66.30000 -0.524
66.32000 -0.941
66.34000 1.263
66.36000 -0.639
66.38000 -2.659
66.40000 -2.116
66.42000 -0.717
66.44000 5.782
66.46000 0.526
66.48000 -1.708
66.50000 5.519
66.52000 6.536
66.54000 9.211
66.56000 6.623
66.58000 6.365
66.60000 3.914
66.62000 2.047
66.64000 2.173
66.66000 0.630
66.68000 0.486
66.70000 -2.679
66.72000 -1.969
66.74000 2.667
66.76000 1.156
66.78000 0.432
66.80000 2.015
66.82000 0.966
66.84000 2.175
66.86000 2.743
66.88000 1.095
66.90000 2.882
66.92000 3.345
66.94000 3.762
66.96000 0.551
66.98000 2.369
67.00000 3.129
67.02000 4.037
67.04000 3.505
67.06000 2.441
67.08000 3.063
67.10000 1.331
67.12000 -2.148
67.14000 3.311
67.16000 4.846
67.18000 6.989
67.20000 5.562
67.22000 3.183
67.24000 2.777
67.26000 8.650
67.28000 3.921
67.30000 4.711
67.32000 6.695
67.34000 5.121
67.36000 4.227
67.38000 3.028
67.40000 8.995
67.42000 9.330
67.44000 6.049
67.46000 3.419
67.48000 4.245
67.50000 7.823
67.52000 7.867
67.54000 8.651
67.56000 6.714
67.58000 10.118
67.60000 7.028
67.62000 9.512
67.64000 10.268
67.66000 9.456
67.68000 9.410
67.70000 8.459
67.72000 10.120
67.74000 12.010
67.76000 11.854
67.78000 10.027
67.80000 12.751
67.82000 13.369
67.84000 15.330
67.86000 14.267
67.88000 15.361
67.90000 16.089
67.92000 18.102
67.94000 16.629
67.96000 15.072
67.98000 14.600
68.00000 10.771
68.02000 14.509
68.04000 16.512
68.06000 16.927
68.08000 14.291
68.10000 16.968
68.12000 15.882
68.14000 17.354
68.16000 16.713
68.18000 14.513
68.20000 19.583
68.22000 21.728
68.24000 24.188
68.26000 25.407
68.28000 21.490
68.30000 18.019
68.32000 20.266
68.34000 23.166
68.36000 27.954
68.38000 27.199
68.40000 25.098
68.42000 22.713
68.44000 25.776
68.46000 24.225
68.48000 21.598
68.50000 22.310
68.52000 23.123
68.54000 23.784
68.56000 25.168
68.58000 22.901
68.60000 24.205
68.62000 27.251
68.64000 24.868
68.66000 24.650
68.68000 25.913
68.70000 28.556
68.72000 25.901
68.74000 23.015
68.76000 22.917
68.78000 25.436
68.80000 25.519
68.82000 19.558
68.84000 22.527
68.86000 25.897
68.88000 27.206
68.90000 23.280
68.92000 26.388
68.94000 27.357
68.96000 23.120
68.98000 22.855
69.00000 22.658
69.02000 20.070
69.04000 19.297
69.06000 22.564
69.08000 22.850
69.10000 22.933
69.12000 26.327
69.14000 23.033
69.16000 17.287
69.18000 16.828
69.20000 20.962
69.22000 20.152
69.24000 20.617
69.26000 19.015
69.28000 14.938
69.30000 18.215
69.32000 16.823
69.34000 17.937
69.36000 13.519
69.38000 8.837
69.40000 11.416
69.42000 13.568
69.44000 11.395
69.46000 8.440
69.48000 10.084
69.50000 9.481
69.52000 7.037
69.54000 8.212
69.56000 9.041
69.58000 7.259
69.60000 11.364
69.62000 12.726
69.64000 8.883
69.66000 5.436
69.68000 4.236
69.70000 3.617
69.72000 3.893
69.74000 7.701
69.76000 6.909
69.78000 5.556
69.80000 5.277
69.82000 8.669
69.84000 9.087
69.86000 7.724
69.88000 5.902
69.90000 -0.737
69.92000 0.904
69.94000 5.799
69.96000 4.421
69.98000 6.941
70.00000 8.566
70.02000 4.309
70.04000 4.290
70.06000 5.000
70.08000 2.188
70.10000 2.601
70.12000 0.785
70.14000 -0.367
70.16000 2.860
70.18000 3.786
70.20000 -0.411
70.22000 3.099
70.24000 3.534
70.26000 3.510
70.28000 1.061
70.30000 3.896
70.32000 8.400
70.34000 3.875
70.36000 2.992
70.38000 1.077
70.40000 4.097
70.42000 4.252
70.44000 3.387
70.46000 -2.561
70.48000 -0.876
70.50000 5.359
70.52000 3.252
70.54000 0.523
70.56000 2.518
70.58000 3.118
70.60000 2.174
70.62000 4.598
70.64000 6.178
70.66000 4.901
70.68000 1.593
70.70000 5.328
70.72000 7.582
70.74000 5.119
70.76000 0.384
70.78000 6.065
70.80000 7.753
70.82000 8.069
70.84000 8.733
70.86000 3.957
70.88000 0.120
70.90000 1.774
70.92000 -0.844
70.94000 -2.492
70.96000 -0.489
70.98000 8.447
71.00000 5.357
71.02000 8.058
71.04000 5.023
71.06000 3.727
71.08000 5.923
71.10000 0.318
71.12000 3.193
71.14000 5.468
71.16000 4.536
71.18000 1.439
71.20000 3.592
71.22000 3.186
71.24000 2.192
71.26000 6.740
71.28000 3.312
71.30000 4.099
71.32000 7.645
71.34000 6.081
71.36000 5.864
71.38000 3.013
71.40000 3.202
71.42000 4.611
71.44000 1.730
71.46000 0.391
71.48000 4.236
71.50000 6.063
71.52000 1.492
71.54000 -2.491
71.56000 -0.228
71.58000 3.567
71.60000 -2.169
71.62000 0.967
71.64000 6.195
71.66000 2.637
71.68000 1.607
71.70000 4.456
71.72000 4.229
71.74000 3.718
71.76000 0.933
71.78000 0.406
71.80000 6.097
71.82000 10.391
71.84000 8.683
71.86000 2.746
71.88000 0.585
71.90000 0.388
71.92000 1.745
71.94000 5.703
71.96000 3.035
71.98000 -1.324
72.00000 1.585
72.02000 0.069
72.04000 2.654
72.06000 3.321
72.08000 2.528
72.10000 4.948
72.12000 2.159
72.14000 6.947
72.16000 10.393
72.18000 8.461
72.20000 5.215
72.22000 7.861
72.24000 6.954
72.26000 3.702
72.28000 2.103
72.30000 1.289
72.32000 -0.883
72.34000 0.001
72.36000 1.178
72.38000 1.121
72.40000 2.106
72.42000 5.426
72.44000 6.064
72.46000 7.006
72.48000 3.083
72.50000 0.210
72.52000 -0.415
72.54000 6.794
72.56000 7.402
72.58000 5.726
72.60000 8.691
72.62000 6.135
72.64000 1.435
72.66000 -1.723
72.68000 0.727
72.70000 5.570
72.72000 -2.417
72.74000 2.186
72.76000 3.515
72.78000 0.664
72.80000 0.636
72.82000 1.203
72.84000 6.740
72.86000 8.576
72.88000 5.454
72.90000 2.185
72.92000 5.411
72.94000 4.233
72.96000 2.620
72.98000 1.255
73.00000 2.656
73.02000 4.100
73.04000 3.444
73.06000 5.572
73.08000 7.359
73.10000 1.550
73.12000 3.885
73.14000 4.488
73.16000 5.178
73.18000 4.429
73.20000 5.102
73.22000 4.702
73.24000 8.027
73.26000 7.698
73.28000 1.949
73.30000 1.227
73.32000 -0.377
73.34000 -2.290
73.36000 0.478
73.38000 3.610
73.40000 4.693
73.42000 4.388
73.44000 5.251
73.46000 8.213
73.48000 7.712
73.50000 4.431
73.52000 2.682
73.54000 1.748
73.56000 1.431
73.58000 0.546
73.60000 -0.461
73.62000 1.122
73.64000 4.686
73.66000 0.698
73.68000 2.674
73.70000 2.196
73.72000 4.876
73.74000 8.700
73.76000 6.223
73.78000 0.806
73.80000 3.114
73.82000 4.177
73.84000 4.070
73.86000 5.741
73.88000 9.072
73.90000 11.513
73.92000 4.804
73.94000 2.340
73.96000 0.785
73.98000 -2.400
74.00000 1.312
74.02000 2.531
74.04000 0.930
74.06000 5.030
74.08000 9.638
74.10000 17.377
74.12000 7.757
74.14000 5.663
74.16000 5.618
74.18000 -2.390
74.20000 0.262
74.22000 -2.112
74.24000 1.713
74.26000 3.421
74.28000 1.565
74.30000 6.407
74.32000 4.773
74.34000 6.023
74.36000 7.644
74.38000 7.647
74.40000 2.291
74.42000 2.447
74.44000 3.662
74.46000 5.230
74.48000 8.181
74.50000 6.728
74.52000 -1.546
74.54000 -0.012
74.56000 3.182
74.58000 1.011
74.60000 0.611
74.62000 2.418
74.64000 3.264
74.66000 5.555
74.68000 8.754
74.70000 6.717
74.72000 4.187
74.74000 4.782
74.76000 2.714
74.78000 2.546
74.80000 3.879
74.82000 4.035
74.84000 7.090
74.86000 5.421
74.88000 5.206
74.90000 0.258
74.92000 3.703
74.94000 4.564
74.96000 5.134
74.98000 6.835
75.00000 5.103
75.02000 4.060
75.04000 5.818
75.06000 6.486
75.08000 2.304
75.10000 -0.090
75.12000 0.148
75.14000 1.308
75.16000 1.842
75.18000 5.753
75.20000 1.752
75.22000 -0.585
75.24000 5.067
75.26000 7.773
75.28000 8.020
75.30000 7.597
75.32000 6.943
75.34000 5.433
75.36000 3.395
75.38000 2.228
75.40000 0.282
75.42000 -2.047
75.44000 2.859
75.46000 3.337
75.48000 4.533
75.50000 4.248
75.52000 -2.402
75.54000 3.689
75.56000 5.397
75.58000 9.989
75.60000 8.702
75.62000 4.155
75.64000 3.777
75.66000 3.851
75.68000 5.317
75.70000 5.648
75.72000 3.037
75.74000 3.419
75.76000 0.900
75.78000 1.928
75.80000 -0.665
75.82000 0.808
75.84000 5.911
75.86000 1.560
75.88000 2.280
75.90000 6.723
75.92000 3.741
75.94000 -0.997
75.96000 0.616
75.98000 1.258
76.00000 0.895
76.02000 2.787
76.04000 2.484
76.06000 6.220
76.08000 1.759
76.10000 -0.714
76.12000 -1.841
76.14000 -0.336
76.16000 2.792
76.18000 3.268
76.20000 2.957
76.22000 2.992
76.24000 5.146
76.26000 5.076
76.28000 2.835
76.30000 0.722
76.32000 0.591
76.34000 -0.832
76.36000 -1.547
76.38000 -1.281
76.40000 -2.039
76.42000 1.585
76.44000 5.592
76.46000 7.091
76.48000 0.436
76.50000 1.708
76.52000 6.971
76.54000 2.672
76.56000 2.796
76.58000 5.435
76.60000 3.198
76.62000 4.661
76.64000 4.813
76.66000 -0.406
76.68000 -2.135
76.70000 -2.469
76.72000 0.263
76.74000 0.412
76.76000 2.831
76.78000 3.605
76.80000 2.593
76.82000 -0.738
76.84000 1.069
76.86000 -0.545
76.88000 -1.237
76.90000 -1.206
76.92000 -0.865
76.94000 -2.155
76.96000 0.930
76.98000 7.141
77.00000 7.080
77.02000 1.304
77.04000 -1.908
77.06000 1.507
77.08000 -1.764
77.10000 1.500
77.12000 1.546
77.14000 4.378
77.16000 3.679
77.18000 2.970
77.20000 5.048
77.22000 4.579
77.24000 -1.949
77.26000 -1.769
77.28000 -2.320
77.30000 3.021
77.32000 3.829
77.34000 -2.468
77.36000 -0.299
77.38000 3.127
77.40000 7.232
77.42000 5.411
77.44000 0.092
77.46000 -2.468
77.48000 2.126
77.50000 1.275
77.52000 4.451
77.54000 -0.228
77.56000 3.522
77.58000 5.210
77.60000 0.792
77.62000 -0.639
77.64000 1.966
77.66000 6.487
77.68000 7.825
77.70000 6.149
77.72000 0.335
77.74000 0.914
77.76000 2.052
77.78000 6.058
77.80000 7.348
77.82000 4.580
77.84000 1.809
77.86000 2.080
77.88000 1.985
77.90000 4.754
77.92000 3.117
77.94000 2.168
77.96000 3.292
77.98000 5.230
78.00000 5.084
78.02000 3.438
78.04000 -0.863
78.06000 -1.454
78.08000 -0.400
78.10000 4.873
78.12000 4.082
78.14000 -1.618
78.16000 2.326
78.18000 4.715
78.20000 -0.259
78.22000 7.468
78.24000 8.796
78.26000 4.067
78.28000 6.578
78.30000 8.172
78.32000 3.556
78.34000 4.497
78.36000 0.307
78.38000 4.226
78.40000 4.247
78.42000 3.472
78.44000 -0.839
78.46000 -1.049
78.48000 -0.619
78.50000 -0.161
78.52000 5.123
78.54000 6.316
78.56000 4.277
78.58000 0.523
78.60000 3.927
78.62000 7.417
78.64000 6.430
78.66000 2.128
78.68000 1.883
78.70000 -2.473
78.72000 -2.242
78.74000 0.549
78.76000 1.134
78.78000 0.252
78.80000 2.584
78.82000 1.682
78.84000 2.194
78.86000 2.350
78.88000 3.843
78.90000 5.479
78.92000 3.997
78.94000 3.800
78.96000 10.487
78.98000 10.689
79.00000 5.654
79.02000 0.314
79.04000 1.055
79.06000 3.518
79.08000 1.671
79.10000 -2.463
79.12000 -2.463
79.14000 -1.829
79.16000 6.985
79.18000 5.997
79.20000 5.084
79.22000 5.716
79.24000 5.502
79.26000 6.317
79.28000 3.272
79.30000 2.319
79.32000 4.538
79.34000 4.722
79.36000 6.439
79.38000 3.941
79.40000 1.274
79.42000 1.837
79.44000 4.759
79.46000 6.241
79.48000 3.283
79.50000 5.347
79.52000 6.496
79.54000 2.107
79.56000 0.094
79.58000 4.221
79.60000 8.919
79.62000 4.934
79.64000 0.165
79.66000 -2.466
79.68000 -0.220
79.70000 3.551
79.72000 2.854
79.74000 6.270
79.76000 1.835
79.78000 0.428
79.80000 1.475
79.82000 6.327
79.84000 8.302
79.86000 3.247
79.88000 6.296
79.90000 7.081
79.92000 7.170
79.94000 9.761
79.96000 4.968
79.98000 8.353
80.00000 7.860
80.02000 4.866
80.04000 4.269
80.06000 7.443
80.08000 5.894
80.10000 4.477
80.12000 3.658
80.14000 6.852
80.16000 13.834
80.18000 5.419
80.20000 -2.505
80.22000 2.606
80.24000 1.509
80.26000 6.255
80.28000 11.470
80.30000 6.337
80.32000 2.842
80.34000 2.780
80.36000 3.280
80.38000 7.705
80.40000 4.076
80.42000 3.082
80.44000 4.097
80.46000 -0.252
80.48000 -0.649
80.50000 2.401
80.52000 6.748
80.54000 5.783
80.56000 3.606
80.58000 5.635
80.60000 3.640
80.62000 4.412
80.64000 3.071
80.66000 -2.546
80.68000 4.860
80.70000 5.451
80.72000 9.894
80.74000 2.422
80.76000 4.841
80.78000 9.978
80.80000 8.587
80.82000 5.204
80.84000 5.146
80.86000 8.074
80.88000 5.036
80.90000 4.572
80.92000 3.629
80.94000 11.394
80.96000 10.933
80.98000 11.078
81.00000 8.741
81.02000 2.345
81.04000 8.412
81.06000 4.027
81.08000 5.107
81.10000 5.088
81.12000 2.288
81.14000 8.923
81.16000 8.586
81.18000 9.370
81.20000 9.060
81.22000 10.702
81.24000 8.888
81.26000 7.732
81.28000 6.722
81.30000 5.937
81.32000 9.795
81.34000 6.116
81.36000 8.798
81.38000 10.523
81.40000 7.209
81.42000 6.210
81.44000 8.220
81.46000 9.887
81.48000 9.944
81.50000 10.327
81.52000 10.314
81.54000 11.002
81.56000 8.741
81.58000 7.266
81.60000 6.234
81.62000 12.311
81.64000 12.555
81.66000 9.565
81.68000 11.412
81.70000 8.669
81.72000 7.452
81.74000 6.496
81.76000 7.552
81.78000 9.002
81.80000 12.864
81.82000 17.175
81.84000 14.318
81.86000 14.685
81.88000 12.083
81.90000 13.928
81.92000 15.746
81.94000 15.972
81.96000 18.739
81.98000 14.812
82.00000 17.173
82.02000 11.453
82.04000 20.296
82.06000 21.248
82.08000 15.245
82.10000 14.405
82.12000 16.580
82.14000 14.743
82.16000 14.016
82.18000 17.933
82.20000 18.602
82.22000 16.359
82.24000 18.861
82.26000 23.295
82.28000 24.453
82.30000 20.979
82.32000 22.824
82.34000 21.644
82.36000 21.968
82.38000 23.921
82.40000 23.165
82.42000 25.185
82.44000 23.731
82.46000 24.304
82.48000 25.007
82.50000 21.204
82.52000 21.404
82.54000 22.925
82.56000 20.695
82.58000 19.415
82.60000 20.494
82.62000 23.784
82.64000 22.449
82.66000 19.296
82.68000 21.213
82.70000 23.540
82.72000 26.946
82.74000 25.537
82.76000 20.188
82.78000 25.372
82.80000 25.905
82.82000 20.864
82.84000 22.173
82.86000 30.020
82.88000 29.484
82.90000 26.939
82.92000 24.770
82.94000 24.843
82.96000 29.759
82.98000 28.666
83.00000 25.544
83.02000 20.386
83.04000 20.996
83.06000 21.916
83.08000 26.836
83.10000 25.057
83.12000 20.497
83.14000 24.676
83.16000 21.569
83.18000 20.360
83.20000 22.640
83.22000 27.368
83.24000 26.171
83.26000 23.794
83.28000 28.707
83.30000 21.872
83.32000 16.599
83.34000 16.481
83.36000 24.583
83.38000 25.849
83.40000 21.872
83.42000 17.062
83.44000 17.609
83.46000 21.182
83.48000 20.779
83.50000 20.572
83.52000 20.220
83.54000 22.861
83.56000 18.520
83.58000 15.670
83.60000 19.441
83.62000 21.228
83.64000 19.899
83.66000 18.147
83.68000 20.338
83.70000 16.450
83.72000 8.367
83.74000 10.872
83.76000 12.018
83.78000 10.815
83.80000 8.132
83.82000 8.415
83.84000 8.900
83.86000 9.623
83.88000 6.973
83.90000 10.739
83.92000 8.983
83.94000 12.830
83.96000 14.594
83.98000 13.572
84.00000 10.699
84.02000 5.167
84.04000 8.207
84.06000 6.639
84.08000 10.565
84.10000 12.703
84.12000 13.811
84.14000 10.739
84.16000 10.002
84.18000 11.624
84.20000 9.396
84.22000 10.107
84.24000 11.619
84.26000 9.700
84.28000 4.565
84.30000 4.518
84.32000 2.945
84.34000 6.817
84.36000 7.969
84.38000 3.326
84.40000 7.839
84.42000 10.319
84.44000 5.664
84.46000 0.596
84.48000 2.693
84.50000 5.938
84.52000 5.953
84.54000 9.913
84.56000 8.372
84.58000 5.989
84.60000 5.984
84.62000 1.162
84.64000 -1.450
84.66000 3.393
84.68000 4.712
84.70000 2.305
84.72000 6.185
84.74000 10.154
84.76000 3.228
84.78000 3.886
84.80000 7.490
84.82000 6.308
84.84000 3.734
84.86000 1.631
84.88000 2.829
84.90000 3.129
84.92000 2.852
84.94000 -2.019
84.96000 -1.614
84.98000 0.894
85.00000 -0.920
85.02000 -1.330
85.04000 -2.520
85.06000 -0.637
85.08000 3.312
85.10000 9.692
85.12000 7.342
85.14000 2.123
85.16000 2.894
85.18000 6.396
85.20000 1.759
85.22000 -2.531
85.24000 2.113
85.26000 5.217
85.28000 2.478
85.30000 -0.762
85.32000 -0.613
85.34000 3.658
85.36000 6.136
85.38000 -1.249
85.40000 -1.199
85.42000 3.179
85.44000 0.199
85.46000 3.073
85.48000 3.291
85.50000 5.360
85.52000 2.712
85.54000 -1.471
85.56000 -1.799
85.58000 -1.988
85.60000 -2.549
85.62000 0.719
85.64000 0.698
85.66000 2.808
85.68000 4.488
85.70000 7.527
85.72000 7.259
85.74000 2.383
85.76000 -1.471
85.78000 -1.716
85.80000 0.287
85.82000 5.097
85.84000 1.691
85.86000 3.415
85.88000 -2.561
85.90000 -1.685
85.92000 -0.513
85.94000 0.997
85.96000 -1.403
85.98000 2.325
86.00000 6.205
86.02000 3.555
86.04000 4.847
86.06000 1.163
86.08000 -0.279
86.10000 3.540
86.12000 4.197
86.14000 2.885
86.16000 6.462
86.18000 0.737
86.20000 1.234
86.22000 2.443
86.24000 6.448
86.26000 8.168
86.28000 4.093
86.30000 1.364
86.32000 0.961
86.34000 0.532
86.36000 -0.857
86.38000 -2.574
86.40000 3.806
86.42000 5.414
86.44000 9.595
86.46000 9.139
86.48000 3.475
86.50000 3.065
86.52000 4.847
86.54000 8.902
86.56000 8.402
86.58000 8.914
86.60000 9.461
86.62000 5.924
86.64000 4.728
86.66000 0.900
86.68000 6.168
86.70000 9.968
86.72000 10.666
86.74000 8.734
86.76000 12.017
86.78000 13.950
86.80000 13.510
86.82000 12.837
86.84000 15.309
86.86000 17.136
86.88000 13.578
86.90000 16.632
86.92000 10.559
86.94000 13.216
86.96000 15.214
86.98000 20.012
87.00000 17.727
87.02000 18.597
87.04000 16.753
87.06000 17.822
87.08000 18.750
87.10000 20.827
87.12000 21.090
87.14000 12.270
87.16000 15.469
87.18000 22.050
87.20000 22.300
87.22000 21.143
87.24000 20.970
87.26000 19.982
87.28000 27.590
87.30000 25.300
87.32000 20.538
87.34000 13.720
87.36000 13.626
87.38000 16.466
87.40000 16.778
87.42000 16.760
87.44000 23.408
87.46000 23.850
87.48000 24.733
87.50000 17.959
87.52000 18.511
87.54000 21.275
87.56000 18.086
87.58000 18.905
87.60000 21.655
87.62000 18.607
87.64000 14.017
87.66000 15.614
87.68000 16.234
87.70000 21.547
87.72000 19.104
87.74000 15.527
87.76000 15.068
87.78000 17.159
87.80000 16.855
87.82000 19.389
87.84000 13.027
87.86000 16.779
87.88000 21.646
87.90000 22.109
87.92000 12.813
87.94000 10.615
87.96000 6.325
87.98000 9.821
88.00000 14.161
88.02000 12.165
88.04000 11.751
88.06000 10.919
88.08000 13.570
88.10000 10.879
88.12000 11.621
88.14000 13.364
88.16000 18.153
88.18000 9.635
88.20000 2.003
88.22000 6.053
88.24000 3.335
88.26000 2.865
88.28000 8.573
88.30000 9.987
88.32000 12.428
88.34000 9.575
88.36000 12.906
88.38000 10.692
88.40000 9.275
88.42000 6.048
88.44000 2.476
88.46000 5.008
88.48000 9.443
88.50000 7.932
88.52000 9.884
88.54000 1.777
88.56000 5.394
88.58000 9.991
88.60000 7.914
88.62000 5.094
88.64000 7.583
88.66000 3.977
88.68000 0.677
88.70000 -2.461
88.72000 3.798
88.74000 4.238
88.76000 5.137
88.78000 9.480
88.80000 6.928
88.82000 0.078
88.84000 3.974
88.86000 2.596
88.88000 2.231
88.90000 -0.529
88.92000 -0.003
88.94000 2.133
88.96000 -0.533
88.98000 0.655
89.00000 2.282
89.02000 5.840
89.04000 2.170
89.06000 5.446
89.08000 6.606
89.10000 0.890
89.12000 4.028
89.14000 6.739
89.16000 3.778
89.18000 2.017
89.20000 2.079
89.22000 2.142
89.24000 1.259
89.26000 0.516
89.28000 2.260
89.30000 5.825
89.32000 3.422
89.34000 -0.978
89.36000 1.111
89.38000 2.131
89.40000 -1.094
89.42000 1.930
89.44000 4.094
89.46000 -1.014
89.48000 -2.378
89.50000 0.084
89.52000 -1.863
89.54000 -2.371
89.56000 6.004
89.58000 8.128
89.60000 -1.462
89.62000 3.042
89.64000 -1.914
89.66000 -0.265
89.68000 4.276
89.70000 6.694
89.72000 4.556
89.74000 0.858
89.76000 -0.110
89.78000 2.230
89.80000 4.765
89.82000 3.067
89.84000 -1.158
89.86000 6.297
89.88000 2.252
89.90000 1.120
89.92000 -1.245
89.94000 4.912
89.96000 6.439
89.98000 0.186
90.00000 -2.337
90.02000 1.734
90.04000 4.488
90.06000 7.112
90.08000 11.094
90.10000 1.013
90.12000 5.200
90.14000 5.009
90.16000 7.440
90.18000 2.770
90.20000 2.345
90.22000 4.340
90.24000 7.289
90.26000 6.757
90.28000 2.813
90.30000 4.004
90.32000 2.346
90.34000 2.422
90.36000 -0.445
90.38000 3.937
90.40000 9.723
90.42000 3.453
90.44000 1.834
90.46000 2.379
90.48000 4.093
90.50000 1.759
90.52000 5.318
90.54000 7.402
90.56000 6.740
90.58000 8.586
90.60000 6.336
90.62000 4.813
90.64000 -2.270
90.66000 3.434
90.68000 5.098
90.70000 5.199
90.72000 2.336
90.74000 1.467
90.76000 5.233
90.78000 7.412
90.80000 5.306
90.82000 1.989
90.84000 4.034
90.86000 5.240
90.88000 6.862
90.90000 10.376
90.92000 11.880
90.94000 9.576
90.96000 5.889
90.98000 5.230
91.00000 2.137
91.02000 0.078
91.04000 0.382
91.06000 4.873
91.08000 -1.840
91.10000 1.882
91.12000 1.624
91.14000 2.363
91.16000 2.979
91.18000 2.322
91.20000 5.172
91.22000 4.429
91.24000 3.023
91.26000 2.161
91.28000 1.631
91.30000 4.981
91.32000 5.843
91.34000 4.915
91.36000 7.660
91.38000 9.894
91.40000 6.955
91.42000 1.043
91.44000 1.888
91.46000 4.421
91.48000 5.966
91.50000 7.240
91.52000 6.158
91.54000 4.635
91.56000 4.741
91.58000 8.201
91.60000 2.736
91.62000 3.262
91.64000 1.442
91.66000 0.607
91.68000 1.805
91.70000 6.585
91.72000 0.041
91.74000 1.747
91.76000 5.742
91.78000 3.484
91.80000 1.683
91.82000 4.528
91.84000 7.517
91.86000 0.629
91.88000 -2.275
91.90000 0.094
91.92000 8.416
91.94000 9.044
91.96000 4.023
91.98000 4.039
92.00000 7.820
92.02000 9.541
92.04000 4.137
92.06000 2.736
92.08000 -2.051
92.10000 3.680
92.12000 3.606
92.14000 6.015
92.16000 11.484
92.18000 8.889
92.20000 10.233
92.22000 8.860
92.24000 0.785
92.26000 3.198
92.28000 5.255
92.30000 6.400
92.32000 8.645
92.34000 10.696
92.36000 8.205
92.38000 2.659
92.40000 0.318
92.42000 -2.258
92.44000 1.478
92.46000 -0.864
92.48000 2.762
92.50000 5.655
92.52000 7.052
92.54000 3.884
92.56000 7.826
92.58000 2.461
92.60000 1.850
92.62000 3.890
92.64000 5.003
92.66000 7.132
92.68000 5.944
92.70000 8.014
92.72000 2.834
92.74000 4.431
92.76000 2.307
92.78000 5.311
92.80000 2.797
92.82000 0.963
92.84000 3.952
92.86000 3.506
92.88000 -1.279
92.90000 1.924
92.92000 9.768
92.94000 5.026
92.96000 7.565
92.98000 5.522
93.00000 3.320
93.02000 2.547
93.04000 -1.993
93.06000 0.900
93.08000 5.555
93.10000 5.219
93.12000 3.283
93.14000 2.726
93.16000 1.050
93.18000 1.892
93.20000 4.694
93.22000 6.563
93.24000 5.613
93.26000 4.982
93.28000 3.525
93.30000 1.313
93.32000 2.347
93.34000 1.305
93.36000 5.211
93.38000 10.061
93.40000 6.484
93.42000 0.578
93.44000 4.339
93.46000 2.399
93.48000 7.747
93.50000 5.196
93.52000 5.856
93.54000 8.160
93.56000 7.850
93.58000 4.079
93.60000 2.899
93.62000 2.631
93.64000 2.471
93.66000 1.785
93.68000 4.603
93.70000 7.053
93.72000 9.349
93.74000 7.402
93.76000 6.569
93.78000 7.565
93.80000 4.544
93.82000 10.368
93.84000 14.382
93.86000 11.580
93.88000 2.384
93.90000 -1.159
93.92000 1.950
93.94000 6.652
93.96000 2.659
93.98000 8.082
94.00000 2.620
94.02000 3.325
94.04000 9.514
94.06000 5.795
94.08000 0.945
94.10000 2.992
94.12000 4.176
94.14000 1.468
94.16000 -0.329
94.18000 0.153
94.20000 3.282
94.22000 6.030
94.24000 5.264
94.26000 4.548
94.28000 7.165
94.30000 13.063
94.32000 9.027
94.34000 5.969
94.36000 9.691
94.38000 6.968
94.40000 6.159
94.42000 3.588
94.44000 5.949
94.46000 9.418
94.48000 8.533
94.50000 6.032
94.52000 7.684
94.54000 6.023
94.56000 8.953
94.58000 7.407
94.60000 3.141
94.62000 -0.343
94.64000 4.881
94.66000 7.156
94.68000 4.024
94.70000 1.308
94.72000 -2.256
94.74000 3.598
94.76000 6.198
94.78000 3.407
94.80000 2.787
94.82000 5.132
94.84000 2.542
94.86000 3.656
94.88000 7.664
94.90000 6.787
94.92000 4.574
94.94000 5.799
94.96000 6.755
94.98000 7.374
95.00000 6.703
95.02000 9.773
95.04000 5.863
95.06000 10.090
95.08000 7.615
95.10000 4.389
95.12000 5.023
95.14000 8.196
95.16000 8.764
95.18000 2.797
95.20000 5.563
95.22000 5.836
95.24000 3.930
95.26000 3.638
95.28000 3.811
95.30000 8.698
95.32000 10.468
95.34000 8.743
95.36000 7.069
95.38000 5.368
95.40000 10.646
95.42000 8.882
95.44000 4.975
95.46000 8.709
95.48000 7.360
95.50000 3.980
95.52000 5.169
95.54000 3.566
95.56000 5.260
95.58000 1.938
95.60000 1.092
95.62000 1.724
95.64000 -0.553
95.66000 1.778
95.68000 5.607
95.70000 7.027
95.72000 3.152
95.74000 7.200
95.76000 4.523
95.78000 0.603
95.80000 -1.074
95.82000 0.276
95.84000 0.354
95.86000 1.495
95.88000 3.076
95.90000 3.789
95.92000 2.043
95.94000 7.074
95.96000 6.819
95.98000 12.267
96.00000 17.368
96.02000 6.772
96.04000 10.564
96.06000 9.388
96.08000 1.503
96.10000 0.787
96.12000 3.155
96.14000 3.632
96.16000 -2.314
96.18000 0.863
96.20000 5.424
96.22000 3.753
96.24000 3.382
96.26000 -0.283
96.28000 1.846
96.30000 6.346
96.32000 0.950
96.34000 1.174
96.36000 6.515
96.38000 4.657
96.40000 5.589
96.42000 4.461
96.44000 7.198
96.46000 5.063
96.48000 10.634
96.50000 4.415
96.52000 -0.304
96.54000 6.416
96.56000 7.847
96.58000 1.053
96.60000 2.825
96.62000 7.260
96.64000 10.437
96.66000 3.152
96.68000 0.352
96.70000 9.436
96.72000 5.985
96.74000 1.884
96.76000 1.288
96.78000 0.323
96.80000 3.501
96.82000 3.838
96.84000 3.816
96.86000 0.320
96.88000 2.956
96.90000 7.542
96.92000 6.584
96.94000 5.634
96.96000 1.623
96.98000 -0.456
97.00000 0.034
97.02000 -2.306
97.04000 -0.173
97.06000 4.831
97.08000 -0.810
97.10000 -0.171
97.12000 5.902
97.14000 7.128
97.16000 4.544
97.18000 0.325
97.20000 1.791
97.22000 13.040
97.24000 3.580
97.26000 3.676
97.28000 7.268
97.30000 1.249
97.32000 4.695
97.34000 -1.743
97.36000 3.619
97.38000 5.892
97.40000 8.343
97.42000 5.115
97.44000 4.773
97.46000 1.005
97.48000 5.307
97.50000 4.939
97.52000 3.418
97.54000 3.884
97.56000 11.803
97.58000 4.791
97.60000 7.332
97.62000 9.411
97.64000 13.071
97.66000 7.990
97.68000 6.720
97.70000 4.562
97.72000 -0.692
97.74000 4.306
97.76000 5.815
97.78000 -0.485
97.80000 4.720
97.82000 6.592
97.84000 6.691
97.86000 8.859
97.88000 9.249
97.90000 7.931
97.92000 0.517
97.94000 -2.096
97.96000 4.796
97.98000 6.724
98.00000 7.871
98.02000 13.363
98.04000 10.457
98.06000 4.464
98.08000 2.531
98.10000 2.886
98.12000 1.591
98.14000 -2.232
98.16000 6.770
98.18000 14.374
98.20000 5.764
98.22000 2.855
98.24000 -1.387
98.26000 -2.223
98.28000 4.354
98.30000 3.445
98.32000 9.675
98.34000 13.221
98.36000 9.778
98.38000 6.258
98.40000 0.876
98.42000 2.645
98.44000 8.454
98.46000 9.496
98.48000 8.674
98.50000 6.321
98.52000 16.192
98.54000 7.723
98.56000 -1.855
98.58000 9.335
98.60000 9.166
98.62000 10.155
98.64000 12.820
98.66000 9.026
98.68000 10.810
98.70000 10.064
98.72000 7.254
98.74000 0.528
98.76000 6.281
98.78000 6.665
98.80000 14.645
98.82000 11.561
98.84000 10.392
98.86000 7.774
98.88000 5.982
98.90000 10.664
98.92000 9.003
98.94000 5.813
98.96000 5.118
98.98000 8.228
99.00000 13.029
99.02000 16.479
99.04000 15.699
99.06000 4.468
99.08000 -2.203
99.10000 -1.262
99.12000 6.657
99.14000 9.474
99.16000 8.414
99.18000 12.082
99.20000 16.149
99.22000 6.458
99.24000 9.799
99.26000 9.659
99.28000 0.143
99.30000 1.471
99.32000 12.439
99.34000 18.307
99.36000 12.614
99.38000 1.582
99.40000 1.831
99.42000 8.555
99.44000 10.485
99.46000 5.375
99.48000 7.327
99.50000 6.547
99.52000 6.665
99.54000 9.847
99.56000 -2.030
99.58000 2.181
99.60000 4.388
99.62000 3.713
99.64000 8.808
99.66000 5.815
99.68000 1.425
99.70000 -2.253
99.72000 7.041
99.74000 3.656
99.76000 13.773
99.78000 4.698
99.80000 1.466
99.82000 -0.784
99.84000 -2.381
99.86000 -1.943
99.88000 -2.430
99.90000 -2.462
99.92000 -1.157
99.94000 3.838
99.96000 0.951
99.98000 0.000
