'Id: "0011388" Comment: "Integrate frame 0011388_Au-Ir-Rh_Rh-rich_XRD-Mapping-210-0000.gfrmwith cursor Wedge Cursor #5" Operator: "B?rgel" Anode: "Cu" Wavelength: "1.5406" Scantype: "2Theta (TwoTheta)" TimePerStep: "1" X: "4.5" Y: "9" Z: "5.95" 
10.00000 0.000
10.02000 3.402
10.04000 8.564
10.06000 6.219
10.08000 5.837
10.10000 4.051
10.12000 2.757
10.14000 6.669
10.16000 -4.076
10.18000 1.952
10.20000 -4.063
10.22000 8.155
10.24000 3.363
10.26000 1.355
10.28000 13.049
10.30000 15.764
10.32000 19.741
10.34000 16.964
10.36000 5.989
10.38000 4.117
10.40000 10.417
10.42000 9.255
10.44000 12.429
10.46000 22.544
10.48000 9.963
10.50000 8.251
10.52000 8.219
10.54000 4.214
10.56000 11.753
10.58000 13.873
10.60000 10.015
10.62000 23.721
10.64000 3.558
10.66000 2.861
10.68000 2.567
10.70000 2.472
10.72000 0.948
10.74000 8.705
10.76000 12.223
10.78000 25.476
10.80000 30.007
10.82000 19.798
10.84000 12.124
10.86000 8.652
10.88000 10.492
10.90000 17.558
10.92000 21.441
10.94000 21.463
10.96000 14.369
10.98000 4.714
11.00000 11.281
11.02000 9.170
11.04000 16.103
11.06000 17.429
11.08000 16.668
11.10000 17.378
11.12000 12.462
11.14000 5.353
11.16000 13.053
11.18000 11.785
11.20000 20.768
11.22000 27.424
11.24000 24.683
11.26000 14.895
11.28000 11.663
11.30000 5.311
11.32000 -4.212
11.34000 1.978
11.36000 11.393
11.38000 14.113
11.40000 7.080
11.42000 20.893
11.44000 18.048
11.46000 26.069
11.48000 15.260
11.50000 16.543
11.52000 21.098
11.54000 24.820
11.56000 21.567
11.58000 15.425
11.60000 22.473
11.62000 23.159
11.64000 19.210
11.66000 19.203
11.68000 6.428
11.70000 11.664
11.72000 15.999
11.74000 15.342
11.76000 18.830
11.78000 14.454
11.80000 11.282
11.82000 12.531
11.84000 22.832
11.86000 21.213
11.88000 3.704
11.90000 19.373
11.92000 26.592
11.94000 19.830
11.96000 15.626
11.98000 12.956
12.00000 14.931
12.02000 7.861
12.04000 6.966
12.06000 13.169
12.08000 14.186
12.10000 15.274
12.12000 15.941
12.14000 15.200
12.16000 14.049
12.18000 19.353
12.20000 19.629
12.22000 10.160
12.24000 16.342
12.26000 28.642
12.28000 28.515
12.30000 20.129
12.32000 25.939
12.34000 16.623
12.36000 19.805
12.38000 10.613
12.40000 23.036
12.42000 17.887
12.44000 16.778
12.46000 17.341
12.48000 22.740
12.50000 13.486
12.52000 13.205
12.54000 9.823
12.56000 11.304
12.58000 26.862
12.60000 29.305
12.62000 12.595
12.64000 15.272
12.66000 19.513
12.68000 15.679
12.70000 18.966
12.72000 13.168
12.74000 11.896
12.76000 13.033
12.78000 13.215
12.80000 22.247
12.82000 19.294
12.84000 21.636
12.86000 20.457
12.88000 18.622
12.90000 18.204
12.92000 12.731
12.94000 12.084
12.96000 10.386
12.98000 8.748
13.00000 19.271
13.02000 22.426
13.04000 14.328
13.06000 11.926
13.08000 9.307
13.10000 14.470
13.12000 16.903
13.14000 19.576
13.16000 28.707
13.18000 30.657
13.20000 16.820
13.22000 15.223
13.24000 23.633
13.26000 17.653
13.28000 13.363
13.30000 12.755
13.32000 11.414
13.34000 11.662
13.36000 13.898
13.38000 5.372
13.40000 16.249
13.42000 17.949
13.44000 24.187
13.46000 13.666
13.48000 11.107
13.50000 3.724
13.52000 0.800
13.54000 13.135
13.56000 19.639
13.58000 7.921
13.60000 2.407
13.62000 6.791
13.64000 10.597
13.66000 15.157
13.68000 17.169
13.70000 12.213
13.72000 15.326
13.74000 18.175
13.76000 16.028
13.78000 25.669
13.80000 28.629
13.82000 13.752
13.84000 19.024
13.86000 12.099
13.88000 9.148
13.90000 4.720
13.92000 10.226
13.94000 20.041
13.96000 17.159
13.98000 17.344
14.00000 18.210
14.02000 12.490
14.04000 14.553
14.06000 15.069
14.08000 14.673
14.10000 9.474
14.12000 16.026
14.14000 10.997
14.16000 10.721
14.18000 3.643
14.20000 3.968
14.22000 9.359
14.24000 5.754
14.26000 12.987
14.28000 9.185
14.30000 7.636
14.32000 11.649
14.34000 6.787
14.36000 4.974
14.38000 5.802
14.40000 8.617
14.42000 12.341
14.44000 10.819
14.46000 7.228
14.48000 9.057
14.50000 10.710
14.52000 4.797
14.54000 5.141
14.56000 -1.324
14.58000 -4.441
14.60000 14.524
14.62000 10.480
14.64000 16.057
14.66000 21.553
14.68000 23.020
14.70000 18.950
14.72000 12.394
14.74000 6.513
14.76000 11.569
14.78000 10.838
14.80000 13.873
14.82000 13.533
14.84000 6.409
14.86000 -0.489
14.88000 6.788
14.90000 17.320
14.92000 21.127
14.94000 21.790
14.96000 9.189
14.98000 14.658
15.00000 15.829
15.02000 15.565
15.04000 6.566
15.06000 3.340
15.08000 6.630
15.10000 -1.814
15.12000 5.078
15.14000 3.289
15.16000 4.297
15.18000 2.665
15.20000 2.067
15.22000 2.388
15.24000 -2.263
15.26000 2.081
15.28000 4.799
15.30000 7.278
15.32000 9.393
15.34000 2.482
15.36000 4.408
15.38000 6.155
15.40000 0.145
15.42000 6.372
15.44000 14.704
15.46000 13.871
15.48000 17.316
15.50000 9.887
15.52000 3.782
15.54000 4.567
15.56000 6.461
15.58000 9.478
15.60000 3.985
15.62000 2.172
15.64000 0.916
15.66000 6.476
15.68000 8.510
15.70000 0.683
15.72000 4.993
15.74000 10.033
15.76000 8.825
15.78000 3.759
15.80000 6.017
15.82000 11.048
15.84000 8.749
15.86000 4.708
15.88000 2.600
15.90000 4.322
15.92000 6.767
15.94000 -2.026
15.96000 5.004
15.98000 2.691
16.00000 2.053
16.02000 9.820
16.04000 11.350
16.06000 8.525
16.08000 4.638
16.10000 7.868
16.12000 8.893
16.14000 9.148
16.16000 12.333
16.18000 12.181
16.20000 9.947
16.22000 1.456
16.24000 1.222
16.26000 -2.085
16.28000 -1.487
16.30000 -2.109
16.32000 2.861
16.34000 5.721
16.36000 5.751
16.38000 6.683
16.40000 9.874
16.42000 6.256
16.44000 9.229
16.46000 12.582
16.48000 9.824
16.50000 6.778
16.52000 4.202
16.54000 8.749
16.56000 10.165
16.58000 11.434
16.60000 2.252
16.62000 1.242
16.64000 2.991
16.66000 2.024
16.68000 3.574
16.70000 12.555
16.72000 10.380
16.74000 -1.996
16.76000 -4.417
16.78000 -0.188
16.80000 7.739
16.82000 7.277
16.84000 10.681
16.86000 10.390
16.88000 6.871
16.90000 4.504
16.92000 -1.509
16.94000 -0.952
16.96000 4.772
16.98000 11.939
17.00000 15.370
17.02000 14.799
17.04000 2.658
17.06000 4.543
17.08000 13.956
17.10000 9.923
17.12000 7.626
17.14000 7.463
17.16000 8.306
17.18000 3.155
17.20000 8.230
17.22000 6.858
17.24000 2.738
17.26000 6.263
17.28000 0.591
17.30000 0.133
17.32000 -3.262
17.34000 1.921
17.36000 5.493
17.38000 6.269
17.40000 8.624
17.42000 11.291
17.44000 2.670
17.46000 1.569
17.48000 7.714
17.50000 8.568
17.52000 4.373
17.54000 9.729
17.56000 8.264
17.58000 8.591
17.60000 1.309
17.62000 1.669
17.64000 7.602
17.66000 5.279
17.68000 2.478
17.70000 1.417
17.72000 -0.009
17.74000 -2.081
17.76000 0.385
17.78000 4.282
17.80000 3.449
17.82000 1.520
17.84000 0.858
17.86000 4.972
17.88000 1.126
17.90000 2.390
17.92000 11.402
17.94000 9.824
17.96000 4.630
17.98000 5.428
18.00000 5.089
18.02000 0.393
18.04000 -2.257
18.06000 3.719
18.08000 3.360
18.10000 10.541
18.12000 5.515
18.14000 12.087
18.16000 17.374
18.18000 8.798
18.20000 10.305
18.22000 10.791
18.24000 4.087
18.26000 1.995
18.28000 5.606
18.30000 1.535
18.32000 -0.726
18.34000 1.887
18.36000 1.930
18.38000 5.279
18.40000 6.027
18.42000 0.753
18.44000 -3.990
18.46000 -3.791
18.48000 -0.234
18.50000 1.401
18.52000 2.537
18.54000 2.984
18.56000 4.198
18.58000 5.190
18.60000 5.079
18.62000 4.144
18.64000 2.073
18.66000 -0.109
18.68000 5.709
18.70000 6.195
18.72000 5.912
18.74000 7.391
18.76000 5.794
18.78000 7.920
18.80000 6.875
18.82000 4.009
18.84000 1.319
18.86000 -4.282
18.88000 -1.940
18.90000 0.317
18.92000 2.937
18.94000 6.630
18.96000 6.749
18.98000 6.469
19.00000 4.372
19.02000 8.948
19.04000 8.099
19.06000 5.535
19.08000 2.358
19.10000 4.448
19.12000 7.787
19.14000 4.844
19.16000 11.392
19.18000 7.431
19.20000 6.784
19.22000 6.165
19.24000 8.578
19.26000 7.095
19.28000 2.640
19.30000 9.297
19.32000 9.778
19.34000 9.562
19.36000 -0.029
19.38000 -4.248
19.40000 0.110
19.42000 2.637
19.44000 0.352
19.46000 -1.389
19.48000 0.861
19.50000 4.553
19.52000 7.543
19.54000 6.624
19.56000 2.833
19.58000 3.912
19.60000 0.767
19.62000 9.419
19.64000 9.673
19.66000 -0.227
19.68000 -3.133
19.70000 1.398
19.72000 4.135
19.74000 6.745
19.76000 11.282
19.78000 6.290
19.80000 -1.843
19.82000 -1.660
19.84000 7.054
19.86000 8.913
19.88000 10.028
19.90000 2.295
19.92000 4.833
19.94000 3.581
19.96000 0.301
19.98000 3.469
20.00000 5.345
20.02000 2.528
20.04000 -1.602
20.06000 0.374
20.08000 4.235
20.10000 4.640
20.12000 0.367
20.14000 1.919
20.16000 1.740
20.18000 3.356
20.20000 4.510
20.22000 4.573
20.24000 -1.513
20.26000 4.078
20.28000 5.433
20.30000 8.514
20.32000 8.797
20.34000 8.925
20.36000 4.837
20.38000 1.587
20.40000 10.814
20.42000 7.384
20.44000 5.949
20.46000 2.871
20.48000 -4.215
20.50000 4.056
20.52000 7.717
20.54000 1.737
20.56000 3.049
20.58000 3.211
20.60000 6.286
20.62000 5.726
20.64000 6.075
20.66000 11.225
20.68000 12.059
20.70000 4.388
20.72000 6.818
20.74000 11.281
20.76000 10.986
20.78000 6.408
20.80000 8.962
20.82000 6.481
20.84000 1.412
20.86000 1.392
20.88000 1.677
20.90000 4.466
20.92000 8.592
20.94000 8.668
20.96000 6.430
20.98000 7.740
21.00000 0.793
21.02000 5.218
21.04000 11.717
21.06000 5.626
21.08000 5.702
21.10000 6.824
21.12000 7.722
21.14000 6.325
21.16000 -1.180
21.18000 3.200
21.20000 -2.602
21.22000 -3.138
21.24000 2.944
21.26000 -1.669
21.28000 -1.102
21.30000 4.698
21.32000 5.189
21.34000 4.709
21.36000 4.406
21.38000 5.189
21.40000 4.461
21.42000 0.974
21.44000 -1.315
21.46000 1.339
21.48000 0.226
21.50000 0.858
21.52000 3.607
21.54000 0.941
21.56000 0.390
21.58000 1.677
21.60000 2.403
21.62000 3.550
21.64000 4.302
21.66000 0.935
21.68000 -0.276
21.70000 -2.146
21.72000 1.792
21.74000 4.538
21.76000 6.382
21.78000 10.277
21.80000 6.281
21.82000 7.713
21.84000 7.884
21.86000 4.003
21.88000 3.024
21.90000 1.644
21.92000 8.297
21.94000 0.020
21.96000 1.177
21.98000 9.471
22.00000 3.474
22.02000 1.945
22.04000 7.218
22.06000 6.757
22.08000 3.641
22.10000 1.871
22.12000 8.461
22.14000 11.853
22.16000 7.204
22.18000 5.242
22.20000 2.682
22.22000 -0.977
22.24000 0.664
22.26000 3.913
22.28000 4.148
22.30000 6.278
22.32000 8.859
22.34000 2.809
22.36000 -3.063
22.38000 0.118
22.40000 8.243
22.42000 3.011
22.44000 1.022
22.46000 -0.924
22.48000 0.230
22.50000 5.913
22.52000 9.288
22.54000 4.870
22.56000 2.790
22.58000 0.725
22.60000 0.876
22.62000 3.227
22.64000 5.853
22.66000 5.444
22.68000 6.104
22.70000 3.364
22.72000 5.727
22.74000 5.744
22.76000 2.344
22.78000 7.485
22.80000 8.203
22.82000 6.306
22.84000 -2.607
22.86000 -4.071
22.88000 4.793
22.90000 11.152
22.92000 7.967
22.94000 -1.577
22.96000 3.669
22.98000 1.820
23.00000 2.212
23.02000 9.611
23.04000 -0.320
23.06000 -1.302
23.08000 2.783
23.10000 2.939
23.12000 -2.495
23.14000 -0.678
23.16000 0.474
23.18000 4.811
23.20000 6.777
23.22000 -0.054
23.24000 1.682
23.26000 -2.523
23.28000 -4.054
23.30000 -0.850
23.32000 -0.793
23.34000 -1.135
23.36000 -0.437
23.38000 5.566
23.40000 5.190
23.42000 -1.624
23.44000 -0.108
23.46000 2.006
23.48000 5.504
23.50000 4.938
23.52000 1.964
23.54000 0.900
23.56000 8.256
23.58000 3.298
23.60000 2.183
23.62000 6.749
23.64000 6.893
23.66000 4.682
23.68000 7.484
23.70000 9.843
23.72000 9.466
23.74000 3.179
23.76000 5.504
23.78000 9.266
23.80000 10.015
23.82000 11.056
23.84000 4.780
23.86000 3.767
23.88000 0.939
23.90000 -4.026
23.92000 -3.129
23.94000 -0.661
23.96000 3.350
23.98000 8.186
24.00000 2.797
24.02000 2.925
24.04000 6.390
24.06000 0.354
24.08000 0.909
24.10000 0.698
24.12000 1.827
24.14000 -3.923
24.16000 4.647
24.18000 9.201
24.20000 9.331
24.22000 5.165
24.24000 1.417
24.26000 3.669
24.28000 12.100
24.30000 11.200
24.32000 2.055
24.34000 0.328
24.36000 -1.049
24.38000 -1.771
24.40000 0.766
24.42000 7.573
24.44000 3.870
24.46000 0.996
24.48000 1.056
24.50000 7.582
24.52000 7.603
24.54000 7.671
24.56000 5.303
24.58000 2.499
24.60000 2.647
24.62000 8.280
24.64000 7.476
24.66000 4.351
24.68000 1.297
24.70000 1.519
24.72000 -3.633
24.74000 -3.980
24.76000 1.608
24.78000 4.478
24.80000 11.068
24.82000 7.424
24.84000 4.830
24.86000 4.447
24.88000 2.733
24.90000 2.756
24.92000 2.169
24.94000 5.169
24.96000 8.548
24.98000 3.699
25.00000 0.274
25.02000 4.482
25.04000 -0.570
25.06000 0.604
25.08000 4.529
25.10000 9.106
25.12000 5.629
25.14000 -0.460
25.16000 -0.686
25.18000 1.785
25.20000 -2.791
25.22000 0.372
25.24000 4.893
25.26000 3.699
25.28000 0.631
25.30000 0.028
25.32000 4.765
25.34000 5.432
25.36000 4.143
25.38000 0.931
25.40000 6.493
25.42000 6.093
25.44000 8.138
25.46000 6.799
25.48000 6.498
25.50000 3.503
25.52000 5.109
25.54000 1.676
25.56000 8.189
25.58000 10.553
25.60000 9.063
25.62000 4.656
25.64000 -0.910
25.66000 0.677
25.68000 4.730
25.70000 2.311
25.72000 1.776
25.74000 -3.921
25.76000 -0.145
25.78000 8.247
25.80000 8.452
25.82000 6.260
25.84000 2.207
25.86000 4.033
25.88000 9.351
25.90000 11.153
25.92000 8.374
25.94000 8.382
25.96000 3.912
25.98000 0.134
26.00000 -0.387
26.02000 -0.054
26.04000 6.384
26.06000 4.201
26.08000 6.746
26.10000 4.297
26.12000 0.074
26.14000 -0.648
26.16000 4.034
26.18000 0.102
26.20000 -1.348
26.22000 0.997
26.24000 1.534
26.26000 3.002
26.28000 5.227
26.30000 4.829
26.32000 7.752
26.34000 2.390
26.36000 2.328
26.38000 2.242
26.40000 0.325
26.42000 5.121
26.44000 4.997
26.46000 2.617
26.48000 -3.888
26.50000 4.804
26.52000 2.015
26.54000 1.145
26.56000 3.013
26.58000 3.143
26.60000 0.574
26.62000 7.041
26.64000 6.924
26.66000 6.811
26.68000 2.861
26.70000 2.218
26.72000 -1.569
26.74000 7.432
26.76000 6.897
26.78000 0.562
26.80000 -1.255
26.82000 -0.217
26.84000 4.571
26.86000 6.441
26.88000 7.103
26.90000 1.686
26.92000 -2.213
26.94000 4.716
26.96000 4.161
26.98000 3.975
27.00000 1.709
27.02000 4.301
27.04000 1.246
27.06000 3.276
27.08000 3.881
27.10000 9.406
27.12000 2.104
27.14000 -2.699
27.16000 1.210
27.18000 7.089
27.20000 5.730
27.22000 7.240
27.24000 5.317
27.26000 1.078
27.28000 1.675
27.30000 5.138
27.32000 7.275
27.34000 8.315
27.36000 5.875
27.38000 7.594
27.40000 -0.078
27.42000 -3.816
27.44000 -2.783
27.46000 -2.073
27.48000 3.489
27.50000 8.045
27.52000 9.363
27.54000 8.814
27.56000 6.426
27.58000 6.615
27.60000 4.473
27.62000 4.030
27.64000 6.754
27.66000 8.349
27.68000 6.947
27.70000 4.591
27.72000 10.124
27.74000 9.440
27.76000 5.521
27.78000 6.922
27.80000 1.919
27.82000 2.912
27.84000 2.182
27.86000 7.826
27.88000 8.394
27.90000 4.746
27.92000 3.426
27.94000 8.082
27.96000 10.179
27.98000 4.989
28.00000 4.223
28.02000 4.728
28.04000 -2.909
28.06000 3.299
28.08000 3.224
28.10000 1.416
28.12000 -1.564
28.14000 0.499
28.16000 7.246
28.18000 6.320
28.20000 7.345
28.22000 4.037
28.24000 0.063
28.26000 -1.242
28.28000 2.323
28.30000 0.795
28.32000 0.889
28.34000 3.553
28.36000 4.447
28.38000 7.563
28.40000 5.129
28.42000 6.406
28.44000 7.747
28.46000 2.711
28.48000 4.982
28.50000 5.226
28.52000 3.732
28.54000 3.557
28.56000 10.298
28.58000 12.325
28.60000 12.598
28.62000 5.783
28.64000 5.651
28.66000 3.964
28.68000 7.005
28.70000 8.340
28.72000 5.486
28.74000 1.351
28.76000 -2.165
28.78000 -0.773
28.80000 1.082
28.82000 4.670
28.84000 2.203
28.86000 -0.638
28.88000 2.967
28.90000 4.073
28.92000 3.971
28.94000 5.239
28.96000 6.501
28.98000 0.889
29.00000 2.102
29.02000 3.203
29.04000 1.845
29.06000 3.273
29.08000 1.810
29.10000 4.502
29.12000 7.277
29.14000 5.068
29.16000 7.112
29.18000 4.864
29.20000 3.948
29.22000 0.017
29.24000 4.244
29.26000 6.003
29.28000 4.929
29.30000 6.531
29.32000 8.856
29.34000 1.758
29.36000 -1.555
29.38000 0.958
29.40000 3.254
29.42000 0.043
29.44000 4.520
29.46000 4.317
29.48000 2.740
29.50000 4.724
29.52000 4.909
29.54000 4.252
29.56000 2.334
29.58000 0.765
29.60000 1.850
29.62000 -3.699
29.64000 -0.908
29.66000 6.113
29.68000 7.212
29.70000 10.681
29.72000 11.861
29.74000 9.191
29.76000 2.897
29.78000 5.519
29.80000 7.103
29.82000 9.540
29.84000 5.819
29.86000 3.063
29.88000 1.236
29.90000 2.669
29.92000 0.275
29.94000 0.598
29.96000 4.368
29.98000 3.418
30.00000 1.847
30.02000 2.304
30.04000 6.741
30.06000 8.035
30.08000 5.894
30.10000 4.698
30.12000 0.897
30.14000 1.537
30.16000 5.146
30.18000 6.582
30.20000 10.213
30.22000 4.783
30.24000 5.009
30.26000 3.838
30.28000 3.665
30.30000 4.276
30.32000 0.086
30.34000 5.387
30.36000 5.918
30.38000 2.354
30.40000 1.928
30.42000 0.945
30.44000 2.681
30.46000 10.904
30.48000 4.912
30.50000 4.273
30.52000 6.079
30.54000 3.829
30.56000 6.710
30.58000 7.395
30.60000 2.015
30.62000 4.620
30.64000 7.145
30.66000 0.829
30.68000 -2.016
30.70000 3.109
30.72000 6.339
30.74000 2.851
30.76000 3.308
30.78000 4.698
30.80000 4.021
30.82000 5.148
30.84000 3.912
30.86000 5.486
30.88000 2.855
30.90000 0.865
30.92000 3.595
30.94000 7.218
30.96000 12.013
30.98000 6.653
31.00000 5.467
31.02000 -1.003
31.04000 9.123
31.06000 8.175
31.08000 4.590
31.10000 4.233
31.12000 2.965
31.14000 6.513
31.16000 0.815
31.18000 -3.313
31.20000 0.273
31.22000 -1.457
31.24000 2.564
31.26000 0.411
31.28000 8.246
31.30000 10.424
31.32000 5.622
31.34000 -0.916
31.36000 -1.394
31.38000 -1.450
31.40000 2.880
31.42000 8.242
31.44000 8.527
31.46000 7.862
31.48000 0.303
31.50000 -3.613
31.52000 4.568
31.54000 7.167
31.56000 7.000
31.58000 5.789
31.60000 6.856
31.62000 6.272
31.64000 5.993
31.66000 4.408
31.68000 6.048
31.70000 8.064
31.72000 3.662
31.74000 -2.465
31.76000 -1.048
31.78000 2.826
31.80000 3.825
31.82000 7.486
31.84000 5.221
31.86000 2.607
31.88000 5.467
31.90000 5.103
31.92000 1.292
31.94000 -1.107
31.96000 7.387
31.98000 5.972
32.00000 6.993
32.02000 3.618
32.04000 -0.214
32.06000 0.480
32.08000 1.879
32.10000 -0.770
32.12000 0.751
32.14000 3.290
32.16000 3.953
32.18000 3.621
32.20000 -0.850
32.22000 2.826
32.24000 4.960
32.26000 3.262
32.28000 -2.888
32.30000 1.368
32.32000 5.626
32.34000 0.385
32.36000 5.562
32.38000 10.836
32.40000 10.926
32.42000 8.841
32.44000 3.805
32.46000 3.342
32.48000 2.344
32.50000 -1.602
32.52000 -2.624
32.54000 1.430
32.56000 3.464
32.58000 0.303
32.60000 1.838
32.62000 2.662
32.64000 1.112
32.66000 6.838
32.68000 5.453
32.70000 2.772
32.72000 3.465
32.74000 8.942
32.76000 5.178
32.78000 1.720
32.80000 5.227
32.82000 1.295
32.84000 -0.334
32.86000 -3.593
32.88000 -2.437
32.90000 -1.016
32.92000 1.539
32.94000 -0.834
32.96000 -3.176
32.98000 3.161
33.00000 3.192
33.02000 4.550
33.04000 3.476
33.06000 -0.390
33.08000 -1.385
33.10000 4.563
33.12000 3.900
33.14000 -2.210
33.16000 -1.931
33.18000 0.077
33.20000 -0.439
33.22000 4.475
33.24000 5.379
33.26000 4.587
33.28000 4.475
33.30000 6.541
33.32000 2.653
33.34000 -2.333
33.36000 0.759
33.38000 5.534
33.40000 2.308
33.42000 1.448
33.44000 4.304
33.46000 5.271
33.48000 4.591
33.50000 9.006
33.52000 9.876
33.54000 0.690
33.56000 2.328
33.58000 -1.126
33.60000 -2.981
33.62000 7.611
33.64000 5.328
33.66000 0.345
33.68000 -2.906
33.70000 1.527
33.72000 4.502
33.74000 5.994
33.76000 3.313
33.78000 4.864
33.80000 0.935
33.82000 -1.053
33.84000 -1.406
33.86000 2.957
33.88000 3.851
33.90000 0.207
33.92000 -2.731
33.94000 2.152
33.96000 3.801
33.98000 3.115
34.00000 0.000
34.02000 3.229
34.04000 7.081
34.06000 2.031
34.08000 -3.594
34.10000 3.004
34.12000 -0.446
34.14000 0.474
34.16000 1.102
34.18000 -0.967
34.20000 -3.392
34.22000 2.015
34.24000 1.839
34.26000 1.741
34.28000 2.005
34.30000 4.271
34.32000 0.778
34.34000 -2.545
34.36000 -0.823
34.38000 3.940
34.40000 0.733
34.42000 2.041
34.44000 -0.949
34.46000 5.414
34.48000 4.395
34.50000 1.889
34.52000 3.216
34.54000 2.319
34.56000 3.935
34.58000 4.472
34.60000 -0.770
34.62000 -0.651
34.64000 6.082
34.66000 4.034
34.68000 6.781
34.70000 5.126
34.72000 2.148
34.74000 0.954
34.76000 1.636
34.78000 -0.628
34.80000 0.119
34.82000 0.151
34.84000 -2.504
34.86000 -1.014
34.88000 0.927
34.90000 -3.565
34.92000 -1.688
34.94000 0.230
34.96000 1.052
34.98000 3.317
35.00000 0.249
35.02000 -0.574
35.04000 -3.085
35.06000 2.894
35.08000 3.759
35.10000 1.827
35.12000 0.491
35.14000 1.535
35.16000 -3.519
35.18000 -3.553
35.20000 -1.061
35.22000 -2.940
35.24000 0.155
35.26000 2.343
35.28000 1.480
35.30000 1.509
35.32000 0.072
35.34000 2.908
35.36000 4.849
35.38000 4.607
35.40000 1.695
35.42000 -0.694
35.44000 -1.100
35.46000 -1.299
35.48000 4.626
35.50000 4.222
35.52000 4.689
35.54000 4.411
35.56000 1.914
35.58000 2.763
35.60000 2.304
35.62000 3.113
35.64000 4.613
35.66000 2.059
35.68000 3.246
35.70000 -1.383
35.72000 5.843
35.74000 5.057
35.76000 1.386
35.78000 4.937
35.80000 4.810
35.82000 6.782
35.84000 2.845
35.86000 2.937
35.88000 1.609
35.90000 -3.240
35.92000 -3.550
35.94000 -0.733
35.96000 2.262
35.98000 1.705
36.00000 1.091
36.02000 1.229
36.04000 -3.246
36.06000 -3.550
36.08000 -0.595
36.10000 -2.211
36.12000 -2.061
36.14000 -3.226
36.16000 1.657
36.18000 4.939
36.20000 4.159
36.22000 -0.150
36.24000 0.687
36.26000 2.938
36.28000 -1.831
36.30000 -1.793
36.32000 4.195
36.34000 3.882
36.36000 3.020
36.38000 1.606
36.40000 3.782
36.42000 4.524
36.44000 2.882
36.46000 2.993
36.48000 3.484
36.50000 -1.291
36.52000 -2.274
36.54000 -3.550
36.56000 3.254
36.58000 0.688
36.60000 4.292
36.62000 4.941
36.64000 -1.708
36.66000 4.234
36.68000 4.738
36.70000 0.606
36.72000 -0.447
36.74000 -0.762
36.76000 -1.178
36.78000 0.158
36.80000 -0.664
36.82000 -0.747
36.84000 -0.435
36.86000 0.589
36.88000 -0.789
36.90000 -1.651
36.92000 5.047
36.94000 11.465
36.96000 8.306
36.98000 5.841
37.00000 1.258
37.02000 0.996
37.04000 3.369
37.06000 -0.134
37.08000 4.046
37.10000 3.781
37.12000 2.080
37.14000 -3.504
37.16000 -2.662
37.18000 -2.428
37.20000 -3.469
37.22000 -0.580
37.24000 3.882
37.26000 6.717
37.28000 0.633
37.30000 -3.602
37.32000 -3.575
37.34000 -0.247
37.36000 0.425
37.38000 2.951
37.40000 4.531
37.42000 6.667
37.44000 3.213
37.46000 2.319
37.48000 -0.759
37.50000 -0.315
37.52000 -0.197
37.54000 3.933
37.56000 6.971
37.58000 2.150
37.60000 2.008
37.62000 1.407
37.64000 2.187
37.66000 -0.647
37.68000 2.951
37.70000 3.207
37.72000 4.105
37.74000 2.630
37.76000 2.033
37.78000 2.689
37.80000 1.744
37.82000 4.019
37.84000 6.301
37.86000 5.391
37.88000 1.367
37.90000 3.929
37.92000 6.142
37.94000 6.384
37.96000 3.836
37.98000 2.857
38.00000 4.414
38.02000 9.892
38.04000 9.098
38.06000 9.756
38.08000 10.422
38.10000 10.508
38.12000 9.228
38.14000 11.312
38.16000 9.035
38.18000 5.124
38.20000 10.819
38.22000 13.729
38.24000 10.744
38.26000 9.803
38.28000 8.657
38.30000 16.504
38.32000 14.053
38.34000 17.775
38.36000 12.487
38.38000 9.677
38.40000 14.432
38.42000 14.195
38.44000 16.456
38.46000 14.121
38.48000 16.004
38.50000 18.450
38.52000 19.762
38.54000 16.425
38.56000 18.142
38.58000 14.801
38.60000 16.205
38.62000 15.356
38.64000 22.874
38.66000 27.130
38.68000 19.552
38.70000 18.573
38.72000 17.962
38.74000 22.984
38.76000 25.446
38.78000 31.140
38.80000 29.645
38.82000 25.549
38.84000 23.953
38.86000 28.429
38.88000 29.390
38.90000 31.080
38.92000 32.711
38.94000 30.670
38.96000 33.626
38.98000 32.986
39.00000 37.300
39.02000 38.032
39.04000 36.347
39.06000 38.115
39.08000 43.369
39.10000 43.309
39.12000 48.892
39.14000 55.499
39.16000 53.933
39.18000 53.555
39.20000 56.224
39.22000 54.790
39.24000 58.816
39.26000 60.132
39.28000 66.324
39.30000 68.998
39.32000 69.324
39.34000 70.068
39.36000 76.818
39.38000 83.399
39.40000 81.816
39.42000 85.497
39.44000 90.209
39.46000 94.079
39.48000 101.254
39.50000 102.759
39.52000 106.974
39.54000 116.037
39.56000 121.907
39.58000 121.105
39.60000 122.870
39.62000 130.233
39.64000 137.597
39.66000 147.506
39.68000 158.644
39.70000 158.579
39.72000 165.430
39.74000 178.723
39.76000 184.981
39.78000 192.254
39.80000 201.047
39.82000 210.827
39.84000 219.825
39.86000 242.834
39.88000 253.258
39.90000 259.422
39.92000 274.024
39.94000 288.717
39.96000 295.071
39.98000 309.714
40.00000 323.708
40.02000 337.936
40.04000 358.999
40.06000 368.100
40.08000 379.812
40.10000 396.228
40.12000 413.616
40.14000 418.431
40.16000 426.709
40.18000 449.186
40.20000 461.011
40.22000 477.482
40.24000 496.038
40.26000 497.785
40.28000 514.864
40.30000 531.151
40.32000 537.966
40.34000 538.398
40.36000 541.708
40.38000 556.410
40.40000 553.604
40.42000 559.919
40.44000 560.425
40.46000 566.477
40.48000 572.839
40.50000 569.369
40.52000 560.091
40.54000 552.013
40.56000 546.039
40.58000 541.809
40.60000 524.201
40.62000 520.764
40.64000 508.869
40.66000 489.524
40.68000 471.604
40.70000 465.140
40.72000 454.975
40.74000 453.493
40.76000 435.925
40.78000 415.978
40.80000 395.060
40.82000 389.196
40.84000 376.325
40.86000 368.858
40.88000 346.313
40.90000 327.640
40.92000 311.671
40.94000 299.554
40.96000 287.710
40.98000 270.514
41.00000 259.254
41.02000 255.750
41.04000 238.810
41.06000 222.870
41.08000 210.270
41.10000 199.348
41.12000 190.097
41.14000 183.813
41.16000 174.675
41.18000 170.072
41.20000 159.390
41.22000 148.225
41.24000 137.422
41.26000 130.806
41.28000 127.221
41.30000 123.610
41.32000 118.993
41.34000 109.558
41.36000 97.330
41.38000 96.225
41.40000 93.043
41.42000 85.729
41.44000 78.859
41.46000 72.849
41.48000 74.406
41.50000 74.055
41.52000 68.091
41.54000 63.099
41.56000 58.541
41.58000 57.621
41.60000 57.198
41.62000 57.320
41.64000 50.812
41.66000 46.894
41.68000 38.772
41.70000 41.313
41.72000 38.608
41.74000 36.194
41.76000 36.682
41.78000 35.811
41.80000 30.065
41.82000 31.028
41.84000 28.239
41.86000 24.708
41.88000 29.447
41.90000 31.519
41.92000 23.303
41.94000 19.099
41.96000 22.790
41.98000 20.856
42.00000 19.541
42.02000 18.987
42.04000 13.823
42.06000 13.606
42.08000 14.161
42.10000 16.163
42.12000 12.049
42.14000 7.816
42.16000 9.850
42.18000 12.778
42.20000 7.848
42.22000 5.681
42.24000 10.705
42.26000 7.505
42.28000 7.948
42.30000 6.950
42.32000 3.763
42.34000 6.755
42.36000 6.495
42.38000 6.633
42.40000 8.882
42.42000 7.548
42.44000 6.984
42.46000 6.436
42.48000 3.732
42.50000 4.020
42.52000 4.938
42.54000 2.731
42.56000 3.748
42.58000 2.873
42.60000 4.837
42.62000 3.499
42.64000 0.679
42.66000 1.929
42.68000 3.943
42.70000 0.975
42.72000 3.911
42.74000 1.270
42.76000 3.056
42.78000 2.841
42.80000 5.203
42.82000 3.500
42.84000 3.611
42.86000 6.145
42.88000 5.354
42.90000 -2.180
42.92000 -2.712
42.94000 0.245
42.96000 -0.356
42.98000 1.185
43.00000 -0.789
43.02000 -2.480
43.04000 -0.047
43.06000 1.221
43.08000 -2.102
43.10000 -0.719
43.12000 3.015
43.14000 0.359
43.16000 -1.208
43.18000 -3.557
43.20000 -3.106
43.22000 2.037
43.24000 2.359
43.26000 2.019
43.28000 -0.329
43.30000 3.348
43.32000 2.077
43.34000 0.862
43.36000 2.623
43.38000 1.683
43.40000 -0.096
43.42000 0.854
43.44000 1.487
43.46000 1.717
43.48000 1.024
43.50000 -2.989
43.52000 2.558
43.54000 2.915
43.56000 -1.032
43.58000 2.289
43.60000 3.482
43.62000 0.681
43.64000 1.856
43.66000 3.032
43.68000 0.025
43.70000 2.310
43.72000 6.353
43.74000 6.540
43.76000 3.325
43.78000 4.474
43.80000 1.659
43.82000 -0.963
43.84000 2.186
43.86000 1.937
43.88000 1.032
43.90000 -3.453
43.92000 -1.038
43.94000 4.549
43.96000 2.009
43.98000 0.604
44.00000 0.267
44.02000 2.190
44.04000 5.707
44.06000 2.556
44.08000 -0.516
44.10000 -1.387
44.12000 -1.789
44.14000 1.152
44.16000 5.712
44.18000 7.182
44.20000 5.007
44.22000 0.694
44.24000 4.203
44.26000 4.487
44.28000 0.662
44.30000 -0.008
44.32000 6.489
44.34000 2.562
44.36000 1.956
44.38000 2.063
44.40000 -0.444
44.42000 1.382
44.44000 1.807
44.46000 3.537
44.48000 2.269
44.50000 -2.288
44.52000 -0.235
44.54000 2.716
44.56000 1.082
44.58000 1.321
44.60000 -1.781
44.62000 -2.573
44.64000 -3.294
44.66000 -2.166
44.68000 2.570
44.70000 2.379
44.72000 0.106
44.74000 -0.082
44.76000 5.594
44.78000 5.624
44.80000 2.288
44.82000 -2.710
44.84000 4.039
44.86000 6.635
44.88000 3.392
44.90000 1.754
44.92000 1.695
44.94000 -0.055
44.96000 3.913
44.98000 4.852
45.00000 2.375
45.02000 1.267
45.04000 2.498
45.06000 8.691
45.08000 5.745
45.10000 3.405
45.12000 4.655
45.14000 10.486
45.16000 4.821
45.18000 2.951
45.20000 2.085
45.22000 2.674
45.24000 3.250
45.26000 1.961
45.28000 3.414
45.30000 14.549
45.32000 6.774
45.34000 4.597
45.36000 7.408
45.38000 12.539
45.40000 10.447
45.42000 9.104
45.44000 10.236
45.46000 10.656
45.48000 10.040
45.50000 13.727
45.52000 14.870
45.54000 13.036
45.56000 11.339
45.58000 17.310
45.60000 16.236
45.62000 15.272
45.64000 16.164
45.66000 15.586
45.68000 7.985
45.70000 9.210
45.72000 18.079
45.74000 20.862
45.76000 14.400
45.78000 15.371
45.80000 12.449
45.82000 13.498
45.84000 20.554
45.86000 27.444
45.88000 27.941
45.90000 25.696
45.92000 28.618
45.94000 28.239
45.96000 25.445
45.98000 23.994
46.00000 24.511
46.02000 26.592
46.04000 26.431
46.06000 31.853
46.08000 30.447
46.10000 34.023
46.12000 39.520
46.14000 34.195
46.16000 35.826
46.18000 36.368
46.20000 38.675
46.22000 44.919
46.24000 44.666
46.26000 37.546
46.28000 39.331
46.30000 44.251
46.32000 46.998
46.34000 48.541
46.36000 49.962
46.38000 46.706
46.40000 44.275
46.42000 40.157
46.44000 46.918
46.46000 55.162
46.48000 59.375
46.50000 57.696
46.52000 58.913
46.54000 58.191
46.56000 58.907
46.58000 67.489
46.60000 69.142
46.62000 69.259
46.64000 68.480
46.66000 67.174
46.68000 72.070
46.70000 71.359
46.72000 65.876
46.74000 68.402
46.76000 73.310
46.78000 75.545
46.80000 75.267
46.82000 72.429
46.84000 77.207
46.86000 78.024
46.88000 78.474
46.90000 84.254
46.92000 77.453
46.94000 78.884
46.96000 76.648
46.98000 76.316
47.00000 75.183
47.02000 75.516
47.04000 75.868
47.06000 78.312
47.08000 83.602
47.10000 82.296
47.12000 79.460
47.14000 80.001
47.16000 83.214
47.18000 83.253
47.20000 77.144
47.22000 78.687
47.24000 74.361
47.26000 73.615
47.28000 76.486
47.30000 71.161
47.32000 66.890
47.34000 68.041
47.36000 73.159
47.38000 68.075
47.40000 66.870
47.42000 66.024
47.44000 60.316
47.46000 60.678
47.48000 61.068
47.50000 62.887
47.52000 58.429
47.54000 59.161
47.56000 58.475
47.58000 59.479
47.60000 53.309
47.62000 49.440
47.64000 44.577
47.66000 42.114
47.68000 43.872
47.70000 44.089
47.72000 37.957
47.74000 36.736
47.76000 45.036
47.78000 45.081
47.80000 40.498
47.82000 40.646
47.84000 34.651
47.86000 29.513
47.88000 26.888
47.90000 27.404
47.92000 26.985
47.94000 31.189
47.96000 30.448
47.98000 34.696
48.00000 38.652
48.02000 24.112
48.04000 19.523
48.06000 20.173
48.08000 19.772
48.10000 21.763
48.12000 21.431
48.14000 23.444
48.16000 22.748
48.18000 17.728
48.20000 11.297
48.22000 13.418
48.24000 12.046
48.26000 10.994
48.28000 9.677
48.30000 17.965
48.32000 17.796
48.34000 10.202
48.36000 5.490
48.38000 3.810
48.40000 6.940
48.42000 3.803
48.44000 6.080
48.46000 7.631
48.48000 5.222
48.50000 5.663
48.52000 8.730
48.54000 9.688
48.56000 7.943
48.58000 5.796
48.60000 4.515
48.62000 4.852
48.64000 3.897
48.66000 2.678
48.68000 7.754
48.70000 9.434
48.72000 8.210
48.74000 13.306
48.76000 6.743
48.78000 0.180
48.80000 -3.203
48.82000 1.242
48.84000 -0.970
48.86000 0.411
48.88000 2.765
48.90000 2.423
48.92000 1.649
48.94000 -0.144
48.96000 2.247
48.98000 -1.210
49.00000 -1.082
49.02000 4.726
49.04000 4.759
49.06000 5.172
49.08000 2.828
49.10000 1.121
49.12000 -1.287
49.14000 -0.130
49.16000 2.743
49.18000 -0.579
49.20000 -3.139
49.22000 -2.435
49.24000 1.550
49.26000 3.023
49.28000 4.060
49.30000 7.821
49.32000 4.555
49.34000 0.829
49.36000 0.355
49.38000 -3.117
49.40000 -0.068
49.42000 3.309
49.44000 -0.821
49.46000 -1.703
49.48000 -0.528
49.50000 7.133
49.52000 8.435
49.54000 1.088
49.56000 0.748
49.58000 4.075
49.60000 3.847
49.62000 -0.925
49.64000 0.458
49.66000 5.018
49.68000 2.477
49.70000 6.491
49.72000 6.081
49.74000 3.127
49.76000 2.300
49.78000 2.340
49.80000 5.114
49.82000 4.718
49.84000 -0.840
49.86000 -2.150
49.88000 -0.570
49.90000 -1.706
49.92000 0.501
49.94000 2.735
49.96000 1.257
49.98000 1.623
50.00000 0.301
50.02000 -3.046
50.04000 6.129
50.06000 4.819
50.08000 4.608
50.10000 2.338
50.12000 0.005
50.14000 1.823
50.16000 6.135
50.18000 6.087
50.20000 6.045
50.22000 3.385
50.24000 4.346
50.26000 1.886
50.28000 0.494
50.30000 -2.821
50.32000 0.205
50.34000 5.795
50.36000 4.244
50.38000 3.556
50.40000 2.152
50.42000 -1.887
50.44000 1.515
50.46000 2.673
50.48000 3.749
50.50000 0.298
50.52000 1.873
50.54000 3.351
50.56000 2.688
50.58000 2.873
50.60000 1.901
50.62000 1.926
50.64000 3.951
50.66000 3.407
50.68000 3.364
50.70000 -2.976
50.72000 -2.842
50.74000 -1.519
50.76000 -1.434
50.78000 0.563
50.80000 1.685
50.82000 3.305
50.84000 2.959
50.86000 2.938
50.88000 4.836
50.90000 7.555
50.92000 5.749
50.94000 5.485
50.96000 1.787
50.98000 3.804
51.00000 3.193
51.02000 -2.066
51.04000 -2.975
51.06000 3.651
51.08000 2.254
51.10000 4.895
51.12000 -0.626
51.14000 0.099
51.16000 3.438
51.18000 4.940
51.20000 3.827
51.22000 3.737
51.24000 6.792
51.26000 7.013
51.28000 6.973
51.30000 1.841
51.32000 6.166
51.34000 5.908
51.36000 6.513
51.38000 0.196
51.40000 -1.668
51.42000 3.514
51.44000 1.879
51.46000 1.734
51.48000 2.495
51.50000 3.683
51.52000 2.138
51.54000 4.923
51.56000 0.297
51.58000 2.635
51.60000 3.558
51.62000 2.138
51.64000 1.285
51.66000 6.089
51.68000 1.705
51.70000 -0.183
51.72000 -0.514
51.74000 2.929
51.76000 4.364
51.78000 4.212
51.80000 0.092
51.82000 2.040
51.84000 1.060
51.86000 3.746
51.88000 6.762
51.90000 6.797
51.92000 3.706
51.94000 -0.019
51.96000 -2.957
51.98000 1.027
52.00000 6.055
52.02000 5.061
52.04000 -1.213
52.06000 -0.829
52.08000 2.780
52.10000 3.300
52.12000 3.005
52.14000 4.181
52.16000 6.418
52.18000 2.198
52.20000 0.585
52.22000 2.244
52.24000 5.744
52.26000 2.094
52.28000 5.425
52.30000 5.986
52.32000 1.473
52.34000 1.258
52.36000 4.722
52.38000 0.119
52.40000 -1.902
52.42000 1.053
52.44000 0.263
52.46000 2.009
52.48000 2.207
52.50000 -1.402
52.52000 2.763
52.54000 0.163
52.56000 -1.736
52.58000 -2.924
52.60000 -1.038
52.62000 7.514
52.64000 10.431
52.66000 7.936
52.68000 6.346
52.70000 3.147
52.72000 4.570
52.74000 13.026
52.76000 7.549
52.78000 3.385
52.80000 0.275
52.82000 1.796
52.84000 5.322
52.86000 5.150
52.88000 1.990
52.90000 -0.019
52.92000 -0.855
52.94000 0.924
52.96000 -2.634
52.98000 -1.933
53.00000 3.981
53.02000 6.640
53.04000 7.826
53.06000 -0.462
53.08000 -0.234
53.10000 2.115
53.12000 5.496
53.14000 3.612
53.16000 2.663
53.18000 0.387
53.20000 5.852
53.22000 8.016
53.24000 1.290
53.26000 2.646
53.28000 0.738
53.30000 4.604
53.32000 3.226
53.34000 4.158
53.36000 7.361
53.38000 -1.299
53.40000 1.110
53.42000 2.033
53.44000 3.595
53.46000 3.536
53.48000 2.345
53.50000 1.891
53.52000 1.343
53.54000 0.423
53.56000 -0.984
53.58000 -1.620
53.60000 -2.882
53.62000 2.895
53.64000 0.900
53.66000 2.937
53.68000 1.285
53.70000 2.238
53.72000 4.997
53.74000 4.763
53.76000 1.773
53.78000 1.093
53.80000 1.239
53.82000 0.464
53.84000 4.876
53.86000 2.729
53.88000 -0.485
53.90000 2.743
53.92000 2.185
53.94000 -1.064
53.96000 -0.783
53.98000 0.625
54.00000 2.497
54.02000 0.092
54.04000 3.649
54.06000 2.830
54.08000 3.801
54.10000 7.453
54.12000 4.369
54.14000 -0.116
54.16000 -1.808
54.18000 1.774
54.20000 1.001
54.22000 0.848
54.24000 0.121
54.26000 2.804
54.28000 3.035
54.30000 1.572
54.32000 0.470
54.34000 0.855
54.36000 4.851
54.38000 7.298
54.40000 4.251
54.42000 -1.111
54.44000 3.332
54.46000 3.216
54.48000 -0.698
54.50000 -0.161
54.52000 4.330
54.54000 3.017
54.56000 -1.952
54.58000 -1.006
54.60000 -1.104
54.62000 1.577
54.64000 4.328
54.66000 2.586
54.68000 6.666
54.70000 6.297
54.72000 6.189
54.74000 5.740
54.76000 5.723
54.78000 10.627
54.80000 4.019
54.82000 -0.383
54.84000 -2.832
54.86000 -2.410
54.88000 0.907
54.90000 0.221
54.92000 3.317
54.94000 3.416
54.96000 -2.134
54.98000 -2.830
55.00000 1.938
55.02000 -0.004
55.04000 3.475
55.06000 -1.943
55.08000 -1.198
55.10000 -1.847
55.12000 4.098
55.14000 6.294
55.16000 3.379
55.18000 3.730
55.20000 5.098
55.22000 6.042
55.24000 9.638
55.26000 5.005
55.28000 3.218
55.30000 -1.867
55.32000 0.264
55.34000 -1.317
55.36000 3.498
55.38000 1.582
55.40000 1.163
55.42000 1.731
55.44000 6.781
55.46000 4.324
55.48000 6.653
55.50000 1.099
55.52000 0.488
55.54000 -2.342
55.56000 2.478
55.58000 3.736
55.60000 3.757
55.62000 4.870
55.64000 -0.139
55.66000 6.639
55.68000 4.939
55.70000 3.931
55.72000 6.698
55.74000 2.249
55.76000 5.450
55.78000 -0.588
55.80000 -0.816
55.82000 -1.059
55.84000 1.546
55.86000 4.297
55.88000 3.379
55.90000 -2.035
55.92000 0.918
55.94000 5.383
55.96000 5.887
55.98000 3.796
56.00000 2.606
56.02000 0.376
56.04000 4.262
56.06000 3.918
56.08000 -0.448
56.10000 1.342
56.12000 0.378
56.14000 3.322
56.16000 3.917
56.18000 6.929
56.20000 8.487
56.22000 5.491
56.24000 1.010
56.26000 1.561
56.28000 0.032
56.30000 -0.843
56.32000 -2.798
56.34000 -0.221
56.36000 -0.620
56.38000 0.336
56.40000 1.355
56.42000 2.669
56.44000 1.945
56.46000 5.226
56.48000 4.865
56.50000 4.749
56.52000 5.417
56.54000 8.455
56.56000 10.887
56.58000 6.600
56.60000 3.612
56.62000 -0.047
56.64000 2.327
56.66000 3.604
56.68000 -0.255
56.70000 -0.657
56.72000 -0.588
56.74000 1.347
56.76000 3.514
56.78000 3.440
56.80000 2.205
56.82000 2.824
56.84000 4.736
56.86000 4.669
56.88000 4.118
56.90000 5.201
56.92000 2.808
56.94000 -1.224
56.96000 2.181
56.98000 0.820
57.00000 1.492
57.02000 2.197
57.04000 4.043
57.06000 2.949
57.08000 0.446
57.10000 5.320
57.12000 0.603
57.14000 -2.756
57.16000 1.453
57.18000 3.998
57.20000 2.821
57.22000 5.551
57.24000 4.675
57.26000 1.829
57.28000 -0.482
57.30000 5.512
57.32000 6.284
57.34000 7.056
57.36000 2.145
57.38000 -0.580
57.40000 -2.086
57.42000 1.902
57.44000 -1.804
57.46000 3.411
57.48000 6.135
57.50000 -1.208
57.52000 -2.013
57.54000 4.486
57.56000 7.262
57.58000 9.530
57.60000 4.744
57.62000 -0.566
57.64000 -0.452
57.66000 2.022
57.68000 4.720
57.70000 3.806
57.72000 4.380
57.74000 7.506
57.76000 1.651
57.78000 2.744
57.80000 3.261
57.82000 10.313
57.84000 8.661
57.86000 3.394
57.88000 4.389
57.90000 3.678
57.92000 1.554
57.94000 5.049
57.96000 5.072
57.98000 8.008
58.00000 8.424
58.02000 7.892
58.04000 9.032
58.06000 6.816
58.08000 2.620
58.10000 1.036
58.12000 4.633
58.14000 4.218
58.16000 1.623
58.18000 5.581
58.20000 7.449
58.22000 9.315
58.24000 7.546
58.26000 5.651
58.28000 4.630
58.30000 5.435
58.32000 2.530
58.34000 3.647
58.36000 5.853
58.38000 4.760
58.40000 6.534
58.42000 8.587
58.44000 6.698
58.46000 6.028
58.48000 6.578
58.50000 6.443
58.52000 0.480
58.54000 6.542
58.56000 7.006
58.58000 8.752
58.60000 10.843
58.62000 8.179
58.64000 -2.646
58.66000 4.399
58.68000 7.945
58.70000 9.354
58.72000 6.008
58.74000 6.099
58.76000 8.354
58.78000 9.190
58.80000 8.589
58.82000 5.469
58.84000 7.885
58.86000 7.542
58.88000 7.049
58.90000 5.854
58.92000 4.785
58.94000 5.165
58.96000 1.690
58.98000 8.137
59.00000 11.074
59.02000 7.538
59.04000 8.286
59.06000 6.658
59.08000 6.839
59.10000 4.922
59.12000 0.408
59.14000 2.546
59.16000 3.662
59.18000 3.170
59.20000 3.551
59.22000 0.918
59.24000 1.670
59.26000 3.631
59.28000 4.678
59.30000 5.325
59.32000 7.555
59.34000 2.662
59.36000 3.079
59.38000 1.577
59.40000 1.466
59.42000 6.813
59.44000 5.311
59.46000 2.832
59.48000 -0.101
59.50000 0.499
59.52000 -0.551
59.54000 3.373
59.56000 4.846
59.58000 -1.993
59.60000 1.520
59.62000 2.832
59.64000 3.784
59.66000 0.502
59.68000 5.685
59.70000 8.400
59.72000 3.754
59.74000 4.284
59.76000 7.530
59.78000 5.425
59.80000 5.237
59.82000 2.838
59.84000 0.239
59.86000 3.441
59.88000 3.849
59.90000 3.395
59.92000 1.580
59.94000 -2.140
59.96000 1.885
59.98000 2.669
60.00000 2.511
60.02000 2.806
60.04000 2.938
60.06000 2.668
60.08000 4.973
60.10000 5.596
60.12000 3.513
60.14000 1.319
60.16000 -0.489
60.18000 -1.050
60.20000 2.447
60.22000 -0.691
60.24000 2.177
60.26000 3.329
60.28000 0.601
60.30000 2.948
60.32000 2.543
60.34000 -2.686
60.36000 -0.924
60.38000 2.278
60.40000 -0.485
60.42000 3.968
60.44000 1.226
60.46000 -1.023
60.48000 -0.240
60.50000 -0.157
60.52000 1.002
60.54000 1.225
60.56000 3.458
60.58000 4.556
60.60000 4.167
60.62000 1.138
60.64000 2.072
60.66000 -2.587
60.68000 -1.334
60.70000 3.477
60.72000 8.122
60.74000 1.920
60.76000 3.600
60.78000 0.473
60.80000 2.781
60.82000 5.184
60.84000 2.240
60.86000 -0.143
60.88000 -0.600
60.90000 0.530
60.92000 -1.516
60.94000 -2.015
60.96000 1.147
60.98000 3.275
61.00000 2.834
61.02000 4.381
61.04000 4.547
61.06000 3.336
61.08000 3.818
61.10000 6.566
61.12000 1.611
61.14000 0.714
61.16000 0.657
61.18000 2.216
61.20000 -0.705
61.22000 0.119
61.24000 -0.866
61.26000 0.501
61.28000 -2.633
61.30000 -1.605
61.32000 0.601
61.34000 3.423
61.36000 4.895
61.38000 6.486
61.40000 2.696
61.42000 4.325
61.44000 5.449
61.46000 2.734
61.48000 1.977
61.50000 4.117
61.52000 1.153
61.54000 3.374
61.56000 4.397
61.58000 1.857
61.60000 -0.041
61.62000 -1.134
61.64000 -2.613
61.66000 -1.680
61.68000 -0.044
61.70000 -0.335
61.72000 2.095
61.74000 7.348
61.76000 4.135
61.78000 5.683
61.80000 2.144
61.82000 -0.538
61.84000 4.498
61.86000 3.144
61.88000 2.231
61.90000 0.803
61.92000 -0.365
61.94000 2.368
61.96000 0.054
61.98000 0.652
62.00000 -1.698
62.02000 5.132
62.04000 1.886
62.06000 -0.227
62.08000 -1.438
62.10000 -1.112
62.12000 1.567
62.14000 -0.219
62.16000 4.970
62.18000 6.473
62.20000 7.308
62.22000 9.792
62.24000 5.269
62.26000 3.803
62.28000 4.383
62.30000 4.077
62.32000 4.634
62.34000 8.427
62.36000 5.050
62.38000 -0.377
62.40000 1.057
62.42000 3.693
62.44000 1.803
62.46000 3.872
62.48000 4.884
62.50000 -0.163
62.52000 -0.502
62.54000 -0.165
62.56000 -0.648
62.58000 -0.119
62.60000 0.673
62.62000 1.933
62.64000 3.945
62.66000 3.697
62.68000 1.593
62.70000 1.097
62.72000 1.529
62.74000 2.783
62.76000 -0.008
62.78000 2.628
62.80000 5.746
62.82000 2.196
62.84000 1.107
62.86000 -1.556
62.88000 -0.858
62.90000 -2.237
62.92000 1.872
62.94000 4.342
62.96000 3.673
62.98000 2.885
63.00000 3.705
63.02000 1.885
63.04000 -0.554
63.06000 -0.640
63.08000 -0.534
63.10000 1.425
63.12000 2.273
63.14000 -1.472
63.16000 -1.726
63.18000 0.817
63.20000 -1.660
63.22000 0.694
63.24000 4.042
63.26000 2.894
63.28000 7.441
63.30000 8.587
63.32000 4.897
63.34000 4.324
63.36000 5.227
63.38000 0.882
63.40000 1.265
63.42000 1.617
63.44000 -2.349
63.46000 -0.246
63.48000 0.362
63.50000 2.770
63.52000 8.219
63.54000 7.753
63.56000 2.421
63.58000 0.956
63.60000 1.941
63.62000 -0.246
63.64000 0.857
63.66000 -0.172
63.68000 4.723
63.70000 1.793
63.72000 5.192
63.74000 -0.579
63.76000 -2.571
63.78000 0.215
63.80000 3.576
63.82000 5.660
63.84000 2.014
63.86000 2.426
63.88000 6.274
63.90000 6.343
63.92000 6.973
63.94000 4.881
63.96000 5.197
63.98000 2.646
64.00000 5.084
64.02000 5.392
64.04000 6.971
64.06000 1.815
64.08000 3.993
64.10000 4.905
64.12000 5.620
64.14000 3.245
64.16000 1.576
64.18000 -1.300
64.20000 0.743
64.22000 5.751
64.24000 5.680
64.26000 2.580
64.28000 8.240
64.30000 7.459
64.32000 5.832
64.34000 5.969
64.36000 3.833
64.38000 5.137
64.40000 2.910
64.42000 -2.587
64.44000 -2.128
64.46000 2.306
64.48000 4.370
64.50000 3.323
64.52000 3.757
64.54000 2.866
64.56000 5.877
64.58000 6.105
64.60000 4.047
64.62000 4.739
64.64000 3.285
64.66000 6.874
64.68000 5.530
64.70000 2.966
64.72000 6.226
64.74000 9.009
64.76000 3.871
64.78000 5.211
64.80000 5.259
64.82000 4.487
64.84000 2.793
64.86000 -1.919
64.88000 2.011
64.90000 2.794
64.92000 4.336
64.94000 5.703
64.96000 5.171
64.98000 5.467
65.00000 3.503
65.02000 0.800
65.04000 -0.247
65.06000 -1.368
65.08000 1.265
65.10000 2.409
65.12000 0.030
65.14000 1.460
65.16000 1.281
65.18000 2.551
65.20000 0.299
65.22000 1.180
65.24000 -0.930
65.26000 1.348
65.28000 1.509
65.30000 2.095
65.32000 1.309
65.34000 1.012
65.36000 0.662
65.38000 1.134
65.40000 -1.654
65.42000 1.748
65.44000 1.433
65.46000 -0.359
65.48000 2.521
65.50000 4.713
65.52000 -0.707
65.54000 -2.641
65.56000 -1.624
65.58000 -1.837
65.60000 -2.411
65.62000 3.921
65.64000 3.002
65.66000 0.923
65.68000 1.332
65.70000 1.513
65.72000 0.842
65.74000 1.053
65.76000 -1.481
65.78000 -0.700
65.80000 -0.713
65.82000 -0.138
65.84000 3.317
65.86000 3.277
65.88000 3.060
65.90000 -0.620
65.92000 -0.323
65.94000 1.471
65.96000 1.031
65.98000 0.105
66.00000 3.053
66.02000 3.131
66.04000 0.777
66.06000 2.517
66.08000 3.959
66.10000 7.955
66.12000 3.120
66.14000 0.974
66.16000 1.576
66.18000 2.427
66.20000 0.571
66.22000 2.351
66.24000 3.519
66.26000 -1.129
66.28000 -2.674
66.30000 -0.947
66.32000 1.119
66.34000 0.931
66.36000 -1.545
66.38000 -1.771
66.40000 0.786
66.42000 1.343
66.44000 2.882
66.46000 -1.354
66.48000 2.696
66.50000 0.888
66.52000 -2.262
66.54000 0.209
66.56000 -0.627
66.58000 1.046
66.60000 5.891
66.62000 3.114
66.64000 -1.332
66.66000 -0.252
66.68000 -0.257
66.70000 -1.498
66.72000 2.868
66.74000 -1.193
66.76000 -0.818
66.78000 1.800
66.80000 3.361
66.82000 2.450
66.84000 -1.088
66.86000 0.719
66.88000 2.811
66.90000 -2.214
66.92000 1.809
66.94000 2.660
66.96000 4.330
66.98000 3.449
67.00000 4.739
67.02000 2.149
67.04000 3.757
67.06000 1.916
67.08000 1.459
67.10000 0.533
67.12000 0.997
67.14000 3.353
67.16000 4.132
67.18000 4.294
67.20000 1.618
67.22000 5.535
67.24000 3.815
67.26000 7.745
67.28000 3.489
67.30000 0.767
67.32000 0.936
67.34000 -2.742
67.36000 -2.229
67.38000 0.782
67.40000 2.452
67.42000 7.562
67.44000 7.974
67.46000 5.266
67.48000 3.948
67.50000 1.561
67.52000 0.513
67.54000 4.908
67.56000 7.333
67.58000 6.416
67.60000 6.608
67.62000 6.060
67.64000 7.659
67.66000 8.214
67.68000 4.448
67.70000 10.212
67.72000 9.824
67.74000 10.928
67.76000 9.782
67.78000 10.820
67.80000 12.209
67.82000 9.640
67.84000 9.772
67.86000 8.275
67.88000 7.149
67.90000 10.392
67.92000 9.615
67.94000 8.509
67.96000 7.511
67.98000 8.962
68.00000 5.907
68.02000 10.000
68.04000 16.825
68.06000 17.365
68.08000 17.428
68.10000 17.833
68.12000 19.364
68.14000 18.807
68.16000 15.106
68.18000 15.661
68.20000 17.328
68.22000 15.000
68.24000 15.610
68.26000 16.927
68.28000 16.226
68.30000 12.837
68.32000 17.857
68.34000 20.969
68.36000 19.240
68.38000 24.219
68.40000 22.670
68.42000 21.817
68.44000 22.304
68.46000 21.058
68.48000 24.653
68.50000 23.288
68.52000 25.126
68.54000 21.735
68.56000 21.153
68.58000 20.362
68.60000 20.340
68.62000 21.030
68.64000 20.111
68.66000 23.096
68.68000 20.355
68.70000 18.165
68.72000 24.806
68.74000 30.399
68.76000 26.055
68.78000 22.654
68.80000 17.042
68.82000 17.674
68.84000 21.521
68.86000 21.684
68.88000 24.585
68.90000 26.259
68.92000 18.570
68.94000 18.889
68.96000 17.389
68.98000 19.377
69.00000 21.874
69.02000 24.066
69.04000 24.253
69.06000 20.136
69.08000 23.998
69.10000 18.402
69.12000 19.071
69.14000 23.458
69.16000 20.539
69.18000 20.064
69.20000 15.920
69.22000 11.791
69.24000 12.714
69.26000 11.862
69.28000 13.369
69.30000 16.354
69.32000 17.144
69.34000 15.346
69.36000 15.828
69.38000 12.752
69.40000 12.117
69.42000 8.776
69.44000 9.137
69.46000 7.789
69.48000 10.569
69.50000 10.902
69.52000 11.979
69.54000 11.992
69.56000 10.618
69.58000 7.080
69.60000 11.043
69.62000 10.936
69.64000 4.998
69.66000 4.618
69.68000 4.624
69.70000 5.387
69.72000 4.417
69.74000 3.279
69.76000 1.044
69.78000 1.941
69.80000 2.263
69.82000 0.046
69.84000 -1.685
69.86000 -0.332
69.88000 0.989
69.90000 3.085
69.92000 5.664
69.94000 2.045
69.96000 4.984
69.98000 4.702
70.00000 1.918
70.02000 -1.015
70.04000 0.137
70.06000 1.794
70.08000 0.994
70.10000 2.494
70.12000 -0.064
70.14000 -2.091
70.16000 2.495
70.18000 -0.348
70.20000 -1.652
70.22000 -1.743
70.24000 -1.228
70.26000 1.821
70.28000 0.287
70.30000 1.680
70.32000 1.105
70.34000 1.134
70.36000 1.261
70.38000 3.777
70.40000 1.466
70.42000 3.389
70.44000 0.708
70.46000 0.434
70.48000 1.337
70.50000 0.814
70.52000 0.464
70.54000 2.008
70.56000 1.941
70.58000 0.388
70.60000 2.550
70.62000 2.508
70.64000 -2.101
70.66000 -1.973
70.68000 -2.576
70.70000 0.973
70.72000 0.708
70.74000 2.126
70.76000 1.227
70.78000 2.493
70.80000 2.814
70.82000 6.353
70.84000 3.624
70.86000 3.815
70.88000 3.954
70.90000 5.285
70.92000 -0.844
70.94000 -2.435
70.96000 -2.534
70.98000 -1.052
71.00000 -0.651
71.02000 3.355
71.04000 2.667
71.06000 4.015
71.08000 0.333
71.10000 2.915
71.12000 3.205
71.14000 5.647
71.16000 4.136
71.18000 7.054
71.20000 10.533
71.22000 4.637
71.24000 1.955
71.26000 0.679
71.28000 0.429
71.30000 2.708
71.32000 2.159
71.34000 3.992
71.36000 1.724
71.38000 -0.070
71.40000 0.674
71.42000 3.743
71.44000 4.454
71.46000 -2.511
71.48000 1.185
71.50000 1.503
71.52000 5.484
71.54000 7.190
71.56000 4.443
71.58000 3.104
71.60000 3.461
71.62000 3.145
71.64000 4.280
71.66000 4.301
71.68000 3.868
71.70000 3.257
71.72000 3.724
71.74000 2.654
71.76000 2.112
71.78000 0.692
71.80000 1.427
71.82000 5.465
71.84000 3.828
71.86000 2.030
71.88000 4.526
71.90000 2.285
71.92000 1.909
71.94000 -0.311
71.96000 -0.870
71.98000 -0.316
72.00000 4.380
72.02000 -2.014
72.04000 1.403
72.06000 1.904
72.08000 2.761
72.10000 -2.480
72.12000 2.498
72.14000 5.778
72.16000 4.452
72.18000 1.678
72.20000 1.472
72.22000 1.582
72.24000 1.184
72.26000 2.609
72.28000 2.806
72.30000 -1.322
72.32000 -2.471
72.34000 0.853
72.36000 1.216
72.38000 0.541
72.40000 -0.977
72.42000 1.820
72.44000 3.308
72.46000 6.292
72.48000 5.437
72.50000 0.152
72.52000 -0.770
72.54000 1.514
72.56000 1.261
72.58000 0.458
72.60000 1.045
72.62000 0.100
72.64000 3.955
72.66000 4.503
72.68000 1.421
72.70000 2.334
72.72000 6.161
72.74000 6.611
72.76000 2.129
72.78000 2.913
72.80000 1.943
72.82000 5.189
72.84000 3.440
72.86000 3.006
72.88000 7.286
72.90000 1.545
72.92000 5.713
72.94000 4.099
72.96000 2.678
72.98000 2.209
73.00000 2.517
73.02000 0.107
73.04000 0.599
73.06000 2.764
73.08000 4.574
73.10000 5.183
73.12000 5.318
73.14000 6.009
73.16000 2.651
73.18000 0.798
73.20000 2.028
73.22000 3.375
73.24000 4.221
73.26000 1.176
73.28000 1.434
73.30000 3.774
73.32000 7.768
73.34000 5.252
73.36000 2.658
73.38000 0.723
73.40000 -2.387
73.42000 1.506
73.44000 2.972
73.46000 4.285
73.48000 5.107
73.50000 5.014
73.52000 6.170
73.54000 6.278
73.56000 2.032
73.58000 3.752
73.60000 4.499
73.62000 5.835
73.64000 3.922
73.66000 3.871
73.68000 5.954
73.70000 3.979
73.72000 5.056
73.74000 2.203
73.76000 2.264
73.78000 2.893
73.80000 4.711
73.82000 0.284
73.84000 1.695
73.86000 4.122
73.88000 3.705
73.90000 2.550
73.92000 5.894
73.94000 6.164
73.96000 3.830
73.98000 2.720
74.00000 0.781
74.02000 3.384
74.04000 3.771
74.06000 0.934
74.08000 4.639
74.10000 8.562
74.12000 7.620
74.14000 2.032
74.16000 0.334
74.18000 2.119
74.20000 4.979
74.22000 5.191
74.24000 4.482
74.26000 1.071
74.28000 3.577
74.30000 4.026
74.32000 3.992
74.34000 3.438
74.36000 10.270
74.38000 8.427
74.40000 3.750
74.42000 2.168
74.44000 -0.295
74.46000 -1.188
74.48000 -0.309
74.50000 0.540
74.52000 -1.879
74.54000 2.599
74.56000 2.821
74.58000 -0.759
74.60000 2.190
74.62000 3.195
74.64000 3.152
74.66000 3.921
74.68000 3.674
74.70000 -0.638
74.72000 -1.140
74.74000 3.108
74.76000 5.822
74.78000 2.852
74.80000 1.480
74.82000 -0.188
74.84000 3.209
74.86000 4.081
74.88000 1.519
74.90000 5.529
74.92000 6.595
74.94000 1.144
74.96000 -0.449
74.98000 -2.420
75.00000 4.440
75.02000 0.394
75.04000 1.381
75.06000 3.861
75.08000 -0.830
75.10000 -1.748
75.12000 -0.976
75.14000 0.490
75.16000 4.730
75.18000 5.664
75.20000 2.754
75.22000 -0.976
75.24000 -1.232
75.26000 -1.202
75.28000 0.421
75.30000 4.618
75.32000 5.043
75.34000 2.854
75.36000 -2.412
75.38000 3.305
75.40000 5.512
75.42000 2.180
75.44000 1.883
75.46000 3.787
75.48000 7.610
75.50000 8.221
75.52000 8.772
75.54000 1.613
75.56000 -2.412
75.58000 0.768
75.60000 4.867
75.62000 7.061
75.64000 2.667
75.66000 1.343
75.68000 6.227
75.70000 2.129
75.72000 6.201
75.74000 8.241
75.76000 5.460
75.78000 6.112
75.80000 7.548
75.82000 9.112
75.84000 6.973
75.86000 0.940
75.88000 -0.696
75.90000 -1.302
75.92000 2.592
75.94000 1.651
75.96000 0.188
75.98000 1.621
76.00000 4.933
76.02000 6.072
76.04000 5.000
76.06000 -2.123
76.08000 1.851
76.10000 4.300
76.12000 5.996
76.14000 7.162
76.16000 2.713
76.18000 2.495
76.20000 0.787
76.22000 3.845
76.24000 4.756
76.26000 1.670
76.28000 3.481
76.30000 5.666
76.32000 5.306
76.34000 3.673
76.36000 0.809
76.38000 0.011
76.40000 2.657
76.42000 1.817
76.44000 3.539
76.46000 4.555
76.48000 4.351
76.50000 7.940
76.52000 5.343
76.54000 -0.027
76.56000 0.405
76.58000 1.155
76.60000 5.089
76.62000 1.610
76.64000 2.468
76.66000 -0.407
76.68000 0.665
76.70000 1.274
76.72000 1.541
76.74000 2.620
76.76000 6.858
76.78000 3.322
76.80000 4.686
76.82000 6.336
76.84000 7.049
76.86000 6.141
76.88000 1.320
76.90000 2.505
76.92000 5.767
76.94000 3.825
76.96000 3.873
76.98000 1.235
77.00000 -2.399
77.02000 4.088
77.04000 7.877
77.06000 6.217
77.08000 6.490
77.10000 2.216
77.12000 3.609
77.14000 5.385
77.16000 4.988
77.18000 6.189
77.20000 2.002
77.22000 0.285
77.24000 1.566
77.26000 1.438
77.28000 2.657
77.30000 4.792
77.32000 2.033
77.34000 1.894
77.36000 3.910
77.38000 -0.143
77.40000 3.371
77.42000 6.148
77.44000 -1.414
77.46000 1.139
77.48000 6.371
77.50000 5.560
77.52000 2.810
77.54000 0.852
77.56000 2.955
77.58000 4.628
77.60000 0.200
77.62000 0.772
77.64000 -2.434
77.66000 2.163
77.68000 2.498
77.70000 0.334
77.72000 -0.085
77.74000 5.030
77.76000 6.137
77.78000 2.863
77.80000 -2.041
77.82000 -1.876
77.84000 6.289
77.86000 5.560
77.88000 3.121
77.90000 6.654
77.92000 4.067
77.94000 4.352
77.96000 5.177
77.98000 4.448
78.00000 5.721
78.02000 7.854
78.04000 3.053
78.06000 2.162
78.08000 -0.013
78.10000 0.233
78.12000 -2.453
78.14000 -0.871
78.16000 4.906
78.18000 2.246
78.20000 1.319
78.22000 2.420
78.24000 2.577
78.26000 3.722
78.28000 1.859
78.30000 3.455
78.32000 7.073
78.34000 5.366
78.36000 -0.267
78.38000 4.357
78.40000 5.718
78.42000 6.318
78.44000 6.395
78.46000 6.052
78.48000 4.366
78.50000 4.024
78.52000 7.612
78.54000 8.598
78.56000 2.332
78.58000 2.423
78.60000 6.629
78.62000 3.362
78.64000 8.917
78.66000 9.509
78.68000 4.938
78.70000 5.786
78.72000 11.067
78.74000 7.008
78.76000 1.581
78.78000 -0.080
78.80000 3.536
78.82000 4.282
78.84000 3.361
78.86000 4.146
78.88000 6.312
78.90000 6.155
78.92000 2.652
78.94000 1.952
78.96000 3.790
78.98000 5.044
79.00000 3.239
79.02000 5.363
79.04000 8.846
79.06000 9.102
79.08000 4.644
79.10000 4.834
79.12000 2.536
79.14000 -0.425
79.16000 2.622
79.18000 3.444
79.20000 5.126
79.22000 8.255
79.24000 8.211
79.26000 4.296
79.28000 3.517
79.30000 5.206
79.32000 10.443
79.34000 4.699
79.36000 0.934
79.38000 1.462
79.40000 2.393
79.42000 6.224
79.44000 1.950
79.46000 1.108
79.48000 3.707
79.50000 5.636
79.52000 6.173
79.54000 9.650
79.56000 4.208
79.58000 -2.449
79.60000 -0.893
79.62000 0.838
79.64000 1.473
79.66000 4.165
79.68000 1.471
79.70000 6.059
79.72000 7.738
79.74000 6.213
79.76000 5.154
79.78000 -0.658
79.80000 2.303
79.82000 4.680
79.84000 12.160
79.86000 9.354
79.88000 2.585
79.90000 6.360
79.92000 7.281
79.94000 9.222
79.96000 4.181
79.98000 3.828
80.00000 2.861
80.02000 0.967
80.04000 1.902
80.06000 2.340
80.08000 0.911
80.10000 -1.200
80.12000 0.799
80.14000 3.504
80.16000 4.255
80.18000 0.821
80.20000 2.793
80.22000 1.121
80.24000 3.621
80.26000 8.602
80.28000 3.715
80.30000 1.483
80.32000 4.686
80.34000 5.355
80.36000 1.913
80.38000 2.215
80.40000 0.192
80.42000 1.381
80.44000 7.038
80.46000 4.946
80.48000 0.135
80.50000 0.656
80.52000 1.610
80.54000 8.564
80.56000 6.415
80.58000 6.541
80.60000 6.675
80.62000 3.532
80.64000 3.891
80.66000 6.752
80.68000 5.435
80.70000 6.521
80.72000 9.666
80.74000 0.846
80.76000 -2.561
80.78000 1.092
80.80000 2.919
80.82000 2.892
80.84000 3.548
80.86000 4.920
80.88000 6.116
80.90000 3.578
80.92000 3.935
80.94000 2.599
80.96000 4.954
80.98000 11.238
81.00000 9.548
81.02000 5.214
81.04000 2.586
81.06000 3.917
81.08000 7.867
81.10000 7.930
81.12000 7.828
81.14000 8.740
81.16000 14.067
81.18000 9.273
81.20000 2.725
81.22000 -1.867
81.24000 5.402
81.26000 3.221
81.28000 3.769
81.30000 1.820
81.32000 2.752
81.34000 2.640
81.36000 0.482
81.38000 7.948
81.40000 11.592
81.42000 9.551
81.44000 10.140
81.46000 8.741
81.48000 12.936
81.50000 11.181
81.52000 8.592
81.54000 9.961
81.56000 8.274
81.58000 9.790
81.60000 5.629
81.62000 2.127
81.64000 12.111
81.66000 8.806
81.68000 5.628
81.70000 4.661
81.72000 10.018
81.74000 10.554
81.76000 7.403
81.78000 5.563
81.80000 5.750
81.82000 8.486
81.84000 9.707
81.86000 6.493
81.88000 11.701
81.90000 14.510
81.92000 15.012
81.94000 14.926
81.96000 9.925
81.98000 9.772
82.00000 10.998
82.02000 12.733
82.04000 11.909
82.06000 12.971
82.08000 16.579
82.10000 16.394
82.12000 18.992
82.14000 15.920
82.16000 12.635
82.18000 18.259
82.20000 21.027
82.22000 19.035
82.24000 18.324
82.26000 23.066
82.28000 21.835
82.30000 18.305
82.32000 17.863
82.34000 15.233
82.36000 8.999
82.38000 15.084
82.40000 16.417
82.42000 18.974
82.44000 22.778
82.46000 21.580
82.48000 18.280
82.50000 14.315
82.52000 19.457
82.54000 17.570
82.56000 19.876
82.58000 25.590
82.60000 23.651
82.62000 23.621
82.64000 23.979
82.66000 24.564
82.68000 23.093
82.70000 24.102
82.72000 23.777
82.74000 21.507
82.76000 26.700
82.78000 26.639
82.80000 18.448
82.82000 18.425
82.84000 27.477
82.86000 27.989
82.88000 28.357
82.90000 26.497
82.92000 20.739
82.94000 18.809
82.96000 20.760
82.98000 18.014
83.00000 21.902
83.02000 28.704
83.04000 26.155
83.06000 27.101
83.08000 25.199
83.10000 18.287
83.12000 21.071
83.14000 20.365
83.16000 23.565
83.18000 27.138
83.20000 23.094
83.22000 21.966
83.24000 25.387
83.26000 25.949
83.28000 23.082
83.30000 27.051
83.32000 24.652
83.34000 20.800
83.36000 22.735
83.38000 22.086
83.40000 22.205
83.42000 22.810
83.44000 20.865
83.46000 20.724
83.48000 17.268
83.50000 14.526
83.52000 16.695
83.54000 15.216
83.56000 15.681
83.58000 14.765
83.60000 13.284
83.62000 20.765
83.64000 15.833
83.66000 11.596
83.68000 14.551
83.70000 12.650
83.72000 10.910
83.74000 17.520
83.76000 16.734
83.78000 16.242
83.80000 16.227
83.82000 3.819
83.84000 11.646
83.86000 12.781
83.88000 14.605
83.90000 13.114
83.92000 13.868
83.94000 13.047
83.96000 9.733
83.98000 13.480
84.00000 12.239
84.02000 11.480
84.04000 10.666
84.06000 7.876
84.08000 4.124
84.10000 8.290
84.12000 2.413
84.14000 4.865
84.16000 1.199
84.18000 3.090
84.20000 8.530
84.22000 7.165
84.24000 6.360
84.26000 11.624
84.28000 5.997
84.30000 1.649
84.32000 0.684
84.34000 6.600
84.36000 9.318
84.38000 4.870
84.40000 5.702
84.42000 6.779
84.44000 8.088
84.46000 6.595
84.48000 6.544
84.50000 7.240
84.52000 0.878
84.54000 8.379
84.56000 8.304
84.58000 8.747
84.60000 8.170
84.62000 9.610
84.64000 5.077
84.66000 4.036
84.68000 3.436
84.70000 -0.826
84.72000 0.475
84.74000 5.742
84.76000 8.479
84.78000 5.513
84.80000 6.568
84.82000 9.141
84.84000 6.772
84.86000 3.872
84.88000 1.167
84.90000 1.975
84.92000 4.516
84.94000 2.886
84.96000 5.769
84.98000 3.481
85.00000 1.688
85.02000 0.533
85.04000 -2.522
85.06000 3.948
85.08000 5.519
85.10000 2.219
85.12000 2.027
85.14000 3.249
85.16000 3.052
85.18000 1.524
85.20000 -0.649
85.22000 1.107
85.24000 5.086
85.26000 6.444
85.28000 8.525
85.30000 4.079
85.32000 3.283
85.34000 4.140
85.36000 5.345
85.38000 4.759
85.40000 2.735
85.42000 7.272
85.44000 4.039
85.46000 1.747
85.48000 -2.452
85.50000 2.899
85.52000 7.569
85.54000 4.990
85.56000 6.515
85.58000 7.201
85.60000 7.744
85.62000 6.444
85.64000 5.242
85.66000 2.700
85.68000 2.921
85.70000 10.125
85.72000 13.047
85.74000 12.584
85.76000 5.862
85.78000 0.475
85.80000 0.189
85.82000 -0.494
85.84000 0.033
85.86000 3.096
85.88000 0.675
85.90000 4.333
85.92000 7.136
85.94000 10.019
85.96000 7.341
85.98000 3.931
86.00000 12.381
86.02000 7.114
86.04000 5.973
86.06000 6.073
86.08000 2.341
86.10000 -2.501
86.12000 3.624
86.14000 4.659
86.16000 6.353
86.18000 8.608
86.20000 12.517
86.22000 7.968
86.24000 6.832
86.26000 3.065
86.28000 1.453
86.30000 4.782
86.32000 2.877
86.34000 8.182
86.36000 9.369
86.38000 8.863
86.40000 9.745
86.42000 2.932
86.44000 4.055
86.46000 5.969
86.48000 8.250
86.50000 10.361
86.52000 9.698
86.54000 2.373
86.56000 0.468
86.58000 5.290
86.60000 4.385
86.62000 2.845
86.64000 8.324
86.66000 8.833
86.68000 6.293
86.70000 4.301
86.72000 4.886
86.74000 11.678
86.76000 14.777
86.78000 7.978
86.80000 9.180
86.82000 6.007
86.84000 5.283
86.86000 11.171
86.88000 11.594
86.90000 9.985
86.92000 6.710
86.94000 9.265
86.96000 12.934
86.98000 11.225
87.00000 11.523
87.02000 14.616
87.04000 16.980
87.06000 18.645
87.08000 15.706
87.10000 20.127
87.12000 19.242
87.14000 19.253
87.16000 14.306
87.18000 11.869
87.20000 14.626
87.22000 22.087
87.24000 26.195
87.26000 19.689
87.28000 21.504
87.30000 22.642
87.32000 24.597
87.34000 23.851
87.36000 20.224
87.38000 25.487
87.40000 20.305
87.42000 17.901
87.44000 17.261
87.46000 21.047
87.48000 26.601
87.50000 20.532
87.52000 16.278
87.54000 18.316
87.56000 21.669
87.58000 21.191
87.60000 25.459
87.62000 24.751
87.64000 19.711
87.66000 15.842
87.68000 17.274
87.70000 13.650
87.72000 12.994
87.74000 16.803
87.76000 19.345
87.78000 18.200
87.80000 18.554
87.82000 15.248
87.84000 19.290
87.86000 17.387
87.88000 12.171
87.90000 9.468
87.92000 12.514
87.94000 17.389
87.96000 20.716
87.98000 18.929
88.00000 17.990
88.02000 13.440
88.04000 13.538
88.06000 11.796
88.08000 13.313
88.10000 11.235
88.12000 11.283
88.14000 11.064
88.16000 13.754
88.18000 12.579
88.20000 18.667
88.22000 12.665
88.24000 8.138
88.26000 3.395
88.28000 7.165
88.30000 9.205
88.32000 10.303
88.34000 5.323
88.36000 5.363
88.38000 9.901
88.40000 12.218
88.42000 14.752
88.44000 9.646
88.46000 6.562
88.48000 3.453
88.50000 3.468
88.52000 9.866
88.54000 9.493
88.56000 10.139
88.58000 8.646
88.60000 6.095
88.62000 8.666
88.64000 4.539
88.66000 2.926
88.68000 6.932
88.70000 6.563
88.72000 5.857
88.74000 4.766
88.76000 2.098
88.78000 -0.205
88.80000 0.544
88.82000 4.449
88.84000 3.228
88.86000 0.825
88.88000 -2.443
88.90000 0.001
88.92000 2.194
88.94000 5.082
88.96000 4.129
88.98000 0.579
89.00000 2.309
89.02000 2.390
89.04000 3.036
89.06000 4.515
89.08000 4.736
89.10000 6.009
89.12000 3.280
89.14000 0.921
89.16000 1.038
89.18000 5.226
89.20000 3.229
89.22000 3.118
89.24000 5.510
89.26000 1.104
89.28000 3.116
89.30000 0.656
89.32000 0.293
89.34000 -1.702
89.36000 -0.048
89.38000 0.731
89.40000 -0.825
89.42000 -1.170
89.44000 -2.388
89.46000 3.961
89.48000 2.492
89.50000 -0.506
89.52000 -0.033
89.54000 2.097
89.56000 3.612
89.58000 2.556
89.60000 -2.371
89.62000 -2.320
89.64000 -0.954
89.66000 0.397
89.68000 1.157
89.70000 1.872
89.72000 -0.430
89.74000 0.640
89.76000 3.473
89.78000 7.562
89.80000 4.487
89.82000 6.367
89.84000 1.057
89.86000 5.561
89.88000 5.206
89.90000 4.049
89.92000 2.190
89.94000 4.612
89.96000 5.302
89.98000 3.712
90.00000 3.490
90.02000 4.292
90.04000 4.281
90.06000 2.533
90.08000 2.136
90.10000 -2.209
90.12000 -2.324
90.14000 -2.258
90.16000 3.083
90.18000 6.660
90.20000 3.700
90.22000 5.307
90.24000 8.246
90.26000 7.303
90.28000 1.507
90.30000 2.214
90.32000 1.524
90.34000 4.942
90.36000 -0.549
90.38000 0.484
90.40000 4.053
90.42000 2.361
90.44000 2.598
90.46000 -0.811
90.48000 2.896
90.50000 4.659
90.52000 6.452
90.54000 2.702
90.56000 1.867
90.58000 0.034
90.60000 -0.424
90.62000 -2.305
90.64000 0.484
90.66000 4.535
90.68000 5.427
90.70000 1.162
90.72000 -0.342
90.74000 4.312
90.76000 6.324
90.78000 -0.564
90.80000 1.134
90.82000 0.123
90.84000 -0.984
90.86000 5.389
90.88000 8.393
90.90000 5.249
90.92000 1.944
90.94000 3.917
90.96000 6.073
90.98000 3.745
91.00000 1.498
91.02000 -1.842
91.04000 -0.455
91.06000 -1.094
91.08000 0.945
91.10000 4.188
91.12000 6.951
91.14000 4.778
91.16000 3.911
91.18000 2.115
91.20000 0.071
91.22000 2.436
91.24000 4.671
91.26000 2.855
91.28000 4.626
91.30000 6.136
91.32000 4.539
91.34000 3.610
91.36000 7.563
91.38000 2.332
91.40000 4.137
91.42000 3.535
91.44000 4.168
91.46000 4.240
91.48000 0.034
91.50000 2.009
91.52000 6.000
91.54000 3.436
91.56000 2.105
91.58000 1.303
91.60000 -2.282
91.62000 -0.440
91.64000 1.239
91.66000 4.912
91.68000 7.055
91.70000 1.759
91.72000 1.882
91.74000 6.031
91.76000 0.834
91.78000 2.567
91.80000 2.757
91.82000 10.355
91.84000 7.760
91.86000 7.174
91.88000 4.048
91.90000 4.682
91.92000 7.469
91.94000 7.342
91.96000 1.772
91.98000 2.573
92.00000 -2.260
92.02000 3.108
92.04000 6.618
92.06000 9.366
92.08000 7.704
92.10000 6.870
92.12000 3.995
92.14000 6.765
92.16000 2.473
92.18000 6.562
92.20000 5.161
92.22000 5.708
92.24000 2.923
92.26000 9.894
92.28000 5.415
92.30000 5.302
92.32000 5.382
92.34000 3.376
92.36000 4.201
92.38000 4.027
92.40000 3.344
92.42000 4.209
92.44000 1.468
92.46000 1.762
92.48000 5.259
92.50000 6.951
92.52000 4.668
92.54000 3.101
92.56000 5.623
92.58000 0.259
92.60000 3.640
92.62000 3.851
92.64000 4.787
92.66000 6.216
92.68000 5.816
92.70000 5.254
92.72000 3.234
92.74000 3.960
92.76000 6.122
92.78000 5.909
92.80000 9.734
92.82000 9.034
92.84000 9.044
92.86000 4.659
92.88000 5.095
92.90000 9.932
92.92000 4.706
92.94000 2.484
92.96000 1.388
92.98000 0.859
93.00000 4.015
93.02000 4.767
93.04000 5.253
93.06000 8.228
93.08000 6.719
93.10000 7.066
93.12000 9.807
93.14000 6.730
93.16000 -2.265
93.18000 -1.461
93.20000 5.089
93.22000 8.373
93.24000 3.776
93.26000 6.075
93.28000 7.412
93.30000 9.393
93.32000 11.166
93.34000 11.582
93.36000 8.255
93.38000 6.586
93.40000 2.826
93.42000 5.014
93.44000 9.048
93.46000 6.334
93.48000 6.041
93.50000 3.977
93.52000 5.588
93.54000 6.234
93.56000 8.511
93.58000 5.054
93.60000 5.905
93.62000 5.359
93.64000 0.772
93.66000 0.581
93.68000 5.416
93.70000 9.508
93.72000 10.370
93.74000 6.122
93.76000 3.741
93.78000 3.617
93.80000 1.664
93.82000 4.002
93.84000 -0.537
93.86000 -2.292
93.88000 5.270
93.90000 9.075
93.92000 3.115
93.94000 2.929
93.96000 6.555
93.98000 0.558
94.00000 0.289
94.02000 6.505
94.04000 8.534
94.06000 6.230
94.08000 4.407
94.10000 4.998
94.12000 3.782
94.14000 1.410
94.16000 3.937
94.18000 3.201
94.20000 -0.235
94.22000 3.163
94.24000 8.193
94.26000 6.762
94.28000 7.650
94.30000 6.381
94.32000 5.001
94.34000 4.507
94.36000 8.054
94.38000 6.042
94.40000 8.823
94.42000 5.911
94.44000 1.485
94.46000 1.328
94.48000 3.928
94.50000 8.141
94.52000 12.764
94.54000 3.206
94.56000 -1.378
94.58000 -2.101
94.60000 3.790
94.62000 -0.779
94.64000 -2.313
94.66000 -1.877
94.68000 -1.008
94.70000 2.218
94.72000 1.035
94.74000 3.598
94.76000 6.554
94.78000 5.802
94.80000 5.606
94.82000 9.835
94.84000 8.260
94.86000 2.296
94.88000 4.155
94.90000 0.862
94.92000 1.793
94.94000 3.493
94.96000 2.625
94.98000 3.283
95.00000 4.044
95.02000 5.187
95.04000 0.596
95.06000 2.527
95.08000 5.477
95.10000 -0.041
95.12000 2.670
95.14000 1.667
95.16000 -1.055
95.18000 4.570
95.20000 7.737
95.22000 9.998
95.24000 6.514
95.26000 2.055
95.28000 3.433
95.30000 2.589
95.32000 1.383
95.34000 2.628
95.36000 8.212
95.38000 8.406
95.40000 5.387
95.42000 1.476
95.44000 5.063
95.46000 11.695
95.48000 8.203
95.50000 7.148
95.52000 6.173
95.54000 4.303
95.56000 5.273
95.58000 5.030
95.60000 5.763
95.62000 3.030
95.64000 -1.850
95.66000 4.168
95.68000 9.888
95.70000 9.585
95.72000 9.921
95.74000 5.919
95.76000 4.205
95.78000 6.148
95.80000 6.874
95.82000 7.045
95.84000 7.508
95.86000 11.837
95.88000 9.093
95.90000 9.553
95.92000 9.606
95.94000 5.978
95.96000 2.312
95.98000 5.668
96.00000 5.085
96.02000 6.900
96.04000 10.027
96.06000 7.576
96.08000 4.191
96.10000 1.770
96.12000 6.249
96.14000 9.818
96.16000 4.697
96.18000 1.946
96.20000 3.474
96.22000 5.762
96.24000 7.387
96.26000 8.313
96.28000 9.934
96.30000 11.686
96.32000 12.389
96.34000 10.038
96.36000 9.607
96.38000 4.089
96.40000 6.704
96.42000 10.901
96.44000 10.717
96.46000 2.941
96.48000 -3.077
96.50000 8.263
96.52000 14.603
96.54000 7.960
96.56000 7.568
96.58000 10.283
96.60000 12.580
96.62000 14.183
96.64000 12.906
96.66000 14.685
96.68000 11.713
96.70000 10.932
96.72000 6.278
96.74000 10.014
96.76000 7.844
96.78000 6.083
96.80000 10.787
96.82000 7.116
96.84000 5.564
96.86000 9.194
96.88000 12.258
96.90000 15.990
96.92000 7.468
96.94000 3.073
96.96000 2.655
96.98000 5.971
97.00000 8.211
97.02000 1.377
97.04000 4.495
97.06000 5.434
97.08000 8.708
97.10000 9.010
97.12000 4.555
97.14000 1.035
97.16000 -0.400
97.18000 0.124
97.20000 5.257
97.22000 5.981
97.24000 12.733
97.26000 10.680
97.28000 5.714
97.30000 2.066
97.32000 -0.190
97.34000 2.260
97.36000 7.701
97.38000 12.828
97.40000 14.698
97.42000 10.449
97.44000 10.999
97.46000 4.298
97.48000 3.010
97.50000 9.530
97.52000 6.808
97.54000 11.825
97.56000 11.278
97.58000 9.403
97.60000 2.365
97.62000 8.446
97.64000 3.022
97.66000 2.851
97.68000 5.410
97.70000 9.947
97.72000 3.775
97.74000 3.180
97.76000 5.131
97.78000 7.494
97.80000 8.049
97.82000 0.483
97.84000 1.421
97.86000 12.143
97.88000 6.108
97.90000 4.985
97.92000 5.662
97.94000 5.439
97.96000 8.027
97.98000 0.302
98.00000 1.899
98.02000 6.474
98.04000 9.922
98.06000 7.692
98.08000 8.048
98.10000 8.345
98.12000 10.285
98.14000 7.925
98.16000 7.134
98.18000 15.252
98.20000 14.857
98.22000 8.702
98.24000 3.136
98.26000 -0.095
98.28000 -1.057
98.30000 -0.550
98.32000 5.959
98.34000 12.071
98.36000 5.005
98.38000 5.041
98.40000 0.961
98.42000 6.880
98.44000 3.041
98.46000 7.264
98.48000 3.276
98.50000 13.974
98.52000 4.948
98.54000 3.905
98.56000 8.152
98.58000 9.541
98.60000 10.803
98.62000 10.633
98.64000 8.562
98.66000 13.193
98.68000 9.852
98.70000 9.496
98.72000 11.525
98.74000 9.738
98.76000 -0.193
98.78000 0.075
98.80000 5.033
98.82000 6.849
98.84000 3.513
98.86000 18.551
98.88000 13.920
98.90000 3.021
98.92000 8.550
98.94000 0.349
98.96000 2.162
98.98000 7.517
99.00000 2.747
99.02000 6.235
99.04000 6.830
99.06000 6.455
99.08000 7.225
99.10000 6.198
99.12000 8.420
99.14000 1.052
99.16000 -2.155
99.18000 3.977
99.20000 2.710
99.22000 11.579
99.24000 10.886
99.26000 13.675
99.28000 12.866
99.30000 16.979
99.32000 13.226
99.34000 11.844
99.36000 6.079
99.38000 7.269
99.40000 1.574
99.42000 5.383
99.44000 23.695
99.46000 21.112
99.48000 15.252
99.50000 11.372
99.52000 9.959
99.54000 14.508
99.56000 8.616
99.58000 -2.033
99.60000 5.954
99.62000 8.417
99.64000 13.825
99.66000 10.382
99.68000 7.132
99.70000 7.676
99.72000 4.083
99.74000 10.796
99.76000 10.520
99.78000 16.874
99.80000 13.616
99.82000 10.992
99.84000 17.861
99.86000 6.268
99.88000 14.737
99.90000 14.182
99.92000 9.116
99.94000 25.861
99.96000 17.565
99.98000 0.000
