'Id: "0011387" Comment: "Integrate frame 0011387_Au-Ir-Rh_Rh-rich_XRD-Mapping-261-0000.gfrmwith cursor Wedge Cursor #5" Operator: "B?rgel" Anode: "Cu" Wavelength: "1.5406" Scantype: "2Theta (TwoTheta)" TimePerStep: "1" X: "-36" Y: "22.5" Z: "5.95" 
10.00000 0.000
10.02000 4.015
10.04000 -4.664
10.06000 -1.087
10.08000 12.349
10.10000 21.543
10.12000 21.123
10.14000 8.656
10.16000 6.769
10.18000 -4.401
10.20000 6.597
10.22000 17.704
10.24000 18.224
10.26000 24.783
10.28000 16.158
10.30000 29.046
10.32000 39.511
10.34000 29.393
10.36000 12.729
10.38000 15.727
10.40000 27.682
10.42000 31.722
10.44000 32.627
10.46000 25.500
10.48000 22.834
10.50000 28.212
10.52000 30.886
10.54000 43.801
10.56000 33.589
10.58000 37.404
10.60000 36.175
10.62000 41.055
10.64000 17.389
10.66000 14.193
10.68000 25.676
10.70000 18.252
10.72000 -2.210
10.74000 8.264
10.76000 15.443
10.78000 13.836
10.80000 22.062
10.82000 17.354
10.84000 23.937
10.86000 25.684
10.88000 17.400
10.90000 13.577
10.92000 30.092
10.94000 33.392
10.96000 21.818
10.98000 13.516
11.00000 17.353
11.02000 5.145
11.04000 16.583
11.06000 31.373
11.08000 19.836
11.10000 12.051
11.12000 7.350
11.14000 3.417
11.16000 21.450
11.18000 22.500
11.20000 18.393
11.22000 3.572
11.24000 20.374
11.26000 18.941
11.28000 23.129
11.30000 25.473
11.32000 28.938
11.34000 26.495
11.36000 20.893
11.38000 16.826
11.40000 15.015
11.42000 28.954
11.44000 36.501
11.46000 23.385
11.48000 16.914
11.50000 16.270
11.52000 11.723
11.54000 19.008
11.56000 17.218
11.58000 13.739
11.60000 8.803
11.62000 13.683
11.64000 7.293
11.66000 14.337
11.68000 23.755
11.70000 22.909
11.72000 19.307
11.74000 20.781
11.76000 20.509
11.78000 14.214
11.80000 26.489
11.82000 19.086
11.84000 6.228
11.86000 9.666
11.88000 4.048
11.90000 6.506
11.92000 10.619
11.94000 8.910
11.96000 25.847
11.98000 21.169
12.00000 4.364
12.02000 8.876
12.04000 16.186
12.06000 15.902
12.08000 14.141
12.10000 13.050
12.12000 18.157
12.14000 21.060
12.16000 20.130
12.18000 18.576
12.20000 9.928
12.22000 9.078
12.24000 26.389
12.26000 22.069
12.28000 12.060
12.30000 16.430
12.32000 22.081
12.34000 25.523
12.36000 18.609
12.38000 19.852
12.40000 24.600
12.42000 16.149
12.44000 21.630
12.46000 19.327
12.48000 14.716
12.50000 16.004
12.52000 3.803
12.54000 -4.449
12.56000 10.982
12.58000 24.537
12.60000 34.939
12.62000 25.725
12.64000 17.250
12.66000 28.128
12.68000 30.898
12.70000 22.885
12.72000 15.773
12.74000 11.997
12.76000 18.361
12.78000 14.447
12.80000 22.203
12.82000 13.618
12.84000 6.125
12.86000 1.709
12.88000 7.196
12.90000 13.625
12.92000 17.598
12.94000 18.011
12.96000 12.041
12.98000 2.098
13.00000 10.326
13.02000 9.810
13.04000 4.467
13.06000 14.218
13.08000 9.341
13.10000 4.990
13.12000 10.339
13.14000 12.843
13.16000 7.441
13.18000 4.549
13.20000 5.075
13.22000 11.685
13.24000 6.231
13.26000 8.955
13.28000 11.032
13.30000 6.098
13.32000 8.421
13.34000 14.824
13.36000 7.420
13.38000 13.941
13.40000 13.075
13.42000 6.288
13.44000 17.693
13.46000 19.430
13.48000 11.248
13.50000 10.514
13.52000 13.970
13.54000 15.419
13.56000 11.228
13.58000 18.037
13.60000 11.655
13.62000 0.428
13.64000 4.563
13.66000 14.808
13.68000 20.703
13.70000 15.409
13.72000 25.390
13.74000 19.942
13.76000 18.212
13.78000 29.550
13.80000 15.416
13.82000 2.242
13.84000 1.124
13.86000 7.012
13.88000 1.340
13.90000 8.950
13.92000 8.605
13.94000 14.226
13.96000 17.891
13.98000 13.012
14.00000 -1.675
14.02000 1.746
14.04000 4.781
14.06000 6.767
14.08000 12.069
14.10000 5.873
14.12000 4.747
14.14000 9.138
14.16000 5.430
14.18000 9.839
14.20000 10.816
14.22000 3.135
14.24000 13.299
14.26000 14.193
14.28000 13.828
14.30000 0.323
14.32000 -1.769
14.34000 4.291
14.36000 0.827
14.38000 0.032
14.40000 13.338
14.42000 19.187
14.44000 20.872
14.46000 7.659
14.48000 9.924
14.50000 11.176
14.52000 3.976
14.54000 4.197
14.56000 3.799
14.58000 0.772
14.60000 3.531
14.62000 2.058
14.64000 -2.142
14.66000 6.791
14.68000 4.700
14.70000 1.960
14.72000 12.258
14.74000 2.180
14.76000 6.108
14.78000 9.393
14.80000 3.409
14.82000 6.448
14.84000 1.071
14.86000 2.166
14.88000 11.296
14.90000 14.640
14.92000 6.120
14.94000 10.546
14.96000 16.263
14.98000 10.833
15.00000 9.789
15.02000 8.494
15.04000 11.468
15.06000 13.694
15.08000 11.231
15.10000 3.567
15.12000 4.755
15.14000 3.534
15.16000 -2.316
15.18000 -0.174
15.20000 10.147
15.22000 2.222
15.24000 -4.487
15.26000 -3.765
15.28000 9.269
15.30000 13.660
15.32000 8.917
15.34000 7.984
15.36000 10.370
15.38000 6.853
15.40000 2.415
15.42000 7.575
15.44000 7.491
15.46000 5.440
15.48000 12.130
15.50000 11.988
15.52000 1.193
15.54000 4.004
15.56000 5.809
15.58000 3.871
15.60000 3.298
15.62000 11.683
15.64000 12.276
15.66000 14.190
15.68000 7.609
15.70000 10.353
15.72000 10.093
15.74000 6.820
15.76000 9.572
15.78000 7.501
15.80000 4.357
15.82000 -3.472
15.84000 3.158
15.86000 6.396
15.88000 3.193
15.90000 4.101
15.92000 9.147
15.94000 6.563
15.96000 -3.545
15.98000 8.685
16.00000 8.000
16.02000 6.216
16.04000 5.005
16.06000 3.611
16.08000 2.162
16.10000 4.043
16.12000 1.220
16.14000 -4.305
16.16000 1.949
16.18000 2.286
16.20000 5.923
16.22000 7.058
16.24000 2.771
16.26000 -3.677
16.28000 1.179
16.30000 6.930
16.32000 9.302
16.34000 -0.061
16.36000 -2.220
16.38000 7.863
16.40000 7.413
16.42000 3.110
16.44000 4.385
16.46000 9.791
16.48000 10.656
16.50000 6.998
16.52000 11.676
16.54000 14.614
16.56000 0.213
16.58000 2.271
16.60000 9.891
16.62000 11.185
16.64000 5.434
16.66000 3.808
16.68000 1.674
16.70000 2.179
16.72000 7.756
16.74000 6.646
16.76000 3.509
16.78000 5.274
16.80000 2.157
16.82000 -4.409
16.84000 2.277
16.86000 13.070
16.88000 12.636
16.90000 7.518
16.92000 -0.023
16.94000 0.194
16.96000 2.339
16.98000 -0.859
17.00000 0.226
17.02000 2.731
17.04000 7.870
17.06000 6.486
17.08000 6.819
17.10000 2.246
17.12000 5.195
17.14000 7.472
17.16000 4.390
17.18000 8.870
17.20000 14.228
17.22000 5.913
17.24000 0.277
17.26000 -2.346
17.28000 2.877
17.30000 3.463
17.32000 4.863
17.34000 5.763
17.36000 3.788
17.38000 0.141
17.40000 -2.231
17.42000 -1.064
17.44000 -2.079
17.46000 -1.332
17.48000 -0.288
17.50000 -3.673
17.52000 1.663
17.54000 1.606
17.56000 5.927
17.58000 4.996
17.60000 5.861
17.62000 3.940
17.64000 2.026
17.66000 10.894
17.68000 13.648
17.70000 10.075
17.72000 0.126
17.74000 6.544
17.76000 7.855
17.78000 6.778
17.80000 2.843
17.82000 -0.910
17.84000 -1.955
17.86000 -1.033
17.88000 1.282
17.90000 1.897
17.92000 8.437
17.94000 7.502
17.96000 1.642
17.98000 2.877
18.00000 1.803
18.02000 -2.717
18.04000 1.607
18.06000 7.616
18.08000 5.074
18.10000 4.011
18.12000 5.826
18.14000 6.687
18.16000 0.888
18.18000 3.558
18.20000 1.660
18.22000 -1.343
18.24000 -1.822
18.26000 0.983
18.28000 4.968
18.30000 -1.220
18.32000 6.722
18.34000 6.848
18.36000 3.176
18.38000 -0.372
18.40000 -2.927
18.42000 2.609
18.44000 2.755
18.46000 1.520
18.48000 0.471
18.50000 2.653
18.52000 10.476
18.54000 10.213
18.56000 7.206
18.58000 -1.865
18.60000 -2.920
18.62000 -4.317
18.64000 -4.315
18.66000 3.335
18.68000 3.506
18.70000 2.669
18.72000 9.833
18.74000 7.367
18.76000 3.802
18.78000 -2.842
18.80000 0.192
18.82000 4.876
18.84000 2.726
18.86000 6.249
18.88000 3.859
18.90000 5.572
18.92000 13.355
18.94000 5.815
18.96000 5.721
18.98000 1.401
19.00000 2.086
19.02000 5.731
19.04000 6.097
19.06000 8.986
19.08000 4.045
19.10000 -0.122
19.12000 0.169
19.14000 -2.576
19.16000 2.402
19.18000 5.541
19.20000 10.721
19.22000 10.523
19.24000 9.033
19.26000 4.480
19.28000 6.960
19.30000 -4.269
19.32000 -0.294
19.34000 7.482
19.36000 6.787
19.38000 5.105
19.40000 5.103
19.42000 7.291
19.44000 7.355
19.46000 6.226
19.48000 4.438
19.50000 0.744
19.52000 -4.115
19.54000 0.855
19.56000 1.885
19.58000 3.680
19.60000 -4.087
19.62000 2.258
19.64000 9.092
19.66000 3.090
19.68000 4.903
19.70000 4.998
19.72000 2.571
19.74000 3.164
19.76000 4.580
19.78000 1.054
19.80000 3.028
19.82000 6.886
19.84000 4.985
19.86000 9.902
19.88000 1.959
19.90000 3.310
19.92000 3.362
19.94000 4.849
19.96000 0.247
19.98000 4.580
20.00000 3.666
20.02000 3.295
20.04000 1.046
20.06000 0.257
20.08000 3.510
20.10000 2.529
20.12000 1.120
20.14000 3.145
20.16000 3.791
20.18000 0.261
20.20000 0.861
20.22000 4.239
20.24000 9.798
20.26000 8.149
20.28000 8.411
20.30000 2.970
20.32000 -1.176
20.34000 0.011
20.36000 7.951
20.38000 14.880
20.40000 10.590
20.42000 0.443
20.44000 -1.532
20.46000 -2.673
20.48000 2.822
20.50000 10.959
20.52000 2.580
20.54000 -4.189
20.56000 7.971
20.58000 6.178
20.60000 1.251
20.62000 4.183
20.64000 5.687
20.66000 6.806
20.68000 3.481
20.70000 11.713
20.72000 15.663
20.74000 11.753
20.76000 15.506
20.78000 12.003
20.80000 6.162
20.82000 2.628
20.84000 0.100
20.86000 3.824
20.88000 0.534
20.90000 -4.157
20.92000 1.384
20.94000 9.328
20.96000 5.870
20.98000 1.357
21.00000 7.718
21.02000 12.727
21.04000 11.237
21.06000 4.818
21.08000 1.610
21.10000 6.557
21.12000 7.691
21.14000 2.637
21.16000 5.393
21.18000 -0.133
21.20000 2.969
21.22000 8.263
21.24000 14.351
21.26000 13.185
21.28000 6.914
21.30000 10.363
21.32000 10.131
21.34000 6.632
21.36000 4.953
21.38000 7.267
21.40000 9.650
21.42000 10.675
21.44000 0.997
21.46000 -4.110
21.48000 7.536
21.50000 12.151
21.52000 11.502
21.54000 11.159
21.56000 11.971
21.58000 7.186
21.60000 2.802
21.62000 7.928
21.64000 10.934
21.66000 7.857
21.68000 4.832
21.70000 10.344
21.72000 8.778
21.74000 4.667
21.76000 3.023
21.78000 3.699
21.80000 -3.974
21.82000 3.992
21.84000 10.813
21.86000 6.600
21.88000 -3.061
21.90000 -0.590
21.92000 6.307
21.94000 11.444
21.96000 11.402
21.98000 3.786
22.00000 7.735
22.02000 17.306
22.04000 15.946
22.06000 7.957
22.08000 8.342
22.10000 5.978
22.12000 11.996
22.14000 12.399
22.16000 7.912
22.18000 4.500
22.20000 8.160
22.22000 13.628
22.24000 6.428
22.26000 -4.067
22.28000 3.045
22.30000 8.766
22.32000 11.344
22.34000 9.833
22.36000 8.345
22.38000 3.551
22.40000 2.162
22.42000 0.884
22.44000 -0.241
22.46000 -0.921
22.48000 2.437
22.50000 6.917
22.52000 7.919
22.54000 7.977
22.56000 8.603
22.58000 6.562
22.60000 1.964
22.62000 5.279
22.64000 6.228
22.66000 6.330
22.68000 3.413
22.70000 3.965
22.72000 4.808
22.74000 4.189
22.76000 10.070
22.78000 11.149
22.80000 3.650
22.82000 1.080
22.84000 8.325
22.86000 7.475
22.88000 8.971
22.90000 12.514
22.92000 11.714
22.94000 9.965
22.96000 7.750
22.98000 9.955
23.00000 3.619
23.02000 -0.077
23.04000 1.662
23.06000 7.205
23.08000 5.960
23.10000 6.121
23.12000 5.871
23.14000 5.308
23.16000 2.994
23.18000 -1.725
23.20000 1.841
23.22000 10.314
23.24000 9.898
23.26000 0.793
23.28000 0.076
23.30000 2.811
23.32000 4.210
23.34000 3.899
23.36000 -1.035
23.38000 7.209
23.40000 9.942
23.42000 11.036
23.44000 6.692
23.46000 6.691
23.48000 10.443
23.50000 9.562
23.52000 -0.452
23.54000 3.652
23.56000 6.990
23.58000 8.859
23.60000 6.927
23.62000 4.586
23.64000 8.007
23.66000 5.323
23.68000 -1.236
23.70000 4.095
23.72000 6.619
23.74000 9.440
23.76000 10.502
23.78000 9.459
23.80000 9.161
23.82000 8.663
23.84000 11.735
23.86000 6.425
23.88000 2.056
23.90000 -3.990
23.92000 -0.466
23.94000 7.670
23.96000 12.279
23.98000 12.718
24.00000 11.844
24.02000 11.357
24.04000 5.304
24.06000 5.281
24.08000 5.347
24.10000 3.624
24.12000 -1.423
24.14000 -1.087
24.16000 2.978
24.18000 1.603
24.20000 4.141
24.22000 7.162
24.24000 6.514
24.26000 7.460
24.28000 14.300
24.30000 9.774
24.32000 3.407
24.34000 0.704
24.36000 -1.880
24.38000 -3.904
24.40000 -0.195
24.42000 -2.108
24.44000 -2.175
24.46000 -3.980
24.48000 0.664
24.50000 3.934
24.52000 0.787
24.54000 4.615
24.56000 12.116
24.58000 -1.420
24.60000 0.859
24.62000 -0.339
24.64000 4.909
24.66000 0.587
24.68000 -0.299
24.70000 -3.261
24.72000 -1.791
24.74000 -3.498
24.76000 4.243
24.78000 5.867
24.80000 0.826
24.82000 3.746
24.84000 3.048
24.86000 6.974
24.88000 5.062
24.90000 5.329
24.92000 1.620
24.94000 1.302
24.96000 8.578
24.98000 3.767
25.00000 -1.242
25.02000 2.643
25.04000 5.982
25.06000 2.518
25.08000 -2.315
25.10000 -0.571
25.12000 -2.649
25.14000 7.559
25.16000 9.517
25.18000 2.702
25.20000 3.202
25.22000 -0.873
25.24000 -1.894
25.26000 0.057
25.28000 7.159
25.30000 3.857
25.32000 1.647
25.34000 2.499
25.36000 4.941
25.38000 6.982
25.40000 3.573
25.42000 -1.070
25.44000 3.055
25.46000 2.030
25.48000 4.624
25.50000 0.455
25.52000 0.854
25.54000 1.757
25.56000 -2.333
25.58000 5.441
25.60000 3.151
25.62000 -1.114
25.64000 8.587
25.66000 6.301
25.68000 3.276
25.70000 -0.752
25.72000 -0.637
25.74000 -0.452
25.76000 -1.109
25.78000 0.012
25.80000 -1.610
25.82000 -3.297
25.84000 0.465
25.86000 4.854
25.88000 3.520
25.90000 1.253
25.92000 1.043
25.94000 4.218
25.96000 3.306
25.98000 2.520
26.00000 1.316
26.02000 -2.617
26.04000 4.318
26.06000 3.527
26.08000 1.408
26.10000 3.147
26.12000 4.267
26.14000 4.601
26.16000 2.107
26.18000 4.833
26.20000 1.963
26.22000 -3.879
26.24000 -1.126
26.26000 1.686
26.28000 4.602
26.30000 7.821
26.32000 5.485
26.34000 8.863
26.36000 6.393
26.38000 0.162
26.40000 5.195
26.42000 9.622
26.44000 2.463
26.46000 6.529
26.48000 6.082
26.50000 4.724
26.52000 4.784
26.54000 -1.708
26.56000 2.600
26.58000 7.350
26.60000 9.532
26.62000 1.578
26.64000 -1.232
26.66000 5.136
26.68000 3.386
26.70000 3.287
26.72000 4.154
26.74000 8.555
26.76000 8.413
26.78000 8.153
26.80000 7.510
26.82000 8.624
26.84000 7.316
26.86000 4.621
26.88000 5.879
26.90000 7.157
26.92000 4.029
26.94000 3.666
26.96000 -3.826
26.98000 1.052
27.00000 -3.177
27.02000 -2.805
27.04000 0.815
27.06000 3.650
27.08000 6.997
27.10000 3.873
27.12000 3.094
27.14000 2.383
27.16000 6.091
27.18000 7.505
27.20000 9.885
27.22000 10.508
27.24000 0.506
27.26000 2.177
27.28000 0.364
27.30000 -1.455
27.32000 2.989
27.34000 0.585
27.36000 3.610
27.38000 2.652
27.40000 6.608
27.42000 3.582
27.44000 1.214
27.46000 0.383
27.48000 5.074
27.50000 8.942
27.52000 2.343
27.54000 0.797
27.56000 2.489
27.58000 4.393
27.60000 -2.503
27.62000 -1.370
27.64000 7.358
27.66000 8.186
27.68000 5.345
27.70000 4.684
27.72000 1.820
27.74000 -0.499
27.76000 5.547
27.78000 4.123
27.80000 5.478
27.82000 2.816
27.84000 10.392
27.86000 9.218
27.88000 5.586
27.90000 4.744
27.92000 4.808
27.94000 2.406
27.96000 2.946
27.98000 1.335
28.00000 2.138
28.02000 4.616
28.04000 4.368
28.06000 6.032
28.08000 4.425
28.10000 5.702
28.12000 1.117
28.14000 7.482
28.16000 4.900
28.18000 6.383
28.20000 4.546
28.22000 3.456
28.24000 -1.501
28.26000 2.004
28.28000 2.223
28.30000 4.097
28.32000 5.433
28.34000 5.882
28.36000 4.859
28.38000 4.087
28.40000 5.794
28.42000 1.748
28.44000 -1.877
28.46000 3.516
28.48000 5.375
28.50000 1.816
28.52000 3.813
28.54000 1.183
28.56000 1.740
28.58000 0.064
28.60000 -2.083
28.62000 -3.765
28.64000 -2.615
28.66000 4.565
28.68000 8.730
28.70000 2.177
28.72000 7.333
28.74000 6.405
28.76000 1.557
28.78000 1.915
28.80000 -2.007
28.82000 3.131
28.84000 2.577
28.86000 5.438
28.88000 8.633
28.90000 8.427
28.92000 7.449
28.94000 7.064
28.96000 5.060
28.98000 3.489
29.00000 9.573
29.02000 6.440
29.04000 4.736
29.06000 3.058
29.08000 1.259
29.10000 -0.991
29.12000 -3.738
29.14000 -0.219
29.16000 3.806
29.18000 2.815
29.20000 5.458
29.22000 5.949
29.24000 3.709
29.26000 1.457
29.28000 -1.009
29.30000 0.630
29.32000 0.326
29.34000 1.413
29.36000 2.392
29.38000 6.394
29.40000 3.152
29.42000 0.266
29.44000 -1.886
29.46000 1.590
29.48000 3.659
29.50000 7.915
29.52000 4.161
29.54000 3.508
29.56000 1.034
29.58000 -2.497
29.60000 -0.020
29.62000 4.871
29.64000 -0.400
29.66000 -0.456
29.68000 -1.197
29.70000 0.976
29.72000 5.845
29.74000 0.394
29.76000 -1.002
29.78000 -1.146
29.80000 -3.703
29.82000 -0.729
29.84000 0.534
29.86000 2.223
29.88000 3.754
29.90000 4.767
29.92000 7.781
29.94000 5.163
29.96000 3.365
29.98000 6.400
30.00000 3.490
30.02000 6.020
30.04000 -1.527
30.06000 3.878
30.08000 6.199
30.10000 3.294
30.12000 2.834
30.14000 6.872
30.16000 5.609
30.18000 -3.101
30.20000 3.590
30.22000 3.158
30.24000 -0.311
30.26000 1.230
30.28000 3.503
30.30000 6.738
30.32000 -2.130
30.34000 5.450
30.36000 9.027
30.38000 5.862
30.40000 -3.675
30.42000 -2.028
30.44000 2.533
30.46000 7.549
30.48000 9.212
30.50000 5.012
30.52000 0.111
30.54000 0.668
30.56000 -2.891
30.58000 -2.532
30.60000 -1.262
30.62000 2.301
30.64000 0.586
30.66000 2.399
30.68000 3.902
30.70000 3.981
30.72000 -0.507
30.74000 -1.323
30.76000 1.317
30.78000 1.002
30.80000 -0.894
30.82000 3.824
30.84000 1.544
30.86000 1.284
30.88000 4.677
30.90000 7.362
30.92000 4.256
30.94000 8.976
30.96000 14.401
30.98000 12.519
31.00000 9.985
31.02000 11.163
31.04000 2.661
31.06000 1.398
31.08000 3.267
31.10000 4.119
31.12000 0.540
31.14000 2.103
31.16000 10.453
31.18000 7.880
31.20000 -0.014
31.22000 2.852
31.24000 8.598
31.26000 2.633
31.28000 6.046
31.30000 3.907
31.32000 4.179
31.34000 1.366
31.36000 -2.669
31.38000 -3.590
31.40000 6.324
31.42000 6.038
31.44000 4.485
31.46000 3.976
31.48000 2.776
31.50000 5.673
31.52000 5.583
31.54000 5.840
31.56000 1.577
31.58000 -1.865
31.60000 2.109
31.62000 6.441
31.64000 6.495
31.66000 4.761
31.68000 9.091
31.70000 6.302
31.72000 4.840
31.74000 5.677
31.76000 0.096
31.78000 0.510
31.80000 4.744
31.82000 10.381
31.84000 8.987
31.86000 1.672
31.88000 -1.937
31.90000 2.583
31.92000 9.284
31.94000 5.390
31.96000 0.777
31.98000 2.071
32.00000 3.548
32.02000 4.812
32.04000 2.276
32.06000 0.106
32.08000 3.567
32.10000 4.086
32.12000 6.856
32.14000 5.609
32.16000 1.473
32.18000 1.322
32.20000 1.915
32.22000 3.654
32.24000 5.304
32.26000 2.208
32.28000 -0.132
32.30000 1.878
32.32000 3.191
32.34000 2.730
32.36000 0.719
32.38000 1.249
32.40000 5.960
32.42000 2.225
32.44000 1.430
32.46000 3.587
32.48000 0.567
32.50000 -1.615
32.52000 1.636
32.54000 4.168
32.56000 3.456
32.58000 5.881
32.60000 -0.951
32.62000 3.349
32.64000 1.436
32.66000 -1.075
32.68000 0.536
32.70000 -0.812
32.72000 0.889
32.74000 1.194
32.76000 0.056
32.78000 4.446
32.80000 5.355
32.82000 1.065
32.84000 1.662
32.86000 -3.443
32.88000 -1.012
32.90000 3.157
32.92000 6.252
32.94000 6.547
32.96000 6.325
32.98000 1.094
33.00000 0.330
33.02000 2.783
33.04000 5.172
33.06000 0.172
33.08000 -1.475
33.10000 0.826
33.12000 2.167
33.14000 4.156
33.16000 0.676
33.18000 0.745
33.20000 -0.059
33.22000 0.080
33.24000 2.008
33.26000 3.457
33.28000 3.797
33.30000 4.563
33.32000 -1.456
33.34000 -3.559
33.36000 -2.738
33.38000 2.302
33.40000 7.980
33.42000 4.441
33.44000 3.001
33.46000 -0.186
33.48000 7.701
33.50000 4.831
33.52000 -0.918
33.54000 0.413
33.56000 2.844
33.58000 6.088
33.60000 7.156
33.62000 4.571
33.64000 6.881
33.66000 7.389
33.68000 7.469
33.70000 0.013
33.72000 -3.137
33.74000 0.698
33.76000 1.399
33.78000 7.130
33.80000 6.760
33.82000 0.645
33.84000 4.557
33.86000 7.048
33.88000 3.049
33.90000 2.315
33.92000 -0.173
33.94000 2.109
33.96000 4.976
33.98000 9.826
34.00000 8.012
34.02000 8.010
34.04000 5.775
34.06000 3.076
34.08000 5.163
34.10000 6.353
34.12000 9.189
34.14000 4.899
34.16000 3.741
34.18000 5.119
34.20000 3.459
34.22000 2.908
34.24000 5.492
34.26000 6.144
34.28000 2.697
34.30000 0.514
34.32000 2.976
34.34000 2.939
34.36000 0.114
34.38000 2.273
34.40000 1.997
34.42000 -3.546
34.44000 4.898
34.46000 2.746
34.48000 2.485
34.50000 2.143
34.52000 1.629
34.54000 0.223
34.56000 0.420
34.58000 1.496
34.60000 1.360
34.62000 0.560
34.64000 3.159
34.66000 6.998
34.68000 7.744
34.70000 4.629
34.72000 2.853
34.74000 0.963
34.76000 2.861
34.78000 3.310
34.80000 2.567
34.82000 2.870
34.84000 2.213
34.86000 -0.192
34.88000 0.215
34.90000 -2.068
34.92000 -3.061
34.94000 2.364
34.96000 9.031
34.98000 1.604
35.00000 -3.551
35.02000 -0.405
35.04000 2.099
35.06000 1.756
35.08000 4.211
35.10000 4.361
35.12000 0.232
35.14000 -0.822
35.16000 5.705
35.18000 0.465
35.20000 -3.549
35.22000 1.098
35.24000 5.567
35.26000 2.938
35.28000 -1.057
35.30000 0.200
35.32000 -1.871
35.34000 -0.017
35.36000 1.218
35.38000 2.411
35.40000 5.420
35.42000 4.664
35.44000 3.180
35.46000 3.096
35.48000 6.322
35.50000 4.948
35.52000 0.142
35.54000 -0.303
35.56000 4.404
35.58000 6.303
35.60000 3.725
35.62000 2.104
35.64000 -3.405
35.66000 -1.345
35.68000 -0.754
35.70000 3.318
35.72000 1.762
35.74000 -0.865
35.76000 0.581
35.78000 5.746
35.80000 5.031
35.82000 2.861
35.84000 3.835
35.86000 4.409
35.88000 -0.522
35.90000 -1.937
35.92000 -2.875
35.94000 -1.726
35.96000 1.224
35.98000 1.964
36.00000 0.615
36.02000 7.552
36.04000 2.614
36.06000 -0.601
36.08000 3.011
36.10000 4.277
36.12000 2.797
36.14000 -2.156
36.16000 -3.553
36.18000 -2.045
36.20000 2.499
36.22000 2.827
36.24000 3.243
36.26000 1.647
36.28000 3.074
36.30000 0.741
36.32000 -0.487
36.34000 4.834
36.36000 5.400
36.38000 3.321
36.40000 -0.152
36.42000 1.989
36.44000 4.871
36.46000 -1.038
36.48000 -0.252
36.50000 2.479
36.52000 6.832
36.54000 4.709
36.56000 2.569
36.58000 1.060
36.60000 6.035
36.62000 2.073
36.64000 -3.547
36.66000 1.863
36.68000 6.221
36.70000 2.585
36.72000 2.617
36.74000 6.155
36.76000 9.279
36.78000 6.111
36.80000 4.455
36.82000 1.591
36.84000 2.290
36.86000 3.720
36.88000 3.564
36.90000 3.337
36.92000 1.156
36.94000 0.270
36.96000 -1.604
36.98000 -1.463
37.00000 -2.358
37.02000 3.212
37.04000 5.046
37.06000 1.381
37.08000 1.569
37.10000 1.654
37.12000 1.133
37.14000 3.995
37.16000 4.791
37.18000 5.286
37.20000 0.990
37.22000 2.943
37.24000 0.783
37.26000 -1.410
37.28000 -2.334
37.30000 -0.046
37.32000 1.541
37.34000 -0.122
37.36000 1.982
37.38000 1.006
37.40000 2.541
37.42000 5.094
37.44000 4.171
37.46000 9.377
37.48000 5.219
37.50000 0.859
37.52000 -2.734
37.54000 -1.345
37.56000 2.745
37.58000 3.645
37.60000 2.302
37.62000 2.978
37.64000 7.355
37.66000 7.016
37.68000 3.171
37.70000 4.966
37.72000 6.703
37.74000 5.348
37.76000 10.388
37.78000 13.619
37.80000 14.255
37.82000 12.391
37.84000 10.643
37.86000 10.017
37.88000 6.793
37.90000 5.771
37.92000 7.944
37.94000 9.738
37.96000 12.770
37.98000 18.061
38.00000 17.427
38.02000 15.215
38.04000 16.182
38.06000 14.620
38.08000 14.936
38.10000 16.750
38.12000 14.946
38.14000 16.333
38.16000 17.101
38.18000 17.031
38.20000 23.816
38.22000 27.873
38.24000 21.156
38.26000 17.857
38.28000 23.350
38.30000 26.442
38.32000 23.238
38.34000 22.531
38.36000 27.552
38.38000 35.639
38.40000 29.355
38.42000 27.987
38.44000 29.101
38.46000 28.873
38.48000 32.937
38.50000 35.858
38.52000 38.096
38.54000 43.849
38.56000 42.232
38.58000 43.301
38.60000 42.594
38.62000 41.693
38.64000 46.040
38.66000 45.983
38.68000 47.068
38.70000 48.025
38.72000 46.553
38.74000 52.091
38.76000 61.195
38.78000 59.617
38.80000 63.857
38.82000 64.626
38.84000 64.529
38.86000 67.397
38.88000 73.810
38.90000 80.381
38.92000 82.930
38.94000 83.869
38.96000 88.446
38.98000 89.615
39.00000 96.181
39.02000 103.909
39.04000 99.230
39.06000 107.568
39.08000 117.669
39.10000 120.043
39.12000 124.439
39.14000 131.902
39.16000 134.979
39.18000 140.119
39.20000 151.323
39.22000 156.387
39.24000 163.989
39.26000 170.023
39.28000 184.847
39.30000 190.662
39.32000 188.468
39.34000 197.619
39.36000 209.010
39.38000 219.648
39.40000 235.495
39.42000 246.036
39.44000 258.062
39.46000 270.899
39.48000 283.406
39.50000 294.352
39.52000 317.937
39.54000 338.138
39.56000 348.135
39.58000 369.542
39.60000 394.838
39.62000 411.307
39.64000 422.873
39.66000 448.739
39.68000 477.381
39.70000 496.497
39.72000 518.279
39.74000 545.940
39.76000 574.860
39.78000 599.191
39.80000 615.526
39.82000 640.506
39.84000 654.643
39.86000 691.788
39.88000 712.379
39.90000 739.470
39.92000 769.749
39.94000 786.260
39.96000 797.009
39.98000 815.978
40.00000 820.650
40.02000 824.513
40.04000 841.238
40.06000 844.260
40.08000 849.509
40.10000 856.069
40.12000 843.814
40.14000 843.282
40.16000 827.938
40.18000 820.471
40.20000 812.267
40.22000 787.807
40.24000 771.600
40.26000 751.862
40.28000 741.787
40.30000 710.511
40.32000 691.071
40.34000 669.978
40.36000 643.795
40.38000 619.849
40.40000 596.525
40.42000 572.403
40.44000 543.726
40.46000 512.786
40.48000 498.373
40.50000 479.582
40.52000 451.911
40.54000 425.084
40.56000 398.721
40.58000 385.891
40.60000 368.848
40.62000 350.732
40.64000 335.152
40.66000 314.491
40.68000 293.856
40.70000 275.082
40.72000 265.237
40.74000 247.746
40.76000 231.427
40.78000 213.601
40.80000 201.031
40.82000 194.136
40.84000 181.397
40.86000 170.937
40.88000 156.462
40.90000 145.491
40.92000 143.963
40.94000 132.998
40.96000 124.590
40.98000 120.966
41.00000 116.204
41.02000 104.652
41.04000 95.978
41.06000 95.135
41.08000 91.201
41.10000 86.818
41.12000 86.525
41.14000 77.054
41.16000 75.016
41.18000 71.999
41.20000 67.082
41.22000 58.994
41.24000 53.439
41.26000 54.596
41.28000 50.242
41.30000 45.864
41.32000 47.256
41.34000 46.430
41.36000 42.026
41.38000 41.734
41.40000 39.147
41.42000 35.450
41.44000 29.343
41.46000 30.741
41.48000 29.874
41.50000 29.750
41.52000 25.419
41.54000 24.226
41.56000 24.522
41.58000 26.334
41.60000 24.607
41.62000 21.802
41.64000 22.598
41.66000 18.567
41.68000 16.581
41.70000 15.613
41.72000 13.873
41.74000 11.084
41.76000 12.459
41.78000 12.811
41.80000 14.685
41.82000 9.531
41.84000 7.671
41.86000 11.752
41.88000 14.958
41.90000 12.539
41.92000 12.011
41.94000 13.606
41.96000 11.440
41.98000 7.168
42.00000 10.345
42.02000 7.843
42.04000 5.640
42.06000 2.815
42.08000 6.780
42.10000 4.248
42.12000 0.023
42.14000 0.859
42.16000 4.297
42.18000 3.532
42.20000 6.783
42.22000 7.817
42.24000 5.515
42.26000 3.489
42.28000 1.344
42.30000 0.665
42.32000 0.143
42.34000 4.462
42.36000 4.332
42.38000 4.347
42.40000 2.780
42.42000 0.308
42.44000 -2.416
42.46000 -3.065
42.48000 -1.059
42.50000 -1.105
42.52000 -1.371
42.54000 0.964
42.56000 0.595
42.58000 -2.226
42.60000 -3.498
42.62000 1.914
42.64000 5.078
42.66000 3.965
42.68000 -0.016
42.70000 -2.106
42.72000 -3.438
42.74000 -1.477
42.76000 -1.044
42.78000 2.180
42.80000 -1.796
42.82000 -1.570
42.84000 -0.583
42.86000 2.588
42.88000 0.310
42.90000 0.218
42.92000 0.361
42.94000 -0.124
42.96000 -0.951
42.98000 0.635
43.00000 -1.219
43.02000 -2.459
43.04000 2.456
43.06000 -0.439
43.08000 -1.295
43.10000 -0.236
43.12000 1.626
43.14000 1.554
43.16000 4.082
43.18000 7.931
43.20000 1.542
43.22000 0.336
43.24000 1.283
43.26000 2.528
43.28000 4.081
43.30000 2.453
43.32000 1.314
43.34000 -0.356
43.36000 0.839
43.38000 2.506
43.40000 2.265
43.42000 2.245
43.44000 2.857
43.46000 1.977
43.48000 -0.611
43.50000 -2.135
43.52000 -0.414
43.54000 1.789
43.56000 1.712
43.58000 4.098
43.60000 4.920
43.62000 4.121
43.64000 6.314
43.66000 6.524
43.68000 2.282
43.70000 6.248
43.72000 7.102
43.74000 8.023
43.76000 6.190
43.78000 5.843
43.80000 7.580
43.82000 7.159
43.84000 5.009
43.86000 1.144
43.88000 -3.294
43.90000 -1.963
43.92000 2.528
43.94000 2.157
43.96000 5.095
43.98000 5.744
44.00000 5.896
44.02000 8.064
44.04000 7.166
44.06000 5.174
44.08000 1.541
44.10000 3.254
44.12000 2.552
44.14000 4.033
44.16000 3.234
44.18000 1.035
44.20000 4.371
44.22000 7.000
44.24000 5.069
44.26000 -0.902
44.28000 -0.791
44.30000 5.917
44.32000 8.163
44.34000 5.306
44.36000 2.810
44.38000 2.579
44.40000 2.829
44.42000 4.986
44.44000 8.613
44.46000 7.108
44.48000 3.557
44.50000 1.798
44.52000 3.530
44.54000 5.549
44.56000 4.831
44.58000 11.147
44.60000 10.732
44.62000 3.827
44.64000 5.850
44.66000 12.736
44.68000 9.714
44.70000 5.597
44.72000 6.073
44.74000 4.913
44.76000 4.589
44.78000 3.489
44.80000 6.275
44.82000 3.590
44.84000 8.501
44.86000 8.332
44.88000 5.712
44.90000 3.682
44.92000 5.599
44.94000 10.930
44.96000 10.966
44.98000 9.019
45.00000 8.745
45.02000 7.222
45.04000 5.102
45.06000 11.392
45.08000 9.248
45.10000 9.698
45.12000 9.512
45.14000 10.174
45.16000 15.227
45.18000 19.728
45.20000 15.828
45.22000 12.713
45.24000 12.891
45.26000 12.974
45.28000 13.449
45.30000 13.914
45.32000 13.050
45.34000 13.920
45.36000 17.289
45.38000 18.695
45.40000 23.843
45.42000 27.321
45.44000 22.671
45.46000 23.749
45.48000 26.705
45.50000 23.141
45.52000 22.313
45.54000 24.072
45.56000 24.147
45.58000 27.049
45.60000 26.076
45.62000 29.805
45.64000 35.689
45.66000 30.764
45.68000 29.370
45.70000 34.542
45.72000 37.329
45.74000 34.149
45.76000 36.183
45.78000 38.795
45.80000 46.121
45.82000 48.865
45.84000 47.496
45.86000 49.791
45.88000 53.866
45.90000 53.405
45.92000 52.468
45.94000 53.467
45.96000 54.658
45.98000 57.642
46.00000 62.502
46.02000 68.922
46.04000 64.350
46.06000 57.672
46.08000 63.703
46.10000 69.231
46.12000 70.735
46.14000 69.051
46.16000 80.556
46.18000 76.698
46.20000 82.143
46.22000 86.322
46.24000 88.263
46.26000 90.110
46.28000 100.519
46.30000 97.966
46.32000 98.712
46.34000 101.188
46.36000 96.862
46.38000 101.666
46.40000 112.283
46.42000 118.991
46.44000 109.673
46.46000 112.842
46.48000 123.097
46.50000 120.761
46.52000 123.818
46.54000 129.351
46.56000 132.272
46.58000 130.119
46.60000 132.746
46.62000 130.898
46.64000 134.740
46.66000 141.916
46.68000 143.705
46.70000 142.326
46.72000 140.801
46.74000 142.757
46.76000 144.214
46.78000 135.935
46.80000 137.401
46.82000 141.043
46.84000 145.133
46.86000 147.020
46.88000 141.943
46.90000 135.919
46.92000 133.057
46.94000 131.910
46.96000 130.337
46.98000 131.205
47.00000 127.736
47.02000 121.418
47.04000 124.519
47.06000 122.115
47.08000 118.913
47.10000 115.023
47.12000 110.934
47.14000 104.212
47.16000 103.416
47.18000 101.469
47.20000 98.890
47.22000 95.536
47.24000 84.433
47.26000 81.189
47.28000 80.328
47.30000 71.529
47.32000 67.591
47.34000 70.308
47.36000 68.312
47.38000 65.711
47.40000 67.096
47.42000 57.898
47.44000 53.421
47.46000 51.813
47.48000 54.972
47.50000 46.765
47.52000 42.200
47.54000 43.124
47.56000 39.991
47.58000 32.463
47.60000 34.257
47.62000 33.174
47.64000 28.091
47.66000 27.615
47.68000 29.840
47.70000 28.807
47.72000 24.806
47.74000 19.970
47.76000 20.550
47.78000 22.401
47.80000 21.036
47.82000 16.547
47.84000 15.375
47.86000 13.150
47.88000 8.342
47.90000 10.295
47.92000 6.931
47.94000 12.863
47.96000 12.211
47.98000 10.968
48.00000 8.787
48.02000 8.208
48.04000 7.837
48.06000 5.287
48.08000 2.955
48.10000 0.779
48.12000 4.079
48.14000 5.875
48.16000 9.635
48.18000 4.509
48.20000 4.453
48.22000 5.002
48.24000 6.535
48.26000 6.240
48.28000 3.277
48.30000 5.520
48.32000 6.615
48.34000 3.190
48.36000 3.624
48.38000 0.336
48.40000 -1.240
48.42000 -0.524
48.44000 3.774
48.46000 4.468
48.48000 6.358
48.50000 5.416
48.52000 2.247
48.54000 1.643
48.56000 2.691
48.58000 1.338
48.60000 0.026
48.62000 -0.019
48.64000 -0.112
48.66000 -0.056
48.68000 2.187
48.70000 -2.687
48.72000 1.137
48.74000 -0.196
48.76000 -2.892
48.78000 -1.703
48.80000 1.766
48.82000 -1.873
48.84000 -2.875
48.86000 0.181
48.88000 -1.187
48.90000 -0.677
48.92000 3.582
48.94000 4.546
48.96000 3.919
48.98000 0.166
49.00000 2.495
49.02000 -1.712
49.04000 -2.085
49.06000 -2.851
49.08000 0.382
49.10000 0.012
49.12000 -2.196
49.14000 -0.089
49.16000 0.264
49.18000 1.978
49.20000 4.093
49.22000 2.379
49.24000 -0.069
49.26000 0.741
49.28000 -0.186
49.30000 3.246
49.32000 6.840
49.34000 7.353
49.36000 -0.180
49.38000 -2.748
49.40000 -0.055
49.42000 0.342
49.44000 -0.276
49.46000 1.666
49.48000 1.905
49.50000 -1.889
49.52000 1.808
49.54000 3.269
49.56000 -0.261
49.58000 0.249
49.60000 -2.060
49.62000 0.377
49.64000 -0.155
49.66000 -0.840
49.68000 -0.343
49.70000 1.270
49.72000 -2.088
49.74000 -1.937
49.76000 -1.223
49.78000 -2.410
49.80000 -0.762
49.82000 1.407
49.84000 1.731
49.86000 -0.995
49.88000 -1.085
49.90000 1.265
49.92000 -1.568
49.94000 -2.783
49.96000 -0.387
49.98000 -0.673
50.00000 -0.307
50.02000 0.095
50.04000 -0.002
50.06000 2.901
50.08000 2.989
50.10000 -0.799
50.12000 -0.878
50.14000 -0.969
50.16000 -2.585
50.18000 -2.380
50.20000 -2.328
50.22000 -2.749
50.24000 0.485
50.26000 -0.948
50.28000 -0.140
50.30000 -0.800
50.32000 0.934
50.34000 5.714
50.36000 6.129
50.38000 0.744
50.40000 -2.731
50.42000 0.513
50.44000 4.229
50.46000 3.079
50.48000 1.431
50.50000 3.367
50.52000 2.582
50.54000 1.324
50.56000 1.402
50.58000 3.625
50.60000 4.447
50.62000 2.784
50.64000 -0.888
50.66000 1.963
50.68000 1.298
50.70000 -1.311
50.72000 -1.534
50.74000 0.917
50.76000 2.300
50.78000 0.871
50.80000 4.164
50.82000 5.700
50.84000 2.929
50.86000 0.891
50.88000 -0.584
50.90000 0.293
50.92000 4.829
50.94000 2.557
50.96000 3.686
50.98000 5.541
51.00000 3.314
51.02000 -0.056
51.04000 -2.177
51.06000 -2.685
51.08000 1.425
51.10000 6.198
51.12000 2.618
51.14000 2.465
51.16000 1.661
51.18000 4.424
51.20000 3.140
51.22000 2.061
51.24000 4.272
51.26000 5.234
51.28000 1.131
51.30000 -0.117
51.32000 1.693
51.34000 2.968
51.36000 4.040
51.38000 0.976
51.40000 2.788
51.42000 4.378
51.44000 3.882
51.46000 1.900
51.48000 1.573
51.50000 0.288
51.52000 2.512
51.54000 3.785
51.56000 3.283
51.58000 2.006
51.60000 -2.650
51.62000 -1.233
51.64000 1.591
51.66000 3.646
51.68000 4.986
51.70000 4.923
51.72000 7.162
51.74000 5.817
51.76000 3.050
51.78000 4.812
51.80000 13.121
51.82000 7.785
51.84000 4.187
51.86000 6.423
51.88000 8.635
51.90000 8.051
51.92000 3.329
51.94000 0.946
51.96000 2.887
51.98000 1.368
52.00000 -2.613
52.02000 0.786
52.04000 2.336
52.06000 4.126
52.08000 1.657
52.10000 3.420
52.12000 3.210
52.14000 2.810
52.16000 1.785
52.18000 3.004
52.20000 1.503
52.22000 2.867
52.24000 0.694
52.26000 0.038
52.28000 -0.980
52.30000 2.284
52.32000 4.300
52.34000 4.220
52.36000 0.940
52.38000 -2.257
52.40000 -0.923
52.42000 -0.496
52.44000 -0.716
52.46000 1.588
52.48000 0.701
52.50000 3.924
52.52000 0.720
52.54000 2.727
52.56000 8.311
52.58000 9.353
52.60000 3.391
52.62000 3.262
52.64000 1.271
52.66000 3.956
52.68000 -0.990
52.70000 -0.977
52.72000 5.325
52.74000 9.599
52.76000 4.762
52.78000 2.553
52.80000 3.950
52.82000 3.508
52.84000 1.099
52.86000 1.949
52.88000 2.326
52.90000 5.050
52.92000 -0.394
52.94000 0.535
52.96000 2.812
52.98000 3.979
53.00000 5.197
53.02000 1.828
53.04000 0.396
53.06000 3.877
53.08000 3.795
53.10000 5.809
53.12000 5.485
53.14000 3.826
53.16000 1.797
53.18000 -2.611
53.20000 -1.128
53.22000 -2.469
53.24000 1.615
53.26000 -0.824
53.28000 1.615
53.30000 3.072
53.32000 6.608
53.34000 2.785
53.36000 3.022
53.38000 2.488
53.40000 2.641
53.42000 0.309
53.44000 -2.601
53.46000 -2.131
53.48000 -0.888
53.50000 -0.710
53.52000 3.736
53.54000 2.763
53.56000 -2.486
53.58000 0.716
53.60000 3.159
53.62000 3.508
53.64000 -1.007
53.66000 -0.807
53.68000 5.903
53.70000 5.824
53.72000 4.889
53.74000 4.355
53.76000 -0.493
53.78000 1.113
53.80000 4.117
53.82000 2.624
53.84000 0.223
53.86000 1.331
53.88000 4.036
53.90000 2.316
53.92000 0.540
53.94000 4.104
53.96000 2.850
53.98000 -1.684
54.00000 -2.584
54.02000 1.029
54.04000 1.617
54.06000 2.154
54.08000 -1.282
54.10000 -2.014
54.12000 -0.334
54.14000 -1.753
54.16000 1.886
54.18000 0.442
54.20000 -1.656
54.22000 -0.972
54.24000 0.568
54.26000 2.962
54.28000 -2.080
54.30000 -0.994
54.32000 2.785
54.34000 4.159
54.36000 5.574
54.38000 2.197
54.40000 0.562
54.42000 -0.849
54.44000 2.579
54.46000 0.012
54.48000 0.679
54.50000 -0.845
54.52000 2.002
54.54000 4.739
54.56000 3.872
54.58000 3.750
54.60000 -0.401
54.62000 -0.054
54.64000 -0.688
54.66000 0.042
54.68000 4.453
54.70000 5.101
54.72000 0.491
54.74000 0.028
54.76000 2.098
54.78000 5.791
54.80000 3.253
54.82000 3.986
54.84000 0.758
54.86000 -1.562
54.88000 -2.563
54.90000 2.519
54.92000 1.369
54.94000 4.041
54.96000 2.086
54.98000 0.657
55.00000 4.629
55.02000 1.456
55.04000 -0.444
55.06000 3.552
55.08000 4.636
55.10000 1.114
55.12000 0.228
55.14000 0.924
55.16000 0.814
55.18000 2.030
55.20000 2.658
55.22000 -1.523
55.24000 0.556
55.26000 6.102
55.28000 3.572
55.30000 0.730
55.32000 0.086
55.34000 2.348
55.36000 3.247
55.38000 1.296
55.40000 -0.335
55.42000 2.752
55.44000 2.397
55.46000 4.094
55.48000 5.002
55.50000 1.572
55.52000 4.625
55.54000 5.550
55.56000 7.400
55.58000 5.563
55.60000 2.626
55.62000 3.595
55.64000 3.738
55.66000 2.499
55.68000 -0.079
55.70000 -0.434
55.72000 -2.520
55.74000 -0.170
55.76000 1.365
55.78000 3.062
55.80000 2.697
55.82000 5.091
55.84000 3.271
55.86000 3.901
55.88000 2.656
55.90000 3.012
55.92000 6.429
55.94000 8.444
55.96000 5.059
55.98000 1.611
56.00000 2.096
56.02000 8.268
56.04000 6.841
56.06000 6.835
56.08000 7.866
56.10000 5.831
56.12000 11.124
56.14000 6.502
56.16000 2.068
56.18000 4.078
56.20000 4.641
56.22000 3.741
56.24000 0.280
56.26000 4.595
56.28000 8.957
56.30000 8.684
56.32000 2.703
56.34000 -2.468
56.36000 2.639
56.38000 4.626
56.40000 2.540
56.42000 2.914
56.44000 5.876
56.46000 4.612
56.48000 6.281
56.50000 -1.010
56.52000 2.401
56.54000 4.732
56.56000 6.980
56.58000 5.274
56.60000 6.502
56.62000 4.174
56.64000 3.458
56.66000 2.256
56.68000 2.325
56.70000 6.148
56.72000 2.643
56.74000 4.498
56.76000 2.876
56.78000 2.991
56.80000 3.847
56.82000 5.366
56.84000 4.203
56.86000 2.777
56.88000 0.179
56.90000 -0.090
56.92000 3.852
56.94000 4.951
56.96000 1.849
56.98000 6.067
57.00000 6.026
57.02000 5.074
57.04000 5.424
57.06000 0.642
57.08000 1.847
57.10000 3.039
57.12000 2.218
57.14000 -1.746
57.16000 1.341
57.18000 -0.236
57.20000 0.329
57.22000 1.207
57.24000 4.035
57.26000 2.817
57.28000 2.553
57.30000 3.865
57.32000 5.249
57.34000 0.587
57.36000 1.584
57.38000 0.563
57.40000 3.085
57.42000 -0.377
57.44000 1.762
57.46000 4.779
57.48000 6.375
57.50000 3.540
57.52000 2.126
57.54000 3.778
57.56000 0.263
57.58000 0.791
57.60000 1.871
57.62000 2.622
57.64000 4.547
57.66000 -0.166
57.68000 0.172
57.70000 -0.109
57.72000 -0.361
57.74000 2.178
57.76000 3.751
57.78000 3.378
57.80000 0.463
57.82000 0.995
57.84000 -1.095
57.86000 2.282
57.88000 2.086
57.90000 -0.329
57.92000 2.724
57.94000 2.862
57.96000 5.564
57.98000 4.232
58.00000 3.097
58.02000 -2.446
58.04000 1.176
58.06000 3.944
58.08000 0.533
58.10000 1.421
58.12000 3.451
58.14000 4.771
58.16000 2.408
58.18000 4.212
58.20000 6.250
58.22000 6.680
58.24000 3.825
58.26000 0.566
58.28000 -2.443
58.30000 0.207
58.32000 4.355
58.34000 2.692
58.36000 1.731
58.38000 1.093
58.40000 2.493
58.42000 4.976
58.44000 5.471
58.46000 4.843
58.48000 3.076
58.50000 -0.305
58.52000 1.072
58.54000 0.178
58.56000 0.752
58.58000 -0.376
58.60000 -2.182
58.62000 -2.065
58.64000 2.157
58.66000 4.785
58.68000 4.058
58.70000 5.681
58.72000 4.400
58.74000 -0.287
58.76000 0.904
58.78000 6.633
58.80000 5.230
58.82000 5.634
58.84000 2.896
58.86000 0.836
58.88000 0.091
58.90000 1.376
58.92000 0.270
58.94000 1.788
58.96000 3.559
58.98000 3.708
59.00000 3.453
59.02000 2.528
59.04000 3.641
59.06000 1.057
59.08000 1.383
59.10000 2.129
59.12000 4.345
59.14000 2.159
59.16000 0.993
59.18000 0.612
59.20000 2.152
59.22000 5.201
59.24000 2.073
59.26000 5.370
59.28000 4.517
59.30000 1.669
59.32000 0.717
59.34000 4.085
59.36000 3.499
59.38000 1.382
59.40000 2.159
59.42000 1.546
59.44000 1.889
59.46000 1.833
59.48000 3.267
59.50000 3.087
59.52000 1.854
59.54000 4.203
59.56000 2.504
59.58000 4.291
59.60000 2.563
59.62000 2.507
59.64000 0.069
59.66000 3.532
59.68000 1.985
59.70000 2.302
59.72000 2.175
59.74000 0.728
59.76000 -0.013
59.78000 5.694
59.80000 4.204
59.82000 4.224
59.84000 1.694
59.86000 -2.397
59.88000 -1.983
59.90000 2.079
59.92000 5.854
59.94000 2.517
59.96000 2.916
59.98000 1.434
60.00000 3.984
60.02000 3.654
60.04000 4.707
60.06000 5.445
60.08000 0.164
60.10000 -1.687
60.12000 -0.005
60.14000 4.570
60.16000 6.223
60.18000 5.341
60.20000 4.411
60.22000 2.125
60.24000 3.988
60.26000 1.309
60.28000 -1.636
60.30000 -1.508
60.32000 3.357
60.34000 1.226
60.36000 -1.399
60.38000 0.594
60.40000 0.781
60.42000 0.418
60.44000 4.124
60.46000 3.765
60.48000 2.286
60.50000 3.641
60.52000 1.895
60.54000 2.522
60.56000 3.085
60.58000 3.938
60.60000 2.049
60.62000 -0.165
60.64000 -2.393
60.66000 -0.754
60.68000 -0.687
60.70000 4.631
60.72000 5.019
60.74000 3.680
60.76000 2.561
60.78000 1.331
60.80000 -1.458
60.82000 -1.406
60.84000 3.451
60.86000 3.114
60.88000 3.394
60.90000 3.123
60.92000 5.569
60.94000 2.445
60.96000 1.023
60.98000 0.485
61.00000 1.552
61.02000 2.062
61.04000 2.573
61.06000 3.278
61.08000 2.175
61.10000 4.355
61.12000 3.940
61.14000 1.645
61.16000 1.367
61.18000 5.876
61.20000 6.426
61.22000 4.046
61.24000 1.507
61.26000 4.164
61.28000 3.282
61.30000 1.363
61.32000 2.947
61.34000 1.640
61.36000 -0.507
61.38000 -0.578
61.40000 -0.158
61.42000 1.118
61.44000 -0.378
61.46000 4.047
61.48000 2.861
61.50000 3.760
61.52000 3.433
61.54000 1.340
61.56000 2.171
61.58000 1.318
61.60000 -2.362
61.62000 0.076
61.64000 4.862
61.66000 5.657
61.68000 1.519
61.70000 2.838
61.72000 6.845
61.74000 0.761
61.76000 2.682
61.78000 5.616
61.80000 3.297
61.82000 0.078
61.84000 3.139
61.86000 2.520
61.88000 3.367
61.90000 1.749
61.92000 0.922
61.94000 0.374
61.96000 -0.246
61.98000 -1.818
62.00000 2.408
62.02000 2.746
62.04000 6.847
62.06000 3.761
62.08000 2.865
62.10000 0.372
62.12000 -0.367
62.14000 -0.220
62.16000 2.099
62.18000 2.336
62.20000 0.212
62.22000 0.958
62.24000 -1.788
62.26000 1.662
62.28000 0.657
62.30000 1.393
62.32000 3.226
62.34000 2.770
62.36000 2.597
62.38000 4.070
62.40000 2.393
62.42000 1.868
62.44000 2.514
62.46000 1.316
62.48000 1.303
62.50000 -0.033
62.52000 -1.524
62.54000 -0.200
62.56000 -2.210
62.58000 -2.382
62.60000 0.434
62.62000 0.050
62.64000 -1.323
62.66000 -0.001
62.68000 0.858
62.70000 1.212
62.72000 1.499
62.74000 0.207
62.76000 -0.485
62.78000 -1.217
62.80000 2.382
62.82000 3.186
62.84000 3.579
62.86000 3.390
62.88000 2.204
62.90000 -0.190
62.92000 -0.467
62.94000 2.886
62.96000 1.229
62.98000 2.161
63.00000 1.618
63.02000 -1.764
63.04000 0.101
63.06000 -0.771
63.08000 0.746
63.10000 -0.742
63.12000 -1.125
63.14000 -2.370
63.16000 -0.918
63.18000 1.563
63.20000 3.812
63.22000 4.129
63.24000 0.116
63.26000 -0.938
63.28000 2.428
63.30000 0.162
63.32000 -1.891
63.34000 -0.202
63.36000 2.362
63.38000 0.692
63.40000 0.700
63.42000 5.327
63.44000 1.790
63.46000 -2.373
63.48000 0.188
63.50000 2.390
63.52000 2.023
63.54000 -1.151
63.56000 -1.047
63.58000 -1.535
63.60000 0.626
63.62000 0.235
63.64000 0.470
63.66000 -0.614
63.68000 0.537
63.70000 1.234
63.72000 -0.182
63.74000 2.576
63.76000 2.487
63.78000 3.327
63.80000 1.276
63.82000 0.321
63.84000 2.332
63.86000 1.164
63.88000 1.396
63.90000 1.047
63.92000 0.697
63.94000 2.573
63.96000 3.521
63.98000 1.090
64.00000 0.666
64.02000 2.188
64.04000 3.110
64.06000 0.721
64.08000 1.229
64.10000 -2.363
64.12000 2.102
64.14000 3.106
64.16000 3.233
64.18000 1.633
64.20000 0.981
64.22000 0.702
64.24000 1.253
64.26000 4.850
64.28000 4.093
64.30000 -0.253
64.32000 -1.107
64.34000 -1.280
64.36000 -0.115
64.38000 1.538
64.40000 -2.083
64.42000 1.918
64.44000 3.063
64.46000 0.246
64.48000 -1.683
64.50000 -2.070
64.52000 4.241
64.54000 5.928
64.56000 2.162
64.58000 3.691
64.60000 -1.743
64.62000 -0.421
64.64000 -0.289
64.66000 1.687
64.68000 -0.515
64.70000 2.297
64.72000 1.750
64.74000 2.923
64.76000 3.917
64.78000 -1.007
64.80000 -0.174
64.82000 0.182
64.84000 1.907
64.86000 0.743
64.88000 0.965
64.90000 -2.389
64.92000 -2.049
64.94000 -0.076
64.96000 0.247
64.98000 -0.865
65.00000 4.637
65.02000 2.608
65.04000 1.718
65.06000 0.999
65.08000 0.892
65.10000 1.521
65.12000 0.907
65.14000 1.169
65.16000 -0.956
65.18000 1.678
65.20000 1.870
65.22000 0.307
65.24000 -2.396
65.26000 0.176
65.28000 3.257
65.30000 4.016
65.32000 -0.304
65.34000 -0.882
65.36000 -1.316
65.38000 -2.079
65.40000 2.592
65.42000 3.863
65.44000 3.776
65.46000 1.306
65.48000 -1.398
65.50000 0.188
65.52000 0.249
65.54000 -1.773
65.56000 1.802
65.58000 4.305
65.60000 1.471
65.62000 -1.891
65.64000 0.256
65.66000 2.690
65.68000 5.158
65.70000 4.986
65.72000 1.920
65.74000 0.230
65.76000 3.842
65.78000 5.007
65.80000 4.311
65.82000 1.510
65.84000 -0.301
65.86000 -0.964
65.88000 -0.109
65.90000 -0.662
65.92000 1.361
65.94000 2.255
65.96000 3.843
65.98000 5.749
66.00000 2.316
66.02000 2.930
66.04000 2.472
66.06000 0.745
66.08000 -2.411
66.10000 -1.229
66.12000 1.494
66.14000 3.039
66.16000 2.930
66.18000 2.749
66.20000 4.364
66.22000 2.220
66.24000 1.679
66.26000 2.207
66.28000 3.535
66.30000 1.877
66.32000 5.050
66.34000 4.497
66.36000 -1.234
66.38000 -0.464
66.40000 -2.240
66.42000 -1.813
66.44000 1.687
66.46000 1.010
66.48000 2.426
66.50000 1.211
66.52000 -0.145
66.54000 1.396
66.56000 1.873
66.58000 0.876
66.60000 5.220
66.62000 4.821
66.64000 5.606
66.66000 7.169
66.68000 2.518
66.70000 2.773
66.72000 4.716
66.74000 1.395
66.76000 4.076
66.78000 2.370
66.80000 5.455
66.82000 4.987
66.84000 3.099
66.86000 2.941
66.88000 4.144
66.90000 1.088
66.92000 2.424
66.94000 7.478
66.96000 6.284
66.98000 1.755
67.00000 2.556
67.02000 4.960
67.04000 3.449
67.06000 1.275
67.08000 5.129
67.10000 8.857
67.12000 7.428
67.14000 5.811
67.16000 5.441
67.18000 8.052
67.20000 8.303
67.22000 7.364
67.24000 9.174
67.26000 8.139
67.28000 7.231
67.30000 7.234
67.32000 8.717
67.34000 4.955
67.36000 6.659
67.38000 7.624
67.40000 8.686
67.42000 8.746
67.44000 9.933
67.46000 9.514
67.48000 11.738
67.50000 10.539
67.52000 9.847
67.54000 13.531
67.56000 14.635
67.58000 12.137
67.60000 13.648
67.62000 12.838
67.64000 13.966
67.66000 14.521
67.68000 17.122
67.70000 15.334
67.72000 15.421
67.74000 16.508
67.76000 14.032
67.78000 18.469
67.80000 17.105
67.82000 17.923
67.84000 19.189
67.86000 17.040
67.88000 18.231
67.90000 22.020
67.92000 25.144
67.94000 26.160
67.96000 22.341
67.98000 21.365
68.00000 24.288
68.02000 23.253
68.04000 26.284
68.06000 22.570
68.08000 22.717
68.10000 27.727
68.12000 26.782
68.14000 28.060
68.16000 26.334
68.18000 25.344
68.20000 25.056
68.22000 28.391
68.24000 31.734
68.26000 27.129
68.28000 23.313
68.30000 24.506
68.32000 28.885
68.34000 28.397
68.36000 23.627
68.38000 26.920
68.40000 27.259
68.42000 25.763
68.44000 23.140
68.46000 23.210
68.48000 24.580
68.50000 25.024
68.52000 26.444
68.54000 26.641
68.56000 24.187
68.58000 22.331
68.60000 20.867
68.62000 24.390
68.64000 22.931
68.66000 22.899
68.68000 22.792
68.70000 19.122
68.72000 21.353
68.74000 18.731
68.76000 18.156
68.78000 15.499
68.80000 14.581
68.82000 14.660
68.84000 13.708
68.86000 14.820
68.88000 16.370
68.90000 17.152
68.92000 13.236
68.94000 11.454
68.96000 11.150
68.98000 13.311
69.00000 12.943
69.02000 11.823
69.04000 8.809
69.06000 10.427
69.08000 12.047
69.10000 10.561
69.12000 6.770
69.14000 7.104
69.16000 8.863
69.18000 7.460
69.20000 6.505
69.22000 6.468
69.24000 11.822
69.26000 8.004
69.28000 5.238
69.30000 5.508
69.32000 1.896
69.34000 4.157
69.36000 2.526
69.38000 3.279
69.40000 4.171
69.42000 2.564
69.44000 4.646
69.46000 5.078
69.48000 2.931
69.50000 2.659
69.52000 4.205
69.54000 2.799
69.56000 1.920
69.58000 5.468
69.60000 3.501
69.62000 3.743
69.64000 0.823
69.66000 1.037
69.68000 4.438
69.70000 6.194
69.72000 4.128
69.74000 5.041
69.76000 1.281
69.78000 1.173
69.80000 0.542
69.82000 3.683
69.84000 1.342
69.86000 -2.305
69.88000 2.989
69.90000 3.978
69.92000 2.740
69.94000 1.217
69.96000 1.553
69.98000 4.012
70.00000 2.895
70.02000 0.924
70.04000 2.786
70.06000 3.561
70.08000 1.069
70.10000 1.985
70.12000 2.015
70.14000 6.211
70.16000 4.062
70.18000 3.222
70.20000 4.711
70.22000 0.514
70.24000 1.539
70.26000 -0.649
70.28000 -0.797
70.30000 0.115
70.32000 2.459
70.34000 1.687
70.36000 2.107
70.38000 3.988
70.40000 4.347
70.42000 1.340
70.44000 0.566
70.46000 2.398
70.48000 5.206
70.50000 2.265
70.52000 -0.830
70.54000 1.487
70.56000 2.418
70.58000 1.103
70.60000 0.630
70.62000 -0.237
70.64000 -0.105
70.66000 1.711
70.68000 -0.179
70.70000 -0.155
70.72000 0.311
70.74000 1.417
70.76000 4.114
70.78000 1.476
70.80000 -0.088
70.82000 1.734
70.84000 1.041
70.86000 2.042
70.88000 0.737
70.90000 0.213
70.92000 1.701
70.94000 3.094
70.96000 4.754
70.98000 3.495
71.00000 2.362
71.02000 5.176
71.04000 1.786
71.06000 0.337
71.08000 -0.276
71.10000 -0.418
71.12000 3.303
71.14000 4.718
71.16000 3.075
71.18000 1.461
71.20000 1.731
71.22000 4.826
71.24000 3.695
71.26000 0.879
71.28000 1.306
71.30000 1.120
71.32000 2.166
71.34000 2.103
71.36000 0.944
71.38000 0.940
71.40000 3.320
71.42000 4.584
71.44000 2.840
71.46000 -2.243
71.48000 0.152
71.50000 5.887
71.52000 4.211
71.54000 3.948
71.56000 5.867
71.58000 4.134
71.60000 0.032
71.62000 1.974
71.64000 2.273
71.66000 2.196
71.68000 3.924
71.70000 0.182
71.72000 -2.231
71.74000 0.406
71.76000 1.428
71.78000 -0.127
71.80000 4.729
71.82000 5.220
71.84000 2.131
71.86000 3.477
71.88000 7.739
71.90000 6.683
71.92000 5.273
71.94000 4.948
71.96000 6.641
71.98000 5.114
72.00000 1.017
72.02000 2.528
72.04000 5.880
72.06000 5.632
72.08000 7.103
72.10000 5.179
72.12000 4.772
72.14000 4.884
72.16000 4.397
72.18000 3.226
72.20000 -1.034
72.22000 -0.087
72.24000 -0.581
72.26000 -0.914
72.28000 2.375
72.30000 4.039
72.32000 3.960
72.34000 -1.345
72.36000 2.292
72.38000 1.225
72.40000 -0.160
72.42000 2.773
72.44000 0.904
72.46000 0.346
72.48000 1.168
72.50000 2.457
72.52000 3.273
72.54000 -0.022
72.56000 3.532
72.58000 4.336
72.60000 1.016
72.62000 2.768
72.64000 3.845
72.66000 6.033
72.68000 4.111
72.70000 0.435
72.72000 -2.185
72.74000 -1.557
72.76000 4.987
72.78000 5.008
72.80000 2.425
72.82000 1.454
72.84000 2.101
72.86000 2.806
72.88000 2.779
72.90000 1.565
72.92000 0.693
72.94000 -0.449
72.96000 1.809
72.98000 -1.783
73.00000 1.395
73.02000 0.103
73.04000 2.245
73.06000 3.915
73.08000 3.456
73.10000 4.724
73.12000 6.871
73.14000 2.721
73.16000 0.060
73.18000 1.733
73.20000 0.372
73.22000 -0.938
73.24000 -1.406
73.26000 -0.503
73.28000 -2.199
73.30000 -1.772
73.32000 0.433
73.34000 -0.001
73.36000 -0.077
73.38000 -1.729
73.40000 -1.106
73.42000 2.965
73.44000 2.779
73.46000 4.781
73.48000 1.053
73.50000 0.635
73.52000 1.956
73.54000 1.208
73.56000 -1.996
73.58000 -0.470
73.60000 0.921
73.62000 3.818
73.64000 4.036
73.66000 2.560
73.68000 0.289
73.70000 -0.723
73.72000 0.051
73.74000 1.743
73.76000 4.401
73.78000 2.915
73.80000 3.983
73.82000 3.814
73.84000 0.753
73.86000 -0.771
73.88000 2.783
73.90000 1.258
73.92000 2.057
73.94000 1.474
73.96000 5.389
73.98000 4.410
74.00000 0.609
74.02000 1.167
74.04000 2.017
74.06000 2.041
74.08000 7.572
74.10000 5.809
74.12000 3.691
74.14000 1.568
74.16000 -1.175
74.18000 0.706
74.20000 2.379
74.22000 3.474
74.24000 5.452
74.26000 2.941
74.28000 3.267
74.30000 -1.174
74.32000 3.175
74.34000 4.138
74.36000 2.847
74.38000 1.358
74.40000 2.505
74.42000 4.125
74.44000 1.190
74.46000 -0.068
74.48000 2.764
74.50000 1.181
74.52000 5.794
74.54000 4.011
74.56000 3.902
74.58000 4.815
74.60000 0.657
74.62000 -1.949
74.64000 -2.131
74.66000 1.711
74.68000 6.859
74.70000 6.014
74.72000 4.315
74.74000 1.393
74.76000 1.119
74.78000 3.197
74.80000 -0.748
74.82000 3.052
74.84000 3.960
74.86000 3.387
74.88000 0.142
74.90000 4.240
74.92000 6.600
74.94000 2.332
74.96000 3.849
74.98000 0.078
75.00000 0.447
75.02000 4.618
75.04000 7.225
75.06000 2.327
75.08000 3.907
75.10000 1.626
75.12000 5.125
75.14000 4.654
75.16000 9.562
75.18000 6.474
75.20000 5.021
75.22000 1.377
75.24000 0.953
75.26000 3.130
75.28000 5.008
75.30000 4.228
75.32000 0.710
75.34000 -0.299
75.36000 2.511
75.38000 3.680
75.40000 3.564
75.42000 1.218
75.44000 2.545
75.46000 3.688
75.48000 1.634
75.50000 -1.893
75.52000 1.039
75.54000 -0.872
75.56000 2.054
75.58000 4.510
75.60000 4.279
75.62000 1.982
75.64000 -1.115
75.66000 -0.267
75.68000 1.836
75.70000 0.014
75.72000 2.493
75.74000 3.341
75.76000 4.189
75.78000 4.587
75.80000 4.649
75.82000 3.923
75.84000 3.636
75.86000 5.547
75.88000 4.336
75.90000 2.866
75.92000 1.811
75.94000 1.992
75.96000 0.994
75.98000 3.142
76.00000 0.384
76.02000 3.871
76.04000 -1.587
76.06000 -1.226
76.08000 -2.201
76.10000 -0.259
76.12000 1.079
76.14000 2.049
76.16000 2.169
76.18000 3.728
76.20000 3.676
76.22000 1.686
76.24000 3.591
76.26000 4.364
76.28000 4.955
76.30000 0.198
76.32000 0.383
76.34000 -1.602
76.36000 -2.198
76.38000 -0.340
76.40000 -1.100
76.42000 2.078
76.44000 4.541
76.46000 6.858
76.48000 2.519
76.50000 -0.404
76.52000 0.924
76.54000 -1.064
76.56000 -1.589
76.58000 0.006
76.60000 0.260
76.62000 1.152
76.64000 2.988
76.66000 4.681
76.68000 4.162
76.70000 1.966
76.72000 0.460
76.74000 1.368
76.76000 5.628
76.78000 7.853
76.80000 1.884
76.82000 -0.733
76.84000 1.642
76.86000 4.272
76.88000 1.529
76.90000 1.785
76.92000 0.344
76.94000 2.533
76.96000 6.703
76.98000 6.481
77.00000 4.862
77.02000 6.057
77.04000 1.705
77.06000 2.962
77.08000 3.429
77.10000 2.273
77.12000 2.861
77.14000 5.054
77.16000 1.799
77.18000 0.035
77.20000 1.964
77.22000 -2.040
77.24000 -0.933
77.26000 -0.551
77.28000 0.643
77.30000 2.011
77.32000 2.071
77.34000 1.900
77.36000 4.542
77.38000 3.071
77.40000 1.401
77.42000 0.186
77.44000 -0.103
77.46000 3.093
77.48000 4.745
77.50000 2.016
77.52000 2.481
77.54000 -0.028
77.56000 1.359
77.58000 1.738
77.60000 0.995
77.62000 0.532
77.64000 0.387
77.66000 1.033
77.68000 4.121
77.70000 2.555
77.72000 0.493
77.74000 1.404
77.76000 -0.920
77.78000 -2.239
77.80000 -1.444
77.82000 2.470
77.84000 2.682
77.86000 3.615
77.88000 -1.198
77.90000 -1.116
77.92000 -2.213
77.94000 1.348
77.96000 -0.384
77.98000 0.777
78.00000 4.004
78.02000 2.017
78.04000 5.954
78.06000 4.685
78.08000 4.090
78.10000 4.056
78.12000 -0.285
78.14000 2.153
78.16000 2.874
78.18000 0.758
78.20000 -1.504
78.22000 -1.583
78.24000 -0.919
78.26000 2.970
78.28000 4.418
78.30000 1.876
78.32000 2.901
78.34000 5.899
78.36000 3.074
78.38000 2.310
78.40000 4.820
78.42000 0.461
78.44000 0.365
78.46000 1.114
78.48000 -1.091
78.50000 2.669
78.52000 9.908
78.54000 7.812
78.56000 4.340
78.58000 -0.804
78.60000 -2.242
78.62000 5.212
78.64000 5.612
78.66000 4.519
78.68000 3.502
78.70000 4.833
78.72000 2.203
78.74000 0.266
78.76000 -0.116
78.78000 1.000
78.80000 -0.159
78.82000 0.519
78.84000 4.463
78.86000 9.959
78.88000 3.740
78.90000 2.236
78.92000 -1.443
78.94000 -1.256
78.96000 2.255
78.98000 4.865
79.00000 4.288
79.02000 4.243
79.04000 1.245
79.06000 4.900
79.08000 1.742
79.10000 2.953
79.12000 5.506
79.14000 -1.022
79.16000 0.818
79.18000 5.492
79.20000 5.595
79.22000 5.896
79.24000 2.995
79.26000 3.000
79.28000 2.606
79.30000 3.882
79.32000 4.911
79.34000 3.929
79.36000 0.679
79.38000 -2.290
79.40000 1.751
79.42000 0.161
79.44000 -0.276
79.46000 2.418
79.48000 1.030
79.50000 3.129
79.52000 4.071
79.54000 2.120
79.56000 3.998
79.58000 2.215
79.60000 2.753
79.62000 4.853
79.64000 1.964
79.66000 3.257
79.68000 3.529
79.70000 4.155
79.72000 0.423
79.74000 -0.091
79.76000 1.780
79.78000 0.247
79.80000 5.130
79.82000 5.442
79.84000 6.694
79.86000 4.653
79.88000 1.724
79.90000 1.875
79.92000 3.148
79.94000 9.489
79.96000 4.218
79.98000 4.223
80.00000 3.534
80.02000 4.076
80.04000 2.348
80.06000 0.844
80.08000 1.844
80.10000 3.258
80.12000 4.548
80.14000 6.171
80.16000 4.586
80.18000 3.938
80.20000 3.593
80.22000 4.559
80.24000 10.129
80.26000 3.112
80.28000 -0.744
80.30000 -1.399
80.32000 -2.369
80.34000 2.308
80.36000 2.763
80.38000 5.398
80.40000 4.038
80.42000 2.302
80.44000 3.617
80.46000 4.873
80.48000 5.003
80.50000 4.939
80.52000 3.211
80.54000 5.720
80.56000 5.212
80.58000 5.159
80.60000 0.340
80.62000 6.430
80.64000 9.570
80.66000 5.825
80.68000 -1.571
80.70000 1.413
80.72000 4.451
80.74000 6.847
80.76000 4.960
80.78000 4.347
80.80000 4.993
80.82000 5.376
80.84000 4.569
80.86000 8.428
80.88000 6.004
80.90000 6.496
80.92000 5.000
80.94000 3.021
80.96000 11.567
80.98000 11.356
81.00000 10.288
81.02000 8.364
81.04000 8.759
81.06000 7.108
81.08000 13.540
81.10000 8.623
81.12000 12.136
81.14000 15.450
81.16000 15.737
81.18000 11.634
81.20000 8.355
81.22000 11.594
81.24000 12.325
81.26000 14.787
81.28000 8.287
81.30000 10.266
81.32000 13.153
81.34000 8.914
81.36000 9.376
81.38000 9.729
81.40000 14.964
81.42000 21.288
81.44000 15.897
81.46000 13.267
81.48000 13.694
81.50000 16.930
81.52000 20.218
81.54000 20.641
81.56000 19.611
81.58000 12.102
81.60000 16.073
81.62000 17.880
81.64000 16.770
81.66000 18.176
81.68000 21.986
81.70000 18.575
81.72000 22.209
81.74000 21.809
81.76000 19.886
81.78000 19.880
81.80000 21.442
81.82000 29.290
81.84000 30.760
81.86000 28.128
81.88000 28.757
81.90000 26.877
81.92000 26.265
81.94000 26.355
81.96000 27.238
81.98000 26.936
82.00000 26.965
82.02000 30.504
82.04000 33.567
82.06000 38.112
82.08000 36.664
82.10000 35.486
82.12000 31.764
82.14000 35.476
82.16000 33.942
82.18000 33.908
82.20000 32.265
82.22000 28.989
82.24000 30.378
82.26000 35.773
82.28000 33.709
82.30000 33.212
82.32000 39.364
82.34000 37.785
82.36000 36.038
82.38000 35.579
82.40000 35.828
82.42000 27.753
82.44000 31.392
82.46000 30.092
82.48000 28.916
82.50000 33.523
82.52000 34.315
82.54000 35.262
82.56000 35.037
82.58000 31.925
82.60000 25.566
82.62000 29.176
82.64000 29.487
82.66000 30.474
82.68000 32.297
82.70000 29.628
82.72000 28.409
82.74000 26.534
82.76000 24.535
82.78000 28.707
82.80000 30.194
82.82000 30.132
82.84000 29.763
82.86000 24.106
82.88000 21.017
82.90000 21.576
82.92000 25.026
82.94000 20.202
82.96000 20.457
82.98000 18.711
83.00000 14.802
83.02000 14.066
83.04000 21.774
83.06000 18.109
83.08000 18.109
83.10000 18.517
83.12000 16.694
83.14000 18.230
83.16000 16.059
83.18000 15.012
83.20000 15.194
83.22000 13.949
83.24000 8.764
83.26000 8.374
83.28000 6.166
83.30000 9.626
83.32000 9.072
83.34000 11.760
83.36000 9.037
83.38000 11.744
83.40000 11.878
83.42000 11.475
83.44000 8.037
83.46000 6.481
83.48000 9.911
83.50000 10.123
83.52000 7.294
83.54000 4.883
83.56000 7.537
83.58000 5.994
83.60000 4.190
83.62000 -1.040
83.64000 0.968
83.66000 6.655
83.68000 10.834
83.70000 8.481
83.72000 3.256
83.74000 5.284
83.76000 5.846
83.78000 7.085
83.80000 8.114
83.82000 5.440
83.84000 4.805
83.86000 6.088
83.88000 3.453
83.90000 0.515
83.92000 3.986
83.94000 4.755
83.96000 0.065
83.98000 -0.119
84.00000 -2.372
84.02000 -0.582
84.04000 2.571
84.06000 5.987
84.08000 3.560
84.10000 -0.229
84.12000 5.206
84.14000 5.401
84.16000 2.272
84.18000 2.079
84.20000 -0.755
84.22000 2.722
84.24000 0.818
84.26000 -2.360
84.28000 3.778
84.30000 6.520
84.32000 8.131
84.34000 2.878
84.36000 4.486
84.38000 2.498
84.40000 -0.415
84.42000 1.812
84.44000 1.544
84.46000 1.198
84.48000 2.062
84.50000 0.739
84.52000 1.854
84.54000 5.626
84.56000 2.405
84.58000 2.168
84.60000 0.862
84.62000 2.903
84.64000 3.451
84.66000 0.826
84.68000 0.313
84.70000 0.154
84.72000 2.370
84.74000 1.411
84.76000 -1.132
84.78000 -1.428
84.80000 3.383
84.82000 5.621
84.84000 2.456
84.86000 0.159
84.88000 5.575
84.90000 7.468
84.92000 3.067
84.94000 -2.362
84.96000 -0.449
84.98000 3.421
85.00000 3.968
85.02000 0.225
85.04000 4.255
85.06000 3.858
85.08000 4.615
85.10000 4.392
85.12000 3.438
85.14000 3.418
85.16000 2.021
85.18000 -0.632
85.20000 2.076
85.22000 3.283
85.24000 5.120
85.26000 2.533
85.28000 -2.381
85.30000 -0.606
85.32000 1.767
85.34000 3.096
85.36000 1.294
85.38000 1.522
85.40000 1.680
85.42000 0.373
85.44000 1.669
85.46000 3.205
85.48000 5.328
85.50000 7.269
85.52000 5.083
85.54000 6.745
85.56000 9.226
85.58000 8.522
85.60000 9.290
85.62000 4.512
85.64000 1.619
85.66000 7.654
85.68000 4.951
85.70000 10.554
85.72000 13.714
85.74000 9.243
85.76000 9.594
85.78000 10.054
85.80000 9.426
85.82000 11.788
85.84000 13.818
85.86000 15.986
85.88000 14.012
85.90000 12.312
85.92000 12.132
85.94000 13.274
85.96000 14.705
85.98000 16.911
86.00000 16.599
86.02000 16.603
86.04000 17.494
86.06000 17.927
86.08000 15.483
86.10000 15.937
86.12000 15.191
86.14000 18.069
86.16000 22.690
86.18000 22.678
86.20000 24.495
86.22000 26.313
86.24000 26.259
86.26000 23.572
86.28000 22.774
86.30000 26.880
86.32000 25.116
86.34000 26.034
86.36000 28.211
86.38000 26.186
86.40000 29.113
86.42000 31.343
86.44000 32.786
86.46000 27.295
86.48000 31.026
86.50000 33.136
86.52000 31.766
86.54000 29.749
86.56000 30.941
86.58000 34.327
86.60000 31.439
86.62000 26.716
86.64000 27.175
86.66000 28.412
86.68000 22.259
86.70000 21.159
86.72000 23.014
86.74000 24.787
86.76000 26.999
86.78000 23.743
86.80000 23.758
86.82000 17.971
86.84000 22.129
86.86000 21.280
86.88000 19.465
86.90000 22.757
86.92000 28.243
86.94000 25.516
86.96000 22.740
86.98000 22.065
87.00000 23.269
87.02000 18.099
87.04000 12.151
87.06000 11.272
87.08000 13.745
87.10000 18.314
87.12000 18.809
87.14000 15.263
87.16000 10.890
87.18000 13.773
87.20000 17.394
87.22000 12.994
87.24000 13.916
87.26000 14.028
87.28000 14.618
87.30000 13.595
87.32000 13.316
87.34000 11.464
87.36000 11.853
87.38000 10.264
87.40000 9.180
87.42000 8.030
87.44000 3.265
87.46000 2.256
87.48000 5.475
87.50000 3.272
87.52000 3.734
87.54000 5.218
87.56000 4.415
87.58000 5.013
87.60000 4.700
87.62000 7.476
87.64000 7.247
87.66000 2.722
87.68000 3.999
87.70000 6.028
87.72000 5.781
87.74000 8.020
87.76000 5.698
87.78000 1.028
87.80000 4.816
87.82000 6.127
87.84000 4.377
87.86000 4.442
87.88000 4.048
87.90000 6.224
87.92000 4.826
87.94000 4.133
87.96000 1.375
87.98000 -2.213
88.00000 -0.485
88.02000 0.082
88.04000 -0.552
88.06000 0.346
88.08000 0.084
88.10000 1.340
88.12000 0.831
88.14000 0.444
88.16000 1.010
88.18000 3.152
88.20000 0.677
88.22000 1.240
88.24000 2.837
88.26000 3.181
88.28000 6.534
88.30000 6.119
88.32000 5.381
88.34000 3.437
88.36000 6.975
88.38000 7.154
88.40000 2.258
88.42000 0.726
88.44000 0.567
88.46000 3.660
88.48000 1.899
88.50000 4.438
88.52000 3.958
88.54000 3.165
88.56000 2.101
88.58000 -1.382
88.60000 2.878
88.62000 5.171
88.64000 5.645
88.66000 6.674
88.68000 5.079
88.70000 2.145
88.72000 3.085
88.74000 1.972
88.76000 -1.730
88.78000 2.421
88.80000 3.512
88.82000 -2.103
88.84000 3.603
88.86000 4.461
88.88000 4.801
88.90000 2.843
88.92000 4.010
88.94000 2.796
88.96000 6.140
88.98000 9.802
89.00000 4.389
89.02000 2.753
89.04000 1.422
89.06000 4.729
89.08000 3.918
89.10000 5.210
89.12000 5.559
89.14000 3.470
89.16000 2.680
89.18000 4.143
89.20000 4.589
89.22000 4.372
89.24000 6.796
89.26000 4.826
89.28000 2.129
89.30000 0.190
89.32000 0.852
89.34000 2.405
89.36000 0.345
89.38000 2.576
89.40000 1.763
89.42000 3.400
89.44000 3.766
89.46000 0.094
89.48000 -1.276
89.50000 2.204
89.52000 0.295
89.54000 0.472
89.56000 4.058
89.58000 4.576
89.60000 5.869
89.62000 -0.176
89.64000 0.613
89.66000 2.518
89.68000 2.848
89.70000 2.709
89.72000 5.154
89.74000 4.279
89.76000 2.336
89.78000 4.903
89.80000 3.353
89.82000 -2.068
89.84000 1.446
89.86000 9.151
89.88000 5.281
89.90000 0.125
89.92000 3.251
89.94000 3.340
89.96000 1.569
89.98000 2.516
90.00000 2.428
90.02000 1.620
90.04000 2.831
90.06000 1.536
90.08000 1.436
90.10000 4.231
90.12000 2.583
90.14000 3.711
90.16000 -2.078
90.18000 -0.335
90.20000 2.340
90.22000 3.478
90.24000 4.069
90.26000 2.337
90.28000 1.085
90.30000 2.083
90.32000 1.357
90.34000 0.190
90.36000 0.934
90.38000 3.237
90.40000 2.882
90.42000 4.074
90.44000 5.267
90.46000 1.062
90.48000 2.423
90.50000 2.690
90.52000 1.169
90.54000 2.569
90.56000 0.618
90.58000 1.538
90.60000 0.686
90.62000 3.336
90.64000 3.155
90.66000 7.305
90.68000 5.043
90.70000 6.337
90.72000 1.386
90.74000 2.305
90.76000 -2.078
90.78000 -1.637
90.80000 2.639
90.82000 3.096
90.84000 3.744
90.86000 8.502
90.88000 6.184
90.90000 1.179
90.92000 -0.578
90.94000 -0.065
90.96000 0.135
90.98000 1.051
91.00000 -0.393
91.02000 -1.742
91.04000 1.074
91.06000 0.449
91.08000 -2.082
91.10000 3.058
91.12000 3.543
91.14000 2.802
91.16000 3.241
91.18000 1.282
91.20000 -0.019
91.22000 0.887
91.24000 2.947
91.26000 5.161
91.28000 2.552
91.30000 3.730
91.32000 0.829
91.34000 5.418
91.36000 5.615
91.38000 7.889
91.40000 1.783
91.42000 1.260
91.44000 0.080
91.46000 3.009
91.48000 3.906
91.50000 4.743
91.52000 -2.087
91.54000 0.337
91.56000 2.144
91.58000 4.117
91.60000 3.610
91.62000 1.026
91.64000 -1.017
91.66000 -1.103
91.68000 -0.463
91.70000 -1.937
91.72000 -1.347
91.74000 0.744
91.76000 3.368
91.78000 2.079
91.80000 -0.828
91.82000 2.206
91.84000 2.633
91.86000 1.085
91.88000 1.104
91.90000 -0.025
91.92000 1.292
91.94000 -0.750
91.96000 -0.896
91.98000 2.794
92.00000 0.410
92.02000 1.486
92.04000 2.114
92.06000 3.279
92.08000 2.124
92.10000 2.204
92.12000 0.082
92.14000 -1.524
92.16000 0.202
92.18000 2.088
92.20000 1.220
92.22000 0.742
92.24000 0.503
92.26000 4.141
92.28000 6.047
92.30000 4.943
92.32000 2.063
92.34000 1.419
92.36000 3.469
92.38000 1.481
92.40000 3.377
92.42000 1.136
92.44000 -2.075
92.46000 2.126
92.48000 4.103
92.50000 2.031
92.52000 4.030
92.54000 3.313
92.56000 6.739
92.58000 3.051
92.60000 4.364
92.62000 3.181
92.64000 8.896
92.66000 5.715
92.68000 0.303
92.70000 2.828
92.72000 5.956
92.74000 7.314
92.76000 6.433
92.78000 1.698
92.80000 2.631
92.82000 1.512
92.84000 2.259
92.86000 6.487
92.88000 8.636
92.90000 4.621
92.92000 2.649
92.94000 2.035
92.96000 3.169
92.98000 4.873
93.00000 5.018
93.02000 6.197
93.04000 5.495
93.06000 11.336
93.08000 10.708
93.10000 7.353
93.12000 5.192
93.14000 6.173
93.16000 8.485
93.18000 6.098
93.20000 8.824
93.22000 3.993
93.24000 -2.017
93.26000 -1.635
93.28000 4.603
93.30000 4.998
93.32000 2.077
93.34000 1.870
93.36000 2.371
93.38000 5.470
93.40000 6.075
93.42000 1.413
93.44000 3.412
93.46000 2.820
93.48000 4.696
93.50000 3.983
93.52000 3.969
93.54000 4.739
93.56000 8.035
93.58000 6.443
93.60000 2.654
93.62000 3.859
93.64000 3.555
93.66000 6.400
93.68000 0.555
93.70000 1.130
93.72000 6.118
93.74000 1.559
93.76000 1.461
93.78000 6.940
93.80000 5.971
93.82000 2.369
93.84000 3.058
93.86000 5.478
93.88000 1.279
93.90000 -1.377
93.92000 4.673
93.94000 1.518
93.96000 4.225
93.98000 5.282
94.00000 4.859
94.02000 3.386
94.04000 3.810
94.06000 2.734
94.08000 0.200
94.10000 3.079
94.12000 0.565
94.14000 4.763
94.16000 3.849
94.18000 0.967
94.20000 -0.863
94.22000 -1.653
94.24000 2.875
94.26000 1.826
94.28000 0.957
94.30000 2.998
94.32000 4.879
94.34000 4.710
94.36000 0.687
94.38000 0.846
94.40000 3.353
94.42000 1.604
94.44000 1.931
94.46000 0.533
94.48000 1.165
94.50000 5.766
94.52000 4.655
94.54000 4.212
94.56000 0.225
94.58000 -0.085
94.60000 8.033
94.62000 4.083
94.64000 3.604
94.66000 8.353
94.68000 8.328
94.70000 5.344
94.72000 2.170
94.74000 2.404
94.76000 1.347
94.78000 -0.818
94.80000 0.706
94.82000 1.055
94.84000 3.406
94.86000 3.181
94.88000 2.515
94.90000 -1.936
94.92000 -0.863
94.94000 4.539
94.96000 9.758
94.98000 5.864
95.00000 3.241
95.02000 3.662
95.04000 3.944
95.06000 3.204
95.08000 4.610
95.10000 1.964
95.12000 -2.072
95.14000 -0.013
95.16000 5.677
95.18000 5.427
95.20000 6.744
95.22000 8.096
95.24000 2.883
95.26000 0.548
95.28000 3.330
95.30000 6.129
95.32000 7.746
95.34000 3.255
95.36000 5.181
95.38000 4.890
95.40000 5.963
95.42000 2.287
95.44000 4.152
95.46000 6.853
95.48000 4.969
95.50000 3.579
95.52000 6.394
95.54000 6.122
95.56000 6.271
95.58000 3.467
95.60000 1.349
95.62000 4.841
95.64000 8.773
95.66000 4.916
95.68000 -1.848
95.70000 2.738
95.72000 5.843
95.74000 5.889
95.76000 5.548
95.78000 2.869
95.80000 -2.081
95.82000 -0.631
95.84000 0.887
95.86000 6.719
95.88000 3.806
95.90000 -0.051
95.92000 0.758
95.94000 4.798
95.96000 5.468
95.98000 5.946
96.00000 0.225
96.02000 6.136
96.04000 5.581
96.06000 4.488
96.08000 0.508
96.10000 -0.905
96.12000 -1.636
96.14000 0.274
96.16000 0.123
96.18000 1.021
96.20000 3.048
96.22000 5.509
96.24000 1.605
96.26000 0.965
96.28000 1.597
96.30000 2.180
96.32000 -2.095
96.34000 3.035
96.36000 -0.671
96.38000 4.094
96.40000 5.297
96.42000 2.714
96.44000 1.827
96.46000 2.193
96.48000 3.446
96.50000 0.241
96.52000 1.179
96.54000 -0.754
96.56000 -0.018
96.58000 1.444
96.60000 -0.279
96.62000 1.231
96.64000 0.734
96.66000 1.652
96.68000 1.275
96.70000 1.444
96.72000 0.301
96.74000 1.433
96.76000 0.524
96.78000 0.387
96.80000 2.828
96.82000 3.746
96.84000 0.414
96.86000 4.318
96.88000 8.463
96.90000 4.035
96.92000 1.815
96.94000 3.118
96.96000 3.158
96.98000 -0.783
97.00000 1.275
97.02000 2.391
97.04000 4.161
97.06000 2.581
97.08000 2.716
97.10000 3.335
97.12000 2.579
97.14000 4.229
97.16000 4.310
97.18000 1.840
97.20000 3.027
97.22000 3.898
97.24000 3.608
97.26000 1.695
97.28000 2.093
97.30000 7.013
97.32000 4.443
97.34000 4.677
97.36000 2.690
97.38000 3.393
97.40000 4.948
97.42000 4.875
97.44000 -1.261
97.46000 -1.852
97.48000 2.288
97.50000 3.463
97.52000 6.672
97.54000 6.603
97.56000 -0.952
97.58000 -2.067
97.60000 -0.644
97.62000 2.481
97.64000 4.733
97.66000 4.934
97.68000 0.832
97.70000 -0.778
97.72000 -0.124
97.74000 3.280
97.76000 5.999
97.78000 8.736
97.80000 3.198
97.82000 1.852
97.84000 4.378
97.86000 12.742
97.88000 6.392
97.90000 4.644
97.92000 5.803
97.94000 1.137
97.96000 1.425
97.98000 7.433
98.00000 7.820
98.02000 5.858
98.04000 2.672
98.06000 7.821
98.08000 8.512
98.10000 9.936
98.12000 9.279
98.14000 4.113
98.16000 5.051
98.18000 9.297
98.20000 4.988
98.22000 -1.612
98.24000 -0.800
98.26000 -2.023
98.28000 2.953
98.30000 9.669
98.32000 7.573
98.34000 9.498
98.36000 13.230
98.38000 4.128
98.40000 -1.022
98.42000 3.807
98.44000 2.721
98.46000 6.864
98.48000 9.691
98.50000 6.635
98.52000 7.728
98.54000 6.482
98.56000 1.674
98.58000 2.846
98.60000 3.431
98.62000 7.005
98.64000 5.842
98.66000 9.736
98.68000 14.015
98.70000 16.707
98.72000 15.580
98.74000 7.249
98.76000 9.982
98.78000 7.838
98.80000 5.634
98.82000 4.532
98.84000 2.846
98.86000 2.953
98.88000 5.230
98.90000 10.323
98.92000 7.883
98.94000 -1.454
98.96000 1.664
98.98000 3.161
99.00000 7.568
99.02000 5.419
99.04000 1.570
99.06000 1.870
99.08000 6.641
99.10000 7.536
99.12000 7.457
99.14000 7.760
99.16000 10.016
99.18000 9.568
99.20000 6.398
99.22000 3.670
99.24000 7.298
99.26000 13.026
99.28000 13.926
99.30000 12.280
99.32000 7.610
99.34000 4.804
99.36000 1.217
99.38000 1.887
99.40000 12.463
99.42000 6.914
99.44000 10.479
99.46000 7.023
99.48000 9.398
99.50000 5.549
99.52000 3.473
99.54000 1.793
99.56000 6.676
99.58000 8.646
99.60000 7.939
99.62000 4.845
99.64000 19.005
99.66000 17.541
99.68000 5.322
99.70000 3.894
99.72000 9.384
99.74000 6.529
99.76000 14.243
99.78000 8.344
99.80000 4.793
99.82000 0.092
99.84000 -1.988
99.86000 2.305
99.88000 1.184
99.90000 7.483
99.92000 7.878
99.94000 5.643
99.96000 2.301
99.98000 0.000
