'Id: "0011388" Comment: "Integrate frame 0011388_Au-Ir-Rh_Rh-rich_XRD-Mapping-278-0000.gfrmwith cursor Wedge Cursor #5" Operator: "B?rgel" Anode: "Cu" Wavelength: "1.5406" Scantype: "2Theta (TwoTheta)" TimePerStep: "1" X: "40.5" Y: "22.5" Z: "5.95" 
10.00000 0.000
10.02000 -3.131
10.04000 6.042
10.06000 4.914
10.08000 -1.228
10.10000 15.401
10.12000 18.735
10.14000 12.922
10.16000 12.251
10.18000 6.410
10.20000 1.629
10.22000 9.874
10.24000 7.049
10.26000 2.891
10.28000 10.998
10.30000 17.754
10.32000 10.187
10.34000 13.086
10.36000 24.900
10.38000 9.332
10.40000 9.484
10.42000 14.107
10.44000 23.897
10.46000 19.514
10.48000 13.989
10.50000 9.833
10.52000 8.727
10.54000 13.895
10.56000 19.229
10.58000 20.136
10.60000 19.268
10.62000 27.204
10.64000 28.222
10.66000 20.954
10.68000 15.380
10.70000 17.106
10.72000 13.338
10.74000 19.873
10.76000 21.577
10.78000 16.769
10.80000 18.239
10.82000 16.453
10.84000 17.633
10.86000 17.675
10.88000 20.539
10.90000 17.230
10.92000 13.124
10.94000 33.976
10.96000 31.194
10.98000 33.725
11.00000 30.998
11.02000 30.014
11.04000 24.997
11.06000 27.260
11.08000 28.707
11.10000 28.556
11.12000 31.132
11.14000 26.418
11.16000 39.360
11.18000 44.288
11.20000 39.867
11.22000 29.375
11.24000 41.351
11.26000 33.355
11.28000 22.020
11.30000 31.706
11.32000 32.719
11.34000 31.154
11.36000 28.564
11.38000 25.137
11.40000 21.015
11.42000 31.800
11.44000 27.948
11.46000 26.490
11.48000 23.005
11.50000 31.525
11.52000 38.066
11.54000 35.629
11.56000 33.180
11.58000 34.969
11.60000 39.875
11.62000 40.825
11.64000 36.895
11.66000 35.371
11.68000 34.193
11.70000 33.079
11.72000 39.569
11.74000 42.226
11.76000 37.688
11.78000 30.087
11.80000 38.596
11.82000 40.066
11.84000 39.279
11.86000 46.081
11.88000 42.880
11.90000 40.823
11.92000 40.562
11.94000 26.865
11.96000 21.803
11.98000 25.250
12.00000 36.417
12.02000 34.259
12.04000 35.618
12.06000 34.415
12.08000 34.632
12.10000 36.790
12.12000 44.913
12.14000 39.149
12.16000 34.132
12.18000 35.711
12.20000 38.820
12.22000 40.585
12.24000 43.254
12.26000 39.842
12.28000 47.157
12.30000 59.102
12.32000 51.893
12.34000 53.113
12.36000 38.274
12.38000 34.270
12.40000 44.403
12.42000 46.314
12.44000 50.166
12.46000 37.179
12.48000 43.391
12.50000 45.152
12.52000 45.847
12.54000 46.285
12.56000 48.234
12.58000 42.744
12.60000 44.607
12.62000 42.516
12.64000 35.825
12.66000 40.334
12.68000 48.085
12.70000 43.784
12.72000 36.815
12.74000 42.006
12.76000 51.234
12.78000 45.970
12.80000 41.953
12.82000 43.440
12.84000 48.683
12.86000 47.286
12.88000 44.465
12.90000 45.401
12.92000 48.737
12.94000 41.028
12.96000 40.227
12.98000 45.855
13.00000 50.625
13.02000 43.558
13.04000 41.852
13.06000 44.328
13.08000 36.927
13.10000 38.979
13.12000 38.835
13.14000 41.391
13.16000 49.858
13.18000 48.391
13.20000 40.642
13.22000 55.898
13.24000 50.405
13.26000 43.874
13.28000 45.055
13.30000 44.013
13.32000 39.176
13.34000 37.878
13.36000 39.253
13.38000 40.883
13.40000 45.427
13.42000 52.302
13.44000 50.035
13.46000 44.662
13.48000 38.568
13.50000 33.660
13.52000 33.454
13.54000 38.256
13.56000 39.240
13.58000 45.523
13.60000 45.661
13.62000 39.427
13.64000 40.381
13.66000 37.010
13.68000 46.116
13.70000 51.665
13.72000 44.870
13.74000 39.491
13.76000 40.697
13.78000 46.986
13.80000 49.177
13.82000 32.642
13.84000 26.191
13.86000 36.667
13.88000 43.480
13.90000 34.774
13.92000 35.852
13.94000 31.392
13.96000 35.715
13.98000 26.714
14.00000 29.981
14.02000 28.970
14.04000 36.720
14.06000 32.952
14.08000 38.495
14.10000 46.266
14.12000 34.120
14.14000 31.608
14.16000 28.378
14.18000 28.504
14.20000 30.123
14.22000 26.181
14.24000 27.735
14.26000 24.511
14.28000 27.114
14.30000 27.182
14.32000 31.376
14.34000 27.861
14.36000 28.689
14.38000 31.120
14.40000 29.612
14.42000 28.842
14.44000 38.139
14.46000 33.418
14.48000 32.420
14.50000 34.908
14.52000 31.389
14.54000 30.276
14.56000 25.915
14.58000 24.916
14.60000 28.090
14.62000 29.833
14.64000 27.465
14.66000 28.004
14.68000 24.840
14.70000 19.637
14.72000 19.583
14.74000 23.230
14.76000 29.780
14.78000 29.982
14.80000 34.041
14.82000 32.536
14.84000 35.083
14.86000 33.003
14.88000 20.985
14.90000 33.379
14.92000 35.793
14.94000 30.173
14.96000 26.702
14.98000 24.505
15.00000 30.116
15.02000 27.109
15.04000 24.163
15.06000 20.155
15.08000 26.246
15.10000 26.874
15.12000 22.753
15.14000 23.545
15.16000 27.846
15.18000 34.026
15.20000 28.783
15.22000 22.285
15.24000 23.929
15.26000 24.373
15.28000 22.097
15.30000 23.431
15.32000 28.256
15.34000 26.355
15.36000 26.338
15.38000 25.394
15.40000 21.739
15.42000 18.425
15.44000 22.419
15.46000 16.924
15.48000 17.830
15.50000 20.726
15.52000 17.800
15.54000 20.043
15.56000 17.607
15.58000 13.377
15.60000 23.298
15.62000 21.338
15.64000 17.778
15.66000 18.672
15.68000 16.909
15.70000 14.105
15.72000 11.816
15.74000 18.713
15.76000 13.859
15.78000 18.605
15.80000 23.840
15.82000 24.633
15.84000 18.330
15.86000 17.006
15.88000 13.667
15.90000 12.113
15.92000 5.556
15.94000 15.377
15.96000 20.290
15.98000 11.559
16.00000 11.334
16.02000 14.024
16.04000 23.673
16.06000 15.681
16.08000 7.607
16.10000 2.383
16.12000 17.190
16.14000 23.865
16.16000 9.187
16.18000 8.721
16.20000 16.352
16.22000 20.397
16.24000 18.141
16.26000 17.212
16.28000 13.103
16.30000 13.943
16.32000 19.668
16.34000 18.041
16.36000 9.945
16.38000 16.732
16.40000 26.044
16.42000 18.318
16.44000 10.316
16.46000 3.695
16.48000 16.373
16.50000 16.975
16.52000 19.335
16.54000 12.609
16.56000 15.059
16.58000 16.366
16.60000 13.219
16.62000 5.369
16.64000 2.199
16.66000 10.367
16.68000 14.697
16.70000 7.769
16.72000 9.848
16.74000 14.604
16.76000 18.814
16.78000 14.291
16.80000 8.833
16.82000 10.772
16.84000 10.584
16.86000 17.451
16.88000 14.483
16.90000 9.061
16.92000 0.249
16.94000 13.260
16.96000 13.571
16.98000 8.328
17.00000 8.856
17.02000 10.710
17.04000 16.546
17.06000 15.402
17.08000 7.815
17.10000 12.835
17.12000 14.605
17.14000 11.329
17.16000 4.643
17.18000 8.504
17.20000 8.037
17.22000 4.883
17.24000 12.081
17.26000 19.595
17.28000 15.113
17.30000 13.471
17.32000 9.409
17.34000 5.756
17.36000 13.002
17.38000 20.361
17.40000 12.347
17.42000 11.007
17.44000 11.057
17.46000 14.017
17.48000 10.232
17.50000 8.635
17.52000 11.083
17.54000 12.314
17.56000 5.142
17.58000 8.373
17.60000 8.871
17.62000 11.396
17.64000 13.162
17.66000 10.934
17.68000 16.609
17.70000 14.557
17.72000 13.589
17.74000 11.109
17.76000 15.306
17.78000 11.460
17.80000 10.194
17.82000 14.481
17.84000 8.460
17.86000 7.047
17.88000 10.669
17.90000 9.457
17.92000 9.609
17.94000 7.025
17.96000 7.242
17.98000 6.610
18.00000 8.009
18.02000 4.232
18.04000 2.523
18.06000 4.568
18.08000 8.305
18.10000 11.122
18.12000 12.272
18.14000 18.238
18.16000 12.035
18.18000 14.268
18.20000 12.956
18.22000 8.610
18.24000 7.048
18.26000 7.796
18.28000 5.577
18.30000 -1.565
18.32000 3.394
18.34000 9.386
18.36000 10.617
18.38000 9.638
18.40000 12.175
18.42000 15.570
18.44000 16.585
18.46000 14.982
18.48000 5.874
18.50000 -4.298
18.52000 -0.706
18.54000 1.844
18.56000 9.960
18.58000 7.890
18.60000 -3.943
18.62000 2.699
18.64000 16.136
18.66000 20.542
18.68000 13.876
18.70000 13.312
18.72000 13.051
18.74000 12.485
18.76000 5.901
18.78000 7.181
18.80000 7.296
18.82000 7.222
18.84000 7.520
18.86000 4.674
18.88000 7.435
18.90000 11.203
18.92000 12.336
18.94000 10.852
18.96000 8.578
18.98000 6.997
19.00000 2.852
19.02000 7.772
19.04000 12.131
19.06000 6.266
19.08000 5.374
19.10000 18.328
19.12000 18.133
19.14000 9.764
19.16000 5.148
19.18000 6.147
19.20000 0.237
19.22000 3.240
19.24000 4.975
19.26000 11.513
19.28000 6.889
19.30000 2.102
19.32000 4.949
19.34000 8.571
19.36000 20.662
19.38000 15.803
19.40000 9.531
19.42000 7.964
19.44000 0.534
19.46000 -4.254
19.48000 8.746
19.50000 6.865
19.52000 -1.081
19.54000 4.051
19.56000 8.747
19.58000 4.188
19.60000 2.534
19.62000 6.343
19.64000 0.014
19.66000 4.950
19.68000 5.498
19.70000 -0.271
19.72000 2.627
19.74000 -1.687
19.76000 3.829
19.78000 7.078
19.80000 11.240
19.82000 5.206
19.84000 3.160
19.86000 4.318
19.88000 2.067
19.90000 0.220
19.92000 5.511
19.94000 1.566
19.96000 2.628
19.98000 12.641
20.00000 10.824
20.02000 8.979
20.04000 10.616
20.06000 12.414
20.08000 11.985
20.10000 5.204
20.12000 -1.520
20.14000 0.360
20.16000 6.762
20.18000 8.341
20.20000 13.283
20.22000 13.425
20.24000 5.424
20.26000 -1.006
20.28000 1.124
20.30000 1.808
20.32000 2.424
20.34000 4.147
20.36000 4.269
20.38000 4.990
20.40000 7.335
20.42000 9.278
20.44000 12.300
20.46000 12.427
20.48000 6.810
20.50000 8.054
20.52000 3.115
20.54000 -4.196
20.56000 2.676
20.58000 12.648
20.60000 7.370
20.62000 5.955
20.64000 7.349
20.66000 6.381
20.68000 0.529
20.70000 1.781
20.72000 0.259
20.74000 5.427
20.76000 5.024
20.78000 12.335
20.80000 9.597
20.82000 7.349
20.84000 10.420
20.86000 12.003
20.88000 4.884
20.90000 5.607
20.92000 5.704
20.94000 5.583
20.96000 0.800
20.98000 1.565
21.00000 -0.213
21.02000 -2.636
21.04000 -1.574
21.06000 7.629
21.08000 10.279
21.10000 2.420
21.12000 1.007
21.14000 -2.213
21.16000 6.358
21.18000 9.191
21.20000 5.431
21.22000 5.597
21.24000 2.747
21.26000 5.236
21.28000 1.520
21.30000 2.235
21.32000 3.172
21.34000 5.110
21.36000 11.113
21.38000 10.024
21.40000 9.887
21.42000 12.801
21.44000 3.695
21.46000 4.147
21.48000 -0.944
21.50000 -1.328
21.52000 -4.144
21.54000 1.686
21.56000 8.608
21.58000 3.879
21.60000 1.797
21.62000 3.080
21.64000 3.866
21.66000 4.999
21.68000 5.672
21.70000 9.890
21.72000 2.531
21.74000 4.783
21.76000 9.058
21.78000 0.331
21.80000 -3.047
21.82000 -2.669
21.84000 2.254
21.86000 6.133
21.88000 3.745
21.90000 2.628
21.92000 3.791
21.94000 4.112
21.96000 4.832
21.98000 3.578
22.00000 2.642
22.02000 1.457
22.04000 -1.773
22.06000 1.708
22.08000 0.820
22.10000 -0.737
22.12000 5.172
22.14000 5.962
22.16000 6.876
22.18000 4.448
22.20000 5.381
22.22000 5.711
22.24000 -2.715
22.26000 -3.694
22.28000 3.574
22.30000 2.381
22.32000 6.326
22.34000 7.700
22.36000 4.493
22.38000 4.528
22.40000 -0.544
22.42000 -2.001
22.44000 5.776
22.46000 9.553
22.48000 8.232
22.50000 2.028
22.52000 4.282
22.54000 -2.213
22.56000 -1.724
22.58000 0.879
22.60000 2.498
22.62000 8.344
22.64000 1.649
22.66000 4.746
22.68000 0.043
22.70000 -3.647
22.72000 4.063
22.74000 8.718
22.76000 9.546
22.78000 5.367
22.80000 4.998
22.82000 11.018
22.84000 5.812
22.86000 -4.129
22.88000 -1.655
22.90000 2.057
22.92000 -1.994
22.94000 -3.060
22.96000 6.208
22.98000 4.324
23.00000 3.032
23.02000 0.686
23.04000 0.640
23.06000 -0.257
23.08000 1.465
23.10000 1.598
23.12000 6.760
23.14000 6.189
23.16000 -0.060
23.18000 0.188
23.20000 0.433
23.22000 2.772
23.24000 8.102
23.26000 -0.595
23.28000 -0.524
23.30000 -1.829
23.32000 0.100
23.34000 0.118
23.36000 1.932
23.38000 6.114
23.40000 7.264
23.42000 1.580
23.44000 2.993
23.46000 6.425
23.48000 3.658
23.50000 8.071
23.52000 9.671
23.54000 4.069
23.56000 4.434
23.58000 7.684
23.60000 5.442
23.62000 -1.045
23.64000 -2.676
23.66000 2.426
23.68000 3.275
23.70000 7.591
23.72000 5.022
23.74000 2.971
23.76000 2.119
23.78000 5.133
23.80000 1.514
23.82000 2.772
23.84000 -2.953
23.86000 0.063
23.88000 -0.022
23.90000 0.046
23.92000 1.322
23.94000 -1.269
23.96000 3.374
23.98000 4.894
24.00000 4.294
24.02000 2.570
24.04000 -0.355
24.06000 8.101
24.08000 10.140
24.10000 4.999
24.12000 2.670
24.14000 1.869
24.16000 4.088
24.18000 0.355
24.20000 -4.031
24.22000 -0.002
24.24000 5.220
24.26000 7.683
24.28000 3.966
24.30000 3.572
24.32000 0.670
24.34000 5.460
24.36000 10.820
24.38000 9.417
24.40000 7.533
24.42000 3.602
24.44000 1.210
24.46000 2.739
24.48000 4.490
24.50000 4.173
24.52000 2.868
24.54000 8.834
24.56000 9.511
24.58000 3.424
24.60000 1.414
24.62000 3.548
24.64000 0.157
24.66000 5.909
24.68000 8.765
24.70000 5.614
24.72000 -0.738
24.74000 -2.594
24.76000 -2.551
24.78000 6.734
24.80000 5.964
24.82000 1.941
24.84000 2.484
24.86000 4.257
24.88000 3.478
24.90000 9.359
24.92000 4.121
24.94000 3.694
24.96000 8.306
24.98000 8.494
25.00000 5.969
25.02000 6.802
25.04000 5.087
25.06000 -1.904
25.08000 -3.969
25.10000 -2.826
25.12000 -2.258
25.14000 3.051
25.16000 9.826
25.18000 8.499
25.20000 7.139
25.22000 6.022
25.24000 -0.288
25.26000 -3.176
25.28000 -1.183
25.30000 1.819
25.32000 5.577
25.34000 5.362
25.36000 0.872
25.38000 -0.889
25.40000 0.768
25.42000 5.559
25.44000 6.411
25.46000 6.762
25.48000 1.114
25.50000 3.749
25.52000 7.111
25.54000 7.830
25.56000 5.008
25.58000 1.818
25.60000 4.231
25.62000 -1.436
25.64000 -0.964
25.66000 0.026
25.68000 0.840
25.70000 2.983
25.72000 4.620
25.74000 4.883
25.76000 3.310
25.78000 -1.477
25.80000 -0.193
25.82000 2.554
25.84000 4.217
25.86000 7.387
25.88000 6.642
25.90000 4.355
25.92000 3.058
25.94000 4.892
25.96000 6.221
25.98000 -0.858
26.00000 1.772
26.02000 2.807
26.04000 2.157
26.06000 2.250
26.08000 6.122
26.10000 5.126
26.12000 3.086
26.14000 1.918
26.16000 3.003
26.18000 5.594
26.20000 4.022
26.22000 0.994
26.24000 3.594
26.26000 2.674
26.28000 -2.424
26.30000 1.783
26.32000 -3.909
26.34000 -3.002
26.36000 1.123
26.38000 1.643
26.40000 0.403
26.42000 2.766
26.44000 5.654
26.46000 5.088
26.48000 2.944
26.50000 -0.714
26.52000 -0.353
26.54000 0.715
26.56000 9.478
26.58000 9.728
26.60000 5.336
26.62000 -2.506
26.64000 -3.052
26.66000 3.256
26.68000 5.872
26.70000 6.062
26.72000 0.141
26.74000 -2.977
26.76000 2.178
26.78000 3.671
26.80000 3.914
26.82000 2.755
26.84000 -0.214
26.86000 3.023
26.88000 -0.149
26.90000 4.632
26.92000 4.741
26.94000 4.063
26.96000 -0.777
26.98000 -0.507
27.00000 5.705
27.02000 1.448
27.04000 4.913
27.06000 5.428
27.08000 -0.595
27.10000 -2.017
27.12000 2.316
27.14000 4.952
27.16000 6.774
27.18000 5.552
27.20000 3.461
27.22000 3.542
27.24000 -0.552
27.26000 2.736
27.28000 3.288
27.30000 1.624
27.32000 3.787
27.34000 -3.842
27.36000 0.479
27.38000 4.176
27.40000 6.273
27.42000 6.417
27.44000 3.037
27.46000 5.986
27.48000 2.034
27.50000 -1.930
27.52000 4.818
27.54000 3.624
27.56000 2.613
27.58000 2.190
27.60000 5.532
27.62000 8.514
27.64000 5.766
27.66000 7.675
27.68000 8.605
27.70000 5.541
27.72000 -0.905
27.74000 -3.077
27.76000 -0.452
27.78000 2.863
27.80000 3.822
27.82000 3.144
27.84000 5.159
27.86000 5.429
27.88000 5.138
27.90000 4.129
27.92000 2.005
27.94000 0.307
27.96000 0.111
27.98000 -3.824
28.00000 -2.422
28.02000 7.637
28.04000 5.924
28.06000 4.805
28.08000 2.836
28.10000 2.584
28.12000 1.731
28.14000 3.255
28.16000 5.915
28.18000 -0.382
28.20000 -3.242
28.22000 1.432
28.24000 -0.257
28.26000 3.101
28.28000 5.539
28.30000 3.454
28.32000 5.018
28.34000 2.581
28.36000 2.761
28.38000 1.964
28.40000 0.945
28.42000 -1.553
28.44000 -0.768
28.46000 -0.271
28.48000 -0.567
28.50000 -0.505
28.52000 3.658
28.54000 4.888
28.56000 4.480
28.58000 2.287
28.60000 0.651
28.62000 0.312
28.64000 2.202
28.66000 5.383
28.68000 6.984
28.70000 4.539
28.72000 0.138
28.74000 0.714
28.76000 -0.288
28.78000 1.447
28.80000 4.519
28.82000 1.464
28.84000 -1.364
28.86000 -3.792
28.88000 2.512
28.90000 -1.018
28.92000 -0.606
28.94000 -2.341
28.96000 0.802
28.98000 2.909
29.00000 3.450
29.02000 0.075
29.04000 3.118
29.06000 2.240
29.08000 4.882
29.10000 8.564
29.12000 4.200
29.14000 0.485
29.16000 -0.264
29.18000 -1.567
29.20000 2.288
29.22000 1.326
29.24000 -1.053
29.26000 -3.767
29.28000 2.058
29.30000 8.175
29.32000 4.308
29.34000 3.713
29.36000 3.818
29.38000 2.525
29.40000 0.936
29.42000 6.953
29.44000 0.871
29.46000 2.541
29.48000 3.713
29.50000 -1.829
29.52000 -2.942
29.54000 -1.778
29.56000 -0.722
29.58000 -3.742
29.60000 3.100
29.62000 8.114
29.64000 5.271
29.66000 7.246
29.68000 13.754
29.70000 7.306
29.72000 5.285
29.74000 7.500
29.76000 4.363
29.78000 1.754
29.80000 -1.041
29.82000 -1.966
29.84000 3.995
29.86000 2.300
29.88000 -2.423
29.90000 4.180
29.92000 3.282
29.94000 0.370
29.96000 0.890
29.98000 -3.006
30.00000 -0.974
30.02000 0.341
30.04000 3.277
30.06000 2.603
30.08000 -0.950
30.10000 -3.126
30.12000 -3.721
30.14000 -1.967
30.16000 3.281
30.18000 2.146
30.20000 -2.475
30.22000 0.184
30.24000 6.109
30.26000 5.393
30.28000 8.296
30.30000 4.252
30.32000 3.848
30.34000 1.086
30.36000 1.214
30.38000 4.238
30.40000 3.516
30.42000 3.601
30.44000 6.222
30.46000 4.539
30.48000 1.971
30.50000 2.950
30.52000 2.669
30.54000 1.934
30.56000 -0.169
30.58000 0.655
30.60000 -2.084
30.62000 -1.664
30.64000 -2.526
30.66000 -3.693
30.68000 1.390
30.70000 4.818
30.72000 -1.656
30.74000 0.305
30.76000 0.030
30.78000 2.566
30.80000 4.192
30.82000 1.508
30.84000 3.363
30.86000 5.663
30.88000 6.853
30.90000 2.173
30.92000 0.552
30.94000 3.344
30.96000 1.765
30.98000 2.580
31.00000 3.723
31.02000 0.158
31.04000 0.992
31.06000 4.756
31.08000 8.277
31.10000 6.082
31.12000 3.653
31.14000 11.023
31.16000 6.303
31.18000 1.525
31.20000 2.197
31.22000 1.085
31.24000 -0.146
31.26000 -3.658
31.28000 -2.686
31.30000 -0.286
31.32000 -0.888
31.34000 -1.519
31.36000 4.721
31.38000 4.079
31.40000 -0.924
31.42000 0.351
31.44000 4.057
31.46000 2.561
31.48000 2.162
31.50000 7.592
31.52000 5.563
31.54000 2.911
31.56000 0.659
31.58000 4.076
31.60000 0.877
31.62000 4.931
31.64000 8.346
31.66000 1.434
31.68000 -3.407
31.70000 2.689
31.72000 3.698
31.74000 3.428
31.76000 0.920
31.78000 1.877
31.80000 1.438
31.82000 -3.587
31.84000 -3.151
31.86000 -3.647
31.88000 1.350
31.90000 1.433
31.92000 2.218
31.94000 4.857
31.96000 5.782
31.98000 10.483
32.00000 6.483
32.02000 5.628
32.04000 1.405
32.06000 2.281
32.08000 1.004
32.10000 -2.393
32.12000 2.882
32.14000 1.112
32.16000 1.886
32.18000 1.664
32.20000 0.817
32.22000 3.579
32.24000 6.252
32.26000 5.803
32.28000 6.304
32.30000 -2.507
32.32000 -2.119
32.34000 3.993
32.36000 1.534
32.38000 -2.584
32.40000 -1.385
32.42000 3.228
32.44000 1.994
32.46000 5.495
32.48000 7.340
32.50000 6.484
32.52000 5.130
32.54000 1.419
32.56000 4.704
32.58000 3.414
32.60000 2.739
32.62000 8.848
32.64000 12.658
32.66000 4.324
32.68000 1.519
32.70000 5.796
32.72000 1.605
32.74000 3.643
32.76000 3.635
32.78000 4.806
32.80000 6.281
32.82000 3.940
32.84000 6.847
32.86000 7.590
32.88000 6.196
32.90000 -2.332
32.92000 -3.597
32.94000 -3.065
32.96000 2.201
32.98000 10.883
33.00000 11.063
33.02000 4.738
33.04000 1.567
33.06000 1.896
33.08000 5.015
33.10000 4.923
33.12000 -1.945
33.14000 4.185
33.16000 -1.727
33.18000 1.325
33.20000 6.811
33.22000 -2.007
33.24000 1.677
33.26000 4.632
33.28000 4.260
33.30000 0.989
33.32000 5.188
33.34000 8.634
33.36000 9.481
33.38000 5.236
33.40000 1.745
33.42000 -3.597
33.44000 0.426
33.46000 -0.743
33.48000 2.711
33.50000 2.398
33.52000 2.393
33.54000 3.689
33.56000 7.959
33.58000 6.263
33.60000 -1.978
33.62000 -0.238
33.64000 3.652
33.66000 4.713
33.68000 7.156
33.70000 8.403
33.72000 7.669
33.74000 7.038
33.76000 0.980
33.78000 4.722
33.80000 6.337
33.82000 7.294
33.84000 5.198
33.86000 4.626
33.88000 2.710
33.90000 6.326
33.92000 5.537
33.94000 0.257
33.96000 0.683
33.98000 3.302
34.00000 3.993
34.02000 4.062
34.04000 2.920
34.06000 3.979
34.08000 2.220
34.10000 0.381
34.12000 -1.919
34.14000 1.503
34.16000 1.666
34.18000 3.549
34.20000 7.724
34.22000 6.751
34.24000 3.307
34.26000 2.191
34.28000 3.913
34.30000 7.399
34.32000 7.128
34.34000 1.763
34.36000 -2.179
34.38000 1.169
34.40000 2.281
34.42000 1.774
34.44000 2.122
34.46000 2.894
34.48000 4.435
34.50000 6.788
34.52000 8.493
34.54000 5.982
34.56000 6.421
34.58000 6.700
34.60000 2.405
34.62000 0.924
34.64000 -3.573
34.66000 0.856
34.68000 1.627
34.70000 -1.076
34.72000 -0.410
34.74000 1.912
34.76000 5.617
34.78000 0.316
34.80000 3.012
34.82000 2.770
34.84000 3.588
34.86000 5.601
34.88000 4.757
34.90000 5.482
34.92000 -3.557
34.94000 -2.082
34.96000 -1.045
34.98000 1.876
35.00000 -0.087
35.02000 0.143
35.04000 0.150
35.06000 -0.426
35.08000 -3.549
35.10000 -2.826
35.12000 1.580
35.14000 5.878
35.16000 4.203
35.18000 6.768
35.20000 5.813
35.22000 4.130
35.24000 0.493
35.26000 -1.932
35.28000 -0.328
35.30000 2.085
35.32000 4.983
35.34000 6.296
35.36000 2.468
35.38000 0.936
35.40000 -2.069
35.42000 -0.865
35.44000 3.414
35.46000 4.911
35.48000 3.720
35.50000 2.858
35.52000 2.918
35.54000 1.196
35.56000 1.393
35.58000 4.434
35.60000 1.421
35.62000 1.849
35.64000 6.143
35.66000 6.669
35.68000 2.743
35.70000 5.194
35.72000 3.220
35.74000 5.559
35.76000 8.640
35.78000 0.378
35.80000 0.587
35.82000 -3.534
35.84000 -3.272
35.86000 1.158
35.88000 2.359
35.90000 6.096
35.92000 7.276
35.94000 9.866
35.96000 13.540
35.98000 6.999
36.00000 -0.999
36.02000 -3.542
36.04000 -0.144
36.06000 0.530
36.08000 6.716
36.10000 12.216
36.12000 8.967
36.14000 1.321
36.16000 -3.286
36.18000 -0.378
36.20000 2.594
36.22000 4.075
36.24000 7.285
36.26000 7.501
36.28000 5.401
36.30000 2.855
36.32000 3.280
36.34000 2.032
36.36000 0.558
36.38000 -0.676
36.40000 1.742
36.42000 3.170
36.44000 3.626
36.46000 7.809
36.48000 6.926
36.50000 6.209
36.52000 0.787
36.54000 3.035
36.56000 3.114
36.58000 4.473
36.60000 1.625
36.62000 6.003
36.64000 4.199
36.66000 2.233
36.68000 4.081
36.70000 8.080
36.72000 5.561
36.74000 2.055
36.76000 2.346
36.78000 3.041
36.80000 4.469
36.82000 0.798
36.84000 3.340
36.86000 3.653
36.88000 3.328
36.90000 9.435
36.92000 5.716
36.94000 -0.420
36.96000 4.316
36.98000 6.346
37.00000 0.372
37.02000 3.664
37.04000 -3.579
37.06000 -0.580
37.08000 3.069
37.10000 -2.789
37.12000 0.669
37.14000 4.883
37.16000 3.696
37.18000 0.919
37.20000 3.250
37.22000 6.087
37.24000 3.507
37.26000 1.741
37.28000 -1.628
37.30000 -3.119
37.32000 0.132
37.34000 -1.678
37.36000 0.559
37.38000 2.291
37.40000 4.692
37.42000 2.697
37.44000 5.872
37.46000 7.935
37.48000 5.962
37.50000 9.869
37.52000 7.526
37.54000 6.547
37.56000 6.060
37.58000 5.212
37.60000 0.753
37.62000 -3.623
37.64000 -1.131
37.66000 1.190
37.68000 8.713
37.70000 5.144
37.72000 6.909
37.74000 2.296
37.76000 -0.576
37.78000 -0.287
37.80000 7.347
37.82000 8.238
37.84000 3.788
37.86000 1.820
37.88000 1.226
37.90000 5.001
37.92000 5.413
37.94000 12.098
37.96000 8.326
37.98000 7.121
38.00000 7.693
38.02000 9.413
38.04000 9.400
38.06000 9.360
38.08000 7.909
38.10000 12.196
38.12000 12.594
38.14000 7.159
38.16000 11.025
38.18000 11.994
38.20000 14.060
38.22000 16.739
38.24000 14.969
38.26000 16.523
38.28000 12.275
38.30000 11.421
38.32000 12.279
38.34000 15.783
38.36000 14.715
38.38000 10.955
38.40000 11.208
38.42000 15.909
38.44000 21.124
38.46000 23.637
38.48000 23.354
38.50000 14.913
38.52000 20.907
38.54000 19.153
38.56000 20.940
38.58000 22.986
38.60000 23.601
38.62000 27.428
38.64000 25.703
38.66000 23.608
38.68000 22.161
38.70000 23.981
38.72000 22.739
38.74000 22.614
38.76000 23.766
38.78000 26.218
38.80000 28.140
38.82000 29.912
38.84000 30.328
38.86000 28.112
38.88000 28.811
38.90000 30.814
38.92000 32.687
38.94000 33.591
38.96000 32.918
38.98000 33.903
39.00000 36.888
39.02000 33.734
39.04000 31.863
39.06000 33.286
39.08000 36.342
39.10000 40.163
39.12000 47.090
39.14000 48.390
39.16000 46.743
39.18000 44.450
39.20000 45.513
39.22000 53.207
39.24000 50.843
39.26000 51.587
39.28000 50.647
39.30000 52.076
39.32000 51.896
39.34000 58.369
39.36000 62.167
39.38000 59.229
39.40000 63.188
39.42000 64.324
39.44000 68.996
39.46000 70.589
39.48000 73.047
39.50000 83.847
39.52000 86.601
39.54000 84.201
39.56000 83.530
39.58000 85.495
39.60000 91.805
39.62000 96.048
39.64000 98.374
39.66000 105.678
39.68000 110.451
39.70000 118.835
39.72000 124.362
39.74000 131.023
39.76000 131.601
39.78000 142.129
39.80000 146.848
39.82000 154.982
39.84000 168.166
39.86000 170.355
39.88000 178.281
39.90000 190.486
39.92000 210.553
39.94000 214.636
39.96000 219.518
39.98000 224.667
40.00000 234.718
40.02000 248.342
40.04000 257.972
40.06000 272.797
40.08000 283.173
40.10000 299.382
40.12000 310.792
40.14000 329.919
40.16000 356.161
40.18000 367.123
40.20000 377.348
40.22000 397.394
40.24000 419.978
40.26000 438.189
40.28000 461.710
40.30000 475.623
40.32000 493.384
40.34000 511.056
40.36000 533.400
40.38000 563.891
40.40000 579.875
40.42000 596.701
40.44000 623.063
40.46000 647.031
40.48000 662.469
40.50000 678.959
40.52000 700.161
40.54000 710.792
40.56000 715.844
40.58000 745.357
40.60000 773.235
40.62000 776.217
40.64000 775.694
40.66000 778.884
40.68000 783.231
40.70000 784.690
40.72000 783.574
40.74000 784.074
40.76000 781.910
40.78000 785.381
40.80000 774.634
40.82000 756.584
40.84000 745.161
40.86000 731.269
40.88000 701.403
40.90000 703.243
40.92000 674.833
40.94000 654.161
40.96000 639.324
40.98000 625.224
41.00000 595.591
41.02000 569.233
41.04000 548.140
41.06000 528.185
41.08000 506.287
41.10000 493.601
41.12000 468.143
41.14000 443.987
41.16000 415.907
41.18000 399.526
41.20000 390.663
41.22000 369.986
41.24000 345.238
41.26000 330.833
41.28000 316.958
41.30000 290.852
41.32000 280.125
41.34000 269.659
41.36000 255.003
41.38000 238.014
41.40000 218.309
41.42000 206.744
41.44000 192.574
41.46000 183.989
41.48000 176.061
41.50000 168.169
41.52000 154.430
41.54000 152.357
41.56000 137.800
41.58000 135.381
41.60000 125.909
41.62000 114.703
41.64000 114.285
41.66000 108.188
41.68000 100.294
41.70000 99.035
41.72000 99.289
41.74000 84.795
41.76000 81.717
41.78000 76.846
41.80000 74.991
41.82000 69.178
41.84000 70.640
41.86000 69.157
41.88000 65.535
41.90000 53.343
41.92000 53.059
41.94000 54.698
41.96000 51.571
41.98000 51.574
42.00000 47.025
42.02000 41.230
42.04000 45.520
42.06000 40.369
42.08000 36.446
42.10000 31.915
42.12000 38.859
42.14000 35.949
42.16000 32.264
42.18000 31.705
42.20000 31.540
42.22000 29.421
42.24000 27.213
42.26000 22.590
42.28000 21.941
42.30000 21.312
42.32000 23.856
42.34000 17.853
42.36000 19.513
42.38000 17.010
42.40000 9.273
42.42000 11.661
42.44000 12.214
42.46000 14.444
42.48000 13.200
42.50000 9.448
42.52000 10.142
42.54000 10.679
42.56000 8.731
42.58000 7.639
42.60000 6.579
42.62000 2.802
42.64000 5.138
42.66000 10.938
42.68000 12.326
42.70000 9.255
42.72000 8.019
42.74000 5.121
42.76000 8.845
42.78000 8.044
42.80000 6.811
42.82000 6.930
42.84000 5.305
42.86000 5.256
42.88000 0.150
42.90000 -0.933
42.92000 0.439
42.94000 0.131
42.96000 2.780
42.98000 5.073
43.00000 3.362
43.02000 0.232
43.04000 -0.182
43.06000 2.774
43.08000 2.910
43.10000 3.481
43.12000 0.112
43.14000 -2.241
43.16000 -2.940
43.18000 -0.041
43.20000 2.188
43.22000 -0.303
43.24000 2.260
43.26000 3.144
43.28000 1.082
43.30000 0.142
43.32000 0.022
43.34000 0.244
43.36000 -2.109
43.38000 -1.916
43.40000 0.274
43.42000 -0.998
43.44000 0.273
43.46000 5.745
43.48000 3.851
43.50000 2.482
43.52000 1.987
43.54000 -1.605
43.56000 -2.714
43.58000 3.932
43.60000 5.582
43.62000 2.271
43.64000 -1.348
43.66000 -3.543
43.68000 0.466
43.70000 -1.395
43.72000 -2.708
43.74000 -0.542
43.76000 -3.646
43.78000 -2.219
43.80000 2.115
43.82000 2.792
43.84000 1.389
43.86000 2.881
43.88000 2.532
43.90000 3.421
43.92000 -1.308
43.94000 -0.301
43.96000 3.391
43.98000 1.265
44.00000 4.456
44.02000 6.877
44.04000 6.530
44.06000 2.508
44.08000 -3.602
44.10000 -1.252
44.12000 0.234
44.14000 1.429
44.16000 2.174
44.18000 -1.677
44.20000 -1.186
44.22000 2.104
44.24000 0.291
44.26000 3.134
44.28000 4.926
44.30000 -0.649
44.32000 -3.340
44.34000 -0.380
44.36000 3.551
44.38000 4.907
44.40000 7.402
44.42000 7.370
44.44000 2.269
44.46000 -0.476
44.48000 -2.040
44.50000 -3.566
44.52000 -3.101
44.54000 -3.189
44.56000 -1.942
44.58000 1.325
44.60000 7.149
44.62000 11.767
44.64000 6.105
44.66000 10.573
44.68000 8.386
44.70000 4.346
44.72000 4.758
44.74000 3.216
44.76000 0.862
44.78000 -1.219
44.80000 2.833
44.82000 1.240
44.84000 6.946
44.86000 8.511
44.88000 8.454
44.90000 6.796
44.92000 4.132
44.94000 0.800
44.96000 4.161
44.98000 4.402
45.00000 2.216
45.02000 1.256
45.04000 -1.714
45.06000 0.564
45.08000 5.942
45.10000 11.107
45.12000 9.008
45.14000 5.056
45.16000 4.877
45.18000 5.956
45.20000 -1.534
45.22000 0.646
45.24000 3.805
45.26000 2.052
45.28000 3.615
45.30000 4.436
45.32000 3.320
45.34000 0.976
45.36000 2.685
45.38000 3.865
45.40000 5.093
45.42000 10.419
45.44000 12.277
45.46000 5.928
45.48000 2.394
45.50000 4.471
45.52000 10.577
45.54000 3.518
45.56000 1.627
45.58000 3.830
45.60000 7.631
45.62000 14.670
45.64000 19.944
45.66000 16.163
45.68000 7.444
45.70000 5.590
45.72000 9.385
45.74000 9.639
45.76000 15.703
45.78000 19.035
45.80000 17.023
45.82000 10.195
45.84000 12.003
45.86000 10.346
45.88000 8.632
45.90000 12.954
45.92000 17.590
45.94000 23.914
45.96000 20.443
45.98000 18.531
46.00000 16.691
46.02000 17.569
46.04000 16.449
46.06000 20.520
46.08000 22.145
46.10000 20.480
46.12000 23.230
46.14000 19.593
46.16000 22.739
46.18000 21.942
46.20000 20.957
46.22000 22.785
46.24000 26.326
46.26000 28.795
46.28000 37.610
46.30000 33.853
46.32000 29.622
46.34000 31.109
46.36000 28.098
46.38000 30.482
46.40000 35.051
46.42000 34.172
46.44000 31.700
46.46000 37.452
46.48000 33.831
46.50000 37.162
46.52000 48.402
46.54000 47.127
46.56000 45.148
46.58000 47.849
46.60000 51.192
46.62000 50.672
46.64000 49.824
46.66000 49.983
46.68000 51.479
46.70000 58.689
46.72000 56.811
46.74000 56.073
46.76000 65.941
46.78000 64.532
46.80000 68.538
46.82000 63.859
46.84000 61.618
46.86000 65.743
46.88000 73.195
46.90000 70.611
46.92000 67.755
46.94000 74.374
46.96000 68.236
46.98000 67.132
47.00000 71.991
47.02000 79.235
47.04000 79.314
47.06000 82.410
47.08000 88.877
47.10000 87.083
47.12000 83.836
47.14000 81.049
47.16000 82.687
47.18000 86.934
47.20000 83.532
47.22000 84.229
47.24000 80.309
47.26000 85.141
47.28000 86.301
47.30000 81.750
47.32000 87.655
47.34000 85.138
47.36000 86.255
47.38000 86.510
47.40000 89.169
47.42000 84.210
47.44000 80.040
47.46000 77.859
47.48000 78.624
47.50000 75.816
47.52000 82.171
47.54000 81.155
47.56000 74.092
47.58000 73.081
47.60000 72.665
47.62000 67.498
47.64000 72.102
47.66000 72.781
47.68000 66.091
47.70000 64.916
47.72000 61.235
47.74000 60.557
47.76000 60.036
47.78000 56.168
47.80000 57.206
47.82000 56.852
47.84000 57.229
47.86000 57.986
47.88000 50.511
47.90000 52.441
47.92000 51.202
47.94000 46.718
47.96000 41.613
47.98000 39.304
48.00000 35.272
48.02000 33.583
48.04000 41.016
48.06000 41.814
48.08000 39.551
48.10000 36.919
48.12000 32.084
48.14000 35.267
48.16000 39.500
48.18000 36.457
48.20000 30.507
48.22000 26.587
48.24000 26.475
48.26000 22.630
48.28000 22.327
48.30000 24.034
48.32000 27.387
48.34000 24.976
48.36000 21.518
48.38000 17.670
48.40000 20.605
48.42000 20.645
48.44000 15.519
48.46000 18.169
48.48000 11.389
48.50000 14.065
48.52000 13.278
48.54000 12.000
48.56000 8.565
48.58000 12.905
48.60000 13.528
48.62000 13.503
48.64000 8.503
48.66000 13.196
48.68000 11.274
48.70000 10.572
48.72000 8.290
48.74000 4.653
48.76000 6.889
48.78000 5.888
48.80000 11.055
48.82000 12.140
48.84000 6.905
48.86000 5.961
48.88000 8.376
48.90000 8.329
48.92000 9.082
48.94000 6.700
48.96000 8.633
48.98000 6.528
49.00000 3.246
49.02000 7.219
49.04000 10.352
49.06000 9.505
49.08000 14.056
49.10000 4.894
49.12000 4.563
49.14000 12.998
49.16000 12.086
49.18000 2.553
49.20000 2.349
49.22000 1.694
49.24000 5.060
49.26000 8.698
49.28000 5.764
49.30000 8.809
49.32000 3.040
49.34000 10.320
49.36000 8.258
49.38000 0.846
49.40000 1.389
49.42000 -3.152
49.44000 8.017
49.46000 12.422
49.48000 8.938
49.50000 6.378
49.52000 4.703
49.54000 7.001
49.56000 6.672
49.58000 4.146
49.60000 12.727
49.62000 8.239
49.64000 6.035
49.66000 6.559
49.68000 7.165
49.70000 5.077
49.72000 5.426
49.74000 10.705
49.76000 4.836
49.78000 2.399
49.80000 4.392
49.82000 5.601
49.84000 1.664
49.86000 4.876
49.88000 3.353
49.90000 5.418
49.92000 3.630
49.94000 2.620
49.96000 4.652
49.98000 4.869
50.00000 6.804
50.02000 2.850
50.04000 7.849
50.06000 5.135
50.08000 0.639
50.10000 0.770
50.12000 8.188
50.14000 5.826
50.16000 -0.298
50.18000 2.133
50.20000 8.114
50.22000 5.613
50.24000 1.009
50.26000 4.964
50.28000 2.513
50.30000 -3.128
50.32000 -2.243
50.34000 0.120
50.36000 3.616
50.38000 2.981
50.40000 2.719
50.42000 2.137
50.44000 2.480
50.46000 1.908
50.48000 4.049
50.50000 3.993
50.52000 2.519
50.54000 1.311
50.56000 -2.277
50.58000 4.487
50.60000 4.351
50.62000 7.105
50.64000 6.925
50.66000 3.392
50.68000 -0.529
50.70000 0.090
50.72000 -1.327
50.74000 -1.332
50.76000 -0.849
50.78000 -0.626
50.80000 1.892
50.82000 -0.901
50.84000 0.367
50.86000 4.451
50.88000 7.321
50.90000 0.151
50.92000 2.144
50.94000 -0.704
50.96000 1.278
50.98000 1.004
51.00000 4.607
51.02000 -0.150
51.04000 4.563
51.06000 4.844
51.08000 4.270
51.10000 6.369
51.12000 6.310
51.14000 2.444
51.16000 1.158
51.18000 5.560
51.20000 2.680
51.22000 -3.073
51.24000 -1.875
51.26000 0.223
51.28000 5.045
51.30000 3.332
51.32000 6.655
51.34000 6.183
51.36000 1.037
51.38000 8.360
51.40000 6.321
51.42000 6.029
51.44000 0.698
51.46000 0.233
51.48000 4.332
51.50000 11.886
51.52000 4.986
51.54000 -1.080
51.56000 -0.304
51.58000 -2.292
51.60000 3.652
51.62000 3.762
51.64000 2.606
51.66000 3.203
51.68000 3.988
51.70000 2.818
51.72000 -1.103
51.74000 -1.065
51.76000 4.774
51.78000 11.233
51.80000 8.773
51.82000 4.615
51.84000 4.222
51.86000 4.503
51.88000 0.288
51.90000 0.356
51.92000 0.542
51.94000 -0.104
51.96000 -1.023
51.98000 -2.288
52.00000 -0.558
52.02000 -1.615
52.04000 0.236
52.06000 1.896
52.08000 0.498
52.10000 3.738
52.12000 1.638
52.14000 -0.066
52.16000 4.931
52.18000 4.634
52.20000 2.623
52.22000 3.974
52.24000 -0.626
52.26000 -0.716
52.28000 2.358
52.30000 1.196
52.32000 -0.493
52.34000 1.690
52.36000 1.274
52.38000 4.240
52.40000 3.555
52.42000 1.587
52.44000 2.969
52.46000 -0.002
52.48000 -3.029
52.50000 4.544
52.52000 9.297
52.54000 1.589
52.56000 4.209
52.58000 7.860
52.60000 7.831
52.62000 3.549
52.64000 0.475
52.66000 3.913
52.68000 7.328
52.70000 8.217
52.72000 7.736
52.74000 -0.712
52.76000 2.438
52.78000 3.961
52.80000 3.103
52.82000 8.954
52.84000 7.767
52.86000 2.283
52.88000 2.974
52.90000 1.195
52.92000 4.692
52.94000 5.275
52.96000 3.015
52.98000 5.634
53.00000 3.918
53.02000 1.280
53.04000 -0.582
53.06000 -3.026
53.08000 5.697
53.10000 4.595
53.12000 -1.963
53.14000 1.197
53.16000 5.195
53.18000 1.822
53.20000 -1.339
53.22000 1.964
53.24000 0.034
53.26000 2.365
53.28000 -1.309
53.30000 -2.294
53.32000 -0.540
53.34000 -0.041
53.36000 -0.043
53.38000 -1.600
53.40000 5.703
53.42000 7.112
53.44000 3.421
53.46000 1.486
53.48000 4.562
53.50000 -0.569
53.52000 5.953
53.54000 3.142
53.56000 4.270
53.58000 1.886
53.60000 -0.209
53.62000 -1.129
53.64000 -1.649
53.66000 -0.581
53.68000 0.855
53.70000 5.192
53.72000 7.580
53.74000 2.378
53.76000 2.523
53.78000 3.574
53.80000 -0.806
53.82000 -2.785
53.84000 -1.163
53.86000 -0.102
53.88000 1.074
53.90000 5.673
53.92000 2.372
53.94000 -3.001
53.96000 0.520
53.98000 1.114
54.00000 1.066
54.02000 1.983
54.04000 3.080
54.06000 2.900
54.08000 1.473
54.10000 2.282
54.12000 0.923
54.14000 1.179
54.16000 4.218
54.18000 4.214
54.20000 9.505
54.22000 6.394
54.24000 2.426
54.26000 7.422
54.28000 3.607
54.30000 2.507
54.32000 4.042
54.34000 3.298
54.36000 -0.820
54.38000 0.651
54.40000 2.566
54.42000 5.136
54.44000 3.993
54.46000 3.271
54.48000 3.374
54.50000 4.248
54.52000 0.871
54.54000 -0.712
54.56000 -0.706
54.58000 1.094
54.60000 1.206
54.62000 1.513
54.64000 5.852
54.66000 0.763
54.68000 3.150
54.70000 5.961
54.72000 9.009
54.74000 8.111
54.76000 7.016
54.78000 3.283
54.80000 5.947
54.82000 4.877
54.84000 4.597
54.86000 4.228
54.88000 1.182
54.90000 4.598
54.92000 6.352
54.94000 5.414
54.96000 3.528
54.98000 -2.906
55.00000 3.874
55.02000 6.075
55.04000 8.422
55.06000 6.246
55.08000 4.425
55.10000 5.508
55.12000 5.779
55.14000 2.531
55.16000 4.636
55.18000 2.812
55.20000 1.110
55.22000 7.052
55.24000 9.148
55.26000 6.929
55.28000 7.851
55.30000 8.106
55.32000 9.820
55.34000 7.253
55.36000 6.263
55.38000 12.758
55.40000 9.479
55.42000 10.537
55.44000 8.300
55.46000 8.208
55.48000 7.273
55.50000 7.599
55.52000 4.494
55.54000 -2.898
55.56000 -0.989
55.58000 2.131
55.60000 6.554
55.62000 7.322
55.64000 3.441
55.66000 1.315
55.68000 1.964
55.70000 -0.724
55.72000 4.104
55.74000 3.403
55.76000 4.863
55.78000 1.104
55.80000 0.554
55.82000 -0.237
55.84000 -1.388
55.86000 2.138
55.88000 4.670
55.90000 6.599
55.92000 5.538
55.94000 4.257
55.96000 0.149
55.98000 -2.890
56.00000 -1.389
56.02000 1.002
56.04000 5.609
56.06000 4.784
56.08000 6.810
56.10000 7.978
56.12000 10.806
56.14000 14.422
56.16000 10.088
56.18000 2.947
56.20000 6.615
56.22000 2.739
56.24000 0.042
56.26000 1.188
56.28000 0.772
56.30000 3.887
56.32000 4.010
56.34000 2.531
56.36000 6.724
56.38000 8.641
56.40000 6.214
56.42000 1.870
56.44000 1.169
56.46000 3.970
56.48000 8.934
56.50000 6.836
56.52000 3.376
56.54000 4.589
56.56000 6.072
56.58000 3.139
56.60000 4.205
56.62000 5.126
56.64000 3.787
56.66000 1.112
56.68000 -0.903
56.70000 3.254
56.72000 0.963
56.74000 1.606
56.76000 3.089
56.78000 8.993
56.80000 1.896
56.82000 2.303
56.84000 4.282
56.86000 4.521
56.88000 1.786
56.90000 2.061
56.92000 2.088
56.94000 0.611
56.96000 -0.336
56.98000 0.084
57.00000 2.001
57.02000 1.906
57.04000 4.353
57.06000 5.172
57.08000 0.664
57.10000 3.136
57.12000 5.170
57.14000 1.420
57.16000 -0.348
57.18000 4.409
57.20000 5.937
57.22000 0.346
57.24000 3.200
57.26000 -0.748
57.28000 1.045
57.30000 6.996
57.32000 10.418
57.34000 6.534
57.36000 6.910
57.38000 5.283
57.40000 0.660
57.42000 5.411
57.44000 8.854
57.46000 1.109
57.48000 -0.508
57.50000 -2.498
57.52000 1.465
57.54000 4.142
57.56000 5.431
57.58000 7.596
57.60000 6.896
57.62000 1.804
57.64000 1.138
57.66000 5.637
57.68000 9.346
57.70000 3.688
57.72000 7.508
57.74000 7.036
57.76000 -1.181
57.78000 -1.871
57.80000 -2.825
57.82000 0.061
57.84000 3.427
57.86000 4.201
57.88000 5.586
57.90000 7.737
57.92000 4.522
57.94000 4.127
57.96000 2.638
57.98000 2.968
58.00000 0.223
58.02000 2.994
58.04000 1.288
58.06000 1.909
58.08000 5.784
58.10000 0.742
58.12000 -0.102
58.14000 5.666
58.16000 3.448
58.18000 -1.792
58.20000 5.066
58.22000 5.636
58.24000 5.428
58.26000 7.272
58.28000 4.124
58.30000 0.204
58.32000 -0.762
58.34000 3.347
58.36000 0.374
58.38000 5.268
58.40000 9.001
58.42000 6.433
58.44000 0.114
58.46000 5.252
58.48000 5.972
58.50000 8.196
58.52000 5.047
58.54000 0.103
58.56000 4.274
58.58000 -2.797
58.60000 3.060
58.62000 1.499
58.64000 2.744
58.66000 7.676
58.68000 10.008
58.70000 9.818
58.72000 4.106
58.74000 6.105
58.76000 6.128
58.78000 0.438
58.80000 7.842
58.82000 4.417
58.84000 1.846
58.86000 1.071
58.88000 3.980
58.90000 0.819
58.92000 -2.203
58.94000 0.924
58.96000 5.477
58.98000 2.209
59.00000 6.471
59.02000 4.697
59.04000 0.728
59.06000 -0.322
59.08000 4.590
59.10000 2.759
59.12000 4.207
59.14000 1.364
59.16000 1.634
59.18000 1.121
59.20000 4.871
59.22000 10.129
59.24000 11.030
59.26000 4.383
59.28000 -0.429
59.30000 5.615
59.32000 4.054
59.34000 -0.419
59.36000 -0.348
59.38000 3.858
59.40000 6.847
59.42000 3.629
59.44000 12.366
59.46000 9.309
59.48000 4.333
59.50000 2.335
59.52000 3.010
59.54000 3.272
59.56000 2.266
59.58000 4.478
59.60000 4.995
59.62000 4.174
59.64000 6.601
59.66000 3.445
59.68000 3.421
59.70000 2.140
59.72000 2.024
59.74000 3.737
59.76000 0.866
59.78000 8.983
59.80000 7.741
59.82000 7.330
59.84000 7.242
59.86000 5.074
59.88000 4.117
59.90000 5.563
59.92000 4.671
59.94000 6.774
59.96000 1.285
59.98000 4.080
60.00000 -1.650
60.02000 -2.750
60.04000 2.534
60.06000 2.267
60.08000 2.930
60.10000 3.647
60.12000 4.071
60.14000 1.866
60.16000 4.457
60.18000 7.210
60.20000 2.685
60.22000 2.485
60.24000 2.744
60.26000 5.344
60.28000 0.477
60.30000 1.461
60.32000 5.952
60.34000 2.834
60.36000 4.793
60.38000 5.579
60.40000 3.127
60.42000 4.081
60.44000 7.875
60.46000 3.620
60.48000 7.336
60.50000 5.565
60.52000 4.130
60.54000 -2.729
60.56000 -2.626
60.58000 4.919
60.60000 3.406
60.62000 0.757
60.64000 3.781
60.66000 5.791
60.68000 10.501
60.70000 5.432
60.72000 4.301
60.74000 6.191
60.76000 5.613
60.78000 6.651
60.80000 5.233
60.82000 2.636
60.84000 -2.076
60.86000 -2.095
60.88000 0.885
60.90000 -0.969
60.92000 1.466
60.94000 4.039
60.96000 4.715
60.98000 6.430
61.00000 6.431
61.02000 1.259
61.04000 -0.020
61.06000 5.363
61.08000 2.594
61.10000 -1.413
61.12000 2.650
61.14000 2.934
61.16000 1.370
61.18000 0.007
61.20000 1.093
61.22000 7.216
61.24000 4.439
61.26000 3.165
61.28000 2.980
61.30000 7.331
61.32000 2.847
61.34000 -1.950
61.36000 -1.004
61.38000 0.838
61.40000 0.374
61.42000 3.016
61.44000 2.665
61.46000 3.256
61.48000 -2.730
61.50000 0.094
61.52000 3.778
61.54000 9.868
61.56000 4.266
61.58000 1.774
61.60000 0.580
61.62000 0.805
61.64000 2.683
61.66000 6.039
61.68000 8.553
61.70000 8.186
61.72000 2.588
61.74000 0.664
61.76000 3.110
61.78000 0.014
61.80000 1.854
61.82000 1.645
61.84000 0.838
61.86000 -0.089
61.88000 3.509
61.90000 2.271
61.92000 1.667
61.94000 3.734
61.96000 1.906
61.98000 -0.319
62.00000 -2.293
62.02000 -0.978
62.04000 -0.675
62.06000 3.658
62.08000 3.205
62.10000 2.255
62.12000 1.160
62.14000 3.565
62.16000 0.337
62.18000 -1.752
62.20000 0.471
62.22000 1.538
62.24000 1.395
62.26000 0.970
62.28000 -1.412
62.30000 -1.323
62.32000 -2.475
62.34000 -1.902
62.36000 -2.010
62.38000 1.811
62.40000 -1.619
62.42000 -1.149
62.44000 0.702
62.46000 0.788
62.48000 4.004
62.50000 3.026
62.52000 0.205
62.54000 2.230
62.56000 -0.069
62.58000 -0.345
62.60000 -0.047
62.62000 2.088
62.64000 0.650
62.66000 -2.151
62.68000 1.385
62.70000 0.458
62.72000 1.928
62.74000 4.096
62.76000 2.258
62.78000 -2.694
62.80000 -0.608
62.82000 1.267
62.84000 -2.671
62.86000 -0.530
62.88000 1.940
62.90000 5.603
62.92000 7.126
62.94000 -0.142
62.96000 -1.153
62.98000 2.224
63.00000 3.611
63.02000 5.492
63.04000 3.556
63.06000 2.166
63.08000 -0.839
63.10000 0.972
63.12000 5.373
63.14000 3.241
63.16000 2.564
63.18000 2.955
63.20000 0.907
63.22000 -1.453
63.24000 -2.670
63.26000 0.832
63.28000 4.007
63.30000 5.000
63.32000 3.091
63.34000 4.919
63.36000 3.182
63.38000 4.236
63.40000 1.838
63.42000 3.505
63.44000 4.535
63.46000 5.125
63.48000 0.046
63.50000 1.418
63.52000 4.368
63.54000 2.098
63.56000 1.355
63.58000 1.123
63.60000 1.902
63.62000 3.130
63.64000 3.879
63.66000 7.794
63.68000 1.653
63.70000 -0.342
63.72000 -0.593
63.74000 2.830
63.76000 8.387
63.78000 10.350
63.80000 5.590
63.82000 4.015
63.84000 -1.993
63.86000 -2.659
63.88000 -1.468
63.90000 1.059
63.92000 1.666
63.94000 3.642
63.96000 1.661
63.98000 3.162
64.00000 2.848
64.02000 0.797
64.04000 3.945
64.06000 5.608
64.08000 2.333
64.10000 -1.288
64.12000 2.675
64.14000 0.803
64.16000 -1.469
64.18000 -0.051
64.20000 -1.541
64.22000 -0.523
64.24000 3.546
64.26000 1.945
64.28000 2.328
64.30000 0.444
64.32000 0.944
64.34000 0.832
64.36000 6.264
64.38000 4.329
64.40000 0.997
64.42000 -0.879
64.44000 2.199
64.46000 4.860
64.48000 2.427
64.50000 3.064
64.52000 2.862
64.54000 1.981
64.56000 7.791
64.58000 3.404
64.60000 4.946
64.62000 4.888
64.64000 3.784
64.66000 4.652
64.68000 2.416
64.70000 -1.598
64.72000 0.190
64.74000 2.362
64.76000 7.534
64.78000 3.227
64.80000 0.009
64.82000 -2.189
64.84000 2.713
64.86000 0.395
64.88000 -1.503
64.90000 -1.062
64.92000 1.758
64.94000 5.924
64.96000 4.784
64.98000 2.278
65.00000 0.750
65.02000 3.463
65.04000 5.752
65.06000 2.122
65.08000 2.806
65.10000 3.620
65.12000 3.664
65.14000 -2.640
65.16000 -2.436
65.18000 0.344
65.20000 -1.402
65.22000 6.539
65.24000 5.187
65.26000 2.108
65.28000 4.077
65.30000 3.421
65.32000 1.117
65.34000 2.760
65.36000 3.332
65.38000 5.003
65.40000 7.028
65.42000 3.116
65.44000 -0.528
65.46000 0.604
65.48000 -0.599
65.50000 1.161
65.52000 0.553
65.54000 5.786
65.56000 1.199
65.58000 1.141
65.60000 2.663
65.62000 3.512
65.64000 5.082
65.66000 2.181
65.68000 2.888
65.70000 3.527
65.72000 5.591
65.74000 2.954
65.76000 3.949
65.78000 3.471
65.80000 0.551
65.82000 0.998
65.84000 1.665
65.86000 3.396
65.88000 0.826
65.90000 2.254
65.92000 0.610
65.94000 0.774
65.96000 3.157
65.98000 0.931
66.00000 4.743
66.02000 5.187
66.04000 6.399
66.06000 5.182
66.08000 2.567
66.10000 -1.097
66.12000 3.418
66.14000 2.917
66.16000 3.750
66.18000 5.357
66.20000 4.439
66.22000 6.755
66.24000 7.237
66.26000 3.872
66.28000 2.251
66.30000 1.748
66.32000 -2.591
66.34000 -2.590
66.36000 -1.896
66.38000 2.001
66.40000 0.796
66.42000 0.128
66.44000 2.671
66.46000 -0.213
66.48000 1.064
66.50000 3.630
66.52000 4.426
66.54000 6.069
66.56000 3.033
66.58000 1.397
66.60000 3.941
66.62000 4.054
66.64000 2.977
66.66000 1.497
66.68000 4.251
66.70000 4.152
66.72000 3.703
66.74000 3.514
66.76000 1.932
66.78000 2.276
66.80000 0.173
66.82000 -0.766
66.84000 5.386
66.86000 3.312
66.88000 2.968
66.90000 0.416
66.92000 1.073
66.94000 0.686
66.96000 -0.693
66.98000 1.355
67.00000 4.491
67.02000 6.523
67.04000 6.512
67.06000 6.309
67.08000 1.961
67.10000 -1.479
67.12000 1.642
67.14000 1.630
67.16000 -2.650
67.18000 -1.401
67.20000 6.493
67.22000 4.339
67.24000 1.462
67.26000 1.050
67.28000 0.507
67.30000 3.627
67.32000 3.245
67.34000 1.479
67.36000 4.020
67.38000 0.810
67.40000 -0.596
67.42000 -1.183
67.44000 2.342
67.46000 1.273
67.48000 1.323
67.50000 1.335
67.52000 2.569
67.54000 2.301
67.56000 2.549
67.58000 1.790
67.60000 2.122
67.62000 3.676
67.64000 -0.180
67.66000 1.467
67.68000 5.438
67.70000 4.375
67.72000 1.480
67.74000 3.831
67.76000 2.496
67.78000 4.941
67.80000 6.077
67.82000 2.488
67.84000 2.392
67.86000 4.877
67.88000 5.647
67.90000 5.566
67.92000 5.895
67.94000 3.279
67.96000 3.739
67.98000 3.067
68.00000 2.670
68.02000 0.470
68.04000 4.940
68.06000 7.761
68.08000 4.034
68.10000 5.628
68.12000 2.884
68.14000 3.674
68.16000 11.441
68.18000 7.618
68.20000 8.078
68.22000 8.452
68.24000 5.737
68.26000 7.139
68.28000 9.851
68.30000 8.930
68.32000 9.230
68.34000 9.673
68.36000 11.070
68.38000 13.541
68.40000 12.353
68.42000 11.651
68.44000 11.465
68.46000 10.683
68.48000 17.536
68.50000 18.267
68.52000 12.906
68.54000 12.487
68.56000 12.824
68.58000 14.586
68.60000 17.868
68.62000 18.235
68.64000 16.205
68.66000 15.114
68.68000 23.855
68.70000 24.439
68.72000 25.174
68.74000 23.181
68.76000 23.833
68.78000 26.820
68.80000 24.706
68.82000 26.559
68.84000 27.823
68.86000 25.173
68.88000 27.344
68.90000 29.683
68.92000 31.519
68.94000 29.154
68.96000 26.234
68.98000 29.238
69.00000 29.358
69.02000 29.528
69.04000 33.004
69.06000 30.796
69.08000 29.666
69.10000 33.496
69.12000 31.919
69.14000 29.682
69.16000 27.128
69.18000 31.198
69.20000 33.963
69.22000 37.222
69.24000 33.453
69.26000 28.030
69.28000 29.272
69.30000 32.111
69.32000 35.533
69.34000 32.390
69.36000 31.016
69.38000 32.449
69.40000 29.497
69.42000 27.687
69.44000 27.588
69.46000 28.447
69.48000 26.674
69.50000 25.659
69.52000 25.006
69.54000 25.939
69.56000 22.716
69.58000 24.644
69.60000 24.425
69.62000 26.368
69.64000 26.148
69.66000 25.513
69.68000 28.079
69.70000 25.849
69.72000 21.446
69.74000 18.592
69.76000 18.799
69.78000 22.923
69.80000 22.387
69.82000 21.049
69.84000 18.667
69.86000 16.988
69.88000 16.863
69.90000 14.200
69.92000 11.369
69.94000 11.293
69.96000 10.317
69.98000 11.623
70.00000 10.421
70.02000 11.127
70.04000 13.384
70.06000 10.392
70.08000 7.578
70.10000 4.989
70.12000 7.323
70.14000 5.987
70.16000 5.188
70.18000 5.033
70.20000 6.807
70.22000 8.149
70.24000 7.275
70.26000 6.935
70.28000 3.147
70.30000 2.077
70.32000 6.014
70.34000 4.596
70.36000 4.052
70.38000 7.441
70.40000 4.158
70.42000 0.963
70.44000 0.373
70.46000 3.002
70.48000 5.571
70.50000 3.310
70.52000 0.531
70.54000 4.363
70.56000 2.398
70.58000 3.434
70.60000 3.678
70.62000 3.729
70.64000 3.734
70.66000 5.262
70.68000 6.136
70.70000 6.033
70.72000 4.391
70.74000 0.494
70.76000 6.221
70.78000 3.555
70.80000 7.568
70.82000 4.269
70.84000 0.512
70.86000 3.053
70.88000 2.152
70.90000 -2.453
70.92000 1.994
70.94000 5.266
70.96000 6.006
70.98000 2.253
71.00000 4.950
71.02000 4.396
71.04000 5.529
71.06000 7.248
71.08000 1.075
71.10000 1.441
71.12000 -0.384
71.14000 3.382
71.16000 7.815
71.18000 3.909
71.20000 -0.323
71.22000 -2.408
71.24000 1.860
71.26000 3.304
71.28000 3.869
71.30000 1.531
71.32000 -0.662
71.34000 -1.715
71.36000 1.618
71.38000 2.822
71.40000 3.824
71.42000 3.279
71.44000 2.964
71.46000 1.633
71.48000 4.676
71.50000 2.029
71.52000 -1.927
71.54000 0.131
71.56000 4.356
71.58000 5.439
71.60000 5.053
71.62000 2.435
71.64000 3.539
71.66000 1.413
71.68000 0.990
71.70000 2.858
71.72000 3.384
71.74000 1.475
71.76000 1.598
71.78000 1.166
71.80000 4.731
71.82000 5.109
71.84000 1.607
71.86000 0.565
71.88000 -0.001
71.90000 3.421
71.92000 -0.347
71.94000 0.403
71.96000 4.571
71.98000 5.087
72.00000 -2.076
72.02000 -2.373
72.04000 1.383
72.06000 0.796
72.08000 -0.300
72.10000 -0.758
72.12000 -0.279
72.14000 -1.869
72.16000 -2.077
72.18000 1.743
72.20000 4.660
72.22000 3.130
72.24000 0.224
72.26000 -0.627
72.28000 1.804
72.30000 3.495
72.32000 2.426
72.34000 2.863
72.36000 -2.113
72.38000 -0.325
72.40000 3.335
72.42000 6.602
72.44000 6.513
72.46000 2.027
72.48000 0.831
72.50000 -0.769
72.52000 -1.179
72.54000 -0.401
72.56000 -0.181
72.58000 2.181
72.60000 3.588
72.62000 7.299
72.64000 6.660
72.66000 4.212
72.68000 0.654
72.70000 0.822
72.72000 1.056
72.74000 2.026
72.76000 -0.177
72.78000 -1.010
72.80000 -0.912
72.82000 -1.452
72.84000 -1.856
72.86000 1.974
72.88000 3.480
72.90000 4.535
72.92000 -1.545
72.94000 -0.712
72.96000 4.587
72.98000 -0.110
73.00000 1.258
73.02000 2.023
73.04000 1.501
73.06000 1.739
73.08000 -0.225
73.10000 0.368
73.12000 -2.338
73.14000 0.989
73.16000 4.627
73.18000 5.432
73.20000 6.430
73.22000 4.092
73.24000 -1.531
73.26000 0.873
73.28000 -0.364
73.30000 1.733
73.32000 0.165
73.34000 -0.540
73.36000 5.436
73.38000 4.507
73.40000 3.629
73.42000 2.365
73.44000 -0.453
73.46000 -0.831
73.48000 -0.891
73.50000 1.590
73.52000 0.679
73.54000 0.971
73.56000 1.674
73.58000 1.917
73.60000 -0.631
73.62000 2.238
73.64000 5.093
73.66000 5.121
73.68000 3.139
73.70000 -0.471
73.72000 -2.224
73.74000 -0.603
73.76000 2.297
73.78000 4.865
73.80000 3.933
73.82000 5.759
73.84000 1.780
73.86000 0.807
73.88000 0.744
73.90000 1.702
73.92000 1.184
73.94000 3.366
73.96000 3.654
73.98000 6.467
74.00000 6.809
74.02000 2.438
74.04000 2.184
74.06000 1.575
74.08000 -2.258
74.10000 -0.289
74.12000 5.341
74.14000 6.125
74.16000 3.042
74.18000 3.731
74.20000 3.382
74.22000 4.245
74.24000 2.019
74.26000 4.276
74.28000 7.509
74.30000 6.088
74.32000 1.814
74.34000 4.051
74.36000 4.863
74.38000 6.594
74.40000 5.324
74.42000 3.857
74.44000 1.115
74.46000 2.641
74.48000 2.541
74.50000 3.560
74.52000 4.466
74.54000 8.506
74.56000 8.574
74.58000 4.789
74.60000 1.388
74.62000 3.525
74.64000 2.933
74.66000 4.787
74.68000 2.434
74.70000 1.496
74.72000 0.892
74.74000 0.811
74.76000 4.475
74.78000 1.546
74.80000 -2.272
74.82000 3.988
74.84000 4.238
74.86000 2.501
74.88000 4.473
74.90000 6.793
74.92000 2.716
74.94000 1.723
74.96000 1.448
74.98000 1.212
75.00000 -0.838
75.02000 3.419
75.04000 7.059
75.06000 3.282
75.08000 -0.683
75.10000 -0.074
75.12000 3.611
75.14000 2.216
75.16000 2.308
75.18000 5.473
75.20000 4.409
75.22000 6.552
75.24000 3.685
75.26000 1.259
75.28000 -2.282
75.30000 1.218
75.32000 4.342
75.34000 5.194
75.36000 5.146
75.38000 6.349
75.40000 9.574
75.42000 5.043
75.44000 5.379
75.46000 1.470
75.48000 1.138
75.50000 2.949
75.52000 5.590
75.54000 1.053
75.56000 -0.867
75.58000 3.197
75.60000 4.075
75.62000 1.727
75.64000 -0.508
75.66000 0.713
75.68000 1.954
75.70000 1.107
75.72000 0.090
75.74000 5.413
75.76000 3.831
75.78000 2.297
75.80000 0.997
75.82000 0.726
75.84000 3.789
75.86000 5.313
75.88000 4.326
75.90000 2.829
75.92000 -0.091
75.94000 1.130
75.96000 0.407
75.98000 1.090
76.00000 4.307
76.02000 7.264
76.04000 7.501
76.06000 4.665
76.08000 -2.281
76.10000 -0.835
76.12000 3.208
76.14000 2.250
76.16000 2.730
76.18000 4.280
76.20000 5.714
76.22000 4.634
76.24000 0.050
76.26000 2.311
76.28000 2.378
76.30000 5.297
76.32000 -0.904
76.34000 0.454
76.36000 0.716
76.38000 3.056
76.40000 5.192
76.42000 6.654
76.44000 3.574
76.46000 3.208
76.48000 0.962
76.50000 2.945
76.52000 6.172
76.54000 2.626
76.56000 3.337
76.58000 4.964
76.60000 0.916
76.62000 0.317
76.64000 3.471
76.66000 3.497
76.68000 4.867
76.70000 6.371
76.72000 1.022
76.74000 -2.283
76.76000 -1.625
76.78000 5.494
76.80000 3.516
76.82000 3.595
76.84000 1.981
76.86000 1.061
76.88000 3.604
76.90000 1.413
76.92000 3.737
76.94000 1.435
76.96000 3.435
76.98000 3.909
77.00000 3.018
77.02000 0.387
77.04000 2.924
77.06000 4.744
77.08000 5.017
77.10000 2.839
77.12000 0.212
77.14000 1.097
77.16000 2.607
77.18000 1.994
77.20000 0.852
77.22000 -0.564
77.24000 2.022
77.26000 1.136
77.28000 -0.291
77.30000 0.825
77.32000 3.231
77.34000 3.906
77.36000 2.137
77.38000 2.831
77.40000 -0.944
77.42000 0.846
77.44000 5.401
77.46000 4.967
77.48000 4.710
77.50000 3.949
77.52000 1.308
77.54000 -0.905
77.56000 0.580
77.58000 3.205
77.60000 2.172
77.62000 -0.275
77.64000 1.676
77.66000 4.240
77.68000 4.731
77.70000 2.784
77.72000 3.565
77.74000 4.784
77.76000 0.689
77.78000 -0.961
77.80000 2.901
77.82000 3.786
77.84000 5.151
77.86000 3.624
77.88000 4.007
77.90000 0.254
77.92000 -2.311
77.94000 -2.143
77.96000 2.006
77.98000 1.039
78.00000 3.464
78.02000 5.128
78.04000 7.250
78.06000 7.563
78.08000 2.684
78.10000 -0.354
78.12000 1.874
78.14000 5.223
78.16000 3.223
78.18000 -0.889
78.20000 -0.007
78.22000 -2.332
78.24000 3.864
78.26000 1.687
78.28000 1.746
78.30000 0.825
78.32000 0.151
78.34000 0.902
78.36000 -1.006
78.38000 2.793
78.40000 3.002
78.42000 1.997
78.44000 0.518
78.46000 0.429
78.48000 -1.734
78.50000 0.385
78.52000 -0.297
78.54000 0.810
78.56000 4.567
78.58000 3.223
78.60000 4.110
78.62000 3.807
78.64000 -1.079
78.66000 0.819
78.68000 3.557
78.70000 1.160
78.72000 -1.828
78.74000 1.955
78.76000 6.774
78.78000 3.572
78.80000 2.407
78.82000 0.891
78.84000 1.550
78.86000 4.520
78.88000 5.910
78.90000 0.697
78.92000 -2.199
78.94000 -0.657
78.96000 -0.972
78.98000 -1.360
79.00000 3.439
79.02000 2.366
79.04000 0.848
79.06000 0.585
79.08000 -1.164
79.10000 0.873
79.12000 1.383
79.14000 2.498
79.16000 2.174
79.18000 0.678
79.20000 0.265
79.22000 6.012
79.24000 8.502
79.26000 8.576
79.28000 6.862
79.30000 4.612
79.32000 2.707
79.34000 2.672
79.36000 -0.460
79.38000 -2.346
79.40000 1.496
79.42000 0.442
79.44000 2.718
79.46000 4.583
79.48000 0.989
79.50000 2.308
79.52000 0.607
79.54000 2.750
79.56000 6.160
79.58000 5.240
79.60000 4.648
79.62000 0.693
79.64000 1.296
79.66000 0.295
79.68000 0.110
79.70000 1.114
79.72000 3.579
79.74000 2.365
79.76000 3.595
79.78000 5.577
79.80000 4.420
79.82000 -1.622
79.84000 0.676
79.86000 2.299
79.88000 7.371
79.90000 4.759
79.92000 0.224
79.94000 2.267
79.96000 4.231
79.98000 4.898
80.00000 1.707
80.02000 1.333
80.04000 -2.359
80.06000 -0.284
80.08000 3.849
80.10000 3.064
80.12000 0.995
80.14000 0.021
80.16000 2.104
80.18000 1.148
80.20000 -2.358
80.22000 -0.840
80.24000 2.181
80.26000 1.023
80.28000 -2.006
80.30000 2.725
80.32000 1.770
80.34000 2.600
80.36000 5.189
80.38000 4.655
80.40000 3.311
80.42000 4.142
80.44000 4.843
80.46000 1.487
80.48000 0.716
80.50000 1.502
80.52000 2.333
80.54000 2.484
80.56000 5.984
80.58000 1.984
80.60000 6.570
80.62000 5.472
80.64000 5.631
80.66000 0.362
80.68000 1.398
80.70000 -0.062
80.72000 0.753
80.74000 -2.397
80.76000 -1.966
80.78000 2.018
80.80000 4.750
80.82000 2.697
80.84000 0.110
80.86000 -2.167
80.88000 1.219
80.90000 6.054
80.92000 5.738
80.94000 3.171
80.96000 1.136
80.98000 0.404
81.00000 0.142
81.02000 0.526
81.04000 1.189
81.06000 2.790
81.08000 -0.106
81.10000 0.405
81.12000 1.768
81.14000 5.421
81.16000 6.715
81.18000 0.883
81.20000 2.590
81.22000 2.074
81.24000 5.937
81.26000 4.069
81.28000 0.625
81.30000 1.202
81.32000 1.926
81.34000 -2.418
81.36000 -0.320
81.38000 0.320
81.40000 0.902
81.42000 1.635
81.44000 4.114
81.46000 7.653
81.48000 4.918
81.50000 -0.986
81.52000 1.746
81.54000 3.817
81.56000 0.453
81.58000 0.797
81.60000 0.964
81.62000 4.185
81.64000 5.275
81.66000 4.314
81.68000 0.591
81.70000 3.357
81.72000 4.719
81.74000 4.529
81.76000 5.895
81.78000 5.792
81.80000 5.469
81.82000 5.325
81.84000 6.061
81.86000 5.362
81.88000 8.414
81.90000 5.402
81.92000 6.819
81.94000 2.912
81.96000 -0.026
81.98000 -2.488
82.00000 3.396
82.02000 6.566
82.04000 4.917
82.06000 4.052
82.08000 6.537
82.10000 7.902
82.12000 8.311
82.14000 5.316
82.16000 3.571
82.18000 2.178
82.20000 5.109
82.22000 7.991
82.24000 7.888
82.26000 6.477
82.28000 5.741
82.30000 5.612
82.32000 6.248
82.34000 8.242
82.36000 5.867
82.38000 5.718
82.40000 5.242
82.42000 3.382
82.44000 2.641
82.46000 6.318
82.48000 4.892
82.50000 4.504
82.52000 7.794
82.54000 8.575
82.56000 9.619
82.58000 8.418
82.60000 8.633
82.62000 11.640
82.64000 9.397
82.66000 9.380
82.68000 10.183
82.70000 11.964
82.72000 11.891
82.74000 14.406
82.76000 14.974
82.78000 15.780
82.80000 12.129
82.82000 8.884
82.84000 14.958
82.86000 18.778
82.88000 13.411
82.90000 7.887
82.92000 8.422
82.94000 12.978
82.96000 13.915
82.98000 14.078
83.00000 13.209
83.02000 14.852
83.04000 23.731
83.06000 18.828
83.08000 19.304
83.10000 20.923
83.12000 23.414
83.14000 20.580
83.16000 15.035
83.18000 19.517
83.20000 22.739
83.22000 21.047
83.24000 20.674
83.26000 24.839
83.28000 24.894
83.30000 25.372
83.32000 25.692
83.34000 21.374
83.36000 17.795
83.38000 21.147
83.40000 23.957
83.42000 23.380
83.44000 26.488
83.46000 28.464
83.48000 32.330
83.50000 30.616
83.52000 25.879
83.54000 27.452
83.56000 30.256
83.58000 28.277
83.60000 25.111
83.62000 29.327
83.64000 29.485
83.66000 26.042
83.68000 29.027
83.70000 28.928
83.72000 31.107
83.74000 30.169
83.76000 25.218
83.78000 27.652
83.80000 26.692
83.82000 24.355
83.84000 30.635
83.86000 35.188
83.88000 34.037
83.90000 29.908
83.92000 23.946
83.94000 27.169
83.96000 26.933
83.98000 21.567
84.00000 21.699
84.02000 29.180
84.04000 29.287
84.06000 24.367
84.08000 24.512
84.10000 22.562
84.12000 20.768
84.14000 19.468
84.16000 24.590
84.18000 28.488
84.20000 21.912
84.22000 20.599
84.24000 17.762
84.26000 18.668
84.28000 21.362
84.30000 17.352
84.32000 15.639
84.34000 17.027
84.36000 19.364
84.38000 24.006
84.40000 14.510
84.42000 12.235
84.44000 14.730
84.46000 16.147
84.48000 13.398
84.50000 15.559
84.52000 11.068
84.54000 11.514
84.56000 14.719
84.58000 14.040
84.60000 11.203
84.62000 9.168
84.64000 7.850
84.66000 6.451
84.68000 7.835
84.70000 7.919
84.72000 10.147
84.74000 8.428
84.76000 3.979
84.78000 8.140
84.80000 8.995
84.82000 10.249
84.84000 6.819
84.86000 5.960
84.88000 11.993
84.90000 9.997
84.92000 4.340
84.94000 2.099
84.96000 -0.004
84.98000 4.578
85.00000 4.821
85.02000 6.013
85.04000 7.856
85.06000 10.241
85.08000 5.900
85.10000 0.341
85.12000 4.591
85.14000 4.869
85.16000 8.327
85.18000 9.348
85.20000 5.632
85.22000 6.099
85.24000 7.712
85.26000 7.624
85.28000 5.404
85.30000 2.861
85.32000 2.362
85.34000 3.331
85.36000 1.462
85.38000 -1.432
85.40000 -0.938
85.42000 6.115
85.44000 4.877
85.46000 5.100
85.48000 -0.072
85.50000 -2.403
85.52000 2.189
85.54000 4.489
85.56000 6.987
85.58000 2.227
85.60000 3.104
85.62000 2.792
85.64000 5.189
85.66000 6.648
85.68000 4.866
85.70000 3.559
85.72000 7.794
85.74000 3.596
85.76000 -2.367
85.78000 2.443
85.80000 8.512
85.82000 1.883
85.84000 -1.375
85.86000 4.067
85.88000 7.146
85.90000 3.789
85.92000 3.975
85.94000 5.193
85.96000 5.846
85.98000 6.406
86.00000 6.279
86.02000 8.972
86.04000 5.086
86.06000 3.679
86.08000 9.210
86.10000 10.129
86.12000 2.661
86.14000 1.779
86.16000 0.999
86.18000 3.539
86.20000 6.474
86.22000 6.929
86.24000 1.831
86.26000 4.575
86.28000 5.471
86.30000 6.472
86.32000 4.683
86.34000 8.389
86.36000 9.079
86.38000 4.062
86.40000 4.707
86.42000 -1.166
86.44000 -2.354
86.46000 3.608
86.48000 7.107
86.50000 5.721
86.52000 2.063
86.54000 0.278
86.56000 1.121
86.58000 1.495
86.60000 2.121
86.62000 1.818
86.64000 4.248
86.66000 3.094
86.68000 6.037
86.70000 8.028
86.72000 8.933
86.74000 8.696
86.76000 8.883
86.78000 7.713
86.80000 10.022
86.82000 8.542
86.84000 6.615
86.86000 5.733
86.88000 4.877
86.90000 9.290
86.92000 11.714
86.94000 11.903
86.96000 13.640
86.98000 8.722
87.00000 9.986
87.02000 8.980
87.04000 12.020
87.06000 11.101
87.08000 6.622
87.10000 12.491
87.12000 6.649
87.14000 5.397
87.16000 7.674
87.18000 9.295
87.20000 14.057
87.22000 11.542
87.24000 8.671
87.26000 11.860
87.28000 12.640
87.30000 13.353
87.32000 12.710
87.34000 15.149
87.36000 11.863
87.38000 13.910
87.40000 15.668
87.42000 16.221
87.44000 16.417
87.46000 18.805
87.48000 18.525
87.50000 20.821
87.52000 18.416
87.54000 17.000
87.56000 20.870
87.58000 20.506
87.60000 20.934
87.62000 18.849
87.64000 18.767
87.66000 17.794
87.68000 26.222
87.70000 21.884
87.72000 22.610
87.74000 23.932
87.76000 25.835
87.78000 29.156
87.80000 30.852
87.82000 28.268
87.84000 28.252
87.86000 27.464
87.88000 30.060
87.90000 27.668
87.92000 27.774
87.94000 25.765
87.96000 27.068
87.98000 27.312
88.00000 29.854
88.02000 34.566
88.04000 30.013
88.06000 32.690
88.08000 30.808
88.10000 27.085
88.12000 28.387
88.14000 30.031
88.16000 26.368
88.18000 31.286
88.20000 33.480
88.22000 32.351
88.24000 34.290
88.26000 31.500
88.28000 27.386
88.30000 25.166
88.32000 25.922
88.34000 30.281
88.36000 30.989
88.38000 28.855
88.40000 32.431
88.42000 31.914
88.44000 33.039
88.46000 31.418
88.48000 30.366
88.50000 31.566
88.52000 29.760
88.54000 27.286
88.56000 30.783
88.58000 27.848
88.60000 21.937
88.62000 23.106
88.64000 24.993
88.66000 22.222
88.68000 24.852
88.70000 22.923
88.72000 21.224
88.74000 23.619
88.76000 19.441
88.78000 22.294
88.80000 23.713
88.82000 16.598
88.84000 16.625
88.86000 19.755
88.88000 20.076
88.90000 18.252
88.92000 15.407
88.94000 12.978
88.96000 13.553
88.98000 13.655
89.00000 17.267
89.02000 11.797
89.04000 11.149
89.06000 11.807
89.08000 7.095
89.10000 4.754
89.12000 4.882
89.14000 8.519
89.16000 9.533
89.18000 10.777
89.20000 11.095
89.22000 11.840
89.24000 7.727
89.26000 6.682
89.28000 3.808
89.30000 4.997
89.32000 6.794
89.34000 8.402
89.36000 8.008
89.38000 7.768
89.40000 4.009
89.42000 5.406
89.44000 7.351
89.46000 4.444
89.48000 4.641
89.50000 7.760
89.52000 8.426
89.54000 7.829
89.56000 3.324
89.58000 2.774
89.60000 6.803
89.62000 6.516
89.64000 7.281
89.66000 7.213
89.68000 0.453
89.70000 2.415
89.72000 2.072
89.74000 2.558
89.76000 -2.294
89.78000 -1.184
89.80000 6.634
89.82000 -1.173
89.84000 -0.515
89.86000 3.022
89.88000 2.385
89.90000 5.694
89.92000 3.656
89.94000 1.525
89.96000 0.344
89.98000 3.012
90.00000 4.618
90.02000 7.215
90.04000 11.797
90.06000 6.122
90.08000 0.142
90.10000 -0.440
90.12000 5.026
90.14000 0.628
90.16000 -0.577
90.18000 4.288
90.20000 -1.428
90.22000 -0.008
90.24000 0.960
90.26000 -1.617
90.28000 -0.780
90.30000 0.593
90.32000 0.462
90.34000 0.641
90.36000 0.070
90.38000 1.556
90.40000 2.998
90.42000 -1.200
90.44000 0.902
90.46000 2.055
90.48000 2.005
90.50000 -1.627
90.52000 -0.228
90.54000 0.003
90.56000 -0.254
90.58000 -2.139
90.60000 2.234
90.62000 2.612
90.64000 -2.243
90.66000 -2.258
90.68000 -2.068
90.70000 0.772
90.72000 3.701
90.74000 2.891
90.76000 1.422
90.78000 0.717
90.80000 4.248
90.82000 1.792
90.84000 0.444
90.86000 0.594
90.88000 1.416
90.90000 -1.222
90.92000 -1.203
90.94000 3.402
90.96000 1.258
90.98000 -2.238
91.00000 -0.590
91.02000 -0.400
91.04000 -0.596
91.06000 1.332
91.08000 -0.835
91.10000 2.258
91.12000 3.164
91.14000 6.212
91.16000 3.693
91.18000 9.908
91.20000 14.064
91.22000 6.222
91.24000 4.177
91.26000 1.523
91.28000 -2.223
91.30000 0.041
91.32000 -0.946
91.34000 -0.396
91.36000 1.480
91.38000 -0.189
91.40000 0.989
91.42000 4.660
91.44000 4.694
91.46000 0.951
91.48000 3.252
91.50000 0.240
91.52000 1.156
91.54000 4.380
91.56000 4.733
91.58000 -0.766
91.60000 -2.210
91.62000 0.155
91.64000 0.108
91.66000 -1.377
91.68000 0.201
91.70000 2.532
91.72000 2.498
91.74000 2.635
91.76000 2.274
91.78000 4.192
91.80000 0.403
91.82000 -1.109
91.84000 -0.560
91.86000 3.952
91.88000 0.588
91.90000 6.593
91.92000 6.631
91.94000 -1.278
91.96000 -1.353
91.98000 4.330
92.00000 5.652
92.02000 4.105
92.04000 -0.321
92.06000 4.954
92.08000 2.053
92.10000 1.562
92.12000 6.831
92.14000 7.188
92.16000 1.113
92.18000 -0.904
92.20000 0.772
92.22000 5.237
92.24000 1.652
92.26000 -2.077
92.28000 -2.190
92.30000 0.137
92.32000 3.047
92.34000 7.218
92.36000 7.807
92.38000 6.856
92.40000 1.831
92.42000 -0.037
92.44000 -1.348
92.46000 0.071
92.48000 2.360
92.50000 -0.339
92.52000 -0.805
92.54000 -2.180
92.56000 -0.026
92.58000 3.220
92.60000 2.230
92.62000 2.914
92.64000 3.181
92.66000 1.451
92.68000 4.111
92.70000 8.703
92.72000 5.206
92.74000 6.126
92.76000 3.463
92.78000 2.121
92.80000 1.558
92.82000 0.179
92.84000 4.091
92.86000 2.443
92.88000 2.628
92.90000 5.478
92.92000 3.707
92.94000 4.059
92.96000 3.837
92.98000 4.565
93.00000 1.076
93.02000 5.719
93.04000 7.267
93.06000 2.117
93.08000 1.045
93.10000 4.723
93.12000 8.246
93.14000 0.158
93.16000 -2.149
93.18000 5.432
93.20000 6.645
93.22000 8.074
93.24000 9.315
93.26000 5.380
93.28000 3.594
93.30000 5.040
93.32000 2.802
93.34000 3.226
93.36000 6.335
93.38000 7.290
93.40000 6.413
93.42000 5.892
93.44000 2.902
93.46000 6.511
93.48000 -0.007
93.50000 5.202
93.52000 -0.205
93.54000 -1.061
93.56000 -1.308
93.58000 -1.965
93.60000 -0.040
93.62000 0.980
93.64000 2.070
93.66000 1.904
93.68000 2.952
93.70000 1.800
93.72000 1.934
93.74000 5.436
93.76000 2.941
93.78000 3.257
93.80000 -0.292
93.82000 6.037
93.84000 11.398
93.86000 7.099
93.88000 5.919
93.90000 1.039
93.92000 2.726
93.94000 5.022
93.96000 4.586
93.98000 5.249
94.00000 5.496
94.02000 3.682
94.04000 9.357
94.06000 9.881
94.08000 6.056
94.10000 2.237
94.12000 4.534
94.14000 6.796
94.16000 6.401
94.18000 11.227
94.20000 8.722
94.22000 8.918
94.24000 6.559
94.26000 5.396
94.28000 0.479
94.30000 1.909
94.32000 5.485
94.34000 0.063
94.36000 3.008
94.38000 5.655
94.40000 3.100
94.42000 4.413
94.44000 5.598
94.46000 7.562
94.48000 7.199
94.50000 7.462
94.52000 3.845
94.54000 8.229
94.56000 3.915
94.58000 5.330
94.60000 0.553
94.62000 -2.147
94.64000 7.273
94.66000 7.117
94.68000 3.106
94.70000 1.188
94.72000 3.581
94.74000 6.737
94.76000 7.397
94.78000 6.874
94.80000 6.484
94.82000 4.440
94.84000 1.834
94.86000 2.626
94.88000 4.724
94.90000 8.652
94.92000 6.503
94.94000 6.775
94.96000 6.476
94.98000 11.252
95.00000 8.912
95.02000 7.657
95.04000 4.657
95.06000 0.721
95.08000 2.393
95.10000 5.544
95.12000 7.330
95.14000 8.390
95.16000 7.953
95.18000 7.070
95.20000 6.219
95.22000 8.421
95.24000 9.804
95.26000 7.160
95.28000 1.015
95.30000 0.775
95.32000 5.418
95.34000 4.997
95.36000 0.924
95.38000 2.108
95.40000 5.655
95.42000 4.171
95.44000 3.404
95.46000 3.875
95.48000 5.374
95.50000 8.068
95.52000 10.717
95.54000 13.475
95.56000 4.598
95.58000 1.965
95.60000 0.282
95.62000 3.963
95.64000 6.130
95.66000 5.587
95.68000 7.049
95.70000 7.118
95.72000 4.898
95.74000 -0.695
95.76000 1.115
95.78000 -2.174
95.80000 -0.475
95.82000 4.837
95.84000 5.830
95.86000 14.828
95.88000 8.472
95.90000 3.889
95.92000 7.269
95.94000 3.956
95.96000 7.454
95.98000 6.237
96.00000 5.154
96.02000 6.457
96.04000 8.431
96.06000 4.610
96.08000 3.419
96.10000 8.206
96.12000 12.283
96.14000 7.620
96.16000 0.918
96.18000 8.998
96.20000 9.347
96.22000 12.357
96.24000 6.306
96.26000 -2.773
96.28000 8.557
96.30000 3.705
96.32000 2.321
96.34000 1.908
96.36000 5.821
96.38000 4.143
96.40000 2.796
96.42000 0.606
96.44000 -1.666
96.46000 4.658
96.48000 -0.703
96.50000 1.010
96.52000 3.899
96.54000 2.567
96.56000 1.392
96.58000 5.112
96.60000 8.630
96.62000 2.804
96.64000 6.150
96.66000 2.649
96.68000 -2.220
96.70000 0.492
96.72000 5.112
96.74000 4.949
96.76000 5.228
96.78000 -0.892
96.80000 3.579
96.82000 3.765
96.84000 -1.402
96.86000 -0.809
96.88000 -0.895
96.90000 5.613
96.92000 7.241
96.94000 3.384
96.96000 2.667
96.98000 -0.342
97.00000 -1.992
97.02000 3.818
97.04000 5.941
97.06000 -0.800
97.08000 0.271
97.10000 6.167
97.12000 5.409
97.14000 7.153
97.16000 3.445
97.18000 0.286
97.20000 1.549
97.22000 11.048
97.24000 9.500
97.26000 5.851
97.28000 4.365
97.30000 1.339
97.32000 1.009
97.34000 4.931
97.36000 4.995
97.38000 3.086
97.40000 10.771
97.42000 4.613
97.44000 2.778
97.46000 0.802
97.48000 0.826
97.50000 1.665
97.52000 11.267
97.54000 5.750
97.56000 2.231
97.58000 5.134
97.60000 2.263
97.62000 -0.043
97.64000 5.990
97.66000 1.501
97.68000 9.385
97.70000 5.704
97.72000 5.013
97.74000 3.425
97.76000 3.535
97.78000 3.250
97.80000 3.606
97.82000 2.158
97.84000 3.972
97.86000 0.798
97.88000 2.923
97.90000 1.512
97.92000 2.690
97.94000 0.422
97.96000 2.202
97.98000 1.285
98.00000 0.259
98.02000 3.896
98.04000 5.578
98.06000 5.025
98.08000 1.820
98.10000 2.170
98.12000 3.131
98.14000 13.938
98.16000 12.270
98.18000 3.406
98.20000 5.613
98.22000 3.676
98.24000 8.795
98.26000 8.425
98.28000 1.095
98.30000 2.426
98.32000 7.552
98.34000 5.935
98.36000 4.476
98.38000 5.283
98.40000 0.647
98.42000 -2.116
98.44000 1.695
98.46000 11.107
98.48000 11.043
98.50000 3.647
98.52000 2.219
98.54000 13.976
98.56000 5.262
98.58000 0.367
98.60000 3.166
98.62000 -0.881
98.64000 0.121
98.66000 1.706
98.68000 5.422
98.70000 5.222
98.72000 6.264
98.74000 9.535
98.76000 17.768
98.78000 8.972
98.80000 7.111
98.82000 4.854
98.84000 5.526
98.86000 2.775
98.88000 4.015
98.90000 2.866
98.92000 11.265
98.94000 8.731
98.96000 12.139
98.98000 11.437
99.00000 4.187
99.02000 3.361
99.04000 9.780
99.06000 12.573
99.08000 2.381
99.10000 -1.593
99.12000 -2.072
99.14000 2.205
99.16000 8.578
99.18000 7.191
99.20000 2.250
99.22000 5.536
99.24000 7.271
99.26000 5.922
99.28000 8.637
99.30000 10.175
99.32000 11.654
99.34000 9.356
99.36000 5.482
99.38000 -1.908
99.40000 0.654
99.42000 -2.076
99.44000 -0.364
99.46000 6.325
99.48000 9.365
99.50000 11.530
99.52000 20.206
99.54000 6.081
99.56000 7.534
99.58000 10.380
99.60000 11.555
99.62000 1.773
99.64000 1.891
99.66000 6.372
99.68000 2.144
99.70000 2.387
99.72000 2.373
99.74000 5.993
99.76000 7.780
99.78000 3.516
99.80000 10.376
99.82000 10.544
99.84000 3.020
99.86000 1.791
99.88000 4.629
99.90000 0.292
99.92000 3.066
99.94000 12.683
99.96000 7.643
99.98000 0.000
