'Id: "0011389" Comment: "Integrate frame 0011389_Au-Ir-Rh_Au-Rich_XRD_Mapping-022-0000.gfrmwith cursor Wedge Cursor #5" Operator: "B?rgel" Anode: "Cu" Wavelength: "1.5406" Scantype: "2Theta (TwoTheta)" TimePerStep: "1" X: "22.5" Y: "-36" Z: "5.95" 
10.00000 0.000
10.02000 -3.909
10.04000 -3.839
10.06000 14.301
10.08000 9.023
10.10000 15.133
10.12000 4.785
10.14000 14.442
10.16000 32.762
10.18000 22.079
10.20000 1.294
10.22000 -3.878
10.24000 13.606
10.26000 15.930
10.28000 30.769
10.30000 24.532
10.32000 22.251
10.34000 13.256
10.36000 21.069
10.38000 22.501
10.40000 13.929
10.42000 18.948
10.44000 33.050
10.46000 30.919
10.48000 31.910
10.50000 28.653
10.52000 18.924
10.54000 24.240
10.56000 25.207
10.58000 29.610
10.60000 31.359
10.62000 20.774
10.64000 25.702
10.66000 17.619
10.68000 11.985
10.70000 13.583
10.72000 -3.133
10.74000 7.998
10.76000 3.799
10.78000 12.672
10.80000 31.245
10.82000 27.647
10.84000 21.243
10.86000 15.858
10.88000 18.146
10.90000 33.911
10.92000 21.795
10.94000 18.829
10.96000 7.540
10.98000 11.988
11.00000 22.602
11.02000 13.801
11.04000 14.885
11.06000 16.412
11.08000 19.055
11.10000 20.882
11.12000 17.523
11.14000 19.802
11.16000 25.819
11.18000 20.235
11.20000 14.212
11.22000 14.714
11.24000 24.996
11.26000 26.974
11.28000 26.124
11.30000 22.416
11.32000 14.099
11.34000 13.340
11.36000 6.949
11.38000 19.586
11.40000 24.171
11.42000 33.141
11.44000 33.551
11.46000 17.171
11.48000 4.986
11.50000 10.554
11.52000 17.677
11.54000 21.703
11.56000 22.094
11.58000 29.507
11.60000 25.412
11.62000 26.987
11.64000 24.031
11.66000 23.614
11.68000 25.168
11.70000 31.199
11.72000 29.042
11.74000 20.417
11.76000 24.770
11.78000 19.706
11.80000 19.050
11.82000 17.604
11.84000 16.701
11.86000 9.126
11.88000 8.137
11.90000 12.419
11.92000 22.199
11.94000 18.180
11.96000 17.966
11.98000 21.513
12.00000 18.672
12.02000 24.296
12.04000 24.786
12.06000 18.199
12.08000 18.610
12.10000 19.202
12.12000 19.342
12.14000 7.911
12.16000 15.249
12.18000 18.790
12.20000 9.192
12.22000 13.034
12.24000 27.546
12.26000 21.029
12.28000 17.582
12.30000 21.353
12.32000 12.797
12.34000 0.767
12.36000 11.165
12.38000 25.853
12.40000 32.115
12.42000 26.864
12.44000 18.185
12.46000 16.477
12.48000 7.932
12.50000 20.902
12.52000 20.773
12.54000 12.511
12.56000 9.151
12.58000 13.271
12.60000 13.238
12.62000 16.575
12.64000 12.683
12.66000 12.710
12.68000 11.581
12.70000 24.019
12.72000 27.083
12.74000 25.799
12.76000 16.811
12.78000 22.263
12.80000 26.392
12.82000 25.949
12.84000 11.564
12.86000 16.721
12.88000 23.101
12.90000 20.287
12.92000 16.846
12.94000 20.996
12.96000 27.126
12.98000 19.558
13.00000 14.895
13.02000 11.371
13.04000 23.773
13.06000 27.157
13.08000 27.064
13.10000 15.159
13.12000 12.201
13.14000 13.339
13.16000 16.534
13.18000 8.548
13.20000 14.342
13.22000 25.571
13.24000 17.731
13.26000 14.924
13.28000 24.560
13.30000 17.612
13.32000 14.198
13.34000 23.377
13.36000 16.015
13.38000 6.373
13.40000 14.046
13.42000 14.195
13.44000 13.065
13.46000 7.738
13.48000 12.769
13.50000 15.223
13.52000 22.211
13.54000 11.808
13.56000 6.519
13.58000 6.839
13.60000 4.730
13.62000 12.824
13.64000 11.031
13.66000 6.596
13.68000 9.911
13.70000 14.544
13.72000 19.498
13.74000 26.005
13.76000 13.234
13.78000 5.334
13.80000 7.205
13.82000 8.359
13.84000 16.900
13.86000 19.001
13.88000 16.481
13.90000 16.687
13.92000 6.839
13.94000 7.934
13.96000 12.834
13.98000 15.108
14.00000 10.270
14.02000 12.061
14.04000 11.858
14.06000 17.699
14.08000 11.849
14.10000 12.460
14.12000 14.294
14.14000 19.739
14.16000 16.031
14.18000 20.912
14.20000 17.228
14.22000 12.953
14.24000 20.796
14.26000 19.019
14.28000 19.303
14.30000 10.645
14.32000 1.645
14.34000 3.810
14.36000 10.072
14.38000 11.579
14.40000 11.291
14.42000 11.452
14.44000 14.417
14.46000 10.866
14.48000 6.068
14.50000 8.437
14.52000 11.787
14.54000 8.609
14.56000 9.352
14.58000 4.436
14.60000 11.608
14.62000 18.697
14.64000 16.830
14.66000 10.316
14.68000 14.318
14.70000 15.630
14.72000 8.815
14.74000 2.302
14.76000 10.282
14.78000 15.481
14.80000 9.121
14.82000 6.552
14.84000 12.148
14.86000 12.912
14.88000 12.888
14.90000 11.361
14.92000 6.872
14.94000 8.015
14.96000 8.657
14.98000 3.054
15.00000 15.851
15.02000 12.820
15.04000 9.696
15.06000 7.341
15.08000 9.697
15.10000 0.315
15.12000 6.567
15.14000 2.227
15.16000 -4.150
15.18000 6.553
15.20000 4.977
15.22000 2.044
15.24000 14.610
15.26000 14.416
15.28000 7.905
15.30000 8.893
15.32000 8.216
15.34000 1.028
15.36000 7.451
15.38000 9.372
15.40000 7.868
15.42000 5.670
15.44000 2.806
15.46000 3.377
15.48000 9.586
15.50000 3.908
15.52000 2.916
15.54000 5.229
15.56000 9.416
15.58000 2.527
15.60000 -1.646
15.62000 0.539
15.64000 5.487
15.66000 -1.377
15.68000 -0.520
15.70000 11.193
15.72000 9.212
15.74000 7.494
15.76000 11.283
15.78000 9.121
15.80000 10.230
15.82000 2.497
15.84000 2.656
15.86000 3.699
15.88000 2.323
15.90000 1.772
15.92000 4.405
15.94000 7.295
15.96000 7.233
15.98000 12.549
16.00000 13.501
16.02000 6.742
16.04000 14.025
16.06000 3.903
16.08000 3.793
16.10000 2.190
16.12000 -1.941
16.14000 1.488
16.16000 -0.804
16.18000 6.762
16.20000 0.125
16.22000 1.720
16.24000 7.332
16.26000 5.311
16.28000 3.506
16.30000 0.325
16.32000 0.039
16.34000 2.575
16.36000 0.465
16.38000 -1.321
16.40000 5.982
16.42000 4.712
16.44000 5.927
16.46000 6.692
16.48000 9.774
16.50000 10.487
16.52000 9.874
16.54000 6.478
16.56000 0.751
16.58000 0.689
16.60000 3.280
16.62000 -1.707
16.64000 1.063
16.66000 -4.128
16.68000 -0.530
16.70000 5.582
16.72000 8.134
16.74000 15.282
16.76000 9.051
16.78000 2.081
16.80000 0.644
16.82000 3.587
16.84000 4.963
16.86000 6.879
16.88000 7.678
16.90000 5.176
16.92000 2.917
16.94000 2.698
16.96000 -0.408
16.98000 0.928
17.00000 11.760
17.02000 12.308
17.04000 2.212
17.06000 -3.236
17.08000 9.292
17.10000 4.228
17.12000 3.942
17.14000 4.816
17.16000 3.260
17.18000 4.730
17.20000 -4.373
17.22000 0.032
17.24000 7.143
17.26000 6.792
17.28000 6.553
17.30000 7.383
17.32000 13.055
17.34000 11.400
17.36000 7.659
17.38000 7.396
17.40000 10.005
17.42000 7.080
17.44000 3.924
17.46000 2.735
17.48000 5.480
17.50000 1.931
17.52000 2.056
17.54000 14.325
17.56000 10.907
17.58000 11.774
17.60000 9.444
17.62000 0.027
17.64000 0.612
17.66000 4.385
17.68000 12.577
17.70000 9.128
17.72000 5.064
17.74000 3.612
17.76000 0.737
17.78000 0.343
17.80000 3.323
17.82000 1.708
17.84000 -1.321
17.86000 -0.618
17.88000 5.014
17.90000 8.844
17.92000 2.991
17.94000 1.600
17.96000 3.302
17.98000 5.613
18.00000 0.719
18.02000 1.796
18.04000 1.297
18.06000 0.515
18.08000 0.458
18.10000 -3.496
18.12000 0.465
18.14000 2.067
18.16000 2.099
18.18000 6.079
18.20000 7.471
18.22000 9.528
18.24000 11.122
18.26000 11.870
18.28000 11.935
18.30000 4.374
18.32000 -3.960
18.34000 1.507
18.36000 7.420
18.38000 8.849
18.40000 6.669
18.42000 4.341
18.44000 -0.036
18.46000 5.376
18.48000 2.106
18.50000 3.896
18.52000 4.647
18.54000 14.349
18.56000 14.915
18.58000 7.638
18.60000 0.814
18.62000 7.272
18.64000 3.436
18.66000 -0.890
18.68000 -1.811
18.70000 -4.250
18.72000 2.044
18.74000 11.422
18.76000 7.710
18.78000 8.872
18.80000 7.936
18.82000 4.381
18.84000 1.971
18.86000 -1.572
18.88000 4.322
18.90000 5.176
18.92000 0.188
18.94000 2.545
18.96000 5.562
18.98000 9.472
19.00000 3.587
19.02000 3.669
19.04000 8.590
19.06000 5.282
19.08000 -0.223
19.10000 5.253
19.12000 9.851
19.14000 7.977
19.16000 7.174
19.18000 7.463
19.20000 2.811
19.22000 -1.028
19.24000 1.550
19.26000 0.855
19.28000 -0.125
19.30000 0.054
19.32000 1.058
19.34000 6.063
19.36000 8.369
19.38000 2.062
19.40000 1.710
19.42000 3.213
19.44000 7.556
19.46000 2.159
19.48000 4.838
19.50000 6.367
19.52000 4.813
19.54000 3.304
19.56000 7.536
19.58000 8.898
19.60000 2.947
19.62000 9.489
19.64000 6.124
19.66000 1.280
19.68000 2.584
19.70000 0.384
19.72000 -2.150
19.74000 2.467
19.76000 3.646
19.78000 6.007
19.80000 7.695
19.82000 8.938
19.84000 5.839
19.86000 2.387
19.88000 6.213
19.90000 -1.274
19.92000 -0.895
19.94000 4.440
19.96000 2.372
19.98000 4.286
20.00000 2.716
20.02000 1.329
20.04000 -4.183
20.06000 1.930
20.08000 8.575
20.10000 13.921
20.12000 15.233
20.14000 11.132
20.16000 9.061
20.18000 6.478
20.20000 6.119
20.22000 3.025
20.24000 -2.416
20.26000 4.769
20.28000 9.664
20.30000 4.873
20.32000 5.861
20.34000 5.679
20.36000 4.923
20.38000 6.140
20.40000 0.035
20.42000 -4.154
20.44000 1.752
20.46000 12.724
20.48000 11.147
20.50000 6.355
20.52000 5.081
20.54000 1.535
20.56000 1.131
20.58000 -0.294
20.60000 -3.347
20.62000 -3.473
20.64000 0.481
20.66000 2.092
20.68000 -1.740
20.70000 -3.573
20.72000 -1.132
20.74000 -2.304
20.76000 2.998
20.78000 12.254
20.80000 9.109
20.82000 10.258
20.84000 8.848
20.86000 5.250
20.88000 -0.241
20.90000 7.808
20.92000 9.523
20.94000 8.618
20.96000 6.559
20.98000 3.771
21.00000 4.050
21.02000 5.732
21.04000 7.918
21.06000 6.469
21.08000 -2.015
21.10000 5.957
21.12000 6.194
21.14000 2.639
21.16000 3.076
21.18000 3.877
21.20000 8.537
21.22000 8.213
21.24000 -0.008
21.26000 0.384
21.28000 0.092
21.30000 4.549
21.32000 0.046
21.34000 4.430
21.36000 7.011
21.38000 7.120
21.40000 -0.499
21.42000 -1.770
21.44000 0.282
21.46000 4.862
21.48000 11.671
21.50000 4.765
21.52000 1.130
21.54000 3.385
21.56000 3.049
21.58000 6.511
21.60000 3.557
21.62000 3.437
21.64000 4.371
21.66000 5.925
21.68000 4.039
21.70000 2.959
21.72000 -1.813
21.74000 -4.101
21.76000 -3.045
21.78000 -3.546
21.80000 6.977
21.82000 12.038
21.84000 7.646
21.86000 2.271
21.88000 3.170
21.90000 2.103
21.92000 -0.372
21.94000 1.837
21.96000 7.157
21.98000 10.165
22.00000 5.417
22.02000 2.063
22.04000 -0.829
22.06000 4.664
22.08000 5.385
22.10000 11.476
22.12000 11.385
22.14000 5.044
22.16000 -0.247
22.18000 0.156
22.20000 -1.257
22.22000 -3.055
22.24000 1.744
22.26000 1.425
22.28000 -1.484
22.30000 -3.066
22.32000 5.712
22.34000 3.460
22.36000 3.586
22.38000 4.653
22.40000 4.966
22.42000 2.023
22.44000 6.027
22.46000 0.127
22.48000 3.174
22.50000 1.924
22.52000 2.358
22.54000 3.474
22.56000 2.602
22.58000 -0.254
22.60000 2.846
22.62000 5.505
22.64000 7.487
22.66000 6.772
22.68000 10.620
22.70000 0.220
22.72000 6.589
22.74000 7.577
22.76000 5.398
22.78000 0.462
22.80000 -2.708
22.82000 -2.749
22.84000 2.124
22.86000 2.557
22.88000 3.099
22.90000 2.536
22.92000 -4.008
22.94000 4.438
22.96000 6.389
22.98000 1.749
23.00000 0.134
23.02000 2.641
23.04000 5.434
23.06000 -1.029
23.08000 -0.336
23.10000 2.254
23.12000 7.264
23.14000 11.653
23.16000 6.736
23.18000 6.519
23.20000 -0.720
23.22000 5.101
23.24000 7.768
23.26000 7.801
23.28000 4.241
23.30000 6.863
23.32000 8.986
23.34000 0.749
23.36000 2.090
23.38000 7.469
23.40000 8.594
23.42000 5.015
23.44000 4.864
23.46000 12.389
23.48000 7.957
23.50000 5.809
23.52000 6.519
23.54000 12.107
23.56000 4.740
23.58000 4.209
23.60000 2.218
23.62000 5.347
23.64000 9.998
23.66000 7.640
23.68000 6.265
23.70000 3.902
23.72000 -1.612
23.74000 0.116
23.76000 5.550
23.78000 8.100
23.80000 3.968
23.82000 0.302
23.84000 4.898
23.86000 14.496
23.88000 8.129
23.90000 1.252
23.92000 -2.061
23.94000 1.312
23.96000 3.635
23.98000 7.437
24.00000 7.911
24.02000 1.568
24.04000 -0.910
24.06000 0.778
24.08000 2.786
24.10000 6.239
24.12000 5.079
24.14000 3.461
24.16000 0.057
24.18000 1.278
24.20000 3.242
24.22000 2.087
24.24000 4.817
24.26000 6.997
24.28000 8.143
24.30000 6.192
24.32000 4.090
24.34000 0.879
24.36000 -3.925
24.38000 2.076
24.40000 9.946
24.42000 9.352
24.44000 6.303
24.46000 1.322
24.48000 4.028
24.50000 3.283
24.52000 3.222
24.54000 9.683
24.56000 13.217
24.58000 10.967
24.60000 7.693
24.62000 4.052
24.64000 3.239
24.66000 10.684
24.68000 9.596
24.70000 5.321
24.72000 7.734
24.74000 11.361
24.76000 2.924
24.78000 0.620
24.80000 4.960
24.82000 7.689
24.84000 0.981
24.86000 0.574
24.88000 2.103
24.90000 4.530
24.92000 -1.625
24.94000 -3.899
24.96000 2.817
24.98000 3.526
25.00000 2.664
25.02000 4.312
25.04000 7.099
25.06000 3.198
25.08000 3.349
25.10000 -0.838
25.12000 5.529
25.14000 7.685
25.16000 1.005
25.18000 9.950
25.20000 6.531
25.22000 9.736
25.24000 7.840
25.26000 4.618
25.28000 2.027
25.30000 -1.373
25.32000 4.726
25.34000 6.557
25.36000 5.228
25.38000 2.053
25.40000 0.960
25.42000 3.826
25.44000 4.380
25.46000 5.781
25.48000 2.765
25.50000 0.754
25.52000 4.037
25.54000 -0.243
25.56000 3.814
25.58000 2.671
25.60000 6.652
25.62000 2.006
25.64000 7.769
25.66000 4.553
25.68000 -3.880
25.70000 -3.261
25.72000 -2.833
25.74000 3.302
25.76000 4.508
25.78000 5.906
25.80000 4.705
25.82000 4.034
25.84000 1.405
25.86000 1.006
25.88000 0.458
25.90000 -3.349
25.92000 -1.445
25.94000 -2.593
25.96000 -3.230
25.98000 -2.533
26.00000 -0.155
26.02000 1.931
26.04000 6.124
26.06000 8.013
26.08000 4.420
26.10000 3.701
26.12000 2.031
26.14000 1.140
26.16000 6.828
26.18000 8.800
26.20000 8.532
26.22000 8.161
26.24000 3.524
26.26000 4.218
26.28000 4.577
26.30000 3.847
26.32000 2.361
26.34000 1.351
26.36000 -2.680
26.38000 4.517
26.40000 4.591
26.42000 4.006
26.44000 2.215
26.46000 5.020
26.48000 8.203
26.50000 5.886
26.52000 6.327
26.54000 3.961
26.56000 1.048
26.58000 3.149
26.60000 1.590
26.62000 2.182
26.64000 1.452
26.66000 2.136
26.68000 7.251
26.70000 6.084
26.72000 5.901
26.74000 4.865
26.76000 0.098
26.78000 -0.707
26.80000 5.716
26.82000 -0.173
26.84000 -0.452
26.86000 3.949
26.88000 5.203
26.90000 2.424
26.92000 0.043
26.94000 6.029
26.96000 5.307
26.98000 1.675
27.00000 2.062
27.02000 4.951
27.04000 4.565
27.06000 5.407
27.08000 6.164
27.10000 8.933
27.12000 3.318
27.14000 2.943
27.16000 4.878
27.18000 3.380
27.20000 -0.060
27.22000 2.153
27.24000 3.009
27.26000 1.292
27.28000 1.458
27.30000 4.053
27.32000 -2.413
27.34000 -3.793
27.36000 -2.166
27.38000 -3.168
27.40000 -3.471
27.42000 -0.701
27.44000 3.697
27.46000 1.973
27.48000 -0.092
27.50000 2.530
27.52000 4.199
27.54000 0.116
27.56000 4.336
27.58000 4.005
27.60000 2.806
27.62000 -1.669
27.64000 -3.779
27.66000 -2.115
27.68000 3.734
27.70000 3.679
27.72000 5.798
27.74000 5.775
27.76000 2.858
27.78000 0.668
27.80000 0.806
27.82000 5.799
27.84000 8.111
27.86000 5.843
27.88000 0.926
27.90000 2.190
27.92000 -2.835
27.94000 -3.763
27.96000 2.785
27.98000 4.861
28.00000 5.539
28.02000 4.154
28.04000 3.869
28.06000 5.769
28.08000 4.090
28.10000 7.934
28.12000 5.689
28.14000 5.267
28.16000 3.925
28.18000 5.770
28.20000 4.488
28.22000 1.023
28.24000 2.154
28.26000 2.185
28.28000 2.159
28.30000 4.868
28.32000 4.259
28.34000 4.808
28.36000 2.400
28.38000 -1.429
28.40000 1.464
28.42000 4.325
28.44000 8.964
28.46000 1.667
28.48000 0.639
28.50000 1.752
28.52000 5.385
28.54000 4.020
28.56000 5.485
28.58000 4.430
28.60000 -0.008
28.62000 3.548
28.64000 10.778
28.66000 12.273
28.68000 4.835
28.70000 5.988
28.72000 2.765
28.74000 3.573
28.76000 4.149
28.78000 8.297
28.80000 0.890
28.82000 3.809
28.84000 10.131
28.86000 8.180
28.88000 4.489
28.90000 2.889
28.92000 1.649
28.94000 -0.646
28.96000 0.287
28.98000 4.715
29.00000 0.716
29.02000 3.245
29.04000 2.679
29.06000 5.450
29.08000 6.041
29.10000 5.188
29.12000 3.875
29.14000 3.429
29.16000 3.644
29.18000 -1.533
29.20000 0.072
29.22000 -0.530
29.24000 3.231
29.26000 6.562
29.28000 5.806
29.30000 -0.428
29.32000 2.242
29.34000 4.262
29.36000 6.788
29.38000 3.517
29.40000 -3.681
29.42000 1.554
29.44000 1.517
29.46000 -1.001
29.48000 3.955
29.50000 5.655
29.52000 8.541
29.54000 10.100
29.56000 9.938
29.58000 6.333
29.60000 7.915
29.62000 4.633
29.64000 3.349
29.66000 0.579
29.68000 1.734
29.70000 1.925
29.72000 6.208
29.74000 3.789
29.76000 -0.701
29.78000 -0.699
29.80000 5.403
29.82000 7.573
29.84000 3.780
29.86000 2.512
29.88000 3.864
29.90000 0.226
29.92000 -3.611
29.94000 1.107
29.96000 0.020
29.98000 0.966
30.00000 -0.619
30.02000 3.911
30.04000 7.500
30.06000 3.171
30.08000 8.301
30.10000 5.818
30.12000 8.572
30.14000 6.387
30.16000 4.714
30.18000 0.535
30.20000 -3.616
30.22000 -0.337
30.24000 4.035
30.26000 10.137
30.28000 7.419
30.30000 1.810
30.32000 -0.025
30.34000 1.995
30.36000 3.582
30.38000 8.721
30.40000 10.600
30.42000 10.126
30.44000 11.024
30.46000 3.959
30.48000 0.490
30.50000 -1.255
30.52000 2.695
30.54000 6.442
30.56000 5.569
30.58000 2.150
30.60000 8.896
30.62000 4.787
30.64000 1.868
30.66000 2.580
30.68000 7.445
30.70000 10.356
30.72000 7.685
30.74000 4.736
30.76000 1.647
30.78000 3.748
30.80000 3.616
30.82000 -2.191
30.84000 -3.599
30.86000 -3.549
30.88000 2.436
30.90000 4.489
30.92000 -0.221
30.94000 5.969
30.96000 5.942
30.98000 0.441
31.00000 6.343
31.02000 -0.055
31.04000 2.289
31.06000 5.040
31.08000 4.912
31.10000 2.189
31.12000 4.120
31.14000 0.276
31.16000 2.376
31.18000 3.489
31.20000 0.677
31.22000 0.318
31.24000 2.702
31.26000 5.913
31.28000 6.709
31.30000 6.353
31.32000 6.443
31.34000 5.936
31.36000 4.121
31.38000 0.039
31.40000 0.397
31.42000 1.673
31.44000 4.938
31.46000 5.350
31.48000 0.960
31.50000 -0.458
31.52000 0.579
31.54000 3.851
31.56000 5.403
31.58000 7.016
31.60000 8.123
31.62000 7.434
31.64000 4.456
31.66000 2.713
31.68000 2.815
31.70000 -2.035
31.72000 3.801
31.74000 9.818
31.76000 7.383
31.78000 8.233
31.80000 7.468
31.82000 2.773
31.84000 -0.029
31.86000 0.015
31.88000 2.668
31.90000 5.770
31.92000 3.938
31.94000 1.850
31.96000 5.413
31.98000 5.942
32.00000 5.984
32.02000 5.618
32.04000 5.434
32.06000 1.126
32.08000 6.803
32.10000 1.729
32.12000 1.518
32.14000 4.232
32.16000 4.935
32.18000 8.043
32.20000 7.781
32.22000 9.143
32.24000 3.953
32.26000 -1.091
32.28000 3.897
32.30000 4.877
32.32000 2.304
32.34000 -1.322
32.36000 2.755
32.38000 -1.320
32.40000 -2.539
32.42000 -3.564
32.44000 -2.309
32.46000 0.573
32.48000 0.978
32.50000 -1.660
32.52000 -0.208
32.54000 3.253
32.56000 -0.628
32.58000 -1.490
32.60000 -1.592
32.62000 5.060
32.64000 8.883
32.66000 3.370
32.68000 0.495
32.70000 1.367
32.72000 4.832
32.74000 1.710
32.76000 -1.751
32.78000 1.399
32.80000 2.670
32.82000 -0.958
32.84000 -1.838
32.86000 1.819
32.88000 -3.561
32.90000 2.117
32.92000 3.101
32.94000 4.108
32.96000 3.170
32.98000 4.464
33.00000 2.309
33.02000 3.964
33.04000 6.617
33.06000 1.614
33.08000 -3.558
33.10000 4.674
33.12000 7.831
33.14000 3.034
33.16000 -3.147
33.18000 -3.350
33.20000 0.264
33.22000 1.856
33.24000 4.892
33.26000 1.074
33.28000 1.618
33.30000 2.993
33.32000 -0.660
33.34000 -0.173
33.36000 0.855
33.38000 1.394
33.40000 2.144
33.42000 2.850
33.44000 0.034
33.46000 0.085
33.48000 0.152
33.50000 1.559
33.52000 6.976
33.54000 8.086
33.56000 3.784
33.58000 0.417
33.60000 3.440
33.62000 5.191
33.64000 3.524
33.66000 0.575
33.68000 4.728
33.70000 6.302
33.72000 -1.239
33.74000 -1.453
33.76000 0.177
33.78000 5.818
33.80000 2.952
33.82000 -0.316
33.84000 0.441
33.86000 4.799
33.88000 5.795
33.90000 6.091
33.92000 -0.479
33.94000 3.334
33.96000 1.739
33.98000 -1.074
34.00000 -0.776
34.02000 2.013
34.04000 2.224
34.06000 0.625
34.08000 2.926
34.10000 3.161
34.12000 4.370
34.14000 4.903
34.16000 4.723
34.18000 1.882
34.20000 4.372
34.22000 2.243
34.24000 2.338
34.26000 7.837
34.28000 1.159
34.30000 0.282
34.32000 2.122
34.34000 6.476
34.36000 5.635
34.38000 -0.719
34.40000 1.229
34.42000 0.817
34.44000 0.966
34.46000 -1.983
34.48000 -0.150
34.50000 -0.586
34.52000 1.498
34.54000 -1.545
34.56000 -2.783
34.58000 -3.537
34.60000 -1.639
34.62000 0.201
34.64000 -0.382
34.66000 -1.558
34.68000 -1.432
34.70000 -2.348
34.72000 -0.616
34.74000 -2.413
34.76000 1.271
34.78000 4.177
34.80000 0.139
34.82000 -0.236
34.84000 0.792
34.86000 -0.988
34.88000 -1.912
34.90000 -2.012
34.92000 -1.998
34.94000 -3.195
34.96000 -1.003
34.98000 -2.038
35.00000 -3.315
35.02000 3.439
35.04000 4.093
35.06000 -1.508
35.08000 -0.967
35.10000 -1.515
35.12000 -0.413
35.14000 -1.735
35.16000 -0.444
35.18000 3.434
35.20000 0.545
35.22000 -0.571
35.24000 1.659
35.26000 5.560
35.28000 3.987
35.30000 1.966
35.32000 0.959
35.34000 3.350
35.36000 1.720
35.38000 0.969
35.40000 2.659
35.42000 1.828
35.44000 -0.400
35.46000 -0.127
35.48000 -1.772
35.50000 3.112
35.52000 -1.545
35.54000 -3.090
35.56000 -0.721
35.58000 2.304
35.60000 4.692
35.62000 3.309
35.64000 1.276
35.66000 -0.808
35.68000 -3.535
35.70000 0.675
35.72000 0.647
35.74000 -0.056
35.76000 1.087
35.78000 2.023
35.80000 -1.613
35.82000 -1.851
35.84000 0.107
35.86000 -0.501
35.88000 1.408
35.90000 -1.027
35.92000 0.406
35.94000 1.974
35.96000 1.614
35.98000 5.484
36.00000 3.665
36.02000 0.076
36.04000 0.010
36.06000 1.064
36.08000 -0.844
36.10000 0.022
36.12000 -1.180
36.14000 -3.537
36.16000 0.142
36.18000 2.869
36.20000 5.081
36.22000 -1.667
36.24000 0.275
36.26000 1.023
36.28000 -2.094
36.30000 1.866
36.32000 5.125
36.34000 3.077
36.36000 2.810
36.38000 2.806
36.40000 4.167
36.42000 1.749
36.44000 -0.715
36.46000 4.831
36.48000 2.950
36.50000 -0.902
36.52000 3.227
36.54000 1.296
36.56000 7.377
36.58000 6.872
36.60000 2.200
36.62000 4.645
36.64000 5.776
36.66000 5.498
36.68000 1.915
36.70000 -1.398
36.72000 0.079
36.74000 3.263
36.76000 -3.523
36.78000 -0.980
36.80000 2.526
36.82000 0.668
36.84000 4.607
36.86000 8.696
36.88000 9.747
36.90000 7.467
36.92000 6.839
36.94000 5.114
36.96000 1.644
36.98000 4.706
37.00000 5.664
37.02000 2.119
37.04000 4.793
37.06000 3.549
37.08000 -2.610
37.10000 -2.540
37.12000 -2.115
37.14000 -1.133
37.16000 2.249
37.18000 4.130
37.20000 6.066
37.22000 4.157
37.24000 1.331
37.26000 1.513
37.28000 -0.112
37.30000 4.602
37.32000 2.857
37.34000 6.698
37.36000 4.512
37.38000 4.443
37.40000 0.603
37.42000 2.945
37.44000 4.498
37.46000 5.290
37.48000 0.757
37.50000 3.169
37.52000 4.018
37.54000 4.602
37.56000 2.019
37.58000 5.810
37.60000 6.942
37.62000 6.767
37.64000 9.294
37.66000 7.666
37.68000 7.016
37.70000 6.738
37.72000 9.386
37.74000 12.366
37.76000 15.058
37.78000 16.263
37.80000 15.591
37.82000 9.965
37.84000 9.943
37.86000 11.101
37.88000 8.818
37.90000 9.601
37.92000 14.029
37.94000 11.007
37.96000 15.621
37.98000 15.683
38.00000 14.677
38.02000 10.285
38.04000 12.930
38.06000 14.338
38.08000 14.397
38.10000 18.324
38.12000 18.969
38.14000 16.976
38.16000 20.323
38.18000 16.808
38.20000 18.959
38.22000 20.109
38.24000 21.453
38.26000 25.083
38.28000 23.442
38.30000 23.406
38.32000 21.257
38.34000 22.123
38.36000 18.666
38.38000 20.669
38.40000 27.461
38.42000 28.463
38.44000 26.012
38.46000 24.394
38.48000 25.789
38.50000 25.529
38.52000 28.533
38.54000 32.615
38.56000 30.719
38.58000 35.045
38.60000 41.554
38.62000 40.169
38.64000 37.843
38.66000 37.555
38.68000 37.666
38.70000 37.067
38.72000 41.494
38.74000 44.817
38.76000 47.165
38.78000 47.146
38.80000 46.820
38.82000 46.745
38.84000 48.989
38.86000 55.593
38.88000 59.069
38.90000 56.039
38.92000 61.534
38.94000 67.009
38.96000 66.086
38.98000 65.241
39.00000 67.841
39.02000 73.153
39.04000 85.691
39.06000 91.338
39.08000 85.582
39.10000 88.509
39.12000 92.043
39.14000 95.916
39.16000 101.872
39.18000 114.881
39.20000 113.768
39.22000 116.235
39.24000 125.562
39.26000 130.244
39.28000 137.892
39.30000 148.472
39.32000 147.917
39.34000 156.415
39.36000 169.828
39.38000 179.886
39.40000 189.637
39.42000 198.653
39.44000 207.432
39.46000 218.290
39.48000 230.499
39.50000 246.437
39.52000 262.869
39.54000 277.947
39.56000 292.347
39.58000 309.922
39.60000 330.789
39.62000 342.571
39.64000 349.233
39.66000 372.829
39.68000 389.224
39.70000 410.943
39.72000 434.642
39.74000 456.219
39.76000 474.199
39.78000 490.236
39.80000 506.722
39.82000 521.501
39.84000 540.575
39.86000 556.700
39.88000 563.587
39.90000 575.016
39.92000 595.970
39.94000 596.061
39.96000 590.955
39.98000 584.876
40.00000 596.288
40.02000 603.382
40.04000 602.123
40.06000 599.172
40.08000 593.324
40.10000 590.352
40.12000 575.983
40.14000 555.196
40.16000 551.261
40.18000 547.120
40.20000 525.972
40.22000 517.426
40.24000 506.057
40.26000 482.475
40.28000 460.202
40.30000 444.670
40.32000 418.931
40.34000 402.514
40.36000 378.847
40.38000 358.324
40.40000 339.058
40.42000 322.613
40.44000 305.280
40.46000 298.908
40.48000 277.233
40.50000 255.535
40.52000 247.102
40.54000 234.649
40.56000 219.005
40.58000 212.255
40.60000 197.846
40.62000 181.494
40.64000 168.898
40.66000 167.225
40.68000 155.077
40.70000 142.959
40.72000 133.412
40.74000 127.328
40.76000 118.220
40.78000 116.275
40.80000 109.891
40.82000 105.582
40.84000 95.531
40.86000 85.523
40.88000 78.422
40.90000 73.834
40.92000 72.803
40.94000 63.431
40.96000 62.477
40.98000 63.448
41.00000 59.004
41.02000 52.830
41.04000 51.306
41.06000 46.591
41.08000 45.699
41.10000 46.605
41.12000 42.684
41.14000 37.863
41.16000 37.992
41.18000 36.865
41.20000 37.439
41.22000 37.547
41.24000 36.236
41.26000 30.922
41.28000 27.470
41.30000 24.495
41.32000 25.948
41.34000 25.496
41.36000 24.663
41.38000 24.514
41.40000 23.341
41.42000 19.986
41.44000 18.425
41.46000 18.224
41.48000 21.060
41.50000 17.905
41.52000 14.155
41.54000 11.368
41.56000 13.569
41.58000 13.377
41.60000 9.169
41.62000 5.842
41.64000 9.542
41.66000 8.757
41.68000 6.368
41.70000 7.300
41.72000 11.116
41.74000 9.440
41.76000 7.983
41.78000 3.747
41.80000 5.296
41.82000 7.971
41.84000 7.914
41.86000 4.966
41.88000 3.518
41.90000 8.710
41.92000 7.579
41.94000 2.424
41.96000 4.365
41.98000 6.624
42.00000 7.913
42.02000 6.030
42.04000 3.567
42.06000 2.862
42.08000 -0.397
42.10000 2.022
42.12000 0.887
42.14000 1.064
42.16000 1.569
42.18000 5.758
42.20000 1.831
42.22000 0.672
42.24000 2.970
42.26000 1.209
42.28000 -1.920
42.30000 -1.385
42.32000 0.181
42.34000 0.561
42.36000 -1.497
42.38000 3.995
42.40000 1.729
42.42000 3.440
42.44000 2.401
42.46000 3.523
42.48000 -2.588
42.50000 -1.325
42.52000 1.470
42.54000 4.453
42.56000 1.876
42.58000 1.532
42.60000 0.007
42.62000 -1.870
42.64000 -1.510
42.66000 -3.329
42.68000 0.590
42.70000 2.059
42.72000 1.150
42.74000 4.867
42.76000 1.660
42.78000 1.409
42.80000 0.425
42.82000 0.847
42.84000 2.061
42.86000 3.030
42.88000 2.838
42.90000 -0.786
42.92000 -2.636
42.94000 2.196
42.96000 0.865
42.98000 -2.429
43.00000 -3.285
43.02000 -2.593
43.04000 -1.648
43.06000 1.513
43.08000 -1.690
43.10000 -0.060
43.12000 3.999
43.14000 1.134
43.16000 0.692
43.18000 3.415
43.20000 4.399
43.22000 0.551
43.24000 1.815
43.26000 1.628
43.28000 -0.732
43.30000 0.931
43.32000 1.179
43.34000 0.913
43.36000 -0.656
43.38000 -1.484
43.40000 -0.616
43.42000 -1.960
43.44000 -3.241
43.46000 0.636
43.48000 -0.750
43.50000 0.480
43.52000 4.736
43.54000 4.662
43.56000 2.585
43.58000 0.835
43.60000 2.370
43.62000 1.024
43.64000 -2.313
43.66000 -0.951
43.68000 2.392
43.70000 1.613
43.72000 0.629
43.74000 -1.259
43.76000 1.210
43.78000 3.827
43.80000 1.070
43.82000 -0.848
43.84000 -0.202
43.86000 -0.376
43.88000 2.581
43.90000 2.495
43.92000 3.383
43.94000 0.287
43.96000 -1.437
43.98000 1.534
44.00000 3.099
44.02000 1.576
44.04000 2.398
44.06000 2.656
44.08000 0.212
44.10000 0.202
44.12000 0.233
44.14000 -0.934
44.16000 -0.881
44.18000 0.310
44.20000 6.326
44.22000 5.118
44.24000 6.213
44.26000 4.940
44.28000 1.776
44.30000 0.284
44.32000 -1.223
44.34000 -3.148
44.36000 -0.596
44.38000 -1.804
44.40000 -2.055
44.42000 1.726
44.44000 8.162
44.46000 5.622
44.48000 3.054
44.50000 2.830
44.52000 2.924
44.54000 4.441
44.56000 4.987
44.58000 4.230
44.60000 0.840
44.62000 0.653
44.64000 4.509
44.66000 4.357
44.68000 3.632
44.70000 0.166
44.72000 4.147
44.74000 5.381
44.76000 3.346
44.78000 -0.683
44.80000 4.022
44.82000 5.999
44.84000 4.236
44.86000 3.798
44.88000 6.805
44.90000 1.263
44.92000 1.128
44.94000 4.017
44.96000 5.672
44.98000 7.263
45.00000 1.930
45.02000 4.620
45.04000 5.108
45.06000 6.536
45.08000 3.298
45.10000 2.718
45.12000 -1.506
45.14000 -3.141
45.16000 2.304
45.18000 5.957
45.20000 4.350
45.22000 4.745
45.24000 6.041
45.26000 4.140
45.28000 6.137
45.30000 11.171
45.32000 9.232
45.34000 5.452
45.36000 6.720
45.38000 8.907
45.40000 7.162
45.42000 9.232
45.44000 8.608
45.46000 8.621
45.48000 10.986
45.50000 10.530
45.52000 12.455
45.54000 10.877
45.56000 10.840
45.58000 11.685
45.60000 15.826
45.62000 18.548
45.64000 16.935
45.66000 17.893
45.68000 9.766
45.70000 10.837
45.72000 16.500
45.74000 14.456
45.76000 16.580
45.78000 17.997
45.80000 18.512
45.82000 23.782
45.84000 24.525
45.86000 24.017
45.88000 24.964
45.90000 23.496
45.92000 22.937
45.94000 26.719
45.96000 29.734
45.98000 27.716
46.00000 31.050
46.02000 32.516
46.04000 32.329
46.06000 36.395
46.08000 37.783
46.10000 34.751
46.12000 32.247
46.14000 34.645
46.16000 41.575
46.18000 47.561
46.20000 51.881
46.22000 47.487
46.24000 49.809
46.26000 43.331
46.28000 42.530
46.30000 49.914
46.32000 51.403
46.34000 51.211
46.36000 53.861
46.38000 60.850
46.40000 62.657
46.42000 59.667
46.44000 61.582
46.46000 60.093
46.48000 60.024
46.50000 60.254
46.52000 62.131
46.54000 60.928
46.56000 64.578
46.58000 68.473
46.60000 67.110
46.62000 61.179
46.64000 67.069
46.66000 70.532
46.68000 70.774
46.70000 66.993
46.72000 70.006
46.74000 71.707
46.76000 70.648
46.78000 66.138
46.80000 59.217
46.82000 58.000
46.84000 60.351
46.86000 61.574
46.88000 59.420
46.90000 61.188
46.92000 60.449
46.94000 63.120
46.96000 51.970
46.98000 49.655
47.00000 51.474
47.02000 50.718
47.04000 50.901
47.06000 48.092
47.08000 46.843
47.10000 45.051
47.12000 44.220
47.14000 43.920
47.16000 39.037
47.18000 38.697
47.20000 39.062
47.22000 38.094
47.24000 34.251
47.26000 29.569
47.28000 29.144
47.30000 32.546
47.32000 29.730
47.34000 23.089
47.36000 25.011
47.38000 25.829
47.40000 22.502
47.42000 20.203
47.44000 20.216
47.46000 18.190
47.48000 19.653
47.50000 16.695
47.52000 13.207
47.54000 16.244
47.56000 16.994
47.58000 10.967
47.60000 8.762
47.62000 10.050
47.64000 11.605
47.66000 10.302
47.68000 12.687
47.70000 11.992
47.72000 11.302
47.74000 12.152
47.76000 9.745
47.78000 4.681
47.80000 4.002
47.82000 5.251
47.84000 5.298
47.86000 6.116
47.88000 7.558
47.90000 6.236
47.92000 2.424
47.94000 1.466
47.96000 1.049
47.98000 0.646
48.00000 0.069
48.02000 2.628
48.04000 1.702
48.06000 3.692
48.08000 5.043
48.10000 1.985
48.12000 3.734
48.14000 5.047
48.16000 4.871
48.18000 4.794
48.20000 4.173
48.22000 3.934
48.24000 1.206
48.26000 3.255
48.28000 0.962
48.30000 -1.365
48.32000 -0.547
48.34000 3.691
48.36000 3.917
48.38000 1.495
48.40000 1.230
48.42000 1.570
48.44000 1.840
48.46000 5.019
48.48000 3.327
48.50000 -2.095
48.52000 -0.167
48.54000 1.766
48.56000 -0.818
48.58000 -2.171
48.60000 1.980
48.62000 -2.787
48.64000 -0.668
48.66000 1.486
48.68000 4.680
48.70000 5.171
48.72000 6.183
48.74000 7.572
48.76000 5.606
48.78000 -0.113
48.80000 -2.753
48.82000 -1.630
48.84000 3.624
48.86000 2.701
48.88000 -1.212
48.90000 -1.393
48.92000 1.890
48.94000 4.308
48.96000 6.247
48.98000 1.796
49.00000 0.816
49.02000 -1.480
49.04000 3.900
49.06000 6.408
49.08000 2.230
49.10000 0.845
49.12000 4.181
49.14000 5.845
49.16000 1.888
49.18000 3.947
49.20000 4.451
49.22000 2.993
49.24000 1.371
49.26000 3.635
49.28000 3.514
49.30000 6.696
49.32000 3.794
49.34000 2.146
49.36000 2.439
49.38000 0.389
49.40000 1.790
49.42000 2.642
49.44000 6.826
49.46000 4.840
49.48000 3.394
49.50000 4.779
49.52000 4.542
49.54000 0.002
49.56000 -2.666
49.58000 0.216
49.60000 1.818
49.62000 -1.187
49.64000 4.833
49.66000 6.373
49.68000 6.085
49.70000 2.450
49.72000 4.051
49.74000 4.343
49.76000 4.442
49.78000 5.241
49.80000 2.056
49.82000 1.707
49.84000 2.565
49.86000 4.746
49.88000 6.532
49.90000 4.560
49.92000 6.032
49.94000 5.311
49.96000 0.243
49.98000 1.497
50.00000 0.986
50.02000 -2.338
50.04000 3.042
50.06000 4.552
50.08000 7.491
50.10000 8.503
50.12000 7.186
50.14000 6.249
50.16000 5.080
50.18000 2.501
50.20000 3.133
50.22000 0.561
50.24000 3.435
50.26000 2.634
50.28000 3.088
50.30000 1.505
50.32000 1.525
50.34000 0.600
50.36000 5.753
50.38000 2.082
50.40000 -0.266
50.42000 1.452
50.44000 4.868
50.46000 3.483
50.48000 4.822
50.50000 3.971
50.52000 1.826
50.54000 1.459
50.56000 2.245
50.58000 0.053
50.60000 0.182
50.62000 4.350
50.64000 4.464
50.66000 0.528
50.68000 -2.604
50.70000 3.856
50.72000 3.364
50.74000 4.164
50.76000 1.173
50.78000 0.319
50.80000 0.385
50.82000 -0.155
50.84000 -1.264
50.86000 2.897
50.88000 4.696
50.90000 4.843
50.92000 5.003
50.94000 3.218
50.96000 4.449
50.98000 1.497
51.00000 0.110
51.02000 -2.598
51.04000 1.932
51.06000 3.684
51.08000 6.059
51.10000 4.447
51.12000 3.277
51.14000 4.162
51.16000 0.622
51.18000 4.178
51.20000 3.109
51.22000 3.592
51.24000 4.685
51.26000 3.570
51.28000 5.166
51.30000 5.440
51.32000 3.109
51.34000 6.354
51.36000 3.683
51.38000 -0.759
51.40000 1.204
51.42000 4.077
51.44000 1.554
51.46000 1.292
51.48000 -1.064
51.50000 2.034
51.52000 3.460
51.54000 3.939
51.56000 1.649
51.58000 5.841
51.60000 4.351
51.62000 1.297
51.64000 1.432
51.66000 2.016
51.68000 2.037
51.70000 0.379
51.72000 -0.384
51.74000 2.858
51.76000 2.492
51.78000 0.886
51.80000 2.608
51.82000 4.170
51.84000 2.461
51.86000 6.754
51.88000 8.051
51.90000 1.982
51.92000 0.211
51.94000 2.824
51.96000 3.687
51.98000 4.316
52.00000 1.142
52.02000 0.378
52.04000 2.624
52.06000 2.073
52.08000 1.018
52.10000 1.503
52.12000 4.197
52.14000 5.231
52.16000 5.213
52.18000 3.868
52.20000 3.191
52.22000 1.788
52.24000 0.049
52.26000 -0.960
52.28000 0.791
52.30000 1.729
52.32000 4.530
52.34000 2.905
52.36000 1.669
52.38000 2.953
52.40000 0.669
52.42000 -2.015
52.44000 -0.810
52.46000 4.047
52.48000 2.566
52.50000 -1.201
52.52000 0.463
52.54000 2.977
52.56000 2.689
52.58000 0.623
52.60000 2.287
52.62000 2.507
52.64000 0.986
52.66000 2.473
52.68000 1.924
52.70000 3.141
52.72000 7.938
52.74000 6.686
52.76000 3.130
52.78000 2.661
52.80000 5.646
52.82000 3.997
52.84000 0.899
52.86000 2.918
52.88000 6.411
52.90000 6.424
52.92000 2.613
52.94000 4.247
52.96000 0.881
52.98000 -2.529
53.00000 -1.645
53.02000 3.492
53.04000 3.545
53.06000 3.376
53.08000 4.486
53.10000 3.294
53.12000 7.759
53.14000 7.280
53.16000 4.082
53.18000 1.157
53.20000 3.678
53.22000 5.388
53.24000 4.574
53.26000 -0.756
53.28000 -2.541
53.30000 2.398
53.32000 2.638
53.34000 2.853
53.36000 3.488
53.38000 2.576
53.40000 2.616
53.42000 4.261
53.44000 1.224
53.46000 0.513
53.48000 3.997
53.50000 5.672
53.52000 5.686
53.54000 2.196
53.56000 1.416
53.58000 4.701
53.60000 5.267
53.62000 2.870
53.64000 4.426
53.66000 3.018
53.68000 2.060
53.70000 3.417
53.72000 1.671
53.74000 2.047
53.76000 2.864
53.78000 1.806
53.80000 2.836
53.82000 2.997
53.84000 0.604
53.86000 -0.801
53.88000 1.563
53.90000 2.917
53.92000 5.191
53.94000 6.222
53.96000 7.831
53.98000 2.315
54.00000 0.459
54.02000 -0.464
54.04000 1.110
54.06000 -0.821
54.08000 0.913
54.10000 2.913
54.12000 2.670
54.14000 2.258
54.16000 0.402
54.18000 4.522
54.20000 8.332
54.22000 9.673
54.24000 4.796
54.26000 2.965
54.28000 4.491
54.30000 1.479
54.32000 0.537
54.34000 3.687
54.36000 -0.331
54.38000 2.461
54.40000 -0.806
54.42000 0.754
54.44000 0.777
54.46000 0.085
54.48000 -0.787
54.50000 -1.448
54.52000 -0.381
54.54000 1.447
54.56000 2.080
54.58000 1.797
54.60000 1.620
54.62000 2.302
54.64000 5.189
54.66000 4.097
54.68000 3.357
54.70000 2.796
54.72000 2.985
54.74000 -2.522
54.76000 1.774
54.78000 -0.776
54.80000 0.159
54.82000 3.862
54.84000 2.377
54.86000 4.609
54.88000 6.333
54.90000 3.187
54.92000 9.225
54.94000 2.566
54.96000 3.405
54.98000 4.890
55.00000 -0.593
55.02000 2.605
55.04000 -1.243
55.06000 -2.506
55.08000 0.550
55.10000 -0.617
55.12000 2.237
55.14000 3.890
55.16000 4.788
55.18000 4.907
55.20000 2.073
55.22000 5.023
55.24000 4.705
55.26000 2.332
55.28000 -0.275
55.30000 1.190
55.32000 2.094
55.34000 1.179
55.36000 4.152
55.38000 1.184
55.40000 1.696
55.42000 0.361
55.44000 -0.029
55.46000 1.067
55.48000 2.393
55.50000 5.263
55.52000 3.499
55.54000 3.030
55.56000 0.256
55.58000 1.722
55.60000 2.117
55.62000 2.419
55.64000 0.749
55.66000 -0.329
55.68000 0.949
55.70000 3.497
55.72000 2.281
55.74000 5.894
55.76000 7.831
55.78000 4.122
55.80000 1.673
55.82000 -0.732
55.84000 -1.411
55.86000 -1.805
55.88000 2.946
55.90000 2.849
55.92000 1.609
55.94000 5.682
55.96000 0.886
55.98000 -0.253
56.00000 -0.092
56.02000 0.810
56.04000 0.273
56.06000 1.239
56.08000 0.371
56.10000 4.369
56.12000 1.421
56.14000 2.329
56.16000 2.997
56.18000 -2.505
56.20000 -2.505
56.22000 4.145
56.24000 2.149
56.26000 0.652
56.28000 3.524
56.30000 1.798
56.32000 2.376
56.34000 1.949
56.36000 -0.746
56.38000 0.185
56.40000 1.034
56.42000 0.188
56.44000 1.495
56.46000 1.949
56.48000 -1.511
56.50000 -2.140
56.52000 -0.165
56.54000 -1.075
56.56000 0.871
56.58000 0.866
56.60000 -0.393
56.62000 0.911
56.64000 5.919
56.66000 6.713
56.68000 5.949
56.70000 3.227
56.72000 -0.468
56.74000 0.857
56.76000 -0.955
56.78000 -1.791
56.80000 -1.185
56.82000 -0.894
56.84000 -2.478
56.86000 -1.528
56.88000 0.805
56.90000 2.108
56.92000 0.428
56.94000 1.460
56.96000 4.203
56.98000 0.023
57.00000 6.319
57.02000 9.026
57.04000 2.304
57.06000 0.711
57.08000 1.918
57.10000 0.252
57.12000 5.622
57.14000 4.356
57.16000 -1.530
57.18000 -2.338
57.20000 2.773
57.22000 3.904
57.24000 2.091
57.26000 2.106
57.28000 -0.457
57.30000 2.187
57.32000 0.717
57.34000 -2.069
57.36000 1.039
57.38000 4.691
57.40000 6.181
57.42000 5.090
57.44000 4.244
57.46000 1.026
57.48000 1.868
57.50000 1.139
57.52000 -1.364
57.54000 3.653
57.56000 1.050
57.58000 5.043
57.60000 4.700
57.62000 4.553
57.64000 6.107
57.66000 8.642
57.68000 6.000
57.70000 2.760
57.72000 5.083
57.74000 2.861
57.76000 -0.166
57.78000 1.130
57.80000 2.999
57.82000 7.089
57.84000 2.012
57.86000 -0.183
57.88000 -2.398
57.90000 -0.098
57.92000 3.772
57.94000 4.886
57.96000 5.106
57.98000 2.154
58.00000 2.084
58.02000 4.386
58.04000 3.516
58.06000 6.356
58.08000 5.519
58.10000 2.575
58.12000 1.357
58.14000 1.283
58.16000 3.320
58.18000 2.829
58.20000 0.039
58.22000 -1.829
58.24000 1.612
58.26000 3.983
58.28000 -0.503
58.30000 1.910
58.32000 3.064
58.34000 3.581
58.36000 3.593
58.38000 0.799
58.40000 1.074
58.42000 1.380
58.44000 2.223
58.46000 4.273
58.48000 4.321
58.50000 6.245
58.52000 4.512
58.54000 4.108
58.56000 5.982
58.58000 5.331
58.60000 4.144
58.62000 -1.387
58.64000 3.187
58.66000 6.915
58.68000 5.186
58.70000 4.185
58.72000 2.417
58.74000 3.270
58.76000 4.288
58.78000 2.448
58.80000 -1.523
58.82000 2.196
58.84000 2.317
58.86000 0.388
58.88000 0.550
58.90000 -0.424
58.92000 -0.544
58.94000 -2.384
58.96000 1.458
58.98000 -0.058
59.00000 -2.382
59.02000 1.650
59.04000 4.046
59.06000 3.267
59.08000 2.312
59.10000 3.400
59.12000 6.493
59.14000 4.933
59.16000 -2.387
59.18000 0.309
59.20000 1.116
59.22000 1.613
59.24000 1.642
59.26000 1.872
59.28000 5.272
59.30000 6.129
59.32000 2.884
59.34000 3.924
59.36000 4.087
59.38000 1.769
59.40000 1.102
59.42000 3.055
59.44000 3.409
59.46000 -0.312
59.48000 -1.041
59.50000 0.499
59.52000 1.306
59.54000 5.005
59.56000 5.150
59.58000 -1.241
59.60000 -0.076
59.62000 2.509
59.64000 1.340
59.66000 0.263
59.68000 -0.036
59.70000 -0.192
59.72000 0.089
59.74000 4.356
59.76000 6.439
59.78000 5.292
59.80000 -1.190
59.82000 -1.083
59.84000 1.517
59.86000 2.186
59.88000 2.092
59.90000 3.592
59.92000 2.416
59.94000 -0.205
59.96000 -2.170
59.98000 1.412
60.00000 3.109
60.02000 0.657
60.04000 1.998
60.06000 3.168
60.08000 3.377
60.10000 1.064
60.12000 -0.085
60.14000 1.728
60.16000 -1.022
60.18000 -0.609
60.20000 0.461
60.22000 4.498
60.24000 4.850
60.26000 3.468
60.28000 0.757
60.30000 1.773
60.32000 1.210
60.34000 1.081
60.36000 -0.564
60.38000 -0.948
60.40000 -2.355
60.42000 1.993
60.44000 2.287
60.46000 3.378
60.48000 2.962
60.50000 4.049
60.52000 2.232
60.54000 0.072
60.56000 3.048
60.58000 3.608
60.60000 0.813
60.62000 0.272
60.64000 -1.863
60.66000 0.966
60.68000 2.789
60.70000 3.038
60.72000 4.554
60.74000 2.595
60.76000 3.644
60.78000 1.139
60.80000 -1.578
60.82000 1.651
60.84000 1.837
60.86000 1.337
60.88000 0.659
60.90000 4.024
60.92000 3.119
60.94000 2.473
60.96000 2.042
60.98000 0.288
61.00000 1.274
61.02000 1.650
61.04000 2.679
61.06000 -0.558
61.08000 2.794
61.10000 4.528
61.12000 1.081
61.14000 -1.252
61.16000 0.916
61.18000 1.195
61.20000 1.785
61.22000 1.493
61.24000 2.685
61.26000 4.683
61.28000 3.907
61.30000 1.807
61.32000 2.024
61.34000 1.306
61.36000 1.394
61.38000 0.440
61.40000 1.843
61.42000 1.451
61.44000 -0.044
61.46000 -2.305
61.48000 -0.256
61.50000 0.744
61.52000 3.892
61.54000 6.397
61.56000 2.104
61.58000 2.030
61.60000 7.094
61.62000 5.221
61.64000 5.032
61.66000 6.131
61.68000 5.254
61.70000 7.602
61.72000 5.779
61.74000 0.253
61.76000 3.367
61.78000 1.681
61.80000 -2.288
61.82000 2.705
61.84000 2.496
61.86000 0.002
61.88000 1.145
61.90000 1.079
61.92000 3.115
61.94000 5.324
61.96000 2.561
61.98000 4.659
62.00000 3.561
62.02000 5.498
62.04000 4.818
62.06000 -0.599
62.08000 0.063
62.10000 1.213
62.12000 -0.128
62.14000 -2.292
62.16000 1.169
62.18000 0.795
62.20000 3.269
62.22000 0.363
62.24000 -0.386
62.26000 1.609
62.28000 0.324
62.30000 2.746
62.32000 3.535
62.34000 2.468
62.36000 2.528
62.38000 3.484
62.40000 2.161
62.42000 3.279
62.44000 3.919
62.46000 0.481
62.48000 2.472
62.50000 2.442
62.52000 2.995
62.54000 1.477
62.56000 1.937
62.58000 2.655
62.60000 4.102
62.62000 5.522
62.64000 4.059
62.66000 0.096
62.68000 0.360
62.70000 1.773
62.72000 -0.414
62.74000 0.248
62.76000 -0.059
62.78000 -0.137
62.80000 0.239
62.82000 3.148
62.84000 1.294
62.86000 -0.152
62.88000 -1.127
62.90000 -2.314
62.92000 2.691
62.94000 2.771
62.96000 -0.291
62.98000 2.190
63.00000 2.504
63.02000 2.274
63.04000 2.922
63.06000 4.058
63.08000 1.147
63.10000 0.514
63.12000 3.281
63.14000 3.060
63.16000 1.453
63.18000 1.397
63.20000 1.410
63.22000 0.915
63.24000 1.466
63.26000 2.400
63.28000 -0.032
63.30000 1.477
63.32000 1.202
63.34000 2.428
63.36000 4.573
63.38000 -1.341
63.40000 0.328
63.42000 0.950
63.44000 1.137
63.46000 1.626
63.48000 1.221
63.50000 -0.887
63.52000 0.559
63.54000 2.026
63.56000 0.842
63.58000 1.503
63.60000 1.301
63.62000 2.255
63.64000 2.158
63.66000 3.760
63.68000 -1.064
63.70000 0.581
63.72000 0.659
63.74000 6.757
63.76000 4.450
63.78000 0.339
63.80000 1.826
63.82000 -1.029
63.84000 -0.216
63.86000 2.600
63.88000 2.327
63.90000 -2.334
63.92000 -1.981
63.94000 4.182
63.96000 3.551
63.98000 1.591
64.00000 2.094
64.02000 2.067
64.04000 -0.286
64.06000 0.082
64.08000 -0.204
64.10000 2.193
64.12000 1.322
64.14000 0.849
64.16000 3.555
64.18000 2.676
64.20000 0.728
64.22000 -0.063
64.24000 -1.696
64.26000 0.518
64.28000 -0.371
64.30000 -1.671
64.32000 -0.692
64.34000 0.928
64.36000 1.968
64.38000 6.885
64.40000 1.702
64.42000 -0.806
64.44000 -1.030
64.46000 -0.767
64.48000 -0.226
64.50000 2.600
64.52000 -0.426
64.54000 0.950
64.56000 1.485
64.58000 2.255
64.60000 1.679
64.62000 -1.856
64.64000 1.605
64.66000 3.605
64.68000 3.262
64.70000 2.500
64.72000 0.126
64.74000 -0.507
64.76000 0.583
64.78000 -2.324
64.80000 -0.204
64.82000 1.976
64.84000 0.980
64.86000 -0.673
64.88000 0.158
64.90000 4.196
64.92000 5.339
64.94000 1.108
64.96000 1.987
64.98000 4.576
65.00000 2.247
65.02000 2.549
65.04000 2.547
65.06000 1.017
65.08000 3.554
65.10000 4.085
65.12000 4.598
65.14000 -0.172
65.16000 0.498
65.18000 4.396
65.20000 0.796
65.22000 -2.324
65.24000 1.469
65.26000 1.283
65.28000 0.540
65.30000 -0.263
65.32000 -0.143
65.34000 3.255
65.36000 3.742
65.38000 4.673
65.40000 1.350
65.42000 -1.329
65.44000 -0.258
65.46000 0.247
65.48000 -1.746
65.50000 -0.848
65.52000 1.853
65.54000 -0.381
65.56000 -1.476
65.58000 -1.701
65.60000 0.512
65.62000 -1.997
65.64000 -1.581
65.66000 -2.314
65.68000 0.305
65.70000 0.858
65.72000 0.488
65.74000 2.154
65.76000 -0.655
65.78000 0.410
65.80000 1.191
65.82000 1.680
65.84000 3.258
65.86000 -0.481
65.88000 0.456
65.90000 1.454
65.92000 1.159
65.94000 1.274
65.96000 2.310
65.98000 3.620
66.00000 0.433
66.02000 0.692
66.04000 2.316
66.06000 -1.898
66.08000 -0.583
66.10000 0.374
66.12000 2.027
66.14000 0.538
66.16000 4.793
66.18000 5.486
66.20000 2.273
66.22000 1.658
66.24000 5.534
66.26000 3.018
66.28000 -1.244
66.30000 -1.297
66.32000 -2.361
66.34000 -1.701
66.36000 0.553
66.38000 -1.141
66.40000 -0.109
66.42000 0.147
66.44000 -0.235
66.46000 0.168
66.48000 3.402
66.50000 4.100
66.52000 6.608
66.54000 4.467
66.56000 3.224
66.58000 2.228
66.60000 0.268
66.62000 -0.752
66.64000 1.786
66.66000 4.388
66.68000 3.318
66.70000 3.003
66.72000 0.938
66.74000 3.452
66.76000 1.025
66.78000 2.856
66.80000 1.394
66.82000 0.849
66.84000 3.145
66.86000 2.622
66.88000 -2.395
66.90000 0.464
66.92000 2.080
66.94000 5.178
66.96000 4.714
66.98000 2.907
67.00000 -0.341
67.02000 2.900
67.04000 3.773
67.06000 5.122
67.08000 2.119
67.10000 4.447
67.12000 2.123
67.14000 2.571
67.16000 6.246
67.18000 5.688
67.20000 4.320
67.22000 5.641
67.24000 5.877
67.26000 4.621
67.28000 4.686
67.30000 7.325
67.32000 4.553
67.34000 5.472
67.36000 8.777
67.38000 7.564
67.40000 7.253
67.42000 8.099
67.44000 6.507
67.46000 7.468
67.48000 9.543
67.50000 12.342
67.52000 10.735
67.54000 10.840
67.56000 13.361
67.58000 12.015
67.60000 14.465
67.62000 13.598
67.64000 11.378
67.66000 14.045
67.68000 15.628
67.70000 10.026
67.72000 10.423
67.74000 14.103
67.76000 18.162
67.78000 18.665
67.80000 16.528
67.82000 18.947
67.84000 18.886
67.86000 17.750
67.88000 21.122
67.90000 17.769
67.92000 18.495
67.94000 18.522
67.96000 18.172
67.98000 18.156
68.00000 16.356
68.02000 14.407
68.04000 21.872
68.06000 20.525
68.08000 17.956
68.10000 18.270
68.12000 19.121
68.14000 19.760
68.16000 20.574
68.18000 20.459
68.20000 18.573
68.22000 16.951
68.24000 18.039
68.26000 15.507
68.28000 16.558
68.30000 15.185
68.32000 13.732
68.34000 13.964
68.36000 12.752
68.38000 9.873
68.40000 11.137
68.42000 12.803
68.44000 12.530
68.46000 11.826
68.48000 8.745
68.50000 9.361
68.52000 9.646
68.54000 9.805
68.56000 11.812
68.58000 9.996
68.60000 8.606
68.62000 9.465
68.64000 6.626
68.66000 6.257
68.68000 7.787
68.70000 9.401
68.72000 5.855
68.74000 5.724
68.76000 5.482
68.78000 5.617
68.80000 4.383
68.82000 3.920
68.84000 2.807
68.86000 4.413
68.88000 4.129
68.90000 2.173
68.92000 0.833
68.94000 0.931
68.96000 2.423
68.98000 2.432
69.00000 1.756
69.02000 3.447
69.04000 2.194
69.06000 0.705
69.08000 2.726
69.10000 3.942
69.12000 3.179
69.14000 0.539
69.16000 2.429
69.18000 2.159
69.20000 3.348
69.22000 1.845
69.24000 1.398
69.26000 -0.267
69.28000 2.118
69.30000 1.297
69.32000 1.142
69.34000 1.610
69.36000 1.693
69.38000 -1.822
69.40000 -1.441
69.42000 2.232
69.44000 0.639
69.46000 2.452
69.48000 2.884
69.50000 1.129
69.52000 -1.007
69.54000 0.464
69.56000 4.800
69.58000 2.761
69.60000 1.600
69.62000 0.145
69.64000 -1.356
69.66000 0.014
69.68000 0.668
69.70000 3.937
69.72000 4.012
69.74000 -0.874
69.76000 4.054
69.78000 1.946
69.80000 -2.246
69.82000 -0.772
69.84000 -1.072
69.86000 0.758
69.88000 6.326
69.90000 2.641
69.92000 1.848
69.94000 3.642
69.96000 0.932
69.98000 0.892
70.00000 1.901
70.02000 2.422
70.04000 0.989
70.06000 0.237
70.08000 -0.677
70.10000 -0.777
70.12000 -1.356
70.14000 -0.610
70.16000 2.082
70.18000 -0.323
70.20000 2.414
70.22000 1.373
70.24000 -1.636
70.26000 1.115
70.28000 -0.515
70.30000 2.301
70.32000 1.177
70.34000 0.057
70.36000 0.475
70.38000 1.026
70.40000 1.696
70.42000 1.343
70.44000 1.676
70.46000 3.691
70.48000 1.535
70.50000 0.472
70.52000 3.081
70.54000 5.943
70.56000 5.149
70.58000 0.041
70.60000 0.071
70.62000 1.999
70.64000 1.806
70.66000 3.896
70.68000 4.133
70.70000 2.103
70.72000 1.218
70.74000 1.537
70.76000 -2.197
70.78000 -1.597
70.80000 0.160
70.82000 1.078
70.84000 5.496
70.86000 5.355
70.88000 1.971
70.90000 1.449
70.92000 5.377
70.94000 5.656
70.96000 5.267
70.98000 3.990
71.00000 4.383
71.02000 -0.031
71.04000 3.110
71.06000 -0.110
71.08000 -0.617
71.10000 -0.845
71.12000 2.026
71.14000 1.736
71.16000 2.607
71.18000 3.467
71.20000 3.787
71.22000 3.446
71.24000 3.522
71.26000 2.938
71.28000 0.173
71.30000 2.120
71.32000 5.174
71.34000 6.926
71.36000 4.143
71.38000 1.639
71.40000 -2.184
71.42000 -0.967
71.44000 0.829
71.46000 0.676
71.48000 -0.144
71.50000 2.094
71.52000 2.265
71.54000 -0.352
71.56000 -1.661
71.58000 2.641
71.60000 1.692
71.62000 2.711
71.64000 1.574
71.66000 -2.179
71.68000 -0.117
71.70000 -0.048
71.72000 3.211
71.74000 3.337
71.76000 1.324
71.78000 0.993
71.80000 2.441
71.82000 4.301
71.84000 -0.059
71.86000 -0.561
71.88000 1.548
71.90000 4.447
71.92000 4.294
71.94000 2.893
71.96000 0.532
71.98000 -2.171
72.00000 0.791
72.02000 0.967
72.04000 -1.338
72.06000 -1.426
72.08000 1.109
72.10000 1.922
72.12000 4.155
72.14000 -0.122
72.16000 2.390
72.18000 4.631
72.20000 1.373
72.22000 2.223
72.24000 3.561
72.26000 3.252
72.28000 2.796
72.30000 2.256
72.32000 1.657
72.34000 1.443
72.36000 -0.103
72.38000 3.426
72.40000 1.500
72.42000 0.690
72.44000 -0.736
72.46000 -1.932
72.48000 0.116
72.50000 1.840
72.52000 0.475
72.54000 0.695
72.56000 4.469
72.58000 1.082
72.60000 5.612
72.62000 1.890
72.64000 1.308
72.66000 -0.207
72.68000 3.127
72.70000 1.888
72.72000 1.687
72.74000 0.235
72.76000 -2.151
72.78000 -1.101
72.80000 1.475
72.82000 3.160
72.84000 2.125
72.86000 1.699
72.88000 1.424
72.90000 1.037
72.92000 1.815
72.94000 -2.145
72.96000 -1.565
72.98000 1.640
73.00000 -0.583
73.02000 0.167
73.04000 2.733
73.06000 0.005
73.08000 1.642
73.10000 5.082
73.12000 3.601
73.14000 0.469
73.16000 0.215
73.18000 1.664
73.20000 3.533
73.22000 -1.361
73.24000 -1.324
73.26000 -2.152
73.28000 -0.414
73.30000 -0.487
73.32000 2.303
73.34000 -1.182
73.36000 -0.568
73.38000 -2.015
73.40000 0.543
73.42000 2.338
73.44000 1.791
73.46000 2.328
73.48000 -0.109
73.50000 -0.773
73.52000 0.495
73.54000 2.184
73.56000 1.815
73.58000 2.295
73.60000 4.172
73.62000 2.826
73.64000 2.989
73.66000 3.539
73.68000 -0.934
73.70000 -0.934
73.72000 0.026
73.74000 -1.271
73.76000 -1.032
73.78000 -2.146
73.80000 -1.037
73.82000 0.299
73.84000 0.810
73.86000 -1.394
73.88000 -0.391
73.90000 2.144
73.92000 2.557
73.94000 5.436
73.96000 1.235
73.98000 -1.704
74.00000 0.777
74.02000 1.504
74.04000 2.541
74.06000 0.595
74.08000 0.543
74.10000 1.816
74.12000 2.839
74.14000 1.351
74.16000 0.521
74.18000 1.011
74.20000 -0.611
74.22000 0.073
74.24000 0.201
74.26000 2.015
74.28000 2.475
74.30000 0.593
74.32000 6.367
74.34000 3.036
74.36000 0.198
74.38000 0.223
74.40000 -2.131
74.42000 1.129
74.44000 2.851
74.46000 3.129
74.48000 2.603
74.50000 0.884
74.52000 -1.077
74.54000 0.174
74.56000 0.038
74.58000 0.983
74.60000 0.172
74.62000 4.215
74.64000 3.762
74.66000 1.860
74.68000 0.864
74.70000 0.047
74.72000 0.701
74.74000 -1.208
74.76000 2.863
74.78000 2.701
74.80000 -0.110
74.82000 3.748
74.84000 6.714
74.86000 6.031
74.88000 1.999
74.90000 0.905
74.92000 -2.086
74.94000 -0.553
74.96000 3.107
74.98000 4.759
75.00000 4.784
75.02000 6.662
75.04000 6.510
75.06000 0.415
75.08000 -2.129
75.10000 -0.912
75.12000 -0.796
75.14000 -0.904
75.16000 -1.210
75.18000 -1.408
75.20000 1.294
75.22000 0.290
75.24000 0.744
75.26000 0.879
75.28000 1.959
75.30000 3.222
75.32000 0.678
75.34000 0.161
75.36000 -1.534
75.38000 -0.656
75.40000 -0.259
75.42000 2.158
75.44000 5.866
75.46000 6.242
75.48000 2.464
75.50000 -2.131
75.52000 3.200
75.54000 4.256
75.56000 0.662
75.58000 2.368
75.60000 5.014
75.62000 3.137
75.64000 0.756
75.66000 3.135
75.68000 2.848
75.70000 1.984
75.72000 2.022
75.74000 4.820
75.76000 4.095
75.78000 3.452
75.80000 0.582
75.82000 1.152
75.84000 -0.267
75.86000 1.729
75.88000 1.692
75.90000 3.664
75.92000 1.078
75.94000 -0.564
75.96000 3.468
75.98000 2.443
76.00000 0.084
76.02000 -1.627
76.04000 -1.059
76.06000 2.019
76.08000 6.116
76.10000 3.611
76.12000 2.500
76.14000 -2.131
76.16000 0.507
76.18000 5.116
76.20000 3.901
76.22000 3.319
76.24000 3.418
76.26000 4.155
76.28000 7.885
76.30000 8.365
76.32000 7.021
76.34000 4.103
76.36000 4.737
76.38000 1.871
76.40000 -1.592
76.42000 1.625
76.44000 0.446
76.46000 6.499
76.48000 7.452
76.50000 6.256
76.52000 5.091
76.54000 2.047
76.56000 0.376
76.58000 2.531
76.60000 -0.254
76.62000 3.307
76.64000 0.802
76.66000 2.336
76.68000 3.453
76.70000 3.005
76.72000 1.889
76.74000 3.327
76.76000 4.500
76.78000 4.103
76.80000 2.492
76.82000 6.763
76.84000 4.461
76.86000 1.788
76.88000 3.108
76.90000 -2.126
76.92000 0.102
76.94000 6.191
76.96000 4.720
76.98000 1.816
77.00000 0.377
77.02000 3.874
77.04000 6.467
77.06000 1.092
77.08000 -1.414
77.10000 -1.585
77.12000 -0.390
77.14000 -0.352
77.16000 -0.882
77.18000 2.723
77.20000 4.355
77.22000 4.133
77.24000 5.399
77.26000 4.908
77.28000 3.516
77.30000 2.827
77.32000 1.371
77.34000 2.286
77.36000 2.743
77.38000 1.019
77.40000 1.027
77.42000 -0.624
77.44000 1.906
77.46000 0.568
77.48000 1.925
77.50000 0.162
77.52000 3.231
77.54000 5.266
77.56000 6.092
77.58000 1.111
77.60000 1.963
77.62000 3.633
77.64000 0.903
77.66000 0.378
77.68000 3.147
77.70000 2.459
77.72000 5.270
77.74000 7.315
77.76000 5.268
77.78000 1.283
77.80000 -0.169
77.82000 -0.828
77.84000 4.348
77.86000 2.888
77.88000 -1.384
77.90000 0.305
77.92000 3.983
77.94000 1.159
77.96000 2.604
77.98000 2.361
78.00000 0.132
78.02000 1.112
78.04000 2.272
78.06000 -0.651
78.08000 -2.172
78.10000 3.317
78.12000 2.278
78.14000 1.925
78.16000 1.876
78.18000 5.610
78.20000 6.892
78.22000 0.490
78.24000 4.593
78.26000 7.093
78.28000 5.926
78.30000 5.908
78.32000 7.334
78.34000 5.916
78.36000 3.197
78.38000 1.004
78.40000 1.018
78.42000 5.494
78.44000 1.736
78.46000 2.244
78.48000 4.252
78.50000 5.899
78.52000 0.991
78.54000 -2.161
78.56000 2.086
78.58000 4.990
78.60000 2.011
78.62000 2.682
78.64000 5.467
78.66000 3.894
78.68000 3.740
78.70000 4.205
78.72000 5.007
78.74000 4.949
78.76000 -0.925
78.78000 0.072
78.80000 3.517
78.82000 4.710
78.84000 2.359
78.86000 1.858
78.88000 3.870
78.90000 5.123
78.92000 2.866
78.94000 1.290
78.96000 -0.224
78.98000 5.462
79.00000 4.800
79.02000 7.307
79.04000 4.040
79.06000 3.560
79.08000 1.623
79.10000 1.393
79.12000 3.399
79.14000 -0.534
79.16000 0.418
79.18000 0.365
79.20000 2.525
79.22000 4.438
79.24000 4.308
79.26000 4.322
79.28000 3.214
79.30000 0.964
79.32000 -1.674
79.34000 -0.166
79.36000 1.724
79.38000 -0.158
79.40000 -2.198
79.42000 -1.452
79.44000 -0.413
79.46000 -2.200
79.48000 -1.806
79.50000 2.926
79.52000 6.476
79.54000 3.551
79.56000 3.767
79.58000 3.709
79.60000 2.054
79.62000 2.398
79.64000 6.144
79.66000 3.481
79.68000 2.582
79.70000 4.520
79.72000 5.877
79.74000 4.757
79.76000 1.767
79.78000 5.165
79.80000 7.010
79.82000 7.739
79.84000 3.969
79.86000 3.283
79.88000 7.316
79.90000 6.476
79.92000 7.813
79.94000 0.481
79.96000 -1.819
79.98000 -0.237
80.00000 3.729
80.02000 5.586
80.04000 2.578
80.06000 3.792
80.08000 3.154
80.10000 5.268
80.12000 1.133
80.14000 2.643
80.16000 0.434
80.18000 4.526
80.20000 0.571
80.22000 -1.866
80.24000 -2.250
80.26000 -1.072
80.28000 5.083
80.30000 2.944
80.32000 3.065
80.34000 4.400
80.36000 3.294
80.38000 4.965
80.40000 4.423
80.42000 3.655
80.44000 5.366
80.46000 6.648
80.48000 3.012
80.50000 4.097
80.52000 4.503
80.54000 3.416
80.56000 7.498
80.58000 6.152
80.60000 5.558
80.62000 6.848
80.64000 4.667
80.66000 4.060
80.68000 1.651
80.70000 3.456
80.72000 4.477
80.74000 1.867
80.76000 1.948
80.78000 3.692
80.80000 5.985
80.82000 6.580
80.84000 3.527
80.86000 4.433
80.88000 6.046
80.90000 7.923
80.92000 9.571
80.94000 9.373
80.96000 7.205
80.98000 8.203
81.00000 8.732
81.02000 9.232
81.04000 11.777
81.06000 9.370
81.08000 7.478
81.10000 8.201
81.12000 9.793
81.14000 8.660
81.16000 6.463
81.18000 7.097
81.20000 11.004
81.22000 10.349
81.24000 10.209
81.26000 11.077
81.28000 9.784
81.30000 12.005
81.32000 13.509
81.34000 12.256
81.36000 13.079
81.38000 18.069
81.40000 14.100
81.42000 12.041
81.44000 13.985
81.46000 12.087
81.48000 13.565
81.50000 13.071
81.52000 22.065
81.54000 21.651
81.56000 17.802
81.58000 17.833
81.60000 19.957
81.62000 16.309
81.64000 17.081
81.66000 17.494
81.68000 18.751
81.70000 23.914
81.72000 20.115
81.74000 21.352
81.76000 22.878
81.78000 23.061
81.80000 28.172
81.82000 26.720
81.84000 24.280
81.86000 18.173
81.88000 21.417
81.90000 24.088
81.92000 27.454
81.94000 24.679
81.96000 22.475
81.98000 24.774
82.00000 30.376
82.02000 27.543
82.04000 30.578
82.06000 25.785
82.08000 24.051
82.10000 22.844
82.12000 26.028
82.14000 27.713
82.16000 28.813
82.18000 25.083
82.20000 22.535
82.22000 21.823
82.24000 21.498
82.26000 23.565
82.28000 28.507
82.30000 28.080
82.32000 26.671
82.34000 22.630
82.36000 21.724
82.38000 19.376
82.40000 18.643
82.42000 21.262
82.44000 21.966
82.46000 16.262
82.48000 15.042
82.50000 19.027
82.52000 22.629
82.54000 18.316
82.56000 17.450
82.58000 19.010
82.60000 18.799
82.62000 18.640
82.64000 18.838
82.66000 22.554
82.68000 19.811
82.70000 20.270
82.72000 16.656
82.74000 11.552
82.76000 13.533
82.78000 14.109
82.80000 11.547
82.82000 12.047
82.84000 13.353
82.86000 13.327
82.88000 12.530
82.90000 10.553
82.92000 7.371
82.94000 6.535
82.96000 12.149
82.98000 12.198
83.00000 11.486
83.02000 7.940
83.04000 7.008
83.06000 8.567
83.08000 9.587
83.10000 8.721
83.12000 10.805
83.14000 9.646
83.16000 5.062
83.18000 9.823
83.20000 9.078
83.22000 6.443
83.24000 8.129
83.26000 8.099
83.28000 5.483
83.30000 4.160
83.32000 2.795
83.34000 5.822
83.36000 9.473
83.38000 7.854
83.40000 5.573
83.42000 3.733
83.44000 5.176
83.46000 8.678
83.48000 6.627
83.50000 1.633
83.52000 -2.301
83.54000 -1.809
83.56000 0.245
83.58000 2.773
83.60000 2.644
83.62000 5.518
83.64000 4.375
83.66000 4.332
83.68000 0.884
83.70000 3.139
83.72000 4.103
83.74000 2.680
83.76000 -1.907
83.78000 -2.108
83.80000 1.736
83.82000 -1.271
83.84000 0.773
83.86000 3.205
83.88000 0.648
83.90000 3.764
83.92000 6.546
83.94000 -0.640
83.96000 -0.475
83.98000 2.927
84.00000 2.755
84.02000 3.939
84.04000 3.958
84.06000 0.916
84.08000 -0.551
84.10000 4.506
84.12000 4.611
84.14000 -0.579
84.16000 0.780
84.18000 1.133
84.20000 3.344
84.22000 0.086
84.24000 1.489
84.26000 4.038
84.28000 1.962
84.30000 2.154
84.32000 2.865
84.34000 0.368
84.36000 -2.247
84.38000 -1.796
84.40000 1.705
84.42000 -0.040
84.44000 0.557
84.46000 2.162
84.48000 5.661
84.50000 2.227
84.52000 1.250
84.54000 1.790
84.56000 1.610
84.58000 -1.174
84.60000 0.062
84.62000 -1.015
84.64000 1.824
84.66000 3.453
84.68000 4.759
84.70000 1.497
84.72000 2.112
84.74000 3.706
84.76000 6.679
84.78000 3.486
84.80000 1.458
84.82000 0.384
84.84000 3.060
84.86000 0.670
84.88000 -1.349
84.90000 0.008
84.92000 1.406
84.94000 1.588
84.96000 3.821
84.98000 -0.423
85.00000 -2.249
85.02000 2.104
85.04000 3.720
85.06000 4.314
85.08000 1.828
85.10000 -0.813
85.12000 1.271
85.14000 1.730
85.16000 6.682
85.18000 6.787
85.20000 1.437
85.22000 0.899
85.24000 -2.252
85.26000 1.737
85.28000 6.593
85.30000 6.861
85.32000 0.551
85.34000 2.441
85.36000 4.319
85.38000 3.342
85.40000 1.079
85.42000 6.766
85.44000 8.397
85.46000 5.275
85.48000 6.989
85.50000 6.690
85.52000 7.293
85.54000 4.650
85.56000 3.915
85.58000 5.991
85.60000 7.778
85.62000 13.246
85.64000 12.154
85.66000 14.166
85.68000 14.011
85.70000 8.053
85.72000 7.727
85.74000 6.841
85.76000 10.796
85.78000 14.739
85.80000 12.795
85.82000 13.052
85.84000 14.956
85.86000 10.534
85.88000 8.857
85.90000 11.651
85.92000 15.320
85.94000 18.237
85.96000 17.887
85.98000 18.378
86.00000 17.634
86.02000 19.448
86.04000 18.216
86.06000 18.175
86.08000 18.551
86.10000 17.386
86.12000 18.335
86.14000 16.564
86.16000 18.404
86.18000 17.648
86.20000 19.691
86.22000 20.770
86.24000 22.006
86.26000 22.510
86.28000 20.511
86.30000 22.544
86.32000 18.412
86.34000 19.109
86.36000 19.303
86.38000 16.179
86.40000 18.978
86.42000 19.893
86.44000 21.033
86.46000 19.318
86.48000 19.281
86.50000 17.840
86.52000 18.352
86.54000 20.352
86.56000 20.169
86.58000 20.062
86.60000 21.527
86.62000 18.908
86.64000 15.283
86.66000 13.793
86.68000 14.058
86.70000 12.000
86.72000 13.894
86.74000 11.355
86.76000 9.523
86.78000 12.040
86.80000 10.382
86.82000 10.076
86.84000 10.813
86.86000 13.690
86.88000 11.856
86.90000 9.620
86.92000 7.772
86.94000 11.354
86.96000 10.024
86.98000 9.714
87.00000 10.031
87.02000 4.782
87.04000 9.833
87.06000 5.149
87.08000 7.079
87.10000 6.920
87.12000 2.972
87.14000 3.089
87.16000 3.436
87.18000 3.428
87.20000 6.085
87.22000 4.558
87.24000 3.927
87.26000 4.609
87.28000 7.079
87.30000 7.526
87.32000 3.066
87.34000 4.128
87.36000 0.117
87.38000 -2.145
87.40000 -1.329
87.42000 2.681
87.44000 0.132
87.46000 3.145
87.48000 6.121
87.50000 6.505
87.52000 2.146
87.54000 1.269
87.56000 3.232
87.58000 0.653
87.60000 0.518
87.62000 2.154
87.64000 5.596
87.66000 5.079
87.68000 5.306
87.70000 5.222
87.72000 4.767
87.74000 3.422
87.76000 2.572
87.78000 -1.218
87.80000 -2.085
87.82000 1.548
87.84000 3.652
87.86000 3.834
87.88000 1.695
87.90000 2.273
87.92000 2.876
87.94000 5.283
87.96000 8.437
87.98000 3.012
88.00000 2.051
88.02000 -1.018
88.04000 -2.051
88.06000 -1.171
88.08000 0.296
88.10000 -0.860
88.12000 -0.073
88.14000 0.210
88.16000 3.907
88.18000 4.164
88.20000 2.137
88.22000 0.598
88.24000 0.432
88.26000 4.274
88.28000 4.671
88.30000 5.204
88.32000 6.023
88.34000 5.060
88.36000 6.274
88.38000 2.305
88.40000 4.592
88.42000 6.271
88.44000 3.562
88.46000 0.465
88.48000 -0.102
88.50000 2.423
88.52000 2.746
88.54000 1.045
88.56000 -0.732
88.58000 2.309
88.60000 5.929
88.62000 3.961
88.64000 0.011
88.66000 0.357
88.68000 1.774
88.70000 4.319
88.72000 -0.712
88.74000 -1.873
88.76000 0.929
88.78000 0.138
88.80000 1.437
88.82000 3.781
88.84000 4.279
88.86000 6.726
88.88000 6.835
88.90000 2.095
88.92000 -1.992
88.94000 -1.072
88.96000 0.232
88.98000 1.537
89.00000 3.628
89.02000 3.333
89.04000 3.324
89.06000 3.555
89.08000 5.244
89.10000 4.373
89.12000 2.420
89.14000 1.714
89.16000 1.786
89.18000 2.849
89.20000 2.603
89.22000 4.118
89.24000 4.434
89.26000 5.272
89.28000 4.086
89.30000 2.573
89.32000 4.469
89.34000 4.132
89.36000 1.760
89.38000 4.808
89.40000 4.482
89.42000 4.545
89.44000 2.806
89.46000 0.957
89.48000 2.300
89.50000 3.769
89.52000 1.589
89.54000 5.004
89.56000 3.062
89.58000 2.397
89.60000 0.451
89.62000 4.436
89.64000 6.470
89.66000 4.657
89.68000 4.557
89.70000 1.977
89.72000 3.058
89.74000 2.882
89.76000 1.239
89.78000 -0.164
89.80000 0.525
89.82000 -0.062
89.84000 0.844
89.86000 3.127
89.88000 1.209
89.90000 2.832
89.92000 1.280
89.94000 2.177
89.96000 2.172
89.98000 1.746
90.00000 2.663
90.02000 4.802
90.04000 4.421
90.06000 -0.944
90.08000 -1.971
90.10000 1.912
90.12000 4.000
90.14000 5.134
90.16000 2.311
90.18000 0.809
90.20000 1.429
90.22000 1.492
90.24000 3.250
90.26000 5.402
90.28000 4.609
90.30000 1.641
90.32000 1.903
90.34000 -1.692
90.36000 -1.666
90.38000 -0.340
90.40000 5.460
90.42000 -1.216
90.44000 1.226
90.46000 2.075
90.48000 4.282
90.50000 2.674
90.52000 3.056
90.54000 4.546
90.56000 3.043
90.58000 5.063
90.60000 3.354
90.62000 -0.528
90.64000 1.798
90.66000 4.257
90.68000 1.041
90.70000 3.106
90.72000 -1.167
90.74000 -1.651
90.76000 3.761
90.78000 3.288
90.80000 0.387
90.82000 1.730
90.84000 1.736
90.86000 0.038
90.88000 1.792
90.90000 4.398
90.92000 4.051
90.94000 4.835
90.96000 0.545
90.98000 3.749
91.00000 4.587
91.02000 3.774
91.04000 3.003
91.06000 -0.175
91.08000 -0.093
91.10000 -0.229
91.12000 -0.155
91.14000 2.401
91.16000 0.739
91.18000 -1.086
91.20000 -2.006
91.22000 0.119
91.24000 3.941
91.26000 0.827
91.28000 2.992
91.30000 1.498
91.32000 2.275
91.34000 4.806
91.36000 3.614
91.38000 3.832
91.40000 5.550
91.42000 0.348
91.44000 -1.883
91.46000 2.490
91.48000 6.866
91.50000 5.113
91.52000 3.110
91.54000 5.805
91.56000 6.297
91.58000 3.858
91.60000 9.009
91.62000 2.543
91.64000 5.091
91.66000 6.030
91.68000 6.039
91.70000 3.857
91.72000 3.807
91.74000 2.358
91.76000 2.090
91.78000 -2.013
91.80000 1.177
91.82000 2.835
91.84000 1.608
91.86000 2.728
91.88000 1.825
91.90000 3.128
91.92000 1.820
91.94000 2.562
91.96000 4.273
91.98000 3.788
92.00000 -1.408
92.02000 1.860
92.04000 3.266
92.06000 2.739
92.08000 3.470
92.10000 -1.001
92.12000 -0.606
92.14000 0.276
92.16000 -1.338
92.18000 2.107
92.20000 2.893
92.22000 -1.773
92.24000 -0.966
92.26000 2.362
92.28000 3.445
92.30000 3.116
92.32000 3.348
92.34000 3.401
92.36000 -0.082
92.38000 1.116
92.40000 2.865
92.42000 0.278
92.44000 3.100
92.46000 6.187
92.48000 2.847
92.50000 0.416
92.52000 2.626
92.54000 3.139
92.56000 3.470
92.58000 6.517
92.60000 5.992
92.62000 2.631
92.64000 0.133
92.66000 -2.018
92.68000 1.080
92.70000 3.153
92.72000 3.980
92.74000 3.562
92.76000 8.106
92.78000 6.821
92.80000 -0.605
92.82000 -1.346
92.84000 3.207
92.86000 1.310
92.88000 0.134
92.90000 4.757
92.92000 5.505
92.94000 6.037
92.96000 3.854
92.98000 5.133
93.00000 3.517
93.02000 -1.765
93.04000 0.653
93.06000 1.572
93.08000 0.630
93.10000 -2.020
93.12000 -0.376
93.14000 8.327
93.16000 5.357
93.18000 3.147
93.20000 1.515
93.22000 0.811
93.24000 2.109
93.26000 -0.340
93.28000 -0.720
93.30000 2.018
93.32000 2.849
93.34000 3.912
93.36000 2.804
93.38000 2.073
93.40000 1.789
93.42000 -2.028
93.44000 0.852
93.46000 4.160
93.48000 3.433
93.50000 5.580
93.52000 4.606
93.54000 1.665
93.56000 2.965
93.58000 3.562
93.60000 2.699
93.62000 3.363
93.64000 6.259
93.66000 8.117
93.68000 6.931
93.70000 3.196
93.72000 0.667
93.74000 3.961
93.76000 2.952
93.78000 1.511
93.80000 4.109
93.82000 7.258
93.84000 2.637
93.86000 0.521
93.88000 0.152
93.90000 4.330
93.92000 4.128
93.94000 0.205
93.96000 -1.531
93.98000 2.809
94.00000 5.691
94.02000 4.792
94.04000 2.352
94.06000 1.511
94.08000 -2.051
94.10000 1.141
94.12000 0.774
94.14000 0.889
94.16000 0.204
94.18000 1.078
94.20000 0.925
94.22000 1.956
94.24000 1.605
94.26000 0.972
94.28000 2.646
94.30000 1.339
94.32000 2.849
94.34000 4.909
94.36000 1.098
94.38000 1.254
94.40000 3.442
94.42000 4.239
94.44000 3.864
94.46000 0.534
94.48000 2.784
94.50000 3.673
94.52000 2.976
94.54000 2.364
94.56000 1.361
94.58000 -0.650
94.60000 -0.551
94.62000 -1.193
94.64000 0.404
94.66000 3.385
94.68000 0.184
94.70000 0.359
94.72000 4.398
94.74000 5.525
94.76000 1.987
94.78000 -1.551
94.80000 -0.399
94.82000 2.564
94.84000 -0.761
94.86000 0.732
94.88000 0.348
94.90000 0.794
94.92000 1.412
94.94000 2.549
94.96000 -0.449
94.98000 1.218
95.00000 4.719
95.02000 4.001
95.04000 2.453
95.06000 2.085
95.08000 -0.128
95.10000 -1.011
95.12000 -1.135
95.14000 2.057
95.16000 8.524
95.18000 9.838
95.20000 8.730
95.22000 7.372
95.24000 7.829
95.26000 4.053
95.28000 -2.051
95.30000 1.184
95.32000 3.675
95.34000 0.351
95.36000 1.854
95.38000 3.997
95.40000 -0.488
95.42000 3.403
95.44000 7.146
95.46000 6.003
95.48000 6.630
95.50000 7.205
95.52000 4.644
95.54000 2.407
95.56000 6.932
95.58000 6.329
95.60000 3.116
95.62000 1.651
95.64000 2.497
95.66000 3.885
95.68000 4.559
95.70000 2.428
95.72000 4.667
95.74000 3.000
95.76000 0.923
95.78000 -0.478
95.80000 -0.326
95.82000 -1.341
95.84000 4.182
95.86000 4.068
95.88000 1.300
95.90000 -1.527
95.92000 -0.704
95.94000 0.928
95.96000 -0.321
95.98000 3.614
96.00000 2.093
96.02000 0.549
96.04000 4.354
96.06000 5.383
96.08000 6.443
96.10000 3.531
96.12000 6.651
96.14000 8.733
96.16000 6.168
96.18000 2.663
96.20000 5.781
96.22000 4.236
96.24000 0.035
96.26000 4.203
96.28000 9.313
96.30000 2.041
96.32000 3.163
96.34000 5.365
96.36000 4.686
96.38000 1.975
96.40000 7.215
96.42000 7.969
96.44000 7.174
96.46000 2.374
96.48000 3.126
96.50000 0.617
96.52000 1.919
96.54000 4.142
96.56000 4.013
96.58000 4.117
96.60000 5.011
96.62000 -0.028
96.64000 -2.031
96.66000 1.888
96.68000 2.474
96.70000 -0.005
96.72000 0.255
96.74000 4.468
96.76000 8.698
96.78000 6.481
96.80000 -0.632
96.82000 4.247
96.84000 3.470
96.86000 6.615
96.88000 3.272
96.90000 2.389
96.92000 2.594
96.94000 1.048
96.96000 5.324
96.98000 2.159
97.00000 -0.303
97.02000 0.756
97.04000 4.085
97.06000 7.284
97.08000 6.245
97.10000 3.402
97.12000 1.737
97.14000 4.082
97.16000 3.479
97.18000 -1.715
97.20000 -0.181
97.22000 0.228
97.24000 1.347
97.26000 3.663
97.28000 3.280
97.30000 2.198
97.32000 6.415
97.34000 6.523
97.36000 3.442
97.38000 4.155
97.40000 2.120
97.42000 4.875
97.44000 5.674
97.46000 8.469
97.48000 6.415
97.50000 4.562
97.52000 4.889
97.54000 8.669
97.56000 5.964
97.58000 10.624
97.60000 13.554
97.62000 7.324
97.64000 5.748
97.66000 7.356
97.68000 6.152
97.70000 2.228
97.72000 2.568
97.74000 4.100
97.76000 3.226
97.78000 3.768
97.80000 0.427
97.82000 -1.866
97.84000 1.117
97.86000 2.551
97.88000 1.647
97.90000 5.139
97.92000 5.506
97.94000 4.084
97.96000 10.449
97.98000 1.473
98.00000 0.808
98.02000 1.983
98.04000 5.947
98.06000 5.696
98.08000 8.489
98.10000 4.314
98.12000 5.045
98.14000 3.907
98.16000 8.301
98.18000 6.600
98.20000 4.626
98.22000 5.362
98.24000 4.320
98.26000 6.436
98.28000 7.083
98.30000 5.182
98.32000 9.888
98.34000 12.248
98.36000 10.046
98.38000 4.328
98.40000 1.585
98.42000 6.638
98.44000 1.363
98.46000 4.820
98.48000 0.687
98.50000 5.108
98.52000 12.237
98.54000 5.319
98.56000 4.162
98.58000 7.585
98.60000 8.002
98.62000 7.478
98.64000 10.184
98.66000 10.993
98.68000 5.051
98.70000 -1.919
98.72000 1.352
98.74000 7.452
98.76000 12.954
98.78000 7.250
98.80000 8.827
98.82000 10.201
98.84000 3.918
98.86000 2.129
98.88000 8.310
98.90000 10.109
98.92000 8.503
98.94000 6.371
98.96000 7.121
98.98000 7.085
99.00000 12.418
99.02000 13.846
99.04000 8.639
99.06000 5.478
99.08000 7.008
99.10000 14.116
99.12000 14.988
99.14000 6.373
99.16000 6.495
99.18000 9.089
99.20000 9.181
99.22000 12.897
99.24000 16.290
99.26000 14.945
99.28000 2.998
99.30000 3.413
99.32000 0.604
99.34000 8.297
99.36000 1.659
99.38000 -1.935
99.40000 5.225
99.42000 13.223
99.44000 11.992
99.46000 7.100
99.48000 7.414
99.50000 7.310
99.52000 8.128
99.54000 6.301
99.56000 6.841
99.58000 15.020
99.60000 17.956
99.62000 8.629
99.64000 -0.228
99.66000 1.665
99.68000 9.445
99.70000 2.759
99.72000 4.074
99.74000 -2.014
99.76000 2.310
99.78000 -1.718
99.80000 7.828
99.82000 8.410
99.84000 -0.773
99.86000 -0.328
99.88000 -2.047
99.90000 -2.061
99.92000 7.105
99.94000 15.958
99.96000 8.845
99.98000 0.000
