'Id: "0011388" Comment: "Integrate frame 0011388_Au-Ir-Rh_Rh-rich_XRD-Mapping-127-0000.gfrmwith cursor Wedge Cursor #5" Operator: "B?rgel" Anode: "Cu" Wavelength: "1.5406" Scantype: "2Theta (TwoTheta)" TimePerStep: "1" X: "9" Y: "-9" Z: "5.95" 
10.00000 0.000
10.02000 20.240
10.04000 15.448
10.06000 13.797
10.08000 7.077
10.10000 15.167
10.12000 17.921
10.14000 10.346
10.16000 22.236
10.18000 31.080
10.20000 23.436
10.22000 11.196
10.24000 4.806
10.26000 17.701
10.28000 27.462
10.30000 23.627
10.32000 15.739
10.34000 15.205
10.36000 15.809
10.38000 6.690
10.40000 6.213
10.42000 25.509
10.44000 13.425
10.46000 14.512
10.48000 19.190
10.50000 23.637
10.52000 3.460
10.54000 21.780
10.56000 28.570
10.58000 31.637
10.60000 23.935
10.62000 23.334
10.64000 23.018
10.66000 25.884
10.68000 30.300
10.70000 36.231
10.72000 25.389
10.74000 24.021
10.76000 14.991
10.78000 23.668
10.80000 12.924
10.82000 13.541
10.84000 13.906
10.86000 10.373
10.88000 4.817
10.90000 16.677
10.92000 7.562
10.94000 24.155
10.96000 32.481
10.98000 17.889
11.00000 19.957
11.02000 20.567
11.04000 21.914
11.06000 23.406
11.08000 24.969
11.10000 23.256
11.12000 24.795
11.14000 12.932
11.16000 20.067
11.18000 23.842
11.20000 15.595
11.22000 16.234
11.24000 25.690
11.26000 25.268
11.28000 25.569
11.30000 21.228
11.32000 20.196
11.34000 20.185
11.36000 14.900
11.38000 26.571
11.40000 27.667
11.42000 39.752
11.44000 29.650
11.46000 31.671
11.48000 18.420
11.50000 14.470
11.52000 11.024
11.54000 17.115
11.56000 18.619
11.58000 27.005
11.60000 29.058
11.62000 14.924
11.64000 14.129
11.66000 8.882
11.68000 14.971
11.70000 12.683
11.72000 22.689
11.74000 23.773
11.76000 17.415
11.78000 22.428
11.80000 27.700
11.82000 35.669
11.84000 11.607
11.86000 9.520
11.88000 7.097
11.90000 10.368
11.92000 28.723
11.94000 21.019
11.96000 10.523
11.98000 15.908
12.00000 16.905
12.02000 14.285
12.04000 22.539
12.06000 22.583
12.08000 25.806
12.10000 26.484
12.12000 20.845
12.14000 19.666
12.16000 28.082
12.18000 24.136
12.20000 20.953
12.22000 18.487
12.24000 11.905
12.26000 19.510
12.28000 15.462
12.30000 23.208
12.32000 36.303
12.34000 22.551
12.36000 13.059
12.38000 22.096
12.40000 18.195
12.42000 12.161
12.44000 16.257
12.46000 20.789
12.48000 22.998
12.50000 24.290
12.52000 21.883
12.54000 23.596
12.56000 25.688
12.58000 28.719
12.60000 32.105
12.62000 29.425
12.64000 29.474
12.66000 21.865
12.68000 29.710
12.70000 31.509
12.72000 21.947
12.74000 25.196
12.76000 23.098
12.78000 28.801
12.80000 22.118
12.82000 28.433
12.84000 16.617
12.86000 13.826
12.88000 12.746
12.90000 16.156
12.92000 17.911
12.94000 15.321
12.96000 19.215
12.98000 16.756
13.00000 18.380
13.02000 14.615
13.04000 17.664
13.06000 23.304
13.08000 20.566
13.10000 27.278
13.12000 19.791
13.14000 11.770
13.16000 5.296
13.18000 6.038
13.20000 13.393
13.22000 15.814
13.24000 10.105
13.26000 16.008
13.28000 9.715
13.30000 17.539
13.32000 19.381
13.34000 17.919
13.36000 17.663
13.38000 14.900
13.40000 18.286
13.42000 18.459
13.44000 7.823
13.46000 19.212
13.48000 19.214
13.50000 17.674
13.52000 21.469
13.54000 23.501
13.56000 15.269
13.58000 11.045
13.60000 12.499
13.62000 16.439
13.64000 20.972
13.66000 22.800
13.68000 22.020
13.70000 25.906
13.72000 24.909
13.74000 21.054
13.76000 20.890
13.78000 17.170
13.80000 16.492
13.82000 26.941
13.84000 22.104
13.86000 15.667
13.88000 18.045
13.90000 16.000
13.92000 17.357
13.94000 13.728
13.96000 13.670
13.98000 9.259
14.00000 13.136
14.02000 18.651
14.04000 9.268
14.06000 8.009
14.08000 8.562
14.10000 15.821
14.12000 11.898
14.14000 11.490
14.16000 16.537
14.18000 14.315
14.20000 15.741
14.22000 19.255
14.24000 23.864
14.26000 17.045
14.28000 11.244
14.30000 10.663
14.32000 8.721
14.34000 10.804
14.36000 9.760
14.38000 12.969
14.40000 13.883
14.42000 13.280
14.44000 17.805
14.46000 16.319
14.48000 12.102
14.50000 12.086
14.52000 7.635
14.54000 17.846
14.56000 13.753
14.58000 24.806
14.60000 18.418
14.62000 20.667
14.64000 17.340
14.66000 16.593
14.68000 14.960
14.70000 12.766
14.72000 8.838
14.74000 10.791
14.76000 11.207
14.78000 7.607
14.80000 17.291
14.82000 13.206
14.84000 15.111
14.86000 11.045
14.88000 13.668
14.90000 18.541
14.92000 14.224
14.94000 8.764
14.96000 12.423
14.98000 21.330
15.00000 13.441
15.02000 4.222
15.04000 12.373
15.06000 7.296
15.08000 5.668
15.10000 10.932
15.12000 14.617
15.14000 17.761
15.16000 16.551
15.18000 8.812
15.20000 3.440
15.22000 3.811
15.24000 7.520
15.26000 5.999
15.28000 3.472
15.30000 12.289
15.32000 10.796
15.34000 20.507
15.36000 12.572
15.38000 8.764
15.40000 10.674
15.42000 6.984
15.44000 19.410
15.46000 8.072
15.48000 14.143
15.50000 20.527
15.52000 20.587
15.54000 20.207
15.56000 15.104
15.58000 10.730
15.60000 11.054
15.62000 9.120
15.64000 9.848
15.66000 13.866
15.68000 6.482
15.70000 3.505
15.72000 5.222
15.74000 5.172
15.76000 9.714
15.78000 15.407
15.80000 6.647
15.82000 -0.650
15.84000 -1.506
15.86000 -1.208
15.88000 1.024
15.90000 10.207
15.92000 19.196
15.94000 13.527
15.96000 8.271
15.98000 16.522
16.00000 12.719
16.02000 3.838
16.04000 11.165
16.06000 13.057
16.08000 4.321
16.10000 9.113
16.12000 13.326
16.14000 6.366
16.16000 7.839
16.18000 10.235
16.20000 15.101
16.22000 11.608
16.24000 17.474
16.26000 4.244
16.28000 7.389
16.30000 5.714
16.32000 6.991
16.34000 7.175
16.36000 -4.390
16.38000 7.700
16.40000 17.149
16.42000 13.070
16.44000 16.317
16.46000 3.501
16.48000 -1.515
16.50000 11.775
16.52000 15.978
16.54000 8.703
16.56000 2.656
16.58000 2.850
16.60000 9.232
16.62000 11.806
16.64000 9.061
16.66000 8.084
16.68000 3.205
16.70000 4.966
16.72000 4.727
16.74000 8.915
16.76000 10.105
16.78000 4.933
16.80000 -1.885
16.82000 0.302
16.84000 -1.762
16.86000 2.500
16.88000 1.134
16.90000 2.296
16.92000 3.908
16.94000 3.885
16.96000 10.117
16.98000 13.112
17.00000 2.328
17.02000 0.812
17.04000 7.903
17.06000 7.604
17.08000 4.659
17.10000 0.800
17.12000 -0.535
17.14000 6.552
17.16000 5.748
17.18000 0.735
17.20000 -3.903
17.22000 2.039
17.24000 1.454
17.26000 3.335
17.28000 6.705
17.30000 6.923
17.32000 4.975
17.34000 1.188
17.36000 4.787
17.38000 5.021
17.40000 2.372
17.42000 -0.750
17.44000 -1.433
17.46000 -0.064
17.48000 3.630
17.50000 -0.803
17.52000 4.756
17.54000 8.936
17.56000 10.434
17.58000 13.504
17.60000 8.358
17.62000 1.553
17.64000 10.725
17.66000 14.354
17.68000 6.801
17.70000 4.642
17.72000 4.061
17.74000 -2.702
17.76000 3.828
17.78000 11.231
17.80000 5.869
17.82000 8.248
17.84000 5.252
17.86000 4.049
17.88000 6.535
17.90000 4.354
17.92000 4.046
17.94000 3.315
17.96000 8.222
17.98000 15.557
18.00000 8.430
18.02000 3.068
18.04000 1.677
18.06000 8.404
18.08000 6.559
18.10000 8.679
18.12000 4.527
18.14000 5.216
18.16000 0.604
18.18000 1.208
18.20000 0.430
18.22000 -2.769
18.24000 -3.840
18.26000 4.127
18.28000 9.131
18.30000 14.443
18.32000 10.368
18.34000 -0.871
18.36000 3.117
18.38000 6.883
18.40000 6.505
18.42000 3.283
18.44000 5.034
18.46000 7.804
18.48000 7.666
18.50000 3.683
18.52000 10.914
18.54000 5.650
18.56000 1.805
18.58000 5.414
18.60000 2.919
18.62000 7.077
18.64000 7.949
18.66000 5.356
18.68000 -0.879
18.70000 -3.285
18.72000 -1.854
18.74000 3.694
18.76000 4.989
18.78000 11.292
18.80000 9.104
18.82000 3.346
18.84000 3.887
18.86000 4.861
18.88000 1.745
18.90000 4.255
18.92000 0.429
18.94000 -2.828
18.96000 4.568
18.98000 6.803
19.00000 4.997
19.02000 5.778
19.04000 8.466
19.06000 5.837
19.08000 8.618
19.10000 4.808
19.12000 -4.244
19.14000 6.213
19.16000 7.610
19.18000 5.987
19.20000 10.556
19.22000 13.471
19.24000 9.141
19.26000 8.899
19.28000 11.064
19.30000 13.205
19.32000 5.408
19.34000 9.030
19.36000 10.221
19.38000 13.394
19.40000 6.859
19.42000 7.523
19.44000 4.441
19.46000 3.390
19.48000 3.479
19.50000 -1.445
19.52000 2.153
19.54000 -2.831
19.56000 2.464
19.58000 10.372
19.60000 11.840
19.62000 12.248
19.64000 11.961
19.66000 15.619
19.68000 9.282
19.70000 4.026
19.72000 0.214
19.74000 0.873
19.76000 9.320
19.78000 10.049
19.80000 5.632
19.82000 4.233
19.84000 4.792
19.86000 6.819
19.88000 5.042
19.90000 8.480
19.92000 11.732
19.94000 6.316
19.96000 -0.034
19.98000 3.594
20.00000 7.996
20.02000 6.440
20.04000 6.806
20.06000 6.525
20.08000 3.505
20.10000 2.305
20.12000 3.553
20.14000 1.824
20.16000 5.514
20.18000 5.034
20.20000 10.473
20.22000 1.374
20.24000 2.993
20.26000 -0.589
20.28000 2.397
20.30000 9.824
20.32000 4.750
20.34000 1.343
20.36000 7.185
20.38000 11.373
20.40000 6.050
20.42000 1.637
20.44000 -2.681
20.46000 -4.185
20.48000 9.715
20.50000 14.060
20.52000 10.287
20.54000 11.609
20.56000 10.164
20.58000 8.746
20.60000 3.320
20.62000 7.954
20.64000 7.515
20.66000 3.746
20.68000 1.148
20.70000 10.206
20.72000 9.211
20.74000 11.064
20.76000 10.325
20.78000 10.678
20.80000 7.397
20.82000 0.861
20.84000 7.030
20.86000 9.799
20.88000 5.583
20.90000 6.131
20.92000 6.976
20.94000 1.270
20.96000 2.813
20.98000 4.433
21.00000 1.914
21.02000 2.505
21.04000 4.797
21.06000 2.218
21.08000 4.052
21.10000 3.211
21.12000 2.671
21.14000 3.587
21.16000 10.433
21.18000 2.038
21.20000 5.573
21.22000 11.351
21.24000 13.831
21.26000 3.851
21.28000 0.083
21.30000 1.274
21.32000 5.365
21.34000 -1.703
21.36000 2.110
21.38000 6.168
21.40000 5.261
21.42000 2.132
21.44000 0.551
21.46000 5.466
21.48000 6.348
21.50000 4.539
21.52000 4.775
21.54000 2.755
21.56000 3.518
21.58000 0.678
21.60000 -2.777
21.62000 -1.899
21.64000 1.343
21.66000 2.816
21.68000 3.567
21.70000 2.513
21.72000 0.881
21.74000 2.892
21.76000 10.397
21.78000 13.629
21.80000 13.622
21.82000 15.380
21.84000 6.114
21.86000 2.884
21.88000 -3.630
21.90000 0.337
21.92000 6.343
21.94000 8.876
21.96000 5.856
21.98000 7.909
22.00000 6.553
22.02000 10.029
22.04000 7.544
22.06000 13.975
22.08000 10.624
22.10000 7.061
22.12000 10.348
22.14000 13.501
22.16000 11.641
22.18000 6.037
22.20000 10.600
22.22000 6.026
22.24000 -4.051
22.26000 -0.157
22.28000 -1.354
22.30000 0.709
22.32000 5.337
22.34000 9.879
22.36000 9.120
22.38000 10.817
22.40000 12.631
22.42000 9.205
22.44000 6.562
22.46000 7.538
22.48000 11.938
22.50000 12.141
22.52000 8.077
22.54000 10.063
22.56000 9.214
22.58000 5.363
22.60000 2.727
22.62000 7.501
22.64000 7.620
22.66000 5.597
22.68000 7.501
22.70000 11.744
22.72000 7.135
22.74000 -0.729
22.76000 11.015
22.78000 8.785
22.80000 9.003
22.82000 11.407
22.84000 14.520
22.86000 11.963
22.88000 3.701
22.90000 3.310
22.92000 4.350
22.94000 13.809
22.96000 10.090
22.98000 10.811
23.00000 8.939
23.02000 9.102
23.04000 5.248
23.06000 15.030
23.08000 15.939
23.10000 9.934
23.12000 7.590
23.14000 10.699
23.16000 15.978
23.18000 13.834
23.20000 8.838
23.22000 9.077
23.24000 11.458
23.26000 9.037
23.28000 10.699
23.30000 6.617
23.32000 6.498
23.34000 9.524
23.36000 9.838
23.38000 6.826
23.40000 13.025
23.42000 8.170
23.44000 8.215
23.46000 5.402
23.48000 7.031
23.50000 9.362
23.52000 5.097
23.54000 -3.962
23.56000 4.144
23.58000 7.193
23.60000 11.244
23.62000 6.417
23.64000 4.660
23.66000 10.471
23.68000 5.402
23.70000 0.907
23.72000 6.019
23.74000 4.616
23.76000 4.806
23.78000 7.588
23.80000 10.637
23.82000 9.433
23.84000 4.098
23.86000 6.914
23.88000 7.054
23.90000 7.780
23.92000 3.677
23.94000 3.589
23.96000 8.535
23.98000 10.605
24.00000 5.478
24.02000 2.168
24.04000 7.632
24.06000 11.099
24.08000 8.681
24.10000 0.316
24.12000 7.064
24.14000 12.362
24.16000 11.656
24.18000 9.075
24.20000 8.720
24.22000 7.681
24.24000 9.850
24.26000 9.719
24.28000 11.555
24.30000 7.685
24.32000 7.902
24.34000 5.357
24.36000 1.351
24.38000 5.884
24.40000 7.182
24.42000 11.287
24.44000 4.249
24.46000 4.382
24.48000 5.912
24.50000 4.149
24.52000 4.049
24.54000 3.692
24.56000 7.020
24.58000 3.879
24.60000 2.426
24.62000 -1.043
24.64000 7.332
24.66000 11.313
24.68000 4.509
24.70000 2.645
24.72000 5.378
24.74000 9.083
24.76000 9.581
24.78000 5.896
24.80000 0.532
24.82000 -1.097
24.84000 3.024
24.86000 4.408
24.88000 3.022
24.90000 0.817
24.92000 -1.789
24.94000 -2.644
24.96000 -2.979
24.98000 1.328
25.00000 6.687
25.02000 5.883
25.04000 8.980
25.06000 3.871
25.08000 2.296
25.10000 5.452
25.12000 6.361
25.14000 5.177
25.16000 9.824
25.18000 3.979
25.20000 1.972
25.22000 3.899
25.24000 4.609
25.26000 4.184
25.28000 4.800
25.30000 3.705
25.32000 2.265
25.34000 1.517
25.36000 1.334
25.38000 0.563
25.40000 1.735
25.42000 -1.265
25.44000 5.363
25.46000 1.580
25.48000 5.128
25.50000 5.361
25.52000 -1.193
25.54000 -2.605
25.56000 0.630
25.58000 4.935
25.60000 3.767
25.62000 4.363
25.64000 4.215
25.66000 1.287
25.68000 -0.734
25.70000 -0.008
25.72000 -1.511
25.74000 0.799
25.76000 4.946
25.78000 2.203
25.80000 0.329
25.82000 2.618
25.84000 2.525
25.86000 0.729
25.88000 4.586
25.90000 4.427
25.92000 2.594
25.94000 7.054
25.96000 11.926
25.98000 9.620
26.00000 7.442
26.02000 2.192
26.04000 5.118
26.06000 7.084
26.08000 3.172
26.10000 4.160
26.12000 -0.673
26.14000 -0.557
26.16000 2.157
26.18000 8.597
26.20000 9.145
26.22000 4.260
26.24000 5.973
26.26000 3.872
26.28000 5.810
26.30000 4.564
26.32000 5.818
26.34000 1.216
26.36000 3.825
26.38000 2.114
26.40000 2.784
26.42000 1.141
26.44000 1.836
26.46000 3.076
26.48000 6.477
26.50000 8.094
26.52000 6.684
26.54000 10.654
26.56000 6.243
26.58000 3.136
26.60000 -3.841
26.62000 -3.184
26.64000 -0.170
26.66000 1.869
26.68000 -0.882
26.70000 5.211
26.72000 5.521
26.74000 1.717
26.76000 1.731
26.78000 -0.465
26.80000 0.907
26.82000 -1.093
26.84000 2.551
26.86000 1.497
26.88000 1.128
26.90000 -0.812
26.92000 -0.017
26.94000 0.884
26.96000 1.451
26.98000 7.057
27.00000 5.601
27.02000 0.291
27.04000 1.335
27.06000 6.850
27.08000 1.889
27.10000 2.962
27.12000 1.948
27.14000 -0.310
27.16000 3.319
27.18000 3.705
27.20000 1.834
27.22000 3.989
27.24000 9.551
27.26000 11.234
27.28000 9.875
27.30000 6.598
27.32000 2.014
27.34000 3.541
27.36000 1.393
27.38000 3.023
27.40000 0.310
27.42000 -3.150
27.44000 3.302
27.46000 -1.080
27.48000 -2.700
27.50000 -0.533
27.52000 0.489
27.54000 3.235
27.56000 2.766
27.58000 7.140
27.60000 7.813
27.62000 9.055
27.64000 4.420
27.66000 -0.981
27.68000 1.937
27.70000 3.553
27.72000 5.786
27.74000 1.973
27.76000 0.240
27.78000 2.933
27.80000 -0.641
27.82000 1.777
27.84000 6.550
27.86000 6.034
27.88000 3.186
27.90000 2.670
27.92000 5.434
27.94000 -0.686
27.96000 2.014
27.98000 -1.813
28.00000 -1.938
28.02000 1.489
28.04000 4.996
28.06000 8.468
28.08000 4.643
28.10000 4.081
28.12000 4.351
28.14000 4.243
28.16000 7.655
28.18000 5.260
28.20000 0.184
28.22000 0.335
28.24000 1.708
28.26000 4.439
28.28000 1.103
28.30000 1.558
28.32000 6.650
28.34000 9.408
28.36000 8.160
28.38000 6.763
28.40000 5.645
28.42000 -0.852
28.44000 2.089
28.46000 -3.755
28.48000 -1.610
28.50000 3.768
28.52000 4.199
28.54000 -2.001
28.56000 -0.852
28.58000 0.083
28.60000 -0.082
28.62000 -2.135
28.64000 3.103
28.66000 7.030
28.68000 2.203
28.70000 1.048
28.72000 -1.173
28.74000 -1.942
28.76000 3.108
28.78000 10.747
28.80000 2.277
28.82000 0.213
28.84000 7.823
28.86000 10.015
28.88000 6.867
28.90000 4.825
28.92000 4.901
28.94000 3.667
28.96000 5.360
28.98000 1.921
29.00000 4.508
29.02000 2.024
29.04000 0.621
29.06000 2.987
29.08000 2.455
29.10000 4.955
29.12000 5.213
29.14000 1.834
29.16000 -3.724
29.18000 -1.441
29.20000 4.091
29.22000 4.868
29.24000 3.790
29.26000 0.946
29.28000 -2.599
29.30000 -2.534
29.32000 0.478
29.34000 0.691
29.36000 0.119
29.38000 2.533
29.40000 6.776
29.42000 4.890
29.44000 3.774
29.46000 -0.279
29.48000 3.384
29.50000 2.283
29.52000 2.121
29.54000 2.044
29.56000 0.806
29.58000 0.498
29.60000 3.290
29.62000 0.287
29.64000 -1.474
29.66000 7.122
29.68000 5.314
29.70000 2.318
29.72000 1.169
29.74000 4.806
29.76000 3.358
29.78000 1.895
29.80000 0.633
29.82000 -1.970
29.84000 -2.136
29.86000 4.259
29.88000 4.682
29.90000 4.879
29.92000 0.529
29.94000 1.255
29.96000 8.463
29.98000 5.180
30.00000 0.507
30.02000 -2.466
30.04000 2.625
30.06000 4.224
30.08000 1.649
30.10000 3.971
30.12000 3.102
30.14000 1.943
30.16000 -0.719
30.18000 2.718
30.20000 3.464
30.22000 4.043
30.24000 4.225
30.26000 5.427
30.28000 0.709
30.30000 4.379
30.32000 3.771
30.34000 4.207
30.36000 4.075
30.38000 1.989
30.40000 0.309
30.42000 3.614
30.44000 5.068
30.46000 3.344
30.48000 1.245
30.50000 3.574
30.52000 4.460
30.54000 3.574
30.56000 3.291
30.58000 4.879
30.60000 8.024
30.62000 9.311
30.64000 0.625
30.66000 0.583
30.68000 4.386
30.70000 6.554
30.72000 10.279
30.74000 1.581
30.76000 1.157
30.78000 1.798
30.80000 -3.642
30.82000 1.539
30.84000 3.157
30.86000 8.063
30.88000 10.002
30.90000 4.447
30.92000 4.951
30.94000 2.692
30.96000 2.276
30.98000 7.001
31.00000 -1.458
31.02000 -0.742
31.04000 -1.132
31.06000 6.872
31.08000 8.568
31.10000 5.435
31.12000 5.361
31.14000 5.643
31.16000 2.571
31.18000 -1.883
31.20000 0.645
31.22000 1.492
31.24000 2.672
31.26000 3.896
31.28000 5.575
31.30000 4.907
31.32000 6.178
31.34000 2.639
31.36000 -0.973
31.38000 2.770
31.40000 2.024
31.42000 3.241
31.44000 4.859
31.46000 2.087
31.48000 2.785
31.50000 7.426
31.52000 7.185
31.54000 2.468
31.56000 3.230
31.58000 7.659
31.60000 5.457
31.62000 6.878
31.64000 3.546
31.66000 -1.869
31.68000 0.586
31.70000 0.087
31.72000 5.641
31.74000 4.596
31.76000 4.143
31.78000 9.931
31.80000 4.050
31.82000 5.215
31.84000 0.788
31.86000 3.540
31.88000 0.230
31.90000 1.184
31.92000 5.808
31.94000 7.096
31.96000 3.625
31.98000 4.706
32.00000 -3.562
32.02000 -0.318
32.04000 4.655
32.06000 6.891
32.08000 11.114
32.10000 7.927
32.12000 5.042
32.14000 4.148
32.16000 2.187
32.18000 3.457
32.20000 6.186
32.22000 7.099
32.24000 4.116
32.26000 -0.736
32.28000 -3.543
32.30000 5.264
32.32000 1.268
32.34000 1.442
32.36000 2.933
32.38000 7.473
32.40000 4.671
32.42000 7.105
32.44000 8.375
32.46000 1.439
32.48000 3.055
32.50000 6.151
32.52000 2.756
32.54000 0.943
32.56000 2.741
32.58000 8.147
32.60000 6.268
32.62000 5.595
32.64000 4.122
32.66000 1.156
32.68000 2.740
32.70000 1.483
32.72000 2.862
32.74000 0.995
32.76000 -1.004
32.78000 4.422
32.80000 6.560
32.82000 2.431
32.84000 0.826
32.86000 1.069
32.88000 2.312
32.90000 4.410
32.92000 4.738
32.94000 3.521
32.96000 1.780
32.98000 6.156
33.00000 3.584
33.02000 1.410
33.04000 -0.432
33.06000 1.126
33.08000 -0.945
33.10000 4.170
33.12000 4.023
33.14000 4.483
33.16000 1.648
33.18000 0.396
33.20000 1.386
33.22000 -0.949
33.24000 -1.701
33.26000 1.869
33.28000 -1.649
33.30000 -2.236
33.32000 7.741
33.34000 7.069
33.36000 9.581
33.38000 2.330
33.40000 -0.013
33.42000 -0.174
33.44000 -0.043
33.46000 3.182
33.48000 5.527
33.50000 1.298
33.52000 0.601
33.54000 -3.222
33.56000 -0.893
33.58000 5.264
33.60000 3.351
33.62000 6.404
33.64000 9.467
33.66000 5.860
33.68000 -1.761
33.70000 1.865
33.72000 3.227
33.74000 4.102
33.76000 0.403
33.78000 1.441
33.80000 0.929
33.82000 2.719
33.84000 1.558
33.86000 3.569
33.88000 6.535
33.90000 6.294
33.92000 4.472
33.94000 0.006
33.96000 4.194
33.98000 2.896
34.00000 2.661
34.02000 3.904
34.04000 8.949
34.06000 7.253
34.08000 3.306
34.10000 1.597
34.12000 1.156
34.14000 5.217
34.16000 8.812
34.18000 5.598
34.20000 8.469
34.22000 10.396
34.24000 9.558
34.26000 8.276
34.28000 2.045
34.30000 4.238
34.32000 3.462
34.34000 3.459
34.36000 6.394
34.38000 3.812
34.40000 2.536
34.42000 -1.221
34.44000 -3.517
34.46000 -1.039
34.48000 3.127
34.50000 1.859
34.52000 2.715
34.54000 5.066
34.56000 4.473
34.58000 5.463
34.60000 3.743
34.62000 3.046
34.64000 4.831
34.66000 5.238
34.68000 5.432
34.70000 5.412
34.72000 4.673
34.74000 4.849
34.76000 5.175
34.78000 2.322
34.80000 1.373
34.82000 3.316
34.84000 6.266
34.86000 4.912
34.88000 4.613
34.90000 5.772
34.92000 4.217
34.94000 1.445
34.96000 1.238
34.98000 -0.352
35.00000 2.189
35.02000 1.152
35.04000 3.763
35.06000 4.645
35.08000 3.840
35.10000 3.596
35.12000 0.246
35.14000 7.529
35.16000 6.363
35.18000 2.194
35.20000 2.023
35.22000 5.104
35.24000 6.002
35.26000 6.647
35.28000 6.218
35.30000 2.008
35.32000 2.291
35.34000 -3.493
35.36000 -1.062
35.38000 -0.611
35.40000 3.886
35.42000 1.998
35.44000 5.079
35.46000 5.880
35.48000 0.132
35.50000 2.074
35.52000 -0.111
35.54000 -2.599
35.56000 2.591
35.58000 1.306
35.60000 -0.953
35.62000 -3.256
35.64000 -1.422
35.66000 0.744
35.68000 2.366
35.70000 6.283
35.72000 7.805
35.74000 3.915
35.76000 2.370
35.78000 3.008
35.80000 4.720
35.82000 3.077
35.84000 5.235
35.86000 3.967
35.88000 -0.499
35.90000 -3.484
35.92000 2.711
35.94000 2.895
35.96000 4.732
35.98000 5.477
36.00000 4.604
36.02000 3.174
36.04000 0.351
36.06000 4.138
36.08000 4.955
36.10000 0.001
36.12000 0.155
36.14000 1.805
36.16000 2.543
36.18000 3.500
36.20000 4.349
36.22000 10.716
36.24000 5.104
36.26000 -0.116
36.28000 0.851
36.30000 -1.464
36.32000 -2.508
36.34000 0.647
36.36000 2.932
36.38000 2.112
36.40000 1.702
36.42000 5.413
36.44000 0.509
36.46000 -2.539
36.48000 -3.494
36.50000 1.790
36.52000 6.984
36.54000 3.499
36.56000 3.922
36.58000 -0.621
36.60000 -1.289
36.62000 -0.966
36.64000 1.360
36.66000 2.188
36.68000 4.296
36.70000 4.618
36.72000 0.215
36.74000 -1.762
36.76000 -1.332
36.78000 0.871
36.80000 3.962
36.82000 2.108
36.84000 1.447
36.86000 -0.227
36.88000 3.526
36.90000 6.801
36.92000 1.614
36.94000 -3.129
36.96000 -3.450
36.98000 -0.541
37.00000 -1.801
37.02000 -1.708
37.04000 -0.885
37.06000 -2.825
37.08000 -0.088
37.10000 1.866
37.12000 1.543
37.14000 -1.812
37.16000 -1.841
37.18000 2.559
37.20000 2.606
37.22000 0.980
37.24000 2.410
37.26000 0.991
37.28000 3.497
37.30000 0.706
37.32000 2.282
37.34000 -0.370
37.36000 -1.494
37.38000 4.163
37.40000 2.951
37.42000 0.566
37.44000 -3.565
37.46000 -0.637
37.48000 1.280
37.50000 2.722
37.52000 -0.674
37.54000 1.023
37.56000 -0.370
37.58000 -3.576
37.60000 -1.583
37.62000 0.221
37.64000 -3.039
37.66000 -1.781
37.68000 1.463
37.70000 3.449
37.72000 3.948
37.74000 2.611
37.76000 0.838
37.78000 3.199
37.80000 1.669
37.82000 -1.953
37.84000 -1.503
37.86000 -0.027
37.88000 1.946
37.90000 -0.912
37.92000 0.096
37.94000 0.202
37.96000 5.439
37.98000 4.487
38.00000 2.420
38.02000 -0.458
38.04000 2.362
38.06000 -1.689
38.08000 1.714
38.10000 11.031
38.12000 9.751
38.14000 7.647
38.16000 3.731
38.18000 10.982
38.20000 9.875
38.22000 8.186
38.24000 9.988
38.26000 15.474
38.28000 13.219
38.30000 11.802
38.32000 12.247
38.34000 9.871
38.36000 12.895
38.38000 9.805
38.40000 9.479
38.42000 13.985
38.44000 18.361
38.46000 20.718
38.48000 14.897
38.50000 12.463
38.52000 12.987
38.54000 17.393
38.56000 13.864
38.58000 13.001
38.60000 15.387
38.62000 13.754
38.64000 12.543
38.66000 15.566
38.68000 18.504
38.70000 16.231
38.72000 18.728
38.74000 16.951
38.76000 17.149
38.78000 22.146
38.80000 20.647
38.82000 21.058
38.84000 24.373
38.86000 24.605
38.88000 24.182
38.90000 22.189
38.92000 22.553
38.94000 22.826
38.96000 28.545
38.98000 25.345
39.00000 25.939
39.02000 30.252
39.04000 31.679
39.06000 28.001
39.08000 24.752
39.10000 32.136
39.12000 31.942
39.14000 34.559
39.16000 31.687
39.18000 31.735
39.20000 38.175
39.22000 38.445
39.24000 39.192
39.26000 40.033
39.28000 44.508
39.30000 46.700
39.32000 44.316
39.34000 50.408
39.36000 55.497
39.38000 59.088
39.40000 62.609
39.42000 60.158
39.44000 58.705
39.46000 61.645
39.48000 67.125
39.50000 66.390
39.52000 72.396
39.54000 75.684
39.56000 83.084
39.58000 83.993
39.60000 95.126
39.62000 94.809
39.64000 94.539
39.66000 96.264
39.68000 102.292
39.70000 106.562
39.72000 108.797
39.74000 118.442
39.76000 125.957
39.78000 137.648
39.80000 139.924
39.82000 146.707
39.84000 149.254
39.86000 161.880
39.88000 166.178
39.90000 166.754
39.92000 175.620
39.94000 188.959
39.96000 202.032
39.98000 212.875
40.00000 220.410
40.02000 229.684
40.04000 240.560
40.06000 250.835
40.08000 264.307
40.10000 271.207
40.12000 284.614
40.14000 290.982
40.16000 312.091
40.18000 321.529
40.20000 339.163
40.22000 349.572
40.24000 364.518
40.26000 379.731
40.28000 390.316
40.30000 404.768
40.32000 413.785
40.34000 419.432
40.36000 434.322
40.38000 451.363
40.40000 462.263
40.42000 477.667
40.44000 486.660
40.46000 491.178
40.48000 500.161
40.50000 502.454
40.52000 512.528
40.54000 520.127
40.56000 523.191
40.58000 529.777
40.60000 526.513
40.62000 521.552
40.64000 516.680
40.66000 529.198
40.68000 521.348
40.70000 514.341
40.72000 500.872
40.74000 494.959
40.76000 484.726
40.78000 472.343
40.80000 468.207
40.82000 450.831
40.84000 442.300
40.86000 437.613
40.88000 423.217
40.90000 412.017
40.92000 391.539
40.94000 381.258
40.96000 375.439
40.98000 362.018
41.00000 338.347
41.02000 317.167
41.04000 306.100
41.06000 293.620
41.08000 278.319
41.10000 263.734
41.12000 251.588
41.14000 249.406
41.16000 233.971
41.18000 226.610
41.20000 216.439
41.22000 204.263
41.24000 190.213
41.26000 181.783
41.28000 181.755
41.30000 174.133
41.32000 165.520
41.34000 154.777
41.36000 142.600
41.38000 129.148
41.40000 122.802
41.42000 116.134
41.44000 110.660
41.46000 105.951
41.48000 99.960
41.50000 98.304
41.52000 99.104
41.54000 91.302
41.56000 83.589
41.58000 78.956
41.60000 76.628
41.62000 73.006
41.64000 68.151
41.66000 67.017
41.68000 67.490
41.70000 60.587
41.72000 57.664
41.74000 57.817
41.76000 56.350
41.78000 55.048
41.80000 48.933
41.82000 51.329
41.84000 43.954
41.86000 39.303
41.88000 39.231
41.90000 36.874
41.92000 29.241
41.94000 27.918
41.96000 27.906
41.98000 27.070
42.00000 29.026
42.02000 29.003
42.04000 27.255
42.06000 26.533
42.08000 20.597
42.10000 17.830
42.12000 16.346
42.14000 19.310
42.16000 22.012
42.18000 18.803
42.20000 19.410
42.22000 19.489
42.24000 16.051
42.26000 15.908
42.28000 16.047
42.30000 16.461
42.32000 14.089
42.34000 12.567
42.36000 9.656
42.38000 11.457
42.40000 11.322
42.42000 14.548
42.44000 11.474
42.46000 12.369
42.48000 14.526
42.50000 13.273
42.52000 9.171
42.54000 0.600
42.56000 3.184
42.58000 9.658
42.60000 9.996
42.62000 5.656
42.64000 4.383
42.66000 7.724
42.68000 4.828
42.70000 6.876
42.72000 8.313
42.74000 6.051
42.76000 7.362
42.78000 3.795
42.80000 1.354
42.82000 -0.661
42.84000 4.787
42.86000 2.087
42.88000 1.058
42.90000 -1.281
42.92000 2.766
42.94000 3.526
42.96000 5.712
42.98000 3.394
43.00000 -1.836
43.02000 0.774
43.04000 -2.277
43.06000 2.972
43.08000 5.669
43.10000 3.492
43.12000 3.097
43.14000 2.147
43.16000 3.388
43.18000 4.394
43.20000 4.817
43.22000 2.876
43.24000 0.702
43.26000 -0.767
43.28000 -3.497
43.30000 2.355
43.32000 6.337
43.34000 5.677
43.36000 5.872
43.38000 1.907
43.40000 -0.045
43.42000 1.741
43.44000 5.330
43.46000 2.426
43.48000 4.888
43.50000 5.228
43.52000 7.275
43.54000 4.956
43.56000 2.535
43.58000 4.193
43.60000 4.972
43.62000 0.962
43.64000 -1.839
43.66000 -1.427
43.68000 -3.436
43.70000 -0.545
43.72000 1.963
43.74000 -0.133
43.76000 -1.884
43.78000 1.200
43.80000 5.310
43.82000 4.302
43.84000 3.963
43.86000 1.918
43.88000 0.029
43.90000 1.804
43.92000 7.582
43.94000 11.392
43.96000 8.749
43.98000 2.947
44.00000 1.350
44.02000 -0.198
44.04000 3.104
44.06000 2.101
44.08000 -2.017
44.10000 3.843
44.12000 0.740
44.14000 1.827
44.16000 2.720
44.18000 6.766
44.20000 3.573
44.22000 3.796
44.24000 4.857
44.26000 1.448
44.28000 2.257
44.30000 3.000
44.32000 0.221
44.34000 2.445
44.36000 1.589
44.38000 -1.309
44.40000 -3.408
44.42000 2.044
44.44000 4.825
44.46000 7.016
44.48000 1.859
44.50000 2.261
44.52000 3.873
44.54000 5.960
44.56000 11.369
44.58000 6.023
44.60000 2.155
44.62000 4.954
44.64000 4.793
44.66000 7.696
44.68000 3.026
44.70000 2.120
44.72000 1.579
44.74000 0.117
44.76000 3.807
44.78000 4.093
44.80000 2.400
44.82000 1.326
44.84000 1.890
44.86000 2.809
44.88000 2.898
44.90000 -1.150
44.92000 -0.906
44.94000 -1.540
44.96000 3.226
44.98000 4.803
45.00000 2.808
45.02000 -0.320
45.04000 0.576
45.06000 2.155
45.08000 -2.423
45.10000 0.877
45.12000 1.886
45.14000 2.614
45.16000 8.357
45.18000 0.447
45.20000 -2.793
45.22000 3.605
45.24000 7.431
45.26000 6.841
45.28000 5.964
45.30000 3.323
45.32000 7.191
45.34000 7.044
45.36000 1.149
45.38000 6.762
45.40000 7.519
45.42000 3.753
45.44000 10.935
45.46000 9.530
45.48000 5.247
45.50000 9.650
45.52000 10.740
45.54000 8.217
45.56000 8.000
45.58000 11.144
45.60000 13.836
45.62000 8.081
45.64000 10.981
45.66000 18.602
45.68000 12.876
45.70000 10.478
45.72000 13.389
45.74000 13.985
45.76000 15.032
45.78000 14.235
45.80000 12.073
45.82000 11.626
45.84000 15.182
45.86000 17.905
45.88000 19.380
45.90000 14.102
45.92000 16.331
45.94000 17.745
45.96000 22.931
45.98000 21.916
46.00000 18.749
46.02000 20.678
46.04000 19.653
46.06000 24.017
46.08000 29.777
46.10000 30.396
46.12000 26.369
46.14000 25.281
46.16000 31.765
46.18000 32.957
46.20000 31.863
46.22000 33.600
46.24000 32.539
46.26000 27.861
46.28000 29.196
46.30000 29.249
46.32000 31.878
46.34000 40.151
46.36000 41.569
46.38000 42.404
46.40000 47.394
46.42000 42.805
46.44000 38.904
46.46000 37.975
46.48000 41.973
46.50000 45.155
46.52000 49.025
46.54000 47.060
46.56000 47.183
46.58000 51.890
46.60000 55.047
46.62000 54.748
46.64000 48.823
46.66000 48.482
46.68000 55.401
46.70000 55.995
46.72000 59.223
46.74000 57.991
46.76000 61.927
46.78000 58.294
46.80000 56.845
46.82000 66.716
46.84000 69.056
46.86000 65.711
46.88000 64.335
46.90000 68.925
46.92000 68.860
46.94000 74.081
46.96000 70.561
46.98000 67.605
47.00000 74.709
47.02000 76.528
47.04000 77.539
47.06000 68.555
47.08000 73.445
47.10000 72.547
47.12000 71.332
47.14000 81.513
47.16000 74.345
47.18000 65.288
47.20000 68.654
47.22000 72.562
47.24000 66.772
47.26000 67.385
47.28000 66.751
47.30000 64.776
47.32000 68.685
47.34000 71.514
47.36000 71.765
47.38000 69.034
47.40000 66.051
47.42000 64.130
47.44000 62.912
47.46000 60.756
47.48000 62.213
47.50000 60.409
47.52000 57.496
47.54000 60.299
47.56000 62.748
47.58000 59.297
47.60000 52.212
47.62000 56.656
47.64000 53.044
47.66000 51.342
47.68000 52.693
47.70000 43.654
47.72000 44.593
47.74000 46.498
47.76000 49.847
47.78000 51.331
47.80000 45.010
47.82000 46.051
47.84000 38.154
47.86000 30.779
47.88000 28.176
47.90000 34.125
47.92000 36.429
47.94000 31.488
47.96000 31.271
47.98000 33.071
48.00000 35.222
48.02000 27.889
48.04000 27.481
48.06000 25.675
48.08000 25.117
48.10000 27.726
48.12000 27.088
48.14000 23.613
48.16000 24.098
48.18000 18.845
48.20000 18.483
48.22000 16.419
48.24000 14.167
48.26000 18.820
48.28000 17.141
48.30000 17.416
48.32000 17.939
48.34000 13.089
48.36000 11.513
48.38000 13.058
48.40000 11.029
48.42000 10.673
48.44000 9.200
48.46000 12.219
48.48000 6.695
48.50000 6.710
48.52000 7.529
48.54000 6.111
48.56000 8.132
48.58000 9.262
48.60000 7.067
48.62000 9.659
48.64000 15.390
48.66000 15.057
48.68000 9.148
48.70000 7.549
48.72000 8.439
48.74000 9.103
48.76000 4.619
48.78000 5.405
48.80000 3.718
48.82000 1.871
48.84000 -0.808
48.86000 1.425
48.88000 0.206
48.90000 0.362
48.92000 4.695
48.94000 3.983
48.96000 3.273
48.98000 1.247
49.00000 0.936
49.02000 0.532
49.04000 1.894
49.06000 2.867
49.08000 4.978
49.10000 4.331
49.12000 6.352
49.14000 5.768
49.16000 6.479
49.18000 4.230
49.20000 4.719
49.22000 3.310
49.24000 4.995
49.26000 8.340
49.28000 10.208
49.30000 8.469
49.32000 9.309
49.34000 7.421
49.36000 -0.082
49.38000 2.663
49.40000 0.829
49.42000 4.541
49.44000 4.886
49.46000 5.470
49.48000 2.244
49.50000 -3.038
49.52000 0.328
49.54000 4.758
49.56000 -1.015
49.58000 -1.755
49.60000 2.380
49.62000 3.363
49.64000 4.769
49.66000 1.919
49.68000 3.234
49.70000 2.767
49.72000 2.456
49.74000 -0.660
49.76000 2.416
49.78000 3.505
49.80000 3.092
49.82000 2.196
49.84000 1.811
49.86000 3.301
49.88000 3.886
49.90000 2.369
49.92000 4.276
49.94000 4.578
49.96000 0.811
49.98000 4.358
50.00000 6.222
50.02000 6.878
50.04000 4.067
50.06000 2.751
50.08000 1.794
50.10000 0.249
50.12000 0.212
50.14000 1.971
50.16000 6.026
50.18000 7.204
50.20000 0.429
50.22000 -0.179
50.24000 -2.893
50.26000 -2.977
50.28000 -0.508
50.30000 -0.779
50.32000 3.156
50.34000 0.425
50.36000 0.767
50.38000 0.602
50.40000 2.677
50.42000 0.498
50.44000 2.183
50.46000 4.499
50.48000 4.306
50.50000 1.239
50.52000 0.092
50.54000 5.374
50.56000 1.493
50.58000 1.123
50.60000 0.637
50.62000 0.808
50.64000 -1.955
50.66000 -0.458
50.68000 3.477
50.70000 0.389
50.72000 1.523
50.74000 -0.901
50.76000 -2.928
50.78000 0.731
50.80000 2.832
50.82000 5.803
50.84000 9.688
50.86000 5.289
50.88000 -0.466
50.90000 0.939
50.92000 7.545
50.94000 4.325
50.96000 2.615
50.98000 4.337
51.00000 4.901
51.02000 7.652
51.04000 7.983
51.06000 5.793
51.08000 -1.065
51.10000 -2.899
51.12000 4.180
51.14000 5.756
51.16000 2.563
51.18000 5.158
51.20000 4.119
51.22000 6.196
51.24000 -0.631
51.26000 -0.286
51.28000 6.933
51.30000 6.263
51.32000 6.632
51.34000 5.343
51.36000 0.798
51.38000 -1.334
51.40000 2.194
51.42000 -2.201
51.44000 3.425
51.46000 5.383
51.48000 3.841
51.50000 5.142
51.52000 0.286
51.54000 1.919
51.56000 -0.234
51.58000 -0.365
51.60000 -0.682
51.62000 2.730
51.64000 1.934
51.66000 8.260
51.68000 8.676
51.70000 3.605
51.72000 -0.385
51.74000 -0.119
51.76000 0.825
51.78000 1.270
51.80000 3.704
51.82000 0.533
51.84000 -0.479
51.86000 4.603
51.88000 1.389
51.90000 -1.479
51.92000 2.424
51.94000 3.173
51.96000 1.028
51.98000 0.994
52.00000 6.366
52.02000 6.412
52.04000 1.647
52.06000 -2.888
52.08000 -1.127
52.10000 4.199
52.12000 4.675
52.14000 0.013
52.16000 1.708
52.18000 -2.414
52.20000 4.281
52.22000 2.672
52.24000 4.533
52.26000 2.759
52.28000 0.138
52.30000 2.412
52.32000 -0.681
52.34000 -1.060
52.36000 0.274
52.38000 3.679
52.40000 -0.443
52.42000 -0.239
52.44000 0.143
52.46000 -1.943
52.48000 -0.242
52.50000 0.635
52.52000 -1.854
52.54000 1.935
52.56000 2.209
52.58000 0.978
52.60000 -1.320
52.62000 2.977
52.64000 3.493
52.66000 0.736
52.68000 -2.279
52.70000 0.858
52.72000 0.809
52.74000 -1.006
52.76000 -2.882
52.78000 1.460
52.80000 0.682
52.82000 -1.015
52.84000 2.668
52.86000 3.856
52.88000 3.509
52.90000 0.613
52.92000 0.807
52.94000 2.562
52.96000 1.463
52.98000 1.019
53.00000 1.216
53.02000 0.158
53.04000 -0.860
53.06000 1.994
53.08000 0.994
53.10000 0.473
53.12000 -2.169
53.14000 -2.880
53.16000 -1.725
53.18000 -1.818
53.20000 -1.011
53.22000 -2.419
53.24000 -0.914
53.26000 -1.505
53.28000 -0.740
53.30000 7.501
53.32000 2.952
53.34000 0.822
53.36000 -1.980
53.38000 -1.515
53.40000 -0.950
53.42000 0.630
53.44000 -0.155
53.46000 1.756
53.48000 0.816
53.50000 -0.331
53.52000 0.727
53.54000 0.234
53.56000 5.434
53.58000 2.129
53.60000 -0.680
53.62000 0.371
53.64000 -2.302
53.66000 -1.049
53.68000 -2.787
53.70000 0.241
53.72000 -0.054
53.74000 2.457
53.76000 0.550
53.78000 0.036
53.80000 -2.856
53.82000 -1.700
53.84000 -0.443
53.86000 -0.186
53.88000 -1.939
53.90000 2.706
53.92000 2.534
53.94000 -2.403
53.96000 1.658
53.98000 -2.550
54.00000 -2.373
54.02000 -0.154
54.04000 4.124
54.06000 0.315
54.08000 4.350
54.10000 3.181
54.12000 1.438
54.14000 2.602
54.16000 1.165
54.18000 -0.663
54.20000 3.563
54.22000 9.630
54.24000 8.899
54.26000 0.996
54.28000 1.814
54.30000 -0.767
54.32000 1.598
54.34000 4.156
54.36000 3.564
54.38000 1.704
54.40000 2.291
54.42000 0.747
54.44000 2.266
54.46000 2.217
54.48000 0.054
54.50000 -2.810
54.52000 5.345
54.54000 4.560
54.56000 -0.820
54.58000 0.310
54.60000 0.797
54.62000 -1.819
54.64000 2.882
54.66000 2.485
54.68000 5.095
54.70000 5.673
54.72000 0.906
54.74000 1.489
54.76000 0.648
54.78000 2.382
54.80000 -0.549
54.82000 -0.044
54.84000 5.143
54.86000 -0.333
54.88000 1.481
54.90000 2.277
54.92000 5.501
54.94000 2.404
54.96000 -1.720
54.98000 -2.787
55.00000 0.538
55.02000 -2.790
55.04000 -0.524
55.06000 1.398
55.08000 4.120
55.10000 6.338
55.12000 8.545
55.14000 3.104
55.16000 -2.250
55.18000 -2.126
55.20000 2.392
55.22000 1.722
55.24000 5.348
55.26000 7.320
55.28000 6.541
55.30000 3.508
55.32000 4.240
55.34000 3.163
55.36000 0.537
55.38000 1.353
55.40000 1.799
55.42000 4.785
55.44000 4.350
55.46000 4.170
55.48000 3.278
55.50000 3.261
55.52000 4.186
55.54000 3.022
55.56000 -0.026
55.58000 0.557
55.60000 5.108
55.62000 1.422
55.64000 2.984
55.66000 5.617
55.68000 4.448
55.70000 4.499
55.72000 3.368
55.74000 1.889
55.76000 4.031
55.78000 4.458
55.80000 4.453
55.82000 8.388
55.84000 7.889
55.86000 5.033
55.88000 4.601
55.90000 1.610
55.92000 2.023
55.94000 4.130
55.96000 4.421
55.98000 4.947
56.00000 5.573
56.02000 4.049
56.04000 3.504
56.06000 4.196
56.08000 1.450
56.10000 -1.220
56.12000 -2.729
56.14000 0.797
56.16000 -1.493
56.18000 0.494
56.20000 5.713
56.22000 7.897
56.24000 4.093
56.26000 2.655
56.28000 0.583
56.30000 1.995
56.32000 5.828
56.34000 0.193
56.36000 3.628
56.38000 4.819
56.40000 2.918
56.42000 5.666
56.44000 6.383
56.46000 6.935
56.48000 6.093
56.50000 5.562
56.52000 5.925
56.54000 2.227
56.56000 0.694
56.58000 -1.356
56.60000 4.076
56.62000 5.035
56.64000 6.537
56.66000 -0.002
56.68000 1.232
56.70000 3.692
56.72000 3.565
56.74000 8.360
56.76000 8.250
56.78000 3.924
56.80000 6.030
56.82000 4.632
56.84000 2.159
56.86000 4.690
56.88000 5.479
56.90000 2.175
56.92000 3.135
56.94000 6.439
56.96000 5.776
56.98000 5.214
57.00000 2.371
57.02000 1.173
57.04000 -2.710
57.06000 0.694
57.08000 1.828
57.10000 3.143
57.12000 1.638
57.14000 1.009
57.16000 2.999
57.18000 5.548
57.20000 6.871
57.22000 7.953
57.24000 7.405
57.26000 3.473
57.28000 0.117
57.30000 -2.700
57.32000 4.466
57.34000 5.662
57.36000 3.084
57.38000 5.149
57.40000 6.063
57.42000 3.972
57.44000 -0.332
57.46000 -2.471
57.48000 -0.052
57.50000 0.823
57.52000 2.620
57.54000 4.455
57.56000 6.183
57.58000 5.158
57.60000 1.427
57.62000 1.868
57.64000 3.928
57.66000 4.885
57.68000 4.016
57.70000 4.030
57.72000 -0.884
57.74000 -2.690
57.76000 0.477
57.78000 0.548
57.80000 1.917
57.82000 3.289
57.84000 5.799
57.86000 3.589
57.88000 5.142
57.90000 5.600
57.92000 4.386
57.94000 2.626
57.96000 6.747
57.98000 4.345
58.00000 0.776
58.02000 -1.671
58.04000 -1.927
58.06000 2.166
58.08000 4.458
58.10000 5.168
58.12000 6.762
58.14000 7.173
58.16000 4.851
58.18000 5.504
58.20000 5.343
58.22000 1.834
58.24000 0.612
58.26000 3.318
58.28000 3.955
58.30000 6.922
58.32000 6.334
58.34000 0.339
58.36000 0.246
58.38000 4.738
58.40000 7.137
58.42000 5.129
58.44000 3.609
58.46000 2.081
58.48000 -2.669
58.50000 1.264
58.52000 2.999
58.54000 1.716
58.56000 3.548
58.58000 3.558
58.60000 4.257
58.62000 0.632
58.64000 1.699
58.66000 -2.008
58.68000 4.487
58.70000 1.359
58.72000 2.062
58.74000 5.118
58.76000 1.083
58.78000 -1.075
58.80000 5.126
58.82000 3.003
58.84000 3.896
58.86000 4.720
58.88000 4.520
58.90000 4.861
58.92000 4.820
58.94000 6.307
58.96000 2.893
58.98000 3.666
59.00000 3.753
59.02000 5.836
59.04000 2.961
59.06000 -1.092
59.08000 -0.687
59.10000 3.969
59.12000 1.977
59.14000 0.067
59.16000 -0.294
59.18000 1.378
59.20000 2.571
59.22000 0.420
59.24000 4.595
59.26000 7.660
59.28000 4.263
59.30000 1.321
59.32000 4.741
59.34000 3.192
59.36000 1.995
59.38000 1.313
59.40000 0.953
59.42000 1.543
59.44000 -0.546
59.46000 -0.759
59.48000 -2.641
59.50000 0.208
59.52000 4.285
59.54000 5.096
59.56000 0.867
59.58000 -0.548
59.60000 1.215
59.62000 5.102
59.64000 3.127
59.66000 1.362
59.68000 0.784
59.70000 0.802
59.72000 1.866
59.74000 -2.084
59.76000 1.462
59.78000 4.503
59.80000 3.454
59.82000 1.297
59.84000 -1.837
59.86000 0.510
59.88000 5.835
59.90000 10.709
59.92000 7.344
59.94000 2.989
59.96000 -1.365
59.98000 -2.631
60.00000 -2.630
60.02000 8.324
60.04000 5.648
60.06000 5.074
60.08000 2.216
60.10000 1.469
60.12000 2.838
60.14000 2.480
60.16000 2.516
60.18000 2.019
60.20000 2.737
60.22000 -0.495
60.24000 -2.624
60.26000 -0.938
60.28000 2.220
60.30000 4.293
60.32000 1.730
60.34000 5.467
60.36000 5.221
60.38000 7.352
60.40000 7.810
60.42000 4.770
60.44000 1.213
60.46000 4.220
60.48000 7.087
60.50000 6.014
60.52000 2.550
60.54000 0.513
60.56000 4.146
60.58000 8.080
60.60000 4.954
60.62000 0.930
60.64000 1.318
60.66000 1.199
60.68000 5.092
60.70000 6.175
60.72000 6.556
60.74000 2.029
60.76000 2.087
60.78000 2.770
60.80000 5.193
60.82000 1.284
60.84000 -1.170
60.86000 2.947
60.88000 8.312
60.90000 5.080
60.92000 0.141
60.94000 2.034
60.96000 4.163
60.98000 6.677
61.00000 3.358
61.02000 4.982
61.04000 3.085
61.06000 0.623
61.08000 -2.587
61.10000 1.420
61.12000 4.125
61.14000 5.016
61.16000 -0.595
61.18000 0.061
61.20000 -0.030
61.22000 3.273
61.24000 3.108
61.26000 3.893
61.28000 2.251
61.30000 1.170
61.32000 2.391
61.34000 2.029
61.36000 0.492
61.38000 1.504
61.40000 2.555
61.42000 6.127
61.44000 7.519
61.46000 4.517
61.48000 1.825
61.50000 -2.095
61.52000 0.852
61.54000 1.908
61.56000 2.483
61.58000 5.665
61.60000 2.415
61.62000 6.210
61.64000 2.593
61.66000 5.677
61.68000 7.396
61.70000 6.077
61.72000 6.604
61.74000 5.888
61.76000 2.036
61.78000 5.740
61.80000 3.570
61.82000 -0.080
61.84000 2.418
61.86000 6.193
61.88000 4.341
61.90000 -1.046
61.92000 -2.539
61.94000 1.233
61.96000 4.374
61.98000 3.337
62.00000 7.509
62.02000 5.910
62.04000 5.458
62.06000 3.439
62.08000 3.453
62.10000 3.452
62.12000 6.168
62.14000 8.210
62.16000 2.785
62.18000 0.846
62.20000 1.782
62.22000 4.015
62.24000 5.450
62.26000 3.593
62.28000 2.518
62.30000 4.253
62.32000 1.652
62.34000 5.885
62.36000 1.682
62.38000 0.762
62.40000 2.240
62.42000 5.165
62.44000 6.194
62.46000 6.174
62.48000 3.812
62.50000 4.167
62.52000 6.938
62.54000 7.500
62.56000 3.801
62.58000 4.352
62.60000 5.512
62.62000 3.812
62.64000 2.819
62.66000 3.603
62.68000 5.206
62.70000 5.060
62.72000 4.099
62.74000 2.175
62.76000 1.969
62.78000 5.251
62.80000 3.117
62.82000 5.673
62.84000 4.740
62.86000 2.925
62.88000 6.149
62.90000 4.889
62.92000 2.137
62.94000 1.847
62.96000 6.245
62.98000 5.179
63.00000 0.175
63.02000 -2.525
63.04000 5.977
63.06000 4.973
63.08000 1.826
63.10000 1.861
63.12000 2.560
63.14000 2.297
63.16000 0.154
63.18000 1.581
63.20000 2.499
63.22000 2.203
63.24000 4.222
63.26000 1.045
63.28000 5.366
63.30000 4.708
63.32000 4.612
63.34000 5.290
63.36000 6.749
63.38000 1.350
63.40000 3.381
63.42000 2.610
63.44000 1.751
63.46000 3.541
63.48000 3.087
63.50000 6.699
63.52000 4.041
63.54000 3.421
63.56000 0.563
63.58000 3.737
63.60000 5.979
63.62000 3.385
63.64000 2.163
63.66000 -2.541
63.68000 -1.599
63.70000 1.715
63.72000 0.859
63.74000 5.624
63.76000 8.246
63.78000 5.094
63.80000 3.403
63.82000 2.962
63.84000 -0.222
63.86000 4.672
63.88000 7.552
63.90000 2.059
63.92000 -1.665
63.94000 1.000
63.96000 2.508
63.98000 3.597
64.00000 -0.743
64.02000 2.378
64.04000 2.157
64.06000 2.246
64.08000 0.750
64.10000 -2.085
64.12000 -0.897
64.14000 0.935
64.16000 2.260
64.18000 9.729
64.20000 10.062
64.22000 10.130
64.24000 6.421
64.26000 2.712
64.28000 1.658
64.30000 -2.559
64.32000 -2.289
64.34000 0.863
64.36000 -0.523
64.38000 0.555
64.40000 4.098
64.42000 -1.029
64.44000 1.706
64.46000 3.480
64.48000 3.936
64.50000 2.591
64.52000 0.682
64.54000 2.363
64.56000 3.555
64.58000 1.160
64.60000 0.033
64.62000 2.744
64.64000 5.790
64.66000 3.711
64.68000 0.879
64.70000 3.464
64.72000 2.409
64.74000 -0.333
64.76000 -0.033
64.78000 0.818
64.80000 0.289
64.82000 2.905
64.84000 -0.099
64.86000 0.173
64.88000 -0.129
64.90000 -0.269
64.92000 0.455
64.94000 0.443
64.96000 -2.517
64.98000 -0.587
65.00000 3.429
65.02000 0.329
65.04000 -2.586
65.06000 0.021
65.08000 0.000
65.10000 0.677
65.12000 -0.789
65.14000 3.400
65.16000 1.454
65.18000 0.617
65.20000 2.245
65.22000 0.239
65.24000 0.808
65.26000 5.179
65.28000 7.089
65.30000 6.985
65.32000 4.858
65.34000 3.723
65.36000 -0.591
65.38000 -1.369
65.40000 -2.549
65.42000 -0.142
65.44000 4.517
65.46000 -0.989
65.48000 -0.489
65.50000 -2.528
65.52000 -0.387
65.54000 1.251
65.56000 -0.706
65.58000 -2.439
65.60000 -1.604
65.62000 1.554
65.64000 -0.267
65.66000 -2.209
65.68000 -2.265
65.70000 -2.373
65.72000 1.698
65.74000 2.294
65.76000 1.288
65.78000 1.883
65.80000 -1.745
65.82000 0.342
65.84000 1.635
65.86000 0.991
65.88000 -1.476
65.90000 -1.179
65.92000 2.052
65.94000 -0.708
65.96000 0.268
65.98000 0.347
66.00000 4.309
66.02000 1.560
66.04000 -0.661
66.06000 0.291
66.08000 0.253
66.10000 3.083
66.12000 2.910
66.14000 1.249
66.16000 -2.086
66.18000 0.667
66.20000 -0.411
66.22000 -0.441
66.24000 3.047
66.26000 2.444
66.28000 2.022
66.30000 1.823
66.32000 1.485
66.34000 0.510
66.36000 -1.958
66.38000 1.787
66.40000 2.540
66.42000 -1.049
66.44000 -0.093
66.46000 -0.027
66.48000 -2.073
66.50000 -0.329
66.52000 0.125
66.54000 0.543
66.56000 0.725
66.58000 3.314
66.60000 0.126
66.62000 0.682
66.64000 2.403
66.66000 2.475
66.68000 7.387
66.70000 3.774
66.72000 0.167
66.74000 -2.574
66.76000 1.610
66.78000 5.421
66.80000 3.667
66.82000 3.264
66.84000 1.998
66.86000 2.866
66.88000 2.220
66.90000 1.271
66.92000 1.203
66.94000 1.594
66.96000 1.691
66.98000 3.633
67.00000 4.434
67.02000 4.554
67.04000 4.991
67.06000 5.472
67.08000 5.228
67.10000 5.154
67.12000 5.156
67.14000 0.821
67.16000 4.131
67.18000 1.695
67.20000 4.312
67.22000 3.327
67.24000 -0.595
67.26000 0.138
67.28000 1.587
67.30000 6.784
67.32000 4.762
67.34000 -0.579
67.36000 1.774
67.38000 3.233
67.40000 1.242
67.42000 1.428
67.44000 2.478
67.46000 3.732
67.48000 5.575
67.50000 3.627
67.52000 1.935
67.54000 1.238
67.56000 3.653
67.58000 1.269
67.60000 2.337
67.62000 2.935
67.64000 5.562
67.66000 5.049
67.68000 6.825
67.70000 5.435
67.72000 3.007
67.74000 3.512
67.76000 8.198
67.78000 10.030
67.80000 9.401
67.82000 9.304
67.84000 8.872
67.86000 9.157
67.88000 11.582
67.90000 12.408
67.92000 9.054
67.94000 5.409
67.96000 6.722
67.98000 7.103
68.00000 9.344
68.02000 12.227
68.04000 10.343
68.06000 10.168
68.08000 10.487
68.10000 12.421
68.12000 13.704
68.14000 13.917
68.16000 12.279
68.18000 10.893
68.20000 12.073
68.22000 13.167
68.24000 13.389
68.26000 16.998
68.28000 14.435
68.30000 7.444
68.32000 7.382
68.34000 15.942
68.36000 15.979
68.38000 11.441
68.40000 12.213
68.42000 13.828
68.44000 13.356
68.46000 14.493
68.48000 14.775
68.50000 17.907
68.52000 21.458
68.54000 19.788
68.56000 24.452
68.58000 21.360
68.60000 21.415
68.62000 22.009
68.64000 22.943
68.66000 24.746
68.68000 24.300
68.70000 22.869
68.72000 19.987
68.74000 18.521
68.76000 22.951
68.78000 23.271
68.80000 26.482
68.82000 23.635
68.84000 26.525
68.86000 23.855
68.88000 22.699
68.90000 26.745
68.92000 31.325
68.94000 29.534
68.96000 27.184
68.98000 26.417
69.00000 23.845
69.02000 26.595
69.04000 31.866
69.06000 27.377
69.08000 22.648
69.10000 24.547
69.12000 23.101
69.14000 21.602
69.16000 22.754
69.18000 20.855
69.20000 18.727
69.22000 20.999
69.24000 21.220
69.26000 22.084
69.28000 20.300
69.30000 19.173
69.32000 17.912
69.34000 18.382
69.36000 20.160
69.38000 20.203
69.40000 20.426
69.42000 23.228
69.44000 18.962
69.46000 18.377
69.48000 14.009
69.50000 12.647
69.52000 16.462
69.54000 12.780
69.56000 13.586
69.58000 14.998
69.60000 13.921
69.62000 13.736
69.64000 11.017
69.66000 11.849
69.68000 6.655
69.70000 6.788
69.72000 9.476
69.74000 7.244
69.76000 6.399
69.78000 11.915
69.80000 10.800
69.82000 6.975
69.84000 6.208
69.86000 5.928
69.88000 10.096
69.90000 10.712
69.92000 8.306
69.94000 10.511
69.96000 10.411
69.98000 7.922
70.00000 8.951
70.02000 10.147
70.04000 6.623
70.06000 4.045
70.08000 6.556
70.10000 3.818
70.12000 5.821
70.14000 6.629
70.16000 2.227
70.18000 8.448
70.20000 9.532
70.22000 2.189
70.24000 3.527
70.26000 4.675
70.28000 2.377
70.30000 6.891
70.32000 10.923
70.34000 7.607
70.36000 4.828
70.38000 5.449
70.40000 5.546
70.42000 7.184
70.44000 6.580
70.46000 8.155
70.48000 6.516
70.50000 2.879
70.52000 3.527
70.54000 5.820
70.56000 5.886
70.58000 6.790
70.60000 3.490
70.62000 -1.572
70.64000 -2.522
70.66000 3.011
70.68000 1.263
70.70000 6.526
70.72000 5.896
70.74000 2.552
70.76000 2.801
70.78000 1.340
70.80000 0.374
70.82000 2.704
70.84000 1.580
70.86000 3.458
70.88000 2.574
70.90000 5.128
70.92000 2.509
70.94000 1.732
70.96000 8.934
70.98000 6.089
71.00000 3.367
71.02000 4.011
71.04000 4.439
71.06000 4.249
71.08000 4.552
71.10000 4.042
71.12000 3.918
71.14000 1.006
71.16000 2.665
71.18000 1.199
71.20000 -1.751
71.22000 3.474
71.24000 0.145
71.26000 0.653
71.28000 1.747
71.30000 3.523
71.32000 -0.510
71.34000 0.030
71.36000 0.553
71.38000 1.121
71.40000 1.519
71.42000 -0.444
71.44000 -1.761
71.46000 -2.460
71.48000 0.710
71.50000 6.195
71.52000 3.653
71.54000 2.220
71.56000 3.279
71.58000 1.887
71.60000 -0.069
71.62000 -2.413
71.64000 1.579
71.66000 3.835
71.68000 2.019
71.70000 4.602
71.72000 7.039
71.74000 2.253
71.76000 2.854
71.78000 4.939
71.80000 0.398
71.82000 3.114
71.84000 1.917
71.86000 1.533
71.88000 2.121
71.90000 0.814
71.92000 5.758
71.94000 0.097
71.96000 0.682
71.98000 3.687
72.00000 1.336
72.02000 3.200
72.04000 8.079
72.06000 7.275
72.08000 5.936
72.10000 -1.072
72.12000 -1.774
72.14000 2.125
72.16000 5.679
72.18000 5.611
72.20000 4.440
72.22000 2.011
72.24000 6.710
72.26000 6.617
72.28000 4.147
72.30000 2.757
72.32000 0.146
72.34000 3.259
72.36000 3.146
72.38000 1.557
72.40000 5.803
72.42000 0.527
72.44000 0.203
72.46000 1.614
72.48000 -0.656
72.50000 0.744
72.52000 1.661
72.54000 5.585
72.56000 5.440
72.58000 1.980
72.60000 2.782
72.62000 0.274
72.64000 -0.132
72.66000 -2.392
72.68000 0.549
72.70000 -1.333
72.72000 0.372
72.74000 2.760
72.76000 1.738
72.78000 -0.282
72.80000 -0.604
72.82000 0.364
72.84000 2.236
72.86000 3.252
72.88000 6.623
72.90000 5.326
72.92000 4.897
72.94000 5.906
72.96000 6.205
72.98000 2.416
73.00000 7.246
73.02000 7.628
73.04000 9.819
73.06000 8.838
73.08000 4.450
73.10000 0.830
73.12000 3.754
73.14000 -0.079
73.16000 0.571
73.18000 -0.284
73.20000 1.772
73.22000 1.346
73.24000 3.157
73.26000 4.135
73.28000 1.492
73.30000 3.748
73.32000 2.163
73.34000 -1.562
73.36000 1.101
73.38000 -2.390
73.40000 1.463
73.42000 2.956
73.44000 0.450
73.46000 0.472
73.48000 4.829
73.50000 6.122
73.52000 5.832
73.54000 5.561
73.56000 3.245
73.58000 3.009
73.60000 -0.364
73.62000 7.370
73.64000 4.602
73.66000 -2.389
73.68000 -0.781
73.70000 0.261
73.72000 2.190
73.74000 4.617
73.76000 3.565
73.78000 0.410
73.80000 2.408
73.82000 1.140
73.84000 -0.140
73.86000 0.159
73.88000 0.641
73.90000 5.432
73.92000 6.107
73.94000 3.797
73.96000 4.331
73.98000 5.928
74.00000 1.689
74.02000 -0.875
74.04000 -0.873
74.06000 5.066
74.08000 2.084
74.10000 -0.232
74.12000 2.550
74.14000 2.559
74.16000 1.900
74.18000 3.927
74.20000 5.284
74.22000 2.717
74.24000 1.241
74.26000 -0.232
74.28000 0.002
74.30000 1.287
74.32000 6.492
74.34000 6.537
74.36000 4.465
74.38000 6.485
74.40000 1.039
74.42000 -2.343
74.44000 -1.438
74.46000 1.656
74.48000 0.575
74.50000 1.018
74.52000 -2.079
74.54000 0.186
74.56000 2.002
74.58000 0.132
74.60000 -1.078
74.62000 -1.455
74.64000 3.551
74.66000 4.918
74.68000 4.595
74.70000 1.846
74.72000 2.134
74.74000 2.840
74.76000 2.798
74.78000 3.325
74.80000 4.394
74.82000 3.154
74.84000 5.765
74.86000 3.097
74.88000 2.718
74.90000 2.155
74.92000 -0.464
74.94000 1.626
74.96000 3.369
74.98000 0.582
75.00000 -2.358
75.02000 1.068
75.04000 -0.450
75.06000 -0.537
75.08000 2.323
75.10000 1.988
75.12000 0.478
75.14000 2.115
75.16000 5.027
75.18000 4.667
75.20000 3.485
75.22000 2.930
75.24000 5.630
75.26000 6.024
75.28000 7.623
75.30000 3.236
75.32000 1.775
75.34000 3.099
75.36000 2.032
75.38000 0.399
75.40000 2.131
75.42000 6.059
75.44000 8.588
75.46000 8.425
75.48000 8.298
75.50000 6.042
75.52000 2.071
75.54000 1.862
75.56000 6.267
75.58000 6.259
75.60000 4.521
75.62000 2.902
75.64000 -2.301
75.66000 -0.753
75.68000 6.184
75.70000 5.532
75.72000 2.375
75.74000 -0.460
75.76000 4.377
75.78000 6.370
75.80000 2.588
75.82000 5.102
75.84000 3.730
75.86000 -2.349
75.88000 -1.668
75.90000 3.979
75.92000 6.437
75.94000 5.541
75.96000 3.508
75.98000 3.649
76.00000 5.646
76.02000 6.199
76.04000 10.051
76.06000 4.092
76.08000 -0.656
76.10000 5.573
76.12000 4.963
76.14000 8.677
76.16000 4.184
76.18000 3.326
76.20000 2.052
76.22000 0.003
76.24000 2.672
76.26000 2.136
76.28000 2.671
76.30000 0.592
76.32000 1.506
76.34000 6.357
76.36000 6.627
76.38000 4.577
76.40000 8.704
76.42000 5.166
76.44000 0.986
76.46000 6.154
76.48000 4.038
76.50000 4.696
76.52000 4.640
76.54000 0.761
76.56000 1.805
76.58000 3.726
76.60000 1.875
76.62000 2.334
76.64000 3.569
76.66000 6.306
76.68000 3.819
76.70000 1.810
76.72000 3.565
76.74000 1.692
76.76000 4.236
76.78000 -0.044
76.80000 2.187
76.82000 6.403
76.84000 7.600
76.86000 5.858
76.88000 4.319
76.90000 4.769
76.92000 2.918
76.94000 6.428
76.96000 3.394
76.98000 6.035
77.00000 1.389
77.02000 -0.465
77.04000 3.789
77.06000 2.804
77.08000 1.732
77.10000 -0.297
77.12000 4.222
77.14000 1.572
77.16000 1.847
77.18000 2.405
77.20000 2.004
77.22000 0.385
77.24000 4.064
77.26000 3.381
77.28000 5.105
77.30000 6.677
77.32000 1.982
77.34000 3.349
77.36000 3.928
77.38000 3.395
77.40000 4.132
77.42000 2.213
77.44000 -0.701
77.46000 5.476
77.48000 6.778
77.50000 7.353
77.52000 4.227
77.54000 6.020
77.56000 5.559
77.58000 8.546
77.60000 7.296
77.62000 3.611
77.64000 3.723
77.66000 8.627
77.68000 4.040
77.70000 4.532
77.72000 3.812
77.74000 0.209
77.76000 1.712
77.78000 1.533
77.80000 -2.359
77.82000 -0.977
77.84000 0.928
77.86000 3.600
77.88000 3.879
77.90000 3.811
77.92000 -1.418
77.94000 5.135
77.96000 6.277
77.98000 6.292
78.00000 2.755
78.02000 5.512
78.04000 10.430
78.06000 4.638
78.08000 2.174
78.10000 -0.539
78.12000 2.719
78.14000 2.791
78.16000 1.909
78.18000 3.976
78.20000 1.127
78.22000 3.016
78.24000 1.163
78.26000 0.891
78.28000 -0.313
78.30000 5.382
78.32000 4.256
78.34000 6.003
78.36000 7.544
78.38000 1.535
78.40000 -0.306
78.42000 -0.110
78.44000 -0.405
78.46000 -1.140
78.48000 3.349
78.50000 3.170
78.52000 8.185
78.54000 2.998
78.56000 2.020
78.58000 0.929
78.60000 0.424
78.62000 6.002
78.64000 6.268
78.66000 4.563
78.68000 7.132
78.70000 5.042
78.72000 3.829
78.74000 3.786
78.76000 1.460
78.78000 1.593
78.80000 4.496
78.82000 0.071
78.84000 0.517
78.86000 1.025
78.88000 2.113
78.90000 3.558
78.92000 1.402
78.94000 -0.068
78.96000 3.240
78.98000 1.644
79.00000 -0.956
79.02000 1.160
79.04000 2.693
79.06000 -0.748
79.08000 0.850
79.10000 4.535
79.12000 3.127
79.14000 1.411
79.16000 1.657
79.18000 1.936
79.20000 -0.043
79.22000 -2.108
79.24000 -1.390
79.26000 -1.560
79.28000 3.899
79.30000 5.746
79.32000 -0.815
79.34000 0.373
79.36000 3.326
79.38000 0.398
79.40000 -1.287
79.42000 5.821
79.44000 2.847
79.46000 6.977
79.48000 2.951
79.50000 -2.407
79.52000 3.486
79.54000 3.133
79.56000 6.150
79.58000 3.677
79.60000 6.981
79.62000 5.561
79.64000 0.363
79.66000 1.711
79.68000 6.635
79.70000 5.012
79.72000 4.045
79.74000 1.709
79.76000 2.827
79.78000 1.588
79.80000 -0.252
79.82000 0.584
79.84000 0.215
79.86000 0.721
79.88000 1.620
79.90000 -1.539
79.92000 1.138
79.94000 0.034
79.96000 7.841
79.98000 2.999
80.00000 1.361
80.02000 3.415
80.04000 4.200
80.06000 5.722
80.08000 5.239
80.10000 5.949
80.12000 3.970
80.14000 -1.334
80.16000 0.754
80.18000 1.464
80.20000 -2.098
80.22000 1.108
80.24000 0.834
80.26000 0.062
80.28000 -1.668
80.30000 -0.665
80.32000 -0.338
80.34000 1.807
80.36000 -0.430
80.38000 0.670
80.40000 -1.059
80.42000 2.353
80.44000 2.993
80.46000 8.431
80.48000 7.904
80.50000 3.078
80.52000 0.882
80.54000 2.149
80.56000 4.980
80.58000 -1.010
80.60000 0.024
80.62000 0.297
80.64000 -1.067
80.66000 1.961
80.68000 2.791
80.70000 2.619
80.72000 -0.230
80.74000 2.512
80.76000 0.804
80.78000 3.529
80.80000 5.297
80.82000 4.114
80.84000 7.424
80.86000 3.577
80.88000 3.610
80.90000 6.657
80.92000 -0.719
80.94000 -2.507
80.96000 -0.310
80.98000 2.313
81.00000 5.600
81.02000 2.364
81.04000 0.699
81.06000 2.422
81.08000 6.435
81.10000 0.757
81.12000 2.985
81.14000 1.969
81.16000 0.670
81.18000 5.571
81.20000 3.433
81.22000 1.545
81.24000 3.684
81.26000 6.872
81.28000 0.190
81.30000 -1.839
81.32000 -1.306
81.34000 -0.212
81.36000 5.184
81.38000 3.140
81.40000 6.453
81.42000 0.616
81.44000 -1.748
81.46000 -0.892
81.48000 2.909
81.50000 5.467
81.52000 7.276
81.54000 1.555
81.56000 3.519
81.58000 6.141
81.60000 1.031
81.62000 1.736
81.64000 4.846
81.66000 3.155
81.68000 1.378
81.70000 1.806
81.72000 4.682
81.74000 1.111
81.76000 3.206
81.78000 1.673
81.80000 0.059
81.82000 0.486
81.84000 2.876
81.86000 3.003
81.88000 10.110
81.90000 9.966
81.92000 6.359
81.94000 7.004
81.96000 5.626
81.98000 3.705
82.00000 7.054
82.02000 7.494
82.04000 2.491
82.06000 4.892
82.08000 5.848
82.10000 8.059
82.12000 5.196
82.14000 4.999
82.16000 8.688
82.18000 6.210
82.20000 5.768
82.22000 10.540
82.24000 8.794
82.26000 4.900
82.28000 5.979
82.30000 6.326
82.32000 7.785
82.34000 7.569
82.36000 7.573
82.38000 13.167
82.40000 12.403
82.42000 15.289
82.44000 11.471
82.46000 13.720
82.48000 11.248
82.50000 13.091
82.52000 15.928
82.54000 11.569
82.56000 12.730
82.58000 15.953
82.60000 16.746
82.62000 14.565
82.64000 16.779
82.66000 19.894
82.68000 20.382
82.70000 20.886
82.72000 19.286
82.74000 14.803
82.76000 15.945
82.78000 23.412
82.80000 17.695
82.82000 16.554
82.84000 18.461
82.86000 15.136
82.88000 14.496
82.90000 18.442
82.92000 18.795
82.94000 19.026
82.96000 23.234
82.98000 26.368
83.00000 28.606
83.02000 26.320
83.04000 26.797
83.06000 26.706
83.08000 19.252
83.10000 17.972
83.12000 20.872
83.14000 20.902
83.16000 22.682
83.18000 26.442
83.20000 23.836
83.22000 20.727
83.24000 19.660
83.26000 19.759
83.28000 22.123
83.30000 29.063
83.32000 25.146
83.34000 23.710
83.36000 21.101
83.38000 22.875
83.40000 21.315
83.42000 21.348
83.44000 25.085
83.46000 24.922
83.48000 21.814
83.50000 23.376
83.52000 27.473
83.54000 26.970
83.56000 28.925
83.58000 23.990
83.60000 20.874
83.62000 20.128
83.64000 21.253
83.66000 23.469
83.68000 21.497
83.70000 20.055
83.72000 19.944
83.74000 17.170
83.76000 23.415
83.78000 20.878
83.80000 16.245
83.82000 21.848
83.84000 21.748
83.86000 22.573
83.88000 19.492
83.90000 14.820
83.92000 14.690
83.94000 11.723
83.96000 12.443
83.98000 12.287
84.00000 12.138
84.02000 14.370
84.04000 16.051
84.06000 14.191
84.08000 11.466
84.10000 10.446
84.12000 8.143
84.14000 10.148
84.16000 10.109
84.18000 9.167
84.20000 9.738
84.22000 6.220
84.24000 10.413
84.26000 15.575
84.28000 4.476
84.30000 6.558
84.32000 12.216
84.34000 10.746
84.36000 13.069
84.38000 9.352
84.40000 8.504
84.42000 8.496
84.44000 8.583
84.46000 7.152
84.48000 9.332
84.50000 6.451
84.52000 8.631
84.54000 7.105
84.56000 2.680
84.58000 6.077
84.60000 3.712
84.62000 8.172
84.64000 -1.727
84.66000 -2.554
84.68000 3.123
84.70000 5.338
84.72000 5.352
84.74000 5.957
84.76000 3.912
84.78000 1.791
84.80000 5.410
84.82000 1.336
84.84000 1.642
84.86000 1.330
84.88000 2.952
84.90000 -0.433
84.92000 2.711
84.94000 6.600
84.96000 4.480
84.98000 4.721
85.00000 4.236
85.02000 4.245
85.04000 1.233
85.06000 -1.023
85.08000 -0.548
85.10000 0.615
85.12000 5.812
85.14000 6.571
85.16000 7.103
85.18000 3.425
85.20000 -0.092
85.22000 4.222
85.24000 3.195
85.26000 -0.498
85.28000 -2.050
85.30000 0.568
85.32000 1.346
85.34000 1.887
85.36000 -0.032
85.38000 2.313
85.40000 1.990
85.42000 -2.468
85.44000 0.665
85.46000 6.846
85.48000 1.797
85.50000 3.651
85.52000 -1.487
85.54000 1.445
85.56000 1.631
85.58000 3.358
85.60000 2.358
85.62000 1.542
85.64000 -1.005
85.66000 3.125
85.68000 -0.117
85.70000 -0.922
85.72000 1.090
85.74000 0.980
85.76000 4.813
85.78000 3.252
85.80000 1.759
85.82000 -2.469
85.84000 2.239
85.86000 1.882
85.88000 2.535
85.90000 -0.117
85.92000 -0.457
85.94000 0.348
85.96000 3.991
85.98000 0.484
86.00000 0.748
86.02000 0.410
86.04000 -0.242
86.06000 2.998
86.08000 5.389
86.10000 4.428
86.12000 -0.506
86.14000 2.459
86.16000 8.013
86.18000 2.113
86.20000 -2.490
86.22000 -1.502
86.24000 4.283
86.26000 4.168
86.28000 2.280
86.30000 1.773
86.32000 1.993
86.34000 0.684
86.36000 4.752
86.38000 4.270
86.40000 -0.471
86.42000 1.281
86.44000 0.207
86.46000 0.414
86.48000 -1.761
86.50000 -2.418
86.52000 -2.502
86.54000 0.997
86.56000 1.751
86.58000 2.877
86.60000 -0.884
86.62000 4.597
86.64000 6.153
86.66000 5.462
86.68000 3.104
86.70000 3.591
86.72000 4.161
86.74000 7.687
86.76000 3.832
86.78000 4.088
86.80000 5.983
86.82000 2.649
86.84000 5.468
86.86000 3.457
86.88000 3.486
86.90000 5.706
86.92000 11.239
86.94000 7.507
86.96000 6.237
86.98000 6.531
87.00000 8.693
87.02000 11.345
87.04000 11.862
87.06000 12.077
87.08000 7.064
87.10000 6.875
87.12000 9.137
87.14000 11.429
87.16000 12.216
87.18000 12.964
87.20000 8.455
87.22000 6.481
87.24000 8.430
87.26000 8.140
87.28000 14.676
87.30000 11.266
87.32000 10.173
87.34000 12.784
87.36000 13.480
87.38000 16.065
87.40000 15.283
87.42000 15.678
87.44000 10.102
87.46000 9.805
87.48000 17.434
87.50000 15.448
87.52000 15.631
87.54000 19.673
87.56000 12.681
87.58000 11.562
87.60000 13.136
87.62000 15.220
87.64000 17.237
87.66000 16.614
87.68000 15.770
87.70000 14.613
87.72000 17.543
87.74000 17.993
87.76000 16.417
87.78000 14.396
87.80000 16.015
87.82000 19.809
87.84000 21.666
87.86000 20.259
87.88000 15.821
87.90000 14.840
87.92000 15.044
87.94000 22.092
87.96000 23.381
87.98000 15.646
88.00000 14.616
88.02000 14.430
88.04000 11.911
88.06000 14.070
88.08000 11.107
88.10000 8.477
88.12000 14.558
88.14000 12.802
88.16000 12.485
88.18000 15.850
88.20000 14.016
88.22000 19.221
88.24000 17.682
88.26000 9.671
88.28000 11.119
88.30000 12.375
88.32000 12.044
88.34000 13.359
88.36000 13.337
88.38000 7.120
88.40000 7.160
88.42000 9.477
88.44000 11.287
88.46000 9.959
88.48000 15.090
88.50000 16.402
88.52000 14.700
88.54000 10.179
88.56000 10.060
88.58000 7.733
88.60000 6.468
88.62000 3.383
88.64000 0.840
88.66000 3.906
88.68000 8.826
88.70000 6.903
88.72000 4.178
88.74000 4.814
88.76000 2.024
88.78000 1.124
88.80000 3.091
88.82000 7.890
88.84000 5.813
88.86000 4.069
88.88000 5.351
88.90000 6.054
88.92000 4.469
88.94000 3.534
88.96000 2.376
88.98000 4.411
89.00000 8.809
89.02000 4.475
89.04000 5.152
89.06000 4.943
89.08000 -0.370
89.10000 -0.348
89.12000 -0.921
89.14000 2.911
89.16000 5.849
89.18000 8.777
89.20000 4.916
89.22000 7.284
89.24000 6.532
89.26000 2.062
89.28000 -0.896
89.30000 1.675
89.32000 -0.621
89.34000 0.213
89.36000 0.753
89.38000 -0.688
89.40000 -0.618
89.42000 -0.843
89.44000 -0.601
89.46000 -1.310
89.48000 1.811
89.50000 4.745
89.52000 -0.078
89.54000 -1.069
89.56000 2.002
89.58000 -1.148
89.60000 3.851
89.62000 2.296
89.64000 3.427
89.66000 3.655
89.68000 4.018
89.70000 3.094
89.72000 2.469
89.74000 0.530
89.76000 0.982
89.78000 1.616
89.80000 2.702
89.82000 4.355
89.84000 4.913
89.86000 4.450
89.88000 2.392
89.90000 2.845
89.92000 1.892
89.94000 -0.524
89.96000 -2.306
89.98000 -0.367
90.00000 3.778
90.02000 3.118
90.04000 0.414
90.06000 1.694
90.08000 5.212
90.10000 6.624
90.12000 -1.247
90.14000 -2.286
90.16000 0.981
90.18000 0.962
90.20000 2.950
90.22000 1.405
90.24000 4.215
90.26000 2.806
90.28000 0.960
90.30000 3.423
90.32000 1.620
90.34000 5.105
90.36000 1.484
90.38000 4.326
90.40000 0.485
90.42000 5.506
90.44000 5.048
90.46000 2.892
90.48000 2.777
90.50000 4.684
90.52000 2.180
90.54000 2.764
90.56000 1.004
90.58000 3.784
90.60000 4.101
90.62000 3.922
90.64000 1.984
90.66000 -1.246
90.68000 -0.156
90.70000 4.396
90.72000 3.905
90.74000 5.227
90.76000 6.223
90.78000 4.118
90.80000 0.335
90.82000 3.566
90.84000 2.998
90.86000 2.089
90.88000 3.535
90.90000 3.505
90.92000 3.563
90.94000 5.460
90.96000 4.283
90.98000 2.727
91.00000 3.628
91.02000 3.223
91.04000 0.008
91.06000 -2.263
91.08000 2.268
91.10000 4.118
91.12000 2.884
91.14000 3.197
91.16000 8.796
91.18000 6.965
91.20000 4.654
91.22000 2.953
91.24000 2.160
91.26000 1.267
91.28000 1.880
91.30000 4.007
91.32000 3.136
91.34000 1.250
91.36000 -1.513
91.38000 3.259
91.40000 0.600
91.42000 7.226
91.44000 7.722
91.46000 6.125
91.48000 0.983
91.50000 6.755
91.52000 6.774
91.54000 1.952
91.56000 4.610
91.58000 1.871
91.60000 0.614
91.62000 7.840
91.64000 5.858
91.66000 5.915
91.68000 9.377
91.70000 12.391
91.72000 8.935
91.74000 0.463
91.76000 0.263
91.78000 6.867
91.80000 6.593
91.82000 9.228
91.84000 4.358
91.86000 7.650
91.88000 4.463
91.90000 5.410
91.92000 5.023
91.94000 2.871
91.96000 3.767
91.98000 2.282
92.00000 6.376
92.02000 5.941
92.04000 8.101
92.06000 9.596
92.08000 5.162
92.10000 0.511
92.12000 2.014
92.14000 9.613
92.16000 7.876
92.18000 6.459
92.20000 8.502
92.22000 10.493
92.24000 4.557
92.26000 -2.189
92.28000 -1.140
92.30000 4.701
92.32000 2.692
92.34000 8.302
92.36000 11.959
92.38000 9.544
92.40000 7.756
92.42000 6.149
92.44000 5.453
92.46000 4.987
92.48000 4.814
92.50000 7.780
92.52000 8.999
92.54000 5.408
92.56000 9.358
92.58000 11.952
92.60000 6.291
92.62000 3.762
92.64000 1.033
92.66000 0.806
92.68000 2.785
92.70000 3.132
92.72000 1.024
92.74000 3.306
92.76000 2.695
92.78000 4.201
92.80000 2.069
92.82000 4.176
92.84000 5.142
92.86000 4.251
92.88000 4.419
92.90000 2.034
92.92000 2.359
92.94000 -0.335
92.96000 -0.466
92.98000 4.705
93.00000 3.213
93.02000 7.124
93.04000 7.176
93.06000 7.067
93.08000 1.890
93.10000 4.914
93.12000 6.055
93.14000 2.052
93.16000 2.210
93.18000 -2.240
93.20000 0.326
93.22000 4.935
93.24000 6.986
93.26000 1.632
93.28000 2.328
93.30000 4.625
93.32000 4.038
93.34000 6.639
93.36000 11.813
93.38000 7.692
93.40000 7.087
93.42000 6.488
93.44000 6.990
93.46000 7.015
93.48000 5.169
93.50000 0.439
93.52000 -0.682
93.54000 -2.010
93.56000 4.727
93.58000 6.597
93.60000 5.079
93.62000 5.392
93.64000 -0.886
93.66000 -0.192
93.68000 2.276
93.70000 4.225
93.72000 7.743
93.74000 7.231
93.76000 1.244
93.78000 1.614
93.80000 -2.254
93.82000 0.535
93.84000 6.130
93.86000 3.484
93.88000 4.338
93.90000 1.943
93.92000 1.572
93.94000 0.746
93.96000 3.211
93.98000 4.466
94.00000 9.565
94.02000 5.186
94.04000 1.672
94.06000 4.354
94.08000 6.602
94.10000 4.783
94.12000 6.563
94.14000 7.105
94.16000 3.290
94.18000 5.941
94.20000 4.496
94.22000 3.969
94.24000 6.126
94.26000 3.161
94.28000 4.334
94.30000 4.636
94.32000 2.392
94.34000 1.115
94.36000 1.508
94.38000 8.301
94.40000 6.003
94.42000 5.087
94.44000 1.237
94.46000 1.442
94.48000 5.237
94.50000 5.006
94.52000 5.840
94.54000 4.527
94.56000 3.127
94.58000 8.439
94.60000 11.814
94.62000 10.696
94.64000 10.527
94.66000 8.534
94.68000 7.229
94.70000 -1.250
94.72000 -1.865
94.74000 2.141
94.76000 8.782
94.78000 8.261
94.80000 9.681
94.82000 3.766
94.84000 4.640
94.86000 4.073
94.88000 3.596
94.90000 4.737
94.92000 2.228
94.94000 2.507
94.96000 11.832
94.98000 7.433
95.00000 -2.240
95.02000 -1.698
95.04000 2.138
95.06000 2.998
95.08000 5.109
95.10000 2.842
95.12000 4.151
95.14000 6.192
95.16000 7.830
95.18000 4.655
95.20000 3.031
95.22000 3.753
95.24000 4.370
95.26000 4.112
95.28000 2.451
95.30000 4.571
95.32000 7.763
95.34000 7.180
95.36000 7.052
95.38000 5.673
95.40000 7.513
95.42000 5.768
95.44000 5.335
95.46000 3.551
95.48000 1.525
95.50000 4.814
95.52000 5.224
95.54000 6.919
95.56000 3.849
95.58000 7.363
95.60000 5.993
95.62000 3.444
95.64000 4.549
95.66000 2.913
95.68000 4.504
95.70000 4.526
95.72000 5.789
95.74000 5.468
95.76000 3.655
95.78000 1.905
95.80000 5.701
95.82000 9.161
95.84000 9.608
95.86000 4.466
95.88000 4.481
95.90000 3.030
95.92000 -1.078
95.94000 -2.260
95.96000 4.440
95.98000 6.578
96.00000 5.992
96.02000 3.150
96.04000 4.171
96.06000 1.197
96.08000 9.492
96.10000 11.844
96.12000 11.153
96.14000 7.334
96.16000 7.475
96.18000 7.858
96.20000 10.141
96.22000 11.915
96.24000 7.337
96.26000 1.398
96.28000 8.418
96.30000 2.727
96.32000 5.087
96.34000 8.004
96.36000 6.049
96.38000 10.898
96.40000 7.726
96.42000 8.057
96.44000 8.281
96.46000 7.036
96.48000 8.944
96.50000 5.385
96.52000 2.703
96.54000 5.403
96.56000 -2.256
96.58000 4.537
96.60000 9.092
96.62000 0.618
96.64000 -1.680
96.66000 -0.063
96.68000 9.555
96.70000 14.026
96.72000 8.966
96.74000 5.969
96.76000 5.422
96.78000 5.578
96.80000 5.000
96.82000 4.683
96.84000 3.194
96.86000 4.430
96.88000 -1.524
96.90000 -0.431
96.92000 4.611
96.94000 9.850
96.96000 4.753
96.98000 0.894
97.00000 2.774
97.02000 5.006
97.04000 -0.709
97.06000 4.419
97.08000 7.987
97.10000 7.191
97.12000 3.623
97.14000 0.762
97.16000 7.771
97.18000 7.513
97.20000 4.086
97.22000 14.133
97.24000 5.874
97.26000 4.037
97.28000 4.569
97.30000 0.177
97.32000 -0.522
97.34000 4.959
97.36000 8.894
97.38000 8.851
97.40000 5.953
97.42000 5.869
97.44000 8.534
97.46000 11.089
97.48000 6.209
97.50000 7.296
97.52000 5.878
97.54000 9.890
97.56000 4.633
97.58000 1.848
97.60000 1.553
97.62000 2.776
97.64000 1.362
97.66000 5.072
97.68000 9.323
97.70000 9.484
97.72000 7.497
97.74000 6.991
97.76000 -2.074
97.78000 1.273
97.80000 3.518
97.82000 3.711
97.84000 -2.215
97.86000 5.914
97.88000 2.478
97.90000 7.403
97.92000 9.132
97.94000 6.614
97.96000 5.640
97.98000 4.715
98.00000 9.791
98.02000 12.738
98.04000 13.997
98.06000 16.119
98.08000 11.724
98.10000 4.297
98.12000 -0.275
98.14000 3.527
98.16000 -0.327
98.18000 10.027
98.20000 7.060
98.22000 5.020
98.24000 12.313
98.26000 6.787
98.28000 5.559
98.30000 12.402
98.32000 12.219
98.34000 -0.331
98.36000 1.508
98.38000 3.099
98.40000 6.726
98.42000 4.033
98.44000 -0.770
98.46000 2.614
98.48000 5.062
98.50000 5.915
98.52000 4.778
98.54000 3.163
98.56000 2.036
98.58000 -2.198
98.60000 3.299
98.62000 8.455
98.64000 6.542
98.66000 6.364
98.68000 2.619
98.70000 -1.913
98.72000 1.393
98.74000 7.421
98.76000 8.413
98.78000 7.686
98.80000 -2.970
98.82000 5.658
98.84000 7.970
98.86000 4.632
98.88000 4.868
98.90000 7.267
98.92000 5.241
98.94000 10.615
98.96000 5.268
98.98000 1.843
99.00000 8.920
99.02000 3.290
99.04000 3.508
99.06000 10.834
99.08000 8.644
99.10000 6.989
99.12000 3.071
99.14000 3.277
99.16000 15.065
99.18000 11.729
99.20000 10.788
99.22000 8.419
99.24000 6.275
99.26000 7.031
99.28000 10.305
99.30000 2.387
99.32000 17.813
99.34000 22.429
99.36000 12.628
99.38000 9.327
99.40000 6.701
99.42000 5.062
99.44000 13.195
99.46000 11.346
99.48000 6.440
99.50000 -2.156
99.52000 3.980
99.54000 11.647
99.56000 15.655
99.58000 15.933
99.60000 9.470
99.62000 8.185
99.64000 10.855
99.66000 9.483
99.68000 10.430
99.70000 18.164
99.72000 6.193
99.74000 0.186
99.76000 4.825
99.78000 -2.180
99.80000 0.731
99.82000 12.704
99.84000 8.369
99.86000 6.040
99.88000 3.975
99.90000 2.951
99.92000 -2.210
99.94000 1.189
99.96000 1.453
99.98000 0.000
