'Id: "0011388" Comment: "Integrate frame 0011388_Au-Ir-Rh_Rh-rich_XRD-Mapping-256-0000.gfrmwith cursor Wedge Cursor #5" Operator: "B?rgel" Anode: "Cu" Wavelength: "1.5406" Scantype: "2Theta (TwoTheta)" TimePerStep: "1" X: "27" Y: "18" Z: "5.95" 
10.00000 0.000
10.02000 2.951
10.04000 -7.872
10.06000 4.911
10.08000 8.862
10.10000 -0.233
10.12000 6.945
10.14000 14.831
10.16000 6.966
10.18000 8.611
10.20000 -2.093
10.22000 9.271
10.24000 4.579
10.26000 6.784
10.28000 23.683
10.30000 19.807
10.32000 15.856
10.34000 8.655
10.36000 28.725
10.38000 26.918
10.40000 19.815
10.42000 20.061
10.44000 23.416
10.46000 27.468
10.48000 27.757
10.50000 31.282
10.52000 32.757
10.54000 15.530
10.56000 23.255
10.58000 21.073
10.60000 19.589
10.62000 24.045
10.64000 22.642
10.66000 22.779
10.68000 23.685
10.70000 26.772
10.72000 10.970
10.74000 20.203
10.76000 20.007
10.78000 27.899
10.80000 34.373
10.82000 26.324
10.84000 22.657
10.86000 24.519
10.88000 19.500
10.90000 27.684
10.92000 13.087
10.94000 20.743
10.96000 26.084
10.98000 21.126
11.00000 13.691
11.02000 15.464
11.04000 18.156
11.06000 16.919
11.08000 11.812
11.10000 22.571
11.12000 23.990
11.14000 22.286
11.16000 21.037
11.18000 10.994
11.20000 23.342
11.22000 25.194
11.24000 28.688
11.26000 15.859
11.28000 11.534
11.30000 18.920
11.32000 23.717
11.34000 20.975
11.36000 11.649
11.38000 20.816
11.40000 19.369
11.42000 20.631
11.44000 37.453
11.46000 30.934
11.48000 19.819
11.50000 20.920
11.52000 25.235
11.54000 26.271
11.56000 24.135
11.58000 23.949
11.60000 28.489
11.62000 27.565
11.64000 25.537
11.66000 32.876
11.68000 33.742
11.70000 26.930
11.72000 26.786
11.74000 28.027
11.76000 26.777
11.78000 31.374
11.80000 29.427
11.82000 27.919
11.84000 27.552
11.86000 16.989
11.88000 15.000
11.90000 14.848
11.92000 29.088
11.94000 29.780
11.96000 27.726
11.98000 22.788
12.00000 21.399
12.02000 17.811
12.04000 24.902
12.06000 26.850
12.08000 31.183
12.10000 32.942
12.12000 27.928
12.14000 19.398
12.16000 21.743
12.18000 26.626
12.20000 29.827
12.22000 25.125
12.24000 30.184
12.26000 40.750
12.28000 27.837
12.30000 24.716
12.32000 33.094
12.34000 34.599
12.36000 26.000
12.38000 36.495
12.40000 34.782
12.42000 33.308
12.44000 16.206
12.46000 24.187
12.48000 41.479
12.50000 34.951
12.52000 29.249
12.54000 25.196
12.56000 26.504
12.58000 33.253
12.60000 30.538
12.62000 24.733
12.64000 32.667
12.66000 44.411
12.68000 27.669
12.70000 28.604
12.72000 31.837
12.74000 30.599
12.76000 23.592
12.78000 28.212
12.80000 32.720
12.82000 23.626
12.84000 31.818
12.86000 37.987
12.88000 34.584
12.90000 30.490
12.92000 29.834
12.94000 31.298
12.96000 23.862
12.98000 30.744
13.00000 28.410
13.02000 30.414
13.04000 31.282
13.06000 27.898
13.08000 30.109
13.10000 22.899
13.12000 13.529
13.14000 21.437
13.16000 27.120
13.18000 36.013
13.20000 34.559
13.22000 35.595
13.24000 41.194
13.26000 33.827
13.28000 24.822
13.30000 24.716
13.32000 20.143
13.34000 24.139
13.36000 28.234
13.38000 29.753
13.40000 29.318
13.42000 20.868
13.44000 18.603
13.46000 23.893
13.48000 21.122
13.50000 18.374
13.52000 23.869
13.54000 25.583
13.56000 29.695
13.58000 27.060
13.60000 25.690
13.62000 25.449
13.64000 24.015
13.66000 26.265
13.68000 31.450
13.70000 39.722
13.72000 36.731
13.74000 30.200
13.76000 36.788
13.78000 26.521
13.80000 31.108
13.82000 26.664
13.84000 23.909
13.86000 32.922
13.88000 35.260
13.90000 18.366
13.92000 17.494
13.94000 18.875
13.96000 18.965
13.98000 23.182
14.00000 21.944
14.02000 24.355
14.04000 24.328
14.06000 19.230
14.08000 14.889
14.10000 7.814
14.12000 21.969
14.14000 34.006
14.16000 27.818
14.18000 24.105
14.20000 22.105
14.22000 23.363
14.24000 32.600
14.26000 30.111
14.28000 21.291
14.30000 9.220
14.32000 5.268
14.34000 12.006
14.36000 21.416
14.38000 23.708
14.40000 16.748
14.42000 24.186
14.44000 28.766
14.46000 23.958
14.48000 23.784
14.50000 14.609
14.52000 14.118
14.54000 18.604
14.56000 24.090
14.58000 16.993
14.60000 22.346
14.62000 24.002
14.64000 12.893
14.66000 13.727
14.68000 26.985
14.70000 18.524
14.72000 12.973
14.74000 9.564
14.76000 11.362
14.78000 9.237
14.80000 19.401
14.82000 24.342
14.84000 16.699
14.86000 9.921
14.88000 22.298
14.90000 18.767
14.92000 26.682
14.94000 27.320
14.96000 19.817
14.98000 14.910
15.00000 21.463
15.02000 18.913
15.04000 11.149
15.06000 6.101
15.08000 17.296
15.10000 13.044
15.12000 10.137
15.14000 20.910
15.16000 20.030
15.18000 10.554
15.20000 10.276
15.22000 12.607
15.24000 9.287
15.26000 9.536
15.28000 12.177
15.30000 5.214
15.32000 7.375
15.34000 7.742
15.36000 12.427
15.38000 8.081
15.40000 4.571
15.42000 8.991
15.44000 14.860
15.46000 12.294
15.48000 20.765
15.50000 15.039
15.52000 12.100
15.54000 14.533
15.56000 12.437
15.58000 6.492
15.60000 8.344
15.62000 11.616
15.64000 10.551
15.66000 11.629
15.68000 17.399
15.70000 12.390
15.72000 12.043
15.74000 6.086
15.76000 11.046
15.78000 10.548
15.80000 9.124
15.82000 8.793
15.84000 13.190
15.86000 13.516
15.88000 13.362
15.90000 9.886
15.92000 11.652
15.94000 11.694
15.96000 11.192
15.98000 7.442
16.00000 -0.102
16.02000 5.482
16.04000 10.176
16.06000 5.777
16.08000 3.343
16.10000 9.185
16.12000 11.664
16.14000 9.295
16.16000 14.429
16.18000 7.967
16.20000 3.310
16.22000 7.869
16.24000 4.561
16.26000 1.630
16.28000 10.825
16.30000 10.515
16.32000 4.667
16.34000 10.293
16.36000 12.986
16.38000 10.644
16.40000 14.767
16.42000 5.086
16.44000 14.967
16.46000 13.441
16.48000 8.437
16.50000 9.106
16.52000 4.647
16.54000 3.778
16.56000 9.584
16.58000 3.829
16.60000 -4.417
16.62000 10.172
16.64000 9.709
16.66000 4.460
16.68000 7.084
16.70000 12.949
16.72000 6.897
16.74000 3.390
16.76000 7.596
16.78000 10.687
16.80000 3.554
16.82000 5.908
16.84000 7.214
16.86000 6.963
16.88000 1.561
16.90000 4.026
16.92000 5.951
16.94000 15.019
16.96000 16.285
16.98000 10.066
17.00000 6.738
17.02000 12.622
17.04000 13.617
17.06000 0.094
17.08000 2.566
17.10000 -2.185
17.12000 -0.670
17.14000 4.401
17.16000 1.495
17.18000 -0.147
17.20000 9.949
17.22000 13.638
17.24000 5.681
17.26000 2.069
17.28000 -3.826
17.30000 -1.534
17.32000 10.174
17.34000 11.876
17.36000 0.305
17.38000 13.315
17.40000 10.359
17.42000 3.844
17.44000 6.074
17.46000 7.302
17.48000 5.019
17.50000 9.381
17.52000 13.463
17.54000 7.769
17.56000 -0.448
17.58000 -1.893
17.60000 6.774
17.62000 8.892
17.64000 8.544
17.66000 6.649
17.68000 0.008
17.70000 7.677
17.72000 8.123
17.74000 6.517
17.76000 8.062
17.78000 4.713
17.80000 2.179
17.82000 0.823
17.84000 1.492
17.86000 -4.381
17.88000 -0.884
17.90000 8.965
17.92000 1.941
17.94000 2.022
17.96000 3.158
17.98000 2.917
18.00000 7.846
18.02000 7.967
18.04000 7.576
18.06000 8.647
18.08000 12.475
18.10000 3.935
18.12000 1.522
18.14000 -1.022
18.16000 -0.096
18.18000 9.772
18.20000 7.433
18.22000 1.553
18.24000 3.124
18.26000 0.325
18.28000 0.991
18.30000 4.615
18.32000 5.672
18.34000 9.377
18.36000 1.874
18.38000 1.940
18.40000 8.030
18.42000 8.015
18.44000 3.771
18.46000 7.477
18.48000 4.878
18.50000 5.407
18.52000 9.457
18.54000 9.086
18.56000 3.012
18.58000 0.466
18.60000 10.444
18.62000 1.449
18.64000 4.459
18.66000 3.144
18.68000 6.183
18.70000 8.290
18.72000 5.106
18.74000 8.382
18.76000 5.831
18.78000 -1.237
18.80000 -3.909
18.82000 -0.108
18.84000 2.701
18.86000 6.153
18.88000 10.633
18.90000 7.235
18.92000 5.128
18.94000 12.685
18.96000 1.703
18.98000 2.108
19.00000 3.246
19.02000 1.129
19.04000 3.954
19.06000 11.876
19.08000 15.389
19.10000 7.575
19.12000 12.414
19.14000 7.847
19.16000 9.500
19.18000 11.939
19.20000 6.856
19.22000 3.990
19.24000 1.538
19.26000 7.825
19.28000 0.492
19.30000 4.836
19.32000 13.291
19.34000 10.070
19.36000 8.049
19.38000 8.439
19.40000 4.497
19.42000 10.286
19.44000 4.831
19.46000 5.728
19.48000 6.052
19.50000 5.842
19.52000 4.436
19.54000 -2.256
19.56000 -4.238
19.58000 1.237
19.60000 1.814
19.62000 -2.066
19.64000 6.614
19.66000 6.049
19.68000 -0.152
19.70000 9.963
19.72000 6.247
19.74000 0.586
19.76000 5.473
19.78000 2.453
19.80000 0.459
19.82000 2.323
19.84000 5.252
19.86000 8.392
19.88000 10.403
19.90000 10.931
19.92000 6.781
19.94000 6.941
19.96000 10.166
19.98000 5.774
20.00000 4.539
20.02000 7.959
20.04000 6.230
20.06000 3.858
20.08000 6.983
20.10000 7.383
20.12000 4.319
20.14000 6.075
20.16000 3.777
20.18000 5.259
20.20000 2.363
20.22000 3.210
20.24000 5.509
20.26000 2.444
20.28000 0.528
20.30000 4.859
20.32000 7.571
20.34000 8.790
20.36000 7.319
20.38000 2.461
20.40000 2.219
20.42000 1.102
20.44000 1.977
20.46000 0.664
20.48000 2.828
20.50000 0.117
20.52000 5.253
20.54000 12.148
20.56000 9.630
20.58000 10.995
20.60000 6.030
20.62000 9.782
20.64000 6.431
20.66000 1.175
20.68000 3.978
20.70000 8.302
20.72000 11.847
20.74000 9.986
20.76000 11.793
20.78000 7.517
20.80000 4.728
20.82000 10.294
20.84000 10.872
20.86000 6.172
20.88000 3.434
20.90000 6.027
20.92000 6.018
20.94000 10.509
20.96000 10.320
20.98000 11.270
21.00000 9.386
21.02000 11.710
21.04000 3.309
21.06000 7.064
21.08000 12.406
21.10000 7.091
21.12000 1.461
21.14000 6.502
21.16000 5.226
21.18000 6.321
21.20000 6.989
21.22000 6.877
21.24000 5.258
21.26000 9.691
21.28000 9.209
21.30000 7.156
21.32000 13.256
21.34000 13.870
21.36000 8.886
21.38000 6.768
21.40000 11.465
21.42000 17.237
21.44000 3.353
21.46000 5.022
21.48000 7.817
21.50000 8.657
21.52000 9.881
21.54000 11.925
21.56000 3.215
21.58000 -4.096
21.60000 4.808
21.62000 9.556
21.64000 6.833
21.66000 3.309
21.68000 0.002
21.70000 10.312
21.72000 11.072
21.74000 5.594
21.76000 1.260
21.78000 8.875
21.80000 17.803
21.82000 20.095
21.84000 11.897
21.86000 9.113
21.88000 11.485
21.90000 10.130
21.92000 8.034
21.94000 11.820
21.96000 10.510
21.98000 15.068
22.00000 12.048
22.02000 12.723
22.04000 9.638
22.06000 2.587
22.08000 1.572
22.10000 1.854
22.12000 4.543
22.14000 3.426
22.16000 8.632
22.18000 12.455
22.20000 6.738
22.22000 2.351
22.24000 4.061
22.26000 7.983
22.28000 6.584
22.30000 8.610
22.32000 3.496
22.34000 2.555
22.36000 11.208
22.38000 6.703
22.40000 5.726
22.42000 13.207
22.44000 5.519
22.46000 1.251
22.48000 6.829
22.50000 5.512
22.52000 5.126
22.54000 6.257
22.56000 3.557
22.58000 6.232
22.60000 13.054
22.62000 16.038
22.64000 9.366
22.66000 4.033
22.68000 -0.850
22.70000 0.873
22.72000 3.550
22.74000 3.567
22.76000 3.751
22.78000 6.857
22.80000 5.355
22.82000 5.026
22.84000 5.876
22.86000 6.634
22.88000 6.069
22.90000 8.337
22.92000 10.470
22.94000 17.464
22.96000 9.665
22.98000 3.073
23.00000 4.657
23.02000 1.884
23.04000 6.007
23.06000 4.445
23.08000 7.222
23.10000 8.990
23.12000 1.434
23.14000 1.022
23.16000 3.213
23.18000 3.485
23.20000 2.188
23.22000 0.669
23.24000 6.256
23.26000 6.021
23.28000 8.377
23.30000 4.677
23.32000 4.799
23.34000 -2.485
23.36000 2.499
23.38000 6.042
23.40000 3.252
23.42000 8.402
23.44000 5.909
23.46000 5.235
23.48000 1.459
23.50000 2.045
23.52000 7.404
23.54000 6.260
23.56000 7.709
23.58000 3.301
23.60000 3.247
23.62000 3.370
23.64000 5.969
23.66000 6.018
23.68000 1.201
23.70000 4.690
23.72000 8.197
23.74000 6.168
23.76000 4.413
23.78000 4.776
23.80000 6.337
23.82000 0.627
23.84000 -1.547
23.86000 -2.184
23.88000 -4.028
23.90000 1.489
23.92000 3.849
23.94000 7.931
23.96000 7.570
23.98000 3.873
24.00000 0.621
24.02000 -0.853
24.04000 1.986
24.06000 1.924
24.08000 3.658
24.10000 0.081
24.12000 -0.544
24.14000 2.178
24.16000 0.881
24.18000 3.461
24.20000 0.310
24.22000 -1.701
24.24000 -1.241
24.26000 4.062
24.28000 5.985
24.30000 8.035
24.32000 -2.572
24.34000 -3.194
24.36000 2.837
24.38000 2.346
24.40000 4.801
24.42000 3.300
24.44000 1.840
24.46000 0.353
24.48000 4.781
24.50000 8.167
24.52000 4.404
24.54000 4.476
24.56000 7.752
24.58000 8.340
24.60000 8.822
24.62000 3.149
24.64000 0.158
24.66000 0.002
24.68000 2.656
24.70000 1.515
24.72000 1.856
24.74000 11.028
24.76000 7.197
24.78000 3.011
24.80000 4.048
24.82000 -2.322
24.84000 1.033
24.86000 7.342
24.88000 3.914
24.90000 -2.024
24.92000 -0.252
24.94000 11.906
24.96000 7.970
24.98000 2.508
25.00000 3.524
25.02000 6.710
25.04000 4.555
25.06000 6.013
25.08000 -1.626
25.10000 -2.816
25.12000 -3.963
25.14000 3.603
25.16000 3.033
25.18000 1.693
25.20000 0.477
25.22000 4.172
25.24000 6.621
25.26000 13.012
25.28000 10.870
25.30000 7.093
25.32000 1.244
25.34000 2.840
25.36000 4.850
25.38000 5.566
25.40000 9.772
25.42000 4.567
25.44000 0.740
25.46000 6.956
25.48000 6.261
25.50000 4.095
25.52000 7.594
25.54000 8.622
25.56000 9.899
25.58000 5.039
25.60000 2.064
25.62000 8.699
25.64000 9.681
25.66000 3.272
25.68000 -0.181
25.70000 -0.278
25.72000 6.092
25.74000 6.832
25.76000 2.788
25.78000 3.478
25.80000 6.009
25.82000 5.299
25.84000 3.750
25.86000 4.461
25.88000 -0.299
25.90000 0.287
25.92000 4.825
25.94000 9.159
25.96000 4.348
25.98000 -0.068
26.00000 1.848
26.02000 2.793
26.04000 3.344
26.06000 2.267
26.08000 3.566
26.10000 -0.891
26.12000 -0.523
26.14000 1.433
26.16000 -1.707
26.18000 -0.443
26.20000 7.764
26.22000 2.035
26.24000 8.126
26.26000 5.839
26.28000 5.027
26.30000 -1.446
26.32000 -3.900
26.34000 3.787
26.36000 6.096
26.38000 6.802
26.40000 3.354
26.42000 2.859
26.44000 1.161
26.46000 0.612
26.48000 2.240
26.50000 1.131
26.52000 3.360
26.54000 3.923
26.56000 -0.481
26.58000 -2.397
26.60000 0.881
26.62000 1.362
26.64000 4.223
26.66000 11.147
26.68000 9.131
26.70000 -1.415
26.72000 0.500
26.74000 5.884
26.76000 3.016
26.78000 -0.154
26.80000 0.738
26.82000 6.004
26.84000 6.491
26.86000 3.713
26.88000 2.597
26.90000 1.514
26.92000 5.576
26.94000 9.028
26.96000 3.310
26.98000 1.822
27.00000 3.897
27.02000 11.282
27.04000 9.350
27.06000 6.308
27.08000 -0.595
27.10000 -3.851
27.12000 2.672
27.14000 4.037
27.16000 3.107
27.18000 2.046
27.20000 -0.631
27.22000 1.494
27.24000 -0.947
27.26000 4.313
27.28000 6.652
27.30000 6.796
27.32000 6.145
27.34000 4.892
27.36000 5.935
27.38000 1.246
27.40000 8.136
27.42000 4.385
27.44000 5.574
27.46000 -1.597
27.48000 -2.972
27.50000 4.675
27.52000 4.783
27.54000 4.355
27.56000 2.508
27.58000 2.722
27.60000 1.905
27.62000 2.181
27.64000 7.308
27.66000 -0.271
27.68000 2.892
27.70000 -1.552
27.72000 -2.059
27.74000 6.599
27.76000 7.251
27.78000 10.051
27.80000 9.545
27.82000 4.421
27.84000 1.761
27.86000 4.412
27.88000 4.962
27.90000 4.807
27.92000 2.921
27.94000 3.677
27.96000 3.706
27.98000 -0.055
28.00000 5.411
28.02000 4.309
28.04000 3.742
28.06000 4.154
28.08000 4.909
28.10000 5.341
28.12000 5.242
28.14000 3.814
28.16000 7.269
28.18000 3.088
28.20000 7.011
28.22000 3.769
28.24000 6.140
28.26000 6.118
28.28000 2.269
28.30000 3.676
28.32000 4.125
28.34000 -0.461
28.36000 -3.801
28.38000 0.796
28.40000 4.272
28.42000 3.114
28.44000 3.401
28.46000 2.788
28.48000 6.082
28.50000 -0.083
28.52000 2.506
28.54000 5.391
28.56000 6.452
28.58000 3.436
28.60000 -0.424
28.62000 1.216
28.64000 4.170
28.66000 4.643
28.68000 6.324
28.70000 6.917
28.72000 1.887
28.74000 4.445
28.76000 10.488
28.78000 6.222
28.80000 4.265
28.82000 8.117
28.84000 9.890
28.86000 4.962
28.88000 5.219
28.90000 4.073
28.92000 6.993
28.94000 6.647
28.96000 4.060
28.98000 4.855
29.00000 2.417
29.02000 -2.177
29.04000 -2.156
29.06000 0.631
29.08000 -3.756
29.10000 1.180
29.12000 0.897
29.14000 0.318
29.16000 6.105
29.18000 5.161
29.20000 5.296
29.22000 3.268
29.24000 8.222
29.26000 6.270
29.28000 6.021
29.30000 0.938
29.32000 3.811
29.34000 10.217
29.36000 4.216
29.38000 -1.350
29.40000 -2.944
29.42000 1.857
29.44000 3.091
29.46000 5.055
29.48000 5.178
29.50000 7.065
29.52000 4.786
29.54000 -1.830
29.56000 0.844
29.58000 3.120
29.60000 5.310
29.62000 3.256
29.64000 -0.567
29.66000 0.436
29.68000 1.719
29.70000 2.539
29.72000 7.584
29.74000 3.373
29.76000 0.476
29.78000 -0.859
29.80000 -3.720
29.82000 1.373
29.84000 2.818
29.86000 2.392
29.88000 0.046
29.90000 3.899
29.92000 3.005
29.94000 -2.344
29.96000 4.275
29.98000 4.657
30.00000 2.092
30.02000 -3.207
30.04000 -0.871
30.06000 1.990
30.08000 3.905
30.10000 4.293
30.12000 0.380
30.14000 3.346
30.16000 1.529
30.18000 2.972
30.20000 0.811
30.22000 2.988
30.24000 7.610
30.26000 7.165
30.28000 0.632
30.30000 -2.172
30.32000 2.336
30.34000 2.654
30.36000 0.770
30.38000 2.099
30.40000 -0.656
30.42000 -0.099
30.44000 4.619
30.46000 2.728
30.48000 2.520
30.50000 -0.165
30.52000 0.201
30.54000 3.932
30.56000 6.709
30.58000 11.090
30.60000 7.068
30.62000 -0.073
30.64000 0.609
30.66000 4.765
30.68000 4.095
30.70000 0.236
30.72000 0.472
30.74000 5.855
30.76000 0.583
30.78000 6.199
30.80000 5.396
30.82000 8.170
30.84000 8.280
30.86000 4.271
30.88000 5.651
30.90000 1.888
30.92000 0.012
30.94000 3.279
30.96000 8.359
30.98000 3.524
31.00000 1.600
31.02000 3.447
31.04000 2.820
31.06000 -0.087
31.08000 -0.786
31.10000 -3.661
31.12000 0.507
31.14000 2.206
31.16000 5.502
31.18000 7.004
31.20000 3.225
31.22000 -1.699
31.24000 -3.107
31.26000 1.412
31.28000 -0.551
31.30000 -2.598
31.32000 -0.708
31.34000 -2.454
31.36000 3.921
31.38000 4.175
31.40000 2.908
31.42000 2.647
31.44000 3.005
31.46000 5.880
31.48000 5.484
31.50000 1.013
31.52000 -3.648
31.54000 3.532
31.56000 6.218
31.58000 3.870
31.60000 1.677
31.62000 0.125
31.64000 -2.015
31.66000 0.802
31.68000 0.546
31.70000 0.262
31.72000 3.940
31.74000 4.573
31.76000 2.905
31.78000 -0.001
31.80000 0.204
31.82000 -0.274
31.84000 0.094
31.86000 1.111
31.88000 3.470
31.90000 1.240
31.92000 1.168
31.94000 7.775
31.96000 3.913
31.98000 6.081
32.00000 2.241
32.02000 4.113
32.04000 3.033
32.06000 -2.055
32.08000 2.465
32.10000 3.322
32.12000 -1.963
32.14000 -1.259
32.16000 -1.026
32.18000 2.457
32.20000 3.858
32.22000 4.209
32.24000 -0.697
32.26000 1.506
32.28000 0.789
32.30000 -0.537
32.32000 -2.294
32.34000 -0.230
32.36000 2.431
32.38000 2.277
32.40000 0.654
32.42000 -0.725
32.44000 0.590
32.46000 -1.362
32.48000 -2.989
32.50000 -1.706
32.52000 2.325
32.54000 4.381
32.56000 1.566
32.58000 -0.667
32.60000 -3.177
32.62000 2.151
32.64000 7.981
32.66000 6.055
32.68000 -1.361
32.70000 -2.777
32.72000 0.080
32.74000 2.258
32.76000 2.007
32.78000 2.000
32.80000 2.505
32.82000 1.435
32.84000 0.680
32.86000 2.506
32.88000 -0.401
32.90000 2.027
32.92000 -0.874
32.94000 2.683
32.96000 4.112
32.98000 -0.126
33.00000 -2.073
33.02000 -0.216
33.04000 -2.097
33.06000 -1.329
33.08000 3.830
33.10000 4.142
33.12000 2.462
33.14000 -0.348
33.16000 1.620
33.18000 -0.644
33.20000 -3.618
33.22000 3.794
33.24000 3.565
33.26000 2.795
33.28000 5.545
33.30000 2.804
33.32000 3.594
33.34000 5.501
33.36000 2.995
33.38000 2.432
33.40000 2.302
33.42000 -1.753
33.44000 1.087
33.46000 2.700
33.48000 0.651
33.50000 0.699
33.52000 2.433
33.54000 1.036
33.56000 7.483
33.58000 0.687
33.60000 0.085
33.62000 -0.552
33.64000 1.956
33.66000 2.701
33.68000 4.177
33.70000 0.960
33.72000 3.465
33.74000 2.271
33.76000 0.970
33.78000 -0.893
33.80000 3.709
33.82000 0.773
33.84000 -3.598
33.86000 0.188
33.88000 4.653
33.90000 8.064
33.92000 0.011
33.94000 -1.212
33.96000 1.323
33.98000 1.816
34.00000 5.954
34.02000 -1.214
34.04000 -1.697
34.06000 -1.918
34.08000 3.123
34.10000 3.512
34.12000 5.137
34.14000 6.518
34.16000 7.052
34.18000 6.094
34.20000 5.134
34.22000 4.277
34.24000 1.398
34.26000 8.488
34.28000 10.112
34.30000 8.609
34.32000 6.842
34.34000 6.269
34.36000 3.669
34.38000 4.305
34.40000 7.932
34.42000 4.350
34.44000 2.607
34.46000 -1.347
34.48000 1.712
34.50000 3.583
34.52000 4.795
34.54000 4.142
34.56000 5.037
34.58000 4.908
34.60000 3.733
34.62000 3.409
34.64000 2.273
34.66000 0.998
34.68000 4.454
34.70000 2.231
34.72000 5.029
34.74000 3.730
34.76000 -0.994
34.78000 0.436
34.80000 2.238
34.82000 4.715
34.84000 4.692
34.86000 9.011
34.88000 5.475
34.90000 0.158
34.92000 -3.552
34.94000 2.679
34.96000 4.344
34.98000 3.416
35.00000 2.363
35.02000 6.477
35.04000 6.278
35.06000 1.544
35.08000 2.102
35.10000 3.088
35.12000 7.527
35.14000 1.525
35.16000 -0.077
35.18000 2.158
35.20000 6.773
35.22000 8.861
35.24000 8.162
35.26000 3.782
35.28000 5.030
35.30000 2.235
35.32000 1.653
35.34000 5.917
35.36000 7.438
35.38000 6.083
35.40000 7.248
35.42000 6.643
35.44000 7.293
35.46000 7.760
35.48000 3.756
35.50000 2.467
35.52000 5.907
35.54000 6.740
35.56000 4.723
35.58000 3.443
35.60000 3.289
35.62000 3.858
35.64000 6.104
35.66000 7.408
35.68000 1.173
35.70000 1.292
35.72000 -0.892
35.74000 -3.511
35.76000 0.604
35.78000 6.387
35.80000 3.523
35.82000 1.944
35.84000 -1.082
35.86000 2.769
35.88000 2.445
35.90000 3.295
35.92000 5.309
35.94000 1.979
35.96000 0.262
35.98000 -0.361
36.00000 3.297
36.02000 3.067
36.04000 0.178
36.06000 1.143
36.08000 1.433
36.10000 2.241
36.12000 4.630
36.14000 9.867
36.16000 9.454
36.18000 3.534
36.20000 2.360
36.22000 4.386
36.24000 7.115
36.26000 2.162
36.28000 1.124
36.30000 2.138
36.32000 1.078
36.34000 0.519
36.36000 6.332
36.38000 3.748
36.40000 -0.031
36.42000 0.915
36.44000 -0.983
36.46000 0.488
36.48000 3.089
36.50000 0.980
36.52000 1.009
36.54000 2.541
36.56000 1.582
36.58000 2.289
36.60000 7.393
36.62000 5.878
36.64000 5.906
36.66000 -1.385
36.68000 -3.581
36.70000 0.588
36.72000 2.052
36.74000 5.786
36.76000 4.106
36.78000 3.401
36.80000 4.447
36.82000 3.030
36.84000 2.705
36.86000 -0.572
36.88000 -2.188
36.90000 1.141
36.92000 0.729
36.94000 -2.275
36.96000 -3.603
36.98000 1.443
37.00000 3.584
37.02000 2.182
37.04000 3.037
37.06000 3.398
37.08000 -0.393
37.10000 1.927
37.12000 5.482
37.14000 3.590
37.16000 0.115
37.18000 1.155
37.20000 6.127
37.22000 3.951
37.24000 -0.808
37.26000 -3.224
37.28000 -3.580
37.30000 2.118
37.32000 2.355
37.34000 -1.705
37.36000 -3.631
37.38000 -2.160
37.40000 -1.272
37.42000 -1.104
37.44000 -0.914
37.46000 -1.125
37.48000 -1.995
37.50000 1.326
37.52000 -3.543
37.54000 -1.793
37.56000 1.441
37.58000 1.423
37.60000 1.799
37.62000 6.591
37.64000 5.864
37.66000 4.844
37.68000 2.955
37.70000 5.403
37.72000 9.275
37.74000 3.626
37.76000 -3.113
37.78000 2.855
37.80000 6.598
37.82000 3.605
37.84000 3.953
37.86000 3.473
37.88000 2.560
37.90000 -0.654
37.92000 3.396
37.94000 4.273
37.96000 4.168
37.98000 3.936
38.00000 -0.526
38.02000 4.671
38.04000 12.259
38.06000 10.634
38.08000 10.166
38.10000 11.458
38.12000 12.090
38.14000 11.179
38.16000 10.293
38.18000 4.575
38.20000 2.394
38.22000 12.898
38.24000 13.209
38.26000 12.580
38.28000 10.984
38.30000 9.303
38.32000 10.775
38.34000 15.454
38.36000 16.422
38.38000 12.361
38.40000 11.782
38.42000 6.683
38.44000 10.381
38.46000 17.565
38.48000 22.585
38.50000 20.770
38.52000 17.534
38.54000 12.043
38.56000 9.847
38.58000 16.333
38.60000 15.423
38.62000 15.508
38.64000 21.273
38.66000 21.305
38.68000 22.606
38.70000 26.724
38.72000 19.616
38.74000 21.527
38.76000 27.120
38.78000 27.418
38.80000 28.683
38.82000 25.093
38.84000 24.524
38.86000 24.691
38.88000 26.571
38.90000 31.008
38.92000 32.148
38.94000 31.421
38.96000 34.337
38.98000 27.935
39.00000 27.111
39.02000 33.262
39.04000 33.817
39.06000 34.131
39.08000 34.644
39.10000 37.648
39.12000 38.883
39.14000 38.566
39.16000 46.661
39.18000 44.959
39.20000 43.767
39.22000 45.731
39.24000 49.013
39.26000 50.160
39.28000 53.712
39.30000 59.917
39.32000 63.531
39.34000 63.918
39.36000 63.696
39.38000 65.308
39.40000 71.055
39.42000 69.873
39.44000 72.889
39.46000 81.667
39.48000 78.375
39.50000 77.512
39.52000 89.974
39.54000 94.879
39.56000 92.535
39.58000 100.615
39.60000 108.766
39.62000 110.494
39.64000 115.445
39.66000 122.315
39.68000 128.244
39.70000 130.638
39.72000 147.855
39.74000 155.801
39.76000 157.579
39.78000 162.888
39.80000 170.036
39.82000 180.373
39.84000 186.390
39.86000 191.442
39.88000 208.928
39.90000 216.328
39.92000 223.943
39.94000 232.145
39.96000 240.265
39.98000 248.762
40.00000 257.795
40.02000 275.686
40.04000 294.098
40.06000 306.445
40.08000 315.347
40.10000 340.866
40.12000 359.337
40.14000 371.483
40.16000 382.320
40.18000 392.149
40.20000 415.132
40.22000 436.896
40.24000 458.014
40.26000 466.392
40.28000 478.356
40.30000 506.182
40.32000 516.819
40.34000 530.376
40.36000 550.484
40.38000 569.676
40.40000 585.009
40.42000 599.622
40.44000 607.592
40.46000 626.842
40.48000 630.680
40.50000 636.177
40.52000 643.011
40.54000 651.199
40.56000 660.005
40.58000 668.421
40.60000 672.733
40.62000 661.808
40.64000 660.953
40.66000 669.013
40.68000 642.587
40.70000 629.509
40.72000 619.770
40.74000 625.686
40.76000 614.066
40.78000 603.627
40.80000 591.008
40.82000 575.212
40.84000 563.755
40.86000 540.077
40.88000 506.263
40.90000 490.216
40.92000 475.002
40.94000 474.947
40.96000 460.599
40.98000 439.338
41.00000 416.785
41.02000 396.823
41.04000 375.624
41.06000 359.289
41.08000 340.751
41.10000 318.904
41.12000 308.405
41.14000 297.898
41.16000 283.986
41.18000 266.434
41.20000 263.399
41.22000 250.521
41.24000 234.690
41.26000 220.338
41.28000 209.606
41.30000 197.463
41.32000 188.533
41.34000 183.315
41.36000 171.489
41.38000 159.960
41.40000 147.633
41.42000 136.241
41.44000 127.436
41.46000 122.327
41.48000 125.298
41.50000 114.837
41.52000 104.857
41.54000 99.413
41.56000 101.230
41.58000 97.807
41.60000 89.375
41.62000 81.079
41.64000 73.234
41.66000 80.226
41.68000 78.629
41.70000 71.329
41.72000 67.205
41.74000 64.090
41.76000 59.188
41.78000 51.647
41.80000 54.168
41.82000 58.510
41.84000 49.718
41.86000 49.401
41.88000 46.845
41.90000 39.192
41.92000 38.552
41.94000 37.749
41.96000 38.327
41.98000 34.281
42.00000 35.392
42.02000 34.470
42.04000 24.608
42.06000 25.524
42.08000 28.334
42.10000 22.627
42.12000 23.024
42.14000 23.934
42.16000 20.821
42.18000 19.249
42.20000 24.380
42.22000 24.587
42.24000 19.747
42.26000 20.879
42.28000 21.133
42.30000 18.186
42.32000 13.899
42.34000 15.120
42.36000 13.189
42.38000 14.786
42.40000 15.265
42.42000 11.745
42.44000 11.619
42.46000 14.577
42.48000 9.172
42.50000 11.348
42.52000 14.890
42.54000 8.111
42.56000 2.533
42.58000 5.702
42.60000 8.604
42.62000 5.904
42.64000 6.194
42.66000 6.341
42.68000 9.069
42.70000 8.431
42.72000 7.864
42.74000 1.769
42.76000 3.054
42.78000 0.319
42.80000 1.001
42.82000 -0.124
42.84000 0.907
42.86000 2.769
42.88000 3.725
42.90000 2.061
42.92000 3.240
42.94000 4.692
42.96000 1.861
42.98000 -1.959
43.00000 4.237
43.02000 3.398
43.04000 4.590
43.06000 0.352
43.08000 -3.645
43.10000 0.409
43.12000 0.087
43.14000 2.013
43.16000 -0.261
43.18000 -0.221
43.20000 0.741
43.22000 0.690
43.24000 2.066
43.26000 2.766
43.28000 3.521
43.30000 3.745
43.32000 -1.885
43.34000 -3.609
43.36000 3.149
43.38000 4.043
43.40000 1.827
43.42000 2.975
43.44000 2.984
43.46000 0.430
43.48000 0.494
43.50000 2.269
43.52000 3.050
43.54000 0.209
43.56000 3.190
43.58000 0.274
43.60000 -0.792
43.62000 3.099
43.64000 1.892
43.66000 -0.620
43.68000 -1.961
43.70000 -0.839
43.72000 -0.523
43.74000 0.514
43.76000 -2.821
43.78000 -0.849
43.80000 -0.015
43.82000 -1.222
43.84000 1.010
43.86000 -0.429
43.88000 -1.322
43.90000 3.040
43.92000 1.105
43.94000 -1.523
43.96000 -0.824
43.98000 0.166
44.00000 2.072
44.02000 4.558
44.04000 3.527
44.06000 -1.069
44.08000 -1.739
44.10000 -2.597
44.12000 -2.519
44.14000 1.097
44.16000 -0.842
44.18000 4.085
44.20000 2.414
44.22000 -1.721
44.24000 4.148
44.26000 6.374
44.28000 -2.756
44.30000 -2.829
44.32000 -1.489
44.34000 -0.746
44.36000 -3.536
44.38000 -0.099
44.40000 1.860
44.42000 2.622
44.44000 3.453
44.46000 -1.312
44.48000 -1.314
44.50000 -0.337
44.52000 -1.192
44.54000 -2.835
44.56000 -3.516
44.58000 1.825
44.60000 3.649
44.62000 7.908
44.64000 7.995
44.66000 -0.005
44.68000 -0.736
44.70000 3.838
44.72000 2.499
44.74000 -0.159
44.76000 9.430
44.78000 9.082
44.80000 3.866
44.82000 3.600
44.84000 1.024
44.86000 -3.524
44.88000 -2.530
44.90000 1.727
44.92000 -1.021
44.94000 1.212
44.96000 2.804
44.98000 1.477
45.00000 -3.365
45.02000 -1.374
45.04000 2.699
45.06000 5.476
45.08000 3.642
45.10000 4.429
45.12000 0.740
45.14000 0.962
45.16000 5.575
45.18000 5.683
45.20000 3.083
45.22000 -0.220
45.24000 1.527
45.26000 7.609
45.28000 2.560
45.30000 5.022
45.32000 2.065
45.34000 4.915
45.36000 6.144
45.38000 5.341
45.40000 3.669
45.42000 7.540
45.44000 12.449
45.46000 14.461
45.48000 15.981
45.50000 8.813
45.52000 7.616
45.54000 4.511
45.56000 9.785
45.58000 7.885
45.60000 4.690
45.62000 9.965
45.64000 13.901
45.66000 15.750
45.68000 19.947
45.70000 12.658
45.72000 10.006
45.74000 13.024
45.76000 16.105
45.78000 20.974
45.80000 18.717
45.82000 16.860
45.84000 21.429
45.86000 18.441
45.88000 13.496
45.90000 18.058
45.92000 16.922
45.94000 20.636
45.96000 22.087
45.98000 24.616
46.00000 28.850
46.02000 24.360
46.04000 25.668
46.06000 26.829
46.08000 24.221
46.10000 24.064
46.12000 21.730
46.14000 31.549
46.16000 31.786
46.18000 25.605
46.20000 27.615
46.22000 31.582
46.24000 36.464
46.26000 37.281
46.28000 37.364
46.30000 38.911
46.32000 38.002
46.34000 27.603
46.36000 27.878
46.38000 35.221
46.40000 36.360
46.42000 42.223
46.44000 44.046
46.46000 45.707
46.48000 43.097
46.50000 44.190
46.52000 46.521
46.54000 48.339
46.56000 50.368
46.58000 53.722
46.60000 57.551
46.62000 54.027
46.64000 45.377
46.66000 56.234
46.68000 53.185
46.70000 57.656
46.72000 56.900
46.74000 60.023
46.76000 56.520
46.78000 72.078
46.80000 74.981
46.82000 68.207
46.84000 66.900
46.86000 76.275
46.88000 70.606
46.90000 76.295
46.92000 75.175
46.94000 78.108
46.96000 76.376
46.98000 69.743
47.00000 73.545
47.02000 76.316
47.04000 81.581
47.06000 75.527
47.08000 75.738
47.10000 81.905
47.12000 74.038
47.14000 74.210
47.16000 74.306
47.18000 77.427
47.20000 76.767
47.22000 72.069
47.24000 70.795
47.26000 67.883
47.28000 79.047
47.30000 78.999
47.32000 70.780
47.34000 66.043
47.36000 67.934
47.38000 73.003
47.40000 76.171
47.42000 70.426
47.44000 70.035
47.46000 69.430
47.48000 69.520
47.50000 67.662
47.52000 68.305
47.54000 62.294
47.56000 57.133
47.58000 62.817
47.60000 66.802
47.62000 63.308
47.64000 58.893
47.66000 52.039
47.68000 53.791
47.70000 49.521
47.72000 46.428
47.74000 47.626
47.76000 44.212
47.78000 41.115
47.80000 44.834
47.82000 53.137
47.84000 55.260
47.86000 44.443
47.88000 38.298
47.90000 41.610
47.92000 39.336
47.94000 33.350
47.96000 40.159
47.98000 37.132
48.00000 32.254
48.02000 30.747
48.04000 26.393
48.06000 23.942
48.08000 22.469
48.10000 22.731
48.12000 24.430
48.14000 23.796
48.16000 24.584
48.18000 21.270
48.20000 17.473
48.22000 20.161
48.24000 22.017
48.26000 18.424
48.28000 16.189
48.30000 15.812
48.32000 16.515
48.34000 18.548
48.36000 18.928
48.38000 10.190
48.40000 11.575
48.42000 11.506
48.44000 13.826
48.46000 11.214
48.48000 11.734
48.50000 14.289
48.52000 11.390
48.54000 9.247
48.56000 7.514
48.58000 5.328
48.60000 7.344
48.62000 4.512
48.64000 3.387
48.66000 7.604
48.68000 6.080
48.70000 13.018
48.72000 15.286
48.74000 13.077
48.76000 9.958
48.78000 9.091
48.80000 5.305
48.82000 0.397
48.84000 2.857
48.86000 6.235
48.88000 8.250
48.90000 8.743
48.92000 10.794
48.94000 7.622
48.96000 0.906
48.98000 4.463
49.00000 5.910
49.02000 2.072
49.04000 -1.421
49.06000 -0.186
49.08000 2.297
49.10000 9.414
49.12000 10.442
49.14000 4.116
49.16000 6.225
49.18000 8.830
49.20000 4.939
49.22000 4.671
49.24000 -2.175
49.26000 -2.229
49.28000 1.920
49.30000 5.005
49.32000 9.061
49.34000 4.200
49.36000 6.532
49.38000 1.941
49.40000 1.320
49.42000 4.145
49.44000 5.898
49.46000 4.347
49.48000 7.344
49.50000 2.811
49.52000 -3.095
49.54000 5.060
49.56000 10.454
49.58000 9.926
49.60000 5.765
49.62000 5.685
49.64000 3.872
49.66000 1.089
49.68000 4.537
49.70000 2.516
49.72000 10.331
49.74000 8.483
49.76000 10.315
49.78000 6.740
49.80000 8.197
49.82000 8.394
49.84000 6.893
49.86000 3.307
49.88000 0.655
49.90000 1.239
49.92000 4.629
49.94000 4.603
49.96000 2.966
49.98000 4.701
50.00000 6.347
50.02000 4.538
50.04000 5.499
50.06000 3.149
50.08000 3.910
50.10000 3.913
50.12000 0.691
50.14000 -3.058
50.16000 -0.709
50.18000 2.935
50.20000 8.230
50.22000 6.878
50.24000 1.777
50.26000 1.644
50.28000 0.685
50.30000 4.260
50.32000 7.697
50.34000 5.599
50.36000 2.058
50.38000 3.359
50.40000 -1.559
50.42000 -1.022
50.44000 -3.042
50.46000 3.310
50.48000 3.937
50.50000 2.808
50.52000 4.368
50.54000 3.622
50.56000 3.658
50.58000 4.609
50.60000 2.464
50.62000 0.244
50.64000 2.217
50.66000 5.654
50.68000 1.263
50.70000 4.722
50.72000 5.297
50.74000 4.061
50.76000 -1.226
50.78000 1.745
50.80000 10.848
50.82000 10.536
50.84000 9.951
50.86000 4.108
50.88000 1.683
50.90000 5.600
50.92000 7.113
50.94000 6.322
50.96000 1.154
50.98000 0.241
51.00000 2.255
51.02000 4.266
51.04000 3.634
51.06000 -2.570
51.08000 4.178
51.10000 9.590
51.12000 0.412
51.14000 -0.427
51.16000 2.800
51.18000 4.715
51.20000 0.276
51.22000 0.799
51.24000 1.295
51.26000 6.893
51.28000 3.169
51.30000 1.029
51.32000 0.834
51.34000 3.448
51.36000 6.317
51.38000 9.379
51.40000 7.494
51.42000 4.407
51.44000 2.781
51.46000 5.402
51.48000 8.408
51.50000 12.036
51.52000 8.555
51.54000 5.639
51.56000 6.220
51.58000 2.825
51.60000 1.022
51.62000 4.171
51.64000 0.830
51.66000 5.212
51.68000 10.635
51.70000 7.486
51.72000 3.659
51.74000 7.672
51.76000 8.831
51.78000 5.010
51.80000 6.786
51.82000 3.574
51.84000 0.766
51.86000 -2.972
51.88000 -0.671
51.90000 2.951
51.92000 3.170
51.94000 3.692
51.96000 1.176
51.98000 0.065
52.00000 -0.267
52.02000 0.615
52.04000 0.346
52.06000 3.241
52.08000 1.368
52.10000 5.627
52.12000 3.765
52.14000 -0.039
52.16000 0.249
52.18000 2.400
52.20000 8.524
52.22000 6.090
52.24000 2.447
52.26000 -2.252
52.28000 0.069
52.30000 -0.349
52.32000 -2.648
52.34000 2.190
52.36000 8.075
52.38000 7.526
52.40000 6.596
52.42000 3.180
52.44000 4.500
52.46000 2.758
52.48000 -0.640
52.50000 0.640
52.52000 3.015
52.54000 0.072
52.56000 2.471
52.58000 -0.885
52.60000 3.540
52.62000 4.554
52.64000 7.253
52.66000 8.171
52.68000 5.748
52.70000 5.342
52.72000 3.337
52.74000 1.439
52.76000 0.953
52.78000 -2.303
52.80000 -1.466
52.82000 1.196
52.84000 5.971
52.86000 5.891
52.88000 1.420
52.90000 -2.784
52.92000 -2.953
52.94000 -2.007
52.96000 0.257
52.98000 2.730
53.00000 -0.526
53.02000 1.653
53.04000 -1.414
53.06000 -0.479
53.08000 5.251
53.10000 5.504
53.12000 7.126
53.14000 9.710
53.16000 5.606
53.18000 1.708
53.20000 -0.408
53.22000 -2.951
53.24000 2.588
53.26000 6.821
53.28000 7.931
53.30000 2.280
53.32000 3.256
53.34000 1.980
53.36000 1.005
53.38000 1.744
53.40000 2.630
53.42000 3.311
53.44000 2.693
53.46000 3.195
53.48000 -1.650
53.50000 1.569
53.52000 -0.143
53.54000 1.328
53.56000 0.040
53.58000 0.292
53.60000 3.252
53.62000 2.092
53.64000 -0.043
53.66000 -2.210
53.68000 0.052
53.70000 4.074
53.72000 2.650
53.74000 1.762
53.76000 -0.848
53.78000 3.473
53.80000 2.885
53.82000 3.734
53.84000 1.060
53.86000 -1.979
53.88000 4.621
53.90000 2.644
53.92000 2.095
53.94000 4.203
53.96000 -2.286
53.98000 1.279
54.00000 0.900
54.02000 0.722
54.04000 3.277
54.06000 5.872
54.08000 4.956
54.10000 4.523
54.12000 2.541
54.14000 4.769
54.16000 5.096
54.18000 0.838
54.20000 -0.497
54.22000 1.021
54.24000 8.214
54.26000 7.219
54.28000 5.368
54.30000 4.497
54.32000 3.223
54.34000 0.112
54.36000 3.235
54.38000 6.970
54.40000 1.947
54.42000 -0.135
54.44000 2.797
54.46000 3.681
54.48000 3.493
54.50000 0.853
54.52000 3.265
54.54000 2.911
54.56000 3.645
54.58000 3.657
54.60000 3.880
54.62000 -2.881
54.64000 3.013
54.66000 4.122
54.68000 4.020
54.70000 5.530
54.72000 6.546
54.74000 9.469
54.76000 2.383
54.78000 0.326
54.80000 2.932
54.82000 -0.554
54.84000 1.953
54.86000 6.241
54.88000 6.603
54.90000 3.434
54.92000 2.543
54.94000 2.239
54.96000 3.015
54.98000 1.383
55.00000 2.513
55.02000 0.831
55.04000 0.885
55.06000 4.049
55.08000 3.514
55.10000 -2.870
55.12000 1.750
55.14000 1.981
55.16000 1.218
55.18000 6.743
55.20000 10.557
55.22000 4.699
55.24000 2.539
55.26000 3.624
55.28000 6.996
55.30000 6.173
55.32000 4.378
55.34000 0.159
55.36000 -2.863
55.38000 3.282
55.40000 2.351
55.42000 1.211
55.44000 -0.324
55.46000 2.503
55.48000 9.566
55.50000 8.777
55.52000 9.615
55.54000 10.872
55.56000 8.326
55.58000 2.389
55.60000 7.218
55.62000 6.979
55.64000 3.147
55.66000 9.033
55.68000 6.604
55.70000 5.041
55.72000 5.105
55.74000 7.701
55.76000 8.116
55.78000 5.299
55.80000 4.893
55.82000 3.931
55.84000 5.020
55.86000 1.839
55.88000 0.767
55.90000 6.302
55.92000 6.094
55.94000 2.653
55.96000 -2.098
55.98000 2.949
56.00000 5.053
56.02000 5.644
56.04000 5.557
56.06000 4.572
56.08000 2.232
56.10000 -0.763
56.12000 -2.822
56.14000 4.323
56.16000 5.610
56.18000 4.299
56.20000 5.134
56.22000 -0.750
56.24000 0.457
56.26000 3.283
56.28000 3.217
56.30000 -1.661
56.32000 0.708
56.34000 3.933
56.36000 0.847
56.38000 1.590
56.40000 4.639
56.42000 4.672
56.44000 6.797
56.46000 9.092
56.48000 6.547
56.50000 2.227
56.52000 -0.750
56.54000 4.459
56.56000 3.050
56.58000 1.648
56.60000 4.336
56.62000 1.170
56.64000 -0.846
56.66000 1.755
56.68000 0.177
56.70000 2.284
56.72000 2.013
56.74000 4.630
56.76000 3.276
56.78000 -1.780
56.80000 3.211
56.82000 2.730
56.84000 0.479
56.86000 0.656
56.88000 -2.826
56.90000 0.503
56.92000 -1.289
56.94000 2.204
56.96000 4.832
56.98000 -0.494
57.00000 -2.531
57.02000 0.084
57.04000 1.977
57.06000 2.820
57.08000 0.373
57.10000 3.870
57.12000 -0.879
57.14000 -0.628
57.16000 0.756
57.18000 2.344
57.20000 2.399
57.22000 2.352
57.24000 2.865
57.26000 0.189
57.28000 -2.133
57.30000 3.913
57.32000 5.805
57.34000 8.168
57.36000 6.381
57.38000 1.035
57.40000 6.553
57.42000 5.349
57.44000 3.327
57.46000 2.011
57.48000 5.785
57.50000 9.107
57.52000 4.627
57.54000 4.028
57.56000 1.478
57.58000 2.860
57.60000 1.061
57.62000 -2.805
57.64000 3.379
57.66000 6.322
57.68000 3.019
57.70000 3.846
57.72000 2.403
57.74000 2.996
57.76000 5.354
57.78000 4.760
57.80000 6.738
57.82000 8.473
57.84000 6.866
57.86000 4.321
57.88000 7.760
57.90000 3.224
57.92000 1.516
57.94000 2.740
57.96000 6.396
57.98000 5.882
58.00000 2.736
58.02000 1.532
58.04000 2.765
58.06000 -2.789
58.08000 0.618
58.10000 7.215
58.12000 3.747
58.14000 2.352
58.16000 0.927
58.18000 4.614
58.20000 3.544
58.22000 -0.274
58.24000 6.627
58.26000 8.610
58.28000 8.188
58.30000 2.682
58.32000 4.460
58.34000 7.025
58.36000 0.649
58.38000 1.698
58.40000 7.233
58.42000 7.887
58.44000 6.002
58.46000 3.167
58.48000 6.755
58.50000 4.634
58.52000 5.074
58.54000 7.483
58.56000 0.718
58.58000 0.354
58.60000 2.350
58.62000 2.649
58.64000 3.785
58.66000 5.052
58.68000 3.561
58.70000 3.366
58.72000 5.039
58.74000 4.974
58.76000 3.828
58.78000 1.639
58.80000 -2.765
58.82000 0.516
58.84000 6.383
58.86000 7.707
58.88000 3.585
58.90000 3.344
58.92000 2.238
58.94000 3.826
58.96000 -0.635
58.98000 3.167
59.00000 4.804
59.02000 3.666
59.04000 1.813
59.06000 0.804
59.08000 3.720
59.10000 4.260
59.12000 2.205
59.14000 6.895
59.16000 6.669
59.18000 4.374
59.20000 2.699
59.22000 0.587
59.24000 3.815
59.26000 10.797
59.28000 7.778
59.30000 0.914
59.32000 -0.166
59.34000 2.356
59.36000 9.045
59.38000 7.929
59.40000 8.465
59.42000 3.330
59.44000 1.248
59.46000 0.426
59.48000 -2.026
59.50000 -0.282
59.52000 -0.009
59.54000 3.597
59.56000 7.447
59.58000 2.489
59.60000 1.801
59.62000 4.166
59.64000 1.705
59.66000 2.795
59.68000 2.545
59.70000 2.307
59.72000 1.194
59.74000 2.888
59.76000 4.859
59.78000 5.172
59.80000 9.290
59.82000 4.229
59.84000 2.569
59.86000 3.731
59.88000 2.549
59.90000 -2.712
59.92000 -0.656
59.94000 6.528
59.96000 8.168
59.98000 3.430
60.00000 -1.840
60.02000 4.969
60.04000 2.634
60.06000 4.101
60.08000 2.425
60.10000 -1.354
60.12000 2.012
60.14000 1.421
60.16000 -0.271
60.18000 0.756
60.20000 0.440
60.22000 -0.902
60.24000 -0.783
60.26000 5.391
60.28000 6.628
60.30000 4.549
60.32000 1.316
60.34000 2.174
60.36000 0.430
60.38000 4.618
60.40000 9.760
60.42000 6.746
60.44000 2.564
60.46000 2.281
60.48000 5.009
60.50000 1.837
60.52000 4.032
60.54000 7.408
60.56000 8.122
60.58000 6.411
60.60000 3.121
60.62000 0.990
60.64000 -2.700
60.66000 -2.432
60.68000 -0.282
60.70000 2.342
60.72000 1.617
60.74000 2.150
60.76000 1.869
60.78000 7.226
60.80000 5.768
60.82000 6.825
60.84000 4.982
60.86000 -0.021
60.88000 1.871
60.90000 2.407
60.92000 6.179
60.94000 2.939
60.96000 4.070
60.98000 5.571
61.00000 6.213
61.02000 0.438
61.04000 -2.685
61.06000 3.670
61.08000 9.807
61.10000 4.438
61.12000 1.796
61.14000 4.525
61.16000 3.486
61.18000 3.180
61.20000 3.749
61.22000 0.675
61.24000 0.356
61.26000 1.291
61.28000 1.588
61.30000 -1.475
61.32000 3.885
61.34000 7.117
61.36000 5.740
61.38000 10.233
61.40000 7.601
61.42000 6.863
61.44000 3.216
61.46000 6.772
61.48000 0.890
61.50000 -2.666
61.52000 1.746
61.54000 3.261
61.56000 0.945
61.58000 2.714
61.60000 1.868
61.62000 3.812
61.64000 4.641
61.66000 7.389
61.68000 6.612
61.70000 4.042
61.72000 1.196
61.74000 1.737
61.76000 1.679
61.78000 5.361
61.80000 2.377
61.82000 2.301
61.84000 4.183
61.86000 2.244
61.88000 6.723
61.90000 5.493
61.92000 5.525
61.94000 4.319
61.96000 6.337
61.98000 2.841
62.00000 4.442
62.02000 2.809
62.04000 5.432
62.06000 4.501
62.08000 1.350
62.10000 1.310
62.12000 4.336
62.14000 2.662
62.16000 3.012
62.18000 -0.646
62.20000 -2.647
62.22000 3.489
62.24000 1.715
62.26000 0.714
62.28000 2.453
62.30000 -1.370
62.32000 0.391
62.34000 1.737
62.36000 3.336
62.38000 1.498
62.40000 2.925
62.42000 2.180
62.44000 3.401
62.46000 7.147
62.48000 5.390
62.50000 -0.707
62.52000 0.979
62.54000 2.728
62.56000 4.868
62.58000 0.482
62.60000 2.512
62.62000 2.216
62.64000 1.857
62.66000 1.765
62.68000 7.270
62.70000 5.304
62.72000 4.585
62.74000 0.063
62.76000 -0.143
62.78000 0.264
62.80000 2.561
62.82000 1.458
62.84000 0.600
62.86000 3.685
62.88000 3.248
62.90000 4.748
62.92000 7.210
62.94000 5.063
62.96000 1.880
62.98000 2.868
63.00000 6.813
63.02000 2.119
63.04000 -0.232
63.06000 -0.867
63.08000 2.176
63.10000 3.318
63.12000 5.460
63.14000 3.286
63.16000 3.657
63.18000 4.689
63.20000 3.854
63.22000 3.056
63.24000 3.311
63.26000 3.013
63.28000 4.030
63.30000 0.186
63.32000 -1.658
63.34000 -2.645
63.36000 -2.597
63.38000 2.731
63.40000 1.722
63.42000 8.056
63.44000 10.045
63.46000 11.220
63.48000 8.723
63.50000 1.955
63.52000 -0.589
63.54000 0.557
63.56000 1.600
63.58000 4.387
63.60000 3.199
63.62000 0.764
63.64000 9.930
63.66000 5.861
63.68000 3.702
63.70000 4.759
63.72000 6.920
63.74000 2.932
63.76000 3.446
63.78000 2.249
63.80000 2.751
63.82000 4.398
63.84000 -0.011
63.86000 -2.616
63.88000 2.908
63.90000 2.758
63.92000 8.770
63.94000 7.013
63.96000 4.233
63.98000 0.368
64.00000 4.265
64.02000 6.390
64.04000 4.359
64.06000 5.158
64.08000 5.296
64.10000 -1.722
64.12000 -0.503
64.14000 4.292
64.16000 4.980
64.18000 2.016
64.20000 4.820
64.22000 6.138
64.24000 3.041
64.26000 2.542
64.28000 5.681
64.30000 3.514
64.32000 2.213
64.34000 3.231
64.36000 1.996
64.38000 -0.693
64.40000 4.011
64.42000 0.522
64.44000 1.627
64.46000 1.718
64.48000 3.563
64.50000 0.268
64.52000 0.422
64.54000 0.570
64.56000 2.262
64.58000 3.414
64.60000 3.736
64.62000 1.808
64.64000 1.693
64.66000 3.870
64.68000 3.091
64.70000 4.804
64.72000 7.473
64.74000 6.425
64.76000 4.498
64.78000 4.417
64.80000 3.340
64.82000 6.549
64.84000 3.879
64.86000 3.932
64.88000 3.705
64.90000 4.996
64.92000 2.179
64.94000 0.131
64.96000 -1.281
64.98000 -2.638
65.00000 1.355
65.02000 1.444
65.04000 1.913
65.06000 7.433
65.08000 8.553
65.10000 5.252
65.12000 4.363
65.14000 1.197
65.16000 1.735
65.18000 4.372
65.20000 1.081
65.22000 -0.860
65.24000 -1.069
65.26000 3.095
65.28000 5.167
65.30000 6.588
65.32000 4.030
65.34000 2.601
65.36000 1.125
65.38000 0.085
65.40000 3.719
65.42000 5.508
65.44000 4.107
65.46000 3.007
65.48000 1.442
65.50000 3.698
65.52000 3.161
65.54000 3.703
65.56000 2.282
65.58000 1.378
65.60000 -0.389
65.62000 2.887
65.64000 2.919
65.66000 -2.673
65.68000 0.117
65.70000 -2.472
65.72000 1.310
65.74000 3.338
65.76000 5.388
65.78000 2.640
65.80000 -1.052
65.82000 -0.132
65.84000 0.195
65.86000 0.035
65.88000 -0.272
65.90000 1.341
65.92000 -2.562
65.94000 -1.876
65.96000 3.124
65.98000 5.281
66.00000 3.952
66.02000 3.589
66.04000 2.060
66.06000 0.771
66.08000 0.530
66.10000 -2.085
66.12000 0.206
66.14000 2.597
66.16000 4.312
66.18000 0.661
66.20000 -1.722
66.22000 0.627
66.24000 0.274
66.26000 3.056
66.28000 0.714
66.30000 1.456
66.32000 3.014
66.34000 3.288
66.36000 6.440
66.38000 5.732
66.40000 3.638
66.42000 2.287
66.44000 2.047
66.46000 2.430
66.48000 0.433
66.50000 -2.675
66.52000 -1.677
66.54000 1.087
66.56000 8.355
66.58000 5.129
66.60000 1.633
66.62000 3.827
66.64000 0.859
66.66000 -0.076
66.68000 -0.163
66.70000 1.349
66.72000 2.845
66.74000 5.341
66.76000 5.519
66.78000 4.899
66.80000 3.976
66.82000 5.358
66.84000 2.389
66.86000 2.935
66.88000 1.060
66.90000 1.817
66.92000 -2.712
66.94000 -1.718
66.96000 1.543
66.98000 7.351
67.00000 7.493
67.02000 1.837
67.04000 0.275
67.06000 1.798
67.08000 1.041
67.10000 -0.347
67.12000 -1.468
67.14000 2.109
67.16000 1.033
67.18000 0.562
67.20000 -0.194
67.22000 -0.349
67.24000 -0.405
67.26000 5.452
67.28000 6.399
67.30000 6.352
67.32000 3.142
67.34000 3.882
67.36000 1.888
67.38000 1.748
67.40000 4.378
67.42000 4.487
67.44000 3.556
67.46000 6.496
67.48000 3.972
67.50000 1.624
67.52000 0.668
67.54000 -0.525
67.56000 1.394
67.58000 3.720
67.60000 5.334
67.62000 4.999
67.64000 5.220
67.66000 7.092
67.68000 6.954
67.70000 4.444
67.72000 4.492
67.74000 9.475
67.76000 8.711
67.78000 7.603
67.80000 11.075
67.82000 11.648
67.84000 5.522
67.86000 1.178
67.88000 6.479
67.90000 7.945
67.92000 7.710
67.94000 10.810
67.96000 8.890
67.98000 5.687
68.00000 7.215
68.02000 5.889
68.04000 8.128
68.06000 10.667
68.08000 13.721
68.10000 13.235
68.12000 12.446
68.14000 14.242
68.16000 13.949
68.18000 9.517
68.20000 10.986
68.22000 12.000
68.24000 14.416
68.26000 15.800
68.28000 15.786
68.30000 15.140
68.32000 12.597
68.34000 13.960
68.36000 16.550
68.38000 16.742
68.40000 16.902
68.42000 15.729
68.44000 20.490
68.46000 22.885
68.48000 19.277
68.50000 22.952
68.52000 24.223
68.54000 22.224
68.56000 19.705
68.58000 16.943
68.60000 18.146
68.62000 21.421
68.64000 22.792
68.66000 25.047
68.68000 23.748
68.70000 20.976
68.72000 23.060
68.74000 31.368
68.76000 28.202
68.78000 28.978
68.80000 28.223
68.82000 30.877
68.84000 32.096
68.86000 34.940
68.88000 31.863
68.90000 25.685
68.92000 32.316
68.94000 31.146
68.96000 34.313
68.98000 31.739
69.00000 32.633
69.02000 33.783
69.04000 29.960
69.06000 30.734
69.08000 27.452
69.10000 30.800
69.12000 33.001
69.14000 35.450
69.16000 30.247
69.18000 26.991
69.20000 27.319
69.22000 29.809
69.24000 26.130
69.26000 27.753
69.28000 26.125
69.30000 26.221
69.32000 25.699
69.34000 25.487
69.36000 24.146
69.38000 23.377
69.40000 26.256
69.42000 20.786
69.44000 22.587
69.46000 25.988
69.48000 25.027
69.50000 24.598
69.52000 21.426
69.54000 20.557
69.56000 21.189
69.58000 15.737
69.60000 19.353
69.62000 22.181
69.64000 23.195
69.66000 17.890
69.68000 20.797
69.70000 20.377
69.72000 18.913
69.74000 15.180
69.76000 8.739
69.78000 8.457
69.80000 7.384
69.82000 11.426
69.84000 14.797
69.86000 8.968
69.88000 9.207
69.90000 9.575
69.92000 9.720
69.94000 13.125
69.96000 11.281
69.98000 2.963
70.00000 4.856
70.02000 3.570
70.04000 4.628
70.06000 4.955
70.08000 3.426
70.10000 1.043
70.12000 0.856
70.14000 7.492
70.16000 5.157
70.18000 5.490
70.20000 4.284
70.22000 4.535
70.24000 4.073
70.26000 2.878
70.28000 7.330
70.30000 3.726
70.32000 4.083
70.34000 6.525
70.36000 5.074
70.38000 3.422
70.40000 3.698
70.42000 3.158
70.44000 1.654
70.46000 1.375
70.48000 0.043
70.50000 -0.068
70.52000 0.416
70.54000 2.402
70.56000 2.283
70.58000 1.859
70.60000 1.268
70.62000 4.227
70.64000 0.297
70.66000 -2.625
70.68000 -1.850
70.70000 -1.151
70.72000 0.034
70.74000 -0.422
70.76000 9.600
70.78000 4.796
70.80000 3.396
70.82000 5.789
70.84000 4.593
70.86000 2.784
70.88000 6.319
70.90000 4.690
70.92000 2.327
70.94000 4.603
70.96000 3.791
70.98000 3.002
71.00000 -1.199
71.02000 -0.338
71.04000 0.621
71.06000 -2.593
71.08000 -0.425
71.10000 1.402
71.12000 1.063
71.14000 -1.191
71.16000 1.097
71.18000 7.352
71.20000 5.392
71.22000 1.499
71.24000 2.037
71.26000 -0.229
71.28000 0.075
71.30000 1.074
71.32000 3.441
71.34000 5.774
71.36000 3.612
71.38000 3.409
71.40000 2.754
71.42000 5.411
71.44000 3.377
71.46000 -1.410
71.48000 -1.656
71.50000 5.770
71.52000 3.740
71.54000 4.994
71.56000 2.894
71.58000 3.226
71.60000 -1.647
71.62000 1.899
71.64000 4.295
71.66000 5.081
71.68000 2.556
71.70000 1.875
71.72000 2.129
71.74000 -0.262
71.76000 -2.322
71.78000 -0.161
71.80000 -1.122
71.82000 1.906
71.84000 4.714
71.86000 -0.584
71.88000 -1.340
71.90000 4.340
71.92000 5.683
71.94000 -0.018
71.96000 -2.496
71.98000 4.811
72.00000 1.551
72.02000 -0.349
72.04000 3.229
72.06000 4.070
72.08000 7.171
72.10000 3.600
72.12000 0.118
72.14000 -0.077
72.16000 0.828
72.18000 5.131
72.20000 4.544
72.22000 4.409
72.24000 5.140
72.26000 4.188
72.28000 7.241
72.30000 8.067
72.32000 6.455
72.34000 1.198
72.36000 2.297
72.38000 3.747
72.40000 5.223
72.42000 4.268
72.44000 -2.247
72.46000 -0.953
72.48000 -2.473
72.50000 1.046
72.52000 2.265
72.54000 1.145
72.56000 -1.041
72.58000 -0.080
72.60000 1.320
72.62000 2.312
72.64000 5.970
72.66000 7.814
72.68000 4.836
72.70000 4.656
72.72000 3.380
72.74000 3.712
72.76000 2.967
72.78000 1.710
72.80000 -1.238
72.82000 3.269
72.84000 5.221
72.86000 1.546
72.88000 7.640
72.90000 4.465
72.92000 3.295
72.94000 2.111
72.96000 1.261
72.98000 6.097
73.00000 2.084
73.02000 0.147
73.04000 0.582
73.06000 2.469
73.08000 2.540
73.10000 3.206
73.12000 3.667
73.14000 1.874
73.16000 1.228
73.18000 5.358
73.20000 1.934
73.22000 2.020
73.24000 2.825
73.26000 1.851
73.28000 -1.297
73.30000 -0.766
73.32000 1.650
73.34000 3.016
73.36000 3.774
73.38000 1.583
73.40000 2.438
73.42000 4.709
73.44000 4.984
73.46000 3.784
73.48000 -0.493
73.50000 0.334
73.52000 2.304
73.54000 3.577
73.56000 4.610
73.58000 5.767
73.60000 0.167
73.62000 -1.490
73.64000 0.243
73.66000 -2.462
73.68000 -0.971
73.70000 1.113
73.72000 3.431
73.74000 0.696
73.76000 0.576
73.78000 1.424
73.80000 -1.042
73.82000 1.066
73.84000 3.583
73.86000 3.884
73.88000 8.604
73.90000 5.204
73.92000 -2.447
73.94000 0.319
73.96000 -0.493
73.98000 -1.530
74.00000 0.696
74.02000 4.331
74.04000 3.035
74.06000 4.801
74.08000 2.483
74.10000 -0.955
74.12000 5.604
74.14000 9.586
74.16000 4.112
74.18000 1.743
74.20000 3.122
74.22000 5.748
74.24000 1.144
74.26000 6.196
74.28000 1.038
74.30000 2.523
74.32000 4.284
74.34000 0.633
74.36000 2.602
74.38000 0.872
74.40000 -2.461
74.42000 -1.854
74.44000 2.181
74.46000 0.724
74.48000 3.673
74.50000 4.192
74.52000 0.589
74.54000 3.404
74.56000 5.457
74.58000 2.430
74.60000 1.011
74.62000 2.236
74.64000 4.814
74.66000 2.662
74.68000 -0.527
74.70000 1.693
74.72000 6.913
74.74000 4.016
74.76000 7.576
74.78000 4.020
74.80000 0.547
74.82000 1.729
74.84000 -1.372
74.86000 6.681
74.88000 4.685
74.90000 1.278
74.92000 -2.464
74.94000 -1.580
74.96000 1.966
74.98000 0.156
75.00000 -2.457
75.02000 -1.794
75.04000 -2.094
75.06000 -1.938
75.08000 0.150
75.10000 0.569
75.12000 1.718
75.14000 -0.931
75.16000 0.637
75.18000 0.921
75.20000 5.646
75.22000 7.056
75.24000 1.258
75.26000 -1.942
75.28000 -0.209
75.30000 5.558
75.32000 -0.847
75.34000 3.722
75.36000 7.314
75.38000 3.799
75.40000 2.552
75.42000 2.111
75.44000 4.088
75.46000 0.331
75.48000 3.607
75.50000 1.317
75.52000 0.212
75.54000 0.239
75.56000 0.829
75.58000 3.311
75.60000 -0.212
75.62000 -1.362
75.64000 2.460
75.66000 0.150
75.68000 3.164
75.70000 4.258
75.72000 5.903
75.74000 4.074
75.76000 3.334
75.78000 8.042
75.80000 2.289
75.82000 0.203
75.84000 3.833
75.86000 7.440
75.88000 6.313
75.90000 4.811
75.92000 -0.396
75.94000 0.587
75.96000 2.603
75.98000 0.294
76.00000 -0.012
76.02000 0.384
76.04000 0.672
76.06000 1.024
76.08000 4.685
76.10000 2.634
76.12000 6.638
76.14000 4.971
76.16000 5.780
76.18000 7.803
76.20000 3.642
76.22000 5.736
76.24000 7.974
76.26000 5.774
76.28000 6.357
76.30000 7.443
76.32000 1.663
76.34000 -2.414
76.36000 3.115
76.38000 4.087
76.40000 3.271
76.42000 4.263
76.44000 5.519
76.46000 4.254
76.48000 4.064
76.50000 2.988
76.52000 3.766
76.54000 4.871
76.56000 6.828
76.58000 5.314
76.60000 3.818
76.62000 3.788
76.64000 3.341
76.66000 1.734
76.68000 5.154
76.70000 6.692
76.72000 1.583
76.74000 3.218
76.76000 0.419
76.78000 2.137
76.80000 2.009
76.82000 8.782
76.84000 10.078
76.86000 5.613
76.88000 5.195
76.90000 5.126
76.92000 3.904
76.94000 -2.021
76.96000 2.402
76.98000 7.603
77.00000 2.851
77.02000 1.535
77.04000 4.182
77.06000 3.117
77.08000 3.987
77.10000 6.629
77.12000 3.462
77.14000 4.079
77.16000 5.619
77.18000 1.103
77.20000 1.339
77.22000 4.796
77.24000 -0.794
77.26000 -2.460
77.28000 3.824
77.30000 3.634
77.32000 2.946
77.34000 -0.062
77.36000 0.036
77.38000 4.272
77.40000 3.650
77.42000 2.347
77.44000 -0.233
77.46000 5.487
77.48000 6.071
77.50000 4.249
77.52000 -0.318
77.54000 4.838
77.56000 4.834
77.58000 7.983
77.60000 11.159
77.62000 8.259
77.64000 2.723
77.66000 4.310
77.68000 2.264
77.70000 -0.021
77.72000 -0.237
77.74000 1.685
77.76000 1.574
77.78000 -0.176
77.80000 0.695
77.82000 1.992
77.84000 1.199
77.86000 1.534
77.88000 3.009
77.90000 11.006
77.92000 9.664
77.94000 8.947
77.96000 1.146
77.98000 -0.163
78.00000 2.734
78.02000 5.855
78.04000 1.311
78.06000 1.577
78.08000 3.606
78.10000 6.433
78.12000 0.822
78.14000 -0.072
78.16000 1.761
78.18000 6.574
78.20000 1.586
78.22000 4.488
78.24000 8.132
78.26000 3.428
78.28000 -2.448
78.30000 -2.038
78.32000 -0.255
78.34000 4.577
78.36000 8.203
78.38000 8.902
78.40000 8.101
78.42000 7.686
78.44000 3.486
78.46000 5.877
78.48000 3.593
78.50000 6.084
78.52000 6.301
78.54000 6.432
78.56000 3.705
78.58000 5.354
78.60000 0.817
78.62000 1.567
78.64000 3.594
78.66000 7.230
78.68000 12.361
78.70000 9.637
78.72000 5.932
78.74000 7.321
78.76000 5.607
78.78000 -2.469
78.80000 5.107
78.82000 8.439
78.84000 8.006
78.86000 5.515
78.88000 5.308
78.90000 3.230
78.92000 8.936
78.94000 6.234
78.96000 3.362
78.98000 6.253
79.00000 7.943
79.02000 6.099
79.04000 6.435
79.06000 7.932
79.08000 10.008
79.10000 5.949
79.12000 7.603
79.14000 5.723
79.16000 5.779
79.18000 3.290
79.20000 2.815
79.22000 4.601
79.24000 4.264
79.26000 5.684
79.28000 1.114
79.30000 4.212
79.32000 5.525
79.34000 4.649
79.36000 -0.724
79.38000 1.970
79.40000 3.209
79.42000 3.599
79.44000 5.830
79.46000 4.963
79.48000 0.044
79.50000 3.022
79.52000 2.547
79.54000 -1.508
79.56000 0.300
79.58000 2.298
79.60000 2.417
79.62000 0.245
79.64000 -2.378
79.66000 0.115
79.68000 1.093
79.70000 -0.342
79.72000 -1.157
79.74000 -0.803
79.76000 -0.006
79.78000 3.691
79.80000 5.555
79.82000 6.450
79.84000 9.538
79.86000 6.028
79.88000 6.673
79.90000 5.087
79.92000 0.862
79.94000 2.532
79.96000 1.508
79.98000 3.227
80.00000 0.928
80.02000 3.571
80.04000 4.502
80.06000 7.656
80.08000 3.405
80.10000 1.334
80.12000 5.122
80.14000 2.733
80.16000 0.096
80.18000 -1.940
80.20000 -0.915
80.22000 3.143
80.24000 -2.520
80.26000 0.724
80.28000 2.781
80.30000 2.240
80.32000 1.458
80.34000 4.745
80.36000 4.434
80.38000 0.503
80.40000 -1.614
80.42000 2.927
80.44000 3.501
80.46000 2.391
80.48000 3.143
80.50000 4.258
80.52000 5.602
80.54000 4.272
80.56000 4.900
80.58000 7.669
80.60000 5.958
80.62000 6.002
80.64000 5.954
80.66000 3.966
80.68000 2.566
80.70000 5.108
80.72000 4.295
80.74000 2.791
80.76000 6.046
80.78000 8.585
80.80000 3.252
80.82000 3.206
80.84000 3.724
80.86000 3.854
80.88000 2.464
80.90000 -0.291
80.92000 0.225
80.94000 -0.113
80.96000 7.178
80.98000 2.052
81.00000 -2.570
81.02000 -0.363
81.04000 -0.845
81.06000 9.387
81.08000 11.129
81.10000 4.809
81.12000 2.536
81.14000 -0.414
81.16000 -1.975
81.18000 -0.223
81.20000 2.431
81.22000 0.322
81.24000 -2.594
81.26000 6.087
81.28000 4.543
81.30000 4.812
81.32000 4.147
81.34000 1.371
81.36000 3.201
81.38000 7.316
81.40000 7.099
81.42000 7.945
81.44000 8.246
81.46000 9.429
81.48000 1.843
81.50000 1.578
81.52000 4.154
81.54000 2.568
81.56000 8.358
81.58000 8.758
81.60000 3.465
81.62000 3.585
81.64000 4.393
81.66000 8.535
81.68000 7.244
81.70000 7.565
81.72000 3.061
81.74000 7.245
81.76000 3.566
81.78000 4.256
81.80000 7.115
81.82000 10.416
81.84000 9.194
81.86000 13.209
81.88000 6.763
81.90000 6.600
81.92000 7.034
81.94000 10.513
81.96000 8.715
81.98000 7.443
82.00000 11.260
82.02000 17.318
82.04000 9.410
82.06000 9.866
82.08000 15.737
82.10000 11.535
82.12000 7.995
82.14000 6.332
82.16000 6.398
82.18000 12.251
82.20000 13.638
82.22000 14.935
82.24000 14.991
82.26000 16.409
82.28000 13.605
82.30000 6.702
82.32000 11.207
82.34000 13.074
82.36000 10.685
82.38000 15.955
82.40000 18.612
82.42000 17.141
82.44000 15.528
82.46000 15.327
82.48000 17.273
82.50000 17.681
82.52000 13.474
82.54000 15.630
82.56000 10.379
82.58000 14.247
82.60000 16.963
82.62000 16.163
82.64000 14.446
82.66000 15.330
82.68000 19.325
82.70000 21.618
82.72000 20.321
82.74000 26.200
82.76000 25.301
82.78000 23.662
82.80000 22.904
82.82000 24.701
82.84000 16.480
82.86000 18.318
82.88000 20.604
82.90000 26.015
82.92000 23.842
82.94000 20.934
82.96000 19.231
82.98000 24.334
83.00000 29.481
83.02000 26.788
83.04000 29.036
83.06000 29.798
83.08000 28.069
83.10000 26.556
83.12000 27.775
83.14000 29.190
83.16000 28.573
83.18000 27.397
83.20000 32.493
83.22000 33.417
83.24000 30.597
83.26000 32.294
83.28000 29.572
83.30000 32.054
83.32000 30.883
83.34000 28.050
83.36000 30.612
83.38000 27.383
83.40000 25.913
83.42000 32.690
83.44000 30.322
83.46000 34.962
83.48000 35.884
83.50000 37.952
83.52000 32.880
83.54000 26.520
83.56000 30.939
83.58000 32.477
83.60000 32.972
83.62000 38.391
83.64000 31.852
83.66000 29.332
83.68000 23.044
83.70000 25.679
83.72000 24.458
83.74000 25.586
83.76000 22.012
83.78000 25.145
83.80000 28.150
83.82000 28.364
83.84000 29.341
83.86000 24.594
83.88000 22.158
83.90000 28.203
83.92000 31.887
83.94000 23.030
83.96000 17.623
83.98000 16.820
84.00000 20.707
84.02000 27.605
84.04000 22.981
84.06000 18.533
84.08000 15.080
84.10000 22.318
84.12000 19.462
84.14000 14.340
84.16000 14.145
84.18000 13.553
84.20000 17.337
84.22000 16.736
84.24000 17.491
84.26000 17.529
84.28000 17.213
84.30000 16.778
84.32000 17.101
84.34000 17.727
84.36000 17.441
84.38000 10.418
84.40000 11.891
84.42000 12.321
84.44000 12.917
84.46000 13.920
84.48000 9.717
84.50000 9.942
84.52000 10.979
84.54000 6.260
84.56000 7.644
84.58000 4.275
84.60000 7.729
84.62000 8.010
84.64000 13.100
84.66000 9.589
84.68000 9.111
84.70000 9.401
84.72000 9.970
84.74000 8.376
84.76000 11.345
84.78000 10.232
84.80000 7.995
84.82000 6.391
84.84000 4.494
84.86000 7.807
84.88000 4.254
84.90000 8.703
84.92000 8.772
84.94000 8.197
84.96000 7.122
84.98000 10.273
85.00000 4.999
85.02000 4.198
85.04000 5.643
85.06000 4.043
85.08000 2.493
85.10000 1.612
85.12000 3.343
85.14000 1.231
85.16000 1.243
85.18000 -0.660
85.20000 -2.586
85.22000 0.121
85.24000 4.056
85.26000 4.748
85.28000 5.876
85.30000 2.554
85.32000 3.734
85.34000 0.669
85.36000 1.675
85.38000 3.654
85.40000 5.346
85.42000 1.192
85.44000 -0.719
85.46000 2.282
85.48000 5.670
85.50000 5.690
85.52000 4.795
85.54000 1.801
85.56000 3.857
85.58000 8.486
85.60000 4.436
85.62000 4.170
85.64000 1.730
85.66000 0.993
85.68000 1.685
85.70000 1.951
85.72000 2.364
85.74000 -0.043
85.76000 -2.526
85.78000 3.404
85.80000 2.097
85.82000 3.481
85.84000 4.474
85.86000 4.189
85.88000 4.168
85.90000 2.463
85.92000 -0.236
85.94000 5.349
85.96000 6.054
85.98000 8.090
86.00000 6.736
86.02000 3.128
86.04000 3.150
86.06000 2.223
86.08000 7.334
86.10000 12.386
86.12000 8.747
86.14000 2.862
86.16000 2.471
86.18000 2.830
86.20000 -2.510
86.22000 0.658
86.24000 5.382
86.26000 13.213
86.28000 8.102
86.30000 4.145
86.32000 2.691
86.34000 2.146
86.36000 6.013
86.38000 9.564
86.40000 8.621
86.42000 2.519
86.44000 -1.314
86.46000 1.655
86.48000 3.618
86.50000 7.769
86.52000 2.359
86.54000 3.383
86.56000 5.116
86.58000 6.020
86.60000 7.854
86.62000 8.295
86.64000 10.089
86.66000 13.048
86.68000 13.554
86.70000 10.426
86.72000 5.679
86.74000 10.693
86.76000 8.963
86.78000 8.990
86.80000 10.736
86.82000 10.517
86.84000 8.322
86.86000 4.932
86.88000 5.740
86.90000 12.736
86.92000 14.432
86.94000 7.503
86.96000 13.524
86.98000 14.088
87.00000 13.453
87.02000 9.829
87.04000 5.856
87.06000 8.217
87.08000 14.496
87.10000 16.014
87.12000 9.899
87.14000 8.992
87.16000 12.947
87.18000 10.596
87.20000 13.706
87.22000 17.535
87.24000 16.286
87.26000 14.667
87.28000 17.712
87.30000 14.326
87.32000 16.825
87.34000 22.264
87.36000 25.762
87.38000 20.142
87.40000 16.666
87.42000 15.783
87.44000 19.323
87.46000 18.710
87.48000 21.401
87.50000 27.738
87.52000 22.791
87.54000 22.933
87.56000 25.860
87.58000 29.217
87.60000 24.015
87.62000 22.510
87.64000 21.995
87.66000 19.202
87.68000 24.372
87.70000 23.226
87.72000 22.329
87.74000 28.179
87.76000 25.867
87.78000 28.518
87.80000 25.580
87.82000 31.542
87.84000 30.277
87.86000 28.421
87.88000 24.815
87.90000 25.285
87.92000 28.193
87.94000 28.182
87.96000 28.936
87.98000 26.942
88.00000 28.674
88.02000 26.617
88.04000 25.946
88.06000 25.746
88.08000 28.976
88.10000 30.079
88.12000 27.222
88.14000 29.776
88.16000 27.883
88.18000 23.417
88.20000 21.503
88.22000 22.465
88.24000 17.333
88.26000 15.812
88.28000 19.815
88.30000 22.577
88.32000 21.981
88.34000 16.220
88.36000 17.914
88.38000 20.537
88.40000 18.780
88.42000 16.929
88.44000 17.018
88.46000 13.618
88.48000 14.492
88.50000 11.518
88.52000 17.330
88.54000 19.362
88.56000 20.894
88.58000 17.731
88.60000 14.175
88.62000 14.920
88.64000 14.321
88.66000 16.958
88.68000 13.688
88.70000 14.929
88.72000 8.169
88.74000 6.986
88.76000 10.035
88.78000 15.963
88.80000 12.682
88.82000 8.009
88.84000 12.433
88.86000 10.030
88.88000 7.938
88.90000 2.986
88.92000 5.152
88.94000 6.517
88.96000 5.249
88.98000 7.655
89.00000 10.042
89.02000 10.130
89.04000 4.313
89.06000 4.906
89.08000 8.077
89.10000 8.801
89.12000 9.150
89.14000 7.834
89.16000 10.855
89.18000 10.784
89.20000 6.387
89.22000 6.412
89.24000 6.449
89.26000 3.910
89.28000 -0.556
89.30000 -2.488
89.32000 -2.361
89.34000 -2.198
89.36000 0.669
89.38000 3.206
89.40000 2.066
89.42000 3.508
89.44000 2.580
89.46000 4.367
89.48000 2.071
89.50000 2.812
89.52000 1.129
89.54000 5.753
89.56000 4.687
89.58000 6.776
89.60000 3.554
89.62000 -2.036
89.64000 1.484
89.66000 2.553
89.68000 0.891
89.70000 3.059
89.72000 1.966
89.74000 1.914
89.76000 6.492
89.78000 -0.650
89.80000 0.951
89.82000 -2.435
89.84000 1.710
89.86000 2.191
89.88000 0.298
89.90000 4.073
89.92000 5.011
89.94000 7.937
89.96000 8.505
89.98000 5.161
90.00000 0.244
90.02000 -2.413
90.04000 -0.191
90.06000 4.898
90.08000 0.845
90.10000 5.628
90.12000 2.528
90.14000 1.418
90.16000 0.932
90.18000 1.116
90.20000 -1.531
90.22000 3.071
90.24000 1.029
90.26000 -2.334
90.28000 1.663
90.30000 4.350
90.32000 2.557
90.34000 4.778
90.36000 8.884
90.38000 8.360
90.40000 0.079
90.42000 2.784
90.44000 2.175
90.46000 1.440
90.48000 0.158
90.50000 0.236
90.52000 3.430
90.54000 3.505
90.56000 1.185
90.58000 1.909
90.60000 4.590
90.62000 -2.007
90.64000 -2.355
90.66000 2.044
90.68000 4.843
90.70000 1.254
90.72000 -2.156
90.74000 -0.097
90.76000 1.382
90.78000 1.609
90.80000 1.147
90.82000 4.746
90.84000 11.126
90.86000 2.938
90.88000 2.065
90.90000 2.168
90.92000 4.930
90.94000 1.767
90.96000 -0.054
90.98000 4.374
91.00000 6.759
91.02000 4.199
91.04000 3.041
91.06000 2.343
91.08000 6.951
91.10000 1.118
91.12000 -2.303
91.14000 2.177
91.16000 1.793
91.18000 1.376
91.20000 0.583
91.22000 1.949
91.24000 1.247
91.26000 1.755
91.28000 2.548
91.30000 4.858
91.32000 0.741
91.34000 4.484
91.36000 4.181
91.38000 4.255
91.40000 3.370
91.42000 2.855
91.44000 3.055
91.46000 4.488
91.48000 4.666
91.50000 6.842
91.52000 7.035
91.54000 6.931
91.56000 3.122
91.58000 -0.418
91.60000 0.323
91.62000 2.346
91.64000 1.018
91.66000 -1.352
91.68000 2.554
91.70000 3.835
91.72000 3.939
91.74000 4.059
91.76000 5.136
91.78000 1.638
91.80000 1.025
91.82000 3.563
91.84000 4.602
91.86000 0.423
91.88000 0.416
91.90000 -0.632
91.92000 -0.847
91.94000 -0.769
91.96000 1.677
91.98000 2.134
92.00000 -2.126
92.02000 -2.325
92.04000 -0.439
92.06000 -1.751
92.08000 1.905
92.10000 2.781
92.12000 3.818
92.14000 1.930
92.16000 5.740
92.18000 5.736
92.20000 2.304
92.22000 4.647
92.24000 6.823
92.26000 3.455
92.28000 3.619
92.30000 5.203
92.32000 1.994
92.34000 5.090
92.36000 0.419
92.38000 -2.335
92.40000 1.633
92.42000 -0.213
92.44000 5.633
92.46000 7.411
92.48000 9.089
92.50000 8.007
92.52000 3.935
92.54000 2.217
92.56000 8.185
92.58000 6.805
92.60000 5.540
92.62000 7.001
92.64000 3.989
92.66000 4.166
92.68000 -0.240
92.70000 5.643
92.72000 5.495
92.74000 1.216
92.76000 -2.340
92.78000 1.935
92.80000 3.828
92.82000 1.982
92.84000 0.384
92.86000 2.740
92.88000 0.908
92.90000 1.510
92.92000 0.231
92.94000 0.446
92.96000 10.263
92.98000 4.684
93.00000 3.407
93.02000 3.860
93.04000 4.887
93.06000 5.921
93.08000 2.045
93.10000 1.835
93.12000 2.635
93.14000 5.547
93.16000 9.918
93.18000 6.415
93.20000 -1.952
93.22000 0.147
93.24000 0.046
93.26000 -0.824
93.28000 -2.241
93.30000 6.949
93.32000 7.186
93.34000 3.801
93.36000 2.475
93.38000 4.914
93.40000 1.033
93.42000 6.658
93.44000 2.109
93.46000 6.584
93.48000 2.229
93.50000 5.083
93.52000 7.058
93.54000 3.998
93.56000 -0.816
93.58000 3.440
93.60000 4.168
93.62000 5.666
93.64000 1.575
93.66000 1.366
93.68000 5.138
93.70000 7.829
93.72000 5.240
93.74000 9.329
93.76000 8.981
93.78000 6.912
93.80000 1.297
93.82000 -0.103
93.84000 2.530
93.86000 -0.416
93.88000 -0.038
93.90000 1.401
93.92000 2.968
93.94000 -1.573
93.96000 6.113
93.98000 8.015
94.00000 4.942
94.02000 -0.193
94.04000 6.114
94.06000 9.915
94.08000 9.988
94.10000 9.912
94.12000 4.031
94.14000 0.487
94.16000 -1.364
94.18000 2.428
94.20000 4.621
94.22000 9.671
94.24000 8.716
94.26000 7.333
94.28000 4.321
94.30000 1.285
94.32000 -2.339
94.34000 -1.312
94.36000 -1.454
94.38000 1.709
94.40000 3.200
94.42000 4.699
94.44000 3.459
94.46000 3.298
94.48000 7.103
94.50000 7.963
94.52000 2.104
94.54000 4.932
94.56000 7.644
94.58000 6.027
94.60000 4.455
94.62000 6.451
94.64000 6.570
94.66000 5.842
94.68000 4.777
94.70000 6.563
94.72000 4.739
94.74000 1.981
94.76000 3.697
94.78000 6.784
94.80000 3.584
94.82000 4.706
94.84000 6.505
94.86000 5.590
94.88000 1.197
94.90000 1.559
94.92000 -2.317
94.94000 3.113
94.96000 9.847
94.98000 3.493
95.00000 4.830
95.02000 0.180
95.04000 2.508
95.06000 7.623
95.08000 7.099
95.10000 5.207
95.12000 6.972
95.14000 8.283
95.16000 1.736
95.18000 0.583
95.20000 3.327
95.22000 11.916
95.24000 3.958
95.26000 0.382
95.28000 2.281
95.30000 6.482
95.32000 8.024
95.34000 6.049
95.36000 7.185
95.38000 0.888
95.40000 -2.101
95.42000 7.013
95.44000 4.045
95.46000 0.249
95.48000 -1.102
95.50000 1.044
95.52000 2.162
95.54000 -0.956
95.56000 -2.316
95.58000 -0.071
95.60000 3.490
95.62000 9.708
95.64000 9.397
95.66000 5.093
95.68000 5.277
95.70000 5.848
95.72000 7.936
95.74000 15.749
95.76000 12.421
95.78000 12.990
95.80000 8.697
95.82000 6.597
95.84000 2.533
95.86000 2.708
95.88000 5.561
95.90000 7.205
95.92000 7.704
95.94000 6.081
95.96000 6.625
95.98000 8.406
96.00000 10.014
96.02000 13.407
96.04000 11.749
96.06000 9.675
96.08000 3.248
96.10000 4.515
96.12000 4.200
96.14000 10.732
96.16000 7.456
96.18000 1.504
96.20000 5.346
96.22000 9.152
96.24000 0.305
96.26000 1.878
96.28000 10.819
96.30000 7.200
96.32000 7.702
96.34000 4.763
96.36000 6.218
96.38000 6.033
96.40000 10.884
96.42000 10.900
96.44000 11.258
96.46000 10.152
96.48000 3.467
96.50000 11.609
96.52000 16.788
96.54000 11.751
96.56000 8.971
96.58000 9.119
96.60000 7.900
96.62000 13.073
96.64000 12.278
96.66000 8.089
96.68000 5.005
96.70000 8.298
96.72000 9.596
96.74000 5.632
96.76000 2.565
96.78000 3.764
96.80000 7.398
96.82000 11.176
96.84000 10.317
96.86000 10.592
96.88000 7.102
96.90000 7.678
96.92000 0.689
96.94000 0.959
96.96000 -2.256
96.98000 2.668
97.00000 6.663
97.02000 9.443
97.04000 9.796
97.06000 11.154
97.08000 7.702
97.10000 4.827
97.12000 5.885
97.14000 4.990
97.16000 0.977
97.18000 4.267
97.20000 15.055
97.22000 15.385
97.24000 10.730
97.26000 7.898
97.28000 7.042
97.30000 10.059
97.32000 8.216
97.34000 9.951
97.36000 8.748
97.38000 6.512
97.40000 5.308
97.42000 4.988
97.44000 8.435
97.46000 8.665
97.48000 4.298
97.50000 4.557
97.52000 6.137
97.54000 11.748
97.56000 8.345
97.58000 6.219
97.60000 8.166
97.62000 1.580
97.64000 1.945
97.66000 7.247
97.68000 3.260
97.70000 1.347
97.72000 6.153
97.74000 8.603
97.76000 10.079
97.78000 7.309
97.80000 9.892
97.82000 6.203
97.84000 2.961
97.86000 4.220
97.88000 10.395
97.90000 9.385
97.92000 6.237
97.94000 5.950
97.96000 14.314
97.98000 7.680
98.00000 -2.023
98.02000 4.038
98.04000 4.520
98.06000 7.401
98.08000 3.279
98.10000 5.820
98.12000 3.992
98.14000 2.828
98.16000 2.674
98.18000 6.358
98.20000 6.685
98.22000 5.526
98.24000 7.434
98.26000 7.245
98.28000 13.819
98.30000 11.181
98.32000 18.354
98.34000 14.043
98.36000 13.160
98.38000 8.794
98.40000 1.414
98.42000 2.630
98.44000 6.490
98.46000 14.796
98.48000 12.331
98.50000 9.169
98.52000 8.033
98.54000 5.933
98.56000 -3.262
98.58000 5.590
98.60000 10.499
98.62000 3.386
98.64000 9.310
98.66000 5.999
98.68000 14.594
98.70000 12.005
98.72000 3.086
98.74000 1.874
98.76000 11.938
98.78000 9.792
98.80000 5.289
98.82000 10.710
98.84000 15.157
98.86000 4.942
98.88000 -2.253
98.90000 -0.981
98.92000 5.994
98.94000 3.569
98.96000 7.237
98.98000 9.738
99.00000 -0.470
99.02000 -2.176
99.04000 11.530
99.06000 7.636
99.08000 8.901
99.10000 10.571
99.12000 14.106
99.14000 8.844
99.16000 -0.058
99.18000 0.627
99.20000 1.898
99.22000 4.860
99.24000 12.042
99.26000 22.003
99.28000 16.522
99.30000 13.037
99.32000 5.292
99.34000 3.511
99.36000 4.248
99.38000 7.639
99.40000 5.450
99.42000 2.900
99.44000 7.609
99.46000 9.833
99.48000 5.643
99.50000 4.472
99.52000 3.283
99.54000 4.272
99.56000 8.626
99.58000 6.490
99.60000 10.928
99.62000 1.733
99.64000 10.333
99.66000 2.000
99.68000 2.130
99.70000 5.988
99.72000 -2.259
99.74000 1.080
99.76000 8.414
99.78000 23.282
99.80000 14.794
99.82000 2.142
99.84000 14.666
99.86000 -7.515
99.88000 -2.412
99.90000 3.549
99.92000 8.118
99.94000 0.953
99.96000 -2.557
99.98000 0.000
