'Id: "0011387" Comment: "Integrate frame 0011387_Au-Ir-Rh_Rh-rich_XRD-Mapping-240-0000.gfrmwith cursor Wedge Cursor #5" Operator: "B?rgel" Anode: "Cu" Wavelength: "1.5406" Scantype: "2Theta (TwoTheta)" TimePerStep: "1" X: "45" Y: "13.5" Z: "5.95" 
10.00000 0.000
10.02000 -3.703
10.04000 0.171
10.06000 6.743
10.08000 11.902
10.10000 13.146
10.12000 14.563
10.14000 11.540
10.16000 16.203
10.18000 16.034
10.20000 13.204
10.22000 15.684
10.24000 21.234
10.26000 22.553
10.28000 23.740
10.30000 26.196
10.32000 26.541
10.34000 10.191
10.36000 7.618
10.38000 16.175
10.40000 24.810
10.42000 24.546
10.44000 26.593
10.46000 23.223
10.48000 22.998
10.50000 22.283
10.52000 37.348
10.54000 38.929
10.56000 32.362
10.58000 18.495
10.60000 29.586
10.62000 36.653
10.64000 36.985
10.66000 29.548
10.68000 27.041
10.70000 35.813
10.72000 36.818
10.74000 35.634
10.76000 33.802
10.78000 30.921
10.80000 27.949
10.82000 35.293
10.84000 32.016
10.86000 30.940
10.88000 40.775
10.90000 37.493
10.92000 39.786
10.94000 42.965
10.96000 39.864
10.98000 45.482
11.00000 50.803
11.02000 50.122
11.04000 44.570
11.06000 43.391
11.08000 48.154
11.10000 51.643
11.12000 49.251
11.14000 40.867
11.16000 39.052
11.18000 38.166
11.20000 43.407
11.22000 44.914
11.24000 51.390
11.26000 41.130
11.28000 42.720
11.30000 43.580
11.32000 46.087
11.34000 48.367
11.36000 45.924
11.38000 63.565
11.40000 53.308
11.42000 43.878
11.44000 43.137
11.46000 51.996
11.48000 58.935
11.50000 60.580
11.52000 47.848
11.54000 52.888
11.56000 56.298
11.58000 50.873
11.60000 53.439
11.62000 58.059
11.64000 55.335
11.66000 48.755
11.68000 60.733
11.70000 56.379
11.72000 41.582
11.74000 43.380
11.76000 59.256
11.78000 68.533
11.80000 69.947
11.82000 54.241
11.84000 52.910
11.86000 56.882
11.88000 60.189
11.90000 62.669
11.92000 72.635
11.94000 72.123
11.96000 67.970
11.98000 60.370
12.00000 61.737
12.02000 65.696
12.04000 65.015
12.06000 59.142
12.08000 70.671
12.10000 70.194
12.12000 68.727
12.14000 57.718
12.16000 55.641
12.18000 60.456
12.20000 59.998
12.22000 70.862
12.24000 66.894
12.26000 60.009
12.28000 58.311
12.30000 67.891
12.32000 82.644
12.34000 82.769
12.36000 71.784
12.38000 66.378
12.40000 70.112
12.42000 70.459
12.44000 65.624
12.46000 66.557
12.48000 72.373
12.50000 65.097
12.52000 60.921
12.54000 62.108
12.56000 67.353
12.58000 64.201
12.60000 76.130
12.62000 85.806
12.64000 76.880
12.66000 71.489
12.68000 66.045
12.70000 71.057
12.72000 60.898
12.74000 63.037
12.76000 70.312
12.78000 66.652
12.80000 67.404
12.82000 67.988
12.84000 61.643
12.86000 70.589
12.88000 73.761
12.90000 60.743
12.92000 66.969
12.94000 74.086
12.96000 64.849
12.98000 61.919
13.00000 61.437
13.02000 65.549
13.04000 73.597
13.06000 77.882
13.08000 64.059
13.10000 67.264
13.12000 78.507
13.14000 80.037
13.16000 74.775
13.18000 72.838
13.20000 68.564
13.22000 64.665
13.24000 58.707
13.26000 51.478
13.28000 54.786
13.30000 69.680
13.32000 74.614
13.34000 66.239
13.36000 59.228
13.38000 61.698
13.40000 61.678
13.42000 70.664
13.44000 71.988
13.46000 57.778
13.48000 60.567
13.50000 69.463
13.52000 65.061
13.54000 67.506
13.56000 68.793
13.58000 62.075
13.60000 64.887
13.62000 70.616
13.64000 68.243
13.66000 68.796
13.68000 67.749
13.70000 59.498
13.72000 52.248
13.74000 67.284
13.76000 75.563
13.78000 68.255
13.80000 60.746
13.82000 59.006
13.84000 66.204
13.86000 66.044
13.88000 66.448
13.90000 69.132
13.92000 68.489
13.94000 59.935
13.96000 60.817
13.98000 56.300
14.00000 50.017
14.02000 56.045
14.04000 61.932
14.06000 65.273
14.08000 60.729
14.10000 71.628
14.12000 72.613
14.14000 68.466
14.16000 70.280
14.18000 68.215
14.20000 52.257
14.22000 60.131
14.24000 64.328
14.26000 64.228
14.28000 58.709
14.30000 54.935
14.32000 63.103
14.34000 68.946
14.36000 56.672
14.38000 49.160
14.40000 45.920
14.42000 43.116
14.44000 51.588
14.46000 59.117
14.48000 53.738
14.50000 53.988
14.52000 42.133
14.54000 44.637
14.56000 51.379
14.58000 50.264
14.60000 61.680
14.62000 61.524
14.64000 56.892
14.66000 57.849
14.68000 52.397
14.70000 50.447
14.72000 45.808
14.74000 46.940
14.76000 44.019
14.78000 45.732
14.80000 50.480
14.82000 53.897
14.84000 51.882
14.86000 45.982
14.88000 38.594
14.90000 41.891
14.92000 56.934
14.94000 57.197
14.96000 52.379
14.98000 43.832
15.00000 38.036
15.02000 43.485
15.04000 49.102
15.06000 56.897
15.08000 60.137
15.10000 48.628
15.12000 49.506
15.14000 48.030
15.16000 48.346
15.18000 39.458
15.20000 44.642
15.22000 41.334
15.24000 37.276
15.26000 44.913
15.28000 53.386
15.30000 42.699
15.32000 41.889
15.34000 53.859
15.36000 45.456
15.38000 44.407
15.40000 44.391
15.42000 46.792
15.44000 41.409
15.46000 35.591
15.48000 30.251
15.50000 38.525
15.52000 43.070
15.54000 41.865
15.56000 43.131
15.58000 42.273
15.60000 44.229
15.62000 38.706
15.64000 37.594
15.66000 39.964
15.68000 39.761
15.70000 42.578
15.72000 43.829
15.74000 41.014
15.76000 41.776
15.78000 31.675
15.80000 35.171
15.82000 40.815
15.84000 41.465
15.86000 43.092
15.88000 38.951
15.90000 39.879
15.92000 28.779
15.94000 27.988
15.96000 32.557
15.98000 35.603
16.00000 36.034
16.02000 43.984
16.04000 36.751
16.06000 32.672
16.08000 41.109
16.10000 37.006
16.12000 36.244
16.14000 34.729
16.16000 36.723
16.18000 36.792
16.20000 36.552
16.22000 33.902
16.24000 35.815
16.26000 35.099
16.28000 35.518
16.30000 32.880
16.32000 30.540
16.34000 31.573
16.36000 33.274
16.38000 29.752
16.40000 29.027
16.42000 24.327
16.44000 32.142
16.46000 33.910
16.48000 41.968
16.50000 41.445
16.52000 35.800
16.54000 27.597
16.56000 27.564
16.58000 26.627
16.60000 28.557
16.62000 23.018
16.64000 32.428
16.66000 33.516
16.68000 30.356
16.70000 28.763
16.72000 21.667
16.74000 27.375
16.76000 31.494
16.78000 33.650
16.80000 36.183
16.82000 31.298
16.84000 34.942
16.86000 32.919
16.88000 35.131
16.90000 26.814
16.92000 28.166
16.94000 24.325
16.96000 19.035
16.98000 17.943
17.00000 31.458
17.02000 35.186
17.04000 33.717
17.06000 26.736
17.08000 25.964
17.10000 20.472
17.12000 21.320
17.14000 29.979
17.16000 22.219
17.18000 17.577
17.20000 21.936
17.22000 18.766
17.24000 21.914
17.26000 23.838
17.28000 27.560
17.30000 27.684
17.32000 24.003
17.34000 21.437
17.36000 22.610
17.38000 23.049
17.40000 18.968
17.42000 22.650
17.44000 23.671
17.46000 24.969
17.48000 24.920
17.50000 21.425
17.52000 17.984
17.54000 23.250
17.56000 28.219
17.58000 29.438
17.60000 27.286
17.62000 18.595
17.64000 17.187
17.66000 19.438
17.68000 24.245
17.70000 21.577
17.72000 18.664
17.74000 18.259
17.76000 15.547
17.78000 14.960
17.80000 20.497
17.82000 21.677
17.84000 21.506
17.86000 12.304
17.88000 21.545
17.90000 18.089
17.92000 16.527
17.94000 16.532
17.96000 21.797
17.98000 22.261
18.00000 24.274
18.02000 22.354
18.04000 20.774
18.06000 19.519
18.08000 16.247
18.10000 17.448
18.12000 22.171
18.14000 24.539
18.16000 16.178
18.18000 13.779
18.20000 17.258
18.22000 18.940
18.24000 17.833
18.26000 18.146
18.28000 16.351
18.30000 16.457
18.32000 10.534
18.34000 15.765
18.36000 13.925
18.38000 14.874
18.40000 17.015
18.42000 22.022
18.44000 25.134
18.46000 21.737
18.48000 15.802
18.50000 10.173
18.52000 11.198
18.54000 9.192
18.56000 11.534
18.58000 14.053
18.60000 16.402
18.62000 17.307
18.64000 12.466
18.66000 12.363
18.68000 13.966
18.70000 11.267
18.72000 8.075
18.74000 6.047
18.76000 9.054
18.78000 5.347
18.80000 8.010
18.82000 14.550
18.84000 13.746
18.86000 12.063
18.88000 6.070
18.90000 13.561
18.92000 15.670
18.94000 15.832
18.96000 12.397
18.98000 7.760
19.00000 13.114
19.02000 14.437
19.04000 14.280
19.06000 10.691
19.08000 8.004
19.10000 8.625
19.12000 15.576
19.14000 18.345
19.16000 12.166
19.18000 11.296
19.20000 8.826
19.22000 15.422
19.24000 16.249
19.26000 14.233
19.28000 16.744
19.30000 17.884
19.32000 13.655
19.34000 12.216
19.36000 12.774
19.38000 14.410
19.40000 13.636
19.42000 11.154
19.44000 11.175
19.46000 13.852
19.48000 6.356
19.50000 5.712
19.52000 9.912
19.54000 15.683
19.56000 15.944
19.58000 22.071
19.60000 20.163
19.62000 12.485
19.64000 9.059
19.66000 12.689
19.68000 11.999
19.70000 15.080
19.72000 11.462
19.74000 3.772
19.76000 5.357
19.78000 7.135
19.80000 -4.185
19.82000 0.223
19.84000 4.615
19.86000 3.544
19.88000 6.353
19.90000 6.366
19.92000 9.072
19.94000 10.029
19.96000 10.832
19.98000 4.222
20.00000 9.222
20.02000 16.033
20.04000 13.857
20.06000 12.754
20.08000 9.388
20.10000 6.757
20.12000 5.215
20.14000 7.805
20.16000 11.314
20.18000 7.250
20.20000 8.503
20.22000 7.675
20.24000 6.965
20.26000 12.452
20.28000 12.934
20.30000 7.111
20.32000 -4.191
20.34000 -4.153
20.36000 4.867
20.38000 12.175
20.40000 7.496
20.42000 6.456
20.44000 10.110
20.46000 2.928
20.48000 8.286
20.50000 7.088
20.52000 2.945
20.54000 0.359
20.56000 4.617
20.58000 7.281
20.60000 -0.351
20.62000 0.982
20.64000 13.243
20.66000 7.075
20.68000 5.016
20.70000 8.754
20.72000 6.260
20.74000 1.838
20.76000 8.343
20.78000 9.791
20.80000 4.731
20.82000 3.286
20.84000 1.574
20.86000 -0.026
20.88000 -1.671
20.90000 0.945
20.92000 4.769
20.94000 4.420
20.96000 4.932
20.98000 11.883
21.00000 3.686
21.02000 0.549
21.04000 5.924
21.06000 9.755
21.08000 10.085
21.10000 2.403
21.12000 5.796
21.14000 5.803
21.16000 2.509
21.18000 -0.646
21.20000 3.480
21.22000 6.325
21.24000 7.294
21.26000 6.909
21.28000 2.082
21.30000 4.493
21.32000 4.394
21.34000 6.177
21.36000 7.660
21.38000 4.299
21.40000 0.490
21.42000 6.368
21.44000 4.366
21.46000 6.939
21.48000 10.161
21.50000 5.820
21.52000 5.889
21.54000 3.614
21.56000 5.261
21.58000 9.157
21.60000 3.364
21.62000 3.054
21.64000 2.486
21.66000 1.054
21.68000 5.002
21.70000 6.952
21.72000 11.104
21.74000 7.600
21.76000 5.731
21.78000 5.211
21.80000 4.397
21.82000 4.420
21.84000 6.112
21.86000 9.317
21.88000 8.863
21.90000 2.667
21.92000 9.936
21.94000 9.660
21.96000 7.107
21.98000 4.468
22.00000 1.184
22.02000 0.335
22.04000 -1.996
22.06000 0.780
22.08000 4.904
22.10000 3.436
22.12000 5.027
22.14000 2.894
22.16000 3.563
22.18000 6.464
22.20000 6.539
22.22000 -0.741
22.24000 4.232
22.26000 5.229
22.28000 9.719
22.30000 4.118
22.32000 7.213
22.34000 9.430
22.36000 8.060
22.38000 9.265
22.40000 6.216
22.42000 4.325
22.44000 3.869
22.46000 -0.728
22.48000 -4.103
22.50000 -3.694
22.52000 0.982
22.54000 6.922
22.56000 7.320
22.58000 7.274
22.60000 9.673
22.62000 9.886
22.64000 4.468
22.66000 0.865
22.68000 10.917
22.70000 8.966
22.72000 -0.301
22.74000 -2.127
22.76000 3.002
22.78000 7.131
22.80000 16.153
22.82000 9.751
22.84000 5.174
22.86000 7.773
22.88000 5.535
22.90000 8.625
22.92000 7.663
22.94000 3.262
22.96000 3.187
22.98000 1.651
23.00000 3.048
23.02000 3.582
23.04000 7.037
23.06000 -4.057
23.08000 3.365
23.10000 12.081
23.12000 11.336
23.14000 7.049
23.16000 8.464
23.18000 7.276
23.20000 4.567
23.22000 8.222
23.24000 6.905
23.26000 4.365
23.28000 6.608
23.30000 9.190
23.32000 8.071
23.34000 7.547
23.36000 7.182
23.38000 7.458
23.40000 14.639
23.42000 6.430
23.44000 -1.895
23.46000 -1.865
23.48000 4.505
23.50000 0.911
23.52000 3.569
23.54000 1.158
23.56000 4.635
23.58000 9.122
23.60000 2.660
23.62000 0.912
23.64000 -0.041
23.66000 0.065
23.68000 5.077
23.70000 8.480
23.72000 6.414
23.74000 -1.262
23.76000 -2.147
23.78000 4.922
23.80000 5.553
23.82000 1.666
23.84000 0.305
23.86000 3.008
23.88000 6.595
23.90000 2.285
23.92000 3.655
23.94000 6.881
23.96000 5.505
23.98000 5.343
24.00000 1.709
24.02000 -2.583
24.04000 5.958
24.06000 6.936
24.08000 2.738
24.10000 7.574
24.12000 2.016
24.14000 -1.378
24.16000 0.962
24.18000 4.741
24.20000 5.399
24.22000 1.502
24.24000 1.581
24.26000 4.462
24.28000 7.816
24.30000 8.277
24.32000 5.042
24.34000 -4.003
24.36000 -3.259
24.38000 0.665
24.40000 9.610
24.42000 6.928
24.44000 1.615
24.46000 3.841
24.48000 2.646
24.50000 1.678
24.52000 0.527
24.54000 0.041
24.56000 -0.284
24.58000 -3.344
24.60000 -0.106
24.62000 1.426
24.64000 -1.462
24.66000 1.462
24.68000 0.551
24.70000 3.809
24.72000 1.752
24.74000 0.189
24.76000 1.509
24.78000 3.376
24.80000 -0.982
24.82000 0.551
24.84000 2.227
24.86000 1.271
24.88000 7.731
24.90000 10.533
24.92000 7.772
24.94000 3.898
24.96000 3.463
24.98000 5.962
25.00000 3.344
25.02000 2.381
25.04000 4.215
25.06000 4.789
25.08000 -0.507
25.10000 2.246
25.12000 3.731
25.14000 -2.125
25.16000 2.483
25.18000 2.909
25.20000 -1.404
25.22000 -0.353
25.24000 1.028
25.26000 4.034
25.28000 3.092
25.30000 0.252
25.32000 -0.623
25.34000 2.765
25.36000 2.294
25.38000 1.202
25.40000 2.894
25.42000 2.849
25.44000 2.759
25.46000 3.387
25.48000 6.259
25.50000 -0.123
25.52000 3.412
25.54000 8.364
25.56000 5.247
25.58000 5.984
25.60000 1.392
25.62000 -0.829
25.64000 -0.946
25.66000 0.239
25.68000 -1.348
25.70000 0.432
25.72000 9.209
25.74000 2.389
25.76000 2.917
25.78000 7.665
25.80000 3.770
25.82000 4.432
25.84000 3.447
25.86000 4.251
25.88000 5.927
25.90000 13.135
25.92000 6.233
25.94000 -1.146
25.96000 0.600
25.98000 1.222
26.00000 -1.355
26.02000 3.119
26.04000 7.426
26.06000 1.046
26.08000 -3.658
26.10000 1.483
26.12000 2.026
26.14000 3.964
26.16000 2.725
26.18000 4.609
26.20000 5.044
26.22000 2.790
26.24000 7.948
26.26000 5.253
26.28000 6.753
26.30000 6.558
26.32000 4.224
26.34000 4.513
26.36000 4.569
26.38000 5.364
26.40000 10.768
26.42000 4.067
26.44000 -2.286
26.46000 -3.851
26.48000 0.858
26.50000 4.496
26.52000 5.313
26.54000 5.067
26.56000 2.687
26.58000 3.624
26.60000 6.153
26.62000 7.940
26.64000 2.621
26.66000 7.948
26.68000 5.178
26.70000 5.419
26.72000 6.613
26.74000 4.864
26.76000 3.782
26.78000 -0.026
26.80000 1.315
26.82000 2.865
26.84000 2.661
26.86000 2.808
26.88000 0.602
26.90000 1.937
26.92000 7.146
26.94000 6.231
26.96000 0.495
26.98000 4.670
27.00000 -0.330
27.02000 3.553
27.04000 3.937
27.06000 3.331
27.08000 3.209
27.10000 5.411
27.12000 8.828
27.14000 7.557
27.16000 2.728
27.18000 -0.121
27.20000 3.363
27.22000 4.426
27.24000 0.874
27.26000 2.892
27.28000 5.555
27.30000 6.877
27.32000 8.916
27.34000 4.765
27.36000 3.100
27.38000 0.755
27.40000 3.007
27.42000 7.167
27.44000 4.953
27.46000 1.793
27.48000 4.438
27.50000 2.184
27.52000 3.433
27.54000 3.001
27.56000 5.303
27.58000 2.010
27.60000 -1.795
27.62000 -0.265
27.64000 -0.342
27.66000 2.202
27.68000 4.892
27.70000 9.355
27.72000 3.433
27.74000 4.001
27.76000 4.192
27.78000 4.605
27.80000 0.100
27.82000 -0.651
27.84000 3.264
27.86000 9.065
27.88000 8.244
27.90000 6.804
27.92000 9.047
27.94000 11.340
27.96000 6.362
27.98000 6.055
28.00000 3.972
28.02000 0.869
28.04000 -2.390
28.06000 0.266
28.08000 -1.885
28.10000 -1.746
28.12000 -0.755
28.14000 0.135
28.16000 6.205
28.18000 3.174
28.20000 -3.788
28.22000 -0.278
28.24000 0.407
28.26000 5.113
28.28000 4.580
28.30000 4.670
28.32000 7.496
28.34000 5.650
28.36000 0.745
28.38000 -0.358
28.40000 4.836
28.42000 7.813
28.44000 5.036
28.46000 1.220
28.48000 0.468
28.50000 -0.082
28.52000 0.440
28.54000 -1.047
28.56000 1.117
28.58000 3.339
28.60000 4.922
28.62000 7.070
28.64000 7.064
28.66000 3.854
28.68000 4.753
28.70000 5.323
28.72000 4.547
28.74000 -0.515
28.76000 1.062
28.78000 3.564
28.80000 5.995
28.82000 5.599
28.84000 3.666
28.86000 -3.755
28.88000 -2.807
28.90000 2.707
28.92000 -1.175
28.94000 -1.026
28.96000 2.203
28.98000 2.554
29.00000 2.250
29.02000 7.540
29.04000 3.580
29.06000 8.343
29.08000 4.231
29.10000 6.149
29.12000 5.504
29.14000 3.899
29.16000 3.777
29.18000 8.225
29.20000 4.257
29.22000 0.058
29.24000 1.602
29.26000 -0.453
29.28000 0.138
29.30000 3.661
29.32000 3.547
29.34000 3.484
29.36000 2.275
29.38000 7.742
29.40000 4.907
29.42000 1.870
29.44000 1.094
29.46000 0.397
29.48000 1.370
29.50000 3.868
29.52000 6.055
29.54000 3.107
29.56000 3.364
29.58000 4.281
29.60000 -2.313
29.62000 0.062
29.64000 -0.205
29.66000 -1.913
29.68000 0.260
29.70000 4.409
29.72000 -1.604
29.74000 -3.704
29.76000 6.336
29.78000 6.916
29.80000 5.309
29.82000 6.802
29.84000 2.679
29.86000 5.019
29.88000 3.122
29.90000 7.941
29.92000 7.409
29.94000 2.691
29.96000 4.239
29.98000 2.125
30.00000 3.888
30.02000 -0.358
30.04000 0.884
30.06000 2.600
30.08000 1.554
30.10000 5.612
30.12000 0.282
30.14000 -0.289
30.16000 4.594
30.18000 4.448
30.20000 3.062
30.22000 4.923
30.24000 0.644
30.26000 -1.494
30.28000 0.529
30.30000 2.268
30.32000 8.423
30.34000 4.840
30.36000 2.315
30.38000 -0.133
30.40000 -2.165
30.42000 -1.870
30.44000 -1.592
30.46000 -3.399
30.48000 0.700
30.50000 1.568
30.52000 0.673
30.54000 0.148
30.56000 2.388
30.58000 2.972
30.60000 1.132
30.62000 6.245
30.64000 1.921
30.66000 0.460
30.68000 0.434
30.70000 -2.230
30.72000 -3.656
30.74000 -1.401
30.76000 2.064
30.78000 4.760
30.80000 6.003
30.82000 3.101
30.84000 2.242
30.86000 -1.284
30.88000 0.648
30.90000 8.380
30.92000 4.231
30.94000 2.432
30.96000 3.744
30.98000 8.715
31.00000 8.378
31.02000 5.327
31.04000 7.292
31.06000 8.098
31.08000 4.460
31.10000 2.368
31.12000 2.239
31.14000 6.146
31.16000 1.411
31.18000 -1.089
31.20000 3.138
31.22000 0.968
31.24000 -0.472
31.26000 -0.232
31.28000 4.393
31.30000 -1.365
31.32000 -0.859
31.34000 -1.029
31.36000 2.137
31.38000 4.940
31.40000 1.415
31.42000 2.850
31.44000 5.817
31.46000 6.795
31.48000 5.810
31.50000 0.795
31.52000 3.098
31.54000 5.407
31.56000 1.450
31.58000 2.125
31.60000 7.409
31.62000 4.051
31.64000 2.270
31.66000 2.219
31.68000 -1.097
31.70000 -2.608
31.72000 0.448
31.74000 2.382
31.76000 0.153
31.78000 -1.302
31.80000 -2.155
31.82000 -0.834
31.84000 1.027
31.86000 -1.904
31.88000 1.117
31.90000 2.203
31.92000 6.199
31.94000 9.255
31.96000 6.477
31.98000 5.258
32.00000 6.214
32.02000 2.835
32.04000 -0.042
32.06000 5.854
32.08000 6.256
32.10000 4.557
32.12000 3.631
32.14000 7.422
32.16000 5.573
32.18000 -3.592
32.20000 0.963
32.22000 2.274
32.24000 4.858
32.26000 0.478
32.28000 2.517
32.30000 6.770
32.32000 7.319
32.34000 6.264
32.36000 3.858
32.38000 2.671
32.40000 -0.124
32.42000 -2.373
32.44000 3.550
32.46000 3.849
32.48000 2.025
32.50000 -0.240
32.52000 1.194
32.54000 5.743
32.56000 6.947
32.58000 4.298
32.60000 2.886
32.62000 4.331
32.64000 5.281
32.66000 4.692
32.68000 -0.392
32.70000 2.782
32.72000 2.558
32.74000 3.468
32.76000 7.217
32.78000 6.563
32.80000 2.794
32.82000 -0.160
32.84000 -2.328
32.86000 -0.422
32.88000 4.562
32.90000 4.918
32.92000 0.418
32.94000 -0.685
32.96000 -1.802
32.98000 1.527
33.00000 2.856
33.02000 1.594
33.04000 4.080
33.06000 8.836
33.08000 3.689
33.10000 -0.973
33.12000 4.537
33.14000 7.252
33.16000 5.228
33.18000 4.057
33.20000 3.494
33.22000 -0.287
33.24000 -0.709
33.26000 -0.084
33.28000 1.823
33.30000 5.282
33.32000 6.803
33.34000 2.012
33.36000 -1.757
33.38000 2.993
33.40000 4.749
33.42000 5.102
33.44000 0.901
33.46000 -3.374
33.48000 6.027
33.50000 5.970
33.52000 1.247
33.54000 1.453
33.56000 4.669
33.58000 3.486
33.60000 -0.449
33.62000 2.065
33.64000 5.388
33.66000 3.871
33.68000 7.102
33.70000 6.817
33.72000 3.258
33.74000 3.900
33.76000 6.901
33.78000 4.925
33.80000 0.803
33.82000 0.126
33.84000 1.849
33.86000 7.628
33.88000 7.924
33.90000 5.267
33.92000 1.941
33.94000 5.466
33.96000 4.655
33.98000 0.537
34.00000 0.616
34.02000 -3.559
34.04000 -1.631
34.06000 2.986
34.08000 1.713
34.10000 -0.141
34.12000 3.164
34.14000 4.245
34.16000 3.934
34.18000 8.171
34.20000 7.151
34.22000 7.854
34.24000 3.699
34.26000 2.435
34.28000 1.224
34.30000 -0.291
34.32000 4.148
34.34000 1.553
34.36000 -2.207
34.38000 -2.846
34.40000 0.511
34.42000 5.201
34.44000 0.871
34.46000 -0.751
34.48000 -1.424
34.50000 -0.497
34.52000 3.032
34.54000 7.153
34.56000 5.384
34.58000 0.067
34.60000 -0.289
34.62000 1.805
34.64000 1.770
34.66000 1.707
34.68000 6.072
34.70000 7.955
34.72000 8.062
34.74000 8.996
34.76000 2.033
34.78000 1.055
34.80000 -2.819
34.82000 3.043
34.84000 5.824
34.86000 3.608
34.88000 -3.528
34.90000 3.955
34.92000 6.701
34.94000 2.574
34.96000 3.252
34.98000 1.435
35.00000 -0.969
35.02000 3.321
35.04000 2.429
35.06000 4.041
35.08000 0.609
35.10000 3.753
35.12000 4.678
35.14000 1.805
35.16000 1.207
35.18000 5.764
35.20000 0.524
35.22000 -0.113
35.24000 2.555
35.26000 2.846
35.28000 4.387
35.30000 3.294
35.32000 0.789
35.34000 -0.046
35.36000 1.790
35.38000 0.064
35.40000 -3.529
35.42000 -1.834
35.44000 7.071
35.46000 7.117
35.48000 2.142
35.50000 -0.083
35.52000 -1.282
35.54000 -2.246
35.56000 1.069
35.58000 7.239
35.60000 9.301
35.62000 3.346
35.64000 2.282
35.66000 5.607
35.68000 2.625
35.70000 2.781
35.72000 1.179
35.74000 0.477
35.76000 1.620
35.78000 -0.043
35.80000 0.571
35.82000 5.727
35.84000 0.613
35.86000 1.070
35.88000 2.611
35.90000 0.893
35.92000 5.529
35.94000 3.223
35.96000 -0.635
35.98000 -0.984
36.00000 4.964
36.02000 3.630
36.04000 0.985
36.06000 2.758
36.08000 3.455
36.10000 4.900
36.12000 4.142
36.14000 1.686
36.16000 3.125
36.18000 3.977
36.20000 -1.242
36.22000 3.728
36.24000 4.292
36.26000 -0.577
36.28000 2.566
36.30000 3.275
36.32000 1.861
36.34000 -0.490
36.36000 1.226
36.38000 5.803
36.40000 1.709
36.42000 1.597
36.44000 0.299
36.46000 1.611
36.48000 0.749
36.50000 1.378
36.52000 3.944
36.54000 1.105
36.56000 1.864
36.58000 -1.987
36.60000 0.120
36.62000 0.069
36.64000 1.224
36.66000 -2.891
36.68000 -2.859
36.70000 0.977
36.72000 1.910
36.74000 -1.454
36.76000 -2.270
36.78000 -1.666
36.80000 -0.738
36.82000 -2.525
36.84000 -2.072
36.86000 -0.535
36.88000 0.114
36.90000 3.082
36.92000 6.761
36.94000 2.766
36.96000 -1.707
36.98000 -0.828
37.00000 -0.646
37.02000 -3.513
37.04000 0.759
37.06000 5.687
37.08000 5.688
37.10000 7.618
37.12000 2.864
37.14000 1.513
37.16000 1.093
37.18000 0.158
37.20000 -3.074
37.22000 0.635
37.24000 8.099
37.26000 2.950
37.28000 4.452
37.30000 5.238
37.32000 4.028
37.34000 6.656
37.36000 6.800
37.38000 -0.950
37.40000 -2.583
37.42000 2.131
37.44000 1.728
37.46000 -1.026
37.48000 -2.374
37.50000 -0.643
37.52000 -0.374
37.54000 -3.573
37.56000 0.762
37.58000 1.183
37.60000 -1.963
37.62000 -1.374
37.64000 1.261
37.66000 4.695
37.68000 5.485
37.70000 3.615
37.72000 6.792
37.74000 0.872
37.76000 2.430
37.78000 3.254
37.80000 1.720
37.82000 6.642
37.84000 1.982
37.86000 0.033
37.88000 4.110
37.90000 1.936
37.92000 3.430
37.94000 3.206
37.96000 6.168
37.98000 6.663
38.00000 5.638
38.02000 11.691
38.04000 10.896
38.06000 9.329
38.08000 6.802
38.10000 8.298
38.12000 8.433
38.14000 4.655
38.16000 1.068
38.18000 5.162
38.20000 5.230
38.22000 5.578
38.24000 6.393
38.26000 7.942
38.28000 18.008
38.30000 15.828
38.32000 16.900
38.34000 15.178
38.36000 15.715
38.38000 12.331
38.40000 10.625
38.42000 11.010
38.44000 13.341
38.46000 12.980
38.48000 11.177
38.50000 9.948
38.52000 15.344
38.54000 18.552
38.56000 14.008
38.58000 11.356
38.60000 14.274
38.62000 15.633
38.64000 16.164
38.66000 19.089
38.68000 20.158
38.70000 23.091
38.72000 20.765
38.74000 20.810
38.76000 16.157
38.78000 18.874
38.80000 18.869
38.82000 16.926
38.84000 21.597
38.86000 22.035
38.88000 16.454
38.90000 22.061
38.92000 27.126
38.94000 27.462
38.96000 30.943
38.98000 31.427
39.00000 28.132
39.02000 29.418
39.04000 33.565
39.06000 35.132
39.08000 34.812
39.10000 34.733
39.12000 31.087
39.14000 33.265
39.16000 35.528
39.18000 36.103
39.20000 40.690
39.22000 47.163
39.24000 46.984
39.26000 53.912
39.28000 52.517
39.30000 47.640
39.32000 50.599
39.34000 51.752
39.36000 54.976
39.38000 63.892
39.40000 67.027
39.42000 69.831
39.44000 74.891
39.46000 72.114
39.48000 75.420
39.50000 79.115
39.52000 89.005
39.54000 96.183
39.56000 92.974
39.58000 100.356
39.60000 104.223
39.62000 104.979
39.64000 104.840
39.66000 113.246
39.68000 122.619
39.70000 133.176
39.72000 137.503
39.74000 140.477
39.76000 145.756
39.78000 150.376
39.80000 158.990
39.82000 172.829
39.84000 183.607
39.86000 188.011
39.88000 199.673
39.90000 208.133
39.92000 218.715
39.94000 228.347
39.96000 244.214
39.98000 256.544
40.00000 271.821
40.02000 280.594
40.04000 294.940
40.06000 305.327
40.08000 329.581
40.10000 341.747
40.12000 356.558
40.14000 373.468
40.16000 378.386
40.18000 386.762
40.20000 401.942
40.22000 417.960
40.24000 431.054
40.26000 451.434
40.28000 465.864
40.30000 472.954
40.32000 477.300
40.34000 490.392
40.36000 498.664
40.38000 500.452
40.40000 501.327
40.42000 516.003
40.44000 523.450
40.46000 514.136
40.48000 511.623
40.50000 512.094
40.52000 494.135
40.54000 497.533
40.56000 491.177
40.58000 483.496
40.60000 466.534
40.62000 461.647
40.64000 457.195
40.66000 438.332
40.68000 426.409
40.70000 411.710
40.72000 397.051
40.74000 393.562
40.76000 378.227
40.78000 363.912
40.80000 346.845
40.82000 336.945
40.84000 325.882
40.86000 306.873
40.88000 293.175
40.90000 277.616
40.92000 261.362
40.94000 251.326
40.96000 233.750
40.98000 224.830
41.00000 227.036
41.02000 217.653
41.04000 199.272
41.06000 183.156
41.08000 178.380
41.10000 174.067
41.12000 159.137
41.14000 152.642
41.16000 145.324
41.18000 135.607
41.20000 127.545
41.22000 123.040
41.24000 113.686
41.26000 111.764
41.28000 107.600
41.30000 109.461
41.32000 99.667
41.34000 90.369
41.36000 86.518
41.38000 82.489
41.40000 71.924
41.42000 70.972
41.44000 71.006
41.46000 71.257
41.48000 68.357
41.50000 64.179
41.52000 55.263
41.54000 54.118
41.56000 49.619
41.58000 42.250
41.60000 45.445
41.62000 43.871
41.64000 39.649
41.66000 40.320
41.68000 41.626
41.70000 39.879
41.72000 34.989
41.74000 33.683
41.76000 33.798
41.78000 26.362
41.80000 27.634
41.82000 31.346
41.84000 26.229
41.86000 22.898
41.88000 22.897
41.90000 19.520
41.92000 24.777
41.94000 17.728
41.96000 23.353
41.98000 22.776
42.00000 21.407
42.02000 14.224
42.04000 11.284
42.06000 12.821
42.08000 14.315
42.10000 11.206
42.12000 11.977
42.14000 8.038
42.16000 11.691
42.18000 13.290
42.20000 10.800
42.22000 8.464
42.24000 9.539
42.26000 9.511
42.28000 8.610
42.30000 8.889
42.32000 7.099
42.34000 6.567
42.36000 7.808
42.38000 8.502
42.40000 4.872
42.42000 4.956
42.44000 8.555
42.46000 6.111
42.48000 5.853
42.50000 6.174
42.52000 8.985
42.54000 8.464
42.56000 2.130
42.58000 4.698
42.60000 4.445
42.62000 -0.223
42.64000 -2.546
42.66000 -2.907
42.68000 -1.623
42.70000 -0.501
42.72000 6.183
42.74000 6.128
42.76000 0.138
42.78000 -0.327
42.80000 1.033
42.82000 0.299
42.84000 0.702
42.86000 2.931
42.88000 1.007
42.90000 1.167
42.92000 2.554
42.94000 3.774
42.96000 0.980
42.98000 -0.806
43.00000 -0.122
43.02000 -1.875
43.04000 -1.532
43.06000 -1.659
43.08000 -1.299
43.10000 -3.361
43.12000 -3.472
43.14000 -0.644
43.16000 1.863
43.18000 -0.919
43.20000 1.812
43.22000 -2.061
43.24000 -0.713
43.26000 -1.687
43.28000 -2.274
43.30000 -0.837
43.32000 1.865
43.34000 -2.270
43.36000 -2.698
43.38000 -0.035
43.40000 -2.633
43.42000 -1.607
43.44000 -0.744
43.46000 -0.921
43.48000 1.188
43.50000 2.758
43.52000 3.156
43.54000 3.763
43.56000 5.608
43.58000 4.575
43.60000 -2.424
43.62000 -3.396
43.64000 1.811
43.66000 3.718
43.68000 0.519
43.70000 2.658
43.72000 -2.735
43.74000 -0.159
43.76000 0.905
43.78000 -2.740
43.80000 -1.846
43.82000 -0.175
43.84000 2.772
43.86000 3.070
43.88000 -0.564
43.90000 -0.415
43.92000 3.455
43.94000 2.502
43.96000 1.579
43.98000 0.545
44.00000 -1.430
44.02000 -0.992
44.04000 1.770
44.06000 -1.655
44.08000 -0.713
44.10000 1.659
44.12000 -0.538
44.14000 0.178
44.16000 -0.348
44.18000 -1.904
44.20000 -1.223
44.22000 0.283
44.24000 -1.085
44.26000 1.524
44.28000 -1.264
44.30000 -3.386
44.32000 0.297
44.34000 -2.492
44.36000 0.063
44.38000 1.139
44.40000 2.198
44.42000 0.563
44.44000 -0.767
44.46000 2.091
44.48000 2.022
44.50000 4.174
44.52000 1.877
44.54000 1.456
44.56000 2.052
44.58000 2.868
44.60000 1.922
44.62000 -0.950
44.64000 3.393
44.66000 5.396
44.68000 1.806
44.70000 -1.046
44.72000 -0.268
44.74000 -3.367
44.76000 -0.179
44.78000 2.489
44.80000 -0.250
44.82000 2.079
44.84000 1.730
44.86000 1.079
44.88000 0.078
44.90000 -0.590
44.92000 -1.969
44.94000 -3.362
44.96000 -0.126
44.98000 1.302
45.00000 1.859
45.02000 -0.050
45.04000 -1.967
45.06000 -1.147
45.08000 -0.342
45.10000 -0.203
45.12000 -0.256
45.14000 -1.155
45.16000 -0.250
45.18000 -0.317
45.20000 -1.424
45.22000 -1.230
45.24000 1.867
45.26000 1.805
45.28000 4.323
45.30000 4.067
45.32000 2.394
45.34000 3.119
45.36000 3.431
45.38000 4.621
45.40000 6.162
45.42000 2.871
45.44000 0.564
45.46000 1.489
45.48000 -1.645
45.50000 2.637
45.52000 5.820
45.54000 9.310
45.56000 6.349
45.58000 3.451
45.60000 4.093
45.62000 7.718
45.64000 13.079
45.66000 11.848
45.68000 13.549
45.70000 6.923
45.72000 13.046
45.74000 15.177
45.76000 13.686
45.78000 11.699
45.80000 11.732
45.82000 13.503
45.84000 14.746
45.86000 18.883
45.88000 17.269
45.90000 16.800
45.92000 15.062
45.94000 19.235
45.96000 14.888
45.98000 18.961
46.00000 17.472
46.02000 22.295
46.04000 23.803
46.06000 16.624
46.08000 17.601
46.10000 24.079
46.12000 29.669
46.14000 25.961
46.16000 26.068
46.18000 32.496
46.20000 27.174
46.22000 27.121
46.24000 26.495
46.26000 28.968
46.28000 24.778
46.30000 33.017
46.32000 33.982
46.34000 28.893
46.36000 34.040
46.38000 34.147
46.40000 32.452
46.42000 33.485
46.44000 38.180
46.46000 41.449
46.48000 44.823
46.50000 43.361
46.52000 43.438
46.54000 51.728
46.56000 53.237
46.58000 49.484
46.60000 49.605
46.62000 48.913
46.64000 51.122
46.66000 51.160
46.68000 51.316
46.70000 56.357
46.72000 58.728
46.74000 59.227
46.76000 59.118
46.78000 59.248
46.80000 67.058
46.82000 66.255
46.84000 68.304
46.86000 63.758
46.88000 63.191
46.90000 63.116
46.92000 67.457
46.94000 73.277
46.96000 72.222
46.98000 71.500
47.00000 69.811
47.02000 70.716
47.04000 76.117
47.06000 81.941
47.08000 78.337
47.10000 76.519
47.12000 74.051
47.14000 70.479
47.16000 72.441
47.18000 74.837
47.20000 76.312
47.22000 74.750
47.24000 70.300
47.26000 68.704
47.28000 62.383
47.30000 64.691
47.32000 65.456
47.34000 63.660
47.36000 64.294
47.38000 68.967
47.40000 69.211
47.42000 62.976
47.44000 59.678
47.46000 61.096
47.48000 56.548
47.50000 57.621
47.52000 55.401
47.54000 51.470
47.56000 50.201
47.58000 52.427
47.60000 47.610
47.62000 45.079
47.64000 43.151
47.66000 43.614
47.68000 43.730
47.70000 41.504
47.72000 38.998
47.74000 34.640
47.76000 37.828
47.78000 34.649
47.80000 37.951
47.82000 34.602
47.84000 31.861
47.86000 34.467
47.88000 27.938
47.90000 22.908
47.92000 19.346
47.94000 21.094
47.96000 23.190
47.98000 17.594
48.00000 18.479
48.02000 15.057
48.04000 23.477
48.06000 23.507
48.08000 17.901
48.10000 14.611
48.12000 15.301
48.14000 15.369
48.16000 14.783
48.18000 9.899
48.20000 8.064
48.22000 7.366
48.24000 8.007
48.26000 2.870
48.28000 9.277
48.30000 12.457
48.32000 8.709
48.34000 5.715
48.36000 12.158
48.38000 9.616
48.40000 10.496
48.42000 7.884
48.44000 7.173
48.46000 2.188
48.48000 2.887
48.50000 1.915
48.52000 4.373
48.54000 2.347
48.56000 -2.352
48.58000 -2.620
48.60000 2.795
48.62000 5.735
48.64000 -1.621
48.66000 3.398
48.68000 6.218
48.70000 0.436
48.72000 -1.663
48.74000 1.571
48.76000 3.659
48.78000 1.627
48.80000 7.225
48.82000 5.418
48.84000 4.424
48.86000 0.149
48.88000 -2.325
48.90000 -2.736
48.92000 0.288
48.94000 3.471
48.96000 2.057
48.98000 -0.051
49.00000 0.276
49.02000 -2.064
49.04000 1.850
49.06000 0.490
49.08000 -0.393
49.10000 0.982
49.12000 2.740
49.14000 -0.694
49.16000 -1.679
49.18000 1.213
49.20000 0.564
49.22000 -0.667
49.24000 0.518
49.26000 0.190
49.28000 1.119
49.30000 -0.087
49.32000 3.377
49.34000 2.170
49.36000 -0.621
49.38000 0.357
49.40000 4.258
49.42000 2.116
49.44000 3.096
49.46000 0.053
49.48000 -2.904
49.50000 -2.440
49.52000 1.119
49.54000 1.176
49.56000 5.823
49.58000 1.490
49.60000 -0.051
49.62000 2.132
49.64000 2.975
49.66000 2.414
49.68000 5.754
49.70000 1.449
49.72000 -0.113
49.74000 0.188
49.76000 5.746
49.78000 4.116
49.80000 4.807
49.82000 4.199
49.84000 5.823
49.86000 4.399
49.88000 0.715
49.90000 -2.315
49.92000 -2.843
49.94000 0.409
49.96000 1.277
49.98000 6.684
50.00000 2.283
50.02000 -2.837
50.04000 2.587
50.06000 5.094
50.08000 1.946
50.10000 1.364
50.12000 2.058
50.14000 4.140
50.16000 3.334
50.18000 0.088
50.20000 2.629
50.22000 4.854
50.24000 5.081
50.26000 2.600
50.28000 -0.894
50.30000 3.273
50.32000 1.977
50.34000 3.132
50.36000 3.389
50.38000 0.710
50.40000 3.169
50.42000 5.048
50.44000 6.930
50.46000 3.170
50.48000 3.397
50.50000 4.785
50.52000 4.944
50.54000 1.638
50.56000 2.123
50.58000 2.486
50.60000 2.428
50.62000 0.073
50.64000 1.950
50.66000 1.187
50.68000 2.363
50.70000 3.621
50.72000 2.786
50.74000 5.398
50.76000 3.101
50.78000 5.443
50.80000 5.061
50.82000 7.562
50.84000 6.678
50.86000 1.292
50.88000 2.885
50.90000 7.268
50.92000 5.735
50.94000 0.791
50.96000 3.693
50.98000 6.113
51.00000 4.957
51.02000 3.694
51.04000 5.586
51.06000 2.400
51.08000 0.924
51.10000 2.023
51.12000 0.227
51.14000 -2.754
51.16000 -2.405
51.18000 0.282
51.20000 4.597
51.22000 9.615
51.24000 7.162
51.26000 6.341
51.28000 1.444
51.30000 4.721
51.32000 3.314
51.34000 0.553
51.36000 0.925
51.38000 0.423
51.40000 3.352
51.42000 2.735
51.44000 4.292
51.46000 -0.699
51.48000 -2.009
51.50000 1.847
51.52000 1.791
51.54000 4.405
51.56000 4.170
51.58000 3.775
51.60000 1.938
51.62000 2.546
51.64000 1.371
51.66000 2.568
51.68000 3.260
51.70000 5.570
51.72000 6.352
51.74000 2.089
51.76000 -2.732
51.78000 1.472
51.80000 4.052
51.82000 2.096
51.84000 8.343
51.86000 6.199
51.88000 7.950
51.90000 9.419
51.92000 5.539
51.94000 7.516
51.96000 5.988
51.98000 0.289
52.00000 3.900
52.02000 8.975
52.04000 8.869
52.06000 3.646
52.08000 7.874
52.10000 8.802
52.12000 4.726
52.14000 4.762
52.16000 6.295
52.18000 3.605
52.20000 0.916
52.22000 -0.942
52.24000 2.041
52.26000 -0.125
52.28000 1.747
52.30000 -2.299
52.32000 -0.337
52.34000 2.664
52.36000 3.215
52.38000 1.180
52.40000 0.112
52.42000 2.381
52.44000 0.418
52.46000 4.983
52.48000 3.985
52.50000 5.530
52.52000 3.429
52.54000 4.768
52.56000 3.209
52.58000 0.396
52.60000 4.484
52.62000 2.019
52.64000 4.251
52.66000 2.683
52.68000 6.633
52.70000 3.519
52.72000 2.807
52.74000 0.634
52.76000 1.448
52.78000 -2.373
52.80000 -2.711
52.82000 1.865
52.84000 0.638
52.86000 0.434
52.88000 4.828
52.90000 4.409
52.92000 4.486
52.94000 2.889
52.96000 1.050
52.98000 0.465
53.00000 3.900
53.02000 6.207
53.04000 6.322
53.06000 4.056
53.08000 6.020
53.10000 4.491
53.12000 3.091
53.14000 0.387
53.16000 3.247
53.18000 3.254
53.20000 3.939
53.22000 4.747
53.24000 0.021
53.26000 2.646
53.28000 1.682
53.30000 2.779
53.32000 2.651
53.34000 4.374
53.36000 -0.870
53.38000 7.677
53.40000 3.857
53.42000 2.393
53.44000 2.668
53.46000 2.202
53.48000 0.115
53.50000 -2.692
53.52000 -1.161
53.54000 -2.145
53.56000 -0.575
53.58000 -0.740
53.60000 0.570
53.62000 -1.082
53.64000 -1.125
53.66000 2.388
53.68000 -1.618
53.70000 1.801
53.72000 1.641
53.74000 1.265
53.76000 -1.844
53.78000 -0.831
53.80000 0.620
53.82000 -2.693
53.84000 -0.556
53.86000 7.795
53.88000 5.498
53.90000 3.331
53.92000 0.512
53.94000 -0.357
53.96000 -0.353
53.98000 -0.098
54.00000 5.933
54.02000 3.500
54.04000 2.850
54.06000 2.589
54.08000 0.403
54.10000 4.181
54.12000 2.895
54.14000 3.841
54.16000 1.132
54.18000 2.685
54.20000 0.697
54.22000 0.598
54.24000 0.044
54.26000 0.054
54.28000 1.224
54.30000 2.761
54.32000 0.122
54.34000 -2.119
54.36000 2.189
54.38000 0.262
54.40000 1.376
54.42000 2.109
54.44000 -1.965
54.46000 0.014
54.48000 -1.035
54.50000 0.202
54.52000 -2.348
54.54000 -2.108
54.56000 -1.281
54.58000 -1.807
54.60000 0.260
54.62000 4.944
54.64000 1.409
54.66000 -2.677
54.68000 -0.067
54.70000 2.579
54.72000 0.405
54.74000 0.693
54.76000 -0.718
54.78000 -2.457
54.80000 1.016
54.82000 0.832
54.84000 1.110
54.86000 1.540
54.88000 -1.728
54.90000 1.414
54.92000 -0.243
54.94000 0.429
54.96000 -1.060
54.98000 -2.664
55.00000 -0.373
55.02000 6.773
55.04000 3.891
55.06000 0.161
55.08000 3.415
55.10000 6.505
55.12000 7.216
55.14000 4.533
55.16000 -0.126
55.18000 -0.871
55.20000 1.770
55.22000 4.881
55.24000 4.360
55.26000 2.010
55.28000 3.083
55.30000 7.969
55.32000 9.923
55.34000 5.042
55.36000 0.137
55.38000 1.097
55.40000 3.695
55.42000 4.797
55.44000 2.467
55.46000 2.934
55.48000 3.260
55.50000 -1.113
55.52000 1.472
55.54000 3.068
55.56000 -0.137
55.58000 -2.632
55.60000 1.701
55.62000 2.923
55.64000 -1.074
55.66000 1.332
55.68000 0.815
55.70000 1.911
55.72000 8.294
55.74000 3.659
55.76000 4.942
55.78000 7.474
55.80000 4.460
55.82000 3.104
55.84000 6.165
55.86000 6.971
55.88000 3.466
55.90000 1.497
55.92000 1.931
55.94000 8.128
55.96000 -1.655
55.98000 -2.610
56.00000 -1.403
56.02000 1.417
56.04000 4.824
56.06000 4.521
56.08000 4.945
56.10000 3.883
56.12000 1.035
56.14000 2.576
56.16000 -0.575
56.18000 2.342
56.20000 2.188
56.22000 3.772
56.24000 3.243
56.26000 -1.034
56.28000 4.319
56.30000 1.568
56.32000 4.643
56.34000 0.200
56.36000 0.523
56.38000 -0.379
56.40000 -2.606
56.42000 3.565
56.44000 4.083
56.46000 1.584
56.48000 -1.187
56.50000 1.654
56.52000 0.477
56.54000 2.606
56.56000 3.708
56.58000 2.386
56.60000 1.520
56.62000 2.384
56.64000 1.682
56.66000 3.820
56.68000 5.650
56.70000 7.644
56.72000 10.316
56.74000 4.512
56.76000 4.946
56.78000 6.387
56.80000 0.718
56.82000 4.730
56.84000 3.262
56.86000 -2.600
56.88000 -0.384
56.90000 1.290
56.92000 3.370
56.94000 1.006
56.96000 3.288
56.98000 6.229
57.00000 4.361
57.02000 3.489
57.04000 3.935
57.06000 3.265
57.08000 3.210
57.10000 -0.195
57.12000 0.487
57.14000 6.518
57.16000 8.019
57.18000 4.345
57.20000 2.880
57.22000 1.201
57.24000 1.145
57.26000 1.048
57.28000 2.916
57.30000 -0.501
57.32000 -0.486
57.34000 0.666
57.36000 2.714
57.38000 3.448
57.40000 2.672
57.42000 4.087
57.44000 3.677
57.46000 -0.022
57.48000 -0.786
57.50000 0.102
57.52000 0.430
57.54000 1.642
57.56000 -0.615
57.58000 -0.490
57.60000 1.444
57.62000 2.304
57.64000 2.323
57.66000 3.924
57.68000 2.308
57.70000 -0.688
57.72000 1.164
57.74000 1.979
57.76000 6.478
57.78000 2.543
57.80000 0.734
57.82000 5.053
57.84000 0.304
57.86000 -1.328
57.88000 2.568
57.90000 1.573
57.92000 1.903
57.94000 -0.334
57.96000 4.650
57.98000 3.353
58.00000 3.692
58.02000 -0.085
58.04000 -1.574
58.06000 -1.502
58.08000 -2.559
58.10000 0.417
58.12000 3.592
58.14000 5.837
58.16000 4.008
58.18000 3.335
58.20000 4.292
58.22000 5.101
58.24000 3.627
58.26000 6.032
58.28000 4.846
58.30000 2.214
58.32000 -1.012
58.34000 -1.265
58.36000 0.655
58.38000 6.047
58.40000 1.561
58.42000 0.457
58.44000 2.747
58.46000 4.885
58.48000 0.995
58.50000 -1.865
58.52000 0.506
58.54000 -0.400
58.56000 0.016
58.58000 -0.627
58.60000 1.918
58.62000 1.819
58.64000 3.304
58.66000 4.352
58.68000 5.331
58.70000 4.931
58.72000 1.553
58.74000 0.616
58.76000 3.415
58.78000 0.287
58.80000 2.123
58.82000 5.860
58.84000 0.523
58.86000 -2.507
58.88000 1.240
58.90000 1.520
58.92000 -0.708
58.94000 1.976
58.96000 0.048
58.98000 -0.945
59.00000 0.672
59.02000 4.957
59.04000 5.811
59.06000 1.373
59.08000 1.366
59.10000 5.552
59.12000 5.746
59.14000 5.314
59.16000 2.962
59.18000 2.050
59.20000 3.963
59.22000 4.103
59.24000 3.597
59.26000 -0.084
59.28000 -0.417
59.30000 5.050
59.32000 8.371
59.34000 6.658
59.36000 1.981
59.38000 3.077
59.40000 3.781
59.42000 3.970
59.44000 9.095
59.46000 6.202
59.48000 0.441
59.50000 5.200
59.52000 5.476
59.54000 2.268
59.56000 0.044
59.58000 3.290
59.60000 4.062
59.62000 0.356
59.64000 -2.146
59.66000 -2.491
59.68000 0.871
59.70000 4.094
59.72000 -0.178
59.74000 1.445
59.76000 6.248
59.78000 5.576
59.80000 1.730
59.82000 6.198
59.84000 3.127
59.86000 -1.948
59.88000 -0.858
59.90000 3.452
59.92000 6.550
59.94000 3.620
59.96000 2.593
59.98000 4.528
60.00000 3.993
60.02000 6.087
60.04000 3.433
60.06000 -0.381
60.08000 1.791
60.10000 0.824
60.12000 1.860
60.14000 0.353
60.16000 0.636
60.18000 0.956
60.20000 1.652
60.22000 0.764
60.24000 1.852
60.26000 -1.781
60.28000 -2.472
60.30000 2.582
60.32000 3.746
60.34000 0.700
60.36000 -0.408
60.38000 4.755
60.40000 7.291
60.42000 6.755
60.44000 1.138
60.46000 0.153
60.48000 2.224
60.50000 4.075
60.52000 4.695
60.54000 3.442
60.56000 6.681
60.58000 6.128
60.60000 1.786
60.62000 2.685
60.64000 3.293
60.66000 3.738
60.68000 -0.049
60.70000 -0.222
60.72000 3.869
60.74000 6.973
60.76000 1.768
60.78000 4.873
60.80000 4.144
60.82000 1.404
60.84000 5.010
60.86000 5.794
60.88000 2.511
60.90000 3.531
60.92000 7.797
60.94000 5.120
60.96000 2.485
60.98000 0.651
61.00000 1.796
61.02000 2.046
61.04000 2.634
61.06000 4.148
61.08000 3.008
61.10000 5.256
61.12000 8.104
61.14000 5.931
61.16000 3.899
61.18000 4.670
61.20000 3.424
61.22000 4.199
61.24000 2.183
61.26000 4.652
61.28000 5.298
61.30000 4.449
61.32000 5.236
61.34000 7.425
61.36000 2.440
61.38000 -2.428
61.40000 2.868
61.42000 5.317
61.44000 8.050
61.46000 1.716
61.48000 4.667
61.50000 3.536
61.52000 0.822
61.54000 0.965
61.56000 3.865
61.58000 1.392
61.60000 2.129
61.62000 4.467
61.64000 7.916
61.66000 8.691
61.68000 4.059
61.70000 -0.594
61.72000 -0.481
61.74000 3.495
61.76000 4.711
61.78000 4.437
61.80000 2.212
61.82000 3.842
61.84000 1.092
61.86000 -0.299
61.88000 4.742
61.90000 7.671
61.92000 4.204
61.94000 3.329
61.96000 1.704
61.98000 -0.701
62.00000 3.422
62.02000 6.130
62.04000 4.916
62.06000 8.509
62.08000 6.374
62.10000 6.381
62.12000 7.524
62.14000 4.865
62.16000 2.760
62.18000 4.147
62.20000 4.807
62.22000 1.795
62.24000 3.825
62.26000 4.516
62.28000 1.165
62.30000 4.063
62.32000 3.558
62.34000 0.736
62.36000 1.466
62.38000 5.694
62.40000 3.172
62.42000 2.902
62.44000 3.738
62.46000 3.137
62.48000 1.127
62.50000 -2.411
62.52000 -2.411
62.54000 -2.050
62.56000 3.679
62.58000 3.481
62.60000 1.413
62.62000 4.161
62.64000 2.859
62.66000 3.706
62.68000 2.967
62.70000 1.732
62.72000 1.642
62.74000 3.158
62.76000 4.152
62.78000 3.657
62.80000 3.399
62.82000 2.255
62.84000 4.779
62.86000 3.987
62.88000 2.798
62.90000 4.694
62.92000 5.075
62.94000 -0.560
62.96000 0.468
62.98000 4.616
63.00000 -0.857
63.02000 -0.832
63.04000 1.399
63.06000 3.673
63.08000 4.634
63.10000 3.228
63.12000 -0.720
63.14000 3.517
63.16000 1.681
63.18000 0.402
63.20000 2.403
63.22000 1.633
63.24000 4.328
63.26000 6.363
63.28000 3.970
63.30000 3.343
63.32000 3.884
63.34000 2.667
63.36000 1.197
63.38000 3.022
63.40000 4.803
63.42000 2.213
63.44000 1.468
63.46000 1.154
63.48000 -0.993
63.50000 -2.190
63.52000 -1.211
63.54000 0.569
63.56000 -1.750
63.58000 -2.439
63.60000 -2.134
63.62000 1.996
63.64000 0.922
63.66000 0.348
63.68000 3.797
63.70000 5.144
63.72000 4.129
63.74000 2.292
63.76000 -0.465
63.78000 -1.170
63.80000 -0.461
63.82000 6.284
63.84000 5.297
63.86000 1.084
63.88000 1.443
63.90000 2.501
63.92000 3.604
63.94000 0.490
63.96000 2.170
63.98000 3.439
64.00000 3.460
64.02000 -1.881
64.04000 1.549
64.06000 3.365
64.08000 3.543
64.10000 0.639
64.12000 1.540
64.14000 3.078
64.16000 2.651
64.18000 0.081
64.20000 1.539
64.22000 2.309
64.24000 3.318
64.26000 -1.655
64.28000 -2.441
64.30000 1.016
64.32000 3.470
64.34000 0.532
64.36000 -1.017
64.38000 -0.342
64.40000 -0.719
64.42000 -1.219
64.44000 2.014
64.46000 1.674
64.48000 6.014
64.50000 5.481
64.52000 1.472
64.54000 -0.376
64.56000 0.471
64.58000 3.531
64.60000 3.725
64.62000 2.910
64.64000 1.624
64.66000 2.599
64.68000 4.528
64.70000 1.524
64.72000 -0.480
64.74000 2.266
64.76000 4.813
64.78000 3.941
64.80000 4.210
64.82000 1.884
64.84000 2.859
64.86000 4.207
64.88000 3.857
64.90000 1.695
64.92000 1.051
64.94000 -0.223
64.96000 0.336
64.98000 3.774
65.00000 7.171
65.02000 6.956
65.04000 1.823
65.06000 1.289
65.08000 1.965
65.10000 2.190
65.12000 0.678
65.14000 2.537
65.16000 3.064
65.18000 2.560
65.20000 2.199
65.22000 5.664
65.24000 2.500
65.26000 4.914
65.28000 1.201
65.30000 4.173
65.32000 3.782
65.34000 -1.628
65.36000 3.097
65.38000 6.638
65.40000 3.341
65.42000 1.720
65.44000 4.543
65.46000 5.970
65.48000 4.431
65.50000 2.740
65.52000 1.558
65.54000 -0.155
65.56000 0.701
65.58000 1.405
65.60000 1.172
65.62000 -1.856
65.64000 1.082
65.66000 2.429
65.68000 3.767
65.70000 0.735
65.72000 -2.426
65.74000 1.580
65.76000 6.089
65.78000 5.504
65.80000 3.431
65.82000 3.472
65.84000 1.517
65.86000 -0.176
65.88000 -1.177
65.90000 -1.959
65.92000 -1.709
65.94000 2.866
65.96000 1.249
65.98000 0.685
66.00000 -0.259
66.02000 0.623
66.04000 2.608
66.06000 2.220
66.08000 1.628
66.10000 1.411
66.12000 0.551
66.14000 0.844
66.16000 0.235
66.18000 2.264
66.20000 3.573
66.22000 2.019
66.24000 -1.189
66.26000 2.548
66.28000 3.039
66.30000 2.718
66.32000 0.819
66.34000 -0.333
66.36000 0.260
66.38000 4.369
66.40000 4.950
66.42000 4.137
66.44000 4.318
66.46000 1.631
66.48000 3.893
66.50000 2.481
66.52000 -2.161
66.54000 1.264
66.56000 5.903
66.58000 1.897
66.60000 -2.455
66.62000 -0.510
66.64000 4.051
66.66000 5.782
66.68000 4.289
66.70000 0.304
66.72000 -0.994
66.74000 -1.427
66.76000 -0.059
66.78000 0.839
66.80000 1.118
66.82000 1.440
66.84000 3.419
66.86000 5.453
66.88000 -1.193
66.90000 0.715
66.92000 -0.958
66.94000 -0.498
66.96000 1.540
66.98000 2.155
67.00000 2.920
67.02000 3.115
67.04000 -0.546
67.06000 0.961
67.08000 1.716
67.10000 0.358
67.12000 0.330
67.14000 4.008
67.16000 2.019
67.18000 3.129
67.20000 4.144
67.22000 0.990
67.24000 -2.241
67.26000 0.146
67.28000 0.968
67.30000 2.443
67.32000 2.955
67.34000 2.480
67.36000 1.491
67.38000 -0.767
67.40000 0.497
67.42000 1.465
67.44000 0.756
67.46000 0.462
67.48000 1.075
67.50000 1.570
67.52000 3.873
67.54000 3.109
67.56000 5.724
67.58000 4.571
67.60000 2.099
67.62000 4.647
67.64000 2.206
67.66000 1.862
67.68000 1.431
67.70000 0.647
67.72000 0.848
67.74000 4.450
67.76000 6.455
67.78000 2.603
67.80000 3.050
67.82000 4.311
67.84000 3.461
67.86000 4.244
67.88000 7.057
67.90000 4.015
67.92000 5.308
67.94000 8.690
67.96000 6.388
67.98000 3.932
68.00000 4.696
68.02000 5.968
68.04000 10.931
68.06000 12.394
68.08000 11.321
68.10000 10.352
68.12000 9.051
68.14000 5.550
68.16000 6.027
68.18000 13.292
68.20000 13.230
68.22000 11.155
68.24000 10.983
68.26000 11.456
68.28000 8.017
68.30000 7.590
68.32000 10.224
68.34000 12.641
68.36000 9.802
68.38000 13.429
68.40000 15.075
68.42000 16.600
68.44000 17.876
68.46000 17.812
68.48000 18.772
68.50000 14.413
68.52000 14.596
68.54000 18.033
68.56000 19.163
68.58000 18.565
68.60000 14.239
68.62000 15.096
68.64000 19.377
68.66000 21.953
68.68000 24.052
68.70000 20.623
68.72000 19.177
68.74000 17.543
68.76000 15.968
68.78000 15.474
68.80000 15.259
68.82000 15.279
68.84000 17.137
68.86000 23.322
68.88000 24.207
68.90000 19.046
68.92000 19.726
68.94000 17.434
68.96000 17.354
68.98000 18.569
69.00000 19.944
69.02000 16.839
69.04000 16.388
69.06000 15.982
69.08000 18.884
69.10000 19.977
69.12000 15.652
69.14000 12.735
69.16000 13.307
69.18000 12.984
69.20000 16.972
69.22000 16.917
69.24000 14.971
69.26000 16.564
69.28000 15.812
69.30000 11.004
69.32000 8.957
69.34000 12.216
69.36000 17.566
69.38000 16.073
69.40000 12.795
69.42000 11.673
69.44000 10.235
69.46000 6.030
69.48000 9.058
69.50000 10.482
69.52000 9.480
69.54000 8.859
69.56000 6.285
69.58000 9.120
69.60000 3.282
69.62000 3.827
69.64000 7.582
69.66000 8.016
69.68000 4.256
69.70000 3.299
69.72000 1.222
69.74000 1.375
69.76000 3.100
69.78000 3.498
69.80000 1.484
69.82000 4.278
69.84000 5.504
69.86000 2.700
69.88000 1.532
69.90000 3.984
69.92000 5.980
69.94000 5.498
69.96000 4.211
69.98000 4.705
70.00000 0.878
70.02000 -0.956
70.04000 0.318
70.06000 2.210
70.08000 -0.381
70.10000 2.981
70.12000 3.973
70.14000 5.830
70.16000 3.905
70.18000 1.198
70.20000 0.511
70.22000 4.147
70.24000 1.042
70.26000 0.197
70.28000 1.617
70.30000 3.490
70.32000 4.859
70.34000 0.383
70.36000 -2.434
70.38000 0.729
70.40000 3.608
70.42000 4.285
70.44000 1.097
70.46000 0.030
70.48000 -1.337
70.50000 -0.805
70.52000 -0.886
70.54000 1.232
70.56000 2.602
70.58000 0.115
70.60000 -1.530
70.62000 -1.033
70.64000 0.098
70.66000 4.614
70.68000 2.768
70.70000 2.582
70.72000 0.378
70.74000 -1.293
70.76000 1.343
70.78000 0.947
70.80000 4.021
70.82000 4.453
70.84000 6.316
70.86000 3.576
70.88000 0.329
70.90000 4.644
70.92000 1.976
70.94000 0.339
70.96000 2.185
70.98000 4.336
71.00000 3.684
71.02000 1.059
71.04000 3.858
71.06000 -0.448
71.08000 -0.902
71.10000 -0.404
71.12000 1.743
71.14000 -1.686
71.16000 -2.351
71.18000 1.035
71.20000 4.706
71.22000 3.494
71.24000 2.382
71.26000 4.361
71.28000 3.531
71.30000 3.137
71.32000 2.737
71.34000 4.720
71.36000 3.433
71.38000 3.914
71.40000 3.838
71.42000 2.743
71.44000 2.622
71.46000 1.191
71.48000 6.587
71.50000 8.405
71.52000 8.410
71.54000 6.420
71.56000 4.484
71.58000 3.790
71.60000 4.330
71.62000 2.341
71.64000 1.006
71.66000 1.676
71.68000 5.537
71.70000 2.884
71.72000 2.583
71.74000 1.939
71.76000 3.610
71.78000 5.762
71.80000 2.275
71.82000 2.265
71.84000 5.058
71.86000 7.095
71.88000 3.749
71.90000 0.959
71.92000 -2.269
71.94000 1.761
71.96000 5.210
71.98000 2.742
72.00000 5.626
72.02000 4.585
72.04000 2.860
72.06000 4.263
72.08000 5.911
72.10000 6.095
72.12000 3.928
72.14000 2.161
72.16000 5.044
72.18000 6.964
72.20000 9.741
72.22000 11.534
72.24000 8.163
72.26000 2.231
72.28000 1.051
72.30000 0.290
72.32000 5.529
72.34000 2.150
72.36000 2.657
72.38000 3.368
72.40000 4.474
72.42000 2.677
72.44000 3.848
72.46000 8.832
72.48000 2.705
72.50000 -1.079
72.52000 -0.567
72.54000 -2.274
72.56000 -1.467
72.58000 -0.826
72.60000 2.551
72.62000 5.483
72.64000 9.079
72.66000 3.798
72.68000 2.853
72.70000 3.988
72.72000 3.053
72.74000 3.179
72.76000 2.643
72.78000 -1.633
72.80000 -1.532
72.82000 0.965
72.84000 3.009
72.86000 2.846
72.88000 4.310
72.90000 2.735
72.92000 4.772
72.94000 4.741
72.96000 0.336
72.98000 3.365
73.00000 6.638
73.02000 4.457
73.04000 1.655
73.06000 4.482
73.08000 5.567
73.10000 5.938
73.12000 2.218
73.14000 2.514
73.16000 0.955
73.18000 1.323
73.20000 0.386
73.22000 2.408
73.24000 3.277
73.26000 6.853
73.28000 3.706
73.30000 5.800
73.32000 3.035
73.34000 0.919
73.36000 -0.090
73.38000 2.661
73.40000 2.142
73.42000 3.674
73.44000 2.816
73.46000 -1.686
73.48000 0.411
73.50000 2.485
73.52000 -0.092
73.54000 -2.258
73.56000 -0.513
73.58000 0.856
73.60000 1.327
73.62000 -0.895
73.64000 -0.890
73.66000 1.109
73.68000 -1.179
73.70000 0.073
73.72000 3.533
73.74000 2.110
73.76000 1.914
73.78000 1.640
73.80000 3.237
73.82000 2.698
73.84000 2.572
73.86000 1.492
73.88000 1.905
73.90000 -0.819
73.92000 -2.245
73.94000 1.774
73.96000 3.856
73.98000 3.490
74.00000 3.663
74.02000 3.997
74.04000 5.306
74.06000 2.180
74.08000 0.064
74.10000 3.781
74.12000 6.472
74.14000 4.524
74.16000 0.596
74.18000 0.190
74.20000 1.395
74.22000 -0.848
74.24000 1.903
74.26000 0.617
74.28000 -0.332
74.30000 -1.772
74.32000 -0.223
74.34000 2.578
74.36000 0.270
74.38000 0.163
74.40000 -2.235
74.42000 -1.433
74.44000 1.789
74.46000 2.273
74.48000 6.186
74.50000 0.893
74.52000 -1.296
74.54000 3.963
74.56000 6.267
74.58000 3.275
74.60000 -0.326
74.62000 0.755
74.64000 4.589
74.66000 4.366
74.68000 1.964
74.70000 -1.743
74.72000 1.402
74.74000 -1.791
74.76000 -1.100
74.78000 1.517
74.80000 0.624
74.82000 1.646
74.84000 5.146
74.86000 4.933
74.88000 3.462
74.90000 4.210
74.92000 3.296
74.94000 -1.430
74.96000 0.409
74.98000 -2.226
75.00000 1.760
75.02000 5.277
75.04000 3.259
75.06000 4.597
75.08000 2.541
75.10000 5.721
75.12000 4.692
75.14000 6.307
75.16000 8.337
75.18000 4.738
75.20000 1.786
75.22000 3.588
75.24000 3.052
75.26000 1.752
75.28000 -1.294
75.30000 -1.129
75.32000 0.125
75.34000 2.109
75.36000 2.931
75.38000 4.394
75.40000 1.745
75.42000 3.193
75.44000 0.298
75.46000 0.565
75.48000 1.866
75.50000 2.660
75.52000 1.994
75.54000 0.628
75.56000 1.488
75.58000 -2.241
75.60000 0.337
75.62000 3.927
75.64000 8.364
75.66000 4.470
75.68000 5.351
75.70000 6.364
75.72000 2.395
75.74000 0.424
75.76000 0.807
75.78000 0.368
75.80000 2.391
75.82000 -1.109
75.84000 1.014
75.86000 4.314
75.88000 6.106
75.90000 4.291
75.92000 4.131
75.94000 8.438
75.96000 3.480
75.98000 1.748
76.00000 -1.141
76.02000 3.309
76.04000 0.737
76.06000 1.611
76.08000 7.460
76.10000 3.351
76.12000 3.615
76.14000 6.212
76.16000 5.587
76.18000 5.722
76.20000 0.348
76.22000 2.081
76.24000 6.434
76.26000 6.036
76.28000 5.736
76.30000 0.508
76.32000 -2.160
76.34000 2.168
76.36000 4.104
76.38000 5.169
76.40000 2.970
76.42000 -0.128
76.44000 3.219
76.46000 7.095
76.48000 0.928
76.50000 0.866
76.52000 -2.255
76.54000 1.109
76.56000 4.874
76.58000 6.953
76.60000 4.316
76.62000 7.672
76.64000 7.630
76.66000 4.340
76.68000 2.406
76.70000 1.257
76.72000 3.252
76.74000 2.915
76.76000 5.019
76.78000 4.906
76.80000 3.425
76.82000 4.979
76.84000 7.350
76.86000 3.929
76.88000 -1.059
76.90000 1.781
76.92000 1.515
76.94000 -0.544
76.96000 3.072
76.98000 5.288
77.00000 2.296
77.02000 -0.118
77.04000 2.751
77.06000 4.791
77.08000 2.109
77.10000 -0.215
77.12000 2.619
77.14000 1.987
77.16000 0.585
77.18000 1.392
77.20000 -0.058
77.22000 0.847
77.24000 3.170
77.26000 2.904
77.28000 1.522
77.30000 4.638
77.32000 3.839
77.34000 2.536
77.36000 1.648
77.38000 1.951
77.40000 -2.259
77.42000 -0.317
77.44000 3.031
77.46000 2.714
77.48000 -1.321
77.50000 1.409
77.52000 6.656
77.54000 5.484
77.56000 3.400
77.58000 1.368
77.60000 2.761
77.62000 3.947
77.64000 4.737
77.66000 2.779
77.68000 1.943
77.70000 3.006
77.72000 4.481
77.74000 4.558
77.76000 3.340
77.78000 2.052
77.80000 4.042
77.82000 3.547
77.84000 4.089
77.86000 7.713
77.88000 4.484
77.90000 1.901
77.92000 2.221
77.94000 1.859
77.96000 3.457
77.98000 5.635
78.00000 8.044
78.02000 5.427
78.04000 4.648
78.06000 3.462
78.08000 2.351
78.10000 4.911
78.12000 1.706
78.14000 -2.261
78.16000 0.529
78.18000 4.643
78.20000 5.706
78.22000 2.997
78.24000 4.385
78.26000 5.683
78.28000 5.772
78.30000 3.354
78.32000 2.495
78.34000 3.261
78.36000 0.712
78.38000 1.472
78.40000 2.590
78.42000 1.882
78.44000 7.260
78.46000 6.009
78.48000 2.718
78.50000 1.011
78.52000 5.322
78.54000 2.835
78.56000 -1.036
78.58000 -1.315
78.60000 -0.260
78.62000 0.435
78.64000 3.118
78.66000 3.831
78.68000 0.403
78.70000 2.373
78.72000 2.150
78.74000 -1.427
78.76000 -2.006
78.78000 -2.299
78.80000 -1.215
78.82000 1.530
78.84000 1.198
78.86000 -1.398
78.88000 -1.015
78.90000 0.527
78.92000 1.547
78.94000 -0.470
78.96000 2.856
78.98000 -0.743
79.00000 1.867
79.02000 3.479
79.04000 3.178
79.06000 -1.027
79.08000 0.963
79.10000 8.631
79.12000 6.367
79.14000 -0.545
79.16000 -0.761
79.18000 1.621
79.20000 3.124
79.22000 6.229
79.24000 1.667
79.26000 0.936
79.28000 -0.475
79.30000 -1.707
79.32000 2.012
79.34000 1.760
79.36000 -2.221
79.38000 1.436
79.40000 1.370
79.42000 1.884
79.44000 0.526
79.46000 1.861
79.48000 -1.014
79.50000 1.414
79.52000 1.326
79.54000 2.869
79.56000 0.587
79.58000 1.440
79.60000 5.404
79.62000 1.638
79.64000 -0.808
79.66000 -1.102
79.68000 3.123
79.70000 1.481
79.72000 -1.007
79.74000 -0.114
79.76000 3.641
79.78000 3.325
79.80000 2.103
79.82000 -1.215
79.84000 -0.823
79.86000 1.104
79.88000 -0.267
79.90000 -2.325
79.92000 -0.746
79.94000 1.163
79.96000 2.834
79.98000 5.834
80.00000 3.416
80.02000 2.448
80.04000 2.054
80.06000 5.374
80.08000 4.633
80.10000 2.543
80.12000 4.057
80.14000 2.924
80.16000 1.215
80.18000 5.386
80.20000 5.512
80.22000 1.298
80.24000 4.408
80.26000 4.996
80.28000 1.147
80.30000 1.024
80.32000 2.527
80.34000 6.260
80.36000 4.660
80.38000 4.442
80.40000 4.396
80.42000 3.711
80.44000 -0.404
80.46000 1.748
80.48000 4.460
80.50000 4.965
80.52000 2.853
80.54000 3.907
80.56000 1.021
80.58000 0.953
80.60000 3.308
80.62000 3.571
80.64000 2.883
80.66000 5.541
80.68000 6.616
80.70000 5.120
80.72000 3.751
80.74000 0.764
80.76000 -2.359
80.78000 0.829
80.80000 1.629
80.82000 3.886
80.84000 5.686
80.86000 6.013
80.88000 2.208
80.90000 2.485
80.92000 2.689
80.94000 0.478
80.96000 -2.377
80.98000 -0.033
81.00000 2.428
81.02000 3.741
81.04000 2.429
81.06000 -0.200
81.08000 -0.213
81.10000 -0.162
81.12000 2.746
81.14000 5.028
81.16000 4.891
81.18000 3.810
81.20000 2.911
81.22000 2.932
81.24000 4.863
81.26000 2.016
81.28000 0.633
81.30000 6.872
81.32000 3.286
81.34000 5.367
81.36000 -0.643
81.38000 4.321
81.40000 1.634
81.42000 1.139
81.44000 0.538
81.46000 5.042
81.48000 10.059
81.50000 8.545
81.52000 -2.094
81.54000 2.436
81.56000 7.275
81.58000 7.925
81.60000 3.078
81.62000 4.282
81.64000 4.337
81.66000 4.176
81.68000 6.695
81.70000 1.851
81.72000 4.979
81.74000 7.735
81.76000 6.070
81.78000 8.879
81.80000 4.434
81.82000 2.080
81.84000 7.601
81.86000 11.248
81.88000 12.418
81.90000 8.242
81.92000 6.118
81.94000 12.356
81.96000 13.280
81.98000 8.633
82.00000 7.549
82.02000 7.993
82.04000 14.941
82.06000 13.147
82.08000 11.005
82.10000 14.736
82.12000 10.891
82.14000 12.547
82.16000 15.709
82.18000 10.954
82.20000 7.059
82.22000 8.729
82.24000 12.694
82.26000 14.063
82.28000 15.402
82.30000 13.262
82.32000 12.647
82.34000 15.997
82.36000 14.347
82.38000 14.160
82.40000 17.928
82.42000 15.738
82.44000 18.505
82.46000 20.146
82.48000 16.385
82.50000 16.376
82.52000 19.422
82.54000 18.291
82.56000 19.971
82.58000 17.984
82.60000 14.735
82.62000 18.324
82.64000 17.872
82.66000 20.087
82.68000 20.077
82.70000 17.736
82.72000 17.433
82.74000 22.070
82.76000 23.880
82.78000 20.983
82.80000 24.238
82.82000 25.724
82.84000 25.056
82.86000 22.451
82.88000 20.343
82.90000 18.686
82.92000 19.382
82.94000 22.422
82.96000 23.463
82.98000 22.325
83.00000 28.171
83.02000 28.871
83.04000 23.057
83.06000 25.735
83.08000 24.786
83.10000 24.024
83.12000 24.295
83.14000 22.511
83.16000 27.410
83.18000 24.939
83.20000 27.000
83.22000 28.948
83.24000 22.638
83.26000 17.383
83.28000 22.638
83.30000 22.540
83.32000 22.031
83.34000 25.263
83.36000 22.262
83.38000 23.685
83.40000 20.286
83.42000 23.852
83.44000 22.849
83.46000 20.966
83.48000 23.185
83.50000 16.466
83.52000 17.914
83.54000 22.659
83.56000 20.987
83.58000 19.341
83.60000 18.855
83.62000 16.402
83.64000 18.209
83.66000 22.461
83.68000 20.979
83.70000 12.141
83.72000 12.714
83.74000 15.718
83.76000 15.902
83.78000 13.629
83.80000 16.306
83.82000 18.800
83.84000 16.061
83.86000 16.449
83.88000 10.962
83.90000 12.161
83.92000 13.615
83.94000 13.725
83.96000 10.152
83.98000 8.295
84.00000 12.701
84.02000 11.746
84.04000 10.897
84.06000 9.013
84.08000 12.599
84.10000 11.861
84.12000 10.811
84.14000 6.047
84.16000 6.374
84.18000 0.606
84.20000 3.689
84.22000 2.260
84.24000 4.889
84.26000 10.739
84.28000 7.774
84.30000 7.095
84.32000 4.725
84.34000 3.087
84.36000 2.614
84.38000 7.081
84.40000 5.632
84.42000 2.195
84.44000 5.304
84.46000 8.973
84.48000 6.973
84.50000 2.200
84.52000 5.653
84.54000 12.033
84.56000 9.797
84.58000 2.930
84.60000 0.386
84.62000 2.643
84.64000 3.280
84.66000 1.889
84.68000 8.585
84.70000 6.789
84.72000 5.533
84.74000 2.152
84.76000 -0.978
84.78000 0.529
84.80000 2.245
84.82000 2.119
84.84000 1.582
84.86000 0.438
84.88000 3.446
84.90000 3.578
84.92000 6.402
84.94000 6.003
84.96000 4.845
84.98000 5.380
85.00000 3.656
85.02000 1.189
85.04000 0.667
85.06000 0.484
85.08000 6.119
85.10000 7.954
85.12000 4.423
85.14000 3.353
85.16000 -1.076
85.18000 -1.315
85.20000 6.639
85.22000 6.025
85.24000 1.360
85.26000 5.425
85.28000 4.818
85.30000 4.007
85.32000 4.573
85.34000 5.319
85.36000 2.542
85.38000 1.204
85.40000 -2.024
85.42000 -2.277
85.44000 1.620
85.46000 -0.420
85.48000 2.158
85.50000 2.307
85.52000 3.401
85.54000 5.904
85.56000 6.197
85.58000 -0.593
85.60000 3.506
85.62000 4.915
85.64000 6.479
85.66000 5.714
85.68000 0.908
85.70000 3.662
85.72000 4.527
85.74000 2.601
85.76000 5.684
85.78000 6.812
85.80000 7.053
85.82000 7.682
85.84000 2.828
85.86000 4.594
85.88000 2.989
85.90000 0.201
85.92000 2.065
85.94000 4.951
85.96000 3.217
85.98000 -1.644
86.00000 0.648
86.02000 3.774
86.04000 3.518
86.06000 3.514
86.08000 -0.782
86.10000 0.013
86.12000 4.323
86.14000 4.727
86.16000 0.630
86.18000 -1.876
86.20000 -2.203
86.22000 0.179
86.24000 -0.681
86.26000 -0.385
86.28000 3.145
86.30000 4.039
86.32000 3.644
86.34000 0.811
86.36000 5.874
86.38000 6.303
86.40000 7.889
86.42000 12.449
86.44000 7.624
86.46000 3.240
86.48000 1.163
86.50000 -0.378
86.52000 -0.679
86.54000 1.814
86.56000 0.870
86.58000 -1.301
86.60000 7.479
86.62000 10.713
86.64000 7.956
86.66000 7.043
86.68000 1.776
86.70000 1.525
86.72000 6.132
86.74000 4.318
86.76000 4.909
86.78000 5.563
86.80000 7.468
86.82000 1.706
86.84000 5.737
86.86000 9.329
86.88000 8.745
86.90000 9.428
86.92000 11.094
86.94000 10.347
86.96000 9.943
86.98000 13.842
87.00000 10.277
87.02000 4.625
87.04000 5.300
87.06000 4.793
87.08000 11.644
87.10000 14.312
87.12000 10.876
87.14000 6.647
87.16000 11.796
87.18000 12.405
87.20000 14.071
87.22000 13.765
87.24000 16.025
87.26000 13.262
87.28000 16.246
87.30000 16.850
87.32000 16.479
87.34000 16.457
87.36000 12.556
87.38000 12.055
87.40000 16.510
87.42000 20.469
87.44000 20.731
87.46000 17.545
87.48000 20.717
87.50000 22.122
87.52000 25.019
87.54000 14.241
87.56000 11.911
87.58000 12.829
87.60000 14.104
87.62000 13.690
87.64000 12.457
87.66000 15.881
87.68000 16.766
87.70000 19.002
87.72000 18.128
87.74000 13.173
87.76000 14.060
87.78000 9.185
87.80000 9.960
87.82000 11.930
87.84000 11.048
87.86000 14.834
87.88000 13.250
87.90000 11.101
87.92000 10.735
87.94000 12.355
87.96000 16.373
87.98000 12.644
88.00000 11.950
88.02000 13.366
88.04000 14.820
88.06000 15.771
88.08000 8.199
88.10000 1.447
88.12000 6.237
88.14000 6.235
88.16000 7.371
88.18000 12.045
88.20000 12.506
88.22000 11.111
88.24000 12.269
88.26000 8.268
88.28000 9.348
88.30000 5.537
88.32000 10.478
88.34000 8.865
88.36000 5.467
88.38000 1.854
88.40000 0.976
88.42000 7.065
88.44000 7.009
88.46000 2.813
88.48000 1.617
88.50000 4.999
88.52000 3.270
88.54000 0.050
88.56000 0.662
88.58000 0.807
88.60000 -0.089
88.62000 5.391
88.64000 5.484
88.66000 3.026
88.68000 0.858
88.70000 5.803
88.72000 3.949
88.74000 0.062
88.76000 1.881
88.78000 -0.557
88.80000 -0.642
88.82000 2.398
88.84000 3.390
88.86000 3.965
88.88000 1.826
88.90000 1.997
88.92000 5.246
88.94000 4.600
88.96000 1.292
88.98000 0.312
89.00000 1.002
89.02000 2.102
89.04000 6.079
89.06000 4.271
89.08000 0.089
89.10000 -2.242
89.12000 -0.973
89.14000 7.243
89.16000 4.523
89.18000 1.143
89.20000 1.496
89.22000 -0.714
89.24000 0.082
89.26000 1.663
89.28000 1.246
89.30000 4.703
89.32000 4.575
89.34000 -0.488
89.36000 -1.510
89.38000 1.691
89.40000 2.079
89.42000 1.893
89.44000 0.567
89.46000 -2.187
89.48000 2.006
89.50000 3.676
89.52000 -0.071
89.54000 -2.162
89.56000 4.351
89.58000 5.901
89.60000 3.368
89.62000 2.980
89.64000 -1.956
89.66000 -0.898
89.68000 5.280
89.70000 2.963
89.72000 -2.181
89.74000 2.194
89.76000 4.602
89.78000 4.215
89.80000 3.920
89.82000 3.782
89.84000 2.975
89.86000 3.764
89.88000 2.040
89.90000 0.277
89.92000 3.072
89.94000 2.983
89.96000 0.700
89.98000 5.791
90.00000 8.059
90.02000 2.743
90.04000 1.165
90.06000 1.644
90.08000 1.003
90.10000 0.675
90.12000 2.046
90.14000 6.194
90.16000 3.676
90.18000 4.038
90.20000 0.860
90.22000 1.500
90.24000 1.564
90.26000 0.627
90.28000 -1.092
90.30000 -2.161
90.32000 3.977
90.34000 3.100
90.36000 1.555
90.38000 4.661
90.40000 1.609
90.42000 -1.005
90.44000 0.772
90.46000 -1.704
90.48000 -1.491
90.50000 1.344
90.52000 2.866
90.54000 2.322
90.56000 2.273
90.58000 1.126
90.60000 3.376
90.62000 5.922
90.64000 2.900
90.66000 0.678
90.68000 2.931
90.70000 5.150
90.72000 4.179
90.74000 0.671
90.76000 2.526
90.78000 7.375
90.80000 10.465
90.82000 10.094
90.84000 6.357
90.86000 1.987
90.88000 2.571
90.90000 4.451
90.92000 4.405
90.94000 3.557
90.96000 0.888
90.98000 -2.110
91.00000 3.314
91.02000 3.714
91.04000 0.857
91.06000 -0.044
91.08000 6.616
91.10000 7.435
91.12000 3.679
91.14000 0.109
91.16000 -0.248
91.18000 7.648
91.20000 8.468
91.22000 7.132
91.24000 2.910
91.26000 2.097
91.28000 2.517
91.30000 3.099
91.32000 5.664
91.34000 2.562
91.36000 4.514
91.38000 2.832
91.40000 -0.965
91.42000 -2.112
91.44000 3.375
91.46000 7.733
91.48000 5.736
91.50000 3.527
91.52000 6.213
91.54000 5.989
91.56000 9.507
91.58000 4.978
91.60000 -0.949
91.62000 -1.024
91.64000 2.979
91.66000 2.943
91.68000 3.959
91.70000 6.577
91.72000 11.467
91.74000 7.294
91.76000 7.852
91.78000 0.547
91.80000 2.065
91.82000 9.781
91.84000 2.480
91.86000 2.209
91.88000 6.682
91.90000 4.817
91.92000 2.699
91.94000 0.459
91.96000 -0.018
91.98000 -1.478
92.00000 3.255
92.02000 2.009
92.04000 -1.421
92.06000 4.611
92.08000 2.701
92.10000 1.484
92.12000 2.656
92.14000 6.961
92.16000 9.394
92.18000 0.888
92.20000 3.052
92.22000 7.567
92.24000 6.497
92.26000 4.166
92.28000 4.106
92.30000 2.918
92.32000 -0.014
92.34000 2.624
92.36000 3.386
92.38000 3.503
92.40000 3.667
92.42000 4.798
92.44000 -2.095
92.46000 1.995
92.48000 4.802
92.50000 9.585
92.52000 9.064
92.54000 10.693
92.56000 6.644
92.58000 7.819
92.60000 5.463
92.62000 3.717
92.64000 3.518
92.66000 5.234
92.68000 6.517
92.70000 7.369
92.72000 6.421
92.74000 4.587
92.76000 8.869
92.78000 7.253
92.80000 4.245
92.82000 4.048
92.84000 3.325
92.86000 9.653
92.88000 10.439
92.90000 9.343
92.92000 4.079
92.94000 -2.117
92.96000 -1.391
92.98000 2.508
93.00000 4.629
93.02000 6.570
93.04000 4.020
93.06000 4.326
93.08000 1.939
93.10000 7.198
93.12000 2.479
93.14000 4.804
93.16000 6.537
93.18000 3.535
93.20000 3.028
93.22000 2.230
93.24000 6.385
93.26000 4.786
93.28000 4.453
93.30000 5.289
93.32000 5.880
93.34000 8.556
93.36000 5.509
93.38000 2.847
93.40000 0.325
93.42000 4.885
93.44000 7.360
93.46000 4.521
93.48000 2.776
93.50000 1.590
93.52000 2.633
93.54000 0.439
93.56000 -0.409
93.58000 3.065
93.60000 5.923
93.62000 3.193
93.64000 3.283
93.66000 4.036
93.68000 4.500
93.70000 2.770
93.72000 1.903
93.74000 3.774
93.76000 6.360
93.78000 -0.710
93.80000 1.551
93.82000 1.907
93.84000 3.699
93.86000 7.993
93.88000 9.625
93.90000 10.066
93.92000 8.467
93.94000 2.835
93.96000 2.390
93.98000 4.158
94.00000 4.881
94.02000 4.707
94.04000 -2.144
94.06000 0.404
94.08000 7.667
94.10000 13.757
94.12000 6.734
94.14000 2.483
94.16000 5.131
94.18000 6.973
94.20000 3.235
94.22000 4.335
94.24000 5.015
94.26000 4.040
94.28000 1.728
94.30000 -0.083
94.32000 2.340
94.34000 7.363
94.36000 8.931
94.38000 9.822
94.40000 5.935
94.42000 5.726
94.44000 7.530
94.46000 1.644
94.48000 3.634
94.50000 6.461
94.52000 5.016
94.54000 2.467
94.56000 2.078
94.58000 3.365
94.60000 3.028
94.62000 1.110
94.64000 2.421
94.66000 3.936
94.68000 3.764
94.70000 3.971
94.72000 1.154
94.74000 3.161
94.76000 3.047
94.78000 4.823
94.80000 4.237
94.82000 4.817
94.84000 4.042
94.86000 2.786
94.88000 3.252
94.90000 1.878
94.92000 2.580
94.94000 4.090
94.96000 7.363
94.98000 6.504
95.00000 2.813
95.02000 2.852
95.04000 3.985
95.06000 3.281
95.08000 2.548
95.10000 1.476
95.12000 3.679
95.14000 3.009
95.16000 2.284
95.18000 3.397
95.20000 -2.105
95.22000 -1.403
95.24000 -2.162
95.26000 5.765
95.28000 1.834
95.30000 0.272
95.32000 1.803
95.34000 -0.718
95.36000 0.085
95.38000 1.085
95.40000 3.452
95.42000 5.704
95.44000 3.760
95.46000 1.825
95.48000 3.221
95.50000 5.163
95.52000 -1.489
95.54000 -2.151
95.56000 3.744
95.58000 7.981
95.60000 5.823
95.62000 -0.339
95.64000 -0.190
95.66000 2.751
95.68000 1.898
95.70000 4.200
95.72000 4.464
95.74000 3.259
95.76000 1.414
95.78000 -0.464
95.80000 5.670
95.82000 5.120
95.84000 2.879
95.86000 3.893
95.88000 4.685
95.90000 5.376
95.92000 3.716
95.94000 8.427
95.96000 9.619
95.98000 6.294
96.00000 1.595
96.02000 3.211
96.04000 -0.920
96.06000 1.150
96.08000 5.331
96.10000 5.024
96.12000 5.302
96.14000 8.311
96.16000 4.082
96.18000 7.112
96.20000 5.823
96.22000 0.202
96.24000 -2.145
96.26000 0.619
96.28000 -0.091
96.30000 4.738
96.32000 4.090
96.34000 6.834
96.36000 0.777
96.38000 0.881
96.40000 3.081
96.42000 4.242
96.44000 5.397
96.46000 2.891
96.48000 6.366
96.50000 8.171
96.52000 8.495
96.54000 7.066
96.56000 5.393
96.58000 4.176
96.60000 4.271
96.62000 1.787
96.64000 7.056
96.66000 7.778
96.68000 -0.100
96.70000 -2.069
96.72000 -2.130
96.74000 3.027
96.76000 7.991
96.78000 4.836
96.80000 4.663
96.82000 6.837
96.84000 7.665
96.86000 4.395
96.88000 0.268
96.90000 4.933
96.92000 7.404
96.94000 4.572
96.96000 4.023
96.98000 9.354
97.00000 2.133
97.02000 -1.348
97.04000 -0.724
97.06000 4.142
97.08000 -2.260
97.10000 7.500
97.12000 7.699
97.14000 7.892
97.16000 5.049
97.18000 2.859
97.20000 1.187
97.22000 0.708
97.24000 3.717
97.26000 3.722
97.28000 2.304
97.30000 1.457
97.32000 2.156
97.34000 -0.128
97.36000 -2.135
97.38000 3.069
97.40000 2.881
97.42000 2.496
97.44000 4.865
97.46000 5.786
97.48000 5.137
97.50000 5.991
97.52000 5.563
97.54000 6.555
97.56000 3.074
97.58000 4.590
97.60000 4.247
97.62000 6.611
97.64000 0.933
97.66000 6.732
97.68000 9.399
97.70000 8.504
97.72000 7.158
97.74000 9.841
97.76000 3.407
97.78000 0.366
97.80000 3.422
97.82000 6.785
97.84000 6.610
97.86000 4.946
97.88000 7.990
97.90000 8.345
97.92000 11.300
97.94000 10.624
97.96000 4.058
97.98000 3.054
98.00000 5.072
98.02000 7.097
98.04000 -2.089
98.06000 -2.104
98.08000 5.881
98.10000 9.833
98.12000 4.000
98.14000 7.463
98.16000 11.076
98.18000 13.140
98.20000 15.351
98.22000 7.054
98.24000 5.483
98.26000 1.711
98.28000 4.886
98.30000 7.821
98.32000 12.339
98.34000 10.040
98.36000 7.021
98.38000 7.031
98.40000 4.325
98.42000 0.149
98.44000 0.441
98.46000 9.599
98.48000 5.863
98.50000 6.939
98.52000 10.469
98.54000 13.759
98.56000 11.240
98.58000 0.346
98.60000 -2.068
98.62000 8.012
98.64000 13.013
98.66000 12.668
98.68000 5.970
98.70000 0.248
98.72000 7.776
98.74000 3.428
98.76000 7.128
98.78000 11.005
98.80000 7.637
98.82000 1.683
98.84000 3.118
98.86000 2.315
98.88000 1.988
98.90000 -2.677
98.92000 8.585
98.94000 9.239
98.96000 2.576
98.98000 4.695
99.00000 9.195
99.02000 11.347
99.04000 8.099
99.06000 10.054
99.08000 9.064
99.10000 12.874
99.12000 9.098
99.14000 7.864
99.16000 8.478
99.18000 6.132
99.20000 5.549
99.22000 10.379
99.24000 11.775
99.26000 10.444
99.28000 -0.052
99.30000 -1.246
99.32000 2.481
99.34000 8.676
99.36000 14.456
99.38000 7.292
99.40000 2.037
99.42000 10.488
99.44000 1.633
99.46000 2.106
99.48000 2.545
99.50000 10.378
99.52000 0.470
99.54000 1.671
99.56000 5.211
99.58000 6.212
99.60000 -2.120
99.62000 0.288
99.64000 10.613
99.66000 10.829
99.68000 12.253
99.70000 5.193
99.72000 1.092
99.74000 3.865
99.76000 6.599
99.78000 2.349
99.80000 -2.171
99.82000 7.935
99.84000 2.455
99.86000 -2.210
99.88000 -0.412
99.90000 6.102
99.92000 9.976
99.94000 0.353
99.96000 8.186
99.98000 0.000
