'Id: "0011389" Comment: "Integrate frame 0011389_Au-Ir-Rh_Au-Rich_XRD_Mapping-321-0000.gfrmwith cursor Wedge Cursor #5" Operator: "B?rgel" Anode: "Cu" Wavelength: "1.5406" Scantype: "2Theta (TwoTheta)" TimePerStep: "1" X: "18" Y: "36" Z: "5.95" 
10.00000 0.000
10.02000 -4.131
10.04000 3.103
10.06000 2.639
10.08000 1.454
10.10000 5.773
10.12000 29.487
10.14000 23.996
10.16000 17.120
10.18000 4.813
10.20000 7.913
10.22000 15.760
10.24000 25.446
10.26000 27.596
10.28000 34.657
10.30000 17.950
10.32000 34.850
10.34000 22.868
10.36000 -5.678
10.38000 -3.766
10.40000 6.432
10.42000 16.791
10.44000 18.584
10.46000 17.121
10.48000 27.195
10.50000 27.713
10.52000 31.071
10.54000 32.123
10.56000 18.706
10.58000 6.104
10.60000 12.062
10.62000 22.116
10.64000 14.639
10.66000 5.710
10.68000 -2.192
10.70000 7.580
10.72000 14.387
10.74000 18.182
10.76000 22.159
10.78000 25.510
10.80000 24.073
10.82000 16.713
10.84000 19.645
10.86000 16.237
10.88000 15.960
10.90000 17.523
10.92000 22.442
10.94000 12.615
10.96000 7.704
10.98000 19.984
11.00000 12.822
11.02000 19.588
11.04000 34.192
11.06000 28.981
11.08000 29.357
11.10000 28.209
11.12000 29.432
11.14000 22.581
11.16000 10.613
11.18000 7.307
11.20000 12.100
11.22000 16.375
11.24000 10.354
11.26000 20.776
11.28000 15.667
11.30000 19.463
11.32000 28.087
11.34000 24.246
11.36000 25.403
11.38000 23.306
11.40000 24.671
11.42000 22.184
11.44000 19.793
11.46000 30.071
11.48000 17.896
11.50000 27.886
11.52000 34.614
11.54000 30.301
11.56000 23.726
11.58000 27.348
11.60000 29.677
11.62000 25.588
11.64000 20.226
11.66000 19.876
11.68000 30.926
11.70000 28.918
11.72000 12.494
11.74000 15.583
11.76000 23.067
11.78000 32.793
11.80000 18.367
11.82000 13.933
11.84000 11.164
11.86000 16.149
11.88000 8.745
11.90000 11.463
11.92000 21.076
11.94000 19.836
11.96000 27.023
11.98000 26.144
12.00000 23.733
12.02000 25.102
12.04000 15.450
12.06000 13.410
12.08000 17.767
12.10000 28.024
12.12000 33.302
12.14000 34.856
12.16000 24.748
12.18000 23.225
12.20000 18.390
12.22000 30.267
12.24000 34.518
12.26000 23.678
12.28000 23.052
12.30000 22.778
12.32000 33.947
12.34000 31.064
12.36000 35.689
12.38000 37.338
12.40000 30.029
12.42000 17.261
12.44000 23.394
12.46000 22.380
12.48000 26.016
12.50000 18.188
12.52000 24.995
12.54000 24.109
12.56000 16.590
12.58000 24.174
12.60000 37.027
12.62000 34.313
12.64000 27.089
12.66000 24.038
12.68000 24.157
12.70000 22.048
12.72000 18.631
12.74000 27.205
12.76000 27.572
12.78000 16.063
12.80000 18.040
12.82000 20.663
12.84000 14.333
12.86000 21.581
12.88000 18.290
12.90000 27.998
12.92000 26.491
12.94000 19.364
12.96000 13.924
12.98000 20.592
13.00000 29.997
13.02000 19.703
13.04000 16.061
13.06000 17.911
13.08000 10.633
13.10000 17.118
13.12000 17.032
13.14000 21.622
13.16000 27.840
13.18000 30.453
13.20000 30.971
13.22000 25.188
13.24000 28.266
13.26000 27.603
13.28000 23.421
13.30000 22.441
13.32000 28.747
13.34000 30.665
13.36000 13.156
13.38000 11.787
13.40000 18.055
13.42000 21.815
13.44000 29.162
13.46000 31.655
13.48000 26.065
13.50000 17.756
13.52000 23.479
13.54000 25.074
13.56000 17.597
13.58000 11.876
13.60000 17.431
13.62000 27.085
13.64000 25.911
13.66000 21.572
13.68000 20.357
13.70000 26.465
13.72000 19.101
13.74000 18.611
13.76000 23.867
13.78000 20.967
13.80000 28.540
13.82000 19.321
13.84000 9.014
13.86000 12.929
13.88000 23.214
13.90000 16.723
13.92000 17.236
13.94000 25.653
13.96000 21.580
13.98000 14.194
14.00000 23.493
14.02000 16.376
14.04000 12.892
14.06000 15.236
14.08000 20.310
14.10000 17.601
14.12000 19.721
14.14000 17.397
14.16000 12.693
14.18000 9.712
14.20000 18.274
14.22000 20.288
14.24000 18.204
14.26000 21.120
14.28000 16.050
14.30000 14.150
14.32000 14.728
14.34000 19.592
14.36000 18.080
14.38000 16.314
14.40000 10.161
14.42000 20.822
14.44000 26.466
14.46000 22.688
14.48000 17.796
14.50000 18.454
14.52000 20.729
14.54000 19.580
14.56000 6.482
14.58000 10.637
14.60000 8.517
14.62000 6.258
14.64000 1.620
14.66000 12.070
14.68000 15.695
14.70000 14.433
14.72000 9.031
14.74000 9.450
14.76000 12.502
14.78000 5.184
14.80000 6.466
14.82000 13.461
14.84000 17.051
14.86000 15.414
14.88000 7.796
14.90000 7.351
14.92000 17.297
14.94000 22.619
14.96000 20.855
14.98000 6.842
15.00000 19.966
15.02000 10.230
15.04000 6.727
15.06000 10.580
15.08000 15.014
15.10000 15.292
15.12000 11.761
15.14000 12.415
15.16000 15.869
15.18000 16.709
15.20000 7.334
15.22000 8.913
15.24000 13.866
15.26000 17.303
15.28000 27.630
15.30000 25.417
15.32000 9.953
15.34000 9.808
15.36000 26.210
15.38000 21.158
15.40000 9.260
15.42000 9.417
15.44000 16.421
15.46000 13.811
15.48000 19.720
15.50000 17.734
15.52000 16.342
15.54000 14.100
15.56000 19.815
15.58000 18.564
15.60000 16.697
15.62000 8.766
15.64000 10.864
15.66000 8.798
15.68000 14.572
15.70000 16.650
15.72000 8.409
15.74000 11.770
15.76000 7.924
15.78000 9.540
15.80000 16.831
15.82000 13.237
15.84000 16.351
15.86000 9.080
15.88000 9.920
15.90000 21.780
15.92000 22.733
15.94000 14.929
15.96000 14.135
15.98000 7.898
16.00000 8.407
16.02000 16.079
16.04000 14.922
16.06000 12.671
16.08000 16.357
16.10000 13.844
16.12000 12.180
16.14000 13.984
16.16000 9.075
16.18000 5.643
16.20000 10.414
16.22000 18.104
16.24000 16.373
16.26000 13.855
16.28000 13.606
16.30000 10.089
16.32000 11.888
16.34000 6.397
16.36000 2.582
16.38000 -2.778
16.40000 3.487
16.42000 10.807
16.44000 11.119
16.46000 13.659
16.48000 19.666
16.50000 22.714
16.52000 12.377
16.54000 9.194
16.56000 7.734
16.58000 5.840
16.60000 3.534
16.62000 4.953
16.64000 13.811
16.66000 9.227
16.68000 4.108
16.70000 7.325
16.72000 9.502
16.74000 4.293
16.76000 4.131
16.78000 3.425
16.80000 9.694
16.82000 8.847
16.84000 6.681
16.86000 4.519
16.88000 10.891
16.90000 7.802
16.92000 1.105
16.94000 9.484
16.96000 9.138
16.98000 16.557
17.00000 14.901
17.02000 12.677
17.04000 9.964
17.06000 11.364
17.08000 12.504
17.10000 10.663
17.12000 1.926
17.14000 4.528
17.16000 4.968
17.18000 9.655
17.20000 13.731
17.22000 19.576
17.24000 15.606
17.26000 8.774
17.28000 17.931
17.30000 16.432
17.32000 16.541
17.34000 7.970
17.36000 8.846
17.38000 14.964
17.40000 22.056
17.42000 16.898
17.44000 13.364
17.46000 10.409
17.48000 5.150
17.50000 2.693
17.52000 4.292
17.54000 1.586
17.56000 -4.381
17.58000 -2.945
17.60000 4.767
17.62000 9.257
17.64000 6.995
17.66000 1.134
17.68000 5.955
17.70000 6.955
17.72000 7.437
17.74000 6.280
17.76000 4.639
17.78000 9.461
17.80000 11.234
17.82000 7.696
17.84000 11.025
17.86000 7.488
17.88000 13.006
17.90000 14.027
17.92000 7.914
17.94000 2.387
17.96000 -2.622
17.98000 -1.318
18.00000 4.297
18.02000 6.336
18.04000 8.439
18.06000 5.953
18.08000 4.402
18.10000 -1.117
18.12000 4.062
18.14000 9.998
18.16000 15.199
18.18000 11.007
18.20000 2.978
18.22000 4.731
18.24000 9.001
18.26000 7.668
18.28000 9.990
18.30000 13.724
18.32000 8.057
18.34000 5.358
18.36000 7.018
18.38000 8.390
18.40000 3.874
18.42000 -1.952
18.44000 0.100
18.46000 -0.023
18.48000 1.356
18.50000 8.726
18.52000 10.849
18.54000 3.540
18.56000 3.346
18.58000 7.620
18.60000 6.623
18.62000 9.396
18.64000 11.014
18.66000 9.202
18.68000 2.851
18.70000 0.461
18.72000 -1.471
18.74000 1.263
18.76000 -0.599
18.78000 2.867
18.80000 4.528
18.82000 2.576
18.84000 4.198
18.86000 2.140
18.88000 4.098
18.90000 10.528
18.92000 6.729
18.94000 0.114
18.96000 1.355
18.98000 3.647
19.00000 9.106
19.02000 6.646
19.04000 0.712
19.06000 0.995
19.08000 1.789
19.10000 7.646
19.12000 12.589
19.14000 6.061
19.16000 5.118
19.18000 5.802
19.20000 8.604
19.22000 4.441
19.24000 5.138
19.26000 3.855
19.28000 2.805
19.30000 2.818
19.32000 2.780
19.34000 3.825
19.36000 9.441
19.38000 4.969
19.40000 -1.013
19.42000 5.033
19.44000 11.556
19.46000 11.180
19.48000 5.686
19.50000 6.377
19.52000 4.834
19.54000 2.685
19.56000 2.142
19.58000 3.893
19.60000 6.666
19.62000 4.885
19.64000 11.169
19.66000 7.868
19.68000 2.170
19.70000 4.566
19.72000 3.529
19.74000 3.639
19.76000 -0.645
19.78000 -1.342
19.80000 1.184
19.82000 8.831
19.84000 11.874
19.86000 2.206
19.88000 -0.533
19.90000 -2.574
19.92000 1.665
19.94000 -0.644
19.96000 0.366
19.98000 6.722
20.00000 1.584
20.02000 1.094
20.04000 6.852
20.06000 14.469
20.08000 7.473
20.10000 6.881
20.12000 5.655
20.14000 2.650
20.16000 -1.094
20.18000 -0.933
20.20000 0.189
20.22000 -1.904
20.24000 -2.064
20.26000 0.510
20.28000 -4.258
20.30000 -3.777
20.32000 4.618
20.34000 1.788
20.36000 1.031
20.38000 4.463
20.40000 8.173
20.42000 7.972
20.44000 8.882
20.46000 11.742
20.48000 4.943
20.50000 6.251
20.52000 5.698
20.54000 3.036
20.56000 4.603
20.58000 12.743
20.60000 9.936
20.62000 3.822
20.64000 -0.070
20.66000 4.222
20.68000 5.224
20.70000 6.877
20.72000 10.087
20.74000 7.793
20.76000 4.300
20.78000 6.359
20.80000 7.531
20.82000 10.593
20.84000 4.369
20.86000 4.430
20.88000 8.816
20.90000 5.356
20.92000 -1.127
20.94000 -0.898
20.96000 -1.898
20.98000 1.855
21.00000 9.939
21.02000 7.430
21.04000 -0.488
21.06000 -2.892
21.08000 2.336
21.10000 2.826
21.12000 5.654
21.14000 3.777
21.16000 5.282
21.18000 6.105
21.20000 5.967
21.22000 6.416
21.24000 11.170
21.26000 7.759
21.28000 8.219
21.30000 5.409
21.32000 4.452
21.34000 2.014
21.36000 1.861
21.38000 -0.997
21.40000 6.724
21.42000 3.486
21.44000 4.984
21.46000 15.063
21.48000 11.535
21.50000 12.544
21.52000 6.906
21.54000 11.559
21.56000 5.921
21.58000 -4.187
21.60000 -0.100
21.62000 4.421
21.64000 -1.187
21.66000 -1.765
21.68000 2.003
21.70000 11.623
21.72000 6.659
21.74000 3.734
21.76000 3.573
21.78000 -0.756
21.80000 1.745
21.82000 0.530
21.84000 3.932
21.86000 2.286
21.88000 1.024
21.90000 1.813
21.92000 5.437
21.94000 5.666
21.96000 4.946
21.98000 3.274
22.00000 2.528
22.02000 4.905
22.04000 3.600
22.06000 3.316
22.08000 6.273
22.10000 8.248
22.12000 2.577
22.14000 3.066
22.16000 3.229
22.18000 0.123
22.20000 6.977
22.22000 13.507
22.24000 9.164
22.26000 10.444
22.28000 8.523
22.30000 4.225
22.32000 -2.084
22.34000 0.495
22.36000 -0.185
22.38000 -4.138
22.40000 3.539
22.42000 8.537
22.44000 0.431
22.46000 9.996
22.48000 4.317
22.50000 -1.057
22.52000 1.233
22.54000 9.420
22.56000 13.174
22.58000 4.259
22.60000 0.273
22.62000 -0.085
22.64000 2.292
22.66000 -3.068
22.68000 0.427
22.70000 3.802
22.72000 8.707
22.74000 11.271
22.76000 3.906
22.78000 1.133
22.80000 4.040
22.82000 2.698
22.84000 9.068
22.86000 6.409
22.88000 10.618
22.90000 2.525
22.92000 -1.176
22.94000 1.633
22.96000 2.141
22.98000 -0.579
23.00000 4.327
23.02000 2.021
23.04000 2.072
23.06000 6.932
23.08000 7.707
23.10000 6.192
23.12000 -2.033
23.14000 -0.623
23.16000 7.848
23.18000 9.767
23.20000 9.122
23.22000 4.584
23.24000 3.579
23.26000 2.009
23.28000 2.554
23.30000 8.311
23.32000 9.088
23.34000 7.140
23.36000 10.020
23.38000 3.941
23.40000 4.296
23.42000 3.323
23.44000 5.586
23.46000 4.034
23.48000 1.880
23.50000 6.618
23.52000 3.786
23.54000 7.630
23.56000 2.724
23.58000 1.723
23.60000 3.832
23.62000 5.056
23.64000 2.481
23.66000 -2.311
23.68000 1.830
23.70000 1.030
23.72000 1.941
23.74000 3.698
23.76000 3.119
23.78000 7.785
23.80000 6.961
23.82000 3.169
23.84000 -0.330
23.86000 6.687
23.88000 8.718
23.90000 6.206
23.92000 11.679
23.94000 5.538
23.96000 4.312
23.98000 6.149
24.00000 9.052
24.02000 2.900
24.04000 2.404
24.06000 -4.021
24.08000 -1.870
24.10000 2.434
24.12000 8.472
24.14000 -0.435
24.16000 2.447
24.18000 7.629
24.20000 4.942
24.22000 4.871
24.24000 3.458
24.26000 -1.109
24.28000 -0.217
24.30000 1.285
24.32000 2.454
24.34000 6.185
24.36000 2.163
24.38000 2.140
24.40000 2.885
24.42000 6.106
24.44000 8.329
24.46000 4.225
24.48000 7.894
24.50000 11.693
24.52000 9.671
24.54000 9.665
24.56000 13.460
24.58000 6.679
24.60000 2.677
24.62000 -2.439
24.64000 2.337
24.66000 5.082
24.68000 2.590
24.70000 2.707
24.72000 1.725
24.74000 1.233
24.76000 7.293
24.78000 2.915
24.80000 -4.007
24.82000 0.911
24.84000 4.018
24.86000 9.355
24.88000 7.412
24.90000 6.411
24.92000 5.409
24.94000 4.174
24.96000 -0.279
24.98000 6.999
25.00000 8.519
25.02000 6.610
25.04000 6.045
25.06000 5.351
25.08000 1.464
25.10000 2.829
25.12000 -0.982
25.14000 0.776
25.16000 0.279
25.18000 0.780
25.20000 4.498
25.22000 -0.450
25.24000 -3.951
25.26000 -0.175
25.28000 2.840
25.30000 2.301
25.32000 0.573
25.34000 5.671
25.36000 3.844
25.38000 -0.728
25.40000 1.280
25.42000 7.246
25.44000 1.044
25.46000 1.098
25.48000 4.575
25.50000 2.249
25.52000 1.144
25.54000 6.391
25.56000 1.682
25.58000 0.890
25.60000 -2.278
25.62000 4.445
25.64000 6.589
25.66000 3.374
25.68000 9.132
25.70000 5.281
25.72000 -0.143
25.74000 2.036
25.76000 2.558
25.78000 -1.477
25.80000 -3.870
25.82000 0.332
25.84000 6.276
25.86000 -2.650
25.88000 1.000
25.90000 -1.063
25.92000 -3.563
25.94000 -1.959
25.96000 -2.866
25.98000 -3.953
26.00000 -0.887
26.02000 6.288
26.04000 4.476
26.06000 4.076
26.08000 6.926
26.10000 3.546
26.12000 4.143
26.14000 -1.168
26.16000 -3.176
26.18000 4.397
26.20000 3.766
26.22000 1.219
26.24000 -0.423
26.26000 2.744
26.28000 2.289
26.30000 1.656
26.32000 4.725
26.34000 9.408
26.36000 8.912
26.38000 8.803
26.40000 6.438
26.42000 8.867
26.44000 4.413
26.46000 4.761
26.48000 3.191
26.50000 4.804
26.52000 2.780
26.54000 2.364
26.56000 0.426
26.58000 0.533
26.60000 5.303
26.62000 8.225
26.64000 6.145
26.66000 3.180
26.68000 5.956
26.70000 -2.208
26.72000 1.241
26.74000 1.019
26.76000 -3.274
26.78000 2.000
26.80000 5.873
26.82000 2.201
26.84000 -0.108
26.86000 1.451
26.88000 1.206
26.90000 3.058
26.92000 -1.857
26.94000 1.106
26.96000 1.680
26.98000 -1.701
27.00000 1.686
27.02000 5.493
27.04000 8.675
27.06000 6.154
27.08000 3.087
27.10000 3.137
27.12000 5.381
27.14000 5.645
27.16000 6.730
27.18000 8.157
27.20000 3.977
27.22000 5.079
27.24000 3.620
27.26000 0.316
27.28000 -3.892
27.30000 2.058
27.32000 5.368
27.34000 2.443
27.36000 0.027
27.38000 -3.100
27.40000 -0.829
27.42000 -0.859
27.44000 -3.886
27.46000 2.514
27.48000 3.840
27.50000 0.972
27.52000 1.037
27.54000 7.106
27.56000 7.948
27.58000 6.905
27.60000 2.303
27.62000 5.065
27.64000 4.432
27.66000 2.845
27.68000 1.267
27.70000 -2.357
27.72000 0.744
27.74000 6.864
27.76000 2.472
27.78000 6.319
27.80000 7.012
27.82000 4.514
27.84000 2.217
27.86000 8.928
27.88000 10.170
27.90000 6.753
27.92000 6.016
27.94000 7.394
27.96000 5.180
27.98000 5.039
28.00000 1.736
28.02000 -2.409
28.04000 -0.011
28.06000 -2.094
28.08000 -1.687
28.10000 1.223
28.12000 1.717
28.14000 2.238
28.16000 3.914
28.18000 7.997
28.20000 4.723
28.22000 2.919
28.24000 7.583
28.26000 -0.233
28.28000 -3.708
28.30000 -0.057
28.32000 -1.806
28.34000 -3.505
28.36000 -2.537
28.38000 2.056
28.40000 0.531
28.42000 3.210
28.44000 -0.468
28.46000 -2.699
28.48000 1.842
28.50000 0.636
28.52000 1.424
28.54000 -0.013
28.56000 -2.906
28.58000 -2.572
28.60000 -1.990
28.62000 -0.339
28.64000 3.812
28.66000 3.081
28.68000 4.677
28.70000 8.491
28.72000 3.400
28.74000 -1.980
28.76000 1.856
28.78000 1.079
28.80000 2.087
28.82000 -1.995
28.84000 0.283
28.86000 1.304
28.88000 1.732
28.90000 3.101
28.92000 2.345
28.94000 -2.208
28.96000 -2.236
28.98000 -2.683
29.00000 2.593
29.02000 2.521
29.04000 4.732
29.06000 1.052
29.08000 -1.817
29.10000 -2.063
29.12000 -0.623
29.14000 1.325
29.16000 3.425
29.18000 5.498
29.20000 6.549
29.22000 4.675
29.24000 1.295
29.26000 1.067
29.28000 4.439
29.30000 4.022
29.32000 4.244
29.34000 6.982
29.36000 5.645
29.38000 3.721
29.40000 4.170
29.42000 2.659
29.44000 -1.251
29.46000 -2.777
29.48000 -0.765
29.50000 1.476
29.52000 -1.560
29.54000 -3.778
29.56000 -0.750
29.58000 3.280
29.60000 1.927
29.62000 -0.203
29.64000 -0.307
29.66000 1.304
29.68000 2.515
29.70000 2.565
29.72000 4.287
29.74000 4.759
29.76000 2.273
29.78000 1.837
29.80000 5.809
29.82000 4.313
29.84000 0.820
29.86000 3.787
29.88000 6.211
29.90000 4.833
29.92000 0.761
29.94000 7.144
29.96000 1.008
29.98000 1.240
30.00000 4.347
30.02000 6.383
30.04000 6.367
30.06000 1.656
30.08000 -1.792
30.10000 0.645
30.12000 6.306
30.14000 5.848
30.16000 2.577
30.18000 4.986
30.20000 4.352
30.22000 -3.735
30.24000 1.575
30.26000 5.239
30.28000 6.946
30.30000 6.231
30.32000 3.692
30.34000 2.347
30.36000 1.240
30.38000 7.334
30.40000 4.795
30.42000 2.757
30.44000 -0.741
30.46000 0.590
30.48000 6.538
30.50000 4.176
30.52000 2.520
30.54000 6.946
30.56000 7.886
30.58000 5.126
30.60000 1.578
30.62000 5.339
30.64000 6.964
30.66000 2.373
30.68000 2.253
30.70000 5.248
30.72000 6.741
30.74000 4.613
30.76000 -3.716
30.78000 2.163
30.80000 3.225
30.82000 1.926
30.84000 2.767
30.86000 3.463
30.88000 4.796
30.90000 1.655
30.92000 2.027
30.94000 1.864
30.96000 2.804
30.98000 3.271
31.00000 3.436
31.02000 2.755
31.04000 1.433
31.06000 9.347
31.08000 8.021
31.10000 4.154
31.12000 1.851
31.14000 1.849
31.16000 3.116
31.18000 4.176
31.20000 4.798
31.22000 4.421
31.24000 3.731
31.26000 5.085
31.28000 4.730
31.30000 7.660
31.32000 7.841
31.34000 3.052
31.36000 6.821
31.38000 6.100
31.40000 -0.174
31.42000 -1.505
31.44000 -2.314
31.46000 0.735
31.48000 5.107
31.50000 8.421
31.52000 11.595
31.54000 8.574
31.56000 6.837
31.58000 7.795
31.60000 7.991
31.62000 6.033
31.64000 6.544
31.66000 7.477
31.68000 8.194
31.70000 8.255
31.72000 5.142
31.74000 6.079
31.76000 8.235
31.78000 9.298
31.80000 5.725
31.82000 3.930
31.84000 3.053
31.86000 2.280
31.88000 -3.321
31.90000 6.948
31.92000 -0.222
31.94000 -3.658
31.96000 2.543
31.98000 1.867
32.00000 2.730
32.02000 6.615
32.04000 8.644
32.06000 5.206
32.08000 6.741
32.10000 1.032
32.12000 2.092
32.14000 5.658
32.16000 10.094
32.18000 6.475
32.20000 2.317
32.22000 0.377
32.24000 2.056
32.26000 4.137
32.28000 2.265
32.30000 0.715
32.32000 3.221
32.34000 5.988
32.36000 6.080
32.38000 0.189
32.40000 3.350
32.42000 3.568
32.44000 -0.558
32.46000 1.413
32.48000 5.164
32.50000 5.434
32.52000 -1.329
32.54000 -1.558
32.56000 2.630
32.58000 7.278
32.60000 5.710
32.62000 3.720
32.64000 2.258
32.66000 7.683
32.68000 9.906
32.70000 5.806
32.72000 7.554
32.74000 7.501
32.76000 6.905
32.78000 8.817
32.80000 7.108
32.82000 0.700
32.84000 0.723
32.86000 -1.363
32.88000 -0.008
32.90000 -0.696
32.92000 4.137
32.94000 3.191
32.96000 6.566
32.98000 7.845
33.00000 4.738
33.02000 2.293
33.04000 -0.205
33.06000 0.115
33.08000 -0.035
33.10000 -1.126
33.12000 0.218
33.14000 2.440
33.16000 5.617
33.18000 6.447
33.20000 8.627
33.22000 0.639
33.24000 2.734
33.26000 5.288
33.28000 3.736
33.30000 8.105
33.32000 3.317
33.34000 -0.442
33.36000 -3.654
33.38000 1.813
33.40000 4.159
33.42000 5.443
33.44000 7.210
33.46000 13.640
33.48000 13.148
33.50000 7.422
33.52000 10.815
33.54000 3.950
33.56000 3.835
33.58000 2.379
33.60000 3.176
33.62000 3.008
33.64000 2.454
33.66000 6.647
33.68000 4.828
33.70000 7.952
33.72000 4.421
33.74000 5.207
33.76000 9.018
33.78000 5.327
33.80000 3.952
33.82000 3.350
33.84000 3.294
33.86000 2.013
33.88000 1.763
33.90000 3.742
33.92000 2.653
33.94000 -2.928
33.96000 0.776
33.98000 1.604
34.00000 6.677
34.02000 6.799
34.04000 6.051
34.06000 4.317
34.08000 0.515
34.10000 -0.290
34.12000 5.360
34.14000 4.327
34.16000 4.340
34.18000 0.688
34.20000 3.555
34.22000 4.818
34.24000 -0.319
34.26000 0.986
34.28000 2.017
34.30000 1.039
34.32000 -2.653
34.34000 -2.883
34.36000 -2.090
34.38000 1.999
34.40000 1.480
34.42000 2.583
34.44000 1.388
34.46000 4.163
34.48000 2.078
34.50000 0.392
34.52000 2.499
34.54000 6.408
34.56000 7.128
34.58000 1.536
34.60000 2.185
34.62000 4.543
34.64000 4.758
34.66000 2.601
34.68000 -0.821
34.70000 -3.637
34.72000 -3.674
34.74000 -3.633
34.76000 0.692
34.78000 1.799
34.80000 -0.128
34.82000 -2.342
34.84000 -1.491
34.86000 2.395
34.88000 -0.283
34.90000 -3.371
34.92000 -0.058
34.94000 -0.538
34.96000 -3.134
34.98000 0.813
35.00000 3.114
35.02000 0.130
35.04000 -1.088
35.06000 -0.759
35.08000 4.411
35.10000 1.166
35.12000 -0.841
35.14000 -3.272
35.16000 -3.007
35.18000 0.203
35.20000 0.265
35.22000 1.615
35.24000 -1.763
35.26000 -2.337
35.28000 2.538
35.30000 -0.478
35.32000 -2.576
35.34000 -3.677
35.36000 -0.427
35.38000 2.598
35.40000 1.878
35.42000 5.042
35.44000 5.049
35.46000 3.477
35.48000 0.437
35.50000 -1.549
35.52000 0.388
35.54000 3.644
35.56000 3.557
35.58000 0.882
35.60000 2.437
35.62000 1.253
35.64000 -1.814
35.66000 0.281
35.68000 1.049
35.70000 -0.544
35.72000 -1.273
35.74000 3.399
35.76000 -1.976
35.78000 -2.733
35.80000 2.669
35.82000 4.595
35.84000 6.299
35.86000 2.723
35.88000 3.434
35.90000 3.259
35.92000 0.830
35.94000 -3.688
35.96000 0.295
35.98000 4.978
36.00000 2.776
36.02000 1.875
36.04000 5.420
36.06000 2.172
36.08000 1.322
36.10000 2.244
36.12000 5.018
36.14000 2.473
36.16000 -0.821
36.18000 -0.424
36.20000 5.410
36.22000 12.361
36.24000 8.335
36.26000 1.228
36.28000 -1.724
36.30000 2.803
36.32000 3.194
36.34000 0.891
36.36000 -1.247
36.38000 6.702
36.40000 0.162
36.42000 -3.691
36.44000 -0.845
36.46000 5.043
36.48000 3.378
36.50000 -0.051
36.52000 2.736
36.54000 10.949
36.56000 12.004
36.58000 6.186
36.60000 5.622
36.62000 5.426
36.64000 3.887
36.66000 4.568
36.68000 0.974
36.70000 4.046
36.72000 3.243
36.74000 4.805
36.76000 5.117
36.78000 1.132
36.80000 1.766
36.82000 2.907
36.84000 1.899
36.86000 3.725
36.88000 3.216
36.90000 2.305
36.92000 6.020
36.94000 4.668
36.96000 9.973
36.98000 14.040
37.00000 12.834
37.02000 7.175
37.04000 9.472
37.06000 10.082
37.08000 12.887
37.10000 11.775
37.12000 9.856
37.14000 6.474
37.16000 10.093
37.18000 10.962
37.20000 7.663
37.22000 8.655
37.24000 10.722
37.26000 14.755
37.28000 13.110
37.30000 12.930
37.32000 14.148
37.34000 14.106
37.36000 13.341
37.38000 13.576
37.40000 18.462
37.42000 21.497
37.44000 16.841
37.46000 16.439
37.48000 18.134
37.50000 11.798
37.52000 14.193
37.54000 13.852
37.56000 14.731
37.58000 14.356
37.60000 17.257
37.62000 23.983
37.64000 22.291
37.66000 21.422
37.68000 23.809
37.70000 24.588
37.72000 29.366
37.74000 24.909
37.76000 22.142
37.78000 23.955
37.80000 27.936
37.82000 28.436
37.84000 27.278
37.86000 34.136
37.88000 37.278
37.90000 33.716
37.92000 27.906
37.94000 32.427
37.96000 35.089
37.98000 30.937
38.00000 34.110
38.02000 39.270
38.04000 48.211
38.06000 44.806
38.08000 43.197
38.10000 42.208
38.12000 45.216
38.14000 46.293
38.16000 49.271
38.18000 47.619
38.20000 46.237
38.22000 48.266
38.24000 48.760
38.26000 47.001
38.28000 54.410
38.30000 58.626
38.32000 55.388
38.34000 63.192
38.36000 66.674
38.38000 67.719
38.40000 70.770
38.42000 76.808
38.44000 79.304
38.46000 85.339
38.48000 84.430
38.50000 89.604
38.52000 93.681
38.54000 98.024
38.56000 98.501
38.58000 107.107
38.60000 114.031
38.62000 119.065
38.64000 122.688
38.66000 131.582
38.68000 140.666
38.70000 143.795
38.72000 156.061
38.74000 163.117
38.76000 171.786
38.78000 182.612
38.80000 191.401
38.82000 198.030
38.84000 214.641
38.86000 228.209
38.88000 236.606
38.90000 240.820
38.92000 253.412
38.94000 260.773
38.96000 275.333
38.98000 286.608
39.00000 299.603
39.02000 304.164
39.04000 312.519
39.06000 323.275
39.08000 326.092
39.10000 334.249
39.12000 331.144
39.14000 330.062
39.16000 335.959
39.18000 341.538
39.20000 341.395
39.22000 337.278
39.24000 329.760
39.26000 319.548
39.28000 316.395
39.30000 303.656
39.32000 291.580
39.34000 285.981
39.36000 269.783
39.38000 262.319
39.40000 250.591
39.42000 238.684
39.44000 227.185
39.46000 218.056
39.48000 207.966
39.50000 193.493
39.52000 190.737
39.54000 182.210
39.56000 173.621
39.58000 161.521
39.60000 148.549
39.62000 138.580
39.64000 132.533
39.66000 124.827
39.68000 116.821
39.70000 110.868
39.72000 104.325
39.74000 93.579
39.76000 92.295
39.78000 85.904
39.80000 81.645
39.82000 79.336
39.84000 71.437
39.86000 63.938
39.88000 59.137
39.90000 58.279
39.92000 59.604
39.94000 53.920
39.96000 52.355
39.98000 48.936
40.00000 48.825
40.02000 47.944
40.04000 42.603
40.06000 37.358
40.08000 39.144
40.10000 42.712
40.12000 42.351
40.14000 39.357
40.16000 30.543
40.18000 31.341
40.20000 34.804
40.22000 32.162
40.24000 31.170
40.26000 25.395
40.28000 22.674
40.30000 24.576
40.32000 28.356
40.34000 23.644
40.36000 19.485
40.38000 20.399
40.40000 20.112
40.42000 19.082
40.44000 20.262
40.46000 16.478
40.48000 15.304
40.50000 18.001
40.52000 21.941
40.54000 17.216
40.56000 15.921
40.58000 15.719
40.60000 12.038
40.62000 12.135
40.64000 6.662
40.66000 12.767
40.68000 14.221
40.70000 12.265
40.72000 7.190
40.74000 7.323
40.76000 6.217
40.78000 12.111
40.80000 9.919
40.82000 9.359
40.84000 8.007
40.86000 7.288
40.88000 7.991
40.90000 5.076
40.92000 7.611
40.94000 4.867
40.96000 4.089
40.98000 3.925
41.00000 11.038
41.02000 7.558
41.04000 3.832
41.06000 2.302
41.08000 1.559
41.10000 5.366
41.12000 5.201
41.14000 5.314
41.16000 6.300
41.18000 4.832
41.20000 4.035
41.22000 1.682
41.24000 5.155
41.26000 5.968
41.28000 6.107
41.30000 0.990
41.32000 -0.736
41.34000 2.790
41.36000 1.175
41.38000 1.088
41.40000 3.640
41.42000 2.513
41.44000 3.638
41.46000 2.479
41.48000 3.033
41.50000 1.256
41.52000 1.324
41.54000 3.747
41.56000 3.563
41.58000 0.605
41.60000 1.083
41.62000 0.451
41.64000 4.015
41.66000 3.625
41.68000 1.053
41.70000 -1.932
41.72000 -3.436
41.74000 0.327
41.76000 -2.720
41.78000 -0.643
41.80000 2.740
41.82000 2.876
41.84000 1.251
41.86000 -0.763
41.88000 0.475
41.90000 -0.324
41.92000 2.427
41.94000 3.510
41.96000 5.373
41.98000 0.593
42.00000 1.123
42.02000 -0.159
42.04000 -3.400
42.06000 -1.474
42.08000 3.400
42.10000 3.239
42.12000 0.671
42.14000 -2.054
42.16000 3.907
42.18000 2.604
42.20000 -1.692
42.22000 0.793
42.24000 1.675
42.26000 -0.049
42.28000 -0.283
42.30000 1.704
42.32000 -1.021
42.34000 -3.368
42.36000 -3.161
42.38000 0.209
42.40000 0.915
42.42000 -2.027
42.44000 0.447
42.46000 7.058
42.48000 4.174
42.50000 2.559
42.52000 -0.818
42.54000 -0.687
42.56000 1.319
42.58000 -0.941
42.60000 -1.584
42.62000 -0.812
42.64000 0.575
42.66000 2.252
42.68000 1.790
42.70000 -0.428
42.72000 -1.002
42.74000 0.148
42.76000 0.796
42.78000 -0.594
42.80000 -0.007
42.82000 1.019
42.84000 0.221
42.86000 2.441
42.88000 -1.919
42.90000 -2.397
42.92000 -0.543
42.94000 1.327
42.96000 2.170
42.98000 -0.307
43.00000 -3.303
43.02000 0.369
43.04000 1.633
43.06000 -1.569
43.08000 -2.285
43.10000 -0.992
43.12000 -0.684
43.14000 -1.670
43.16000 3.108
43.18000 1.565
43.20000 -1.998
43.22000 -1.248
43.24000 -0.476
43.26000 -1.051
43.28000 0.069
43.30000 0.466
43.32000 0.633
43.34000 3.373
43.36000 4.184
43.38000 3.217
43.40000 2.122
43.42000 -0.453
43.44000 -0.546
43.46000 1.659
43.48000 3.170
43.50000 5.527
43.52000 2.416
43.54000 -2.101
43.56000 -1.970
43.58000 -0.036
43.60000 0.761
43.62000 1.845
43.64000 2.808
43.66000 4.666
43.68000 0.561
43.70000 1.636
43.72000 1.688
43.74000 3.140
43.76000 4.086
43.78000 3.775
43.80000 4.577
43.82000 1.804
43.84000 3.212
43.86000 3.506
43.88000 3.904
43.90000 0.712
43.92000 -2.693
43.94000 -3.201
43.96000 -0.472
43.98000 1.553
44.00000 4.326
44.02000 6.090
44.04000 2.385
44.06000 3.706
44.08000 3.406
44.10000 1.901
44.12000 3.167
44.14000 4.892
44.16000 7.499
44.18000 6.542
44.20000 3.273
44.22000 9.094
44.24000 7.868
44.26000 1.567
44.28000 2.559
44.30000 2.664
44.32000 5.904
44.34000 7.847
44.36000 7.229
44.38000 7.847
44.40000 8.184
44.42000 11.154
44.44000 10.605
44.46000 12.998
44.48000 9.547
44.50000 9.658
44.52000 10.000
44.54000 14.104
44.56000 12.437
44.58000 9.095
44.60000 8.300
44.62000 5.465
44.64000 8.408
44.66000 10.407
44.68000 9.133
44.70000 12.774
44.72000 13.583
44.74000 17.282
44.76000 17.336
44.78000 16.433
44.80000 16.227
44.82000 17.760
44.84000 16.733
44.86000 16.216
44.88000 19.365
44.90000 20.891
44.92000 20.940
44.94000 24.863
44.96000 30.321
44.98000 29.321
45.00000 28.815
45.02000 30.940
45.04000 32.227
45.06000 33.232
45.08000 33.695
45.10000 32.767
45.12000 37.731
45.14000 41.217
45.16000 42.727
45.18000 43.354
45.20000 42.953
45.22000 46.445
45.24000 48.435
45.26000 52.483
45.28000 51.595
45.30000 57.767
45.32000 66.457
45.34000 65.247
45.36000 65.164
45.38000 68.031
45.40000 69.997
45.42000 71.486
45.44000 78.515
45.46000 81.687
45.48000 81.757
45.50000 84.774
45.52000 90.539
45.54000 97.184
45.56000 95.811
45.58000 96.179
45.60000 92.135
45.62000 93.448
45.64000 96.523
45.66000 95.141
45.68000 97.476
45.70000 97.707
45.72000 100.885
45.74000 101.356
45.76000 98.339
45.78000 98.083
45.80000 97.558
45.82000 104.462
45.84000 102.671
45.86000 101.146
45.88000 96.626
45.90000 95.118
45.92000 90.417
45.94000 91.534
45.96000 87.794
45.98000 84.769
46.00000 83.774
46.02000 81.744
46.04000 81.051
46.06000 80.750
46.08000 76.338
46.10000 69.872
46.12000 65.035
46.14000 65.477
46.16000 63.992
46.18000 59.573
46.20000 53.873
46.22000 48.932
46.24000 52.231
46.26000 49.262
46.28000 47.258
46.30000 43.690
46.32000 43.011
46.34000 38.948
46.36000 37.933
46.38000 35.098
46.40000 33.689
46.42000 30.684
46.44000 26.559
46.46000 28.743
46.48000 21.204
46.50000 21.356
46.52000 21.263
46.54000 19.318
46.56000 19.357
46.58000 20.137
46.60000 16.209
46.62000 13.555
46.64000 15.047
46.66000 11.298
46.68000 8.080
46.70000 8.197
46.72000 10.543
46.74000 8.636
46.76000 6.966
46.78000 5.746
46.80000 7.121
46.82000 7.407
46.84000 7.422
46.86000 8.504
46.88000 6.972
46.90000 7.839
46.92000 3.677
46.94000 -1.101
46.96000 -1.925
46.98000 0.650
47.00000 4.596
47.02000 8.389
47.04000 9.889
47.06000 4.930
47.08000 3.665
47.10000 1.514
47.12000 -2.201
47.14000 1.431
47.16000 4.954
47.18000 5.930
47.20000 4.447
47.22000 1.290
47.24000 -0.022
47.26000 -1.666
47.28000 -0.232
47.30000 -1.883
47.32000 -2.207
47.34000 1.613
47.36000 1.310
47.38000 5.299
47.40000 3.687
47.42000 -0.205
47.44000 -2.531
47.46000 -2.823
47.48000 -2.143
47.50000 0.569
47.52000 1.998
47.54000 -1.707
47.56000 -2.415
47.58000 -0.397
47.60000 3.696
47.62000 4.644
47.64000 4.023
47.66000 2.181
47.68000 2.265
47.70000 0.842
47.72000 -0.423
47.74000 0.742
47.76000 -0.982
47.78000 -0.433
47.80000 -1.250
47.82000 0.997
47.84000 0.186
47.86000 -0.749
47.88000 -1.715
47.90000 1.021
47.92000 6.867
47.94000 2.988
47.96000 1.992
47.98000 3.920
48.00000 4.707
48.02000 1.064
48.04000 3.044
48.06000 1.967
48.08000 1.513
48.10000 2.064
48.12000 4.896
48.14000 3.652
48.16000 2.576
48.18000 1.751
48.20000 -0.576
48.22000 -2.713
48.24000 -0.411
48.26000 4.224
48.28000 3.112
48.30000 0.939
48.32000 1.230
48.34000 0.966
48.36000 0.379
48.38000 4.867
48.40000 6.205
48.42000 7.016
48.44000 3.800
48.46000 3.610
48.48000 0.186
48.50000 2.450
48.52000 4.801
48.54000 6.035
48.56000 3.016
48.58000 -0.111
48.60000 -1.667
48.62000 1.313
48.64000 0.160
48.66000 2.312
48.68000 5.260
48.70000 3.774
48.72000 4.967
48.74000 3.722
48.76000 0.610
48.78000 3.524
48.80000 -0.085
48.82000 1.476
48.84000 4.557
48.86000 2.299
48.88000 2.136
48.90000 3.436
48.92000 2.211
48.94000 3.282
48.96000 2.886
48.98000 3.691
49.00000 2.057
49.02000 2.666
49.04000 3.204
49.06000 0.477
49.08000 0.058
49.10000 0.961
49.12000 -0.784
49.14000 2.333
49.16000 5.286
49.18000 6.166
49.20000 2.089
49.22000 3.039
49.24000 0.813
49.26000 2.640
49.28000 1.948
49.30000 5.042
49.32000 5.706
49.34000 3.264
49.36000 4.565
49.38000 -0.553
49.40000 -2.285
49.42000 0.413
49.44000 6.366
49.46000 2.448
49.48000 2.953
49.50000 5.760
49.52000 4.447
49.54000 0.188
49.56000 -0.531
49.58000 -0.713
49.60000 1.228
49.62000 0.397
49.64000 1.008
49.66000 3.140
49.68000 3.374
49.70000 2.969
49.72000 1.332
49.74000 1.477
49.76000 3.269
49.78000 2.185
49.80000 3.126
49.82000 0.375
49.84000 1.308
49.86000 -0.710
49.88000 2.609
49.90000 8.136
49.92000 4.653
49.94000 -0.346
49.96000 -1.742
49.98000 1.023
50.00000 2.607
50.02000 1.879
50.04000 3.392
50.06000 -0.490
50.08000 -1.021
50.10000 1.779
50.12000 1.048
50.14000 -1.366
50.16000 -2.625
50.18000 -1.656
50.20000 -2.221
50.22000 -1.802
50.24000 -0.146
50.26000 -1.718
50.28000 -1.265
50.30000 3.744
50.32000 3.906
50.34000 6.652
50.36000 7.674
50.38000 3.278
50.40000 1.093
50.42000 1.836
50.44000 -0.304
50.46000 -2.396
50.48000 3.129
50.50000 3.595
50.52000 3.226
50.54000 0.383
50.56000 3.627
50.58000 2.376
50.60000 -2.596
50.62000 0.017
50.64000 3.271
50.66000 2.024
50.68000 -1.632
50.70000 0.500
50.72000 0.761
50.74000 3.052
50.76000 1.018
50.78000 0.735
50.80000 2.398
50.82000 2.910
50.84000 4.605
50.86000 5.865
50.88000 4.997
50.90000 1.530
50.92000 -0.935
50.94000 4.080
50.96000 0.557
50.98000 2.180
51.00000 4.671
51.02000 5.591
51.04000 2.329
51.06000 0.266
51.08000 3.100
51.10000 1.176
51.12000 2.111
51.14000 0.797
51.16000 0.247
51.18000 2.186
51.20000 3.508
51.22000 2.397
51.24000 4.101
51.26000 7.246
51.28000 5.391
51.30000 1.842
51.32000 0.723
51.34000 0.527
51.36000 1.464
51.38000 -1.032
51.40000 1.645
51.42000 3.312
51.44000 0.241
51.46000 1.111
51.48000 -2.601
51.50000 -2.106
51.52000 3.470
51.54000 2.132
51.56000 -1.417
51.58000 -2.599
51.60000 -0.266
51.62000 -0.602
51.64000 2.281
51.66000 4.017
51.68000 -0.271
51.70000 3.010
51.72000 2.113
51.74000 3.880
51.76000 0.373
51.78000 -0.545
51.80000 -2.379
51.82000 2.892
51.84000 4.393
51.86000 3.117
51.88000 0.721
51.90000 1.008
51.92000 5.597
51.94000 2.651
51.96000 0.112
51.98000 3.558
52.00000 3.556
52.02000 3.674
52.04000 3.903
52.06000 2.539
52.08000 2.305
52.10000 1.640
52.12000 -1.963
52.14000 -1.786
52.16000 0.400
52.18000 2.541
52.20000 1.843
52.22000 0.393
52.24000 2.977
52.26000 3.726
52.28000 1.064
52.30000 2.398
52.32000 2.335
52.34000 0.507
52.36000 -1.612
52.38000 1.582
52.40000 1.508
52.42000 2.714
52.44000 1.834
52.46000 1.869
52.48000 3.271
52.50000 2.579
52.52000 1.402
52.54000 4.606
52.56000 3.653
52.58000 0.684
52.60000 4.919
52.62000 6.644
52.64000 2.606
52.66000 1.064
52.68000 0.723
52.70000 2.675
52.72000 2.501
52.74000 2.754
52.76000 -0.845
52.78000 2.001
52.80000 2.602
52.82000 1.704
52.84000 -1.305
52.86000 1.138
52.88000 1.834
52.90000 2.235
52.92000 3.006
52.94000 5.118
52.96000 5.319
52.98000 4.433
53.00000 4.021
53.02000 8.108
53.04000 4.967
53.06000 1.560
53.08000 2.268
53.10000 1.976
53.12000 2.620
53.14000 6.273
53.16000 5.408
53.18000 3.349
53.20000 2.472
53.22000 4.834
53.24000 5.337
53.26000 4.495
53.28000 3.448
53.30000 2.492
53.32000 7.931
53.34000 1.648
53.36000 -0.523
53.38000 3.913
53.40000 6.340
53.42000 5.600
53.44000 -0.629
53.46000 1.114
53.48000 1.554
53.50000 6.278
53.52000 6.586
53.54000 1.833
53.56000 2.374
53.58000 1.172
53.60000 -2.498
53.62000 1.472
53.64000 4.987
53.66000 3.235
53.68000 -1.739
53.70000 -0.157
53.72000 3.036
53.74000 3.633
53.76000 4.467
53.78000 4.267
53.80000 6.208
53.82000 3.619
53.84000 2.594
53.86000 4.953
53.88000 3.751
53.90000 0.199
53.92000 2.003
53.94000 0.365
53.96000 -2.074
53.98000 4.113
54.00000 2.501
54.02000 2.722
54.04000 1.882
54.06000 -0.406
54.08000 3.004
54.10000 0.435
54.12000 0.428
54.14000 2.586
54.16000 3.903
54.18000 3.028
54.20000 7.603
54.22000 2.453
54.24000 2.932
54.26000 2.205
54.28000 0.300
54.30000 1.732
54.32000 2.204
54.34000 5.917
54.36000 2.371
54.38000 1.810
54.40000 2.368
54.42000 4.754
54.44000 7.311
54.46000 3.544
54.48000 0.700
54.50000 3.362
54.52000 4.800
54.54000 4.558
54.56000 2.168
54.58000 -0.692
54.60000 2.626
54.62000 1.210
54.64000 -0.585
54.66000 2.086
54.68000 2.671
54.70000 2.090
54.72000 -0.405
54.74000 1.292
54.76000 3.402
54.78000 4.110
54.80000 3.374
54.82000 -0.033
54.84000 -2.521
54.86000 5.842
54.88000 5.342
54.90000 -0.168
54.92000 4.082
54.94000 0.590
54.96000 0.659
54.98000 2.345
55.00000 0.613
55.02000 2.567
55.04000 5.607
55.06000 1.457
55.08000 -1.312
55.10000 -1.067
55.12000 3.965
55.14000 2.875
55.16000 1.061
55.18000 4.261
55.20000 2.624
55.22000 -1.407
55.24000 0.111
55.26000 2.991
55.28000 4.707
55.30000 3.961
55.32000 -0.703
55.34000 0.388
55.36000 0.184
55.38000 -0.818
55.40000 0.349
55.42000 -1.215
55.44000 2.324
55.46000 3.143
55.48000 2.464
55.50000 4.290
55.52000 2.643
55.54000 3.254
55.56000 1.695
55.58000 3.935
55.60000 5.412
55.62000 6.297
55.64000 6.272
55.66000 3.279
55.68000 3.330
55.70000 4.801
55.72000 4.391
55.74000 6.162
55.76000 3.081
55.78000 1.288
55.80000 -0.146
55.82000 2.217
55.84000 5.359
55.86000 -2.476
55.88000 -1.791
55.90000 -2.243
55.92000 -0.460
55.94000 -0.888
55.96000 -1.062
55.98000 0.544
56.00000 2.611
56.02000 4.910
56.04000 3.490
56.06000 4.410
56.08000 3.179
56.10000 3.931
56.12000 4.446
56.14000 6.423
56.16000 8.620
56.18000 6.913
56.20000 5.053
56.22000 4.436
56.24000 2.433
56.26000 0.571
56.28000 0.833
56.30000 3.004
56.32000 1.494
56.34000 1.842
56.36000 2.057
56.38000 -0.319
56.40000 0.559
56.42000 3.468
56.44000 2.512
56.46000 4.421
56.48000 5.067
56.50000 2.784
56.52000 2.007
56.54000 4.800
56.56000 3.254
56.58000 1.573
56.60000 3.233
56.62000 6.802
56.64000 4.514
56.66000 4.220
56.68000 5.456
56.70000 5.331
56.72000 2.521
56.74000 2.227
56.76000 -0.191
56.78000 4.545
56.80000 9.694
56.82000 5.917
56.84000 4.500
56.86000 4.569
56.88000 7.128
56.90000 5.353
56.92000 2.830
56.94000 -2.314
56.96000 -0.095
56.98000 -2.413
57.00000 1.965
57.02000 3.775
57.04000 6.200
57.06000 1.649
57.08000 2.211
57.10000 7.103
57.12000 4.907
57.14000 3.413
57.16000 3.693
57.18000 0.802
57.20000 2.300
57.22000 1.206
57.24000 -0.126
57.26000 1.921
57.28000 8.008
57.30000 6.768
57.32000 5.492
57.34000 4.886
57.36000 4.825
57.38000 9.384
57.40000 6.998
57.42000 1.576
57.44000 -2.394
57.46000 3.015
57.48000 1.053
57.50000 0.653
57.52000 4.259
57.54000 5.621
57.56000 2.105
57.58000 3.638
57.60000 1.472
57.62000 1.609
57.64000 5.746
57.66000 3.117
57.68000 5.797
57.70000 1.098
57.72000 1.906
57.74000 5.056
57.76000 6.330
57.78000 6.885
57.80000 4.552
57.82000 2.513
57.84000 4.545
57.86000 6.346
57.88000 2.637
57.90000 1.527
57.92000 6.647
57.94000 9.617
57.96000 5.794
57.98000 2.468
58.00000 2.672
58.02000 0.251
58.04000 4.420
58.06000 3.444
58.08000 1.103
58.10000 -1.354
58.12000 0.893
58.14000 1.221
58.16000 0.077
58.18000 1.155
58.20000 3.890
58.22000 0.160
58.24000 1.020
58.26000 3.913
58.28000 3.139
58.30000 5.134
58.32000 3.081
58.34000 2.213
58.36000 -1.246
58.38000 2.054
58.40000 2.920
58.42000 2.067
58.44000 1.813
58.46000 4.911
58.48000 4.327
58.50000 3.308
58.52000 5.780
58.54000 3.740
58.56000 2.700
58.58000 3.854
58.60000 3.341
58.62000 -1.848
58.64000 0.402
58.66000 0.414
58.68000 4.352
58.70000 3.933
58.72000 4.280
58.74000 1.127
58.76000 4.626
58.78000 2.936
58.80000 1.499
58.82000 -0.254
58.84000 3.717
58.86000 2.904
58.88000 3.380
58.90000 0.918
58.92000 1.611
58.94000 0.413
58.96000 2.780
58.98000 0.150
59.00000 2.908
59.02000 3.510
59.04000 3.328
59.06000 2.120
59.08000 2.788
59.10000 1.935
59.12000 1.062
59.14000 -0.510
59.16000 2.821
59.18000 4.042
59.20000 2.488
59.22000 1.622
59.24000 3.464
59.26000 2.378
59.28000 0.521
59.30000 -2.348
59.32000 -0.653
59.34000 2.373
59.36000 0.408
59.38000 2.270
59.40000 3.563
59.42000 3.894
59.44000 3.271
59.46000 4.757
59.48000 5.202
59.50000 3.507
59.52000 7.747
59.54000 7.087
59.56000 7.793
59.58000 5.289
59.60000 2.452
59.62000 0.123
59.64000 1.667
59.66000 5.971
59.68000 2.614
59.70000 3.911
59.72000 2.761
59.74000 1.671
59.76000 3.106
59.78000 1.209
59.80000 0.421
59.82000 2.007
59.84000 3.918
59.86000 7.171
59.88000 3.560
59.90000 2.769
59.92000 1.805
59.94000 2.553
59.96000 6.203
59.98000 7.233
60.00000 0.590
60.02000 2.085
60.04000 3.076
60.06000 6.083
60.08000 3.835
60.10000 1.986
60.12000 2.958
60.14000 3.350
60.16000 5.031
60.18000 0.964
60.20000 -0.097
60.22000 -1.758
60.24000 3.379
60.26000 7.319
60.28000 5.665
60.30000 0.943
60.32000 1.005
60.34000 0.654
60.36000 1.171
60.38000 3.066
60.40000 2.653
60.42000 4.598
60.44000 2.058
60.46000 1.995
60.48000 0.547
60.50000 0.088
60.52000 -0.961
60.54000 0.166
60.56000 1.910
60.58000 -0.952
60.60000 1.709
60.62000 3.239
60.64000 4.872
60.66000 4.670
60.68000 0.806
60.70000 -2.127
60.72000 -1.699
60.74000 0.617
60.76000 -0.054
60.78000 -0.515
60.80000 0.860
60.82000 1.209
60.84000 3.263
60.86000 4.625
60.88000 3.683
60.90000 0.195
60.92000 3.458
60.94000 2.737
60.96000 1.780
60.98000 1.896
61.00000 5.441
61.02000 2.658
61.04000 0.444
61.06000 1.905
61.08000 0.253
61.10000 3.273
61.12000 0.662
61.14000 2.377
61.16000 1.065
61.18000 -0.325
61.20000 3.927
61.22000 -0.476
61.24000 1.428
61.26000 2.038
61.28000 3.148
61.30000 0.313
61.32000 -2.281
61.34000 1.627
61.36000 4.651
61.38000 5.255
61.40000 3.913
61.42000 6.879
61.44000 6.905
61.46000 1.944
61.48000 0.760
61.50000 0.916
61.52000 1.334
61.54000 6.869
61.56000 7.124
61.58000 3.131
61.60000 3.158
61.62000 4.671
61.64000 2.213
61.66000 1.504
61.68000 1.573
61.70000 2.123
61.72000 3.536
61.74000 2.525
61.76000 -0.721
61.78000 -2.254
61.80000 2.367
61.82000 3.710
61.84000 2.252
61.86000 -0.278
61.88000 -0.758
61.90000 1.772
61.92000 3.757
61.94000 5.298
61.96000 6.189
61.98000 5.745
62.00000 4.192
62.02000 3.535
62.04000 2.752
62.06000 4.272
62.08000 2.486
62.10000 1.272
62.12000 -0.610
62.14000 2.636
62.16000 0.846
62.18000 1.213
62.20000 1.776
62.22000 0.432
62.24000 -0.601
62.26000 1.162
62.28000 0.080
62.30000 2.030
62.32000 3.065
62.34000 0.699
62.36000 -0.776
62.38000 2.670
62.40000 4.339
62.42000 0.426
62.44000 -0.772
62.46000 0.120
62.48000 -1.386
62.50000 2.535
62.52000 3.404
62.54000 1.619
62.56000 1.245
62.58000 4.066
62.60000 3.356
62.62000 -0.932
62.64000 -0.210
62.66000 3.356
62.68000 4.760
62.70000 2.418
62.72000 4.352
62.74000 4.969
62.76000 2.729
62.78000 4.296
62.80000 3.692
62.82000 -0.952
62.84000 -1.606
62.86000 -0.782
62.88000 -0.877
62.90000 2.617
62.92000 2.219
62.94000 -2.270
62.96000 -1.032
62.98000 1.376
63.00000 -0.936
63.02000 -1.664
63.04000 1.158
63.06000 -1.273
63.08000 1.654
63.10000 2.078
63.12000 0.907
63.14000 -1.402
63.16000 -1.115
63.18000 1.820
63.20000 4.677
63.22000 2.688
63.24000 2.627
63.26000 3.396
63.28000 1.048
63.30000 1.708
63.32000 3.620
63.34000 4.867
63.36000 4.974
63.38000 4.480
63.40000 3.034
63.42000 3.386
63.44000 0.621
63.46000 0.116
63.48000 -1.575
63.50000 0.221
63.52000 -0.417
63.54000 2.307
63.56000 1.309
63.58000 1.928
63.60000 4.485
63.62000 2.098
63.64000 5.390
63.66000 3.062
63.68000 4.044
63.70000 4.011
63.72000 0.727
63.74000 2.569
63.76000 4.272
63.78000 4.254
63.80000 3.236
63.82000 2.215
63.84000 3.036
63.86000 1.727
63.88000 -0.477
63.90000 0.098
63.92000 2.641
63.94000 4.768
63.96000 2.865
63.98000 -2.242
64.00000 -1.128
64.02000 0.027
64.04000 1.766
64.06000 3.732
64.08000 5.090
64.10000 3.374
64.12000 2.692
64.14000 4.582
64.16000 3.388
64.18000 2.288
64.20000 3.389
64.22000 4.396
64.24000 2.959
64.26000 0.679
64.28000 2.711
64.30000 1.986
64.32000 4.683
64.34000 4.082
64.36000 1.993
64.38000 6.444
64.40000 3.589
64.42000 1.453
64.44000 3.451
64.46000 5.419
64.48000 4.929
64.50000 2.994
64.52000 0.635
64.54000 5.032
64.56000 5.489
64.58000 3.873
64.60000 3.901
64.62000 4.783
64.64000 2.028
64.66000 2.876
64.68000 2.398
64.70000 5.651
64.72000 5.138
64.74000 3.495
64.76000 1.434
64.78000 2.150
64.80000 1.583
64.82000 0.354
64.84000 -0.456
64.86000 0.250
64.88000 0.947
64.90000 2.391
64.92000 5.689
64.94000 3.266
64.96000 3.858
64.98000 5.855
65.00000 2.661
65.02000 -2.248
65.04000 0.716
65.06000 5.983
65.08000 4.788
65.10000 2.809
65.12000 3.923
65.14000 2.767
65.16000 3.772
65.18000 3.051
65.20000 5.440
65.22000 1.401
65.24000 1.375
65.26000 0.010
65.28000 0.317
65.30000 -0.970
65.32000 -0.725
65.34000 3.235
65.36000 2.599
65.38000 2.846
65.40000 4.734
65.42000 2.388
65.44000 0.723
65.46000 2.225
65.48000 2.266
65.50000 2.208
65.52000 3.641
65.54000 3.896
65.56000 1.817
65.58000 1.645
65.60000 1.363
65.62000 2.478
65.64000 3.835
65.66000 4.551
65.68000 2.651
65.70000 0.138
65.72000 2.195
65.74000 4.189
65.76000 2.309
65.78000 3.243
65.80000 6.418
65.82000 5.069
65.84000 5.056
65.86000 4.912
65.88000 3.765
65.90000 4.846
65.92000 2.040
65.94000 4.279
65.96000 8.058
65.98000 6.981
66.00000 5.300
66.02000 6.805
66.04000 5.494
66.06000 5.504
66.08000 3.875
66.10000 2.170
66.12000 5.729
66.14000 7.489
66.16000 6.541
66.18000 4.824
66.20000 4.717
66.22000 5.778
66.24000 5.340
66.26000 4.746
66.28000 7.742
66.30000 8.130
66.32000 7.517
66.34000 8.031
66.36000 9.613
66.38000 7.950
66.40000 8.246
66.42000 7.254
66.44000 7.490
66.46000 9.098
66.48000 9.735
66.50000 8.620
66.52000 8.474
66.54000 9.711
66.56000 8.448
66.58000 10.255
66.60000 10.252
66.62000 9.949
66.64000 8.208
66.66000 9.763
66.68000 11.842
66.70000 11.366
66.72000 8.183
66.74000 6.381
66.76000 8.000
66.78000 7.553
66.80000 8.912
66.82000 6.553
66.84000 8.726
66.86000 9.480
66.88000 6.769
66.90000 5.740
66.92000 4.727
66.94000 4.859
66.96000 4.789
66.98000 3.065
67.00000 3.978
67.02000 3.701
67.04000 3.339
67.06000 3.368
67.08000 3.197
67.10000 2.617
67.12000 4.017
67.14000 7.569
67.16000 4.777
67.18000 2.184
67.20000 4.924
67.22000 3.962
67.24000 3.043
67.26000 2.945
67.28000 0.602
67.30000 0.364
67.32000 0.160
67.34000 2.667
67.36000 4.966
67.38000 1.505
67.40000 2.242
67.42000 3.986
67.44000 3.019
67.46000 1.766
67.48000 2.144
67.50000 2.730
67.52000 0.047
67.54000 0.425
67.56000 1.958
67.58000 3.275
67.60000 4.005
67.62000 2.876
67.64000 1.067
67.66000 0.492
67.68000 0.767
67.70000 0.309
67.72000 3.296
67.74000 4.952
67.76000 3.512
67.78000 5.139
67.80000 2.468
67.82000 0.719
67.84000 4.520
67.86000 4.052
67.88000 4.734
67.90000 3.700
67.92000 4.661
67.94000 4.868
67.96000 3.249
67.98000 2.553
68.00000 1.871
68.02000 -2.144
68.04000 1.870
68.06000 1.542
68.08000 1.790
68.10000 1.751
68.12000 0.956
68.14000 2.042
68.16000 2.733
68.18000 3.298
68.20000 2.031
68.22000 1.626
68.24000 0.794
68.26000 -2.146
68.28000 -1.513
68.30000 0.988
68.32000 0.122
68.34000 1.204
68.36000 3.517
68.38000 3.278
68.40000 2.246
68.42000 1.369
68.44000 1.516
68.46000 0.834
68.48000 1.699
68.50000 1.909
68.52000 0.421
68.54000 0.494
68.56000 -1.314
68.58000 -0.720
68.60000 -0.104
68.62000 -1.621
68.64000 1.559
68.66000 -0.086
68.68000 0.717
68.70000 1.887
68.72000 2.029
68.74000 -1.034
68.76000 0.178
68.78000 0.384
68.80000 0.322
68.82000 0.520
68.84000 3.022
68.86000 2.094
68.88000 -0.862
68.90000 -0.002
68.92000 0.319
68.94000 -0.796
68.96000 1.478
68.98000 -0.219
69.00000 1.387
69.02000 2.259
69.04000 3.042
69.06000 2.096
69.08000 3.066
69.10000 -0.319
69.12000 0.273
69.14000 -0.213
69.16000 -0.401
69.18000 0.965
69.20000 1.821
69.22000 0.139
69.24000 -0.492
69.26000 1.543
69.28000 0.221
69.30000 -0.074
69.32000 2.104
69.34000 -0.269
69.36000 2.067
69.38000 0.668
69.40000 2.604
69.42000 1.844
69.44000 0.474
69.46000 -0.078
69.48000 1.418
69.50000 1.373
69.52000 -0.216
69.54000 1.590
69.56000 1.671
69.58000 -1.081
69.60000 0.603
69.62000 5.358
69.64000 4.505
69.66000 1.856
69.68000 -2.106
69.70000 0.345
69.72000 1.904
69.74000 -0.046
69.76000 -1.559
69.78000 -1.715
69.80000 -0.848
69.82000 1.914
69.84000 3.614
69.86000 0.779
69.88000 1.264
69.90000 3.431
69.92000 -1.448
69.94000 -1.296
69.96000 2.045
69.98000 0.196
70.00000 -0.275
70.02000 1.173
70.04000 -1.361
70.06000 0.152
70.08000 1.452
70.10000 1.141
70.12000 2.917
70.14000 2.272
70.16000 0.133
70.18000 0.350
70.20000 2.045
70.22000 2.697
70.24000 -0.319
70.26000 0.834
70.28000 0.682
70.30000 0.914
70.32000 2.138
70.34000 2.272
70.36000 1.200
70.38000 2.851
70.40000 2.039
70.42000 1.824
70.44000 1.568
70.46000 0.470
70.48000 -2.068
70.50000 0.172
70.52000 1.512
70.54000 -0.791
70.56000 -0.122
70.58000 -0.265
70.60000 1.175
70.62000 0.431
70.64000 0.745
70.66000 4.417
70.68000 5.166
70.70000 1.827
70.72000 0.699
70.74000 3.760
70.76000 3.547
70.78000 1.625
70.80000 0.697
70.82000 1.671
70.84000 2.816
70.86000 2.176
70.88000 1.831
70.90000 0.383
70.92000 -1.822
70.94000 -0.636
70.96000 0.167
70.98000 3.121
71.00000 7.137
71.02000 3.445
71.04000 1.281
71.06000 1.528
71.08000 1.899
71.10000 0.770
71.12000 2.037
71.14000 0.801
71.16000 1.599
71.18000 -0.210
71.20000 0.838
71.22000 -0.091
71.24000 0.683
71.26000 1.323
71.28000 2.065
71.30000 0.041
71.32000 -1.789
71.34000 -0.159
71.36000 2.430
71.38000 1.108
71.40000 0.556
71.42000 1.711
71.44000 0.468
71.46000 0.539
71.48000 2.626
71.50000 2.415
71.52000 2.304
71.54000 1.210
71.56000 1.100
71.58000 -0.049
71.60000 2.112
71.62000 3.281
71.64000 5.408
71.66000 5.471
71.68000 2.952
71.70000 3.672
71.72000 2.520
71.74000 1.144
71.76000 -0.268
71.78000 2.748
71.80000 1.382
71.82000 -0.265
71.84000 2.655
71.86000 3.660
71.88000 2.766
71.90000 -0.590
71.92000 0.129
71.94000 1.720
71.96000 6.600
71.98000 4.726
72.00000 -0.883
72.02000 -0.587
72.04000 0.591
72.06000 2.196
72.08000 1.283
72.10000 -1.959
72.12000 1.138
72.14000 3.114
72.16000 3.465
72.18000 6.079
72.20000 6.383
72.22000 5.705
72.24000 3.880
72.26000 2.432
72.28000 0.467
72.30000 -0.187
72.32000 0.286
72.34000 0.973
72.36000 2.541
72.38000 1.648
72.40000 1.721
72.42000 3.124
72.44000 3.886
72.46000 0.263
72.48000 0.682
72.50000 0.982
72.52000 2.472
72.54000 1.741
72.56000 1.601
72.58000 2.107
72.60000 3.257
72.62000 4.300
72.64000 5.439
72.66000 4.037
72.68000 3.246
72.70000 5.408
72.72000 3.015
72.74000 2.239
72.76000 2.640
72.78000 2.286
72.80000 0.920
72.82000 6.361
72.84000 4.533
72.86000 2.006
72.88000 1.523
72.90000 2.074
72.92000 3.431
72.94000 1.919
72.96000 0.912
72.98000 4.107
73.00000 2.753
73.02000 3.006
73.04000 3.774
73.06000 -0.052
73.08000 2.201
73.10000 3.019
73.12000 0.968
73.14000 1.198
73.16000 2.009
73.18000 -1.309
73.20000 -0.845
73.22000 2.961
73.24000 3.172
73.26000 4.299
73.28000 4.803
73.30000 2.315
73.32000 3.204
73.34000 2.748
73.36000 2.397
73.38000 1.369
73.40000 1.973
73.42000 3.077
73.44000 3.245
73.46000 4.113
73.48000 5.319
73.50000 3.227
73.52000 1.558
73.54000 3.164
73.56000 4.574
73.58000 3.582
73.60000 5.199
73.62000 6.368
73.64000 1.119
73.66000 2.465
73.68000 3.224
73.70000 4.364
73.72000 5.099
73.74000 1.162
73.76000 0.168
73.78000 1.261
73.80000 -0.542
73.82000 -0.146
73.84000 -1.935
73.86000 -0.245
73.88000 2.327
73.90000 0.753
73.92000 0.711
73.94000 1.579
73.96000 2.562
73.98000 2.376
74.00000 2.838
74.02000 3.804
74.04000 6.071
74.06000 4.189
74.08000 0.525
74.10000 1.939
74.12000 1.862
74.14000 3.742
74.16000 3.095
74.18000 3.912
74.20000 5.414
74.22000 2.478
74.24000 2.752
74.26000 -0.463
74.28000 0.411
74.30000 1.890
74.32000 1.287
74.34000 -0.777
74.36000 2.613
74.38000 2.062
74.40000 1.791
74.42000 2.580
74.44000 0.756
74.46000 -1.980
74.48000 -0.480
74.50000 1.154
74.52000 1.150
74.54000 0.161
74.56000 0.426
74.58000 1.261
74.60000 2.305
74.62000 2.231
74.64000 1.902
74.66000 3.405
74.68000 3.069
74.70000 0.560
74.72000 2.355
74.74000 2.559
74.76000 4.188
74.78000 3.462
74.80000 -0.509
74.82000 -0.050
74.84000 1.326
74.86000 0.879
74.88000 0.829
74.90000 1.889
74.92000 1.037
74.94000 2.734
74.96000 2.210
74.98000 2.097
75.00000 3.282
75.02000 2.213
75.04000 -0.389
75.06000 2.831
75.08000 2.404
75.10000 1.908
75.12000 -1.781
75.14000 -1.543
75.16000 0.175
75.18000 1.589
75.20000 4.614
75.22000 3.264
75.24000 1.022
75.26000 2.454
75.28000 2.279
75.30000 2.566
75.32000 -0.004
75.34000 -2.002
75.36000 -1.042
75.38000 0.014
75.40000 2.625
75.42000 0.430
75.44000 0.707
75.46000 -0.410
75.48000 -0.283
75.50000 -0.851
75.52000 -0.492
75.54000 2.404
75.56000 3.834
75.58000 2.951
75.60000 -1.943
75.62000 0.439
75.64000 2.761
75.66000 -0.304
75.68000 -2.006
75.70000 0.222
75.72000 2.015
75.74000 1.817
75.76000 0.366
75.78000 2.082
75.80000 2.710
75.82000 1.336
75.84000 1.545
75.86000 0.847
75.88000 1.846
75.90000 1.422
75.92000 2.717
75.94000 0.365
75.96000 -2.012
75.98000 -0.795
76.00000 2.067
76.02000 6.425
76.04000 3.286
76.06000 -0.021
76.08000 1.174
76.10000 -0.261
76.12000 2.793
76.14000 2.442
76.16000 0.104
76.18000 -0.345
76.20000 -0.958
76.22000 -1.993
76.24000 1.497
76.26000 2.263
76.28000 3.904
76.30000 1.666
76.32000 -2.019
76.34000 1.978
76.36000 2.242
76.38000 0.735
76.40000 4.006
76.42000 2.390
76.44000 0.595
76.46000 2.594
76.48000 0.139
76.50000 -2.031
76.52000 0.228
76.54000 1.083
76.56000 2.173
76.58000 2.804
76.60000 0.866
76.62000 2.497
76.64000 2.657
76.66000 -0.659
76.68000 -1.723
76.70000 -1.088
76.72000 3.463
76.74000 4.893
76.76000 1.064
76.78000 1.638
76.80000 4.322
76.82000 4.915
76.84000 1.754
76.86000 -0.333
76.88000 0.951
76.90000 2.672
76.92000 -2.052
76.94000 -0.246
76.96000 1.108
76.98000 -0.379
77.00000 1.160
77.02000 2.141
77.04000 1.782
77.06000 -0.775
77.08000 -1.643
77.10000 0.629
77.12000 0.684
77.14000 0.991
77.16000 0.862
77.18000 1.733
77.20000 1.312
77.22000 0.436
77.24000 2.138
77.26000 2.356
77.28000 1.283
77.30000 0.857
77.32000 2.850
77.34000 2.601
77.36000 3.343
77.38000 3.095
77.40000 1.186
77.42000 0.091
77.44000 0.791
77.46000 -1.026
77.48000 -0.206
77.50000 -0.950
77.52000 -2.067
77.54000 -0.780
77.56000 -0.627
77.58000 4.051
77.60000 3.485
77.62000 1.243
77.64000 0.944
77.66000 0.414
77.68000 1.361
77.70000 2.539
77.72000 2.236
77.74000 3.705
77.76000 1.469
77.78000 -1.351
77.80000 -0.579
77.82000 -1.092
77.84000 -0.923
77.86000 0.812
77.88000 1.113
77.90000 -0.905
77.92000 -1.168
77.94000 -1.341
77.96000 -1.299
77.98000 1.674
78.00000 0.305
78.02000 -1.169
78.04000 -1.643
78.06000 1.992
78.08000 0.092
78.10000 2.425
78.12000 2.059
78.14000 -0.114
78.16000 -0.869
78.18000 0.107
78.20000 2.391
78.22000 2.573
78.24000 0.539
78.26000 2.388
78.28000 3.305
78.30000 1.275
78.32000 -0.467
78.34000 -2.152
78.36000 1.328
78.38000 0.828
78.40000 -0.453
78.42000 -1.267
78.44000 -0.104
78.46000 -1.334
78.48000 -0.857
78.50000 -1.027
78.52000 0.148
78.54000 4.261
78.56000 4.581
78.58000 -0.162
78.60000 -0.777
78.62000 -2.178
78.64000 -1.171
78.66000 -1.317
78.68000 -2.059
78.70000 -2.034
78.72000 0.322
78.74000 2.958
78.76000 -0.099
78.78000 -1.886
78.80000 -2.193
78.82000 1.727
78.84000 -1.810
78.86000 -0.491
78.88000 1.612
78.90000 1.101
78.92000 1.080
78.94000 4.104
78.96000 2.112
78.98000 2.782
79.00000 3.530
79.02000 5.300
79.04000 6.643
79.06000 2.205
79.08000 0.810
79.10000 2.270
79.12000 1.852
79.14000 0.996
79.16000 0.038
79.18000 3.209
79.20000 2.703
79.22000 2.875
79.24000 6.142
79.26000 7.752
79.28000 5.523
79.30000 7.926
79.32000 9.229
79.34000 9.086
79.36000 6.704
79.38000 2.939
79.40000 4.309
79.42000 4.189
79.44000 6.774
79.46000 8.676
79.48000 7.298
79.50000 10.862
79.52000 14.189
79.54000 9.663
79.56000 10.492
79.58000 13.652
79.60000 13.153
79.62000 14.882
79.64000 13.798
79.66000 13.122
79.68000 13.267
79.70000 12.639
79.72000 17.554
79.74000 21.749
79.76000 15.913
79.78000 13.120
79.80000 21.792
79.82000 24.087
79.84000 19.370
79.86000 18.415
79.88000 20.200
79.90000 18.963
79.92000 22.546
79.94000 25.619
79.96000 24.438
79.98000 21.725
80.00000 22.614
80.02000 28.916
80.04000 26.040
80.06000 26.799
80.08000 25.935
80.10000 25.934
80.12000 25.231
80.14000 20.347
80.16000 24.863
80.18000 26.856
80.20000 28.421
80.22000 29.426
80.24000 27.360
80.26000 29.955
80.28000 30.854
80.30000 28.691
80.32000 23.855
80.34000 23.843
80.36000 26.765
80.38000 26.528
80.40000 25.808
80.42000 24.440
80.44000 26.990
80.46000 27.470
80.48000 21.685
80.50000 23.631
80.52000 18.271
80.54000 19.116
80.56000 19.523
80.58000 17.135
80.60000 18.669
80.62000 15.644
80.64000 14.588
80.66000 14.914
80.68000 15.706
80.70000 14.695
80.72000 17.624
80.74000 16.378
80.76000 12.722
80.78000 11.415
80.80000 12.375
80.82000 11.979
80.84000 12.140
80.86000 10.972
80.88000 12.267
80.90000 9.567
80.92000 9.975
80.94000 9.350
80.96000 8.568
80.98000 8.149
81.00000 9.260
81.02000 7.172
81.04000 6.945
81.06000 5.434
81.08000 6.882
81.10000 5.476
81.12000 4.440
81.14000 3.012
81.16000 3.069
81.18000 -0.992
81.20000 2.604
81.22000 3.203
81.24000 4.728
81.26000 1.319
81.28000 2.341
81.30000 3.356
81.32000 1.449
81.34000 0.397
81.36000 0.594
81.38000 0.831
81.40000 0.705
81.42000 4.041
81.44000 1.614
81.46000 -0.812
81.48000 -0.197
81.50000 2.258
81.52000 1.784
81.54000 0.883
81.56000 0.252
81.58000 -0.598
81.60000 0.485
81.62000 4.231
81.64000 2.147
81.66000 2.989
81.68000 2.441
81.70000 4.931
81.72000 3.560
81.74000 1.122
81.76000 3.158
81.78000 2.330
81.80000 0.298
81.82000 -2.263
81.84000 3.567
81.86000 -0.368
81.88000 0.095
81.90000 2.118
81.92000 5.240
81.94000 3.985
81.96000 -0.017
81.98000 -0.094
82.00000 5.681
82.02000 2.787
82.04000 0.576
82.06000 -0.272
82.08000 3.272
82.10000 3.904
82.12000 2.812
82.14000 2.686
82.16000 0.544
82.18000 -0.667
82.20000 2.498
82.22000 3.358
82.24000 1.505
82.26000 -0.406
82.28000 0.695
82.30000 -1.944
82.32000 -1.785
82.34000 -2.260
82.36000 1.301
82.38000 1.477
82.40000 -0.894
82.42000 -0.573
82.44000 1.743
82.46000 -0.154
82.48000 -1.899
82.50000 -1.398
82.52000 0.480
82.54000 2.022
82.56000 -0.706
82.58000 1.051
82.60000 0.482
82.62000 2.992
82.64000 1.649
82.66000 0.888
82.68000 0.530
82.70000 0.090
82.72000 2.683
82.74000 3.469
82.76000 0.277
82.78000 3.509
82.80000 5.819
82.82000 6.432
82.84000 5.606
82.86000 6.158
82.88000 6.357
82.90000 8.837
82.92000 4.236
82.94000 5.287
82.96000 7.335
82.98000 5.836
83.00000 0.604
83.02000 1.240
83.04000 -0.423
83.06000 1.830
83.08000 3.647
83.10000 7.290
83.12000 5.145
83.14000 4.465
83.16000 6.161
83.18000 7.196
83.20000 9.487
83.22000 10.948
83.24000 9.939
83.26000 7.999
83.28000 8.178
83.30000 8.660
83.32000 10.203
83.34000 8.309
83.36000 7.808
83.38000 11.780
83.40000 9.327
83.42000 12.516
83.44000 13.923
83.46000 16.753
83.48000 17.098
83.50000 16.236
83.52000 17.408
83.54000 17.060
83.56000 18.750
83.58000 17.775
83.60000 17.550
83.62000 19.958
83.64000 21.718
83.66000 23.167
83.68000 26.709
83.70000 27.957
83.72000 27.039
83.74000 27.314
83.76000 28.399
83.78000 30.275
83.80000 34.264
83.82000 31.692
83.84000 29.114
83.86000 33.578
83.88000 31.734
83.90000 33.759
83.92000 36.530
83.94000 34.137
83.96000 28.388
83.98000 33.383
84.00000 32.268
84.02000 32.261
84.04000 35.067
84.06000 36.384
84.08000 34.908
84.10000 34.833
84.12000 36.075
84.14000 36.542
84.16000 34.057
84.18000 35.562
84.20000 37.120
84.22000 35.450
84.24000 36.661
84.26000 36.525
84.28000 37.978
84.30000 33.949
84.32000 29.741
84.34000 32.055
84.36000 36.009
84.38000 34.677
84.40000 28.936
84.42000 30.765
84.44000 28.812
84.46000 27.888
84.48000 30.384
84.50000 26.717
84.52000 26.728
84.54000 23.562
84.56000 24.397
84.58000 24.974
84.60000 22.879
84.62000 22.060
84.64000 18.478
84.66000 19.534
84.68000 20.216
84.70000 20.429
84.72000 18.587
84.74000 15.009
84.76000 13.754
84.78000 17.363
84.80000 12.618
84.82000 9.952
84.84000 9.465
84.86000 8.897
84.88000 8.675
84.90000 12.156
84.92000 9.925
84.94000 8.117
84.96000 11.054
84.98000 8.323
85.00000 4.958
85.02000 2.252
85.04000 0.989
85.06000 2.996
85.08000 6.105
85.10000 8.576
85.12000 5.463
85.14000 4.358
85.16000 6.599
85.18000 5.427
85.20000 3.239
85.22000 2.026
85.24000 -2.088
85.26000 -1.626
85.28000 2.267
85.30000 2.806
85.32000 3.732
85.34000 5.723
85.36000 4.338
85.38000 4.027
85.40000 1.443
85.42000 1.062
85.44000 3.017
85.46000 2.656
85.48000 1.629
85.50000 1.646
85.52000 2.351
85.54000 1.091
85.56000 -0.080
85.58000 -1.390
85.60000 1.787
85.62000 0.079
85.64000 0.119
85.66000 0.822
85.68000 -0.913
85.70000 1.258
85.72000 6.035
85.74000 0.442
85.76000 -1.336
85.78000 0.668
85.80000 1.375
85.82000 0.311
85.84000 1.485
85.86000 0.038
85.88000 -1.979
85.90000 0.264
85.92000 2.035
85.94000 1.845
85.96000 3.284
85.98000 1.867
86.00000 2.245
86.02000 2.793
86.04000 0.476
86.06000 3.710
86.08000 7.173
86.10000 5.150
86.12000 2.402
86.14000 1.027
86.16000 -0.742
86.18000 0.661
86.20000 -1.567
86.22000 -0.664
86.24000 0.628
86.26000 1.449
86.28000 0.029
86.30000 1.264
86.32000 4.182
86.34000 2.630
86.36000 0.885
86.38000 1.003
86.40000 1.286
86.42000 2.741
86.44000 1.243
86.46000 -1.342
86.48000 -1.910
86.50000 0.665
86.52000 2.384
86.54000 4.760
86.56000 4.124
86.58000 2.037
86.60000 2.588
86.62000 1.837
86.64000 0.803
86.66000 2.964
86.68000 2.264
86.70000 2.243
86.72000 -1.889
86.74000 -0.402
86.76000 -0.052
86.78000 0.481
86.80000 2.878
86.82000 1.632
86.84000 0.664
86.86000 2.238
86.88000 1.996
86.90000 7.854
86.92000 5.081
86.94000 0.464
86.96000 -0.111
86.98000 4.605
87.00000 3.026
87.02000 0.533
87.04000 -0.224
87.06000 -0.404
87.08000 0.504
87.10000 2.473
87.12000 4.991
87.14000 2.962
87.16000 4.059
87.18000 5.534
87.20000 2.332
87.22000 0.745
87.24000 1.422
87.26000 3.443
87.28000 -0.265
87.30000 -1.874
87.32000 2.429
87.34000 4.970
87.36000 3.168
87.38000 3.741
87.40000 4.122
87.42000 1.849
87.44000 1.895
87.46000 2.610
87.48000 2.450
87.50000 0.460
87.52000 1.681
87.54000 -0.205
87.56000 -0.880
87.58000 1.683
87.60000 1.866
87.62000 -0.289
87.64000 2.817
87.66000 0.552
87.68000 1.937
87.70000 0.260
87.72000 -1.255
87.74000 1.494
87.76000 -0.415
87.78000 0.322
87.80000 0.085
87.82000 1.321
87.84000 1.348
87.86000 3.529
87.88000 3.552
87.90000 2.576
87.92000 1.879
87.94000 1.546
87.96000 -0.298
87.98000 0.817
88.00000 0.937
88.02000 2.900
88.04000 -0.275
88.06000 -1.077
88.08000 -0.493
88.10000 1.054
88.12000 2.961
88.14000 2.848
88.16000 1.533
88.18000 -1.838
88.20000 0.805
88.22000 2.290
88.24000 3.333
88.26000 1.750
88.28000 1.187
88.30000 2.406
88.32000 4.328
88.34000 4.076
88.36000 3.528
88.38000 1.828
88.40000 1.886
88.42000 1.977
88.44000 4.601
88.46000 2.475
88.48000 2.300
88.50000 1.846
88.52000 2.681
88.54000 3.813
88.56000 5.572
88.58000 6.402
88.60000 4.910
88.62000 2.855
88.64000 1.349
88.66000 2.965
88.68000 4.533
88.70000 2.647
88.72000 1.884
88.74000 1.975
88.76000 0.591
88.78000 -1.804
88.80000 2.895
88.82000 2.007
88.84000 2.057
88.86000 -1.680
88.88000 1.098
88.90000 1.376
88.92000 2.516
88.94000 1.783
88.96000 2.179
88.98000 3.537
89.00000 3.374
89.02000 2.549
89.04000 -1.135
89.06000 3.061
89.08000 2.224
89.10000 0.925
89.12000 3.166
89.14000 6.184
89.16000 3.991
89.18000 0.491
89.20000 3.102
89.22000 2.478
89.24000 1.631
89.26000 4.600
89.28000 1.286
89.30000 0.832
89.32000 1.182
89.34000 1.960
89.36000 2.225
89.38000 1.186
89.40000 2.632
89.42000 2.914
89.44000 1.611
89.46000 2.447
89.48000 3.676
89.50000 -1.616
89.52000 -0.676
89.54000 -0.964
89.56000 0.663
89.58000 2.074
89.60000 -0.262
89.62000 0.887
89.64000 5.660
89.66000 3.514
89.68000 1.707
89.70000 1.608
89.72000 1.110
89.74000 2.294
89.76000 -1.816
89.78000 2.010
89.80000 4.378
89.82000 4.262
89.84000 3.662
89.86000 3.290
89.88000 1.018
89.90000 2.174
89.92000 1.936
89.94000 2.098
89.96000 2.090
89.98000 0.314
90.00000 -0.148
90.02000 1.466
90.04000 2.340
90.06000 2.475
90.08000 3.235
90.10000 2.836
90.12000 0.525
90.14000 2.520
90.16000 1.236
90.18000 4.934
90.20000 0.790
90.22000 1.860
90.24000 1.196
90.26000 1.722
90.28000 0.603
90.30000 -0.354
90.32000 -0.611
90.34000 0.450
90.36000 2.748
90.38000 1.946
90.40000 1.636
90.42000 1.619
90.44000 -1.343
90.46000 1.817
90.48000 2.979
90.50000 1.470
90.52000 1.864
90.54000 1.715
90.56000 -0.121
90.58000 0.409
90.60000 1.374
90.62000 2.790
90.64000 3.198
90.66000 0.921
90.68000 0.072
90.70000 1.099
90.72000 2.417
90.74000 1.751
90.76000 3.267
90.78000 2.942
90.80000 2.480
90.82000 1.127
90.84000 0.973
90.86000 0.594
90.88000 -1.705
90.90000 -1.855
90.92000 -0.779
90.94000 -1.717
90.96000 -1.336
90.98000 -1.529
91.00000 -0.712
91.02000 0.091
91.04000 -0.642
91.06000 -0.077
91.08000 -0.389
91.10000 -0.575
91.12000 1.390
91.14000 1.554
91.16000 2.265
91.18000 1.611
91.20000 2.329
91.22000 0.949
91.24000 -0.484
91.26000 3.377
91.28000 1.151
91.30000 -0.492
91.32000 2.954
91.34000 1.412
91.36000 3.085
91.38000 0.538
91.40000 1.776
91.42000 3.393
91.44000 3.627
91.46000 2.367
91.48000 -0.586
91.50000 -1.869
91.52000 1.908
91.54000 5.675
91.56000 2.420
91.58000 0.383
91.60000 -1.716
91.62000 -0.831
91.64000 4.657
91.66000 2.897
91.68000 -0.631
91.70000 1.257
91.72000 0.608
91.74000 0.351
91.76000 -1.130
91.78000 0.189
91.80000 -0.760
91.82000 3.019
91.84000 2.933
91.86000 0.589
91.88000 1.191
91.90000 3.243
91.92000 0.060
91.94000 -0.134
91.96000 -0.967
91.98000 -0.838
92.00000 2.491
92.02000 1.709
92.04000 -0.440
92.06000 0.358
92.08000 2.184
92.10000 -0.543
92.12000 -0.611
92.14000 -0.268
92.16000 -0.587
92.18000 1.210
92.20000 1.481
92.22000 1.304
92.24000 0.808
92.26000 0.644
92.28000 0.085
92.30000 2.758
92.32000 2.653
92.34000 0.755
92.36000 2.066
92.38000 1.165
92.40000 0.126
92.42000 1.583
92.44000 3.284
92.46000 -1.861
92.48000 -1.693
92.50000 -0.337
92.52000 2.316
92.54000 2.656
92.56000 2.042
92.58000 4.397
92.60000 5.984
92.62000 3.296
92.64000 3.114
92.66000 0.399
92.68000 -0.635
92.70000 -1.391
92.72000 6.041
92.74000 5.553
92.76000 1.739
92.78000 1.546
92.80000 2.599
92.82000 4.320
92.84000 4.609
92.86000 3.138
92.88000 2.771
92.90000 3.262
92.92000 2.022
92.94000 -0.700
92.96000 -0.423
92.98000 2.311
93.00000 6.255
93.02000 3.668
93.04000 3.469
93.06000 3.683
93.08000 0.316
93.10000 -1.830
93.12000 3.685
93.14000 0.475
93.16000 1.511
93.18000 1.355
93.20000 1.716
93.22000 3.906
93.24000 4.435
93.26000 2.044
93.28000 3.604
93.30000 3.483
93.32000 2.025
93.34000 1.430
93.36000 1.529
93.38000 -1.405
93.40000 4.646
93.42000 3.865
93.44000 2.547
93.46000 1.197
93.48000 1.692
93.50000 2.754
93.52000 2.821
93.54000 6.763
93.56000 8.043
93.58000 2.174
93.60000 1.002
93.62000 5.500
93.64000 7.203
93.66000 5.493
93.68000 4.922
93.70000 3.778
93.72000 1.743
93.74000 -0.333
93.76000 2.771
93.78000 3.405
93.80000 0.695
93.82000 1.358
93.84000 2.639
93.86000 4.018
93.88000 4.502
93.90000 -0.700
93.92000 -1.873
93.94000 2.213
93.96000 2.455
93.98000 1.466
94.00000 1.431
94.02000 4.876
94.04000 2.572
94.06000 3.630
94.08000 4.576
94.10000 3.742
94.12000 3.513
94.14000 3.651
94.16000 0.926
94.18000 0.130
94.20000 1.715
94.22000 2.165
94.24000 1.883
94.26000 -1.029
94.28000 2.264
94.30000 2.730
94.32000 2.420
94.34000 4.079
94.36000 1.608
94.38000 0.452
94.40000 1.087
94.42000 -0.207
94.44000 2.727
94.46000 3.404
94.48000 3.706
94.50000 3.096
94.52000 1.823
94.54000 2.449
94.56000 1.793
94.58000 2.049
94.60000 -0.182
94.62000 1.107
94.64000 2.591
94.66000 1.831
94.68000 2.142
94.70000 2.811
94.72000 2.516
94.74000 -0.339
94.76000 0.266
94.78000 0.684
94.80000 1.221
94.82000 2.962
94.84000 3.704
94.86000 7.735
94.88000 9.203
94.90000 5.134
94.92000 2.689
94.94000 2.427
94.96000 1.804
94.98000 0.437
95.00000 2.814
95.02000 1.532
95.04000 4.360
95.06000 5.002
95.08000 0.587
95.10000 -1.859
95.12000 3.982
95.14000 4.795
95.16000 2.192
95.18000 2.378
95.20000 6.136
95.22000 3.884
95.24000 3.717
95.26000 2.844
95.28000 1.742
95.30000 0.318
95.32000 -0.177
95.34000 0.873
95.36000 8.470
95.38000 2.703
95.40000 -0.089
95.42000 1.495
95.44000 1.954
95.46000 2.550
95.48000 6.963
95.50000 4.256
95.52000 3.851
95.54000 5.439
95.56000 4.885
95.58000 4.908
95.60000 6.028
95.62000 3.162
95.64000 3.874
95.66000 4.653
95.68000 6.193
95.70000 2.772
95.72000 -0.949
95.74000 -1.866
95.76000 1.291
95.78000 1.744
95.80000 -0.950
95.82000 -1.409
95.84000 -0.425
95.86000 -1.422
95.88000 1.760
95.90000 3.945
95.92000 2.575
95.94000 0.493
95.96000 3.604
95.98000 2.537
96.00000 -0.617
96.02000 4.783
96.04000 3.208
96.06000 3.262
96.08000 6.301
96.10000 7.122
96.12000 3.831
96.14000 3.798
96.16000 3.750
96.18000 8.503
96.20000 2.424
96.22000 -0.603
96.24000 3.019
96.26000 4.069
96.28000 3.834
96.30000 -0.632
96.32000 0.144
96.34000 0.806
96.36000 3.745
96.38000 2.248
96.40000 5.064
96.42000 4.234
96.44000 2.497
96.46000 1.147
96.48000 2.323
96.50000 2.969
96.52000 3.621
96.54000 4.463
96.56000 8.242
96.58000 0.131
96.60000 2.204
96.62000 1.350
96.64000 1.776
96.66000 3.920
96.68000 4.546
96.70000 2.450
96.72000 1.749
96.74000 1.239
96.76000 7.240
96.78000 6.233
96.80000 0.180
96.82000 -0.571
96.84000 2.524
96.86000 1.716
96.88000 1.583
96.90000 2.817
96.92000 4.541
96.94000 4.481
96.96000 7.139
96.98000 2.463
97.00000 5.055
97.02000 5.332
97.04000 5.379
97.06000 3.202
97.08000 4.132
97.10000 3.342
97.12000 3.544
97.14000 -0.034
97.16000 0.414
97.18000 0.926
97.20000 2.512
97.22000 2.053
97.24000 2.636
97.26000 2.616
97.28000 0.492
97.30000 1.383
97.32000 6.465
97.34000 4.479
97.36000 3.698
97.38000 4.515
97.40000 3.866
97.42000 2.419
97.44000 3.155
97.46000 1.581
97.48000 -1.065
97.50000 1.692
97.52000 3.777
97.54000 6.728
97.56000 4.337
97.58000 0.042
97.60000 -0.346
97.62000 -1.836
97.64000 2.296
97.66000 2.238
97.68000 3.051
97.70000 4.296
97.72000 3.550
97.74000 6.558
97.76000 4.726
97.78000 1.569
97.80000 5.458
97.82000 6.009
97.84000 6.127
97.86000 1.804
97.88000 4.726
97.90000 3.105
97.92000 1.388
97.94000 -1.824
97.96000 -1.176
97.98000 -0.433
98.00000 0.645
98.02000 3.513
98.04000 10.239
98.06000 10.788
98.08000 5.232
98.10000 2.360
98.12000 3.689
98.14000 1.097
98.16000 2.318
98.18000 2.497
98.20000 3.571
98.22000 4.564
98.24000 2.229
98.26000 5.166
98.28000 5.836
98.30000 5.444
98.32000 3.397
98.34000 5.969
98.36000 9.892
98.38000 8.740
98.40000 5.100
98.42000 7.497
98.44000 2.128
98.46000 -1.088
98.48000 2.986
98.50000 2.508
98.52000 2.736
98.54000 1.592
98.56000 -0.489
98.58000 5.341
98.60000 9.029
98.62000 4.558
98.64000 4.874
98.66000 6.390
98.68000 5.845
98.70000 5.466
98.72000 -1.763
98.74000 2.052
98.76000 7.646
98.78000 10.631
98.80000 4.691
98.82000 3.521
98.84000 5.739
98.86000 4.928
98.88000 3.365
98.90000 2.306
98.92000 7.686
98.94000 3.244
98.96000 6.602
98.98000 8.160
99.00000 6.357
99.02000 1.851
99.04000 1.410
99.06000 6.393
99.08000 11.828
99.10000 7.028
99.12000 7.303
99.14000 5.203
99.16000 12.975
99.18000 6.701
99.20000 0.275
99.22000 -1.797
99.24000 2.880
99.26000 5.382
99.28000 3.680
99.30000 4.813
99.32000 9.909
99.34000 7.200
99.36000 4.604
99.38000 4.349
99.40000 3.062
99.42000 5.987
99.44000 3.559
99.46000 1.426
99.48000 -1.511
99.50000 -1.824
99.52000 1.559
99.54000 4.653
99.56000 4.875
99.58000 4.698
99.60000 7.023
99.62000 3.089
99.64000 2.984
99.66000 2.577
99.68000 1.721
99.70000 1.424
99.72000 7.983
99.74000 7.898
99.76000 5.732
99.78000 4.140
99.80000 6.466
99.82000 9.249
99.84000 7.714
99.86000 -1.433
99.88000 -0.905
99.90000 -1.926
99.92000 2.488
99.94000 4.715
99.96000 2.673
99.98000 0.000
