'Id: "0011387" Comment: "Integrate frame 0011387_Au-Ir-Rh_Rh-rich_XRD-Mapping-051-0000.gfrmwith cursor Wedge Cursor #5" Operator: "B?rgel" Anode: "Cu" Wavelength: "1.5406" Scantype: "2Theta (TwoTheta)" TimePerStep: "1" X: "18" Y: "-27" Z: "5.95" 
10.00000 0.000
10.02000 3.101
10.04000 -3.816
10.06000 -0.329
10.08000 3.795
10.10000 22.172
10.12000 22.587
10.14000 14.654
10.16000 18.543
10.18000 12.353
10.20000 15.485
10.22000 12.365
10.24000 17.027
10.26000 15.881
10.28000 11.180
10.30000 -5.119
10.32000 7.428
10.34000 16.123
10.36000 18.647
10.38000 21.070
10.40000 17.873
10.42000 14.934
10.44000 13.854
10.46000 13.076
10.48000 18.490
10.50000 5.034
10.52000 11.554
10.54000 31.685
10.56000 30.916
10.58000 23.121
10.60000 29.896
10.62000 33.403
10.64000 13.876
10.66000 18.688
10.68000 14.079
10.70000 8.836
10.72000 22.650
10.74000 11.376
10.76000 22.031
10.78000 19.359
10.80000 25.191
10.82000 24.131
10.84000 10.981
10.86000 12.972
10.88000 20.085
10.90000 18.811
10.92000 24.297
10.94000 31.914
10.96000 28.497
10.98000 10.830
11.00000 21.946
11.02000 19.586
11.04000 11.162
11.06000 16.984
11.08000 17.386
11.10000 25.698
11.12000 15.265
11.14000 6.628
11.16000 6.098
11.18000 17.715
11.20000 24.733
11.22000 18.154
11.24000 24.986
11.26000 28.637
11.28000 12.113
11.30000 3.412
11.32000 17.543
11.34000 26.113
11.36000 23.844
11.38000 27.730
11.40000 19.643
11.42000 18.067
11.44000 21.197
11.46000 15.950
11.48000 12.518
11.50000 18.670
11.52000 12.943
11.54000 15.669
11.56000 23.775
11.58000 24.429
11.60000 28.808
11.62000 28.352
11.64000 20.738
11.66000 15.129
11.68000 23.587
11.70000 30.700
11.72000 16.728
11.74000 19.278
11.76000 14.869
11.78000 16.325
11.80000 19.125
11.82000 26.616
11.84000 19.972
11.86000 20.646
11.88000 15.575
11.90000 11.879
11.92000 16.703
11.94000 27.488
11.96000 28.316
11.98000 17.653
12.00000 8.734
12.02000 10.367
12.04000 18.742
12.06000 17.077
12.08000 27.825
12.10000 43.188
12.12000 34.265
12.14000 17.727
12.16000 11.902
12.18000 20.615
12.20000 19.986
12.22000 18.380
12.24000 20.629
12.26000 27.547
12.28000 18.649
12.30000 22.725
12.32000 18.551
12.34000 15.685
12.36000 5.543
12.38000 18.796
12.40000 22.221
12.42000 15.357
12.44000 21.709
12.46000 19.918
12.48000 19.108
12.50000 14.722
12.52000 15.928
12.54000 12.654
12.56000 22.656
12.58000 18.296
12.60000 21.053
12.62000 17.712
12.64000 27.679
12.66000 22.680
12.68000 17.858
12.70000 16.180
12.72000 16.779
12.74000 17.623
12.76000 16.542
12.78000 15.861
12.80000 15.763
12.82000 11.465
12.84000 10.566
12.86000 16.512
12.88000 21.859
12.90000 26.463
12.92000 28.086
12.94000 26.849
12.96000 19.371
12.98000 18.013
13.00000 14.874
13.02000 14.860
13.04000 14.157
13.06000 17.062
13.08000 21.338
13.10000 4.794
13.12000 5.533
13.14000 20.012
13.16000 21.327
13.18000 11.730
13.20000 8.635
13.22000 14.826
13.24000 30.182
13.26000 14.386
13.28000 8.007
13.30000 14.147
13.32000 15.400
13.34000 20.826
13.36000 13.717
13.38000 11.907
13.40000 12.159
13.42000 10.869
13.44000 8.992
13.46000 7.356
13.48000 2.790
13.50000 8.685
13.52000 13.640
13.54000 9.470
13.56000 7.567
13.58000 15.502
13.60000 11.124
13.62000 12.750
13.64000 23.201
13.66000 17.117
13.68000 11.599
13.70000 4.684
13.72000 10.426
13.74000 17.400
13.76000 19.209
13.78000 13.658
13.80000 16.597
13.82000 18.363
13.84000 13.146
13.86000 1.649
13.88000 3.992
13.90000 15.333
13.92000 25.410
13.94000 10.906
13.96000 9.420
13.98000 16.825
14.00000 15.287
14.02000 14.038
14.04000 12.362
14.06000 12.531
14.08000 16.535
14.10000 7.392
14.12000 5.853
14.14000 7.663
14.16000 8.167
14.18000 9.101
14.20000 12.598
14.22000 18.954
14.24000 27.964
14.26000 19.092
14.28000 9.803
14.30000 6.209
14.32000 10.677
14.34000 10.263
14.36000 3.721
14.38000 4.784
14.40000 12.092
14.42000 11.261
14.44000 2.350
14.46000 7.390
14.48000 6.059
14.50000 3.025
14.52000 10.120
14.54000 1.754
14.56000 5.368
14.58000 13.589
14.60000 17.942
14.62000 17.104
14.64000 12.941
14.66000 10.815
14.68000 16.214
14.70000 18.091
14.72000 14.221
14.74000 10.153
14.76000 7.552
14.78000 3.840
14.80000 1.090
14.82000 8.559
14.84000 9.958
14.86000 0.538
14.88000 2.923
14.90000 3.475
14.92000 1.490
14.94000 11.332
14.96000 19.504
14.98000 9.937
15.00000 12.898
15.02000 6.787
15.04000 4.802
15.06000 8.438
15.08000 2.739
15.10000 6.639
15.12000 1.563
15.14000 -4.130
15.16000 2.484
15.18000 17.554
15.20000 17.196
15.22000 10.695
15.24000 2.934
15.26000 10.245
15.28000 9.929
15.30000 2.945
15.32000 0.273
15.34000 0.102
15.36000 0.816
15.38000 4.240
15.40000 4.773
15.42000 3.081
15.44000 3.439
15.46000 2.145
15.48000 9.758
15.50000 9.934
15.52000 7.553
15.54000 0.124
15.56000 9.156
15.58000 6.399
15.60000 -2.072
15.62000 2.612
15.64000 4.733
15.66000 9.474
15.68000 5.654
15.70000 3.352
15.72000 10.533
15.74000 7.858
15.76000 4.789
15.78000 5.335
15.80000 3.304
15.82000 -1.761
15.84000 1.605
15.86000 5.802
15.88000 9.473
15.90000 2.894
15.92000 3.224
15.94000 12.160
15.96000 5.047
15.98000 11.327
16.00000 15.605
16.02000 10.406
16.04000 11.553
16.06000 5.563
16.08000 4.222
16.10000 5.099
16.12000 2.254
16.14000 2.382
16.16000 6.535
16.18000 7.882
16.20000 1.182
16.22000 7.329
16.24000 9.552
16.26000 0.790
16.28000 0.921
16.30000 8.558
16.32000 6.518
16.34000 7.839
16.36000 13.379
16.38000 -0.330
16.40000 -2.250
16.42000 -1.618
16.44000 5.302
16.46000 3.520
16.48000 0.990
16.50000 7.063
16.52000 3.970
16.54000 8.892
16.56000 6.377
16.58000 5.168
16.60000 -4.196
16.62000 -4.391
16.64000 5.011
16.66000 12.825
16.68000 -1.642
16.70000 -1.209
16.72000 4.692
16.74000 5.261
16.76000 4.563
16.78000 5.895
16.80000 3.905
16.82000 8.083
16.84000 20.368
16.86000 14.754
16.88000 -0.470
16.90000 -2.203
16.92000 6.177
16.94000 11.445
16.96000 2.963
16.98000 7.953
17.00000 10.787
17.02000 8.893
17.04000 9.526
17.06000 7.738
17.08000 8.313
17.10000 9.279
17.12000 2.184
17.14000 -3.574
17.16000 2.267
17.18000 11.756
17.20000 2.729
17.22000 6.284
17.24000 -1.111
17.26000 -0.647
17.28000 4.363
17.30000 11.167
17.32000 12.705
17.34000 1.791
17.36000 0.069
17.38000 2.925
17.40000 -1.556
17.42000 1.853
17.44000 4.003
17.46000 1.044
17.48000 8.231
17.50000 9.083
17.52000 3.547
17.54000 10.227
17.56000 10.647
17.58000 5.140
17.60000 1.058
17.62000 1.248
17.64000 11.222
17.66000 9.464
17.68000 9.566
17.70000 11.026
17.72000 7.915
17.74000 1.746
17.76000 3.099
17.78000 11.747
17.80000 8.397
17.82000 -3.107
17.84000 -4.302
17.86000 1.803
17.88000 13.655
17.90000 11.369
17.92000 11.439
17.94000 15.699
17.96000 11.887
17.98000 5.061
18.00000 4.533
18.02000 0.535
18.04000 9.599
18.06000 4.636
18.08000 4.172
18.10000 5.705
18.12000 8.403
18.14000 11.401
18.16000 14.046
18.18000 7.297
18.20000 -4.289
18.22000 -1.997
18.24000 2.314
18.26000 8.019
18.28000 10.792
18.30000 4.679
18.32000 0.646
18.34000 3.704
18.36000 10.995
18.38000 14.068
18.40000 6.508
18.42000 5.072
18.44000 7.803
18.46000 7.218
18.48000 2.538
18.50000 4.067
18.52000 3.149
18.54000 5.961
18.56000 12.765
18.58000 3.346
18.60000 -0.282
18.62000 0.363
18.64000 0.243
18.66000 1.984
18.68000 4.983
18.70000 0.775
18.72000 2.605
18.74000 3.692
18.76000 3.666
18.78000 18.378
18.80000 12.133
18.82000 10.735
18.84000 10.617
18.86000 4.241
18.88000 1.791
18.90000 -2.027
18.92000 1.506
18.94000 3.956
18.96000 7.696
18.98000 7.143
19.00000 5.802
19.02000 5.539
19.04000 4.553
19.06000 3.729
19.08000 5.139
19.10000 2.377
19.12000 -0.932
19.14000 -0.814
19.16000 -0.439
19.18000 1.831
19.20000 7.387
19.22000 5.133
19.24000 3.581
19.26000 5.907
19.28000 5.112
19.30000 -4.247
19.32000 0.959
19.34000 10.893
19.36000 6.910
19.38000 1.093
19.40000 13.228
19.42000 7.677
19.44000 -1.462
19.46000 1.829
19.48000 2.595
19.50000 1.935
19.52000 4.551
19.54000 0.471
19.56000 -0.350
19.58000 4.499
19.60000 3.917
19.62000 -2.710
19.64000 3.345
19.66000 1.727
19.68000 -1.272
19.70000 -2.191
19.72000 -0.523
19.74000 2.763
19.76000 -1.553
19.78000 -1.141
19.80000 5.578
19.82000 -1.536
19.84000 -1.473
19.86000 -4.208
19.88000 -4.207
19.90000 -0.430
19.92000 2.280
19.94000 0.040
19.96000 2.347
19.98000 2.027
20.00000 3.840
20.02000 -2.931
20.04000 1.452
20.06000 1.016
20.08000 4.631
20.10000 -0.061
20.12000 -1.922
20.14000 -2.494
20.16000 0.819
20.18000 3.564
20.20000 9.521
20.22000 8.448
20.24000 7.753
20.26000 -1.588
20.28000 -2.688
20.30000 6.709
20.32000 3.478
20.34000 -0.492
20.36000 -0.573
20.38000 3.626
20.40000 4.781
20.42000 6.921
20.44000 5.248
20.46000 2.691
20.48000 2.413
20.50000 9.591
20.52000 8.471
20.54000 4.354
20.56000 2.471
20.58000 6.684
20.60000 10.639
20.62000 3.592
20.64000 2.273
20.66000 0.623
20.68000 -4.159
20.70000 -1.749
20.72000 6.431
20.74000 4.057
20.76000 -1.990
20.78000 0.549
20.80000 3.179
20.82000 1.705
20.84000 5.856
20.86000 6.074
20.88000 5.773
20.90000 6.820
20.92000 4.516
20.94000 3.705
20.96000 12.122
20.98000 16.825
21.00000 6.298
21.02000 4.642
21.04000 6.181
21.06000 4.320
21.08000 -4.127
21.10000 -1.418
21.12000 1.267
21.14000 -1.686
21.16000 -1.566
21.18000 4.619
21.20000 9.335
21.22000 8.646
21.24000 3.276
21.26000 5.266
21.28000 0.599
21.30000 -0.961
21.32000 5.169
21.34000 -4.125
21.36000 3.228
21.38000 5.548
21.40000 1.143
21.42000 -2.768
21.44000 -0.221
21.46000 2.207
21.48000 6.006
21.50000 5.157
21.52000 1.323
21.54000 7.183
21.56000 5.991
21.58000 0.847
21.60000 -1.754
21.62000 4.963
21.64000 2.610
21.66000 2.029
21.68000 -2.341
21.70000 2.047
21.72000 4.157
21.74000 5.367
21.76000 3.413
21.78000 1.680
21.80000 7.027
21.82000 8.732
21.84000 0.923
21.86000 3.005
21.88000 5.715
21.90000 3.759
21.92000 4.686
21.94000 -1.128
21.96000 1.810
21.98000 4.737
22.00000 1.247
22.02000 7.223
22.04000 8.269
22.06000 2.401
22.08000 5.665
22.10000 -0.052
22.12000 1.314
22.14000 -1.703
22.16000 -1.189
22.18000 -1.124
22.20000 2.373
22.22000 1.746
22.24000 2.165
22.26000 3.335
22.28000 6.563
22.30000 4.470
22.32000 2.905
22.34000 4.154
22.36000 1.220
22.38000 6.326
22.40000 8.693
22.42000 4.908
22.44000 1.600
22.46000 1.964
22.48000 4.822
22.50000 2.139
22.52000 1.026
22.54000 -0.437
22.56000 2.531
22.58000 6.027
22.60000 2.696
22.62000 0.542
22.64000 1.144
22.66000 1.032
22.68000 7.253
22.70000 12.558
22.72000 8.003
22.74000 4.927
22.76000 4.540
22.78000 2.275
22.80000 -0.681
22.82000 -2.412
22.84000 -4.043
22.86000 2.528
22.88000 7.847
22.90000 5.023
22.92000 10.838
22.94000 15.201
22.96000 7.543
22.98000 5.922
23.00000 0.937
23.02000 -2.294
23.04000 3.904
23.06000 -1.597
23.08000 -0.511
23.10000 1.790
23.12000 3.336
23.14000 6.941
23.16000 -1.478
23.18000 -1.256
23.20000 -0.932
23.22000 0.529
23.24000 3.727
23.26000 2.840
23.28000 2.817
23.30000 1.580
23.32000 0.660
23.34000 6.945
23.36000 3.510
23.38000 1.209
23.40000 0.197
23.42000 5.307
23.44000 -1.153
23.46000 -1.936
23.48000 0.914
23.50000 2.452
23.52000 3.547
23.54000 7.092
23.56000 6.726
23.58000 3.447
23.60000 -3.252
23.62000 0.290
23.64000 1.233
23.66000 8.294
23.68000 5.414
23.70000 2.694
23.72000 -3.999
23.74000 -2.341
23.76000 2.152
23.78000 4.522
23.80000 -0.584
23.82000 -1.079
23.84000 2.118
23.86000 4.290
23.88000 1.314
23.90000 -1.424
23.92000 2.374
23.94000 3.963
23.96000 7.717
23.98000 0.552
24.00000 2.108
24.02000 3.306
24.04000 -1.252
24.06000 2.551
24.08000 3.314
24.10000 -0.944
24.12000 -3.490
24.14000 2.484
24.16000 4.090
24.18000 2.500
24.20000 2.018
24.22000 -3.231
24.24000 -2.192
24.26000 0.758
24.28000 1.441
24.30000 3.109
24.32000 3.780
24.34000 4.730
24.36000 3.558
24.38000 8.594
24.40000 6.180
24.42000 7.618
24.44000 9.459
24.46000 2.685
24.48000 0.898
24.50000 1.942
24.52000 -3.944
24.54000 5.065
24.56000 7.937
24.58000 5.006
24.60000 2.559
24.62000 6.456
24.64000 3.933
24.66000 2.429
24.68000 3.047
24.70000 2.086
24.72000 4.459
24.74000 4.233
24.76000 7.346
24.78000 3.801
24.80000 7.442
24.82000 8.269
24.84000 2.002
24.86000 8.507
24.88000 11.405
24.90000 2.690
24.92000 2.137
24.94000 0.365
24.96000 1.546
24.98000 5.093
25.00000 2.187
25.02000 -2.295
25.04000 3.863
25.06000 2.146
25.08000 -0.105
25.10000 -0.210
25.12000 3.362
25.14000 4.373
25.16000 6.476
25.18000 7.809
25.20000 6.564
25.22000 2.842
25.24000 4.141
25.26000 7.052
25.28000 7.724
25.30000 12.191
25.32000 14.939
25.34000 3.079
25.36000 1.249
25.38000 4.223
25.40000 6.587
25.42000 7.102
25.44000 4.626
25.46000 7.834
25.48000 6.528
25.50000 3.115
25.52000 10.165
25.54000 9.292
25.56000 9.409
25.58000 9.988
25.60000 7.461
25.62000 2.165
25.64000 -3.824
25.66000 1.581
25.68000 3.923
25.70000 7.138
25.72000 5.664
25.74000 11.229
25.76000 14.465
25.78000 9.683
25.80000 8.240
25.82000 8.908
25.84000 3.844
25.86000 -3.819
25.88000 5.468
25.90000 8.159
25.92000 10.875
25.94000 16.398
25.96000 13.094
25.98000 14.694
26.00000 12.176
26.02000 9.617
26.04000 8.497
26.06000 8.461
26.08000 11.222
26.10000 9.496
26.12000 10.915
26.14000 7.451
26.16000 10.323
26.18000 8.397
26.20000 11.847
26.22000 6.880
26.24000 2.529
26.26000 0.188
26.28000 0.771
26.30000 9.693
26.32000 1.763
26.34000 2.505
26.36000 4.236
26.38000 5.552
26.40000 2.310
26.42000 5.338
26.44000 3.623
26.46000 2.123
26.48000 0.367
26.50000 5.386
26.52000 5.849
26.54000 1.137
26.56000 1.702
26.58000 3.050
26.60000 5.905
26.62000 0.824
26.64000 2.784
26.66000 3.059
26.68000 1.497
26.70000 6.304
26.72000 4.699
26.74000 3.998
26.76000 2.323
26.78000 4.871
26.80000 3.298
26.82000 2.663
26.84000 1.761
26.86000 4.009
26.88000 8.572
26.90000 9.811
26.92000 5.907
26.94000 1.772
26.96000 -0.705
26.98000 -3.805
27.00000 4.725
27.02000 3.399
27.04000 1.754
27.06000 3.708
27.08000 8.407
27.10000 6.558
27.12000 7.794
27.14000 4.405
27.16000 5.008
27.18000 8.464
27.20000 4.939
27.22000 -0.955
27.24000 4.712
27.26000 8.236
27.28000 11.222
27.30000 6.721
27.32000 3.386
27.34000 4.102
27.36000 8.309
27.38000 2.337
27.40000 1.007
27.42000 -0.007
27.44000 -0.766
27.46000 0.810
27.48000 6.000
27.50000 2.312
27.52000 5.444
27.54000 9.307
27.56000 3.471
27.58000 2.770
27.60000 3.608
27.62000 0.465
27.64000 -0.547
27.66000 -3.778
27.68000 -0.145
27.70000 -1.625
27.72000 -0.793
27.74000 -0.293
27.76000 0.606
27.78000 3.528
27.80000 6.329
27.82000 9.293
27.84000 5.300
27.86000 5.083
27.88000 5.739
27.90000 1.547
27.92000 4.097
27.94000 7.763
27.96000 7.509
27.98000 2.128
28.00000 3.822
28.02000 10.313
28.04000 6.528
28.06000 0.020
28.08000 4.465
28.10000 4.955
28.12000 2.539
28.14000 6.404
28.16000 2.701
28.18000 -1.289
28.20000 4.767
28.22000 11.135
28.24000 6.833
28.26000 2.991
28.28000 0.277
28.30000 3.403
28.32000 0.894
28.34000 0.973
28.36000 2.946
28.38000 7.402
28.40000 2.797
28.42000 2.233
28.44000 4.938
28.46000 1.731
28.48000 3.716
28.50000 4.197
28.52000 5.387
28.54000 6.343
28.56000 10.495
28.58000 3.738
28.60000 -3.709
28.62000 -1.309
28.64000 4.717
28.66000 3.141
28.68000 3.021
28.70000 4.527
28.72000 3.474
28.74000 0.821
28.76000 6.396
28.78000 3.179
28.80000 0.031
28.82000 3.316
28.84000 4.345
28.86000 4.469
28.88000 2.258
28.90000 -0.130
28.92000 0.484
28.94000 3.973
28.96000 1.659
28.98000 4.452
29.00000 6.310
29.02000 2.771
29.04000 4.857
29.06000 2.349
29.08000 1.360
29.10000 1.272
29.12000 5.017
29.14000 3.580
29.16000 3.912
29.18000 9.277
29.20000 4.873
29.22000 3.351
29.24000 3.992
29.26000 7.438
29.28000 5.951
29.30000 2.564
29.32000 -0.752
29.34000 -0.156
29.36000 3.510
29.38000 5.275
29.40000 6.325
29.42000 4.785
29.44000 4.117
29.46000 7.601
29.48000 2.443
29.50000 2.416
29.52000 2.890
29.54000 4.811
29.56000 -2.004
29.58000 -0.503
29.60000 3.646
29.62000 7.506
29.64000 8.751
29.66000 6.239
29.68000 1.795
29.70000 4.109
29.72000 10.179
29.74000 9.694
29.76000 2.980
29.78000 1.114
29.80000 -2.547
29.82000 2.890
29.84000 5.224
29.86000 6.347
29.88000 0.874
29.90000 0.151
29.92000 3.384
29.94000 0.430
29.96000 2.186
29.98000 3.186
30.00000 4.396
30.02000 10.523
30.04000 6.339
30.06000 3.351
30.08000 0.812
30.10000 -0.584
30.12000 0.294
30.14000 3.440
30.16000 3.010
30.18000 2.581
30.20000 6.770
30.22000 7.258
30.24000 8.126
30.26000 4.007
30.28000 4.736
30.30000 4.230
30.32000 6.882
30.34000 2.800
30.36000 3.351
30.38000 2.570
30.40000 2.682
30.42000 7.147
30.44000 11.048
30.46000 9.458
30.48000 2.897
30.50000 4.478
30.52000 5.519
30.54000 7.354
30.56000 8.980
30.58000 12.959
30.60000 11.014
30.62000 10.411
30.64000 4.933
30.66000 -3.568
30.68000 3.216
30.70000 7.346
30.72000 2.426
30.74000 -0.738
30.76000 4.150
30.78000 7.997
30.80000 8.372
30.82000 4.890
30.84000 4.346
30.86000 5.956
30.88000 7.787
30.90000 6.616
30.92000 4.119
30.94000 2.326
30.96000 4.275
30.98000 6.943
31.00000 10.481
31.02000 6.013
31.04000 3.755
31.06000 9.183
31.08000 7.823
31.10000 5.480
31.12000 7.323
31.14000 6.268
31.16000 5.451
31.18000 7.713
31.20000 10.364
31.22000 6.355
31.24000 2.474
31.26000 1.245
31.28000 5.966
31.30000 7.312
31.32000 9.621
31.34000 10.151
31.36000 5.645
31.38000 3.432
31.40000 5.920
31.42000 7.997
31.44000 9.887
31.46000 6.242
31.48000 -0.674
31.50000 -0.601
31.52000 2.925
31.54000 5.950
31.56000 3.080
31.58000 -0.815
31.60000 2.827
31.62000 0.818
31.64000 6.360
31.66000 4.829
31.68000 6.359
31.70000 6.238
31.72000 3.658
31.74000 4.635
31.76000 4.818
31.78000 5.354
31.80000 4.282
31.82000 2.562
31.84000 0.318
31.86000 2.938
31.88000 8.320
31.90000 2.537
31.92000 -0.645
31.94000 -3.554
31.96000 1.656
31.98000 4.710
32.00000 4.376
32.02000 2.973
32.04000 4.185
32.06000 8.175
32.08000 6.142
32.10000 3.993
32.12000 6.697
32.14000 1.447
32.16000 -1.049
32.18000 -3.543
32.20000 0.409
32.22000 -1.223
32.24000 3.183
32.26000 6.875
32.28000 5.071
32.30000 2.246
32.32000 1.589
32.34000 2.553
32.36000 1.070
32.38000 3.913
32.40000 6.251
32.42000 6.756
32.44000 5.342
32.46000 4.166
32.48000 1.952
32.50000 4.253
32.52000 3.828
32.54000 -0.194
32.56000 2.564
32.58000 3.411
32.60000 5.092
32.62000 7.330
32.64000 6.590
32.66000 4.752
32.68000 3.207
32.70000 -0.177
32.72000 3.598
32.74000 2.660
32.76000 2.233
32.78000 2.673
32.80000 5.215
32.82000 0.569
32.84000 -3.525
32.86000 -1.740
32.88000 -1.968
32.90000 2.169
32.92000 6.617
32.94000 8.239
32.96000 8.892
32.98000 8.900
33.00000 6.318
33.02000 0.819
33.04000 -1.344
33.06000 2.075
33.08000 0.041
33.10000 6.941
33.12000 9.204
33.14000 -0.083
33.16000 -2.396
33.18000 2.367
33.20000 7.413
33.22000 4.594
33.24000 1.895
33.26000 1.300
33.28000 3.058
33.30000 -0.464
33.32000 4.364
33.34000 2.223
33.36000 1.836
33.38000 5.295
33.40000 -0.375
33.42000 3.465
33.44000 8.443
33.46000 5.194
33.48000 -0.180
33.50000 -3.503
33.52000 1.040
33.54000 2.376
33.56000 6.187
33.58000 8.241
33.60000 5.855
33.62000 7.318
33.64000 4.382
33.66000 3.118
33.68000 5.253
33.70000 6.569
33.72000 4.502
33.74000 -0.028
33.76000 0.780
33.78000 7.089
33.80000 2.153
33.82000 0.799
33.84000 8.536
33.86000 5.595
33.88000 6.592
33.90000 6.945
33.92000 3.596
33.94000 1.075
33.96000 0.478
33.98000 -0.014
34.00000 1.517
34.02000 3.105
34.04000 7.216
34.06000 7.296
34.08000 2.687
34.10000 1.693
34.12000 3.420
34.14000 3.540
34.16000 5.541
34.18000 6.328
34.20000 4.728
34.22000 6.492
34.24000 6.978
34.26000 4.138
34.28000 5.117
34.30000 8.922
34.32000 4.127
34.34000 0.027
34.36000 0.432
34.38000 3.072
34.40000 3.336
34.42000 -0.255
34.44000 -1.268
34.46000 3.318
34.48000 0.860
34.50000 3.198
34.52000 5.259
34.54000 6.848
34.56000 6.308
34.58000 0.280
34.60000 -2.681
34.62000 -3.492
34.64000 1.503
34.66000 0.274
34.68000 -0.361
34.70000 0.357
34.72000 1.413
34.74000 2.510
34.76000 3.646
34.78000 7.290
34.80000 5.042
34.82000 2.910
34.84000 3.940
34.86000 1.646
34.88000 -0.197
34.90000 6.465
34.92000 10.831
34.94000 2.743
34.96000 -0.224
34.98000 -0.359
35.00000 1.252
35.02000 -0.988
35.04000 -3.482
35.06000 -3.170
35.08000 -1.823
35.10000 1.246
35.12000 -0.218
35.14000 4.741
35.16000 2.966
35.18000 -0.140
35.20000 0.163
35.22000 1.050
35.24000 0.178
35.26000 0.866
35.28000 -1.567
35.30000 2.690
35.32000 1.411
35.34000 2.668
35.36000 0.949
35.38000 -1.870
35.40000 1.135
35.42000 6.149
35.44000 6.721
35.46000 3.572
35.48000 2.232
35.50000 -3.470
35.52000 0.320
35.54000 1.861
35.56000 0.843
35.58000 2.084
35.60000 1.109
35.62000 4.628
35.64000 6.192
35.66000 1.687
35.68000 0.395
35.70000 2.544
35.72000 -2.277
35.74000 1.219
35.76000 1.297
35.78000 1.965
35.80000 8.039
35.82000 8.039
35.84000 1.408
35.86000 1.079
35.88000 -1.417
35.90000 0.257
35.92000 5.790
35.94000 -2.916
35.96000 -2.611
35.98000 3.008
36.00000 6.186
36.02000 3.355
36.04000 -3.447
36.06000 -1.408
36.08000 1.996
36.10000 3.419
36.12000 0.216
36.14000 0.695
36.16000 0.633
36.18000 2.633
36.20000 4.204
36.22000 0.787
36.24000 1.444
36.26000 2.245
36.28000 2.236
36.30000 0.182
36.32000 2.540
36.34000 4.611
36.36000 2.385
36.38000 0.430
36.40000 0.647
36.42000 3.890
36.44000 3.894
36.46000 1.474
36.48000 2.100
36.50000 5.138
36.52000 2.821
36.54000 2.827
36.56000 0.513
36.58000 2.484
36.60000 2.110
36.62000 1.989
36.64000 2.751
36.66000 0.743
36.68000 -0.155
36.70000 -0.649
36.72000 2.930
36.74000 6.119
36.76000 2.855
36.78000 0.711
36.80000 6.678
36.82000 7.382
36.84000 3.277
36.86000 -1.356
36.88000 -0.501
36.90000 -3.457
36.92000 3.632
36.94000 2.105
36.96000 2.701
36.98000 5.804
37.00000 6.114
37.02000 4.320
37.04000 3.332
37.06000 -0.101
37.08000 -2.246
37.10000 -1.162
37.12000 4.528
37.14000 6.634
37.16000 3.592
37.18000 2.846
37.20000 3.274
37.22000 5.675
37.24000 4.550
37.26000 0.227
37.28000 0.714
37.30000 0.163
37.32000 -1.432
37.34000 2.081
37.36000 3.915
37.38000 2.767
37.40000 -0.658
37.42000 -0.020
37.44000 1.592
37.46000 5.277
37.48000 1.739
37.50000 1.357
37.52000 -0.320
37.54000 -1.472
37.56000 -1.465
37.58000 6.076
37.60000 5.766
37.62000 -0.590
37.64000 -3.381
37.66000 -3.526
37.68000 -0.296
37.70000 -2.124
37.72000 1.598
37.74000 1.223
37.76000 -1.822
37.78000 0.236
37.80000 1.751
37.82000 -0.815
37.84000 2.787
37.86000 1.356
37.88000 1.921
37.90000 5.652
37.92000 9.276
37.94000 3.734
37.96000 1.688
37.98000 3.975
38.00000 7.532
38.02000 9.252
38.04000 4.383
38.06000 2.825
38.08000 2.132
38.10000 6.440
38.12000 10.584
38.14000 7.478
38.16000 10.313
38.18000 12.701
38.20000 12.064
38.22000 13.016
38.24000 10.562
38.26000 9.101
38.28000 10.994
38.30000 14.740
38.32000 10.089
38.34000 5.719
38.36000 9.638
38.38000 9.729
38.40000 14.387
38.42000 9.886
38.44000 10.688
38.46000 14.269
38.48000 13.653
38.50000 15.207
38.52000 13.106
38.54000 18.332
38.56000 16.585
38.58000 14.250
38.60000 14.323
38.62000 15.625
38.64000 27.116
38.66000 20.023
38.68000 20.715
38.70000 19.323
38.72000 15.838
38.74000 16.908
38.76000 19.276
38.78000 17.596
38.80000 20.295
38.82000 19.335
38.84000 27.190
38.86000 22.796
38.88000 21.837
38.90000 24.086
38.92000 21.008
38.94000 17.086
38.96000 20.130
38.98000 21.691
39.00000 20.851
39.02000 23.719
39.04000 26.984
39.06000 29.303
39.08000 31.916
39.10000 31.554
39.12000 27.221
39.14000 28.559
39.16000 34.032
39.18000 30.976
39.20000 35.993
39.22000 39.771
39.24000 42.078
39.26000 43.368
39.28000 42.840
39.30000 46.159
39.32000 42.941
39.34000 45.397
39.36000 47.518
39.38000 47.348
39.40000 49.750
39.42000 55.571
39.44000 56.703
39.46000 61.135
39.48000 62.135
39.50000 68.068
39.52000 69.691
39.54000 67.221
39.56000 70.899
39.58000 77.677
39.60000 80.780
39.62000 83.016
39.64000 87.609
39.66000 93.484
39.68000 97.010
39.70000 108.724
39.72000 114.508
39.74000 116.438
39.76000 121.782
39.78000 131.348
39.80000 145.698
39.82000 155.704
39.84000 157.675
39.86000 163.021
39.88000 182.011
39.90000 190.575
39.92000 208.201
39.94000 221.462
39.96000 228.523
39.98000 248.359
40.00000 266.252
40.02000 287.492
40.04000 299.225
40.06000 316.953
40.08000 341.508
40.10000 365.446
40.12000 400.034
40.14000 427.716
40.16000 448.280
40.18000 471.495
40.20000 500.422
40.22000 524.960
40.24000 566.591
40.26000 597.716
40.28000 624.335
40.30000 662.648
40.32000 690.023
40.34000 724.636
40.36000 756.923
40.38000 785.369
40.40000 810.420
40.42000 837.431
40.44000 873.535
40.46000 890.966
40.48000 899.145
40.50000 894.675
40.52000 891.597
40.54000 899.291
40.56000 907.319
40.58000 910.934
40.60000 897.956
40.62000 890.695
40.64000 881.187
40.66000 873.853
40.68000 844.305
40.70000 810.399
40.72000 785.774
40.74000 779.419
40.76000 750.956
40.78000 715.612
40.80000 698.223
40.82000 671.800
40.84000 644.725
40.86000 598.701
40.88000 581.488
40.90000 557.976
40.92000 526.977
40.94000 509.472
40.96000 489.065
40.98000 461.486
41.00000 438.411
41.02000 414.416
41.04000 396.961
41.06000 371.133
41.08000 349.441
41.10000 332.307
41.12000 314.911
41.14000 289.204
41.16000 277.421
41.18000 256.094
41.20000 250.251
41.22000 237.456
41.24000 220.092
41.26000 213.843
41.28000 209.751
41.30000 195.242
41.32000 180.138
41.34000 170.242
41.36000 158.639
41.38000 150.761
41.40000 144.973
41.42000 139.686
41.44000 135.887
41.46000 129.292
41.48000 115.929
41.50000 114.340
41.52000 111.911
41.54000 106.612
41.56000 96.054
41.58000 92.393
41.60000 90.332
41.62000 81.660
41.64000 76.954
41.66000 75.452
41.68000 73.893
41.70000 71.462
41.72000 66.017
41.74000 58.558
41.76000 60.197
41.78000 56.741
41.80000 56.367
41.82000 50.642
41.84000 46.447
41.86000 46.085
41.88000 49.423
41.90000 45.810
41.92000 42.503
41.94000 39.064
41.96000 37.016
41.98000 40.529
42.00000 43.956
42.02000 38.340
42.04000 31.933
42.06000 32.590
42.08000 35.902
42.10000 32.103
42.12000 29.155
42.14000 26.192
42.16000 22.163
42.18000 19.333
42.20000 18.898
42.22000 20.201
42.24000 16.108
42.26000 23.896
42.28000 24.830
42.30000 24.024
42.32000 22.116
42.34000 19.766
42.36000 16.990
42.38000 15.734
42.40000 12.189
42.42000 13.085
42.44000 11.092
42.46000 6.877
42.48000 10.274
42.50000 11.128
42.52000 11.215
42.54000 7.613
42.56000 10.817
42.58000 8.576
42.60000 9.590
42.62000 9.899
42.64000 8.384
42.66000 9.101
42.68000 6.421
42.70000 6.907
42.72000 7.554
42.74000 7.374
42.76000 5.881
42.78000 4.704
42.80000 5.760
42.82000 2.376
42.84000 5.472
42.86000 5.018
42.88000 4.438
42.90000 6.587
42.92000 8.154
42.94000 5.596
42.96000 2.409
42.98000 -0.728
43.00000 3.962
43.02000 4.870
43.04000 1.071
43.06000 -1.261
43.08000 0.487
43.10000 4.808
43.12000 3.196
43.14000 7.197
43.16000 6.495
43.18000 3.317
43.20000 0.191
43.22000 -3.421
43.24000 -2.177
43.26000 0.878
43.28000 0.146
43.30000 0.361
43.32000 -0.187
43.34000 0.310
43.36000 1.863
43.38000 1.629
43.40000 1.117
43.42000 -0.783
43.44000 -0.838
43.46000 -0.319
43.48000 3.888
43.50000 5.021
43.52000 4.130
43.54000 -1.732
43.56000 -3.065
43.58000 1.822
43.60000 -0.995
43.62000 0.412
43.64000 0.834
43.66000 -1.296
43.68000 -2.706
43.70000 3.445
43.72000 2.178
43.74000 -2.233
43.76000 -2.662
43.78000 0.108
43.80000 2.731
43.82000 1.946
43.84000 3.572
43.86000 0.202
43.88000 0.809
43.90000 -3.157
43.92000 -0.287
43.94000 1.629
43.96000 5.170
43.98000 4.010
44.00000 0.069
44.02000 1.540
44.04000 -2.488
44.06000 -2.140
44.08000 1.153
44.10000 1.677
44.12000 0.203
44.14000 1.268
44.16000 1.493
44.18000 -0.362
44.20000 0.479
44.22000 0.225
44.24000 -0.352
44.26000 -3.237
44.28000 1.110
44.30000 6.704
44.32000 -0.150
44.34000 -3.014
44.36000 -3.225
44.38000 6.162
44.40000 6.961
44.42000 0.763
44.44000 1.722
44.46000 1.570
44.48000 4.077
44.50000 -0.556
44.52000 3.136
44.54000 6.145
44.56000 1.353
44.58000 -3.216
44.60000 -2.274
44.62000 2.491
44.64000 4.667
44.66000 1.711
44.68000 2.014
44.70000 3.537
44.72000 -0.781
44.74000 1.444
44.76000 2.718
44.78000 0.382
44.80000 -1.657
44.82000 0.312
44.84000 1.862
44.86000 2.600
44.88000 0.538
44.90000 -2.601
44.92000 -3.205
44.94000 -0.279
44.96000 2.760
44.98000 4.304
45.00000 2.586
45.02000 0.462
45.04000 1.680
45.06000 -0.323
45.08000 1.671
45.10000 3.226
45.12000 3.787
45.14000 7.030
45.16000 -0.829
45.18000 -2.805
45.20000 -1.083
45.22000 -0.203
45.24000 0.055
45.26000 1.910
45.28000 -1.140
45.30000 2.024
45.32000 4.883
45.34000 0.214
45.36000 2.141
45.38000 3.806
45.40000 1.849
45.42000 4.932
45.44000 5.076
45.46000 3.521
45.48000 3.185
45.50000 1.964
45.52000 4.973
45.54000 5.629
45.56000 2.524
45.58000 4.311
45.60000 3.762
45.62000 3.800
45.64000 2.763
45.66000 4.468
45.68000 8.761
45.70000 7.659
45.72000 8.062
45.74000 6.845
45.76000 7.152
45.78000 6.319
45.80000 7.507
45.82000 5.365
45.84000 5.211
45.86000 7.610
45.88000 10.932
45.90000 9.962
45.92000 8.255
45.94000 11.130
45.96000 13.034
45.98000 13.110
46.00000 12.197
46.02000 13.576
46.04000 16.389
46.06000 13.415
46.08000 12.501
46.10000 15.107
46.12000 14.420
46.14000 15.277
46.16000 17.386
46.18000 19.213
46.20000 22.117
46.22000 23.066
46.24000 20.948
46.26000 22.369
46.28000 24.051
46.30000 23.142
46.32000 25.477
46.34000 24.729
46.36000 28.438
46.38000 29.766
46.40000 27.034
46.42000 36.048
46.44000 41.682
46.46000 39.643
46.48000 38.287
46.50000 35.114
46.52000 34.750
46.54000 42.985
46.56000 44.476
46.58000 47.089
46.60000 50.415
46.62000 54.443
46.64000 54.927
46.66000 54.646
46.68000 52.280
46.70000 60.749
46.72000 69.428
46.74000 67.334
46.76000 67.519
46.78000 73.758
46.80000 77.147
46.82000 80.116
46.84000 82.351
46.86000 87.804
46.88000 89.216
46.90000 90.011
46.92000 91.860
46.94000 98.453
46.96000 104.211
46.98000 105.756
47.00000 100.109
47.02000 101.736
47.04000 107.630
47.06000 111.428
47.08000 114.174
47.10000 118.910
47.12000 111.330
47.14000 112.268
47.16000 112.026
47.18000 115.212
47.20000 115.151
47.22000 117.128
47.24000 113.456
47.26000 112.841
47.28000 116.105
47.30000 117.753
47.32000 114.392
47.34000 106.396
47.36000 99.495
47.38000 104.806
47.40000 104.251
47.42000 98.186
47.44000 92.994
47.46000 91.099
47.48000 86.141
47.50000 85.232
47.52000 86.706
47.54000 77.444
47.56000 73.138
47.58000 72.108
47.60000 75.390
47.62000 67.811
47.64000 63.008
47.66000 57.060
47.68000 59.152
47.70000 58.325
47.72000 57.137
47.74000 52.100
47.76000 53.719
47.78000 47.081
47.80000 45.616
47.82000 43.546
47.84000 40.383
47.86000 40.349
47.88000 42.744
47.90000 37.444
47.92000 32.857
47.94000 28.522
47.96000 30.411
47.98000 28.157
48.00000 25.475
48.02000 28.147
48.04000 26.695
48.06000 20.935
48.08000 19.699
48.10000 18.611
48.12000 18.248
48.14000 16.883
48.16000 11.902
48.18000 14.198
48.20000 15.290
48.22000 8.627
48.24000 4.335
48.26000 8.471
48.28000 14.055
48.30000 15.704
48.32000 12.663
48.34000 8.855
48.36000 7.729
48.38000 8.083
48.40000 7.497
48.42000 8.073
48.44000 8.883
48.46000 8.223
48.48000 11.574
48.50000 11.042
48.52000 4.640
48.54000 4.056
48.56000 3.277
48.58000 2.537
48.60000 4.628
48.62000 3.305
48.64000 2.475
48.66000 4.773
48.68000 5.064
48.70000 2.237
48.72000 0.705
48.74000 -0.689
48.76000 0.962
48.78000 2.893
48.80000 2.399
48.82000 3.193
48.84000 1.936
48.86000 -1.068
48.88000 -1.416
48.90000 5.243
48.92000 5.506
48.94000 4.310
48.96000 3.087
48.98000 -0.062
49.00000 -2.738
49.02000 -1.520
49.04000 2.960
49.06000 2.923
49.08000 2.158
49.10000 1.736
49.12000 -1.397
49.14000 1.330
49.16000 1.415
49.18000 3.025
49.20000 1.723
49.22000 2.144
49.24000 -0.079
49.26000 0.827
49.28000 2.919
49.30000 5.821
49.32000 4.195
49.34000 1.994
49.36000 0.067
49.38000 -0.663
49.40000 -0.332
49.42000 1.703
49.44000 1.843
49.46000 1.798
49.48000 4.309
49.50000 2.894
49.52000 -1.651
49.54000 1.680
49.56000 2.561
49.58000 3.311
49.60000 1.880
49.62000 1.769
49.64000 0.154
49.66000 -1.215
49.68000 -0.072
49.70000 3.436
49.72000 -0.677
49.74000 -1.209
49.76000 0.700
49.78000 -2.634
49.80000 0.349
49.82000 2.495
49.84000 4.113
49.86000 1.910
49.88000 2.168
49.90000 1.102
49.92000 0.552
49.94000 -1.153
49.96000 -2.196
49.98000 -2.610
50.00000 0.809
50.02000 1.489
50.04000 4.245
50.06000 1.848
50.08000 -2.549
50.10000 -2.605
50.12000 -0.028
50.14000 4.623
50.16000 4.492
50.18000 4.200
50.20000 2.521
50.22000 0.923
50.24000 2.489
50.26000 3.238
50.28000 -1.971
50.30000 -0.403
50.32000 -0.225
50.34000 -1.470
50.36000 2.336
50.38000 -0.621
50.40000 0.755
50.42000 2.116
50.44000 0.864
50.46000 -2.123
50.48000 -1.025
50.50000 0.676
50.52000 1.710
50.54000 3.452
50.56000 4.723
50.58000 4.933
50.60000 0.392
50.62000 0.485
50.64000 5.422
50.66000 1.902
50.68000 1.893
50.70000 2.240
50.72000 1.808
50.74000 -0.148
50.76000 -2.563
50.78000 1.788
50.80000 2.774
50.82000 -0.053
50.84000 1.088
50.86000 4.315
50.88000 2.557
50.90000 -0.498
50.92000 -0.676
50.94000 1.232
50.96000 2.645
50.98000 3.168
51.00000 1.695
51.02000 0.153
51.04000 -1.971
51.06000 1.075
51.08000 4.915
51.10000 3.302
51.12000 -0.288
51.14000 1.695
51.16000 -1.082
51.18000 0.927
51.20000 -1.131
51.22000 2.346
51.24000 4.451
51.26000 3.064
51.28000 0.344
51.30000 -0.937
51.32000 3.442
51.34000 3.051
51.36000 -0.873
51.38000 -0.045
51.40000 2.162
51.42000 4.247
51.44000 3.332
51.46000 5.982
51.48000 5.209
51.50000 1.953
51.52000 2.909
51.54000 2.051
51.56000 2.511
51.58000 4.111
51.60000 7.235
51.62000 5.219
51.64000 4.782
51.66000 2.838
51.68000 2.826
51.70000 2.459
51.72000 3.042
51.74000 2.533
51.76000 2.648
51.78000 0.664
51.80000 3.332
51.82000 4.916
51.84000 10.439
51.86000 13.622
51.88000 9.351
51.90000 4.850
51.92000 4.243
51.94000 2.612
51.96000 0.102
51.98000 -2.455
52.00000 2.937
52.02000 6.730
52.04000 6.207
52.06000 6.321
52.08000 7.400
52.10000 5.550
52.12000 3.682
52.14000 3.330
52.16000 1.011
52.18000 2.099
52.20000 8.619
52.22000 3.965
52.24000 8.751
52.26000 3.383
52.28000 7.400
52.30000 5.960
52.32000 5.572
52.34000 4.144
52.36000 5.563
52.38000 6.777
52.40000 3.202
52.42000 2.238
52.44000 5.299
52.46000 3.958
52.48000 3.063
52.50000 3.291
52.52000 5.198
52.54000 2.730
52.56000 3.503
52.58000 5.197
52.60000 3.408
52.62000 2.339
52.64000 2.236
52.66000 2.084
52.68000 4.714
52.70000 5.949
52.72000 6.875
52.74000 6.184
52.76000 6.475
52.78000 1.793
52.80000 2.298
52.82000 1.525
52.84000 3.994
52.86000 1.937
52.88000 -2.445
52.90000 -1.138
52.92000 5.278
52.94000 6.979
52.96000 7.789
52.98000 3.764
53.00000 0.721
53.02000 -0.653
53.04000 -0.504
53.06000 2.542
53.08000 2.985
53.10000 3.634
53.12000 5.016
53.14000 8.522
53.16000 5.553
53.18000 1.511
53.20000 -2.275
53.22000 0.004
53.24000 3.966
53.26000 6.038
53.28000 4.655
53.30000 2.757
53.32000 2.307
53.34000 4.529
53.36000 6.057
53.38000 2.792
53.40000 2.247
53.42000 3.891
53.44000 2.408
53.46000 0.427
53.48000 5.534
53.50000 3.280
53.52000 1.175
53.54000 1.213
53.56000 2.047
53.58000 3.935
53.60000 -0.034
53.62000 -1.449
53.64000 4.417
53.66000 2.323
53.68000 1.296
53.70000 0.787
53.72000 1.566
53.74000 4.554
53.76000 5.600
53.78000 2.880
53.80000 2.598
53.82000 2.087
53.84000 3.742
53.86000 2.076
53.88000 0.782
53.90000 0.707
53.92000 -2.431
53.94000 2.592
53.96000 0.840
53.98000 -0.153
54.00000 2.519
54.02000 4.069
54.04000 1.452
54.06000 1.387
54.08000 0.817
54.10000 2.545
54.12000 2.225
54.14000 1.524
54.16000 3.446
54.18000 -0.355
54.20000 3.576
54.22000 5.182
54.24000 4.982
54.26000 -0.473
54.28000 -0.455
54.30000 0.283
54.32000 -2.422
54.34000 1.946
54.36000 2.016
54.38000 4.258
54.40000 5.902
54.42000 7.997
54.44000 5.445
54.46000 4.373
54.48000 3.236
54.50000 1.130
54.52000 0.009
54.54000 1.581
54.56000 4.616
54.58000 3.068
54.60000 3.591
54.62000 0.914
54.64000 5.543
54.66000 2.755
54.68000 0.467
54.70000 -0.325
54.72000 3.304
54.74000 4.589
54.76000 4.049
54.78000 1.879
54.80000 1.879
54.82000 -2.413
54.84000 0.724
54.86000 6.343
54.88000 5.151
54.90000 -0.191
54.92000 -1.555
54.94000 2.604
54.96000 0.975
54.98000 -1.043
55.00000 5.070
55.02000 2.565
55.04000 -1.978
55.06000 -0.762
55.08000 -0.343
55.10000 2.334
55.12000 3.320
55.14000 1.118
55.16000 2.750
55.18000 3.867
55.20000 1.243
55.22000 -2.394
55.24000 2.273
55.26000 0.167
55.28000 -0.597
55.30000 2.038
55.32000 7.204
55.34000 7.905
55.36000 2.880
55.38000 3.964
55.40000 8.318
55.42000 1.767
55.44000 -0.954
55.46000 -0.985
55.48000 -0.199
55.50000 2.182
55.52000 2.172
55.54000 1.185
55.56000 0.920
55.58000 3.450
55.60000 3.862
55.62000 1.272
55.64000 2.856
55.66000 6.106
55.68000 4.327
55.70000 5.343
55.72000 6.086
55.74000 5.279
55.76000 6.063
55.78000 6.053
55.80000 4.435
55.82000 4.886
55.84000 4.709
55.86000 2.648
55.88000 4.534
55.90000 2.988
55.92000 0.832
55.94000 2.489
55.96000 2.516
55.98000 1.139
56.00000 0.633
56.02000 -2.372
56.04000 -1.918
56.06000 -1.986
56.08000 -0.871
56.10000 0.752
56.12000 0.835
56.14000 3.215
56.16000 2.539
56.18000 1.888
56.20000 2.273
56.22000 5.246
56.24000 2.267
56.26000 0.400
56.28000 4.048
56.30000 1.098
56.32000 2.933
56.34000 0.453
56.36000 3.154
56.38000 2.569
56.40000 3.089
56.42000 2.210
56.44000 4.209
56.46000 -0.023
56.48000 -0.592
56.50000 2.702
56.52000 1.206
56.54000 2.426
56.56000 1.711
56.58000 0.735
56.60000 1.282
56.62000 2.812
56.64000 2.887
56.66000 1.459
56.68000 0.798
56.70000 0.472
56.72000 -0.369
56.74000 2.876
56.76000 1.442
56.78000 0.614
56.80000 4.945
56.82000 0.177
56.84000 0.131
56.86000 -0.058
56.88000 2.485
56.90000 2.309
56.92000 1.726
56.94000 0.915
56.96000 -2.371
56.98000 -1.740
57.00000 1.168
57.02000 0.314
57.04000 -0.932
57.06000 -0.036
57.08000 -1.693
57.10000 -2.144
57.12000 0.499
57.14000 0.931
57.16000 2.603
57.18000 2.943
57.20000 0.878
57.22000 0.252
57.24000 1.720
57.26000 3.145
57.28000 1.936
57.30000 6.798
57.32000 5.044
57.34000 5.392
57.36000 5.363
57.38000 4.025
57.40000 4.104
57.42000 0.929
57.44000 -2.348
57.46000 -0.536
57.48000 2.763
57.50000 0.703
57.52000 0.341
57.54000 1.625
57.56000 3.810
57.58000 4.011
57.60000 4.667
57.62000 1.501
57.64000 2.292
57.66000 2.950
57.68000 2.744
57.70000 -0.852
57.72000 -0.532
57.74000 1.640
57.76000 2.537
57.78000 4.542
57.80000 2.710
57.82000 0.423
57.84000 -2.345
57.86000 1.290
57.88000 -2.345
57.90000 0.425
57.92000 1.643
57.94000 0.479
57.96000 1.440
57.98000 0.199
58.00000 2.161
58.02000 0.057
58.04000 0.169
58.06000 1.247
58.08000 1.917
58.10000 -0.159
58.12000 0.103
58.14000 0.610
58.16000 -0.758
58.18000 -0.878
58.20000 1.457
58.22000 0.378
58.24000 0.825
58.26000 0.670
58.28000 -1.254
58.30000 0.922
58.32000 3.574
58.34000 2.017
58.36000 0.425
58.38000 0.072
58.40000 -0.860
58.42000 -0.669
58.44000 0.009
58.46000 1.481
58.48000 1.276
58.50000 2.408
58.52000 3.206
58.54000 0.827
58.56000 -0.876
58.58000 -0.479
58.60000 0.758
58.62000 0.105
58.64000 1.645
58.66000 -0.917
58.68000 0.623
58.70000 4.610
58.72000 4.961
58.74000 2.630
58.76000 0.484
58.78000 2.395
58.80000 4.144
58.82000 6.511
58.84000 1.106
58.86000 -2.243
58.88000 1.468
58.90000 2.862
58.92000 0.857
58.94000 3.006
58.96000 3.693
58.98000 3.555
59.00000 -0.360
59.02000 2.403
59.04000 -1.386
59.06000 -2.306
59.08000 1.173
59.10000 5.484
59.12000 1.889
59.14000 3.209
59.16000 3.921
59.18000 3.490
59.20000 0.658
59.22000 -1.834
59.24000 1.563
59.26000 3.336
59.28000 2.070
59.30000 1.833
59.32000 0.206
59.34000 1.588
59.36000 1.001
59.38000 -0.767
59.40000 -1.644
59.42000 1.408
59.44000 1.822
59.46000 -0.093
59.48000 -0.186
59.50000 -0.386
59.52000 0.049
59.54000 -1.543
59.56000 2.091
59.58000 0.531
59.60000 -1.566
59.62000 0.121
59.64000 0.336
59.66000 0.522
59.68000 0.779
59.70000 2.166
59.72000 -0.495
59.74000 0.606
59.76000 -0.120
59.78000 -1.871
59.80000 3.486
59.82000 2.987
59.84000 0.086
59.86000 -0.833
59.88000 -1.235
59.90000 -0.203
59.92000 1.701
59.94000 4.906
59.96000 6.041
59.98000 1.032
60.00000 -0.722
60.02000 1.133
60.04000 2.655
60.06000 3.523
60.08000 0.884
60.10000 0.077
60.12000 -0.412
60.14000 0.575
60.16000 -0.937
60.18000 -0.233
60.20000 1.135
60.22000 1.345
60.24000 1.904
60.26000 2.292
60.28000 -0.216
60.30000 1.358
60.32000 0.925
60.34000 2.563
60.36000 2.651
60.38000 2.501
60.40000 1.982
60.42000 0.394
60.44000 1.604
60.46000 5.074
60.48000 4.871
60.50000 2.834
60.52000 -0.854
60.54000 -1.103
60.56000 -2.252
60.58000 -0.685
60.60000 0.127
60.62000 2.866
60.64000 3.467
60.66000 2.081
60.68000 0.435
60.70000 -2.251
60.72000 1.661
60.74000 2.549
60.76000 4.696
60.78000 2.982
60.80000 0.703
60.82000 1.164
60.84000 1.319
60.86000 1.630
60.88000 1.091
60.90000 -0.626
60.92000 -0.602
60.94000 -0.395
60.96000 1.799
60.98000 2.990
61.00000 1.912
61.02000 3.447
61.04000 2.531
61.06000 0.599
61.08000 1.974
61.10000 1.993
61.12000 4.565
61.14000 1.494
61.16000 1.167
61.18000 1.481
61.20000 0.938
61.22000 2.227
61.24000 2.728
61.26000 -0.897
61.28000 0.120
61.30000 1.388
61.32000 2.502
61.34000 1.507
61.36000 1.293
61.38000 1.824
61.40000 1.507
61.42000 1.278
61.44000 4.652
61.46000 2.418
61.48000 0.321
61.50000 2.122
61.52000 3.313
61.54000 1.379
61.56000 -0.572
61.58000 -1.151
61.60000 1.595
61.62000 0.946
61.64000 -1.206
61.66000 -1.958
61.68000 0.374
61.70000 0.885
61.72000 -1.834
61.74000 1.894
61.76000 0.306
61.78000 -2.254
61.80000 -1.231
61.82000 1.044
61.84000 -0.134
61.86000 2.802
61.88000 1.559
61.90000 -0.539
61.92000 0.977
61.94000 1.411
61.96000 -0.830
61.98000 -0.133
62.00000 0.188
62.02000 -0.100
62.04000 -0.037
62.06000 0.535
62.08000 0.905
62.10000 1.069
62.12000 -0.490
62.14000 -2.232
62.16000 -1.850
62.18000 -0.498
62.20000 1.935
62.22000 0.550
62.24000 -1.102
62.26000 -1.453
62.28000 -0.342
62.30000 3.107
62.32000 0.361
62.34000 -1.368
62.36000 -2.222
62.38000 0.481
62.40000 0.204
62.42000 1.661
62.44000 1.343
62.46000 5.308
62.48000 6.872
62.50000 3.906
62.52000 3.704
62.54000 2.071
62.56000 1.396
62.58000 1.673
62.60000 2.478
62.62000 0.826
62.64000 1.135
62.66000 2.388
62.68000 2.088
62.70000 1.181
62.72000 0.913
62.74000 3.527
62.76000 0.426
62.78000 -0.245
62.80000 -1.234
62.82000 1.378
62.84000 3.664
62.86000 0.191
62.88000 -2.194
62.90000 0.732
62.92000 1.955
62.94000 4.042
62.96000 3.872
62.98000 4.988
63.00000 4.974
63.02000 4.223
63.04000 2.862
63.06000 4.106
63.08000 3.934
63.10000 1.248
63.12000 2.493
63.14000 0.581
63.16000 0.315
63.18000 0.874
63.20000 0.863
63.22000 1.032
63.24000 0.160
63.26000 -0.785
63.28000 2.907
63.30000 3.682
63.32000 0.341
63.34000 1.643
63.36000 2.223
63.38000 -0.378
63.40000 -1.573
63.42000 -2.207
63.44000 -0.923
63.46000 1.310
63.48000 2.371
63.50000 5.258
63.52000 2.067
63.54000 1.827
63.56000 2.938
63.58000 3.307
63.60000 0.539
63.62000 -1.060
63.64000 0.547
63.66000 1.108
63.68000 0.687
63.70000 -0.732
63.72000 1.670
63.74000 -2.216
63.76000 -0.411
63.78000 1.453
63.80000 1.416
63.82000 -0.407
63.84000 1.623
63.86000 1.809
63.88000 2.569
63.90000 1.410
63.92000 0.087
63.94000 1.485
63.96000 6.094
63.98000 3.266
64.00000 1.395
64.02000 2.573
64.04000 0.978
64.06000 -1.150
64.08000 0.459
64.10000 -1.320
64.12000 2.042
64.14000 2.849
64.16000 1.463
64.18000 3.140
64.20000 3.051
64.22000 4.540
64.24000 1.215
64.26000 -1.286
64.28000 2.230
64.30000 -1.293
64.32000 -1.785
64.34000 2.112
64.36000 1.458
64.38000 -0.145
64.40000 1.277
64.42000 0.408
64.44000 0.293
64.46000 0.638
64.48000 -1.455
64.50000 -0.626
64.52000 2.117
64.54000 0.910
64.56000 2.392
64.58000 -0.178
64.60000 -1.159
64.62000 2.182
64.64000 2.070
64.66000 -0.688
64.68000 2.602
64.70000 1.824
64.72000 -0.291
64.74000 1.247
64.76000 0.818
64.78000 -0.942
64.80000 -2.225
64.82000 0.600
64.84000 -1.391
64.86000 -0.803
64.88000 0.768
64.90000 0.536
64.92000 0.146
64.94000 -0.871
64.96000 0.166
64.98000 1.480
65.00000 -1.867
65.02000 -1.406
65.04000 0.744
65.06000 0.137
65.08000 1.740
65.10000 1.517
65.12000 -2.091
65.14000 -2.213
65.16000 1.006
65.18000 2.350
65.20000 0.646
65.22000 -2.030
65.24000 -1.459
65.26000 -0.858
65.28000 0.411
65.30000 1.449
65.32000 4.328
65.34000 1.826
65.36000 1.271
65.38000 -1.267
65.40000 1.404
65.42000 1.453
65.44000 3.131
65.46000 2.431
65.48000 4.325
65.50000 2.600
65.52000 2.294
65.54000 4.537
65.56000 5.375
65.58000 3.614
65.60000 1.385
65.62000 1.945
65.64000 4.051
65.66000 3.983
65.68000 -0.144
65.70000 -2.199
65.72000 -1.791
65.74000 2.202
65.76000 3.981
65.78000 0.920
65.80000 0.705
65.82000 2.464
65.84000 1.906
65.86000 1.967
65.88000 0.226
65.90000 2.194
65.92000 2.895
65.94000 2.965
65.96000 4.161
65.98000 2.488
66.00000 3.358
66.02000 3.976
66.04000 4.560
66.06000 3.081
66.08000 0.346
66.10000 -1.848
66.12000 -2.198
66.14000 -2.025
66.16000 0.686
66.18000 1.561
66.20000 1.840
66.22000 0.580
66.24000 1.390
66.26000 2.750
66.28000 -0.921
66.30000 1.485
66.32000 2.404
66.34000 5.378
66.36000 2.680
66.38000 1.811
66.40000 -0.191
66.42000 2.297
66.44000 0.728
66.46000 -0.840
66.48000 -0.298
66.50000 -0.713
66.52000 -2.208
66.54000 -1.813
66.56000 -0.942
66.58000 1.882
66.60000 2.374
66.62000 1.157
66.64000 3.066
66.66000 4.008
66.68000 3.492
66.70000 3.392
66.72000 2.371
66.74000 1.569
66.76000 1.592
66.78000 -0.014
66.80000 0.627
66.82000 2.313
66.84000 1.058
66.86000 -1.297
66.88000 -0.237
66.90000 0.241
66.92000 0.954
66.94000 1.838
66.96000 1.342
66.98000 -0.014
67.00000 1.900
67.02000 0.945
67.04000 1.446
67.06000 3.276
67.08000 0.934
67.10000 0.287
67.12000 0.927
67.14000 0.422
67.16000 0.881
67.18000 3.827
67.20000 3.717
67.22000 4.313
67.24000 3.815
67.26000 1.085
67.28000 0.995
67.30000 0.091
67.32000 -0.208
67.34000 1.630
67.36000 1.681
67.38000 3.191
67.40000 -2.206
67.42000 -0.645
67.44000 2.808
67.46000 2.402
67.48000 4.354
67.50000 3.432
67.52000 4.396
67.54000 3.693
67.56000 2.795
67.58000 1.149
67.60000 4.558
67.62000 3.608
67.64000 3.286
67.66000 0.954
67.68000 1.568
67.70000 3.657
67.72000 5.285
67.74000 2.946
67.76000 2.207
67.78000 2.346
67.80000 3.725
67.82000 2.583
67.84000 4.333
67.86000 1.717
67.88000 -0.997
67.90000 2.254
67.92000 2.108
67.94000 3.472
67.96000 1.673
67.98000 2.361
68.00000 4.120
68.02000 0.386
68.04000 2.063
68.06000 4.743
68.08000 5.079
68.10000 3.335
68.12000 3.645
68.14000 2.597
68.16000 3.996
68.18000 4.685
68.20000 4.156
68.22000 6.775
68.24000 7.281
68.26000 3.834
68.28000 5.980
68.30000 7.128
68.32000 8.377
68.34000 12.591
68.36000 11.664
68.38000 11.208
68.40000 12.025
68.42000 11.299
68.44000 11.488
68.46000 10.132
68.48000 11.910
68.50000 11.042
68.52000 7.565
68.54000 11.158
68.56000 15.684
68.58000 15.989
68.60000 15.900
68.62000 16.701
68.64000 18.680
68.66000 19.714
68.68000 23.277
68.70000 24.303
68.72000 22.922
68.74000 21.400
68.76000 21.039
68.78000 25.372
68.80000 26.978
68.82000 26.876
68.84000 27.675
68.86000 26.074
68.88000 26.423
68.90000 26.930
68.92000 27.557
68.94000 30.282
68.96000 30.145
68.98000 27.555
69.00000 26.255
69.02000 25.939
69.04000 24.508
69.06000 24.842
69.08000 25.181
69.10000 25.271
69.12000 28.092
69.14000 22.921
69.16000 24.157
69.18000 26.049
69.20000 27.014
69.22000 23.664
69.24000 20.611
69.26000 17.373
69.28000 18.676
69.30000 18.918
69.32000 18.511
69.34000 20.181
69.36000 18.689
69.38000 18.854
69.40000 16.504
69.42000 16.160
69.44000 16.738
69.46000 15.333
69.48000 14.777
69.50000 12.657
69.52000 11.916
69.54000 15.154
69.56000 17.356
69.58000 17.196
69.60000 11.662
69.62000 8.603
69.64000 9.933
69.66000 9.703
69.68000 8.713
69.70000 8.189
69.72000 7.333
69.74000 7.608
69.76000 5.444
69.78000 3.943
69.80000 8.974
69.82000 5.335
69.84000 2.889
69.86000 3.147
69.88000 5.046
69.90000 2.073
69.92000 0.718
69.94000 1.930
69.96000 3.854
69.98000 3.643
70.00000 3.522
70.02000 4.684
70.04000 4.813
70.06000 3.676
70.08000 2.302
70.10000 4.467
70.12000 0.491
70.14000 0.647
70.16000 0.453
70.18000 -0.231
70.20000 -0.054
70.22000 0.546
70.24000 -0.234
70.26000 0.613
70.28000 0.124
70.30000 0.356
70.32000 0.066
70.34000 -1.762
70.36000 -1.867
70.38000 -2.212
70.40000 1.428
70.42000 2.235
70.44000 0.701
70.46000 2.965
70.48000 1.063
70.50000 1.112
70.52000 3.568
70.54000 1.624
70.56000 0.400
70.58000 1.931
70.60000 3.742
70.62000 2.372
70.64000 -0.898
70.66000 -2.179
70.68000 -0.389
70.70000 0.193
70.72000 0.370
70.74000 0.497
70.76000 0.894
70.78000 1.779
70.80000 0.537
70.82000 1.270
70.84000 3.750
70.86000 -0.413
70.88000 -0.943
70.90000 -0.948
70.92000 -1.064
70.94000 -0.468
70.96000 0.096
70.98000 2.275
71.00000 1.080
71.02000 1.284
71.04000 1.703
71.06000 3.477
71.08000 0.001
71.10000 -0.771
71.12000 2.748
71.14000 2.617
71.16000 1.621
71.18000 -2.133
71.20000 -0.377
71.22000 1.083
71.24000 1.096
71.26000 4.007
71.28000 1.490
71.30000 0.872
71.32000 3.555
71.34000 0.204
71.36000 1.845
71.38000 2.128
71.40000 0.409
71.42000 1.880
71.44000 -1.651
71.46000 1.556
71.48000 0.225
71.50000 -0.478
71.52000 2.669
71.54000 2.914
71.56000 1.620
71.58000 0.470
71.60000 0.333
71.62000 3.531
71.64000 -0.168
71.66000 -1.280
71.68000 -2.081
71.70000 -1.880
71.72000 0.144
71.74000 -2.101
71.76000 -1.483
71.78000 -0.414
71.80000 -0.135
71.82000 -0.029
71.84000 -0.872
71.86000 1.202
71.88000 -0.628
71.90000 -0.774
71.92000 0.590
71.94000 -1.880
71.96000 -0.023
71.98000 0.248
72.00000 3.942
72.02000 0.692
72.04000 -1.604
72.06000 -0.992
72.08000 1.047
72.10000 1.611
72.12000 2.447
72.14000 2.848
72.16000 1.414
72.18000 2.275
72.20000 0.674
72.22000 -0.014
72.24000 -0.427
72.26000 -2.087
72.28000 -1.593
72.30000 -1.498
72.32000 2.312
72.34000 2.995
72.36000 -1.001
72.38000 -0.715
72.40000 1.277
72.42000 0.180
72.44000 -0.748
72.46000 -2.084
72.48000 2.023
72.50000 0.057
72.52000 3.128
72.54000 0.707
72.56000 2.029
72.58000 1.078
72.60000 1.760
72.62000 0.840
72.64000 2.244
72.66000 2.297
72.68000 0.646
72.70000 0.393
72.72000 -0.534
72.74000 -0.073
72.76000 0.973
72.78000 -0.114
72.80000 1.165
72.82000 -0.958
72.84000 -2.086
72.86000 1.227
72.88000 2.533
72.90000 1.042
72.92000 1.752
72.94000 -0.470
72.96000 0.374
72.98000 0.825
73.00000 0.530
73.02000 -0.471
73.04000 3.007
73.06000 4.012
73.08000 2.783
73.10000 -1.397
73.12000 2.654
73.14000 1.915
73.16000 2.417
73.18000 0.178
73.20000 -0.037
73.22000 -1.419
73.24000 -0.179
73.26000 6.695
73.28000 6.975
73.30000 0.112
73.32000 0.019
73.34000 3.285
73.36000 0.459
73.38000 -1.670
73.40000 -2.062
73.42000 2.162
73.44000 5.725
73.46000 0.930
73.48000 1.239
73.50000 1.331
73.52000 0.003
73.54000 -0.371
73.56000 -1.053
73.58000 0.575
73.60000 4.608
73.62000 4.300
73.64000 0.409
73.66000 -0.844
73.68000 1.797
73.70000 0.884
73.72000 1.016
73.74000 0.105
73.76000 -0.921
73.78000 -2.051
73.80000 -1.847
73.82000 1.640
73.84000 -1.028
73.86000 0.171
73.88000 0.993
73.90000 -0.675
73.92000 4.998
73.94000 3.751
73.96000 4.459
73.98000 0.687
74.00000 -0.501
74.02000 6.621
74.04000 5.247
74.06000 0.752
74.08000 -0.913
74.10000 -1.730
74.12000 1.767
74.14000 0.689
74.16000 2.254
74.18000 2.018
74.20000 0.400
74.22000 0.369
74.24000 -0.059
74.26000 2.829
74.28000 3.254
74.30000 -0.506
74.32000 1.480
74.34000 0.908
74.36000 0.094
74.38000 -2.054
74.40000 -1.548
74.42000 -0.381
74.44000 3.001
74.46000 1.690
74.48000 2.237
74.50000 3.914
74.52000 1.344
74.54000 2.721
74.56000 -0.805
74.58000 -2.060
74.60000 0.443
74.62000 -0.159
74.64000 1.960
74.66000 1.720
74.68000 0.208
74.70000 -0.351
74.72000 2.628
74.74000 -0.226
74.76000 2.703
74.78000 1.594
74.80000 -0.502
74.82000 2.659
74.84000 -0.370
74.86000 -0.528
74.88000 -1.171
74.90000 -0.796
74.92000 2.683
74.94000 2.036
74.96000 2.326
74.98000 1.177
75.00000 -2.063
75.02000 0.121
75.04000 -0.215
75.06000 3.134
75.08000 1.364
75.10000 0.961
75.12000 -1.129
75.14000 0.476
75.16000 2.072
75.18000 1.224
75.20000 -0.896
75.22000 0.359
75.24000 -1.409
75.26000 -1.344
75.28000 -2.065
75.30000 1.461
75.32000 -0.382
75.34000 0.739
75.36000 2.434
75.38000 0.888
75.40000 -0.491
75.42000 0.501
75.44000 0.108
75.46000 0.375
75.48000 4.463
75.50000 1.764
75.52000 2.240
75.54000 3.656
75.56000 -1.917
75.58000 2.808
75.60000 4.544
75.62000 5.007
75.64000 -0.390
75.66000 -1.650
75.68000 2.375
75.70000 5.032
75.72000 -0.781
75.74000 3.592
75.76000 2.540
75.78000 1.908
75.80000 4.691
75.82000 4.636
75.84000 8.272
75.86000 5.269
75.88000 5.000
75.90000 1.851
75.92000 -2.052
75.94000 0.293
75.96000 1.206
75.98000 -0.188
76.00000 0.951
76.02000 4.323
76.04000 2.232
76.06000 2.123
76.08000 1.741
76.10000 -0.980
76.12000 4.167
76.14000 4.107
76.16000 3.142
76.18000 1.165
76.20000 1.898
76.22000 -0.353
76.24000 0.786
76.26000 3.487
76.28000 2.220
76.30000 -0.234
76.32000 1.641
76.34000 2.298
76.36000 1.063
76.38000 0.684
76.40000 -0.883
76.42000 2.069
76.44000 3.192
76.46000 2.172
76.48000 -0.564
76.50000 0.659
76.52000 1.654
76.54000 -1.953
76.56000 -2.007
76.58000 0.224
76.60000 1.515
76.62000 2.074
76.64000 -0.241
76.66000 -0.712
76.68000 0.854
76.70000 4.384
76.72000 0.430
76.74000 0.872
76.76000 1.459
76.78000 -0.554
76.80000 0.613
76.82000 4.949
76.84000 -1.026
76.86000 0.025
76.88000 3.009
76.90000 1.073
76.92000 -1.389
76.94000 -1.760
76.96000 -2.065
76.98000 0.796
77.00000 2.783
77.02000 0.534
77.04000 0.733
77.06000 -0.439
77.08000 -0.890
77.10000 -0.206
77.12000 -0.353
77.14000 2.073
77.16000 0.111
77.18000 -0.468
77.20000 4.659
77.22000 0.245
77.24000 2.514
77.26000 5.625
77.28000 5.914
77.30000 1.240
77.32000 2.822
77.34000 2.562
77.36000 -0.577
77.38000 -1.329
77.40000 -0.450
77.42000 0.179
77.44000 0.052
77.46000 2.047
77.48000 -0.098
77.50000 3.261
77.52000 3.200
77.54000 -2.058
77.56000 0.383
77.58000 4.438
77.60000 2.102
77.62000 1.962
77.64000 3.280
77.66000 1.291
77.68000 -0.056
77.70000 -1.025
77.72000 3.044
77.74000 5.564
77.76000 3.366
77.78000 0.220
77.80000 -1.766
77.82000 -1.652
77.84000 1.526
77.86000 3.874
77.88000 4.333
77.90000 0.290
77.92000 1.479
77.94000 0.866
77.96000 1.593
77.98000 3.641
78.00000 6.809
78.02000 3.719
78.04000 2.967
78.06000 4.638
78.08000 5.508
78.10000 2.919
78.12000 1.420
78.14000 0.608
78.16000 -2.025
78.18000 -1.328
78.20000 1.946
78.22000 1.593
78.24000 1.329
78.26000 1.578
78.28000 4.057
78.30000 3.391
78.32000 -0.752
78.34000 -1.067
78.36000 0.914
78.38000 2.941
78.40000 2.761
78.42000 3.163
78.44000 0.315
78.46000 5.590
78.48000 3.225
78.50000 -0.168
78.52000 -2.084
78.54000 -0.450
78.56000 1.271
78.58000 6.711
78.60000 5.458
78.62000 0.364
78.64000 1.304
78.66000 2.698
78.68000 0.685
78.70000 4.198
78.72000 2.962
78.74000 5.237
78.76000 0.460
78.78000 2.408
78.80000 3.492
78.82000 -0.164
78.84000 -0.487
78.86000 -1.492
78.88000 -1.012
78.90000 0.076
78.92000 1.310
78.94000 0.484
78.96000 2.796
78.98000 -1.109
79.00000 -1.020
79.02000 -0.361
79.04000 1.586
79.06000 2.951
79.08000 3.697
79.10000 1.691
79.12000 2.969
79.14000 4.341
79.16000 0.588
79.18000 2.880
79.20000 -0.505
79.22000 -0.094
79.24000 4.669
79.26000 5.061
79.28000 5.871
79.30000 -0.156
79.32000 -2.093
79.34000 -0.897
79.36000 0.999
79.38000 -0.316
79.40000 4.202
79.42000 3.870
79.44000 4.753
79.46000 2.566
79.48000 -1.088
79.50000 0.577
79.52000 4.232
79.54000 -0.666
79.56000 0.938
79.58000 3.536
79.60000 3.869
79.62000 3.721
79.64000 2.656
79.66000 -0.765
79.68000 1.253
79.70000 2.439
79.72000 0.625
79.74000 3.039
79.76000 3.519
79.78000 2.016
79.80000 1.953
79.82000 3.930
79.84000 1.194
79.86000 3.271
79.88000 1.392
79.90000 1.484
79.92000 4.087
79.94000 5.318
79.96000 1.280
79.98000 3.857
80.00000 1.025
80.02000 -2.096
80.04000 -1.106
80.06000 2.754
80.08000 5.922
80.10000 3.403
80.12000 6.167
80.14000 6.581
80.16000 0.279
80.18000 0.790
80.20000 1.078
80.22000 -2.109
80.24000 0.321
80.26000 4.073
80.28000 2.333
80.30000 1.956
80.32000 2.008
80.34000 4.528
80.36000 3.174
80.38000 3.599
80.40000 0.852
80.42000 0.289
80.44000 1.605
80.46000 2.100
80.48000 4.729
80.50000 4.992
80.52000 1.672
80.54000 -1.453
80.56000 1.219
80.58000 -2.127
80.60000 -1.777
80.62000 3.308
80.64000 8.482
80.66000 1.449
80.68000 -1.570
80.70000 0.120
80.72000 0.033
80.74000 1.858
80.76000 1.653
80.78000 1.760
80.80000 0.443
80.82000 1.634
80.84000 0.987
80.86000 0.991
80.88000 0.709
80.90000 2.330
80.92000 2.868
80.94000 2.382
80.96000 3.026
80.98000 1.327
81.00000 -0.292
81.02000 2.406
81.04000 3.930
81.06000 0.709
81.08000 3.271
81.10000 3.870
81.12000 2.325
81.14000 3.485
81.16000 1.574
81.18000 0.484
81.20000 0.022
81.22000 0.089
81.24000 0.230
81.26000 -0.588
81.28000 -0.923
81.30000 -0.116
81.32000 3.897
81.34000 3.334
81.36000 0.576
81.38000 -1.365
81.40000 2.045
81.42000 5.651
81.44000 0.491
81.46000 -1.182
81.48000 3.978
81.50000 3.483
81.52000 3.447
81.54000 0.661
81.56000 -2.153
81.58000 1.367
81.60000 6.838
81.62000 6.268
81.64000 5.126
81.66000 1.530
81.68000 -0.010
81.70000 4.651
81.72000 5.308
81.74000 4.371
81.76000 1.942
81.78000 6.539
81.80000 4.229
81.82000 1.838
81.84000 2.820
81.86000 3.563
81.88000 3.006
81.90000 4.066
81.92000 3.712
81.94000 1.208
81.96000 2.266
81.98000 4.592
82.00000 3.743
82.02000 5.437
82.04000 7.365
82.06000 7.580
82.08000 6.268
82.10000 5.362
82.12000 7.242
82.14000 5.349
82.16000 7.977
82.18000 8.001
82.20000 11.865
82.22000 9.460
82.24000 5.745
82.26000 7.771
82.28000 9.076
82.30000 12.890
82.32000 11.122
82.34000 8.960
82.36000 11.761
82.38000 13.561
82.40000 6.515
82.42000 6.953
82.44000 13.655
82.46000 14.383
82.48000 17.170
82.50000 13.407
82.52000 11.019
82.54000 14.477
82.56000 18.923
82.58000 20.801
82.60000 21.028
82.62000 16.863
82.64000 19.352
82.66000 20.972
82.68000 26.091
82.70000 27.704
82.72000 24.946
82.74000 28.185
82.76000 32.139
82.78000 34.720
82.80000 28.591
82.82000 27.746
82.84000 32.117
82.86000 33.915
82.88000 32.815
82.90000 33.874
82.92000 34.918
82.94000 37.908
82.96000 43.352
82.98000 40.869
83.00000 41.643
83.02000 45.246
83.04000 44.149
83.06000 41.638
83.08000 41.472
83.10000 44.274
83.12000 46.067
83.14000 46.419
83.16000 51.032
83.18000 48.085
83.20000 43.389
83.22000 43.929
83.24000 44.479
83.26000 50.349
83.28000 49.911
83.30000 48.133
83.32000 47.868
83.34000 49.203
83.36000 51.264
83.38000 51.675
83.40000 49.864
83.42000 43.178
83.44000 42.320
83.46000 44.719
83.48000 41.116
83.50000 40.418
83.52000 40.650
83.54000 39.434
83.56000 44.211
83.58000 42.774
83.60000 39.324
83.62000 40.809
83.64000 37.957
83.66000 34.354
83.68000 32.408
83.70000 35.534
83.72000 34.282
83.74000 34.654
83.76000 27.300
83.78000 27.664
83.80000 28.218
83.82000 23.661
83.84000 22.879
83.86000 25.834
83.88000 23.433
83.90000 18.612
83.92000 18.859
83.94000 20.348
83.96000 20.411
83.98000 22.973
84.00000 21.348
84.02000 16.657
84.04000 15.494
84.06000 10.183
84.08000 13.570
84.10000 15.559
84.12000 16.870
84.14000 16.308
84.16000 12.310
84.18000 11.533
84.20000 11.323
84.22000 10.085
84.24000 11.522
84.26000 11.316
84.28000 13.231
84.30000 10.182
84.32000 6.543
84.34000 9.069
84.36000 6.482
84.38000 7.551
84.40000 6.795
84.42000 5.609
84.44000 6.128
84.46000 4.344
84.48000 2.850
84.50000 3.315
84.52000 7.585
84.54000 7.889
84.56000 5.799
84.58000 5.237
84.60000 1.981
84.62000 0.587
84.64000 3.519
84.66000 6.451
84.68000 5.932
84.70000 2.102
84.72000 3.980
84.74000 3.918
84.76000 1.565
84.78000 4.416
84.80000 6.673
84.82000 -0.605
84.84000 -0.840
84.86000 -2.200
84.88000 -1.513
84.90000 1.304
84.92000 2.877
84.94000 0.799
84.96000 -1.233
84.98000 1.241
85.00000 5.359
85.02000 6.689
85.04000 1.488
85.06000 -0.530
85.08000 -1.696
85.10000 -0.177
85.12000 -0.154
85.14000 3.120
85.16000 0.942
85.18000 2.232
85.20000 3.493
85.22000 -1.903
85.24000 -1.230
85.26000 2.641
85.28000 1.583
85.30000 0.110
85.32000 0.774
85.34000 0.867
85.36000 -1.076
85.38000 -0.067
85.40000 1.375
85.42000 4.314
85.44000 5.466
85.46000 3.360
85.48000 1.254
85.50000 -2.117
85.52000 -0.052
85.54000 1.712
85.56000 -0.938
85.58000 2.571
85.60000 2.039
85.62000 1.578
85.64000 0.902
85.66000 1.406
85.68000 3.912
85.70000 4.790
85.72000 -2.010
85.74000 -0.310
85.76000 -0.423
85.78000 -1.571
85.80000 -2.114
85.82000 0.447
85.84000 2.922
85.86000 3.715
85.88000 1.236
85.90000 3.117
85.92000 1.905
85.94000 0.224
85.96000 -1.419
85.98000 1.273
86.00000 1.987
86.02000 3.555
86.04000 7.420
86.06000 4.027
86.08000 1.540
86.10000 2.798
86.12000 4.162
86.14000 5.620
86.16000 1.879
86.18000 1.626
86.20000 -1.027
86.22000 0.877
86.24000 4.350
86.26000 1.364
86.28000 -2.132
86.30000 -1.282
86.32000 0.479
86.34000 4.941
86.36000 4.220
86.38000 3.269
86.40000 5.937
86.42000 2.166
86.44000 -2.144
86.46000 2.683
86.48000 4.797
86.50000 3.963
86.52000 4.506
86.54000 1.920
86.56000 2.604
86.58000 0.384
86.60000 4.985
86.62000 1.826
86.64000 3.081
86.66000 2.780
86.68000 7.219
86.70000 4.173
86.72000 4.411
86.74000 2.223
86.76000 3.854
86.78000 7.553
86.80000 5.108
86.82000 4.761
86.84000 1.833
86.86000 -0.709
86.88000 -0.240
86.90000 3.040
86.92000 5.355
86.94000 7.117
86.96000 6.299
86.98000 4.663
87.00000 10.955
87.02000 9.296
87.04000 10.913
87.06000 6.247
87.08000 9.605
87.10000 8.586
87.12000 5.988
87.14000 7.787
87.16000 11.273
87.18000 11.852
87.20000 17.301
87.22000 12.503
87.24000 11.131
87.26000 14.750
87.28000 13.226
87.30000 12.482
87.32000 13.658
87.34000 16.922
87.36000 18.740
87.38000 16.416
87.40000 17.552
87.42000 15.539
87.44000 16.691
87.46000 19.220
87.48000 19.451
87.50000 20.737
87.52000 22.678
87.54000 23.082
87.56000 22.200
87.58000 24.799
87.60000 24.297
87.62000 28.889
87.64000 27.208
87.66000 22.347
87.68000 21.700
87.70000 23.593
87.72000 21.242
87.74000 22.319
87.76000 23.611
87.78000 24.358
87.80000 25.251
87.82000 27.119
87.84000 26.724
87.86000 24.853
87.88000 28.651
87.90000 23.468
87.92000 22.742
87.94000 22.663
87.96000 22.568
87.98000 19.429
88.00000 23.003
88.02000 26.325
88.04000 21.212
88.06000 21.227
88.08000 25.566
88.10000 20.923
88.12000 21.349
88.14000 22.793
88.16000 21.802
88.18000 19.460
88.20000 18.834
88.22000 18.874
88.24000 15.731
88.26000 12.584
88.28000 10.664
88.30000 14.900
88.32000 13.380
88.34000 13.790
88.36000 13.176
88.38000 9.230
88.40000 9.108
88.42000 9.377
88.44000 7.505
88.46000 6.386
88.48000 9.224
88.50000 4.860
88.52000 3.601
88.54000 4.341
88.56000 4.095
88.58000 2.260
88.60000 4.745
88.62000 2.743
88.64000 2.513
88.66000 1.270
88.68000 0.044
88.70000 3.366
88.72000 4.359
88.74000 8.340
88.76000 6.045
88.78000 7.437
88.80000 4.014
88.82000 4.391
88.84000 3.442
88.86000 5.087
88.88000 5.239
88.90000 3.273
88.92000 3.956
88.94000 2.826
88.96000 0.268
88.98000 -2.102
89.00000 0.794
89.02000 0.807
89.04000 0.082
89.06000 2.717
89.08000 0.141
89.10000 0.174
89.12000 1.934
89.14000 -1.849
89.16000 -1.759
89.18000 -0.035
89.20000 1.930
89.22000 2.509
89.24000 2.512
89.26000 5.143
89.28000 3.593
89.30000 2.352
89.32000 -0.345
89.34000 0.418
89.36000 1.776
89.38000 0.737
89.40000 -1.029
89.42000 -1.517
89.44000 -0.025
89.46000 1.283
89.48000 -0.175
89.50000 -1.549
89.52000 -2.035
89.54000 -1.495
89.56000 2.241
89.58000 0.323
89.60000 4.294
89.62000 3.034
89.64000 2.011
89.66000 0.728
89.68000 1.372
89.70000 3.668
89.72000 -0.976
89.74000 -0.227
89.76000 2.685
89.78000 2.401
89.80000 3.987
89.82000 5.433
89.84000 2.857
89.86000 -0.990
89.88000 0.027
89.90000 3.163
89.92000 3.316
89.94000 0.592
89.96000 0.763
89.98000 1.879
90.00000 2.887
90.02000 3.652
90.04000 3.978
90.06000 3.669
90.08000 1.203
90.10000 0.601
90.12000 1.403
90.14000 7.827
90.16000 3.661
90.18000 1.798
90.20000 -1.952
90.22000 -0.722
90.24000 1.369
90.26000 2.955
90.28000 3.844
90.30000 3.826
90.32000 3.570
90.34000 0.983
90.36000 -1.942
90.38000 0.618
90.40000 3.085
90.42000 0.446
90.44000 2.806
90.46000 0.631
90.48000 4.523
90.50000 3.372
90.52000 0.790
90.54000 3.900
90.56000 5.946
90.58000 2.993
90.60000 1.025
90.62000 0.677
90.64000 1.874
90.66000 -0.840
90.68000 4.780
90.70000 2.595
90.72000 -0.659
90.74000 -1.951
90.76000 2.769
90.78000 1.629
90.80000 0.728
90.82000 3.135
90.84000 2.089
90.86000 0.334
90.88000 2.494
90.90000 4.640
90.92000 2.901
90.94000 0.751
90.96000 1.627
90.98000 1.443
91.00000 3.619
91.02000 4.919
91.04000 6.019
91.06000 5.248
91.08000 2.195
91.10000 4.247
91.12000 2.973
91.14000 2.073
91.16000 3.763
91.18000 5.885
91.20000 6.105
91.22000 0.378
91.24000 -1.027
91.26000 1.006
91.28000 5.185
91.30000 7.051
91.32000 1.678
91.34000 2.183
91.36000 4.133
91.38000 1.675
91.40000 2.390
91.42000 1.162
91.44000 2.860
91.46000 2.778
91.48000 4.458
91.50000 2.376
91.52000 3.266
91.54000 -0.757
91.56000 -1.944
91.58000 0.222
91.60000 1.850
91.62000 0.113
91.64000 -0.581
91.66000 -1.099
91.68000 1.074
91.70000 4.584
91.72000 3.728
91.74000 3.525
91.76000 3.247
91.78000 2.545
91.80000 1.163
91.82000 3.080
91.84000 4.554
91.86000 1.680
91.88000 1.922
91.90000 0.607
91.92000 1.176
91.94000 3.936
91.96000 3.931
91.98000 1.917
92.00000 1.789
92.02000 0.550
92.04000 2.752
92.06000 3.565
92.08000 0.419
92.10000 2.438
92.12000 -1.943
92.14000 -0.643
92.16000 2.414
92.18000 0.928
92.20000 5.596
92.22000 2.806
92.24000 1.322
92.26000 -0.619
92.28000 -0.369
92.30000 1.317
92.32000 4.474
92.34000 -0.813
92.36000 -1.229
92.38000 4.644
92.40000 2.068
92.42000 1.740
92.44000 3.402
92.46000 1.377
92.48000 1.156
92.50000 -0.734
92.52000 3.813
92.54000 1.936
92.56000 3.058
92.58000 2.139
92.60000 2.509
92.62000 4.668
92.64000 4.622
92.66000 2.348
92.68000 0.078
92.70000 2.072
92.72000 0.530
92.74000 0.752
92.76000 2.790
92.78000 2.450
92.80000 -1.933
92.82000 0.851
92.84000 5.699
92.86000 3.431
92.88000 2.639
92.90000 6.015
92.92000 6.697
92.94000 5.141
92.96000 1.591
92.98000 2.581
93.00000 1.971
93.02000 2.407
93.04000 -0.197
93.06000 -0.357
93.08000 2.198
93.10000 3.494
93.12000 1.607
93.14000 3.565
93.16000 1.806
93.18000 -0.483
93.20000 4.078
93.22000 1.289
93.24000 2.105
93.26000 3.247
93.28000 -1.564
93.30000 3.277
93.32000 2.981
93.34000 4.422
93.36000 5.395
93.38000 3.072
93.40000 1.269
93.42000 0.965
93.44000 7.937
93.46000 4.675
93.48000 6.002
93.50000 2.575
93.52000 2.138
93.54000 -1.934
93.56000 2.940
93.58000 5.255
93.60000 7.517
93.62000 5.303
93.64000 8.291
93.66000 5.942
93.68000 4.976
93.70000 3.088
93.72000 8.119
93.74000 6.730
93.76000 4.123
93.78000 3.840
93.80000 6.066
93.82000 5.013
93.84000 5.600
93.86000 2.814
93.88000 4.106
93.90000 10.099
93.92000 2.884
93.94000 4.472
93.96000 6.366
93.98000 1.482
94.00000 1.252
94.02000 2.544
94.04000 2.175
94.06000 1.862
94.08000 5.015
94.10000 2.521
94.12000 1.660
94.14000 2.393
94.16000 1.263
94.18000 -0.076
94.20000 1.989
94.22000 2.796
94.24000 -0.830
94.26000 1.223
94.28000 1.726
94.30000 4.410
94.32000 2.355
94.34000 2.950
94.36000 1.718
94.38000 -0.762
94.40000 -1.644
94.42000 1.931
94.44000 -0.265
94.46000 0.327
94.48000 0.772
94.50000 1.790
94.52000 4.545
94.54000 7.780
94.56000 5.867
94.58000 6.295
94.60000 2.713
94.62000 4.816
94.64000 0.057
94.66000 -1.946
94.68000 1.805
94.70000 3.295
94.72000 3.191
94.74000 2.372
94.76000 5.476
94.78000 3.520
94.80000 4.609
94.82000 8.651
94.84000 5.857
94.86000 1.827
94.88000 -1.952
94.90000 2.463
94.92000 5.783
94.94000 6.659
94.96000 5.777
94.98000 8.152
95.00000 5.494
95.02000 2.024
95.04000 2.257
95.06000 3.079
95.08000 5.139
95.10000 6.082
95.12000 3.166
95.14000 0.416
95.16000 -0.085
95.18000 3.397
95.20000 1.106
95.22000 2.921
95.24000 5.799
95.26000 7.063
95.28000 4.589
95.30000 4.877
95.32000 4.296
95.34000 7.009
95.36000 3.517
95.38000 2.694
95.40000 -0.495
95.42000 0.120
95.44000 4.370
95.46000 0.005
95.48000 0.188
95.50000 4.246
95.52000 5.789
95.54000 2.197
95.56000 3.181
95.58000 6.285
95.60000 4.376
95.62000 3.344
95.64000 4.629
95.66000 2.955
95.68000 3.862
95.70000 -0.598
95.72000 1.085
95.74000 3.332
95.76000 5.837
95.78000 5.088
95.80000 2.361
95.82000 0.067
95.84000 3.516
95.86000 4.059
95.88000 -1.938
95.90000 1.250
95.92000 0.594
95.94000 0.776
95.96000 0.955
95.98000 -0.821
96.00000 4.002
96.02000 -0.019
96.04000 1.297
96.06000 3.244
96.08000 -0.990
96.10000 -1.952
96.12000 2.633
96.14000 3.173
96.16000 3.563
96.18000 2.436
96.20000 1.319
96.22000 4.121
96.24000 1.655
96.26000 1.658
96.28000 0.855
96.30000 -0.447
96.32000 3.016
96.34000 7.795
96.36000 3.850
96.38000 5.060
96.40000 9.155
96.42000 7.269
96.44000 5.498
96.46000 2.152
96.48000 2.512
96.50000 2.810
96.52000 3.182
96.54000 6.224
96.56000 9.180
96.58000 6.251
96.60000 11.706
96.62000 7.481
96.64000 3.248
96.66000 3.170
96.68000 6.201
96.70000 9.192
96.72000 9.426
96.74000 9.160
96.76000 5.410
96.78000 5.983
96.80000 4.561
96.82000 4.911
96.84000 2.369
96.86000 0.855
96.88000 5.549
96.90000 7.569
96.92000 7.163
96.94000 6.302
96.96000 4.199
96.98000 5.585
97.00000 9.826
97.02000 10.280
97.04000 3.654
97.06000 5.051
97.08000 3.569
97.10000 5.624
97.12000 3.221
97.14000 -1.878
97.16000 2.561
97.18000 5.026
97.20000 9.276
97.22000 10.121
97.24000 7.591
97.26000 9.941
97.28000 7.108
97.30000 4.337
97.32000 5.041
97.34000 4.392
97.36000 5.433
97.38000 4.869
97.40000 5.832
97.42000 9.431
97.44000 5.816
97.46000 6.198
97.48000 7.284
97.50000 4.477
97.52000 6.469
97.54000 5.651
97.56000 2.419
97.58000 2.951
97.60000 3.332
97.62000 2.314
97.64000 3.673
97.66000 2.592
97.68000 8.385
97.70000 3.906
97.72000 7.109
97.74000 1.825
97.76000 -0.505
97.78000 -1.911
97.80000 -1.664
97.82000 1.928
97.84000 0.994
97.86000 3.019
97.88000 3.513
97.90000 6.575
97.92000 6.385
97.94000 1.803
97.96000 -0.623
97.98000 7.727
98.00000 12.880
98.02000 6.452
98.04000 3.188
98.06000 4.655
98.08000 4.515
98.10000 -0.215
98.12000 1.952
98.14000 1.271
98.16000 0.614
98.18000 -0.726
98.20000 5.041
98.22000 5.030
98.24000 0.045
98.26000 -1.802
98.28000 2.145
98.30000 5.594
98.32000 5.329
98.34000 6.043
98.36000 10.058
98.38000 6.748
98.40000 2.542
98.42000 4.564
98.44000 3.613
98.46000 4.740
98.48000 1.099
98.50000 5.982
98.52000 3.543
98.54000 4.061
98.56000 -0.040
98.58000 3.661
98.60000 3.155
98.62000 5.232
98.64000 0.191
98.66000 7.261
98.68000 8.134
98.70000 0.004
98.72000 2.629
98.74000 3.318
98.76000 1.238
98.78000 1.449
98.80000 6.549
98.82000 6.618
98.84000 3.941
98.86000 5.701
98.88000 2.958
98.90000 3.111
98.92000 9.881
98.94000 9.992
98.96000 5.345
98.98000 8.253
99.00000 4.463
99.02000 -0.373
99.04000 -1.845
99.06000 -0.335
99.08000 -1.562
99.10000 2.941
99.12000 9.290
99.14000 3.410
99.16000 4.360
99.18000 4.277
99.20000 3.241
99.22000 8.677
99.24000 12.579
99.26000 6.558
99.28000 0.673
99.30000 4.182
99.32000 0.809
99.34000 10.628
99.36000 6.190
99.38000 -3.030
99.40000 4.490
99.42000 5.762
99.44000 1.415
99.46000 4.335
99.48000 5.828
99.50000 7.600
99.52000 6.179
99.54000 -0.547
99.56000 -0.277
99.58000 4.675
99.60000 3.462
99.62000 -1.938
99.64000 2.818
99.66000 6.031
99.68000 5.425
99.70000 5.760
99.72000 3.743
99.74000 3.773
99.76000 5.408
99.78000 6.284
99.80000 14.302
99.82000 7.081
99.84000 4.116
99.86000 4.425
99.88000 6.539
99.90000 -0.912
99.92000 -2.002
99.94000 -2.012
99.96000 3.295
99.98000 0.000
