'Id: "0011388" Comment: "Integrate frame 0011388_Au-Ir-Rh_Rh-rich_XRD-Mapping-103-0000.gfrmwith cursor Wedge Cursor #5" Operator: "B?rgel" Anode: "Cu" Wavelength: "1.5406" Scantype: "2Theta (TwoTheta)" TimePerStep: "1" X: "-4.5" Y: "-13.5" Z: "5.95" 
10.00000 0.000
10.02000 0.901
10.04000 -4.307
10.06000 1.288
10.08000 0.384
10.10000 2.161
10.12000 13.144
10.14000 25.195
10.16000 18.623
10.18000 -6.149
10.20000 0.382
10.22000 24.434
10.24000 3.965
10.26000 -3.275
10.28000 12.429
10.30000 27.309
10.32000 15.251
10.34000 4.302
10.36000 -0.746
10.38000 6.361
10.40000 14.510
10.42000 20.055
10.44000 22.855
10.46000 17.881
10.48000 -5.194
10.50000 2.153
10.52000 10.910
10.54000 14.529
10.56000 10.026
10.58000 22.557
10.60000 19.938
10.62000 18.863
10.64000 15.876
10.66000 16.134
10.68000 9.749
10.70000 12.939
10.72000 7.185
10.74000 14.326
10.76000 24.136
10.78000 21.320
10.80000 7.161
10.82000 3.457
10.84000 0.701
10.86000 1.924
10.88000 8.333
10.90000 14.464
10.92000 19.633
10.94000 6.449
10.96000 4.804
10.98000 6.186
11.00000 17.163
11.02000 8.570
11.04000 20.936
11.06000 30.205
11.08000 22.121
11.10000 19.820
11.12000 20.512
11.14000 16.246
11.16000 14.500
11.18000 6.209
11.20000 0.493
11.22000 7.833
11.24000 24.415
11.26000 25.365
11.28000 16.918
11.30000 9.669
11.32000 15.314
11.34000 17.402
11.36000 14.717
11.38000 19.160
11.40000 24.934
11.42000 26.398
11.44000 17.439
11.46000 15.475
11.48000 6.348
11.50000 7.248
11.52000 4.277
11.54000 5.206
11.56000 10.054
11.58000 20.171
11.60000 7.854
11.62000 5.274
11.64000 25.917
11.66000 29.804
11.68000 15.569
11.70000 4.930
11.72000 12.256
11.74000 19.970
11.76000 20.266
11.78000 20.486
11.80000 18.367
11.82000 11.490
11.84000 7.713
11.86000 2.085
11.88000 3.380
11.90000 16.329
11.92000 14.869
11.94000 19.891
11.96000 18.168
11.98000 19.106
12.00000 15.338
12.02000 9.180
12.04000 8.755
12.06000 15.141
12.08000 9.161
12.10000 7.800
12.12000 20.551
12.14000 23.692
12.16000 24.420
12.18000 10.449
12.20000 2.873
12.22000 14.551
12.24000 25.802
12.26000 14.523
12.28000 5.177
12.30000 3.802
12.32000 15.484
12.34000 9.722
12.36000 13.639
12.38000 2.282
12.40000 3.994
12.42000 20.193
12.44000 24.541
12.46000 22.585
12.48000 14.511
12.50000 6.427
12.52000 15.963
12.54000 11.053
12.56000 8.472
12.58000 10.260
12.60000 5.998
12.62000 9.125
12.64000 15.225
12.66000 16.945
12.68000 20.185
12.70000 14.306
12.72000 14.822
12.74000 11.168
12.76000 12.296
12.78000 14.803
12.80000 18.171
12.82000 15.968
12.84000 7.284
12.86000 0.389
12.88000 10.222
12.90000 14.538
12.92000 17.695
12.94000 26.631
12.96000 22.384
12.98000 14.778
13.00000 17.461
13.02000 14.759
13.04000 21.696
13.06000 11.003
13.08000 2.997
13.10000 19.172
13.12000 22.298
13.14000 15.447
13.16000 12.996
13.18000 20.281
13.20000 16.887
13.22000 9.878
13.24000 11.435
13.26000 11.969
13.28000 13.550
13.30000 12.116
13.32000 4.051
13.34000 12.106
13.36000 16.053
13.38000 13.524
13.40000 9.415
13.42000 6.031
13.44000 6.594
13.46000 2.173
13.48000 8.112
13.50000 17.115
13.52000 14.319
13.54000 16.186
13.56000 18.230
13.58000 13.198
13.60000 4.420
13.62000 17.475
13.64000 12.321
13.66000 15.682
13.68000 6.800
13.70000 6.195
13.72000 6.743
13.74000 1.604
13.76000 10.488
13.78000 21.004
13.80000 11.607
13.82000 10.988
13.84000 10.678
13.86000 14.450
13.88000 15.141
13.90000 11.515
13.92000 12.848
13.94000 8.538
13.96000 12.734
13.98000 12.809
14.00000 9.485
14.02000 5.741
14.04000 11.077
14.06000 14.044
14.08000 9.130
14.10000 7.641
14.12000 10.472
14.14000 12.196
14.16000 22.816
14.18000 14.086
14.20000 6.296
14.22000 8.689
14.24000 7.286
14.26000 5.480
14.28000 10.047
14.30000 16.023
14.32000 15.380
14.34000 12.505
14.36000 8.721
14.38000 11.924
14.40000 14.976
14.42000 14.174
14.44000 11.933
14.46000 10.725
14.48000 7.233
14.50000 2.425
14.52000 13.144
14.54000 16.219
14.56000 3.218
14.58000 11.991
14.60000 15.719
14.62000 10.600
14.64000 17.302
14.66000 18.579
14.68000 5.564
14.70000 3.051
14.72000 13.508
14.74000 6.374
14.76000 5.090
14.78000 7.609
14.80000 15.730
14.82000 11.559
14.84000 5.465
14.86000 4.463
14.88000 6.411
14.90000 1.264
14.92000 18.933
14.94000 14.847
14.96000 6.618
14.98000 7.256
15.00000 3.227
15.02000 9.698
15.04000 6.670
15.06000 2.758
15.08000 1.310
15.10000 4.305
15.12000 13.664
15.14000 16.350
15.16000 10.791
15.18000 12.066
15.20000 13.414
15.22000 9.977
15.24000 15.761
15.26000 19.178
15.28000 11.931
15.30000 10.149
15.32000 1.759
15.34000 5.548
15.36000 12.183
15.38000 16.163
15.40000 13.125
15.42000 2.689
15.44000 8.949
15.46000 17.033
15.48000 17.793
15.50000 20.746
15.52000 20.995
15.54000 14.232
15.56000 6.963
15.58000 -3.858
15.60000 -4.390
15.62000 -0.262
15.64000 1.047
15.66000 -0.093
15.68000 3.768
15.70000 13.600
15.72000 16.750
15.74000 3.618
15.76000 9.245
15.78000 17.426
15.80000 13.520
15.82000 7.217
15.84000 10.193
15.86000 4.164
15.88000 -0.950
15.90000 2.629
15.92000 7.747
15.94000 2.804
15.96000 -0.768
15.98000 4.684
16.00000 12.802
16.02000 10.573
16.04000 12.736
16.06000 17.136
16.08000 10.711
16.10000 7.221
16.12000 4.541
16.14000 0.025
16.16000 -3.404
16.18000 5.689
16.20000 9.749
16.22000 7.430
16.24000 7.795
16.26000 17.397
16.28000 11.885
16.30000 13.143
16.32000 10.032
16.34000 7.786
16.36000 10.700
16.38000 4.813
16.40000 0.765
16.42000 1.585
16.44000 1.636
16.46000 0.213
16.48000 3.668
16.50000 5.925
16.52000 5.281
16.54000 3.844
16.56000 4.766
16.58000 7.896
16.60000 6.381
16.62000 -2.263
16.64000 -0.097
16.66000 6.639
16.68000 9.376
16.70000 8.018
16.72000 12.734
16.74000 5.442
16.76000 -2.976
16.78000 1.218
16.80000 3.222
16.82000 6.750
16.84000 8.700
16.86000 13.609
16.88000 10.395
16.90000 3.332
16.92000 2.846
16.94000 0.842
16.96000 1.468
16.98000 2.931
17.00000 8.449
17.02000 9.658
17.04000 4.360
17.06000 -0.046
17.08000 -4.087
17.10000 -4.374
17.12000 0.950
17.14000 6.683
17.16000 10.977
17.18000 8.383
17.20000 10.552
17.22000 8.300
17.24000 4.086
17.26000 4.689
17.28000 13.491
17.30000 8.162
17.32000 1.108
17.34000 3.622
17.36000 16.302
17.38000 7.015
17.40000 0.539
17.42000 5.613
17.44000 8.073
17.46000 4.939
17.48000 -2.028
17.50000 2.940
17.52000 9.907
17.54000 14.465
17.56000 11.676
17.58000 11.770
17.60000 5.617
17.62000 0.788
17.64000 3.430
17.66000 8.204
17.68000 14.736
17.70000 9.306
17.72000 3.533
17.74000 5.995
17.76000 2.071
17.78000 2.867
17.80000 6.701
17.82000 12.089
17.84000 7.066
17.86000 -2.206
17.88000 7.982
17.90000 5.861
17.92000 6.667
17.94000 4.599
17.96000 0.909
17.98000 2.304
18.00000 7.416
18.02000 6.284
18.04000 -1.617
18.06000 0.545
18.08000 4.159
18.10000 3.688
18.12000 4.823
18.14000 -1.352
18.16000 4.715
18.18000 9.956
18.20000 8.799
18.22000 5.906
18.24000 5.499
18.26000 8.858
18.28000 8.590
18.30000 11.651
18.32000 11.518
18.34000 8.655
18.36000 1.997
18.38000 -1.276
18.40000 1.267
18.42000 2.348
18.44000 3.909
18.46000 6.231
18.48000 7.982
18.50000 6.768
18.52000 3.920
18.54000 5.983
18.56000 -1.537
18.58000 -4.294
18.60000 -3.491
18.62000 2.400
18.64000 12.856
18.66000 11.547
18.68000 11.586
18.70000 11.438
18.72000 9.867
18.74000 7.234
18.76000 8.157
18.78000 2.275
18.80000 5.045
18.82000 9.946
18.84000 9.282
18.86000 7.384
18.88000 8.792
18.90000 10.729
18.92000 4.065
18.94000 0.929
18.96000 3.161
18.98000 -2.024
19.00000 5.280
19.02000 2.958
19.04000 0.561
19.06000 -0.380
19.08000 -1.513
19.10000 0.234
19.12000 2.140
19.14000 4.474
19.16000 2.668
19.18000 -3.301
19.20000 -3.609
19.22000 6.114
19.24000 6.607
19.26000 6.922
19.28000 10.253
19.30000 10.648
19.32000 4.140
19.34000 2.135
19.36000 3.604
19.38000 6.585
19.40000 2.394
19.42000 2.795
19.44000 -0.927
19.46000 4.549
19.48000 3.078
19.50000 -0.334
19.52000 2.061
19.54000 5.467
19.56000 13.241
19.58000 5.856
19.60000 2.511
19.62000 -1.339
19.64000 -0.071
19.66000 -0.780
19.68000 2.675
19.70000 6.308
19.72000 1.004
19.74000 1.996
19.76000 1.741
19.78000 2.139
19.80000 0.219
19.82000 -0.752
19.84000 -0.546
19.86000 4.353
19.88000 6.304
19.90000 3.160
19.92000 3.387
19.94000 4.893
19.96000 1.622
19.98000 2.073
20.00000 0.295
20.02000 8.830
20.04000 1.997
20.06000 1.910
20.08000 4.303
20.10000 3.061
20.12000 0.622
20.14000 0.156
20.16000 1.319
20.18000 1.234
20.20000 0.543
20.22000 3.436
20.24000 9.377
20.26000 7.819
20.28000 1.593
20.30000 -4.052
20.32000 0.593
20.34000 1.596
20.36000 3.693
20.38000 0.440
20.40000 3.687
20.42000 -1.204
20.44000 1.926
20.46000 6.994
20.48000 9.230
20.50000 8.808
20.52000 9.736
20.54000 5.662
20.56000 3.891
20.58000 11.971
20.60000 7.540
20.62000 -4.169
20.64000 -3.967
20.66000 9.887
20.68000 18.034
20.70000 7.573
20.72000 4.128
20.74000 4.623
20.76000 2.171
20.78000 4.528
20.80000 3.757
20.82000 -4.160
20.84000 -3.425
20.86000 0.606
20.88000 4.675
20.90000 6.659
20.92000 3.221
20.94000 1.217
20.96000 -1.340
20.98000 -0.848
21.00000 -0.726
21.02000 -0.301
21.04000 1.452
21.06000 0.612
21.08000 0.072
21.10000 -2.023
21.12000 1.137
21.14000 6.239
21.16000 8.481
21.18000 5.052
21.20000 3.395
21.22000 3.377
21.24000 7.459
21.26000 7.410
21.28000 4.199
21.30000 8.231
21.32000 8.076
21.34000 6.851
21.36000 7.559
21.38000 3.604
21.40000 6.378
21.42000 4.217
21.44000 7.640
21.46000 7.821
21.48000 5.280
21.50000 6.770
21.52000 2.242
21.54000 0.133
21.56000 3.372
21.58000 1.346
21.60000 7.027
21.62000 9.899
21.64000 5.817
21.66000 3.226
21.68000 3.012
21.70000 5.082
21.72000 4.394
21.74000 -2.352
21.76000 1.299
21.78000 6.564
21.80000 13.458
21.82000 8.196
21.84000 3.029
21.86000 1.069
21.88000 2.275
21.90000 -1.877
21.92000 -2.395
21.94000 0.721
21.96000 2.337
21.98000 0.969
22.00000 3.690
22.02000 3.023
22.04000 5.766
22.06000 11.578
22.08000 5.126
22.10000 2.934
22.12000 3.002
22.14000 2.432
22.16000 -0.396
22.18000 3.462
22.20000 4.047
22.22000 4.869
22.24000 8.530
22.26000 5.400
22.28000 5.859
22.30000 4.202
22.32000 -2.743
22.34000 3.220
22.36000 5.585
22.38000 0.794
22.40000 1.752
22.42000 5.377
22.44000 1.021
22.46000 1.100
22.48000 3.821
22.50000 2.786
22.52000 6.440
22.54000 11.755
22.56000 7.649
22.58000 2.074
22.60000 -1.255
22.62000 1.106
22.64000 4.740
22.66000 4.744
22.68000 6.947
22.70000 10.069
22.72000 3.920
22.74000 5.969
22.76000 9.455
22.78000 2.857
22.80000 -0.334
22.82000 2.349
22.84000 2.107
22.86000 6.506
22.88000 4.688
22.90000 2.986
22.92000 5.591
22.94000 0.447
22.96000 2.641
22.98000 0.863
23.00000 4.274
23.02000 6.259
23.04000 2.854
23.06000 2.885
23.08000 7.063
23.10000 10.190
23.12000 8.929
23.14000 8.326
23.16000 7.011
23.18000 10.022
23.20000 4.799
23.22000 2.820
23.24000 -4.006
23.26000 -1.682
23.28000 2.040
23.30000 2.824
23.32000 5.217
23.34000 6.647
23.36000 3.656
23.38000 5.322
23.40000 4.969
23.42000 5.841
23.44000 7.848
23.46000 1.073
23.48000 0.106
23.50000 12.066
23.52000 9.085
23.54000 5.891
23.56000 0.936
23.58000 2.714
23.60000 6.274
23.62000 8.206
23.64000 1.798
23.66000 3.571
23.68000 9.390
23.70000 14.073
23.72000 12.216
23.74000 6.126
23.76000 6.314
23.78000 6.458
23.80000 11.524
23.82000 13.582
23.84000 8.312
23.86000 1.240
23.88000 -0.065
23.90000 6.275
23.92000 8.449
23.94000 5.042
23.96000 4.043
23.98000 8.477
24.00000 4.746
24.02000 0.608
24.04000 2.526
24.06000 4.495
24.08000 3.908
24.10000 7.169
24.12000 8.803
24.14000 9.392
24.16000 5.487
24.18000 9.217
24.20000 7.125
24.22000 1.856
24.24000 -1.609
24.26000 0.042
24.28000 5.007
24.30000 6.665
24.32000 9.642
24.34000 18.877
24.36000 10.851
24.38000 1.195
24.40000 -3.973
24.42000 0.495
24.44000 2.741
24.46000 3.258
24.48000 -0.986
24.50000 -1.452
24.52000 -2.887
24.54000 4.717
24.56000 8.719
24.58000 7.891
24.60000 3.327
24.62000 1.705
24.64000 -2.529
24.66000 -3.210
24.68000 -2.429
24.70000 8.632
24.72000 9.513
24.74000 5.314
24.76000 3.473
24.78000 6.725
24.80000 4.003
24.82000 1.804
24.84000 2.133
24.86000 2.119
24.88000 3.259
24.90000 12.574
24.92000 11.834
24.94000 3.966
24.96000 8.447
24.98000 9.355
25.00000 8.863
25.02000 5.255
25.04000 5.239
25.06000 1.788
25.08000 1.822
25.10000 4.152
25.12000 0.755
25.14000 5.039
25.16000 6.414
25.18000 9.538
25.20000 9.877
25.22000 7.527
25.24000 14.159
25.26000 8.700
25.28000 2.607
25.30000 1.618
25.32000 -0.879
25.34000 1.022
25.36000 -3.910
25.38000 0.704
25.40000 2.434
25.42000 1.062
25.44000 6.615
25.46000 0.871
25.48000 7.133
25.50000 1.332
25.52000 3.297
25.54000 5.364
25.56000 6.367
25.58000 1.845
25.60000 -2.004
25.62000 -1.966
25.64000 0.521
25.66000 2.218
25.68000 2.835
25.70000 -1.654
25.72000 1.441
25.74000 8.308
25.76000 6.992
25.78000 6.664
25.80000 8.854
25.82000 12.788
25.84000 9.068
25.86000 -1.950
25.88000 -3.875
25.90000 1.283
25.92000 1.031
25.94000 0.125
25.96000 3.244
25.98000 6.994
26.00000 5.472
26.02000 5.258
26.04000 4.512
26.06000 9.333
26.08000 4.207
26.10000 8.538
26.12000 8.214
26.14000 10.342
26.16000 8.078
26.18000 7.540
26.20000 9.584
26.22000 0.162
26.24000 3.182
26.26000 2.078
26.28000 2.517
26.30000 5.610
26.32000 5.314
26.34000 -0.121
26.36000 0.296
26.38000 3.166
26.40000 7.943
26.42000 8.856
26.44000 8.388
26.46000 3.073
26.48000 -0.110
26.50000 -0.065
26.52000 1.141
26.54000 0.522
26.56000 2.659
26.58000 5.185
26.60000 2.308
26.62000 5.171
26.64000 3.770
26.66000 1.998
26.68000 2.213
26.70000 0.069
26.72000 0.861
26.74000 1.144
26.76000 -3.840
26.78000 4.450
26.80000 8.782
26.82000 8.816
26.84000 6.488
26.86000 6.940
26.88000 1.922
26.90000 -1.358
26.92000 1.616
26.94000 0.836
26.96000 2.696
26.98000 2.209
27.00000 -0.192
27.02000 6.363
27.04000 2.661
27.06000 1.429
27.08000 3.602
27.10000 2.696
27.12000 6.372
27.14000 4.313
27.16000 -3.826
27.18000 -0.693
27.20000 7.010
27.22000 4.863
27.24000 2.512
27.26000 7.377
27.28000 7.323
27.30000 6.437
27.32000 3.103
27.34000 3.316
27.36000 6.600
27.38000 9.501
27.40000 4.405
27.42000 2.686
27.44000 4.043
27.46000 3.407
27.48000 6.452
27.50000 10.466
27.52000 7.283
27.54000 2.434
27.56000 0.938
27.58000 2.823
27.60000 1.346
27.62000 4.225
27.64000 3.869
27.66000 0.959
27.68000 2.891
27.70000 7.727
27.72000 5.973
27.74000 0.436
27.76000 -1.538
27.78000 3.119
27.80000 8.919
27.82000 3.432
27.84000 5.566
27.86000 6.597
27.88000 8.116
27.90000 8.888
27.92000 4.605
27.94000 1.406
27.96000 -1.847
27.98000 -0.478
28.00000 5.446
28.02000 1.128
28.04000 -2.233
28.06000 1.824
28.08000 0.501
28.10000 -1.062
28.12000 1.116
28.14000 2.960
28.16000 4.350
28.18000 2.960
28.20000 -0.990
28.22000 -0.423
28.24000 1.453
28.26000 0.794
28.28000 5.457
28.30000 8.406
28.32000 7.807
28.34000 4.166
28.36000 -3.762
28.38000 3.859
28.40000 0.093
28.42000 -2.003
28.44000 0.338
28.46000 0.350
28.48000 7.310
28.50000 7.641
28.52000 5.423
28.54000 5.285
28.56000 0.727
28.58000 -0.331
28.60000 -0.036
28.62000 1.592
28.64000 0.116
28.66000 1.374
28.68000 0.290
28.70000 1.897
28.72000 2.925
28.74000 3.315
28.76000 4.685
28.78000 4.161
28.80000 5.459
28.82000 4.022
28.84000 5.315
28.86000 6.704
28.88000 -2.627
28.90000 -3.731
28.92000 -0.362
28.94000 1.593
28.96000 -2.418
28.98000 -0.450
29.00000 -0.017
29.02000 -2.386
29.04000 4.335
29.06000 3.895
29.08000 0.447
29.10000 -1.621
29.12000 -2.222
29.14000 0.565
29.16000 2.979
29.18000 0.676
29.20000 -0.375
29.22000 -1.660
29.24000 0.387
29.26000 4.298
29.28000 1.059
29.30000 0.602
29.32000 6.166
29.34000 9.425
29.36000 6.381
29.38000 2.638
29.40000 5.651
29.42000 5.850
29.44000 1.247
29.46000 -0.903
29.48000 -0.862
29.50000 4.459
29.52000 4.516
29.54000 3.116
29.56000 8.728
29.58000 9.386
29.60000 7.805
29.62000 6.760
29.64000 7.955
29.66000 5.331
29.68000 5.090
29.70000 5.106
29.72000 3.660
29.74000 3.251
29.76000 2.077
29.78000 -0.666
29.80000 -0.380
29.82000 0.076
29.84000 2.300
29.86000 1.280
29.88000 -1.396
29.90000 -0.890
29.92000 0.757
29.94000 3.184
29.96000 -0.629
29.98000 -3.269
30.00000 5.693
30.02000 5.508
30.04000 2.347
30.06000 2.816
30.08000 1.025
30.10000 2.700
30.12000 1.688
30.14000 -0.853
30.16000 2.101
30.18000 -0.703
30.20000 -3.655
30.22000 -0.481
30.24000 2.850
30.26000 0.059
30.28000 0.432
30.30000 1.687
30.32000 2.448
30.34000 4.268
30.36000 5.155
30.38000 5.470
30.40000 4.980
30.42000 4.654
30.44000 5.305
30.46000 3.765
30.48000 3.951
30.50000 -0.117
30.52000 -0.943
30.54000 2.092
30.56000 -0.256
30.58000 0.580
30.60000 -2.084
30.62000 3.291
30.64000 6.462
30.66000 3.911
30.68000 3.541
30.70000 7.390
30.72000 2.862
30.74000 4.448
30.76000 2.057
30.78000 -1.776
30.80000 0.425
30.82000 -0.342
30.84000 -0.120
30.86000 0.607
30.88000 -0.669
30.90000 3.332
30.92000 1.584
30.94000 2.872
30.96000 6.199
30.98000 3.305
31.00000 4.836
31.02000 3.971
31.04000 6.183
31.06000 5.934
31.08000 4.171
31.10000 -2.834
31.12000 -0.361
31.14000 -0.755
31.16000 -2.748
31.18000 -2.206
31.20000 4.395
31.22000 4.127
31.24000 0.278
31.26000 -0.878
31.28000 0.364
31.30000 2.880
31.32000 -0.180
31.34000 -0.111
31.36000 4.797
31.38000 5.337
31.40000 6.234
31.42000 4.995
31.44000 -0.756
31.46000 -2.802
31.48000 2.431
31.50000 5.154
31.52000 5.987
31.54000 -0.022
31.56000 -3.115
31.58000 -1.846
31.60000 -1.861
31.62000 -2.813
31.64000 3.692
31.66000 5.725
31.68000 2.583
31.70000 1.144
31.72000 2.698
31.74000 -0.662
31.76000 -2.618
31.78000 3.758
31.80000 6.092
31.82000 2.833
31.84000 -1.383
31.86000 -0.489
31.88000 1.556
31.90000 0.749
31.92000 3.547
31.94000 5.997
31.96000 9.517
31.98000 8.946
32.00000 1.999
32.02000 5.331
32.04000 3.191
32.06000 1.206
32.08000 6.129
32.10000 -1.243
32.12000 -3.579
32.14000 0.513
32.16000 1.876
32.18000 -1.805
32.20000 2.288
32.22000 1.354
32.24000 -1.553
32.26000 2.865
32.28000 6.322
32.30000 8.894
32.32000 10.172
32.34000 5.857
32.36000 6.257
32.38000 2.335
32.40000 -1.398
32.42000 5.273
32.44000 8.082
32.46000 3.540
32.48000 0.431
32.50000 3.184
32.52000 6.695
32.54000 3.899
32.56000 2.113
32.58000 5.148
32.60000 7.861
32.62000 9.071
32.64000 6.731
32.66000 3.452
32.68000 -0.602
32.70000 -2.768
32.72000 0.433
32.74000 2.397
32.76000 3.304
32.78000 1.522
32.80000 -3.538
32.82000 -0.394
32.84000 3.365
32.86000 4.887
32.88000 5.153
32.90000 0.112
32.92000 -3.530
32.94000 2.803
32.96000 6.597
32.98000 4.346
33.00000 8.065
33.02000 9.021
33.04000 4.961
33.06000 -0.785
33.08000 9.212
33.10000 6.307
33.12000 9.086
33.14000 7.756
33.16000 9.221
33.18000 9.275
33.20000 4.282
33.22000 6.431
33.24000 7.029
33.26000 9.799
33.28000 7.867
33.30000 6.532
33.32000 11.860
33.34000 8.985
33.36000 7.199
33.38000 7.520
33.40000 6.255
33.42000 9.857
33.44000 8.718
33.46000 5.071
33.48000 3.032
33.50000 3.518
33.52000 2.218
33.54000 4.602
33.56000 4.422
33.58000 5.711
33.60000 4.230
33.62000 11.438
33.64000 14.130
33.66000 10.658
33.68000 9.072
33.70000 4.330
33.72000 5.912
33.74000 2.860
33.76000 2.404
33.78000 5.043
33.80000 7.779
33.82000 6.151
33.84000 -0.160
33.86000 -3.087
33.88000 3.286
33.90000 2.387
33.92000 -2.704
33.94000 1.623
33.96000 3.889
33.98000 5.116
34.00000 4.435
34.02000 5.558
34.04000 6.276
34.06000 9.263
34.08000 6.961
34.10000 4.756
34.12000 5.043
34.14000 8.328
34.16000 9.130
34.18000 4.036
34.20000 0.952
34.22000 4.338
34.24000 6.564
34.26000 5.780
34.28000 4.248
34.30000 -1.395
34.32000 -3.503
34.34000 -1.069
34.36000 1.638
34.38000 2.374
34.40000 4.509
34.42000 9.283
34.44000 7.313
34.46000 6.135
34.48000 4.968
34.50000 -0.812
34.52000 2.090
34.54000 5.446
34.56000 2.720
34.58000 1.255
34.60000 2.360
34.62000 5.501
34.64000 7.544
34.66000 6.770
34.68000 0.517
34.70000 2.758
34.72000 5.474
34.74000 6.773
34.76000 5.253
34.78000 1.793
34.80000 1.450
34.82000 0.755
34.84000 2.545
34.86000 5.646
34.88000 6.117
34.90000 7.155
34.92000 4.402
34.94000 4.187
34.96000 -0.485
34.98000 -3.492
35.00000 4.394
35.02000 4.703
35.04000 3.891
35.06000 7.747
35.08000 5.881
35.10000 4.982
35.12000 2.279
35.14000 -0.261
35.16000 4.080
35.18000 2.298
35.20000 2.411
35.22000 6.741
35.24000 4.404
35.26000 0.499
35.28000 0.157
35.30000 3.760
35.32000 5.431
35.34000 3.350
35.36000 1.646
35.38000 2.266
35.40000 1.263
35.42000 4.184
35.44000 3.646
35.46000 1.324
35.48000 -0.828
35.50000 -3.479
35.52000 -2.206
35.54000 -0.200
35.56000 -3.482
35.58000 -2.379
35.60000 -0.558
35.62000 3.638
35.64000 -0.093
35.66000 0.606
35.68000 7.274
35.70000 6.796
35.72000 8.594
35.74000 5.113
35.76000 2.890
35.78000 1.679
35.80000 0.008
35.82000 -2.462
35.84000 1.337
35.86000 1.113
35.88000 -1.277
35.90000 0.752
35.92000 4.651
35.94000 2.353
35.96000 2.950
35.98000 6.131
36.00000 4.838
36.02000 4.523
36.04000 2.055
36.06000 -0.681
36.08000 -3.200
36.10000 1.409
36.12000 3.578
36.14000 1.171
36.16000 4.917
36.18000 5.508
36.20000 5.377
36.22000 1.578
36.24000 2.870
36.26000 2.751
36.28000 -0.786
36.30000 1.754
36.32000 1.621
36.34000 -1.739
36.36000 3.334
36.38000 2.955
36.40000 -2.396
36.42000 -2.070
36.44000 -2.596
36.46000 2.871
36.48000 -1.050
36.50000 -1.507
36.52000 -0.926
36.54000 -2.428
36.56000 -3.263
36.58000 2.074
36.60000 8.458
36.62000 6.692
36.64000 4.704
36.66000 1.717
36.68000 -0.534
36.70000 1.244
36.72000 1.450
36.74000 1.019
36.76000 -0.094
36.78000 -1.636
36.80000 -2.670
36.82000 1.084
36.84000 1.834
36.86000 7.519
36.88000 8.661
36.90000 5.476
36.92000 2.265
36.94000 1.421
36.96000 1.906
36.98000 -3.509
37.00000 -1.458
37.02000 0.586
37.04000 0.601
37.06000 -1.075
37.08000 4.268
37.10000 4.599
37.12000 6.293
37.14000 4.761
37.16000 0.381
37.18000 -1.429
37.20000 -3.038
37.22000 -0.857
37.24000 4.626
37.26000 2.029
37.28000 -3.546
37.30000 -0.143
37.32000 -2.586
37.34000 0.576
37.36000 3.834
37.38000 0.353
37.40000 2.964
37.42000 4.895
37.44000 4.521
37.46000 1.637
37.48000 2.790
37.50000 1.532
37.52000 0.037
37.54000 -2.401
37.56000 -2.724
37.58000 1.446
37.60000 2.991
37.62000 -2.404
37.64000 -0.616
37.66000 -1.184
37.68000 1.645
37.70000 2.170
37.72000 0.599
37.74000 3.767
37.76000 -1.933
37.78000 1.633
37.80000 2.756
37.82000 4.956
37.84000 2.553
37.86000 -1.976
37.88000 2.669
37.90000 9.673
37.92000 3.395
37.94000 1.953
37.96000 5.383
37.98000 7.183
38.00000 7.411
38.02000 0.396
38.04000 1.737
38.06000 1.340
38.08000 -2.662
38.10000 0.571
38.12000 6.458
38.14000 6.020
38.16000 3.281
38.18000 3.497
38.20000 4.471
38.22000 12.053
38.24000 14.840
38.26000 9.771
38.28000 9.801
38.30000 11.017
38.32000 10.859
38.34000 11.266
38.36000 13.298
38.38000 10.818
38.40000 10.905
38.42000 16.259
38.44000 16.230
38.46000 11.895
38.48000 10.686
38.50000 10.838
38.52000 8.355
38.54000 12.804
38.56000 16.174
38.58000 13.890
38.60000 16.656
38.62000 19.507
38.64000 17.888
38.66000 16.375
38.68000 11.828
38.70000 14.870
38.72000 18.653
38.74000 14.590
38.76000 17.965
38.78000 17.246
38.80000 16.607
38.82000 17.211
38.84000 15.530
38.86000 19.387
38.88000 23.524
38.90000 23.216
38.92000 22.063
38.94000 23.919
38.96000 24.719
38.98000 27.888
39.00000 29.624
39.02000 30.371
39.04000 27.195
39.06000 33.115
39.08000 34.301
39.10000 33.829
39.12000 37.283
39.14000 41.092
39.16000 43.409
39.18000 40.503
39.20000 44.577
39.22000 46.340
39.24000 43.813
39.26000 44.863
39.28000 50.536
39.30000 52.701
39.32000 60.188
39.34000 58.914
39.36000 56.134
39.38000 59.133
39.40000 59.062
39.42000 59.073
39.44000 63.796
39.46000 67.904
39.48000 72.268
39.50000 76.928
39.52000 78.923
39.54000 78.673
39.56000 79.016
39.58000 85.692
39.60000 93.429
39.62000 95.451
39.64000 99.496
39.66000 101.264
39.68000 109.250
39.70000 117.732
39.72000 124.228
39.74000 127.084
39.76000 127.448
39.78000 141.689
39.80000 146.811
39.82000 154.129
39.84000 162.778
39.86000 165.978
39.88000 171.097
39.90000 191.306
39.92000 201.511
39.94000 207.432
39.96000 219.468
39.98000 228.422
40.00000 236.406
40.02000 243.380
40.04000 258.504
40.06000 274.811
40.08000 292.247
40.10000 307.882
40.12000 315.622
40.14000 321.350
40.16000 337.890
40.18000 347.706
40.20000 368.642
40.22000 385.871
40.24000 390.445
40.26000 405.740
40.28000 425.385
40.30000 441.230
40.32000 444.576
40.34000 452.241
40.36000 472.141
40.38000 486.238
40.40000 494.739
40.42000 500.070
40.44000 508.991
40.46000 513.506
40.48000 513.585
40.50000 528.954
40.52000 531.186
40.54000 524.894
40.56000 514.495
40.58000 519.836
40.60000 526.966
40.62000 527.084
40.64000 515.616
40.66000 511.262
40.68000 503.773
40.70000 491.550
40.72000 484.651
40.74000 469.569
40.76000 456.493
40.78000 445.187
40.80000 439.159
40.82000 421.055
40.84000 410.954
40.86000 385.392
40.88000 376.189
40.90000 365.718
40.92000 346.857
40.94000 343.864
40.96000 331.593
40.98000 316.916
41.00000 302.146
41.02000 280.721
41.04000 269.393
41.06000 259.439
41.08000 243.412
41.10000 232.670
41.12000 225.983
41.14000 213.099
41.16000 201.036
41.18000 196.979
41.20000 187.859
41.22000 168.004
41.24000 166.986
41.26000 154.588
41.28000 152.616
41.30000 147.233
41.32000 141.125
41.34000 128.383
41.36000 123.885
41.38000 119.860
41.40000 104.964
41.42000 100.314
41.44000 98.454
41.46000 87.664
41.48000 84.434
41.50000 83.504
41.52000 80.145
41.54000 79.570
41.56000 70.917
41.58000 66.383
41.60000 58.723
41.62000 62.182
41.64000 61.569
41.66000 56.486
41.68000 45.772
41.70000 47.059
41.72000 48.553
41.74000 42.448
41.76000 41.016
41.78000 39.126
41.80000 35.945
41.82000 38.301
41.84000 37.975
41.86000 35.260
41.88000 28.581
41.90000 33.655
41.92000 31.941
41.94000 29.926
41.96000 23.816
41.98000 22.688
42.00000 26.059
42.02000 23.819
42.04000 24.882
42.06000 16.415
42.08000 15.165
42.10000 18.149
42.12000 17.263
42.14000 15.564
42.16000 17.082
42.18000 15.115
42.20000 17.268
42.22000 16.600
42.24000 14.964
42.26000 12.057
42.28000 8.364
42.30000 7.038
42.32000 7.876
42.34000 9.353
42.36000 8.755
42.38000 6.024
42.40000 10.187
42.42000 11.392
42.44000 14.602
42.46000 11.443
42.48000 7.954
42.50000 8.093
42.52000 2.861
42.54000 3.552
42.56000 0.779
42.58000 1.561
42.60000 2.800
42.62000 4.769
42.64000 3.516
42.66000 2.227
42.68000 6.515
42.70000 4.035
42.72000 3.522
42.74000 -0.887
42.76000 -0.290
42.78000 3.994
42.80000 4.526
42.82000 2.501
42.84000 1.241
42.86000 -1.679
42.88000 -2.827
42.90000 1.228
42.92000 2.045
42.94000 0.686
42.96000 5.992
42.98000 7.830
43.00000 3.300
43.02000 2.066
43.04000 5.739
43.06000 9.128
43.08000 3.960
43.10000 1.768
43.12000 2.590
43.14000 2.067
43.16000 1.624
43.18000 1.111
43.20000 -0.071
43.22000 -0.972
43.24000 -0.104
43.26000 1.230
43.28000 -0.300
43.30000 0.052
43.32000 5.176
43.34000 -1.558
43.36000 -2.092
43.38000 3.947
43.40000 -0.005
43.42000 -3.065
43.44000 -3.241
43.46000 1.601
43.48000 5.269
43.50000 3.064
43.52000 0.717
43.54000 0.372
43.56000 0.384
43.58000 0.921
43.60000 -0.810
43.62000 -2.629
43.64000 -3.441
43.66000 1.068
43.68000 6.346
43.70000 6.519
43.72000 1.414
43.74000 -0.345
43.76000 -1.138
43.78000 1.451
43.80000 1.078
43.82000 -1.730
43.84000 -2.021
43.86000 0.560
43.88000 0.636
43.90000 5.042
43.92000 5.119
43.94000 4.738
43.96000 4.621
43.98000 7.822
44.00000 5.806
44.02000 3.163
44.04000 1.069
44.06000 1.514
44.08000 2.040
44.10000 6.292
44.12000 7.877
44.14000 1.660
44.16000 -3.409
44.18000 -3.408
44.20000 0.287
44.22000 0.779
44.24000 2.921
44.26000 5.311
44.28000 2.595
44.30000 0.536
44.32000 -0.535
44.34000 1.179
44.36000 3.445
44.38000 3.571
44.40000 -0.051
44.42000 4.805
44.44000 2.960
44.46000 5.008
44.48000 5.448
44.50000 1.718
44.52000 -0.030
44.54000 4.759
44.56000 6.354
44.58000 4.847
44.60000 6.376
44.62000 5.786
44.64000 5.750
44.66000 5.899
44.68000 4.133
44.70000 -0.246
44.72000 0.541
44.74000 1.975
44.76000 5.634
44.78000 2.285
44.80000 3.578
44.82000 4.890
44.84000 5.547
44.86000 4.635
44.88000 1.487
44.90000 0.493
44.92000 9.005
44.94000 7.522
44.96000 7.227
44.98000 4.152
45.00000 2.515
45.02000 -3.433
45.04000 4.734
45.06000 5.142
45.08000 3.892
45.10000 6.365
45.12000 8.819
45.14000 9.364
45.16000 4.116
45.18000 2.304
45.20000 6.048
45.22000 8.060
45.24000 2.994
45.26000 2.500
45.28000 2.731
45.30000 3.046
45.32000 4.853
45.34000 2.767
45.36000 1.261
45.38000 3.560
45.40000 6.765
45.42000 3.872
45.44000 4.405
45.46000 3.067
45.48000 5.917
45.50000 9.399
45.52000 8.159
45.54000 6.952
45.56000 10.782
45.58000 14.166
45.60000 10.660
45.62000 4.194
45.64000 9.030
45.66000 9.212
45.68000 7.486
45.70000 12.613
45.72000 8.433
45.74000 15.611
45.76000 15.806
45.78000 17.533
45.80000 11.477
45.82000 15.563
45.84000 17.761
45.86000 16.189
45.88000 14.311
45.90000 16.589
45.92000 22.825
45.94000 22.412
45.96000 20.279
45.98000 24.243
46.00000 27.151
46.02000 25.262
46.04000 20.735
46.06000 23.056
46.08000 29.455
46.10000 28.225
46.12000 30.881
46.14000 29.633
46.16000 34.360
46.18000 35.706
46.20000 36.400
46.22000 32.319
46.24000 31.423
46.26000 33.390
46.28000 36.051
46.30000 36.874
46.32000 39.311
46.34000 35.914
46.36000 35.061
46.38000 42.303
46.40000 48.787
46.42000 46.007
46.44000 44.331
46.46000 45.395
46.48000 48.736
46.50000 52.870
46.52000 48.605
46.54000 45.294
46.56000 49.768
46.58000 52.811
46.60000 56.735
46.62000 54.913
46.64000 55.937
46.66000 54.422
46.68000 61.754
46.70000 58.737
46.72000 65.523
46.74000 70.754
46.76000 65.858
46.78000 65.319
46.80000 65.842
46.82000 64.075
46.84000 68.363
46.86000 71.806
46.88000 70.497
46.90000 74.333
46.92000 75.992
46.94000 76.602
46.96000 77.474
46.98000 76.086
47.00000 85.050
47.02000 77.683
47.04000 76.908
47.06000 76.987
47.08000 77.583
47.10000 78.855
47.12000 78.809
47.14000 75.095
47.16000 71.952
47.18000 76.436
47.20000 75.345
47.22000 75.832
47.24000 73.204
47.26000 74.808
47.28000 72.893
47.30000 66.345
47.32000 68.951
47.34000 65.519
47.36000 71.663
47.38000 69.304
47.40000 68.507
47.42000 67.152
47.44000 72.150
47.46000 67.007
47.48000 60.156
47.50000 62.706
47.52000 63.415
47.54000 63.859
47.56000 61.665
47.58000 57.945
47.60000 62.076
47.62000 62.018
47.64000 57.393
47.66000 52.772
47.68000 51.002
47.70000 47.783
47.72000 46.692
47.74000 50.610
47.76000 53.941
47.78000 46.362
47.80000 42.379
47.82000 41.645
47.84000 41.063
47.86000 36.977
47.88000 34.956
47.90000 36.724
47.92000 35.480
47.94000 30.247
47.96000 31.596
47.98000 29.199
48.00000 30.163
48.02000 30.731
48.04000 30.735
48.06000 25.656
48.08000 23.173
48.10000 20.498
48.12000 18.438
48.14000 18.380
48.16000 23.874
48.18000 25.201
48.20000 21.691
48.22000 18.820
48.24000 16.850
48.26000 14.698
48.28000 14.873
48.30000 14.152
48.32000 13.735
48.34000 14.413
48.36000 8.185
48.38000 5.848
48.40000 8.915
48.42000 9.056
48.44000 3.225
48.46000 5.643
48.48000 10.261
48.50000 10.281
48.52000 8.927
48.54000 7.082
48.56000 9.759
48.58000 12.402
48.60000 8.045
48.62000 4.895
48.64000 8.012
48.66000 3.916
48.68000 2.969
48.70000 1.222
48.72000 0.910
48.74000 3.718
48.76000 0.316
48.78000 2.549
48.80000 1.100
48.82000 -0.544
48.84000 4.822
48.86000 2.974
48.88000 3.346
48.90000 7.472
48.92000 6.404
48.94000 -0.546
48.96000 -0.908
48.98000 4.492
49.00000 2.829
49.02000 -2.200
49.04000 -3.118
49.06000 1.628
49.08000 4.579
49.10000 4.682
49.12000 5.539
49.14000 0.495
49.16000 2.502
49.18000 1.418
49.20000 4.390
49.22000 1.418
49.24000 4.191
49.26000 0.643
49.28000 -2.051
49.30000 -2.484
49.32000 1.771
49.34000 -0.889
49.36000 1.693
49.38000 -2.273
49.40000 -1.828
49.42000 -0.705
49.44000 -1.749
49.46000 0.001
49.48000 -0.120
49.50000 1.474
49.52000 0.946
49.54000 -0.233
49.56000 0.235
49.58000 3.543
49.60000 1.954
49.62000 -1.633
49.64000 -2.466
49.66000 4.818
49.68000 5.058
49.70000 -0.766
49.72000 -2.872
49.74000 -1.306
49.76000 -0.348
49.78000 -3.038
49.80000 -1.813
49.82000 1.542
49.84000 0.100
49.86000 0.687
49.88000 0.368
49.90000 4.547
49.92000 -0.402
49.94000 -1.511
49.96000 -1.917
49.98000 -0.678
50.00000 -2.653
50.02000 -2.119
50.04000 4.993
50.06000 7.869
50.08000 4.677
50.10000 1.491
50.12000 4.381
50.14000 6.449
50.16000 -0.225
50.18000 -0.730
50.20000 -2.308
50.22000 -2.979
50.24000 0.572
50.26000 0.834
50.28000 -1.148
50.30000 2.584
50.32000 1.403
50.34000 1.983
50.36000 3.009
50.38000 3.488
50.40000 6.275
50.42000 5.178
50.44000 3.653
50.46000 -0.813
50.48000 -1.955
50.50000 -1.779
50.52000 3.224
50.54000 0.545
50.56000 0.221
50.58000 0.099
50.60000 -0.245
50.62000 0.195
50.64000 3.573
50.66000 0.411
50.68000 3.460
50.70000 8.174
50.72000 4.888
50.74000 2.142
50.76000 2.811
50.78000 4.586
50.80000 -1.022
50.82000 1.434
50.84000 1.712
50.86000 3.841
50.88000 6.134
50.90000 9.048
50.92000 6.004
50.94000 5.548
50.96000 7.682
50.98000 10.349
51.00000 4.913
51.02000 1.702
51.04000 2.752
51.06000 7.563
51.08000 7.552
51.10000 5.245
51.12000 6.967
51.14000 9.380
51.16000 5.256
51.18000 4.469
51.20000 4.346
51.22000 -1.439
51.24000 -2.869
51.26000 -2.202
51.28000 -2.869
51.30000 3.571
51.32000 5.005
51.34000 -0.770
51.36000 1.740
51.38000 10.295
51.40000 6.027
51.42000 3.703
51.44000 4.110
51.46000 6.061
51.48000 6.998
51.50000 2.482
51.52000 2.150
51.54000 -1.056
51.56000 -1.015
51.58000 5.441
51.60000 6.912
51.62000 1.937
51.64000 0.209
51.66000 2.178
51.68000 -0.464
51.70000 2.409
51.72000 4.630
51.74000 4.793
51.76000 1.753
51.78000 1.752
51.80000 5.014
51.82000 2.910
51.84000 2.799
51.86000 5.327
51.88000 4.188
51.90000 2.922
51.92000 5.754
51.94000 3.874
51.96000 -0.749
51.98000 -1.447
52.00000 2.636
52.02000 3.143
52.04000 1.204
52.06000 4.074
52.08000 2.504
52.10000 -0.208
52.12000 -0.887
52.14000 3.547
52.16000 4.878
52.18000 1.578
52.20000 3.825
52.22000 6.755
52.24000 4.224
52.26000 -2.350
52.28000 -1.852
52.30000 -1.285
52.32000 -0.492
52.34000 -1.517
52.36000 1.261
52.38000 1.918
52.40000 -2.856
52.42000 0.120
52.44000 0.074
52.46000 3.367
52.48000 6.558
52.50000 4.262
52.52000 1.126
52.54000 0.475
52.56000 -1.816
52.58000 1.387
52.60000 -0.799
52.62000 1.965
52.64000 3.140
52.66000 -1.940
52.68000 5.246
52.70000 10.752
52.72000 1.466
52.74000 -1.351
52.76000 0.867
52.78000 1.641
52.80000 2.875
52.82000 3.235
52.84000 0.439
52.86000 3.217
52.88000 7.221
52.90000 2.674
52.92000 -2.840
52.94000 -0.769
52.96000 1.600
52.98000 1.539
53.00000 3.413
53.02000 3.107
53.04000 4.539
53.06000 0.380
53.08000 2.264
53.10000 6.256
53.12000 5.613
53.14000 0.073
53.16000 2.944
53.18000 3.030
53.20000 2.946
53.22000 2.902
53.24000 -0.147
53.26000 2.371
53.28000 5.097
53.30000 1.450
53.32000 4.086
53.34000 -2.399
53.36000 2.551
53.38000 3.524
53.40000 6.579
53.42000 9.137
53.44000 2.261
53.46000 0.372
53.48000 1.130
53.50000 3.284
53.52000 3.340
53.54000 -0.500
53.56000 2.097
53.58000 3.390
53.60000 3.062
53.62000 2.438
53.64000 3.803
53.66000 -0.233
53.68000 1.556
53.70000 2.859
53.72000 4.090
53.74000 5.021
53.76000 6.223
53.78000 4.730
53.80000 2.609
53.82000 2.700
53.84000 -0.935
53.86000 -1.682
53.88000 3.452
53.90000 1.987
53.92000 -0.872
53.94000 -2.801
53.96000 1.359
53.98000 1.652
54.00000 2.574
54.02000 3.509
54.04000 -1.590
54.06000 0.230
54.08000 1.441
54.10000 0.583
54.12000 1.853
54.14000 2.715
54.16000 5.339
54.18000 -0.989
54.20000 2.255
54.22000 3.355
54.24000 0.558
54.26000 2.879
54.28000 5.558
54.30000 0.711
54.32000 -0.169
54.34000 3.874
54.36000 2.962
54.38000 3.900
54.40000 2.004
54.42000 3.645
54.44000 3.109
54.46000 1.399
54.48000 2.558
54.50000 3.065
54.52000 2.415
54.54000 2.056
54.56000 5.312
54.58000 6.073
54.60000 2.420
54.62000 -0.878
54.64000 1.652
54.66000 7.042
54.68000 2.963
54.70000 1.694
54.72000 -0.088
54.74000 6.132
54.76000 1.713
54.78000 -2.415
54.80000 -2.775
54.82000 3.967
54.84000 2.036
54.86000 -1.725
54.88000 1.901
54.90000 3.307
54.92000 7.434
54.94000 5.285
54.96000 2.001
54.98000 1.336
55.00000 0.872
55.02000 3.203
55.04000 1.783
55.06000 1.093
55.08000 3.024
55.10000 2.805
55.12000 1.179
55.14000 0.634
55.16000 0.744
55.18000 2.330
55.20000 4.554
55.22000 1.389
55.24000 1.247
55.26000 2.654
55.28000 3.419
55.30000 3.087
55.32000 -2.766
55.34000 2.689
55.36000 4.778
55.38000 0.758
55.40000 0.276
55.42000 2.422
55.44000 3.565
55.46000 0.917
55.48000 -2.766
55.50000 0.060
55.52000 5.185
55.54000 3.967
55.56000 4.952
55.58000 1.942
55.60000 1.390
55.62000 2.187
55.64000 0.905
55.66000 -1.474
55.68000 0.519
55.70000 2.246
55.72000 -0.769
55.74000 -1.202
55.76000 1.701
55.78000 3.880
55.80000 0.243
55.82000 -2.085
55.84000 1.530
55.86000 2.009
55.88000 1.216
55.90000 3.282
55.92000 3.341
55.94000 2.806
55.96000 1.439
55.98000 4.760
56.00000 0.430
56.02000 2.591
56.04000 1.566
56.06000 -0.396
56.08000 0.456
56.10000 1.322
56.12000 0.940
56.14000 8.065
56.16000 2.755
56.18000 0.500
56.20000 3.419
56.22000 2.646
56.24000 5.232
56.26000 3.427
56.28000 1.564
56.30000 3.980
56.32000 4.370
56.34000 1.123
56.36000 3.118
56.38000 4.579
56.40000 6.875
56.42000 7.223
56.44000 0.971
56.46000 1.040
56.48000 2.828
56.50000 -0.170
56.52000 1.318
56.54000 2.786
56.56000 3.163
56.58000 4.227
56.60000 -0.323
56.62000 0.264
56.64000 -2.678
56.66000 2.134
56.68000 7.665
56.70000 1.831
56.72000 -1.369
56.74000 4.802
56.76000 3.470
56.78000 3.408
56.80000 -0.987
56.82000 -2.204
56.84000 -0.658
56.86000 -0.876
56.88000 -2.725
56.90000 0.149
56.92000 2.630
56.94000 5.331
56.96000 2.432
56.98000 0.570
57.00000 1.865
57.02000 0.877
57.04000 2.723
57.06000 4.315
57.08000 3.684
57.10000 3.363
57.12000 1.401
57.14000 2.915
57.16000 0.686
57.18000 1.074
57.20000 0.565
57.22000 0.164
57.24000 2.918
57.26000 -1.388
57.28000 -1.453
57.30000 1.239
57.32000 2.312
57.34000 1.782
57.36000 0.156
57.38000 -1.282
57.40000 2.644
57.42000 2.119
57.44000 -0.038
57.46000 -1.483
57.48000 1.512
57.50000 0.815
57.52000 -0.649
57.54000 -0.278
57.56000 2.589
57.58000 4.280
57.60000 7.082
57.62000 1.936
57.64000 -2.690
57.66000 1.486
57.68000 7.550
57.70000 7.969
57.72000 3.736
57.74000 3.480
57.76000 3.743
57.78000 1.309
57.80000 0.787
57.82000 1.277
57.84000 7.403
57.86000 7.140
57.88000 5.229
57.90000 2.106
57.92000 0.604
57.94000 -1.769
57.96000 -2.668
57.98000 0.123
58.00000 3.209
58.02000 -1.713
58.04000 2.609
58.06000 5.346
58.08000 8.421
58.10000 7.141
58.12000 5.767
58.14000 1.362
58.16000 1.236
58.18000 0.429
58.20000 0.558
58.22000 3.381
58.24000 4.288
58.26000 4.304
58.28000 3.183
58.30000 1.863
58.32000 3.490
58.34000 3.930
58.36000 0.022
58.38000 1.446
58.40000 0.649
58.42000 0.008
58.44000 3.050
58.46000 1.585
58.48000 2.058
58.50000 2.647
58.52000 4.887
58.54000 5.769
58.56000 9.096
58.58000 5.818
58.60000 2.905
58.62000 7.456
58.64000 4.973
58.66000 7.738
58.68000 5.766
58.70000 3.337
58.72000 3.023
58.74000 1.565
58.76000 -1.316
58.78000 -0.806
58.80000 1.888
58.82000 7.442
58.84000 3.804
58.86000 0.113
58.88000 -2.633
58.90000 -1.647
58.92000 1.459
58.94000 2.198
58.96000 3.315
58.98000 6.743
59.00000 1.284
59.02000 3.529
59.04000 1.607
59.06000 -1.034
59.08000 -0.446
59.10000 2.597
59.12000 4.736
59.14000 6.006
59.16000 1.985
59.18000 1.367
59.20000 -1.734
59.22000 0.473
59.24000 4.048
59.26000 7.959
59.28000 7.624
59.30000 1.849
59.32000 1.642
59.34000 3.930
59.36000 2.330
59.38000 3.135
59.40000 0.475
59.42000 0.450
59.44000 2.356
59.46000 1.306
59.48000 2.373
59.50000 -2.621
59.52000 2.444
59.54000 3.163
59.56000 1.665
59.58000 -1.017
59.60000 5.742
59.62000 3.268
59.64000 0.798
59.66000 0.699
59.68000 4.136
59.70000 5.323
59.72000 6.404
59.74000 2.974
59.76000 3.519
59.78000 2.028
59.80000 2.354
59.82000 -0.164
59.84000 -1.141
59.86000 6.503
59.88000 1.734
59.90000 3.437
59.92000 1.657
59.94000 5.742
59.96000 2.390
59.98000 2.218
60.00000 4.000
60.02000 2.856
60.04000 0.953
60.06000 -2.221
60.08000 -1.167
60.10000 0.737
60.12000 1.464
60.14000 -1.529
60.16000 0.396
60.18000 1.200
60.20000 2.347
60.22000 2.056
60.24000 6.215
60.26000 10.783
60.28000 5.546
60.30000 2.305
60.32000 1.801
60.34000 2.748
60.36000 1.319
60.38000 -1.475
60.40000 0.587
60.42000 4.228
60.44000 4.209
60.46000 -0.249
60.48000 6.120
60.50000 3.315
60.52000 6.177
60.54000 3.206
60.56000 -0.042
60.58000 0.863
60.60000 2.201
60.62000 1.429
60.64000 -1.285
60.66000 -2.278
60.68000 1.137
60.70000 4.446
60.72000 -0.040
60.74000 0.418
60.76000 1.472
60.78000 0.489
60.80000 -2.478
60.82000 1.208
60.84000 3.288
60.86000 3.196
60.88000 0.980
60.90000 5.302
60.92000 4.519
60.94000 2.645
60.96000 4.429
60.98000 -1.633
61.00000 2.320
61.02000 1.045
61.04000 1.684
61.06000 5.031
61.08000 2.560
61.10000 2.888
61.12000 3.634
61.14000 4.326
61.16000 4.178
61.18000 1.375
61.20000 2.833
61.22000 8.324
61.24000 9.747
61.26000 4.240
61.28000 2.067
61.30000 3.249
61.32000 -2.532
61.34000 -2.534
61.36000 4.842
61.38000 1.155
61.40000 5.510
61.42000 4.315
61.44000 0.199
61.46000 0.300
61.48000 4.117
61.50000 0.083
61.52000 -0.435
61.54000 0.976
61.56000 2.068
61.58000 5.135
61.60000 6.528
61.62000 5.984
61.64000 8.473
61.66000 6.424
61.68000 -0.428
61.70000 3.974
61.72000 0.576
61.74000 -0.438
61.76000 0.836
61.78000 4.852
61.80000 6.966
61.82000 1.619
61.84000 2.534
61.86000 6.573
61.88000 5.756
61.90000 1.051
61.92000 0.502
61.94000 2.932
61.96000 4.023
61.98000 4.787
62.00000 6.453
62.02000 3.000
62.04000 -0.887
62.06000 -0.196
62.08000 5.200
62.10000 5.481
62.12000 3.016
62.14000 -0.857
62.16000 0.220
62.18000 -0.425
62.20000 -0.103
62.22000 1.377
62.24000 -0.545
62.26000 -0.826
62.28000 -2.325
62.30000 1.014
62.32000 7.540
62.34000 4.011
62.36000 2.117
62.38000 1.044
62.40000 3.146
62.42000 1.479
62.44000 1.361
62.46000 -0.811
62.48000 -1.637
62.50000 1.806
62.52000 -1.760
62.54000 -1.864
62.56000 -1.590
62.58000 -2.359
62.60000 -0.063
62.62000 0.659
62.64000 2.066
62.66000 3.748
62.68000 -2.218
62.70000 0.298
62.72000 2.388
62.74000 1.734
62.76000 4.441
62.78000 3.837
62.80000 1.824
62.82000 3.515
62.84000 3.556
62.86000 3.045
62.88000 4.580
62.90000 0.619
62.92000 5.714
62.94000 6.953
62.96000 5.208
62.98000 4.271
63.00000 0.899
63.02000 -1.378
63.04000 1.410
63.06000 5.023
63.08000 2.556
63.10000 0.509
63.12000 -0.698
63.14000 0.029
63.16000 -1.147
63.18000 1.287
63.20000 5.470
63.22000 11.371
63.24000 7.735
63.26000 6.556
63.28000 5.758
63.30000 1.587
63.32000 1.480
63.34000 1.661
63.36000 2.472
63.38000 0.139
63.40000 -2.528
63.42000 -2.527
63.44000 1.646
63.46000 2.323
63.48000 2.183
63.50000 5.622
63.52000 4.566
63.54000 0.207
63.56000 2.012
63.58000 5.313
63.60000 2.621
63.62000 3.204
63.64000 1.159
63.66000 0.108
63.68000 2.891
63.70000 1.374
63.72000 1.947
63.74000 1.711
63.76000 1.832
63.78000 0.825
63.80000 6.393
63.82000 6.481
63.84000 2.573
63.86000 4.308
63.88000 2.710
63.90000 -1.164
63.92000 0.934
63.94000 2.960
63.96000 0.249
63.98000 0.768
64.00000 4.575
64.02000 3.181
64.04000 1.559
64.06000 4.124
64.08000 4.654
64.10000 4.251
64.12000 1.897
64.14000 2.706
64.16000 1.516
64.18000 -0.676
64.20000 -1.038
64.22000 -1.673
64.24000 0.578
64.26000 -0.021
64.28000 -0.506
64.30000 2.666
64.32000 4.441
64.34000 0.956
64.36000 1.845
64.38000 1.070
64.40000 -0.162
64.42000 1.450
64.44000 0.717
64.46000 0.932
64.48000 -2.556
64.50000 -2.447
64.52000 -0.384
64.54000 1.050
64.56000 5.315
64.58000 3.720
64.60000 4.811
64.62000 3.953
64.64000 1.463
64.66000 0.667
64.68000 0.400
64.70000 1.523
64.72000 2.789
64.74000 6.213
64.76000 5.444
64.78000 1.358
64.80000 1.275
64.82000 2.844
64.84000 2.626
64.86000 1.920
64.88000 1.260
64.90000 -0.253
64.92000 3.603
64.94000 1.047
64.96000 1.794
64.98000 2.899
65.00000 2.624
65.02000 3.314
65.04000 1.020
65.06000 1.197
65.08000 0.913
65.10000 1.262
65.12000 1.859
65.14000 2.622
65.16000 1.566
65.18000 3.334
65.20000 -2.552
65.22000 1.559
65.24000 1.283
65.26000 0.305
65.28000 1.589
65.30000 0.429
65.32000 -2.183
65.34000 -1.439
65.36000 0.320
65.38000 1.862
65.40000 0.824
65.42000 0.454
65.44000 -1.439
65.46000 0.325
65.48000 -1.721
65.50000 2.000
65.52000 4.842
65.54000 2.547
65.56000 2.230
65.58000 -0.707
65.60000 0.850
65.62000 -0.438
65.64000 0.083
65.66000 1.887
65.68000 2.792
65.70000 2.331
65.72000 1.294
65.74000 0.809
65.76000 0.399
65.78000 4.048
65.80000 5.499
65.82000 6.944
65.84000 2.771
65.86000 -1.185
65.88000 -2.581
65.90000 0.000
65.92000 1.792
65.94000 2.544
65.96000 -1.166
65.98000 -0.480
66.00000 0.993
66.02000 4.428
66.04000 3.537
66.06000 0.448
66.08000 0.061
66.10000 0.906
66.12000 -0.993
66.14000 -1.579
66.16000 0.710
66.18000 1.210
66.20000 -0.395
66.22000 -2.189
66.24000 -1.228
66.26000 2.037
66.28000 3.283
66.30000 1.581
66.32000 0.790
66.34000 -0.175
66.36000 2.081
66.38000 3.202
66.40000 0.925
66.42000 -2.397
66.44000 -1.229
66.46000 -1.749
66.48000 -0.495
66.50000 -0.358
66.52000 3.825
66.54000 0.294
66.56000 1.275
66.58000 1.370
66.60000 -0.419
66.62000 -1.727
66.64000 -1.392
66.66000 2.182
66.68000 2.491
66.70000 4.115
66.72000 1.732
66.74000 1.517
66.76000 -0.708
66.78000 -0.663
66.80000 0.214
66.82000 2.710
66.84000 3.395
66.86000 2.464
66.88000 1.552
66.90000 3.065
66.92000 2.378
66.94000 0.983
66.96000 3.339
66.98000 -2.505
67.00000 -2.629
67.02000 -0.649
67.04000 0.604
67.06000 2.281
67.08000 3.668
67.10000 1.223
67.12000 1.578
67.14000 5.900
67.16000 6.677
67.18000 3.756
67.20000 3.187
67.22000 4.833
67.24000 3.764
67.26000 1.399
67.28000 0.948
67.30000 1.528
67.32000 -0.075
67.34000 2.821
67.36000 4.946
67.38000 4.110
67.40000 4.551
67.42000 1.787
67.44000 3.667
67.46000 4.260
67.48000 5.136
67.50000 3.690
67.52000 3.419
67.54000 2.158
67.56000 2.506
67.58000 0.910
67.60000 7.632
67.62000 7.015
67.64000 2.154
67.66000 2.643
67.68000 0.750
67.70000 1.063
67.72000 6.408
67.74000 5.976
67.76000 7.551
67.78000 4.740
67.80000 7.036
67.82000 5.036
67.84000 7.192
67.86000 9.769
67.88000 10.700
67.90000 6.368
67.92000 7.234
67.94000 6.700
67.96000 5.877
67.98000 6.831
68.00000 5.655
68.02000 6.437
68.04000 8.710
68.06000 8.849
68.08000 12.204
68.10000 9.125
68.12000 7.028
68.14000 9.690
68.16000 12.912
68.18000 11.575
68.20000 10.673
68.22000 13.167
68.24000 13.532
68.26000 13.177
68.28000 16.913
68.30000 15.111
68.32000 16.460
68.34000 21.429
68.36000 13.912
68.38000 15.184
68.40000 16.733
68.42000 17.100
68.44000 22.756
68.46000 21.153
68.48000 21.409
68.50000 19.137
68.52000 18.305
68.54000 20.732
68.56000 19.704
68.58000 21.151
68.60000 21.654
68.62000 19.356
68.64000 21.914
68.66000 21.480
68.68000 21.871
68.70000 25.705
68.72000 26.866
68.74000 24.175
68.76000 22.279
68.78000 20.768
68.80000 28.311
68.82000 25.977
68.84000 19.053
68.86000 23.070
68.88000 25.409
68.90000 27.024
68.92000 22.950
68.94000 20.091
68.96000 23.537
68.98000 25.088
69.00000 21.322
69.02000 22.538
69.04000 22.985
69.06000 18.184
69.08000 18.838
69.10000 21.013
69.12000 24.123
69.14000 20.577
69.16000 19.523
69.18000 18.269
69.20000 17.922
69.22000 21.936
69.24000 17.952
69.26000 19.412
69.28000 22.399
69.30000 20.292
69.32000 20.803
69.34000 19.416
69.36000 14.382
69.38000 17.422
69.40000 21.078
69.42000 16.280
69.44000 13.218
69.46000 14.817
69.48000 19.109
69.50000 17.777
69.52000 15.962
69.54000 12.321
69.56000 7.809
69.58000 8.894
69.60000 14.632
69.62000 15.438
69.64000 7.702
69.66000 5.047
69.68000 5.650
69.70000 9.359
69.72000 7.119
69.74000 3.125
69.76000 4.418
69.78000 11.489
69.80000 11.378
69.82000 5.722
69.84000 3.088
69.86000 6.069
69.88000 5.864
69.90000 5.769
69.92000 5.968
69.94000 10.084
69.96000 12.133
69.98000 7.920
70.00000 5.057
70.02000 4.830
70.04000 5.889
70.06000 5.501
70.08000 2.940
70.10000 6.280
70.12000 4.052
70.14000 7.413
70.16000 7.711
70.18000 7.476
70.20000 8.827
70.22000 3.182
70.24000 0.698
70.26000 5.590
70.28000 3.057
70.30000 0.093
70.32000 2.145
70.34000 0.189
70.36000 3.644
70.38000 3.245
70.40000 -0.428
70.42000 1.482
70.44000 3.036
70.46000 5.072
70.48000 4.659
70.50000 2.826
70.52000 -1.227
70.54000 6.936
70.56000 6.380
70.58000 4.104
70.60000 3.228
70.62000 -2.331
70.64000 -2.475
70.66000 4.300
70.68000 0.993
70.70000 3.845
70.72000 7.615
70.74000 6.563
70.76000 1.704
70.78000 1.384
70.80000 6.168
70.82000 5.467
70.84000 4.223
70.86000 6.340
70.88000 7.094
70.90000 2.349
70.92000 4.451
70.94000 9.395
70.96000 3.150
70.98000 4.196
71.00000 5.832
71.02000 1.963
71.04000 -2.435
71.06000 0.982
71.08000 5.119
71.10000 7.360
71.12000 5.819
71.14000 5.249
71.16000 6.706
71.18000 4.744
71.20000 2.681
71.22000 1.531
71.24000 -0.088
71.26000 3.034
71.28000 3.559
71.30000 4.196
71.32000 7.488
71.34000 5.394
71.36000 -0.172
71.38000 2.516
71.40000 2.017
71.42000 3.990
71.44000 5.409
71.46000 5.426
71.48000 2.488
71.50000 1.167
71.52000 5.029
71.54000 1.283
71.56000 1.603
71.58000 3.080
71.60000 4.098
71.62000 3.938
71.64000 1.790
71.66000 2.697
71.68000 1.545
71.70000 3.601
71.72000 3.852
71.74000 7.071
71.76000 2.907
71.78000 6.130
71.80000 4.749
71.82000 9.352
71.84000 9.412
71.86000 6.709
71.88000 1.809
71.90000 1.830
71.92000 4.551
71.94000 2.807
71.96000 4.852
71.98000 3.578
72.00000 6.622
72.02000 4.332
72.04000 5.286
72.06000 7.702
72.08000 2.054
72.10000 1.723
72.12000 2.343
72.14000 0.505
72.16000 1.459
72.18000 1.187
72.20000 0.768
72.22000 2.979
72.24000 3.641
72.26000 -0.423
72.28000 -0.392
72.30000 0.896
72.32000 5.805
72.34000 6.255
72.36000 3.177
72.38000 4.490
72.40000 2.274
72.42000 4.801
72.44000 5.174
72.46000 8.250
72.48000 1.705
72.50000 0.906
72.52000 0.524
72.54000 -0.689
72.56000 1.465
72.58000 0.903
72.60000 -0.147
72.62000 0.316
72.64000 4.065
72.66000 6.176
72.68000 1.765
72.70000 4.350
72.72000 4.343
72.74000 4.558
72.76000 8.739
72.78000 4.626
72.80000 7.293
72.82000 4.868
72.84000 4.376
72.86000 2.122
72.88000 8.060
72.90000 4.673
72.92000 2.664
72.94000 5.151
72.96000 5.030
72.98000 1.724
73.00000 3.756
73.02000 4.466
73.04000 4.886
73.06000 5.488
73.08000 5.377
73.10000 7.698
73.12000 1.287
73.14000 -2.319
73.16000 0.955
73.18000 2.265
73.20000 6.408
73.22000 5.103
73.24000 7.479
73.26000 7.208
73.28000 3.428
73.30000 3.724
73.32000 7.008
73.34000 4.033
73.36000 3.095
73.38000 -1.154
73.40000 3.079
73.42000 4.588
73.44000 4.588
73.46000 4.972
73.48000 5.026
73.50000 9.497
73.52000 10.158
73.54000 6.832
73.56000 7.448
73.58000 5.027
73.60000 7.071
73.62000 6.240
73.64000 8.006
73.66000 5.379
73.68000 2.085
73.70000 -1.377
73.72000 -1.457
73.74000 0.099
73.76000 2.561
73.78000 3.759
73.80000 10.486
73.82000 6.899
73.84000 1.117
73.86000 -0.445
73.88000 9.000
73.90000 10.886
73.92000 7.277
73.94000 1.879
73.96000 1.966
73.98000 3.064
74.00000 1.233
74.02000 -0.689
74.04000 0.099
74.06000 3.136
74.08000 3.668
74.10000 5.734
74.12000 8.462
74.14000 8.276
74.16000 6.986
74.18000 8.327
74.20000 6.486
74.22000 5.040
74.24000 7.777
74.26000 8.795
74.28000 6.850
74.30000 1.308
74.32000 1.905
74.34000 1.892
74.36000 4.757
74.38000 2.960
74.40000 1.653
74.42000 2.605
74.44000 3.706
74.46000 0.068
74.48000 -2.317
74.50000 2.704
74.52000 6.234
74.54000 8.917
74.56000 3.128
74.58000 5.026
74.60000 4.775
74.62000 2.557
74.64000 5.660
74.66000 2.437
74.68000 4.101
74.70000 4.814
74.72000 4.477
74.74000 0.876
74.76000 0.468
74.78000 2.898
74.80000 0.497
74.82000 2.175
74.84000 4.113
74.86000 4.067
74.88000 3.344
74.90000 -0.106
74.92000 2.927
74.94000 3.376
74.96000 2.117
74.98000 4.105
75.00000 4.988
75.02000 6.932
75.04000 2.287
75.06000 3.637
75.08000 6.058
75.10000 3.070
75.12000 2.318
75.14000 3.146
75.16000 -2.345
75.18000 -0.893
75.20000 1.566
75.22000 2.533
75.24000 3.860
75.26000 2.748
75.28000 3.379
75.30000 2.658
75.32000 1.468
75.34000 7.243
75.36000 5.361
75.38000 -0.604
75.40000 -0.406
75.42000 -0.870
75.44000 -0.849
75.46000 2.348
75.48000 2.480
75.50000 7.803
75.52000 7.042
75.54000 5.494
75.56000 2.297
75.58000 -0.322
75.60000 -0.783
75.62000 -0.563
75.64000 -2.262
75.66000 0.262
75.68000 1.392
75.70000 5.653
75.72000 4.613
75.74000 7.231
75.76000 4.717
75.78000 1.246
75.80000 1.028
75.82000 1.092
75.84000 5.508
75.86000 6.354
75.88000 -0.089
75.90000 -0.728
75.92000 4.687
75.94000 3.660
75.96000 2.956
75.98000 2.190
76.00000 3.737
76.02000 2.163
76.04000 2.937
76.06000 1.491
76.08000 0.864
76.10000 -0.209
76.12000 2.261
76.14000 6.142
76.16000 2.977
76.18000 -1.915
76.20000 -0.540
76.22000 0.255
76.24000 -0.670
76.26000 -2.139
76.28000 -0.745
76.30000 2.800
76.32000 2.764
76.34000 4.605
76.36000 2.138
76.38000 0.463
76.40000 -0.049
76.42000 0.519
76.44000 1.391
76.46000 2.417
76.48000 1.326
76.50000 -0.463
76.52000 1.753
76.54000 2.893
76.56000 6.864
76.58000 4.948
76.60000 2.949
76.62000 2.052
76.64000 2.362
76.66000 5.061
76.68000 2.958
76.70000 0.856
76.72000 2.563
76.74000 -2.381
76.76000 -0.046
76.78000 4.304
76.80000 5.108
76.82000 -0.239
76.84000 -0.429
76.86000 2.281
76.88000 3.118
76.90000 1.647
76.92000 -0.413
76.94000 3.429
76.96000 3.925
76.98000 2.931
77.00000 5.697
77.02000 2.348
77.04000 0.451
77.06000 1.728
77.08000 2.909
77.10000 3.971
77.12000 1.365
77.14000 2.726
77.16000 5.142
77.18000 6.439
77.20000 1.545
77.22000 1.237
77.24000 0.957
77.26000 3.383
77.28000 0.229
77.30000 -0.621
77.32000 0.911
77.34000 1.872
77.36000 -1.361
77.38000 -2.406
77.40000 2.355
77.42000 0.972
77.44000 -0.384
77.46000 -0.249
77.48000 -1.126
77.50000 4.008
77.52000 3.991
77.54000 2.378
77.56000 3.960
77.58000 0.278
77.60000 6.191
77.62000 1.103
77.64000 0.749
77.66000 1.564
77.68000 4.465
77.70000 4.359
77.72000 5.743
77.74000 0.902
77.76000 1.267
77.78000 6.356
77.80000 4.767
77.82000 4.558
77.84000 4.709
77.86000 3.055
77.88000 1.439
77.90000 3.448
77.92000 4.793
77.94000 -0.024
77.96000 -1.605
77.98000 -1.742
78.00000 4.572
78.02000 8.353
78.04000 3.671
78.06000 6.605
78.08000 2.565
78.10000 2.615
78.12000 0.974
78.14000 -1.261
78.16000 0.996
78.18000 -0.329
78.20000 -0.192
78.22000 5.623
78.24000 5.130
78.26000 2.286
78.28000 2.099
78.30000 1.396
78.32000 3.983
78.34000 5.181
78.36000 3.908
78.38000 6.451
78.40000 8.287
78.42000 5.768
78.44000 4.625
78.46000 1.610
78.48000 1.758
78.50000 1.561
78.52000 2.189
78.54000 4.650
78.56000 2.262
78.58000 0.225
78.60000 0.278
78.62000 6.160
78.64000 6.788
78.66000 3.363
78.68000 1.749
78.70000 3.410
78.72000 3.009
78.74000 2.536
78.76000 3.720
78.78000 7.663
78.80000 1.724
78.82000 0.941
78.84000 -0.352
78.86000 -1.547
78.88000 -2.365
78.90000 6.377
78.92000 9.473
78.94000 9.407
78.96000 5.222
78.98000 4.901
79.00000 2.630
79.02000 3.041
79.04000 3.988
79.06000 0.044
79.08000 0.649
79.10000 4.518
79.12000 7.582
79.14000 1.597
79.16000 1.532
79.18000 5.263
79.20000 4.141
79.22000 2.343
79.24000 1.895
79.26000 2.973
79.28000 6.159
79.30000 4.233
79.32000 6.175
79.34000 7.828
79.36000 7.959
79.38000 6.275
79.40000 -0.286
79.42000 -2.407
79.44000 -1.622
79.46000 2.057
79.48000 1.833
79.50000 -0.604
79.52000 -1.511
79.54000 1.491
79.56000 1.994
79.58000 4.151
79.60000 7.980
79.62000 6.944
79.64000 7.057
79.66000 3.934
79.68000 1.047
79.70000 2.785
79.72000 6.701
79.74000 3.972
79.76000 1.252
79.78000 1.287
79.80000 0.098
79.82000 0.318
79.84000 -1.285
79.86000 -1.057
79.88000 0.652
79.90000 -0.103
79.92000 -0.396
79.94000 0.198
79.96000 -1.326
79.98000 0.637
80.00000 3.014
80.02000 4.170
80.04000 0.532
80.06000 3.864
80.08000 6.414
80.10000 5.293
80.12000 2.585
80.14000 -0.334
80.16000 3.983
80.18000 5.063
80.20000 2.248
80.22000 2.964
80.24000 4.479
80.26000 2.456
80.28000 3.584
80.30000 2.892
80.32000 0.455
80.34000 -2.481
80.36000 1.923
80.38000 2.700
80.40000 3.007
80.42000 4.196
80.44000 -0.078
80.46000 -2.028
80.48000 -0.489
80.50000 5.945
80.52000 0.514
80.54000 -0.935
80.56000 0.856
80.58000 -0.035
80.60000 0.737
80.62000 -0.329
80.64000 1.589
80.66000 0.288
80.68000 -1.505
80.70000 -0.800
80.72000 5.664
80.74000 2.416
80.76000 -2.280
80.78000 1.590
80.80000 3.646
80.82000 6.914
80.84000 3.077
80.86000 -0.338
80.88000 0.890
80.90000 0.405
80.92000 0.965
80.94000 3.970
80.96000 3.435
80.98000 3.212
81.00000 6.730
81.02000 0.833
81.04000 2.943
81.06000 8.036
81.08000 6.313
81.10000 1.084
81.12000 -0.988
81.14000 3.197
81.16000 1.011
81.18000 2.427
81.20000 2.240
81.22000 4.959
81.24000 8.021
81.26000 4.496
81.28000 1.775
81.30000 -2.574
81.32000 -0.827
81.34000 2.205
81.36000 2.392
81.38000 7.386
81.40000 2.313
81.42000 1.628
81.44000 -1.744
81.46000 -2.569
81.48000 0.105
81.50000 5.619
81.52000 7.269
81.54000 6.734
81.56000 0.820
81.58000 3.083
81.60000 7.823
81.62000 6.495
81.64000 0.249
81.66000 -0.085
81.68000 4.717
81.70000 5.638
81.72000 2.250
81.74000 -0.599
81.76000 4.711
81.78000 5.441
81.80000 3.664
81.82000 8.423
81.84000 5.771
81.86000 1.131
81.88000 4.004
81.90000 5.802
81.92000 5.218
81.94000 6.361
81.96000 4.610
81.98000 7.311
82.00000 11.676
82.02000 7.866
82.04000 7.228
82.06000 3.940
82.08000 5.977
82.10000 8.475
82.12000 8.909
82.14000 9.655
82.16000 8.702
82.18000 10.268
82.20000 17.681
82.22000 17.466
82.24000 13.227
82.26000 11.281
82.28000 6.462
82.30000 12.054
82.32000 15.538
82.34000 11.277
82.36000 13.669
82.38000 13.878
82.40000 11.586
82.42000 14.908
82.44000 13.768
82.46000 12.522
82.48000 14.586
82.50000 16.192
82.52000 16.249
82.54000 13.683
82.56000 14.578
82.58000 15.304
82.60000 16.452
82.62000 15.172
82.64000 22.244
82.66000 23.003
82.68000 19.029
82.70000 18.363
82.72000 18.973
82.74000 17.747
82.76000 16.271
82.78000 17.830
82.80000 14.873
82.82000 20.602
82.84000 19.750
82.86000 17.417
82.88000 18.695
82.90000 23.277
82.92000 21.383
82.94000 22.463
82.96000 19.292
82.98000 18.203
83.00000 24.564
83.02000 23.150
83.04000 21.300
83.06000 18.787
83.08000 22.265
83.10000 27.974
83.12000 22.122
83.14000 18.411
83.16000 20.515
83.18000 19.593
83.20000 20.932
83.22000 19.047
83.24000 18.603
83.26000 19.063
83.28000 24.145
83.30000 22.310
83.32000 21.690
83.34000 17.231
83.36000 21.669
83.38000 23.550
83.40000 27.133
83.42000 16.803
83.44000 15.062
83.46000 19.038
83.48000 20.357
83.50000 21.214
83.52000 20.602
83.54000 24.795
83.56000 24.733
83.58000 22.565
83.60000 20.190
83.62000 19.096
83.64000 20.165
83.66000 17.899
83.68000 21.163
83.70000 18.080
83.72000 13.771
83.74000 16.467
83.76000 10.711
83.78000 12.496
83.80000 19.024
83.82000 20.374
83.84000 17.446
83.86000 11.668
83.88000 11.183
83.90000 10.331
83.92000 14.609
83.94000 13.196
83.96000 15.185
83.98000 13.054
84.00000 6.770
84.02000 11.784
84.04000 11.157
84.06000 11.831
84.08000 13.160
84.10000 9.029
84.12000 12.191
84.14000 9.479
84.16000 5.906
84.18000 7.423
84.20000 5.726
84.22000 8.374
84.24000 6.277
84.26000 8.676
84.28000 6.499
84.30000 3.173
84.32000 3.321
84.34000 6.558
84.36000 0.974
84.38000 5.858
84.40000 8.769
84.42000 6.854
84.44000 2.324
84.46000 4.121
84.48000 -0.192
84.50000 1.181
84.52000 4.779
84.54000 0.324
84.56000 -1.709
84.58000 -2.128
84.60000 2.643
84.62000 4.694
84.64000 3.222
84.66000 8.002
84.68000 7.830
84.70000 1.404
84.72000 -1.190
84.74000 -2.528
84.76000 1.184
84.78000 0.169
84.80000 6.367
84.82000 6.756
84.84000 2.034
84.86000 3.753
84.88000 6.182
84.90000 3.947
84.92000 2.800
84.94000 2.092
84.96000 0.998
84.98000 1.515
85.00000 3.449
85.02000 3.312
85.04000 -2.493
85.06000 -1.810
85.08000 2.640
85.10000 10.271
85.12000 5.151
85.14000 1.210
85.16000 2.542
85.18000 1.497
85.20000 1.863
85.22000 1.947
85.24000 1.281
85.26000 1.362
85.28000 1.210
85.30000 3.478
85.32000 3.845
85.34000 1.499
85.36000 4.288
85.38000 2.060
85.40000 1.644
85.42000 7.793
85.44000 5.333
85.46000 0.273
85.48000 1.037
85.50000 0.017
85.52000 -1.971
85.54000 4.824
85.56000 6.771
85.58000 6.833
85.60000 -2.441
85.62000 0.329
85.64000 4.526
85.66000 0.390
85.68000 3.971
85.70000 4.714
85.72000 3.133
85.74000 0.361
85.76000 3.263
85.78000 4.731
85.80000 1.718
85.82000 1.203
85.84000 2.999
85.86000 2.647
85.88000 2.712
85.90000 -1.502
85.92000 -2.434
85.94000 -1.825
85.96000 0.026
85.98000 5.396
86.00000 9.181
86.02000 4.553
86.04000 1.613
86.06000 0.493
86.08000 0.275
86.10000 0.013
86.12000 2.144
86.14000 3.012
86.16000 -0.269
86.18000 1.771
86.20000 0.890
86.22000 0.858
86.24000 2.372
86.26000 2.775
86.28000 1.344
86.30000 6.566
86.32000 10.844
86.34000 7.684
86.36000 5.550
86.38000 3.099
86.40000 6.255
86.42000 3.389
86.44000 1.213
86.46000 -1.083
86.48000 3.802
86.50000 7.117
86.52000 8.768
86.54000 3.946
86.56000 1.907
86.58000 1.130
86.60000 4.056
86.62000 2.266
86.64000 3.497
86.66000 5.680
86.68000 5.627
86.70000 3.425
86.72000 4.204
86.74000 10.993
86.76000 9.771
86.78000 6.116
86.80000 8.174
86.82000 5.294
86.84000 5.343
86.86000 8.053
86.88000 7.089
86.90000 4.319
86.92000 7.618
86.94000 6.117
86.96000 9.079
86.98000 11.239
87.00000 8.745
87.02000 5.248
87.04000 9.566
87.06000 14.064
87.08000 8.640
87.10000 6.434
87.12000 6.892
87.14000 6.146
87.16000 9.577
87.18000 9.904
87.20000 8.807
87.22000 10.535
87.24000 11.359
87.26000 9.764
87.28000 15.974
87.30000 18.170
87.32000 12.906
87.34000 13.265
87.36000 16.536
87.38000 15.125
87.40000 16.649
87.42000 11.822
87.44000 16.484
87.46000 14.724
87.48000 10.446
87.50000 10.494
87.52000 17.456
87.54000 21.097
87.56000 20.009
87.58000 18.698
87.60000 17.982
87.62000 17.735
87.64000 19.444
87.66000 23.689
87.68000 23.031
87.70000 19.404
87.72000 18.927
87.74000 17.575
87.76000 15.859
87.78000 14.166
87.80000 18.973
87.82000 19.650
87.84000 15.420
87.86000 16.612
87.88000 21.784
87.90000 20.879
87.92000 19.012
87.94000 16.613
87.96000 17.826
87.98000 20.581
88.00000 20.285
88.02000 19.894
88.04000 12.173
88.06000 10.707
88.08000 9.323
88.10000 13.211
88.12000 14.619
88.14000 14.365
88.16000 14.218
88.18000 17.181
88.20000 20.345
88.22000 17.190
88.24000 12.733
88.26000 9.578
88.28000 11.861
88.30000 13.804
88.32000 16.074
88.34000 11.252
88.36000 10.993
88.38000 8.312
88.40000 8.712
88.42000 13.151
88.44000 6.628
88.46000 8.204
88.48000 11.166
88.50000 7.629
88.52000 10.224
88.54000 10.712
88.56000 7.997
88.58000 5.965
88.60000 12.113
88.62000 13.181
88.64000 10.029
88.66000 7.115
88.68000 3.280
88.70000 1.753
88.72000 8.592
88.74000 8.682
88.76000 4.059
88.78000 3.919
88.80000 -0.471
88.82000 4.576
88.84000 3.790
88.86000 3.541
88.88000 5.876
88.90000 4.807
88.92000 6.413
88.94000 6.063
88.96000 2.039
88.98000 -2.068
89.00000 -2.373
89.02000 5.240
89.04000 7.920
89.06000 6.743
89.08000 3.220
89.10000 3.576
89.12000 2.285
89.14000 5.429
89.16000 6.002
89.18000 2.816
89.20000 0.012
89.22000 1.158
89.24000 4.479
89.26000 3.398
89.28000 0.447
89.30000 3.425
89.32000 4.813
89.34000 4.339
89.36000 3.769
89.38000 4.215
89.40000 4.299
89.42000 5.889
89.44000 1.443
89.46000 5.733
89.48000 4.895
89.50000 6.871
89.52000 10.854
89.54000 3.848
89.56000 3.439
89.58000 7.288
89.60000 0.191
89.62000 0.966
89.64000 0.511
89.66000 7.739
89.68000 4.911
89.70000 3.048
89.72000 4.771
89.74000 3.786
89.76000 1.233
89.78000 6.075
89.80000 7.649
89.82000 4.182
89.84000 3.707
89.86000 0.321
89.88000 2.582
89.90000 -0.517
89.92000 1.033
89.94000 2.396
89.96000 2.478
89.98000 6.620
90.00000 10.088
90.02000 7.166
90.04000 3.204
90.06000 3.026
90.08000 4.495
90.10000 4.006
90.12000 -2.228
90.14000 0.766
90.16000 2.193
90.18000 5.796
90.20000 3.948
90.22000 -0.860
90.24000 6.977
90.26000 10.394
90.28000 4.916
90.30000 3.203
90.32000 2.915
90.34000 5.594
90.36000 6.621
90.38000 2.181
90.40000 0.655
90.42000 0.963
90.44000 9.018
90.46000 5.270
90.48000 3.249
90.50000 0.574
90.52000 3.501
90.54000 -0.111
90.56000 5.014
90.58000 12.117
90.60000 7.991
90.62000 6.613
90.64000 7.628
90.66000 5.289
90.68000 5.025
90.70000 5.368
90.72000 2.797
90.74000 1.080
90.76000 4.958
90.78000 5.266
90.80000 7.127
90.82000 8.954
90.84000 4.169
90.86000 4.712
90.88000 8.018
90.90000 8.122
90.92000 6.639
90.94000 9.970
90.96000 6.257
90.98000 1.665
91.00000 6.339
91.02000 6.488
91.04000 6.572
91.06000 5.075
91.08000 2.478
91.10000 -2.179
91.12000 2.632
91.14000 3.891
91.16000 1.994
91.18000 6.076
91.20000 8.881
91.22000 5.896
91.24000 7.387
91.26000 6.637
91.28000 10.708
91.30000 9.402
91.32000 5.080
91.34000 7.770
91.36000 9.860
91.38000 7.266
91.40000 1.966
91.42000 7.014
91.44000 5.825
91.46000 5.950
91.48000 2.903
91.50000 -0.495
91.52000 1.732
91.54000 2.899
91.56000 2.500
91.58000 2.830
91.60000 0.755
91.62000 0.006
91.64000 1.637
91.66000 11.679
91.68000 12.183
91.70000 7.530
91.72000 5.768
91.74000 -0.860
91.76000 -1.647
91.78000 0.307
91.80000 -1.595
91.82000 -0.034
91.84000 6.058
91.86000 4.859
91.88000 5.441
91.90000 5.352
91.92000 6.388
91.94000 4.475
91.96000 9.800
91.98000 11.171
92.00000 5.996
92.02000 7.510
92.04000 9.376
92.06000 8.138
92.08000 1.249
92.10000 -1.654
92.12000 2.305
92.14000 4.649
92.16000 7.315
92.18000 8.316
92.20000 6.866
92.22000 10.950
92.24000 8.112
92.26000 7.865
92.28000 4.604
92.30000 2.926
92.32000 1.695
92.34000 3.831
92.36000 8.509
92.38000 4.880
92.40000 8.978
92.42000 4.610
92.44000 1.101
92.46000 4.513
92.48000 6.466
92.50000 7.144
92.52000 5.370
92.54000 7.752
92.56000 11.964
92.58000 6.161
92.60000 2.589
92.62000 1.348
92.64000 -2.173
92.66000 3.828
92.68000 6.790
92.70000 4.538
92.72000 8.619
92.74000 7.021
92.76000 6.288
92.78000 5.492
92.80000 1.652
92.82000 4.421
92.84000 7.524
92.86000 7.743
92.88000 9.778
92.90000 3.151
92.92000 2.767
92.94000 8.969
92.96000 7.616
92.98000 4.327
93.00000 8.365
93.02000 5.265
93.04000 8.847
93.06000 12.223
93.08000 10.831
93.10000 5.846
93.12000 5.824
93.14000 5.177
93.16000 4.027
93.18000 7.030
93.20000 5.215
93.22000 8.023
93.24000 4.242
93.26000 5.975
93.28000 7.951
93.30000 10.133
93.32000 11.234
93.34000 9.728
93.36000 6.812
93.38000 3.956
93.40000 3.281
93.42000 6.655
93.44000 8.055
93.46000 7.252
93.48000 11.356
93.50000 7.219
93.52000 5.779
93.54000 10.921
93.56000 7.764
93.58000 6.900
93.60000 7.926
93.62000 8.820
93.64000 6.954
93.66000 5.624
93.68000 1.608
93.70000 3.645
93.72000 7.788
93.74000 4.036
93.76000 8.964
93.78000 8.308
93.80000 6.000
93.82000 3.176
93.84000 0.507
93.86000 1.983
93.88000 9.558
93.90000 3.891
93.92000 4.493
93.94000 5.808
93.96000 9.024
93.98000 1.649
94.00000 -1.880
94.02000 6.631
94.04000 8.790
94.06000 9.669
94.08000 6.369
94.10000 8.913
94.12000 7.212
94.14000 9.107
94.16000 -0.811
94.18000 -1.663
94.20000 -2.208
94.22000 4.693
94.24000 9.890
94.26000 9.924
94.28000 9.046
94.30000 6.869
94.32000 7.118
94.34000 8.809
94.36000 3.856
94.38000 5.289
94.40000 1.155
94.42000 1.841
94.44000 5.328
94.46000 7.647
94.48000 7.161
94.50000 5.709
94.52000 1.830
94.54000 3.238
94.56000 5.367
94.58000 0.468
94.60000 3.059
94.62000 9.560
94.64000 3.825
94.66000 2.508
94.68000 5.842
94.70000 6.290
94.72000 7.257
94.74000 6.882
94.76000 3.733
94.78000 4.248
94.80000 7.446
94.82000 10.726
94.84000 8.820
94.86000 1.930
94.88000 8.379
94.90000 7.003
94.92000 3.878
94.94000 0.867
94.96000 -1.236
94.98000 2.993
95.00000 4.285
95.02000 -0.676
95.04000 1.982
95.06000 3.927
95.08000 -0.098
95.10000 -2.236
95.12000 4.361
95.14000 4.929
95.16000 8.029
95.18000 8.078
95.20000 7.217
95.22000 8.937
95.24000 2.739
95.26000 1.164
95.28000 0.121
95.30000 2.724
95.32000 4.110
95.34000 5.350
95.36000 4.210
95.38000 2.665
95.40000 4.084
95.42000 2.773
95.44000 1.651
95.46000 0.077
95.48000 0.113
95.50000 4.565
95.52000 5.949
95.54000 -0.115
95.56000 2.587
95.58000 4.757
95.60000 5.226
95.62000 1.485
95.64000 7.811
95.66000 6.770
95.68000 5.427
95.70000 7.347
95.72000 5.244
95.74000 4.176
95.76000 2.776
95.78000 3.344
95.80000 2.721
95.82000 2.799
95.84000 2.920
95.86000 5.556
95.88000 5.627
95.90000 -1.832
95.92000 1.505
95.94000 3.153
95.96000 4.394
95.98000 1.088
96.00000 5.789
96.02000 7.833
96.04000 12.332
96.06000 5.856
96.08000 6.326
96.10000 7.919
96.12000 6.509
96.14000 -0.734
96.16000 3.211
96.18000 4.571
96.20000 4.586
96.22000 6.650
96.24000 3.160
96.26000 7.903
96.28000 6.289
96.30000 2.042
96.32000 8.064
96.34000 9.341
96.36000 7.239
96.38000 0.480
96.40000 -2.215
96.42000 6.368
96.44000 12.833
96.46000 10.315
96.48000 9.056
96.50000 0.028
96.52000 1.155
96.54000 4.225
96.56000 13.142
96.58000 12.549
96.60000 13.441
96.62000 10.340
96.64000 7.397
96.66000 2.524
96.68000 4.799
96.70000 12.356
96.72000 12.660
96.74000 8.033
96.76000 7.896
96.78000 11.548
96.80000 8.020
96.82000 6.861
96.84000 7.279
96.86000 7.828
96.88000 10.696
96.90000 13.078
96.92000 9.304
96.94000 9.017
96.96000 2.518
96.98000 1.504
97.00000 2.889
97.02000 7.997
97.04000 8.165
97.06000 7.672
97.08000 9.007
97.10000 10.681
97.12000 7.533
97.14000 4.945
97.16000 4.075
97.18000 8.277
97.20000 13.722
97.22000 11.847
97.24000 10.712
97.26000 8.403
97.28000 4.689
97.30000 7.592
97.32000 2.877
97.34000 1.115
97.36000 11.189
97.38000 12.237
97.40000 7.706
97.42000 6.528
97.44000 7.350
97.46000 4.687
97.48000 6.975
97.50000 4.728
97.52000 6.928
97.54000 12.789
97.56000 6.048
97.58000 7.560
97.60000 9.066
97.62000 1.343
97.64000 5.977
97.66000 5.403
97.68000 13.527
97.70000 17.285
97.72000 15.754
97.74000 11.978
97.76000 14.547
97.78000 12.550
97.80000 10.190
97.82000 9.647
97.84000 12.667
97.86000 9.289
97.88000 5.910
97.90000 9.479
97.92000 5.377
97.94000 6.403
97.96000 5.665
97.98000 9.634
98.00000 7.726
98.02000 4.799
98.04000 7.875
98.06000 3.611
98.08000 -2.109
98.10000 3.022
98.12000 8.504
98.14000 9.269
98.16000 10.202
98.18000 14.995
98.20000 6.690
98.22000 6.960
98.24000 10.131
98.26000 3.529
98.28000 -0.314
98.30000 2.748
98.32000 6.651
98.34000 6.365
98.36000 8.767
98.38000 8.655
98.40000 9.338
98.42000 9.190
98.44000 10.807
98.46000 4.995
98.48000 5.889
98.50000 10.603
98.52000 17.128
98.54000 14.240
98.56000 12.374
98.58000 13.010
98.60000 11.230
98.62000 2.074
98.64000 7.013
98.66000 4.975
98.68000 9.751
98.70000 9.736
98.72000 4.383
98.74000 7.524
98.76000 6.779
98.78000 2.761
98.80000 8.495
98.82000 9.239
98.84000 4.584
98.86000 11.662
98.88000 11.376
98.90000 5.477
98.92000 1.938
98.94000 10.686
98.96000 5.238
98.98000 9.953
99.00000 7.600
99.02000 11.817
99.04000 3.037
99.06000 3.698
99.08000 4.134
99.10000 2.910
99.12000 8.299
99.14000 -1.609
99.16000 2.368
99.18000 5.608
99.20000 -1.396
99.22000 6.342
99.24000 6.742
99.26000 4.734
99.28000 4.598
99.30000 8.473
99.32000 8.375
99.34000 5.455
99.36000 4.417
99.38000 4.614
99.40000 2.588
99.42000 6.537
99.44000 4.061
99.46000 4.269
99.48000 1.272
99.50000 5.171
99.52000 1.015
99.54000 0.487
99.56000 10.774
99.58000 14.630
99.60000 9.883
99.62000 7.254
99.64000 13.191
99.66000 9.219
99.68000 15.970
99.70000 12.348
99.72000 12.672
99.74000 13.034
99.76000 7.809
99.78000 14.560
99.80000 14.752
99.82000 11.940
99.84000 5.495
99.86000 -4.328
99.88000 4.049
99.90000 12.491
99.92000 11.098
99.94000 4.216
99.96000 10.375
99.98000 0.000
