'Id: "0011389" Comment: "Integrate frame 0011389_Au-Ir-Rh_Au-Rich_XRD_Mapping-056-0000.gfrmwith cursor Wedge Cursor #5" Operator: "B?rgel" Anode: "Cu" Wavelength: "1.5406" Scantype: "2Theta (TwoTheta)" TimePerStep: "1" X: "-40.5" Y: "-22.5" Z: "5.95" 
10.00000 0.000
10.02000 -4.870
10.04000 8.035
10.06000 -4.759
10.08000 0.015
10.10000 18.732
10.12000 10.516
10.14000 16.311
10.16000 -4.621
10.18000 -4.609
10.20000 5.455
10.22000 -0.249
10.24000 4.583
10.26000 7.063
10.28000 5.555
10.30000 3.937
10.32000 4.420
10.34000 -3.772
10.36000 13.206
10.38000 -4.860
10.40000 8.126
10.42000 6.686
10.44000 16.022
10.46000 22.464
10.48000 29.311
10.50000 22.829
10.52000 14.301
10.54000 0.228
10.56000 -1.830
10.58000 10.659
10.60000 22.593
10.62000 27.547
10.64000 8.034
10.66000 0.829
10.68000 13.738
10.70000 11.902
10.72000 7.944
10.74000 7.510
10.76000 10.096
10.78000 7.294
10.80000 7.180
10.82000 -4.540
10.84000 6.861
10.86000 0.259
10.88000 -0.651
10.90000 14.043
10.92000 19.412
10.94000 17.838
10.96000 18.294
10.98000 6.005
11.00000 12.088
11.02000 6.185
11.04000 8.388
11.06000 11.765
11.08000 9.848
11.10000 4.593
11.12000 2.674
11.14000 -0.291
11.16000 4.215
11.18000 8.706
11.20000 12.081
11.22000 2.019
11.24000 18.768
11.26000 32.782
11.28000 18.388
11.30000 24.894
11.32000 17.425
11.34000 4.754
11.36000 2.806
11.38000 5.694
11.40000 4.680
11.42000 10.468
11.44000 17.211
11.46000 10.240
11.48000 6.258
11.50000 7.154
11.52000 3.027
11.54000 6.406
11.56000 13.093
11.58000 16.060
11.60000 14.572
11.62000 11.240
11.64000 5.904
11.66000 7.062
11.68000 4.615
11.70000 5.004
11.72000 2.208
11.74000 2.455
11.76000 1.913
11.78000 4.563
11.80000 8.345
11.82000 12.735
11.84000 0.045
11.86000 0.258
11.88000 -2.428
11.90000 3.305
11.92000 10.466
11.94000 20.632
11.96000 12.397
11.98000 6.230
12.00000 9.413
12.02000 -1.514
12.04000 -1.898
12.06000 8.280
12.08000 16.316
12.10000 25.862
12.12000 26.709
12.14000 6.349
12.16000 7.540
12.18000 10.249
12.20000 4.573
12.22000 8.309
12.24000 0.161
12.26000 3.741
12.28000 11.899
12.30000 6.392
12.32000 17.130
12.34000 12.197
12.36000 5.597
12.38000 3.250
12.40000 -2.123
12.42000 2.945
12.44000 10.003
12.46000 2.356
12.48000 1.656
12.50000 3.785
12.52000 8.560
12.54000 5.282
12.56000 2.229
12.58000 9.294
12.60000 6.126
12.62000 7.998
12.64000 5.752
12.66000 -1.254
12.68000 8.647
12.70000 7.699
12.72000 0.975
12.74000 -4.506
12.76000 3.583
12.78000 16.292
12.80000 20.395
12.82000 8.640
12.84000 7.424
12.86000 1.100
12.88000 7.926
12.90000 3.497
12.92000 6.249
12.94000 -2.962
12.96000 3.028
12.98000 11.771
13.00000 13.325
13.02000 14.063
13.04000 10.099
13.06000 9.614
13.08000 12.519
13.10000 13.870
13.12000 13.493
13.14000 11.306
13.16000 1.419
13.18000 21.764
13.20000 22.326
13.22000 12.664
13.24000 13.319
13.26000 10.689
13.28000 1.603
13.30000 6.320
13.32000 8.547
13.34000 1.844
13.36000 4.609
13.38000 9.027
13.40000 16.987
13.42000 15.532
13.44000 9.602
13.46000 3.835
13.48000 9.946
13.50000 9.907
13.52000 5.837
13.54000 2.115
13.56000 6.009
13.58000 5.918
13.60000 6.322
13.62000 2.481
13.64000 2.145
13.66000 6.858
13.68000 8.070
13.70000 2.404
13.72000 -1.903
13.74000 2.902
13.76000 9.693
13.78000 5.625
13.80000 12.221
13.82000 3.557
13.84000 3.233
13.86000 0.155
13.88000 7.858
13.90000 6.704
13.92000 14.201
13.94000 9.062
13.96000 -0.609
13.98000 4.539
14.00000 14.376
14.02000 11.854
14.04000 3.955
14.06000 2.537
14.08000 3.143
14.10000 4.847
14.12000 10.197
14.14000 10.306
14.16000 15.704
14.18000 12.752
14.20000 -0.715
14.22000 3.214
14.24000 6.925
14.26000 10.644
14.28000 9.606
14.30000 8.704
14.32000 2.155
14.34000 7.617
14.36000 11.229
14.38000 3.327
14.40000 1.309
14.42000 10.040
14.44000 7.450
14.46000 5.781
14.48000 11.499
14.50000 12.919
14.52000 10.277
14.54000 16.087
14.56000 4.889
14.58000 -2.362
14.60000 1.391
14.62000 7.366
14.64000 0.614
14.66000 -0.726
14.68000 8.159
14.70000 3.216
14.72000 0.995
14.74000 -1.565
14.76000 1.465
14.78000 2.794
14.80000 3.083
14.82000 6.065
14.84000 1.226
14.86000 3.666
14.88000 1.958
14.90000 2.763
14.92000 10.603
14.94000 18.698
14.96000 15.442
14.98000 15.027
15.00000 9.163
15.02000 -1.577
15.04000 7.191
15.06000 -1.728
15.08000 -0.632
15.10000 1.835
15.12000 1.463
15.14000 -2.565
15.16000 2.410
15.18000 11.191
15.20000 13.747
15.22000 11.444
15.24000 4.347
15.26000 1.489
15.28000 1.694
15.30000 7.736
15.32000 10.902
15.34000 10.317
15.36000 -1.949
15.38000 -4.437
15.40000 -1.203
15.42000 5.417
15.44000 1.699
15.46000 3.280
15.48000 2.773
15.50000 6.957
15.52000 9.224
15.54000 3.309
15.56000 3.555
15.58000 6.091
15.60000 9.387
15.62000 11.438
15.64000 6.869
15.66000 2.978
15.68000 5.297
15.70000 3.298
15.72000 8.148
15.74000 11.065
15.76000 11.356
15.78000 10.824
15.80000 5.187
15.82000 0.729
15.84000 0.353
15.86000 -2.324
15.88000 -3.581
15.90000 7.110
15.92000 12.744
15.94000 3.876
15.96000 5.961
15.98000 9.645
16.00000 7.138
16.02000 7.916
16.04000 8.076
16.06000 -2.843
16.08000 -2.020
16.10000 2.789
16.12000 3.844
16.14000 1.291
16.16000 2.178
16.18000 5.540
16.20000 5.710
16.22000 -0.146
16.24000 3.855
16.26000 6.623
16.28000 6.296
16.30000 10.805
16.32000 10.286
16.34000 6.871
16.36000 5.237
16.38000 -3.452
16.40000 2.750
16.42000 3.373
16.44000 -2.714
16.46000 0.789
16.48000 7.877
16.50000 10.783
16.52000 9.449
16.54000 7.593
16.56000 -4.391
16.58000 2.235
16.60000 14.107
16.62000 5.887
16.64000 11.783
16.66000 4.263
16.68000 3.767
16.70000 10.974
16.72000 13.394
16.74000 11.555
16.76000 5.231
16.78000 8.387
16.80000 7.574
16.82000 7.551
16.84000 17.819
16.86000 11.419
16.88000 10.732
16.90000 5.780
16.92000 -0.058
16.94000 -4.370
16.96000 4.371
16.98000 5.467
17.00000 5.556
17.02000 10.900
17.04000 5.759
17.06000 4.644
17.08000 12.650
17.10000 11.834
17.12000 3.070
17.14000 4.839
17.16000 10.548
17.18000 10.523
17.20000 4.589
17.22000 11.789
17.24000 13.505
17.26000 11.810
17.28000 7.700
17.30000 3.435
17.32000 1.806
17.34000 0.480
17.36000 6.852
17.38000 7.594
17.40000 4.364
17.42000 3.549
17.44000 1.290
17.46000 0.425
17.48000 -1.088
17.50000 -0.879
17.52000 7.542
17.54000 7.912
17.56000 8.146
17.58000 9.764
17.60000 11.128
17.62000 4.769
17.64000 4.603
17.66000 3.378
17.68000 12.122
17.70000 11.752
17.72000 0.462
17.74000 -4.335
17.76000 1.053
17.78000 7.427
17.80000 4.670
17.82000 11.166
17.84000 16.931
17.86000 14.127
17.88000 9.093
17.90000 14.952
17.92000 12.537
17.94000 3.880
17.96000 3.497
17.98000 8.934
18.00000 4.701
18.02000 -2.088
18.04000 -1.293
18.06000 5.535
18.08000 9.645
18.10000 3.611
18.12000 2.653
18.14000 6.723
18.16000 8.448
18.18000 14.518
18.20000 10.337
18.22000 6.903
18.24000 -1.373
18.26000 1.437
18.28000 7.857
18.30000 13.105
18.32000 8.967
18.34000 11.822
18.36000 11.143
18.38000 6.776
18.40000 7.720
18.42000 3.039
18.44000 -2.602
18.46000 4.522
18.48000 -1.772
18.50000 -1.714
18.52000 9.790
18.54000 6.177
18.56000 2.465
18.58000 3.071
18.60000 7.015
18.62000 3.938
18.64000 10.357
18.66000 13.440
18.68000 8.456
18.70000 4.889
18.72000 6.011
18.74000 3.222
18.76000 -3.290
18.78000 2.040
18.80000 0.026
18.82000 3.829
18.84000 6.451
18.86000 9.986
18.88000 6.370
18.90000 8.651
18.92000 7.486
18.94000 2.864
18.96000 -4.266
18.98000 -1.314
19.00000 0.347
19.02000 -0.662
19.04000 5.098
19.06000 3.258
19.08000 3.006
19.10000 1.891
19.12000 5.057
19.14000 6.321
19.16000 1.500
19.18000 2.445
19.20000 6.102
19.22000 14.126
19.24000 10.048
19.26000 8.509
19.28000 11.256
19.30000 7.405
19.32000 3.764
19.34000 10.206
19.36000 8.951
19.38000 2.419
19.40000 1.088
19.42000 4.202
19.44000 2.089
19.46000 -4.230
19.48000 1.251
19.50000 3.142
19.52000 2.766
19.54000 -1.116
19.56000 -1.122
19.58000 6.007
19.60000 11.040
19.62000 11.348
19.64000 10.539
19.66000 3.630
19.68000 3.203
19.70000 4.018
19.72000 2.946
19.74000 8.568
19.76000 3.733
19.78000 -0.640
19.80000 6.056
19.82000 7.848
19.84000 9.285
19.86000 11.993
19.88000 6.200
19.90000 1.092
19.92000 8.738
19.94000 3.469
19.96000 -1.628
19.98000 0.545
20.00000 5.917
20.02000 3.003
20.04000 4.747
20.06000 12.291
20.08000 7.394
20.10000 3.971
20.12000 6.341
20.14000 2.257
20.16000 7.891
20.18000 8.723
20.20000 1.232
20.22000 -1.017
20.24000 2.839
20.26000 5.938
20.28000 9.143
20.30000 6.801
20.32000 -4.179
20.34000 -1.486
20.36000 0.326
20.38000 -0.711
20.40000 0.592
20.42000 0.566
20.44000 3.965
20.46000 5.207
20.48000 6.098
20.50000 8.537
20.52000 7.221
20.54000 7.127
20.56000 3.761
20.58000 9.098
20.60000 7.659
20.62000 2.934
20.64000 9.252
20.66000 6.048
20.68000 2.286
20.70000 -1.068
20.72000 5.519
20.74000 11.179
20.76000 7.249
20.78000 8.926
20.80000 7.553
20.82000 4.097
20.84000 3.539
20.86000 9.053
20.88000 7.974
20.90000 7.555
20.92000 4.712
20.94000 2.228
20.96000 9.321
20.98000 5.921
21.00000 0.698
21.02000 3.010
21.04000 -0.268
21.06000 -4.134
21.08000 0.264
21.10000 1.543
21.12000 3.662
21.14000 10.317
21.16000 13.480
21.18000 9.272
21.20000 0.940
21.22000 1.229
21.24000 7.688
21.26000 8.138
21.28000 7.756
21.30000 3.772
21.32000 1.466
21.34000 1.272
21.36000 5.318
21.38000 8.576
21.40000 7.240
21.42000 8.034
21.44000 7.821
21.46000 7.457
21.48000 3.349
21.50000 7.580
21.52000 6.443
21.54000 9.984
21.56000 13.215
21.58000 2.241
21.60000 -3.815
21.62000 3.980
21.64000 10.664
21.66000 7.262
21.68000 0.942
21.70000 3.096
21.72000 1.807
21.74000 -0.211
21.76000 0.768
21.78000 9.399
21.80000 6.975
21.82000 5.344
21.84000 3.522
21.86000 5.166
21.88000 0.699
21.90000 3.122
21.92000 5.807
21.94000 2.963
21.96000 2.481
21.98000 5.073
22.00000 9.047
22.02000 3.082
22.04000 -1.899
22.06000 9.783
22.08000 1.636
22.10000 0.413
22.12000 0.747
22.14000 2.687
22.16000 5.481
22.18000 0.496
22.20000 1.560
22.22000 3.503
22.24000 5.178
22.26000 -0.988
22.28000 3.699
22.30000 0.013
22.32000 -3.123
22.34000 -4.074
22.36000 5.351
22.38000 3.709
22.40000 2.883
22.42000 1.939
22.44000 -2.321
22.46000 -1.057
22.48000 3.058
22.50000 7.742
22.52000 2.213
22.54000 9.363
22.56000 10.686
22.58000 5.230
22.60000 6.029
22.62000 1.295
22.64000 3.738
22.66000 4.941
22.68000 -1.629
22.70000 -3.796
22.72000 4.149
22.74000 9.006
22.76000 5.082
22.78000 1.316
22.80000 0.560
22.82000 0.061
22.84000 0.829
22.86000 4.586
22.88000 3.536
22.90000 4.931
22.92000 9.765
22.94000 9.496
22.96000 5.702
22.98000 3.060
23.00000 0.357
23.02000 -2.529
23.04000 4.062
23.06000 2.706
23.08000 10.487
23.10000 3.887
23.12000 0.328
23.14000 0.608
23.16000 4.456
23.18000 1.054
23.20000 0.010
23.22000 2.784
23.24000 0.582
23.26000 4.740
23.28000 4.012
23.30000 8.855
23.32000 3.214
23.34000 0.429
23.36000 -2.379
23.38000 -4.010
23.40000 4.882
23.42000 3.385
23.44000 4.821
23.46000 8.150
23.48000 4.615
23.50000 0.589
23.52000 3.349
23.54000 0.752
23.56000 -0.340
23.58000 0.005
23.60000 0.722
23.62000 0.460
23.64000 2.047
23.66000 1.006
23.68000 5.949
23.70000 5.528
23.72000 5.389
23.74000 -0.134
23.76000 -0.824
23.78000 -0.052
23.80000 -2.958
23.82000 1.560
23.84000 -0.550
23.86000 2.495
23.88000 4.561
23.90000 1.256
23.92000 -1.297
23.94000 0.102
23.96000 5.821
23.98000 8.753
24.00000 3.744
24.02000 -2.316
24.04000 1.805
24.06000 5.177
24.08000 0.503
24.10000 -2.269
24.12000 2.867
24.14000 3.950
24.16000 1.298
24.18000 -0.034
24.20000 2.351
24.22000 0.626
24.24000 -0.115
24.26000 -0.207
24.28000 -0.676
24.30000 3.661
24.32000 3.581
24.34000 2.165
24.36000 6.155
24.38000 -1.006
24.40000 -1.069
24.42000 7.059
24.44000 2.212
24.46000 -3.964
24.48000 -0.779
24.50000 2.716
24.52000 1.999
24.54000 0.177
24.56000 -0.658
24.58000 5.357
24.60000 2.342
24.62000 2.347
24.64000 4.323
24.66000 1.369
24.68000 0.112
24.70000 0.704
24.72000 2.748
24.74000 -2.744
24.76000 2.342
24.78000 2.277
24.80000 2.634
24.82000 6.256
24.84000 4.339
24.86000 2.873
24.88000 0.089
24.90000 4.402
24.92000 2.693
24.94000 0.181
24.96000 -0.362
24.98000 2.141
25.00000 1.172
25.02000 -0.222
25.04000 4.262
25.06000 8.113
25.08000 5.241
25.10000 1.092
25.12000 1.848
25.14000 5.407
25.16000 4.608
25.18000 1.877
25.20000 0.891
25.22000 4.159
25.24000 2.700
25.26000 9.585
25.28000 8.039
25.30000 5.263
25.32000 2.818
25.34000 -0.027
25.36000 7.034
25.38000 4.356
25.40000 -3.102
25.42000 2.828
25.44000 6.132
25.46000 3.968
25.48000 7.509
25.50000 6.409
25.52000 4.290
25.54000 5.189
25.56000 3.087
25.58000 3.638
25.60000 4.369
25.62000 0.079
25.64000 -3.878
25.66000 -1.911
25.68000 4.558
25.70000 0.791
25.72000 3.743
25.74000 4.944
25.76000 5.897
25.78000 3.638
25.80000 4.301
25.82000 6.773
25.84000 5.828
25.86000 7.314
25.88000 5.101
25.90000 4.347
25.92000 5.597
25.94000 2.445
25.96000 0.939
25.98000 -0.454
26.00000 -2.791
26.02000 -1.117
26.04000 1.805
26.06000 4.460
26.08000 2.547
26.10000 4.843
26.12000 6.927
26.14000 4.279
26.16000 0.832
26.18000 4.932
26.20000 5.207
26.22000 4.569
26.24000 0.818
26.26000 3.348
26.28000 5.766
26.30000 8.357
26.32000 3.663
26.34000 7.475
26.36000 0.209
26.38000 -1.703
26.40000 3.155
26.42000 6.160
26.44000 6.869
26.46000 5.668
26.48000 6.774
26.50000 7.821
26.52000 6.347
26.54000 3.250
26.56000 3.161
26.58000 -0.163
26.60000 2.187
26.62000 2.421
26.64000 2.223
26.66000 0.581
26.68000 -0.994
26.70000 1.742
26.72000 1.534
26.74000 -1.559
26.76000 -0.165
26.78000 2.717
26.80000 3.905
26.82000 1.649
26.84000 0.912
26.86000 1.956
26.88000 3.087
26.90000 0.346
26.92000 0.189
26.94000 2.297
26.96000 3.399
26.98000 7.488
27.00000 9.325
27.02000 7.779
27.04000 2.234
27.06000 2.518
27.08000 1.937
27.10000 3.584
27.12000 -1.705
27.14000 -1.894
27.16000 5.041
27.18000 2.292
27.20000 -2.636
27.22000 -2.533
27.24000 -0.919
27.26000 2.320
27.28000 1.361
27.30000 -2.887
27.32000 -3.813
27.34000 -0.452
27.36000 0.835
27.38000 3.791
27.40000 7.665
27.42000 7.211
27.44000 8.635
27.46000 2.651
27.48000 -0.594
27.50000 3.463
27.52000 1.517
27.54000 -0.820
27.56000 -1.526
27.58000 1.065
27.60000 2.672
27.62000 3.004
27.64000 -1.811
27.66000 -3.336
27.68000 4.198
27.70000 6.639
27.72000 4.959
27.74000 6.718
27.76000 7.881
27.78000 7.830
27.80000 2.443
27.82000 -0.329
27.84000 -2.989
27.86000 0.278
27.88000 3.662
27.90000 3.358
27.92000 -0.651
27.94000 1.441
27.96000 0.077
27.98000 3.571
28.00000 9.041
28.02000 5.567
28.04000 4.907
28.06000 2.209
28.08000 -0.335
28.10000 2.560
28.12000 2.976
28.14000 5.318
28.16000 10.647
28.18000 -1.299
28.20000 0.020
28.22000 3.464
28.24000 0.300
28.26000 0.244
28.28000 4.588
28.30000 4.319
28.32000 0.458
28.34000 0.343
28.36000 -3.067
28.38000 -3.750
28.40000 1.465
28.42000 2.727
28.44000 0.707
28.46000 2.074
28.48000 3.298
28.50000 3.608
28.52000 4.004
28.54000 0.490
28.56000 -0.564
28.58000 3.501
28.60000 -0.452
28.62000 1.745
28.64000 1.051
28.66000 2.554
28.68000 4.075
28.70000 3.448
28.72000 3.656
28.74000 5.517
28.76000 2.618
28.78000 -1.487
28.80000 0.678
28.82000 -0.231
28.84000 4.580
28.86000 4.486
28.88000 6.364
28.90000 9.655
28.92000 2.677
28.94000 -1.725
28.96000 3.174
28.98000 5.134
29.00000 1.900
29.02000 1.026
29.04000 3.266
29.06000 0.156
29.08000 -2.375
29.10000 -2.322
29.12000 0.704
29.14000 -0.955
29.16000 0.336
29.18000 -1.897
29.20000 0.253
29.22000 2.321
29.24000 2.393
29.26000 -0.589
29.28000 1.651
29.30000 1.333
29.32000 1.502
29.34000 5.165
29.36000 1.780
29.38000 1.020
29.40000 2.682
29.42000 3.151
29.44000 3.739
29.46000 9.133
29.48000 2.295
29.50000 5.139
29.52000 2.196
29.54000 3.552
29.56000 0.690
29.58000 -0.782
29.60000 2.355
29.62000 6.560
29.64000 4.419
29.66000 5.767
29.68000 4.298
29.70000 1.514
29.72000 3.302
29.74000 1.861
29.76000 1.905
29.78000 2.134
29.80000 5.417
29.82000 11.762
29.84000 5.686
29.86000 -1.327
29.88000 6.280
29.90000 5.220
29.92000 3.065
29.94000 4.097
29.96000 5.106
29.98000 3.738
30.00000 2.747
30.02000 1.093
30.04000 -1.485
30.06000 -3.650
30.08000 -3.639
30.10000 0.418
30.12000 3.773
30.14000 3.916
30.16000 2.040
30.18000 2.876
30.20000 6.019
30.22000 0.737
30.24000 3.733
30.26000 3.104
30.28000 0.793
30.30000 3.998
30.32000 4.490
30.34000 -0.888
30.36000 -0.822
30.38000 4.348
30.40000 2.953
30.42000 1.518
30.44000 -3.521
30.46000 2.350
30.48000 4.290
30.50000 1.912
30.52000 1.023
30.54000 3.197
30.56000 2.327
30.58000 0.933
30.60000 4.869
30.62000 6.254
30.64000 0.299
30.66000 3.866
30.68000 4.029
30.70000 1.346
30.72000 7.791
30.74000 5.186
30.76000 3.335
30.78000 0.010
30.80000 3.710
30.82000 -1.911
30.84000 -1.522
30.86000 2.097
30.88000 -1.995
30.90000 0.889
30.92000 3.959
30.94000 4.369
30.96000 5.446
30.98000 2.460
31.00000 0.800
31.02000 1.107
31.04000 2.719
31.06000 3.456
31.08000 6.046
31.10000 4.392
31.12000 2.216
31.14000 2.173
31.16000 3.728
31.18000 -0.479
31.20000 -1.633
31.22000 3.551
31.24000 4.016
31.26000 -0.155
31.28000 0.579
31.30000 -0.041
31.32000 0.556
31.34000 0.433
31.36000 6.310
31.38000 -0.512
31.40000 -3.113
31.42000 0.452
31.44000 -2.361
31.46000 -1.438
31.48000 1.491
31.50000 -0.234
31.52000 2.675
31.54000 2.976
31.56000 -1.699
31.58000 -3.124
31.60000 -0.666
31.62000 3.426
31.64000 0.470
31.66000 -0.606
31.68000 -1.720
31.70000 -3.618
31.72000 -1.346
31.74000 6.296
31.76000 6.734
31.78000 2.406
31.80000 0.906
31.82000 0.072
31.84000 1.096
31.86000 -0.570
31.88000 4.823
31.90000 2.479
31.92000 -1.065
31.94000 -2.115
31.96000 5.962
31.98000 6.817
32.00000 3.269
32.02000 5.825
32.04000 6.800
32.06000 3.752
32.08000 3.898
32.10000 0.445
32.12000 0.607
32.14000 3.497
32.16000 2.841
32.18000 2.983
32.20000 2.371
32.22000 3.045
32.24000 3.317
32.26000 1.093
32.28000 2.018
32.30000 3.712
32.32000 2.607
32.34000 4.106
32.36000 4.887
32.38000 3.721
32.40000 0.045
32.42000 -3.564
32.44000 -0.700
32.46000 2.634
32.48000 2.274
32.50000 7.638
32.52000 7.351
32.54000 5.630
32.56000 1.559
32.58000 -1.656
32.60000 -0.682
32.62000 -3.568
32.64000 -0.797
32.66000 -1.959
32.68000 0.004
32.70000 4.998
32.72000 0.954
32.74000 4.800
32.76000 7.673
32.78000 7.061
32.80000 7.303
32.82000 3.802
32.84000 3.122
32.86000 6.186
32.88000 9.341
32.90000 7.445
32.92000 2.522
32.94000 1.334
32.96000 5.500
32.98000 4.767
33.00000 3.908
33.02000 4.285
33.04000 3.973
33.06000 1.535
33.08000 1.540
33.10000 1.440
33.12000 -1.975
33.14000 -1.325
33.16000 -0.337
33.18000 -3.577
33.20000 -2.925
33.22000 2.032
33.24000 7.338
33.26000 5.460
33.28000 2.737
33.30000 1.284
33.32000 2.354
33.34000 5.394
33.36000 0.526
33.38000 0.126
33.40000 3.035
33.42000 -0.982
33.44000 2.154
33.46000 1.383
33.48000 3.154
33.50000 3.518
33.52000 4.744
33.54000 7.844
33.56000 5.384
33.58000 3.082
33.60000 2.945
33.62000 4.371
33.64000 5.923
33.66000 4.038
33.68000 2.071
33.70000 3.431
33.72000 1.426
33.74000 3.468
33.76000 5.671
33.78000 5.331
33.80000 3.398
33.82000 3.084
33.84000 3.381
33.86000 3.771
33.88000 4.763
33.90000 3.146
33.92000 2.731
33.94000 4.128
33.96000 5.735
33.98000 7.003
34.00000 2.940
34.02000 4.585
34.04000 5.412
34.06000 4.202
34.08000 0.075
34.10000 0.152
34.12000 5.426
34.14000 3.362
34.16000 2.067
34.18000 -2.252
34.20000 -2.066
34.22000 2.140
34.24000 6.177
34.26000 4.134
34.28000 0.383
34.30000 4.241
34.32000 5.018
34.34000 1.392
34.36000 4.916
34.38000 0.603
34.40000 -1.427
34.42000 -0.186
34.44000 0.621
34.46000 3.729
34.48000 4.155
34.50000 7.677
34.52000 5.875
34.54000 5.540
34.56000 0.128
34.58000 4.494
34.60000 5.392
34.62000 6.202
34.64000 1.368
34.66000 -1.513
34.68000 -3.552
34.70000 1.772
34.72000 1.186
34.74000 3.245
34.76000 0.393
34.78000 1.526
34.80000 1.645
34.82000 -2.054
34.84000 0.294
34.86000 4.054
34.88000 4.538
34.90000 1.609
34.92000 -1.508
34.94000 5.348
34.96000 7.922
34.98000 -0.088
35.00000 -1.776
35.02000 4.488
35.04000 7.131
35.06000 0.227
35.08000 -3.547
35.10000 -3.547
35.12000 0.296
35.14000 6.670
35.16000 5.466
35.18000 3.319
35.20000 -0.263
35.22000 2.514
35.24000 4.600
35.26000 3.028
35.28000 3.711
35.30000 1.126
35.32000 0.719
35.34000 6.382
35.36000 3.719
35.38000 -1.786
35.40000 4.343
35.42000 5.865
35.44000 -1.651
35.46000 -1.963
35.48000 -0.008
35.50000 3.901
35.52000 1.547
35.54000 1.482
35.56000 1.724
35.58000 -2.717
35.60000 2.231
35.62000 4.083
35.64000 1.589
35.66000 -0.008
35.68000 0.628
35.70000 0.226
35.72000 4.433
35.74000 6.434
35.76000 2.020
35.78000 4.606
35.80000 0.970
35.82000 -1.169
35.84000 -0.177
35.86000 -1.168
35.88000 2.099
35.90000 1.614
35.92000 -1.102
35.94000 1.130
35.96000 0.304
35.98000 -0.180
36.00000 -0.870
36.02000 0.741
36.04000 0.040
36.06000 -0.896
36.08000 -0.846
36.10000 0.306
36.12000 0.148
36.14000 3.997
36.16000 7.218
36.18000 6.772
36.20000 2.486
36.22000 6.689
36.24000 2.673
36.26000 -3.012
36.28000 -3.585
36.30000 0.512
36.32000 7.531
36.34000 3.290
36.36000 2.472
36.38000 0.400
36.40000 -2.052
36.42000 -3.360
36.44000 -2.491
36.46000 0.607
36.48000 -1.412
36.50000 -3.602
36.52000 -2.166
36.54000 5.455
36.56000 1.163
36.58000 -2.734
36.60000 -3.611
36.62000 -0.300
36.64000 3.279
36.66000 2.319
36.68000 -0.654
36.70000 1.051
36.72000 0.244
36.74000 -0.014
36.76000 2.730
36.78000 0.428
36.80000 -2.378
36.82000 -3.263
36.84000 -1.984
36.86000 3.902
36.88000 5.145
36.90000 2.426
36.92000 1.496
36.94000 0.879
36.96000 3.055
36.98000 -3.644
37.00000 -1.843
37.02000 3.038
37.04000 4.556
37.06000 4.071
37.08000 3.165
37.10000 5.836
37.12000 6.782
37.14000 5.676
37.16000 7.403
37.18000 0.206
37.20000 1.540
37.22000 7.337
37.24000 9.457
37.26000 8.561
37.28000 5.178
37.30000 6.147
37.32000 4.698
37.34000 5.949
37.36000 3.854
37.38000 5.530
37.40000 3.374
37.42000 4.997
37.44000 3.196
37.46000 4.640
37.48000 6.853
37.50000 7.346
37.52000 5.802
37.54000 9.420
37.56000 10.151
37.58000 13.829
37.60000 13.010
37.62000 12.945
37.64000 12.112
37.66000 12.270
37.68000 11.638
37.70000 7.931
37.72000 7.301
37.74000 11.527
37.76000 15.248
37.78000 15.847
37.80000 14.601
37.82000 16.087
37.84000 15.391
37.86000 13.853
37.88000 16.070
37.90000 15.418
37.92000 21.012
37.94000 21.535
37.96000 22.341
37.98000 23.742
38.00000 24.497
38.02000 24.422
38.04000 23.550
38.06000 26.290
38.08000 26.719
38.10000 27.196
38.12000 28.015
38.14000 29.696
38.16000 35.202
38.18000 35.306
38.20000 35.839
38.22000 36.120
38.24000 37.563
38.26000 36.706
38.28000 40.630
38.30000 40.562
38.32000 39.334
38.34000 33.499
38.36000 38.971
38.38000 47.627
38.40000 46.323
38.42000 49.663
38.44000 54.044
38.46000 59.784
38.48000 57.710
38.50000 55.550
38.52000 57.465
38.54000 61.782
38.56000 65.296
38.58000 66.580
38.60000 70.383
38.62000 80.412
38.64000 82.728
38.66000 80.247
38.68000 90.052
38.70000 91.049
38.72000 93.307
38.74000 98.739
38.76000 97.571
38.78000 103.011
38.80000 113.773
38.82000 118.208
38.84000 123.948
38.86000 128.819
38.88000 141.181
38.90000 149.327
38.92000 161.104
38.94000 171.407
38.96000 180.619
38.98000 190.891
39.00000 199.997
39.02000 211.978
39.04000 225.789
39.06000 240.179
39.08000 253.623
39.10000 276.950
39.12000 292.989
39.14000 308.153
39.16000 326.383
39.18000 348.618
39.20000 365.527
39.22000 389.738
39.24000 421.512
39.26000 439.164
39.28000 459.554
39.30000 481.866
39.32000 499.984
39.34000 531.985
39.36000 550.622
39.38000 563.434
39.40000 586.745
39.42000 607.259
39.44000 627.547
39.46000 637.251
39.48000 657.503
39.50000 663.846
39.52000 678.852
39.54000 692.574
39.56000 690.624
39.58000 687.783
39.60000 686.194
39.62000 688.558
39.64000 683.179
39.66000 666.515
39.68000 655.257
39.70000 643.409
39.72000 627.014
39.74000 619.785
39.76000 600.786
39.78000 583.175
39.80000 561.418
39.82000 539.474
39.84000 537.012
39.86000 510.140
39.88000 474.486
39.90000 454.965
39.92000 426.113
39.94000 398.249
39.96000 379.338
39.98000 356.687
40.00000 337.363
40.02000 316.703
40.04000 289.968
40.06000 276.367
40.08000 261.383
40.10000 247.100
40.12000 233.446
40.14000 210.826
40.16000 199.620
40.18000 190.264
40.20000 170.995
40.22000 159.117
40.24000 153.145
40.26000 136.990
40.28000 130.405
40.30000 129.908
40.32000 121.510
40.34000 105.499
40.36000 96.266
40.38000 91.225
40.40000 87.613
40.42000 88.217
40.44000 84.854
40.46000 77.116
40.48000 75.984
40.50000 65.131
40.52000 62.323
40.54000 57.269
40.56000 54.255
40.58000 54.677
40.60000 50.409
40.62000 51.239
40.64000 47.562
40.66000 43.853
40.68000 42.560
40.70000 39.149
40.72000 37.530
40.74000 36.662
40.76000 33.544
40.78000 28.089
40.80000 26.789
40.82000 30.239
40.84000 34.339
40.86000 32.070
40.88000 28.842
40.90000 29.136
40.92000 25.458
40.94000 22.723
40.96000 21.805
40.98000 23.288
41.00000 23.271
41.02000 23.105
41.04000 19.999
41.06000 17.489
41.08000 18.105
41.10000 14.291
41.12000 8.155
41.14000 12.495
41.16000 13.295
41.18000 13.308
41.20000 10.510
41.22000 14.756
41.24000 17.948
41.26000 19.404
41.28000 16.058
41.30000 14.718
41.32000 10.532
41.34000 11.286
41.36000 10.893
41.38000 12.444
41.40000 10.918
41.42000 9.748
41.44000 9.299
41.46000 7.335
41.48000 10.111
41.50000 11.933
41.52000 9.892
41.54000 1.728
41.56000 3.106
41.58000 7.327
41.60000 4.932
41.62000 3.369
41.64000 1.727
41.66000 4.546
41.68000 5.057
41.70000 7.659
41.72000 8.216
41.74000 5.543
41.76000 2.852
41.78000 1.324
41.80000 1.176
41.82000 1.855
41.84000 5.363
41.86000 3.345
41.88000 1.341
41.90000 0.609
41.92000 1.707
41.94000 0.899
41.96000 0.210
41.98000 4.432
42.00000 5.583
42.02000 4.160
42.04000 3.594
42.06000 1.798
42.08000 1.020
42.10000 -0.447
42.12000 0.583
42.14000 4.123
42.16000 5.562
42.18000 3.628
42.20000 2.643
42.22000 3.930
42.24000 3.230
42.26000 4.059
42.28000 3.533
42.30000 3.793
42.32000 -0.313
42.34000 -3.382
42.36000 -0.771
42.38000 5.663
42.40000 2.869
42.42000 0.979
42.44000 1.272
42.46000 1.258
42.48000 1.036
42.50000 0.116
42.52000 -1.096
42.54000 1.957
42.56000 0.857
42.58000 0.104
42.60000 0.760
42.62000 0.897
42.64000 2.782
42.66000 2.465
42.68000 5.017
42.70000 2.213
42.72000 1.631
42.74000 0.116
42.76000 -0.023
42.78000 1.118
42.80000 0.313
42.82000 -0.723
42.84000 -2.632
42.86000 -1.847
42.88000 0.343
42.90000 2.045
42.92000 3.606
42.94000 0.424
42.96000 -0.930
42.98000 -2.258
43.00000 -1.273
43.02000 -1.580
43.04000 2.481
43.06000 1.159
43.08000 1.188
43.10000 -0.957
43.12000 0.672
43.14000 2.511
43.16000 0.584
43.18000 0.256
43.20000 2.714
43.22000 2.916
43.24000 2.596
43.26000 0.691
43.28000 -2.309
43.30000 -3.285
43.32000 1.812
43.34000 2.228
43.36000 2.140
43.38000 0.799
43.40000 2.368
43.42000 1.521
43.44000 0.621
43.46000 0.651
43.48000 1.189
43.50000 3.977
43.52000 1.086
43.54000 -2.402
43.56000 -1.594
43.58000 -0.520
43.60000 3.744
43.62000 3.991
43.64000 -1.844
43.66000 -3.248
43.68000 0.098
43.70000 -1.156
43.72000 -0.249
43.74000 0.336
43.76000 2.066
43.78000 1.350
43.80000 1.622
43.82000 1.407
43.84000 1.099
43.86000 2.504
43.88000 0.332
43.90000 2.603
43.92000 4.761
43.94000 4.436
43.96000 2.748
43.98000 2.529
44.00000 4.200
44.02000 0.375
44.04000 -0.090
44.06000 2.138
44.08000 -0.361
44.10000 -0.475
44.12000 0.088
44.14000 0.791
44.16000 1.675
44.18000 1.768
44.20000 -0.281
44.22000 -3.207
44.24000 1.066
44.26000 0.774
44.28000 5.341
44.30000 2.707
44.32000 2.677
44.34000 3.687
44.36000 0.457
44.38000 0.765
44.40000 0.946
44.42000 0.338
44.44000 3.530
44.46000 2.543
44.48000 0.462
44.50000 0.657
44.52000 3.363
44.54000 4.548
44.56000 2.524
44.58000 0.995
44.60000 1.988
44.62000 3.350
44.64000 0.241
44.66000 1.275
44.68000 5.933
44.70000 5.663
44.72000 2.794
44.74000 2.752
44.76000 1.556
44.78000 2.764
44.80000 5.178
44.82000 6.893
44.84000 4.069
44.86000 4.351
44.88000 4.452
44.90000 1.681
44.92000 1.590
44.94000 1.688
44.96000 4.373
44.98000 4.229
45.00000 8.599
45.02000 10.553
45.04000 9.033
45.06000 8.809
45.08000 6.882
45.10000 6.495
45.12000 7.292
45.14000 10.420
45.16000 7.513
45.18000 6.380
45.20000 8.694
45.22000 11.080
45.24000 7.270
45.26000 7.251
45.28000 13.672
45.30000 13.242
45.32000 11.697
45.34000 16.804
45.36000 13.288
45.38000 16.149
45.40000 23.929
45.42000 25.895
45.44000 19.850
45.46000 16.682
45.48000 19.515
45.50000 23.518
45.52000 25.234
45.54000 24.223
45.56000 24.316
45.58000 30.665
45.60000 30.265
45.62000 32.904
45.64000 32.287
45.66000 37.710
45.68000 37.285
45.70000 38.756
45.72000 42.036
45.74000 42.615
45.76000 43.164
45.78000 45.643
45.80000 45.401
45.82000 45.061
45.84000 45.276
45.86000 50.556
45.88000 53.140
45.90000 51.535
45.92000 53.440
45.94000 55.364
45.96000 57.119
45.98000 63.077
46.00000 63.319
46.02000 63.363
46.04000 64.768
46.06000 69.624
46.08000 66.720
46.10000 66.076
46.12000 73.440
46.14000 72.734
46.16000 74.480
46.18000 75.653
46.20000 73.104
46.22000 74.909
46.24000 68.656
46.26000 67.621
46.28000 72.466
46.30000 75.400
46.32000 70.432
46.34000 65.398
46.36000 70.789
46.38000 69.601
46.40000 71.969
46.42000 69.789
46.44000 66.627
46.46000 64.890
46.48000 62.197
46.50000 58.050
46.52000 56.380
46.54000 59.161
46.56000 56.566
46.58000 50.063
46.60000 48.500
46.62000 48.458
46.64000 47.885
46.66000 44.670
46.68000 42.244
46.70000 41.838
46.72000 37.701
46.74000 37.355
46.76000 36.468
46.78000 32.865
46.80000 28.905
46.82000 30.226
46.84000 27.035
46.86000 26.083
46.88000 26.471
46.90000 18.446
46.92000 17.880
46.94000 18.619
46.96000 20.053
46.98000 16.246
47.00000 14.795
47.02000 8.957
47.04000 8.313
47.06000 8.953
47.08000 9.136
47.10000 7.335
47.12000 5.713
47.14000 7.931
47.16000 5.648
47.18000 4.387
47.20000 1.855
47.22000 4.421
47.24000 3.470
47.26000 2.840
47.28000 4.160
47.30000 3.416
47.32000 3.784
47.34000 3.988
47.36000 1.878
47.38000 0.993
47.40000 3.410
47.42000 3.164
47.44000 -0.521
47.46000 -0.379
47.48000 -0.275
47.50000 2.225
47.52000 3.051
47.54000 3.967
47.56000 1.265
47.58000 1.361
47.60000 1.020
47.62000 0.629
47.64000 3.143
47.66000 3.538
47.68000 3.631
47.70000 6.931
47.72000 2.728
47.74000 2.786
47.76000 -0.109
47.78000 0.751
47.80000 0.131
47.82000 -2.843
47.84000 -2.816
47.86000 -1.350
47.88000 -0.682
47.90000 -2.826
47.92000 0.030
47.94000 2.211
47.96000 1.207
47.98000 0.085
48.00000 0.791
48.02000 1.748
48.04000 0.540
48.06000 1.490
48.08000 -0.033
48.10000 -1.218
48.12000 3.187
48.14000 2.289
48.16000 2.111
48.18000 3.212
48.20000 3.548
48.22000 3.495
48.24000 2.129
48.26000 5.449
48.28000 2.300
48.30000 -0.823
48.32000 0.408
48.34000 -0.358
48.36000 -2.527
48.38000 -0.722
48.40000 3.450
48.42000 5.272
48.44000 6.205
48.46000 2.956
48.48000 -0.651
48.50000 -2.739
48.52000 0.717
48.54000 1.520
48.56000 -0.534
48.58000 1.222
48.60000 3.760
48.62000 2.981
48.64000 0.486
48.66000 0.158
48.68000 0.553
48.70000 0.613
48.72000 0.244
48.74000 0.181
48.76000 1.677
48.78000 3.458
48.80000 1.335
48.82000 2.786
48.84000 1.476
48.86000 1.696
48.88000 -0.126
48.90000 2.528
48.92000 3.261
48.94000 4.611
48.96000 4.864
48.98000 2.942
49.00000 -0.122
49.02000 0.075
49.04000 1.005
49.06000 3.741
49.08000 -0.767
49.10000 4.556
49.12000 4.302
49.14000 -0.060
49.16000 3.151
49.18000 5.351
49.20000 3.840
49.22000 3.052
49.24000 8.393
49.26000 5.011
49.28000 4.120
49.30000 -1.689
49.32000 1.613
49.34000 1.595
49.36000 2.211
49.38000 -0.687
49.40000 -1.043
49.42000 2.822
49.44000 2.703
49.46000 4.105
49.48000 0.842
49.50000 1.503
49.52000 0.489
49.54000 0.283
49.56000 2.089
49.58000 1.020
49.60000 0.820
49.62000 -1.653
49.64000 -1.182
49.66000 0.020
49.68000 0.082
49.70000 1.675
49.72000 1.928
49.74000 1.489
49.76000 2.861
49.78000 3.857
49.80000 7.756
49.82000 5.708
49.84000 3.129
49.86000 4.558
49.88000 11.503
49.90000 7.285
49.92000 1.884
49.94000 2.186
49.96000 0.520
49.98000 1.393
50.00000 2.001
50.02000 0.861
50.04000 3.054
50.06000 1.530
50.08000 2.045
50.10000 -1.486
50.12000 -2.616
50.14000 4.060
50.16000 5.972
50.18000 4.314
50.20000 2.340
50.22000 2.388
50.24000 2.899
50.26000 4.328
50.28000 0.003
50.30000 3.503
50.32000 4.453
50.34000 6.868
50.36000 3.678
50.38000 1.404
50.40000 0.807
50.42000 4.892
50.44000 1.426
50.46000 2.310
50.48000 1.071
50.50000 2.393
50.52000 2.884
50.54000 4.720
50.56000 4.605
50.58000 0.511
50.60000 0.682
50.62000 1.477
50.64000 1.265
50.66000 4.049
50.68000 4.919
50.70000 2.653
50.72000 0.367
50.74000 2.129
50.76000 5.468
50.78000 7.714
50.80000 1.714
50.82000 0.582
50.84000 2.924
50.86000 1.386
50.88000 3.027
50.90000 7.519
50.92000 1.553
50.94000 0.177
50.96000 -0.578
50.98000 0.469
51.00000 2.387
51.02000 1.034
51.04000 7.351
51.06000 3.004
51.08000 -0.423
51.10000 2.118
51.12000 0.185
51.14000 2.314
51.16000 2.904
51.18000 -1.379
51.20000 -0.014
51.22000 0.207
51.24000 0.188
51.26000 -1.261
51.28000 0.266
51.30000 2.085
51.32000 -2.606
51.34000 -0.081
51.36000 3.567
51.38000 3.646
51.40000 2.745
51.42000 0.931
51.44000 5.650
51.46000 3.053
51.48000 5.162
51.50000 0.760
51.52000 -1.097
51.54000 0.369
51.56000 1.107
51.58000 1.583
51.60000 -2.377
51.62000 0.830
51.64000 3.444
51.66000 0.718
51.68000 -0.728
51.70000 -1.550
51.72000 3.099
51.74000 1.488
51.76000 3.102
51.78000 4.233
51.80000 2.046
51.82000 0.709
51.84000 1.050
51.86000 -1.293
51.88000 -0.033
51.90000 4.351
51.92000 3.579
51.94000 1.556
51.96000 2.501
51.98000 3.817
52.00000 2.204
52.02000 -1.938
52.04000 -0.689
52.06000 -0.346
52.08000 -0.434
52.10000 -0.983
52.12000 0.053
52.14000 3.035
52.16000 4.541
52.18000 1.495
52.20000 3.592
52.22000 2.261
52.24000 0.978
52.26000 -2.221
52.28000 1.178
52.30000 1.432
52.32000 4.385
52.34000 0.396
52.36000 1.882
52.38000 0.818
52.40000 0.422
52.42000 2.927
52.44000 1.247
52.46000 1.060
52.48000 1.895
52.50000 3.335
52.52000 2.803
52.54000 0.858
52.56000 2.402
52.58000 2.581
52.60000 1.887
52.62000 -0.107
52.64000 2.497
52.66000 1.106
52.68000 0.038
52.70000 1.959
52.72000 6.806
52.74000 2.052
52.76000 2.606
52.78000 0.338
52.80000 -0.542
52.82000 -1.800
52.84000 -0.456
52.86000 0.804
52.88000 4.182
52.90000 2.635
52.92000 3.462
52.94000 3.669
52.96000 2.211
52.98000 0.291
53.00000 4.357
53.02000 3.269
53.04000 3.287
53.06000 2.543
53.08000 3.354
53.10000 5.824
53.12000 3.571
53.14000 3.874
53.16000 5.085
53.18000 5.625
53.20000 3.914
53.22000 6.162
53.24000 7.174
53.26000 4.277
53.28000 -2.499
53.30000 2.931
53.32000 2.700
53.34000 3.118
53.36000 4.444
53.38000 6.460
53.40000 5.798
53.42000 2.715
53.44000 1.478
53.46000 5.539
53.48000 4.475
53.50000 1.820
53.52000 4.013
53.54000 5.374
53.56000 6.655
53.58000 -1.073
53.60000 -1.035
53.62000 3.240
53.64000 4.298
53.66000 5.885
53.68000 4.432
53.70000 3.484
53.72000 5.577
53.74000 4.339
53.76000 4.138
53.78000 3.876
53.80000 0.106
53.82000 1.191
53.84000 -1.600
53.86000 1.637
53.88000 0.798
53.90000 4.888
53.92000 5.668
53.94000 3.506
53.96000 0.567
53.98000 8.294
54.00000 6.708
54.02000 1.890
54.04000 2.680
54.06000 0.338
54.08000 1.904
54.10000 4.729
54.12000 1.136
54.14000 -0.600
54.16000 5.273
54.18000 5.800
54.20000 6.448
54.22000 1.504
54.24000 1.933
54.26000 2.807
54.28000 4.028
54.30000 3.070
54.32000 1.409
54.34000 1.399
54.36000 -0.760
54.38000 1.565
54.40000 2.966
54.42000 -2.521
54.44000 -1.397
54.46000 1.271
54.48000 -2.292
54.50000 0.861
54.52000 3.744
54.54000 1.339
54.56000 4.401
54.58000 -0.779
54.60000 1.304
54.62000 -0.253
54.64000 -0.852
54.66000 0.006
54.68000 -0.237
54.70000 0.281
54.72000 1.080
54.74000 1.315
54.76000 -1.032
54.78000 4.429
54.80000 2.561
54.82000 3.955
54.84000 2.464
54.86000 3.269
54.88000 -2.504
54.90000 3.097
54.92000 2.487
54.94000 3.863
54.96000 3.708
54.98000 4.658
55.00000 3.696
55.02000 0.609
55.04000 4.228
55.06000 4.943
55.08000 1.853
55.10000 -0.563
55.12000 -0.062
55.14000 1.006
55.16000 -0.884
55.18000 5.152
55.20000 6.551
55.22000 2.559
55.24000 1.083
55.26000 0.408
55.28000 1.300
55.30000 1.255
55.32000 2.689
55.34000 -0.807
55.36000 -0.626
55.38000 2.805
55.40000 2.042
55.42000 2.377
55.44000 1.276
55.46000 6.109
55.48000 4.490
55.50000 0.899
55.52000 1.469
55.54000 0.869
55.56000 0.801
55.58000 1.870
55.60000 4.131
55.62000 3.407
55.64000 2.963
55.66000 1.928
55.68000 0.233
55.70000 -2.273
55.72000 -1.942
55.74000 1.248
55.76000 4.100
55.78000 4.973
55.80000 0.420
55.82000 0.942
55.84000 6.905
55.86000 6.802
55.88000 3.949
55.90000 1.194
55.92000 -2.455
55.94000 -2.065
55.96000 2.923
55.98000 5.620
56.00000 8.755
56.02000 4.549
56.04000 3.415
56.06000 5.939
56.08000 4.211
56.10000 2.895
56.12000 6.177
56.14000 4.031
56.16000 2.176
56.18000 3.456
56.20000 4.730
56.22000 3.364
56.24000 0.969
56.26000 2.573
56.28000 2.466
56.30000 5.454
56.32000 3.952
56.34000 5.981
56.36000 3.330
56.38000 2.902
56.40000 2.441
56.42000 1.138
56.44000 -0.199
56.46000 1.189
56.48000 5.341
56.50000 4.677
56.52000 2.646
56.54000 0.455
56.56000 0.790
56.58000 0.013
56.60000 2.680
56.62000 3.663
56.64000 3.826
56.66000 4.897
56.68000 3.780
56.70000 6.262
56.72000 3.013
56.74000 1.654
56.76000 -0.078
56.78000 0.876
56.80000 1.386
56.82000 3.746
56.84000 2.479
56.86000 1.398
56.88000 5.119
56.90000 4.757
56.92000 2.638
56.94000 0.102
56.96000 3.918
56.98000 4.822
57.00000 -0.663
57.02000 -1.100
57.04000 -2.455
57.06000 -0.511
57.08000 -1.537
57.10000 0.660
57.12000 3.493
57.14000 0.341
57.16000 2.285
57.18000 3.379
57.20000 2.462
57.22000 0.772
57.24000 3.494
57.26000 -0.942
57.28000 0.769
57.30000 -0.553
57.32000 1.304
57.34000 -0.039
57.36000 -0.467
57.38000 0.126
57.40000 -0.154
57.42000 2.987
57.44000 2.012
57.46000 -1.163
57.48000 2.771
57.50000 4.457
57.52000 2.036
57.54000 1.769
57.56000 1.299
57.58000 1.907
57.60000 2.919
57.62000 1.684
57.64000 -0.599
57.66000 1.957
57.68000 3.945
57.70000 4.170
57.72000 2.029
57.74000 2.916
57.76000 5.219
57.78000 4.326
57.80000 1.545
57.82000 0.582
57.84000 1.434
57.86000 2.081
57.88000 -0.172
57.90000 -2.395
57.92000 1.305
57.94000 2.046
57.96000 5.325
57.98000 0.083
58.00000 1.085
58.02000 -1.004
58.04000 1.683
58.06000 2.804
58.08000 5.311
58.10000 4.552
58.12000 2.125
58.14000 -0.142
58.16000 1.931
58.18000 3.487
58.20000 2.061
58.22000 0.845
58.24000 -0.126
58.26000 3.656
58.28000 1.608
58.30000 0.878
58.32000 2.860
58.34000 3.243
58.36000 2.605
58.38000 3.391
58.40000 2.516
58.42000 3.936
58.44000 4.433
58.46000 2.386
58.48000 3.614
58.50000 4.144
58.52000 2.619
58.54000 -0.875
58.56000 1.562
58.58000 -0.509
58.60000 1.311
58.62000 0.879
58.64000 0.933
58.66000 4.331
58.68000 2.382
58.70000 3.145
58.72000 5.139
58.74000 0.731
58.76000 1.291
58.78000 6.233
58.80000 2.681
58.82000 2.449
58.84000 3.207
58.86000 2.333
58.88000 -0.327
58.90000 3.141
58.92000 2.768
58.94000 3.182
58.96000 -0.168
58.98000 0.240
59.00000 1.879
59.02000 2.882
59.04000 4.028
59.06000 3.477
59.08000 2.126
59.10000 0.766
59.12000 -0.022
59.14000 1.586
59.16000 0.332
59.18000 1.699
59.20000 2.270
59.22000 2.931
59.24000 2.018
59.26000 2.816
59.28000 2.248
59.30000 2.014
59.32000 4.903
59.34000 3.877
59.36000 -2.365
59.38000 -1.790
59.40000 1.507
59.42000 1.228
59.44000 2.145
59.46000 5.236
59.48000 4.466
59.50000 2.234
59.52000 2.677
59.54000 5.033
59.56000 1.799
59.58000 0.298
59.60000 0.635
59.62000 1.438
59.64000 0.616
59.66000 3.676
59.68000 3.678
59.70000 2.845
59.72000 1.977
59.74000 2.519
59.76000 -1.858
59.78000 -0.879
59.80000 1.554
59.82000 1.412
59.84000 0.885
59.86000 2.488
59.88000 -0.657
59.90000 0.589
59.92000 1.880
59.94000 1.756
59.96000 0.359
59.98000 0.712
60.00000 -0.188
60.02000 1.805
60.04000 3.584
60.06000 3.352
60.08000 3.960
60.10000 1.861
60.12000 0.327
60.14000 2.513
60.16000 0.132
60.18000 2.086
60.20000 0.576
60.22000 0.756
60.24000 4.400
60.26000 2.934
60.28000 3.615
60.30000 3.741
60.32000 5.304
60.34000 4.429
60.36000 3.819
60.38000 3.085
60.40000 6.205
60.42000 1.721
60.44000 -0.131
60.46000 0.324
60.48000 3.189
60.50000 4.897
60.52000 4.761
60.54000 4.538
60.56000 1.933
60.58000 1.082
60.60000 1.296
60.62000 0.244
60.64000 2.776
60.66000 2.277
60.68000 -2.334
60.70000 -2.332
60.72000 0.988
60.74000 4.511
60.76000 3.215
60.78000 3.355
60.80000 2.064
60.82000 3.077
60.84000 -0.614
60.86000 1.948
60.88000 3.709
60.90000 -1.272
60.92000 1.247
60.94000 0.232
60.96000 3.185
60.98000 1.831
61.00000 -2.310
61.02000 -0.869
61.04000 0.221
61.06000 3.263
61.08000 1.447
61.10000 -0.109
61.12000 -0.476
61.14000 -1.124
61.16000 0.582
61.18000 1.191
61.20000 1.785
61.22000 4.413
61.24000 3.076
61.26000 3.156
61.28000 1.221
61.30000 0.530
61.32000 -1.310
61.34000 1.469
61.36000 2.332
61.38000 4.619
61.40000 4.573
61.42000 3.803
61.44000 0.980
61.46000 2.147
61.48000 0.495
61.50000 1.627
61.52000 0.257
61.54000 0.233
61.56000 2.523
61.58000 3.158
61.60000 3.467
61.62000 5.208
61.64000 3.966
61.66000 2.873
61.68000 4.673
61.70000 0.138
61.72000 2.221
61.74000 0.585
61.76000 2.389
61.78000 2.078
61.80000 -0.657
61.82000 -2.291
61.84000 -1.572
61.86000 3.819
61.88000 4.573
61.90000 1.059
61.92000 3.328
61.94000 6.376
61.96000 4.523
61.98000 3.148
62.00000 5.934
62.02000 8.034
62.04000 9.377
62.06000 5.512
62.08000 1.293
62.10000 0.334
62.12000 2.283
62.14000 2.683
62.16000 -0.068
62.18000 -0.099
62.20000 0.992
62.22000 2.046
62.24000 1.451
62.26000 2.355
62.28000 3.181
62.30000 4.660
62.32000 1.825
62.34000 -0.078
62.36000 -0.128
62.38000 3.258
62.40000 3.192
62.42000 2.709
62.44000 4.668
62.46000 0.666
62.48000 0.608
62.50000 2.563
62.52000 4.586
62.54000 3.516
62.56000 0.689
62.58000 1.943
62.60000 4.544
62.62000 -0.763
62.64000 3.665
62.66000 7.000
62.68000 4.749
62.70000 0.657
62.72000 1.030
62.74000 2.728
62.76000 2.888
62.78000 0.076
62.80000 1.267
62.82000 -2.267
62.84000 0.162
62.86000 -0.942
62.88000 0.903
62.90000 0.030
62.92000 0.927
62.94000 0.582
62.96000 0.251
62.98000 2.204
63.00000 3.279
63.02000 0.139
63.04000 -1.352
63.06000 1.323
63.08000 1.694
63.10000 1.551
63.12000 1.629
63.14000 3.847
63.16000 2.633
63.18000 3.567
63.20000 3.235
63.22000 -2.256
63.24000 1.860
63.26000 4.926
63.28000 5.818
63.30000 3.086
63.32000 -1.599
63.34000 0.112
63.36000 1.794
63.38000 4.034
63.40000 4.303
63.42000 3.947
63.44000 3.083
63.46000 3.758
63.48000 2.902
63.50000 1.512
63.52000 0.371
63.54000 0.627
63.56000 4.228
63.58000 2.120
63.60000 1.640
63.62000 4.211
63.64000 2.184
63.66000 1.229
63.68000 -2.254
63.70000 -0.063
63.72000 2.866
63.74000 4.550
63.76000 5.567
63.78000 2.223
63.80000 2.298
63.82000 1.172
63.84000 1.170
63.86000 3.091
63.88000 2.187
63.90000 0.243
63.92000 1.673
63.94000 2.837
63.96000 2.847
63.98000 2.387
64.00000 1.284
64.02000 0.308
64.04000 0.270
64.06000 2.160
64.08000 4.398
64.10000 4.347
64.12000 0.884
64.14000 -1.337
64.16000 -0.874
64.18000 0.620
64.20000 1.785
64.22000 0.238
64.24000 -0.026
64.26000 1.529
64.28000 1.578
64.30000 -0.299
64.32000 1.356
64.34000 1.208
64.36000 -0.220
64.38000 -0.253
64.40000 1.930
64.42000 -0.078
64.44000 1.522
64.46000 3.821
64.48000 2.313
64.50000 1.464
64.52000 0.895
64.54000 2.878
64.56000 2.955
64.58000 0.307
64.60000 1.412
64.62000 2.125
64.64000 1.065
64.66000 0.132
64.68000 -1.121
64.70000 -0.935
64.72000 0.015
64.74000 -0.855
64.76000 -2.085
64.78000 -2.141
64.80000 2.940
64.82000 0.164
64.84000 -0.564
64.86000 -0.386
64.88000 0.620
64.90000 4.467
64.92000 2.583
64.94000 2.842
64.96000 3.150
64.98000 -1.435
65.00000 -2.056
65.02000 -0.969
65.04000 -1.815
65.06000 -0.464
65.08000 -2.079
65.10000 1.530
65.12000 2.511
65.14000 0.195
65.16000 -0.261
65.18000 3.504
65.20000 2.430
65.22000 -0.363
65.24000 0.407
65.26000 3.526
65.28000 0.792
65.30000 -1.007
65.32000 -2.280
65.34000 -0.535
65.36000 -0.179
65.38000 -1.904
65.40000 1.824
65.42000 3.045
65.44000 1.939
65.46000 -0.968
65.48000 2.245
65.50000 2.627
65.52000 0.514
65.54000 1.005
65.56000 0.295
65.58000 -0.803
65.60000 2.524
65.62000 4.316
65.64000 3.550
65.66000 4.304
65.68000 3.695
65.70000 -2.266
65.72000 -2.256
65.74000 1.423
65.76000 3.223
65.78000 2.938
65.80000 1.314
65.82000 2.678
65.84000 1.843
65.86000 1.788
65.88000 2.004
65.90000 1.725
65.92000 2.943
65.94000 0.386
65.96000 0.182
65.98000 -0.023
66.00000 -2.263
66.02000 -1.348
66.04000 1.479
66.06000 1.943
66.08000 2.293
66.10000 3.595
66.12000 1.919
66.14000 1.296
66.16000 0.480
66.18000 -1.341
66.20000 -0.658
66.22000 -0.213
66.24000 -0.033
66.26000 -0.954
66.28000 -1.109
66.30000 0.819
66.32000 2.388
66.34000 2.619
66.36000 2.493
66.38000 -1.714
66.40000 -1.629
66.42000 3.323
66.44000 0.968
66.46000 3.268
66.48000 0.965
66.50000 -1.856
66.52000 3.006
66.54000 2.804
66.56000 5.020
66.58000 4.133
66.60000 2.533
66.62000 2.874
66.64000 2.568
66.66000 -0.226
66.68000 1.800
66.70000 1.885
66.72000 0.628
66.74000 -0.009
66.76000 2.290
66.78000 2.610
66.80000 1.082
66.82000 0.523
66.84000 2.226
66.86000 3.127
66.88000 4.365
66.90000 1.879
66.92000 2.654
66.94000 5.009
66.96000 4.231
66.98000 4.380
67.00000 3.564
67.02000 4.728
67.04000 2.787
67.06000 4.504
67.08000 4.398
67.10000 5.612
67.12000 6.142
67.14000 7.243
67.16000 6.522
67.18000 3.601
67.20000 4.784
67.22000 4.119
67.24000 5.924
67.26000 5.140
67.28000 4.701
67.30000 6.503
67.32000 5.347
67.34000 6.433
67.36000 4.397
67.38000 5.286
67.40000 8.550
67.42000 10.723
67.44000 9.557
67.46000 9.054
67.48000 4.912
67.50000 3.215
67.52000 3.849
67.54000 4.880
67.56000 5.765
67.58000 7.995
67.60000 6.395
67.62000 5.085
67.64000 3.547
67.66000 4.374
67.68000 7.299
67.70000 7.331
67.72000 3.090
67.74000 5.061
67.76000 7.963
67.78000 6.346
67.80000 6.982
67.82000 5.730
67.84000 3.284
67.86000 4.401
67.88000 3.247
67.90000 3.909
67.92000 3.749
67.94000 2.528
67.96000 3.809
67.98000 0.978
68.00000 2.380
68.02000 3.213
68.04000 1.754
68.06000 3.487
68.08000 2.528
68.10000 2.179
68.12000 5.781
68.14000 1.766
68.16000 -2.207
68.18000 -0.117
68.20000 1.517
68.22000 3.040
68.24000 2.767
68.26000 1.050
68.28000 1.511
68.30000 1.400
68.32000 3.056
68.34000 0.695
68.36000 0.471
68.38000 -1.230
68.40000 -1.805
68.42000 -1.968
68.44000 -0.163
68.46000 2.094
68.48000 2.673
68.50000 1.591
68.52000 2.428
68.54000 2.524
68.56000 2.093
68.58000 2.723
68.60000 2.417
68.62000 0.472
68.64000 -2.178
68.66000 1.023
68.68000 2.043
68.70000 1.033
68.72000 -0.455
68.74000 -0.989
68.76000 -0.223
68.78000 -0.671
68.80000 -0.567
68.82000 0.513
68.84000 0.400
68.86000 2.247
68.88000 2.154
68.90000 0.437
68.92000 -0.574
68.94000 -1.111
68.96000 -0.487
68.98000 1.258
69.00000 0.657
69.02000 -0.283
69.04000 -0.040
69.06000 -0.879
69.08000 -0.956
69.10000 -0.325
69.12000 0.193
69.14000 -1.665
69.16000 -0.720
69.18000 1.097
69.20000 0.685
69.22000 1.348
69.24000 4.122
69.26000 3.721
69.28000 1.521
69.30000 2.335
69.32000 -0.516
69.34000 -2.115
69.36000 1.221
69.38000 3.042
69.40000 3.830
69.42000 2.634
69.44000 2.586
69.46000 1.772
69.48000 1.571
69.50000 1.621
69.52000 1.047
69.54000 -0.161
69.56000 -0.813
69.58000 -1.009
69.60000 -0.540
69.62000 -0.785
69.64000 -1.427
69.66000 2.824
69.68000 3.808
69.70000 3.029
69.72000 1.359
69.74000 3.164
69.76000 -0.562
69.78000 -0.404
69.80000 0.642
69.82000 -0.420
69.84000 0.537
69.86000 0.449
69.88000 0.793
69.90000 -0.423
69.92000 -0.215
69.94000 0.371
69.96000 1.897
69.98000 1.550
70.00000 -0.324
70.02000 1.043
70.04000 1.414
70.06000 -1.311
70.08000 -2.083
70.10000 -0.235
70.12000 1.049
70.14000 0.975
70.16000 2.167
70.18000 2.347
70.20000 0.786
70.22000 3.636
70.24000 2.926
70.26000 0.901
70.28000 -0.130
70.30000 0.223
70.32000 1.837
70.34000 1.394
70.36000 1.062
70.38000 2.921
70.40000 1.805
70.42000 -0.066
70.44000 1.907
70.46000 0.767
70.48000 1.718
70.50000 2.677
70.52000 4.627
70.54000 1.001
70.56000 -2.065
70.58000 -1.390
70.60000 -2.063
70.62000 0.158
70.64000 1.581
70.66000 1.780
70.68000 -0.464
70.70000 1.079
70.72000 5.306
70.74000 1.676
70.76000 0.079
70.78000 -0.522
70.80000 2.141
70.82000 0.637
70.84000 -0.709
70.86000 0.719
70.88000 3.463
70.90000 1.194
70.92000 3.916
70.94000 2.685
70.96000 1.772
70.98000 2.378
71.00000 3.430
71.02000 3.815
71.04000 1.111
71.06000 -1.054
71.08000 -1.457
71.10000 -1.211
71.12000 0.521
71.14000 -0.789
71.16000 0.518
71.18000 1.713
71.20000 1.536
71.22000 1.149
71.24000 -0.818
71.26000 0.204
71.28000 2.932
71.30000 0.489
71.32000 0.731
71.34000 2.863
71.36000 3.462
71.38000 1.874
71.40000 1.929
71.42000 0.149
71.44000 -2.035
71.46000 -0.462
71.48000 0.217
71.50000 2.580
71.52000 0.860
71.54000 1.855
71.56000 1.957
71.58000 -0.127
71.60000 1.089
71.62000 2.424
71.64000 1.023
71.66000 -0.383
71.68000 0.252
71.70000 -1.628
71.72000 -0.494
71.74000 -0.063
71.76000 1.407
71.78000 -1.141
71.80000 0.799
71.82000 1.824
71.84000 -0.324
71.86000 0.570
71.88000 0.147
71.90000 -0.736
71.92000 -0.945
71.94000 0.753
71.96000 3.140
71.98000 2.005
72.00000 0.890
72.02000 -0.548
72.04000 2.552
72.06000 1.877
72.08000 1.016
72.10000 1.798
72.12000 -0.625
72.14000 0.759
72.16000 0.883
72.18000 0.380
72.20000 -0.307
72.22000 -0.480
72.24000 -1.909
72.26000 -0.921
72.28000 0.407
72.30000 0.787
72.32000 1.465
72.34000 -1.465
72.36000 -1.148
72.38000 0.597
72.40000 1.386
72.42000 -0.811
72.44000 -2.000
72.46000 -0.910
72.48000 1.812
72.50000 0.609
72.52000 0.431
72.54000 -0.451
72.56000 0.946
72.58000 4.090
72.60000 1.866
72.62000 1.971
72.64000 3.099
72.66000 1.370
72.68000 1.755
72.70000 3.362
72.72000 2.846
72.74000 3.455
72.76000 1.483
72.78000 2.899
72.80000 4.170
72.82000 1.575
72.84000 0.373
72.86000 1.064
72.88000 -0.270
72.90000 -0.166
72.92000 -1.984
72.94000 1.440
72.96000 1.273
72.98000 2.105
73.00000 3.239
73.02000 1.609
73.04000 1.701
73.06000 3.545
73.08000 3.260
73.10000 -0.447
73.12000 -1.973
73.14000 -1.662
73.16000 -0.036
73.18000 2.275
73.20000 2.252
73.22000 2.199
73.24000 2.805
73.26000 2.480
73.28000 0.151
73.30000 1.330
73.32000 2.914
73.34000 1.430
73.36000 1.303
73.38000 0.181
73.40000 0.479
73.42000 -1.983
73.44000 0.870
73.46000 1.276
73.48000 -0.245
73.50000 0.119
73.52000 0.719
73.54000 0.939
73.56000 0.544
73.58000 2.733
73.60000 3.872
73.62000 5.625
73.64000 2.948
73.66000 2.959
73.68000 1.080
73.70000 -1.195
73.72000 -0.490
73.74000 3.137
73.76000 1.085
73.78000 -1.192
73.80000 1.693
73.82000 3.778
73.84000 4.842
73.86000 1.068
73.88000 1.570
73.90000 1.489
73.92000 1.860
73.94000 0.763
73.96000 3.833
73.98000 3.766
74.00000 0.765
74.02000 0.160
74.04000 0.261
74.06000 0.785
74.08000 -0.234
74.10000 0.338
74.12000 2.498
74.14000 2.651
74.16000 0.674
74.18000 -1.230
74.20000 -1.114
74.22000 -1.971
74.24000 -0.741
74.26000 1.389
74.28000 0.805
74.30000 4.086
74.32000 1.350
74.34000 0.279
74.36000 2.068
74.38000 1.552
74.40000 0.581
74.42000 0.297
74.44000 3.182
74.46000 3.484
74.48000 2.998
74.50000 1.175
74.52000 1.471
74.54000 -0.843
74.56000 1.347
74.58000 2.088
74.60000 2.460
74.62000 6.000
74.64000 3.609
74.66000 3.029
74.68000 2.465
74.70000 1.035
74.72000 1.209
74.74000 -0.013
74.76000 -1.964
74.78000 -1.896
74.80000 -0.969
74.82000 0.193
74.84000 3.263
74.86000 2.021
74.88000 1.328
74.90000 0.098
74.92000 0.602
74.94000 0.835
74.96000 5.642
74.98000 6.796
75.00000 2.884
75.02000 1.364
75.04000 1.533
75.06000 3.883
75.08000 3.598
75.10000 -0.822
75.12000 1.620
75.14000 2.090
75.16000 2.371
75.18000 3.685
75.20000 2.456
75.22000 0.426
75.24000 1.878
75.26000 0.386
75.28000 -0.921
75.30000 -1.985
75.32000 0.647
75.34000 1.018
75.36000 -1.390
75.38000 -0.637
75.40000 0.277
75.42000 1.795
75.44000 2.243
75.46000 3.198
75.48000 2.061
75.50000 -0.672
75.52000 1.061
75.54000 2.522
75.56000 3.373
75.58000 4.821
75.60000 2.672
75.62000 1.223
75.64000 1.581
75.66000 -1.772
75.68000 -1.592
75.70000 4.445
75.72000 1.748
75.74000 -0.635
75.76000 0.192
75.78000 -0.326
75.80000 0.134
75.82000 0.185
75.84000 -1.102
75.86000 0.617
75.88000 -0.736
75.90000 -2.001
75.92000 -0.504
75.94000 -0.265
75.96000 -0.294
75.98000 -1.108
76.00000 -0.323
76.02000 -0.721
76.04000 -0.555
76.06000 -0.648
76.08000 -0.262
76.10000 0.429
76.12000 0.705
76.14000 2.149
76.16000 1.501
76.18000 0.844
76.20000 0.918
76.22000 2.448
76.24000 0.784
76.26000 0.261
76.28000 0.091
76.30000 0.804
76.32000 1.726
76.34000 2.261
76.36000 2.114
76.38000 5.265
76.40000 2.847
76.42000 2.181
76.44000 0.656
76.46000 3.632
76.48000 2.993
76.50000 -0.636
76.52000 0.915
76.54000 -1.871
76.56000 -0.028
76.58000 3.083
76.60000 3.176
76.62000 4.489
76.64000 -0.103
76.66000 0.118
76.68000 0.078
76.70000 4.848
76.72000 4.097
76.74000 1.745
76.76000 0.019
76.78000 -1.482
76.80000 -0.628
76.82000 2.552
76.84000 1.865
76.86000 -2.003
76.88000 3.304
76.90000 2.680
76.92000 3.814
76.94000 2.605
76.96000 1.620
76.98000 1.704
77.00000 1.175
77.02000 2.917
77.04000 1.396
77.06000 -0.022
77.08000 1.561
77.10000 2.169
77.12000 -1.939
77.14000 -1.995
77.16000 -0.627
77.18000 -0.443
77.20000 3.292
77.22000 2.506
77.24000 0.439
77.26000 0.746
77.28000 -0.852
77.30000 -0.261
77.32000 -0.447
77.34000 0.192
77.36000 2.798
77.38000 2.516
77.40000 0.251
77.42000 3.122
77.44000 4.280
77.46000 1.831
77.48000 1.282
77.50000 -0.757
77.52000 -0.009
77.54000 0.416
77.56000 -0.707
77.58000 -0.850
77.60000 -0.818
77.62000 -0.534
77.64000 0.610
77.66000 1.648
77.68000 3.981
77.70000 0.288
77.72000 1.148
77.74000 -1.829
77.76000 -2.019
77.78000 0.548
77.80000 1.321
77.82000 2.085
77.84000 2.116
77.86000 1.700
77.88000 3.076
77.90000 2.733
77.92000 4.160
77.94000 4.423
77.96000 -0.356
77.98000 0.194
78.00000 0.494
78.02000 0.833
78.04000 1.827
78.06000 3.490
78.08000 -1.266
78.10000 -1.634
78.12000 2.035
78.14000 2.655
78.16000 2.930
78.18000 3.548
78.20000 2.547
78.22000 1.782
78.24000 2.385
78.26000 4.126
78.28000 1.950
78.30000 -0.027
78.32000 3.556
78.34000 5.647
78.36000 3.689
78.38000 1.785
78.40000 5.402
78.42000 5.576
78.44000 5.773
78.46000 3.355
78.48000 1.135
78.50000 3.253
78.52000 4.574
78.54000 4.898
78.56000 4.714
78.58000 2.739
78.60000 5.309
78.62000 5.558
78.64000 1.471
78.66000 3.558
78.68000 2.815
78.70000 4.987
78.72000 5.564
78.74000 3.616
78.76000 2.009
78.78000 0.701
78.80000 -1.990
78.82000 2.126
78.84000 2.486
78.86000 4.657
78.88000 6.886
78.90000 8.010
78.92000 6.483
78.94000 4.554
78.96000 4.313
78.98000 1.909
79.00000 3.159
79.02000 5.156
79.04000 3.921
79.06000 4.667
79.08000 3.908
79.10000 2.572
79.12000 4.329
79.14000 4.249
79.16000 4.896
79.18000 -0.488
79.20000 1.421
79.22000 2.824
79.24000 5.214
79.26000 4.359
79.28000 1.918
79.30000 0.138
79.32000 1.357
79.34000 2.370
79.36000 1.897
79.38000 -1.228
79.40000 1.950
79.42000 1.665
79.44000 2.423
79.46000 4.212
79.48000 1.539
79.50000 -0.424
79.52000 3.385
79.54000 0.902
79.56000 3.100
79.58000 2.521
79.60000 3.674
79.62000 3.304
79.64000 1.927
79.66000 0.201
79.68000 -0.694
79.70000 0.990
79.72000 1.557
79.74000 1.260
79.76000 4.214
79.78000 3.624
79.80000 3.488
79.82000 -0.702
79.84000 0.291
79.86000 -0.220
79.88000 2.934
79.90000 2.457
79.92000 3.317
79.94000 2.671
79.96000 1.751
79.98000 2.511
80.00000 1.850
80.02000 2.160
80.04000 4.080
80.06000 2.232
80.08000 2.741
80.10000 3.666
80.12000 7.668
80.14000 4.641
80.16000 2.256
80.18000 3.323
80.20000 7.579
80.22000 4.910
80.24000 8.814
80.26000 4.874
80.28000 1.621
80.30000 6.304
80.32000 6.381
80.34000 8.784
80.36000 12.672
80.38000 9.627
80.40000 10.323
80.42000 12.887
80.44000 8.869
80.46000 13.940
80.48000 16.324
80.50000 12.233
80.52000 10.110
80.54000 11.087
80.56000 13.424
80.58000 15.683
80.60000 16.378
80.62000 16.709
80.64000 15.211
80.66000 18.458
80.68000 21.432
80.70000 15.515
80.72000 14.895
80.74000 16.796
80.76000 21.814
80.78000 24.922
80.80000 24.267
80.82000 16.070
80.84000 14.016
80.86000 18.089
80.88000 24.240
80.90000 21.637
80.92000 22.444
80.94000 22.470
80.96000 22.072
80.98000 23.186
81.00000 22.800
81.02000 19.658
81.04000 18.111
81.06000 21.011
81.08000 20.541
81.10000 18.443
81.12000 21.638
81.14000 25.067
81.16000 22.961
81.18000 24.988
81.20000 27.588
81.22000 23.559
81.24000 22.903
81.26000 24.311
81.28000 20.643
81.30000 20.733
81.32000 21.432
81.34000 23.631
81.36000 21.210
81.38000 19.324
81.40000 20.177
81.42000 22.649
81.44000 21.099
81.46000 19.561
81.48000 17.543
81.50000 20.142
81.52000 19.542
81.54000 15.928
81.56000 16.137
81.58000 14.779
81.60000 16.451
81.62000 17.342
81.64000 12.092
81.66000 12.803
81.68000 16.898
81.70000 14.791
81.72000 10.839
81.74000 8.635
81.76000 9.468
81.78000 12.858
81.80000 10.627
81.82000 8.737
81.84000 6.868
81.86000 9.478
81.88000 7.635
81.90000 3.329
81.92000 2.662
81.94000 4.022
81.96000 5.896
81.98000 7.227
82.00000 10.796
82.02000 9.041
82.04000 4.698
82.06000 5.312
82.08000 7.182
82.10000 4.131
82.12000 6.000
82.14000 5.716
82.16000 4.216
82.18000 2.108
82.20000 4.019
82.22000 4.451
82.24000 1.591
82.26000 -0.069
82.28000 3.679
82.30000 4.114
82.32000 4.126
82.34000 1.177
82.36000 -1.432
82.38000 2.179
82.40000 3.192
82.42000 1.364
82.44000 2.116
82.46000 4.814
82.48000 1.827
82.50000 0.893
82.52000 5.060
82.54000 4.244
82.56000 5.576
82.58000 3.354
82.60000 0.615
82.62000 -0.695
82.64000 -0.307
82.66000 -0.418
82.68000 -2.194
82.70000 -0.550
82.72000 -0.175
82.74000 0.820
82.76000 3.716
82.78000 4.785
82.80000 4.108
82.82000 0.969
82.84000 -0.331
82.86000 1.241
82.88000 2.264
82.90000 0.898
82.92000 -0.679
82.94000 -2.194
82.96000 -0.870
82.98000 3.438
83.00000 3.665
83.02000 2.698
83.04000 -1.166
83.06000 1.463
83.08000 1.295
83.10000 -0.047
83.12000 1.538
83.14000 3.864
83.16000 3.035
83.18000 -1.096
83.20000 -2.193
83.22000 0.164
83.24000 3.066
83.26000 -1.701
83.28000 0.932
83.30000 1.863
83.32000 -0.562
83.34000 0.079
83.36000 1.829
83.38000 4.156
83.40000 6.318
83.42000 2.156
83.44000 -1.432
83.46000 2.340
83.48000 3.086
83.50000 0.288
83.52000 1.060
83.54000 3.224
83.56000 2.645
83.58000 2.859
83.60000 3.703
83.62000 5.360
83.64000 5.575
83.66000 4.157
83.68000 2.807
83.70000 4.806
83.72000 3.063
83.74000 0.499
83.76000 -2.231
83.78000 0.873
83.80000 8.531
83.82000 5.307
83.84000 2.653
83.86000 -0.271
83.88000 2.057
83.90000 6.022
83.92000 5.455
83.94000 4.760
83.96000 7.883
83.98000 6.323
84.00000 5.136
84.02000 7.117
84.04000 6.247
84.06000 7.371
84.08000 9.149
84.10000 8.475
84.12000 8.199
84.14000 13.513
84.16000 13.185
84.18000 10.570
84.20000 12.935
84.22000 11.920
84.24000 9.536
84.26000 11.528
84.28000 13.851
84.30000 14.203
84.32000 13.595
84.34000 10.622
84.36000 15.598
84.38000 20.614
84.40000 20.683
84.42000 20.364
84.44000 19.961
84.46000 21.736
84.48000 23.904
84.50000 25.360
84.52000 26.972
84.54000 27.178
84.56000 25.978
84.58000 24.698
84.60000 23.456
84.62000 24.880
84.64000 28.183
84.66000 34.788
84.68000 32.046
84.70000 34.011
84.72000 34.143
84.74000 33.158
84.76000 32.311
84.78000 31.193
84.80000 34.872
84.82000 37.229
84.84000 34.988
84.86000 34.257
84.88000 41.641
84.90000 39.655
84.92000 36.649
84.94000 40.543
84.96000 45.269
84.98000 44.006
85.00000 36.673
85.02000 35.629
85.04000 38.787
85.06000 34.915
85.08000 36.144
85.10000 36.044
85.12000 37.651
85.14000 36.003
85.16000 38.052
85.18000 37.937
85.20000 38.234
85.22000 36.143
85.24000 33.602
85.26000 33.898
85.28000 32.698
85.30000 33.512
85.32000 33.990
85.34000 32.104
85.36000 31.807
85.38000 32.621
85.40000 31.350
85.42000 31.268
85.44000 28.804
85.46000 26.786
85.48000 26.658
85.50000 23.222
85.52000 24.434
85.54000 24.475
85.56000 18.186
85.58000 16.971
85.60000 17.469
85.62000 21.992
85.64000 22.264
85.66000 19.203
85.68000 19.542
85.70000 18.513
85.72000 16.849
85.74000 17.911
85.76000 11.560
85.78000 11.891
85.80000 14.256
85.82000 16.105
85.84000 16.132
85.86000 14.947
85.88000 11.353
85.90000 8.639
85.92000 8.463
85.94000 4.301
85.96000 8.811
85.98000 9.294
86.00000 6.766
86.02000 3.358
86.04000 3.060
86.06000 6.550
86.08000 7.306
86.10000 4.786
86.12000 2.101
86.14000 2.527
86.16000 0.664
86.18000 1.246
86.20000 1.538
86.22000 -0.506
86.24000 0.859
86.26000 3.341
86.28000 -1.711
86.30000 0.491
86.32000 0.337
86.34000 -0.986
86.36000 -0.176
86.38000 -0.918
86.40000 0.453
86.42000 -0.900
86.44000 -1.203
86.46000 2.145
86.48000 2.545
86.50000 2.150
86.52000 4.331
86.54000 2.138
86.56000 0.877
86.58000 -0.347
86.60000 0.125
86.62000 0.439
86.64000 3.451
86.66000 1.002
86.68000 -1.737
86.70000 2.587
86.72000 2.171
86.74000 1.420
86.76000 3.982
86.78000 3.057
86.80000 0.005
86.82000 1.277
86.84000 2.740
86.86000 2.161
86.88000 1.056
86.90000 1.117
86.92000 1.145
86.94000 -1.960
86.96000 -0.554
86.98000 1.465
87.00000 0.454
87.02000 3.186
87.04000 1.318
87.06000 3.647
87.08000 5.420
87.10000 5.901
87.12000 3.249
87.14000 -1.955
87.16000 0.330
87.18000 0.914
87.20000 2.033
87.22000 1.607
87.24000 1.079
87.26000 2.518
87.28000 2.086
87.30000 -1.386
87.32000 -1.049
87.34000 -1.753
87.36000 0.871
87.38000 3.253
87.40000 2.292
87.42000 3.091
87.44000 2.971
87.46000 0.633
87.48000 -1.660
87.50000 -0.435
87.52000 0.563
87.54000 -1.803
87.56000 -1.644
87.58000 -0.236
87.60000 -1.704
87.62000 -0.506
87.64000 -0.599
87.66000 1.369
87.68000 3.888
87.70000 -0.115
87.72000 1.234
87.74000 2.947
87.76000 3.032
87.78000 1.822
87.80000 0.854
87.82000 1.798
87.84000 0.875
87.86000 -1.441
87.88000 -1.926
87.90000 -1.189
87.92000 0.163
87.94000 2.106
87.96000 -0.017
87.98000 -1.666
88.00000 -1.637
88.02000 -0.228
88.04000 -1.053
88.06000 1.399
88.08000 2.285
88.10000 -0.206
88.12000 -0.881
88.14000 -0.264
88.16000 1.397
88.18000 4.591
88.20000 3.901
88.22000 1.883
88.24000 -0.201
88.26000 -0.011
88.28000 2.535
88.30000 2.543
88.32000 0.623
88.34000 0.999
88.36000 1.634
88.38000 -0.079
88.40000 -0.014
88.42000 0.377
88.44000 -0.467
88.46000 -0.226
88.48000 2.773
88.50000 2.503
88.52000 3.868
88.54000 3.147
88.56000 2.627
88.58000 6.483
88.60000 6.135
88.62000 3.317
88.64000 -1.846
88.66000 1.178
88.68000 0.409
88.70000 2.770
88.72000 4.810
88.74000 4.072
88.76000 2.816
88.78000 3.818
88.80000 4.038
88.82000 5.135
88.84000 5.300
88.86000 -1.841
88.88000 0.718
88.90000 1.534
88.92000 4.304
88.94000 5.051
88.96000 4.243
88.98000 1.886
89.00000 -1.058
89.02000 -0.713
89.04000 0.052
89.06000 0.071
89.08000 1.976
89.10000 2.253
89.12000 0.971
89.14000 1.441
89.16000 0.924
89.18000 0.411
89.20000 3.465
89.22000 3.268
89.24000 0.075
89.26000 1.223
89.28000 -0.365
89.30000 -1.857
89.32000 -1.619
89.34000 1.931
89.36000 3.459
89.38000 0.923
89.40000 1.874
89.42000 3.817
89.44000 5.553
89.46000 1.456
89.48000 0.676
89.50000 0.707
89.52000 2.499
89.54000 4.602
89.56000 -1.423
89.58000 1.038
89.60000 2.287
89.62000 -1.041
89.64000 1.962
89.66000 2.145
89.68000 0.810
89.70000 1.520
89.72000 3.483
89.74000 4.464
89.76000 1.031
89.78000 0.570
89.80000 2.260
89.82000 2.132
89.84000 -1.856
89.86000 0.400
89.88000 3.156
89.90000 2.330
89.92000 1.241
89.94000 0.715
89.96000 1.488
89.98000 2.706
90.00000 4.436
90.02000 3.834
90.04000 -0.613
90.06000 0.014
90.08000 3.881
90.10000 3.845
90.12000 2.002
90.14000 1.533
90.16000 4.403
90.18000 0.283
90.20000 0.956
90.22000 0.120
90.24000 1.723
90.26000 1.653
90.28000 1.949
90.30000 5.559
90.32000 5.122
90.34000 5.139
90.36000 -0.195
90.38000 -1.841
90.40000 1.582
90.42000 3.440
90.44000 2.743
90.46000 1.058
90.48000 2.303
90.50000 1.912
90.52000 2.500
90.54000 2.505
90.56000 2.657
90.58000 3.952
90.60000 3.090
90.62000 0.773
90.64000 3.731
90.66000 4.382
90.68000 1.835
90.70000 1.543
90.72000 2.994
90.74000 2.775
90.76000 0.006
90.78000 -1.836
90.80000 0.859
90.82000 2.819
90.84000 0.911
90.86000 2.299
90.88000 0.811
90.90000 2.894
90.92000 1.450
90.94000 3.414
90.96000 1.945
90.98000 2.108
91.00000 1.055
91.02000 4.812
91.04000 4.242
91.06000 3.378
91.08000 3.557
91.10000 2.417
91.12000 -0.529
91.14000 -1.703
91.16000 1.153
91.18000 3.470
91.20000 4.090
91.22000 3.206
91.24000 -0.270
91.26000 2.186
91.28000 3.321
91.30000 3.360
91.32000 1.645
91.34000 -0.618
91.36000 0.965
91.38000 -0.527
91.40000 1.215
91.42000 0.356
91.44000 -0.470
91.46000 -1.841
91.48000 0.302
91.50000 -0.054
91.52000 0.012
91.54000 0.887
91.56000 -0.684
91.58000 -1.572
91.60000 0.366
91.62000 3.505
91.64000 2.728
91.66000 6.317
91.68000 5.960
91.70000 1.286
91.72000 1.993
91.74000 1.723
91.76000 1.730
91.78000 3.399
91.80000 2.507
91.82000 5.384
91.84000 1.889
91.86000 2.923
91.88000 1.810
91.90000 2.928
91.92000 1.514
91.94000 -0.374
91.96000 0.598
91.98000 1.616
92.00000 0.222
92.02000 4.973
92.04000 5.603
92.06000 4.006
92.08000 2.159
92.10000 0.214
92.12000 3.576
92.14000 1.781
92.16000 -0.797
92.18000 -1.659
92.20000 -0.114
92.22000 0.272
92.24000 0.263
92.26000 1.152
92.28000 0.740
92.30000 0.734
92.32000 1.824
92.34000 2.085
92.36000 2.788
92.38000 1.906
92.40000 0.687
92.42000 4.282
92.44000 2.681
92.46000 3.302
92.48000 1.836
92.50000 -0.475
92.52000 0.067
92.54000 -0.233
92.56000 5.439
92.58000 3.408
92.60000 3.734
92.62000 1.743
92.64000 -1.768
92.66000 -0.116
92.68000 1.370
92.70000 5.691
92.72000 4.928
92.74000 2.744
92.76000 -0.305
92.78000 -1.553
92.80000 3.181
92.82000 3.667
92.84000 0.000
92.86000 0.095
92.88000 -1.829
92.90000 0.013
92.92000 2.338
92.94000 4.517
92.96000 3.848
92.98000 1.829
93.00000 2.312
93.02000 1.681
93.04000 0.811
93.06000 4.916
93.08000 0.034
93.10000 -0.247
93.12000 2.927
93.14000 4.579
93.16000 -1.832
93.18000 2.145
93.20000 5.789
93.22000 4.488
93.24000 5.971
93.26000 6.366
93.28000 3.679
93.30000 4.008
93.32000 2.357
93.34000 3.119
93.36000 5.078
93.38000 3.066
93.40000 1.032
93.42000 1.199
93.44000 0.560
93.46000 -0.247
93.48000 0.831
93.50000 4.215
93.52000 5.219
93.54000 3.057
93.56000 1.074
93.58000 0.710
93.60000 2.997
93.62000 3.922
93.64000 5.073
93.66000 3.292
93.68000 4.795
93.70000 3.109
93.72000 3.020
93.74000 1.817
93.76000 2.773
93.78000 4.299
93.80000 3.030
93.82000 3.935
93.84000 4.124
93.86000 4.249
93.88000 4.394
93.90000 0.779
93.92000 5.077
93.94000 5.609
93.96000 3.862
93.98000 5.674
94.00000 7.863
94.02000 6.416
94.04000 4.490
94.06000 3.498
94.08000 5.683
94.10000 1.499
94.12000 -0.341
94.14000 1.764
94.16000 1.055
94.18000 2.654
94.20000 -1.861
94.22000 0.725
94.24000 4.059
94.26000 2.385
94.28000 1.992
94.30000 2.251
94.32000 1.629
94.34000 2.606
94.36000 0.582
94.38000 2.629
94.40000 4.121
94.42000 1.331
94.44000 0.234
94.46000 4.758
94.48000 4.124
94.50000 0.037
94.52000 1.175
94.54000 5.271
94.56000 6.020
94.58000 3.683
94.60000 2.768
94.62000 4.257
94.64000 2.321
94.66000 5.648
94.68000 8.478
94.70000 4.919
94.72000 2.257
94.74000 3.625
94.76000 2.288
94.78000 2.111
94.80000 4.289
94.82000 3.969
94.84000 5.169
94.86000 7.205
94.88000 5.330
94.90000 4.683
94.92000 2.321
94.94000 2.776
94.96000 4.011
94.98000 2.555
95.00000 0.674
95.02000 2.290
95.04000 3.820
95.06000 1.548
95.08000 2.149
95.10000 3.630
95.12000 3.693
95.14000 0.928
95.16000 2.152
95.18000 3.125
95.20000 8.704
95.22000 5.619
95.24000 2.773
95.26000 2.812
95.28000 0.254
95.30000 3.931
95.32000 4.380
95.34000 4.554
95.36000 4.295
95.38000 4.442
95.40000 2.818
95.42000 4.352
95.44000 4.346
95.46000 2.225
95.48000 2.932
95.50000 2.622
95.52000 3.339
95.54000 5.161
95.56000 7.656
95.58000 4.806
95.60000 6.802
95.62000 4.200
95.64000 3.528
95.66000 6.542
95.68000 12.704
95.70000 9.968
95.72000 7.446
95.74000 3.756
95.76000 1.050
95.78000 8.132
95.80000 3.705
95.82000 7.015
95.84000 5.434
95.86000 0.280
95.88000 5.373
95.90000 5.843
95.92000 2.443
95.94000 3.013
95.96000 4.778
95.98000 9.006
96.00000 8.843
96.02000 6.601
96.04000 8.473
96.06000 6.349
96.08000 5.025
96.10000 6.591
96.12000 7.521
96.14000 7.263
96.16000 6.399
96.18000 5.830
96.20000 6.880
96.22000 7.885
96.24000 3.873
96.26000 -1.777
96.28000 1.868
96.30000 5.501
96.32000 4.635
96.34000 5.514
96.36000 4.796
96.38000 3.060
96.40000 4.382
96.42000 8.225
96.44000 6.630
96.46000 4.293
96.48000 7.110
96.50000 4.434
96.52000 5.631
96.54000 9.098
96.56000 7.227
96.58000 3.651
96.60000 1.335
96.62000 2.911
96.64000 5.201
96.66000 5.716
96.68000 4.056
96.70000 4.471
96.72000 8.876
96.74000 9.991
96.76000 5.437
96.78000 3.671
96.80000 0.125
96.82000 2.956
96.84000 6.155
96.86000 2.268
96.88000 6.004
96.90000 4.855
96.92000 3.966
96.94000 5.577
96.96000 1.694
96.98000 2.435
97.00000 1.825
97.02000 4.975
97.04000 2.595
97.06000 2.137
97.08000 1.717
97.10000 5.492
97.12000 4.295
97.14000 4.046
97.16000 8.696
97.18000 4.747
97.20000 5.850
97.22000 6.204
97.24000 3.886
97.26000 9.322
97.28000 8.697
97.30000 4.226
97.32000 -0.553
97.34000 1.589
97.36000 2.892
97.38000 7.524
97.40000 3.344
97.42000 0.422
97.44000 0.271
97.46000 -0.125
97.48000 -1.676
97.50000 4.034
97.52000 4.750
97.54000 2.259
97.56000 2.661
97.58000 6.425
97.60000 4.191
97.62000 2.069
97.64000 -0.942
97.66000 0.625
97.68000 0.447
97.70000 0.646
97.72000 6.138
97.74000 7.307
97.76000 4.678
97.78000 -0.156
97.80000 0.887
97.82000 1.789
97.84000 2.505
97.86000 7.384
97.88000 3.256
97.90000 3.524
97.92000 4.033
97.94000 2.786
97.96000 -0.701
97.98000 0.831
98.00000 1.174
98.02000 3.243
98.04000 7.431
98.06000 3.912
98.08000 5.702
98.10000 2.840
98.12000 1.389
98.14000 6.899
98.16000 5.985
98.18000 4.036
98.20000 1.447
98.22000 0.114
98.24000 3.442
98.26000 3.312
98.28000 3.683
98.30000 2.683
98.32000 0.237
98.34000 3.597
98.36000 7.534
98.38000 4.465
98.40000 6.660
98.42000 1.274
98.44000 1.947
98.46000 -1.387
98.48000 0.506
98.50000 3.155
98.52000 -0.134
98.54000 3.457
98.56000 3.021
98.58000 0.680
98.60000 0.036
98.62000 1.304
98.64000 6.435
98.66000 7.306
98.68000 7.780
98.70000 4.205
98.72000 0.085
98.74000 4.274
98.76000 3.964
98.78000 2.091
98.80000 3.703
98.82000 9.625
98.84000 6.422
98.86000 5.773
98.88000 3.692
98.90000 5.749
98.92000 7.445
98.94000 11.881
98.96000 9.243
98.98000 6.920
99.00000 7.703
99.02000 -1.733
99.04000 0.836
99.06000 3.175
99.08000 6.597
99.10000 6.236
99.12000 6.168
99.14000 2.450
99.16000 9.127
99.18000 9.594
99.20000 8.278
99.22000 3.416
99.24000 5.255
99.26000 8.284
99.28000 6.384
99.30000 6.820
99.32000 5.938
99.34000 11.418
99.36000 7.840
99.38000 2.955
99.40000 2.718
99.42000 -0.284
99.44000 4.571
99.46000 3.583
99.48000 1.795
99.50000 3.887
99.52000 -0.506
99.54000 -1.602
99.56000 2.229
99.58000 1.098
99.60000 0.571
99.62000 5.898
99.64000 5.117
99.66000 4.830
99.68000 -3.363
99.70000 4.496
99.72000 5.234
99.74000 5.528
99.76000 -0.850
99.78000 5.268
99.80000 6.144
99.82000 -0.081
99.84000 2.873
99.86000 2.762
99.88000 -1.519
99.90000 -1.902
99.92000 0.968
99.94000 7.971
99.96000 0.016
99.98000 0.000
