'Id: "0011389" Comment: "Integrate frame 0011389_Au-Ir-Rh_Au-Rich_XRD_Mapping-333-0000.gfrmwith cursor Wedge Cursor #5" Operator: "B?rgel" Anode: "Cu" Wavelength: "1.5406" Scantype: "2Theta (TwoTheta)" TimePerStep: "1" X: "18" Y: "40.5" Z: "5.95" 
10.00000 0.000
10.02000 10.616
10.04000 8.873
10.06000 10.348
10.08000 2.835
10.10000 -1.816
10.12000 30.191
10.14000 13.800
10.16000 14.678
10.18000 7.000
10.20000 8.332
10.22000 -4.105
10.24000 1.784
10.26000 17.159
10.28000 20.986
10.30000 24.897
10.32000 20.342
10.34000 11.418
10.36000 15.382
10.38000 14.783
10.40000 22.642
10.42000 25.351
10.44000 21.905
10.46000 13.446
10.48000 25.736
10.50000 29.064
10.52000 28.960
10.54000 21.893
10.56000 21.703
10.58000 28.023
10.60000 16.421
10.62000 22.779
10.64000 31.792
10.66000 18.558
10.68000 7.668
10.70000 -1.513
10.72000 12.600
10.74000 31.821
10.76000 17.688
10.78000 11.043
10.80000 13.869
10.82000 25.140
10.84000 15.683
10.86000 11.696
10.88000 19.760
10.90000 23.179
10.92000 20.754
10.94000 20.232
10.96000 25.200
10.98000 17.739
11.00000 16.596
11.02000 12.441
11.04000 14.744
11.06000 9.644
11.08000 14.568
11.10000 17.857
11.12000 24.294
11.14000 24.100
11.16000 19.962
11.18000 24.743
11.20000 31.175
11.22000 25.308
11.24000 12.362
11.26000 11.093
11.28000 14.741
11.30000 19.041
11.32000 22.267
11.34000 25.294
11.36000 19.675
11.38000 11.780
11.40000 6.693
11.42000 19.646
11.44000 40.151
11.46000 33.878
11.48000 23.458
11.50000 4.126
11.52000 6.964
11.54000 31.530
11.56000 39.212
11.58000 29.839
11.60000 16.722
11.62000 11.352
11.64000 18.606
11.66000 12.492
11.68000 17.147
11.70000 5.901
11.72000 10.547
11.74000 21.771
11.76000 16.083
11.78000 21.249
11.80000 30.971
11.82000 22.547
11.84000 13.773
11.86000 10.578
11.88000 14.968
11.90000 18.764
11.92000 19.398
11.94000 24.228
11.96000 20.641
11.98000 20.540
12.00000 22.063
12.02000 15.596
12.04000 20.189
12.06000 21.342
12.08000 17.529
12.10000 29.413
12.12000 35.113
12.14000 19.809
12.16000 15.612
12.18000 20.004
12.20000 22.788
12.22000 20.814
12.24000 26.507
12.26000 27.433
12.28000 21.165
12.30000 22.388
12.32000 20.299
12.34000 12.830
12.36000 13.086
12.38000 16.347
12.40000 16.758
12.42000 9.924
12.44000 18.934
12.46000 20.595
12.48000 26.709
12.50000 33.775
12.52000 13.296
12.54000 16.762
12.56000 19.795
12.58000 15.178
12.60000 18.331
12.62000 24.757
12.64000 27.336
12.66000 23.923
12.68000 20.684
12.70000 14.470
12.72000 23.669
12.74000 32.948
12.76000 21.409
12.78000 15.111
12.80000 15.007
12.82000 18.226
12.84000 16.441
12.86000 7.980
12.88000 29.017
12.90000 34.354
12.92000 20.486
12.94000 16.002
12.96000 19.243
12.98000 20.494
13.00000 21.667
13.02000 21.789
13.04000 25.984
13.06000 26.161
13.08000 21.203
13.10000 19.716
13.12000 13.667
13.14000 26.712
13.16000 23.773
13.18000 23.133
13.20000 26.128
13.22000 30.404
13.24000 20.388
13.26000 22.784
13.28000 25.647
13.30000 24.904
13.32000 19.969
13.34000 17.786
13.36000 12.876
13.38000 25.841
13.40000 24.763
13.42000 16.387
13.44000 21.938
13.46000 21.902
13.48000 14.450
13.50000 11.698
13.52000 6.700
13.54000 9.573
13.56000 13.616
13.58000 17.130
13.60000 15.795
13.62000 13.489
13.64000 20.841
13.66000 35.270
13.68000 24.938
13.70000 10.830
13.72000 8.170
13.74000 11.343
13.76000 21.614
13.78000 26.618
13.80000 26.918
13.82000 21.186
13.84000 19.113
13.86000 13.631
13.88000 12.593
13.90000 30.040
13.92000 30.049
13.94000 21.437
13.96000 15.853
13.98000 23.268
14.00000 13.686
14.02000 15.896
14.04000 16.919
14.06000 11.797
14.08000 10.107
14.10000 15.881
14.12000 18.340
14.14000 14.103
14.16000 14.586
14.18000 4.998
14.20000 10.777
14.22000 15.530
14.24000 20.113
14.26000 20.132
14.28000 18.060
14.30000 14.564
14.32000 13.902
14.34000 13.215
14.36000 14.888
14.38000 14.115
14.40000 15.738
14.42000 17.992
14.44000 19.873
14.46000 12.017
14.48000 17.166
14.50000 18.628
14.52000 16.235
14.54000 12.399
14.56000 25.112
14.58000 14.368
14.60000 17.061
14.62000 19.931
14.64000 16.694
14.66000 17.193
14.68000 10.782
14.70000 3.454
14.72000 -1.265
14.74000 10.424
14.76000 13.049
14.78000 23.532
14.80000 19.691
14.82000 20.239
14.84000 26.410
14.86000 13.897
14.88000 9.159
14.90000 5.516
14.92000 17.581
14.94000 18.156
14.96000 16.101
14.98000 16.963
15.00000 14.671
15.02000 9.049
15.04000 12.545
15.06000 9.980
15.08000 1.147
15.10000 -0.523
15.12000 4.790
15.14000 8.689
15.16000 14.847
15.18000 19.355
15.20000 17.061
15.22000 11.822
15.24000 9.559
15.26000 8.500
15.28000 16.024
15.30000 9.146
15.32000 12.042
15.34000 14.295
15.36000 11.273
15.38000 4.760
15.40000 10.440
15.42000 9.827
15.44000 5.223
15.46000 7.066
15.48000 9.060
15.50000 13.556
15.52000 13.506
15.54000 11.980
15.56000 15.413
15.58000 7.376
15.60000 1.782
15.62000 12.720
15.64000 12.906
15.66000 8.653
15.68000 7.524
15.70000 8.551
15.72000 6.575
15.74000 5.687
15.76000 12.963
15.78000 14.574
15.80000 15.484
15.82000 12.437
15.84000 12.384
15.86000 11.721
15.88000 14.020
15.90000 14.786
15.92000 15.075
15.94000 7.961
15.96000 5.730
15.98000 11.412
16.00000 11.104
16.02000 12.452
16.04000 11.173
16.06000 10.216
16.08000 3.951
16.10000 3.489
16.12000 6.721
16.14000 7.110
16.16000 -1.208
16.18000 7.573
16.20000 11.097
16.22000 -0.473
16.24000 7.294
16.26000 13.809
16.28000 14.858
16.30000 11.208
16.32000 6.910
16.34000 -0.713
16.36000 1.517
16.38000 10.097
16.40000 11.961
16.42000 13.531
16.44000 16.524
16.46000 14.984
16.48000 3.987
16.50000 7.150
16.52000 8.886
16.54000 4.223
16.56000 3.076
16.58000 -4.439
16.60000 1.048
16.62000 4.110
16.64000 3.876
16.66000 3.768
16.68000 9.314
16.70000 4.334
16.72000 7.160
16.74000 12.122
16.76000 3.694
16.78000 -3.074
16.80000 -1.022
16.82000 3.300
16.84000 15.420
16.86000 18.204
16.88000 9.952
16.90000 3.554
16.92000 5.349
16.94000 9.776
16.96000 6.504
16.98000 10.482
17.00000 12.599
17.02000 9.471
17.04000 10.815
17.06000 8.637
17.08000 12.581
17.10000 9.343
17.12000 6.377
17.14000 3.415
17.16000 6.426
17.18000 7.365
17.20000 0.582
17.22000 -0.416
17.24000 8.848
17.26000 9.211
17.28000 9.673
17.30000 9.420
17.32000 11.323
17.34000 8.720
17.36000 7.309
17.38000 8.480
17.40000 14.132
17.42000 9.894
17.44000 8.341
17.46000 10.032
17.48000 3.214
17.50000 4.309
17.52000 10.138
17.54000 6.544
17.56000 6.789
17.58000 7.783
17.60000 10.671
17.62000 6.860
17.64000 2.373
17.66000 -3.087
17.68000 0.607
17.70000 7.494
17.72000 17.171
17.74000 10.247
17.76000 2.192
17.78000 0.112
17.80000 2.054
17.82000 2.385
17.84000 -0.119
17.86000 6.570
17.88000 8.214
17.90000 2.983
17.92000 2.813
17.94000 4.139
17.96000 11.027
17.98000 11.867
18.00000 -0.406
18.02000 -2.320
18.04000 3.333
18.06000 8.669
18.08000 6.434
18.10000 6.822
18.12000 3.714
18.14000 -3.238
18.16000 -1.698
18.18000 4.978
18.20000 10.618
18.22000 10.175
18.24000 5.374
18.26000 0.072
18.28000 5.963
18.30000 6.284
18.32000 8.618
18.34000 6.356
18.36000 2.843
18.38000 5.423
18.40000 8.829
18.42000 10.070
18.44000 8.287
18.46000 5.631
18.48000 4.121
18.50000 4.938
18.52000 10.334
18.54000 7.067
18.56000 -1.026
18.58000 0.131
18.60000 -3.505
18.62000 -4.368
18.64000 0.844
18.66000 -2.262
18.68000 -2.079
18.70000 -0.760
18.72000 -1.740
18.74000 -2.412
18.76000 5.817
18.78000 10.082
18.80000 8.629
18.82000 7.482
18.84000 1.456
18.86000 0.177
18.88000 11.366
18.90000 5.056
18.92000 -3.989
18.94000 6.535
18.96000 6.038
18.98000 3.883
19.00000 0.274
19.02000 -3.260
19.04000 3.398
19.06000 9.669
19.08000 8.715
19.10000 8.190
19.12000 7.049
19.14000 -0.967
19.16000 3.531
19.18000 5.733
19.20000 5.134
19.22000 3.233
19.24000 -3.806
19.26000 2.794
19.28000 6.013
19.30000 2.217
19.32000 3.469
19.34000 6.782
19.36000 3.590
19.38000 -1.983
19.40000 -4.308
19.42000 -3.377
19.44000 2.768
19.46000 0.204
19.48000 2.800
19.50000 3.977
19.52000 5.173
19.54000 2.818
19.56000 3.400
19.58000 0.635
19.60000 -0.065
19.62000 5.799
19.64000 11.190
19.66000 10.034
19.68000 10.578
19.70000 6.353
19.72000 10.866
19.74000 9.660
19.76000 2.242
19.78000 2.394
19.80000 0.394
19.82000 4.631
19.84000 6.391
19.86000 9.184
19.88000 4.682
19.90000 2.359
19.92000 7.855
19.94000 9.937
19.96000 1.154
19.98000 4.419
20.00000 -1.588
20.02000 -4.257
20.04000 2.185
20.06000 7.109
20.08000 8.994
20.10000 5.984
20.12000 6.645
20.14000 5.608
20.16000 6.980
20.18000 1.765
20.20000 2.652
20.22000 5.318
20.24000 1.834
20.26000 6.339
20.28000 7.654
20.30000 9.201
20.32000 2.881
20.34000 -2.174
20.36000 6.345
20.38000 12.863
20.40000 3.593
20.42000 6.695
20.44000 5.407
20.46000 9.310
20.48000 4.166
20.50000 0.613
20.52000 7.397
20.54000 9.274
20.56000 3.559
20.58000 1.841
20.60000 -2.702
20.62000 -0.473
20.64000 -2.553
20.66000 1.331
20.68000 5.636
20.70000 5.903
20.72000 7.094
20.74000 1.287
20.76000 -0.097
20.78000 3.778
20.80000 3.033
20.82000 -0.179
20.84000 3.974
20.86000 10.274
20.88000 7.391
20.90000 12.740
20.92000 4.997
20.94000 5.014
20.96000 4.023
20.98000 2.941
21.00000 2.077
21.02000 3.128
21.04000 -0.618
21.06000 2.399
21.08000 0.269
21.10000 0.115
21.12000 2.630
21.14000 9.673
21.16000 7.329
21.18000 -4.209
21.20000 -1.784
21.22000 3.130
21.24000 5.043
21.26000 2.439
21.28000 -0.040
21.30000 2.672
21.32000 5.645
21.34000 3.557
21.36000 0.802
21.38000 7.098
21.40000 8.097
21.42000 3.114
21.44000 5.707
21.46000 12.139
21.48000 10.619
21.50000 6.829
21.52000 2.083
21.54000 -0.347
21.56000 0.954
21.58000 1.297
21.60000 5.684
21.62000 10.031
21.64000 11.639
21.66000 10.099
21.68000 3.890
21.70000 4.099
21.72000 6.173
21.74000 8.818
21.76000 2.351
21.78000 -1.045
21.80000 0.340
21.82000 3.272
21.84000 -1.607
21.86000 -1.348
21.88000 1.118
21.90000 1.976
21.92000 7.363
21.94000 10.571
21.96000 8.545
21.98000 11.013
22.00000 9.454
22.02000 8.383
22.04000 3.792
22.06000 7.136
22.08000 5.837
22.10000 -0.639
22.12000 -3.681
22.14000 2.556
22.16000 12.809
22.18000 12.887
22.20000 8.580
22.22000 2.949
22.24000 3.298
22.26000 -0.463
22.28000 -0.822
22.30000 7.982
22.32000 4.306
22.34000 -4.124
22.36000 -1.194
22.38000 1.027
22.40000 3.811
22.42000 7.788
22.44000 7.057
22.46000 6.865
22.48000 5.863
22.50000 8.462
22.52000 7.034
22.54000 2.626
22.56000 8.727
22.58000 10.575
22.60000 3.940
22.62000 6.024
22.64000 5.588
22.66000 5.170
22.68000 7.273
22.70000 8.659
22.72000 7.884
22.74000 10.527
22.76000 9.135
22.78000 9.292
22.80000 4.991
22.82000 6.574
22.84000 8.446
22.86000 3.570
22.88000 5.591
22.90000 11.155
22.92000 9.034
22.94000 3.323
22.96000 2.082
22.98000 5.255
23.00000 5.075
23.02000 5.163
23.04000 15.638
23.06000 14.089
23.08000 9.328
23.10000 4.635
23.12000 5.538
23.14000 5.433
23.16000 6.121
23.18000 6.948
23.20000 3.730
23.22000 3.645
23.24000 1.783
23.26000 4.519
23.28000 8.911
23.30000 7.499
23.32000 9.780
23.34000 3.717
23.36000 4.755
23.38000 7.427
23.40000 7.528
23.42000 7.222
23.44000 10.994
23.46000 9.260
23.48000 4.671
23.50000 3.927
23.52000 0.419
23.54000 6.151
23.56000 7.498
23.58000 16.514
23.60000 16.087
23.62000 14.230
23.64000 7.989
23.66000 5.831
23.68000 -0.689
23.70000 -4.028
23.72000 3.528
23.74000 8.427
23.76000 3.789
23.78000 2.498
23.80000 12.632
23.82000 16.208
23.84000 11.602
23.86000 11.838
23.88000 5.586
23.90000 9.247
23.92000 8.493
23.94000 13.126
23.96000 16.084
23.98000 7.372
24.00000 6.076
24.02000 8.208
24.04000 3.325
24.06000 1.261
24.08000 3.315
24.10000 1.562
24.12000 4.598
24.14000 3.722
24.16000 4.435
24.18000 5.403
24.20000 7.519
24.22000 5.434
24.24000 1.460
24.26000 1.819
24.28000 -1.611
24.30000 2.004
24.32000 6.768
24.34000 5.534
24.36000 3.015
24.38000 -2.028
24.40000 0.340
24.42000 8.300
24.44000 6.040
24.46000 4.892
24.48000 4.825
24.50000 7.708
24.52000 8.654
24.54000 13.763
24.56000 7.208
24.58000 3.142
24.60000 -1.005
24.62000 0.781
24.64000 2.531
24.66000 1.409
24.68000 3.309
24.70000 11.230
24.72000 8.568
24.74000 7.303
24.76000 6.242
24.78000 3.084
24.80000 9.324
24.82000 9.119
24.84000 5.123
24.86000 3.955
24.88000 5.706
24.90000 3.003
24.92000 1.964
24.94000 2.155
24.96000 -0.559
24.98000 -0.678
25.00000 1.220
25.02000 2.822
25.04000 4.358
25.06000 1.150
25.08000 0.785
25.10000 5.704
25.12000 2.001
25.14000 5.342
25.16000 2.157
25.18000 8.575
25.20000 6.528
25.22000 5.865
25.24000 5.825
25.26000 1.558
25.28000 -0.728
25.30000 -2.899
25.32000 10.829
25.34000 7.702
25.36000 2.694
25.38000 -0.692
25.40000 6.893
25.42000 7.122
25.44000 5.993
25.46000 5.656
25.48000 3.654
25.50000 4.984
25.52000 9.624
25.54000 5.888
25.56000 8.124
25.58000 7.600
25.60000 5.192
25.62000 4.089
25.64000 5.746
25.66000 6.168
25.68000 17.094
25.70000 9.362
25.72000 4.620
25.74000 8.471
25.76000 8.160
25.78000 9.938
25.80000 5.633
25.82000 6.223
25.84000 6.246
25.86000 4.605
25.88000 3.848
25.90000 8.659
25.92000 10.057
25.94000 11.382
25.96000 10.082
25.98000 3.045
26.00000 1.144
26.02000 -3.927
26.04000 2.684
26.06000 4.300
26.08000 4.811
26.10000 12.597
26.12000 11.059
26.14000 6.210
26.16000 5.371
26.18000 4.868
26.20000 7.165
26.22000 7.662
26.24000 7.824
26.26000 8.792
26.28000 10.143
26.30000 3.446
26.32000 3.486
26.34000 7.655
26.36000 4.667
26.38000 5.866
26.40000 7.355
26.42000 7.644
26.44000 5.783
26.46000 2.278
26.48000 4.197
26.50000 1.481
26.52000 3.845
26.54000 1.271
26.56000 -3.904
26.58000 5.216
26.60000 4.260
26.62000 3.449
26.64000 4.100
26.66000 3.132
26.68000 8.231
26.70000 11.966
26.72000 3.554
26.74000 0.831
26.76000 2.443
26.78000 0.964
26.80000 1.964
26.82000 6.109
26.84000 8.881
26.86000 7.145
26.88000 3.946
26.90000 3.471
26.92000 4.020
26.94000 3.027
26.96000 6.587
26.98000 6.374
27.00000 6.471
27.02000 8.021
27.04000 8.919
27.06000 4.692
27.08000 3.077
27.10000 5.519
27.12000 5.686
27.14000 -2.323
27.16000 1.602
27.18000 4.884
27.20000 2.377
27.22000 -0.603
27.24000 -2.428
27.26000 2.211
27.28000 2.694
27.30000 0.818
27.32000 2.175
27.34000 0.426
27.36000 5.761
27.38000 2.689
27.40000 2.742
27.42000 5.755
27.44000 3.063
27.46000 -0.337
27.48000 3.466
27.50000 3.763
27.52000 4.456
27.54000 3.157
27.56000 2.112
27.58000 1.110
27.60000 7.172
27.62000 6.642
27.64000 -1.214
27.66000 4.896
27.68000 12.183
27.70000 4.615
27.72000 1.211
27.74000 3.750
27.76000 3.934
27.78000 1.212
27.80000 1.241
27.82000 2.115
27.84000 2.960
27.86000 0.591
27.88000 3.565
27.90000 4.504
27.92000 5.069
27.94000 1.197
27.96000 -0.139
27.98000 0.596
28.00000 -1.343
28.02000 -1.646
28.04000 0.837
28.06000 5.742
28.08000 6.731
28.10000 0.958
28.12000 0.479
28.14000 10.684
28.16000 9.692
28.18000 -0.231
28.20000 2.812
28.22000 4.618
28.24000 2.544
28.26000 0.988
28.28000 -2.814
28.30000 1.810
28.32000 0.457
28.34000 1.349
28.36000 0.539
28.38000 0.398
28.40000 1.240
28.42000 0.810
28.44000 -1.877
28.46000 -0.022
28.48000 -0.113
28.50000 0.030
28.52000 -0.166
28.54000 -0.445
28.56000 0.117
28.58000 -0.791
28.60000 -0.683
28.62000 2.636
28.64000 5.141
28.66000 5.727
28.68000 3.180
28.70000 5.882
28.72000 4.860
28.74000 10.523
28.76000 9.422
28.78000 2.671
28.80000 -1.453
28.82000 3.364
28.84000 2.060
28.86000 -0.078
28.88000 2.953
28.90000 3.634
28.92000 -1.767
28.94000 -0.270
28.96000 0.833
28.98000 1.516
29.00000 1.970
29.02000 0.442
29.04000 -1.219
29.06000 4.317
29.08000 0.958
29.10000 1.856
29.12000 1.811
29.14000 2.468
29.16000 4.913
29.18000 6.029
29.20000 -0.630
29.22000 2.014
29.24000 4.103
29.26000 5.974
29.28000 8.617
29.30000 5.176
29.32000 2.717
29.34000 0.204
29.36000 -3.755
29.38000 2.149
29.40000 4.489
29.42000 1.409
29.44000 -2.723
29.46000 -0.366
29.48000 3.447
29.50000 8.519
29.52000 12.294
29.54000 10.567
29.56000 4.224
29.58000 1.577
29.60000 1.347
29.62000 2.504
29.64000 4.194
29.66000 5.355
29.68000 4.835
29.70000 4.564
29.72000 1.765
29.74000 -2.368
29.76000 3.484
29.78000 2.797
29.80000 9.363
29.82000 5.885
29.84000 7.387
29.86000 15.577
29.88000 7.616
29.90000 11.363
29.92000 4.851
29.94000 -2.870
29.96000 -0.028
29.98000 9.006
30.00000 10.347
30.02000 10.445
30.04000 8.027
30.06000 4.945
30.08000 10.419
30.10000 11.306
30.12000 5.867
30.14000 4.843
30.16000 5.162
30.18000 2.547
30.20000 3.704
30.22000 4.748
30.24000 0.461
30.26000 8.379
30.28000 7.013
30.30000 3.645
30.32000 2.833
30.34000 0.856
30.36000 2.639
30.38000 10.155
30.40000 11.965
30.42000 10.768
30.44000 5.818
30.46000 6.609
30.48000 8.429
30.50000 7.774
30.52000 9.624
30.54000 5.950
30.56000 3.893
30.58000 2.245
30.60000 -3.685
30.62000 3.344
30.64000 6.586
30.66000 7.336
30.68000 9.409
30.70000 7.674
30.72000 3.988
30.74000 3.034
30.76000 2.655
30.78000 2.468
30.80000 5.360
30.82000 6.703
30.84000 8.960
30.86000 7.926
30.88000 7.492
30.90000 3.195
30.92000 5.341
30.94000 5.434
30.96000 6.302
30.98000 6.172
31.00000 11.129
31.02000 10.218
31.04000 2.309
31.06000 -0.830
31.08000 5.123
31.10000 8.812
31.12000 7.441
31.14000 4.181
31.16000 10.462
31.18000 2.765
31.20000 5.964
31.22000 8.557
31.24000 9.036
31.26000 4.408
31.28000 -0.634
31.30000 0.311
31.32000 2.891
31.34000 -3.682
31.36000 -2.107
31.38000 3.708
31.40000 2.312
31.42000 0.777
31.44000 3.618
31.46000 6.799
31.48000 5.666
31.50000 3.195
31.52000 -0.399
31.54000 3.935
31.56000 4.237
31.58000 1.314
31.60000 2.498
31.62000 5.543
31.64000 3.775
31.66000 10.942
31.68000 9.389
31.70000 7.237
31.72000 9.075
31.74000 6.463
31.76000 -0.267
31.78000 7.893
31.80000 1.012
31.82000 -1.708
31.84000 3.103
31.86000 3.787
31.88000 3.287
31.90000 5.034
31.92000 7.319
31.94000 1.599
31.96000 3.039
31.98000 -1.975
32.00000 3.632
32.02000 9.319
32.04000 3.721
32.06000 4.593
32.08000 3.653
32.10000 2.019
32.12000 4.213
32.14000 1.355
32.16000 -0.843
32.18000 -3.660
32.20000 0.338
32.22000 4.038
32.24000 -0.605
32.26000 2.946
32.28000 3.581
32.30000 2.431
32.32000 6.731
32.34000 4.782
32.36000 2.171
32.38000 6.264
32.40000 8.739
32.42000 6.154
32.44000 5.774
32.46000 6.679
32.48000 6.575
32.50000 9.755
32.52000 5.886
32.54000 10.352
32.56000 6.839
32.58000 3.525
32.60000 1.027
32.62000 3.207
32.64000 6.034
32.66000 5.217
32.68000 5.287
32.70000 4.870
32.72000 5.007
32.74000 4.998
32.76000 4.193
32.78000 13.268
32.80000 10.354
32.82000 4.767
32.84000 3.507
32.86000 2.464
32.88000 -0.274
32.90000 6.487
32.92000 4.058
32.94000 3.882
32.96000 3.660
32.98000 3.689
33.00000 5.909
33.02000 3.408
33.04000 0.551
33.06000 -3.629
33.08000 1.735
33.10000 0.205
33.12000 3.233
33.14000 4.606
33.16000 2.870
33.18000 6.885
33.20000 6.032
33.22000 9.798
33.24000 6.800
33.26000 8.592
33.28000 6.200
33.30000 5.233
33.32000 -0.141
33.34000 5.216
33.36000 7.606
33.38000 2.323
33.40000 4.473
33.42000 9.124
33.44000 6.032
33.46000 11.993
33.48000 10.402
33.50000 10.436
33.52000 10.969
33.54000 5.716
33.56000 2.947
33.58000 3.211
33.60000 7.499
33.62000 10.883
33.64000 7.548
33.66000 3.476
33.68000 4.888
33.70000 5.860
33.72000 7.379
33.74000 2.594
33.76000 1.201
33.78000 9.248
33.80000 8.349
33.82000 2.024
33.84000 -0.734
33.86000 2.859
33.88000 3.730
33.90000 8.585
33.92000 9.975
33.94000 7.262
33.96000 3.167
33.98000 8.673
34.00000 9.065
34.02000 3.009
34.04000 7.091
34.06000 6.759
34.08000 6.025
34.10000 8.102
34.12000 7.269
34.14000 5.966
34.16000 3.142
34.18000 4.797
34.20000 6.165
34.22000 7.345
34.24000 1.159
34.26000 0.363
34.28000 2.795
34.30000 3.928
34.32000 8.314
34.34000 7.063
34.36000 2.484
34.38000 3.329
34.40000 2.213
34.42000 2.427
34.44000 3.108
34.46000 5.807
34.48000 1.916
34.50000 1.999
34.52000 4.587
34.54000 2.561
34.56000 2.446
34.58000 5.340
34.60000 5.337
34.62000 4.241
34.64000 3.456
34.66000 3.695
34.68000 6.119
34.70000 5.154
34.72000 9.922
34.74000 8.428
34.76000 4.215
34.78000 7.582
34.80000 5.857
34.82000 1.237
34.84000 1.531
34.86000 -0.146
34.88000 3.090
34.90000 2.824
34.92000 -0.020
34.94000 4.481
34.96000 1.077
34.98000 3.304
35.00000 -0.044
35.02000 -3.620
35.04000 -2.802
35.06000 -1.089
35.08000 3.135
35.10000 2.393
35.12000 4.085
35.14000 1.548
35.16000 -0.812
35.18000 1.647
35.20000 -0.782
35.22000 6.914
35.24000 6.337
35.26000 -0.194
35.28000 -1.186
35.30000 -0.497
35.32000 0.806
35.34000 3.239
35.36000 4.852
35.38000 5.167
35.40000 0.186
35.42000 2.093
35.44000 8.141
35.46000 6.126
35.48000 0.450
35.50000 -1.367
35.52000 2.656
35.54000 3.629
35.56000 4.433
35.58000 4.242
35.60000 5.368
35.62000 9.456
35.64000 4.620
35.66000 6.887
35.68000 9.742
35.70000 8.350
35.72000 2.531
35.74000 -3.184
35.76000 0.804
35.78000 6.266
35.80000 3.801
35.82000 -0.736
35.84000 -1.419
35.86000 5.847
35.88000 9.567
35.90000 6.592
35.92000 4.988
35.94000 2.873
35.96000 -3.670
35.98000 1.390
36.00000 2.156
36.02000 4.141
36.04000 4.847
36.06000 3.109
36.08000 3.187
36.10000 1.096
36.12000 -0.082
36.14000 4.200
36.16000 2.736
36.18000 4.057
36.20000 2.510
36.22000 2.778
36.24000 4.119
36.26000 0.346
36.28000 2.678
36.30000 4.911
36.32000 7.270
36.34000 6.157
36.36000 6.046
36.38000 7.502
36.40000 8.469
36.42000 3.648
36.44000 -0.510
36.46000 4.897
36.48000 3.704
36.50000 0.748
36.52000 0.644
36.54000 0.040
36.56000 -1.109
36.58000 5.152
36.60000 4.549
36.62000 5.977
36.64000 3.562
36.66000 6.416
36.68000 8.220
36.70000 6.776
36.72000 3.953
36.74000 2.732
36.76000 0.784
36.78000 4.665
36.80000 8.260
36.82000 8.386
36.84000 10.386
36.86000 10.303
36.88000 8.872
36.90000 7.254
36.92000 3.147
36.94000 7.999
36.96000 7.325
36.98000 2.322
37.00000 6.668
37.02000 8.027
37.04000 8.882
37.06000 5.745
37.08000 3.485
37.10000 9.177
37.12000 11.812
37.14000 10.295
37.16000 12.371
37.18000 10.621
37.20000 4.936
37.22000 8.385
37.24000 13.085
37.26000 8.423
37.28000 13.435
37.30000 13.256
37.32000 12.985
37.34000 11.463
37.36000 14.369
37.38000 17.912
37.40000 14.380
37.42000 18.933
37.44000 15.688
37.46000 15.183
37.48000 13.899
37.50000 16.926
37.52000 18.988
37.54000 19.320
37.56000 16.855
37.58000 17.550
37.60000 16.369
37.62000 19.109
37.64000 16.973
37.66000 18.106
37.68000 19.629
37.70000 21.203
37.72000 21.619
37.74000 25.129
37.76000 27.736
37.78000 26.963
37.80000 21.609
37.82000 27.677
37.84000 29.341
37.86000 34.524
37.88000 33.985
37.90000 35.309
37.92000 33.911
37.94000 38.177
37.96000 37.179
37.98000 36.114
38.00000 38.565
38.02000 38.379
38.04000 36.199
38.06000 38.161
38.08000 41.367
38.10000 42.922
38.12000 39.248
38.14000 40.754
38.16000 49.643
38.18000 53.956
38.20000 54.578
38.22000 50.091
38.24000 50.349
38.26000 55.344
38.28000 58.427
38.30000 59.331
38.32000 63.777
38.34000 62.916
38.36000 65.087
38.38000 71.674
38.40000 76.539
38.42000 79.692
38.44000 82.838
38.46000 85.737
38.48000 91.480
38.50000 93.552
38.52000 98.745
38.54000 104.315
38.56000 110.555
38.58000 112.155
38.60000 117.875
38.62000 126.489
38.64000 132.303
38.66000 137.458
38.68000 148.137
38.70000 157.045
38.72000 156.678
38.74000 158.454
38.76000 173.311
38.78000 185.376
38.80000 193.630
38.82000 199.585
38.84000 203.603
38.86000 214.328
38.88000 228.573
38.90000 234.511
38.92000 243.188
38.94000 254.936
38.96000 260.927
38.98000 260.734
39.00000 271.851
39.02000 274.268
39.04000 277.423
39.06000 282.715
39.08000 291.479
39.10000 289.922
39.12000 292.407
39.14000 295.246
39.16000 299.567
39.18000 291.384
39.20000 281.640
39.22000 272.810
39.24000 268.860
39.26000 262.511
39.28000 264.368
39.30000 258.750
39.32000 247.290
39.34000 240.740
39.36000 230.266
39.38000 214.221
39.40000 211.687
39.42000 198.185
39.44000 182.951
39.46000 181.823
39.48000 178.153
39.50000 164.488
39.52000 154.325
39.54000 144.696
39.56000 148.091
39.58000 134.974
39.60000 124.792
39.62000 116.681
39.64000 111.519
39.66000 109.568
39.68000 106.518
39.70000 97.875
39.72000 91.072
39.74000 86.542
39.76000 84.549
39.78000 82.794
39.80000 76.700
39.82000 71.581
39.84000 68.621
39.86000 64.977
39.88000 64.468
39.90000 60.761
39.92000 56.301
39.94000 54.989
39.96000 49.387
39.98000 44.291
40.00000 43.327
40.02000 41.224
40.04000 39.475
40.06000 41.712
40.08000 36.440
40.10000 34.526
40.12000 33.604
40.14000 36.191
40.16000 35.498
40.18000 32.171
40.20000 29.495
40.22000 29.876
40.24000 30.217
40.26000 26.015
40.28000 29.566
40.30000 26.989
40.32000 27.197
40.34000 21.356
40.36000 19.369
40.38000 23.257
40.40000 26.377
40.42000 19.095
40.44000 17.930
40.46000 18.750
40.48000 20.942
40.50000 22.497
40.52000 20.408
40.54000 16.954
40.56000 17.988
40.58000 14.329
40.60000 10.056
40.62000 9.183
40.64000 12.694
40.66000 14.541
40.68000 11.710
40.70000 7.476
40.72000 10.520
40.74000 12.800
40.76000 12.832
40.78000 13.093
40.80000 11.714
40.82000 9.705
40.84000 11.695
40.86000 7.430
40.88000 9.746
40.90000 9.345
40.92000 4.976
40.94000 6.228
40.96000 8.927
40.98000 6.139
41.00000 4.382
41.02000 3.922
41.04000 1.770
41.06000 4.484
41.08000 6.933
41.10000 6.552
41.12000 2.542
41.14000 2.106
41.16000 1.732
41.18000 4.721
41.20000 3.613
41.22000 2.554
41.24000 3.548
41.26000 5.345
41.28000 4.737
41.30000 3.376
41.32000 3.856
41.34000 2.227
41.36000 0.673
41.38000 0.429
41.40000 2.411
41.42000 -1.868
41.44000 -1.780
41.46000 -1.632
41.48000 1.278
41.50000 1.437
41.52000 0.513
41.54000 2.269
41.56000 5.195
41.58000 3.679
41.60000 0.276
41.62000 -1.269
41.64000 0.667
41.66000 0.476
41.68000 1.758
41.70000 1.290
41.72000 3.208
41.74000 5.292
41.76000 5.959
41.78000 5.078
41.80000 4.476
41.82000 4.220
41.84000 1.708
41.86000 0.067
41.88000 -3.324
41.90000 -2.474
41.92000 0.548
41.94000 -1.668
41.96000 0.621
41.98000 1.537
42.00000 2.048
42.02000 4.086
42.04000 2.612
42.06000 3.272
42.08000 0.494
42.10000 0.736
42.12000 -1.474
42.14000 -0.266
42.16000 0.434
42.18000 -3.369
42.20000 0.864
42.22000 5.168
42.24000 1.451
42.26000 0.998
42.28000 6.309
42.30000 4.265
42.32000 5.681
42.34000 2.516
42.36000 -1.694
42.38000 -1.174
42.40000 4.263
42.42000 1.889
42.44000 -0.536
42.46000 0.440
42.48000 1.354
42.50000 2.585
42.52000 1.485
42.54000 1.065
42.56000 0.545
42.58000 -0.471
42.60000 1.947
42.62000 0.820
42.64000 0.520
42.66000 2.835
42.68000 1.143
42.70000 4.075
42.72000 4.794
42.74000 0.502
42.76000 -0.559
42.78000 -0.164
42.80000 1.419
42.82000 -2.220
42.84000 -0.264
42.86000 0.206
42.88000 0.327
42.90000 2.539
42.92000 2.139
42.94000 -1.433
42.96000 -1.168
42.98000 -0.540
43.00000 0.569
43.02000 1.655
43.04000 1.790
43.06000 6.188
43.08000 5.716
43.10000 3.465
43.12000 2.578
43.14000 0.903
43.16000 3.602
43.18000 3.757
43.20000 2.153
43.22000 -3.271
43.24000 0.053
43.26000 5.027
43.28000 3.425
43.30000 -2.912
43.32000 -2.777
43.34000 0.963
43.36000 3.512
43.38000 0.350
43.40000 0.037
43.42000 4.424
43.44000 2.043
43.46000 -0.968
43.48000 0.422
43.50000 0.662
43.52000 1.849
43.54000 3.191
43.56000 -1.611
43.58000 2.897
43.60000 5.361
43.62000 3.118
43.64000 2.754
43.66000 -0.008
43.68000 -1.464
43.70000 0.890
43.72000 3.101
43.74000 0.550
43.76000 1.623
43.78000 4.886
43.80000 -0.046
43.82000 -2.053
43.84000 2.004
43.86000 4.517
43.88000 -0.508
43.90000 -1.795
43.92000 -2.777
43.94000 0.490
43.96000 2.504
43.98000 1.076
44.00000 -1.485
44.02000 -1.820
44.04000 2.329
44.06000 4.683
44.08000 -1.128
44.10000 -1.592
44.12000 -0.432
44.14000 2.940
44.16000 2.304
44.18000 -0.373
44.20000 1.674
44.22000 3.488
44.24000 -1.039
44.26000 0.614
44.28000 2.027
44.30000 1.497
44.32000 2.331
44.34000 5.289
44.36000 3.258
44.38000 5.385
44.40000 4.701
44.42000 4.046
44.44000 4.115
44.46000 7.555
44.48000 8.144
44.50000 9.258
44.52000 7.442
44.54000 10.788
44.56000 9.115
44.58000 6.504
44.60000 8.342
44.62000 12.085
44.64000 12.529
44.66000 12.782
44.68000 11.935
44.70000 6.722
44.72000 8.833
44.74000 12.381
44.76000 17.094
44.78000 17.048
44.80000 15.848
44.82000 16.924
44.84000 18.586
44.86000 22.734
44.88000 17.861
44.90000 19.193
44.92000 27.157
44.94000 27.927
44.96000 26.891
44.98000 27.293
45.00000 33.018
45.02000 33.748
45.04000 32.384
45.06000 33.936
45.08000 34.060
45.10000 37.450
45.12000 41.273
45.14000 40.666
45.16000 44.642
45.18000 48.502
45.20000 53.824
45.22000 57.765
45.24000 60.120
45.26000 62.223
45.28000 61.176
45.30000 59.613
45.32000 70.082
45.34000 78.369
45.36000 76.811
45.38000 75.714
45.40000 80.570
45.42000 81.089
45.44000 80.314
45.46000 82.730
45.48000 87.036
45.50000 92.053
45.52000 90.176
45.54000 90.894
45.56000 98.651
45.58000 99.362
45.60000 91.333
45.62000 94.734
45.64000 97.666
45.66000 93.410
45.68000 96.637
45.70000 99.992
45.72000 97.934
45.74000 93.071
45.76000 95.762
45.78000 94.299
45.80000 92.147
45.82000 84.420
45.84000 82.904
45.86000 81.000
45.88000 81.096
45.90000 81.399
45.92000 82.883
45.94000 84.022
45.96000 78.966
45.98000 75.869
46.00000 71.977
46.02000 69.999
46.04000 62.954
46.06000 57.338
46.08000 58.161
46.10000 57.911
46.12000 54.560
46.14000 50.520
46.16000 45.125
46.18000 39.432
46.20000 39.880
46.22000 41.593
46.24000 40.939
46.26000 38.306
46.28000 35.587
46.30000 36.833
46.32000 33.511
46.34000 32.965
46.36000 30.518
46.38000 25.463
46.40000 27.828
46.42000 21.797
46.44000 19.131
46.46000 17.208
46.48000 18.222
46.50000 14.534
46.52000 15.217
46.54000 14.307
46.56000 12.418
46.58000 11.268
46.60000 6.830
46.62000 7.465
46.64000 5.487
46.66000 8.552
46.68000 9.032
46.70000 7.425
46.72000 9.016
46.74000 7.948
46.76000 6.166
46.78000 6.763
46.80000 5.881
46.82000 3.383
46.84000 2.633
46.86000 0.592
46.88000 1.105
46.90000 0.988
46.92000 -1.513
46.94000 0.020
46.96000 -1.425
46.98000 -0.751
47.00000 3.132
47.02000 3.012
47.04000 1.917
47.06000 4.141
47.08000 3.925
47.10000 4.508
47.12000 3.298
47.14000 3.494
47.16000 4.181
47.18000 3.493
47.20000 6.471
47.22000 3.020
47.24000 -0.713
47.26000 -2.906
47.28000 1.381
47.30000 5.327
47.32000 4.708
47.34000 3.113
47.36000 4.802
47.38000 2.146
47.40000 0.729
47.42000 1.378
47.44000 3.268
47.46000 0.157
47.48000 -0.854
47.50000 2.132
47.52000 5.255
47.54000 3.045
47.56000 -0.786
47.58000 1.027
47.60000 -1.036
47.62000 2.690
47.64000 0.223
47.66000 -1.339
47.68000 -0.784
47.70000 -1.377
47.72000 -0.672
47.74000 -1.960
47.76000 -0.186
47.78000 -1.109
47.80000 -1.368
47.82000 -1.958
47.84000 0.944
47.86000 -2.540
47.88000 1.610
47.90000 -2.264
47.92000 -0.317
47.94000 3.027
47.96000 1.104
47.98000 -1.548
48.00000 0.162
48.02000 -0.211
48.04000 0.542
48.06000 1.061
48.08000 2.972
48.10000 2.939
48.12000 2.223
48.14000 -2.549
48.16000 -1.635
48.18000 -2.275
48.20000 -2.788
48.22000 1.575
48.24000 6.716
48.26000 1.789
48.28000 2.440
48.30000 1.696
48.32000 -2.776
48.34000 -1.238
48.36000 3.851
48.38000 5.358
48.40000 5.970
48.42000 3.888
48.44000 2.808
48.46000 1.374
48.48000 1.583
48.50000 1.053
48.52000 -0.082
48.54000 4.124
48.56000 5.236
48.58000 2.950
48.60000 5.215
48.62000 2.664
48.64000 -0.328
48.66000 -2.140
48.68000 5.719
48.70000 5.178
48.72000 2.987
48.74000 0.920
48.76000 2.030
48.78000 1.276
48.80000 5.809
48.82000 4.125
48.84000 -2.720
48.86000 -0.120
48.88000 0.715
48.90000 3.529
48.92000 -1.363
48.94000 0.575
48.96000 8.437
48.98000 4.823
49.00000 3.017
49.02000 1.639
49.04000 0.635
49.06000 2.377
49.08000 3.447
49.10000 1.178
49.12000 1.874
49.14000 1.302
49.16000 0.059
49.18000 0.675
49.20000 5.338
49.22000 3.343
49.24000 0.724
49.26000 3.611
49.28000 7.462
49.30000 -0.381
49.32000 -1.986
49.34000 2.021
49.36000 0.078
49.38000 0.792
49.40000 2.046
49.42000 1.044
49.44000 -0.191
49.46000 0.990
49.48000 1.466
49.50000 1.307
49.52000 2.410
49.54000 4.345
49.56000 4.813
49.58000 1.510
49.60000 3.307
49.62000 0.071
49.64000 0.687
49.66000 5.895
49.68000 1.285
49.70000 -0.687
49.72000 5.389
49.74000 4.955
49.76000 2.040
49.78000 4.244
49.80000 5.986
49.82000 2.004
49.84000 2.043
49.86000 4.514
49.88000 3.220
49.90000 4.438
49.92000 1.170
49.94000 1.373
49.96000 2.730
49.98000 0.466
50.00000 -1.580
50.02000 -0.929
50.04000 -2.676
50.06000 1.920
50.08000 2.410
50.10000 1.756
50.12000 2.723
50.14000 -0.316
50.16000 3.962
50.18000 5.449
50.20000 3.443
50.22000 0.753
50.24000 5.033
50.26000 -0.615
50.28000 -2.026
50.30000 -0.427
50.32000 3.666
50.34000 0.574
50.36000 3.584
50.38000 4.775
50.40000 4.091
50.42000 -0.480
50.44000 -1.787
50.46000 0.924
50.48000 3.290
50.50000 4.238
50.52000 2.957
50.54000 -0.968
50.56000 -2.657
50.58000 1.006
50.60000 0.120
50.62000 0.276
50.64000 0.796
50.66000 1.271
50.68000 -0.719
50.70000 -0.598
50.72000 -0.854
50.74000 -0.723
50.76000 0.959
50.78000 0.422
50.80000 2.945
50.82000 2.450
50.84000 -1.818
50.86000 -2.507
50.88000 0.549
50.90000 7.903
50.92000 3.964
50.94000 2.683
50.96000 1.086
50.98000 4.030
51.00000 5.448
51.02000 -0.961
51.04000 -2.304
51.06000 -0.915
51.08000 0.110
51.10000 1.760
51.12000 3.903
51.14000 0.700
51.16000 2.194
51.18000 -1.116
51.20000 -0.649
51.22000 -1.090
51.24000 0.397
51.26000 2.459
51.28000 -1.076
51.30000 0.360
51.32000 -0.511
51.34000 -1.279
51.36000 1.384
51.38000 1.664
51.40000 0.932
51.42000 4.870
51.44000 0.560
51.46000 1.512
51.48000 4.766
51.50000 2.124
51.52000 2.176
51.54000 5.112
51.56000 5.176
51.58000 1.218
51.60000 -1.942
51.62000 -0.774
51.64000 -1.316
51.66000 0.809
51.68000 -2.634
51.70000 -1.839
51.72000 1.180
51.74000 4.198
51.76000 1.770
51.78000 -1.748
51.80000 2.281
51.82000 1.298
51.84000 -0.066
51.86000 0.756
51.88000 0.981
51.90000 6.191
51.92000 3.140
51.94000 1.053
51.96000 0.714
51.98000 3.911
52.00000 2.273
52.02000 5.473
52.04000 4.164
52.06000 1.841
52.08000 0.894
52.10000 -0.047
52.12000 5.726
52.14000 6.883
52.16000 7.244
52.18000 1.820
52.20000 4.349
52.22000 0.880
52.24000 0.092
52.26000 3.637
52.28000 4.489
52.30000 6.917
52.32000 4.743
52.34000 1.579
52.36000 1.039
52.38000 1.343
52.40000 0.070
52.42000 2.136
52.44000 1.274
52.46000 0.844
52.48000 4.134
52.50000 6.376
52.52000 2.784
52.54000 1.594
52.56000 2.358
52.58000 1.009
52.60000 2.007
52.62000 5.748
52.64000 5.518
52.66000 4.315
52.68000 5.370
52.70000 9.385
52.72000 6.928
52.74000 2.807
52.76000 3.601
52.78000 6.929
52.80000 3.942
52.82000 2.917
52.84000 2.103
52.86000 2.044
52.88000 3.435
52.90000 6.667
52.92000 4.927
52.94000 -2.555
52.96000 2.020
52.98000 7.167
53.00000 4.977
53.02000 2.929
53.04000 2.323
53.06000 4.963
53.08000 5.340
53.10000 4.121
53.12000 6.159
53.14000 3.664
53.16000 4.301
53.18000 -0.315
53.20000 -1.934
53.22000 3.357
53.24000 4.923
53.26000 4.525
53.28000 5.779
53.30000 3.263
53.32000 6.983
53.34000 4.670
53.36000 0.336
53.38000 -0.795
53.40000 0.511
53.42000 3.688
53.44000 2.762
53.46000 2.725
53.48000 4.792
53.50000 5.814
53.52000 2.757
53.54000 0.307
53.56000 1.675
53.58000 1.215
53.60000 2.707
53.62000 2.295
53.64000 2.119
53.66000 1.850
53.68000 1.880
53.70000 -0.643
53.72000 -0.995
53.74000 2.197
53.76000 3.005
53.78000 0.952
53.80000 6.656
53.82000 12.317
53.84000 7.141
53.86000 2.779
53.88000 2.154
53.90000 0.382
53.92000 2.058
53.94000 1.872
53.96000 4.080
53.98000 6.468
54.00000 4.985
54.02000 3.116
54.04000 0.818
54.06000 2.880
54.08000 5.269
54.10000 6.529
54.12000 4.954
54.14000 0.568
54.16000 -2.554
54.18000 0.144
54.20000 2.378
54.22000 0.357
54.24000 4.367
54.26000 3.316
54.28000 -0.354
54.30000 1.279
54.32000 2.729
54.34000 4.117
54.36000 4.875
54.38000 1.185
54.40000 3.658
54.42000 4.127
54.44000 3.286
54.46000 -0.089
54.48000 -1.057
54.50000 3.487
54.52000 3.869
54.54000 6.015
54.56000 4.540
54.58000 3.458
54.60000 4.257
54.62000 2.819
54.64000 0.813
54.66000 -2.278
54.68000 -2.128
54.70000 2.541
54.72000 4.283
54.74000 3.491
54.76000 4.514
54.78000 -0.912
54.80000 3.603
54.82000 2.694
54.84000 -2.538
54.86000 -0.288
54.88000 0.405
54.90000 4.095
54.92000 4.665
54.94000 3.282
54.96000 0.889
54.98000 -0.449
55.00000 3.226
55.02000 3.788
55.04000 2.796
55.06000 1.825
55.08000 -2.115
55.10000 1.441
55.12000 2.111
55.14000 3.498
55.16000 3.152
55.18000 5.188
55.20000 6.324
55.22000 5.064
55.24000 6.950
55.26000 6.619
55.28000 2.888
55.30000 4.730
55.32000 5.489
55.34000 4.677
55.36000 1.465
55.38000 -0.436
55.40000 3.573
55.42000 3.695
55.44000 4.256
55.46000 2.261
55.48000 2.903
55.50000 -0.986
55.52000 -1.356
55.54000 -2.501
55.56000 2.188
55.58000 5.568
55.60000 3.905
55.62000 6.475
55.64000 3.072
55.66000 4.551
55.68000 5.667
55.70000 3.151
55.72000 3.890
55.74000 5.967
55.76000 0.627
55.78000 -0.605
55.80000 2.509
55.82000 2.949
55.84000 4.118
55.86000 -1.129
55.88000 0.770
55.90000 3.765
55.92000 2.766
55.94000 4.051
55.96000 2.615
55.98000 1.115
56.00000 0.833
56.02000 1.360
56.04000 5.281
56.06000 6.728
56.08000 7.745
56.10000 4.582
56.12000 3.608
56.14000 4.128
56.16000 -0.752
56.18000 0.058
56.20000 3.813
56.22000 3.981
56.24000 3.045
56.26000 4.797
56.28000 3.134
56.30000 2.130
56.32000 1.236
56.34000 -0.876
56.36000 0.873
56.38000 2.425
56.40000 1.394
56.42000 0.264
56.44000 2.774
56.46000 1.873
56.48000 3.563
56.50000 1.579
56.52000 -0.160
56.54000 2.140
56.56000 2.009
56.58000 2.086
56.60000 1.762
56.62000 3.989
56.64000 3.621
56.66000 1.062
56.68000 2.139
56.70000 3.293
56.72000 3.183
56.74000 -0.551
56.76000 -1.053
56.78000 -2.483
56.80000 -2.410
56.82000 -0.505
56.84000 0.228
56.86000 3.317
56.88000 3.727
56.90000 2.215
56.92000 1.265
56.94000 0.900
56.96000 1.795
56.98000 -0.634
57.00000 2.812
57.02000 1.846
57.04000 4.157
57.06000 3.616
57.08000 1.211
57.10000 3.492
57.12000 0.060
57.14000 -0.244
57.16000 0.142
57.18000 -1.443
57.20000 0.676
57.22000 1.176
57.24000 2.877
57.26000 2.299
57.28000 1.890
57.30000 4.825
57.32000 2.804
57.34000 1.811
57.36000 0.561
57.38000 -0.522
57.40000 4.244
57.42000 3.067
57.44000 7.674
57.46000 9.975
57.48000 6.773
57.50000 4.659
57.52000 4.641
57.54000 6.299
57.56000 5.621
57.58000 4.386
57.60000 0.875
57.62000 -2.432
57.64000 2.112
57.66000 4.561
57.68000 4.083
57.70000 3.217
57.72000 1.760
57.74000 -0.380
57.76000 1.657
57.78000 2.130
57.80000 2.118
57.82000 1.834
57.84000 6.669
57.86000 5.920
57.88000 5.141
57.90000 5.388
57.92000 3.521
57.94000 2.115
57.96000 -0.044
57.98000 4.621
58.00000 1.226
58.02000 3.132
58.04000 2.184
58.06000 3.322
58.08000 2.468
58.10000 2.866
58.12000 4.499
58.14000 2.455
58.16000 2.975
58.18000 2.953
58.20000 3.108
58.22000 3.315
58.24000 7.053
58.26000 5.151
58.28000 -0.089
58.30000 -0.775
58.32000 1.877
58.34000 2.400
58.36000 1.511
58.38000 -2.419
58.40000 -2.441
58.42000 2.750
58.44000 2.597
58.46000 4.383
58.48000 0.352
58.50000 -0.360
58.52000 2.479
58.54000 2.988
58.56000 0.916
58.58000 2.328
58.60000 1.679
58.62000 -0.835
58.64000 3.026
58.66000 3.399
58.68000 -1.320
58.70000 1.928
58.72000 2.538
58.74000 1.602
58.76000 3.323
58.78000 4.407
58.80000 0.762
58.82000 2.049
58.84000 3.829
58.86000 2.457
58.88000 1.146
58.90000 5.623
58.92000 3.472
58.94000 -2.246
58.96000 -2.216
58.98000 0.383
59.00000 -0.615
59.02000 -0.714
59.04000 -1.366
59.06000 0.467
59.08000 1.307
59.10000 1.469
59.12000 5.530
59.14000 5.128
59.16000 3.009
59.18000 0.372
59.20000 1.351
59.22000 3.802
59.24000 1.392
59.26000 1.969
59.28000 0.015
59.30000 0.236
59.32000 1.666
59.34000 -0.345
59.36000 -0.392
59.38000 0.661
59.40000 3.000
59.42000 2.754
59.44000 1.418
59.46000 3.321
59.48000 5.257
59.50000 6.197
59.52000 4.256
59.54000 4.897
59.56000 4.194
59.58000 0.349
59.60000 -1.228
59.62000 0.725
59.64000 1.427
59.66000 0.680
59.68000 2.038
59.70000 -1.082
59.72000 -0.132
59.74000 5.191
59.76000 6.182
59.78000 3.091
59.80000 2.222
59.82000 1.651
59.84000 -2.383
59.86000 3.133
59.88000 3.371
59.90000 0.827
59.92000 1.344
59.94000 1.953
59.96000 1.026
59.98000 1.867
60.00000 4.279
60.02000 4.743
60.04000 6.463
60.06000 1.547
60.08000 3.542
60.10000 2.512
60.12000 -2.053
60.14000 0.421
60.16000 4.159
60.18000 0.618
60.20000 -1.047
60.22000 2.378
60.24000 2.002
60.26000 0.016
60.28000 0.621
60.30000 2.730
60.32000 3.057
60.34000 2.703
60.36000 0.415
60.38000 1.688
60.40000 2.290
60.42000 -0.959
60.44000 1.412
60.46000 3.460
60.48000 1.611
60.50000 4.381
60.52000 2.311
60.54000 2.534
60.56000 4.416
60.58000 3.756
60.60000 4.400
60.62000 3.488
60.64000 1.722
60.66000 -1.146
60.68000 2.410
60.70000 0.823
60.72000 1.317
60.74000 1.246
60.76000 -0.789
60.78000 0.845
60.80000 2.141
60.82000 2.445
60.84000 0.294
60.86000 4.593
60.88000 3.330
60.90000 -1.755
60.92000 0.396
60.94000 2.446
60.96000 0.799
60.98000 0.835
61.00000 -1.247
61.02000 1.088
61.04000 1.264
61.06000 0.489
61.08000 2.481
61.10000 1.109
61.12000 -0.350
61.14000 -1.327
61.16000 0.141
61.18000 3.578
61.20000 2.563
61.22000 1.257
61.24000 -1.104
61.26000 -0.433
61.28000 -2.350
61.30000 1.013
61.32000 0.576
61.34000 1.072
61.36000 2.504
61.38000 4.657
61.40000 1.165
61.42000 -0.571
61.44000 1.616
61.46000 3.475
61.48000 1.058
61.50000 -1.254
61.52000 0.717
61.54000 4.563
61.56000 6.116
61.58000 0.668
61.60000 -0.060
61.62000 3.968
61.64000 2.084
61.66000 0.973
61.68000 -0.516
61.70000 1.751
61.72000 -1.717
61.74000 -1.657
61.76000 0.251
61.78000 0.419
61.80000 -2.311
61.82000 2.179
61.84000 2.775
61.86000 0.697
61.88000 3.324
61.90000 2.974
61.92000 0.120
61.94000 0.765
61.96000 0.803
61.98000 2.184
62.00000 0.537
62.02000 0.114
62.04000 0.562
62.06000 1.052
62.08000 1.834
62.10000 3.034
62.12000 5.051
62.14000 1.735
62.16000 1.296
62.18000 3.706
62.20000 3.773
62.22000 2.266
62.24000 -0.753
62.26000 2.464
62.28000 2.078
62.30000 -0.470
62.32000 2.479
62.34000 6.042
62.36000 0.218
62.38000 1.579
62.40000 3.361
62.42000 0.419
62.44000 0.718
62.46000 2.541
62.48000 1.520
62.50000 0.847
62.52000 1.325
62.54000 2.966
62.56000 3.024
62.58000 3.509
62.60000 1.601
62.62000 -0.150
62.64000 2.972
62.66000 1.686
62.68000 2.846
62.70000 2.637
62.72000 4.614
62.74000 3.768
62.76000 6.457
62.78000 3.784
62.80000 0.815
62.82000 0.243
62.84000 2.515
62.86000 1.543
62.88000 0.905
62.90000 0.073
62.92000 2.674
62.94000 1.913
62.96000 1.643
62.98000 -0.897
63.00000 -0.205
63.02000 2.561
63.04000 2.735
63.06000 -0.443
63.08000 1.960
63.10000 5.271
63.12000 2.457
63.14000 2.057
63.16000 1.994
63.18000 1.966
63.20000 4.540
63.22000 6.912
63.24000 3.463
63.26000 2.182
63.28000 -0.222
63.30000 -2.273
63.32000 1.586
63.34000 4.363
63.36000 6.249
63.38000 3.201
63.40000 4.354
63.42000 6.165
63.44000 3.439
63.46000 3.086
63.48000 2.350
63.50000 5.813
63.52000 7.824
63.54000 4.131
63.56000 0.620
63.58000 3.361
63.60000 6.238
63.62000 5.063
63.64000 2.972
63.66000 6.166
63.68000 6.936
63.70000 1.233
63.72000 4.069
63.74000 4.004
63.76000 1.178
63.78000 -0.422
63.80000 -0.176
63.82000 2.751
63.84000 1.453
63.86000 0.939
63.88000 -0.846
63.90000 0.150
63.92000 1.761
63.94000 3.773
63.96000 4.223
63.98000 5.888
64.00000 3.673
64.02000 2.969
64.04000 3.263
64.06000 1.204
64.08000 3.041
64.10000 6.030
64.12000 3.906
64.14000 3.309
64.16000 0.104
64.18000 -2.289
64.20000 -0.114
64.22000 3.107
64.24000 3.386
64.26000 1.261
64.28000 2.900
64.30000 3.478
64.32000 1.182
64.34000 2.334
64.36000 1.724
64.38000 0.633
64.40000 2.519
64.42000 2.224
64.44000 -0.898
64.46000 -0.945
64.48000 0.260
64.50000 3.119
64.52000 0.336
64.54000 -0.752
64.56000 0.648
64.58000 4.138
64.60000 2.913
64.62000 -0.796
64.64000 1.145
64.66000 0.770
64.68000 0.678
64.70000 6.170
64.72000 5.715
64.74000 4.739
64.76000 0.439
64.78000 1.647
64.80000 4.795
64.82000 2.477
64.84000 0.375
64.86000 -1.140
64.88000 -0.499
64.90000 0.933
64.92000 2.485
64.94000 0.323
64.96000 -2.299
64.98000 0.982
65.00000 1.155
65.02000 0.749
65.04000 0.572
65.06000 2.489
65.08000 1.475
65.10000 3.223
65.12000 0.505
65.14000 0.665
65.16000 -0.352
65.18000 0.739
65.20000 -1.357
65.22000 0.328
65.24000 0.038
65.26000 3.045
65.28000 3.540
65.30000 1.036
65.32000 1.487
65.34000 3.736
65.36000 0.480
65.38000 0.344
65.40000 -0.103
65.42000 -1.821
65.44000 0.592
65.46000 -0.323
65.48000 0.470
65.50000 1.947
65.52000 1.805
65.54000 1.942
65.56000 0.008
65.58000 2.074
65.60000 1.776
65.62000 2.436
65.64000 3.040
65.66000 3.168
65.68000 3.469
65.70000 0.764
65.72000 -1.068
65.74000 1.856
65.76000 -1.175
65.78000 0.446
65.80000 5.509
65.82000 4.600
65.84000 2.703
65.86000 4.272
65.88000 5.810
65.90000 4.009
65.92000 3.566
65.94000 2.860
65.96000 2.912
65.98000 4.558
66.00000 3.513
66.02000 4.805
66.04000 2.530
66.06000 -1.926
66.08000 2.024
66.10000 3.292
66.12000 3.892
66.14000 4.849
66.16000 4.039
66.18000 5.399
66.20000 6.366
66.22000 9.495
66.24000 8.101
66.26000 7.097
66.28000 5.452
66.30000 1.952
66.32000 2.023
66.34000 4.496
66.36000 8.587
66.38000 8.898
66.40000 6.916
66.42000 7.568
66.44000 10.095
66.46000 7.932
66.48000 7.675
66.50000 7.307
66.52000 9.284
66.54000 7.928
66.56000 8.108
66.58000 8.731
66.60000 7.234
66.62000 6.321
66.64000 6.299
66.66000 8.115
66.68000 7.201
66.70000 6.218
66.72000 8.523
66.74000 9.853
66.76000 7.606
66.78000 6.798
66.80000 5.093
66.82000 2.122
66.84000 1.331
66.86000 5.427
66.88000 4.106
66.90000 0.956
66.92000 1.078
66.94000 2.344
66.96000 2.290
66.98000 1.685
67.00000 3.167
67.02000 1.475
67.04000 3.535
67.06000 2.966
67.08000 2.921
67.10000 2.804
67.12000 4.322
67.14000 4.863
67.16000 2.916
67.18000 -1.021
67.20000 0.270
67.22000 2.373
67.24000 1.290
67.26000 0.004
67.28000 -2.032
67.30000 -0.919
67.32000 0.664
67.34000 1.615
67.36000 -1.312
67.38000 -0.816
67.40000 -0.675
67.42000 0.788
67.44000 0.767
67.46000 -2.262
67.48000 -0.723
67.50000 1.864
67.52000 -0.235
67.54000 -0.268
67.56000 0.759
67.58000 1.897
67.60000 -0.425
67.62000 -0.269
67.64000 0.799
67.66000 -0.963
67.68000 -0.356
67.70000 1.557
67.72000 1.721
67.74000 0.281
67.76000 -2.031
67.78000 0.733
67.80000 -0.793
67.82000 -1.804
67.84000 -0.996
67.86000 1.106
67.88000 2.154
67.90000 0.876
67.92000 -0.775
67.94000 -0.256
67.96000 2.522
67.98000 0.930
68.00000 0.500
68.02000 2.589
68.04000 1.783
68.06000 2.490
68.08000 0.762
68.10000 1.422
68.12000 0.296
68.14000 2.553
68.16000 -1.136
68.18000 -2.220
68.20000 -1.521
68.22000 0.947
68.24000 1.834
68.26000 -1.324
68.28000 -1.101
68.30000 0.027
68.32000 0.235
68.34000 1.617
68.36000 2.996
68.38000 0.676
68.40000 -1.888
68.42000 -0.177
68.44000 1.105
68.46000 0.382
68.48000 0.769
68.50000 2.608
68.52000 0.281
68.54000 -1.941
68.56000 -1.051
68.58000 0.555
68.60000 0.571
68.62000 -0.480
68.64000 -1.189
68.66000 0.773
68.68000 3.694
68.70000 2.029
68.72000 1.501
68.74000 1.034
68.76000 -1.702
68.78000 -2.180
68.80000 -1.867
68.82000 -1.432
68.84000 1.115
68.86000 0.199
68.88000 1.687
68.90000 1.284
68.92000 0.517
68.94000 -2.113
68.96000 -1.300
68.98000 0.336
69.00000 -0.893
69.02000 -0.276
69.04000 0.055
69.06000 0.854
69.08000 1.504
69.10000 2.375
69.12000 1.197
69.14000 -0.716
69.16000 0.145
69.18000 0.148
69.20000 -1.239
69.22000 0.142
69.24000 1.544
69.26000 0.742
69.28000 1.650
69.30000 2.545
69.32000 3.872
69.34000 5.110
69.36000 2.945
69.38000 -0.354
69.40000 -0.008
69.42000 2.034
69.44000 3.964
69.46000 1.141
69.48000 1.674
69.50000 0.296
69.52000 0.096
69.54000 0.231
69.56000 0.959
69.58000 -0.170
69.60000 2.001
69.62000 2.290
69.64000 -1.439
69.66000 0.756
69.68000 -0.011
69.70000 -0.054
69.72000 1.996
69.74000 2.684
69.76000 4.438
69.78000 2.227
69.80000 0.192
69.82000 1.188
69.84000 -0.049
69.86000 -0.861
69.88000 0.737
69.90000 0.790
69.92000 0.893
69.94000 -1.491
69.96000 -2.115
69.98000 0.349
70.00000 1.988
70.02000 3.437
70.04000 3.229
70.06000 2.631
70.08000 2.789
70.10000 0.348
70.12000 1.965
70.14000 1.858
70.16000 0.212
70.18000 0.719
70.20000 2.954
70.22000 1.091
70.24000 1.515
70.26000 1.502
70.28000 4.646
70.30000 1.774
70.32000 0.450
70.34000 1.302
70.36000 0.740
70.38000 1.326
70.40000 -2.044
70.42000 -0.477
70.44000 0.682
70.46000 4.097
70.48000 5.127
70.50000 1.059
70.52000 0.547
70.54000 2.663
70.56000 2.390
70.58000 2.129
70.60000 0.907
70.62000 0.561
70.64000 1.204
70.66000 -0.049
70.68000 -2.110
70.70000 -0.916
70.72000 0.478
70.74000 0.064
70.76000 2.053
70.78000 3.461
70.80000 -0.873
70.82000 2.357
70.84000 1.860
70.86000 3.972
70.88000 2.395
70.90000 0.010
70.92000 2.086
70.94000 2.578
70.96000 -0.410
70.98000 -2.104
71.00000 0.371
71.02000 2.130
71.04000 1.961
71.06000 0.498
71.08000 0.267
71.10000 0.801
71.12000 1.400
71.14000 3.594
71.16000 3.318
71.18000 1.543
71.20000 0.582
71.22000 2.421
71.24000 0.800
71.26000 -1.866
71.28000 -0.070
71.30000 0.972
71.32000 0.666
71.34000 2.403
71.36000 1.933
71.38000 3.144
71.40000 1.469
71.42000 -0.395
71.44000 0.420
71.46000 1.130
71.48000 3.234
71.50000 1.013
71.52000 -1.603
71.54000 -1.657
71.56000 2.662
71.58000 2.232
71.60000 0.053
71.62000 3.500
71.64000 4.896
71.66000 0.519
71.68000 0.644
71.70000 0.413
71.72000 0.238
71.74000 1.283
71.76000 1.607
71.78000 3.130
71.80000 -0.593
71.82000 2.927
71.84000 4.088
71.86000 -0.202
71.88000 0.252
71.90000 -0.651
71.92000 1.235
71.94000 0.124
71.96000 -2.066
71.98000 -1.160
72.00000 -1.155
72.02000 -1.374
72.04000 -2.061
72.06000 0.259
72.08000 2.687
72.10000 2.411
72.12000 1.353
72.14000 1.177
72.16000 3.310
72.18000 3.670
72.20000 1.990
72.22000 0.547
72.24000 -1.137
72.26000 -1.942
72.28000 1.532
72.30000 2.938
72.32000 0.759
72.34000 2.015
72.36000 -1.083
72.38000 0.535
72.40000 -1.214
72.42000 -0.628
72.44000 -1.396
72.46000 -0.617
72.48000 -2.053
72.50000 -0.259
72.52000 1.081
72.54000 2.640
72.56000 4.384
72.58000 1.043
72.60000 0.613
72.62000 -1.050
72.64000 -1.146
72.66000 0.594
72.68000 2.763
72.70000 0.557
72.72000 1.454
72.74000 3.113
72.76000 0.031
72.78000 1.231
72.80000 -1.339
72.82000 -0.826
72.84000 0.402
72.86000 0.717
72.88000 0.039
72.90000 -0.456
72.92000 0.782
72.94000 3.104
72.96000 1.201
72.98000 -0.109
73.00000 1.844
73.02000 -1.130
73.04000 1.034
73.06000 0.795
73.08000 3.565
73.10000 3.202
73.12000 3.329
73.14000 4.544
73.16000 0.724
73.18000 -2.013
73.20000 -1.619
73.22000 1.699
73.24000 1.193
73.26000 3.367
73.28000 2.446
73.30000 2.526
73.32000 -2.002
73.34000 -1.385
73.36000 2.517
73.38000 4.230
73.40000 4.176
73.42000 6.367
73.44000 7.965
73.46000 2.191
73.48000 -0.427
73.50000 -1.716
73.52000 -0.071
73.54000 -0.566
73.56000 1.816
73.58000 2.603
73.60000 2.657
73.62000 -0.710
73.64000 0.735
73.66000 0.802
73.68000 1.120
73.70000 0.892
73.72000 1.331
73.74000 0.697
73.76000 1.780
73.78000 4.232
73.80000 3.563
73.82000 3.213
73.84000 5.198
73.86000 7.605
73.88000 3.588
73.90000 2.281
73.92000 1.829
73.94000 1.307
73.96000 1.623
73.98000 2.594
74.00000 0.965
74.02000 1.528
74.04000 0.173
74.06000 -1.222
74.08000 -1.044
74.10000 0.004
74.12000 0.240
74.14000 1.804
74.16000 2.457
74.18000 0.453
74.20000 -1.218
74.22000 -1.646
74.24000 -2.031
74.26000 1.293
74.28000 2.516
74.30000 4.499
74.32000 1.707
74.34000 3.104
74.36000 4.497
74.38000 3.707
74.40000 1.572
74.42000 -0.038
74.44000 -1.239
74.46000 2.713
74.48000 4.389
74.50000 3.528
74.52000 2.734
74.54000 3.289
74.56000 1.231
74.58000 1.137
74.60000 1.480
74.62000 2.229
74.64000 0.224
74.66000 -0.495
74.68000 2.905
74.70000 2.892
74.72000 -1.091
74.74000 -1.529
74.76000 2.870
74.78000 2.028
74.80000 0.329
74.82000 1.629
74.84000 1.613
74.86000 -0.373
74.88000 -0.935
74.90000 -2.026
74.92000 0.314
74.94000 3.233
74.96000 2.354
74.98000 2.255
75.00000 4.185
75.02000 2.074
75.04000 0.199
75.06000 0.076
75.08000 0.839
75.10000 -0.488
75.12000 1.287
75.14000 0.596
75.16000 3.677
75.18000 0.841
75.20000 2.272
75.22000 1.212
75.24000 -0.813
75.26000 -0.946
75.28000 0.639
75.30000 2.267
75.32000 2.911
75.34000 5.282
75.36000 2.784
75.38000 -0.127
75.40000 0.511
75.42000 -1.584
75.44000 -2.018
75.46000 -0.181
75.48000 0.052
75.50000 -0.327
75.52000 0.078
75.54000 3.119
75.56000 3.287
75.58000 1.225
75.60000 5.260
75.62000 6.942
75.64000 4.927
75.66000 0.710
75.68000 -1.410
75.70000 1.082
75.72000 1.850
75.74000 1.472
75.76000 1.227
75.78000 0.100
75.80000 -0.283
75.82000 -1.415
75.84000 -0.002
75.86000 1.180
75.88000 0.053
75.90000 1.899
75.92000 1.176
75.94000 2.101
75.96000 0.701
75.98000 0.270
76.00000 -0.460
76.02000 1.112
76.04000 1.985
76.06000 1.561
76.08000 0.491
76.10000 1.625
76.12000 5.292
76.14000 5.390
76.16000 5.390
76.18000 -0.279
76.20000 2.839
76.22000 4.857
76.24000 2.923
76.26000 1.935
76.28000 3.582
76.30000 1.901
76.32000 3.827
76.34000 0.799
76.36000 -0.006
76.38000 0.750
76.40000 0.974
76.42000 3.429
76.44000 3.956
76.46000 6.454
76.48000 6.030
76.50000 3.131
76.52000 1.907
76.54000 1.047
76.56000 1.466
76.58000 2.862
76.60000 4.816
76.62000 5.366
76.64000 3.460
76.66000 0.783
76.68000 1.290
76.70000 2.534
76.72000 1.830
76.74000 0.682
76.76000 3.934
76.78000 4.759
76.80000 5.747
76.82000 1.546
76.84000 0.481
76.86000 4.172
76.88000 9.204
76.90000 3.856
76.92000 2.719
76.94000 4.147
76.96000 1.788
76.98000 3.006
77.00000 1.580
77.02000 0.994
77.04000 1.864
77.06000 0.944
77.08000 0.274
77.10000 1.821
77.12000 1.594
77.14000 0.006
77.16000 -2.035
77.18000 0.446
77.20000 3.844
77.22000 5.870
77.24000 3.132
77.26000 2.218
77.28000 4.170
77.30000 6.040
77.32000 4.105
77.34000 3.575
77.36000 1.923
77.38000 1.935
77.40000 0.901
77.42000 0.713
77.44000 2.687
77.46000 1.069
77.48000 1.367
77.50000 -0.428
77.52000 -2.088
77.54000 4.466
77.56000 4.521
77.58000 0.904
77.60000 2.871
77.62000 1.778
77.64000 0.106
77.66000 -1.173
77.68000 0.508
77.70000 2.937
77.72000 1.624
77.74000 -1.740
77.76000 -1.060
77.78000 1.763
77.80000 2.480
77.82000 -0.797
77.84000 1.358
77.86000 2.411
77.88000 3.092
77.90000 -0.640
77.92000 0.496
77.94000 1.864
77.96000 0.404
77.98000 2.458
78.00000 0.940
78.02000 2.525
78.04000 2.964
78.06000 2.133
78.08000 -1.894
78.10000 -1.378
78.12000 4.065
78.14000 4.681
78.16000 -0.963
78.18000 -0.241
78.20000 -1.938
78.22000 -0.889
78.24000 2.341
78.26000 1.109
78.28000 1.210
78.30000 3.721
78.32000 4.317
78.34000 3.311
78.36000 0.250
78.38000 0.150
78.40000 1.054
78.42000 3.813
78.44000 1.307
78.46000 -2.193
78.48000 3.399
78.50000 4.285
78.52000 2.681
78.54000 -0.079
78.56000 -2.202
78.58000 0.391
78.60000 0.702
78.62000 -1.623
78.64000 0.812
78.66000 2.122
78.68000 3.305
78.70000 2.928
78.72000 1.950
78.74000 2.546
78.76000 1.707
78.78000 -0.687
78.80000 0.888
78.82000 0.370
78.84000 1.146
78.86000 3.725
78.88000 4.181
78.90000 2.110
78.92000 3.254
78.94000 1.341
78.96000 4.658
78.98000 5.461
79.00000 5.703
79.02000 3.924
79.04000 3.093
79.06000 4.183
79.08000 5.492
79.10000 5.217
79.12000 8.946
79.14000 4.120
79.16000 7.985
79.18000 7.962
79.20000 5.051
79.22000 5.170
79.24000 8.307
79.26000 9.203
79.28000 8.616
79.30000 10.162
79.32000 9.232
79.34000 8.526
79.36000 7.240
79.38000 10.461
79.40000 12.750
79.42000 11.884
79.44000 15.702
79.46000 17.876
79.48000 14.093
79.50000 12.537
79.52000 13.976
79.54000 16.557
79.56000 17.225
79.58000 16.487
79.60000 16.327
79.62000 17.897
79.64000 18.622
79.66000 18.474
79.68000 17.621
79.70000 16.863
79.72000 19.209
79.74000 24.360
79.76000 25.732
79.78000 26.987
79.80000 22.698
79.82000 24.283
79.84000 25.152
79.86000 25.336
79.88000 24.585
79.90000 26.280
79.92000 27.682
79.94000 27.943
79.96000 24.639
79.98000 24.715
80.00000 22.965
80.02000 27.868
80.04000 27.154
80.06000 22.480
80.08000 24.875
80.10000 27.752
80.12000 24.616
80.14000 27.821
80.16000 29.690
80.18000 25.191
80.20000 22.615
80.22000 22.254
80.24000 27.052
80.26000 25.640
80.28000 22.100
80.30000 23.300
80.32000 22.612
80.34000 25.930
80.36000 22.545
80.38000 20.752
80.40000 21.748
80.42000 24.479
80.44000 19.743
80.46000 20.534
80.48000 17.452
80.50000 13.543
80.52000 18.323
80.54000 20.386
80.56000 15.675
80.58000 16.348
80.60000 16.830
80.62000 14.636
80.64000 13.999
80.66000 13.109
80.68000 11.707
80.70000 10.830
80.72000 8.646
80.74000 14.094
80.76000 13.959
80.78000 15.445
80.80000 15.223
80.82000 9.660
80.84000 9.378
80.86000 2.279
80.88000 1.379
80.90000 2.996
80.92000 8.021
80.94000 11.881
80.96000 11.944
80.98000 5.483
81.00000 4.728
81.02000 7.315
81.04000 7.122
81.06000 10.880
81.08000 7.863
81.10000 4.158
81.12000 0.906
81.14000 -0.958
81.16000 -0.436
81.18000 2.539
81.20000 5.298
81.22000 4.701
81.24000 6.635
81.26000 4.269
81.28000 3.919
81.30000 8.473
81.32000 3.435
81.34000 0.743
81.36000 0.237
81.38000 -0.355
81.40000 4.040
81.42000 0.284
81.44000 1.248
81.46000 1.446
81.48000 2.093
81.50000 2.705
81.52000 0.672
81.54000 1.101
81.56000 3.445
81.58000 4.557
81.60000 3.309
81.62000 2.055
81.64000 1.334
81.66000 2.411
81.68000 0.712
81.70000 -0.142
81.72000 -2.288
81.74000 0.663
81.76000 0.662
81.78000 -1.049
81.80000 1.431
81.82000 1.661
81.84000 2.525
81.86000 0.472
81.88000 0.154
81.90000 2.017
81.92000 0.536
81.94000 3.593
81.96000 5.598
81.98000 4.357
82.00000 1.418
82.02000 3.286
82.04000 2.264
82.06000 2.591
82.08000 4.131
82.10000 5.020
82.12000 4.306
82.14000 5.407
82.16000 6.077
82.18000 0.572
82.20000 -0.466
82.22000 3.842
82.24000 0.617
82.26000 1.566
82.28000 0.329
82.30000 3.320
82.32000 0.097
82.34000 0.108
82.36000 1.931
82.38000 0.438
82.40000 4.948
82.42000 1.836
82.44000 3.459
82.46000 0.016
82.48000 -0.092
82.50000 2.962
82.52000 5.151
82.54000 4.256
82.56000 5.310
82.58000 8.456
82.60000 3.473
82.62000 2.734
82.64000 4.827
82.66000 7.318
82.68000 7.591
82.70000 8.564
82.72000 7.337
82.74000 4.689
82.76000 6.123
82.78000 6.853
82.80000 2.830
82.82000 5.262
82.84000 7.680
82.86000 3.862
82.88000 4.683
82.90000 2.786
82.92000 7.035
82.94000 7.071
82.96000 8.933
82.98000 14.437
83.00000 9.343
83.02000 8.769
83.04000 11.932
83.06000 12.063
83.08000 10.822
83.10000 11.677
83.12000 13.307
83.14000 13.908
83.16000 16.211
83.18000 17.340
83.20000 11.824
83.22000 15.443
83.24000 17.755
83.26000 19.814
83.28000 20.530
83.30000 19.520
83.32000 20.999
83.34000 20.733
83.36000 22.845
83.38000 25.724
83.40000 28.658
83.42000 24.468
83.44000 28.749
83.46000 26.236
83.48000 28.492
83.50000 29.322
83.52000 28.849
83.54000 31.417
83.56000 34.478
83.58000 34.435
83.60000 38.286
83.62000 41.958
83.64000 37.850
83.66000 37.638
83.68000 43.306
83.70000 43.720
83.72000 48.533
83.74000 43.175
83.76000 45.810
83.78000 43.584
83.80000 43.007
83.82000 46.602
83.84000 46.295
83.86000 44.785
83.88000 46.510
83.90000 45.079
83.92000 45.303
83.94000 52.593
83.96000 49.229
83.98000 47.161
84.00000 44.855
84.02000 51.382
84.04000 53.089
84.06000 50.620
84.08000 47.932
84.10000 46.133
84.12000 49.072
84.14000 47.168
84.16000 48.520
84.18000 47.070
84.20000 45.043
84.22000 48.345
84.24000 50.154
84.26000 46.020
84.28000 44.788
84.30000 44.586
84.32000 43.508
84.34000 38.811
84.36000 37.141
84.38000 38.666
84.40000 35.361
84.42000 31.116
84.44000 35.090
84.46000 35.212
84.48000 33.747
84.50000 30.847
84.52000 28.422
84.54000 27.163
84.56000 24.516
84.58000 23.389
84.60000 24.723
84.62000 19.763
84.64000 18.142
84.66000 23.695
84.68000 22.149
84.70000 18.605
84.72000 17.030
84.74000 15.010
84.76000 14.109
84.78000 11.932
84.80000 16.084
84.82000 15.414
84.84000 15.704
84.86000 12.313
84.88000 13.682
84.90000 13.601
84.92000 9.803
84.94000 7.102
84.96000 7.221
84.98000 3.881
85.00000 5.842
85.02000 6.334
85.04000 3.424
85.06000 5.077
85.08000 7.914
85.10000 7.208
85.12000 5.131
85.14000 5.303
85.16000 7.409
85.18000 5.591
85.20000 4.019
85.22000 1.028
85.24000 4.004
85.26000 1.741
85.28000 3.228
85.30000 -0.501
85.32000 1.160
85.34000 1.890
85.36000 4.370
85.38000 0.663
85.40000 1.524
85.42000 2.164
85.44000 1.512
85.46000 2.901
85.48000 -0.128
85.50000 -0.140
85.52000 -1.633
85.54000 -2.086
85.56000 0.136
85.58000 1.524
85.60000 0.909
85.62000 3.576
85.64000 1.727
85.66000 0.534
85.68000 5.681
85.70000 5.464
85.72000 -0.734
85.74000 -1.234
85.76000 4.108
85.78000 1.923
85.80000 -2.053
85.82000 2.047
85.84000 -0.019
85.86000 -0.176
85.88000 1.164
85.90000 2.563
85.92000 2.335
85.94000 2.387
85.96000 1.129
85.98000 -0.435
86.00000 0.284
86.02000 -0.864
86.04000 -0.538
86.06000 1.360
86.08000 -0.587
86.10000 0.230
86.12000 2.436
86.14000 0.930
86.16000 4.034
86.18000 3.813
86.20000 -0.276
86.22000 0.363
86.24000 0.705
86.26000 0.013
86.28000 1.784
86.30000 0.533
86.32000 -1.974
86.34000 2.046
86.36000 1.768
86.38000 1.022
86.40000 0.932
86.42000 2.402
86.44000 1.740
86.46000 0.651
86.48000 -0.820
86.50000 2.348
86.52000 2.330
86.54000 1.018
86.56000 1.771
86.58000 0.020
86.60000 1.929
86.62000 0.903
86.64000 2.915
86.66000 1.802
86.68000 0.607
86.70000 2.109
86.72000 -0.336
86.74000 0.557
86.76000 0.978
86.78000 -1.001
86.80000 -1.102
86.82000 0.961
86.84000 2.991
86.86000 1.222
86.88000 4.071
86.90000 2.136
86.92000 -1.851
86.94000 -0.900
86.96000 0.751
86.98000 2.055
87.00000 2.482
87.02000 -0.739
87.04000 -1.948
87.06000 1.879
87.08000 3.458
87.10000 3.271
87.12000 6.400
87.14000 1.800
87.16000 2.249
87.18000 0.400
87.20000 -1.938
87.22000 -0.324
87.24000 3.224
87.26000 3.097
87.28000 4.424
87.30000 2.227
87.32000 1.576
87.34000 3.073
87.36000 0.849
87.38000 0.974
87.40000 0.894
87.42000 2.962
87.44000 2.813
87.46000 0.996
87.48000 2.653
87.50000 -1.793
87.52000 -0.258
87.54000 2.567
87.56000 2.290
87.58000 1.563
87.60000 0.105
87.62000 -0.921
87.64000 -1.858
87.66000 2.490
87.68000 -1.040
87.70000 -0.652
87.72000 -0.587
87.74000 0.533
87.76000 0.262
87.78000 0.609
87.80000 -0.146
87.82000 0.190
87.84000 -0.780
87.86000 2.671
87.88000 1.868
87.90000 2.809
87.92000 1.109
87.94000 2.412
87.96000 3.974
87.98000 2.847
88.00000 -0.056
88.02000 2.146
88.04000 4.615
88.06000 4.306
88.08000 1.333
88.10000 -1.885
88.12000 3.550
88.14000 2.152
88.16000 1.453
88.18000 2.296
88.20000 4.618
88.22000 0.865
88.24000 1.583
88.26000 2.511
88.28000 2.823
88.30000 0.333
88.32000 -1.866
88.34000 1.219
88.36000 2.533
88.38000 1.839
88.40000 0.737
88.42000 0.306
88.44000 -0.479
88.46000 0.800
88.48000 3.051
88.50000 2.462
88.52000 1.818
88.54000 2.111
88.56000 5.904
88.58000 4.831
88.60000 2.535
88.62000 0.981
88.64000 2.098
88.66000 1.089
88.68000 5.186
88.70000 5.050
88.72000 5.315
88.74000 2.787
88.76000 -1.212
88.78000 0.560
88.80000 3.152
88.82000 1.039
88.84000 1.400
88.86000 4.533
88.88000 1.491
88.90000 -0.390
88.92000 0.205
88.94000 1.105
88.96000 2.507
88.98000 2.157
89.00000 1.452
89.02000 0.364
89.04000 0.097
89.06000 0.995
89.08000 -0.239
89.10000 -0.639
89.12000 1.526
89.14000 3.333
89.16000 5.844
89.18000 3.242
89.20000 1.959
89.22000 2.886
89.24000 1.194
89.26000 1.174
89.28000 2.729
89.30000 1.291
89.32000 -1.871
89.34000 -0.662
89.36000 1.120
89.38000 4.217
89.40000 1.531
89.42000 2.436
89.44000 2.542
89.46000 3.404
89.48000 3.240
89.50000 2.430
89.52000 2.709
89.54000 5.014
89.56000 0.979
89.58000 1.461
89.60000 2.499
89.62000 2.334
89.64000 2.003
89.66000 6.571
89.68000 4.097
89.70000 3.762
89.72000 5.363
89.74000 2.586
89.76000 3.200
89.78000 -0.258
89.80000 4.953
89.82000 2.440
89.84000 4.409
89.86000 2.711
89.88000 2.178
89.90000 3.345
89.92000 3.433
89.94000 1.903
89.96000 2.040
89.98000 3.249
90.00000 1.597
90.02000 -0.383
90.04000 0.827
90.06000 2.960
90.08000 1.778
90.10000 0.893
90.12000 0.791
90.14000 0.229
90.16000 3.452
90.18000 3.038
90.20000 6.428
90.22000 7.230
90.24000 5.228
90.26000 3.192
90.28000 -1.836
90.30000 0.210
90.32000 1.584
90.34000 2.079
90.36000 0.014
90.38000 1.893
90.40000 4.136
90.42000 3.477
90.44000 0.103
90.46000 1.834
90.48000 1.446
90.50000 0.718
90.52000 1.253
90.54000 3.553
90.56000 1.916
90.58000 1.604
90.60000 2.534
90.62000 2.692
90.64000 -0.091
90.66000 -1.859
90.68000 -1.065
90.70000 -0.441
90.72000 3.135
90.74000 2.678
90.76000 1.549
90.78000 1.724
90.80000 4.001
90.82000 3.166
90.84000 1.830
90.86000 1.771
90.88000 1.538
90.90000 1.979
90.92000 3.386
90.94000 0.907
90.96000 1.182
90.98000 1.221
91.00000 2.140
91.02000 2.984
91.04000 0.709
91.06000 -0.967
91.08000 1.973
91.10000 3.399
91.12000 1.561
91.14000 2.409
91.16000 1.342
91.18000 -1.152
91.20000 1.642
91.22000 1.915
91.24000 2.615
91.26000 3.087
91.28000 -0.582
91.30000 0.933
91.32000 4.526
91.34000 0.990
91.36000 -0.235
91.38000 1.749
91.40000 5.364
91.42000 2.742
91.44000 3.146
91.46000 3.031
91.48000 -1.886
91.50000 -0.523
91.52000 1.799
91.54000 1.821
91.56000 1.307
91.58000 4.037
91.60000 2.853
91.62000 2.140
91.64000 1.519
91.66000 1.001
91.68000 2.784
91.70000 1.313
91.72000 3.892
91.74000 3.758
91.76000 3.866
91.78000 4.238
91.80000 3.418
91.82000 2.228
91.84000 4.072
91.86000 2.966
91.88000 0.068
91.90000 3.219
91.92000 2.963
91.94000 0.571
91.96000 0.531
91.98000 0.408
92.00000 2.466
92.02000 3.445
92.04000 1.655
92.06000 2.574
92.08000 1.338
92.10000 1.688
92.12000 4.161
92.14000 0.729
92.16000 0.441
92.18000 0.816
92.20000 2.634
92.22000 1.131
92.24000 2.351
92.26000 3.164
92.28000 2.761
92.30000 0.791
92.32000 0.650
92.34000 0.074
92.36000 0.285
92.38000 0.483
92.40000 -0.376
92.42000 2.204
92.44000 5.264
92.46000 4.758
92.48000 4.426
92.50000 2.186
92.52000 1.245
92.54000 1.984
92.56000 2.299
92.58000 1.810
92.60000 -0.563
92.62000 -0.922
92.64000 -1.877
92.66000 -0.610
92.68000 2.660
92.70000 7.152
92.72000 5.283
92.74000 1.487
92.76000 0.885
92.78000 1.823
92.80000 3.522
92.82000 2.661
92.84000 7.357
92.86000 6.169
92.88000 3.443
92.90000 -0.861
92.92000 -0.394
92.94000 1.909
92.96000 5.513
92.98000 5.958
93.00000 2.458
93.02000 0.922
93.04000 1.577
93.06000 3.575
93.08000 2.317
93.10000 2.279
93.12000 -0.072
93.14000 2.088
93.16000 4.584
93.18000 7.427
93.20000 5.819
93.22000 3.316
93.24000 3.658
93.26000 1.944
93.28000 0.852
93.30000 0.870
93.32000 1.398
93.34000 -0.894
93.36000 -0.283
93.38000 2.391
93.40000 2.928
93.42000 3.709
93.44000 2.808
93.46000 0.285
93.48000 2.268
93.50000 0.902
93.52000 -1.874
93.54000 1.354
93.56000 0.903
93.58000 2.598
93.60000 6.459
93.62000 5.399
93.64000 3.139
93.66000 7.057
93.68000 2.976
93.70000 -1.160
93.72000 -0.844
93.74000 4.329
93.76000 5.932
93.78000 5.617
93.80000 1.672
93.82000 0.890
93.84000 -0.196
93.86000 -0.672
93.88000 0.300
93.90000 0.181
93.92000 0.310
93.94000 1.936
93.96000 1.128
93.98000 3.979
94.00000 0.880
94.02000 0.381
94.04000 1.022
94.06000 0.750
94.08000 -0.956
94.10000 1.030
94.12000 5.135
94.14000 6.003
94.16000 2.583
94.18000 5.369
94.20000 7.738
94.22000 6.194
94.24000 5.097
94.26000 2.676
94.28000 2.953
94.30000 4.638
94.32000 1.701
94.34000 2.594
94.36000 4.521
94.38000 2.958
94.40000 0.914
94.42000 4.011
94.44000 4.708
94.46000 1.441
94.48000 4.934
94.50000 6.235
94.52000 5.480
94.54000 4.343
94.56000 4.118
94.58000 0.626
94.60000 2.123
94.62000 4.613
94.64000 2.934
94.66000 5.579
94.68000 7.787
94.70000 0.725
94.72000 1.689
94.74000 4.211
94.76000 6.119
94.78000 4.995
94.80000 4.733
94.82000 5.013
94.84000 4.598
94.86000 5.305
94.88000 5.482
94.90000 4.088
94.92000 4.058
94.94000 5.708
94.96000 7.009
94.98000 4.171
95.00000 0.158
95.02000 -1.851
95.04000 1.158
95.06000 5.627
95.08000 3.678
95.10000 6.921
95.12000 6.263
95.14000 9.009
95.16000 6.505
95.18000 5.056
95.20000 7.565
95.22000 2.343
95.24000 3.942
95.26000 1.835
95.28000 2.362
95.30000 3.441
95.32000 3.191
95.34000 2.519
95.36000 1.982
95.38000 6.101
95.40000 2.462
95.42000 3.038
95.44000 6.283
95.46000 1.673
95.48000 1.775
95.50000 1.348
95.52000 2.821
95.54000 4.475
95.56000 3.679
95.58000 4.587
95.60000 4.905
95.62000 3.433
95.64000 1.324
95.66000 3.569
95.68000 4.037
95.70000 6.430
95.72000 5.538
95.74000 4.909
95.76000 2.185
95.78000 2.966
95.80000 1.906
95.82000 0.000
95.84000 2.285
95.86000 1.617
95.88000 -1.251
95.90000 2.225
95.92000 5.665
95.94000 5.751
95.96000 6.200
95.98000 5.424
96.00000 1.113
96.02000 1.886
96.04000 3.839
96.06000 1.566
96.08000 2.040
96.10000 1.456
96.12000 2.439
96.14000 0.942
96.16000 -1.700
96.18000 3.566
96.20000 -0.277
96.22000 1.765
96.24000 2.817
96.26000 5.976
96.28000 8.457
96.30000 2.337
96.32000 1.767
96.34000 1.877
96.36000 1.954
96.38000 2.753
96.40000 -0.216
96.42000 0.610
96.44000 6.315
96.46000 6.780
96.48000 7.271
96.50000 2.119
96.52000 3.480
96.54000 1.956
96.56000 2.845
96.58000 5.621
96.60000 5.461
96.62000 3.900
96.64000 -0.458
96.66000 0.845
96.68000 1.872
96.70000 1.958
96.72000 3.642
96.74000 3.851
96.76000 0.982
96.78000 2.471
96.80000 2.503
96.82000 2.372
96.84000 4.636
96.86000 5.572
96.88000 3.110
96.90000 -1.887
96.92000 0.918
96.94000 -0.684
96.96000 0.292
96.98000 1.648
97.00000 3.123
97.02000 1.210
97.04000 4.839
97.06000 3.870
97.08000 2.969
97.10000 0.054
97.12000 4.772
97.14000 2.733
97.16000 1.843
97.18000 4.965
97.20000 3.445
97.22000 5.880
97.24000 5.561
97.26000 6.985
97.28000 4.964
97.30000 3.956
97.32000 2.141
97.34000 1.925
97.36000 5.278
97.38000 5.853
97.40000 5.021
97.42000 4.276
97.44000 0.108
97.46000 -0.614
97.48000 -0.173
97.50000 1.481
97.52000 2.073
97.54000 5.993
97.56000 7.011
97.58000 4.585
97.60000 -1.517
97.62000 -1.533
97.64000 -1.885
97.66000 0.852
97.68000 6.853
97.70000 4.584
97.72000 5.449
97.74000 2.626
97.76000 0.284
97.78000 2.151
97.80000 0.212
97.82000 0.378
97.84000 0.253
97.86000 4.877
97.88000 3.630
97.90000 2.408
97.92000 4.582
97.94000 5.181
97.96000 5.306
97.98000 6.877
98.00000 1.597
98.02000 4.422
98.04000 7.158
98.06000 2.646
98.08000 0.355
98.10000 -1.144
98.12000 3.482
98.14000 8.369
98.16000 8.446
98.18000 4.179
98.20000 5.504
98.22000 3.266
98.24000 0.357
98.26000 0.575
98.28000 -0.589
98.30000 -1.860
98.32000 5.744
98.34000 8.060
98.36000 9.961
98.38000 7.643
98.40000 4.154
98.42000 2.577
98.44000 2.760
98.46000 1.964
98.48000 7.039
98.50000 7.287
98.52000 9.791
98.54000 6.925
98.56000 3.981
98.58000 0.415
98.60000 2.353
98.62000 4.694
98.64000 9.164
98.66000 7.017
98.68000 1.563
98.70000 -0.612
98.72000 1.749
98.74000 1.072
98.76000 -0.983
98.78000 5.495
98.80000 3.058
98.82000 3.355
98.84000 2.297
98.86000 -1.822
98.88000 0.196
98.90000 4.627
98.92000 10.616
98.94000 4.620
98.96000 3.281
98.98000 7.314
99.00000 8.348
99.02000 5.701
99.04000 2.978
99.06000 3.837
99.08000 1.430
99.10000 5.782
99.12000 4.652
99.14000 3.721
99.16000 7.127
99.18000 6.745
99.20000 10.097
99.22000 2.918
99.24000 7.536
99.26000 6.733
99.28000 3.335
99.30000 5.539
99.32000 7.912
99.34000 2.239
99.36000 2.862
99.38000 0.306
99.40000 10.822
99.42000 9.028
99.44000 4.022
99.46000 10.716
99.48000 9.188
99.50000 8.990
99.52000 6.596
99.54000 1.636
99.56000 4.439
99.58000 7.602
99.60000 6.126
99.62000 2.472
99.64000 4.689
99.66000 3.285
99.68000 2.159
99.70000 7.631
99.72000 5.687
99.74000 1.210
99.76000 5.270
99.78000 6.078
99.80000 8.342
99.82000 8.159
99.84000 -2.206
99.86000 1.153
99.88000 6.736
99.90000 9.556
99.92000 6.943
99.94000 9.903
99.96000 6.034
99.98000 0.000
