'Id: "0011387" Comment: "Integrate frame 0011387_Au-Ir-Rh_Rh-rich_XRD-Mapping-288-0000.gfrmwith cursor Wedge Cursor #5" Operator: "B?rgel" Anode: "Cu" Wavelength: "1.5406" Scantype: "2Theta (TwoTheta)" TimePerStep: "1" X: "4.5" Y: "27" Z: "5.95" 
10.00000 0.000
10.02000 4.886
10.04000 6.365
10.06000 27.624
10.08000 25.856
10.10000 12.688
10.12000 10.641
10.14000 2.575
10.16000 10.785
10.18000 11.930
10.20000 7.864
10.22000 11.438
10.24000 14.561
10.26000 9.283
10.28000 8.103
10.30000 19.281
10.32000 4.388
10.34000 -1.156
10.36000 7.053
10.38000 6.302
10.40000 -0.607
10.42000 5.570
10.44000 -2.875
10.46000 0.815
10.48000 7.525
10.50000 15.521
10.52000 2.161
10.54000 -1.819
10.56000 6.288
10.58000 0.298
10.60000 -4.233
10.62000 6.307
10.64000 0.178
10.66000 0.295
10.68000 2.447
10.70000 1.759
10.72000 1.911
10.74000 8.577
10.76000 20.592
10.78000 20.372
10.80000 2.587
10.82000 -0.372
10.84000 6.047
10.86000 10.027
10.88000 10.945
10.90000 16.020
10.92000 18.451
10.94000 15.608
10.96000 6.720
10.98000 13.017
11.00000 23.160
11.02000 20.630
11.04000 16.565
11.06000 19.759
11.08000 18.964
11.10000 14.567
11.12000 6.741
11.14000 11.609
11.16000 17.443
11.18000 16.441
11.20000 14.753
11.22000 12.791
11.24000 10.432
11.26000 7.901
11.28000 13.030
11.30000 16.846
11.32000 13.040
11.34000 -4.310
11.36000 4.095
11.38000 23.676
11.40000 30.425
11.42000 23.127
11.44000 15.236
11.46000 9.259
11.48000 12.783
11.50000 1.803
11.52000 3.551
11.54000 8.101
11.56000 20.251
11.58000 19.836
11.60000 19.587
11.62000 9.972
11.64000 7.537
11.66000 0.175
11.68000 -0.217
11.70000 1.659
11.72000 1.531
11.74000 13.984
11.76000 15.149
11.78000 19.840
11.80000 14.192
11.82000 12.387
11.84000 13.084
11.86000 4.922
11.88000 -1.995
11.90000 -2.249
11.92000 -4.369
11.94000 14.830
11.96000 8.879
11.98000 9.460
12.00000 -0.707
12.02000 2.601
12.04000 15.544
12.06000 12.529
12.08000 7.319
12.10000 9.335
12.12000 11.895
12.14000 9.401
12.16000 -0.081
12.18000 2.278
12.20000 9.648
12.22000 11.051
12.24000 14.727
12.26000 6.358
12.28000 14.104
12.30000 13.942
12.32000 15.462
12.34000 9.419
12.36000 9.038
12.38000 15.963
12.40000 12.308
12.42000 11.901
12.44000 8.245
12.46000 19.959
12.48000 23.520
12.50000 12.943
12.52000 10.489
12.54000 11.071
12.56000 15.338
12.58000 16.393
12.60000 11.166
12.62000 3.966
12.64000 5.213
12.66000 18.140
12.68000 15.922
12.70000 7.076
12.72000 6.136
12.74000 16.351
12.76000 14.252
12.78000 12.779
12.80000 20.228
12.82000 23.015
12.84000 27.305
12.86000 14.831
12.88000 15.662
12.90000 16.228
12.92000 16.349
12.94000 19.979
12.96000 25.244
12.98000 19.796
13.00000 17.110
13.02000 12.471
13.04000 10.825
13.06000 10.349
13.08000 5.298
13.10000 10.855
13.12000 9.800
13.14000 10.832
13.16000 11.319
13.18000 10.956
13.20000 10.306
13.22000 8.262
13.24000 10.572
13.26000 14.299
13.28000 12.165
13.30000 17.394
13.32000 12.466
13.34000 5.522
13.36000 15.829
13.38000 14.785
13.40000 10.602
13.42000 22.814
13.44000 21.524
13.46000 17.403
13.48000 23.371
13.50000 18.849
13.52000 4.562
13.54000 -1.121
13.56000 10.854
13.58000 3.478
13.60000 1.369
13.62000 -1.035
13.64000 1.494
13.66000 5.495
13.68000 7.950
13.70000 9.105
13.72000 1.784
13.74000 -0.394
13.76000 5.220
13.78000 7.018
13.80000 10.567
13.82000 13.564
13.84000 22.581
13.86000 13.241
13.88000 16.134
13.90000 13.788
13.92000 4.038
13.94000 12.264
13.96000 16.914
13.98000 15.048
14.00000 17.078
14.02000 13.453
14.04000 22.703
14.06000 13.794
14.08000 12.496
14.10000 14.664
14.12000 15.371
14.14000 11.900
14.16000 13.967
14.18000 5.391
14.20000 2.197
14.22000 6.957
14.24000 13.784
14.26000 13.518
14.28000 12.373
14.30000 8.504
14.32000 14.961
14.34000 13.801
14.36000 10.432
14.38000 4.703
14.40000 6.321
14.42000 3.675
14.44000 8.076
14.46000 10.250
14.48000 19.324
14.50000 14.213
14.52000 11.334
14.54000 11.412
14.56000 3.673
14.58000 5.694
14.60000 11.243
14.62000 13.598
14.64000 5.156
14.66000 -4.485
14.68000 1.711
14.70000 12.168
14.72000 6.439
14.74000 12.188
14.76000 15.307
14.78000 8.105
14.80000 6.838
14.82000 4.942
14.84000 0.133
14.86000 0.810
14.88000 5.007
14.90000 1.367
14.92000 1.648
14.94000 1.885
14.96000 2.244
14.98000 3.570
15.00000 12.215
15.02000 14.842
15.04000 10.124
15.06000 2.855
15.08000 6.124
15.10000 9.241
15.12000 10.433
15.14000 7.050
15.16000 -0.789
15.18000 4.604
15.20000 8.610
15.22000 4.693
15.24000 -0.176
15.26000 11.298
15.28000 15.903
15.30000 16.300
15.32000 10.804
15.34000 5.354
15.36000 3.118
15.38000 9.480
15.40000 13.853
15.42000 9.224
15.44000 11.484
15.46000 18.024
15.48000 16.325
15.50000 9.577
15.52000 12.270
15.54000 6.137
15.56000 0.872
15.58000 7.290
15.60000 5.385
15.62000 -2.373
15.64000 5.593
15.66000 5.840
15.68000 5.380
15.70000 3.213
15.72000 6.823
15.74000 5.769
15.76000 4.449
15.78000 0.041
15.80000 -0.813
15.82000 2.203
15.84000 3.468
15.86000 13.969
15.88000 10.364
15.90000 5.273
15.92000 10.542
15.94000 5.223
15.96000 3.335
15.98000 5.922
16.00000 7.962
16.02000 13.107
16.04000 9.687
16.06000 4.425
16.08000 3.757
16.10000 3.472
16.12000 10.235
16.14000 8.738
16.16000 8.490
16.18000 4.202
16.20000 6.374
16.22000 14.326
16.24000 9.889
16.26000 8.436
16.28000 7.657
16.30000 2.927
16.32000 2.707
16.34000 4.994
16.36000 2.082
16.38000 -0.523
16.40000 -4.409
16.42000 5.285
16.44000 9.070
16.46000 5.062
16.48000 6.660
16.50000 13.604
16.52000 16.199
16.54000 8.545
16.56000 4.492
16.58000 12.814
16.60000 4.946
16.62000 1.620
16.64000 11.102
16.66000 9.658
16.68000 12.200
16.70000 9.263
16.72000 9.965
16.74000 8.165
16.76000 13.495
16.78000 6.323
16.80000 -0.451
16.82000 1.032
16.84000 5.381
16.86000 12.711
16.88000 12.585
16.90000 8.687
16.92000 8.848
16.94000 10.181
16.96000 5.016
16.98000 9.336
17.00000 6.643
17.02000 -3.572
17.04000 -4.398
17.06000 3.995
17.08000 4.155
17.10000 4.120
17.12000 7.399
17.14000 15.154
17.16000 9.898
17.18000 9.171
17.20000 8.150
17.22000 8.381
17.24000 4.339
17.26000 5.151
17.28000 7.583
17.30000 4.247
17.32000 4.573
17.34000 4.594
17.36000 12.369
17.38000 7.481
17.40000 8.645
17.42000 6.112
17.44000 4.878
17.46000 -2.707
17.48000 -1.131
17.50000 1.579
17.52000 8.987
17.54000 11.634
17.56000 9.069
17.58000 6.404
17.60000 5.073
17.62000 9.112
17.64000 5.426
17.66000 4.842
17.68000 -1.899
17.70000 -0.649
17.72000 1.344
17.74000 4.732
17.76000 3.893
17.78000 8.334
17.80000 7.249
17.82000 4.660
17.84000 6.223
17.86000 -0.084
17.88000 -0.787
17.90000 4.229
17.92000 -4.366
17.94000 2.596
17.96000 4.234
17.98000 8.209
18.00000 3.899
18.02000 6.071
18.04000 5.630
18.06000 -1.759
18.08000 3.919
18.10000 4.833
18.12000 6.849
18.14000 9.250
18.16000 4.487
18.18000 3.835
18.20000 2.513
18.22000 7.913
18.24000 4.956
18.26000 8.919
18.28000 8.296
18.30000 1.987
18.32000 0.640
18.34000 6.155
18.36000 2.567
18.38000 5.357
18.40000 8.336
18.42000 11.154
18.44000 2.653
18.46000 3.147
18.48000 13.062
18.50000 9.529
18.52000 1.847
18.54000 4.093
18.56000 7.086
18.58000 4.706
18.60000 7.827
18.62000 9.045
18.64000 0.221
18.66000 0.934
18.68000 3.742
18.70000 3.046
18.72000 4.230
18.74000 3.232
18.76000 14.629
18.78000 8.919
18.80000 3.141
18.82000 5.737
18.84000 5.936
18.86000 2.953
18.88000 -0.790
18.90000 0.422
18.92000 2.613
18.94000 2.886
18.96000 1.712
18.98000 6.892
19.00000 0.359
19.02000 -4.289
19.04000 -0.437
19.06000 3.057
19.08000 0.476
19.10000 1.342
19.12000 5.621
19.14000 9.672
19.16000 6.903
19.18000 7.158
19.20000 15.297
19.22000 11.971
19.24000 5.002
19.26000 8.151
19.28000 7.724
19.30000 0.516
19.32000 3.314
19.34000 3.227
19.36000 4.599
19.38000 5.829
19.40000 3.982
19.42000 -1.604
19.44000 -1.793
19.46000 -2.751
19.48000 -0.002
19.50000 5.079
19.52000 1.454
19.54000 0.760
19.56000 -0.770
19.58000 -0.392
19.60000 8.824
19.62000 9.842
19.64000 6.267
19.66000 7.575
19.68000 1.167
19.70000 0.644
19.72000 0.457
19.74000 3.988
19.76000 4.719
19.78000 10.162
19.80000 7.972
19.82000 5.296
19.84000 2.615
19.86000 -1.263
19.88000 0.068
19.90000 1.297
19.92000 -3.039
19.94000 5.472
19.96000 6.639
19.98000 1.224
20.00000 2.516
20.02000 5.258
20.04000 0.489
20.06000 -1.318
20.08000 2.331
20.10000 0.700
20.12000 -0.485
20.14000 3.781
20.16000 2.527
20.18000 -3.878
20.20000 -0.895
20.22000 2.610
20.24000 1.142
20.26000 2.670
20.28000 2.281
20.30000 5.217
20.32000 6.071
20.34000 6.079
20.36000 8.393
20.38000 7.483
20.40000 5.511
20.42000 -0.652
20.44000 -1.613
20.46000 3.578
20.48000 10.606
20.50000 6.579
20.52000 0.493
20.54000 0.070
20.56000 0.541
20.58000 -2.119
20.60000 -4.226
20.62000 1.027
20.64000 8.111
20.66000 4.220
20.68000 -2.089
20.70000 -2.921
20.72000 3.249
20.74000 3.976
20.76000 10.702
20.78000 16.834
20.80000 12.793
20.82000 5.710
20.84000 6.357
20.86000 4.449
20.88000 8.165
20.90000 5.706
20.92000 0.287
20.94000 -0.012
20.96000 7.463
20.98000 9.525
21.00000 5.899
21.02000 10.236
21.04000 5.257
21.06000 6.133
21.08000 4.815
21.10000 3.648
21.12000 -2.593
21.14000 -2.961
21.16000 -3.519
21.18000 -4.197
21.20000 -0.084
21.22000 2.928
21.24000 2.397
21.26000 1.022
21.28000 8.313
21.30000 7.403
21.32000 7.918
21.34000 7.187
21.36000 4.781
21.38000 -1.240
21.40000 1.947
21.42000 7.066
21.44000 4.942
21.46000 -0.453
21.48000 -0.736
21.50000 -2.276
21.52000 -3.206
21.54000 0.806
21.56000 5.283
21.58000 5.351
21.60000 0.912
21.62000 -0.434
21.64000 0.083
21.66000 5.588
21.68000 4.269
21.70000 0.835
21.72000 -1.504
21.74000 -2.788
21.76000 3.499
21.78000 -2.588
21.80000 -2.338
21.82000 -1.900
21.84000 -3.367
21.86000 -4.161
21.88000 1.208
21.90000 -0.488
21.92000 2.211
21.94000 5.292
21.96000 8.832
21.98000 7.497
22.00000 4.551
22.02000 2.114
22.04000 1.029
22.06000 3.684
22.08000 4.719
22.10000 3.679
22.12000 4.353
22.14000 6.065
22.16000 2.447
22.18000 2.154
22.20000 2.302
22.22000 5.523
22.24000 -1.369
22.26000 -0.692
22.28000 -4.132
22.30000 -3.638
22.32000 -0.784
22.34000 5.544
22.36000 5.436
22.38000 10.715
22.40000 6.755
22.42000 5.529
22.44000 4.692
22.46000 3.707
22.48000 7.207
22.50000 3.292
22.52000 -0.550
22.54000 2.313
22.56000 -0.461
22.58000 1.625
22.60000 -1.528
22.62000 1.680
22.64000 1.556
22.66000 7.290
22.68000 4.514
22.70000 4.422
22.72000 4.165
22.74000 8.869
22.76000 -1.878
22.78000 -4.110
22.80000 0.057
22.82000 -2.580
22.84000 -2.992
22.86000 -2.254
22.88000 0.297
22.90000 2.866
22.92000 6.926
22.94000 4.837
22.96000 -2.038
22.98000 1.971
23.00000 1.876
23.02000 0.419
23.04000 1.380
23.06000 4.360
23.08000 6.048
23.10000 5.101
23.12000 -2.303
23.14000 2.829
23.16000 1.145
23.18000 5.837
23.20000 6.002
23.22000 4.083
23.24000 2.868
23.26000 9.458
23.28000 5.201
23.30000 2.700
23.32000 -0.365
23.34000 0.816
23.36000 -2.435
23.38000 -0.204
23.40000 8.223
23.42000 3.992
23.44000 2.466
23.46000 8.650
23.48000 2.734
23.50000 1.168
23.52000 -0.768
23.54000 4.955
23.56000 7.567
23.58000 3.141
23.60000 -0.515
23.62000 1.177
23.64000 3.185
23.66000 0.467
23.68000 -2.672
23.70000 3.892
23.72000 4.179
23.74000 6.598
23.76000 6.080
23.78000 0.172
23.80000 -0.644
23.82000 6.385
23.84000 3.224
23.86000 7.965
23.88000 7.890
23.90000 10.034
23.92000 4.404
23.94000 3.011
23.96000 1.307
23.98000 7.405
24.00000 4.844
24.02000 6.067
24.04000 14.639
24.06000 6.402
24.08000 -1.658
24.10000 -4.013
24.12000 -1.807
24.14000 2.471
24.16000 4.356
24.18000 0.578
24.20000 3.104
24.22000 5.667
24.24000 0.893
24.26000 1.131
24.28000 1.400
24.30000 3.644
24.32000 2.737
24.34000 0.178
24.36000 0.429
24.38000 8.986
24.40000 5.959
24.42000 5.561
24.44000 -1.242
24.46000 0.943
24.48000 6.604
24.50000 7.289
24.52000 5.208
24.54000 1.956
24.56000 0.912
24.58000 1.294
24.60000 4.641
24.62000 5.865
24.64000 10.244
24.66000 2.301
24.68000 6.469
24.70000 6.429
24.72000 3.148
24.74000 4.436
24.76000 4.969
24.78000 7.846
24.80000 8.447
24.82000 7.581
24.84000 7.782
24.86000 -0.789
24.88000 3.673
24.90000 -0.832
24.92000 -3.950
24.94000 -2.908
24.96000 5.353
24.98000 12.962
25.00000 5.351
25.02000 2.289
25.04000 1.595
25.06000 -1.303
25.08000 -1.577
25.10000 2.165
25.12000 -2.228
25.14000 0.225
25.16000 2.157
25.18000 3.836
25.20000 -2.512
25.22000 -0.927
25.24000 5.922
25.26000 3.320
25.28000 1.814
25.30000 4.423
25.32000 2.547
25.34000 0.129
25.36000 0.965
25.38000 -1.423
25.40000 6.487
25.42000 4.985
25.44000 3.053
25.46000 2.598
25.48000 6.368
25.50000 5.259
25.52000 9.551
25.54000 7.999
25.56000 2.638
25.58000 4.758
25.60000 6.082
25.62000 3.254
25.64000 2.042
25.66000 2.754
25.68000 2.507
25.70000 -0.597
25.72000 -3.921
25.74000 -3.750
25.76000 -3.425
25.78000 -1.180
25.80000 1.274
25.82000 2.432
25.84000 0.383
25.86000 1.981
25.88000 2.582
25.90000 3.982
25.92000 0.479
25.94000 -3.376
25.96000 0.493
25.98000 8.337
26.00000 8.815
26.02000 2.620
26.04000 -0.139
26.06000 3.180
26.08000 1.480
26.10000 0.962
26.12000 -3.293
26.14000 2.827
26.16000 6.120
26.18000 12.645
26.20000 7.207
26.22000 1.333
26.24000 3.176
26.26000 6.353
26.28000 4.450
26.30000 10.632
26.32000 7.148
26.34000 -2.121
26.36000 -3.898
26.38000 0.947
26.40000 7.167
26.42000 8.753
26.44000 5.349
26.46000 1.476
26.48000 0.569
26.50000 2.345
26.52000 4.464
26.54000 5.012
26.56000 6.136
26.58000 5.523
26.60000 -0.021
26.62000 2.011
26.64000 -0.038
26.66000 -3.809
26.68000 -1.196
26.70000 6.482
26.72000 3.651
26.74000 -0.075
26.76000 0.295
26.78000 -0.090
26.80000 -0.890
26.82000 0.920
26.84000 5.016
26.86000 4.723
26.88000 1.518
26.90000 4.360
26.92000 -1.657
26.94000 -1.823
26.96000 0.430
26.98000 6.642
27.00000 8.725
27.02000 0.050
27.04000 -1.185
27.06000 5.718
27.08000 5.603
27.10000 3.492
27.12000 6.594
27.14000 1.849
27.16000 4.666
27.18000 3.747
27.20000 -0.544
27.22000 -0.313
27.24000 7.112
27.26000 10.207
27.28000 2.691
27.30000 3.188
27.32000 2.177
27.34000 4.680
27.36000 3.745
27.38000 7.652
27.40000 12.658
27.42000 7.636
27.44000 3.486
27.46000 4.413
27.48000 -1.281
27.50000 2.476
27.52000 -1.409
27.54000 -3.834
27.56000 3.251
27.58000 7.696
27.60000 4.728
27.62000 1.960
27.64000 0.704
27.66000 5.165
27.68000 13.713
27.70000 11.287
27.72000 3.937
27.74000 4.251
27.76000 6.357
27.78000 3.361
27.80000 0.563
27.82000 4.177
27.84000 7.019
27.86000 3.669
27.88000 -1.873
27.90000 1.061
27.92000 6.573
27.94000 4.952
27.96000 1.806
27.98000 1.386
28.00000 5.538
28.02000 9.949
28.04000 7.160
28.06000 2.142
28.08000 3.675
28.10000 3.904
28.12000 2.831
28.14000 3.340
28.16000 7.904
28.18000 9.530
28.20000 4.658
28.22000 -0.835
28.24000 -3.768
28.26000 -2.557
28.28000 3.155
28.30000 2.410
28.32000 6.071
28.34000 8.637
28.36000 8.147
28.38000 5.771
28.40000 9.341
28.42000 -0.158
28.44000 1.799
28.46000 -0.190
28.48000 -1.738
28.50000 2.810
28.52000 7.319
28.54000 4.706
28.56000 6.396
28.58000 3.774
28.60000 3.371
28.62000 7.268
28.64000 3.979
28.66000 -0.386
28.68000 8.067
28.70000 3.352
28.72000 2.359
28.74000 0.441
28.76000 0.849
28.78000 4.093
28.80000 2.143
28.82000 2.927
28.84000 1.148
28.86000 0.976
28.88000 -1.383
28.90000 -1.100
28.92000 4.282
28.94000 6.793
28.96000 5.274
28.98000 5.034
29.00000 6.225
29.02000 7.317
29.04000 4.602
29.06000 4.450
29.08000 0.331
29.10000 4.627
29.12000 2.183
29.14000 3.260
29.16000 0.331
29.18000 -0.843
29.20000 6.775
29.22000 3.815
29.24000 5.028
29.26000 1.546
29.28000 0.140
29.30000 3.205
29.32000 3.469
29.34000 3.733
29.36000 4.208
29.38000 3.456
29.40000 2.745
29.42000 -1.663
29.44000 1.590
29.46000 3.622
29.48000 5.727
29.50000 1.920
29.52000 1.935
29.54000 -1.415
29.56000 1.377
29.58000 6.550
29.60000 0.762
29.62000 2.497
29.64000 0.448
29.66000 -2.861
29.68000 -1.244
29.70000 1.828
29.72000 5.671
29.74000 3.734
29.76000 4.787
29.78000 6.739
29.80000 -3.483
29.82000 -1.876
29.84000 1.393
29.86000 4.679
29.88000 5.975
29.90000 2.883
29.92000 0.456
29.94000 6.297
29.96000 7.432
29.98000 6.081
30.00000 5.034
30.02000 2.350
30.04000 1.380
30.06000 8.042
30.08000 8.696
30.10000 5.329
30.12000 2.875
30.14000 2.527
30.16000 1.583
30.18000 -0.993
30.20000 -3.692
30.22000 0.706
30.24000 1.085
30.26000 3.067
30.28000 -1.924
30.30000 -3.687
30.32000 -0.439
30.34000 4.628
30.36000 7.094
30.38000 3.476
30.40000 2.970
30.42000 5.372
30.44000 5.565
30.46000 7.680
30.48000 2.897
30.50000 0.575
30.52000 6.510
30.54000 9.893
30.56000 6.681
30.58000 4.070
30.60000 -0.250
30.62000 -3.681
30.64000 0.094
30.66000 9.038
30.68000 2.630
30.70000 -1.287
30.72000 8.171
30.74000 -0.671
30.76000 -1.581
30.78000 4.033
30.80000 5.013
30.82000 3.405
30.84000 0.733
30.86000 -3.680
30.88000 0.003
30.90000 1.855
30.92000 2.244
30.94000 -2.862
30.96000 -1.736
30.98000 2.398
31.00000 1.056
31.02000 -1.131
31.04000 -1.602
31.06000 0.555
31.08000 4.651
31.10000 2.752
31.12000 0.485
31.14000 -2.753
31.16000 -1.268
31.18000 -1.497
31.20000 2.988
31.22000 3.919
31.24000 1.538
31.26000 -2.481
31.28000 0.673
31.30000 -3.632
31.32000 -1.835
31.34000 -2.055
31.36000 -1.632
31.38000 3.479
31.40000 2.915
31.42000 3.335
31.44000 3.463
31.46000 0.236
31.48000 2.987
31.50000 5.001
31.52000 3.149
31.54000 5.378
31.56000 5.917
31.58000 1.787
31.60000 -1.302
31.62000 -1.133
31.64000 2.030
31.66000 6.029
31.68000 2.850
31.70000 2.078
31.72000 2.159
31.74000 3.398
31.76000 0.741
31.78000 -1.649
31.80000 -3.008
31.82000 -2.296
31.84000 -3.085
31.86000 -1.535
31.88000 -3.595
31.90000 2.104
31.92000 5.511
31.94000 6.818
31.96000 5.120
31.98000 2.943
32.00000 -0.921
32.02000 0.848
32.04000 0.450
32.06000 -3.635
32.08000 -1.324
32.10000 -1.987
32.12000 -0.554
32.14000 -3.524
32.16000 -2.952
32.18000 -0.366
32.20000 3.630
32.22000 4.732
32.24000 3.961
32.26000 0.411
32.28000 0.961
32.30000 3.061
32.32000 4.161
32.34000 1.993
32.36000 1.306
32.38000 4.471
32.40000 -0.747
32.42000 -0.596
32.44000 -1.232
32.46000 0.292
32.48000 -1.817
32.50000 -1.071
32.52000 -3.620
32.54000 -2.019
32.56000 -0.569
32.58000 0.110
32.60000 1.848
32.62000 4.850
32.64000 1.261
32.66000 2.445
32.68000 3.470
32.70000 1.706
32.72000 0.714
32.74000 2.426
32.76000 3.215
32.78000 4.084
32.80000 2.583
32.82000 3.846
32.84000 9.779
32.86000 6.947
32.88000 1.615
32.90000 -1.512
32.92000 5.122
32.94000 2.047
32.96000 2.967
32.98000 -0.061
33.00000 2.592
33.02000 2.712
33.04000 5.112
33.06000 2.383
33.08000 -3.116
33.10000 -1.345
33.12000 -2.425
33.14000 -0.793
33.16000 1.644
33.18000 6.474
33.20000 8.393
33.22000 2.364
33.24000 -0.978
33.26000 -3.592
33.28000 -3.115
33.30000 2.095
33.32000 5.692
33.34000 2.309
33.36000 -0.424
33.38000 5.692
33.40000 4.569
33.42000 8.730
33.44000 8.202
33.46000 -0.776
33.48000 0.109
33.50000 4.272
33.52000 4.169
33.54000 4.166
33.56000 0.662
33.58000 -1.032
33.60000 -2.190
33.62000 1.853
33.64000 2.663
33.66000 2.598
33.68000 2.747
33.70000 5.649
33.72000 3.970
33.74000 -3.579
33.76000 4.223
33.78000 2.017
33.80000 2.102
33.82000 -1.338
33.84000 7.890
33.86000 6.720
33.88000 1.565
33.90000 2.774
33.92000 3.688
33.94000 1.439
33.96000 2.709
33.98000 2.180
34.00000 0.724
34.02000 2.111
34.04000 6.237
34.06000 6.428
34.08000 3.208
34.10000 4.739
34.12000 2.541
34.14000 0.546
34.16000 1.355
34.18000 2.244
34.20000 1.025
34.22000 -0.488
34.24000 2.779
34.26000 4.353
34.28000 4.977
34.30000 2.325
34.32000 2.641
34.34000 2.585
34.36000 2.554
34.38000 0.347
34.40000 4.030
34.42000 0.971
34.44000 2.477
34.46000 0.797
34.48000 -0.037
34.50000 2.767
34.52000 0.810
34.54000 1.365
34.56000 4.551
34.58000 0.479
34.60000 0.952
34.62000 1.075
34.64000 0.250
34.66000 4.873
34.68000 3.210
34.70000 0.242
34.72000 3.366
34.74000 7.387
34.76000 6.320
34.78000 7.028
34.80000 1.525
34.82000 1.615
34.84000 6.097
34.86000 2.844
34.88000 4.104
34.90000 2.467
34.92000 -0.879
34.94000 2.519
34.96000 9.771
34.98000 7.508
35.00000 1.105
35.02000 2.501
35.04000 6.276
35.06000 5.584
35.08000 -0.847
35.10000 0.233
35.12000 6.010
35.14000 5.660
35.16000 4.080
35.18000 4.995
35.20000 4.199
35.22000 3.085
35.24000 1.690
35.26000 6.297
35.28000 6.463
35.30000 5.633
35.32000 2.314
35.34000 -3.531
35.36000 -1.432
35.38000 0.545
35.40000 0.411
35.42000 5.355
35.44000 0.639
35.46000 -1.130
35.48000 2.073
35.50000 0.610
35.52000 4.153
35.54000 3.761
35.56000 6.813
35.58000 6.825
35.60000 4.900
35.62000 4.330
35.64000 6.092
35.66000 6.676
35.68000 1.879
35.70000 2.171
35.72000 3.433
35.74000 2.694
35.76000 1.239
35.78000 -0.187
35.80000 5.348
35.82000 2.251
35.84000 1.484
35.86000 6.249
35.88000 3.067
35.90000 -3.542
35.92000 2.357
35.94000 2.238
35.96000 4.613
35.98000 3.847
36.00000 1.748
36.02000 4.389
36.04000 5.914
36.06000 5.596
36.08000 0.039
36.10000 -3.255
36.12000 -3.006
36.14000 4.023
36.16000 7.672
36.18000 9.439
36.20000 6.596
36.22000 1.513
36.24000 -1.063
36.26000 0.164
36.28000 -0.259
36.30000 0.642
36.32000 6.213
36.34000 5.703
36.36000 4.123
36.38000 5.079
36.40000 1.552
36.42000 -0.128
36.44000 0.434
36.46000 5.940
36.48000 3.389
36.50000 -0.713
36.52000 4.157
36.54000 5.795
36.56000 2.442
36.58000 0.860
36.60000 0.013
36.62000 1.214
36.64000 7.941
36.66000 4.661
36.68000 -0.765
36.70000 -1.191
36.72000 -3.586
36.74000 -3.389
36.76000 2.646
36.78000 7.245
36.80000 7.166
36.82000 6.300
36.84000 2.133
36.86000 2.730
36.88000 1.695
36.90000 -1.422
36.92000 1.170
36.94000 6.347
36.96000 4.384
36.98000 2.160
37.00000 3.293
37.02000 2.765
37.04000 1.643
37.06000 -2.002
37.08000 -1.266
37.10000 -1.091
37.12000 0.838
37.14000 -0.355
37.16000 -0.457
37.18000 -3.389
37.20000 -2.652
37.22000 -1.840
37.24000 -1.226
37.26000 1.204
37.28000 3.551
37.30000 0.554
37.32000 -0.045
37.34000 -3.655
37.36000 -3.477
37.38000 -1.808
37.40000 1.909
37.42000 1.737
37.44000 -0.302
37.46000 0.846
37.48000 -0.615
37.50000 3.831
37.52000 6.372
37.54000 6.449
37.56000 1.896
37.58000 4.201
37.60000 3.560
37.62000 3.317
37.64000 6.305
37.66000 3.549
37.68000 6.263
37.70000 2.323
37.72000 5.034
37.74000 5.885
37.76000 3.185
37.78000 6.801
37.80000 8.918
37.82000 5.491
37.84000 4.735
37.86000 8.177
37.88000 7.904
37.90000 9.446
37.92000 7.626
37.94000 7.989
37.96000 8.454
37.98000 7.841
38.00000 5.242
38.02000 7.998
38.04000 9.981
38.06000 15.503
38.08000 17.577
38.10000 13.581
38.12000 15.129
38.14000 16.847
38.16000 16.155
38.18000 10.719
38.20000 12.963
38.22000 15.599
38.24000 16.196
38.26000 18.536
38.28000 15.644
38.30000 17.742
38.32000 16.526
38.34000 17.877
38.36000 18.704
38.38000 19.608
38.40000 17.468
38.42000 21.709
38.44000 25.378
38.46000 28.201
38.48000 24.279
38.50000 21.564
38.52000 24.602
38.54000 32.243
38.56000 32.409
38.58000 32.337
38.60000 32.642
38.62000 36.964
38.64000 34.500
38.66000 34.235
38.68000 32.700
38.70000 35.692
38.72000 41.311
38.74000 40.779
38.76000 46.277
38.78000 48.149
38.80000 52.541
38.82000 51.518
38.84000 48.871
38.86000 50.205
38.88000 56.552
38.90000 56.749
38.92000 54.703
38.94000 59.962
38.96000 64.420
38.98000 71.937
39.00000 77.660
39.02000 73.406
39.04000 79.876
39.06000 88.956
39.08000 90.877
39.10000 86.712
39.12000 95.443
39.14000 103.237
39.16000 102.989
39.18000 107.780
39.20000 105.702
39.22000 103.048
39.24000 113.331
39.26000 120.263
39.28000 130.244
39.30000 136.790
39.32000 140.582
39.34000 148.547
39.36000 162.566
39.38000 166.937
39.40000 174.248
39.42000 185.744
39.44000 191.258
39.46000 206.589
39.48000 210.604
39.50000 220.767
39.52000 235.506
39.54000 253.141
39.56000 260.703
39.58000 272.807
39.60000 283.874
39.62000 296.668
39.64000 308.495
39.66000 337.484
39.68000 353.349
39.70000 371.985
39.72000 390.910
39.74000 401.250
39.76000 415.734
39.78000 437.182
39.80000 459.971
39.82000 469.250
39.84000 481.277
39.86000 505.921
39.88000 527.327
39.90000 548.001
39.92000 558.851
39.94000 564.710
39.96000 586.554
39.98000 599.998
40.00000 598.931
40.02000 616.088
40.04000 625.920
40.06000 629.613
40.08000 637.044
40.10000 642.469
40.12000 645.422
40.14000 651.201
40.16000 637.684
40.18000 621.801
40.20000 617.422
40.22000 617.186
40.24000 604.236
40.26000 595.044
40.28000 588.729
40.30000 571.314
40.32000 552.588
40.34000 532.666
40.36000 519.465
40.38000 502.847
40.40000 476.070
40.42000 457.323
40.44000 447.541
40.46000 439.927
40.48000 414.223
40.50000 394.657
40.52000 378.930
40.54000 359.755
40.56000 340.111
40.58000 328.115
40.60000 310.897
40.62000 302.875
40.64000 291.194
40.66000 276.083
40.68000 253.580
40.70000 233.252
40.72000 216.405
40.74000 207.938
40.76000 198.635
40.78000 181.535
40.80000 176.535
40.82000 173.469
40.84000 163.577
40.86000 157.773
40.88000 152.120
40.90000 143.450
40.92000 136.552
40.94000 129.157
40.96000 121.766
40.98000 111.548
41.00000 106.479
41.02000 98.803
41.04000 89.457
41.06000 85.541
41.08000 80.742
41.10000 79.640
41.12000 74.484
41.14000 67.975
41.16000 67.439
41.18000 62.988
41.20000 60.795
41.22000 55.220
41.24000 49.055
41.26000 49.845
41.28000 48.491
41.30000 50.894
41.32000 44.233
41.34000 38.132
41.36000 31.781
41.38000 32.437
41.40000 36.351
41.42000 31.972
41.44000 26.938
41.46000 25.522
41.48000 30.472
41.50000 32.374
41.52000 24.665
41.54000 17.880
41.56000 19.643
41.58000 22.822
41.60000 22.761
41.62000 23.367
41.64000 18.653
41.66000 19.288
41.68000 18.208
41.70000 17.064
41.72000 10.601
41.74000 13.781
41.76000 14.497
41.78000 8.978
41.80000 9.785
41.82000 13.746
41.84000 7.835
41.86000 7.316
41.88000 7.378
41.90000 8.848
41.92000 4.013
41.94000 3.228
41.96000 6.078
41.98000 7.086
42.00000 4.594
42.02000 10.431
42.04000 6.752
42.06000 1.561
42.08000 1.369
42.10000 1.334
42.12000 4.352
42.14000 5.347
42.16000 2.438
42.18000 3.712
42.20000 1.653
42.22000 2.263
42.24000 0.776
42.26000 1.578
42.28000 -0.804
42.30000 1.258
42.32000 8.031
42.34000 5.121
42.36000 0.801
42.38000 1.158
42.40000 1.971
42.42000 3.006
42.44000 1.895
42.46000 -1.993
42.48000 -2.775
42.50000 4.604
42.52000 0.385
42.54000 -1.851
42.56000 1.172
42.58000 -2.146
42.60000 -1.875
42.62000 -1.681
42.64000 2.610
42.66000 1.450
42.68000 -1.563
42.70000 -0.352
42.72000 2.619
42.74000 3.552
42.76000 1.933
42.78000 4.876
42.80000 3.497
42.82000 3.927
42.84000 2.136
42.86000 8.151
42.88000 4.651
42.90000 1.061
42.92000 2.584
42.94000 3.634
42.96000 2.386
42.98000 -2.182
43.00000 1.007
43.02000 -2.451
43.04000 -0.413
43.06000 1.051
43.08000 3.757
43.10000 0.739
43.12000 -3.421
43.14000 -0.113
43.16000 2.706
43.18000 4.154
43.20000 2.724
43.22000 -3.009
43.24000 -3.316
43.26000 1.802
43.28000 0.641
43.30000 1.295
43.32000 4.259
43.34000 -0.340
43.36000 -1.100
43.38000 -0.566
43.40000 0.306
43.42000 4.113
43.44000 5.117
43.46000 2.378
43.48000 -1.422
43.50000 0.320
43.52000 0.234
43.54000 0.799
43.56000 0.514
43.58000 -0.952
43.60000 -3.165
43.62000 -3.380
43.64000 -0.785
43.66000 4.058
43.68000 0.651
43.70000 1.179
43.72000 2.815
43.74000 -2.121
43.76000 -1.262
43.78000 1.458
43.80000 -0.007
43.82000 -3.317
43.84000 -3.372
43.86000 1.519
43.88000 0.230
43.90000 0.725
43.92000 2.034
43.94000 2.207
43.96000 -1.037
43.98000 2.391
44.00000 -0.345
44.02000 -0.635
44.04000 -0.070
44.06000 1.097
44.08000 3.202
44.10000 2.045
44.12000 2.481
44.14000 0.391
44.16000 -1.361
44.18000 -0.069
44.20000 3.500
44.22000 2.114
44.24000 -0.116
44.26000 0.169
44.28000 -0.443
44.30000 -2.025
44.32000 2.362
44.34000 -1.257
44.36000 -3.363
44.38000 0.434
44.40000 0.183
44.42000 4.168
44.44000 5.562
44.46000 0.870
44.48000 -1.823
44.50000 -0.248
44.52000 1.758
44.54000 0.311
44.56000 1.164
44.58000 2.473
44.60000 3.815
44.62000 5.633
44.64000 3.590
44.66000 7.714
44.68000 7.705
44.70000 3.425
44.72000 4.310
44.74000 5.495
44.76000 3.666
44.78000 6.365
44.80000 6.451
44.82000 4.556
44.84000 6.280
44.86000 1.926
44.88000 1.457
44.90000 5.722
44.92000 6.489
44.94000 5.966
44.96000 6.129
44.98000 4.301
45.00000 6.290
45.02000 7.997
45.04000 8.871
45.06000 10.531
45.08000 14.195
45.10000 11.073
45.12000 10.413
45.14000 10.463
45.16000 8.493
45.18000 10.635
45.20000 11.654
45.22000 12.992
45.24000 15.448
45.26000 12.696
45.28000 16.767
45.30000 15.964
45.32000 10.886
45.34000 10.138
45.36000 14.797
45.38000 18.427
45.40000 17.791
45.42000 15.517
45.44000 13.813
45.46000 15.002
45.48000 20.123
45.50000 19.558
45.52000 22.977
45.54000 22.686
45.56000 21.849
45.58000 24.942
45.60000 28.490
45.62000 24.364
45.64000 25.941
45.66000 31.953
45.68000 31.805
45.70000 27.320
45.72000 26.740
45.74000 31.003
45.76000 36.374
45.78000 39.431
45.80000 39.637
45.82000 36.030
45.84000 29.002
45.86000 31.981
45.88000 33.946
45.90000 37.435
45.92000 39.608
45.94000 41.709
45.96000 47.464
45.98000 48.963
46.00000 50.028
46.02000 51.440
46.04000 50.206
46.06000 53.343
46.08000 55.409
46.10000 58.793
46.12000 60.616
46.14000 59.370
46.16000 69.661
46.18000 77.100
46.20000 69.786
46.22000 69.883
46.24000 68.704
46.26000 71.516
46.28000 75.984
46.30000 76.227
46.32000 76.981
46.34000 78.870
46.36000 86.096
46.38000 90.964
46.40000 94.633
46.42000 94.067
46.44000 91.811
46.46000 86.872
46.48000 93.866
46.50000 91.811
46.52000 98.122
46.54000 104.392
46.56000 103.922
46.58000 102.577
46.60000 100.315
46.62000 104.489
46.64000 106.784
46.66000 108.292
46.68000 114.949
46.70000 109.211
46.72000 112.371
46.74000 113.485
46.76000 115.950
46.78000 111.683
46.80000 108.045
46.82000 113.207
46.84000 116.731
46.86000 116.165
46.88000 128.497
46.90000 120.168
46.92000 111.476
46.94000 110.478
46.96000 103.761
46.98000 109.550
47.00000 106.469
47.02000 100.584
47.04000 104.568
47.06000 99.814
47.08000 90.271
47.10000 91.478
47.12000 93.819
47.14000 92.336
47.16000 87.515
47.18000 82.487
47.20000 74.737
47.22000 78.744
47.24000 76.385
47.26000 76.013
47.28000 72.658
47.30000 71.574
47.32000 68.121
47.34000 67.567
47.36000 60.236
47.38000 59.226
47.40000 50.627
47.42000 53.596
47.44000 59.003
47.46000 51.044
47.48000 46.519
47.50000 41.438
47.52000 47.405
47.54000 43.739
47.56000 44.207
47.58000 41.508
47.60000 39.722
47.62000 40.784
47.64000 38.669
47.66000 35.351
47.68000 33.846
47.70000 32.647
47.72000 32.601
47.74000 26.821
47.76000 19.232
47.78000 22.660
47.80000 26.566
47.82000 26.126
47.84000 21.782
47.86000 20.089
47.88000 24.457
47.90000 22.020
47.92000 20.626
47.94000 15.786
47.96000 13.600
47.98000 17.467
48.00000 16.079
48.02000 11.392
48.04000 14.343
48.06000 11.774
48.08000 7.287
48.10000 7.651
48.12000 9.152
48.14000 10.382
48.16000 8.430
48.18000 5.960
48.20000 7.934
48.22000 6.981
48.24000 5.908
48.26000 2.853
48.28000 2.804
48.30000 9.104
48.32000 8.717
48.34000 3.727
48.36000 4.741
48.38000 5.572
48.40000 4.560
48.42000 1.478
48.44000 4.535
48.46000 1.978
48.48000 3.203
48.50000 5.115
48.52000 1.312
48.54000 4.064
48.56000 2.164
48.58000 0.124
48.60000 4.082
48.62000 4.734
48.64000 -1.500
48.66000 -1.003
48.68000 4.571
48.70000 6.855
48.72000 5.434
48.74000 9.457
48.76000 4.007
48.78000 0.969
48.80000 -2.936
48.82000 -0.851
48.84000 2.647
48.86000 8.321
48.88000 3.225
48.90000 4.484
48.92000 -2.302
48.94000 -0.679
48.96000 8.746
48.98000 7.473
49.00000 3.379
49.02000 -2.326
49.04000 0.316
49.06000 3.121
49.08000 5.192
49.10000 2.228
49.12000 5.676
49.14000 3.881
49.16000 -0.267
49.18000 1.706
49.20000 -2.868
49.22000 0.924
49.24000 0.935
49.26000 -2.409
49.28000 -2.338
49.30000 1.102
49.32000 4.736
49.34000 5.183
49.36000 3.790
49.38000 3.491
49.40000 4.743
49.42000 -0.516
49.44000 -0.849
49.46000 2.142
49.48000 1.876
49.50000 6.880
49.52000 3.421
49.54000 0.331
49.56000 -0.561
49.58000 3.010
49.60000 1.593
49.62000 -2.835
49.64000 -0.465
49.66000 0.619
49.68000 3.938
49.70000 9.529
49.72000 7.781
49.74000 3.084
49.76000 0.151
49.78000 2.098
49.80000 0.464
49.82000 -1.460
49.84000 -1.131
49.86000 -1.838
49.88000 2.664
49.90000 4.469
49.92000 3.552
49.94000 -0.957
49.96000 -2.810
49.98000 -2.719
50.00000 3.112
50.02000 4.053
50.04000 6.623
50.06000 5.692
50.08000 1.850
50.10000 0.448
50.12000 1.478
50.14000 -0.059
50.16000 4.351
50.18000 1.724
50.20000 2.411
50.22000 2.706
50.24000 -1.765
50.26000 0.344
50.28000 4.986
50.30000 2.937
50.32000 4.391
50.34000 -0.875
50.36000 0.144
50.38000 -2.277
50.40000 1.673
50.42000 4.538
50.44000 -1.767
50.46000 -2.095
50.48000 2.803
50.50000 4.537
50.52000 -1.309
50.54000 1.310
50.56000 2.471
50.58000 1.586
50.60000 1.205
50.62000 0.857
50.64000 6.031
50.66000 2.618
50.68000 -0.241
50.70000 2.737
50.72000 1.934
50.74000 1.582
50.76000 -1.938
50.78000 2.507
50.80000 -2.261
50.82000 -2.500
50.84000 -1.414
50.86000 0.961
50.88000 5.328
50.90000 6.886
50.92000 5.513
50.94000 5.095
50.96000 1.555
50.98000 -2.744
51.00000 0.815
51.02000 3.418
51.04000 5.007
51.06000 5.663
51.08000 3.800
51.10000 0.413
51.12000 0.270
51.14000 0.957
51.16000 2.021
51.18000 1.631
51.20000 3.122
51.22000 5.669
51.24000 6.081
51.26000 4.214
51.28000 7.540
51.30000 4.231
51.32000 3.922
51.34000 -0.358
51.36000 0.457
51.38000 5.971
51.40000 4.071
51.42000 2.652
51.44000 0.537
51.46000 -0.291
51.48000 3.124
51.50000 8.469
51.52000 2.779
51.54000 -2.700
51.56000 -1.324
51.58000 -1.175
51.60000 4.609
51.62000 6.813
51.64000 2.326
51.66000 2.863
51.68000 0.233
51.70000 0.637
51.72000 2.245
51.74000 0.476
51.76000 3.281
51.78000 5.566
51.80000 3.799
51.82000 0.812
51.84000 1.524
51.86000 6.720
51.88000 3.809
51.90000 2.858
51.92000 2.717
51.94000 4.372
51.96000 4.214
51.98000 -0.284
52.00000 -0.584
52.02000 -0.726
52.04000 1.130
52.06000 5.851
52.08000 8.300
52.10000 7.108
52.12000 5.084
52.14000 4.006
52.16000 -1.293
52.18000 4.964
52.20000 5.765
52.22000 5.049
52.24000 7.978
52.26000 2.898
52.28000 -2.692
52.30000 -1.767
52.32000 1.578
52.34000 -0.617
52.36000 -0.124
52.38000 3.279
52.40000 1.292
52.42000 3.191
52.44000 5.727
52.46000 1.659
52.48000 5.487
52.50000 4.883
52.52000 4.501
52.54000 -0.882
52.56000 0.890
52.58000 4.239
52.60000 4.083
52.62000 2.910
52.64000 2.481
52.66000 -1.198
52.68000 -1.265
52.70000 1.252
52.72000 2.948
52.74000 3.038
52.76000 2.826
52.78000 4.650
52.80000 3.702
52.82000 -2.672
52.84000 -1.090
52.86000 2.698
52.88000 3.469
52.90000 6.158
52.92000 1.142
52.94000 0.684
52.96000 5.258
52.98000 3.875
53.00000 3.287
53.02000 4.354
53.04000 2.832
53.06000 5.898
53.08000 4.631
53.10000 5.335
53.12000 2.867
53.14000 1.787
53.16000 2.529
53.18000 2.790
53.20000 5.158
53.22000 4.320
53.24000 2.839
53.26000 6.558
53.28000 6.693
53.30000 1.518
53.32000 3.669
53.34000 2.534
53.36000 3.351
53.38000 2.241
53.40000 1.487
53.42000 -0.279
53.44000 0.365
53.46000 0.290
53.48000 2.743
53.50000 0.287
53.52000 -0.530
53.54000 4.187
53.56000 1.822
53.58000 3.839
53.60000 1.433
53.62000 4.849
53.64000 5.078
53.66000 0.804
53.68000 0.262
53.70000 -0.023
53.72000 0.783
53.74000 -0.354
53.76000 1.582
53.78000 -1.825
53.80000 -2.652
53.82000 -1.009
53.84000 2.371
53.86000 2.322
53.88000 2.789
53.90000 0.255
53.92000 2.133
53.94000 -0.201
53.96000 3.912
53.98000 8.995
54.00000 5.717
54.02000 2.862
54.04000 2.570
54.06000 -2.114
54.08000 -1.833
54.10000 2.837
54.12000 3.726
54.14000 2.779
54.16000 1.848
54.18000 0.225
54.20000 0.084
54.22000 -0.875
54.24000 -2.451
54.26000 -0.702
54.28000 0.995
54.30000 2.694
54.32000 0.760
54.34000 -2.647
54.36000 -0.380
54.38000 5.428
54.40000 3.513
54.42000 2.205
54.44000 5.440
54.46000 5.104
54.48000 2.375
54.50000 1.051
54.52000 0.244
54.54000 0.161
54.56000 0.750
54.58000 1.976
54.60000 1.455
54.62000 -0.391
54.64000 2.695
54.66000 3.850
54.68000 2.215
54.70000 1.952
54.72000 0.938
54.74000 2.038
54.76000 6.486
54.78000 3.130
54.80000 1.612
54.82000 -0.721
54.84000 -0.524
54.86000 1.207
54.88000 0.491
54.90000 -1.838
54.92000 -0.650
54.94000 1.414
54.96000 2.019
54.98000 1.565
55.00000 4.517
55.02000 4.728
55.04000 6.097
55.06000 5.281
55.08000 6.230
55.10000 4.936
55.12000 5.865
55.14000 4.385
55.16000 4.691
55.18000 2.631
55.20000 2.532
55.22000 -2.232
55.24000 -0.137
55.26000 3.848
55.28000 0.091
55.30000 1.636
55.32000 4.250
55.34000 3.440
55.36000 1.952
55.38000 4.859
55.40000 2.759
55.42000 4.702
55.44000 1.701
55.46000 1.142
55.48000 2.908
55.50000 0.150
55.52000 -0.258
55.54000 -1.339
55.56000 -0.758
55.58000 1.678
55.60000 3.684
55.62000 2.176
55.64000 -1.642
55.66000 0.664
55.68000 2.059
55.70000 -1.987
55.72000 -2.601
55.74000 0.843
55.76000 2.371
55.78000 -0.182
55.80000 0.981
55.82000 0.312
55.84000 -1.379
55.86000 4.089
55.88000 1.324
55.90000 -1.525
55.92000 1.492
55.94000 0.897
55.96000 -0.524
55.98000 0.083
56.00000 3.354
56.02000 4.693
56.04000 3.548
56.06000 2.553
56.08000 -0.514
56.10000 1.191
56.12000 2.573
56.14000 2.487
56.16000 -0.129
56.18000 6.535
56.20000 7.693
56.22000 4.842
56.24000 -0.844
56.26000 -2.555
56.28000 1.996
56.30000 5.576
56.32000 9.638
56.34000 4.340
56.36000 1.227
56.38000 -2.105
56.40000 4.708
56.42000 3.619
56.44000 7.113
56.46000 5.939
56.48000 2.299
56.50000 3.111
56.52000 4.186
56.54000 3.915
56.56000 2.389
56.58000 1.933
56.60000 3.141
56.62000 3.052
56.64000 4.996
56.66000 3.482
56.68000 1.181
56.70000 1.799
56.72000 2.111
56.74000 2.846
56.76000 2.773
56.78000 3.863
56.80000 1.363
56.82000 -1.211
56.84000 1.780
56.86000 2.431
56.88000 2.987
56.90000 3.001
56.92000 6.232
56.94000 3.366
56.96000 2.276
56.98000 4.258
57.00000 5.276
57.02000 3.966
57.04000 5.642
57.06000 1.853
57.08000 0.347
57.10000 3.836
57.12000 1.416
57.14000 1.002
57.16000 0.450
57.18000 1.829
57.20000 3.253
57.22000 4.780
57.24000 1.513
57.26000 2.514
57.28000 3.111
57.30000 2.026
57.32000 5.902
57.34000 6.633
57.36000 5.081
57.38000 4.627
57.40000 2.162
57.42000 3.771
57.44000 3.714
57.46000 -1.662
57.48000 1.455
57.50000 3.982
57.52000 2.784
57.54000 -1.027
57.56000 -2.516
57.58000 1.238
57.60000 0.972
57.62000 3.370
57.64000 5.520
57.66000 3.921
57.68000 4.949
57.70000 1.065
57.72000 2.900
57.74000 5.759
57.76000 4.623
57.78000 6.853
57.80000 4.115
57.82000 3.843
57.84000 4.186
57.86000 0.808
57.88000 5.924
57.90000 4.941
57.92000 2.523
57.94000 1.221
57.96000 1.380
57.98000 1.730
58.00000 -2.431
58.02000 1.215
58.04000 3.084
58.06000 4.038
58.08000 0.086
58.10000 -0.495
58.12000 -1.372
58.14000 -1.219
58.16000 5.555
58.18000 4.208
58.20000 0.189
58.22000 2.025
58.24000 1.534
58.26000 0.834
58.28000 -0.364
58.30000 2.693
58.32000 4.535
58.34000 0.829
58.36000 0.349
58.38000 1.071
58.40000 4.963
58.42000 2.785
58.44000 2.402
58.46000 0.811
58.48000 -1.358
58.50000 -1.869
58.52000 1.987
58.54000 2.450
58.56000 1.045
58.58000 0.032
58.60000 3.355
58.62000 -1.899
58.64000 1.668
58.66000 1.681
58.68000 4.294
58.70000 2.906
58.72000 -1.309
58.74000 -2.080
58.76000 1.898
58.78000 5.290
58.80000 2.224
58.82000 0.989
58.84000 0.160
58.86000 2.525
58.88000 2.215
58.90000 1.193
58.92000 2.276
58.94000 8.542
58.96000 4.111
58.98000 0.240
59.00000 5.925
59.02000 8.153
59.04000 3.063
59.06000 -1.373
59.08000 1.751
59.10000 2.541
59.12000 -0.851
59.14000 -2.486
59.16000 -1.250
59.18000 -0.988
59.20000 -2.162
59.22000 -2.149
59.24000 0.825
59.26000 0.817
59.28000 3.154
59.30000 4.234
59.32000 4.324
59.34000 2.982
59.36000 3.975
59.38000 4.647
59.40000 2.758
59.42000 -0.835
59.44000 1.085
59.46000 5.857
59.48000 4.303
59.50000 2.644
59.52000 5.034
59.54000 7.718
59.56000 4.258
59.58000 4.197
59.60000 7.815
59.62000 5.954
59.64000 4.997
59.66000 9.022
59.68000 7.103
59.70000 0.569
59.72000 0.031
59.74000 5.222
59.76000 6.495
59.78000 5.806
59.80000 6.006
59.82000 3.531
59.84000 0.273
59.86000 0.946
59.88000 9.966
59.90000 6.467
59.92000 2.967
59.94000 4.104
59.96000 4.499
59.98000 5.788
60.00000 5.530
60.02000 6.764
60.04000 5.315
60.06000 5.306
60.08000 5.595
60.10000 3.063
60.12000 2.374
60.14000 6.288
60.16000 5.805
60.18000 4.759
60.20000 -2.426
60.22000 1.603
60.24000 4.200
60.26000 1.013
60.28000 4.088
60.30000 5.957
60.32000 7.103
60.34000 4.330
60.36000 4.319
60.38000 1.012
60.40000 0.407
60.42000 3.919
60.44000 2.121
60.46000 3.232
60.48000 5.008
60.50000 5.800
60.52000 3.432
60.54000 0.935
60.56000 3.645
60.58000 7.152
60.60000 2.451
60.62000 3.298
60.64000 3.379
60.66000 2.226
60.68000 2.663
60.70000 1.119
60.72000 -0.232
60.74000 2.330
60.76000 2.645
60.78000 2.214
60.80000 -1.037
60.82000 1.442
60.84000 5.576
60.86000 7.751
60.88000 6.595
60.90000 6.890
60.92000 4.609
60.94000 5.146
60.96000 5.011
60.98000 4.682
61.00000 3.590
61.02000 5.830
61.04000 6.021
61.06000 2.571
61.08000 3.551
61.10000 8.282
61.12000 6.975
61.14000 1.133
61.16000 2.341
61.18000 3.713
61.20000 0.519
61.22000 4.598
61.24000 2.759
61.26000 0.843
61.28000 1.240
61.30000 0.946
61.32000 2.724
61.34000 2.913
61.36000 -1.394
61.38000 -2.397
61.40000 1.640
61.42000 3.484
61.44000 5.383
61.46000 5.898
61.48000 3.314
61.50000 1.328
61.52000 0.220
61.54000 2.724
61.56000 2.327
61.58000 3.081
61.60000 4.585
61.62000 6.785
61.64000 1.889
61.66000 3.230
61.68000 1.594
61.70000 -0.254
61.72000 0.698
61.74000 1.265
61.76000 3.436
61.78000 2.289
61.80000 5.808
61.82000 4.487
61.84000 4.962
61.86000 4.346
61.88000 4.165
61.90000 2.088
61.92000 2.789
61.94000 5.816
61.96000 3.217
61.98000 2.230
62.00000 0.933
62.02000 5.460
62.04000 3.375
62.06000 3.807
62.08000 3.791
62.10000 1.963
62.12000 2.512
62.14000 2.943
62.16000 2.978
62.18000 1.621
62.20000 -1.300
62.22000 -0.452
62.24000 -1.946
62.26000 3.118
62.28000 0.241
62.30000 -0.572
62.32000 3.001
62.34000 2.944
62.36000 2.918
62.38000 2.222
62.40000 2.608
62.42000 1.639
62.44000 1.519
62.46000 0.271
62.48000 -1.482
62.50000 -1.299
62.52000 -0.063
62.54000 1.847
62.56000 -2.301
62.58000 -0.783
62.60000 3.470
62.62000 3.238
62.64000 -0.365
62.66000 -0.337
62.68000 -0.285
62.70000 1.130
62.72000 0.662
62.74000 0.028
62.76000 -1.305
62.78000 0.127
62.80000 2.208
62.82000 3.967
62.84000 1.527
62.86000 3.594
62.88000 5.482
62.90000 2.325
62.92000 -0.005
62.94000 4.040
62.96000 3.739
62.98000 3.173
63.00000 1.298
63.02000 -0.004
63.04000 3.800
63.06000 4.293
63.08000 3.280
63.10000 7.496
63.12000 6.535
63.14000 4.184
63.16000 -2.393
63.18000 4.206
63.20000 2.833
63.22000 1.994
63.24000 2.108
63.26000 3.921
63.28000 1.741
63.30000 4.016
63.32000 4.604
63.34000 0.915
63.36000 -1.834
63.38000 2.231
63.40000 -0.076
63.42000 0.473
63.44000 0.044
63.46000 3.136
63.48000 6.111
63.50000 3.374
63.52000 0.983
63.54000 -1.529
63.56000 -1.943
63.58000 -0.053
63.60000 0.170
63.62000 2.367
63.64000 3.193
63.66000 3.866
63.68000 2.828
63.70000 1.805
63.72000 4.703
63.74000 5.573
63.76000 3.561
63.78000 4.462
63.80000 5.218
63.82000 2.830
63.84000 1.318
63.86000 0.310
63.88000 3.023
63.90000 2.242
63.92000 -0.499
63.94000 0.479
63.96000 0.878
63.98000 1.622
64.00000 4.186
64.02000 -2.403
64.04000 -1.903
64.06000 -0.058
64.08000 1.988
64.10000 2.624
64.12000 3.447
64.14000 1.926
64.16000 2.162
64.18000 1.130
64.20000 4.496
64.22000 1.328
64.24000 0.969
64.26000 -1.536
64.28000 1.578
64.30000 1.273
64.32000 2.595
64.34000 6.186
64.36000 5.099
64.38000 4.830
64.40000 5.541
64.42000 1.758
64.44000 -1.902
64.46000 0.851
64.48000 1.535
64.50000 0.962
64.52000 2.333
64.54000 -1.417
64.56000 -1.441
64.58000 0.516
64.60000 0.746
64.62000 2.423
64.64000 2.246
64.66000 0.013
64.68000 -0.573
64.70000 3.716
64.72000 3.487
64.74000 0.229
64.76000 1.846
64.78000 -1.206
64.80000 -0.646
64.82000 1.886
64.84000 0.260
64.86000 1.002
64.88000 -1.276
64.90000 -2.378
64.92000 -1.401
64.94000 0.293
64.96000 -0.480
64.98000 0.434
65.00000 3.256
65.02000 3.217
65.04000 2.130
65.06000 6.618
65.08000 4.611
65.10000 2.526
65.12000 -0.363
65.14000 1.563
65.16000 0.379
65.18000 3.651
65.20000 -0.125
65.22000 -1.130
65.24000 0.116
65.26000 1.908
65.28000 2.596
65.30000 4.676
65.32000 5.127
65.34000 1.475
65.36000 3.432
65.38000 5.075
65.40000 3.209
65.42000 1.497
65.44000 -2.442
65.46000 1.473
65.48000 1.601
65.50000 4.547
65.52000 4.035
65.54000 -0.318
65.56000 -2.303
65.58000 0.105
65.60000 -0.611
65.62000 -1.029
65.64000 -1.843
65.66000 -1.445
65.68000 -0.156
65.70000 -0.976
65.72000 1.167
65.74000 3.301
65.76000 1.675
65.78000 0.163
65.80000 2.068
65.82000 3.717
65.84000 4.146
65.86000 5.450
65.88000 3.883
65.90000 3.626
65.92000 0.113
65.94000 0.717
65.96000 2.323
65.98000 -0.755
66.00000 -1.703
66.02000 0.490
66.04000 -1.206
66.06000 0.570
66.08000 -2.489
66.10000 -1.352
66.12000 -1.678
66.14000 -2.070
66.16000 0.254
66.18000 2.437
66.20000 1.260
66.22000 3.126
66.24000 3.657
66.26000 2.477
66.28000 2.883
66.30000 1.509
66.32000 1.187
66.34000 0.541
66.36000 -0.997
66.38000 1.310
66.40000 2.321
66.42000 1.640
66.44000 2.839
66.46000 2.228
66.48000 3.512
66.50000 0.416
66.52000 -0.741
66.54000 2.134
66.56000 2.875
66.58000 2.480
66.60000 1.606
66.62000 -0.633
66.64000 -0.666
66.66000 1.462
66.68000 3.604
66.70000 2.872
66.72000 3.368
66.74000 9.094
66.76000 3.795
66.78000 5.117
66.80000 1.959
66.82000 1.117
66.84000 2.807
66.86000 2.575
66.88000 3.892
66.90000 3.100
66.92000 1.734
66.94000 2.127
66.96000 -0.554
66.98000 2.457
67.00000 3.840
67.02000 4.348
67.04000 9.318
67.06000 4.161
67.08000 3.903
67.10000 3.728
67.12000 2.958
67.14000 5.638
67.16000 8.886
67.18000 7.646
67.20000 5.230
67.22000 5.800
67.24000 6.212
67.26000 6.493
67.28000 7.203
67.30000 8.334
67.32000 5.220
67.34000 6.267
67.36000 11.770
67.38000 11.847
67.40000 10.370
67.42000 8.536
67.44000 10.855
67.46000 10.592
67.48000 10.871
67.50000 9.728
67.52000 6.509
67.54000 6.536
67.56000 8.728
67.58000 9.646
67.60000 12.856
67.62000 15.244
67.64000 14.218
67.66000 15.920
67.68000 10.187
67.70000 9.854
67.72000 13.886
67.74000 16.973
67.76000 18.072
67.78000 20.995
67.80000 16.503
67.82000 16.550
67.84000 20.663
67.86000 19.806
67.88000 23.403
67.90000 22.369
67.92000 20.238
67.94000 18.347
67.96000 19.614
67.98000 21.608
68.00000 22.616
68.02000 24.201
68.04000 24.540
68.06000 23.948
68.08000 22.143
68.10000 24.911
68.12000 22.973
68.14000 19.552
68.16000 20.435
68.18000 25.993
68.20000 25.243
68.22000 22.159
68.24000 23.181
68.26000 27.961
68.28000 23.914
68.30000 23.845
68.32000 22.345
68.34000 21.645
68.36000 25.137
68.38000 24.636
68.40000 23.163
68.42000 26.737
68.44000 26.641
68.46000 25.632
68.48000 27.622
68.50000 30.081
68.52000 24.416
68.54000 25.184
68.56000 25.650
68.58000 20.843
68.60000 20.265
68.62000 21.143
68.64000 21.044
68.66000 20.286
68.68000 18.403
68.70000 19.659
68.72000 21.254
68.74000 21.923
68.76000 21.506
68.78000 17.914
68.80000 18.692
68.82000 19.168
68.84000 21.294
68.86000 17.304
68.88000 14.220
68.90000 12.317
68.92000 13.150
68.94000 12.848
68.96000 13.953
68.98000 18.377
69.00000 13.659
69.02000 13.878
69.04000 11.492
69.06000 11.859
69.08000 12.955
69.10000 15.323
69.12000 11.071
69.14000 9.591
69.16000 7.333
69.18000 7.255
69.20000 9.348
69.22000 6.698
69.24000 6.577
69.26000 3.695
69.28000 4.227
69.30000 4.108
69.32000 6.277
69.34000 3.779
69.36000 2.938
69.38000 4.703
69.40000 3.456
69.42000 3.809
69.44000 5.252
69.46000 7.971
69.48000 7.216
69.50000 1.983
69.52000 3.293
69.54000 3.045
69.56000 3.448
69.58000 6.392
69.60000 6.066
69.62000 7.595
69.64000 1.559
69.66000 -2.421
69.68000 0.310
69.70000 3.983
69.72000 3.389
69.74000 1.684
69.76000 1.163
69.78000 0.792
69.80000 1.960
69.82000 5.191
69.84000 7.964
69.86000 4.283
69.88000 3.274
69.90000 2.408
69.92000 0.922
69.94000 0.993
69.96000 2.461
69.98000 3.130
70.00000 -0.629
70.02000 -2.402
70.04000 2.859
70.06000 0.766
70.08000 -0.953
70.10000 1.081
70.12000 -0.109
70.14000 2.100
70.16000 0.371
70.18000 -0.049
70.20000 0.761
70.22000 1.165
70.24000 -0.571
70.26000 -0.847
70.28000 0.083
70.30000 2.510
70.32000 -0.727
70.34000 0.062
70.36000 0.479
70.38000 -2.379
70.40000 0.102
70.42000 2.216
70.44000 5.315
70.46000 3.907
70.48000 1.566
70.50000 0.437
70.52000 -1.275
70.54000 0.995
70.56000 1.604
70.58000 0.772
70.60000 3.124
70.62000 3.411
70.64000 0.871
70.66000 -0.443
70.68000 1.577
70.70000 7.917
70.72000 3.924
70.74000 3.463
70.76000 3.731
70.78000 -0.468
70.80000 -1.431
70.82000 -0.367
70.84000 1.894
70.86000 4.597
70.88000 4.817
70.90000 2.903
70.92000 1.683
70.94000 3.760
70.96000 4.183
70.98000 -0.195
71.00000 3.700
71.02000 7.909
71.04000 5.698
71.06000 1.812
71.08000 -2.307
71.10000 2.891
71.12000 8.122
71.14000 6.562
71.16000 4.615
71.18000 5.130
71.20000 5.083
71.22000 0.722
71.24000 2.644
71.26000 4.117
71.28000 2.150
71.30000 7.424
71.32000 5.980
71.34000 2.075
71.36000 5.127
71.38000 4.855
71.40000 1.361
71.42000 0.369
71.44000 0.360
71.46000 1.355
71.48000 5.052
71.50000 7.490
71.52000 5.470
71.54000 -0.373
71.56000 -1.946
71.58000 1.264
71.60000 5.205
71.62000 4.729
71.64000 1.919
71.66000 1.137
71.68000 2.969
71.70000 2.758
71.72000 5.159
71.74000 3.862
71.76000 0.193
71.78000 1.883
71.80000 -0.881
71.82000 3.265
71.84000 7.054
71.86000 1.769
71.88000 1.370
71.90000 3.009
71.92000 0.265
71.94000 -0.976
71.96000 -2.273
71.98000 -0.442
72.00000 -1.581
72.02000 4.611
72.04000 5.161
72.06000 3.338
72.08000 3.254
72.10000 5.644
72.12000 6.379
72.14000 5.849
72.16000 4.645
72.18000 0.143
72.20000 2.676
72.22000 4.695
72.24000 3.251
72.26000 1.376
72.28000 0.927
72.30000 1.432
72.32000 1.554
72.34000 0.943
72.36000 1.959
72.38000 2.458
72.40000 3.923
72.42000 0.149
72.44000 1.279
72.46000 2.150
72.48000 2.996
72.50000 0.911
72.52000 2.870
72.54000 3.466
72.56000 5.193
72.58000 3.709
72.60000 1.935
72.62000 2.613
72.64000 4.413
72.66000 1.442
72.68000 1.018
72.70000 0.663
72.72000 4.322
72.74000 4.655
72.76000 6.631
72.78000 0.505
72.80000 1.218
72.82000 -0.483
72.84000 2.284
72.86000 -0.106
72.88000 -1.646
72.90000 1.251
72.92000 3.401
72.94000 3.350
72.96000 0.541
72.98000 1.754
73.00000 3.467
73.02000 3.765
73.04000 2.818
73.06000 -0.041
73.08000 4.480
73.10000 6.446
73.12000 4.847
73.14000 4.436
73.16000 6.599
73.18000 2.346
73.20000 2.436
73.22000 4.899
73.24000 1.867
73.26000 0.985
73.28000 0.561
73.30000 -2.238
73.32000 3.771
73.34000 2.142
73.36000 3.500
73.38000 6.313
73.40000 2.723
73.42000 -0.498
73.44000 4.761
73.46000 5.691
73.48000 4.881
73.50000 3.972
73.52000 3.720
73.54000 2.435
73.56000 2.701
73.58000 3.510
73.60000 4.986
73.62000 5.619
73.64000 5.683
73.66000 2.888
73.68000 4.698
73.70000 2.056
73.72000 1.448
73.74000 3.837
73.76000 3.935
73.78000 2.997
73.80000 3.811
73.82000 1.289
73.84000 0.938
73.86000 3.829
73.88000 4.201
73.90000 5.666
73.92000 2.785
73.94000 6.750
73.96000 8.165
73.98000 2.983
74.00000 6.293
74.02000 8.969
74.04000 5.748
74.06000 5.530
74.08000 5.213
74.10000 4.403
74.12000 4.870
74.14000 -1.986
74.16000 -2.165
74.18000 -2.166
74.20000 4.072
74.22000 4.742
74.24000 3.355
74.26000 3.604
74.28000 4.766
74.30000 6.533
74.32000 5.044
74.34000 3.598
74.36000 5.817
74.38000 4.190
74.40000 1.811
74.42000 3.245
74.44000 0.940
74.46000 6.483
74.48000 5.609
74.50000 2.730
74.52000 3.897
74.54000 5.149
74.56000 3.862
74.58000 3.101
74.60000 3.069
74.62000 2.909
74.64000 1.603
74.66000 2.976
74.68000 6.218
74.70000 4.424
74.72000 4.088
74.74000 2.296
74.76000 0.899
74.78000 0.953
74.80000 1.216
74.82000 1.899
74.84000 1.320
74.86000 1.174
74.88000 1.318
74.90000 3.199
74.92000 3.612
74.94000 6.688
74.96000 3.484
74.98000 3.252
75.00000 0.237
75.02000 1.249
75.04000 0.951
75.06000 -0.119
75.08000 5.632
75.10000 4.486
75.12000 4.282
75.14000 2.104
75.16000 3.244
75.18000 3.205
75.20000 2.732
75.22000 3.668
75.24000 0.212
75.26000 2.897
75.28000 3.318
75.30000 -0.864
75.32000 -0.138
75.34000 -0.698
75.36000 -1.936
75.38000 -0.371
75.40000 3.697
75.42000 2.989
75.44000 4.213
75.46000 6.012
75.48000 3.993
75.50000 2.686
75.52000 4.630
75.54000 7.251
75.56000 7.255
75.58000 0.248
75.60000 -1.901
75.62000 -0.563
75.64000 1.502
75.66000 1.924
75.68000 1.557
75.70000 2.778
75.72000 0.725
75.74000 -1.313
75.76000 0.015
75.78000 4.103
75.80000 1.852
75.82000 0.738
75.84000 4.192
75.86000 3.261
75.88000 5.782
75.90000 6.027
75.92000 2.084
75.94000 0.717
75.96000 0.020
75.98000 4.891
76.00000 4.934
76.02000 2.007
76.04000 4.706
76.06000 2.199
76.08000 1.651
76.10000 3.898
76.12000 4.196
76.14000 1.172
76.16000 2.774
76.18000 4.309
76.20000 0.684
76.22000 2.450
76.24000 2.269
76.26000 4.620
76.28000 6.856
76.30000 2.902
76.32000 2.315
76.34000 1.781
76.36000 -1.452
76.38000 -2.231
76.40000 -0.429
76.42000 2.882
76.44000 5.515
76.46000 1.471
76.48000 0.063
76.50000 0.033
76.52000 1.395
76.54000 3.591
76.56000 2.089
76.58000 3.827
76.60000 1.909
76.62000 0.071
76.64000 -0.239
76.66000 6.424
76.68000 7.616
76.70000 4.648
76.72000 0.525
76.74000 1.230
76.76000 3.695
76.78000 0.264
76.80000 1.445
76.82000 2.635
76.84000 1.946
76.86000 2.195
76.88000 2.271
76.90000 2.850
76.92000 2.156
76.94000 0.843
76.96000 1.833
76.98000 0.895
77.00000 2.018
77.02000 0.185
77.04000 1.193
77.06000 3.895
77.08000 1.102
77.10000 2.489
77.12000 5.129
77.14000 4.123
77.16000 3.605
77.18000 1.072
77.20000 2.980
77.22000 3.067
77.24000 4.227
77.26000 8.431
77.28000 8.973
77.30000 -0.257
77.32000 0.900
77.34000 -2.006
77.36000 -2.178
77.38000 0.443
77.40000 2.525
77.42000 2.213
77.44000 1.884
77.46000 6.403
77.48000 8.095
77.50000 6.199
77.52000 5.333
77.54000 1.203
77.56000 -2.258
77.58000 1.768
77.60000 0.866
77.62000 -0.795
77.64000 2.247
77.66000 -0.072
77.68000 2.250
77.70000 2.257
77.72000 0.203
77.74000 2.967
77.76000 5.091
77.78000 3.983
77.80000 4.889
77.82000 2.954
77.84000 1.760
77.86000 3.696
77.88000 1.546
77.90000 1.911
77.92000 5.432
77.94000 3.049
77.96000 3.036
77.98000 5.621
78.00000 2.229
78.02000 -1.971
78.04000 -0.893
78.06000 1.209
78.08000 4.809
78.10000 8.027
78.12000 4.438
78.14000 4.961
78.16000 6.253
78.18000 6.391
78.20000 1.708
78.22000 3.783
78.24000 2.622
78.26000 -0.357
78.28000 -2.267
78.30000 0.161
78.32000 4.091
78.34000 6.410
78.36000 5.061
78.38000 3.687
78.40000 4.298
78.42000 2.930
78.44000 -0.211
78.46000 1.007
78.48000 5.211
78.50000 9.446
78.52000 4.478
78.54000 3.909
78.56000 2.982
78.58000 7.094
78.60000 6.059
78.62000 5.767
78.64000 4.332
78.66000 5.138
78.68000 0.168
78.70000 -1.502
78.72000 0.683
78.74000 2.159
78.76000 2.625
78.78000 1.655
78.80000 1.145
78.82000 6.829
78.84000 3.943
78.86000 2.514
78.88000 5.010
78.90000 3.974
78.92000 7.787
78.94000 3.889
78.96000 -2.277
78.98000 0.650
79.00000 3.561
79.02000 4.900
79.04000 7.334
79.06000 5.844
79.08000 1.809
79.10000 2.811
79.12000 -0.898
79.14000 0.318
79.16000 2.070
79.18000 2.740
79.20000 3.343
79.22000 2.694
79.24000 -0.219
79.26000 3.110
79.28000 1.902
79.30000 1.544
79.32000 -0.467
79.34000 4.056
79.36000 5.531
79.38000 8.179
79.40000 1.542
79.42000 0.963
79.44000 7.721
79.46000 2.312
79.48000 -1.107
79.50000 2.565
79.52000 -0.094
79.54000 0.438
79.56000 4.397
79.58000 7.593
79.60000 8.413
79.62000 6.873
79.64000 7.340
79.66000 3.110
79.68000 1.764
79.70000 -1.456
79.72000 -1.979
79.74000 1.986
79.76000 0.675
79.78000 1.713
79.80000 2.647
79.82000 5.082
79.84000 1.879
79.86000 -0.375
79.88000 -2.005
79.90000 3.416
79.92000 5.226
79.94000 9.772
79.96000 -0.300
79.98000 3.387
80.00000 8.164
80.02000 5.949
80.04000 4.643
80.06000 2.488
80.08000 2.324
80.10000 5.875
80.12000 7.197
80.14000 2.396
80.16000 3.959
80.18000 3.118
80.20000 2.245
80.22000 3.246
80.24000 2.096
80.26000 -2.398
80.28000 4.548
80.30000 3.698
80.32000 4.986
80.34000 8.515
80.36000 3.748
80.38000 0.903
80.40000 4.831
80.42000 6.899
80.44000 4.967
80.46000 3.206
80.48000 3.348
80.50000 0.232
80.52000 2.750
80.54000 -2.436
80.56000 1.629
80.58000 3.995
80.60000 3.820
80.62000 5.616
80.64000 5.595
80.66000 3.330
80.68000 1.642
80.70000 3.464
80.72000 5.254
80.74000 4.160
80.76000 5.045
80.78000 9.797
80.80000 9.707
80.82000 7.024
80.84000 12.849
80.86000 8.704
80.88000 11.105
80.90000 11.749
80.92000 10.169
80.94000 9.760
80.96000 6.920
80.98000 11.576
81.00000 7.517
81.02000 9.750
81.04000 8.929
81.06000 10.544
81.08000 12.642
81.10000 10.263
81.12000 8.237
81.14000 15.388
81.16000 14.466
81.18000 8.662
81.20000 8.781
81.22000 8.620
81.24000 4.460
81.26000 4.672
81.28000 9.303
81.30000 14.611
81.32000 14.916
81.34000 12.202
81.36000 9.485
81.38000 14.360
81.40000 13.723
81.42000 13.261
81.44000 11.038
81.46000 6.946
81.48000 11.079
81.50000 16.574
81.52000 14.512
81.54000 11.396
81.56000 12.800
81.58000 15.515
81.60000 15.285
81.62000 14.787
81.64000 17.478
81.66000 16.610
81.68000 12.550
81.70000 12.796
81.72000 18.985
81.74000 13.632
81.76000 14.127
81.78000 19.431
81.80000 15.074
81.82000 15.583
81.84000 18.669
81.86000 19.075
81.88000 21.480
81.90000 16.575
81.92000 19.500
81.94000 24.371
81.96000 19.893
81.98000 21.085
82.00000 28.114
82.02000 25.054
82.04000 19.714
82.06000 22.220
82.08000 28.755
82.10000 29.445
82.12000 28.583
82.14000 25.549
82.16000 19.578
82.18000 21.506
82.20000 21.550
82.22000 24.691
82.24000 26.399
82.26000 31.480
82.28000 29.543
82.30000 25.727
82.32000 26.886
82.34000 29.072
82.36000 27.699
82.38000 29.910
82.40000 30.976
82.42000 34.165
82.44000 29.232
82.46000 30.271
82.48000 31.671
82.50000 31.060
82.52000 33.575
82.54000 32.441
82.56000 31.725
82.58000 24.410
82.60000 23.690
82.62000 25.396
82.64000 28.908
82.66000 29.954
82.68000 30.549
82.70000 32.717
82.72000 27.581
82.74000 28.862
82.76000 24.205
82.78000 20.510
82.80000 21.225
82.82000 22.208
82.84000 21.928
82.86000 21.844
82.88000 16.519
82.90000 15.614
82.92000 15.890
82.94000 22.704
82.96000 24.302
82.98000 19.459
83.00000 15.788
83.02000 15.456
83.04000 14.915
83.06000 15.565
83.08000 16.841
83.10000 15.616
83.12000 17.767
83.14000 14.090
83.16000 13.201
83.18000 13.492
83.20000 16.152
83.22000 13.949
83.24000 9.946
83.26000 12.577
83.28000 12.979
83.30000 11.464
83.32000 10.225
83.34000 9.215
83.36000 7.692
83.38000 5.138
83.40000 8.024
83.42000 9.798
83.44000 6.416
83.46000 6.130
83.48000 5.015
83.50000 3.609
83.52000 3.288
83.54000 5.589
83.56000 6.779
83.58000 4.916
83.60000 4.371
83.62000 6.295
83.64000 5.492
83.66000 2.611
83.68000 4.195
83.70000 3.634
83.72000 2.667
83.74000 1.990
83.76000 6.046
83.78000 8.473
83.80000 4.733
83.82000 2.385
83.84000 6.889
83.86000 3.758
83.88000 1.350
83.90000 3.222
83.92000 4.034
83.94000 3.766
83.96000 0.633
83.98000 -1.284
84.00000 1.248
84.02000 -1.707
84.04000 -0.318
84.06000 2.379
84.08000 2.290
84.10000 -0.588
84.12000 2.016
84.14000 2.935
84.16000 0.552
84.18000 -1.088
84.20000 1.571
84.22000 1.350
84.24000 -1.628
84.26000 -2.191
84.28000 -2.429
84.30000 1.530
84.32000 -0.716
84.34000 -1.798
84.36000 -1.533
84.38000 0.840
84.40000 -2.094
84.42000 -0.464
84.44000 3.400
84.46000 3.092
84.48000 3.330
84.50000 4.477
84.52000 6.967
84.54000 2.114
84.56000 2.021
84.58000 -0.447
84.60000 0.458
84.62000 -1.069
84.64000 -0.417
84.66000 -1.110
84.68000 2.788
84.70000 5.990
84.72000 0.359
84.74000 0.410
84.76000 4.102
84.78000 2.442
84.80000 -1.368
84.82000 -0.555
84.84000 4.157
84.86000 4.229
84.88000 5.251
84.90000 1.456
84.92000 -2.350
84.94000 -0.882
84.96000 -1.629
84.98000 -2.349
85.00000 2.900
85.02000 6.920
85.04000 4.023
85.06000 4.412
85.08000 4.202
85.10000 2.062
85.12000 4.173
85.14000 1.079
85.16000 1.623
85.18000 -2.338
85.20000 1.190
85.22000 4.991
85.24000 10.024
85.26000 4.517
85.28000 4.470
85.30000 6.233
85.32000 5.378
85.34000 5.493
85.36000 7.565
85.38000 4.160
85.40000 2.828
85.42000 3.518
85.44000 1.056
85.46000 5.314
85.48000 4.979
85.50000 7.116
85.52000 5.263
85.54000 0.497
85.56000 0.535
85.58000 0.047
85.60000 3.048
85.62000 0.873
85.64000 -0.023
85.66000 5.150
85.68000 4.635
85.70000 5.686
85.72000 2.282
85.74000 4.374
85.76000 4.813
85.78000 2.974
85.80000 6.363
85.82000 8.530
85.84000 9.790
85.86000 6.057
85.88000 6.014
85.90000 3.281
85.92000 4.324
85.94000 6.651
85.96000 11.372
85.98000 11.605
86.00000 10.556
86.02000 11.765
86.04000 13.814
86.06000 12.912
86.08000 13.179
86.10000 15.526
86.12000 13.385
86.14000 12.306
86.16000 8.619
86.18000 13.497
86.20000 13.679
86.22000 10.981
86.24000 11.901
86.26000 14.198
86.28000 11.216
86.30000 12.950
86.32000 17.072
86.34000 18.235
86.36000 17.090
86.38000 12.464
86.40000 12.397
86.42000 15.433
86.44000 19.314
86.46000 15.719
86.48000 16.170
86.50000 18.574
86.52000 20.157
86.54000 16.487
86.56000 19.453
86.58000 18.977
86.60000 20.324
86.62000 21.741
86.64000 20.304
86.66000 16.840
86.68000 16.149
86.70000 19.933
86.72000 20.043
86.74000 22.582
86.76000 20.370
86.78000 22.815
86.80000 22.246
86.82000 17.104
86.84000 18.675
86.86000 14.282
86.88000 11.922
86.90000 14.497
86.92000 18.287
86.94000 18.581
86.96000 12.443
86.98000 14.670
87.00000 18.918
87.02000 17.165
87.04000 12.438
87.06000 17.056
87.08000 15.933
87.10000 16.960
87.12000 13.084
87.14000 16.428
87.16000 16.990
87.18000 10.693
87.20000 10.730
87.22000 10.714
87.24000 13.119
87.26000 17.723
87.28000 15.193
87.30000 11.808
87.32000 11.883
87.34000 11.706
87.36000 7.205
87.38000 11.562
87.40000 12.721
87.42000 10.083
87.44000 11.721
87.46000 10.859
87.48000 7.630
87.50000 6.815
87.52000 7.528
87.54000 8.617
87.56000 6.732
87.58000 7.136
87.60000 6.925
87.62000 4.338
87.64000 4.486
87.66000 2.798
87.68000 4.909
87.70000 2.419
87.72000 4.789
87.74000 4.912
87.76000 1.741
87.78000 0.452
87.80000 0.558
87.82000 4.819
87.84000 3.878
87.86000 3.245
87.88000 3.670
87.90000 5.001
87.92000 1.997
87.94000 1.866
87.96000 3.586
87.98000 -0.027
88.00000 3.915
88.02000 6.376
88.04000 4.400
88.06000 5.321
88.08000 3.819
88.10000 1.455
88.12000 1.096
88.14000 6.365
88.16000 8.326
88.18000 4.774
88.20000 4.464
88.22000 6.459
88.24000 4.025
88.26000 1.792
88.28000 -2.191
88.30000 0.223
88.32000 0.763
88.34000 2.931
88.36000 3.103
88.38000 6.488
88.40000 4.755
88.42000 4.153
88.44000 5.255
88.46000 3.657
88.48000 3.086
88.50000 1.883
88.52000 5.435
88.54000 5.272
88.56000 2.492
88.58000 2.499
88.60000 0.497
88.62000 -0.860
88.64000 2.164
88.66000 4.107
88.68000 3.272
88.70000 -0.184
88.72000 -0.465
88.74000 -0.842
88.76000 1.733
88.78000 3.192
88.80000 3.843
88.82000 1.179
88.84000 1.488
88.86000 2.461
88.88000 3.021
88.90000 5.484
88.92000 4.518
88.94000 -0.889
88.96000 1.673
88.98000 0.270
89.00000 0.279
89.02000 1.675
89.04000 0.967
89.06000 -0.243
89.08000 1.680
89.10000 1.397
89.12000 0.391
89.14000 2.182
89.16000 2.041
89.18000 4.804
89.20000 1.976
89.22000 1.506
89.24000 4.261
89.26000 4.694
89.28000 2.088
89.30000 -2.148
89.32000 3.615
89.34000 3.924
89.36000 1.792
89.38000 -0.027
89.40000 3.020
89.42000 3.304
89.44000 -0.148
89.46000 -0.476
89.48000 3.358
89.50000 0.052
89.52000 2.977
89.54000 5.232
89.56000 -0.078
89.58000 -2.141
89.60000 2.308
89.62000 3.446
89.64000 2.216
89.66000 -0.012
89.68000 3.886
89.70000 4.481
89.72000 2.496
89.74000 -2.026
89.76000 -1.864
89.78000 4.433
89.80000 -0.472
89.82000 0.874
89.84000 4.787
89.86000 4.249
89.88000 4.979
89.90000 5.533
89.92000 5.196
89.94000 -0.085
89.96000 -1.024
89.98000 1.774
90.00000 4.769
90.02000 5.219
90.04000 3.652
90.06000 3.283
90.08000 7.442
90.10000 9.637
90.12000 6.831
90.14000 3.624
90.16000 3.815
90.18000 -1.534
90.20000 -2.109
90.22000 -0.451
90.24000 -0.842
90.26000 2.417
90.28000 1.931
90.30000 4.211
90.32000 2.575
90.34000 1.974
90.36000 3.180
90.38000 -0.927
90.40000 2.605
90.42000 2.313
90.44000 1.668
90.46000 0.359
90.48000 4.678
90.50000 0.573
90.52000 0.166
90.54000 1.333
90.56000 2.550
90.58000 3.805
90.60000 3.001
90.62000 0.687
90.64000 1.680
90.66000 5.941
90.68000 3.606
90.70000 3.587
90.72000 2.027
90.74000 1.230
90.76000 3.050
90.78000 3.176
90.80000 -2.107
90.82000 5.373
90.84000 4.367
90.86000 2.667
90.88000 2.455
90.90000 5.296
90.92000 3.991
90.94000 5.888
90.96000 5.237
90.98000 4.528
91.00000 2.597
91.02000 0.039
91.04000 -0.297
91.06000 4.036
91.08000 0.400
91.10000 0.775
91.12000 5.139
91.14000 6.134
91.16000 5.626
91.18000 2.319
91.20000 1.775
91.22000 1.588
91.24000 4.221
91.26000 2.152
91.28000 -1.367
91.30000 -0.047
91.32000 -0.250
91.34000 1.741
91.36000 4.753
91.38000 2.960
91.40000 2.500
91.42000 3.362
91.44000 1.111
91.46000 -1.516
91.48000 1.833
91.50000 6.443
91.52000 5.718
91.54000 5.120
91.56000 3.279
91.58000 1.202
91.60000 -0.660
91.62000 -0.488
91.64000 3.868
91.66000 1.986
91.68000 5.829
91.70000 3.500
91.72000 -0.413
91.74000 0.340
91.76000 2.621
91.78000 3.513
91.80000 2.454
91.82000 -0.299
91.84000 2.428
91.86000 0.597
91.88000 -2.135
91.90000 -1.704
91.92000 2.086
91.94000 -1.828
91.96000 0.911
91.98000 3.626
92.00000 8.857
92.02000 7.167
92.04000 8.771
92.06000 7.190
92.08000 8.077
92.10000 7.254
92.12000 2.944
92.14000 1.518
92.16000 2.107
92.18000 2.755
92.20000 4.601
92.22000 3.679
92.24000 2.231
92.26000 2.319
92.28000 -1.447
92.30000 0.704
92.32000 0.401
92.34000 1.203
92.36000 3.990
92.38000 4.528
92.40000 2.408
92.42000 2.465
92.44000 2.892
92.46000 2.234
92.48000 1.994
92.50000 -0.049
92.52000 1.470
92.54000 -0.198
92.56000 3.327
92.58000 3.958
92.60000 0.051
92.62000 -2.115
92.64000 -1.236
92.66000 3.992
92.68000 4.296
92.70000 3.599
92.72000 6.507
92.74000 2.736
92.76000 -0.596
92.78000 2.916
92.80000 3.534
92.82000 2.943
92.84000 -0.312
92.86000 1.768
92.88000 3.459
92.90000 5.448
92.92000 5.435
92.94000 3.711
92.96000 3.721
92.98000 1.752
93.00000 1.880
93.02000 5.873
93.04000 5.516
93.06000 5.346
93.08000 3.533
93.10000 3.980
93.12000 0.886
93.14000 1.391
93.16000 2.011
93.18000 2.249
93.20000 -0.448
93.22000 1.053
93.24000 2.393
93.26000 1.003
93.28000 0.860
93.30000 3.473
93.32000 4.295
93.34000 2.028
93.36000 1.731
93.38000 1.287
93.40000 2.725
93.42000 1.840
93.44000 4.071
93.46000 7.702
93.48000 6.263
93.50000 4.658
93.52000 8.352
93.54000 7.134
93.56000 2.322
93.58000 -1.502
93.60000 -0.105
93.62000 5.809
93.64000 4.663
93.66000 3.381
93.68000 2.124
93.70000 4.905
93.72000 7.235
93.74000 3.666
93.76000 4.236
93.78000 5.227
93.80000 3.653
93.82000 1.674
93.84000 2.493
93.86000 1.912
93.88000 3.248
93.90000 6.064
93.92000 1.636
93.94000 1.464
93.96000 2.859
93.98000 0.688
94.00000 -0.171
94.02000 -2.134
94.04000 4.402
94.06000 -0.964
94.08000 -0.392
94.10000 4.019
94.12000 0.598
94.14000 1.545
94.16000 2.599
94.18000 5.135
94.20000 3.124
94.22000 5.581
94.24000 6.982
94.26000 5.420
94.28000 0.679
94.30000 1.856
94.32000 1.864
94.34000 3.382
94.36000 2.560
94.38000 2.880
94.40000 6.333
94.42000 2.006
94.44000 3.026
94.46000 5.446
94.48000 4.720
94.50000 3.465
94.52000 3.332
94.54000 4.447
94.56000 2.056
94.58000 3.286
94.60000 6.099
94.62000 1.635
94.64000 3.003
94.66000 1.408
94.68000 3.063
94.70000 2.581
94.72000 3.931
94.74000 -1.704
94.76000 -0.171
94.78000 6.339
94.80000 8.302
94.82000 2.718
94.84000 3.170
94.86000 5.556
94.88000 5.752
94.90000 2.768
94.92000 -0.314
94.94000 1.961
94.96000 2.643
94.98000 2.394
95.00000 3.288
95.02000 2.504
95.04000 -2.136
95.06000 1.830
95.08000 4.351
95.10000 2.944
95.12000 2.431
95.14000 4.197
95.16000 7.235
95.18000 6.719
95.20000 4.590
95.22000 3.222
95.24000 3.427
95.26000 4.481
95.28000 2.768
95.30000 3.120
95.32000 0.917
95.34000 -0.523
95.36000 2.418
95.38000 1.145
95.40000 3.280
95.42000 1.463
95.44000 2.838
95.46000 0.519
95.48000 1.519
95.50000 2.130
95.52000 4.159
95.54000 1.630
95.56000 6.185
95.58000 6.839
95.60000 3.605
95.62000 4.188
95.64000 4.702
95.66000 2.845
95.68000 5.249
95.70000 6.389
95.72000 2.506
95.74000 2.095
95.76000 7.623
95.78000 1.842
95.80000 2.272
95.82000 3.395
95.84000 2.162
95.86000 0.160
95.88000 0.037
95.90000 -0.984
95.92000 2.943
95.94000 4.024
95.96000 -1.363
95.98000 0.459
96.00000 2.027
96.02000 -2.141
96.04000 7.323
96.06000 1.667
96.08000 -0.655
96.10000 -0.565
96.12000 0.595
96.14000 5.211
96.16000 5.556
96.18000 6.073
96.20000 3.528
96.22000 -0.874
96.24000 -0.685
96.26000 4.587
96.28000 7.216
96.30000 6.797
96.32000 5.265
96.34000 2.643
96.36000 -1.779
96.38000 4.771
96.40000 8.408
96.42000 4.205
96.44000 2.802
96.46000 3.906
96.48000 3.408
96.50000 1.728
96.52000 10.069
96.54000 4.729
96.56000 2.453
96.58000 -2.128
96.60000 0.985
96.62000 3.697
96.64000 3.109
96.66000 6.318
96.68000 7.023
96.70000 4.282
96.72000 4.033
96.74000 4.082
96.76000 6.688
96.78000 6.958
96.80000 5.700
96.82000 3.770
96.84000 2.700
96.86000 11.151
96.88000 5.490
96.90000 0.615
96.92000 7.868
96.94000 6.028
96.96000 3.852
96.98000 3.049
97.00000 -2.115
97.02000 -0.250
97.04000 3.451
97.06000 1.201
97.08000 2.468
97.10000 6.013
97.12000 3.027
97.14000 4.274
97.16000 5.448
97.18000 4.877
97.20000 2.820
97.22000 0.371
97.24000 7.271
97.26000 4.013
97.28000 -0.158
97.30000 4.254
97.32000 -2.113
97.34000 1.953
97.36000 6.352
97.38000 2.279
97.40000 4.316
97.42000 6.752
97.44000 3.561
97.46000 1.991
97.48000 -0.720
97.50000 0.243
97.52000 3.363
97.54000 5.455
97.56000 6.988
97.58000 4.136
97.60000 5.080
97.62000 4.346
97.64000 1.050
97.66000 2.753
97.68000 5.376
97.70000 1.718
97.72000 -2.104
97.74000 -1.151
97.76000 0.778
97.78000 0.457
97.80000 -1.100
97.82000 5.885
97.84000 5.044
97.86000 1.546
97.88000 3.455
97.90000 6.314
97.92000 3.781
97.94000 6.955
97.96000 4.369
97.98000 4.844
98.00000 -1.169
98.02000 0.722
98.04000 4.777
98.06000 6.799
98.08000 1.070
98.10000 3.302
98.12000 1.442
98.14000 3.101
98.16000 3.992
98.18000 10.823
98.20000 8.325
98.22000 -1.274
98.24000 -1.230
98.26000 0.983
98.28000 0.242
98.30000 4.204
98.32000 6.396
98.34000 7.176
98.36000 4.185
98.38000 3.069
98.40000 6.710
98.42000 2.700
98.44000 3.803
98.46000 1.233
98.48000 5.841
98.50000 8.447
98.52000 7.828
98.54000 11.164
98.56000 8.959
98.58000 8.544
98.60000 9.481
98.62000 0.329
98.64000 8.276
98.66000 7.841
98.68000 6.556
98.70000 -2.026
98.72000 1.187
98.74000 3.358
98.76000 3.986
98.78000 -1.422
98.80000 5.285
98.82000 10.030
98.84000 7.520
98.86000 5.788
98.88000 9.186
98.90000 3.744
98.92000 14.760
98.94000 7.335
98.96000 7.219
98.98000 10.680
99.00000 17.779
99.02000 15.441
99.04000 9.791
99.06000 10.464
99.08000 -1.503
99.10000 -0.058
99.12000 8.672
99.14000 11.515
99.16000 2.864
99.18000 4.154
99.20000 6.858
99.22000 2.538
99.24000 4.741
99.26000 10.334
99.28000 13.464
99.30000 8.370
99.32000 2.899
99.34000 0.325
99.36000 1.810
99.38000 12.855
99.40000 14.832
99.42000 18.022
99.44000 13.398
99.46000 5.051
99.48000 5.294
99.50000 2.242
99.52000 6.918
99.54000 2.813
99.56000 4.074
99.58000 9.227
99.60000 15.950
99.62000 3.813
99.64000 9.472
99.66000 4.020
99.68000 -2.005
99.70000 5.228
99.72000 3.449
99.74000 1.016
99.76000 5.174
99.78000 2.058
99.80000 2.515
99.82000 2.438
99.84000 6.793
99.86000 6.311
99.88000 4.653
99.90000 3.215
99.92000 5.209
99.94000 -2.163
99.96000 -0.024
99.98000 0.000
