'Id: "0011387" Comment: "Integrate frame 0011387_Au-Ir-Rh_Rh-rich_XRD-Mapping-138-0000.gfrmwith cursor Wedge Cursor #5" Operator: "B?rgel" Anode: "Cu" Wavelength: "1.5406" Scantype: "2Theta (TwoTheta)" TimePerStep: "1" X: "-36" Y: "-4.5" Z: "5.95" 
10.00000 0.000
10.02000 5.025
10.04000 16.872
10.06000 18.567
10.08000 18.783
10.10000 20.176
10.12000 17.994
10.14000 21.594
10.16000 12.518
10.18000 -4.424
10.20000 0.104
10.22000 12.464
10.24000 2.489
10.26000 13.878
10.28000 12.604
10.30000 25.724
10.32000 18.416
10.34000 26.570
10.36000 18.721
10.38000 1.446
10.40000 5.226
10.42000 3.802
10.44000 25.332
10.46000 7.774
10.48000 -1.070
10.50000 8.012
10.52000 19.373
10.54000 7.635
10.56000 18.011
10.58000 22.852
10.60000 21.436
10.62000 19.195
10.64000 13.898
10.66000 18.157
10.68000 25.203
10.70000 12.109
10.72000 -1.530
10.74000 12.661
10.76000 31.916
10.78000 35.540
10.80000 23.052
10.82000 13.631
10.84000 15.165
10.86000 13.331
10.88000 14.333
10.90000 33.174
10.92000 23.954
10.94000 18.687
10.96000 29.845
10.98000 18.454
11.00000 17.800
11.02000 14.082
11.04000 8.881
11.06000 20.622
11.08000 22.749
11.10000 11.298
11.12000 7.988
11.14000 19.922
11.16000 14.745
11.18000 13.014
11.20000 5.371
11.22000 13.717
11.24000 8.588
11.26000 3.182
11.28000 15.659
11.30000 17.387
11.32000 20.799
11.34000 16.618
11.36000 19.607
11.38000 26.003
11.40000 15.709
11.42000 8.368
11.44000 13.357
11.46000 11.284
11.48000 1.060
11.50000 -4.471
11.52000 15.332
11.54000 23.793
11.56000 19.901
11.58000 17.981
11.60000 21.882
11.62000 12.499
11.64000 18.854
11.66000 17.822
11.68000 10.493
11.70000 1.947
11.72000 6.938
11.74000 8.559
11.76000 10.699
11.78000 17.904
11.80000 8.535
11.82000 0.250
11.84000 -4.472
11.86000 4.634
11.88000 17.091
11.90000 13.025
11.92000 19.694
11.94000 20.080
11.96000 8.246
11.98000 5.555
12.00000 4.957
12.02000 3.303
12.04000 3.842
12.06000 7.230
12.08000 14.494
12.10000 17.121
12.12000 9.000
12.14000 6.467
12.16000 15.298
12.18000 10.368
12.20000 3.590
12.22000 5.816
12.24000 7.980
12.26000 -3.482
12.28000 -0.541
12.30000 2.865
12.32000 3.929
12.34000 8.034
12.36000 4.094
12.38000 -3.350
12.40000 -0.678
12.42000 14.855
12.44000 17.912
12.46000 15.124
12.48000 11.100
12.50000 8.271
12.52000 -2.944
12.54000 2.903
12.56000 10.686
12.58000 3.546
12.60000 8.502
12.62000 8.814
12.64000 18.218
12.66000 14.944
12.68000 9.060
12.70000 14.017
12.72000 17.599
12.74000 10.740
12.76000 7.831
12.78000 -3.663
12.80000 4.019
12.82000 4.229
12.84000 1.771
12.86000 8.205
12.88000 15.877
12.90000 15.163
12.92000 7.827
12.94000 18.192
12.96000 19.792
12.98000 14.133
13.00000 15.227
13.02000 14.097
13.04000 7.584
13.06000 15.180
13.08000 12.699
13.10000 1.013
13.12000 5.999
13.14000 10.775
13.16000 5.498
13.18000 7.613
13.20000 7.949
13.22000 8.468
13.24000 -0.028
13.26000 6.923
13.28000 3.883
13.30000 2.198
13.32000 -0.708
13.34000 2.852
13.36000 9.980
13.38000 16.205
13.40000 7.578
13.42000 6.047
13.44000 12.794
13.46000 1.566
13.48000 -1.077
13.50000 12.429
13.52000 3.625
13.54000 7.076
13.56000 4.075
13.58000 3.997
13.60000 12.167
13.62000 13.107
13.64000 4.819
13.66000 5.091
13.68000 7.805
13.70000 8.232
13.72000 8.597
13.74000 9.316
13.76000 4.279
13.78000 4.961
13.80000 9.245
13.82000 9.365
13.84000 6.223
13.86000 4.213
13.88000 2.693
13.90000 11.279
13.92000 12.305
13.94000 10.730
13.96000 15.245
13.98000 18.587
14.00000 5.131
14.02000 0.706
14.04000 6.826
14.06000 11.909
14.08000 0.125
14.10000 -4.497
14.12000 1.099
14.14000 5.709
14.16000 5.014
14.18000 3.095
14.20000 8.875
14.22000 8.899
14.24000 6.453
14.26000 5.651
14.28000 8.148
14.30000 9.221
14.32000 3.144
14.34000 4.186
14.36000 2.835
14.38000 2.394
14.40000 4.741
14.42000 12.034
14.44000 10.440
14.46000 8.474
14.48000 5.814
14.50000 7.853
14.52000 10.508
14.54000 15.307
14.56000 11.154
14.58000 11.148
14.60000 5.503
14.62000 6.939
14.64000 13.231
14.66000 11.257
14.68000 9.830
14.70000 3.141
14.72000 1.387
14.74000 1.108
14.76000 7.029
14.78000 10.375
14.80000 4.055
14.82000 3.663
14.84000 11.856
14.86000 7.240
14.88000 3.892
14.90000 9.509
14.92000 8.400
14.94000 12.953
14.96000 10.066
14.98000 4.405
15.00000 3.448
15.02000 4.636
15.04000 9.540
15.06000 8.025
15.08000 14.605
15.10000 9.677
15.12000 6.282
15.14000 1.902
15.16000 7.181
15.18000 10.090
15.20000 3.862
15.22000 4.409
15.24000 -4.452
15.26000 2.188
15.28000 4.381
15.30000 5.262
15.32000 11.581
15.34000 7.811
15.36000 7.826
15.38000 5.956
15.40000 1.080
15.42000 10.974
15.44000 15.402
15.46000 7.782
15.48000 11.486
15.50000 14.694
15.52000 6.293
15.54000 -0.723
15.56000 1.969
15.58000 5.732
15.60000 0.101
15.62000 3.839
15.64000 5.581
15.66000 4.879
15.68000 4.053
15.70000 0.533
15.72000 1.891
15.74000 10.959
15.76000 8.496
15.78000 9.531
15.80000 15.669
15.82000 14.871
15.84000 4.203
15.86000 -1.911
15.88000 5.124
15.90000 4.786
15.92000 7.239
15.94000 7.192
15.96000 0.936
15.98000 -3.493
16.00000 -4.428
16.02000 -1.053
16.04000 4.031
16.06000 5.174
16.08000 1.795
16.10000 0.796
16.12000 -3.057
16.14000 0.939
16.16000 6.580
16.18000 7.962
16.20000 -0.852
16.22000 1.917
16.24000 8.312
16.26000 3.329
16.28000 -0.371
16.30000 6.342
16.32000 7.786
16.34000 6.103
16.36000 6.011
16.38000 -2.150
16.40000 6.587
16.42000 17.007
16.44000 10.456
16.46000 1.131
16.48000 -0.148
16.50000 7.584
16.52000 12.997
16.54000 11.739
16.56000 3.129
16.58000 2.614
16.60000 2.798
16.62000 2.994
16.64000 2.199
16.66000 6.891
16.68000 -1.559
16.70000 -1.141
16.72000 14.400
16.74000 15.339
16.76000 14.105
16.78000 13.625
16.80000 3.659
16.82000 1.015
16.84000 5.354
16.86000 12.482
16.88000 5.669
16.90000 3.421
16.92000 10.793
16.94000 14.539
16.96000 10.736
16.98000 3.634
17.00000 -4.358
17.02000 2.402
17.04000 2.240
17.06000 3.856
17.08000 5.648
17.10000 3.663
17.12000 7.305
17.14000 9.137
17.16000 4.389
17.18000 6.780
17.20000 12.508
17.22000 5.076
17.24000 0.526
17.26000 -0.370
17.28000 -2.141
17.30000 -0.480
17.32000 3.443
17.34000 11.324
17.36000 14.718
17.38000 6.559
17.40000 3.644
17.42000 1.001
17.44000 -0.786
17.46000 0.243
17.48000 9.205
17.50000 -3.322
17.52000 0.570
17.54000 5.948
17.56000 4.532
17.58000 6.421
17.60000 12.052
17.62000 10.777
17.64000 3.780
17.66000 8.274
17.68000 3.449
17.70000 0.821
17.72000 11.751
17.74000 10.860
17.76000 7.420
17.78000 1.737
17.80000 0.987
17.82000 1.710
17.84000 5.618
17.86000 5.071
17.88000 5.318
17.90000 7.381
17.92000 6.989
17.94000 2.851
17.96000 5.801
17.98000 4.964
18.00000 3.627
18.02000 0.023
18.04000 0.384
18.06000 0.942
18.08000 5.244
18.10000 6.070
18.12000 7.346
18.14000 3.935
18.16000 7.224
18.18000 8.290
18.20000 3.498
18.22000 2.469
18.24000 4.999
18.26000 1.981
18.28000 10.568
18.30000 10.871
18.32000 11.361
18.34000 3.150
18.36000 7.425
18.38000 6.435
18.40000 4.345
18.42000 5.913
18.44000 0.573
18.46000 4.575
18.48000 -4.271
18.50000 -1.862
18.52000 1.686
18.54000 2.091
18.56000 2.878
18.58000 5.492
18.60000 3.736
18.62000 2.370
18.64000 6.815
18.66000 5.692
18.68000 11.701
18.70000 5.096
18.72000 0.863
18.74000 3.092
18.76000 4.070
18.78000 2.272
18.80000 -1.120
18.82000 0.066
18.84000 1.483
18.86000 8.564
18.88000 6.629
18.90000 5.823
18.92000 5.434
18.94000 11.778
18.96000 11.999
18.98000 3.268
19.00000 3.465
19.02000 0.784
19.04000 -2.988
19.06000 -4.254
19.08000 -1.129
19.10000 6.389
19.12000 3.552
19.14000 5.193
19.16000 9.934
19.18000 8.600
19.20000 5.386
19.22000 2.818
19.24000 3.821
19.26000 -2.176
19.28000 0.821
19.30000 7.276
19.32000 10.098
19.34000 12.460
19.36000 12.219
19.38000 5.913
19.40000 2.755
19.42000 3.186
19.44000 0.072
19.46000 -0.048
19.48000 3.899
19.50000 3.790
19.52000 7.586
19.54000 8.860
19.56000 7.061
19.58000 9.667
19.60000 9.401
19.62000 8.887
19.64000 7.409
19.66000 -0.523
19.68000 -4.221
19.70000 -1.527
19.72000 1.329
19.74000 7.441
19.76000 2.888
19.78000 0.936
19.80000 2.365
19.82000 1.608
19.84000 3.999
19.86000 2.366
19.88000 0.342
19.90000 6.683
19.92000 2.988
19.94000 -2.080
19.96000 3.270
19.98000 4.221
20.00000 4.393
20.02000 2.699
20.04000 2.435
20.06000 0.444
20.08000 6.528
20.10000 1.802
20.12000 0.780
20.14000 3.655
20.16000 9.961
20.18000 4.394
20.20000 8.804
20.22000 9.490
20.24000 14.136
20.26000 9.507
20.28000 2.984
20.30000 4.364
20.32000 7.689
20.34000 6.434
20.36000 7.659
20.38000 5.564
20.40000 13.084
20.42000 6.824
20.44000 -4.167
20.46000 -0.704
20.48000 7.239
20.50000 5.935
20.52000 6.363
20.54000 4.941
20.56000 6.406
20.58000 5.944
20.60000 -0.780
20.62000 -3.852
20.64000 6.649
20.66000 13.982
20.68000 7.605
20.70000 2.581
20.72000 10.876
20.74000 9.495
20.76000 12.542
20.78000 7.889
20.80000 4.939
20.82000 6.953
20.84000 2.169
20.86000 3.761
20.88000 3.734
20.90000 3.822
20.92000 9.961
20.94000 -0.079
20.96000 2.153
20.98000 1.935
21.00000 2.222
21.02000 8.299
21.04000 9.205
21.06000 11.490
21.08000 4.470
21.10000 -1.018
21.12000 1.751
21.14000 2.572
21.16000 5.925
21.18000 5.247
21.20000 7.484
21.22000 3.182
21.24000 11.973
21.26000 5.235
21.28000 9.604
21.30000 10.087
21.32000 3.817
21.34000 2.795
21.36000 4.179
21.38000 7.300
21.40000 0.691
21.42000 -4.100
21.44000 -2.924
21.46000 7.049
21.48000 5.337
21.50000 5.597
21.52000 6.509
21.54000 9.248
21.56000 10.029
21.58000 7.687
21.60000 4.386
21.62000 -3.331
21.64000 2.459
21.66000 3.686
21.68000 5.588
21.70000 7.284
21.72000 4.580
21.74000 4.958
21.76000 5.861
21.78000 5.816
21.80000 7.279
21.82000 5.699
21.84000 3.592
21.86000 2.705
21.88000 3.267
21.90000 5.766
21.92000 4.574
21.94000 0.859
21.96000 4.643
21.98000 -1.536
22.00000 -0.401
22.02000 5.112
22.04000 7.591
22.06000 7.228
22.08000 9.310
22.10000 5.413
22.12000 1.623
22.14000 1.036
22.16000 3.279
22.18000 3.217
22.20000 2.993
22.22000 3.657
22.24000 9.707
22.26000 13.163
22.28000 7.548
22.30000 6.139
22.32000 0.461
22.34000 1.674
22.36000 0.629
22.38000 0.609
22.40000 -3.152
22.42000 2.810
22.44000 4.056
22.46000 -0.347
22.48000 -0.551
22.50000 7.167
22.52000 11.911
22.54000 5.589
22.56000 4.071
22.58000 7.142
22.60000 7.006
22.62000 13.197
22.64000 9.151
22.66000 4.734
22.68000 4.641
22.70000 1.654
22.72000 -1.335
22.74000 3.398
22.76000 6.077
22.78000 6.330
22.80000 9.243
22.82000 8.445
22.84000 5.815
22.86000 11.301
22.88000 5.257
22.90000 1.711
22.92000 4.075
22.94000 8.251
22.96000 8.671
22.98000 6.264
23.00000 2.994
23.02000 4.392
23.04000 4.205
23.06000 -0.201
23.08000 -2.844
23.10000 -4.028
23.12000 3.207
23.14000 4.974
23.16000 7.404
23.18000 2.714
23.20000 3.001
23.22000 4.882
23.24000 3.989
23.26000 5.686
23.28000 0.553
23.30000 0.443
23.32000 4.095
23.34000 0.224
23.36000 -1.583
23.38000 3.997
23.40000 7.537
23.42000 1.392
23.44000 0.597
23.46000 8.755
23.48000 3.990
23.50000 5.671
23.52000 5.541
23.54000 2.787
23.56000 0.318
23.58000 -3.049
23.60000 -0.736
23.62000 -0.007
23.64000 0.049
23.66000 0.052
23.68000 2.997
23.70000 3.776
23.72000 2.448
23.74000 2.437
23.76000 1.307
23.78000 2.773
23.80000 3.482
23.82000 4.252
23.84000 4.203
23.86000 2.084
23.88000 7.196
23.90000 8.319
23.92000 4.772
23.94000 -0.591
23.96000 1.675
23.98000 4.573
24.00000 5.010
24.02000 3.032
24.04000 0.304
24.06000 -0.093
24.08000 -0.029
24.10000 -3.994
24.12000 0.124
24.14000 -0.307
24.16000 1.655
24.18000 2.130
24.20000 2.197
24.22000 5.273
24.24000 3.259
24.26000 2.208
24.28000 3.523
24.30000 3.746
24.32000 6.220
24.34000 2.590
24.36000 -3.018
24.38000 1.363
24.40000 -1.425
24.42000 3.706
24.44000 1.730
24.46000 3.247
24.48000 3.129
24.50000 -1.072
24.52000 -0.595
24.54000 1.551
24.56000 3.439
24.58000 7.618
24.60000 6.575
24.62000 7.171
24.64000 6.702
24.66000 0.189
24.68000 3.077
24.70000 2.430
24.72000 0.135
24.74000 1.975
24.76000 3.824
24.78000 6.436
24.80000 9.741
24.82000 2.585
24.84000 2.323
24.86000 5.488
24.88000 3.686
24.90000 0.070
24.92000 2.143
24.94000 6.217
24.96000 6.767
24.98000 2.411
25.00000 2.065
25.02000 0.258
25.04000 -0.259
25.06000 -3.909
25.08000 2.973
25.10000 12.097
25.12000 8.953
25.14000 8.398
25.16000 6.417
25.18000 7.354
25.20000 2.912
25.22000 4.110
25.24000 7.370
25.26000 7.002
25.28000 6.300
25.30000 9.514
25.32000 6.356
25.34000 1.944
25.36000 2.694
25.38000 2.644
25.40000 1.681
25.42000 2.573
25.44000 6.210
25.46000 14.622
25.48000 8.011
25.50000 0.943
25.52000 -3.883
25.54000 -1.738
25.56000 -1.350
25.58000 -1.841
25.60000 -1.145
25.62000 -0.169
25.64000 5.286
25.66000 2.542
25.68000 -2.251
25.70000 2.366
25.72000 2.252
25.74000 1.798
25.76000 6.460
25.78000 8.467
25.80000 3.886
25.82000 1.218
25.84000 -2.079
25.86000 0.866
25.88000 9.722
25.90000 11.095
25.92000 8.724
25.94000 7.100
25.96000 3.311
25.98000 6.504
26.00000 7.503
26.02000 8.646
26.04000 10.498
26.06000 4.500
26.08000 2.317
26.10000 3.668
26.12000 1.233
26.14000 -0.492
26.16000 1.784
26.18000 -0.095
26.20000 0.331
26.22000 -3.451
26.24000 1.415
26.26000 3.697
26.28000 2.610
26.30000 0.878
26.32000 -3.848
26.34000 1.172
26.36000 3.907
26.38000 -2.559
26.40000 -0.369
26.42000 2.164
26.44000 2.708
26.46000 3.794
26.48000 4.799
26.50000 -2.646
26.52000 -0.063
26.54000 5.499
26.56000 4.864
26.58000 2.368
26.60000 3.962
26.62000 3.720
26.64000 1.786
26.66000 -0.022
26.68000 8.189
26.70000 4.927
26.72000 6.926
26.74000 5.466
26.76000 5.058
26.78000 1.595
26.80000 -3.819
26.82000 0.426
26.84000 2.787
26.86000 3.287
26.88000 8.258
26.90000 7.875
26.92000 3.967
26.94000 5.489
26.96000 7.081
26.98000 5.069
27.00000 3.968
27.02000 1.994
27.04000 3.049
27.06000 2.936
27.08000 1.065
27.10000 -3.093
27.12000 -0.107
27.14000 4.343
27.16000 4.724
27.18000 9.315
27.20000 8.713
27.22000 3.986
27.24000 2.621
27.26000 4.367
27.28000 3.349
27.30000 -0.666
27.32000 -0.352
27.34000 5.046
27.36000 8.205
27.38000 1.896
27.40000 4.466
27.42000 4.819
27.44000 1.160
27.46000 -2.242
27.48000 -0.543
27.50000 4.849
27.52000 5.170
27.54000 -0.048
27.56000 1.301
27.58000 0.489
27.60000 7.296
27.62000 1.872
27.64000 5.666
27.66000 1.407
27.68000 1.016
27.70000 0.011
27.72000 1.348
27.74000 -0.058
27.76000 -0.103
27.78000 -3.196
27.80000 2.195
27.82000 -0.588
27.84000 -3.436
27.86000 -0.846
27.88000 2.517
27.90000 7.783
27.92000 7.421
27.94000 -2.577
27.96000 -3.773
27.98000 4.540
28.00000 3.376
28.02000 0.968
28.04000 0.369
28.06000 -2.345
28.08000 -2.068
28.10000 3.831
28.12000 6.747
28.14000 7.895
28.16000 5.475
28.18000 2.136
28.20000 0.139
28.22000 2.940
28.24000 2.908
28.26000 -0.929
28.28000 -0.915
28.30000 -0.760
28.32000 -2.898
28.34000 -2.221
28.36000 -0.546
28.38000 -0.086
28.40000 6.236
28.42000 5.009
28.44000 0.155
28.46000 -0.271
28.48000 3.861
28.50000 1.287
28.52000 2.735
28.54000 0.553
28.56000 1.921
28.58000 1.856
28.60000 -0.958
28.62000 2.308
28.64000 3.649
28.66000 0.729
28.68000 1.515
28.70000 2.969
28.72000 -3.742
28.74000 -2.466
28.76000 -0.237
28.78000 -3.323
28.80000 2.385
28.82000 5.668
28.84000 6.584
28.86000 3.906
28.88000 1.470
28.90000 0.642
28.92000 2.548
28.94000 3.402
28.96000 4.252
28.98000 3.753
29.00000 4.656
29.02000 5.547
29.04000 2.024
29.06000 1.613
29.08000 2.390
29.10000 3.002
29.12000 1.115
29.14000 -3.670
29.16000 1.475
29.18000 0.483
29.20000 -2.136
29.22000 -3.705
29.24000 -2.322
29.26000 2.183
29.28000 4.270
29.30000 7.563
29.32000 4.170
29.34000 4.362
29.36000 1.371
29.38000 -0.268
29.40000 -1.626
29.42000 -2.216
29.44000 0.137
29.46000 -2.620
29.48000 -2.799
29.50000 1.175
29.52000 4.282
29.54000 2.349
29.56000 3.808
29.58000 3.765
29.60000 2.857
29.62000 -0.025
29.64000 -3.532
29.66000 2.716
29.68000 3.113
29.70000 5.464
29.72000 4.354
29.74000 -1.665
29.76000 1.961
29.78000 0.108
29.80000 0.515
29.82000 3.076
29.84000 -0.272
29.86000 2.030
29.88000 1.814
29.90000 0.954
29.92000 -1.188
29.94000 1.080
29.96000 3.190
29.98000 -0.664
30.00000 -1.426
30.02000 -2.684
30.04000 4.289
30.06000 7.033
30.08000 2.385
30.10000 1.374
30.12000 1.908
30.14000 2.113
30.16000 0.906
30.18000 -0.030
30.20000 2.640
30.22000 3.413
30.24000 1.750
30.26000 -0.824
30.28000 -1.268
30.30000 3.923
30.32000 5.320
30.34000 0.944
30.36000 1.162
30.38000 5.733
30.40000 2.401
30.42000 0.874
30.44000 4.960
30.46000 -2.781
30.48000 -2.251
30.50000 -0.020
30.52000 4.638
30.54000 5.249
30.56000 0.720
30.58000 2.527
30.60000 0.848
30.62000 -0.179
30.64000 -1.966
30.66000 1.751
30.68000 3.679
30.70000 6.886
30.72000 7.890
30.74000 11.661
30.76000 8.632
30.78000 5.502
30.80000 1.758
30.82000 8.477
30.84000 0.699
30.86000 -0.380
30.88000 2.251
30.90000 5.018
30.92000 0.972
30.94000 4.575
30.96000 2.075
30.98000 3.363
31.00000 6.160
31.02000 3.812
31.04000 -0.395
31.06000 5.030
31.08000 4.136
31.10000 4.110
31.12000 4.634
31.14000 3.993
31.16000 3.007
31.18000 4.155
31.20000 6.868
31.22000 5.664
31.24000 6.662
31.26000 -2.159
31.28000 -3.558
31.30000 1.662
31.32000 1.607
31.34000 0.415
31.36000 0.746
31.38000 0.931
31.40000 0.134
31.42000 4.029
31.44000 4.156
31.46000 2.508
31.48000 5.227
31.50000 5.992
31.52000 0.854
31.54000 8.922
31.56000 10.036
31.58000 7.750
31.60000 4.241
31.62000 4.527
31.64000 4.005
31.66000 4.242
31.68000 3.388
31.70000 0.808
31.72000 0.304
31.74000 -2.119
31.76000 -0.904
31.78000 3.061
31.80000 5.317
31.82000 2.533
31.84000 3.393
31.86000 1.391
31.88000 2.788
31.90000 2.114
31.92000 0.949
31.94000 1.021
31.96000 3.471
31.98000 3.802
32.00000 -1.573
32.02000 -3.032
32.04000 1.665
32.06000 -2.921
32.08000 -1.019
32.10000 -0.727
32.12000 1.410
32.14000 3.253
32.16000 1.843
32.18000 1.388
32.20000 -0.028
32.22000 1.799
32.24000 -0.203
32.26000 3.574
32.28000 4.053
32.30000 -0.628
32.32000 -1.002
32.34000 1.666
32.36000 -0.031
32.38000 -0.958
32.40000 -1.343
32.42000 -0.714
32.44000 1.773
32.46000 0.427
32.48000 1.467
32.50000 1.416
32.52000 -3.564
32.54000 -1.320
32.56000 -2.294
32.58000 -1.801
32.60000 1.329
32.62000 1.577
32.64000 -0.511
32.66000 -0.652
32.68000 -2.485
32.70000 -1.757
32.72000 3.656
32.74000 5.600
32.76000 3.681
32.78000 2.992
32.80000 2.393
32.82000 2.866
32.84000 5.972
32.86000 5.042
32.88000 8.454
32.90000 2.750
32.92000 0.450
32.94000 1.268
32.96000 -0.087
32.98000 -3.560
33.00000 -1.267
33.02000 -0.568
33.04000 1.521
33.06000 2.300
33.08000 3.680
33.10000 -0.568
33.12000 -2.319
33.14000 3.687
33.16000 1.569
33.18000 -2.170
33.20000 2.470
33.22000 2.497
33.24000 1.474
33.26000 2.033
33.28000 1.520
33.30000 0.097
33.32000 -0.999
33.34000 -1.374
33.36000 0.657
33.38000 2.416
33.40000 9.322
33.42000 5.031
33.44000 5.080
33.46000 6.215
33.48000 4.288
33.50000 4.758
33.52000 3.098
33.54000 -0.125
33.56000 0.305
33.58000 -0.792
33.60000 0.785
33.62000 3.917
33.64000 9.228
33.66000 3.822
33.68000 0.367
33.70000 0.802
33.72000 1.986
33.74000 0.211
33.76000 -3.523
33.78000 0.016
33.80000 6.426
33.82000 6.432
33.84000 4.547
33.86000 4.384
33.88000 3.928
33.90000 2.985
33.92000 1.321
33.94000 2.953
33.96000 6.603
33.98000 6.861
34.00000 1.929
34.02000 0.115
34.04000 7.584
34.06000 4.088
34.08000 4.588
34.10000 6.652
34.12000 7.683
34.14000 3.671
34.16000 -0.729
34.18000 -1.657
34.20000 -2.791
34.22000 -2.660
34.24000 -0.882
34.26000 2.327
34.28000 3.225
34.30000 1.230
34.32000 -3.514
34.34000 -1.899
34.36000 4.133
34.38000 4.508
34.40000 2.663
34.42000 -2.471
34.44000 1.750
34.46000 2.101
34.48000 -1.056
34.50000 -0.502
34.52000 2.733
34.54000 0.027
34.56000 9.006
34.58000 1.126
34.60000 -1.442
34.62000 2.095
34.64000 -0.772
34.66000 3.800
34.68000 4.859
34.70000 3.926
34.72000 0.957
34.74000 1.162
34.76000 2.771
34.78000 -3.501
34.80000 -1.186
34.82000 3.825
34.84000 5.796
34.86000 5.768
34.88000 4.361
34.90000 2.629
34.92000 5.065
34.94000 4.662
34.96000 1.555
34.98000 3.500
35.00000 0.444
35.02000 0.416
35.04000 1.251
35.06000 7.249
35.08000 2.597
35.10000 1.576
35.12000 5.005
35.14000 1.522
35.16000 2.639
35.18000 2.763
35.20000 0.970
35.22000 1.482
35.24000 1.073
35.26000 0.439
35.28000 -0.775
35.30000 7.734
35.32000 7.708
35.34000 1.598
35.36000 -0.406
35.38000 -3.471
35.40000 -2.240
35.42000 11.066
35.44000 14.416
35.46000 6.002
35.48000 1.385
35.50000 3.410
35.52000 1.194
35.54000 3.385
35.56000 4.124
35.58000 0.872
35.60000 -0.155
35.62000 -2.193
35.64000 -0.825
35.66000 2.023
35.68000 1.196
35.70000 0.744
35.72000 -1.271
35.74000 4.895
35.76000 2.269
35.78000 7.732
35.80000 7.354
35.82000 2.206
35.84000 4.438
35.86000 2.551
35.88000 0.966
35.90000 3.138
35.92000 6.202
35.94000 5.596
35.96000 2.849
35.98000 5.841
36.00000 5.350
36.02000 0.814
36.04000 3.484
36.06000 3.925
36.08000 2.702
36.10000 3.282
36.12000 0.459
36.14000 -1.657
36.16000 -2.175
36.18000 3.273
36.20000 0.716
36.22000 0.480
36.24000 5.425
36.26000 3.126
36.28000 -0.325
36.30000 -0.120
36.32000 0.796
36.34000 -1.328
36.36000 -3.470
36.38000 1.391
36.40000 -1.231
36.42000 5.510
36.44000 5.915
36.46000 2.217
36.48000 -2.963
36.50000 3.606
36.52000 8.959
36.54000 8.382
36.56000 5.390
36.58000 3.896
36.60000 -0.557
36.62000 -3.479
36.64000 -0.341
36.66000 2.193
36.68000 5.140
36.70000 4.099
36.72000 0.721
36.74000 1.518
36.76000 -2.056
36.78000 0.477
36.80000 4.688
36.82000 3.753
36.84000 4.635
36.86000 0.715
36.88000 -0.951
36.90000 2.006
36.92000 3.580
36.94000 -0.775
36.96000 -0.858
36.98000 2.442
37.00000 2.756
37.02000 2.791
37.04000 1.548
37.06000 -0.738
37.08000 3.509
37.10000 4.166
37.12000 2.485
37.14000 -3.246
37.16000 0.186
37.18000 4.194
37.20000 0.320
37.22000 -2.951
37.24000 -0.618
37.26000 1.669
37.28000 1.602
37.30000 3.038
37.32000 0.248
37.34000 -1.787
37.36000 -3.570
37.38000 -2.026
37.40000 0.134
37.42000 4.526
37.44000 4.728
37.46000 -1.718
37.48000 -2.607
37.50000 -1.847
37.52000 3.395
37.54000 4.044
37.56000 -1.947
37.58000 -0.399
37.60000 0.645
37.62000 -0.588
37.64000 -3.607
37.66000 0.229
37.68000 6.068
37.70000 0.396
37.72000 -0.991
37.74000 2.412
37.76000 3.534
37.78000 1.188
37.80000 4.196
37.82000 6.028
37.84000 4.215
37.86000 -0.314
37.88000 2.974
37.90000 5.562
37.92000 3.667
37.94000 4.323
37.96000 2.296
37.98000 3.651
38.00000 3.179
38.02000 4.429
38.04000 4.602
38.06000 4.294
38.08000 7.744
38.10000 9.169
38.12000 10.985
38.14000 7.121
38.16000 7.012
38.18000 12.281
38.20000 9.791
38.22000 8.323
38.24000 8.679
38.26000 15.274
38.28000 13.300
38.30000 9.823
38.32000 8.198
38.34000 8.956
38.36000 12.276
38.38000 14.560
38.40000 15.495
38.42000 18.770
38.44000 17.089
38.46000 13.908
38.48000 13.588
38.50000 13.900
38.52000 21.005
38.54000 17.015
38.56000 16.630
38.58000 24.480
38.60000 20.873
38.62000 19.104
38.64000 21.496
38.66000 21.750
38.68000 23.459
38.70000 26.090
38.72000 25.218
38.74000 24.785
38.76000 23.961
38.78000 22.929
38.80000 24.998
38.82000 30.546
38.84000 33.276
38.86000 35.304
38.88000 32.249
38.90000 33.809
38.92000 33.243
38.94000 33.085
38.96000 36.215
38.98000 40.302
39.00000 37.674
39.02000 38.235
39.04000 41.954
39.06000 43.843
39.08000 45.581
39.10000 43.528
39.12000 46.137
39.14000 51.672
39.16000 48.811
39.18000 50.891
39.20000 54.946
39.22000 54.114
39.24000 62.132
39.26000 67.943
39.28000 68.571
39.30000 66.823
39.32000 73.305
39.34000 81.440
39.36000 81.524
39.38000 79.760
39.40000 81.080
39.42000 84.211
39.44000 88.736
39.46000 99.842
39.48000 101.115
39.50000 106.240
39.52000 113.325
39.54000 120.864
39.56000 129.782
39.58000 134.304
39.60000 143.275
39.62000 155.235
39.64000 158.647
39.66000 165.652
39.68000 176.825
39.70000 197.133
39.72000 217.225
39.74000 226.592
39.76000 234.082
39.78000 244.429
39.80000 265.052
39.82000 275.776
39.84000 290.834
39.86000 311.226
39.88000 337.792
39.90000 368.968
39.92000 389.352
39.94000 415.449
39.96000 433.856
39.98000 461.450
40.00000 484.678
40.02000 527.411
40.04000 565.525
40.06000 605.681
40.08000 635.934
40.10000 671.530
40.12000 698.895
40.14000 738.191
40.16000 789.344
40.18000 825.739
40.20000 841.752
40.22000 873.368
40.24000 918.734
40.26000 949.583
40.28000 977.209
40.30000 1005.562
40.32000 1016.259
40.34000 1026.004
40.36000 1045.618
40.38000 1059.994
40.40000 1070.166
40.42000 1076.540
40.44000 1071.313
40.46000 1058.932
40.48000 1036.735
40.50000 1020.888
40.52000 1007.343
40.54000 994.213
40.56000 960.942
40.58000 930.021
40.60000 904.652
40.62000 881.309
40.64000 851.324
40.66000 821.579
40.68000 782.987
40.70000 752.586
40.72000 716.906
40.74000 691.161
40.76000 651.598
40.78000 624.253
40.80000 598.014
40.82000 563.529
40.84000 538.010
40.86000 500.951
40.88000 465.251
40.90000 438.817
40.92000 418.409
40.94000 394.993
40.96000 367.613
40.98000 349.045
41.00000 334.330
41.02000 319.513
41.04000 296.293
41.06000 283.171
41.08000 272.543
41.10000 258.148
41.12000 234.105
41.14000 218.836
41.16000 210.222
41.18000 191.858
41.20000 180.354
41.22000 175.070
41.24000 162.391
41.26000 156.410
41.28000 147.545
41.30000 138.763
41.32000 137.457
41.34000 125.692
41.36000 120.748
41.38000 115.475
41.40000 108.426
41.42000 104.447
41.44000 102.884
41.46000 95.740
41.48000 93.084
41.50000 89.143
41.52000 82.314
41.54000 76.569
41.56000 71.644
41.58000 72.345
41.60000 69.513
41.62000 66.080
41.64000 61.748
41.66000 59.658
41.68000 58.835
41.70000 52.208
41.72000 49.742
41.74000 51.332
41.76000 46.241
41.78000 49.583
41.80000 46.925
41.82000 38.353
41.84000 35.131
41.86000 38.300
41.88000 33.591
41.90000 31.746
41.92000 31.055
41.94000 33.968
41.96000 33.178
41.98000 24.316
42.00000 25.595
42.02000 27.065
42.04000 27.515
42.06000 26.692
42.08000 20.845
42.10000 25.819
42.12000 22.240
42.14000 16.523
42.16000 14.873
42.18000 17.320
42.20000 13.840
42.22000 13.956
42.24000 17.612
42.26000 15.475
42.28000 13.020
42.30000 16.009
42.32000 18.535
42.34000 15.677
42.36000 14.933
42.38000 10.272
42.40000 10.393
42.42000 12.314
42.44000 14.282
42.46000 9.206
42.48000 9.875
42.50000 11.324
42.52000 13.063
42.54000 9.535
42.56000 8.923
42.58000 4.111
42.60000 8.077
42.62000 9.090
42.64000 5.278
42.66000 8.194
42.68000 6.450
42.70000 6.555
42.72000 6.472
42.74000 0.784
42.76000 0.584
42.78000 2.969
42.80000 2.959
42.82000 5.093
42.84000 8.063
42.86000 1.683
42.88000 1.160
42.90000 4.146
42.92000 0.666
42.94000 2.190
42.96000 3.470
42.98000 7.107
43.00000 5.819
43.02000 3.900
43.04000 5.719
43.06000 4.487
43.08000 4.440
43.10000 6.156
43.12000 8.066
43.14000 3.302
43.16000 1.131
43.18000 3.091
43.20000 1.743
43.22000 1.852
43.24000 4.954
43.26000 5.906
43.28000 3.724
43.30000 7.202
43.32000 8.153
43.34000 4.803
43.36000 2.244
43.38000 -3.418
43.40000 -0.409
43.42000 2.931
43.44000 4.723
43.46000 7.676
43.48000 5.063
43.50000 5.285
43.52000 2.480
43.54000 6.287
43.56000 1.523
43.58000 1.626
43.60000 -0.336
43.62000 -1.421
43.64000 3.774
43.66000 5.416
43.68000 4.200
43.70000 0.993
43.72000 2.410
43.74000 1.868
43.76000 0.504
43.78000 0.064
43.80000 2.017
43.82000 5.731
43.84000 6.670
43.86000 2.700
43.88000 -0.020
43.90000 0.036
43.92000 2.293
43.94000 1.544
43.96000 1.732
43.98000 0.262
44.00000 1.641
44.02000 6.208
44.04000 5.119
44.06000 3.184
44.08000 1.852
44.10000 2.908
44.12000 4.620
44.14000 3.146
44.16000 -0.661
44.18000 -2.415
44.20000 0.478
44.22000 6.085
44.24000 3.976
44.26000 -0.193
44.28000 -3.303
44.30000 0.200
44.32000 5.732
44.34000 4.934
44.36000 2.904
44.38000 3.159
44.40000 3.068
44.42000 6.235
44.44000 6.945
44.46000 3.592
44.48000 -3.285
44.50000 0.234
44.52000 4.485
44.54000 2.685
44.56000 1.548
44.58000 4.894
44.60000 0.728
44.62000 -3.292
44.64000 2.472
44.66000 7.442
44.68000 4.606
44.70000 3.417
44.72000 2.081
44.74000 8.175
44.76000 10.184
44.78000 1.437
44.80000 1.322
44.82000 4.481
44.84000 6.090
44.86000 2.579
44.88000 2.356
44.90000 0.714
44.92000 0.582
44.94000 0.127
44.96000 2.135
44.98000 2.469
45.00000 1.700
45.02000 5.659
45.04000 3.692
45.06000 0.155
45.08000 0.984
45.10000 1.649
45.12000 1.404
45.14000 -1.018
45.16000 0.576
45.18000 -0.581
45.20000 1.443
45.22000 3.538
45.24000 -0.935
45.26000 -1.802
45.28000 3.002
45.30000 5.642
45.32000 3.859
45.34000 3.186
45.36000 -0.723
45.38000 0.480
45.40000 3.286
45.42000 4.718
45.44000 4.874
45.46000 5.818
45.48000 8.763
45.50000 6.359
45.52000 7.174
45.54000 11.184
45.56000 13.444
45.58000 11.363
45.60000 9.509
45.62000 11.441
45.64000 9.200
45.66000 6.244
45.68000 4.660
45.70000 7.113
45.72000 11.252
45.74000 13.677
45.76000 18.112
45.78000 15.413
45.80000 14.542
45.82000 14.628
45.84000 15.224
45.86000 17.540
45.88000 18.973
45.90000 17.419
45.92000 22.736
45.94000 19.449
45.96000 25.312
45.98000 25.691
46.00000 21.214
46.02000 30.266
46.04000 31.339
46.06000 31.568
46.08000 35.810
46.10000 39.083
46.12000 37.725
46.14000 33.860
46.16000 35.428
46.18000 37.821
46.20000 44.005
46.22000 44.867
46.24000 44.617
46.26000 47.222
46.28000 51.773
46.30000 49.079
46.32000 57.731
46.34000 57.944
46.36000 65.015
46.38000 69.907
46.40000 73.989
46.42000 69.988
46.44000 71.196
46.46000 75.709
46.48000 87.476
46.50000 93.979
46.52000 93.949
46.54000 88.437
46.56000 100.712
46.58000 104.513
46.60000 99.569
46.62000 105.364
46.64000 120.114
46.66000 126.093
46.68000 124.117
46.70000 130.234
46.72000 140.030
46.74000 135.607
46.76000 147.283
46.78000 150.478
46.80000 157.780
46.82000 158.120
46.84000 162.462
46.86000 169.040
46.88000 177.957
46.90000 178.512
46.92000 184.061
46.94000 184.290
46.96000 187.583
46.98000 188.068
47.00000 187.267
47.02000 198.178
47.04000 193.901
47.06000 190.753
47.08000 187.760
47.10000 187.499
47.12000 195.306
47.14000 189.662
47.16000 183.315
47.18000 174.638
47.20000 169.880
47.22000 170.012
47.24000 165.875
47.26000 159.548
47.28000 147.249
47.30000 145.525
47.32000 149.759
47.34000 142.965
47.36000 130.410
47.38000 122.437
47.40000 117.367
47.42000 111.510
47.44000 101.254
47.46000 94.299
47.48000 95.215
47.50000 95.819
47.52000 92.888
47.54000 80.361
47.56000 78.191
47.58000 78.475
47.60000 71.804
47.62000 59.454
47.64000 57.176
47.66000 56.937
47.68000 55.699
47.70000 49.171
47.72000 52.532
47.74000 52.583
47.76000 48.980
47.78000 43.025
47.80000 39.829
47.82000 37.469
47.84000 37.798
47.86000 34.784
47.88000 34.752
47.90000 30.623
47.92000 26.246
47.94000 28.546
47.96000 28.061
47.98000 19.793
48.00000 21.911
48.02000 20.941
48.04000 20.981
48.06000 15.271
48.08000 14.026
48.10000 13.423
48.12000 13.222
48.14000 12.915
48.16000 20.431
48.18000 17.913
48.20000 12.407
48.22000 14.541
48.24000 10.812
48.26000 10.265
48.28000 7.582
48.30000 4.056
48.32000 6.462
48.34000 7.268
48.36000 6.346
48.38000 3.765
48.40000 1.879
48.42000 3.923
48.44000 -0.337
48.46000 1.655
48.48000 4.141
48.50000 4.963
48.52000 7.468
48.54000 5.919
48.56000 5.232
48.58000 3.091
48.60000 -0.340
48.62000 4.549
48.64000 4.985
48.66000 2.436
48.68000 1.833
48.70000 2.754
48.72000 0.557
48.74000 -0.318
48.76000 0.041
48.78000 0.901
48.80000 -0.791
48.82000 2.863
48.84000 3.169
48.86000 -0.086
48.88000 0.094
48.90000 -0.454
48.92000 1.309
48.94000 3.583
48.96000 -0.182
48.98000 -2.123
49.00000 -0.013
49.02000 -0.128
49.04000 -0.961
49.06000 0.679
49.08000 2.891
49.10000 0.675
49.12000 1.463
49.14000 2.735
49.16000 1.554
49.18000 3.149
49.20000 7.415
49.22000 5.911
49.24000 2.801
49.26000 1.628
49.28000 -2.747
49.30000 -1.270
49.32000 4.948
49.34000 2.924
49.36000 -1.028
49.38000 -1.956
49.40000 5.464
49.42000 6.939
49.44000 7.543
49.46000 5.683
49.48000 4.129
49.50000 6.144
49.52000 4.040
49.54000 1.127
49.56000 -0.166
49.58000 4.721
49.60000 6.306
49.62000 5.003
49.64000 1.833
49.66000 3.451
49.68000 2.097
49.70000 0.860
49.72000 0.301
49.74000 3.241
49.76000 4.103
49.78000 6.548
49.80000 6.017
49.82000 1.616
49.84000 -0.563
49.86000 5.991
49.88000 5.942
49.90000 1.416
49.92000 -0.836
49.94000 -0.738
49.96000 3.317
49.98000 3.128
50.00000 1.525
50.02000 -1.465
50.04000 -2.664
50.06000 -0.764
50.08000 2.329
50.10000 -2.122
50.12000 -1.706
50.14000 1.765
50.16000 2.524
50.18000 4.113
50.20000 8.639
50.22000 4.859
50.24000 4.702
50.26000 3.732
50.28000 4.776
50.30000 8.242
50.32000 4.800
50.34000 4.221
50.36000 0.631
50.38000 2.668
50.40000 4.243
50.42000 8.666
50.44000 4.031
50.46000 2.558
50.48000 4.382
50.50000 4.341
50.52000 4.029
50.54000 1.266
50.56000 1.016
50.58000 4.453
50.60000 4.779
50.62000 4.253
50.64000 2.551
50.66000 5.304
50.68000 0.978
50.70000 0.272
50.72000 3.565
50.74000 -0.644
50.76000 -2.616
50.78000 2.590
50.80000 3.806
50.82000 5.170
50.84000 2.482
50.86000 0.511
50.88000 1.768
50.90000 1.500
50.92000 0.556
50.94000 1.068
50.96000 4.450
50.98000 -1.956
51.00000 -1.821
51.02000 0.581
51.04000 -1.408
51.06000 0.607
51.08000 5.573
51.10000 6.004
51.12000 6.349
51.14000 1.686
51.16000 -2.195
51.18000 -2.605
51.20000 -0.762
51.22000 -1.686
51.24000 -0.537
51.26000 4.116
51.28000 6.576
51.30000 6.977
51.32000 4.472
51.34000 4.723
51.36000 0.106
51.38000 1.856
51.40000 4.443
51.42000 4.337
51.44000 3.375
51.46000 6.534
51.48000 5.728
51.50000 1.532
51.52000 1.410
51.54000 2.233
51.56000 6.549
51.58000 7.168
51.60000 4.264
51.62000 1.963
51.64000 2.193
51.66000 5.752
51.68000 4.287
51.70000 1.552
51.72000 1.664
51.74000 1.903
51.76000 3.619
51.78000 -0.050
51.80000 -2.570
51.82000 2.479
51.84000 5.030
51.86000 3.177
51.88000 3.188
51.90000 3.797
51.92000 2.990
51.94000 4.087
51.96000 2.063
51.98000 3.564
52.00000 2.539
52.02000 2.140
52.04000 -1.603
52.06000 -0.623
52.08000 1.068
52.10000 0.397
52.12000 1.846
52.14000 6.427
52.16000 5.078
52.18000 6.645
52.20000 8.403
52.22000 9.018
52.24000 4.633
52.26000 4.251
52.28000 4.299
52.30000 5.806
52.32000 3.749
52.34000 3.210
52.36000 8.341
52.38000 0.226
52.40000 -2.504
52.42000 -0.534
52.44000 2.651
52.46000 2.699
52.48000 4.237
52.50000 6.003
52.52000 4.811
52.54000 5.393
52.56000 4.315
52.58000 4.205
52.60000 5.486
52.62000 4.516
52.64000 3.865
52.66000 3.105
52.68000 1.547
52.70000 2.840
52.72000 2.019
52.74000 9.689
52.76000 5.285
52.78000 1.352
52.80000 0.055
52.82000 -0.599
52.84000 2.887
52.86000 5.112
52.88000 3.090
52.90000 2.031
52.92000 -1.443
52.94000 -0.962
52.96000 3.568
52.98000 2.997
53.00000 5.801
53.02000 3.782
53.04000 -2.167
53.06000 0.840
53.08000 2.032
53.10000 0.015
53.12000 2.016
53.14000 2.035
53.16000 2.337
53.18000 1.200
53.20000 0.872
53.22000 1.989
53.24000 1.938
53.26000 1.340
53.28000 -0.373
53.30000 3.263
53.32000 0.704
53.34000 0.497
53.36000 1.726
53.38000 2.628
53.40000 4.312
53.42000 3.095
53.44000 2.346
53.46000 5.788
53.48000 2.429
53.50000 0.076
53.52000 4.258
53.54000 2.980
53.56000 3.688
53.58000 -0.867
53.60000 1.641
53.62000 3.112
53.64000 0.565
53.66000 2.666
53.68000 3.213
53.70000 2.528
53.72000 3.577
53.74000 1.343
53.76000 3.190
53.78000 2.134
53.80000 1.473
53.82000 5.576
53.84000 10.724
53.86000 5.095
53.88000 0.674
53.90000 0.001
53.92000 4.036
53.94000 4.388
53.96000 3.306
53.98000 6.765
54.00000 7.124
54.02000 3.612
54.04000 1.507
54.06000 6.987
54.08000 3.586
54.10000 4.884
54.12000 5.636
54.14000 2.737
54.16000 3.391
54.18000 -0.002
54.20000 -0.233
54.22000 -1.756
54.24000 -2.452
54.26000 -1.558
54.28000 -0.216
54.30000 4.684
54.32000 6.307
54.34000 8.581
54.36000 4.568
54.38000 -2.452
54.40000 1.883
54.42000 8.124
54.44000 10.757
54.46000 5.232
54.48000 3.487
54.50000 5.416
54.52000 3.935
54.54000 4.555
54.56000 4.248
54.58000 7.072
54.60000 2.262
54.62000 -0.532
54.64000 6.286
54.66000 5.774
54.68000 3.955
54.70000 3.134
54.72000 -0.545
54.74000 0.065
54.76000 0.189
54.78000 2.017
54.80000 2.118
54.82000 4.531
54.84000 5.392
54.86000 5.849
54.88000 1.879
54.90000 1.993
54.92000 2.240
54.94000 3.995
54.96000 5.452
54.98000 8.884
55.00000 3.896
55.02000 5.198
55.04000 2.143
55.06000 5.774
55.08000 4.003
55.10000 4.692
55.12000 4.232
55.14000 3.007
55.16000 3.869
55.18000 1.141
55.20000 1.142
55.22000 -1.774
55.24000 2.519
55.26000 4.081
55.28000 2.242
55.30000 3.366
55.32000 6.198
55.34000 7.278
55.36000 2.211
55.38000 4.652
55.40000 1.656
55.42000 3.817
55.44000 6.651
55.46000 7.682
55.48000 6.163
55.50000 3.444
55.52000 3.795
55.54000 4.047
55.56000 -2.441
55.58000 -1.620
55.60000 5.324
55.62000 8.141
55.64000 4.554
55.66000 3.519
55.68000 2.087
55.70000 3.366
55.72000 1.734
55.74000 0.974
55.76000 3.229
55.78000 3.971
55.80000 0.419
55.82000 -0.275
55.84000 -0.452
55.86000 1.932
55.88000 2.637
55.90000 4.514
55.92000 5.151
55.94000 3.391
55.96000 3.388
55.98000 -0.647
56.00000 -2.115
56.02000 -0.606
56.04000 1.949
56.06000 6.022
56.08000 5.185
56.10000 1.684
56.12000 2.234
56.14000 -0.285
56.16000 0.525
56.18000 -0.881
56.20000 -2.147
56.22000 0.374
56.24000 0.359
56.26000 0.709
56.28000 1.803
56.30000 2.704
56.32000 0.824
56.34000 -1.480
56.36000 0.125
56.38000 1.611
56.40000 0.975
56.42000 -0.394
56.44000 0.608
56.46000 0.360
56.48000 1.262
56.50000 0.287
56.52000 -2.449
56.54000 0.466
56.56000 2.318
56.58000 0.873
56.60000 -1.765
56.62000 2.570
56.64000 3.770
56.66000 2.570
56.68000 2.071
56.70000 -0.295
56.72000 -0.618
56.74000 2.576
56.76000 2.074
56.78000 -0.403
56.80000 0.279
56.82000 -2.390
56.84000 -1.590
56.86000 -1.516
56.88000 1.961
56.90000 0.792
56.92000 -0.728
56.94000 -0.034
56.96000 -2.443
56.98000 0.158
57.00000 0.655
57.02000 0.533
57.04000 -0.675
57.06000 0.124
57.08000 -1.732
57.10000 -0.337
57.12000 -1.382
57.14000 -2.436
57.16000 0.090
57.18000 0.757
57.20000 0.145
57.22000 -1.163
57.24000 1.218
57.26000 0.592
57.28000 2.936
57.30000 0.381
57.32000 0.080
57.34000 1.294
57.36000 3.358
57.38000 3.994
57.40000 -0.239
57.42000 -1.664
57.44000 1.148
57.46000 4.339
57.48000 -0.250
57.50000 -1.614
57.52000 1.300
57.54000 5.121
57.56000 1.704
57.58000 2.028
57.60000 4.108
57.62000 -0.216
57.64000 2.465
57.66000 2.444
57.68000 -1.272
57.70000 0.839
57.72000 3.529
57.74000 3.006
57.76000 1.290
57.78000 5.088
57.80000 4.083
57.82000 5.083
57.84000 4.356
57.86000 5.590
57.88000 0.991
57.90000 3.824
57.92000 3.544
57.94000 3.705
57.96000 4.152
57.98000 5.863
58.00000 4.744
58.02000 2.920
58.04000 3.946
58.06000 5.001
58.08000 3.328
58.10000 5.202
58.12000 1.864
58.14000 -1.200
58.16000 -2.344
58.18000 3.197
58.20000 4.396
58.22000 1.936
58.24000 2.029
58.26000 3.330
58.28000 5.487
58.30000 8.124
58.32000 8.065
58.34000 6.799
58.36000 6.499
58.38000 1.747
58.40000 1.619
58.42000 2.989
58.44000 7.671
58.46000 6.440
58.48000 4.394
58.50000 6.080
58.52000 5.608
58.54000 6.454
58.56000 3.030
58.58000 1.721
58.60000 2.868
58.62000 2.573
58.64000 1.649
58.66000 6.998
58.68000 8.990
58.70000 1.768
58.72000 4.321
58.74000 6.133
58.76000 6.130
58.78000 1.926
58.80000 0.817
58.82000 -2.322
58.84000 1.608
58.86000 5.546
58.88000 4.182
58.90000 6.763
58.92000 8.247
58.94000 6.754
58.96000 2.099
58.98000 2.394
59.00000 4.543
59.02000 0.455
59.04000 0.037
59.06000 -0.460
59.08000 -0.602
59.10000 -0.792
59.12000 2.065
59.14000 4.007
59.16000 4.268
59.18000 1.517
59.20000 -1.910
59.22000 2.382
59.24000 0.622
59.26000 -1.317
59.28000 0.591
59.30000 -1.085
59.32000 -0.048
59.34000 1.887
59.36000 -0.145
59.38000 1.012
59.40000 1.680
59.42000 3.302
59.44000 7.511
59.46000 7.853
59.48000 6.169
59.50000 3.267
59.52000 0.159
59.54000 -1.929
59.56000 -0.025
59.58000 1.831
59.60000 3.058
59.62000 0.193
59.64000 -0.774
59.66000 2.320
59.68000 3.008
59.70000 0.987
59.72000 6.303
59.74000 1.279
59.76000 -1.671
59.78000 1.347
59.80000 1.060
59.82000 -0.296
59.84000 0.358
59.86000 5.106
59.88000 0.536
59.90000 2.162
59.92000 4.379
59.94000 3.207
59.96000 3.371
59.98000 6.043
60.00000 2.401
60.02000 1.250
60.04000 -0.726
60.06000 0.255
60.08000 1.962
60.10000 0.008
60.12000 -2.339
60.14000 -1.064
60.16000 2.976
60.18000 -0.330
60.20000 0.334
60.22000 0.302
60.24000 4.507
60.26000 4.177
60.28000 0.669
60.30000 0.323
60.32000 -1.645
60.34000 0.084
60.36000 -1.268
60.38000 -2.331
60.40000 1.827
60.42000 3.488
60.44000 1.657
60.46000 2.387
60.48000 4.183
60.50000 5.348
60.52000 0.157
60.54000 0.371
60.56000 2.481
60.58000 4.640
60.60000 4.848
60.62000 3.872
60.64000 -0.988
60.66000 -0.977
60.68000 1.057
60.70000 2.116
60.72000 1.943
60.74000 0.538
60.76000 1.338
60.78000 3.605
60.80000 2.969
60.82000 3.788
60.84000 0.894
60.86000 1.018
60.88000 3.238
60.90000 4.937
60.92000 3.871
60.94000 3.522
60.96000 5.664
60.98000 1.562
61.00000 -0.543
61.02000 2.339
61.04000 2.354
61.06000 1.852
61.08000 3.287
61.10000 1.782
61.12000 2.154
61.14000 2.487
61.16000 1.906
61.18000 -0.286
61.20000 -2.278
61.22000 0.496
61.24000 0.818
61.26000 3.556
61.28000 3.227
61.30000 1.270
61.32000 0.863
61.34000 1.343
61.36000 -0.701
61.38000 1.322
61.40000 3.357
61.42000 2.837
61.44000 2.543
61.46000 4.032
61.48000 4.395
61.50000 1.262
61.52000 -1.066
61.54000 1.077
61.56000 3.252
61.58000 2.168
61.60000 1.709
61.62000 4.094
61.64000 6.289
61.66000 1.934
61.68000 3.776
61.70000 3.393
61.72000 3.402
61.74000 2.452
61.76000 2.865
61.78000 4.757
61.80000 4.618
61.82000 3.764
61.84000 2.913
61.86000 3.457
61.88000 0.223
61.90000 -1.005
61.92000 1.590
61.94000 6.153
61.96000 7.103
61.98000 5.723
62.00000 2.671
62.02000 2.887
62.04000 4.782
62.06000 3.793
62.08000 4.638
62.10000 1.161
62.12000 0.559
62.14000 1.566
62.16000 0.900
62.18000 -2.235
62.20000 4.425
62.22000 5.332
62.24000 6.953
62.26000 5.061
62.28000 2.088
62.30000 2.184
62.32000 4.602
62.34000 4.022
62.36000 2.832
62.38000 4.841
62.40000 4.239
62.42000 -0.716
62.44000 0.937
62.46000 3.421
62.48000 1.526
62.50000 1.271
62.52000 2.759
62.54000 1.727
62.56000 3.293
62.58000 2.114
62.60000 0.382
62.62000 1.979
62.64000 1.820
62.66000 4.537
62.68000 6.762
62.70000 5.566
62.72000 3.405
62.74000 5.984
62.76000 3.382
62.78000 2.669
62.80000 1.028
62.82000 0.815
62.84000 3.486
62.86000 0.147
62.88000 -0.165
62.90000 0.584
62.92000 -0.952
62.94000 -1.685
62.96000 1.323
62.98000 2.301
63.00000 -1.728
63.02000 -0.220
63.04000 1.524
63.06000 3.133
63.08000 2.936
63.10000 1.052
63.12000 3.525
63.14000 2.112
63.16000 -1.359
63.18000 4.620
63.20000 4.888
63.22000 3.249
63.24000 2.077
63.26000 3.298
63.28000 4.459
63.30000 0.122
63.32000 1.401
63.34000 1.473
63.36000 0.237
63.38000 1.968
63.40000 1.412
63.42000 -0.699
63.44000 0.032
63.46000 -0.176
63.48000 -0.080
63.50000 -2.006
63.52000 -2.267
63.54000 -2.007
63.56000 0.274
63.58000 1.898
63.60000 2.149
63.62000 -0.164
63.64000 2.939
63.66000 2.192
63.68000 1.469
63.70000 0.822
63.72000 -0.689
63.74000 1.504
63.76000 2.182
63.78000 1.388
63.80000 3.342
63.82000 0.421
63.84000 -0.856
63.86000 0.888
63.88000 2.696
63.90000 2.796
63.92000 0.772
63.94000 -2.091
63.96000 2.919
63.98000 0.192
64.00000 -0.999
64.02000 -1.153
64.04000 -2.272
64.06000 -2.172
64.08000 -0.162
64.10000 -0.858
64.12000 3.382
64.14000 3.055
64.16000 -0.422
64.18000 -0.229
64.20000 0.310
64.22000 0.133
64.24000 -0.966
64.26000 1.291
64.28000 -0.946
64.30000 0.650
64.32000 0.437
64.34000 0.801
64.36000 2.666
64.38000 2.853
64.40000 3.849
64.42000 0.409
64.44000 -2.258
64.46000 1.324
64.48000 1.427
64.50000 0.565
64.52000 3.013
64.54000 2.529
64.56000 3.904
64.58000 1.566
64.60000 -0.394
64.62000 1.702
64.64000 2.560
64.66000 2.971
64.68000 3.286
64.70000 2.495
64.72000 4.180
64.74000 1.014
64.76000 3.734
64.78000 0.482
64.80000 0.598
64.82000 1.735
64.84000 1.408
64.86000 2.083
64.88000 -0.203
64.90000 2.173
64.92000 1.112
64.94000 1.122
64.96000 0.440
64.98000 1.477
65.00000 4.266
65.02000 0.741
65.04000 -1.747
65.06000 -1.443
65.08000 0.663
65.10000 -1.895
65.12000 2.285
65.14000 2.683
65.16000 -0.456
65.18000 1.466
65.20000 2.623
65.22000 -1.352
65.24000 -0.579
65.26000 0.554
65.28000 1.178
65.30000 -0.640
65.32000 -1.556
65.34000 0.163
65.36000 -1.479
65.38000 -2.286
65.40000 -0.616
65.42000 -0.786
65.44000 1.638
65.46000 1.448
65.48000 0.477
65.50000 0.398
65.52000 2.362
65.54000 1.691
65.56000 -0.020
65.58000 5.197
65.60000 6.320
65.62000 4.103
65.64000 -1.366
65.66000 -0.683
65.68000 1.016
65.70000 3.599
65.72000 4.976
65.74000 2.166
65.76000 1.263
65.78000 1.071
65.80000 2.144
65.82000 2.185
65.84000 1.222
65.86000 3.478
65.88000 5.498
65.90000 5.085
65.92000 2.880
65.94000 1.107
65.96000 3.530
65.98000 3.120
66.00000 2.824
66.02000 -0.462
66.04000 -2.270
66.06000 0.367
66.08000 2.841
66.10000 2.521
66.12000 0.671
66.14000 0.945
66.16000 3.910
66.18000 1.285
66.20000 -0.422
66.22000 -0.197
66.24000 0.802
66.26000 2.196
66.28000 3.571
66.30000 0.232
66.32000 0.465
66.34000 -0.308
66.36000 -0.061
66.38000 1.371
66.40000 2.263
66.42000 3.170
66.44000 0.798
66.46000 1.036
66.48000 1.259
66.50000 1.757
66.52000 1.248
66.54000 0.890
66.56000 1.461
66.58000 1.157
66.60000 -1.202
66.62000 -0.298
66.64000 0.287
66.66000 1.199
66.68000 1.356
66.70000 0.744
66.72000 1.282
66.74000 1.311
66.76000 1.803
66.78000 -2.298
66.80000 1.760
66.82000 1.512
66.84000 1.641
66.86000 2.973
66.88000 0.537
66.90000 -0.751
66.92000 1.043
66.94000 2.248
66.96000 3.855
66.98000 0.502
67.00000 -0.136
67.02000 1.133
67.04000 1.725
67.06000 2.322
67.08000 3.118
67.10000 0.843
67.12000 0.006
67.14000 2.894
67.16000 2.114
67.18000 1.565
67.20000 -2.338
67.22000 -1.411
67.24000 1.751
67.26000 4.789
67.28000 3.668
67.30000 2.030
67.32000 3.327
67.34000 4.953
67.36000 2.632
67.38000 -0.225
67.40000 1.416
67.42000 2.059
67.44000 2.203
67.46000 2.388
67.48000 0.413
67.50000 0.528
67.52000 1.309
67.54000 0.695
67.56000 0.866
67.58000 3.964
67.60000 4.298
67.62000 6.518
67.64000 2.992
67.66000 1.684
67.68000 3.128
67.70000 1.192
67.72000 5.396
67.74000 6.833
67.76000 5.742
67.78000 4.188
67.80000 4.198
67.82000 7.087
67.84000 7.124
67.86000 7.753
67.88000 5.605
67.90000 5.911
67.92000 5.571
67.94000 7.677
67.96000 9.296
67.98000 12.075
68.00000 11.434
68.02000 12.941
68.04000 12.511
68.06000 13.531
68.08000 13.928
68.10000 15.145
68.12000 13.400
68.14000 10.000
68.16000 14.558
68.18000 15.460
68.20000 16.602
68.22000 16.295
68.24000 14.953
68.26000 20.354
68.28000 21.925
68.30000 22.829
68.32000 25.330
68.34000 20.208
68.36000 20.838
68.38000 26.966
68.40000 27.328
68.42000 25.438
68.44000 26.593
68.46000 29.827
68.48000 30.303
68.50000 29.059
68.52000 30.925
68.54000 36.143
68.56000 35.665
68.58000 33.026
68.60000 32.135
68.62000 33.060
68.64000 31.387
68.66000 32.050
68.68000 32.429
68.70000 33.484
68.72000 38.236
68.74000 39.140
68.76000 33.234
68.78000 28.897
68.80000 31.352
68.82000 36.390
68.84000 35.379
68.86000 37.842
68.88000 34.702
68.90000 31.596
68.92000 28.514
68.94000 30.628
68.96000 29.573
68.98000 28.815
69.00000 27.326
69.02000 24.102
69.04000 27.664
69.06000 25.055
69.08000 24.204
69.10000 22.204
69.12000 23.478
69.14000 23.233
69.16000 19.220
69.18000 15.859
69.20000 17.592
69.22000 15.916
69.24000 14.425
69.26000 17.069
69.28000 14.509
69.30000 15.491
69.32000 16.628
69.34000 16.287
69.36000 11.181
69.38000 10.266
69.40000 9.918
69.42000 9.469
69.44000 6.519
69.46000 6.079
69.48000 10.782
69.50000 7.839
69.52000 6.649
69.54000 2.808
69.56000 3.620
69.58000 3.540
69.60000 3.847
69.62000 6.617
69.64000 5.645
69.66000 6.176
69.68000 5.911
69.70000 2.245
69.72000 5.150
69.74000 3.157
69.76000 3.751
69.78000 6.069
69.80000 7.827
69.82000 2.498
69.84000 0.264
69.86000 0.753
69.88000 2.097
69.90000 -0.338
69.92000 -1.189
69.94000 1.002
69.96000 3.051
69.98000 1.474
70.00000 1.424
70.02000 -0.701
70.04000 -0.950
70.06000 -0.698
70.08000 -0.393
70.10000 0.277
70.12000 1.074
70.14000 2.630
70.16000 0.483
70.18000 2.104
70.20000 5.716
70.22000 3.010
70.24000 2.164
70.26000 2.780
70.28000 -0.432
70.30000 2.017
70.32000 4.124
70.34000 2.599
70.36000 -0.487
70.38000 1.162
70.40000 1.216
70.42000 2.851
70.44000 1.835
70.46000 2.780
70.48000 5.601
70.50000 0.497
70.52000 -1.367
70.54000 -2.207
70.56000 3.976
70.58000 7.884
70.60000 4.553
70.62000 3.146
70.64000 -0.496
70.66000 2.927
70.68000 5.249
70.70000 5.896
70.72000 1.985
70.74000 3.091
70.76000 4.582
70.78000 0.022
70.80000 -2.166
70.82000 0.940
70.84000 2.715
70.86000 2.099
70.88000 0.003
70.90000 3.762
70.92000 4.781
70.94000 0.819
70.96000 1.119
70.98000 2.931
71.00000 1.924
71.02000 8.207
71.04000 6.174
71.06000 1.753
71.08000 2.554
71.10000 4.967
71.12000 6.574
71.14000 5.055
71.16000 1.627
71.18000 0.109
71.20000 4.481
71.22000 4.771
71.24000 2.626
71.26000 1.865
71.28000 0.842
71.30000 2.739
71.32000 1.632
71.34000 4.187
71.36000 2.313
71.38000 1.805
71.40000 3.233
71.42000 3.309
71.44000 1.868
71.46000 1.324
71.48000 1.381
71.50000 1.267
71.52000 0.201
71.54000 1.550
71.56000 2.821
71.58000 0.264
71.60000 3.233
71.62000 8.918
71.64000 7.731
71.66000 1.356
71.68000 0.893
71.70000 1.439
71.72000 1.495
71.74000 2.508
71.76000 3.623
71.78000 1.812
71.80000 1.219
71.82000 2.716
71.84000 2.896
71.86000 2.976
71.88000 5.401
71.90000 1.845
71.92000 0.039
71.94000 -2.115
71.96000 1.202
71.98000 0.829
72.00000 1.436
72.02000 0.318
72.04000 -0.162
72.06000 -2.117
72.08000 1.059
72.10000 1.001
72.12000 4.381
72.14000 5.648
72.16000 2.961
72.18000 2.893
72.20000 2.980
72.22000 -0.019
72.24000 1.191
72.26000 2.171
72.28000 0.364
72.30000 -0.621
72.32000 3.058
72.34000 6.076
72.36000 4.649
72.38000 3.865
72.40000 4.723
72.42000 3.373
72.44000 0.396
72.46000 0.055
72.48000 3.250
72.50000 3.998
72.52000 0.852
72.54000 4.766
72.56000 0.630
72.58000 1.848
72.60000 1.176
72.62000 0.118
72.64000 -0.414
72.66000 0.824
72.68000 2.633
72.70000 1.894
72.72000 5.289
72.74000 0.799
72.76000 -2.121
72.78000 -0.334
72.80000 -1.606
72.82000 1.004
72.84000 0.423
72.86000 2.836
72.88000 1.464
72.90000 3.312
72.92000 1.764
72.94000 4.359
72.96000 4.824
72.98000 3.810
73.00000 0.231
73.02000 -0.535
73.04000 2.188
73.06000 1.400
73.08000 0.783
73.10000 2.966
73.12000 0.468
73.14000 1.682
73.16000 1.038
73.18000 0.821
73.20000 0.584
73.22000 0.985
73.24000 0.863
73.26000 -0.954
73.28000 -2.111
73.30000 1.843
73.32000 0.836
73.34000 1.796
73.36000 4.354
73.38000 1.863
73.40000 2.097
73.42000 3.917
73.44000 2.708
73.46000 1.720
73.48000 -0.008
73.50000 -0.477
73.52000 -0.400
73.54000 0.189
73.56000 -0.715
73.58000 2.371
73.60000 2.063
73.62000 1.281
73.64000 1.870
73.66000 0.198
73.68000 2.065
73.70000 2.320
73.72000 -1.288
73.74000 -1.086
73.76000 0.873
73.78000 2.391
73.80000 0.804
73.82000 3.671
73.84000 3.543
73.86000 0.803
73.88000 0.340
73.90000 4.280
73.92000 1.974
73.94000 1.990
73.96000 5.867
73.98000 2.470
74.00000 1.800
74.02000 0.244
74.04000 -0.294
74.06000 -0.876
74.08000 4.770
74.10000 4.219
74.12000 1.654
74.14000 2.067
74.16000 0.060
74.18000 1.040
74.20000 0.674
74.22000 1.556
74.24000 4.267
74.26000 3.661
74.28000 1.319
74.30000 -2.110
74.32000 0.868
74.34000 2.258
74.36000 -1.293
74.38000 -0.001
74.40000 0.919
74.42000 2.721
74.44000 -0.376
74.46000 0.334
74.48000 -0.505
74.50000 4.426
74.52000 0.416
74.54000 1.330
74.56000 4.488
74.58000 5.274
74.60000 3.039
74.62000 1.222
74.64000 -0.252
74.66000 1.145
74.68000 1.590
74.70000 2.504
74.72000 -0.396
74.74000 0.025
74.76000 -1.876
74.78000 1.531
74.80000 1.210
74.82000 1.364
74.84000 4.361
74.86000 5.995
74.88000 7.218
74.90000 6.703
74.92000 -0.513
74.94000 -0.803
74.96000 2.188
74.98000 1.246
75.00000 0.570
75.02000 1.173
75.04000 1.076
75.06000 0.745
75.08000 1.675
75.10000 -0.590
75.12000 0.560
75.14000 1.218
75.16000 1.807
75.18000 1.307
75.20000 2.898
75.22000 5.734
75.24000 3.620
75.26000 -2.075
75.28000 -1.987
75.30000 -1.018
75.32000 -0.714
75.34000 1.583
75.36000 1.510
75.38000 -0.403
75.40000 1.205
75.42000 1.164
75.44000 0.414
75.46000 -1.027
75.48000 0.280
75.50000 2.966
75.52000 6.370
75.54000 4.274
75.56000 4.162
75.58000 2.140
75.60000 2.602
75.62000 1.367
75.64000 1.753
75.66000 0.807
75.68000 1.351
75.70000 1.719
75.72000 3.695
75.74000 1.733
75.76000 0.351
75.78000 0.281
75.80000 2.671
75.82000 0.595
75.84000 1.538
75.86000 4.290
75.88000 1.454
75.90000 2.606
75.92000 3.382
75.94000 0.632
75.96000 0.769
75.98000 -1.874
76.00000 -1.935
76.02000 -1.083
76.04000 -0.710
76.06000 -1.098
76.08000 -1.293
76.10000 3.672
76.12000 5.163
76.14000 5.200
76.16000 3.720
76.18000 4.712
76.20000 0.298
76.22000 3.022
76.24000 5.419
76.26000 -1.145
76.28000 1.645
76.30000 3.457
76.32000 8.388
76.34000 3.717
76.36000 1.049
76.38000 3.497
76.40000 -1.466
76.42000 -0.728
76.44000 -1.343
76.46000 -0.156
76.48000 0.443
76.50000 -2.110
76.52000 -1.087
76.54000 2.345
76.56000 4.880
76.58000 2.780
76.60000 3.415
76.62000 3.087
76.64000 1.940
76.66000 -2.111
76.68000 -0.257
76.70000 1.064
76.72000 1.951
76.74000 4.820
76.76000 3.817
76.78000 2.562
76.80000 4.857
76.82000 6.132
76.84000 1.310
76.86000 3.486
76.88000 1.819
76.90000 2.367
76.92000 0.593
76.94000 0.382
76.96000 -1.768
76.98000 -0.195
77.00000 2.496
77.02000 0.333
77.04000 2.326
77.06000 1.470
77.08000 3.127
77.10000 2.814
77.12000 3.804
77.14000 4.762
77.16000 0.408
77.18000 -1.347
77.20000 3.436
77.22000 0.627
77.24000 -0.313
77.26000 0.999
77.28000 0.996
77.30000 3.913
77.32000 3.485
77.34000 1.957
77.36000 2.266
77.38000 3.106
77.40000 2.566
77.42000 3.097
77.44000 0.933
77.46000 1.747
77.48000 1.928
77.50000 -0.978
77.52000 -0.578
77.54000 5.755
77.56000 6.104
77.58000 3.945
77.60000 3.148
77.62000 1.920
77.64000 -2.100
77.66000 -0.080
77.68000 0.313
77.70000 8.219
77.72000 6.571
77.74000 6.162
77.76000 5.978
77.78000 4.950
77.80000 5.925
77.82000 2.644
77.84000 2.117
77.86000 4.593
77.88000 0.575
77.90000 1.629
77.92000 5.787
77.94000 7.834
77.96000 7.507
77.98000 6.422
78.00000 3.139
78.02000 0.001
78.04000 -1.441
78.06000 0.132
78.08000 -0.660
78.10000 0.395
78.12000 -0.263
78.14000 1.295
78.16000 -0.051
78.18000 3.084
78.20000 3.502
78.22000 3.833
78.24000 3.510
78.26000 1.816
78.28000 -0.618
78.30000 -1.190
78.32000 -0.689
78.34000 -0.354
78.36000 3.719
78.38000 1.549
78.40000 4.329
78.42000 3.549
78.44000 1.113
78.46000 0.916
78.48000 0.197
78.50000 3.271
78.52000 0.004
78.54000 -1.450
78.56000 -0.026
78.58000 2.724
78.60000 3.210
78.62000 3.879
78.64000 1.300
78.66000 -0.446
78.68000 3.852
78.70000 1.415
78.72000 1.693
78.74000 1.326
78.76000 2.538
78.78000 5.127
78.80000 5.101
78.82000 4.866
78.84000 2.685
78.86000 1.434
78.88000 -0.068
78.90000 1.683
78.92000 2.436
78.94000 3.049
78.96000 3.994
78.98000 0.812
79.00000 -0.448
79.02000 -0.225
79.04000 -0.870
79.06000 0.423
79.08000 1.017
79.10000 0.304
79.12000 0.639
79.14000 2.318
79.16000 2.182
79.18000 0.685
79.20000 -1.107
79.22000 -2.142
79.24000 0.707
79.26000 3.350
79.28000 2.898
79.30000 1.246
79.32000 1.540
79.34000 -0.107
79.36000 2.097
79.38000 2.232
79.40000 0.109
79.42000 -0.280
79.44000 -2.139
79.46000 -1.214
79.48000 4.666
79.50000 3.389
79.52000 0.702
79.54000 2.222
79.56000 4.146
79.58000 4.328
79.60000 5.489
79.62000 2.609
79.64000 2.536
79.66000 1.895
79.68000 0.971
79.70000 1.999
79.72000 5.105
79.74000 2.448
79.76000 2.316
79.78000 3.067
79.80000 2.844
79.82000 2.334
79.84000 2.613
79.86000 0.894
79.88000 2.016
79.90000 2.445
79.92000 3.831
79.94000 3.000
79.96000 4.527
79.98000 1.102
80.00000 0.333
80.02000 0.749
80.04000 0.801
80.06000 4.309
80.08000 9.252
80.10000 3.554
80.12000 2.125
80.14000 1.073
80.16000 3.993
80.18000 4.569
80.20000 0.412
80.22000 3.017
80.24000 6.484
80.26000 6.485
80.28000 2.188
80.30000 -0.274
80.32000 2.724
80.34000 2.355
80.36000 -0.450
80.38000 -2.170
80.40000 -0.134
80.42000 -0.488
80.44000 -2.097
80.46000 -2.168
80.48000 0.083
80.50000 -0.271
80.52000 2.758
80.54000 5.435
80.56000 2.528
80.58000 -0.162
80.60000 -1.738
80.62000 0.742
80.64000 0.362
80.66000 1.511
80.68000 2.477
80.70000 2.678
80.72000 3.479
80.74000 5.650
80.76000 2.794
80.78000 0.762
80.80000 5.707
80.82000 6.548
80.84000 3.613
80.86000 -0.830
80.88000 0.299
80.90000 -0.470
80.92000 -0.487
80.94000 0.767
80.96000 1.563
80.98000 4.948
81.00000 2.574
81.02000 -2.293
81.04000 1.973
81.06000 4.243
81.08000 4.605
81.10000 1.120
81.12000 -1.434
81.14000 3.702
81.16000 2.125
81.18000 -0.352
81.20000 -0.741
81.22000 2.206
81.24000 2.260
81.26000 2.340
81.28000 1.735
81.30000 -0.633
81.32000 0.309
81.34000 3.588
81.36000 2.063
81.38000 2.281
81.40000 1.268
81.42000 5.260
81.44000 2.215
81.46000 2.779
81.48000 3.745
81.50000 6.771
81.52000 8.573
81.54000 4.947
81.56000 6.418
81.58000 4.044
81.60000 4.305
81.62000 6.802
81.64000 3.435
81.66000 5.107
81.68000 7.566
81.70000 10.775
81.72000 11.688
81.74000 9.415
81.76000 9.178
81.78000 10.908
81.80000 11.957
81.82000 8.454
81.84000 13.332
81.86000 13.084
81.88000 10.475
81.90000 10.976
81.92000 10.102
81.94000 8.963
81.96000 13.459
81.98000 11.359
82.00000 9.033
82.02000 9.297
82.04000 11.545
82.06000 18.434
82.08000 18.408
82.10000 16.759
82.12000 21.462
82.14000 19.776
82.16000 21.302
82.18000 21.046
82.20000 23.430
82.22000 25.323
82.24000 24.345
82.26000 23.548
82.28000 24.558
82.30000 25.666
82.32000 27.298
82.34000 24.241
82.36000 28.335
82.38000 34.161
82.40000 39.096
82.42000 37.232
82.44000 38.511
82.46000 36.646
82.48000 35.466
82.50000 42.634
82.52000 45.730
82.54000 44.648
82.56000 44.020
82.58000 45.184
82.60000 46.116
82.62000 47.027
82.64000 44.037
82.66000 46.325
82.68000 50.347
82.70000 49.700
82.72000 52.017
82.74000 53.095
82.76000 57.967
82.78000 62.854
82.80000 58.467
82.82000 59.035
82.84000 59.113
82.86000 57.817
82.88000 55.675
82.90000 60.551
82.92000 64.965
82.94000 59.459
82.96000 58.042
82.98000 54.566
83.00000 54.182
83.02000 57.456
83.04000 58.452
83.06000 53.751
83.08000 49.504
83.10000 53.944
83.12000 53.860
83.14000 51.284
83.16000 53.005
83.18000 51.393
83.20000 53.591
83.22000 53.117
83.24000 51.108
83.26000 48.016
83.28000 43.356
83.30000 38.556
83.32000 39.945
83.34000 38.280
83.36000 31.310
83.38000 35.084
83.40000 33.993
83.42000 34.006
83.44000 35.302
83.46000 36.189
83.48000 27.797
83.50000 26.117
83.52000 23.452
83.54000 25.150
83.56000 27.757
83.58000 23.498
83.60000 25.826
83.62000 23.446
83.64000 28.181
83.66000 24.802
83.68000 15.685
83.70000 14.718
83.72000 18.256
83.74000 17.579
83.76000 16.851
83.78000 16.022
83.80000 14.566
83.82000 13.112
83.84000 17.619
83.86000 13.789
83.88000 10.913
83.90000 14.467
83.92000 8.508
83.94000 7.036
83.96000 6.631
83.98000 6.387
84.00000 5.979
84.02000 8.343
84.04000 8.560
84.06000 6.955
84.08000 6.751
84.10000 7.089
84.12000 11.106
84.14000 9.010
84.16000 6.113
84.18000 8.378
84.20000 3.976
84.22000 -0.488
84.24000 3.500
84.26000 8.281
84.28000 5.764
84.30000 3.325
84.32000 2.958
84.34000 2.323
84.36000 3.382
84.38000 1.781
84.40000 1.151
84.42000 4.184
84.44000 2.988
84.46000 3.653
84.48000 2.331
84.50000 1.889
84.52000 2.800
84.54000 7.092
84.56000 8.443
84.58000 3.230
84.60000 1.147
84.62000 1.274
84.64000 1.408
84.66000 4.091
84.68000 4.299
84.70000 7.862
84.72000 1.352
84.74000 0.841
84.76000 0.603
84.78000 4.249
84.80000 3.876
84.82000 3.514
84.84000 3.311
84.86000 7.399
84.88000 4.152
84.90000 3.244
84.92000 7.597
84.94000 4.952
84.96000 -2.244
84.98000 1.078
85.00000 1.760
85.02000 4.066
85.04000 1.463
85.06000 0.710
85.08000 -0.088
85.10000 -0.466
85.12000 0.278
85.14000 -0.856
85.16000 0.199
85.18000 0.899
85.20000 1.979
85.22000 -2.258
85.24000 3.272
85.26000 2.041
85.28000 0.360
85.30000 -2.262
85.32000 -0.371
85.34000 -0.803
85.36000 -1.709
85.38000 -1.596
85.40000 1.453
85.42000 2.254
85.44000 -1.514
85.46000 -1.205
85.48000 0.173
85.50000 -1.058
85.52000 2.380
85.54000 2.115
85.56000 3.340
85.58000 -1.770
85.60000 -1.881
85.62000 -2.276
85.64000 -0.996
85.66000 0.138
85.68000 2.136
85.70000 0.900
85.72000 0.569
85.74000 -0.739
85.76000 -1.229
85.78000 -2.285
85.80000 -2.212
85.82000 -1.798
85.84000 3.144
85.86000 4.754
85.88000 3.213
85.90000 -0.407
85.92000 -1.737
85.94000 -0.460
85.96000 -2.226
85.98000 -1.819
86.00000 -0.092
86.02000 -0.727
86.04000 -0.314
86.06000 -1.033
86.08000 0.894
86.10000 3.066
86.12000 -0.601
86.14000 -2.317
86.16000 -1.134
86.18000 1.441
86.20000 0.703
86.22000 0.433
86.24000 1.341
86.26000 -1.067
86.28000 0.865
86.30000 2.333
86.32000 2.674
86.34000 4.927
86.36000 2.266
86.38000 1.499
86.40000 3.294
86.42000 3.348
86.44000 1.500
86.46000 1.646
86.48000 6.183
86.50000 5.391
86.52000 2.078
86.54000 2.263
86.56000 5.518
86.58000 9.920
86.60000 9.319
86.62000 9.114
86.64000 13.274
86.66000 13.556
86.68000 5.280
86.70000 6.572
86.72000 7.660
86.74000 13.251
86.76000 19.250
86.78000 18.690
86.80000 17.261
86.82000 17.490
86.84000 18.932
86.86000 20.509
86.88000 16.487
86.90000 20.199
86.92000 21.151
86.94000 26.556
86.96000 27.916
86.98000 22.365
87.00000 24.893
87.02000 31.193
87.04000 27.140
87.06000 33.396
87.08000 30.322
87.10000 27.352
87.12000 29.442
87.14000 26.898
87.16000 31.318
87.18000 36.156
87.20000 35.198
87.22000 34.386
87.24000 32.971
87.26000 30.583
87.28000 33.009
87.30000 32.681
87.32000 31.733
87.34000 34.055
87.36000 34.193
87.38000 33.351
87.40000 36.473
87.42000 39.328
87.44000 37.221
87.46000 33.755
87.48000 32.907
87.50000 29.906
87.52000 31.766
87.54000 29.800
87.56000 27.656
87.58000 30.468
87.60000 31.786
87.62000 32.057
87.64000 31.396
87.66000 28.022
87.68000 28.013
87.70000 26.633
87.72000 25.730
87.74000 21.966
87.76000 22.921
87.78000 15.912
87.80000 18.313
87.82000 23.039
87.84000 25.546
87.86000 22.169
87.88000 16.564
87.90000 18.213
87.92000 12.654
87.94000 10.308
87.96000 14.774
87.98000 16.467
88.00000 19.359
88.02000 20.375
88.04000 14.230
88.06000 11.413
88.08000 11.303
88.10000 7.677
88.12000 7.297
88.14000 9.956
88.16000 8.802
88.18000 7.508
88.20000 6.088
88.22000 2.994
88.24000 3.915
88.26000 4.657
88.28000 5.433
88.30000 7.560
88.32000 5.225
88.34000 3.075
88.36000 1.092
88.38000 2.824
88.40000 4.928
88.42000 2.814
88.44000 0.787
88.46000 2.052
88.48000 0.994
88.50000 1.919
88.52000 1.345
88.54000 3.285
88.56000 -0.377
88.58000 2.755
88.60000 7.166
88.62000 4.763
88.64000 1.508
88.66000 1.703
88.68000 1.419
88.70000 -1.335
88.72000 3.470
88.74000 2.400
88.76000 3.505
88.78000 1.213
88.80000 -0.694
88.82000 -0.428
88.84000 -1.147
88.86000 -2.152
88.88000 3.070
88.90000 -0.812
88.92000 -0.290
88.94000 -0.980
88.96000 4.078
88.98000 4.387
89.00000 0.386
89.02000 2.747
89.04000 -0.533
89.06000 0.124
89.08000 0.022
89.10000 0.135
89.12000 0.868
89.14000 1.398
89.16000 2.223
89.18000 0.403
89.20000 -1.415
89.22000 1.109
89.24000 1.863
89.26000 0.597
89.28000 3.150
89.30000 3.772
89.32000 2.213
89.34000 1.591
89.36000 -0.861
89.38000 -2.072
89.40000 1.846
89.42000 1.872
89.44000 0.037
89.46000 0.479
89.48000 1.607
89.50000 2.130
89.52000 0.791
89.54000 0.586
89.56000 4.316
89.58000 2.221
89.60000 2.460
89.62000 3.065
89.64000 2.157
89.66000 4.480
89.68000 4.067
89.70000 3.549
89.72000 1.030
89.74000 3.019
89.76000 3.284
89.78000 3.369
89.80000 3.036
89.82000 0.343
89.84000 3.798
89.86000 3.285
89.88000 -1.985
89.90000 0.078
89.92000 5.984
89.94000 5.001
89.96000 4.865
89.98000 3.359
90.00000 0.787
90.02000 0.361
90.04000 1.089
90.06000 2.481
90.08000 4.382
90.10000 9.233
90.12000 3.641
90.14000 2.584
90.16000 7.153
90.18000 4.280
90.20000 0.309
90.22000 1.439
90.24000 1.426
90.26000 -0.657
90.28000 1.613
90.30000 2.428
90.32000 0.961
90.34000 1.920
90.36000 4.468
90.38000 1.430
90.40000 2.267
90.42000 5.713
90.44000 1.637
90.46000 3.033
90.48000 4.640
90.50000 5.797
90.52000 1.484
90.54000 1.965
90.56000 4.622
90.58000 3.051
90.60000 1.192
90.62000 5.404
90.64000 4.637
90.66000 0.982
90.68000 1.374
90.70000 5.754
90.72000 3.367
90.74000 1.525
90.76000 1.553
90.78000 1.827
90.80000 6.543
90.82000 2.829
90.84000 2.959
90.86000 0.877
90.88000 1.040
90.90000 2.558
90.92000 7.695
90.94000 6.016
90.96000 3.453
90.98000 0.510
91.00000 -1.057
91.02000 0.728
91.04000 3.731
91.06000 2.347
91.08000 -0.446
91.10000 1.265
91.12000 5.453
91.14000 4.343
91.16000 0.880
91.18000 -0.215
91.20000 0.823
91.22000 1.966
91.24000 1.311
91.26000 -1.971
91.28000 0.117
91.30000 3.000
91.32000 4.897
91.34000 2.195
91.36000 4.047
91.38000 4.987
91.40000 4.383
91.42000 3.051
91.44000 0.861
91.46000 3.571
91.48000 5.495
91.50000 8.874
91.52000 7.016
91.54000 4.609
91.56000 3.205
91.58000 2.761
91.60000 3.831
91.62000 4.374
91.64000 2.936
91.66000 4.263
91.68000 3.490
91.70000 -1.349
91.72000 0.042
91.74000 2.176
91.76000 3.167
91.78000 5.618
91.80000 6.363
91.82000 8.409
91.84000 3.873
91.86000 0.717
91.88000 4.616
91.90000 2.829
91.92000 3.277
91.94000 3.765
91.96000 3.464
91.98000 8.373
92.00000 5.986
92.02000 2.733
92.04000 4.737
92.06000 5.517
92.08000 3.280
92.10000 1.883
92.12000 -1.973
92.14000 5.214
92.16000 4.912
92.18000 2.449
92.20000 5.101
92.22000 1.798
92.24000 1.622
92.26000 1.559
92.28000 4.178
92.30000 5.191
92.32000 1.353
92.34000 2.563
92.36000 5.780
92.38000 2.427
92.40000 4.772
92.42000 3.203
92.44000 1.870
92.46000 4.835
92.48000 1.133
92.50000 2.266
92.52000 5.239
92.54000 6.333
92.56000 5.137
92.58000 5.074
92.60000 1.886
92.62000 3.327
92.64000 2.063
92.66000 2.484
92.68000 2.082
92.70000 1.153
92.72000 0.174
92.74000 -1.997
92.76000 -0.344
92.78000 1.689
92.80000 2.629
92.82000 4.130
92.84000 5.040
92.86000 2.179
92.88000 1.518
92.90000 4.393
92.92000 1.005
92.94000 1.525
92.96000 1.801
92.98000 3.067
93.00000 3.178
93.02000 0.543
93.04000 2.759
93.06000 2.936
93.08000 2.012
93.10000 3.930
93.12000 6.150
93.14000 4.398
93.16000 5.238
93.18000 -1.043
93.20000 2.603
93.22000 1.437
93.24000 1.725
93.26000 3.741
93.28000 5.165
93.30000 1.524
93.32000 1.069
93.34000 0.780
93.36000 -1.890
93.38000 0.676
93.40000 1.919
93.42000 6.078
93.44000 4.490
93.46000 -0.685
93.48000 1.410
93.50000 1.520
93.52000 2.225
93.54000 4.039
93.56000 9.973
93.58000 7.070
93.60000 7.062
93.62000 6.230
93.64000 7.145
93.66000 4.670
93.68000 0.564
93.70000 0.720
93.72000 1.899
93.74000 2.854
93.76000 1.391
93.78000 -2.000
93.80000 -0.475
93.82000 4.601
93.84000 3.357
93.86000 1.478
93.88000 4.732
93.90000 6.810
93.92000 5.691
93.94000 3.371
93.96000 3.465
93.98000 8.051
94.00000 4.064
94.02000 2.812
94.04000 0.919
94.06000 -0.031
94.08000 0.393
94.10000 -0.099
94.12000 3.101
94.14000 3.096
94.16000 1.829
94.18000 7.017
94.20000 8.045
94.22000 10.924
94.24000 10.087
94.26000 5.772
94.28000 4.007
94.30000 2.434
94.32000 7.340
94.34000 6.939
94.36000 1.768
94.38000 0.219
94.40000 -0.420
94.42000 0.395
94.44000 -1.987
94.46000 2.961
94.48000 10.097
94.50000 7.610
94.52000 5.696
94.54000 6.079
94.56000 5.721
94.58000 3.031
94.60000 1.817
94.62000 4.034
94.64000 5.497
94.66000 5.910
94.68000 5.705
94.70000 2.869
94.72000 2.066
94.74000 2.549
94.76000 -0.311
94.78000 1.540
94.80000 3.334
94.82000 4.785
94.84000 5.683
94.86000 6.720
94.88000 4.717
94.90000 4.094
94.92000 6.000
94.94000 -0.488
94.96000 -1.967
94.98000 -0.401
95.00000 3.088
95.02000 5.867
95.04000 7.286
95.06000 2.934
95.08000 3.476
95.10000 2.093
95.12000 7.809
95.14000 1.478
95.16000 3.657
95.18000 3.215
95.20000 5.610
95.22000 8.150
95.24000 8.757
95.26000 4.115
95.28000 4.798
95.30000 6.690
95.32000 1.494
95.34000 5.771
95.36000 6.003
95.38000 2.846
95.40000 0.380
95.42000 1.956
95.44000 -0.060
95.46000 1.382
95.48000 3.571
95.50000 0.764
95.52000 0.779
95.54000 2.429
95.56000 -0.513
95.58000 -1.032
95.60000 1.170
95.62000 3.503
95.64000 4.465
95.66000 3.320
95.68000 2.055
95.70000 -0.125
95.72000 -0.931
95.74000 1.499
95.76000 2.197
95.78000 2.807
95.80000 3.891
95.82000 1.805
95.84000 -1.070
95.86000 -0.729
95.88000 2.070
95.90000 3.219
95.92000 4.610
95.94000 7.693
95.96000 2.519
95.98000 2.772
96.00000 0.760
96.02000 4.658
96.04000 14.370
96.06000 8.482
96.08000 1.545
96.10000 1.358
96.12000 6.329
96.14000 3.689
96.16000 0.264
96.18000 0.880
96.20000 3.981
96.22000 6.702
96.24000 -1.146
96.26000 0.252
96.28000 9.882
96.30000 10.310
96.32000 2.498
96.34000 7.291
96.36000 10.566
96.38000 5.880
96.40000 4.015
96.42000 6.005
96.44000 2.739
96.46000 0.146
96.48000 1.970
96.50000 4.433
96.52000 2.246
96.54000 -1.994
96.56000 3.131
96.58000 1.968
96.60000 -0.551
96.62000 0.952
96.64000 2.976
96.66000 2.518
96.68000 3.965
96.70000 3.995
96.72000 2.918
96.74000 3.758
96.76000 3.448
96.78000 3.439
96.80000 0.810
96.82000 1.627
96.84000 5.371
96.86000 3.195
96.88000 -1.358
96.90000 2.666
96.92000 4.326
96.94000 3.885
96.96000 0.468
96.98000 7.868
97.00000 6.326
97.02000 5.840
97.04000 7.757
97.06000 4.562
97.08000 1.876
97.10000 8.304
97.12000 4.294
97.14000 2.858
97.16000 1.728
97.18000 1.355
97.20000 4.508
97.22000 6.932
97.24000 6.216
97.26000 2.836
97.28000 4.464
97.30000 4.517
97.32000 2.425
97.34000 0.779
97.36000 1.613
97.38000 6.284
97.40000 3.741
97.42000 3.863
97.44000 4.535
97.46000 2.994
97.48000 6.093
97.50000 4.210
97.52000 5.445
97.54000 6.406
97.56000 7.078
97.58000 4.349
97.60000 3.521
97.62000 -1.987
97.64000 2.230
97.66000 3.517
97.68000 2.561
97.70000 2.896
97.72000 5.834
97.74000 4.497
97.76000 4.925
97.78000 4.973
97.80000 5.978
97.82000 6.191
97.84000 6.417
97.86000 2.546
97.88000 0.069
97.90000 3.989
97.92000 1.375
97.94000 3.459
97.96000 1.856
97.98000 -0.280
98.00000 5.282
98.02000 6.192
98.04000 3.116
98.06000 6.975
98.08000 8.291
98.10000 6.765
98.12000 1.035
98.14000 1.305
98.16000 2.219
98.18000 4.963
98.20000 1.412
98.22000 -1.162
98.24000 7.081
98.26000 3.433
98.28000 -1.937
98.30000 1.324
98.32000 8.202
98.34000 5.271
98.36000 3.375
98.38000 3.757
98.40000 5.694
98.42000 5.436
98.44000 14.250
98.46000 8.503
98.48000 8.621
98.50000 11.066
98.52000 8.236
98.54000 3.194
98.56000 4.974
98.58000 2.034
98.60000 1.197
98.62000 -0.855
98.64000 2.962
98.66000 3.788
98.68000 8.732
98.70000 4.762
98.72000 4.131
98.74000 4.365
98.76000 7.180
98.78000 5.895
98.80000 2.560
98.82000 3.428
98.84000 0.809
98.86000 -1.591
98.88000 2.275
98.90000 6.297
98.92000 -0.267
98.94000 -1.327
98.96000 4.829
98.98000 4.772
99.00000 2.902
99.02000 1.274
99.04000 5.957
99.06000 2.803
99.08000 2.472
99.10000 10.897
99.12000 7.819
99.14000 8.338
99.16000 7.416
99.18000 3.118
99.20000 5.843
99.22000 5.120
99.24000 7.952
99.26000 6.519
99.28000 7.533
99.30000 4.432
99.32000 8.683
99.34000 8.819
99.36000 7.480
99.38000 7.234
99.40000 4.375
99.42000 8.211
99.44000 1.352
99.46000 -2.104
99.48000 8.611
99.50000 14.067
99.52000 6.046
99.54000 8.865
99.56000 7.807
99.58000 13.854
99.60000 9.533
99.62000 3.490
99.64000 2.987
99.66000 6.015
99.68000 5.393
99.70000 9.637
99.72000 5.963
99.74000 -1.807
99.76000 3.733
99.78000 14.061
99.80000 15.061
99.82000 11.866
99.84000 0.893
99.86000 5.288
99.88000 6.476
99.90000 -2.261
99.92000 2.244
99.94000 6.109
99.96000 3.439
99.98000 0.000
