'Id: "0011387" Comment: "Integrate frame 0011387_Au-Ir-Rh_Rh-rich_XRD-Mapping-004-0000.gfrmwith cursor Wedge Cursor #5" Operator: "B?rgel" Anode: "Cu" Wavelength: "1.5406" Scantype: "2Theta (TwoTheta)" TimePerStep: "1" X: "-4.5" Y: "-40.5" Z: "5.95" 
10.00000 0.000
10.02000 -4.909
10.04000 11.212
10.06000 7.742
10.08000 -4.323
10.10000 5.445
10.12000 16.061
10.14000 -11.434
10.16000 5.343
10.18000 6.726
10.20000 19.498
10.22000 10.633
10.24000 3.510
10.26000 25.919
10.28000 30.445
10.30000 34.768
10.32000 34.590
10.34000 7.998
10.36000 6.423
10.38000 -4.637
10.40000 6.065
10.42000 33.682
10.44000 15.967
10.46000 10.328
10.48000 14.972
10.50000 13.344
10.52000 37.383
10.54000 34.091
10.56000 35.194
10.58000 25.163
10.60000 25.272
10.62000 27.851
10.64000 16.541
10.66000 8.031
10.68000 14.833
10.70000 2.832
10.72000 12.688
10.74000 22.248
10.76000 26.799
10.78000 11.463
10.80000 6.961
10.82000 24.661
10.84000 16.246
10.86000 -3.256
10.88000 9.580
10.90000 19.593
10.92000 6.203
10.94000 26.276
10.96000 32.267
10.98000 27.581
11.00000 43.081
11.02000 29.418
11.04000 18.733
11.06000 6.515
11.08000 6.956
11.10000 23.048
11.12000 20.829
11.14000 25.751
11.16000 26.412
11.18000 14.332
11.20000 16.555
11.22000 5.793
11.24000 3.607
11.26000 7.223
11.28000 21.432
11.30000 29.653
11.32000 22.167
11.34000 18.765
11.36000 39.834
11.38000 24.829
11.40000 26.379
11.42000 34.841
11.44000 21.436
11.46000 6.823
11.48000 1.620
11.50000 8.825
11.52000 20.060
11.54000 21.340
11.56000 34.308
11.58000 27.261
11.60000 29.424
11.62000 9.594
11.64000 15.564
11.66000 9.563
11.68000 13.015
11.70000 18.922
11.72000 26.085
11.74000 33.438
11.76000 22.089
11.78000 19.335
11.80000 16.088
11.82000 18.156
11.84000 13.592
11.86000 26.279
11.88000 32.161
11.90000 15.554
11.92000 13.178
11.94000 31.811
11.96000 33.267
11.98000 30.090
12.00000 24.929
12.02000 23.756
12.04000 28.265
12.06000 21.057
12.08000 24.025
12.10000 26.578
12.12000 23.270
12.14000 17.438
12.16000 23.688
12.18000 17.104
12.20000 8.893
12.22000 17.462
12.24000 18.753
12.26000 27.705
12.28000 18.371
12.30000 10.839
12.32000 15.535
12.34000 9.669
12.36000 -0.275
12.38000 -4.746
12.40000 7.379
12.42000 23.940
12.44000 26.882
12.46000 25.735
12.48000 25.310
12.50000 31.218
12.52000 14.210
12.54000 13.958
12.56000 23.185
12.58000 26.131
12.60000 29.097
12.62000 36.243
12.64000 27.444
12.66000 7.709
12.68000 17.631
12.70000 24.496
12.72000 18.317
12.74000 12.375
12.76000 13.687
12.78000 17.470
12.80000 20.705
12.82000 29.494
12.84000 20.476
12.86000 11.899
12.88000 11.652
12.90000 16.114
12.92000 29.688
12.94000 22.300
12.96000 15.771
12.98000 19.864
13.00000 27.367
13.02000 21.843
13.04000 33.660
13.06000 16.057
13.08000 15.444
13.10000 26.613
13.12000 12.683
13.14000 13.607
13.16000 9.749
13.18000 13.431
13.20000 16.768
13.22000 19.106
13.24000 20.152
13.26000 24.222
13.28000 27.077
13.30000 15.803
13.32000 18.849
13.34000 18.594
13.36000 13.749
13.38000 6.554
13.40000 1.937
13.42000 11.992
13.44000 16.186
13.46000 16.780
13.48000 16.508
13.50000 11.229
13.52000 21.384
13.54000 25.672
13.56000 27.744
13.58000 19.533
13.60000 4.199
13.62000 18.777
13.64000 22.076
13.66000 16.721
13.68000 16.662
13.70000 11.656
13.72000 9.150
13.74000 16.284
13.76000 14.351
13.78000 16.998
13.80000 14.073
13.82000 14.248
13.84000 9.383
13.86000 17.663
13.88000 10.044
13.90000 -0.867
13.92000 -4.754
13.94000 2.543
13.96000 18.935
13.98000 11.223
14.00000 1.041
14.02000 7.919
14.04000 19.574
14.06000 18.804
14.08000 20.693
14.10000 16.599
14.12000 14.328
14.14000 14.201
14.16000 13.867
14.18000 8.430
14.20000 8.769
14.22000 12.575
14.24000 14.907
14.26000 9.121
14.28000 8.020
14.30000 11.772
14.32000 6.119
14.34000 7.951
14.36000 9.005
14.38000 8.084
14.40000 14.338
14.42000 18.635
14.44000 8.838
14.46000 13.845
14.48000 13.092
14.50000 6.028
14.52000 10.698
14.54000 7.855
14.56000 5.452
14.58000 3.265
14.60000 6.446
14.62000 14.616
14.64000 18.529
14.66000 11.816
14.68000 4.470
14.70000 7.322
14.72000 12.642
14.74000 17.719
14.76000 16.660
14.78000 11.747
14.80000 13.421
14.82000 19.049
14.84000 12.070
14.86000 14.486
14.88000 5.209
14.90000 1.837
14.92000 13.835
14.94000 15.596
14.96000 3.541
14.98000 3.196
15.00000 9.890
15.02000 6.077
15.04000 4.476
15.06000 9.709
15.08000 7.537
15.10000 8.186
15.12000 11.802
15.14000 13.760
15.16000 10.341
15.18000 5.455
15.20000 10.198
15.22000 13.234
15.24000 20.441
15.26000 21.985
15.28000 10.169
15.30000 -4.746
15.32000 4.616
15.34000 18.937
15.36000 18.347
15.38000 20.227
15.40000 11.347
15.42000 1.771
15.44000 1.179
15.46000 7.956
15.48000 6.976
15.50000 -3.926
15.52000 1.404
15.54000 14.435
15.56000 9.886
15.58000 13.205
15.60000 14.418
15.62000 7.430
15.64000 13.184
15.66000 5.857
15.68000 4.687
15.70000 18.721
15.72000 15.468
15.74000 17.583
15.76000 9.304
15.78000 8.373
15.80000 11.027
15.82000 9.321
15.84000 20.829
15.86000 15.429
15.88000 8.099
15.90000 4.977
15.92000 8.521
15.94000 12.911
15.96000 11.960
15.98000 6.523
16.00000 12.446
16.02000 15.284
16.04000 17.492
16.06000 14.030
16.08000 6.560
16.10000 19.097
16.12000 15.939
16.14000 1.781
16.16000 6.590
16.18000 15.316
16.20000 13.902
16.22000 12.292
16.24000 9.835
16.26000 11.064
16.28000 7.980
16.30000 8.709
16.32000 9.931
16.34000 3.611
16.36000 0.105
16.38000 -2.704
16.40000 6.869
16.42000 6.818
16.44000 5.043
16.46000 9.567
16.48000 7.926
16.50000 5.899
16.52000 4.458
16.54000 10.146
16.56000 11.326
16.58000 8.857
16.60000 5.734
16.62000 10.531
16.64000 7.125
16.66000 6.292
16.68000 2.166
16.70000 3.440
16.72000 3.585
16.74000 5.618
16.76000 12.291
16.78000 15.425
16.80000 15.632
16.82000 16.942
16.84000 10.130
16.86000 6.129
16.88000 4.147
16.90000 0.974
16.92000 1.309
16.94000 -2.195
16.96000 5.293
16.98000 16.294
17.00000 4.599
17.02000 -2.468
17.04000 -4.661
17.06000 5.072
17.08000 9.122
17.10000 7.145
17.12000 12.883
17.14000 11.168
17.16000 6.180
17.18000 11.569
17.20000 15.733
17.22000 18.454
17.24000 9.826
17.26000 7.139
17.28000 2.628
17.30000 -0.354
17.32000 9.555
17.34000 13.186
17.36000 13.608
17.38000 12.175
17.40000 9.635
17.42000 14.410
17.44000 16.808
17.46000 7.133
17.48000 11.408
17.50000 8.574
17.52000 5.421
17.54000 -2.950
17.56000 -2.597
17.58000 6.617
17.60000 6.491
17.62000 4.123
17.64000 4.386
17.66000 10.327
17.68000 10.865
17.70000 1.103
17.72000 2.257
17.74000 6.389
17.76000 0.058
17.78000 4.345
17.80000 9.539
17.82000 5.329
17.84000 0.036
17.86000 9.043
17.88000 8.859
17.90000 8.989
17.92000 13.027
17.94000 9.686
17.96000 10.614
17.98000 5.555
18.00000 1.131
18.02000 5.228
18.04000 8.878
18.06000 11.940
18.08000 2.722
18.10000 0.570
18.12000 -1.207
18.14000 3.408
18.16000 5.140
18.18000 12.884
18.20000 14.400
18.22000 10.475
18.24000 -0.269
18.26000 -4.565
18.28000 10.219
18.30000 21.455
18.32000 9.666
18.34000 7.679
18.36000 4.618
18.38000 12.802
18.40000 13.942
18.42000 8.855
18.44000 14.962
18.46000 20.786
18.48000 9.980
18.50000 8.017
18.52000 7.912
18.54000 10.251
18.56000 9.649
18.58000 5.313
18.60000 6.033
18.62000 12.349
18.64000 18.964
18.66000 11.299
18.68000 9.406
18.70000 10.786
18.72000 11.637
18.74000 7.559
18.76000 -4.307
18.78000 3.184
18.80000 7.248
18.82000 13.573
18.84000 11.582
18.86000 13.692
18.88000 9.952
18.90000 6.822
18.92000 12.142
18.94000 8.054
18.96000 5.441
18.98000 8.575
19.00000 9.067
19.02000 0.833
19.04000 6.910
19.06000 8.354
19.08000 9.993
19.10000 12.117
19.12000 11.220
19.14000 12.052
19.16000 10.970
19.18000 11.890
19.20000 7.680
19.22000 12.196
19.24000 13.941
19.26000 12.024
19.28000 2.399
19.30000 -4.461
19.32000 3.546
19.34000 10.914
19.36000 8.216
19.38000 15.521
19.40000 18.104
19.42000 6.985
19.44000 14.011
19.46000 4.244
19.48000 -0.176
19.50000 0.352
19.52000 2.830
19.54000 10.316
19.56000 9.824
19.58000 5.998
19.60000 13.165
19.62000 10.279
19.64000 7.819
19.66000 3.996
19.68000 4.887
19.70000 -2.349
19.72000 -0.373
19.74000 7.253
19.76000 10.761
19.78000 10.666
19.80000 6.713
19.82000 -0.568
19.84000 -1.246
19.86000 5.111
19.88000 9.261
19.90000 9.036
19.92000 11.075
19.94000 8.991
19.96000 3.191
19.98000 3.173
20.00000 2.777
20.02000 4.022
20.04000 0.671
20.06000 6.530
20.08000 9.459
20.10000 10.153
20.12000 8.265
20.14000 5.910
20.16000 0.824
20.18000 5.640
20.20000 1.912
20.22000 0.387
20.24000 4.667
20.26000 6.339
20.28000 3.941
20.30000 6.827
20.32000 13.012
20.34000 10.893
20.36000 9.608
20.38000 7.530
20.40000 0.159
20.42000 -0.477
20.44000 4.008
20.46000 4.655
20.48000 5.521
20.50000 8.783
20.52000 5.822
20.54000 4.792
20.56000 6.423
20.58000 11.024
20.60000 12.669
20.62000 4.532
20.64000 -1.620
20.66000 -4.430
20.68000 0.481
20.70000 1.404
20.72000 1.946
20.74000 2.611
20.76000 7.284
20.78000 6.718
20.80000 10.496
20.82000 14.127
20.84000 7.099
20.86000 4.173
20.88000 4.536
20.90000 5.141
20.92000 7.082
20.94000 4.710
20.96000 7.965
20.98000 10.978
21.00000 7.114
21.02000 4.066
21.04000 7.244
21.06000 3.830
21.08000 0.893
21.10000 1.568
21.12000 3.173
21.14000 1.429
21.16000 7.527
21.18000 11.201
21.20000 4.697
21.22000 2.266
21.24000 5.767
21.26000 1.895
21.28000 8.853
21.30000 4.996
21.32000 0.250
21.34000 3.606
21.36000 -4.381
21.38000 -0.638
21.40000 3.143
21.42000 -0.725
21.44000 -3.400
21.46000 4.336
21.48000 5.602
21.50000 5.588
21.52000 7.385
21.54000 6.506
21.56000 1.310
21.58000 2.507
21.60000 12.331
21.62000 5.792
21.64000 6.674
21.66000 6.114
21.68000 6.999
21.70000 2.883
21.72000 3.806
21.74000 8.345
21.76000 8.811
21.78000 3.142
21.80000 0.239
21.82000 2.883
21.84000 7.853
21.86000 10.242
21.88000 12.771
21.90000 9.580
21.92000 4.276
21.94000 4.820
21.96000 -1.220
21.98000 -4.329
22.00000 4.953
22.02000 9.940
22.04000 4.726
22.06000 6.859
22.08000 8.057
22.10000 1.516
22.12000 2.615
22.14000 6.301
22.16000 3.090
22.18000 -4.313
22.20000 6.135
22.22000 7.979
22.24000 4.057
22.26000 1.668
22.28000 7.423
22.30000 11.816
22.32000 11.709
22.34000 5.842
22.36000 -0.601
22.38000 -1.017
22.40000 6.722
22.42000 7.400
22.44000 4.193
22.46000 8.059
22.48000 5.806
22.50000 1.126
22.52000 -4.169
22.54000 0.431
22.56000 5.510
22.58000 10.844
22.60000 14.103
22.62000 7.669
22.64000 -0.216
22.66000 0.303
22.68000 4.835
22.70000 -4.297
22.72000 -1.173
22.74000 8.043
22.76000 8.325
22.78000 2.774
22.80000 4.953
22.82000 4.311
22.84000 9.523
22.86000 7.382
22.88000 5.898
22.90000 0.831
22.92000 9.698
22.94000 2.169
22.96000 7.145
22.98000 8.325
23.00000 1.095
23.02000 3.890
23.04000 5.074
23.06000 0.222
23.08000 4.603
23.10000 5.616
23.12000 2.168
23.14000 3.902
23.16000 8.102
23.18000 11.074
23.20000 -2.170
23.22000 1.323
23.24000 4.705
23.26000 0.846
23.28000 3.082
23.30000 12.642
23.32000 6.896
23.34000 0.444
23.36000 6.016
23.38000 10.327
23.40000 3.486
23.42000 2.780
23.44000 3.416
23.46000 3.922
23.48000 -0.195
23.50000 -0.634
23.52000 3.212
23.54000 0.427
23.56000 3.326
23.58000 3.456
23.60000 2.528
23.62000 6.150
23.64000 5.887
23.66000 -0.035
23.68000 0.822
23.70000 1.701
23.72000 3.166
23.74000 5.028
23.76000 7.647
23.78000 8.323
23.80000 5.866
23.82000 8.491
23.84000 8.508
23.86000 5.254
23.88000 5.675
23.90000 6.210
23.92000 0.596
23.94000 0.978
23.96000 0.451
23.98000 5.514
24.00000 4.773
24.02000 -1.876
24.04000 -2.506
24.06000 -0.215
24.08000 -2.715
24.10000 -0.503
24.12000 -2.339
24.14000 -0.170
24.16000 -2.218
24.18000 -1.481
24.20000 5.188
24.22000 4.567
24.24000 3.225
24.26000 2.571
24.28000 3.362
24.30000 3.341
24.32000 3.029
24.34000 -0.716
24.36000 0.650
24.38000 8.565
24.40000 5.948
24.42000 0.178
24.44000 -1.928
24.46000 -2.383
24.48000 3.213
24.50000 0.945
24.52000 3.934
24.54000 10.345
24.56000 4.949
24.58000 1.775
24.60000 5.158
24.62000 5.076
24.64000 3.524
24.66000 0.211
24.68000 0.627
24.70000 5.683
24.72000 9.326
24.74000 3.490
24.76000 -1.539
24.78000 -0.781
24.80000 4.707
24.82000 3.739
24.84000 -0.344
24.86000 -4.151
24.88000 7.779
24.90000 11.973
24.92000 5.778
24.94000 4.086
24.96000 4.354
24.98000 5.200
25.00000 0.589
25.02000 -0.725
25.04000 3.145
25.06000 3.754
25.08000 4.809
25.10000 5.221
25.12000 4.604
25.14000 4.841
25.16000 1.295
25.18000 -0.664
25.20000 1.454
25.22000 3.638
25.24000 3.312
25.26000 8.253
25.28000 6.768
25.30000 3.408
25.32000 1.257
25.34000 -0.270
25.36000 6.052
25.38000 2.615
25.40000 0.956
25.42000 6.660
25.44000 7.447
25.46000 2.679
25.48000 1.901
25.50000 1.804
25.52000 -3.485
25.54000 -3.576
25.56000 -0.723
25.58000 7.411
25.60000 5.571
25.62000 -4.135
25.64000 0.119
25.66000 -2.541
25.68000 -0.688
25.70000 -0.029
25.72000 3.499
25.74000 0.621
25.76000 3.047
25.78000 1.649
25.80000 0.031
25.82000 -0.333
25.84000 -0.570
25.86000 1.477
25.88000 6.537
25.90000 6.386
25.92000 11.142
25.94000 6.195
25.96000 3.036
25.98000 2.496
26.00000 3.581
26.02000 4.758
26.04000 -0.625
26.06000 -0.326
26.08000 8.539
26.10000 8.699
26.12000 1.511
26.14000 -2.067
26.16000 5.642
26.18000 12.054
26.20000 7.654
26.22000 8.371
26.24000 8.006
26.26000 3.284
26.28000 2.245
26.30000 3.658
26.32000 0.782
26.34000 5.438
26.36000 10.024
26.38000 7.555
26.40000 9.715
26.42000 4.069
26.44000 2.356
26.46000 1.388
26.48000 5.425
26.50000 4.483
26.52000 1.412
26.54000 4.616
26.56000 6.514
26.58000 7.363
26.60000 8.181
26.62000 1.183
26.64000 5.529
26.66000 9.654
26.68000 5.747
26.70000 3.971
26.72000 5.416
26.74000 3.910
26.76000 -0.117
26.78000 3.848
26.80000 4.689
26.82000 5.568
26.84000 10.013
26.86000 8.995
26.88000 5.543
26.90000 6.308
26.92000 4.943
26.94000 12.240
26.96000 7.866
26.98000 3.327
27.00000 2.511
27.02000 8.656
27.04000 9.966
27.06000 6.391
27.08000 -4.011
27.10000 -0.737
27.12000 3.042
27.14000 4.228
27.16000 8.137
27.18000 2.610
27.20000 5.857
27.22000 7.884
27.24000 -0.041
27.26000 -0.704
27.28000 4.337
27.30000 8.457
27.32000 9.905
27.34000 4.670
27.36000 7.613
27.38000 6.532
27.40000 8.095
27.42000 6.096
27.44000 0.933
27.46000 4.415
27.48000 4.011
27.50000 0.362
27.52000 0.681
27.54000 1.157
27.56000 7.223
27.58000 9.834
27.60000 7.344
27.62000 2.704
27.64000 2.449
27.66000 0.556
27.68000 0.256
27.70000 7.791
27.72000 6.461
27.74000 11.824
27.76000 11.917
27.78000 5.042
27.80000 2.266
27.82000 4.141
27.84000 4.632
27.86000 8.035
27.88000 0.578
27.90000 -2.850
27.92000 2.063
27.94000 -0.678
27.96000 -4.013
27.98000 1.931
28.00000 6.175
28.02000 -3.310
28.04000 -3.098
28.06000 -4.011
28.08000 -1.655
28.10000 2.054
28.12000 -2.700
28.14000 -4.009
28.16000 -2.896
28.18000 -2.199
28.20000 4.157
28.22000 -1.713
28.24000 -2.923
28.26000 -2.006
28.28000 0.604
28.30000 3.852
28.32000 2.776
28.34000 2.352
28.36000 0.554
28.38000 1.755
28.40000 2.713
28.42000 -1.667
28.44000 -1.531
28.46000 2.329
28.48000 0.985
28.50000 3.634
28.52000 4.761
28.54000 5.464
28.56000 8.714
28.58000 1.214
28.60000 -0.561
28.62000 -1.816
28.64000 -1.983
28.66000 0.344
28.68000 1.023
28.70000 4.083
28.72000 2.621
28.74000 1.314
28.76000 2.565
28.78000 6.911
28.80000 -2.602
28.82000 -0.592
28.84000 0.961
28.86000 1.408
28.88000 3.695
28.90000 1.141
28.92000 4.647
28.94000 5.016
28.96000 3.583
28.98000 6.856
29.00000 3.853
29.02000 2.174
29.04000 1.405
29.06000 -1.568
29.08000 -1.129
29.10000 2.611
29.12000 -0.561
29.14000 4.815
29.16000 2.384
29.18000 7.067
29.20000 4.983
29.22000 5.508
29.24000 4.755
29.26000 3.945
29.28000 6.607
29.30000 -1.213
29.32000 2.539
29.34000 2.204
29.36000 1.396
29.38000 -1.515
29.40000 1.225
29.42000 9.151
29.44000 11.840
29.46000 10.982
29.48000 6.544
29.50000 2.177
29.52000 0.934
29.54000 -1.281
29.56000 9.994
29.58000 5.459
29.60000 0.818
29.62000 3.297
29.64000 8.098
29.66000 9.911
29.68000 7.521
29.70000 11.310
29.72000 11.434
29.74000 4.968
29.76000 3.636
29.78000 3.153
29.80000 3.669
29.82000 4.796
29.84000 6.027
29.86000 6.347
29.88000 11.624
29.90000 8.504
29.92000 6.964
29.94000 2.193
29.96000 -3.865
29.98000 -2.449
30.00000 -1.038
30.02000 6.943
30.04000 5.884
30.06000 0.596
30.08000 2.536
30.10000 -0.941
30.12000 0.544
30.14000 3.299
30.16000 5.718
30.18000 7.786
30.20000 0.930
30.22000 3.222
30.24000 -1.107
30.26000 2.259
30.28000 5.780
30.30000 3.926
30.32000 -0.710
30.34000 5.412
30.36000 4.829
30.38000 5.154
30.40000 7.132
30.42000 4.437
30.44000 0.545
30.46000 0.870
30.48000 5.320
30.50000 8.746
30.52000 3.915
30.54000 0.382
30.56000 4.139
30.58000 6.451
30.60000 0.261
30.62000 1.603
30.64000 3.837
30.66000 7.814
30.68000 8.044
30.70000 4.594
30.72000 -1.330
30.74000 5.580
30.76000 10.763
30.78000 8.695
30.80000 3.705
30.82000 0.789
30.84000 -0.419
30.86000 1.600
30.88000 -1.665
30.90000 0.954
30.92000 1.956
30.94000 -3.118
30.96000 5.835
30.98000 3.836
31.00000 8.511
31.02000 5.177
31.04000 0.549
31.06000 0.206
31.08000 0.595
31.10000 2.416
31.12000 2.626
31.14000 3.822
31.16000 1.230
31.18000 2.602
31.20000 0.261
31.22000 1.670
31.24000 -1.231
31.26000 -1.934
31.28000 -0.955
31.30000 3.140
31.32000 3.055
31.34000 2.111
31.36000 9.072
31.38000 4.576
31.40000 3.117
31.42000 -0.777
31.44000 -3.165
31.46000 0.284
31.48000 4.338
31.50000 4.277
31.52000 0.625
31.54000 4.023
31.56000 5.280
31.58000 3.676
31.60000 5.157
31.62000 2.694
31.64000 4.400
31.66000 1.298
31.68000 4.186
31.70000 4.934
31.72000 -0.707
31.74000 0.356
31.76000 -0.808
31.78000 1.332
31.80000 4.611
31.82000 6.660
31.84000 2.428
31.86000 -1.000
31.88000 -3.402
31.90000 -0.746
31.92000 -0.280
31.94000 4.295
31.96000 5.435
31.98000 11.358
32.00000 11.601
32.02000 6.654
32.04000 6.354
32.06000 5.315
32.08000 5.847
32.10000 6.307
32.12000 7.244
32.14000 0.952
32.16000 3.890
32.18000 -3.061
32.20000 -3.796
32.22000 -0.306
32.24000 3.473
32.26000 7.396
32.28000 7.017
32.30000 5.254
32.32000 5.303
32.34000 2.495
32.36000 -0.167
32.38000 -2.748
32.40000 -1.109
32.42000 3.788
32.44000 7.038
32.46000 1.714
32.48000 2.881
32.50000 5.906
32.52000 3.733
32.54000 7.268
32.56000 9.840
32.58000 9.763
32.60000 6.272
32.62000 7.835
32.64000 6.906
32.66000 4.767
32.68000 7.909
32.70000 4.802
32.72000 4.493
32.74000 9.562
32.76000 9.764
32.78000 5.619
32.80000 5.428
32.82000 3.565
32.84000 2.762
32.86000 -3.740
32.88000 0.162
32.90000 4.241
32.92000 5.919
32.94000 0.257
32.96000 -1.668
32.98000 5.785
33.00000 4.679
33.02000 6.809
33.04000 1.419
33.06000 0.712
33.08000 4.851
33.10000 5.159
33.12000 0.523
33.14000 1.354
33.16000 6.214
33.18000 6.167
33.20000 2.539
33.22000 7.254
33.24000 3.815
33.26000 3.188
33.28000 6.812
33.30000 8.668
33.32000 9.230
33.34000 7.742
33.36000 5.664
33.38000 2.194
33.40000 0.899
33.42000 5.610
33.44000 7.518
33.46000 5.788
33.48000 9.095
33.50000 6.060
33.52000 5.502
33.54000 4.438
33.56000 -0.333
33.58000 -2.115
33.60000 -0.517
33.62000 3.005
33.64000 3.353
33.66000 -0.767
33.68000 4.492
33.70000 10.866
33.72000 14.579
33.74000 12.794
33.76000 10.651
33.78000 4.286
33.80000 1.219
33.82000 4.903
33.84000 1.930
33.86000 -0.952
33.88000 2.082
33.90000 -0.814
33.92000 4.573
33.94000 4.410
33.96000 2.375
33.98000 4.609
34.00000 4.315
34.02000 5.191
34.04000 2.359
34.06000 1.900
34.08000 6.664
34.10000 7.129
34.12000 11.269
34.14000 8.616
34.16000 -3.011
34.18000 1.845
34.20000 6.395
34.22000 5.441
34.24000 2.805
34.26000 3.108
34.28000 3.954
34.30000 -3.702
34.32000 -0.943
34.34000 6.413
34.36000 8.829
34.38000 3.078
34.40000 4.901
34.42000 2.645
34.44000 2.444
34.46000 3.172
34.48000 6.644
34.50000 7.603
34.52000 2.218
34.54000 0.448
34.56000 2.991
34.58000 3.188
34.60000 3.355
34.62000 3.377
34.64000 8.644
34.66000 3.257
34.68000 2.975
34.70000 4.635
34.72000 5.872
34.74000 5.279
34.76000 2.254
34.78000 4.979
34.80000 1.350
34.82000 2.992
34.84000 2.138
34.86000 3.219
34.88000 -0.243
34.90000 4.133
34.92000 1.986
34.94000 1.558
34.96000 3.258
34.98000 2.749
35.00000 1.006
35.02000 3.706
35.04000 -3.549
35.06000 -3.664
35.08000 2.045
35.10000 -0.037
35.12000 6.527
35.14000 8.545
35.16000 5.990
35.18000 1.249
35.20000 0.678
35.22000 0.042
35.24000 -3.656
35.26000 0.087
35.28000 7.983
35.30000 6.313
35.32000 -1.405
35.34000 -1.436
35.36000 -0.988
35.38000 -0.804
35.40000 5.361
35.42000 -0.099
35.44000 -3.472
35.46000 -1.088
35.48000 7.103
35.50000 9.291
35.52000 1.868
35.54000 1.232
35.56000 2.014
35.58000 1.467
35.60000 1.042
35.62000 2.642
35.64000 0.901
35.66000 -2.021
35.68000 -1.756
35.70000 3.504
35.72000 4.646
35.74000 4.889
35.76000 2.800
35.78000 7.284
35.80000 1.972
35.82000 -0.339
35.84000 4.704
35.86000 4.101
35.88000 -1.678
35.90000 0.166
35.92000 4.416
35.94000 7.201
35.96000 0.639
35.98000 1.176
36.00000 2.723
36.02000 1.129
36.04000 -0.474
36.06000 1.176
36.08000 2.957
36.10000 1.483
36.12000 2.799
36.14000 2.674
36.16000 1.972
36.18000 3.594
36.20000 7.335
36.22000 5.444
36.24000 3.643
36.26000 2.249
36.28000 3.381
36.30000 5.531
36.32000 2.868
36.34000 -3.634
36.36000 -2.981
36.38000 0.444
36.40000 -3.400
36.42000 4.512
36.44000 6.590
36.46000 6.065
36.48000 6.030
36.50000 9.094
36.52000 7.162
36.54000 4.086
36.56000 -0.190
36.58000 3.512
36.60000 6.081
36.62000 4.793
36.64000 4.507
36.66000 2.970
36.68000 5.322
36.70000 5.651
36.72000 4.403
36.74000 2.500
36.76000 3.051
36.78000 1.634
36.80000 0.645
36.82000 0.690
36.84000 1.933
36.86000 2.534
36.88000 5.366
36.90000 3.215
36.92000 5.131
36.94000 6.528
36.96000 7.050
36.98000 2.483
37.00000 -1.644
37.02000 -1.577
37.04000 0.156
37.06000 1.529
37.08000 0.698
37.10000 4.672
37.12000 8.454
37.14000 7.839
37.16000 5.308
37.18000 3.668
37.20000 0.886
37.22000 0.266
37.24000 2.167
37.26000 3.008
37.28000 3.736
37.30000 -3.651
37.32000 -0.515
37.34000 -1.723
37.36000 0.213
37.38000 -1.236
37.40000 -0.015
37.42000 6.468
37.44000 9.995
37.46000 12.377
37.48000 4.239
37.50000 -0.718
37.52000 -3.532
37.54000 -2.958
37.56000 3.754
37.58000 7.610
37.60000 7.393
37.62000 5.974
37.64000 3.973
37.66000 2.096
37.68000 1.780
37.70000 0.922
37.72000 4.422
37.74000 3.817
37.76000 -1.206
37.78000 -1.262
37.80000 1.231
37.82000 4.353
37.84000 7.186
37.86000 4.442
37.88000 6.247
37.90000 0.867
37.92000 4.219
37.94000 1.735
37.96000 -3.749
37.98000 1.239
38.00000 2.380
38.02000 3.100
38.04000 4.157
38.06000 4.950
38.08000 2.708
38.10000 3.699
38.12000 5.929
38.14000 6.907
38.16000 6.705
38.18000 6.707
38.20000 8.883
38.22000 15.657
38.24000 7.993
38.26000 7.809
38.28000 11.540
38.30000 13.136
38.32000 10.866
38.34000 13.420
38.36000 8.437
38.38000 12.778
38.40000 8.950
38.42000 11.177
38.44000 12.688
38.46000 15.964
38.48000 11.437
38.50000 10.279
38.52000 14.694
38.54000 19.627
38.56000 19.361
38.58000 13.153
38.60000 11.077
38.62000 21.067
38.64000 21.110
38.66000 18.264
38.68000 14.688
38.70000 20.094
38.72000 17.076
38.74000 20.782
38.76000 21.881
38.78000 22.983
38.80000 24.538
38.82000 23.712
38.84000 26.273
38.86000 26.333
38.88000 21.187
38.90000 27.570
38.92000 32.895
38.94000 32.519
38.96000 30.164
38.98000 29.575
39.00000 29.387
39.02000 27.989
39.04000 32.614
39.06000 34.634
39.08000 34.846
39.10000 32.703
39.12000 36.251
39.14000 37.701
39.16000 35.429
39.18000 36.855
39.20000 42.843
39.22000 40.127
39.24000 43.110
39.26000 47.786
39.28000 43.620
39.30000 44.923
39.32000 52.856
39.34000 57.465
39.36000 59.590
39.38000 59.405
39.40000 60.745
39.42000 65.522
39.44000 68.090
39.46000 72.086
39.48000 78.031
39.50000 83.324
39.52000 87.361
39.54000 87.885
39.56000 97.644
39.58000 104.434
39.60000 106.690
39.62000 115.002
39.64000 119.840
39.66000 127.380
39.68000 138.752
39.70000 150.003
39.72000 156.753
39.74000 168.734
39.76000 176.826
39.78000 190.669
39.80000 201.553
39.82000 222.246
39.84000 232.732
39.86000 247.993
39.88000 273.155
39.90000 301.489
39.92000 320.864
39.94000 339.173
39.96000 362.057
39.98000 388.632
40.00000 421.387
40.02000 453.429
40.04000 494.281
40.06000 523.744
40.08000 572.783
40.10000 613.798
40.12000 654.885
40.14000 707.909
40.16000 758.167
40.18000 808.422
40.20000 868.276
40.22000 921.144
40.24000 977.627
40.26000 1041.960
40.28000 1089.875
40.30000 1133.208
40.32000 1173.291
40.34000 1230.034
40.36000 1266.944
40.38000 1308.629
40.40000 1347.518
40.42000 1354.708
40.44000 1373.620
40.46000 1387.670
40.48000 1406.566
40.50000 1381.286
40.52000 1370.587
40.54000 1349.133
40.56000 1333.245
40.58000 1313.266
40.60000 1285.547
40.62000 1252.739
40.64000 1215.571
40.66000 1183.214
40.68000 1137.966
40.70000 1095.959
40.72000 1072.000
40.74000 1031.706
40.76000 997.383
40.78000 956.373
40.80000 920.271
40.82000 867.488
40.84000 831.805
40.86000 806.794
40.88000 759.720
40.90000 716.562
40.92000 687.213
40.94000 652.661
40.96000 626.248
40.98000 592.893
41.00000 565.824
41.02000 534.446
41.04000 505.614
41.06000 476.630
41.08000 450.801
41.10000 427.096
41.12000 406.298
41.14000 379.570
41.16000 364.011
41.18000 348.361
41.20000 323.043
41.22000 311.468
41.24000 288.121
41.26000 279.635
41.28000 264.794
41.30000 256.472
41.32000 243.626
41.34000 225.500
41.36000 209.898
41.38000 206.515
41.40000 193.827
41.42000 184.788
41.44000 177.882
41.46000 164.579
41.48000 159.871
41.50000 147.598
41.52000 143.379
41.54000 137.972
41.56000 134.916
41.58000 129.411
41.60000 120.542
41.62000 110.933
41.64000 111.513
41.66000 110.785
41.68000 101.174
41.70000 92.360
41.72000 91.095
41.74000 89.600
41.76000 84.612
41.78000 75.784
41.80000 77.832
41.82000 73.697
41.84000 72.748
41.86000 69.219
41.88000 68.205
41.90000 62.785
41.92000 61.745
41.94000 58.999
41.96000 57.437
41.98000 52.408
42.00000 52.368
42.02000 52.470
42.04000 44.668
42.06000 44.261
42.08000 43.908
42.10000 45.096
42.12000 42.544
42.14000 36.922
42.16000 32.490
42.18000 34.738
42.20000 33.685
42.22000 28.309
42.24000 28.650
42.26000 31.289
42.28000 33.986
42.30000 28.321
42.32000 27.804
42.34000 26.337
42.36000 27.258
42.38000 27.991
42.40000 23.896
42.42000 26.280
42.44000 28.522
42.46000 25.034
42.48000 22.255
42.50000 16.424
42.52000 15.823
42.54000 16.874
42.56000 22.744
42.58000 20.730
42.60000 15.680
42.62000 14.293
42.64000 13.981
42.66000 15.253
42.68000 12.471
42.70000 14.495
42.72000 10.780
42.74000 9.313
42.76000 8.022
42.78000 13.424
42.80000 12.876
42.82000 11.625
42.84000 9.822
42.86000 9.215
42.88000 7.532
42.90000 6.267
42.92000 9.890
42.94000 8.240
42.96000 9.503
42.98000 9.790
43.00000 7.994
43.02000 3.576
43.04000 4.733
43.06000 5.695
43.08000 5.496
43.10000 2.027
43.12000 2.485
43.14000 2.566
43.16000 4.392
43.18000 2.547
43.20000 2.798
43.22000 1.529
43.24000 4.533
43.26000 -0.663
43.28000 -2.187
43.30000 2.426
43.32000 0.756
43.34000 4.466
43.36000 6.126
43.38000 5.483
43.40000 4.159
43.42000 2.645
43.44000 1.353
43.46000 1.688
43.48000 3.627
43.50000 6.546
43.52000 5.570
43.54000 6.349
43.56000 3.567
43.58000 -0.472
43.60000 1.960
43.62000 7.178
43.64000 1.191
43.66000 -3.489
43.68000 -3.085
43.70000 -1.186
43.72000 -1.607
43.74000 0.649
43.76000 2.067
43.78000 2.322
43.80000 1.936
43.82000 2.205
43.84000 4.400
43.86000 1.587
43.88000 1.936
43.90000 2.548
43.92000 -0.460
43.94000 -0.457
43.96000 -1.086
43.98000 1.418
44.00000 3.806
44.02000 5.313
44.04000 2.414
44.06000 -3.405
44.08000 0.950
44.10000 1.892
44.12000 4.606
44.14000 3.222
44.16000 3.583
44.18000 2.477
44.20000 3.163
44.22000 2.706
44.24000 -2.270
44.26000 -1.002
44.28000 0.720
44.30000 -2.899
44.32000 1.089
44.34000 -0.053
44.36000 -0.087
44.38000 -0.796
44.40000 -0.727
44.42000 -1.821
44.44000 0.287
44.46000 -0.622
44.48000 3.190
44.50000 3.888
44.52000 -1.041
44.54000 -1.133
44.56000 -0.230
44.58000 5.007
44.60000 6.222
44.62000 -0.529
44.64000 -0.719
44.66000 0.474
44.68000 0.908
44.70000 1.383
44.72000 -1.863
44.74000 -3.346
44.76000 -1.178
44.78000 -2.307
44.80000 -1.447
44.82000 3.690
44.84000 2.604
44.86000 -2.535
44.88000 0.832
44.90000 0.756
44.92000 -2.007
44.94000 -2.995
44.96000 -0.523
44.98000 -2.602
45.00000 -3.330
45.02000 -0.475
45.04000 1.489
45.06000 -1.388
45.08000 -0.701
45.10000 -1.956
45.12000 -0.562
45.14000 -0.628
45.16000 -0.248
45.18000 -0.201
45.20000 -1.032
45.22000 1.100
45.24000 0.850
45.26000 0.055
45.28000 -0.834
45.30000 0.538
45.32000 0.993
45.34000 -1.039
45.36000 -2.759
45.38000 -0.497
45.40000 -2.546
45.42000 -3.157
45.44000 2.049
45.46000 2.480
45.48000 2.394
45.50000 4.543
45.52000 3.040
45.54000 0.660
45.56000 3.502
45.58000 4.734
45.60000 2.042
45.62000 3.194
45.64000 4.022
45.66000 2.146
45.68000 7.352
45.70000 3.065
45.72000 1.168
45.74000 4.595
45.76000 3.678
45.78000 5.583
45.80000 6.615
45.82000 7.204
45.84000 6.180
45.86000 4.788
45.88000 3.262
45.90000 8.191
45.92000 8.073
45.94000 11.929
45.96000 12.997
45.98000 12.472
46.00000 11.941
46.02000 11.748
46.04000 13.837
46.06000 14.661
46.08000 11.077
46.10000 14.491
46.12000 17.566
46.14000 23.966
46.16000 23.548
46.18000 19.144
46.20000 24.469
46.22000 21.865
46.24000 23.682
46.26000 22.770
46.28000 26.279
46.30000 26.029
46.32000 25.953
46.34000 25.338
46.36000 30.002
46.38000 35.895
46.40000 37.129
46.42000 33.818
46.44000 32.464
46.46000 32.039
46.48000 36.292
46.50000 39.521
46.52000 43.818
46.54000 42.936
46.56000 49.863
46.58000 49.136
46.60000 53.519
46.62000 57.675
46.64000 59.041
46.66000 58.839
46.68000 59.061
46.70000 63.826
46.72000 66.584
46.74000 70.830
46.76000 74.008
46.78000 75.719
46.80000 78.034
46.82000 83.096
46.84000 82.609
46.86000 84.948
46.88000 98.927
46.90000 101.623
46.92000 105.859
46.94000 102.851
46.96000 102.719
46.98000 105.627
47.00000 108.071
47.02000 115.154
47.04000 116.255
47.06000 113.652
47.08000 114.319
47.10000 115.936
47.12000 117.108
47.14000 118.773
47.16000 118.092
47.18000 122.915
47.20000 123.054
47.22000 114.363
47.24000 112.625
47.26000 115.406
47.28000 114.796
47.30000 115.165
47.32000 110.645
47.34000 109.039
47.36000 111.426
47.38000 106.484
47.40000 99.010
47.42000 89.691
47.44000 86.389
47.46000 89.410
47.48000 90.444
47.50000 85.840
47.52000 85.087
47.54000 75.980
47.56000 68.432
47.58000 71.432
47.60000 68.073
47.62000 66.203
47.64000 62.060
47.66000 58.468
47.68000 54.209
47.70000 52.892
47.72000 48.543
47.74000 46.917
47.76000 45.249
47.78000 46.216
47.80000 41.205
47.82000 37.101
47.84000 29.524
47.86000 28.394
47.88000 30.276
47.90000 28.541
47.92000 28.793
47.94000 22.347
47.96000 22.021
47.98000 22.707
48.00000 18.068
48.02000 15.873
48.04000 16.466
48.06000 16.827
48.08000 13.550
48.10000 14.451
48.12000 12.977
48.14000 11.732
48.16000 6.833
48.18000 10.185
48.20000 8.398
48.22000 6.078
48.24000 8.840
48.26000 8.243
48.28000 7.918
48.30000 6.407
48.32000 2.790
48.34000 2.310
48.36000 4.286
48.38000 7.769
48.40000 5.479
48.42000 2.550
48.44000 2.328
48.46000 3.967
48.48000 8.057
48.50000 2.913
48.52000 2.011
48.54000 0.882
48.56000 -0.389
48.58000 0.106
48.60000 -0.469
48.62000 1.406
48.64000 -0.012
48.66000 0.008
48.68000 -0.734
48.70000 0.655
48.72000 4.731
48.74000 4.080
48.76000 1.771
48.78000 1.259
48.80000 -0.824
48.82000 -2.756
48.84000 0.792
48.86000 2.694
48.88000 0.379
48.90000 -0.084
48.92000 1.698
48.94000 0.667
48.96000 1.214
48.98000 1.720
49.00000 0.977
49.02000 3.122
49.04000 2.463
49.06000 2.648
49.08000 -2.242
49.10000 -1.044
49.12000 -2.342
49.14000 -2.303
49.16000 1.108
49.18000 0.485
49.20000 0.584
49.22000 0.760
49.24000 -0.114
49.26000 3.217
49.28000 6.735
49.30000 2.007
49.32000 1.797
49.34000 4.138
49.36000 2.891
49.38000 1.015
49.40000 1.406
49.42000 0.934
49.44000 -2.603
49.46000 -2.192
49.48000 -1.144
49.50000 1.930
49.52000 4.118
49.54000 2.614
49.56000 3.034
49.58000 0.737
49.60000 3.149
49.62000 1.383
49.64000 -0.853
49.66000 -0.216
49.68000 2.297
49.70000 3.150
49.72000 -2.558
49.74000 -0.741
49.76000 -0.784
49.78000 0.873
49.80000 0.961
49.82000 0.741
49.84000 2.022
49.86000 2.573
49.88000 0.532
49.90000 2.319
49.92000 4.039
49.94000 4.204
49.96000 3.209
49.98000 0.613
50.00000 4.322
50.02000 0.644
50.04000 0.381
50.06000 -2.400
50.08000 -2.315
50.10000 -0.377
50.12000 -1.252
50.14000 -0.021
50.16000 -1.213
50.18000 -1.523
50.20000 1.106
50.22000 2.366
50.24000 -0.793
50.26000 -0.303
50.28000 -1.697
50.30000 2.955
50.32000 0.606
50.34000 -2.514
50.36000 -2.376
50.38000 -1.756
50.40000 -1.056
50.42000 1.216
50.44000 3.189
50.46000 2.994
50.48000 3.730
50.50000 -0.412
50.52000 -2.017
50.54000 -0.032
50.56000 1.228
50.58000 0.156
50.60000 -1.353
50.62000 0.343
50.64000 3.093
50.66000 6.280
50.68000 3.594
50.70000 -2.476
50.72000 1.949
50.74000 6.279
50.76000 3.408
50.78000 2.484
50.80000 -0.996
50.82000 -0.555
50.84000 -1.612
50.86000 0.700
50.88000 0.371
50.90000 0.412
50.92000 1.324
50.94000 1.957
50.96000 -0.213
50.98000 1.791
51.00000 0.804
51.02000 1.180
51.04000 2.999
51.06000 -1.353
51.08000 0.532
51.10000 4.456
51.12000 3.435
51.14000 3.065
51.16000 -1.754
51.18000 -1.810
51.20000 -0.523
51.22000 1.855
51.24000 0.959
51.26000 -0.706
51.28000 3.734
51.30000 5.040
51.32000 2.087
51.34000 1.612
51.36000 4.540
51.38000 1.554
51.40000 0.998
51.42000 -1.173
51.44000 0.222
51.46000 3.059
51.48000 -0.222
51.50000 -0.624
51.52000 -1.920
51.54000 -0.484
51.56000 2.915
51.58000 0.567
51.60000 -2.116
51.62000 0.977
51.64000 3.206
51.66000 5.045
51.68000 2.167
51.70000 1.927
51.72000 7.407
51.74000 4.375
51.76000 4.092
51.78000 2.406
51.80000 0.614
51.82000 0.531
51.84000 3.528
51.86000 1.251
51.88000 1.680
51.90000 2.583
51.92000 0.453
51.94000 0.810
51.96000 1.210
51.98000 -2.031
52.00000 1.116
52.02000 2.049
52.04000 1.869
52.06000 1.917
52.08000 2.080
52.10000 3.299
52.12000 2.153
52.14000 2.512
52.16000 0.757
52.18000 3.157
52.20000 2.279
52.22000 -2.380
52.24000 3.687
52.26000 5.634
52.28000 3.598
52.30000 3.168
52.32000 3.322
52.34000 4.411
52.36000 4.275
52.38000 3.741
52.40000 5.171
52.42000 2.432
52.44000 2.028
52.46000 1.762
52.48000 3.145
52.50000 5.931
52.52000 3.688
52.54000 2.787
52.56000 2.815
52.58000 3.299
52.60000 2.691
52.62000 1.823
52.64000 1.916
52.66000 -2.385
52.68000 0.726
52.70000 2.888
52.72000 3.209
52.74000 2.345
52.76000 2.942
52.78000 1.978
52.80000 0.447
52.82000 1.955
52.84000 3.647
52.86000 2.327
52.88000 -2.331
52.90000 -2.069
52.92000 -1.225
52.94000 0.987
52.96000 0.986
52.98000 3.463
53.00000 2.520
53.02000 0.844
53.04000 3.381
53.06000 2.335
53.08000 -0.562
53.10000 1.316
53.12000 1.588
53.14000 3.306
53.16000 1.712
53.18000 -1.655
53.20000 1.464
53.22000 3.595
53.24000 -1.310
53.26000 3.082
53.28000 1.943
53.30000 3.805
53.32000 3.356
53.34000 3.450
53.36000 3.865
53.38000 4.452
53.40000 -1.619
53.42000 -0.705
53.44000 0.094
53.46000 0.115
53.48000 0.992
53.50000 2.221
53.52000 3.507
53.54000 2.145
53.56000 0.325
53.58000 -1.448
53.60000 -1.557
53.62000 -0.952
53.64000 0.923
53.66000 0.924
53.68000 2.062
53.70000 1.425
53.72000 -0.097
53.74000 -1.321
53.76000 -1.514
53.78000 0.288
53.80000 1.609
53.82000 0.036
53.84000 -0.528
53.86000 0.973
53.88000 -1.226
53.90000 0.932
53.92000 -0.918
53.94000 -2.365
53.96000 3.095
53.98000 3.701
54.00000 3.143
54.02000 -1.010
54.04000 -0.114
54.06000 -1.031
54.08000 3.736
54.10000 6.311
54.12000 3.618
54.14000 1.634
54.16000 0.708
54.18000 0.318
54.20000 0.153
54.22000 1.278
54.24000 -1.658
54.26000 0.215
54.28000 3.947
54.30000 1.619
54.32000 0.279
54.34000 2.205
54.36000 2.062
54.38000 0.701
54.40000 -0.746
54.42000 2.610
54.44000 2.527
54.46000 -0.501
54.48000 -1.480
54.50000 4.782
54.52000 0.079
54.54000 -0.910
54.56000 1.109
54.58000 1.432
54.60000 2.910
54.62000 4.127
54.64000 0.316
54.66000 -1.725
54.68000 0.259
54.70000 3.213
54.72000 3.670
54.74000 1.860
54.76000 3.112
54.78000 2.733
54.80000 4.224
54.82000 3.860
54.84000 3.570
54.86000 0.637
54.88000 -1.967
54.90000 -2.345
54.92000 -1.205
54.94000 3.176
54.96000 4.023
54.98000 0.722
55.00000 1.514
55.02000 2.434
55.04000 2.230
55.06000 -0.180
55.08000 -1.733
55.10000 0.574
55.12000 1.831
55.14000 3.709
55.16000 3.962
55.18000 0.230
55.20000 1.481
55.22000 3.146
55.24000 1.085
55.26000 1.364
55.28000 2.579
55.30000 0.051
55.32000 1.120
55.34000 1.073
55.36000 2.549
55.38000 2.025
55.40000 0.557
55.42000 2.679
55.44000 2.653
55.46000 2.072
55.48000 -2.332
55.50000 1.042
55.52000 1.855
55.54000 1.735
55.56000 5.660
55.58000 5.126
55.60000 3.110
55.62000 0.966
55.64000 0.761
55.66000 2.025
55.68000 0.830
55.70000 1.334
55.72000 1.169
55.74000 1.288
55.76000 3.936
55.78000 3.405
55.80000 5.101
55.82000 4.114
55.84000 1.347
55.86000 0.299
55.88000 -2.331
55.90000 -1.620
55.92000 2.653
55.94000 -0.499
55.96000 -0.938
55.98000 2.310
56.00000 2.537
56.02000 1.464
56.04000 0.884
56.06000 0.773
56.08000 0.700
56.10000 1.699
56.12000 0.960
56.14000 0.716
56.16000 -1.098
56.18000 1.212
56.20000 -0.725
56.22000 1.042
56.24000 5.282
56.26000 3.163
56.28000 0.378
56.30000 -0.259
56.32000 -0.492
56.34000 1.733
56.36000 -0.223
56.38000 -0.985
56.40000 0.227
56.42000 -0.496
56.44000 -1.489
56.46000 0.887
56.48000 1.801
56.50000 2.185
56.52000 2.664
56.54000 3.607
56.56000 2.319
56.58000 -2.294
56.60000 0.000
56.62000 4.134
56.64000 4.508
56.66000 2.701
56.68000 1.198
56.70000 0.187
56.72000 2.343
56.74000 0.303
56.76000 -0.964
56.78000 0.488
56.80000 0.176
56.82000 0.265
56.84000 1.431
56.86000 6.413
56.88000 -0.030
56.90000 -1.144
56.92000 0.344
56.94000 0.599
56.96000 0.229
56.98000 -2.290
57.00000 -0.910
57.02000 3.019
57.04000 2.376
57.06000 2.030
57.08000 1.119
57.10000 -0.496
57.12000 -1.724
57.14000 0.440
57.16000 0.855
57.18000 -0.069
57.20000 0.626
57.22000 0.602
57.24000 1.288
57.26000 -1.186
57.28000 -0.604
57.30000 3.603
57.32000 0.324
57.34000 0.792
57.36000 -2.141
57.38000 -0.794
57.40000 -2.071
57.42000 -1.159
57.44000 1.919
57.46000 2.655
57.48000 0.789
57.50000 0.878
57.52000 2.519
57.54000 1.590
57.56000 2.303
57.58000 1.095
57.60000 0.004
57.62000 0.184
57.64000 0.712
57.66000 1.210
57.68000 1.781
57.70000 0.125
57.72000 1.086
57.74000 0.667
57.76000 1.107
57.78000 -2.189
57.80000 -1.156
57.82000 1.562
57.84000 0.865
57.86000 -2.217
57.88000 1.107
57.90000 0.965
57.92000 0.287
57.94000 0.057
57.96000 0.194
57.98000 1.320
58.00000 1.055
58.02000 1.852
58.04000 -1.208
58.06000 0.422
58.08000 -0.716
58.10000 1.385
58.12000 1.567
58.14000 1.052
58.16000 -0.649
58.18000 0.530
58.20000 1.337
58.22000 -0.561
58.24000 -2.236
58.26000 -0.012
58.28000 1.755
58.30000 2.668
58.32000 2.236
58.34000 1.605
58.36000 1.669
58.38000 0.035
58.40000 1.180
58.42000 0.352
58.44000 -0.896
58.46000 2.216
58.48000 0.995
58.50000 2.383
58.52000 -1.231
58.54000 -1.100
58.56000 3.548
58.58000 3.664
58.60000 -0.727
58.62000 1.605
58.64000 0.611
58.66000 -1.588
58.68000 3.211
58.70000 1.544
58.72000 0.102
58.74000 -2.101
58.76000 1.049
58.78000 5.442
58.80000 1.986
58.82000 1.121
58.84000 1.706
58.86000 2.162
58.88000 1.814
58.90000 1.564
58.92000 -0.619
58.94000 -2.185
58.96000 -0.245
58.98000 1.757
59.00000 -1.348
59.02000 -2.236
59.04000 -0.939
59.06000 -0.636
59.08000 2.044
59.10000 -0.482
59.12000 -0.221
59.14000 -0.783
59.16000 1.184
59.18000 3.889
59.20000 1.905
59.22000 2.036
59.24000 2.953
59.26000 3.194
59.28000 1.426
59.30000 -2.129
59.32000 -0.996
59.34000 -2.221
59.36000 -1.476
59.38000 1.874
59.40000 -0.014
59.42000 3.758
59.44000 2.196
59.46000 0.053
59.48000 1.428
59.50000 -0.256
59.52000 -0.160
59.54000 1.203
59.56000 0.335
59.58000 -0.701
59.60000 1.978
59.62000 2.428
59.64000 0.301
59.66000 -1.413
59.68000 0.852
59.70000 0.634
59.72000 -2.031
59.74000 0.004
59.76000 1.057
59.78000 1.276
59.80000 5.572
59.82000 3.113
59.84000 -0.859
59.86000 1.960
59.88000 2.243
59.90000 1.157
59.92000 2.827
59.94000 -0.790
59.96000 -2.179
59.98000 2.235
60.00000 3.447
60.02000 1.526
60.04000 0.577
60.06000 2.936
60.08000 0.194
60.10000 0.247
60.12000 4.279
60.14000 4.098
60.16000 4.263
60.18000 4.139
60.20000 4.895
60.22000 3.052
60.24000 5.971
60.26000 6.426
60.28000 0.495
60.30000 2.126
60.32000 0.144
60.34000 1.108
60.36000 -0.064
60.38000 2.872
60.40000 1.691
60.42000 3.646
60.44000 6.070
60.46000 4.463
60.48000 2.016
60.50000 4.344
60.52000 5.065
60.54000 3.370
60.56000 4.997
60.58000 5.381
60.60000 2.473
60.62000 3.757
60.64000 1.566
60.66000 1.763
60.68000 -2.093
60.70000 0.512
60.72000 5.247
60.74000 6.097
60.76000 2.808
60.78000 3.281
60.80000 4.393
60.82000 2.455
60.84000 4.760
60.86000 5.731
60.88000 5.614
60.90000 5.197
60.92000 6.317
60.94000 6.960
60.96000 4.580
60.98000 5.414
61.00000 2.826
61.02000 5.440
61.04000 7.593
61.06000 5.683
61.08000 4.805
61.10000 5.349
61.12000 4.470
61.14000 5.628
61.16000 4.488
61.18000 4.311
61.20000 1.673
61.22000 2.476
61.24000 3.996
61.26000 6.724
61.28000 5.216
61.30000 4.956
61.32000 4.733
61.34000 1.684
61.36000 -2.083
61.38000 -0.268
61.40000 0.908
61.42000 0.623
61.44000 3.669
61.46000 4.429
61.48000 4.195
61.50000 4.645
61.52000 2.206
61.54000 3.784
61.56000 3.230
61.58000 4.276
61.60000 3.635
61.62000 3.119
61.64000 -0.259
61.66000 1.446
61.68000 0.539
61.70000 -0.244
61.72000 1.841
61.74000 1.440
61.76000 3.446
61.78000 2.612
61.80000 1.634
61.82000 5.609
61.84000 3.074
61.86000 -0.024
61.88000 -0.703
61.90000 2.533
61.92000 1.394
61.94000 -1.056
61.96000 0.472
61.98000 -0.258
62.00000 0.927
62.02000 -0.488
62.04000 1.388
62.06000 3.298
62.08000 2.703
62.10000 2.205
62.12000 3.997
62.14000 2.516
62.16000 0.710
62.18000 1.825
62.20000 -0.911
62.22000 -0.214
62.24000 0.367
62.26000 1.723
62.28000 1.445
62.30000 0.430
62.32000 -0.450
62.34000 -1.476
62.36000 -0.059
62.38000 -0.184
62.40000 0.411
62.42000 1.279
62.44000 0.571
62.46000 1.183
62.48000 -0.962
62.50000 0.541
62.52000 0.331
62.54000 -1.354
62.56000 -0.548
62.58000 0.551
62.60000 2.352
62.62000 2.843
62.64000 1.659
62.66000 0.822
62.68000 1.113
62.70000 0.858
62.72000 0.827
62.74000 0.293
62.76000 -0.514
62.78000 -0.179
62.80000 1.767
62.82000 1.271
62.84000 3.401
62.86000 4.061
62.88000 0.995
62.90000 1.698
62.92000 1.346
62.94000 1.352
62.96000 1.092
62.98000 -1.423
63.00000 -2.104
63.02000 -1.239
63.04000 -0.044
63.06000 0.462
63.08000 -0.141
63.10000 1.127
63.12000 -0.172
63.14000 -0.304
63.16000 -2.056
63.18000 0.494
63.20000 0.708
63.22000 -0.675
63.24000 0.115
63.26000 1.420
63.28000 1.245
63.30000 3.314
63.32000 3.060
63.34000 0.323
63.36000 0.464
63.38000 -0.154
63.40000 1.271
63.42000 1.199
63.44000 2.147
63.46000 1.234
63.48000 1.622
63.50000 -0.737
63.52000 -0.204
63.54000 1.325
63.56000 -0.155
63.58000 3.678
63.60000 0.541
63.62000 -1.721
63.64000 0.260
63.66000 2.249
63.68000 0.919
63.70000 -1.227
63.72000 -1.673
63.74000 -2.086
63.76000 0.221
63.78000 0.950
63.80000 2.263
63.82000 2.092
63.84000 2.212
63.86000 2.947
63.88000 3.861
63.90000 2.957
63.92000 1.016
63.94000 0.836
63.96000 3.076
63.98000 1.211
64.00000 0.777
64.02000 -0.602
64.04000 0.138
64.06000 2.862
64.08000 2.670
64.10000 0.452
64.12000 1.099
64.14000 2.108
64.16000 1.832
64.18000 -0.302
64.20000 -2.096
64.22000 1.469
64.24000 -1.043
64.26000 -1.280
64.28000 1.535
64.30000 2.671
64.32000 2.641
64.34000 1.941
64.36000 0.290
64.38000 -0.932
64.40000 -1.694
64.42000 1.074
64.44000 1.654
64.46000 1.257
64.48000 0.382
64.50000 -0.542
64.52000 -0.944
64.54000 -1.159
64.56000 -2.054
64.58000 -0.705
64.60000 4.140
64.62000 0.646
64.64000 -0.239
64.66000 -0.759
64.68000 -1.475
64.70000 1.010
64.72000 2.657
64.74000 1.490
64.76000 0.190
64.78000 0.596
64.80000 -0.061
64.82000 -1.613
64.84000 0.085
64.86000 0.856
64.88000 -1.012
64.90000 2.673
64.92000 3.041
64.94000 1.426
64.96000 -1.429
64.98000 -0.824
65.00000 0.242
65.02000 2.291
65.04000 3.635
65.06000 0.980
65.08000 -2.114
65.10000 -0.838
65.12000 1.156
65.14000 2.759
65.16000 1.600
65.18000 0.540
65.20000 1.696
65.22000 0.684
65.24000 2.765
65.26000 1.790
65.28000 3.375
65.30000 0.130
65.32000 -1.768
65.34000 -0.523
65.36000 -0.917
65.38000 0.073
65.40000 0.340
65.42000 1.805
65.44000 2.586
65.46000 1.082
65.48000 1.585
65.50000 -0.498
65.52000 -1.253
65.54000 -1.090
65.56000 -2.109
65.58000 0.493
65.60000 3.038
65.62000 0.061
65.64000 -0.916
65.66000 1.487
65.68000 2.465
65.70000 3.560
65.72000 0.804
65.74000 1.202
65.76000 4.110
65.78000 4.957
65.80000 2.116
65.82000 -0.963
65.84000 -1.338
65.86000 -2.102
65.88000 0.278
65.90000 1.537
65.92000 0.490
65.94000 1.642
65.96000 1.656
65.98000 1.619
66.00000 1.133
66.02000 3.457
66.04000 1.152
66.06000 -0.202
66.08000 -1.113
66.10000 4.004
66.12000 1.493
66.14000 0.973
66.16000 0.901
66.18000 1.770
66.20000 0.367
66.22000 0.994
66.24000 1.688
66.26000 -0.974
66.28000 -0.565
66.30000 -1.751
66.32000 -1.940
66.34000 -2.111
66.36000 -0.272
66.38000 0.564
66.40000 0.488
66.42000 1.473
66.44000 1.064
66.46000 2.514
66.48000 3.435
66.50000 2.445
66.52000 0.173
66.54000 2.024
66.56000 1.071
66.58000 0.728
66.60000 0.163
66.62000 1.098
66.64000 -1.536
66.66000 -0.054
66.68000 0.748
66.70000 -1.618
66.72000 -1.571
66.74000 -0.174
66.76000 -0.350
66.78000 -0.441
66.80000 -0.759
66.82000 2.934
66.84000 4.200
66.86000 0.516
66.88000 0.405
66.90000 2.225
66.92000 -1.083
66.94000 -0.802
66.96000 0.401
66.98000 1.605
67.00000 0.534
67.02000 -0.090
67.04000 -0.264
67.06000 0.486
67.08000 -2.121
67.10000 -1.467
67.12000 0.970
67.14000 1.711
67.16000 1.242
67.18000 -0.287
67.20000 0.545
67.22000 -0.562
67.24000 -0.919
67.26000 0.658
67.28000 1.622
67.30000 -0.287
67.32000 0.320
67.34000 0.799
67.36000 -1.018
67.38000 0.424
67.40000 2.751
67.42000 2.349
67.44000 1.782
67.46000 1.853
67.48000 -1.465
67.50000 -1.548
67.52000 -2.123
67.54000 -0.125
67.56000 3.734
67.58000 4.199
67.60000 3.883
67.62000 1.806
67.64000 0.087
67.66000 0.676
67.68000 3.729
67.70000 1.342
67.72000 0.864
67.74000 -2.146
67.76000 -1.776
67.78000 -0.140
67.80000 0.653
67.82000 -0.293
67.84000 1.162
67.86000 -1.680
67.88000 -2.042
67.90000 -0.633
67.92000 0.782
67.94000 -2.163
67.96000 -1.217
67.98000 0.315
68.00000 -0.184
68.02000 -0.354
68.04000 -0.424
68.06000 -0.238
68.08000 2.107
68.10000 0.935
68.12000 0.639
68.14000 4.976
68.16000 4.469
68.18000 2.243
68.20000 2.744
68.22000 3.004
68.24000 2.344
68.26000 1.760
68.28000 2.211
68.30000 -0.290
68.32000 4.081
68.34000 4.820
68.36000 3.951
68.38000 4.813
68.40000 5.044
68.42000 7.821
68.44000 6.587
68.46000 6.738
68.48000 6.793
68.50000 9.359
68.52000 5.508
68.54000 4.497
68.56000 5.389
68.58000 7.232
68.60000 8.612
68.62000 7.161
68.64000 8.112
68.66000 10.209
68.68000 13.259
68.70000 13.459
68.72000 12.016
68.74000 13.209
68.76000 15.395
68.78000 14.331
68.80000 12.728
68.82000 13.900
68.84000 14.825
68.86000 13.411
68.88000 14.480
68.90000 14.430
68.92000 16.033
68.94000 13.551
68.96000 12.305
68.98000 15.061
69.00000 14.410
69.02000 13.994
69.04000 16.562
69.06000 15.272
69.08000 14.337
69.10000 14.209
69.12000 12.918
69.14000 10.505
69.16000 12.522
69.18000 14.767
69.20000 13.588
69.22000 11.383
69.24000 10.320
69.26000 11.852
69.28000 11.506
69.30000 7.999
69.32000 6.425
69.34000 5.191
69.36000 5.517
69.38000 8.083
69.40000 6.952
69.42000 3.800
69.44000 4.749
69.46000 5.607
69.48000 5.559
69.50000 6.802
69.52000 5.813
69.54000 3.572
69.56000 1.438
69.58000 1.258
69.60000 5.076
69.62000 4.998
69.64000 6.552
69.66000 2.657
69.68000 -1.024
69.70000 -0.938
69.72000 2.367
69.74000 2.950
69.76000 1.633
69.78000 3.257
69.80000 1.328
69.82000 2.074
69.84000 3.690
69.86000 2.542
69.88000 0.084
69.90000 1.061
69.92000 0.702
69.94000 -1.034
69.96000 -1.148
69.98000 -0.998
70.00000 -2.131
70.02000 0.617
70.04000 -0.926
70.06000 0.210
70.08000 1.605
70.10000 1.227
70.12000 2.818
70.14000 2.054
70.16000 0.470
70.18000 1.109
70.20000 0.912
70.22000 0.203
70.24000 -1.703
70.26000 -2.103
70.28000 0.467
70.30000 0.740
70.32000 2.386
70.34000 2.288
70.36000 1.162
70.38000 0.151
70.40000 1.122
70.42000 1.685
70.44000 -0.570
70.46000 -1.641
70.48000 0.443
70.50000 1.370
70.52000 -0.574
70.54000 -1.795
70.56000 1.318
70.58000 -1.529
70.60000 -0.228
70.62000 -1.890
70.64000 -0.233
70.66000 -0.349
70.68000 -1.508
70.70000 2.501
70.72000 2.988
70.74000 1.349
70.76000 -2.045
70.78000 0.801
70.80000 -0.405
70.82000 0.367
70.84000 0.404
70.86000 0.892
70.88000 2.396
70.90000 -0.467
70.92000 -1.159
70.94000 -1.846
70.96000 -2.026
70.98000 1.874
71.00000 1.426
71.02000 -0.068
71.04000 -2.017
71.06000 -1.609
71.08000 1.498
71.10000 0.823
71.12000 0.696
71.14000 4.339
71.16000 -0.447
71.18000 0.843
71.20000 0.591
71.22000 1.260
71.24000 1.867
71.26000 -2.005
71.28000 -1.616
71.30000 -1.831
71.32000 0.469
71.34000 2.698
71.36000 2.554
71.38000 4.985
71.40000 2.614
71.42000 2.690
71.44000 2.321
71.46000 0.982
71.48000 0.646
71.50000 -1.041
71.52000 -0.324
71.54000 1.971
71.56000 0.344
71.58000 0.662
71.60000 0.842
71.62000 -1.973
71.64000 0.724
71.66000 2.033
71.68000 1.982
71.70000 2.701
71.72000 1.904
71.74000 3.264
71.76000 4.338
71.78000 2.160
71.80000 4.659
71.82000 1.238
71.84000 0.867
71.86000 0.724
71.88000 2.868
71.90000 1.256
71.92000 1.590
71.94000 3.353
71.96000 -0.184
71.98000 0.108
72.00000 1.922
72.02000 -0.864
72.04000 -1.459
72.06000 -0.833
72.08000 1.380
72.10000 3.610
72.12000 5.740
72.14000 5.023
72.16000 1.433
72.18000 0.566
72.20000 2.121
72.22000 0.229
72.24000 1.710
72.26000 -0.205
72.28000 -0.910
72.30000 -1.125
72.32000 -1.240
72.34000 -1.003
72.36000 0.576
72.38000 0.827
72.40000 1.205
72.42000 -0.199
72.44000 -0.858
72.46000 -0.982
72.48000 0.416
72.50000 0.263
72.52000 -0.357
72.54000 -1.050
72.56000 1.452
72.58000 2.781
72.60000 1.476
72.62000 1.795
72.64000 1.323
72.66000 -0.052
72.68000 0.181
72.70000 -0.712
72.72000 0.359
72.74000 1.903
72.76000 1.066
72.78000 -1.939
72.80000 0.877
72.82000 -0.450
72.84000 -0.340
72.86000 0.558
72.88000 1.831
72.90000 2.837
72.92000 1.656
72.94000 0.598
72.96000 -0.033
72.98000 0.840
73.00000 3.539
73.02000 1.626
73.04000 -0.779
73.06000 -1.564
73.08000 1.410
73.10000 4.379
73.12000 4.525
73.14000 1.405
73.16000 2.548
73.18000 3.156
73.20000 0.161
73.22000 -1.925
73.24000 -1.710
73.26000 1.238
73.28000 4.475
73.30000 7.055
73.32000 4.937
73.34000 0.534
73.36000 0.926
73.38000 1.100
73.40000 1.716
73.42000 -0.839
73.44000 -0.831
73.46000 2.260
73.48000 5.175
73.50000 0.547
73.52000 1.497
73.54000 -1.154
73.56000 -0.887
73.58000 0.204
73.60000 4.028
73.62000 4.055
73.64000 2.269
73.66000 -0.293
73.68000 1.743
73.70000 1.182
73.72000 0.962
73.74000 2.511
73.76000 1.885
73.78000 -0.038
73.80000 -0.670
73.82000 -0.236
73.84000 -1.483
73.86000 -1.918
73.88000 1.539
73.90000 -0.591
73.92000 -0.900
73.94000 0.239
73.96000 -0.056
73.98000 3.409
74.00000 4.317
74.02000 3.625
74.04000 2.408
74.06000 3.012
74.08000 1.452
74.10000 2.466
74.12000 2.371
74.14000 0.982
74.16000 0.176
74.18000 4.288
74.20000 3.971
74.22000 -1.719
74.24000 -1.924
74.26000 1.242
74.28000 -0.496
74.30000 2.477
74.32000 -1.648
74.34000 -1.304
74.36000 1.833
74.38000 2.571
74.40000 1.851
74.42000 2.299
74.44000 -0.675
74.46000 -0.845
74.48000 0.143
74.50000 -0.057
74.52000 -0.088
74.54000 -0.125
74.56000 2.236
74.58000 3.194
74.60000 4.638
74.62000 1.645
74.64000 0.029
74.66000 2.679
74.68000 2.634
74.70000 1.836
74.72000 0.510
74.74000 1.442
74.76000 3.397
74.78000 0.025
74.80000 -1.922
74.82000 0.139
74.84000 3.043
74.86000 0.759
74.88000 1.131
74.90000 -0.911
74.92000 3.238
74.94000 1.428
74.96000 0.356
74.98000 0.095
75.00000 0.619
75.02000 2.232
75.04000 0.206
75.06000 0.747
75.08000 2.947
75.10000 1.619
75.12000 1.392
75.14000 1.195
75.16000 0.525
75.18000 -1.540
75.20000 1.393
75.22000 1.038
75.24000 1.771
75.26000 -0.462
75.28000 0.356
75.30000 -0.088
75.32000 -1.887
75.34000 -1.931
75.36000 0.323
75.38000 0.881
75.40000 3.676
75.42000 2.208
75.44000 -1.938
75.46000 1.426
75.48000 -0.708
75.50000 0.452
75.52000 1.462
75.54000 0.424
75.56000 -0.747
75.58000 2.448
75.60000 1.536
75.62000 3.975
75.64000 2.619
75.66000 1.384
75.68000 -0.816
75.70000 0.351
75.72000 0.547
75.74000 0.335
75.76000 -0.912
75.78000 0.986
75.80000 1.065
75.82000 0.655
75.84000 0.887
75.86000 -0.201
75.88000 -0.701
75.90000 -0.060
75.92000 0.781
75.94000 1.808
75.96000 0.651
75.98000 2.399
76.00000 1.051
76.02000 -1.962
76.04000 -0.749
76.06000 -0.308
76.08000 -0.633
76.10000 -1.963
76.12000 -1.015
76.14000 -0.192
76.16000 -1.261
76.18000 1.565
76.20000 1.770
76.22000 -1.818
76.24000 -0.819
76.26000 1.501
76.28000 -0.127
76.30000 -0.742
76.32000 -0.511
76.34000 0.788
76.36000 -0.585
76.38000 0.649
76.40000 2.603
76.42000 1.221
76.44000 -0.224
76.46000 -0.239
76.48000 0.648
76.50000 1.125
76.52000 1.788
76.54000 3.191
76.56000 -0.160
76.58000 -0.910
76.60000 -1.289
76.62000 -1.317
76.64000 -0.467
76.66000 0.100
76.68000 0.352
76.70000 0.094
76.72000 -1.211
76.74000 -0.174
76.76000 2.848
76.78000 -1.971
76.80000 -0.672
76.82000 2.760
76.84000 3.628
76.86000 0.404
76.88000 1.619
76.90000 1.359
76.92000 1.076
76.94000 -0.475
76.96000 -1.132
76.98000 0.512
77.00000 0.543
77.02000 1.237
77.04000 0.880
77.06000 -0.745
77.08000 -0.495
77.10000 0.962
77.12000 0.457
77.14000 -0.250
77.16000 3.046
77.18000 3.202
77.20000 0.683
77.22000 0.035
77.24000 0.109
77.26000 -0.712
77.28000 -0.206
77.30000 0.569
77.32000 1.876
77.34000 -0.059
77.36000 0.366
77.38000 -1.166
77.40000 -0.587
77.42000 5.479
77.44000 3.613
77.46000 3.030
77.48000 3.124
77.50000 -0.247
77.52000 -0.728
77.54000 0.606
77.56000 -0.769
77.58000 0.024
77.60000 -0.490
77.62000 0.242
77.64000 -0.715
77.66000 2.709
77.68000 2.080
77.70000 1.822
77.72000 2.717
77.74000 0.658
77.76000 0.820
77.78000 1.243
77.80000 4.265
77.82000 0.746
77.84000 -0.115
77.86000 0.962
77.88000 2.245
77.90000 1.751
77.92000 0.174
77.94000 1.639
77.96000 3.291
77.98000 2.229
78.00000 5.357
78.02000 4.023
78.04000 0.927
78.06000 -1.949
78.08000 1.293
78.10000 3.332
78.12000 1.382
78.14000 0.058
78.16000 5.165
78.18000 3.701
78.20000 2.574
78.22000 0.199
78.24000 1.815
78.26000 1.101
78.28000 1.894
78.30000 2.395
78.32000 1.308
78.34000 3.360
78.36000 3.781
78.38000 3.780
78.40000 1.022
78.42000 2.372
78.44000 1.844
78.46000 1.550
78.48000 1.485
78.50000 0.511
78.52000 1.048
78.54000 2.211
78.56000 0.575
78.58000 5.875
78.60000 1.699
78.62000 -0.890
78.64000 2.217
78.66000 0.596
78.68000 -0.062
78.70000 2.034
78.72000 2.347
78.74000 4.939
78.76000 2.834
78.78000 2.632
78.80000 3.685
78.82000 1.784
78.84000 2.887
78.86000 2.438
78.88000 1.664
78.90000 -0.701
78.92000 0.564
78.94000 1.146
78.96000 2.910
78.98000 0.747
79.00000 0.135
79.02000 3.170
79.04000 4.097
79.06000 3.913
79.08000 2.065
79.10000 1.998
79.12000 2.144
79.14000 0.714
79.16000 1.080
79.18000 4.332
79.20000 3.966
79.22000 3.107
79.24000 -0.333
79.26000 1.020
79.28000 3.641
79.30000 1.569
79.32000 0.909
79.34000 1.286
79.36000 2.468
79.38000 2.818
79.40000 0.646
79.42000 2.707
79.44000 3.462
79.46000 -0.107
79.48000 -1.987
79.50000 0.688
79.52000 0.021
79.54000 3.646
79.56000 -1.125
79.58000 1.158
79.60000 -0.683
79.62000 -0.600
79.64000 -0.549
79.66000 3.116
79.68000 3.781
79.70000 1.701
79.72000 -1.987
79.74000 0.784
79.76000 1.726
79.78000 1.176
79.80000 2.179
79.82000 2.868
79.84000 0.546
79.86000 1.135
79.88000 -1.999
79.90000 -0.603
79.92000 1.772
79.94000 1.765
79.96000 2.723
79.98000 3.906
80.00000 2.377
80.02000 1.725
80.04000 2.995
80.06000 3.125
80.08000 -0.030
80.10000 0.092
80.12000 2.849
80.14000 3.077
80.16000 3.387
80.18000 0.623
80.20000 2.519
80.22000 1.008
80.24000 2.957
80.26000 0.312
80.28000 -1.658
80.30000 -2.034
80.32000 -1.714
80.34000 0.124
80.36000 0.527
80.38000 -0.132
80.40000 1.519
80.42000 1.662
80.44000 1.480
80.46000 2.473
80.48000 -1.156
80.50000 0.922
80.52000 1.949
80.54000 1.638
80.56000 1.233
80.58000 0.478
80.60000 1.962
80.62000 3.081
80.64000 3.209
80.66000 2.094
80.68000 3.656
80.70000 0.390
80.72000 0.240
80.74000 1.925
80.76000 2.598
80.78000 2.372
80.80000 0.659
80.82000 -0.860
80.84000 -1.794
80.86000 -1.065
80.88000 -2.051
80.90000 -1.368
80.92000 2.425
80.94000 3.233
80.96000 -1.492
80.98000 -1.256
81.00000 -0.028
81.02000 -0.394
81.04000 2.443
81.06000 0.612
81.08000 0.991
81.10000 -0.154
81.12000 -1.282
81.14000 0.274
81.16000 1.398
81.18000 3.757
81.20000 0.590
81.22000 -0.034
81.24000 1.640
81.26000 3.052
81.28000 1.813
81.30000 -2.086
81.32000 0.570
81.34000 0.896
81.36000 1.641
81.38000 1.120
81.40000 3.131
81.42000 3.780
81.44000 3.330
81.46000 1.977
81.48000 1.359
81.50000 -0.376
81.52000 4.576
81.54000 8.184
81.56000 4.613
81.58000 0.231
81.60000 3.644
81.62000 3.029
81.64000 5.569
81.66000 3.682
81.68000 -2.113
81.70000 1.967
81.72000 3.469
81.74000 4.571
81.76000 6.070
81.78000 4.152
81.80000 2.216
81.82000 0.744
81.84000 0.546
81.86000 2.262
81.88000 4.272
81.90000 4.646
81.92000 5.105
81.94000 1.951
81.96000 2.216
81.98000 2.039
82.00000 2.228
82.02000 7.107
82.04000 6.702
82.06000 7.559
82.08000 6.415
82.10000 4.155
82.12000 5.833
82.14000 7.357
82.16000 4.017
82.18000 8.756
82.20000 9.169
82.22000 5.768
82.24000 4.630
82.26000 8.714
82.28000 9.768
82.30000 11.841
82.32000 9.799
82.34000 5.964
82.36000 9.081
82.38000 11.724
82.40000 13.634
82.42000 14.529
82.44000 16.850
82.46000 16.967
82.48000 17.746
82.50000 23.064
82.52000 21.906
82.54000 21.658
82.56000 23.663
82.58000 22.624
82.60000 21.291
82.62000 24.656
82.64000 28.977
82.66000 30.036
82.68000 30.404
82.70000 25.298
82.72000 27.217
82.74000 29.496
82.76000 30.704
82.78000 31.677
82.80000 34.482
82.82000 41.567
82.84000 44.331
82.86000 41.951
82.88000 39.570
82.90000 43.695
82.92000 44.681
82.94000 40.242
82.96000 43.246
82.98000 44.351
83.00000 46.351
83.02000 47.380
83.04000 45.436
83.06000 46.816
83.08000 48.335
83.10000 49.257
83.12000 50.388
83.14000 49.762
83.16000 49.698
83.18000 48.659
83.20000 48.666
83.22000 48.487
83.24000 50.061
83.26000 46.346
83.28000 45.632
83.30000 46.217
83.32000 49.213
83.34000 44.518
83.36000 40.223
83.38000 42.926
83.40000 43.506
83.42000 44.016
83.44000 38.971
83.46000 37.626
83.48000 39.815
83.50000 39.673
83.52000 37.337
83.54000 35.896
83.56000 32.932
83.58000 32.176
83.60000 30.163
83.62000 31.537
83.64000 33.703
83.66000 32.909
83.68000 32.314
83.70000 30.431
83.72000 28.050
83.74000 24.382
83.76000 25.499
83.78000 26.232
83.80000 25.198
83.82000 22.231
83.84000 20.334
83.86000 19.917
83.88000 17.829
83.90000 16.075
83.92000 16.095
83.94000 13.630
83.96000 14.179
83.98000 13.277
84.00000 12.531
84.02000 15.829
84.04000 13.037
84.06000 12.566
84.08000 11.874
84.10000 11.963
84.12000 13.419
84.14000 8.390
84.16000 6.017
84.18000 8.945
84.20000 9.158
84.22000 8.629
84.24000 8.085
84.26000 5.663
84.28000 7.441
84.30000 6.827
84.32000 9.386
84.34000 7.889
84.36000 3.263
84.38000 3.926
84.40000 3.643
84.42000 2.741
84.44000 6.452
84.46000 5.751
84.48000 3.658
84.50000 1.178
84.52000 1.873
84.54000 2.150
84.56000 3.130
84.58000 2.649
84.60000 1.761
84.62000 3.845
84.64000 3.821
84.66000 1.071
84.68000 5.524
84.70000 3.794
84.72000 0.404
84.74000 -0.528
84.76000 -1.536
84.78000 0.664
84.80000 0.531
84.82000 1.438
84.84000 3.072
84.86000 4.387
84.88000 3.518
84.90000 -1.146
84.92000 1.646
84.94000 3.592
84.96000 5.045
84.98000 2.669
85.00000 -2.083
85.02000 -1.842
85.04000 0.180
85.06000 2.476
85.08000 0.989
85.10000 1.759
85.12000 5.378
85.14000 1.679
85.16000 1.873
85.18000 1.932
85.20000 3.368
85.22000 -1.362
85.24000 2.502
85.26000 1.040
85.28000 -1.281
85.30000 -2.061
85.32000 -1.029
85.34000 0.391
85.36000 0.450
85.38000 1.752
85.40000 2.406
85.42000 -0.914
85.44000 -1.946
85.46000 1.952
85.48000 2.739
85.50000 2.006
85.52000 2.719
85.54000 -0.977
85.56000 -0.305
85.58000 1.578
85.60000 2.635
85.62000 -0.111
85.64000 0.713
85.66000 0.438
85.68000 0.112
85.70000 4.456
85.72000 1.350
85.74000 1.184
85.76000 -2.015
85.78000 0.052
85.80000 2.604
85.82000 2.359
85.84000 4.453
85.86000 3.991
85.88000 -0.886
85.90000 -2.027
85.92000 -0.309
85.94000 1.515
85.96000 3.061
85.98000 2.381
86.00000 1.444
86.02000 1.065
86.04000 2.277
86.06000 -0.002
86.08000 1.872
86.10000 2.265
86.12000 1.722
86.14000 1.600
86.16000 0.699
86.18000 1.855
86.20000 4.371
86.22000 1.074
86.24000 1.098
86.26000 3.288
86.28000 0.512
86.30000 0.571
86.32000 -0.034
86.34000 -1.023
86.36000 -1.178
86.38000 -2.074
86.40000 -1.124
86.42000 3.539
86.44000 5.161
86.46000 1.880
86.48000 2.450
86.50000 2.892
86.52000 1.874
86.54000 3.318
86.56000 6.496
86.58000 7.287
86.60000 6.172
86.62000 6.012
86.64000 1.986
86.66000 2.716
86.68000 4.975
86.70000 3.936
86.72000 5.030
86.74000 5.707
86.76000 6.827
86.78000 6.059
86.80000 9.185
86.82000 4.236
86.84000 7.741
86.86000 10.207
86.88000 8.505
86.90000 6.593
86.92000 6.737
86.94000 9.276
86.96000 11.179
86.98000 12.701
87.00000 14.577
87.02000 10.527
87.04000 12.307
87.06000 12.219
87.08000 12.948
87.10000 16.284
87.12000 17.558
87.14000 18.173
87.16000 19.044
87.18000 18.093
87.20000 21.475
87.22000 20.152
87.24000 25.069
87.26000 23.441
87.28000 22.505
87.30000 22.166
87.32000 18.914
87.34000 21.021
87.36000 26.488
87.38000 30.388
87.40000 25.776
87.42000 26.017
87.44000 26.226
87.46000 26.482
87.48000 26.912
87.50000 28.097
87.52000 27.081
87.54000 25.444
87.56000 29.542
87.58000 30.161
87.60000 30.660
87.62000 29.819
87.64000 28.334
87.66000 23.688
87.68000 27.364
87.70000 30.801
87.72000 35.089
87.74000 31.168
87.76000 29.711
87.78000 25.631
87.80000 27.507
87.82000 30.332
87.84000 30.539
87.86000 28.370
87.88000 27.271
87.90000 26.891
87.92000 20.936
87.94000 17.133
87.96000 19.513
87.98000 19.823
88.00000 17.890
88.02000 18.476
88.04000 18.728
88.06000 20.463
88.08000 17.071
88.10000 16.157
88.12000 16.083
88.14000 21.268
88.16000 19.874
88.18000 12.670
88.20000 17.103
88.22000 15.736
88.24000 13.844
88.26000 14.733
88.28000 15.296
88.30000 11.161
88.32000 9.557
88.34000 6.849
88.36000 8.116
88.38000 12.909
88.40000 6.690
88.42000 3.534
88.44000 7.516
88.46000 7.950
88.48000 9.825
88.50000 11.325
88.52000 10.694
88.54000 7.444
88.56000 4.980
88.58000 5.805
88.60000 6.409
88.62000 2.938
88.64000 5.901
88.66000 2.961
88.68000 3.495
88.70000 4.883
88.72000 4.676
88.74000 2.961
88.76000 4.276
88.78000 -0.403
88.80000 1.898
88.82000 4.160
88.84000 5.045
88.86000 3.886
88.88000 -2.029
88.90000 0.768
88.92000 0.724
88.94000 -2.022
88.96000 0.694
88.98000 3.137
89.00000 3.102
89.02000 3.284
89.04000 3.920
89.06000 1.240
89.08000 1.221
89.10000 -1.384
89.12000 1.642
89.14000 4.635
89.16000 2.627
89.18000 -0.800
89.20000 0.851
89.22000 2.846
89.24000 0.769
89.26000 -1.780
89.28000 -0.414
89.30000 0.609
89.32000 -1.971
89.34000 -1.599
89.36000 0.521
89.38000 1.413
89.40000 3.182
89.42000 2.378
89.44000 3.080
89.46000 2.711
89.48000 2.365
89.50000 0.953
89.52000 1.693
89.54000 1.570
89.56000 0.220
89.58000 0.838
89.60000 1.441
89.62000 -0.734
89.64000 -0.104
89.66000 -1.635
89.68000 -1.923
89.70000 1.879
89.72000 3.230
89.74000 0.281
89.76000 -0.202
89.78000 -1.263
89.80000 1.338
89.82000 2.266
89.84000 0.685
89.86000 3.040
89.88000 1.548
89.90000 -0.631
89.92000 -0.748
89.94000 0.416
89.96000 0.914
89.98000 1.235
90.00000 1.777
90.02000 1.450
90.04000 0.872
90.06000 2.255
90.08000 2.317
90.10000 2.266
90.12000 0.905
90.14000 -1.868
90.16000 0.176
90.18000 1.619
90.20000 0.866
90.22000 0.940
90.24000 2.695
90.26000 3.038
90.28000 3.149
90.30000 3.774
90.32000 2.133
90.34000 2.488
90.36000 1.985
90.38000 0.388
90.40000 1.952
90.42000 3.555
90.44000 3.735
90.46000 2.795
90.48000 2.051
90.50000 3.042
90.52000 2.902
90.54000 4.571
90.56000 2.044
90.58000 -0.766
90.60000 -0.200
90.62000 1.988
90.64000 3.434
90.66000 1.345
90.68000 1.937
90.70000 0.486
90.72000 0.250
90.74000 -1.833
90.76000 0.619
90.78000 2.341
90.80000 1.907
90.82000 3.641
90.84000 3.536
90.86000 1.880
90.88000 0.831
90.90000 3.133
90.92000 4.954
90.94000 0.908
90.96000 2.176
90.98000 3.057
91.00000 1.062
91.02000 1.348
91.04000 1.797
91.06000 2.486
91.08000 1.963
91.10000 3.040
91.12000 1.980
91.14000 -0.548
91.16000 0.941
91.18000 0.872
91.20000 -1.720
91.22000 -1.843
91.24000 1.617
91.26000 -0.244
91.28000 1.727
91.30000 0.363
91.32000 0.823
91.34000 -0.223
91.36000 4.928
91.38000 6.077
91.40000 1.261
91.42000 0.860
91.44000 2.845
91.46000 1.490
91.48000 4.970
91.50000 2.811
91.52000 1.442
91.54000 4.047
91.56000 5.136
91.58000 2.089
91.60000 0.737
91.62000 -1.832
91.64000 -1.057
91.66000 1.208
91.68000 4.059
91.70000 2.929
91.72000 2.621
91.74000 4.583
91.76000 3.832
91.78000 2.221
91.80000 4.049
91.82000 6.990
91.84000 4.765
91.86000 7.365
91.88000 4.989
91.90000 4.920
91.92000 5.113
91.94000 5.418
91.96000 3.552
91.98000 2.585
92.00000 -1.156
92.02000 3.668
92.04000 4.620
92.06000 3.870
92.08000 2.586
92.10000 2.434
92.12000 -1.816
92.14000 5.288
92.16000 4.965
92.18000 -0.519
92.20000 2.535
92.22000 2.645
92.24000 1.403
92.26000 2.010
92.28000 3.604
92.30000 2.704
92.32000 1.998
92.34000 0.640
92.36000 -0.487
92.38000 -0.812
92.40000 2.630
92.42000 2.278
92.44000 0.618
92.46000 0.599
92.48000 2.726
92.50000 3.701
92.52000 2.571
92.54000 4.699
92.56000 3.697
92.58000 1.866
92.60000 4.810
92.62000 2.688
92.64000 2.774
92.66000 0.162
92.68000 -1.858
92.70000 3.510
92.72000 1.096
92.74000 -0.223
92.76000 5.448
92.78000 3.576
92.80000 2.188
92.82000 -1.863
92.84000 -1.553
92.86000 1.336
92.88000 2.020
92.90000 0.814
92.92000 2.133
92.94000 4.164
92.96000 3.393
92.98000 2.462
93.00000 3.081
93.02000 0.522
93.04000 -1.352
93.06000 3.151
93.08000 1.576
93.10000 0.714
93.12000 3.185
93.14000 3.082
93.16000 4.885
93.18000 7.288
93.20000 7.377
93.22000 1.924
93.24000 2.366
93.26000 1.924
93.28000 1.763
93.30000 0.212
93.32000 -0.555
93.34000 -1.140
93.36000 -1.281
93.38000 0.137
93.40000 -1.583
93.42000 2.424
93.44000 4.721
93.46000 4.059
93.48000 5.009
93.50000 4.812
93.52000 2.781
93.54000 -0.030
93.56000 -1.144
93.58000 -0.229
93.60000 0.507
93.62000 3.255
93.64000 3.280
93.66000 0.860
93.68000 -0.447
93.70000 0.817
93.72000 -0.551
93.74000 2.093
93.76000 1.380
93.78000 1.874
93.80000 -0.790
93.82000 0.046
93.84000 3.124
93.86000 1.156
93.88000 -1.525
93.90000 -1.872
93.92000 1.990
93.94000 2.697
93.96000 1.624
93.98000 3.022
94.00000 1.885
94.02000 4.096
94.04000 3.910
94.06000 0.988
94.08000 3.597
94.10000 3.160
94.12000 5.706
94.14000 6.188
94.16000 2.375
94.18000 1.465
94.20000 2.818
94.22000 3.482
94.24000 2.340
94.26000 2.340
94.28000 3.258
94.30000 2.623
94.32000 0.700
94.34000 0.808
94.36000 -1.841
94.38000 2.333
94.40000 2.113
94.42000 2.988
94.44000 1.529
94.46000 -0.799
94.48000 1.874
94.50000 -0.023
94.52000 2.759
94.54000 2.947
94.56000 3.690
94.58000 0.434
94.60000 -0.718
94.62000 3.126
94.64000 3.125
94.66000 5.478
94.68000 3.818
94.70000 3.757
94.72000 1.761
94.74000 1.719
94.76000 1.183
94.78000 1.712
94.80000 3.805
94.82000 7.644
94.84000 4.620
94.86000 2.311
94.88000 2.521
94.90000 4.132
94.92000 1.745
94.94000 2.610
94.96000 6.177
94.98000 2.927
95.00000 1.380
95.02000 5.147
95.04000 4.039
95.06000 1.922
95.08000 -0.995
95.10000 0.893
95.12000 3.440
95.14000 1.581
95.16000 -0.817
95.18000 1.607
95.20000 -0.081
95.22000 2.000
95.24000 -0.976
95.26000 -1.913
95.28000 -1.508
95.30000 0.624
95.32000 -0.023
95.34000 0.908
95.36000 6.617
95.38000 7.165
95.40000 4.418
95.42000 5.838
95.44000 2.418
95.46000 3.102
95.48000 5.242
95.50000 4.759
95.52000 2.041
95.54000 0.594
95.56000 1.588
95.58000 1.261
95.60000 -0.248
95.62000 0.870
95.64000 0.485
95.66000 0.937
95.68000 -1.813
95.70000 2.813
95.72000 2.703
95.74000 -1.109
95.76000 -0.244
95.78000 -1.314
95.80000 2.728
95.82000 3.458
95.84000 2.438
95.86000 2.113
95.88000 1.831
95.90000 1.546
95.92000 5.793
95.94000 4.028
95.96000 3.294
95.98000 2.840
96.00000 1.039
96.02000 0.946
96.04000 -0.194
96.06000 -1.441
96.08000 2.499
96.10000 2.049
96.12000 -0.679
96.14000 -1.894
96.16000 1.936
96.18000 7.045
96.20000 0.317
96.22000 1.569
96.24000 4.535
96.26000 4.345
96.28000 1.234
96.30000 -0.935
96.32000 2.105
96.34000 4.292
96.36000 1.811
96.38000 3.803
96.40000 2.536
96.42000 3.262
96.44000 2.824
96.46000 3.654
96.48000 0.524
96.50000 2.731
96.52000 4.126
96.54000 5.268
96.56000 7.954
96.58000 5.510
96.60000 2.521
96.62000 5.236
96.64000 4.336
96.66000 2.724
96.68000 2.157
96.70000 4.480
96.72000 4.558
96.74000 11.770
96.76000 7.224
96.78000 5.913
96.80000 5.540
96.82000 5.490
96.84000 6.616
96.86000 0.365
96.88000 2.463
96.90000 3.811
96.92000 4.518
96.94000 5.632
96.96000 4.202
96.98000 2.595
97.00000 -1.831
97.02000 4.290
97.04000 6.297
97.06000 6.062
97.08000 6.248
97.10000 7.786
97.12000 6.563
97.14000 5.474
97.16000 1.971
97.18000 -0.360
97.20000 -1.822
97.22000 2.316
97.24000 5.951
97.26000 6.131
97.28000 6.120
97.30000 6.450
97.32000 3.898
97.34000 3.202
97.36000 3.380
97.38000 5.280
97.40000 9.367
97.42000 9.875
97.44000 8.500
97.46000 4.167
97.48000 3.518
97.50000 0.823
97.52000 4.786
97.54000 3.410
97.56000 4.359
97.58000 2.445
97.60000 0.860
97.62000 2.984
97.64000 5.906
97.66000 3.606
97.68000 3.374
97.70000 2.633
97.72000 2.887
97.74000 5.746
97.76000 5.901
97.78000 6.810
97.80000 7.086
97.82000 3.672
97.84000 7.123
97.86000 4.718
97.88000 2.354
97.90000 5.563
97.92000 5.788
97.94000 7.611
97.96000 5.494
97.98000 2.063
98.00000 7.057
98.02000 3.892
98.04000 1.296
98.06000 7.714
98.08000 5.077
98.10000 -0.825
98.12000 5.478
98.14000 7.718
98.16000 7.866
98.18000 7.418
98.20000 6.222
98.22000 0.989
98.24000 -1.422
98.26000 0.635
98.28000 6.557
98.30000 3.889
98.32000 9.649
98.34000 7.426
98.36000 6.348
98.38000 3.876
98.40000 3.000
98.42000 3.603
98.44000 0.989
98.46000 1.187
98.48000 6.263
98.50000 1.843
98.52000 3.542
98.54000 3.409
98.56000 2.136
98.58000 2.332
98.60000 1.504
98.62000 8.432
98.64000 6.150
98.66000 6.253
98.68000 2.203
98.70000 -1.769
98.72000 3.312
98.74000 3.627
98.76000 6.306
98.78000 7.626
98.80000 12.066
98.82000 12.165
98.84000 4.714
98.86000 1.126
98.88000 0.655
98.90000 8.147
98.92000 14.214
98.94000 6.053
98.96000 4.500
98.98000 -0.473
99.00000 4.196
99.02000 3.797
99.04000 -0.271
99.06000 3.618
99.08000 4.029
99.10000 3.686
99.12000 5.096
99.14000 2.177
99.16000 8.291
99.18000 4.566
99.20000 6.744
99.22000 7.240
99.24000 4.047
99.26000 7.042
99.28000 4.903
99.30000 2.869
99.32000 -0.686
99.34000 -1.522
99.36000 2.012
99.38000 7.705
99.40000 2.625
99.42000 4.114
99.44000 10.249
99.46000 3.983
99.48000 7.249
99.50000 0.352
99.52000 2.579
99.54000 6.388
99.56000 10.238
99.58000 2.320
99.60000 0.273
99.62000 6.510
99.64000 0.618
99.66000 5.649
99.68000 7.231
99.70000 2.770
99.72000 -2.035
99.74000 6.853
99.76000 7.392
99.78000 7.869
99.80000 12.741
99.82000 3.348
99.84000 1.240
99.86000 4.623
99.88000 7.802
99.90000 3.413
99.92000 -1.984
99.94000 6.115
99.96000 1.846
99.98000 0.000
