'Id: "0011388" Comment: "Integrate frame 0011388_Au-Ir-Rh_Rh-rich_XRD-Mapping-092-0000.gfrmwith cursor Wedge Cursor #5" Operator: "B?rgel" Anode: "Cu" Wavelength: "1.5406" Scantype: "2Theta (TwoTheta)" TimePerStep: "1" X: "36" Y: "-18" Z: "5.95" 
10.00000 0.000
10.02000 8.567
10.04000 19.263
10.06000 21.244
10.08000 14.494
10.10000 29.931
10.12000 27.316
10.14000 28.460
10.16000 30.883
10.18000 35.293
10.20000 14.867
10.22000 6.642
10.24000 23.363
10.26000 16.353
10.28000 27.363
10.30000 20.683
10.32000 20.212
10.34000 25.732
10.36000 21.557
10.38000 17.001
10.40000 21.225
10.42000 27.857
10.44000 33.045
10.46000 29.835
10.48000 19.457
10.50000 27.390
10.52000 29.873
10.54000 15.874
10.56000 20.341
10.58000 23.790
10.60000 27.209
10.62000 26.185
10.64000 22.407
10.66000 26.234
10.68000 29.059
10.70000 17.368
10.72000 24.312
10.74000 21.950
10.76000 23.601
10.78000 22.774
10.80000 23.848
10.82000 29.650
10.84000 25.715
10.86000 27.612
10.88000 33.036
10.90000 48.397
10.92000 29.692
10.94000 36.131
10.96000 40.438
10.98000 44.375
11.00000 34.536
11.02000 23.672
11.04000 27.193
11.06000 36.599
11.08000 38.054
11.10000 40.202
11.12000 30.206
11.14000 28.023
11.16000 32.427
11.18000 37.052
11.20000 32.702
11.22000 32.816
11.24000 36.681
11.26000 24.038
11.28000 22.644
11.30000 40.794
11.32000 43.095
11.34000 36.118
11.36000 32.482
11.38000 38.291
11.40000 41.182
11.42000 36.065
11.44000 36.211
11.46000 37.652
11.48000 32.210
11.50000 36.433
11.52000 26.720
11.54000 33.728
11.56000 33.056
11.58000 35.684
11.60000 36.243
11.62000 35.646
11.64000 37.049
11.66000 37.663
11.68000 38.356
11.70000 40.391
11.72000 44.709
11.74000 45.788
11.76000 41.334
11.78000 40.956
11.80000 38.933
11.82000 31.572
11.84000 28.816
11.86000 28.182
11.88000 36.187
11.90000 41.883
11.92000 41.958
11.94000 43.882
11.96000 47.176
11.98000 42.847
12.00000 32.717
12.02000 35.203
12.04000 41.919
12.06000 44.658
12.08000 41.504
12.10000 43.033
12.12000 40.127
12.14000 41.642
12.16000 46.756
12.18000 49.123
12.20000 46.820
12.22000 38.297
12.24000 42.880
12.26000 49.977
12.28000 51.326
12.30000 39.340
12.32000 34.814
12.34000 46.311
12.36000 45.853
12.38000 41.379
12.40000 52.523
12.42000 48.431
12.44000 39.789
12.46000 49.576
12.48000 54.822
12.50000 50.938
12.52000 46.602
12.54000 44.035
12.56000 49.897
12.58000 44.451
12.60000 51.587
12.62000 56.285
12.64000 50.152
12.66000 43.336
12.68000 50.193
12.70000 51.049
12.72000 43.706
12.74000 46.740
12.76000 54.659
12.78000 48.980
12.80000 32.567
12.82000 36.934
12.84000 60.413
12.86000 59.625
12.88000 45.586
12.90000 44.891
12.92000 51.971
12.94000 46.536
12.96000 57.168
12.98000 51.712
13.00000 44.717
13.02000 47.263
13.04000 43.456
13.06000 47.454
13.08000 50.671
13.10000 46.207
13.12000 47.573
13.14000 51.664
13.16000 53.017
13.18000 45.985
13.20000 36.054
13.22000 48.836
13.24000 55.872
13.26000 50.090
13.28000 52.340
13.30000 60.411
13.32000 60.490
13.34000 54.050
13.36000 50.583
13.38000 47.925
13.40000 44.462
13.42000 50.645
13.44000 46.693
13.46000 41.299
13.48000 41.032
13.50000 39.602
13.52000 39.057
13.54000 40.692
13.56000 46.603
13.58000 50.065
13.60000 49.302
13.62000 39.324
13.64000 34.946
13.66000 45.350
13.68000 43.547
13.70000 43.564
13.72000 39.906
13.74000 43.860
13.76000 37.732
13.78000 42.676
13.80000 52.894
13.82000 44.081
13.84000 36.354
13.86000 43.137
13.88000 38.040
13.90000 41.332
13.92000 34.801
13.94000 44.069
13.96000 49.401
13.98000 52.986
14.00000 50.339
14.02000 47.865
14.04000 40.603
14.06000 41.969
14.08000 47.611
14.10000 47.992
14.12000 40.707
14.14000 36.192
14.16000 41.958
14.18000 40.474
14.20000 42.350
14.22000 41.004
14.24000 33.236
14.26000 36.253
14.28000 38.076
14.30000 36.987
14.32000 35.223
14.34000 29.679
14.36000 23.190
14.38000 31.198
14.40000 41.348
14.42000 31.567
14.44000 41.226
14.46000 38.275
14.48000 40.300
14.50000 31.828
14.52000 29.302
14.54000 30.988
14.56000 38.013
14.58000 33.505
14.60000 26.180
14.62000 35.762
14.64000 32.664
14.66000 32.188
14.68000 27.328
14.70000 23.424
14.72000 29.153
14.74000 32.147
14.76000 29.997
14.78000 22.258
14.80000 25.787
14.82000 32.695
14.84000 39.556
14.86000 35.729
14.88000 34.423
14.90000 29.844
14.92000 25.776
14.94000 31.561
14.96000 29.804
14.98000 25.332
15.00000 28.633
15.02000 33.624
15.04000 36.309
15.06000 37.473
15.08000 31.238
15.10000 31.612
15.12000 24.374
15.14000 24.766
15.16000 27.113
15.18000 19.712
15.20000 19.849
15.22000 29.556
15.24000 35.028
15.26000 28.201
15.28000 28.695
15.30000 25.068
15.32000 26.437
15.34000 23.390
15.36000 25.777
15.38000 26.864
15.40000 21.261
15.42000 15.269
15.44000 24.396
15.46000 30.310
15.48000 30.119
15.50000 19.821
15.52000 17.050
15.54000 19.156
15.56000 13.346
15.58000 15.844
15.60000 20.132
15.62000 25.293
15.64000 20.546
15.66000 20.036
15.68000 12.904
15.70000 17.609
15.72000 21.125
15.74000 21.518
15.76000 22.201
15.78000 21.158
15.80000 21.233
15.82000 22.715
15.84000 14.196
15.86000 7.929
15.88000 20.561
15.90000 17.433
15.92000 19.841
15.94000 13.959
15.96000 17.975
15.98000 22.141
16.00000 24.631
16.02000 22.136
16.04000 21.007
16.06000 23.538
16.08000 22.606
16.10000 23.122
16.12000 26.061
16.14000 19.505
16.16000 23.276
16.18000 23.631
16.20000 19.368
16.22000 21.841
16.24000 19.623
16.26000 19.306
16.28000 22.415
16.30000 17.307
16.32000 11.607
16.34000 22.426
16.36000 27.107
16.38000 17.769
16.40000 23.235
16.42000 18.246
16.44000 11.761
16.46000 17.439
16.48000 23.409
16.50000 20.083
16.52000 22.304
16.54000 21.235
16.56000 20.431
16.58000 17.378
16.60000 10.406
16.62000 8.610
16.64000 17.590
16.66000 17.469
16.68000 18.107
16.70000 15.818
16.72000 16.318
16.74000 18.338
16.76000 24.949
16.78000 22.514
16.80000 14.525
16.82000 12.751
16.84000 15.705
16.86000 9.239
16.88000 8.672
16.90000 10.255
16.92000 10.396
16.94000 13.481
16.96000 17.288
16.98000 12.047
17.00000 20.410
17.02000 15.715
17.04000 9.789
17.06000 10.989
17.08000 16.717
17.10000 15.130
17.12000 2.816
17.14000 -4.304
17.16000 6.619
17.18000 8.736
17.20000 14.357
17.22000 16.299
17.24000 9.127
17.26000 7.771
17.28000 11.913
17.30000 15.418
17.32000 9.801
17.34000 3.120
17.36000 5.535
17.38000 8.463
17.40000 9.774
17.42000 10.100
17.44000 19.120
17.46000 12.205
17.48000 11.699
17.50000 9.638
17.52000 10.743
17.54000 12.555
17.56000 13.951
17.58000 12.261
17.60000 9.035
17.62000 9.818
17.64000 16.272
17.66000 22.591
17.68000 15.636
17.70000 12.079
17.72000 13.922
17.74000 10.950
17.76000 9.905
17.78000 10.742
17.80000 5.398
17.82000 4.976
17.84000 3.824
17.86000 11.358
17.88000 12.294
17.90000 3.167
17.92000 9.381
17.94000 6.130
17.96000 0.599
17.98000 6.220
18.00000 9.169
18.02000 10.894
18.04000 3.192
18.06000 6.438
18.08000 9.696
18.10000 9.945
18.12000 8.341
18.14000 12.856
18.16000 13.773
18.18000 10.789
18.20000 9.766
18.22000 8.439
18.24000 2.244
18.26000 4.262
18.28000 8.859
18.30000 1.345
18.32000 -0.583
18.34000 4.114
18.36000 7.656
18.38000 4.233
18.40000 9.553
18.42000 12.612
18.44000 11.222
18.46000 5.274
18.48000 4.649
18.50000 1.224
18.52000 9.369
18.54000 1.763
18.56000 3.123
18.58000 10.842
18.60000 7.278
18.62000 11.699
18.64000 6.140
18.66000 8.522
18.68000 16.260
18.70000 4.408
18.72000 -0.934
18.74000 3.724
18.76000 2.726
18.78000 3.094
18.80000 7.041
18.82000 9.502
18.84000 9.439
18.86000 8.161
18.88000 2.349
18.90000 7.465
18.92000 6.619
18.94000 1.236
18.96000 0.955
18.98000 6.160
19.00000 7.689
19.02000 10.819
19.04000 10.257
19.06000 10.985
19.08000 10.139
19.10000 10.977
19.12000 6.309
19.14000 6.121
19.16000 10.362
19.18000 9.796
19.20000 3.449
19.22000 2.063
19.24000 0.883
19.26000 -0.092
19.28000 0.935
19.30000 7.601
19.32000 5.513
19.34000 9.673
19.36000 3.486
19.38000 2.479
19.40000 -0.057
19.42000 1.435
19.44000 13.064
19.46000 11.159
19.48000 8.923
19.50000 9.173
19.52000 1.238
19.54000 -2.554
19.56000 -2.792
19.58000 -4.206
19.60000 6.359
19.62000 15.287
19.64000 8.135
19.66000 8.018
19.68000 9.642
19.70000 9.858
19.72000 8.578
19.74000 10.647
19.76000 9.397
19.78000 7.659
19.80000 1.553
19.82000 -0.771
19.84000 2.796
19.86000 9.388
19.88000 10.529
19.90000 5.486
19.92000 11.344
19.94000 16.682
19.96000 5.211
19.98000 -4.185
20.00000 3.874
20.02000 5.841
20.04000 12.110
20.06000 7.130
20.08000 5.784
20.10000 8.494
20.12000 8.237
20.14000 7.741
20.16000 3.309
20.18000 5.555
20.20000 5.292
20.22000 2.830
20.24000 6.113
20.26000 7.161
20.28000 2.168
20.30000 1.511
20.32000 14.521
20.34000 13.780
20.36000 6.554
20.38000 9.088
20.40000 5.241
20.42000 3.353
20.44000 4.656
20.46000 8.901
20.48000 6.638
20.50000 12.502
20.52000 9.450
20.54000 3.480
20.56000 -1.740
20.58000 1.064
20.60000 13.733
20.62000 8.743
20.64000 0.906
20.66000 13.107
20.68000 14.716
20.70000 5.458
20.72000 1.864
20.74000 4.626
20.76000 7.123
20.78000 8.179
20.80000 3.360
20.82000 3.514
20.84000 5.468
20.86000 -2.781
20.88000 -3.308
20.90000 -2.686
20.92000 0.496
20.94000 1.464
20.96000 4.053
20.98000 0.053
21.00000 3.200
21.02000 3.667
21.04000 2.678
21.06000 -2.354
21.08000 0.457
21.10000 3.065
21.12000 3.248
21.14000 3.709
21.16000 5.132
21.18000 2.472
21.20000 -1.797
21.22000 -0.382
21.24000 1.962
21.26000 -1.441
21.28000 0.861
21.30000 -0.275
21.32000 0.441
21.34000 3.846
21.36000 2.928
21.38000 2.217
21.40000 -0.244
21.42000 2.171
21.44000 1.191
21.46000 -0.892
21.48000 0.735
21.50000 0.438
21.52000 7.549
21.54000 5.416
21.56000 6.484
21.58000 3.961
21.60000 -0.605
21.62000 -1.428
21.64000 2.331
21.66000 2.008
21.68000 -0.779
21.70000 1.436
21.72000 1.990
21.74000 -0.207
21.76000 3.500
21.78000 1.957
21.80000 7.418
21.82000 -0.294
21.84000 -0.956
21.86000 5.434
21.88000 7.071
21.90000 1.896
21.92000 3.401
21.94000 7.654
21.96000 3.164
21.98000 4.655
22.00000 1.952
22.02000 -1.949
22.04000 -4.122
22.06000 -1.926
22.08000 4.586
22.10000 5.605
22.12000 1.580
22.14000 -0.130
22.16000 4.937
22.18000 3.061
22.20000 -0.381
22.22000 2.128
22.24000 4.136
22.26000 3.212
22.28000 -0.197
22.30000 -2.138
22.32000 4.502
22.34000 2.795
22.36000 3.149
22.38000 2.935
22.40000 -2.293
22.42000 -1.726
22.44000 -0.314
22.46000 1.162
22.48000 5.754
22.50000 11.252
22.52000 6.966
22.54000 2.092
22.56000 3.975
22.58000 0.484
22.60000 -3.689
22.62000 3.781
22.64000 5.514
22.66000 9.479
22.68000 3.919
22.70000 -4.085
22.72000 1.516
22.74000 3.638
22.76000 3.837
22.78000 -0.777
22.80000 1.945
22.82000 1.601
22.84000 2.774
22.86000 1.927
22.88000 4.932
22.90000 2.511
22.92000 4.606
22.94000 4.307
22.96000 2.044
22.98000 0.874
23.00000 4.858
23.02000 0.416
23.04000 -1.680
23.06000 0.214
23.08000 2.872
23.10000 4.056
23.12000 -2.641
23.14000 3.731
23.16000 9.703
23.18000 7.294
23.20000 2.005
23.22000 -3.331
23.24000 2.291
23.26000 5.935
23.28000 5.057
23.30000 1.387
23.32000 4.792
23.34000 2.440
23.36000 -1.541
23.38000 3.073
23.40000 2.717
23.42000 -0.857
23.44000 7.817
23.46000 3.456
23.48000 4.638
23.50000 3.834
23.52000 3.490
23.54000 0.455
23.56000 -0.532
23.58000 0.493
23.60000 -0.451
23.62000 5.285
23.64000 5.942
23.66000 -1.772
23.68000 4.924
23.70000 9.029
23.72000 6.935
23.74000 -0.037
23.76000 1.992
23.78000 -0.245
23.80000 6.781
23.82000 8.106
23.84000 6.191
23.86000 1.241
23.88000 -2.044
23.90000 -2.073
23.92000 0.712
23.94000 2.163
23.96000 2.006
23.98000 -4.028
24.00000 1.194
24.02000 4.764
24.04000 2.079
24.06000 -0.749
24.08000 -3.647
24.10000 -2.692
24.12000 -3.351
24.14000 0.436
24.16000 -2.344
24.18000 -0.136
24.20000 3.145
24.22000 2.529
24.24000 0.454
24.26000 -0.982
24.28000 1.727
24.30000 4.966
24.32000 -0.493
24.34000 -1.402
24.36000 -1.383
24.38000 1.404
24.40000 -0.320
24.42000 4.684
24.44000 5.179
24.46000 5.712
24.48000 4.259
24.50000 -0.053
24.52000 2.145
24.54000 9.204
24.56000 1.441
24.58000 -0.506
24.60000 6.374
24.62000 5.131
24.64000 4.964
24.66000 3.734
24.68000 -0.296
24.70000 -2.511
24.72000 -0.239
24.74000 2.947
24.76000 2.972
24.78000 2.619
24.80000 1.402
24.82000 0.706
24.84000 4.439
24.86000 3.697
24.88000 5.276
24.90000 10.414
24.92000 2.285
24.94000 -1.960
24.96000 -0.879
24.98000 5.717
25.00000 6.126
25.02000 -0.241
25.04000 -0.948
25.06000 2.591
25.08000 5.011
25.10000 4.052
25.12000 1.619
25.14000 -1.635
25.16000 -3.055
25.18000 5.613
25.20000 5.756
25.22000 5.530
25.24000 9.769
25.26000 3.341
25.28000 0.650
25.30000 3.844
25.32000 4.275
25.34000 3.119
25.36000 6.957
25.38000 4.578
25.40000 3.395
25.42000 6.337
25.44000 8.983
25.46000 9.043
25.48000 2.283
25.50000 -2.058
25.52000 0.682
25.54000 -1.927
25.56000 0.978
25.58000 1.092
25.60000 5.084
25.62000 9.700
25.64000 8.950
25.66000 11.181
25.68000 13.913
25.70000 9.252
25.72000 5.726
25.74000 6.930
25.76000 5.684
25.78000 7.592
25.80000 3.065
25.82000 3.699
25.84000 -0.506
25.86000 -3.848
25.88000 2.225
25.90000 14.771
25.92000 6.287
25.94000 4.494
25.96000 6.000
25.98000 8.314
26.00000 12.595
26.02000 8.201
26.04000 3.462
26.06000 7.164
26.08000 5.777
26.10000 4.175
26.12000 4.041
26.14000 3.194
26.16000 5.014
26.18000 7.648
26.20000 5.672
26.22000 1.972
26.24000 4.677
26.26000 8.039
26.28000 6.102
26.30000 6.925
26.32000 11.961
26.34000 7.810
26.36000 3.787
26.38000 7.107
26.40000 7.301
26.42000 4.804
26.44000 9.459
26.46000 7.566
26.48000 7.338
26.50000 3.554
26.52000 5.326
26.54000 8.039
26.56000 8.829
26.58000 6.294
26.60000 4.942
26.62000 5.849
26.64000 3.850
26.66000 0.053
26.68000 3.098
26.70000 6.356
26.72000 6.890
26.74000 1.142
26.76000 -0.487
26.78000 0.862
26.80000 3.907
26.82000 1.522
26.84000 -1.617
26.86000 -0.080
26.88000 1.940
26.90000 -0.417
26.92000 -0.363
26.94000 -0.484
26.96000 1.551
26.98000 3.734
27.00000 3.037
27.02000 5.734
27.04000 2.461
27.06000 1.456
27.08000 1.183
27.10000 3.579
27.12000 6.183
27.14000 8.288
27.16000 6.121
27.18000 1.497
27.20000 2.501
27.22000 3.771
27.24000 0.988
27.26000 1.498
27.28000 0.584
27.30000 2.701
27.32000 3.244
27.34000 5.060
27.36000 6.906
27.38000 3.537
27.40000 3.498
27.42000 4.185
27.44000 2.683
27.46000 0.444
27.48000 3.489
27.50000 3.726
27.52000 -1.828
27.54000 1.209
27.56000 5.757
27.58000 3.476
27.60000 4.081
27.62000 -1.371
27.64000 -1.370
27.66000 4.061
27.68000 6.281
27.70000 5.400
27.72000 2.362
27.74000 3.856
27.76000 2.706
27.78000 3.520
27.80000 1.518
27.82000 1.886
27.84000 -0.399
27.86000 2.142
27.88000 1.003
27.90000 -0.206
27.92000 -1.004
27.94000 2.435
27.96000 1.968
27.98000 1.346
28.00000 -0.051
28.02000 -1.426
28.04000 4.464
28.06000 2.008
28.08000 0.383
28.10000 2.027
28.12000 6.540
28.14000 2.720
28.16000 5.130
28.18000 1.008
28.20000 0.498
28.22000 -2.205
28.24000 -0.437
28.26000 1.637
28.28000 0.920
28.30000 1.536
28.32000 3.982
28.34000 5.661
28.36000 4.490
28.38000 0.873
28.40000 -0.983
28.42000 -0.875
28.44000 2.332
28.46000 3.395
28.48000 4.817
28.50000 -0.613
28.52000 -3.769
28.54000 -1.873
28.56000 1.259
28.58000 5.728
28.60000 -0.033
28.62000 -1.508
28.64000 0.624
28.66000 0.148
28.68000 0.972
28.70000 2.558
28.72000 0.261
28.74000 1.367
28.76000 4.447
28.78000 7.352
28.80000 3.682
28.82000 1.937
28.84000 0.695
28.86000 3.470
28.88000 4.632
28.90000 1.341
28.92000 6.237
28.94000 7.978
28.96000 6.225
28.98000 -0.982
29.00000 2.873
29.02000 8.293
29.04000 9.241
29.06000 6.004
29.08000 4.592
29.10000 4.510
29.12000 5.733
29.14000 7.568
29.16000 4.032
29.18000 9.411
29.20000 5.402
29.22000 3.815
29.24000 3.763
29.26000 2.273
29.28000 4.499
29.30000 7.215
29.32000 13.993
29.34000 13.432
29.36000 5.491
29.38000 -3.681
29.40000 1.652
29.42000 2.276
29.44000 5.742
29.46000 7.385
29.48000 6.998
29.50000 9.276
29.52000 12.041
29.54000 8.542
29.56000 10.035
29.58000 11.783
29.60000 8.857
29.62000 9.502
29.64000 7.564
29.66000 5.941
29.68000 4.423
29.70000 3.575
29.72000 7.516
29.74000 9.032
29.76000 4.706
29.78000 7.858
29.80000 4.533
29.82000 0.647
29.84000 2.912
29.86000 4.662
29.88000 3.708
29.90000 4.211
29.92000 1.405
29.94000 -0.505
29.96000 2.616
29.98000 2.226
30.00000 6.707
30.02000 8.169
30.04000 8.524
30.06000 6.841
30.08000 2.933
30.10000 7.377
30.12000 2.728
30.14000 3.097
30.16000 3.004
30.18000 4.710
30.20000 2.563
30.22000 7.841
30.24000 7.380
30.26000 7.700
30.28000 5.966
30.30000 4.419
30.32000 5.154
30.34000 7.088
30.36000 5.011
30.38000 4.325
30.40000 -3.659
30.42000 -1.631
30.44000 2.389
30.46000 -0.706
30.48000 -2.052
30.50000 2.562
30.52000 5.074
30.54000 4.474
30.56000 6.124
30.58000 2.849
30.60000 1.745
30.62000 0.315
30.64000 -0.288
30.66000 1.409
30.68000 3.876
30.70000 2.289
30.72000 3.624
30.74000 6.668
30.76000 3.020
30.78000 -2.187
30.80000 -2.192
30.82000 2.814
30.84000 2.985
30.86000 5.220
30.88000 4.417
30.90000 7.261
30.92000 5.973
30.94000 4.906
30.96000 3.956
30.98000 8.200
31.00000 8.251
31.02000 2.093
31.04000 5.670
31.06000 2.601
31.08000 0.416
31.10000 -1.013
31.12000 3.952
31.14000 2.963
31.16000 3.532
31.18000 3.271
31.20000 4.992
31.22000 2.282
31.24000 -1.499
31.26000 -3.622
31.28000 0.918
31.30000 5.066
31.32000 1.095
31.34000 2.094
31.36000 -2.511
31.38000 0.495
31.40000 2.838
31.42000 3.375
31.44000 0.659
31.46000 -1.422
31.48000 -0.057
31.50000 6.065
31.52000 4.624
31.54000 4.393
31.56000 5.423
31.58000 6.152
31.60000 1.139
31.62000 -0.375
31.64000 7.879
31.66000 6.975
31.68000 4.242
31.70000 4.210
31.72000 4.930
31.74000 -3.596
31.76000 2.766
31.78000 4.710
31.80000 2.614
31.82000 2.851
31.84000 0.299
31.86000 1.719
31.88000 0.553
31.90000 4.163
31.92000 8.886
31.94000 7.276
31.96000 7.346
31.98000 7.649
32.00000 5.525
32.02000 2.514
32.04000 0.620
32.06000 -1.036
32.08000 5.343
32.10000 6.404
32.12000 3.755
32.14000 3.342
32.16000 8.282
32.18000 9.345
32.20000 4.282
32.22000 0.546
32.24000 -1.860
32.26000 3.860
32.28000 2.979
32.30000 -2.279
32.32000 0.680
32.34000 -0.882
32.36000 -0.534
32.38000 4.477
32.40000 -1.434
32.42000 2.188
32.44000 1.243
32.46000 3.574
32.48000 0.662
32.50000 -1.820
32.52000 1.935
32.54000 2.753
32.56000 -0.313
32.58000 1.696
32.60000 -1.624
32.62000 1.614
32.64000 6.179
32.66000 0.308
32.68000 0.080
32.70000 -1.959
32.72000 0.696
32.74000 4.096
32.76000 6.357
32.78000 0.380
32.80000 0.698
32.82000 -0.812
32.84000 -3.581
32.86000 0.987
32.88000 9.459
32.90000 5.591
32.92000 3.503
32.94000 0.902
32.96000 -1.561
32.98000 2.445
33.00000 3.606
33.02000 1.806
33.04000 3.466
33.06000 2.962
33.08000 4.530
33.10000 6.293
33.12000 2.313
33.14000 -0.565
33.16000 0.533
33.18000 3.022
33.20000 1.807
33.22000 1.007
33.24000 2.772
33.26000 3.691
33.28000 3.156
33.30000 0.027
33.32000 1.051
33.34000 1.392
33.36000 5.236
33.38000 1.517
33.40000 4.866
33.42000 7.333
33.44000 5.538
33.46000 1.663
33.48000 1.853
33.50000 3.414
33.52000 5.792
33.54000 5.404
33.56000 6.854
33.58000 2.822
33.60000 2.993
33.62000 2.114
33.64000 3.259
33.66000 -0.048
33.68000 0.857
33.70000 2.879
33.72000 2.649
33.74000 0.063
33.76000 -3.328
33.78000 -2.844
33.80000 -3.563
33.82000 4.350
33.84000 8.065
33.86000 3.036
33.88000 -0.191
33.90000 -1.913
33.92000 0.909
33.94000 2.583
33.96000 -3.170
33.98000 -0.159
34.00000 0.100
34.02000 -1.828
34.04000 1.803
34.06000 4.564
34.08000 4.230
34.10000 5.433
34.12000 7.394
34.14000 1.518
34.16000 -1.020
34.18000 1.138
34.20000 2.058
34.22000 -0.906
34.24000 -1.035
34.26000 0.216
34.28000 -2.925
34.30000 1.323
34.32000 0.887
34.34000 3.700
34.36000 8.712
34.38000 2.424
34.40000 -0.029
34.42000 2.294
34.44000 0.551
34.46000 4.349
34.48000 9.165
34.50000 8.813
34.52000 2.385
34.54000 -1.852
34.56000 1.943
34.58000 0.904
34.60000 1.448
34.62000 2.567
34.64000 1.781
34.66000 5.162
34.68000 3.096
34.70000 0.302
34.72000 -0.028
34.74000 -1.666
34.76000 -3.526
34.78000 -3.400
34.80000 -0.021
34.82000 1.345
34.84000 5.375
34.86000 5.288
34.88000 7.075
34.90000 0.969
34.92000 1.475
34.94000 1.175
34.96000 -0.018
34.98000 2.038
35.00000 6.336
35.02000 2.107
35.04000 -1.286
35.06000 -3.524
35.08000 -0.340
35.10000 3.038
35.12000 3.609
35.14000 3.688
35.16000 -2.392
35.18000 -3.061
35.20000 1.995
35.22000 -0.302
35.24000 -1.710
35.26000 4.912
35.28000 10.467
35.30000 11.008
35.32000 4.241
35.34000 1.501
35.36000 -0.169
35.38000 1.695
35.40000 -0.468
35.42000 2.984
35.44000 1.965
35.46000 0.513
35.48000 4.144
35.50000 4.726
35.52000 -1.121
35.54000 1.803
35.56000 3.906
35.58000 6.294
35.60000 7.105
35.62000 5.282
35.64000 3.635
35.66000 0.100
35.68000 -0.244
35.70000 7.298
35.72000 9.186
35.74000 2.453
35.76000 3.818
35.78000 3.318
35.80000 3.165
35.82000 4.595
35.84000 12.189
35.86000 7.686
35.88000 1.464
35.90000 4.735
35.92000 7.782
35.94000 4.193
35.96000 -3.447
35.98000 0.414
36.00000 8.296
36.02000 6.837
36.04000 4.946
36.06000 6.145
36.08000 5.196
36.10000 7.717
36.12000 8.721
36.14000 5.435
36.16000 -1.511
36.18000 -2.327
36.20000 6.193
36.22000 10.948
36.24000 6.097
36.26000 1.193
36.28000 9.174
36.30000 9.997
36.32000 11.824
36.34000 7.697
36.36000 2.789
36.38000 2.799
36.40000 6.159
36.42000 7.392
36.44000 6.434
36.46000 7.323
36.48000 3.490
36.50000 5.332
36.52000 3.975
36.54000 -1.898
36.56000 -2.240
36.58000 0.433
36.60000 5.322
36.62000 1.479
36.64000 -3.487
36.66000 6.330
36.68000 5.041
36.70000 0.173
36.72000 1.834
36.74000 5.795
36.76000 3.674
36.78000 3.706
36.80000 5.491
36.82000 1.112
36.84000 8.445
36.86000 5.154
36.88000 4.767
36.90000 5.901
36.92000 4.876
36.94000 3.290
36.96000 4.066
36.98000 -0.297
37.00000 -2.284
37.02000 0.436
37.04000 3.640
37.06000 3.029
37.08000 6.725
37.10000 9.673
37.12000 5.056
37.14000 2.959
37.16000 1.851
37.18000 4.276
37.20000 4.575
37.22000 -2.416
37.24000 3.574
37.26000 -0.423
37.28000 -0.623
37.30000 -3.537
37.32000 0.056
37.34000 5.536
37.36000 -0.235
37.38000 -0.657
37.40000 -1.268
37.42000 3.106
37.44000 4.361
37.46000 5.113
37.48000 3.996
37.50000 3.432
37.52000 3.712
37.54000 3.421
37.56000 0.824
37.58000 -1.388
37.60000 0.225
37.62000 -0.552
37.64000 1.340
37.66000 6.342
37.68000 0.552
37.70000 -3.579
37.72000 0.024
37.74000 -0.040
37.76000 -0.643
37.78000 -1.775
37.80000 1.209
37.82000 2.806
37.84000 1.059
37.86000 1.923
37.88000 6.270
37.90000 6.842
37.92000 3.489
37.94000 -0.357
37.96000 0.765
37.98000 3.393
38.00000 5.105
38.02000 5.988
38.04000 8.092
38.06000 5.210
38.08000 4.593
38.10000 8.889
38.12000 11.142
38.14000 9.295
38.16000 8.480
38.18000 5.451
38.20000 6.885
38.22000 9.282
38.24000 8.165
38.26000 6.517
38.28000 8.136
38.30000 11.211
38.32000 8.271
38.34000 9.054
38.36000 7.113
38.38000 7.681
38.40000 9.947
38.42000 12.430
38.44000 17.119
38.46000 11.387
38.48000 8.972
38.50000 11.466
38.52000 10.774
38.54000 13.047
38.56000 18.073
38.58000 17.754
38.60000 14.331
38.62000 14.985
38.64000 17.765
38.66000 18.817
38.68000 20.457
38.70000 23.083
38.72000 16.675
38.74000 19.828
38.76000 22.477
38.78000 18.507
38.80000 17.821
38.82000 16.881
38.84000 21.812
38.86000 19.798
38.88000 17.793
38.90000 20.078
38.92000 23.724
38.94000 21.640
38.96000 21.147
38.98000 21.573
39.00000 22.996
39.02000 25.172
39.04000 20.411
39.06000 21.295
39.08000 28.740
39.10000 28.126
39.12000 26.281
39.14000 30.545
39.16000 35.937
39.18000 35.684
39.20000 27.183
39.22000 26.417
39.24000 31.098
39.26000 35.422
39.28000 40.833
39.30000 35.135
39.32000 38.914
39.34000 37.971
39.36000 38.703
39.38000 45.440
39.40000 41.732
39.42000 46.070
39.44000 48.204
39.46000 51.515
39.48000 46.683
39.50000 46.902
39.52000 52.253
39.54000 61.463
39.56000 63.711
39.58000 63.393
39.60000 68.028
39.62000 69.876
39.64000 73.997
39.66000 77.381
39.68000 80.444
39.70000 81.406
39.72000 81.661
39.74000 83.734
39.76000 86.029
39.78000 94.311
39.80000 103.848
39.82000 103.539
39.84000 104.533
39.86000 112.874
39.88000 121.202
39.90000 128.386
39.92000 130.117
39.94000 130.564
39.96000 134.886
39.98000 146.939
40.00000 154.832
40.02000 163.106
40.04000 171.193
40.06000 178.029
40.08000 188.224
40.10000 201.990
40.12000 212.788
40.14000 220.903
40.16000 227.280
40.18000 234.837
40.20000 242.559
40.22000 258.274
40.24000 270.890
40.26000 282.721
40.28000 297.796
40.30000 315.995
40.32000 324.493
40.34000 338.949
40.36000 351.762
40.38000 369.676
40.40000 387.730
40.42000 399.694
40.44000 405.710
40.46000 422.523
40.48000 439.922
40.50000 454.180
40.52000 470.921
40.54000 495.619
40.56000 497.155
40.58000 516.944
40.60000 529.783
40.62000 545.406
40.64000 553.198
40.66000 577.340
40.68000 584.847
40.70000 578.955
40.72000 581.510
40.74000 591.803
40.76000 591.057
40.78000 595.597
40.80000 604.119
40.82000 605.689
40.84000 609.922
40.86000 596.811
40.88000 591.969
40.90000 585.941
40.92000 580.544
40.94000 568.117
40.96000 547.883
40.98000 547.203
41.00000 546.074
41.02000 527.451
41.04000 513.531
41.06000 498.423
41.08000 479.237
41.10000 455.146
41.12000 443.159
41.14000 427.008
41.16000 409.639
41.18000 403.705
41.20000 380.108
41.22000 357.946
41.24000 346.889
41.26000 332.872
41.28000 316.739
41.30000 298.664
41.32000 291.313
41.34000 286.909
41.36000 268.260
41.38000 246.523
41.40000 235.045
41.42000 219.493
41.44000 211.963
41.46000 200.885
41.48000 188.132
41.50000 180.048
41.52000 176.405
41.54000 167.678
41.56000 153.741
41.58000 142.949
41.60000 135.856
41.62000 131.480
41.64000 121.682
41.66000 120.163
41.68000 114.363
41.70000 105.575
41.72000 101.712
41.74000 97.706
41.76000 89.976
41.78000 86.404
41.80000 83.466
41.82000 74.157
41.84000 73.981
41.86000 75.194
41.88000 68.184
41.90000 63.239
41.92000 59.634
41.94000 56.444
41.96000 57.857
41.98000 54.430
42.00000 50.253
42.02000 44.517
42.04000 42.676
42.06000 41.841
42.08000 35.282
42.10000 37.130
42.12000 40.159
42.14000 34.641
42.16000 34.768
42.18000 34.308
42.20000 31.524
42.22000 27.335
42.24000 27.501
42.26000 27.986
42.28000 30.712
42.30000 28.979
42.32000 29.185
42.34000 26.994
42.36000 23.444
42.38000 17.433
42.40000 14.933
42.42000 13.355
42.44000 11.772
42.46000 15.755
42.48000 15.480
42.50000 12.820
42.52000 13.222
42.54000 11.735
42.56000 12.087
42.58000 12.644
42.60000 12.711
42.62000 10.305
42.64000 3.512
42.66000 11.265
42.68000 13.863
42.70000 9.727
42.72000 9.728
42.74000 8.011
42.76000 8.572
42.78000 9.446
42.80000 4.526
42.82000 8.474
42.84000 14.546
42.86000 11.194
42.88000 5.108
42.90000 2.118
42.92000 -0.934
42.94000 0.744
42.96000 3.715
42.98000 4.606
43.00000 5.425
43.02000 1.813
43.04000 -0.149
43.06000 3.651
43.08000 7.666
43.10000 6.301
43.12000 1.730
43.14000 -1.279
43.16000 -1.059
43.18000 2.151
43.20000 2.731
43.22000 6.863
43.24000 -2.335
43.26000 -3.595
43.28000 1.770
43.30000 3.453
43.32000 2.128
43.34000 -2.814
43.36000 -3.584
43.38000 0.067
43.40000 3.839
43.42000 1.060
43.44000 3.960
43.46000 6.856
43.48000 3.096
43.50000 0.813
43.52000 1.955
43.54000 4.684
43.56000 4.500
43.58000 1.787
43.60000 1.057
43.62000 3.423
43.64000 2.361
43.66000 4.203
43.68000 4.338
43.70000 -0.950
43.72000 1.092
43.74000 -0.977
43.76000 -0.991
43.78000 -0.859
43.80000 -0.214
43.82000 3.891
43.84000 -1.323
43.86000 -2.716
43.88000 -1.210
43.90000 0.423
43.92000 -0.805
43.94000 1.314
43.96000 2.114
43.98000 6.860
44.00000 2.637
44.02000 -0.597
44.04000 -3.500
44.06000 1.203
44.08000 -1.912
44.10000 3.506
44.12000 4.174
44.14000 2.590
44.16000 2.199
44.18000 4.065
44.20000 -0.627
44.22000 2.710
44.24000 3.754
44.26000 -0.125
44.28000 -0.658
44.30000 -0.203
44.32000 3.015
44.34000 -1.182
44.36000 1.772
44.38000 2.497
44.40000 1.867
44.42000 2.681
44.44000 4.285
44.46000 3.411
44.48000 6.887
44.50000 7.679
44.52000 0.369
44.54000 4.458
44.56000 5.528
44.58000 8.853
44.60000 6.163
44.62000 6.056
44.64000 2.600
44.66000 -3.475
44.68000 -3.474
44.70000 -0.991
44.72000 -0.021
44.74000 -1.994
44.76000 -2.813
44.78000 0.262
44.80000 0.468
44.82000 4.395
44.84000 8.414
44.86000 6.575
44.88000 4.454
44.90000 2.249
44.92000 -2.475
44.94000 2.565
44.96000 7.982
44.98000 6.878
45.00000 3.870
45.02000 4.234
45.04000 4.004
45.06000 6.926
45.08000 8.905
45.10000 3.555
45.12000 2.681
45.14000 2.765
45.16000 0.012
45.18000 -2.681
45.20000 -0.959
45.22000 2.256
45.24000 3.326
45.26000 -0.957
45.28000 1.687
45.30000 4.132
45.32000 0.666
45.34000 -0.419
45.36000 3.137
45.38000 5.008
45.40000 1.014
45.42000 -0.910
45.44000 -0.939
45.46000 4.917
45.48000 -1.437
45.50000 1.796
45.52000 -1.275
45.54000 5.177
45.56000 4.192
45.58000 3.848
45.60000 4.280
45.62000 3.609
45.64000 4.522
45.66000 5.984
45.68000 4.048
45.70000 7.181
45.72000 8.245
45.74000 4.712
45.76000 4.502
45.78000 11.020
45.80000 11.183
45.82000 7.335
45.84000 7.207
45.86000 7.940
45.88000 11.296
45.90000 10.038
45.92000 9.971
45.94000 15.935
45.96000 13.361
45.98000 11.041
46.00000 8.877
46.02000 8.199
46.04000 10.449
46.06000 10.096
46.08000 9.875
46.10000 11.117
46.12000 8.602
46.14000 14.892
46.16000 9.529
46.18000 14.257
46.20000 15.414
46.22000 11.981
46.24000 14.466
46.26000 16.122
46.28000 21.872
46.30000 21.628
46.32000 19.850
46.34000 18.773
46.36000 15.628
46.38000 20.073
46.40000 27.707
46.42000 24.553
46.44000 24.340
46.46000 25.064
46.48000 22.461
46.50000 29.649
46.52000 31.032
46.54000 32.048
46.56000 27.981
46.58000 33.681
46.60000 42.288
46.62000 37.932
46.64000 33.196
46.66000 33.079
46.68000 31.022
46.70000 36.592
46.72000 44.766
46.74000 44.161
46.76000 42.838
46.78000 43.869
46.80000 42.163
46.82000 51.292
46.84000 47.698
46.86000 45.313
46.88000 49.860
46.90000 45.090
46.92000 45.490
46.94000 45.157
46.96000 50.428
46.98000 57.090
47.00000 58.201
47.02000 51.481
47.04000 46.730
47.06000 51.353
47.08000 51.109
47.10000 58.810
47.12000 55.318
47.14000 54.555
47.16000 58.398
47.18000 65.096
47.20000 66.763
47.22000 59.784
47.24000 53.041
47.26000 51.198
47.28000 54.066
47.30000 64.050
47.32000 62.880
47.34000 61.369
47.36000 62.160
47.38000 61.973
47.40000 59.685
47.42000 57.537
47.44000 54.663
47.46000 59.932
47.48000 62.236
47.50000 63.338
47.52000 57.169
47.54000 56.230
47.56000 52.113
47.58000 52.345
47.60000 52.124
47.62000 51.574
47.64000 49.510
47.66000 54.955
47.68000 54.170
47.70000 56.092
47.72000 51.526
47.74000 48.425
47.76000 53.079
47.78000 45.359
47.80000 35.629
47.82000 39.934
47.84000 37.949
47.86000 38.044
47.88000 44.917
47.90000 45.188
47.92000 45.085
47.94000 33.912
47.96000 30.331
47.98000 30.599
48.00000 31.112
48.02000 30.467
48.04000 30.401
48.06000 25.362
48.08000 25.625
48.10000 26.734
48.12000 27.130
48.14000 24.443
48.16000 20.724
48.18000 23.051
48.20000 18.812
48.22000 20.047
48.24000 18.259
48.26000 24.524
48.28000 21.559
48.30000 20.246
48.32000 18.713
48.34000 19.988
48.36000 23.338
48.38000 14.093
48.40000 8.851
48.42000 9.572
48.44000 14.023
48.46000 12.034
48.48000 16.002
48.50000 12.120
48.52000 7.058
48.54000 7.523
48.56000 10.397
48.58000 5.017
48.60000 2.684
48.62000 2.112
48.64000 5.271
48.66000 5.176
48.68000 7.182
48.70000 6.618
48.72000 7.195
48.74000 12.350
48.76000 7.100
48.78000 2.501
48.80000 2.367
48.82000 -3.066
48.84000 1.977
48.86000 6.738
48.88000 3.744
48.90000 1.144
48.92000 3.896
48.94000 5.277
48.96000 0.462
48.98000 4.020
49.00000 5.351
49.02000 5.910
49.04000 2.901
49.06000 -0.695
49.08000 -0.920
49.10000 2.311
49.12000 -0.608
49.14000 3.443
49.16000 5.503
49.18000 0.236
49.20000 1.740
49.22000 5.701
49.24000 1.688
49.26000 -0.849
49.28000 4.638
49.30000 5.415
49.32000 7.801
49.34000 8.886
49.36000 5.438
49.38000 -0.573
49.40000 -0.687
49.42000 5.233
49.44000 0.972
49.46000 1.108
49.48000 2.386
49.50000 7.044
49.52000 2.644
49.54000 -0.794
49.56000 -0.274
49.58000 -0.120
49.60000 2.608
49.62000 2.936
49.64000 5.244
49.66000 4.812
49.68000 3.558
49.70000 2.244
49.72000 2.186
49.74000 3.836
49.76000 0.432
49.78000 6.041
49.80000 10.165
49.82000 3.621
49.84000 -3.061
49.86000 2.056
49.88000 8.543
49.90000 6.410
49.92000 7.761
49.94000 6.462
49.96000 6.279
49.98000 -2.915
50.00000 5.109
50.02000 5.371
50.04000 5.430
50.06000 3.861
50.08000 2.170
50.10000 4.951
50.12000 8.141
50.14000 4.543
50.16000 5.435
50.18000 0.347
50.20000 -1.601
50.22000 0.981
50.24000 5.155
50.26000 3.585
50.28000 2.719
50.30000 1.394
50.32000 -2.937
50.34000 3.320
50.36000 2.892
50.38000 3.953
50.40000 7.891
50.42000 4.645
50.44000 6.100
50.46000 6.538
50.48000 5.055
50.50000 5.160
50.52000 6.773
50.54000 7.565
50.56000 5.933
50.58000 5.510
50.60000 2.626
50.62000 1.570
50.64000 -2.994
50.66000 -1.671
50.68000 -2.063
50.70000 1.190
50.72000 -1.699
50.74000 2.961
50.76000 8.860
50.78000 9.957
50.80000 10.241
50.82000 5.337
50.84000 3.125
50.86000 3.473
50.88000 5.635
50.90000 6.535
50.92000 6.062
50.94000 2.198
50.96000 0.652
50.98000 5.275
51.00000 4.557
51.02000 0.225
51.04000 5.953
51.06000 5.092
51.08000 2.324
51.10000 0.265
51.12000 -0.166
51.14000 4.146
51.16000 6.764
51.18000 6.846
51.20000 5.047
51.22000 4.535
51.24000 2.870
51.26000 1.106
51.28000 -2.926
51.30000 2.707
51.32000 9.608
51.34000 8.301
51.36000 7.951
51.38000 9.411
51.40000 4.891
51.42000 6.437
51.44000 8.274
51.46000 8.939
51.48000 3.866
51.50000 0.581
51.52000 8.756
51.54000 6.382
51.56000 2.800
51.58000 2.313
51.60000 4.423
51.62000 4.044
51.64000 10.011
51.66000 8.915
51.68000 -0.894
51.70000 3.158
51.72000 5.589
51.74000 1.346
51.76000 2.247
51.78000 6.063
51.80000 5.570
51.82000 1.120
51.84000 7.738
51.86000 4.974
51.88000 5.001
51.90000 5.264
51.92000 4.779
51.94000 7.668
51.96000 6.370
51.98000 5.759
52.00000 4.951
52.02000 1.774
52.04000 5.329
52.06000 12.286
52.08000 13.473
52.10000 2.999
52.12000 0.715
52.14000 5.147
52.16000 10.280
52.18000 6.383
52.20000 5.158
52.22000 4.381
52.24000 -0.359
52.26000 1.329
52.28000 5.413
52.30000 -0.245
52.32000 3.426
52.34000 5.399
52.36000 3.137
52.38000 -2.119
52.40000 1.436
52.42000 5.172
52.44000 3.736
52.46000 1.531
52.48000 3.692
52.50000 6.149
52.52000 0.418
52.54000 -1.861
52.56000 -2.894
52.58000 1.222
52.60000 4.788
52.62000 3.326
52.64000 3.349
52.66000 1.066
52.68000 2.708
52.70000 0.653
52.72000 -0.541
52.74000 -0.317
52.76000 4.011
52.78000 3.036
52.80000 1.149
52.82000 1.806
52.84000 0.429
52.86000 1.225
52.88000 5.501
52.90000 4.852
52.92000 2.908
52.94000 2.290
52.96000 4.273
52.98000 -0.277
53.00000 3.449
53.02000 4.695
53.04000 1.263
53.06000 3.596
53.08000 4.605
53.10000 3.505
53.12000 5.523
53.14000 5.710
53.16000 0.786
53.18000 5.011
53.20000 3.602
53.22000 4.154
53.24000 0.689
53.26000 -2.123
53.28000 -1.970
53.30000 -0.126
53.32000 2.892
53.34000 4.530
53.36000 8.343
53.38000 8.953
53.40000 6.354
53.42000 3.041
53.44000 2.529
53.46000 4.090
53.48000 1.515
53.50000 -0.797
53.52000 -0.268
53.54000 3.957
53.56000 3.965
53.58000 3.507
53.60000 3.028
53.62000 -1.117
53.64000 3.160
53.66000 -0.307
53.68000 2.794
53.70000 -0.441
53.72000 1.592
53.74000 3.900
53.76000 4.830
53.78000 7.205
53.80000 7.757
53.82000 6.683
53.84000 3.052
53.86000 0.355
53.88000 -0.976
53.90000 0.453
53.92000 6.965
53.94000 3.910
53.96000 2.345
53.98000 -0.747
54.00000 2.374
54.02000 3.132
54.04000 4.448
54.06000 6.967
54.08000 6.262
54.10000 6.505
54.12000 4.822
54.14000 0.398
54.16000 -2.853
54.18000 -2.585
54.20000 1.981
54.22000 3.491
54.24000 2.357
54.26000 3.853
54.28000 3.841
54.30000 5.554
54.32000 3.204
54.34000 -1.065
54.36000 0.542
54.38000 3.733
54.40000 0.175
54.42000 -0.902
54.44000 0.944
54.46000 3.501
54.48000 2.295
54.50000 3.137
54.52000 5.124
54.54000 10.725
54.56000 5.147
54.58000 3.220
54.60000 4.505
54.62000 6.038
54.64000 0.885
54.66000 -0.588
54.68000 -1.323
54.70000 1.988
54.72000 1.267
54.74000 1.877
54.76000 -0.431
54.78000 0.231
54.80000 -0.167
54.82000 -0.174
54.84000 1.916
54.86000 5.506
54.88000 3.666
54.90000 4.360
54.92000 3.649
54.94000 9.058
54.96000 0.377
54.98000 -1.351
55.00000 -1.022
55.02000 2.877
55.04000 8.091
55.06000 5.077
55.08000 3.289
55.10000 4.219
55.12000 2.658
55.14000 -2.819
55.16000 0.213
55.18000 1.221
55.20000 5.620
55.22000 2.748
55.24000 3.512
55.26000 6.101
55.28000 4.637
55.30000 0.168
55.32000 -1.367
55.34000 3.077
55.36000 -2.569
55.38000 0.492
55.40000 -0.992
55.42000 3.003
55.44000 2.164
55.46000 3.878
55.48000 1.844
55.50000 2.349
55.52000 4.064
55.54000 0.665
55.56000 4.737
55.58000 6.670
55.60000 9.938
55.62000 4.443
55.64000 4.688
55.66000 1.968
55.68000 5.786
55.70000 6.521
55.72000 0.951
55.74000 3.474
55.76000 6.443
55.78000 3.665
55.80000 2.380
55.82000 -0.595
55.84000 2.788
55.86000 3.130
55.88000 1.106
55.90000 2.284
55.92000 -2.232
55.94000 -0.173
55.96000 -0.485
55.98000 5.031
56.00000 6.329
56.02000 9.522
56.04000 4.169
56.06000 0.571
56.08000 4.584
56.10000 3.146
56.12000 7.047
56.14000 1.389
56.16000 1.977
56.18000 8.405
56.20000 11.056
56.22000 6.146
56.24000 -0.117
56.26000 2.100
56.28000 6.740
56.30000 7.649
56.32000 5.379
56.34000 3.330
56.36000 -0.407
56.38000 4.236
56.40000 5.811
56.42000 3.889
56.44000 2.748
56.46000 1.765
56.48000 4.946
56.50000 3.953
56.52000 1.111
56.54000 0.346
56.56000 4.192
56.58000 3.915
56.60000 2.977
56.62000 5.818
56.64000 1.855
56.66000 -1.758
56.68000 4.081
56.70000 6.024
56.72000 4.389
56.74000 7.350
56.76000 5.795
56.78000 4.270
56.80000 4.170
56.82000 8.975
56.84000 2.475
56.86000 -2.785
56.88000 3.047
56.90000 3.542
56.92000 0.000
56.94000 -1.418
56.96000 -2.779
56.98000 -0.193
57.00000 0.820
57.02000 -2.777
57.04000 5.585
57.06000 6.074
57.08000 6.546
57.10000 3.360
57.12000 5.607
57.14000 2.924
57.16000 2.852
57.18000 1.469
57.20000 3.113
57.22000 -0.141
57.24000 -2.312
57.26000 -0.026
57.28000 1.719
57.30000 -0.075
57.32000 0.541
57.34000 -0.190
57.36000 2.066
57.38000 2.059
57.40000 -0.996
57.42000 2.786
57.44000 0.644
57.46000 -0.298
57.48000 1.236
57.50000 5.812
57.52000 6.176
57.54000 3.578
57.56000 -0.455
57.58000 3.469
57.60000 5.657
57.62000 3.064
57.64000 1.121
57.66000 2.616
57.68000 3.688
57.70000 3.354
57.72000 0.751
57.74000 0.536
57.76000 2.589
57.78000 1.600
57.80000 -2.763
57.82000 -0.181
57.84000 3.507
57.86000 3.268
57.88000 0.935
57.90000 2.658
57.92000 3.133
57.94000 4.316
57.96000 8.683
57.98000 4.992
58.00000 3.854
58.02000 0.777
58.04000 3.702
58.06000 1.575
58.08000 -0.937
58.10000 -2.352
58.12000 -1.996
58.14000 -2.490
58.16000 0.862
58.18000 3.024
58.20000 7.939
58.22000 3.851
58.24000 0.500
58.26000 3.641
58.28000 2.899
58.30000 -1.773
58.32000 0.471
58.34000 1.368
58.36000 2.620
58.38000 1.637
58.40000 0.699
58.42000 -0.659
58.44000 -1.766
58.46000 -1.854
58.48000 -2.731
58.50000 0.801
58.52000 -2.319
58.54000 -1.256
58.56000 -0.594
58.58000 4.847
58.60000 6.142
58.62000 4.197
58.64000 5.659
58.66000 4.349
58.68000 3.019
58.70000 4.422
58.72000 -1.258
58.74000 1.352
58.76000 6.053
58.78000 1.082
58.80000 1.733
58.82000 2.857
58.84000 0.457
58.86000 3.082
58.88000 5.055
58.90000 1.757
58.92000 3.682
58.94000 5.458
58.96000 5.621
58.98000 -2.383
59.00000 -1.847
59.02000 0.065
59.04000 4.071
59.06000 4.966
59.08000 4.751
59.10000 4.168
59.12000 3.049
59.14000 4.531
59.16000 4.640
59.18000 5.459
59.20000 4.882
59.22000 3.476
59.24000 0.449
59.26000 0.341
59.28000 -0.390
59.30000 3.345
59.32000 4.800
59.34000 5.798
59.36000 3.046
59.38000 -1.373
59.40000 4.535
59.42000 7.334
59.44000 8.992
59.46000 5.137
59.48000 -2.662
59.50000 0.725
59.52000 6.167
59.54000 7.560
59.56000 5.131
59.58000 3.092
59.60000 1.698
59.62000 4.568
59.64000 11.791
59.66000 11.573
59.68000 10.510
59.70000 7.133
59.72000 7.426
59.74000 6.607
59.76000 6.117
59.78000 5.312
59.80000 2.946
59.82000 -0.218
59.84000 6.253
59.86000 1.627
59.88000 1.415
59.90000 2.803
59.92000 3.262
59.94000 2.723
59.96000 -2.662
59.98000 4.221
60.00000 5.927
60.02000 6.570
60.04000 4.645
60.06000 5.250
60.08000 4.279
60.10000 4.987
60.12000 1.283
60.14000 -1.451
60.16000 5.015
60.18000 9.909
60.20000 8.283
60.22000 7.787
60.24000 6.837
60.26000 1.570
60.28000 -0.041
60.30000 -0.550
60.32000 -1.648
60.34000 4.535
60.36000 5.551
60.38000 2.431
60.40000 4.010
60.42000 2.639
60.44000 6.082
60.46000 2.299
60.48000 -0.397
60.50000 3.106
60.52000 2.415
60.54000 2.031
60.56000 3.102
60.58000 5.565
60.60000 7.942
60.62000 10.721
60.64000 5.811
60.66000 3.369
60.68000 1.227
60.70000 -1.929
60.72000 -2.302
60.74000 2.677
60.76000 1.580
60.78000 1.132
60.80000 3.204
60.82000 7.986
60.84000 4.462
60.86000 3.430
60.88000 -2.397
60.90000 1.388
60.92000 1.706
60.94000 -2.257
60.96000 -2.642
60.98000 -0.425
61.00000 2.112
61.02000 7.263
61.04000 7.308
61.06000 8.454
61.08000 4.821
61.10000 1.190
61.12000 6.841
61.14000 7.073
61.16000 5.432
61.18000 1.046
61.20000 -1.664
61.22000 -2.598
61.24000 3.676
61.26000 -0.086
61.28000 -2.318
61.30000 -1.928
61.32000 3.002
61.34000 3.782
61.36000 -1.287
61.38000 -0.956
61.40000 3.251
61.42000 1.077
61.44000 2.652
61.46000 2.739
61.48000 0.227
61.50000 0.298
61.52000 -1.967
61.54000 4.600
61.56000 5.588
61.58000 1.083
61.60000 1.300
61.62000 2.409
61.64000 4.186
61.66000 2.366
61.68000 4.157
61.70000 2.373
61.72000 8.724
61.74000 7.906
61.76000 1.806
61.78000 -1.088
61.80000 4.388
61.82000 6.876
61.84000 5.866
61.86000 -0.629
61.88000 3.766
61.90000 3.840
61.92000 -2.581
61.94000 0.483
61.96000 -1.919
61.98000 4.156
62.00000 2.981
62.02000 -0.556
62.04000 3.779
62.06000 0.235
62.08000 3.290
62.10000 3.121
62.12000 4.923
62.14000 2.864
62.16000 1.371
62.18000 2.408
62.20000 3.603
62.22000 3.777
62.24000 3.568
62.26000 5.719
62.28000 1.685
62.30000 2.532
62.32000 2.595
62.34000 4.359
62.36000 1.156
62.38000 1.716
62.40000 2.828
62.42000 4.736
62.44000 4.357
62.46000 9.981
62.48000 4.631
62.50000 3.188
62.52000 6.777
62.54000 3.282
62.56000 2.124
62.58000 5.055
62.60000 3.051
62.62000 4.025
62.64000 7.783
62.66000 0.685
62.68000 -2.567
62.70000 0.403
62.72000 6.722
62.74000 3.936
62.76000 4.142
62.78000 4.540
62.80000 2.104
62.82000 4.824
62.84000 6.325
62.86000 5.138
62.88000 1.040
62.90000 6.378
62.92000 9.745
62.94000 6.564
62.96000 1.153
62.98000 0.528
63.00000 -2.159
63.02000 -0.110
63.04000 5.265
63.06000 2.114
63.08000 0.618
63.10000 3.757
63.12000 4.532
63.14000 4.814
63.16000 4.994
63.18000 4.347
63.20000 0.326
63.22000 -1.465
63.24000 1.608
63.26000 -2.582
63.28000 -1.312
63.30000 2.493
63.32000 4.567
63.34000 0.299
63.36000 -1.673
63.38000 3.501
63.40000 2.370
63.42000 3.273
63.44000 -0.227
63.46000 -0.615
63.48000 -0.175
63.50000 3.224
63.52000 6.754
63.54000 3.026
63.56000 -1.209
63.58000 -0.712
63.60000 3.500
63.62000 1.878
63.64000 -0.765
63.66000 0.032
63.68000 0.620
63.70000 1.791
63.72000 1.822
63.74000 2.285
63.76000 3.996
63.78000 2.897
63.80000 -1.150
63.82000 1.162
63.84000 3.934
63.86000 1.721
63.88000 3.261
63.90000 7.271
63.92000 3.381
63.94000 2.876
63.96000 -0.256
63.98000 3.925
64.00000 5.180
64.02000 -0.852
64.04000 1.420
64.06000 3.299
64.08000 0.801
64.10000 0.460
64.12000 3.868
64.14000 2.671
64.16000 2.345
64.18000 1.259
64.20000 -2.581
64.22000 2.163
64.24000 5.517
64.26000 1.530
64.28000 -0.674
64.30000 1.161
64.32000 2.339
64.34000 1.262
64.36000 -2.527
64.38000 0.131
64.40000 6.132
64.42000 9.220
64.44000 6.711
64.46000 4.501
64.48000 1.710
64.50000 -1.379
64.52000 0.698
64.54000 6.731
64.56000 4.770
64.58000 0.031
64.60000 -1.516
64.62000 -0.196
64.64000 5.771
64.66000 7.003
64.68000 0.793
64.70000 3.143
64.72000 2.430
64.74000 3.066
64.76000 0.249
64.78000 0.533
64.80000 0.505
64.82000 1.309
64.84000 2.238
64.86000 2.907
64.88000 1.338
64.90000 7.086
64.92000 6.629
64.94000 8.530
64.96000 4.836
64.98000 3.873
65.00000 3.570
65.02000 2.911
65.04000 0.831
65.06000 0.226
65.08000 -2.534
65.10000 -2.038
65.12000 -0.215
65.14000 1.924
65.16000 4.625
65.18000 8.140
65.20000 9.055
65.22000 6.639
65.24000 1.223
65.26000 1.413
65.28000 3.193
65.30000 0.778
65.32000 3.415
65.34000 4.651
65.36000 3.137
65.38000 4.417
65.40000 1.010
65.42000 1.075
65.44000 2.433
65.46000 3.484
65.48000 6.306
65.50000 2.622
65.52000 -0.726
65.54000 1.571
65.56000 4.131
65.58000 4.734
65.60000 5.211
65.62000 4.990
65.64000 3.763
65.66000 7.555
65.68000 3.430
65.70000 5.563
65.72000 6.356
65.74000 6.730
65.76000 3.929
65.78000 3.578
65.80000 3.231
65.82000 4.168
65.84000 5.554
65.86000 4.641
65.88000 2.642
65.90000 -0.755
65.92000 2.204
65.94000 1.561
65.96000 3.124
65.98000 3.434
66.00000 -0.916
66.02000 -2.508
66.04000 2.084
66.06000 4.184
66.08000 6.138
66.10000 5.351
66.12000 3.194
66.14000 0.006
66.16000 -0.451
66.18000 3.284
66.20000 3.423
66.22000 0.783
66.24000 -0.604
66.26000 3.223
66.28000 4.133
66.30000 2.765
66.32000 -1.672
66.34000 -0.891
66.36000 -0.921
66.38000 1.165
66.40000 -1.188
66.42000 0.495
66.44000 1.697
66.46000 2.047
66.48000 3.040
66.50000 2.282
66.52000 1.745
66.54000 2.367
66.56000 1.076
66.58000 0.929
66.60000 0.437
66.62000 0.481
66.64000 -1.400
66.66000 -0.897
66.68000 5.246
66.70000 4.002
66.72000 1.451
66.74000 1.959
66.76000 1.410
66.78000 6.315
66.80000 0.545
66.82000 -0.132
66.84000 0.669
66.86000 2.048
66.88000 3.220
66.90000 3.684
66.92000 1.874
66.94000 -1.677
66.96000 0.226
66.98000 2.134
67.00000 4.088
67.02000 0.953
67.04000 -0.110
67.06000 4.001
67.08000 2.429
67.10000 0.009
67.12000 0.733
67.14000 -1.755
67.16000 -0.138
67.18000 -1.317
67.20000 0.822
67.22000 1.227
67.24000 -1.507
67.26000 1.954
67.28000 -2.553
67.30000 -1.762
67.32000 -1.803
67.34000 -1.055
67.36000 -1.246
67.38000 1.263
67.40000 -0.450
67.42000 1.714
67.44000 2.474
67.46000 -2.471
67.48000 1.032
67.50000 5.120
67.52000 -0.056
67.54000 2.436
67.56000 3.764
67.58000 -0.413
67.60000 0.926
67.62000 3.086
67.64000 4.486
67.66000 1.175
67.68000 -0.682
67.70000 -2.204
67.72000 -1.749
67.74000 -1.531
67.76000 0.960
67.78000 1.750
67.80000 1.579
67.82000 2.378
67.84000 0.330
67.86000 -2.570
67.88000 -1.642
67.90000 3.922
67.92000 5.950
67.94000 3.735
67.96000 2.870
67.98000 -0.214
68.00000 3.983
68.02000 2.839
68.04000 -0.027
68.06000 -0.179
68.08000 5.002
68.10000 1.616
68.12000 1.942
68.14000 3.909
68.16000 3.434
68.18000 1.594
68.20000 2.725
68.22000 6.322
68.24000 6.942
68.26000 5.032
68.28000 4.084
68.30000 2.047
68.32000 1.124
68.34000 1.518
68.36000 4.355
68.38000 7.948
68.40000 7.794
68.42000 5.449
68.44000 5.863
68.46000 7.378
68.48000 7.015
68.50000 4.599
68.52000 5.195
68.54000 7.953
68.56000 5.311
68.58000 8.210
68.60000 8.438
68.62000 10.126
68.64000 9.937
68.66000 13.872
68.68000 9.599
68.70000 8.714
68.72000 8.565
68.74000 10.378
68.76000 9.483
68.78000 9.947
68.80000 13.601
68.82000 15.485
68.84000 17.449
68.86000 18.492
68.88000 18.436
68.90000 18.136
68.92000 17.841
68.94000 15.761
68.96000 17.203
68.98000 18.609
69.00000 18.035
69.02000 18.050
69.04000 22.076
69.06000 21.074
69.08000 21.769
69.10000 16.960
69.12000 20.130
69.14000 19.688
69.16000 19.412
69.18000 18.480
69.20000 21.640
69.22000 21.718
69.24000 22.244
69.26000 19.037
69.28000 18.053
69.30000 17.489
69.32000 20.327
69.34000 19.907
69.36000 19.347
69.38000 22.573
69.40000 21.188
69.42000 21.962
69.44000 22.760
69.46000 18.231
69.48000 18.239
69.50000 19.122
69.52000 21.966
69.54000 24.011
69.56000 22.297
69.58000 22.929
69.60000 20.455
69.62000 17.154
69.64000 13.950
69.66000 17.003
69.68000 19.983
69.70000 16.514
69.72000 14.125
69.74000 16.409
69.76000 19.146
69.78000 14.914
69.80000 14.864
69.82000 14.465
69.84000 11.007
69.86000 6.850
69.88000 10.200
69.90000 10.204
69.92000 9.861
69.94000 8.915
69.96000 8.262
69.98000 11.991
70.00000 11.330
70.02000 5.987
70.04000 2.435
70.06000 5.741
70.08000 7.121
70.10000 7.464
70.12000 4.924
70.14000 5.024
70.16000 7.439
70.18000 8.035
70.20000 6.504
70.22000 7.154
70.24000 5.682
70.26000 0.842
70.28000 0.747
70.30000 5.919
70.32000 5.265
70.34000 2.614
70.36000 2.008
70.38000 3.708
70.40000 4.285
70.42000 -0.894
70.44000 1.906
70.46000 8.474
70.48000 3.359
70.50000 4.939
70.52000 5.911
70.54000 3.842
70.56000 5.985
70.58000 5.887
70.60000 6.760
70.62000 2.151
70.64000 1.987
70.66000 -2.428
70.68000 -0.909
70.70000 3.749
70.72000 2.809
70.74000 -0.360
70.76000 2.954
70.78000 1.654
70.80000 -1.265
70.82000 2.842
70.84000 4.701
70.86000 3.504
70.88000 1.530
70.90000 -0.821
70.92000 3.652
70.94000 1.178
70.96000 -0.466
70.98000 2.765
71.00000 3.983
71.02000 4.755
71.04000 2.327
71.06000 1.280
71.08000 -0.461
71.10000 -0.802
71.12000 0.035
71.14000 3.677
71.16000 1.912
71.18000 3.010
71.20000 2.435
71.22000 1.063
71.24000 2.735
71.26000 2.980
71.28000 6.608
71.30000 4.126
71.32000 5.199
71.34000 4.620
71.36000 4.447
71.38000 4.524
71.40000 3.661
71.42000 0.100
71.44000 0.667
71.46000 2.455
71.48000 0.814
71.50000 3.262
71.52000 4.114
71.54000 2.123
71.56000 1.729
71.58000 -2.316
71.60000 1.117
71.62000 4.131
71.64000 -1.466
71.66000 -1.306
71.68000 3.859
71.70000 2.000
71.72000 0.898
71.74000 2.665
71.76000 4.709
71.78000 3.417
71.80000 0.976
71.82000 0.950
71.84000 1.350
71.86000 -1.914
71.88000 0.001
71.90000 -0.604
71.92000 0.007
71.94000 1.534
71.96000 0.289
71.98000 1.092
72.00000 4.510
72.02000 3.171
72.04000 4.022
72.06000 5.893
72.08000 4.062
72.10000 1.785
72.12000 2.750
72.14000 3.676
72.16000 -0.180
72.18000 2.793
72.20000 1.649
72.22000 0.838
72.24000 2.391
72.26000 3.405
72.28000 4.947
72.30000 1.684
72.32000 3.097
72.34000 2.970
72.36000 2.613
72.38000 3.420
72.40000 2.766
72.42000 2.183
72.44000 2.194
72.46000 -0.365
72.48000 3.419
72.50000 2.278
72.52000 -0.193
72.54000 4.113
72.56000 2.631
72.58000 -1.309
72.60000 -2.254
72.62000 -1.011
72.64000 0.711
72.66000 1.618
72.68000 5.373
72.70000 9.124
72.72000 3.873
72.74000 3.743
72.76000 5.069
72.78000 1.581
72.80000 0.032
72.82000 -0.357
72.84000 2.481
72.86000 1.129
72.88000 2.396
72.90000 5.331
72.92000 3.786
72.94000 1.895
72.96000 2.379
72.98000 1.296
73.00000 3.531
73.02000 2.056
73.04000 1.282
73.06000 4.428
73.08000 3.409
73.10000 1.542
73.12000 -0.772
73.14000 -0.468
73.16000 1.235
73.18000 1.901
73.20000 3.485
73.22000 2.163
73.24000 -0.463
73.26000 -2.233
73.28000 1.526
73.30000 4.424
73.32000 2.854
73.34000 -1.379
73.36000 -0.776
73.38000 -0.588
73.40000 4.725
73.42000 3.975
73.44000 0.028
73.46000 3.041
73.48000 5.448
73.50000 1.707
73.52000 3.490
73.54000 0.674
73.56000 2.489
73.58000 0.330
73.60000 -1.123
73.62000 2.966
73.64000 5.349
73.66000 3.407
73.68000 3.342
73.70000 4.299
73.72000 2.511
73.74000 1.263
73.76000 -0.267
73.78000 3.075
73.80000 3.560
73.82000 1.495
73.84000 -1.626
73.86000 1.888
73.88000 3.632
73.90000 0.997
73.92000 1.446
73.94000 4.119
73.96000 4.404
73.98000 1.237
74.00000 1.209
74.02000 -1.346
74.04000 -2.205
74.06000 1.116
74.08000 -1.421
74.10000 3.459
74.12000 4.340
74.14000 3.521
74.16000 6.307
74.18000 2.542
74.20000 3.835
74.22000 7.376
74.24000 6.368
74.26000 2.701
74.28000 2.698
74.30000 2.635
74.32000 3.700
74.34000 3.653
74.36000 5.891
74.38000 4.384
74.40000 2.011
74.42000 6.014
74.44000 5.133
74.46000 7.269
74.48000 5.660
74.50000 6.859
74.52000 4.053
74.54000 4.901
74.56000 4.326
74.58000 -2.166
74.60000 3.595
74.62000 8.948
74.64000 10.414
74.66000 5.984
74.68000 3.158
74.70000 3.956
74.72000 0.392
74.74000 3.152
74.76000 5.657
74.78000 7.748
74.80000 3.558
74.82000 6.209
74.84000 2.459
74.86000 4.360
74.88000 5.421
74.90000 4.967
74.92000 7.018
74.94000 4.415
74.96000 3.038
74.98000 3.785
75.00000 0.123
75.02000 3.090
75.04000 6.375
75.06000 8.528
75.08000 4.430
75.10000 2.854
75.12000 5.414
75.14000 0.033
75.16000 6.656
75.18000 5.472
75.20000 6.556
75.22000 2.471
75.24000 0.810
75.26000 3.014
75.28000 3.366
75.30000 3.313
75.32000 4.582
75.34000 2.532
75.36000 2.804
75.38000 2.397
75.40000 3.951
75.42000 2.821
75.44000 1.752
75.46000 1.079
75.48000 1.199
75.50000 2.726
75.52000 1.941
75.54000 3.322
75.56000 9.218
75.58000 5.572
75.60000 6.817
75.62000 6.252
75.64000 1.254
75.66000 0.619
75.68000 1.123
75.70000 3.279
75.72000 2.339
75.74000 3.705
75.76000 1.961
75.78000 4.639
75.80000 4.689
75.82000 2.120
75.84000 -1.141
75.86000 2.056
75.88000 1.130
75.90000 2.790
75.92000 6.869
75.94000 8.002
75.96000 5.368
75.98000 6.895
76.00000 5.231
76.02000 6.220
76.04000 8.097
76.06000 6.755
76.08000 6.366
76.10000 3.486
76.12000 4.306
76.14000 0.935
76.16000 -2.164
76.18000 3.490
76.20000 5.138
76.22000 4.942
76.24000 5.236
76.26000 2.990
76.28000 2.620
76.30000 1.936
76.32000 2.134
76.34000 0.458
76.36000 1.414
76.38000 3.036
76.40000 1.760
76.42000 3.029
76.44000 4.444
76.46000 6.830
76.48000 3.158
76.50000 3.402
76.52000 4.463
76.54000 3.616
76.56000 2.724
76.58000 1.746
76.60000 -1.172
76.62000 -0.623
76.64000 2.964
76.66000 1.834
76.68000 1.729
76.70000 -0.480
76.72000 -0.530
76.74000 -0.154
76.76000 2.740
76.78000 4.378
76.80000 5.244
76.82000 1.575
76.84000 -1.172
76.86000 2.393
76.88000 3.866
76.90000 1.968
76.92000 2.084
76.94000 -0.303
76.96000 3.065
76.98000 4.456
77.00000 3.631
77.02000 3.590
77.04000 0.017
77.06000 2.823
77.08000 3.355
77.10000 7.550
77.12000 4.481
77.14000 4.229
77.16000 3.119
77.18000 4.853
77.20000 3.033
77.22000 1.471
77.24000 2.098
77.26000 -1.174
77.28000 2.139
77.30000 6.923
77.32000 5.252
77.34000 5.726
77.36000 5.058
77.38000 1.500
77.40000 2.159
77.42000 0.704
77.44000 -0.172
77.46000 2.223
77.48000 1.098
77.50000 3.533
77.52000 5.419
77.54000 4.939
77.56000 5.451
77.58000 10.029
77.60000 4.598
77.62000 -0.395
77.64000 -1.566
77.66000 0.368
77.68000 4.864
77.70000 7.594
77.72000 4.040
77.74000 3.077
77.76000 4.303
77.78000 4.146
77.80000 4.946
77.82000 4.776
77.84000 1.446
77.86000 -0.353
77.88000 -0.108
77.90000 1.521
77.92000 0.124
77.94000 -2.227
77.96000 0.100
77.98000 0.023
78.00000 4.201
78.02000 4.918
78.04000 7.916
78.06000 7.215
78.08000 4.736
78.10000 -1.705
78.12000 -0.425
78.14000 2.282
78.16000 1.953
78.18000 2.571
78.20000 6.198
78.22000 5.419
78.24000 4.675
78.26000 5.164
78.28000 4.308
78.30000 2.909
78.32000 2.279
78.34000 2.256
78.36000 2.531
78.38000 5.754
78.40000 4.142
78.42000 2.234
78.44000 -0.357
78.46000 2.972
78.48000 -1.520
78.50000 0.062
78.52000 2.561
78.54000 3.772
78.56000 1.432
78.58000 6.984
78.60000 1.691
78.62000 3.440
78.64000 2.665
78.66000 2.338
78.68000 1.092
78.70000 2.171
78.72000 3.752
78.74000 3.953
78.76000 3.060
78.78000 2.297
78.80000 1.823
78.82000 1.937
78.84000 2.954
78.86000 2.358
78.88000 -0.220
78.90000 -1.053
78.92000 4.006
78.94000 8.907
78.96000 1.595
78.98000 4.381
79.00000 7.041
79.02000 -0.282
79.04000 4.003
79.06000 6.196
79.08000 1.671
79.10000 2.717
79.12000 2.628
79.14000 2.004
79.16000 -0.829
79.18000 0.743
79.20000 2.535
79.22000 0.654
79.24000 -0.443
79.26000 1.226
79.28000 -2.227
79.30000 -0.612
79.32000 2.555
79.34000 3.617
79.36000 6.171
79.38000 3.236
79.40000 4.965
79.42000 4.392
79.44000 2.053
79.46000 3.143
79.48000 2.697
79.50000 3.841
79.52000 4.349
79.54000 3.633
79.56000 2.230
79.58000 1.654
79.60000 2.042
79.62000 3.929
79.64000 4.297
79.66000 -0.577
79.68000 1.536
79.70000 -1.142
79.72000 -2.235
79.74000 -1.153
79.76000 0.838
79.78000 2.355
79.80000 1.757
79.82000 -0.430
79.84000 4.650
79.86000 4.522
79.88000 5.564
79.90000 7.623
79.92000 2.254
79.94000 4.612
79.96000 5.806
79.98000 7.255
80.00000 6.375
80.02000 3.820
80.04000 2.125
80.06000 5.417
80.08000 4.903
80.10000 4.121
80.12000 2.232
80.14000 2.608
80.16000 4.768
80.18000 1.267
80.20000 4.334
80.22000 3.401
80.24000 4.116
80.26000 4.318
80.28000 2.717
80.30000 2.334
80.32000 1.341
80.34000 7.116
80.36000 -0.714
80.38000 -2.231
80.40000 4.954
80.42000 3.897
80.44000 4.308
80.46000 6.587
80.48000 0.375
80.50000 -0.294
80.52000 0.770
80.54000 2.099
80.56000 2.566
80.58000 1.765
80.60000 2.943
80.62000 2.992
80.64000 3.660
80.66000 0.781
80.68000 1.695
80.70000 0.991
80.72000 3.040
80.74000 -0.067
80.76000 0.321
80.78000 -1.294
80.80000 1.875
80.82000 4.819
80.84000 3.335
80.86000 4.834
80.88000 1.919
80.90000 -1.422
80.92000 2.023
80.94000 3.331
80.96000 3.269
80.98000 4.034
81.00000 1.547
81.02000 2.159
81.04000 4.405
81.06000 2.898
81.08000 3.017
81.10000 2.418
81.12000 0.929
81.14000 2.053
81.16000 0.712
81.18000 -2.303
81.20000 1.714
81.22000 2.801
81.24000 -0.114
81.26000 -1.711
81.28000 1.318
81.30000 -0.064
81.32000 0.534
81.34000 0.678
81.36000 2.154
81.38000 1.943
81.40000 3.774
81.42000 7.710
81.44000 4.801
81.46000 2.399
81.48000 0.831
81.50000 2.593
81.52000 3.836
81.54000 3.490
81.56000 4.097
81.58000 3.163
81.60000 6.066
81.62000 4.813
81.64000 -1.605
81.66000 0.936
81.68000 1.671
81.70000 1.005
81.72000 1.883
81.74000 3.906
81.76000 3.688
81.78000 2.049
81.80000 -0.279
81.82000 3.284
81.84000 1.710
81.86000 1.791
81.88000 3.052
81.90000 4.719
81.92000 3.608
81.94000 3.857
81.96000 2.215
81.98000 3.030
82.00000 2.293
82.02000 -0.172
82.04000 -0.800
82.06000 3.564
82.08000 4.211
82.10000 0.399
82.12000 2.930
82.14000 7.458
82.16000 2.718
82.18000 1.287
82.20000 1.260
82.22000 1.655
82.24000 -2.422
82.26000 -0.607
82.28000 1.863
82.30000 -1.387
82.32000 0.658
82.34000 4.303
82.36000 2.439
82.38000 2.978
82.40000 6.233
82.42000 1.364
82.44000 -0.626
82.46000 -0.532
82.48000 0.989
82.50000 1.592
82.52000 1.587
82.54000 3.976
82.56000 3.881
82.58000 8.789
82.60000 3.288
82.62000 -0.801
82.64000 1.354
82.66000 2.106
82.68000 2.565
82.70000 6.506
82.72000 7.462
82.74000 8.216
82.76000 5.871
82.78000 5.095
82.80000 3.449
82.82000 5.894
82.84000 6.359
82.86000 7.491
82.88000 5.735
82.90000 6.957
82.92000 4.173
82.94000 7.088
82.96000 10.389
82.98000 11.649
83.00000 15.148
83.02000 10.742
83.04000 10.703
83.06000 9.166
83.08000 8.555
83.10000 11.078
83.12000 16.561
83.14000 10.222
83.16000 13.045
83.18000 18.732
83.20000 13.722
83.22000 12.199
83.24000 10.727
83.26000 9.921
83.28000 10.669
83.30000 15.028
83.32000 21.520
83.34000 17.080
83.36000 16.434
83.38000 17.647
83.40000 17.291
83.42000 14.855
83.44000 16.096
83.46000 14.434
83.48000 12.753
83.50000 17.331
83.52000 14.648
83.54000 17.688
83.56000 18.361
83.58000 22.596
83.60000 19.457
83.62000 17.120
83.64000 20.340
83.66000 19.882
83.68000 21.943
83.70000 19.148
83.72000 18.440
83.74000 22.136
83.76000 20.254
83.78000 18.181
83.80000 21.796
83.82000 21.580
83.84000 22.922
83.86000 21.831
83.88000 16.985
83.90000 16.315
83.92000 15.236
83.94000 20.743
83.96000 22.316
83.98000 19.688
84.00000 14.850
84.02000 17.212
84.04000 18.669
84.06000 15.721
84.08000 16.883
84.10000 18.310
84.12000 15.623
84.14000 17.208
84.16000 14.624
84.18000 18.052
84.20000 18.295
84.22000 11.995
84.24000 11.948
84.26000 13.061
84.28000 16.848
84.30000 16.165
84.32000 14.720
84.34000 12.479
84.36000 10.256
84.38000 10.988
84.40000 11.280
84.42000 7.500
84.44000 8.691
84.46000 3.521
84.48000 9.098
84.50000 11.534
84.52000 7.191
84.54000 5.987
84.56000 7.002
84.58000 8.608
84.60000 9.649
84.62000 7.630
84.64000 3.294
84.66000 4.988
84.68000 7.448
84.70000 8.344
84.72000 5.524
84.74000 5.441
84.76000 7.771
84.78000 5.631
84.80000 2.873
84.82000 4.164
84.84000 6.087
84.86000 5.091
84.88000 0.948
84.90000 1.924
84.92000 5.154
84.94000 4.462
84.96000 4.046
84.98000 5.502
85.00000 3.747
85.02000 4.261
85.04000 1.073
85.06000 2.757
85.08000 2.364
85.10000 4.133
85.12000 4.331
85.14000 2.039
85.16000 5.131
85.18000 3.640
85.20000 2.676
85.22000 -0.028
85.24000 2.488
85.26000 0.433
85.28000 -0.433
85.30000 -0.525
85.32000 -1.966
85.34000 1.173
85.36000 0.910
85.38000 1.344
85.40000 1.847
85.42000 3.862
85.44000 6.163
85.46000 2.628
85.48000 0.098
85.50000 2.663
85.52000 2.724
85.54000 2.001
85.56000 1.005
85.58000 -2.312
85.60000 2.301
85.62000 3.743
85.64000 3.267
85.66000 4.866
85.68000 6.192
85.70000 2.782
85.72000 2.070
85.74000 1.430
85.76000 1.495
85.78000 1.086
85.80000 4.875
85.82000 0.200
85.84000 -2.285
85.86000 3.756
85.88000 8.126
85.90000 6.846
85.92000 5.372
85.94000 4.919
85.96000 0.178
85.98000 3.463
86.00000 3.013
86.02000 2.979
86.04000 1.909
86.06000 1.575
86.08000 2.521
86.10000 1.656
86.12000 2.586
86.14000 -2.273
86.16000 -0.926
86.18000 -1.374
86.20000 1.497
86.22000 1.420
86.24000 3.066
86.26000 3.123
86.28000 1.296
86.30000 1.424
86.32000 5.334
86.34000 0.406
86.36000 0.919
86.38000 3.198
86.40000 7.493
86.42000 7.410
86.44000 2.607
86.46000 2.999
86.48000 1.457
86.50000 -0.048
86.52000 0.718
86.54000 4.352
86.56000 4.417
86.58000 0.899
86.60000 6.792
86.62000 5.314
86.64000 3.661
86.66000 5.281
86.68000 4.535
86.70000 0.756
86.72000 -2.283
86.74000 1.442
86.76000 7.678
86.78000 7.091
86.80000 0.674
86.82000 -1.978
86.84000 -1.990
86.86000 4.150
86.88000 8.518
86.90000 6.730
86.92000 8.479
86.94000 4.948
86.96000 5.987
86.98000 8.639
87.00000 4.338
87.02000 0.168
87.04000 2.698
87.06000 3.032
87.08000 3.176
87.10000 3.387
87.12000 4.522
87.14000 6.184
87.16000 5.977
87.18000 3.314
87.20000 1.763
87.22000 5.549
87.24000 9.477
87.26000 7.929
87.28000 12.265
87.30000 8.632
87.32000 6.714
87.34000 7.552
87.36000 8.224
87.38000 7.152
87.40000 7.185
87.42000 7.436
87.44000 7.312
87.46000 12.844
87.48000 9.387
87.50000 11.783
87.52000 7.259
87.54000 10.376
87.56000 11.129
87.58000 10.171
87.60000 11.258
87.62000 11.705
87.64000 11.416
87.66000 11.368
87.68000 13.283
87.70000 10.754
87.72000 11.176
87.74000 12.251
87.76000 19.709
87.78000 18.947
87.80000 15.157
87.82000 12.081
87.84000 12.924
87.86000 14.174
87.88000 15.505
87.90000 16.287
87.92000 17.941
87.94000 16.752
87.96000 17.452
87.98000 15.128
88.00000 18.598
88.02000 15.107
88.04000 15.880
88.06000 21.108
88.08000 17.772
88.10000 20.330
88.12000 18.264
88.14000 14.465
88.16000 13.909
88.18000 23.981
88.20000 28.057
88.22000 26.685
88.24000 22.865
88.26000 23.683
88.28000 19.749
88.30000 19.542
88.32000 18.795
88.34000 21.284
88.36000 22.010
88.38000 18.162
88.40000 15.139
88.42000 19.939
88.44000 17.302
88.46000 18.899
88.48000 21.144
88.50000 20.884
88.52000 20.145
88.54000 17.563
88.56000 15.751
88.58000 18.178
88.60000 15.108
88.62000 15.565
88.64000 17.664
88.66000 16.622
88.68000 21.860
88.70000 17.907
88.72000 20.207
88.74000 22.431
88.76000 21.389
88.78000 17.669
88.80000 17.388
88.82000 15.420
88.84000 20.289
88.86000 21.185
88.88000 17.385
88.90000 18.292
88.92000 22.259
88.94000 15.989
88.96000 15.113
88.98000 13.293
89.00000 11.191
89.02000 14.297
89.04000 13.107
89.06000 12.898
89.08000 14.726
89.10000 12.301
89.12000 12.328
89.14000 12.269
89.16000 6.990
89.18000 4.688
89.20000 2.602
89.22000 7.321
89.24000 6.299
89.26000 11.354
89.28000 8.877
89.30000 7.866
89.32000 9.209
89.34000 8.491
89.36000 7.892
89.38000 5.348
89.40000 1.653
89.42000 2.076
89.44000 1.218
89.46000 3.216
89.48000 3.204
89.50000 4.285
89.52000 2.585
89.54000 5.425
89.56000 6.101
89.58000 7.964
89.60000 0.832
89.62000 -0.501
89.64000 4.631
89.66000 0.344
89.68000 1.231
89.70000 1.632
89.72000 3.119
89.74000 -0.049
89.76000 3.253
89.78000 3.779
89.80000 3.183
89.82000 4.065
89.84000 4.380
89.86000 4.708
89.88000 5.717
89.90000 2.637
89.92000 4.535
89.94000 5.027
89.96000 5.150
89.98000 3.622
90.00000 1.807
90.02000 0.104
90.04000 -1.421
90.06000 -0.294
90.08000 -1.868
90.10000 -0.736
90.12000 1.042
90.14000 4.516
90.16000 3.195
90.18000 3.612
90.20000 2.599
90.22000 1.160
90.24000 1.976
90.26000 0.588
90.28000 -2.158
90.30000 -1.787
90.32000 -0.265
90.34000 1.627
90.36000 3.380
90.38000 2.247
90.40000 3.331
90.42000 9.452
90.44000 6.561
90.46000 2.925
90.48000 1.941
90.50000 2.398
90.52000 1.609
90.54000 -2.063
90.56000 -2.154
90.58000 1.340
90.60000 3.661
90.62000 2.587
90.64000 -1.889
90.66000 -0.842
90.68000 3.042
90.70000 2.119
90.72000 5.718
90.74000 5.332
90.76000 6.740
90.78000 1.640
90.80000 4.271
90.82000 1.695
90.84000 1.544
90.86000 -0.414
90.88000 6.223
90.90000 2.034
90.92000 -2.155
90.94000 1.055
90.96000 0.505
90.98000 0.462
91.00000 0.712
91.02000 0.976
91.04000 1.774
91.06000 0.697
91.08000 0.885
91.10000 1.097
91.12000 0.765
91.14000 3.546
91.16000 2.017
91.18000 -1.243
91.20000 -1.600
91.22000 2.792
91.24000 -0.125
91.26000 2.265
91.28000 3.502
91.30000 3.516
91.32000 4.977
91.34000 5.223
91.36000 0.783
91.38000 -2.078
91.40000 -0.587
91.42000 1.368
91.44000 0.883
91.46000 1.762
91.48000 2.862
91.50000 5.814
91.52000 3.494
91.54000 3.300
91.56000 5.323
91.58000 3.130
91.60000 -0.052
91.62000 0.279
91.64000 -0.582
91.66000 -0.780
91.68000 -0.310
91.70000 5.579
91.72000 3.761
91.74000 2.309
91.76000 3.607
91.78000 3.805
91.80000 0.184
91.82000 0.076
91.84000 -2.118
91.86000 7.308
91.88000 6.388
91.90000 5.922
91.92000 4.133
91.94000 2.783
91.96000 4.074
91.98000 4.675
92.00000 2.291
92.02000 -0.912
92.04000 3.276
92.06000 1.177
92.08000 2.071
92.10000 0.089
92.12000 1.144
92.14000 0.214
92.16000 0.808
92.18000 0.115
92.20000 -2.089
92.22000 1.015
92.24000 2.761
92.26000 2.741
92.28000 2.437
92.30000 5.169
92.32000 -0.210
92.34000 -0.679
92.36000 -2.074
92.38000 2.379
92.40000 6.417
92.42000 4.838
92.44000 4.186
92.46000 4.531
92.48000 4.997
92.50000 2.927
92.52000 5.781
92.54000 8.575
92.56000 9.056
92.58000 6.658
92.60000 5.643
92.62000 7.586
92.64000 6.718
92.66000 6.479
92.68000 4.545
92.70000 3.387
92.72000 4.367
92.74000 3.886
92.76000 7.027
92.78000 7.514
92.80000 5.325
92.82000 0.198
92.84000 3.019
92.86000 3.387
92.88000 7.762
92.90000 3.785
92.92000 1.361
92.94000 0.216
92.96000 0.501
92.98000 2.731
93.00000 2.079
93.02000 1.813
93.04000 1.438
93.06000 2.461
93.08000 5.107
93.10000 3.681
93.12000 7.004
93.14000 1.734
93.16000 1.842
93.18000 3.286
93.20000 3.078
93.22000 4.131
93.24000 3.010
93.26000 0.690
93.28000 4.239
93.30000 4.921
93.32000 1.284
93.34000 0.459
93.36000 1.208
93.38000 0.327
93.40000 4.377
93.42000 -0.435
93.44000 2.188
93.46000 2.672
93.48000 4.326
93.50000 1.627
93.52000 3.409
93.54000 3.871
93.56000 0.610
93.58000 2.236
93.60000 5.686
93.62000 5.221
93.64000 3.090
93.66000 2.668
93.68000 5.919
93.70000 3.664
93.72000 3.562
93.74000 5.628
93.76000 3.808
93.78000 3.170
93.80000 4.460
93.82000 2.739
93.84000 3.399
93.86000 4.231
93.88000 10.200
93.90000 5.980
93.92000 4.257
93.94000 10.848
93.96000 3.610
93.98000 1.049
94.00000 1.789
94.02000 -2.086
94.04000 3.302
94.06000 5.326
94.08000 0.924
94.10000 3.711
94.12000 7.090
94.14000 5.353
94.16000 2.872
94.18000 2.630
94.20000 10.754
94.22000 8.206
94.24000 6.544
94.26000 6.319
94.28000 5.554
94.30000 2.272
94.32000 2.602
94.34000 3.905
94.36000 4.407
94.38000 4.054
94.40000 1.274
94.42000 5.303
94.44000 5.752
94.46000 9.091
94.48000 7.105
94.50000 5.297
94.52000 2.933
94.54000 5.381
94.56000 6.901
94.58000 5.686
94.60000 5.645
94.62000 7.147
94.64000 3.603
94.66000 1.867
94.68000 6.498
94.70000 4.157
94.72000 -1.736
94.74000 2.490
94.76000 5.784
94.78000 3.149
94.80000 -2.101
94.82000 2.492
94.84000 6.365
94.86000 5.969
94.88000 0.993
94.90000 4.055
94.92000 7.296
94.94000 4.485
94.96000 4.668
94.98000 6.069
95.00000 3.937
95.02000 5.116
95.04000 4.709
95.06000 -1.671
95.08000 2.295
95.10000 3.345
95.12000 1.488
95.14000 2.376
95.16000 3.573
95.18000 5.582
95.20000 3.365
95.22000 3.772
95.24000 7.220
95.26000 3.377
95.28000 2.515
95.30000 2.695
95.32000 5.014
95.34000 6.140
95.36000 7.576
95.38000 0.931
95.40000 -2.109
95.42000 0.475
95.44000 2.462
95.46000 1.518
95.48000 6.652
95.50000 4.774
95.52000 0.196
95.54000 0.232
95.56000 0.086
95.58000 2.655
95.60000 3.736
95.62000 10.184
95.64000 6.459
95.66000 2.757
95.68000 4.765
95.70000 5.020
95.72000 6.180
95.74000 4.357
95.76000 0.687
95.78000 -1.134
95.80000 -0.302
95.82000 2.571
95.84000 9.253
95.86000 7.118
95.88000 -0.066
95.90000 1.642
95.92000 8.316
95.94000 7.159
95.96000 3.306
95.98000 6.362
96.00000 5.741
96.02000 1.015
96.04000 2.137
96.06000 2.407
96.08000 2.968
96.10000 5.078
96.12000 6.867
96.14000 4.040
96.16000 -2.100
96.18000 0.161
96.20000 5.852
96.22000 8.622
96.24000 6.311
96.26000 3.555
96.28000 -1.855
96.30000 5.329
96.32000 5.190
96.34000 7.500
96.36000 1.306
96.38000 6.121
96.40000 6.863
96.42000 9.453
96.44000 5.551
96.46000 2.985
96.48000 5.395
96.50000 3.216
96.52000 4.735
96.54000 0.113
96.56000 2.882
96.58000 5.233
96.60000 0.372
96.62000 3.122
96.64000 4.225
96.66000 3.759
96.68000 3.087
96.70000 1.420
96.72000 -1.271
96.74000 -0.549
96.76000 5.256
96.78000 2.913
96.80000 0.064
96.82000 5.915
96.84000 5.537
96.86000 2.360
96.88000 8.202
96.90000 5.192
96.92000 3.830
96.94000 4.165
96.96000 4.367
96.98000 4.414
97.00000 1.556
97.02000 7.692
97.04000 11.804
97.06000 4.891
97.08000 1.044
97.10000 6.358
97.12000 4.737
97.14000 2.559
97.16000 1.358
97.18000 3.758
97.20000 0.918
97.22000 1.840
97.24000 4.254
97.26000 5.642
97.28000 3.309
97.30000 2.111
97.32000 8.211
97.34000 5.120
97.36000 10.429
97.38000 11.645
97.40000 0.456
97.42000 3.056
97.44000 4.435
97.46000 2.565
97.48000 7.403
97.50000 7.268
97.52000 4.693
97.54000 8.201
97.56000 8.450
97.58000 2.202
97.60000 1.248
97.62000 -0.073
97.64000 -2.055
97.66000 6.148
97.68000 10.924
97.70000 10.732
97.72000 9.953
97.74000 7.152
97.76000 5.097
97.78000 5.755
97.80000 2.558
97.82000 2.468
97.84000 6.737
97.86000 7.124
97.88000 5.869
97.90000 5.863
97.92000 1.263
97.94000 4.002
97.96000 7.957
97.98000 -1.059
98.00000 6.110
98.02000 8.938
98.04000 4.816
98.06000 6.784
98.08000 4.878
98.10000 3.039
98.12000 9.795
98.14000 12.624
98.16000 7.740
98.18000 6.532
98.20000 5.733
98.22000 5.364
98.24000 0.341
98.26000 1.414
98.28000 6.741
98.30000 4.504
98.32000 5.913
98.34000 7.006
98.36000 8.698
98.38000 5.134
98.40000 6.028
98.42000 8.466
98.44000 2.545
98.46000 3.353
98.48000 7.585
98.50000 8.973
98.52000 3.033
98.54000 7.540
98.56000 14.521
98.58000 8.408
98.60000 5.907
98.62000 8.690
98.64000 4.112
98.66000 1.707
98.68000 9.623
98.70000 5.173
98.72000 6.330
98.74000 3.114
98.76000 7.454
98.78000 5.080
98.80000 3.254
98.82000 3.054
98.84000 -1.993
98.86000 3.447
98.88000 2.385
98.90000 2.880
98.92000 6.167
98.94000 8.661
98.96000 5.824
98.98000 10.602
99.00000 7.960
99.02000 6.771
99.04000 6.583
99.06000 9.641
99.08000 9.669
99.10000 8.846
99.12000 9.604
99.14000 9.848
99.16000 4.992
99.18000 4.004
99.20000 10.174
99.22000 2.981
99.24000 14.937
99.26000 12.349
99.28000 1.783
99.30000 4.770
99.32000 7.989
99.34000 9.888
99.36000 14.915
99.38000 6.568
99.40000 4.315
99.42000 -0.495
99.44000 -1.963
99.46000 -1.967
99.48000 9.880
99.50000 8.739
99.52000 11.938
99.54000 5.609
99.56000 6.837
99.58000 7.965
99.60000 4.828
99.62000 -0.009
99.64000 4.325
99.66000 11.208
99.68000 17.497
99.70000 6.880
99.72000 2.932
99.74000 4.142
99.76000 -0.756
99.78000 -0.612
99.80000 3.490
99.82000 4.125
99.84000 5.864
99.86000 3.560
99.88000 10.995
99.90000 8.131
99.92000 -2.447
99.94000 0.783
99.96000 -2.246
99.98000 0.000
