'Id: "0011388" Comment: "Integrate frame 0011388_Au-Ir-Rh_Rh-rich_XRD-Mapping-121-0000.gfrmwith cursor Wedge Cursor #5" Operator: "B?rgel" Anode: "Cu" Wavelength: "1.5406" Scantype: "2Theta (TwoTheta)" TimePerStep: "1" X: "-18" Y: "-9" Z: "5.95" 
10.00000 0.000
10.02000 -0.162
10.04000 -4.386
10.06000 -4.350
10.08000 5.615
10.10000 16.815
10.12000 9.475
10.14000 3.022
10.16000 2.637
10.18000 -1.330
10.20000 -1.345
10.22000 1.560
10.24000 2.600
10.26000 10.627
10.28000 11.203
10.30000 3.752
10.32000 12.734
10.34000 18.700
10.36000 12.490
10.38000 8.150
10.40000 4.998
10.42000 13.209
10.44000 24.311
10.46000 7.658
10.48000 5.481
10.50000 5.955
10.52000 -4.358
10.54000 2.135
10.56000 7.898
10.58000 4.794
10.60000 11.692
10.62000 25.818
10.64000 15.008
10.66000 13.508
10.68000 19.890
10.70000 9.178
10.72000 4.967
10.74000 13.674
10.76000 22.887
10.78000 9.837
10.80000 14.861
10.82000 8.123
10.84000 11.343
10.86000 8.345
10.88000 4.604
10.90000 14.578
10.92000 15.509
10.94000 14.137
10.96000 12.598
10.98000 0.192
11.00000 3.144
11.02000 25.629
11.04000 28.628
11.06000 22.411
11.08000 14.101
11.10000 9.116
11.12000 19.333
11.14000 9.846
11.16000 2.386
11.18000 -4.357
11.20000 10.112
11.22000 18.163
11.24000 13.879
11.26000 7.817
11.28000 14.905
11.30000 10.579
11.32000 9.147
11.34000 12.054
11.36000 18.914
11.38000 11.703
11.40000 5.787
11.42000 11.237
11.44000 4.809
11.46000 -4.354
11.48000 4.673
11.50000 19.097
11.52000 18.054
11.54000 18.776
11.56000 26.308
11.58000 23.395
11.60000 11.066
11.62000 20.785
11.64000 28.199
11.66000 19.195
11.68000 20.306
11.70000 21.678
11.72000 15.912
11.74000 18.247
11.76000 12.169
11.78000 22.171
11.80000 13.078
11.82000 12.069
11.84000 9.736
11.86000 18.942
11.88000 28.834
11.90000 23.353
11.92000 21.744
11.94000 23.615
11.96000 16.624
11.98000 10.094
12.00000 8.154
12.02000 10.290
12.04000 2.223
12.06000 -1.620
12.08000 6.606
12.10000 1.582
12.12000 6.421
12.14000 4.402
12.16000 4.291
12.18000 4.945
12.20000 9.739
12.22000 15.167
12.24000 13.840
12.26000 15.942
12.28000 16.349
12.30000 13.468
12.32000 13.205
12.34000 15.088
12.36000 6.983
12.38000 9.354
12.40000 11.471
12.42000 10.975
12.44000 7.447
12.46000 15.763
12.48000 18.336
12.50000 10.633
12.52000 11.815
12.54000 15.005
12.56000 9.376
12.58000 13.067
12.60000 9.819
12.62000 18.400
12.64000 18.006
12.66000 12.295
12.68000 4.094
12.70000 3.168
12.72000 12.491
12.74000 11.578
12.76000 17.743
12.78000 22.160
12.80000 15.220
12.82000 9.676
12.84000 7.982
12.86000 1.655
12.88000 7.864
12.90000 8.345
12.92000 23.215
12.94000 18.490
12.96000 16.045
12.98000 6.267
13.00000 -1.849
13.02000 7.111
13.04000 6.724
13.06000 2.330
13.08000 8.630
13.10000 11.037
13.12000 12.925
13.14000 6.076
13.16000 12.388
13.18000 10.679
13.20000 4.104
13.22000 5.668
13.24000 4.381
13.26000 -0.071
13.28000 -0.532
13.30000 6.572
13.32000 11.953
13.34000 15.951
13.36000 6.144
13.38000 13.310
13.40000 28.160
13.42000 12.750
13.44000 10.722
13.46000 5.201
13.48000 9.456
13.50000 15.674
13.52000 8.842
13.54000 10.040
13.56000 9.766
13.58000 3.157
13.60000 -0.024
13.62000 0.155
13.64000 5.860
13.66000 12.878
13.68000 11.404
13.70000 13.498
13.72000 10.155
13.74000 9.872
13.76000 9.149
13.78000 7.740
13.80000 6.800
13.82000 16.794
13.84000 12.771
13.86000 8.466
13.88000 21.308
13.90000 17.933
13.92000 5.971
13.94000 9.074
13.96000 18.259
13.98000 10.367
14.00000 9.735
14.02000 11.368
14.04000 6.327
14.06000 9.349
14.08000 15.471
14.10000 22.889
14.12000 10.181
14.14000 5.284
14.16000 9.893
14.18000 1.474
14.20000 -1.677
14.22000 -0.361
14.24000 2.805
14.26000 9.110
14.28000 13.216
14.30000 3.771
14.32000 -4.188
14.34000 1.455
14.36000 -1.236
14.38000 1.271
14.40000 7.596
14.42000 5.932
14.44000 5.745
14.46000 9.667
14.48000 11.035
14.50000 4.966
14.52000 2.791
14.54000 7.137
14.56000 0.341
14.58000 6.347
14.60000 3.725
14.62000 1.114
14.64000 -4.457
14.66000 3.032
14.68000 20.879
14.70000 15.340
14.72000 8.041
14.74000 0.570
14.76000 8.555
14.78000 14.441
14.80000 2.335
14.82000 -0.985
14.84000 0.315
14.86000 6.370
14.88000 8.737
14.90000 7.103
14.92000 10.369
14.94000 9.567
14.96000 11.599
14.98000 11.844
15.00000 5.896
15.02000 4.060
15.04000 7.780
15.06000 9.420
15.08000 10.870
15.10000 5.866
15.12000 14.175
15.14000 13.519
15.16000 12.007
15.18000 5.640
15.20000 8.774
15.22000 -4.440
15.24000 1.964
15.26000 11.667
15.28000 20.002
15.30000 13.765
15.32000 3.614
15.34000 7.030
15.36000 7.023
15.38000 15.352
15.40000 11.858
15.42000 2.988
15.44000 7.624
15.46000 7.189
15.48000 2.699
15.50000 -0.020
15.52000 -4.259
15.54000 -1.705
15.56000 10.061
15.58000 0.977
15.60000 -3.997
15.62000 -0.795
15.64000 9.597
15.66000 0.146
15.68000 5.399
15.70000 11.397
15.72000 11.664
15.74000 9.903
15.76000 10.837
15.78000 6.915
15.80000 0.278
15.82000 1.066
15.84000 5.506
15.86000 3.745
15.88000 12.967
15.90000 4.117
15.92000 1.911
15.94000 4.821
15.96000 12.052
15.98000 10.934
16.00000 -1.466
16.02000 1.300
16.04000 8.589
16.06000 16.040
16.08000 6.866
16.10000 3.371
16.12000 5.875
16.14000 -1.159
16.16000 7.471
16.18000 3.533
16.20000 1.296
16.22000 4.980
16.24000 7.776
16.26000 4.522
16.28000 -4.417
16.30000 7.714
16.32000 13.136
16.34000 7.338
16.36000 5.650
16.38000 4.812
16.40000 5.598
16.42000 2.421
16.44000 1.270
16.46000 1.758
16.48000 11.344
16.50000 10.699
16.52000 8.649
16.54000 9.861
16.56000 7.443
16.58000 2.989
16.60000 4.178
16.62000 1.499
16.64000 7.079
16.66000 10.185
16.68000 9.375
16.70000 -0.150
16.72000 6.796
16.74000 10.439
16.76000 2.874
16.78000 2.460
16.80000 10.507
16.82000 9.302
16.84000 8.660
16.86000 9.480
16.88000 7.196
16.90000 11.749
16.92000 8.114
16.94000 10.876
16.96000 6.043
16.98000 11.081
17.00000 6.343
17.02000 0.085
17.04000 1.564
17.06000 6.209
17.08000 9.932
17.10000 7.288
17.12000 -3.259
17.14000 4.774
17.16000 3.254
17.18000 8.437
17.20000 6.401
17.22000 13.346
17.24000 13.256
17.26000 5.575
17.28000 0.474
17.30000 4.920
17.32000 9.348
17.34000 4.249
17.36000 2.997
17.38000 2.571
17.40000 6.100
17.42000 8.698
17.44000 1.753
17.46000 -1.002
17.48000 3.054
17.50000 2.381
17.52000 6.564
17.54000 7.115
17.56000 8.162
17.58000 6.045
17.60000 3.785
17.62000 3.608
17.64000 3.769
17.66000 -0.255
17.68000 -3.161
17.70000 -1.205
17.72000 3.279
17.74000 5.352
17.76000 1.686
17.78000 7.001
17.80000 5.641
17.82000 1.995
17.84000 -4.336
17.86000 0.063
17.88000 8.914
17.90000 6.315
17.92000 7.095
17.94000 8.095
17.96000 6.697
17.98000 10.351
18.00000 6.912
18.02000 4.832
18.04000 0.594
18.06000 5.112
18.08000 6.703
18.10000 4.661
18.12000 -1.218
18.14000 -4.320
18.16000 1.038
18.18000 7.341
18.20000 5.347
18.22000 2.015
18.24000 -3.276
18.26000 2.739
18.28000 2.342
18.30000 2.861
18.32000 2.412
18.34000 3.144
18.36000 2.156
18.38000 4.825
18.40000 4.854
18.42000 4.311
18.44000 7.263
18.46000 10.561
18.48000 7.783
18.50000 5.495
18.52000 6.286
18.54000 4.181
18.56000 5.582
18.58000 6.272
18.60000 1.343
18.62000 5.951
18.64000 4.434
18.66000 0.746
18.68000 -1.369
18.70000 2.119
18.72000 5.340
18.74000 10.679
18.76000 9.537
18.78000 3.973
18.80000 2.886
18.82000 6.083
18.84000 -0.020
18.86000 -0.548
18.88000 -0.703
18.90000 4.171
18.92000 3.063
18.94000 1.684
18.96000 4.102
18.98000 2.920
19.00000 6.239
19.02000 3.774
19.04000 -2.024
19.06000 0.454
19.08000 4.875
19.10000 -0.458
19.12000 0.749
19.14000 3.928
19.16000 12.533
19.18000 13.791
19.20000 8.432
19.22000 -1.941
19.24000 -2.676
19.26000 4.276
19.28000 6.076
19.30000 5.688
19.32000 3.168
19.34000 3.133
19.36000 4.112
19.38000 3.472
19.40000 -1.097
19.42000 -0.036
19.44000 -2.993
19.46000 -2.469
19.48000 -3.820
19.50000 -0.370
19.52000 8.977
19.54000 5.531
19.56000 3.617
19.58000 0.104
19.60000 -2.602
19.62000 -3.979
19.64000 -2.086
19.66000 1.874
19.68000 8.824
19.70000 4.002
19.72000 -2.634
19.74000 5.209
19.76000 5.575
19.78000 3.152
19.80000 0.680
19.82000 -0.693
19.84000 0.048
19.86000 8.857
19.88000 0.631
19.90000 -0.704
19.92000 -4.252
19.94000 -0.769
19.96000 -4.111
19.98000 -3.228
20.00000 -0.808
20.02000 -0.927
20.04000 1.847
20.06000 5.369
20.08000 5.724
20.10000 1.582
20.12000 0.639
20.14000 3.897
20.16000 -1.470
20.18000 -3.915
20.20000 -2.529
20.22000 4.181
20.24000 4.457
20.26000 6.251
20.28000 10.611
20.30000 3.604
20.32000 -2.639
20.34000 -1.407
20.36000 -2.125
20.38000 1.583
20.40000 8.772
20.42000 4.934
20.44000 5.819
20.46000 8.393
20.48000 6.210
20.50000 1.043
20.52000 -3.401
20.54000 2.319
20.56000 6.573
20.58000 4.622
20.60000 3.120
20.62000 1.885
20.64000 -0.202
20.66000 -0.633
20.68000 3.269
20.70000 5.378
20.72000 9.757
20.74000 7.457
20.76000 4.691
20.78000 2.914
20.80000 3.752
20.82000 4.084
20.84000 2.094
20.86000 4.334
20.88000 6.644
20.90000 6.341
20.92000 2.380
20.94000 0.748
20.96000 2.285
20.98000 10.452
21.00000 2.689
21.02000 1.866
21.04000 -2.849
21.06000 -3.677
21.08000 -4.149
21.10000 -2.634
21.12000 2.013
21.14000 4.836
21.16000 9.286
21.18000 3.126
21.20000 -4.144
21.22000 0.574
21.24000 8.961
21.26000 7.963
21.28000 11.451
21.30000 3.929
21.32000 7.539
21.34000 3.212
21.36000 0.846
21.38000 2.801
21.40000 10.671
21.42000 15.624
21.44000 5.239
21.46000 5.998
21.48000 4.625
21.50000 6.791
21.52000 1.861
21.54000 2.955
21.56000 7.154
21.58000 11.269
21.60000 6.972
21.62000 6.854
21.64000 11.716
21.66000 3.784
21.68000 12.040
21.70000 11.451
21.72000 5.636
21.74000 6.186
21.76000 3.673
21.78000 2.236
21.80000 1.366
21.82000 5.172
21.84000 2.622
21.86000 3.598
21.88000 3.290
21.90000 -4.108
21.92000 -0.945
21.94000 5.108
21.96000 4.027
21.98000 9.310
22.00000 10.917
22.02000 13.610
22.04000 8.059
22.06000 6.090
22.08000 4.428
22.10000 0.804
22.12000 3.104
22.14000 9.709
22.16000 5.906
22.18000 3.768
22.20000 -0.307
22.22000 2.688
22.24000 6.017
22.26000 0.603
22.28000 -1.476
22.30000 3.739
22.32000 -4.073
22.34000 2.519
22.36000 7.571
22.38000 6.215
22.40000 -0.427
22.42000 -0.098
22.44000 2.735
22.46000 4.718
22.48000 3.902
22.50000 2.452
22.52000 2.382
22.54000 -1.899
22.56000 -1.537
22.58000 4.176
22.60000 5.150
22.62000 6.887
22.64000 0.598
22.66000 1.819
22.68000 -1.266
22.70000 3.804
22.72000 3.345
22.74000 -0.331
22.76000 -2.155
22.78000 1.112
22.80000 0.330
22.82000 2.310
22.84000 4.100
22.86000 5.101
22.88000 4.186
22.90000 -0.460
22.92000 1.167
22.94000 3.513
22.96000 6.259
22.98000 6.323
23.00000 -1.524
23.02000 -1.327
23.04000 1.926
23.06000 3.174
23.08000 5.108
23.10000 1.598
23.12000 4.014
23.14000 4.233
23.16000 0.420
23.18000 2.135
23.20000 -0.345
23.22000 -0.977
23.24000 -0.982
23.26000 -0.456
23.28000 4.318
23.30000 5.909
23.32000 6.481
23.34000 6.074
23.36000 3.597
23.38000 -1.162
23.40000 6.503
23.42000 6.451
23.44000 8.272
23.46000 10.995
23.48000 6.054
23.50000 3.377
23.52000 2.562
23.54000 0.645
23.56000 -3.998
23.58000 1.844
23.60000 2.646
23.62000 9.732
23.64000 2.241
23.66000 -3.514
23.68000 1.486
23.70000 3.261
23.72000 7.518
23.74000 6.143
23.76000 -0.258
23.78000 -4.004
23.80000 -0.117
23.82000 1.298
23.84000 -0.710
23.86000 4.103
23.88000 4.695
23.90000 4.638
23.92000 4.627
23.94000 9.306
23.96000 5.395
23.98000 5.759
24.00000 5.386
24.02000 4.123
24.04000 3.760
24.06000 7.197
24.08000 1.411
24.10000 3.140
24.12000 4.094
24.14000 5.767
24.16000 3.695
24.18000 3.819
24.20000 1.452
24.22000 -1.047
24.24000 2.794
24.26000 7.922
24.28000 0.401
24.30000 -2.194
24.32000 -0.468
24.34000 -1.003
24.36000 1.619
24.38000 7.902
24.40000 6.164
24.42000 4.465
24.44000 -3.972
24.46000 -3.551
24.48000 8.835
24.50000 11.765
24.52000 8.612
24.54000 7.174
24.56000 9.777
24.58000 7.251
24.60000 5.064
24.62000 -2.288
24.64000 0.560
24.66000 1.767
24.68000 0.297
24.70000 0.298
24.72000 -0.614
24.74000 1.313
24.76000 1.371
24.78000 3.261
24.80000 2.000
24.82000 0.769
24.84000 0.521
24.86000 -2.400
24.88000 6.413
24.90000 6.753
24.92000 5.284
24.94000 3.753
24.96000 4.203
24.98000 1.664
25.00000 0.880
25.02000 3.497
25.04000 0.192
25.06000 -0.504
25.08000 2.364
25.10000 4.939
25.12000 3.236
25.14000 1.657
25.16000 4.815
25.18000 4.544
25.20000 -1.446
25.22000 -2.878
25.24000 3.480
25.26000 9.568
25.28000 6.020
25.30000 -0.148
25.32000 0.075
25.34000 0.461
25.36000 -1.704
25.38000 4.747
25.40000 4.043
25.42000 2.361
25.44000 9.624
25.46000 3.216
25.48000 6.433
25.50000 3.600
25.52000 7.697
25.54000 6.212
25.56000 8.104
25.58000 8.690
25.60000 4.919
25.62000 3.286
25.64000 5.916
25.66000 3.653
25.68000 -3.895
25.70000 0.773
25.72000 -0.130
25.74000 1.598
25.76000 9.728
25.78000 1.840
25.80000 2.142
25.82000 0.990
25.84000 -1.215
25.86000 3.185
25.88000 6.660
25.90000 2.603
25.92000 2.264
25.94000 2.508
25.96000 8.367
25.98000 7.990
26.00000 1.061
26.02000 -1.265
26.04000 -0.282
26.06000 0.810
26.08000 0.236
26.10000 7.198
26.12000 5.112
26.14000 0.464
26.16000 -1.426
26.18000 -1.045
26.20000 1.437
26.22000 5.866
26.24000 2.112
26.26000 5.189
26.28000 5.243
26.30000 4.786
26.32000 -1.378
26.34000 0.806
26.36000 1.104
26.38000 5.759
26.40000 3.335
26.42000 -3.677
26.44000 -1.293
26.46000 5.093
26.48000 4.394
26.50000 4.111
26.52000 0.110
26.54000 3.748
26.56000 5.702
26.58000 4.501
26.60000 2.246
26.62000 1.450
26.64000 2.785
26.66000 4.243
26.68000 5.603
26.70000 8.550
26.72000 2.171
26.74000 0.759
26.76000 2.741
26.78000 -0.810
26.80000 1.815
26.82000 2.272
26.84000 4.926
26.86000 -1.944
26.88000 -3.853
26.90000 -2.609
26.92000 1.007
26.94000 6.935
26.96000 7.669
26.98000 3.663
27.00000 2.745
27.02000 5.186
27.04000 4.700
27.06000 2.265
27.08000 0.035
27.10000 2.124
27.12000 -0.851
27.14000 1.051
27.16000 1.082
27.18000 3.045
27.20000 1.156
27.22000 2.676
27.24000 5.872
27.26000 1.419
27.28000 0.951
27.30000 7.256
27.32000 10.022
27.34000 7.194
27.36000 0.660
27.38000 -0.423
27.40000 3.054
27.42000 5.965
27.44000 -2.361
27.46000 -3.811
27.48000 1.705
27.50000 4.056
27.52000 4.398
27.54000 4.971
27.56000 1.391
27.58000 2.734
27.60000 1.551
27.62000 -2.685
27.64000 -1.961
27.66000 1.487
27.68000 6.052
27.70000 1.710
27.72000 -1.963
27.74000 2.087
27.76000 0.332
27.78000 2.334
27.80000 1.809
27.82000 6.734
27.84000 7.350
27.86000 5.704
27.88000 4.628
27.90000 3.596
27.92000 1.222
27.94000 3.553
27.96000 2.206
27.98000 5.855
28.00000 5.243
28.02000 2.788
28.04000 1.328
28.06000 0.008
28.08000 7.014
28.10000 6.389
28.12000 3.007
28.14000 2.775
28.16000 1.418
28.18000 -3.774
28.20000 -0.650
28.22000 5.160
28.24000 7.749
28.26000 4.610
28.28000 2.496
28.30000 -0.325
28.32000 1.436
28.34000 -0.604
28.36000 3.440
28.38000 0.898
28.40000 0.010
28.42000 1.080
28.44000 1.781
28.46000 4.802
28.48000 6.859
28.50000 3.622
28.52000 -3.358
28.54000 -3.754
28.56000 2.829
28.58000 2.070
28.60000 5.433
28.62000 2.649
28.64000 0.444
28.66000 0.170
28.68000 -1.475
28.70000 4.354
28.72000 5.145
28.74000 8.802
28.76000 5.327
28.78000 7.266
28.80000 3.245
28.82000 7.664
28.84000 5.654
28.86000 1.583
28.88000 0.718
28.90000 0.425
28.92000 -0.418
28.94000 6.083
28.96000 3.075
28.98000 0.264
29.00000 0.939
29.02000 -1.726
29.04000 -0.259
29.06000 1.398
29.08000 4.793
29.10000 1.323
29.12000 0.543
29.14000 -2.090
29.16000 2.674
29.18000 -1.996
29.20000 1.136
29.22000 -0.119
29.24000 3.225
29.26000 5.109
29.28000 3.061
29.30000 -2.841
29.32000 0.839
29.34000 1.391
29.36000 1.759
29.38000 3.865
29.40000 3.608
29.42000 3.412
29.44000 2.381
29.46000 3.513
29.48000 0.386
29.50000 6.797
29.52000 6.235
29.54000 5.241
29.56000 0.193
29.58000 -1.547
29.60000 5.006
29.62000 1.880
29.64000 1.186
29.66000 0.934
29.68000 1.418
29.70000 5.218
29.72000 10.917
29.74000 10.153
29.76000 4.613
29.78000 1.597
29.80000 -1.155
29.82000 4.460
29.84000 8.565
29.86000 5.113
29.88000 7.448
29.90000 10.109
29.92000 5.390
29.94000 -1.182
29.96000 -1.608
29.98000 -3.298
30.00000 1.399
30.02000 4.573
30.04000 2.098
30.06000 -3.658
30.08000 -0.299
30.10000 5.311
30.12000 6.630
30.14000 1.697
30.16000 4.054
30.18000 4.768
30.20000 4.917
30.22000 3.878
30.24000 8.603
30.26000 7.395
30.28000 4.655
30.30000 2.330
30.32000 8.183
30.34000 6.348
30.36000 6.122
30.38000 10.374
30.40000 9.570
30.42000 3.586
30.44000 4.685
30.46000 -0.790
30.48000 -0.310
30.50000 2.672
30.52000 6.207
30.54000 1.275
30.56000 4.284
30.58000 2.746
30.60000 4.413
30.62000 2.258
30.64000 3.637
30.66000 2.899
30.68000 -1.282
30.70000 -0.327
30.72000 1.818
30.74000 2.895
30.76000 1.737
30.78000 3.007
30.80000 5.454
30.82000 -1.537
30.84000 -2.823
30.86000 0.778
30.88000 3.414
30.90000 4.507
30.92000 2.371
30.94000 5.383
30.96000 4.670
30.98000 3.166
31.00000 5.071
31.02000 4.529
31.04000 7.825
31.06000 8.556
31.08000 8.672
31.10000 2.803
31.12000 5.643
31.14000 3.539
31.16000 6.938
31.18000 6.537
31.20000 0.588
31.22000 -0.590
31.24000 0.974
31.26000 -1.132
31.28000 -2.081
31.30000 -1.912
31.32000 4.367
31.34000 5.977
31.36000 6.562
31.38000 6.000
31.40000 -1.370
31.42000 -0.052
31.44000 9.263
31.46000 10.888
31.48000 8.412
31.50000 3.331
31.52000 1.569
31.54000 -2.906
31.56000 -0.787
31.58000 3.821
31.60000 1.462
31.62000 0.001
31.64000 4.177
31.66000 5.791
31.68000 5.516
31.70000 5.555
31.72000 7.550
31.74000 9.471
31.76000 2.916
31.78000 -0.432
31.80000 7.730
31.82000 6.680
31.84000 4.422
31.86000 5.783
31.88000 3.650
31.90000 4.440
31.92000 1.879
31.94000 0.792
31.96000 4.216
31.98000 5.124
32.00000 5.005
32.02000 3.735
32.04000 -3.557
32.06000 -1.971
32.08000 3.237
32.10000 5.835
32.12000 9.039
32.14000 4.544
32.16000 7.574
32.18000 9.601
32.20000 8.491
32.22000 8.468
32.24000 6.991
32.26000 5.660
32.28000 6.734
32.30000 3.940
32.32000 3.696
32.34000 4.122
32.36000 6.410
32.38000 10.730
32.40000 3.646
32.42000 7.085
32.44000 8.888
32.46000 6.080
32.48000 2.477
32.50000 6.898
32.52000 7.741
32.54000 8.503
32.56000 3.269
32.58000 3.163
32.60000 1.928
32.62000 -0.825
32.64000 4.236
32.66000 7.985
32.68000 5.075
32.70000 1.739
32.72000 -0.284
32.74000 3.727
32.76000 0.315
32.78000 -0.461
32.80000 0.043
32.82000 1.884
32.84000 2.332
32.86000 3.540
32.88000 4.326
32.90000 4.428
32.92000 1.962
32.94000 1.700
32.96000 4.526
32.98000 4.716
33.00000 3.740
33.02000 0.867
33.04000 1.588
33.06000 4.014
33.08000 4.535
33.10000 5.759
33.12000 2.895
33.14000 1.740
33.16000 -3.563
33.18000 -1.077
33.20000 1.055
33.22000 4.447
33.24000 2.759
33.26000 3.727
33.28000 7.075
33.30000 6.121
33.32000 4.969
33.34000 8.425
33.36000 4.680
33.38000 1.018
33.40000 1.030
33.42000 4.094
33.44000 9.517
33.46000 5.581
33.48000 0.951
33.50000 0.751
33.52000 5.353
33.54000 9.232
33.56000 6.454
33.58000 1.598
33.60000 4.559
33.62000 6.612
33.64000 3.793
33.66000 0.901
33.68000 0.719
33.70000 2.761
33.72000 2.632
33.74000 2.402
33.76000 3.356
33.78000 3.895
33.80000 5.955
33.82000 1.866
33.84000 -0.054
33.86000 -2.127
33.88000 -1.123
33.90000 -0.726
33.92000 -1.760
33.94000 -2.162
33.96000 -1.398
33.98000 -1.327
34.00000 0.867
34.02000 3.432
34.04000 -1.363
34.06000 -1.708
34.08000 1.571
34.10000 1.635
34.12000 2.234
34.14000 3.025
34.16000 2.686
34.18000 3.509
34.20000 5.642
34.22000 5.106
34.24000 4.693
34.26000 1.315
34.28000 0.523
34.30000 1.670
34.32000 5.568
34.34000 4.172
34.36000 1.317
34.38000 0.959
34.40000 4.113
34.42000 -2.509
34.44000 0.318
34.46000 1.508
34.48000 1.553
34.50000 -1.075
34.52000 -0.924
34.54000 3.696
34.56000 5.316
34.58000 3.418
34.60000 4.106
34.62000 6.313
34.64000 5.553
34.66000 4.697
34.68000 5.216
34.70000 1.296
34.72000 1.287
34.74000 3.466
34.76000 6.515
34.78000 9.278
34.80000 3.291
34.82000 6.165
34.84000 5.511
34.86000 7.107
34.88000 -0.421
34.90000 -2.479
34.92000 4.771
34.94000 8.894
34.96000 2.315
34.98000 2.305
35.00000 5.393
35.02000 2.337
35.04000 4.060
35.06000 -3.036
35.08000 -3.462
35.10000 5.864
35.12000 5.662
35.14000 6.116
35.16000 6.874
35.18000 4.621
35.20000 7.166
35.22000 5.707
35.24000 7.627
35.26000 7.280
35.28000 3.490
35.30000 5.838
35.32000 2.759
35.34000 1.750
35.36000 2.407
35.38000 4.428
35.40000 6.949
35.42000 3.055
35.44000 5.980
35.46000 0.839
35.48000 3.026
35.50000 5.260
35.52000 1.176
35.54000 7.913
35.56000 10.093
35.58000 2.165
35.60000 8.774
35.62000 8.627
35.64000 4.639
35.66000 4.137
35.68000 7.992
35.70000 2.095
35.72000 2.759
35.74000 3.381
35.76000 4.572
35.78000 0.164
35.80000 1.348
35.82000 7.026
35.84000 5.578
35.86000 1.064
35.88000 3.636
35.90000 6.460
35.92000 7.588
35.94000 2.338
35.96000 4.125
35.98000 5.090
36.00000 4.073
36.02000 2.044
36.04000 1.923
36.06000 -0.037
36.08000 5.153
36.10000 4.494
36.12000 9.001
36.14000 2.452
36.16000 1.052
36.18000 3.807
36.20000 5.613
36.22000 5.435
36.24000 5.527
36.26000 3.405
36.28000 1.419
36.30000 2.161
36.32000 1.664
36.34000 -1.168
36.36000 -0.066
36.38000 -0.808
36.40000 3.765
36.42000 2.324
36.44000 4.407
36.46000 2.081
36.48000 1.115
36.50000 -1.762
36.52000 -3.242
36.54000 -0.292
36.56000 0.625
36.58000 1.797
36.60000 2.405
36.62000 3.918
36.64000 6.800
36.66000 8.293
36.68000 6.774
36.70000 4.437
36.72000 1.057
36.74000 0.675
36.76000 -3.509
36.78000 -3.190
36.80000 2.116
36.82000 4.330
36.84000 5.884
36.86000 5.081
36.88000 4.385
36.90000 5.827
36.92000 4.520
36.94000 3.665
36.96000 0.493
36.98000 3.406
37.00000 7.076
37.02000 5.747
37.04000 3.465
37.06000 3.521
37.08000 5.472
37.10000 2.438
37.12000 0.511
37.14000 2.127
37.16000 1.396
37.18000 0.395
37.20000 3.363
37.22000 6.392
37.24000 1.390
37.26000 -0.451
37.28000 -3.533
37.30000 5.924
37.32000 6.639
37.34000 4.075
37.36000 3.629
37.38000 7.247
37.40000 6.528
37.42000 3.118
37.44000 -0.194
37.46000 -0.658
37.48000 2.740
37.50000 0.658
37.52000 0.759
37.54000 1.640
37.56000 2.457
37.58000 5.869
37.60000 7.180
37.62000 3.341
37.64000 2.646
37.66000 1.856
37.68000 4.022
37.70000 5.125
37.72000 1.352
37.74000 0.520
37.76000 5.008
37.78000 9.508
37.80000 5.935
37.82000 4.248
37.84000 2.664
37.86000 3.612
37.88000 8.656
37.90000 7.760
37.92000 7.330
37.94000 2.274
37.96000 9.350
37.98000 11.847
38.00000 10.483
38.02000 9.427
38.04000 6.344
38.06000 8.862
38.08000 7.412
38.10000 3.665
38.12000 7.756
38.14000 6.418
38.16000 3.115
38.18000 10.797
38.20000 16.704
38.22000 12.984
38.24000 9.063
38.26000 8.279
38.28000 11.310
38.30000 10.244
38.32000 12.116
38.34000 15.360
38.36000 14.515
38.38000 13.953
38.40000 13.886
38.42000 15.470
38.44000 14.054
38.46000 10.899
38.48000 12.497
38.50000 13.435
38.52000 16.435
38.54000 18.211
38.56000 19.980
38.58000 14.989
38.60000 13.092
38.62000 16.466
38.64000 21.473
38.66000 23.060
38.68000 22.458
38.70000 22.709
38.72000 22.149
38.74000 20.507
38.76000 22.601
38.78000 26.679
38.80000 33.796
38.82000 31.580
38.84000 24.643
38.86000 22.010
38.88000 25.944
38.90000 30.354
38.92000 33.861
38.94000 29.555
38.96000 30.743
38.98000 35.161
39.00000 39.377
39.02000 37.099
39.04000 34.711
39.06000 39.216
39.08000 39.003
39.10000 38.395
39.12000 41.243
39.14000 44.301
39.16000 46.049
39.18000 46.751
39.20000 48.815
39.22000 49.946
39.24000 48.551
39.26000 54.967
39.28000 55.160
39.30000 58.054
39.32000 59.778
39.34000 62.539
39.36000 71.012
39.38000 75.955
39.40000 75.461
39.42000 80.490
39.44000 82.541
39.46000 80.313
39.48000 83.416
39.50000 88.177
39.52000 94.684
39.54000 98.608
39.56000 104.747
39.58000 112.643
39.60000 118.149
39.62000 123.660
39.64000 130.315
39.66000 138.407
39.68000 137.922
39.70000 144.175
39.72000 153.546
39.74000 161.772
39.76000 168.813
39.78000 174.801
39.80000 183.421
39.82000 201.028
39.84000 211.647
39.86000 217.176
39.88000 234.535
39.90000 252.195
39.92000 257.104
39.94000 258.435
39.96000 270.927
39.98000 282.027
40.00000 298.772
40.02000 316.207
40.04000 331.260
40.06000 336.100
40.08000 359.006
40.10000 373.093
40.12000 390.528
40.14000 400.188
40.16000 407.682
40.18000 433.940
40.20000 447.013
40.22000 454.967
40.24000 474.010
40.26000 484.615
40.28000 493.779
40.30000 503.835
40.32000 518.057
40.34000 520.038
40.36000 532.720
40.38000 527.604
40.40000 535.241
40.42000 542.987
40.44000 551.872
40.46000 552.664
40.48000 556.631
40.50000 550.259
40.52000 550.782
40.54000 538.321
40.56000 531.737
40.58000 536.170
40.60000 521.832
40.62000 506.878
40.64000 499.832
40.66000 491.054
40.68000 471.278
40.70000 461.306
40.72000 432.252
40.74000 424.490
40.76000 418.452
40.78000 401.271
40.80000 390.038
40.82000 381.153
40.84000 360.069
40.86000 335.455
40.88000 319.482
40.90000 308.066
40.92000 300.149
40.94000 293.966
40.96000 274.212
40.98000 251.069
41.00000 241.339
41.02000 233.049
41.04000 226.047
41.06000 211.054
41.08000 197.174
41.10000 188.385
41.12000 176.065
41.14000 166.830
41.16000 161.391
41.18000 152.094
41.20000 145.650
41.22000 138.584
41.24000 126.563
41.26000 120.164
41.28000 119.102
41.30000 110.269
41.32000 100.513
41.34000 99.875
41.36000 97.567
41.38000 88.205
41.40000 83.701
41.42000 79.299
41.44000 76.150
41.46000 71.871
41.48000 69.920
41.50000 65.273
41.52000 64.626
41.54000 61.408
41.56000 59.704
41.58000 54.217
41.60000 50.380
41.62000 44.649
41.64000 46.768
41.66000 50.531
41.68000 46.374
41.70000 44.913
41.72000 41.348
41.74000 39.609
41.76000 37.219
41.78000 36.856
41.80000 36.039
41.82000 34.437
41.84000 33.746
41.86000 31.252
41.88000 28.866
41.90000 25.105
41.92000 19.953
41.94000 21.391
41.96000 24.115
41.98000 24.842
42.00000 20.813
42.02000 17.519
42.04000 15.662
42.06000 13.827
42.08000 16.196
42.10000 17.880
42.12000 14.622
42.14000 12.865
42.16000 14.841
42.18000 14.889
42.20000 15.593
42.22000 9.657
42.24000 6.847
42.26000 7.036
42.28000 7.988
42.30000 5.888
42.32000 10.515
42.34000 11.523
42.36000 14.468
42.38000 14.429
42.40000 11.717
42.42000 7.937
42.44000 15.839
42.46000 10.790
42.48000 8.060
42.50000 7.229
42.52000 -0.060
42.54000 -2.058
42.56000 4.041
42.58000 4.876
42.60000 4.818
42.62000 3.258
42.64000 3.814
42.66000 7.266
42.68000 7.712
42.70000 5.527
42.72000 3.920
42.74000 2.981
42.76000 5.980
42.78000 4.533
42.80000 3.780
42.82000 -3.527
42.84000 -2.989
42.86000 4.564
42.88000 9.240
42.90000 4.606
42.92000 -1.480
42.94000 0.127
42.96000 0.385
42.98000 2.223
43.00000 2.894
43.02000 0.098
43.04000 0.881
43.06000 -1.967
43.08000 -1.055
43.10000 3.377
43.12000 1.954
43.14000 0.092
43.16000 4.820
43.18000 4.541
43.20000 6.929
43.22000 5.112
43.24000 1.212
43.26000 0.096
43.28000 -1.302
43.30000 1.036
43.32000 -0.492
43.34000 2.598
43.36000 5.442
43.38000 2.725
43.40000 6.703
43.42000 5.009
43.44000 8.847
43.46000 6.554
43.48000 2.623
43.50000 5.320
43.52000 4.143
43.54000 0.525
43.56000 -3.431
43.58000 0.122
43.60000 2.272
43.62000 3.093
43.64000 4.140
43.66000 2.225
43.68000 2.053
43.70000 2.595
43.72000 6.354
43.74000 7.173
43.76000 3.770
43.78000 3.752
43.80000 8.229
43.82000 4.789
43.84000 2.104
43.86000 2.728
43.88000 2.633
43.90000 0.458
43.92000 -1.009
43.94000 -0.913
43.96000 0.399
43.98000 1.629
44.00000 1.811
44.02000 -1.076
44.04000 1.214
44.06000 5.813
44.08000 6.417
44.10000 5.235
44.12000 7.591
44.14000 2.810
44.16000 2.583
44.18000 2.802
44.20000 -2.073
44.22000 -2.734
44.24000 -3.417
44.26000 1.880
44.28000 -0.542
44.30000 -1.597
44.32000 2.302
44.34000 5.843
44.36000 6.476
44.38000 7.282
44.40000 3.775
44.42000 -0.151
44.44000 -3.424
44.46000 -0.956
44.48000 3.961
44.50000 2.508
44.52000 5.500
44.54000 9.200
44.56000 6.092
44.58000 0.119
44.60000 3.811
44.62000 4.134
44.64000 2.777
44.66000 4.656
44.68000 4.703
44.70000 4.276
44.72000 6.474
44.74000 4.191
44.76000 9.865
44.78000 6.303
44.80000 6.942
44.82000 6.421
44.84000 4.386
44.86000 3.924
44.88000 4.853
44.90000 4.320
44.92000 5.251
44.94000 6.358
44.96000 5.573
44.98000 3.759
45.00000 3.482
45.02000 4.192
45.04000 6.646
45.06000 3.209
45.08000 4.116
45.10000 0.494
45.12000 1.320
45.14000 1.044
45.16000 6.641
45.18000 7.399
45.20000 7.009
45.22000 5.339
45.24000 5.839
45.26000 0.760
45.28000 7.999
45.30000 7.044
45.32000 12.416
45.34000 9.919
45.36000 8.390
45.38000 9.763
45.40000 9.198
45.42000 17.750
45.44000 11.195
45.46000 6.679
45.48000 13.490
45.50000 19.792
45.52000 17.914
45.54000 13.067
45.56000 12.384
45.58000 17.401
45.60000 15.761
45.62000 11.433
45.64000 11.703
45.66000 12.679
45.68000 15.774
45.70000 17.127
45.72000 17.275
45.74000 22.192
45.76000 17.497
45.78000 17.003
45.80000 15.910
45.82000 22.775
45.84000 21.285
45.86000 19.547
45.88000 23.872
45.90000 23.988
45.92000 24.398
45.94000 18.212
45.96000 27.878
45.98000 33.849
46.00000 28.704
46.02000 33.061
46.04000 33.684
46.06000 31.701
46.08000 33.851
46.10000 31.911
46.12000 31.604
46.14000 40.819
46.16000 42.964
46.18000 35.930
46.20000 41.069
46.22000 41.295
46.24000 46.668
46.26000 51.026
46.28000 52.051
46.30000 51.346
46.32000 54.654
46.34000 51.839
46.36000 49.106
46.38000 47.262
46.40000 45.612
46.42000 47.716
46.44000 54.160
46.46000 54.514
46.48000 58.738
46.50000 64.929
46.52000 65.837
46.54000 62.878
46.56000 64.321
46.58000 67.313
46.60000 63.300
46.62000 59.092
46.64000 62.005
46.66000 69.184
46.68000 73.085
46.70000 73.992
46.72000 70.930
46.74000 69.599
46.76000 72.689
46.78000 78.042
46.80000 75.218
46.82000 71.714
46.84000 75.637
46.86000 78.650
46.88000 81.917
46.90000 77.707
46.92000 78.639
46.94000 82.768
46.96000 80.994
46.98000 84.714
47.00000 86.576
47.02000 83.267
47.04000 79.608
47.06000 84.299
47.08000 89.797
47.10000 84.816
47.12000 85.291
47.14000 85.708
47.16000 81.702
47.18000 74.576
47.20000 74.921
47.22000 77.173
47.24000 79.290
47.26000 84.575
47.28000 86.509
47.30000 77.264
47.32000 79.260
47.34000 75.174
47.36000 71.476
47.38000 74.483
47.40000 71.728
47.42000 68.319
47.44000 64.203
47.46000 70.797
47.48000 73.814
47.50000 65.715
47.52000 64.242
47.54000 65.905
47.56000 56.899
47.58000 57.691
47.60000 57.322
47.62000 53.214
47.64000 52.661
47.66000 41.230
47.68000 43.572
47.70000 52.845
47.72000 53.771
47.74000 53.379
47.76000 41.680
47.78000 39.834
47.80000 37.651
47.82000 33.844
47.84000 39.546
47.86000 45.937
47.88000 38.224
47.90000 36.005
47.92000 34.747
47.94000 33.165
47.96000 32.042
47.98000 32.662
48.00000 27.771
48.02000 25.025
48.04000 23.086
48.06000 19.572
48.08000 14.826
48.10000 16.127
48.12000 22.433
48.14000 16.869
48.16000 12.575
48.18000 17.028
48.20000 17.392
48.22000 17.605
48.24000 17.811
48.26000 16.560
48.28000 19.135
48.30000 18.313
48.32000 11.565
48.34000 12.607
48.36000 9.265
48.38000 6.548
48.40000 7.465
48.42000 7.322
48.44000 6.350
48.46000 12.530
48.48000 12.109
48.50000 10.994
48.52000 8.668
48.54000 10.571
48.56000 10.632
48.58000 6.998
48.60000 7.053
48.62000 5.392
48.64000 6.602
48.66000 6.380
48.68000 10.488
48.70000 10.410
48.72000 9.979
48.74000 6.308
48.76000 7.722
48.78000 8.720
48.80000 8.808
48.82000 4.743
48.84000 3.127
48.86000 10.138
48.88000 6.603
48.90000 5.490
48.92000 4.382
48.94000 1.587
48.96000 2.013
48.98000 2.965
49.00000 5.115
49.02000 4.058
49.04000 5.304
49.06000 3.355
49.08000 5.566
49.10000 0.678
49.12000 1.831
49.14000 5.007
49.16000 1.136
49.18000 4.360
49.20000 7.623
49.22000 6.123
49.24000 9.644
49.26000 2.908
49.28000 3.014
49.30000 3.428
49.32000 0.202
49.34000 -2.011
49.36000 -2.998
49.38000 -0.816
49.40000 5.540
49.42000 7.770
49.44000 2.926
49.46000 9.321
49.48000 10.735
49.50000 8.516
49.52000 8.501
49.54000 9.667
49.56000 8.294
49.58000 2.468
49.60000 6.997
49.62000 8.103
49.64000 3.142
49.66000 -0.344
49.68000 1.474
49.70000 3.146
49.72000 1.625
49.74000 1.921
49.76000 5.153
49.78000 2.624
49.80000 4.545
49.82000 10.186
49.84000 10.622
49.86000 5.028
49.88000 2.540
49.90000 0.004
49.92000 -2.944
49.94000 -0.097
49.96000 3.133
49.98000 5.950
50.00000 7.798
50.02000 6.992
50.04000 13.293
50.06000 9.251
50.08000 6.116
50.10000 4.280
50.12000 1.122
50.14000 3.966
50.16000 7.848
50.18000 5.336
50.20000 5.208
50.22000 9.408
50.24000 7.364
50.26000 1.358
50.28000 -2.938
50.30000 0.765
50.32000 4.339
50.34000 5.655
50.36000 2.414
50.38000 1.028
50.40000 6.537
50.42000 4.968
50.44000 -1.116
50.46000 -0.039
50.48000 2.923
50.50000 5.932
50.52000 10.682
50.54000 4.485
50.56000 3.586
50.58000 6.959
50.60000 3.763
50.62000 3.308
50.64000 4.387
50.66000 4.693
50.68000 6.953
50.70000 2.284
50.72000 2.349
50.74000 -2.808
50.76000 0.055
50.78000 -0.440
50.80000 7.370
50.82000 9.526
50.84000 3.595
50.86000 2.274
50.88000 2.774
50.90000 6.182
50.92000 2.879
50.94000 4.318
50.96000 5.112
50.98000 -2.022
51.00000 -2.868
51.02000 -1.440
51.04000 -2.904
51.06000 3.050
51.08000 0.034
51.10000 2.056
51.12000 7.543
51.14000 4.251
51.16000 3.109
51.18000 -0.297
51.20000 2.695
51.22000 3.050
51.24000 1.985
51.26000 4.618
51.28000 2.166
51.30000 5.011
51.32000 9.121
51.34000 5.981
51.36000 1.881
51.38000 5.186
51.40000 8.159
51.42000 8.574
51.44000 4.185
51.46000 0.007
51.48000 0.691
51.50000 -0.565
51.52000 0.597
51.54000 1.038
51.56000 5.070
51.58000 2.739
51.60000 4.444
51.62000 3.074
51.64000 3.573
51.66000 6.870
51.68000 3.772
51.70000 4.603
51.72000 5.586
51.74000 0.465
51.76000 -2.868
51.78000 -0.549
51.80000 2.598
51.82000 2.827
51.84000 6.592
51.86000 3.506
51.88000 5.088
51.90000 3.905
51.92000 1.381
51.94000 3.776
51.96000 0.626
51.98000 3.246
52.00000 1.381
52.02000 -0.146
52.04000 -1.783
52.06000 2.218
52.08000 4.701
52.10000 0.714
52.12000 1.224
52.14000 -1.213
52.16000 2.906
52.18000 7.448
52.20000 3.096
52.22000 3.111
52.24000 -2.116
52.26000 -1.292
52.28000 -0.961
52.30000 0.987
52.32000 -1.061
52.34000 0.954
52.36000 4.119
52.38000 1.685
52.40000 4.570
52.42000 4.663
52.44000 3.289
52.46000 6.763
52.48000 0.011
52.50000 2.206
52.52000 2.249
52.54000 5.923
52.56000 6.619
52.58000 6.486
52.60000 7.117
52.62000 3.024
52.64000 2.674
52.66000 4.812
52.68000 5.731
52.70000 4.781
52.72000 6.667
52.74000 4.815
52.76000 4.225
52.78000 3.602
52.80000 2.764
52.82000 3.511
52.84000 13.051
52.86000 6.588
52.88000 2.366
52.90000 0.614
52.92000 4.727
52.94000 8.125
52.96000 5.783
52.98000 5.423
53.00000 1.570
53.02000 -2.792
53.04000 -1.014
53.06000 6.837
53.08000 9.349
53.10000 3.002
53.12000 3.865
53.14000 5.767
53.16000 4.311
53.18000 1.103
53.20000 0.100
53.22000 3.196
53.24000 -0.433
53.26000 2.698
53.28000 0.638
53.30000 0.450
53.32000 3.456
53.34000 3.849
53.36000 -0.952
53.38000 3.114
53.40000 3.675
53.42000 1.072
53.44000 0.344
53.46000 5.138
53.48000 6.580
53.50000 7.308
53.52000 4.480
53.54000 2.918
53.56000 1.936
53.58000 1.210
53.60000 4.119
53.62000 3.561
53.64000 2.392
53.66000 -0.256
53.68000 3.883
53.70000 2.428
53.72000 5.310
53.74000 0.926
53.76000 -0.214
53.78000 1.927
53.80000 3.897
53.82000 2.442
53.84000 2.219
53.86000 4.984
53.88000 3.720
53.90000 5.678
53.92000 3.817
53.94000 0.565
53.96000 3.986
53.98000 6.572
54.00000 2.640
54.02000 4.014
54.04000 3.982
54.06000 3.110
54.08000 5.750
54.10000 1.832
54.12000 1.581
54.14000 0.484
54.16000 0.552
54.18000 2.862
54.20000 6.201
54.22000 7.854
54.24000 5.450
54.26000 2.281
54.28000 -2.763
54.30000 2.517
54.32000 6.760
54.34000 4.585
54.36000 2.580
54.38000 6.302
54.40000 6.840
54.42000 8.709
54.44000 6.720
54.46000 4.116
54.48000 2.489
54.50000 -0.041
54.52000 -2.438
54.54000 0.990
54.56000 5.327
54.58000 9.090
54.60000 7.252
54.62000 7.690
54.64000 7.819
54.66000 8.466
54.68000 5.145
54.70000 6.484
54.72000 5.056
54.74000 2.193
54.76000 -2.756
54.78000 2.307
54.80000 5.291
54.82000 2.854
54.84000 7.907
54.86000 3.331
54.88000 4.240
54.90000 2.267
54.92000 1.797
54.94000 -2.751
54.96000 -1.134
54.98000 2.482
55.00000 2.746
55.02000 5.939
55.04000 1.241
55.06000 4.317
55.08000 5.748
55.10000 6.940
55.12000 2.877
55.14000 2.649
55.16000 2.874
55.18000 2.288
55.20000 -1.810
55.22000 -2.547
55.24000 3.072
55.26000 2.113
55.28000 1.265
55.30000 0.918
55.32000 1.523
55.34000 7.125
55.36000 4.357
55.38000 3.464
55.40000 1.969
55.42000 2.145
55.44000 1.460
55.46000 0.612
55.48000 5.974
55.50000 3.659
55.52000 7.737
55.54000 7.232
55.56000 5.627
55.58000 0.181
55.60000 -0.622
55.62000 0.007
55.64000 4.245
55.66000 2.253
55.68000 1.335
55.70000 3.387
55.72000 6.149
55.74000 2.628
55.76000 3.851
55.78000 2.321
55.80000 0.598
55.82000 5.512
55.84000 3.560
55.86000 4.820
55.88000 -1.224
55.90000 2.714
55.92000 4.140
55.94000 0.438
55.96000 -1.594
55.98000 -2.745
56.00000 -2.588
56.02000 1.005
56.04000 2.042
56.06000 1.325
56.08000 2.609
56.10000 -0.136
56.12000 -1.442
56.14000 -1.970
56.16000 0.138
56.18000 0.000
56.20000 2.109
56.22000 1.272
56.24000 -2.117
56.26000 0.160
56.28000 -1.548
56.30000 1.149
56.32000 1.604
56.34000 0.373
56.36000 4.718
56.38000 4.294
56.40000 -0.883
56.42000 -1.354
56.44000 2.533
56.46000 1.722
56.48000 1.176
56.50000 3.557
56.52000 2.502
56.54000 3.228
56.56000 7.489
56.58000 2.201
56.60000 5.437
56.62000 1.522
56.64000 -0.777
56.66000 -1.434
56.68000 0.014
56.70000 0.433
56.72000 -0.140
56.74000 2.120
56.76000 3.250
56.78000 0.844
56.80000 1.736
56.82000 2.022
56.84000 2.415
56.86000 2.033
56.88000 5.638
56.90000 0.075
56.92000 -1.920
56.94000 0.589
56.96000 1.556
56.98000 0.065
57.00000 -1.805
57.02000 -2.729
57.04000 0.079
57.06000 6.692
57.08000 0.649
57.10000 -1.078
57.12000 2.801
57.14000 -0.193
57.16000 -0.783
57.18000 1.656
57.20000 1.406
57.22000 -0.254
57.24000 1.721
57.26000 -1.444
57.28000 -0.827
57.30000 2.822
57.32000 -0.656
57.34000 0.100
57.36000 0.244
57.38000 3.279
57.40000 0.324
57.42000 1.385
57.44000 -1.911
57.46000 2.892
57.48000 -0.744
57.50000 -2.703
57.52000 -0.576
57.54000 -0.792
57.56000 -1.901
57.58000 2.028
57.60000 0.317
57.62000 -1.776
57.64000 -0.028
57.66000 1.566
57.68000 4.450
57.70000 4.290
57.72000 3.409
57.74000 2.112
57.76000 0.942
57.78000 -0.429
57.80000 0.425
57.82000 0.198
57.84000 2.199
57.86000 0.788
57.88000 5.898
57.90000 5.306
57.92000 2.802
57.94000 0.758
57.96000 1.279
57.98000 2.656
58.00000 4.476
58.02000 7.750
58.04000 3.150
58.06000 -1.383
58.08000 1.746
58.10000 4.332
58.12000 -1.260
58.14000 4.679
58.16000 6.567
58.18000 3.149
58.20000 1.412
58.22000 -2.677
58.24000 1.055
58.26000 2.862
58.28000 4.018
58.30000 3.318
58.32000 2.498
58.34000 3.478
58.36000 0.644
58.38000 -0.301
58.40000 3.095
58.42000 1.709
58.44000 3.553
58.46000 2.141
58.48000 1.921
58.50000 -2.660
58.52000 2.588
58.54000 2.022
58.56000 -1.326
58.58000 2.757
58.60000 2.893
58.62000 -1.259
58.64000 2.112
58.66000 4.536
58.68000 2.481
58.70000 2.199
58.72000 2.506
58.74000 2.037
58.76000 5.092
58.78000 7.056
58.80000 7.735
58.82000 2.969
58.84000 0.658
58.86000 7.816
58.88000 2.950
58.90000 -0.067
58.92000 3.972
58.94000 -1.408
58.96000 3.722
58.98000 2.711
59.00000 1.946
59.02000 -1.270
59.04000 -2.160
59.06000 3.486
59.08000 1.340
59.10000 1.093
59.12000 -1.117
59.14000 -0.632
59.16000 0.268
59.18000 0.925
59.20000 0.291
59.22000 7.896
59.24000 9.888
59.26000 3.260
59.28000 5.692
59.30000 5.765
59.32000 6.894
59.34000 5.945
59.36000 1.722
59.38000 3.469
59.40000 2.836
59.42000 1.654
59.44000 4.976
59.46000 4.638
59.48000 2.722
59.50000 2.085
59.52000 4.334
59.54000 5.377
59.56000 2.288
59.58000 2.606
59.60000 2.830
59.62000 5.343
59.64000 4.866
59.66000 1.010
59.68000 1.096
59.70000 4.887
59.72000 6.810
59.74000 3.369
59.76000 4.439
59.78000 6.119
59.80000 7.783
59.82000 4.926
59.84000 0.086
59.86000 -1.009
59.88000 3.264
59.90000 4.682
59.92000 2.818
59.94000 2.859
59.96000 0.931
59.98000 -1.206
60.00000 1.710
60.02000 6.900
60.04000 6.738
60.06000 8.121
60.08000 2.661
60.10000 -0.061
60.12000 -2.569
60.14000 3.395
60.16000 6.132
60.18000 6.304
60.20000 7.862
60.22000 5.323
60.24000 5.133
60.26000 1.679
60.28000 -2.477
60.30000 0.378
60.32000 3.459
60.34000 6.064
60.36000 1.732
60.38000 3.026
60.40000 5.958
60.42000 8.762
60.44000 5.377
60.46000 6.191
60.48000 7.236
60.50000 4.899
60.52000 2.982
60.54000 3.571
60.56000 4.525
60.58000 5.562
60.60000 3.908
60.62000 8.267
60.64000 8.833
60.66000 5.581
60.68000 4.898
60.70000 8.157
60.72000 6.441
60.74000 6.685
60.76000 8.565
60.78000 5.345
60.80000 3.645
60.82000 5.776
60.84000 7.152
60.86000 6.199
60.88000 5.417
60.90000 6.562
60.92000 3.943
60.94000 3.165
60.96000 5.504
60.98000 4.074
61.00000 0.475
61.02000 4.131
61.04000 2.684
61.06000 1.792
61.08000 2.068
61.10000 1.675
61.12000 5.999
61.14000 5.104
61.16000 3.736
61.18000 2.667
61.20000 1.441
61.22000 5.147
61.24000 3.941
61.26000 -0.069
61.28000 0.600
61.30000 1.548
61.32000 2.249
61.34000 -1.364
61.36000 -1.239
61.38000 1.970
61.40000 3.038
61.42000 5.219
61.44000 -0.094
61.46000 -2.546
61.48000 0.571
61.50000 4.422
61.52000 2.691
61.54000 3.895
61.56000 0.387
61.58000 -0.890
61.60000 -0.597
61.62000 -0.146
61.64000 2.081
61.66000 6.301
61.68000 5.404
61.70000 1.687
61.72000 3.516
61.74000 1.305
61.76000 4.580
61.78000 5.354
61.80000 1.558
61.82000 2.434
61.84000 5.238
61.86000 4.158
61.88000 4.301
61.90000 3.221
61.92000 5.447
61.94000 4.230
61.96000 -1.777
61.98000 0.398
62.00000 2.600
62.02000 1.458
62.04000 4.739
62.06000 3.073
62.08000 -1.701
62.10000 -2.553
62.12000 3.288
62.14000 3.006
62.16000 1.803
62.18000 5.187
62.20000 8.151
62.22000 2.579
62.24000 2.668
62.26000 1.693
62.28000 3.487
62.30000 2.710
62.32000 -1.878
62.34000 -0.437
62.36000 2.302
62.38000 3.629
62.40000 1.608
62.42000 0.400
62.44000 -2.107
62.46000 1.633
62.48000 0.832
62.50000 4.717
62.52000 1.530
62.54000 -1.257
62.56000 1.628
62.58000 1.251
62.60000 1.614
62.62000 0.300
62.64000 2.375
62.66000 5.962
62.68000 5.378
62.70000 8.130
62.72000 6.631
62.74000 0.267
62.76000 0.546
62.78000 2.655
62.80000 1.763
62.82000 3.808
62.84000 2.803
62.86000 3.226
62.88000 1.659
62.90000 3.001
62.92000 2.959
62.94000 1.384
62.96000 2.358
62.98000 1.863
63.00000 -0.335
63.02000 -0.820
63.04000 -1.041
63.06000 3.025
63.08000 4.238
63.10000 -0.865
63.12000 -0.380
63.14000 3.026
63.16000 4.583
63.18000 1.722
63.20000 3.321
63.22000 -1.321
63.24000 -0.979
63.26000 0.106
63.28000 -2.533
63.30000 -2.242
63.32000 3.443
63.34000 0.368
63.36000 -0.486
63.38000 0.269
63.40000 3.547
63.42000 1.519
63.44000 1.635
63.46000 3.377
63.48000 3.293
63.50000 -2.525
63.52000 -1.184
63.54000 -1.690
63.56000 -0.451
63.58000 4.590
63.60000 4.520
63.62000 0.547
63.64000 6.203
63.66000 4.222
63.68000 3.612
63.70000 3.116
63.72000 1.042
63.74000 1.907
63.76000 2.382
63.78000 1.772
63.80000 5.279
63.82000 5.194
63.84000 0.280
63.86000 -0.466
63.88000 0.405
63.90000 0.575
63.92000 -1.397
63.94000 -1.551
63.96000 0.353
63.98000 5.061
64.00000 3.863
64.02000 3.507
64.04000 3.286
64.06000 4.298
64.08000 4.084
64.10000 3.798
64.12000 6.549
64.14000 5.105
64.16000 1.527
64.18000 0.424
64.20000 1.889
64.22000 2.722
64.24000 0.742
64.26000 3.744
64.28000 4.008
64.30000 1.565
64.32000 1.319
64.34000 2.092
64.36000 1.054
64.38000 2.354
64.40000 2.294
64.42000 3.630
64.44000 1.287
64.46000 4.365
64.48000 5.603
64.50000 3.929
64.52000 6.065
64.54000 3.584
64.56000 -2.000
64.58000 -1.400
64.60000 3.650
64.62000 3.879
64.64000 2.815
64.66000 3.209
64.68000 0.452
64.70000 0.273
64.72000 -0.082
64.74000 1.337
64.76000 3.220
64.78000 2.157
64.80000 2.800
64.82000 0.733
64.84000 2.636
64.86000 5.182
64.88000 7.462
64.90000 2.689
64.92000 3.639
64.94000 2.272
64.96000 2.380
64.98000 5.568
65.00000 4.708
65.02000 -0.208
65.04000 1.500
65.06000 2.119
65.08000 2.676
65.10000 0.589
65.12000 -2.527
65.14000 0.954
65.16000 1.296
65.18000 3.549
65.20000 0.982
65.22000 1.276
65.24000 2.970
65.26000 3.146
65.28000 5.165
65.30000 2.278
65.32000 3.010
65.34000 2.758
65.36000 0.955
65.38000 3.710
65.40000 3.428
65.42000 1.099
65.44000 3.047
65.46000 4.450
65.48000 2.057
65.50000 1.610
65.52000 1.890
65.54000 4.465
65.56000 6.243
65.58000 3.798
65.60000 2.041
65.62000 0.309
65.64000 -0.114
65.66000 -0.304
65.68000 -0.817
65.70000 1.102
65.72000 3.079
65.74000 4.437
65.76000 3.590
65.78000 2.194
65.80000 0.522
65.82000 2.526
65.84000 0.342
65.86000 1.030
65.88000 3.193
65.90000 3.640
65.92000 2.072
65.94000 -0.261
65.96000 5.329
65.98000 3.902
66.00000 1.603
66.02000 -0.412
66.04000 2.585
66.06000 2.456
66.08000 0.349
66.10000 2.159
66.12000 2.924
66.14000 1.693
66.16000 0.223
66.18000 1.694
66.20000 1.053
66.22000 0.365
66.24000 0.545
66.26000 -1.427
66.28000 -1.034
66.30000 -2.583
66.32000 -1.939
66.34000 2.371
66.36000 0.001
66.38000 1.636
66.40000 0.389
66.42000 -0.613
66.44000 -0.405
66.46000 2.821
66.48000 2.842
66.50000 3.346
66.52000 3.174
66.54000 2.076
66.56000 0.884
66.58000 5.419
66.60000 4.503
66.62000 4.904
66.64000 4.454
66.66000 3.332
66.68000 3.182
66.70000 0.678
66.72000 3.271
66.74000 3.528
66.76000 -2.605
66.78000 1.519
66.80000 3.211
66.82000 -1.609
66.84000 0.155
66.86000 4.803
66.88000 3.753
66.90000 0.713
66.92000 3.278
66.94000 3.152
66.96000 2.207
66.98000 -0.560
67.00000 3.843
67.02000 4.526
67.04000 0.920
67.06000 2.019
67.08000 0.313
67.10000 3.147
67.12000 2.344
67.14000 -0.762
67.16000 4.823
67.18000 9.894
67.20000 1.973
67.22000 1.230
67.24000 1.738
67.26000 1.342
67.28000 4.987
67.30000 6.947
67.32000 2.443
67.34000 4.554
67.36000 7.786
67.38000 8.317
67.40000 9.585
67.42000 1.572
67.44000 -1.225
67.46000 0.361
67.48000 5.866
67.50000 5.798
67.52000 5.510
67.54000 5.044
67.56000 6.032
67.58000 9.555
67.60000 6.733
67.62000 4.801
67.64000 4.329
67.66000 3.778
67.68000 4.935
67.70000 6.356
67.72000 7.942
67.74000 7.633
67.76000 6.000
67.78000 6.279
67.80000 8.229
67.82000 9.733
67.84000 9.215
67.86000 8.155
67.88000 8.783
67.90000 10.705
67.92000 12.600
67.94000 12.531
67.96000 12.316
67.98000 15.161
68.00000 16.766
68.02000 14.063
68.04000 12.422
68.06000 12.480
68.08000 14.163
68.10000 15.372
68.12000 15.598
68.14000 13.487
68.16000 15.996
68.18000 15.133
68.20000 16.364
68.22000 18.486
68.24000 18.211
68.26000 14.303
68.28000 17.556
68.30000 21.350
68.32000 21.405
68.34000 15.854
68.36000 16.437
68.38000 13.039
68.40000 13.055
68.42000 20.426
68.44000 17.034
68.46000 14.588
68.48000 21.112
68.50000 20.781
68.52000 18.212
68.54000 19.552
68.56000 17.150
68.58000 21.273
68.60000 21.718
68.62000 20.035
68.64000 21.930
68.66000 20.232
68.68000 18.007
68.70000 19.934
68.72000 22.415
68.74000 22.438
68.76000 20.246
68.78000 22.350
68.80000 23.805
68.82000 19.787
68.84000 20.332
68.86000 24.408
68.88000 25.077
68.90000 20.399
68.92000 24.219
68.94000 25.759
68.96000 21.071
68.98000 20.797
69.00000 21.890
69.02000 23.319
69.04000 21.254
69.06000 19.893
69.08000 17.133
69.10000 16.249
69.12000 17.595
69.14000 16.553
69.16000 14.113
69.18000 16.861
69.20000 15.954
69.22000 15.298
69.24000 15.751
69.26000 14.897
69.28000 14.003
69.30000 15.302
69.32000 11.443
69.34000 12.292
69.36000 15.736
69.38000 13.947
69.40000 10.122
69.42000 8.036
69.44000 9.935
69.46000 6.740
69.48000 6.223
69.50000 6.478
69.52000 8.896
69.54000 9.748
69.56000 10.275
69.58000 5.290
69.60000 5.846
69.62000 4.797
69.64000 2.389
69.66000 3.255
69.68000 3.897
69.70000 8.003
69.72000 9.742
69.74000 8.023
69.76000 8.581
69.78000 5.523
69.80000 4.617
69.82000 7.210
69.84000 9.100
69.86000 7.295
69.88000 2.734
69.90000 3.133
69.92000 4.073
69.94000 1.542
69.96000 3.717
69.98000 3.640
70.00000 4.903
70.02000 4.970
70.04000 6.164
70.06000 7.583
70.08000 8.434
70.10000 7.137
70.12000 4.742
70.14000 1.830
70.16000 1.963
70.18000 1.289
70.20000 2.522
70.22000 2.176
70.24000 -0.776
70.26000 0.264
70.28000 2.363
70.30000 2.773
70.32000 3.078
70.34000 5.253
70.36000 2.392
70.38000 2.513
70.40000 4.068
70.42000 6.288
70.44000 4.720
70.46000 2.918
70.48000 2.764
70.50000 1.861
70.52000 -2.493
70.54000 -2.491
70.56000 0.321
70.58000 -0.506
70.60000 2.928
70.62000 5.105
70.64000 3.586
70.66000 3.762
70.68000 3.648
70.70000 5.606
70.72000 5.083
70.74000 0.911
70.76000 1.536
70.78000 1.078
70.80000 -1.283
70.82000 -2.473
70.84000 1.607
70.86000 -0.967
70.88000 4.027
70.90000 3.401
70.92000 5.384
70.94000 7.721
70.96000 4.585
70.98000 3.116
71.00000 0.507
71.02000 2.774
71.04000 2.381
71.06000 1.965
71.08000 3.311
71.10000 3.659
71.12000 2.673
71.14000 3.696
71.16000 3.001
71.18000 5.162
71.20000 3.971
71.22000 3.653
71.24000 1.168
71.26000 3.337
71.28000 5.301
71.30000 -1.486
71.32000 -1.433
71.34000 -0.891
71.36000 -0.168
71.38000 0.951
71.40000 4.502
71.42000 4.771
71.44000 5.055
71.46000 5.946
71.48000 5.508
71.50000 10.423
71.52000 6.872
71.54000 4.230
71.56000 2.221
71.58000 5.076
71.60000 0.626
71.62000 2.972
71.64000 5.216
71.66000 1.424
71.68000 -0.914
71.70000 1.145
71.72000 1.451
71.74000 -2.427
71.76000 0.045
71.78000 1.341
71.80000 1.213
71.82000 -1.027
71.84000 3.570
71.86000 1.693
71.88000 0.747
71.90000 4.579
71.92000 2.487
71.94000 3.851
71.96000 4.028
71.98000 3.130
72.00000 0.553
72.02000 0.666
72.04000 -0.396
72.06000 2.290
72.08000 4.959
72.10000 2.670
72.12000 4.305
72.14000 2.489
72.16000 1.376
72.18000 2.498
72.20000 2.027
72.22000 2.249
72.24000 -0.161
72.26000 -0.755
72.28000 3.046
72.30000 0.564
72.32000 0.576
72.34000 -0.777
72.36000 1.703
72.38000 0.139
72.40000 2.541
72.42000 3.298
72.44000 1.111
72.46000 6.628
72.48000 5.934
72.50000 1.271
72.52000 -0.951
72.54000 -1.477
72.56000 -2.260
72.58000 0.726
72.60000 7.136
72.62000 -1.753
72.64000 0.425
72.66000 -2.232
72.68000 1.673
72.70000 1.831
72.72000 1.134
72.74000 2.542
72.76000 2.015
72.78000 -0.570
72.80000 2.052
72.82000 -0.290
72.84000 3.675
72.86000 0.925
72.88000 3.552
72.90000 4.465
72.92000 4.352
72.94000 -0.066
72.96000 -2.363
72.98000 1.982
73.00000 4.252
73.02000 0.236
73.04000 5.132
73.06000 5.377
73.08000 7.374
73.10000 8.489
73.12000 7.225
73.14000 3.529
73.16000 3.165
73.18000 5.757
73.20000 9.969
73.22000 8.352
73.24000 2.647
73.26000 -0.523
73.28000 0.946
73.30000 1.174
73.32000 4.406
73.34000 0.383
73.36000 2.436
73.38000 4.519
73.40000 3.717
73.42000 5.071
73.44000 7.988
73.46000 5.221
73.48000 2.868
73.50000 1.667
73.52000 2.278
73.54000 2.768
73.56000 1.908
73.58000 2.723
73.60000 0.591
73.62000 2.555
73.64000 2.525
73.66000 5.652
73.68000 2.401
73.70000 4.790
73.72000 5.494
73.74000 9.637
73.76000 5.759
73.78000 4.366
73.80000 1.019
73.82000 4.719
73.84000 4.671
73.86000 3.296
73.88000 6.566
73.90000 9.207
73.92000 4.274
73.94000 4.558
73.96000 5.984
73.98000 4.566
74.00000 0.997
74.02000 1.316
74.04000 4.743
74.06000 3.056
74.08000 2.918
74.10000 6.480
74.12000 6.746
74.14000 7.412
74.16000 7.371
74.18000 6.715
74.20000 3.528
74.22000 4.924
74.24000 8.829
74.26000 4.946
74.28000 5.034
74.30000 2.536
74.32000 3.837
74.34000 8.677
74.36000 5.984
74.38000 6.128
74.40000 4.219
74.42000 3.075
74.44000 8.112
74.46000 2.895
74.48000 4.327
74.50000 4.195
74.52000 -2.296
74.54000 1.696
74.56000 5.481
74.58000 5.637
74.60000 1.731
74.62000 2.941
74.64000 3.336
74.66000 2.586
74.68000 7.281
74.70000 6.248
74.72000 3.414
74.74000 7.068
74.76000 3.455
74.78000 4.321
74.80000 0.618
74.82000 0.391
74.84000 5.796
74.86000 3.203
74.88000 1.895
74.90000 2.632
74.92000 5.911
74.94000 8.238
74.96000 5.785
74.98000 10.400
75.00000 8.856
75.02000 6.436
75.04000 3.882
75.06000 2.521
75.08000 1.527
75.10000 -1.164
75.12000 4.422
75.14000 1.571
75.16000 1.503
75.18000 2.759
75.20000 4.983
75.22000 5.157
75.24000 4.515
75.26000 2.023
75.28000 -2.348
75.30000 2.683
75.32000 6.100
75.34000 9.512
75.36000 5.584
75.38000 -0.847
75.40000 0.141
75.42000 3.619
75.44000 7.136
75.46000 5.389
75.48000 4.206
75.50000 -0.383
75.52000 2.720
75.54000 1.329
75.56000 2.239
75.58000 1.689
75.60000 5.598
75.62000 8.541
75.64000 3.987
75.66000 -0.468
75.68000 3.702
75.70000 3.710
75.72000 1.422
75.74000 2.591
75.76000 -0.014
75.78000 0.008
75.80000 2.632
75.82000 1.645
75.84000 0.315
75.86000 -0.064
75.88000 -0.953
75.90000 6.082
75.92000 1.982
75.94000 0.248
75.96000 3.107
75.98000 3.117
76.00000 -0.071
76.02000 -0.235
76.04000 -1.388
76.06000 -0.618
76.08000 0.880
76.10000 1.715
76.12000 -1.691
76.14000 -0.291
76.16000 -0.095
76.18000 -1.303
76.20000 -0.311
76.22000 6.355
76.24000 4.742
76.26000 0.285
76.28000 -2.387
76.30000 3.084
76.32000 5.464
76.34000 5.177
76.36000 2.417
76.38000 3.338
76.40000 3.043
76.42000 2.207
76.44000 1.124
76.46000 3.334
76.48000 5.199
76.50000 1.448
76.52000 0.208
76.54000 -2.171
76.56000 -1.392
76.58000 2.359
76.60000 -0.120
76.62000 -0.213
76.64000 -2.390
76.66000 1.849
76.68000 5.618
76.70000 4.889
76.72000 3.250
76.74000 -1.534
76.76000 -0.224
76.78000 3.943
76.80000 2.773
76.82000 2.851
76.84000 3.570
76.86000 3.671
76.88000 0.857
76.90000 -2.395
76.92000 4.882
76.94000 5.659
76.96000 0.688
76.98000 2.349
77.00000 4.398
77.02000 2.401
77.04000 2.257
77.06000 5.327
77.08000 7.158
77.10000 4.301
77.12000 1.798
77.14000 0.413
77.16000 5.112
77.18000 3.952
77.20000 6.527
77.22000 2.565
77.24000 0.906
77.26000 4.568
77.28000 2.236
77.30000 0.812
77.32000 0.812
77.34000 5.349
77.36000 6.335
77.38000 2.747
77.40000 -0.702
77.42000 0.257
77.44000 0.597
77.46000 -1.510
77.48000 2.894
77.50000 3.096
77.52000 1.601
77.54000 2.171
77.56000 4.482
77.58000 5.989
77.60000 0.852
77.62000 1.267
77.64000 2.687
77.66000 2.174
77.68000 1.213
77.70000 2.402
77.72000 -0.171
77.74000 1.353
77.76000 0.949
77.78000 -1.257
77.80000 -0.248
77.82000 4.839
77.84000 5.935
77.86000 1.554
77.88000 1.956
77.90000 5.412
77.92000 2.319
77.94000 -0.039
77.96000 3.192
77.98000 4.410
78.00000 4.108
78.02000 0.211
78.04000 4.826
78.06000 6.456
78.08000 4.061
78.10000 2.059
78.12000 0.915
78.14000 3.603
78.16000 4.050
78.18000 7.163
78.20000 5.864
78.22000 7.774
78.24000 2.815
78.26000 3.005
78.28000 0.415
78.30000 0.787
78.32000 0.546
78.34000 4.721
78.36000 2.070
78.38000 -2.401
78.40000 -0.520
78.42000 -1.579
78.44000 -1.795
78.46000 -0.553
78.48000 3.367
78.50000 7.454
78.52000 7.554
78.54000 3.387
78.56000 1.658
78.58000 4.235
78.60000 5.182
78.62000 3.857
78.64000 4.818
78.66000 5.185
78.68000 5.937
78.70000 2.485
78.72000 5.598
78.74000 6.997
78.76000 4.589
78.78000 6.290
78.80000 6.556
78.82000 2.548
78.84000 4.383
78.86000 3.479
78.88000 4.191
78.90000 -0.860
78.92000 0.485
78.94000 0.525
78.96000 6.265
78.98000 8.128
79.00000 1.757
79.02000 4.924
79.04000 2.041
79.06000 2.624
79.08000 2.492
79.10000 4.371
79.12000 10.734
79.14000 7.678
79.16000 4.296
79.18000 9.361
79.20000 5.289
79.22000 6.127
79.24000 2.306
79.26000 3.637
79.28000 0.703
79.30000 0.388
79.32000 1.013
79.34000 -0.336
79.36000 1.452
79.38000 0.559
79.40000 -0.108
79.42000 3.864
79.44000 4.689
79.46000 1.757
79.48000 -0.091
79.50000 1.189
79.52000 3.324
79.54000 0.338
79.56000 1.080
79.58000 0.652
79.60000 -0.310
79.62000 3.222
79.64000 2.799
79.66000 2.125
79.68000 2.776
79.70000 0.682
79.72000 -0.470
79.74000 2.798
79.76000 4.474
79.78000 4.707
79.80000 -0.467
79.82000 -0.100
79.84000 5.533
79.86000 9.448
79.88000 8.323
79.90000 3.368
79.92000 -2.403
79.94000 -2.444
79.96000 0.564
79.98000 4.158
80.00000 5.711
80.02000 4.390
80.04000 4.201
80.06000 3.693
80.08000 3.777
80.10000 6.817
80.12000 3.132
80.14000 1.217
80.16000 -2.440
80.18000 -0.943
80.20000 7.002
80.22000 9.485
80.24000 7.047
80.26000 5.539
80.28000 7.160
80.30000 3.365
80.32000 1.830
80.34000 0.985
80.36000 0.858
80.38000 2.828
80.40000 6.390
80.42000 6.448
80.44000 5.111
80.46000 3.222
80.48000 2.374
80.50000 2.119
80.52000 0.217
80.54000 3.099
80.56000 2.059
80.58000 3.104
80.60000 3.476
80.62000 5.092
80.64000 3.611
80.66000 4.212
80.68000 8.476
80.70000 7.619
80.72000 0.217
80.74000 5.675
80.76000 5.553
80.78000 7.137
80.80000 9.207
80.82000 2.303
80.84000 1.421
80.86000 -0.569
80.88000 -2.525
80.90000 -0.695
80.92000 4.427
80.94000 9.188
80.96000 4.320
80.98000 3.362
81.00000 3.382
81.02000 5.246
81.04000 2.259
81.06000 3.222
81.08000 6.243
81.10000 7.647
81.12000 5.748
81.14000 7.130
81.16000 5.184
81.18000 1.833
81.20000 2.840
81.22000 4.842
81.24000 6.067
81.26000 5.889
81.28000 7.213
81.30000 5.088
81.32000 3.744
81.34000 6.052
81.36000 4.880
81.38000 7.053
81.40000 8.861
81.42000 10.148
81.44000 7.425
81.46000 8.054
81.48000 4.617
81.50000 6.381
81.52000 8.920
81.54000 7.072
81.56000 11.843
81.58000 6.939
81.60000 4.102
81.62000 8.272
81.64000 8.994
81.66000 12.722
81.68000 9.857
81.70000 4.569
81.72000 7.982
81.74000 3.169
81.76000 8.823
81.78000 9.915
81.80000 7.486
81.82000 8.671
81.84000 11.295
81.86000 7.690
81.88000 7.088
81.90000 11.500
81.92000 9.923
81.94000 9.088
81.96000 8.511
81.98000 14.438
82.00000 17.924
82.02000 20.029
82.04000 17.376
82.06000 11.877
82.08000 15.111
82.10000 18.168
82.12000 15.021
82.14000 13.458
82.16000 11.773
82.18000 12.994
82.20000 16.538
82.22000 16.206
82.24000 14.286
82.26000 16.303
82.28000 19.205
82.30000 16.740
82.32000 16.074
82.34000 16.955
82.36000 17.904
82.38000 21.939
82.40000 23.226
82.42000 22.773
82.44000 23.556
82.46000 25.398
82.48000 25.880
82.50000 26.320
82.52000 25.504
82.54000 22.467
82.56000 22.499
82.58000 24.074
82.60000 23.801
82.62000 23.476
82.64000 25.790
82.66000 18.612
82.68000 18.657
82.70000 26.607
82.72000 24.666
82.74000 26.446
82.76000 31.632
82.78000 25.100
82.80000 28.351
82.82000 28.975
82.84000 28.742
82.86000 28.605
82.88000 27.312
82.90000 27.145
82.92000 28.829
82.94000 26.710
82.96000 20.352
82.98000 24.033
83.00000 25.814
83.02000 30.712
83.04000 27.104
83.06000 27.841
83.08000 28.219
83.10000 21.391
83.12000 16.902
83.14000 24.253
83.16000 26.633
83.18000 23.671
83.20000 20.014
83.22000 23.145
83.24000 20.653
83.26000 22.738
83.28000 21.222
83.30000 19.996
83.32000 25.388
83.34000 23.679
83.36000 25.833
83.38000 24.972
83.40000 24.148
83.42000 19.736
83.44000 16.112
83.46000 17.615
83.48000 23.487
83.50000 22.598
83.52000 21.628
83.54000 21.867
83.56000 18.887
83.58000 19.066
83.60000 20.663
83.62000 18.684
83.64000 17.822
83.66000 17.662
83.68000 20.222
83.70000 19.522
83.72000 16.315
83.74000 13.044
83.76000 13.291
83.78000 15.957
83.80000 13.052
83.82000 17.625
83.84000 13.678
83.86000 13.535
83.88000 12.845
83.90000 9.370
83.92000 8.953
83.94000 7.384
83.96000 7.058
83.98000 9.842
84.00000 11.183
84.02000 10.796
84.04000 11.114
84.06000 12.827
84.08000 11.973
84.10000 12.856
84.12000 13.358
84.14000 7.290
84.16000 10.819
84.18000 7.424
84.20000 7.272
84.22000 10.378
84.24000 17.230
84.26000 12.767
84.28000 9.223
84.30000 6.222
84.32000 6.236
84.34000 9.381
84.36000 12.045
84.38000 12.921
84.40000 11.598
84.42000 9.897
84.44000 8.096
84.46000 8.400
84.48000 9.642
84.50000 6.403
84.52000 6.958
84.54000 6.547
84.56000 9.761
84.58000 9.838
84.60000 9.943
84.62000 7.804
84.64000 5.049
84.66000 5.706
84.68000 3.104
84.70000 1.478
84.72000 2.820
84.74000 7.970
84.76000 6.258
84.78000 5.467
84.80000 3.007
84.82000 3.201
84.84000 0.974
84.86000 -2.436
84.88000 1.642
84.90000 2.257
84.92000 3.265
84.94000 6.565
84.96000 5.336
84.98000 4.246
85.00000 1.077
85.02000 3.337
85.04000 4.791
85.06000 4.544
85.08000 4.127
85.10000 1.691
85.12000 3.528
85.14000 3.444
85.16000 5.675
85.18000 1.136
85.20000 3.850
85.22000 0.840
85.24000 -2.424
85.26000 -1.314
85.28000 4.961
85.30000 5.759
85.32000 2.799
85.34000 7.787
85.36000 4.951
85.38000 4.034
85.40000 3.654
85.42000 0.370
85.44000 4.598
85.46000 6.292
85.48000 3.651
85.50000 -1.383
85.52000 -0.165
85.54000 2.881
85.56000 2.645
85.58000 -1.796
85.60000 0.464
85.62000 1.324
85.64000 0.513
85.66000 4.195
85.68000 5.074
85.70000 2.930
85.72000 3.047
85.74000 4.952
85.76000 5.677
85.78000 4.793
85.80000 4.185
85.82000 4.285
85.84000 5.095
85.86000 3.619
85.88000 4.549
85.90000 2.943
85.92000 -0.895
85.94000 -0.997
85.96000 4.617
85.98000 6.456
86.00000 1.484
86.02000 5.043
86.04000 3.251
86.06000 4.668
86.08000 4.847
86.10000 1.532
86.12000 0.640
86.14000 -1.647
86.16000 -0.144
86.18000 1.064
86.20000 5.946
86.22000 4.545
86.24000 0.487
86.26000 -0.503
86.28000 0.056
86.30000 -2.494
86.32000 1.382
86.34000 5.621
86.36000 1.833
86.38000 5.661
86.40000 8.358
86.42000 10.522
86.44000 9.031
86.46000 8.832
86.48000 10.611
86.50000 6.428
86.52000 4.703
86.54000 7.607
86.56000 5.535
86.58000 4.182
86.60000 6.767
86.62000 2.346
86.64000 4.127
86.66000 8.981
86.68000 7.731
86.70000 8.354
86.72000 11.254
86.74000 11.749
86.76000 6.171
86.78000 11.968
86.80000 15.194
86.82000 18.074
86.84000 8.362
86.86000 7.689
86.88000 8.708
86.90000 12.612
86.92000 12.145
86.94000 12.271
86.96000 15.232
86.98000 12.087
87.00000 10.759
87.02000 13.966
87.04000 15.214
87.06000 12.525
87.08000 16.174
87.10000 16.696
87.12000 16.199
87.14000 21.007
87.16000 19.158
87.18000 20.967
87.20000 25.040
87.22000 21.666
87.24000 19.821
87.26000 22.324
87.28000 22.937
87.30000 19.099
87.32000 16.842
87.34000 20.098
87.36000 22.608
87.38000 20.014
87.40000 18.920
87.42000 26.509
87.44000 26.006
87.46000 25.574
87.48000 15.621
87.50000 10.861
87.52000 15.228
87.54000 18.396
87.56000 22.653
87.58000 27.294
87.60000 21.625
87.62000 20.723
87.64000 17.085
87.66000 11.537
87.68000 12.480
87.70000 15.471
87.72000 17.373
87.74000 13.845
87.76000 12.177
87.78000 17.735
87.80000 15.923
87.82000 15.244
87.84000 15.050
87.86000 16.472
87.88000 15.066
87.90000 10.795
87.92000 10.186
87.94000 13.555
87.96000 9.807
87.98000 13.591
88.00000 11.885
88.02000 11.105
88.04000 15.580
88.06000 15.884
88.08000 14.096
88.10000 12.662
88.12000 12.276
88.14000 9.986
88.16000 8.692
88.18000 4.223
88.20000 6.580
88.22000 5.521
88.24000 9.175
88.26000 8.448
88.28000 4.648
88.30000 7.556
88.32000 10.347
88.34000 11.117
88.36000 6.610
88.38000 4.570
88.40000 3.658
88.42000 6.480
88.44000 6.744
88.46000 6.865
88.48000 4.262
88.50000 5.464
88.52000 2.154
88.54000 -2.408
88.56000 -0.437
88.58000 0.310
88.60000 1.520
88.62000 2.461
88.64000 -0.383
88.66000 -0.644
88.68000 0.297
88.70000 9.288
88.72000 10.540
88.74000 6.442
88.76000 2.337
88.78000 5.090
88.80000 -0.552
88.82000 0.707
88.84000 2.688
88.86000 2.635
88.88000 5.988
88.90000 5.783
88.92000 3.745
88.94000 4.671
88.96000 8.196
88.98000 2.487
89.00000 4.164
89.02000 1.946
89.04000 -0.430
89.06000 1.387
89.08000 3.361
89.10000 5.243
89.12000 5.256
89.14000 4.734
89.16000 4.995
89.18000 7.204
89.20000 2.110
89.22000 1.930
89.24000 0.751
89.26000 3.679
89.28000 -2.311
89.30000 -0.975
89.32000 2.724
89.34000 4.047
89.36000 7.960
89.38000 8.661
89.40000 3.598
89.42000 3.934
89.44000 4.040
89.46000 -0.704
89.48000 -0.922
89.50000 2.209
89.52000 6.379
89.54000 1.543
89.56000 2.954
89.58000 -1.422
89.60000 2.471
89.62000 9.048
89.64000 5.467
89.66000 4.845
89.68000 5.505
89.70000 7.344
89.72000 3.673
89.74000 1.068
89.76000 3.739
89.78000 6.316
89.80000 5.538
89.82000 3.461
89.84000 4.292
89.86000 0.519
89.88000 0.836
89.90000 1.988
89.92000 2.880
89.94000 2.609
89.96000 3.504
89.98000 5.584
90.00000 6.763
90.02000 3.417
90.04000 -2.247
90.06000 -2.059
90.08000 1.943
90.10000 5.300
90.12000 5.227
90.14000 1.717
90.16000 0.112
90.18000 2.239
90.20000 4.609
90.22000 9.870
90.24000 9.979
90.26000 6.618
90.28000 2.210
90.30000 0.335
90.32000 0.153
90.34000 3.232
90.36000 2.873
90.38000 7.266
90.40000 2.375
90.42000 4.345
90.44000 6.637
90.46000 1.130
90.48000 -0.690
90.50000 0.446
90.52000 1.374
90.54000 0.728
90.56000 3.072
90.58000 4.000
90.60000 4.755
90.62000 7.099
90.64000 2.671
90.66000 6.804
90.68000 2.322
90.70000 5.007
90.72000 4.616
90.74000 1.437
90.76000 -2.232
90.78000 -1.173
90.80000 4.013
90.82000 4.001
90.84000 1.802
90.86000 3.478
90.88000 3.865
90.90000 1.822
90.92000 0.599
90.94000 4.639
90.96000 5.912
90.98000 1.846
91.00000 7.002
91.02000 3.508
91.04000 9.843
91.06000 10.225
91.08000 9.361
91.10000 5.483
91.12000 4.265
91.14000 1.953
91.16000 3.862
91.18000 8.176
91.20000 5.364
91.22000 2.328
91.24000 2.731
91.26000 3.084
91.28000 4.414
91.30000 2.727
91.32000 2.326
91.34000 -0.003
91.36000 0.526
91.38000 3.485
91.40000 12.193
91.42000 6.572
91.44000 0.776
91.46000 0.372
91.48000 3.766
91.50000 2.691
91.52000 8.950
91.54000 6.650
91.56000 4.168
91.58000 0.894
91.60000 5.203
91.62000 4.336
91.64000 -2.235
91.66000 2.840
91.68000 7.696
91.70000 5.790
91.72000 6.961
91.74000 3.569
91.76000 6.389
91.78000 4.069
91.80000 2.032
91.82000 -2.236
91.84000 1.055
91.86000 2.175
91.88000 3.546
91.90000 0.426
91.92000 -0.159
91.94000 -0.562
91.96000 1.561
91.98000 2.829
92.00000 7.225
92.02000 6.190
92.04000 4.086
92.06000 5.812
92.08000 3.102
92.10000 2.441
92.12000 5.714
92.14000 6.626
92.16000 5.768
92.18000 7.377
92.20000 4.585
92.22000 4.240
92.24000 7.807
92.26000 5.024
92.28000 -0.001
92.30000 6.620
92.32000 7.167
92.34000 6.775
92.36000 8.845
92.38000 2.768
92.40000 8.022
92.42000 6.071
92.44000 3.077
92.46000 1.558
92.48000 0.112
92.50000 1.570
92.52000 4.120
92.54000 4.847
92.56000 5.980
92.58000 -2.218
92.60000 -0.100
92.62000 2.858
92.64000 2.062
92.66000 3.747
92.68000 6.044
92.70000 9.673
92.72000 2.950
92.74000 -0.431
92.76000 -2.217
92.78000 1.917
92.80000 7.635
92.82000 11.138
92.84000 6.370
92.86000 4.840
92.88000 10.402
92.90000 9.912
92.92000 6.410
92.94000 2.335
92.96000 0.431
92.98000 -0.864
93.00000 0.904
93.02000 2.289
93.04000 5.022
93.06000 6.966
93.08000 4.378
93.10000 -2.238
93.12000 3.273
93.14000 7.832
93.16000 8.337
93.18000 7.141
93.20000 0.871
93.22000 1.671
93.24000 2.973
93.26000 4.714
93.28000 7.509
93.30000 6.407
93.32000 4.228
93.34000 7.540
93.36000 3.277
93.38000 1.425
93.40000 5.299
93.42000 7.306
93.44000 5.169
93.46000 0.605
93.48000 4.259
93.50000 0.604
93.52000 -1.519
93.54000 2.198
93.56000 -0.238
93.58000 3.926
93.60000 2.951
93.62000 1.381
93.64000 5.684
93.66000 5.176
93.68000 3.376
93.70000 2.290
93.72000 0.724
93.74000 -0.679
93.76000 6.491
93.78000 5.503
93.80000 2.862
93.82000 1.076
93.84000 -2.252
93.86000 2.322
93.88000 3.828
93.90000 8.206
93.92000 12.459
93.94000 3.949
93.96000 2.960
93.98000 1.249
94.00000 4.431
94.02000 4.694
94.04000 1.455
94.06000 4.472
94.08000 11.235
94.10000 8.703
94.12000 0.978
94.14000 4.999
94.16000 8.343
94.18000 6.353
94.20000 6.623
94.22000 11.321
94.24000 5.773
94.26000 -1.613
94.28000 -1.788
94.30000 4.579
94.32000 3.820
94.34000 2.825
94.36000 1.989
94.38000 2.737
94.40000 1.005
94.42000 1.998
94.44000 2.897
94.46000 2.740
94.48000 7.419
94.50000 7.765
94.52000 8.960
94.54000 2.405
94.56000 0.797
94.58000 1.006
94.60000 4.920
94.62000 9.162
94.64000 2.138
94.66000 -2.219
94.68000 3.355
94.70000 6.624
94.72000 0.853
94.74000 0.583
94.76000 6.781
94.78000 7.202
94.80000 5.601
94.82000 7.934
94.84000 3.380
94.86000 4.696
94.88000 3.644
94.90000 5.073
94.92000 5.359
94.94000 8.383
94.96000 9.336
94.98000 4.965
95.00000 6.378
95.02000 3.607
95.04000 3.211
95.06000 2.043
95.08000 5.567
95.10000 3.522
95.12000 6.466
95.14000 6.593
95.16000 6.324
95.18000 7.192
95.20000 7.663
95.22000 4.755
95.24000 6.945
95.26000 0.929
95.28000 6.541
95.30000 7.026
95.32000 2.156
95.34000 -2.231
95.36000 1.937
95.38000 8.523
95.40000 5.826
95.42000 9.689
95.44000 12.715
95.46000 6.914
95.48000 5.881
95.50000 3.665
95.52000 5.387
95.54000 3.526
95.56000 0.991
95.58000 3.709
95.60000 5.627
95.62000 7.298
95.64000 6.292
95.66000 9.313
95.68000 6.528
95.70000 8.262
95.72000 5.235
95.74000 4.677
95.76000 5.305
95.78000 8.223
95.80000 9.094
95.82000 6.668
95.84000 9.449
95.86000 6.832
95.88000 8.837
95.90000 5.191
95.92000 5.467
95.94000 1.663
95.96000 1.977
95.98000 5.623
96.00000 5.743
96.02000 6.162
96.04000 5.436
96.06000 6.470
96.08000 3.044
96.10000 6.024
96.12000 7.104
96.14000 9.648
96.16000 8.193
96.18000 4.623
96.20000 6.908
96.22000 1.853
96.24000 8.038
96.26000 6.347
96.28000 1.844
96.30000 -2.128
96.32000 6.631
96.34000 11.182
96.36000 8.270
96.38000 7.059
96.40000 5.863
96.42000 7.841
96.44000 8.396
96.46000 4.735
96.48000 5.289
96.50000 7.992
96.52000 7.192
96.54000 5.160
96.56000 3.497
96.58000 5.280
96.60000 1.039
96.62000 -2.212
96.64000 2.128
96.66000 3.098
96.68000 6.471
96.70000 7.424
96.72000 4.566
96.74000 5.561
96.76000 11.442
96.78000 4.478
96.80000 6.060
96.82000 5.129
96.84000 7.577
96.86000 6.207
96.88000 6.513
96.90000 3.220
96.92000 5.420
96.94000 6.176
96.96000 3.821
96.98000 1.252
97.00000 3.804
97.02000 4.113
97.04000 1.499
97.06000 5.112
97.08000 4.894
97.10000 6.531
97.12000 -0.627
97.14000 0.326
97.16000 1.089
97.18000 7.385
97.20000 -0.023
97.22000 7.979
97.24000 6.495
97.26000 7.542
97.28000 3.987
97.30000 0.499
97.32000 4.116
97.34000 3.065
97.36000 1.290
97.38000 1.518
97.40000 2.642
97.42000 3.611
97.44000 1.557
97.46000 4.248
97.48000 2.962
97.50000 0.689
97.52000 4.731
97.54000 12.125
97.56000 7.707
97.58000 4.497
97.60000 4.006
97.62000 3.913
97.64000 0.540
97.66000 1.703
97.68000 2.356
97.70000 8.444
97.72000 9.831
97.74000 6.981
97.76000 -0.892
97.78000 -2.233
97.80000 1.789
97.82000 3.460
97.84000 4.892
97.86000 5.531
97.88000 7.050
97.90000 0.737
97.92000 -0.516
97.94000 1.763
97.96000 7.567
97.98000 2.351
98.00000 1.935
98.02000 -0.549
98.04000 6.540
98.06000 6.684
98.08000 6.022
98.10000 10.548
98.12000 4.652
98.14000 4.343
98.16000 4.393
98.18000 5.654
98.20000 -0.639
98.22000 0.309
98.24000 1.444
98.26000 2.558
98.28000 1.866
98.30000 7.692
98.32000 6.746
98.34000 3.471
98.36000 5.834
98.38000 1.622
98.40000 8.813
98.42000 -3.926
98.44000 4.113
98.46000 5.192
98.48000 1.645
98.50000 4.322
98.52000 4.234
98.54000 3.767
98.56000 1.488
98.58000 0.561
98.60000 -2.196
98.62000 2.047
98.64000 -1.301
98.66000 2.419
98.68000 0.413
98.70000 2.418
98.72000 11.784
98.74000 12.105
98.76000 11.864
98.78000 8.934
98.80000 10.708
98.82000 8.205
98.84000 -0.277
98.86000 0.948
98.88000 10.160
98.90000 10.013
98.92000 7.581
98.94000 0.374
98.96000 1.685
98.98000 2.081
99.00000 2.810
99.02000 8.257
99.04000 7.191
99.06000 4.643
99.08000 2.131
99.10000 3.703
99.12000 8.129
99.14000 -1.513
99.16000 -1.006
99.18000 -0.155
99.20000 1.836
99.22000 -0.293
99.24000 -1.870
99.26000 0.125
99.28000 11.760
99.30000 9.381
99.32000 13.825
99.34000 10.397
99.36000 8.227
99.38000 2.441
99.40000 -1.538
99.42000 1.975
99.44000 -2.161
99.46000 1.645
99.48000 9.058
99.50000 17.750
99.52000 8.132
99.54000 1.115
99.56000 3.982
99.58000 3.388
99.60000 10.021
99.62000 11.584
99.64000 1.362
99.66000 4.648
99.68000 13.481
99.70000 12.180
99.72000 4.751
99.74000 11.679
99.76000 11.629
99.78000 2.648
99.80000 12.189
99.82000 11.655
99.84000 12.081
99.86000 -5.590
99.88000 -2.258
99.90000 0.771
99.92000 -1.262
99.94000 8.031
99.96000 1.830
99.98000 0.000
