'Id: "0011387" Comment: "Integrate frame 0011387_Au-Ir-Rh_Rh-rich_XRD-Mapping-185-0000.gfrmwith cursor Wedge Cursor #5" Operator: "B?rgel" Anode: "Cu" Wavelength: "1.5406" Scantype: "2Theta (TwoTheta)" TimePerStep: "1" X: "-13.5" Y: "4.5" Z: "5.95" 
10.00000 0.000
10.02000 19.557
10.04000 18.136
10.06000 21.798
10.08000 23.504
10.10000 17.550
10.12000 36.703
10.14000 48.671
10.16000 27.411
10.18000 1.412
10.20000 -2.424
10.22000 12.179
10.24000 23.768
10.26000 21.633
10.28000 23.322
10.30000 21.284
10.32000 12.260
10.34000 -4.218
10.36000 5.188
10.38000 13.311
10.40000 20.270
10.42000 30.154
10.44000 27.299
10.46000 18.455
10.48000 19.829
10.50000 14.277
10.52000 7.052
10.54000 13.675
10.56000 24.615
10.58000 21.302
10.60000 24.720
10.62000 14.976
10.64000 2.619
10.66000 23.102
10.68000 14.186
10.70000 5.231
10.72000 12.097
10.74000 20.275
10.76000 15.110
10.78000 17.144
10.80000 12.663
10.82000 16.197
10.84000 14.652
10.86000 15.392
10.88000 15.399
10.90000 18.383
10.92000 24.034
10.94000 23.349
10.96000 22.570
10.98000 17.526
11.00000 17.893
11.02000 16.445
11.04000 7.225
11.06000 16.776
11.08000 19.445
11.10000 19.916
11.12000 19.806
11.14000 7.739
11.16000 12.414
11.18000 19.454
11.20000 20.860
11.22000 17.015
11.24000 26.848
11.26000 21.195
11.28000 26.566
11.30000 24.537
11.32000 13.885
11.34000 7.705
11.36000 15.387
11.38000 14.150
11.40000 6.856
11.42000 8.989
11.44000 15.999
11.46000 15.818
11.48000 1.902
11.50000 2.092
11.52000 17.422
11.54000 22.650
11.56000 5.990
11.58000 12.033
11.60000 23.147
11.62000 15.580
11.64000 5.516
11.66000 4.999
11.68000 -2.888
11.70000 5.427
11.72000 6.025
11.74000 -4.167
11.76000 12.310
11.78000 15.362
11.80000 7.472
11.82000 0.365
11.84000 0.603
11.86000 2.676
11.88000 6.504
11.90000 9.764
11.92000 8.814
11.94000 9.839
11.96000 15.107
11.98000 18.095
12.00000 4.556
12.02000 -1.773
12.04000 14.425
12.06000 16.159
12.08000 13.446
12.10000 15.792
12.12000 12.262
12.14000 2.779
12.16000 -0.103
12.18000 7.454
12.20000 5.152
12.22000 3.175
12.24000 4.297
12.26000 6.836
12.28000 9.917
12.30000 9.957
12.32000 8.821
12.34000 -4.448
12.36000 -4.177
12.38000 15.703
12.40000 27.163
12.42000 17.094
12.44000 13.064
12.46000 1.282
12.48000 17.022
12.50000 13.121
12.52000 -4.129
12.54000 -2.734
12.56000 9.048
12.58000 11.798
12.60000 13.779
12.62000 3.605
12.64000 11.503
12.66000 11.494
12.68000 5.628
12.70000 12.537
12.72000 12.891
12.74000 15.644
12.76000 3.748
12.78000 3.636
12.80000 9.019
12.82000 9.837
12.84000 9.360
12.86000 8.700
12.88000 14.870
12.90000 18.067
12.92000 13.930
12.94000 14.050
12.96000 12.896
12.98000 5.776
13.00000 4.355
13.02000 8.957
13.04000 2.016
13.06000 1.645
13.08000 -1.534
13.10000 0.541
13.12000 -3.678
13.14000 6.400
13.16000 9.339
13.18000 8.886
13.20000 12.633
13.22000 13.452
13.24000 6.963
13.26000 4.708
13.28000 5.397
13.30000 3.677
13.32000 7.775
13.34000 10.829
13.36000 12.305
13.38000 17.571
13.40000 3.657
13.42000 10.304
13.44000 11.190
13.46000 7.898
13.48000 2.643
13.50000 7.236
13.52000 13.862
13.54000 1.376
13.56000 -2.728
13.58000 1.556
13.60000 -3.574
13.62000 -0.078
13.64000 8.772
13.66000 15.162
13.68000 16.832
13.70000 5.902
13.72000 1.101
13.74000 5.898
13.76000 3.724
13.78000 3.562
13.80000 0.202
13.82000 2.027
13.84000 17.700
13.86000 12.001
13.88000 13.057
13.90000 14.507
13.92000 11.647
13.94000 10.274
13.96000 1.323
13.98000 1.943
14.00000 9.214
14.02000 1.967
14.04000 3.020
14.06000 12.765
14.08000 14.223
14.10000 1.951
14.12000 5.984
14.14000 6.674
14.16000 5.408
14.18000 4.305
14.20000 4.628
14.22000 2.422
14.24000 14.222
14.26000 14.110
14.28000 3.133
14.30000 3.428
14.32000 8.526
14.34000 13.157
14.36000 10.721
14.38000 10.228
14.40000 12.901
14.42000 11.785
14.44000 8.026
14.46000 15.916
14.48000 14.962
14.50000 9.504
14.52000 6.644
14.54000 -1.475
14.56000 -0.723
14.58000 -0.133
14.60000 3.572
14.62000 5.129
14.64000 11.359
14.66000 8.402
14.68000 10.597
14.70000 4.434
14.72000 11.373
14.74000 1.902
14.76000 3.362
14.78000 2.809
14.80000 4.301
14.82000 4.092
14.84000 -0.641
14.86000 12.460
14.88000 19.238
14.90000 16.929
14.92000 8.836
14.94000 7.844
14.96000 11.115
14.98000 15.606
15.00000 17.157
15.02000 12.051
15.04000 9.377
15.06000 5.494
15.08000 4.365
15.10000 4.514
15.12000 10.005
15.14000 10.796
15.16000 9.640
15.18000 13.605
15.20000 9.210
15.22000 5.094
15.24000 4.575
15.26000 11.159
15.28000 9.054
15.30000 9.244
15.32000 9.153
15.34000 6.467
15.36000 5.029
15.38000 7.938
15.40000 8.722
15.42000 6.235
15.44000 7.208
15.46000 10.332
15.48000 0.661
15.50000 3.327
15.52000 7.236
15.54000 9.589
15.56000 -1.118
15.58000 2.950
15.60000 15.056
15.62000 9.050
15.64000 2.849
15.66000 3.236
15.68000 -0.802
15.70000 0.287
15.72000 2.740
15.74000 2.579
15.76000 -0.092
15.78000 4.302
15.80000 5.506
15.82000 7.668
15.84000 8.942
15.86000 0.411
15.88000 5.100
15.90000 8.400
15.92000 8.177
15.94000 12.158
15.96000 13.507
15.98000 5.634
16.00000 -0.277
16.02000 5.418
16.04000 3.799
16.06000 8.331
16.08000 8.859
16.10000 9.654
16.12000 9.912
16.14000 -1.582
16.16000 -1.721
16.18000 7.853
16.20000 5.837
16.22000 8.811
16.24000 13.233
16.26000 16.251
16.28000 10.332
16.30000 9.601
16.32000 8.929
16.34000 1.810
16.36000 4.007
16.38000 -4.368
16.40000 -4.367
16.42000 12.897
16.44000 15.985
16.46000 12.555
16.48000 8.369
16.50000 10.154
16.52000 14.942
16.54000 17.382
16.56000 9.421
16.58000 9.475
16.60000 10.477
16.62000 6.725
16.64000 11.060
16.66000 5.379
16.68000 1.313
16.70000 6.015
16.72000 4.660
16.74000 6.446
16.76000 17.029
16.78000 2.361
16.80000 0.657
16.82000 11.654
16.84000 11.953
16.86000 9.949
16.88000 9.391
16.90000 -2.428
16.92000 5.125
16.94000 11.013
16.96000 15.824
16.98000 9.732
17.00000 8.377
17.02000 9.149
17.04000 13.764
17.06000 5.276
17.08000 -2.613
17.10000 6.651
17.12000 9.320
17.14000 9.516
17.16000 9.201
17.18000 9.835
17.20000 12.303
17.22000 13.585
17.24000 13.054
17.26000 9.539
17.28000 6.922
17.30000 7.621
17.32000 9.167
17.34000 -0.089
17.36000 4.810
17.38000 4.951
17.40000 6.983
17.42000 10.193
17.44000 4.807
17.46000 6.517
17.48000 8.697
17.50000 13.547
17.52000 11.005
17.54000 13.590
17.56000 6.054
17.58000 4.401
17.60000 0.680
17.62000 7.435
17.64000 10.642
17.66000 10.117
17.68000 2.610
17.70000 2.892
17.72000 6.903
17.74000 0.957
17.76000 2.097
17.78000 5.307
17.80000 5.881
17.82000 4.709
17.84000 9.861
17.86000 11.062
17.88000 2.159
17.90000 0.119
17.92000 10.525
17.94000 15.377
17.96000 19.281
17.98000 13.711
18.00000 11.911
18.02000 8.622
18.04000 4.035
18.06000 0.703
18.08000 0.159
18.10000 -1.159
18.12000 -0.022
18.14000 6.417
18.16000 3.159
18.18000 0.444
18.20000 3.788
18.22000 9.164
18.24000 5.954
18.26000 -1.075
18.28000 -1.066
18.30000 7.257
18.32000 4.452
18.34000 -1.916
18.36000 -4.280
18.38000 1.291
18.40000 9.213
18.42000 8.092
18.44000 10.595
18.46000 15.016
18.48000 5.812
18.50000 8.897
18.52000 12.932
18.54000 5.960
18.56000 5.420
18.58000 6.427
18.60000 4.440
18.62000 3.205
18.64000 6.235
18.66000 13.113
18.68000 2.603
18.70000 -1.344
18.72000 5.084
18.74000 3.592
18.76000 1.071
18.78000 6.994
18.80000 1.639
18.82000 2.412
18.84000 4.162
18.86000 11.992
18.88000 7.428
18.90000 2.696
18.92000 4.833
18.94000 5.886
18.96000 5.110
18.98000 5.883
19.00000 3.787
19.02000 4.880
19.04000 9.615
19.06000 9.207
19.08000 6.552
19.10000 -3.992
19.12000 -0.400
19.14000 1.779
19.16000 8.094
19.18000 12.151
19.20000 4.136
19.22000 9.066
19.24000 5.132
19.26000 2.376
19.28000 5.968
19.30000 12.089
19.32000 12.874
19.34000 8.286
19.36000 -0.351
19.38000 -1.676
19.40000 9.839
19.42000 9.469
19.44000 6.893
19.46000 10.202
19.48000 6.478
19.50000 -0.002
19.52000 5.601
19.54000 2.043
19.56000 2.371
19.58000 5.566
19.60000 8.765
19.62000 2.505
19.64000 1.999
19.66000 3.332
19.68000 8.202
19.70000 8.688
19.72000 5.321
19.74000 1.015
19.76000 -2.027
19.78000 -2.086
19.80000 1.712
19.82000 0.771
19.84000 2.974
19.86000 6.235
19.88000 6.988
19.90000 7.382
19.92000 5.174
19.94000 2.744
19.96000 1.293
19.98000 -0.206
20.00000 1.740
20.02000 1.139
20.04000 2.789
20.06000 5.696
20.08000 6.545
20.10000 7.818
20.12000 10.333
20.14000 6.759
20.16000 6.530
20.18000 3.152
20.20000 1.761
20.22000 -4.191
20.24000 1.406
20.26000 8.231
20.28000 13.956
20.30000 8.281
20.32000 1.586
20.34000 2.074
20.36000 4.314
20.38000 2.007
20.40000 -3.766
20.42000 -2.375
20.44000 5.044
20.46000 12.938
20.48000 7.722
20.50000 5.007
20.52000 6.782
20.54000 4.456
20.56000 11.717
20.58000 12.107
20.60000 10.471
20.62000 9.615
20.64000 0.248
20.66000 -4.168
20.68000 -3.801
20.70000 -1.801
20.72000 2.193
20.74000 4.883
20.76000 4.713
20.78000 3.682
20.80000 4.553
20.82000 4.404
20.84000 1.985
20.86000 10.609
20.88000 17.730
20.90000 12.530
20.92000 3.986
20.94000 5.625
20.96000 3.793
20.98000 2.943
21.00000 3.015
21.02000 -1.883
21.04000 -4.142
21.06000 2.887
21.08000 5.057
21.10000 2.643
21.12000 -0.379
21.14000 -1.226
21.16000 -4.000
21.18000 -0.100
21.20000 2.798
21.22000 4.916
21.24000 5.411
21.26000 9.064
21.28000 3.194
21.30000 4.817
21.32000 8.006
21.34000 8.532
21.36000 10.594
21.38000 12.555
21.40000 9.746
21.42000 6.351
21.44000 9.591
21.46000 6.254
21.48000 10.974
21.50000 6.233
21.52000 7.976
21.54000 10.747
21.56000 13.492
21.58000 10.929
21.60000 6.185
21.62000 11.689
21.64000 7.489
21.66000 6.065
21.68000 8.432
21.70000 9.737
21.72000 7.105
21.74000 4.208
21.76000 -1.081
21.78000 -4.094
21.80000 2.335
21.82000 10.912
21.84000 8.630
21.86000 4.657
21.88000 5.215
21.90000 4.302
21.92000 3.567
21.94000 8.054
21.96000 12.364
21.98000 5.125
22.00000 -1.701
22.02000 4.907
22.04000 6.349
22.06000 1.448
22.08000 4.781
22.10000 3.467
22.12000 4.453
22.14000 4.987
22.16000 5.477
22.18000 8.753
22.20000 8.598
22.22000 5.002
22.24000 4.090
22.26000 7.999
22.28000 3.887
22.30000 2.734
22.32000 1.403
22.34000 3.006
22.36000 0.366
22.38000 -0.679
22.40000 4.399
22.42000 -3.952
22.44000 0.215
22.46000 2.356
22.48000 5.340
22.50000 5.840
22.52000 9.137
22.54000 6.570
22.56000 8.317
22.58000 4.791
22.60000 6.100
22.62000 2.104
22.64000 1.933
22.66000 5.798
22.68000 3.779
22.70000 1.286
22.72000 4.231
22.74000 -0.761
22.76000 1.794
22.78000 5.469
22.80000 6.113
22.82000 5.964
22.84000 4.353
22.86000 1.459
22.88000 3.629
22.90000 8.102
22.92000 7.164
22.94000 4.659
22.96000 7.752
22.98000 11.484
23.00000 2.492
23.02000 1.100
23.04000 3.173
23.06000 3.539
23.08000 7.541
23.10000 6.690
23.12000 7.880
23.14000 11.181
23.16000 6.937
23.18000 2.198
23.20000 6.964
23.22000 8.391
23.24000 9.345
23.26000 12.187
23.28000 3.867
23.30000 -0.005
23.32000 -1.400
23.34000 3.347
23.36000 3.429
23.38000 0.877
23.40000 -0.937
23.42000 -0.769
23.44000 3.526
23.46000 0.592
23.48000 5.100
23.50000 3.922
23.52000 3.145
23.54000 -4.014
23.56000 -0.247
23.58000 5.755
23.60000 5.602
23.62000 5.907
23.64000 8.573
23.66000 6.779
23.68000 1.228
23.70000 0.930
23.72000 8.727
23.74000 9.262
23.76000 3.815
23.78000 6.897
23.80000 7.655
23.82000 8.616
23.84000 9.502
23.86000 6.846
23.88000 3.327
23.90000 5.660
23.92000 2.835
23.94000 6.299
23.96000 3.870
23.98000 0.998
24.00000 5.980
24.02000 5.996
24.04000 -0.669
24.06000 5.863
24.08000 4.594
24.10000 -0.479
24.12000 -3.955
24.14000 4.558
24.16000 7.075
24.18000 4.033
24.20000 1.866
24.22000 -1.714
24.24000 8.192
24.26000 10.638
24.28000 11.515
24.30000 5.423
24.32000 -0.314
24.34000 0.564
24.36000 9.348
24.38000 6.728
24.40000 3.835
24.42000 8.879
24.44000 10.064
24.46000 8.905
24.48000 2.922
24.50000 8.861
24.52000 8.064
24.54000 4.676
24.56000 2.517
24.58000 -0.121
24.60000 1.104
24.62000 2.301
24.64000 2.988
24.66000 5.037
24.68000 5.641
24.70000 7.230
24.72000 9.139
24.74000 5.198
24.76000 5.484
24.78000 9.939
24.80000 7.653
24.82000 5.495
24.84000 4.421
24.86000 7.399
24.88000 5.502
24.90000 1.951
24.92000 -1.040
24.94000 4.549
24.96000 8.921
24.98000 7.664
25.00000 5.610
25.02000 2.262
25.04000 1.718
25.06000 4.517
25.08000 8.344
25.10000 3.636
25.12000 -0.849
25.14000 -1.809
25.16000 3.283
25.18000 7.007
25.20000 4.804
25.22000 3.282
25.24000 4.579
25.26000 7.373
25.28000 6.500
25.30000 5.099
25.32000 6.418
25.34000 2.815
25.36000 1.674
25.38000 0.703
25.40000 2.357
25.42000 5.099
25.44000 6.179
25.46000 3.522
25.48000 2.942
25.50000 5.232
25.52000 3.207
25.54000 1.545
25.56000 7.701
25.58000 3.656
25.60000 0.826
25.62000 3.201
25.64000 3.058
25.66000 2.415
25.68000 3.837
25.70000 -0.884
25.72000 4.439
25.74000 0.202
25.76000 -3.890
25.78000 2.599
25.80000 5.038
25.82000 3.203
25.84000 2.077
25.86000 1.425
25.88000 4.859
25.90000 2.590
25.92000 4.527
25.94000 4.336
25.96000 1.222
25.98000 1.434
26.00000 6.026
26.02000 2.982
26.04000 -0.048
26.06000 -0.316
26.08000 3.082
26.10000 3.676
26.12000 5.676
26.14000 8.599
26.16000 -1.799
26.18000 0.102
26.20000 3.208
26.22000 0.690
26.24000 1.539
26.26000 0.686
26.28000 2.249
26.30000 5.625
26.32000 2.331
26.34000 7.975
26.36000 4.394
26.38000 3.814
26.40000 4.200
26.42000 5.246
26.44000 6.591
26.46000 9.087
26.48000 2.852
26.50000 -1.166
26.52000 2.200
26.54000 1.649
26.56000 -0.067
26.58000 0.807
26.60000 5.030
26.62000 4.474
26.64000 3.091
26.66000 -2.389
26.68000 0.633
26.70000 1.824
26.72000 1.927
26.74000 0.765
26.76000 2.143
26.78000 4.441
26.80000 0.634
26.82000 2.751
26.84000 4.642
26.86000 6.500
26.88000 4.856
26.90000 -1.532
26.92000 0.302
26.94000 6.606
26.96000 -1.420
26.98000 3.786
27.00000 4.869
27.02000 2.920
27.04000 9.755
27.06000 7.714
27.08000 5.553
27.10000 -3.836
27.12000 -3.838
27.14000 2.864
27.16000 -2.120
27.18000 -0.459
27.20000 3.024
27.22000 -0.378
27.24000 0.167
27.26000 -0.011
27.28000 3.139
27.30000 6.555
27.32000 8.863
27.34000 1.582
27.36000 3.677
27.38000 5.335
27.40000 5.327
27.42000 1.506
27.44000 0.160
27.46000 1.314
27.48000 4.091
27.50000 0.207
27.52000 0.097
27.54000 2.290
27.56000 3.942
27.58000 0.811
27.60000 2.592
27.62000 -3.796
27.64000 2.095
27.66000 5.410
27.68000 -0.661
27.70000 -1.847
27.72000 -0.886
27.74000 5.281
27.76000 3.955
27.78000 4.550
27.80000 3.817
27.82000 4.383
27.84000 -1.728
27.86000 4.041
27.88000 6.848
27.90000 2.727
27.92000 4.661
27.94000 7.741
27.96000 6.604
27.98000 1.025
28.00000 -1.975
28.02000 3.459
28.04000 0.856
28.06000 -1.174
28.08000 1.577
28.10000 3.793
28.12000 2.913
28.14000 -0.011
28.16000 0.696
28.18000 -2.195
28.20000 4.322
28.22000 6.370
28.24000 8.060
28.26000 6.485
28.28000 6.145
28.30000 2.090
28.32000 -2.657
28.34000 -0.152
28.36000 3.050
28.38000 5.077
28.40000 3.288
28.42000 7.595
28.44000 3.199
28.46000 -0.779
28.48000 -0.040
28.50000 2.602
28.52000 -1.321
28.54000 2.863
28.56000 1.826
28.58000 4.971
28.60000 1.067
28.62000 3.641
28.64000 6.045
28.66000 7.156
28.68000 -2.470
28.70000 -3.538
28.72000 0.331
28.74000 0.044
28.76000 -0.766
28.78000 -1.300
28.80000 -0.203
28.82000 4.157
28.84000 3.951
28.86000 3.821
28.88000 4.278
28.90000 6.653
28.92000 9.255
28.94000 4.915
28.96000 9.898
28.98000 13.484
29.00000 10.051
29.02000 2.633
29.04000 1.447
29.06000 1.242
29.08000 2.002
29.10000 7.038
29.12000 8.873
29.14000 4.795
29.16000 3.822
29.18000 6.266
29.20000 2.813
29.22000 5.640
29.24000 3.732
29.26000 -3.677
29.28000 0.694
29.30000 8.198
29.32000 7.981
29.34000 3.208
29.36000 4.470
29.38000 6.554
29.40000 5.698
29.42000 0.563
29.44000 2.589
29.46000 4.951
29.48000 2.085
29.50000 7.294
29.52000 2.873
29.54000 1.769
29.56000 8.641
29.58000 6.557
29.60000 4.333
29.62000 5.498
29.64000 2.607
29.66000 0.445
29.68000 2.857
29.70000 3.349
29.72000 3.907
29.74000 -0.895
29.76000 -1.951
29.78000 -1.926
29.80000 -0.223
29.82000 0.077
29.84000 -0.923
29.86000 -0.828
29.88000 2.848
29.90000 1.199
29.92000 0.118
29.94000 5.547
29.96000 8.020
29.98000 0.816
30.00000 0.714
30.02000 -1.856
30.04000 -1.647
30.06000 -1.638
30.08000 2.203
30.10000 5.791
30.12000 2.997
30.14000 4.241
30.16000 4.784
30.18000 2.361
30.20000 1.395
30.22000 0.827
30.24000 3.484
30.26000 4.192
30.28000 2.116
30.30000 -1.763
30.32000 3.805
30.34000 4.002
30.36000 4.304
30.38000 4.652
30.40000 1.473
30.42000 -2.984
30.44000 2.797
30.46000 6.056
30.48000 1.627
30.50000 -0.971
30.52000 -2.072
30.54000 3.203
30.56000 2.777
30.58000 1.440
30.60000 -3.021
30.62000 -1.266
30.64000 0.607
30.66000 3.449
30.68000 2.896
30.70000 3.229
30.72000 5.714
30.74000 4.782
30.76000 -2.112
30.78000 -3.643
30.80000 -2.569
30.82000 -1.401
30.84000 0.577
30.86000 -0.733
30.88000 2.545
30.90000 7.475
30.92000 4.427
30.94000 4.321
30.96000 3.854
30.98000 2.973
31.00000 2.624
31.02000 2.277
31.04000 3.028
31.06000 1.440
31.08000 3.408
31.10000 0.101
31.12000 -3.629
31.14000 2.650
31.16000 -1.615
31.18000 3.695
31.20000 1.373
31.22000 -1.756
31.24000 -1.241
31.26000 -0.755
31.28000 6.681
31.30000 6.638
31.32000 1.287
31.34000 2.872
31.36000 3.430
31.38000 2.789
31.40000 -0.798
31.42000 0.874
31.44000 2.028
31.46000 6.165
31.48000 8.847
31.50000 2.787
31.52000 -1.314
31.54000 -0.163
31.56000 5.268
31.58000 7.205
31.60000 1.698
31.62000 -1.280
31.64000 -2.444
31.66000 4.216
31.68000 3.876
31.70000 0.257
31.72000 6.776
31.74000 5.724
31.76000 2.550
31.78000 6.715
31.80000 2.442
31.82000 -1.370
31.84000 0.352
31.86000 2.448
31.88000 1.114
31.90000 1.470
31.92000 -1.344
31.94000 -1.340
31.96000 1.280
31.98000 2.801
32.00000 0.477
32.02000 4.349
32.04000 2.990
32.06000 -1.260
32.08000 -3.592
32.10000 0.357
32.12000 4.383
32.14000 6.300
32.16000 6.080
32.18000 2.898
32.20000 2.357
32.22000 -2.549
32.24000 1.078
32.26000 5.130
32.28000 7.143
32.30000 4.895
32.32000 -1.293
32.34000 -0.296
32.36000 2.787
32.38000 -1.473
32.40000 -1.771
32.42000 0.040
32.44000 4.402
32.46000 4.435
32.48000 2.395
32.50000 -0.895
32.52000 -0.250
32.54000 2.127
32.56000 1.578
32.58000 0.488
32.60000 -1.036
32.62000 2.401
32.64000 6.759
32.66000 7.573
32.68000 4.351
32.70000 3.147
32.72000 5.811
32.74000 5.491
32.76000 -2.014
32.78000 2.165
32.80000 0.576
32.82000 2.588
32.84000 1.673
32.86000 -1.837
32.88000 0.285
32.90000 -3.558
32.92000 0.723
32.94000 0.671
32.96000 -1.338
32.98000 2.201
33.00000 -0.844
33.02000 3.378
33.04000 4.076
33.06000 6.277
33.08000 4.281
33.10000 2.769
33.12000 0.382
33.14000 0.927
33.16000 5.365
33.18000 6.668
33.20000 5.877
33.22000 2.956
33.24000 2.046
33.26000 0.891
33.28000 0.457
33.30000 5.667
33.32000 5.876
33.34000 3.422
33.36000 8.136
33.38000 9.544
33.40000 2.496
33.42000 2.289
33.44000 0.586
33.46000 3.283
33.48000 10.483
33.50000 6.143
33.52000 3.899
33.54000 0.164
33.56000 -1.870
33.58000 0.954
33.60000 0.456
33.62000 6.737
33.64000 6.534
33.66000 5.286
33.68000 0.100
33.70000 -2.055
33.72000 -1.621
33.74000 0.312
33.76000 -1.626
33.78000 -3.532
33.80000 3.576
33.82000 5.701
33.84000 3.685
33.86000 1.967
33.88000 5.128
33.90000 6.965
33.92000 1.286
33.94000 -0.006
33.96000 -2.824
33.98000 0.813
34.00000 5.219
34.02000 6.548
34.04000 0.006
34.06000 0.026
34.08000 5.450
34.10000 6.466
34.12000 5.933
34.14000 3.365
34.16000 2.872
34.18000 5.992
34.20000 7.179
34.22000 6.481
34.24000 2.877
34.26000 -0.879
34.28000 -0.292
34.30000 3.518
34.32000 1.214
34.34000 5.165
34.36000 5.813
34.38000 4.296
34.40000 6.897
34.42000 4.739
34.44000 1.509
34.46000 3.778
34.48000 8.116
34.50000 6.097
34.52000 5.334
34.54000 7.258
34.56000 2.130
34.58000 1.472
34.60000 2.807
34.62000 2.052
34.64000 8.446
34.66000 5.580
34.68000 1.175
34.70000 2.792
34.72000 11.181
34.74000 10.594
34.76000 0.396
34.78000 -2.003
34.80000 -3.504
34.82000 -0.435
34.84000 4.694
34.86000 1.559
34.88000 3.044
34.90000 3.140
34.92000 3.703
34.94000 4.298
34.96000 0.601
34.98000 2.155
35.00000 6.854
35.02000 1.780
35.04000 0.541
35.06000 0.521
35.08000 0.064
35.10000 -0.116
35.12000 -2.099
35.14000 -0.934
35.16000 3.989
35.18000 4.329
35.20000 2.021
35.22000 -2.114
35.24000 0.319
35.26000 3.058
35.28000 6.917
35.30000 1.182
35.32000 -2.063
35.34000 -2.020
35.36000 -2.216
35.38000 3.369
35.40000 0.478
35.42000 5.398
35.44000 -0.047
35.46000 1.269
35.48000 2.225
35.50000 4.387
35.52000 3.965
35.54000 1.836
35.56000 5.703
35.58000 2.912
35.60000 4.623
35.62000 4.204
35.64000 1.241
35.66000 2.950
35.68000 1.924
35.70000 3.125
35.72000 3.680
35.74000 3.875
35.76000 1.359
35.78000 2.026
35.80000 -2.947
35.82000 -2.525
35.84000 -0.841
35.86000 -3.497
35.88000 2.618
35.90000 4.428
35.92000 8.618
35.94000 8.765
35.96000 4.165
35.98000 5.589
36.00000 7.548
36.02000 8.186
36.04000 7.593
36.06000 2.858
36.08000 6.817
36.10000 8.166
36.12000 5.417
36.14000 4.715
36.16000 0.178
36.18000 0.780
36.20000 1.525
36.22000 6.300
36.24000 4.891
36.26000 -0.943
36.28000 0.179
36.30000 0.290
36.32000 2.955
36.34000 0.995
36.36000 5.760
36.38000 1.747
36.40000 -3.521
36.42000 0.969
36.44000 2.006
36.46000 5.109
36.48000 0.635
36.50000 1.280
36.52000 3.516
36.54000 -1.719
36.56000 4.917
36.58000 4.350
36.60000 2.598
36.62000 0.293
36.64000 2.566
36.66000 8.064
36.68000 3.067
36.70000 5.594
36.72000 -0.414
36.74000 -1.723
36.76000 2.927
36.78000 3.830
36.80000 -0.754
36.82000 -3.294
36.84000 -0.710
36.86000 -0.193
36.88000 0.359
36.90000 2.712
36.92000 3.157
36.94000 6.158
36.96000 5.223
36.98000 1.423
37.00000 -1.186
37.02000 -3.550
37.04000 0.435
37.06000 2.585
37.08000 0.586
37.10000 1.283
37.12000 -1.903
37.14000 -3.070
37.16000 3.358
37.18000 3.121
37.20000 1.039
37.22000 -0.879
37.24000 -3.097
37.26000 -2.310
37.28000 -0.789
37.30000 0.440
37.32000 5.189
37.34000 1.167
37.36000 3.333
37.38000 3.674
37.40000 1.905
37.42000 1.741
37.44000 1.946
37.46000 4.052
37.48000 1.771
37.50000 -0.502
37.52000 0.029
37.54000 -3.600
37.56000 3.617
37.58000 3.547
37.60000 6.030
37.62000 4.506
37.64000 4.498
37.66000 4.491
37.68000 2.452
37.70000 1.457
37.72000 2.037
37.74000 7.682
37.76000 7.159
37.78000 0.211
37.80000 4.622
37.82000 3.056
37.84000 5.337
37.86000 5.984
37.88000 7.438
37.90000 9.449
37.92000 10.888
37.94000 8.424
37.96000 8.330
37.98000 6.142
38.00000 5.110
38.02000 7.593
38.04000 12.127
38.06000 12.573
38.08000 9.622
38.10000 8.704
38.12000 9.370
38.14000 8.229
38.16000 10.733
38.18000 18.257
38.20000 12.838
38.22000 12.057
38.24000 12.861
38.26000 10.031
38.28000 12.815
38.30000 20.283
38.32000 18.745
38.34000 17.364
38.36000 18.203
38.38000 13.902
38.40000 15.825
38.42000 21.612
38.44000 22.075
38.46000 22.935
38.48000 25.613
38.50000 24.652
38.52000 21.488
38.54000 23.572
38.56000 21.173
38.58000 17.354
38.60000 22.133
38.62000 26.638
38.64000 22.921
38.66000 23.559
38.68000 21.477
38.70000 22.895
38.72000 24.922
38.74000 29.590
38.76000 30.835
38.78000 32.519
38.80000 33.884
38.82000 34.428
38.84000 35.623
38.86000 32.719
38.88000 29.530
38.90000 39.070
38.92000 39.121
38.94000 38.278
38.96000 46.630
38.98000 46.315
39.00000 42.079
39.02000 48.713
39.04000 56.308
39.06000 52.189
39.08000 50.632
39.10000 50.436
39.12000 54.218
39.14000 56.859
39.16000 56.542
39.18000 58.800
39.20000 63.645
39.22000 67.352
39.24000 69.162
39.26000 77.147
39.28000 81.367
39.30000 76.828
39.32000 76.911
39.34000 85.260
39.36000 86.967
39.38000 89.698
39.40000 101.630
39.42000 110.586
39.44000 108.946
39.46000 113.819
39.48000 121.397
39.50000 129.459
39.52000 137.606
39.54000 142.942
39.56000 148.703
39.58000 154.830
39.60000 164.584
39.62000 171.635
39.64000 188.643
39.66000 196.287
39.68000 207.643
39.70000 220.111
39.72000 242.683
39.74000 250.903
39.76000 266.311
39.78000 283.189
39.80000 297.585
39.82000 315.607
39.84000 332.175
39.86000 343.206
39.88000 367.441
39.90000 387.096
39.92000 409.183
39.94000 430.199
39.96000 452.091
39.98000 478.686
40.00000 508.282
40.02000 539.933
40.04000 564.635
40.06000 606.457
40.08000 636.203
40.10000 656.521
40.12000 676.642
40.14000 694.464
40.16000 708.144
40.18000 742.582
40.20000 769.459
40.22000 788.108
40.24000 790.813
40.26000 803.981
40.28000 815.973
40.30000 837.119
40.32000 838.085
40.34000 829.747
40.36000 834.047
40.38000 823.324
40.40000 819.869
40.42000 804.497
40.44000 782.808
40.46000 778.605
40.48000 763.727
40.50000 740.398
40.52000 721.172
40.54000 702.299
40.56000 678.002
40.58000 656.660
40.60000 622.740
40.62000 595.517
40.64000 587.714
40.66000 569.380
40.68000 527.359
40.70000 508.631
40.72000 492.956
40.74000 469.075
40.76000 446.190
40.78000 424.966
40.80000 399.762
40.82000 383.195
40.84000 361.780
40.86000 341.541
40.88000 320.978
40.90000 304.945
40.92000 291.184
40.94000 273.388
40.96000 259.225
40.98000 241.665
41.00000 229.966
41.02000 216.684
41.04000 197.278
41.06000 192.143
41.08000 183.050
41.10000 170.287
41.12000 165.908
41.14000 155.338
41.16000 147.028
41.18000 139.781
41.20000 128.162
41.22000 118.613
41.24000 111.949
41.26000 107.215
41.28000 106.986
41.30000 100.905
41.32000 98.581
41.34000 97.931
41.36000 90.418
41.38000 80.846
41.40000 72.815
41.42000 74.178
41.44000 72.567
41.46000 73.144
41.48000 66.541
41.50000 60.885
41.52000 55.551
41.54000 49.445
41.56000 44.384
41.58000 46.888
41.60000 44.207
41.62000 40.942
41.64000 38.522
41.66000 40.079
41.68000 38.560
41.70000 37.237
41.72000 36.250
41.74000 30.298
41.76000 30.324
41.78000 30.502
41.80000 30.080
41.82000 25.252
41.84000 27.893
41.86000 29.409
41.88000 28.154
41.90000 17.946
41.92000 18.237
41.94000 21.970
41.96000 24.379
41.98000 21.208
42.00000 20.796
42.02000 13.018
42.04000 11.141
42.06000 16.764
42.08000 17.951
42.10000 14.780
42.12000 13.672
42.14000 9.500
42.16000 12.866
42.18000 16.492
42.20000 13.652
42.22000 13.479
42.24000 10.235
42.26000 4.620
42.28000 7.554
42.30000 7.901
42.32000 9.679
42.34000 9.633
42.36000 6.193
42.38000 4.874
42.40000 5.583
42.42000 1.973
42.44000 3.133
42.46000 7.634
42.48000 5.190
42.50000 2.809
42.52000 -0.730
42.54000 1.668
42.56000 4.530
42.58000 3.755
42.60000 2.562
42.62000 3.077
42.64000 -1.341
42.66000 -0.547
42.68000 1.091
42.70000 2.850
42.72000 6.177
42.74000 5.118
42.76000 1.775
42.78000 0.816
42.80000 4.526
42.82000 1.522
42.84000 0.601
42.86000 0.563
42.88000 0.976
42.90000 0.949
42.92000 -0.520
42.94000 4.193
42.96000 2.551
42.98000 0.028
43.00000 -0.491
43.02000 1.312
43.04000 0.995
43.06000 -3.009
43.08000 -2.494
43.10000 -2.882
43.12000 1.214
43.14000 5.330
43.16000 2.972
43.18000 0.685
43.20000 3.533
43.22000 -0.320
43.24000 0.362
43.26000 1.004
43.28000 -0.130
43.30000 -1.722
43.32000 2.489
43.34000 2.916
43.36000 -3.427
43.38000 -2.707
43.40000 -0.748
43.42000 1.452
43.44000 1.976
43.46000 3.804
43.48000 1.799
43.50000 0.632
43.52000 5.328
43.54000 2.711
43.56000 0.207
43.58000 -3.385
43.60000 -0.774
43.62000 1.063
43.64000 0.867
43.66000 -2.190
43.68000 -0.938
43.70000 -1.150
43.72000 -0.053
43.74000 1.465
43.76000 -1.131
43.78000 2.351
43.80000 4.033
43.82000 0.420
43.84000 -1.774
43.86000 3.915
43.88000 2.649
43.90000 0.949
43.92000 1.561
43.94000 1.184
43.96000 2.061
43.98000 3.073
44.00000 1.974
44.02000 2.032
44.04000 3.156
44.06000 3.217
44.08000 7.398
44.10000 4.247
44.12000 2.784
44.14000 2.236
44.16000 2.585
44.18000 2.318
44.20000 2.715
44.22000 4.645
44.24000 5.408
44.26000 2.053
44.28000 1.526
44.30000 0.477
44.32000 5.909
44.34000 6.207
44.36000 2.235
44.38000 3.088
44.40000 7.415
44.42000 6.144
44.44000 7.843
44.46000 5.208
44.48000 6.120
44.50000 7.256
44.52000 5.832
44.54000 3.183
44.56000 -3.267
44.58000 -0.289
44.60000 3.066
44.62000 5.253
44.64000 6.199
44.66000 5.590
44.68000 4.496
44.70000 3.700
44.72000 6.320
44.74000 7.195
44.76000 7.289
44.78000 3.910
44.80000 6.203
44.82000 4.315
44.84000 5.987
44.86000 5.825
44.88000 6.372
44.90000 7.939
44.92000 7.863
44.94000 5.839
44.96000 9.648
44.98000 13.323
45.00000 6.681
45.02000 3.306
45.04000 3.513
45.06000 6.732
45.08000 10.465
45.10000 8.495
45.12000 9.499
45.14000 10.086
45.16000 12.769
45.18000 7.418
45.20000 6.943
45.22000 8.381
45.24000 10.140
45.26000 14.282
45.28000 14.289
45.30000 10.615
45.32000 8.148
45.34000 12.548
45.36000 15.530
45.38000 15.256
45.40000 15.112
45.42000 13.530
45.44000 15.649
45.46000 14.678
45.48000 13.951
45.50000 16.277
45.52000 15.787
45.54000 15.467
45.56000 20.552
45.58000 22.657
45.60000 21.768
45.62000 20.301
45.64000 15.884
45.66000 19.753
45.68000 20.691
45.70000 21.024
45.72000 25.157
45.74000 25.767
45.76000 26.042
45.78000 24.263
45.80000 28.790
45.82000 31.311
45.84000 30.519
45.86000 30.271
45.88000 31.879
45.90000 31.735
45.92000 32.549
45.94000 35.909
45.96000 29.883
45.98000 38.217
46.00000 41.509
46.02000 39.369
46.04000 43.617
46.06000 47.331
46.08000 44.091
46.10000 44.317
46.12000 50.321
46.14000 60.757
46.16000 55.233
46.18000 58.193
46.20000 63.172
46.22000 60.844
46.24000 63.921
46.26000 61.819
46.28000 69.438
46.30000 70.362
46.32000 78.878
46.34000 78.202
46.36000 81.915
46.38000 76.522
46.40000 89.100
46.42000 83.916
46.44000 86.898
46.46000 85.586
46.48000 91.042
46.50000 96.765
46.52000 102.970
46.54000 102.910
46.56000 114.382
46.58000 113.070
46.60000 117.865
46.62000 124.547
46.64000 131.119
46.66000 132.874
46.68000 133.448
46.70000 131.045
46.72000 129.949
46.74000 132.674
46.76000 140.290
46.78000 146.947
46.80000 157.127
46.82000 153.195
46.84000 149.574
46.86000 151.504
46.88000 157.701
46.90000 158.493
46.92000 156.996
46.94000 159.293
46.96000 162.985
46.98000 158.747
47.00000 157.420
47.02000 158.576
47.04000 152.445
47.06000 150.943
47.08000 154.727
47.10000 155.261
47.12000 157.375
47.14000 145.562
47.16000 136.558
47.18000 136.979
47.20000 138.257
47.22000 131.345
47.24000 125.283
47.26000 125.262
47.28000 128.220
47.30000 120.365
47.32000 115.350
47.34000 105.598
47.36000 106.279
47.38000 103.662
47.40000 102.180
47.42000 93.593
47.44000 93.589
47.46000 93.098
47.48000 89.264
47.50000 86.868
47.52000 81.527
47.54000 70.923
47.56000 64.773
47.58000 63.097
47.60000 59.932
47.62000 56.961
47.64000 56.731
47.66000 52.015
47.68000 46.388
47.70000 48.702
47.72000 46.105
47.74000 38.412
47.76000 40.856
47.78000 42.418
47.80000 37.645
47.82000 41.622
47.84000 35.665
47.86000 32.148
47.88000 26.695
47.90000 24.837
47.92000 24.429
47.94000 28.927
47.96000 26.559
47.98000 22.860
48.00000 24.035
48.02000 24.533
48.04000 20.979
48.06000 15.620
48.08000 14.344
48.10000 14.006
48.12000 13.253
48.14000 15.340
48.16000 14.071
48.18000 11.602
48.20000 13.321
48.22000 15.492
48.24000 12.399
48.26000 7.489
48.28000 7.765
48.30000 9.682
48.32000 6.523
48.34000 9.925
48.36000 10.417
48.38000 9.567
48.40000 7.006
48.42000 7.599
48.44000 4.151
48.46000 5.753
48.48000 6.505
48.50000 6.754
48.52000 3.145
48.54000 2.458
48.56000 7.936
48.58000 8.227
48.60000 6.250
48.62000 8.462
48.64000 7.016
48.66000 2.591
48.68000 0.698
48.70000 2.434
48.72000 2.106
48.74000 6.131
48.76000 2.893
48.78000 -1.727
48.80000 -0.247
48.82000 0.910
48.84000 -1.304
48.86000 -1.098
48.88000 -0.499
48.90000 -2.104
48.92000 -0.638
48.94000 0.220
48.96000 1.121
48.98000 1.640
49.00000 4.947
49.02000 5.234
49.04000 4.716
49.06000 7.302
49.08000 5.982
49.10000 2.741
49.12000 -0.264
49.14000 0.137
49.16000 3.981
49.18000 2.596
49.20000 1.906
49.22000 3.463
49.24000 1.103
49.26000 4.630
49.28000 5.577
49.30000 5.041
49.32000 4.112
49.34000 -1.320
49.36000 -2.773
49.38000 2.269
49.40000 5.271
49.42000 5.551
49.44000 6.329
49.46000 6.462
49.48000 0.994
49.50000 -1.007
49.52000 2.254
49.54000 0.247
49.56000 2.214
49.58000 5.949
49.60000 3.545
49.62000 1.180
49.64000 0.605
49.66000 5.085
49.68000 9.415
49.70000 6.916
49.72000 3.650
49.74000 0.487
49.76000 0.135
49.78000 1.491
49.80000 -0.369
49.82000 3.461
49.84000 4.749
49.86000 4.720
49.88000 3.002
49.90000 1.123
49.92000 1.434
49.94000 1.353
49.96000 1.701
49.98000 2.511
50.00000 2.462
50.02000 3.734
50.04000 1.765
50.06000 -2.014
50.08000 1.398
50.10000 4.028
50.12000 3.553
50.14000 -0.209
50.16000 -2.620
50.18000 3.137
50.20000 2.077
50.22000 1.430
50.24000 0.835
50.26000 -1.480
50.28000 -2.730
50.30000 -1.474
50.32000 -1.764
50.34000 -0.152
50.36000 2.634
50.38000 4.295
50.40000 5.329
50.42000 4.441
50.44000 -0.271
50.46000 0.424
50.48000 2.483
50.50000 3.703
50.52000 4.706
50.54000 5.488
50.56000 -0.340
50.58000 -1.202
50.60000 2.564
50.62000 3.329
50.64000 3.454
50.66000 3.414
50.68000 3.911
50.70000 0.870
50.72000 -2.119
50.74000 0.888
50.76000 2.446
50.78000 4.412
50.80000 4.826
50.82000 2.244
50.84000 1.387
50.86000 2.025
50.88000 -1.245
50.90000 -1.435
50.92000 -2.224
50.94000 -0.236
50.96000 1.218
50.98000 0.884
51.00000 0.363
51.02000 5.950
51.04000 2.377
51.06000 3.132
51.08000 0.543
51.10000 -1.502
51.12000 1.983
51.14000 3.311
51.16000 1.284
51.18000 1.156
51.20000 0.842
51.22000 -0.190
51.24000 -2.008
51.26000 0.527
51.28000 2.375
51.30000 4.038
51.32000 5.653
51.34000 1.397
51.36000 -0.315
51.38000 0.774
51.40000 1.657
51.42000 2.991
51.44000 5.017
51.46000 6.014
51.48000 2.593
51.50000 4.866
51.52000 3.163
51.54000 5.426
51.56000 5.617
51.58000 2.980
51.60000 2.104
51.62000 6.845
51.64000 6.794
51.66000 5.012
51.68000 4.089
51.70000 -0.092
51.72000 -2.631
51.74000 1.763
51.76000 -0.046
51.78000 -0.375
51.80000 -0.451
51.82000 -0.279
51.84000 2.895
51.86000 2.747
51.88000 2.259
51.90000 1.182
51.92000 2.654
51.94000 0.332
51.96000 2.554
51.98000 5.148
52.00000 5.146
52.02000 3.873
52.04000 3.470
52.06000 4.046
52.08000 4.555
52.10000 4.750
52.12000 1.858
52.14000 -0.963
52.16000 -1.283
52.18000 0.969
52.20000 4.579
52.22000 1.671
52.24000 -1.778
52.26000 -1.403
52.28000 0.136
52.30000 -0.519
52.32000 -0.067
52.34000 2.727
52.36000 4.760
52.38000 8.193
52.40000 2.071
52.42000 -2.598
52.44000 0.923
52.46000 3.498
52.48000 3.725
52.50000 4.065
52.52000 6.196
52.54000 4.701
52.56000 1.519
52.58000 0.876
52.60000 0.993
52.62000 3.464
52.64000 -1.491
52.66000 -1.348
52.68000 1.794
52.70000 2.395
52.72000 3.462
52.74000 4.000
52.76000 6.399
52.78000 4.129
52.80000 2.967
52.82000 -0.454
52.84000 -1.726
52.86000 -1.147
52.88000 2.016
52.90000 1.826
52.92000 3.412
52.94000 1.879
52.96000 0.250
52.98000 -2.541
53.00000 2.707
53.02000 4.332
53.04000 2.478
53.06000 -0.426
53.08000 -1.700
53.10000 0.041
53.12000 2.249
53.14000 4.924
53.16000 2.080
53.18000 2.738
53.20000 2.576
53.22000 -0.597
53.24000 4.702
53.26000 8.787
53.28000 1.942
53.30000 0.934
53.32000 0.944
53.34000 2.091
53.36000 3.139
53.38000 7.428
53.40000 1.782
53.42000 0.573
53.44000 -0.409
53.46000 -0.222
53.48000 -1.702
53.50000 3.539
53.52000 4.718
53.54000 -1.218
53.56000 -0.994
53.58000 0.397
53.60000 0.101
53.62000 1.897
53.64000 0.917
53.66000 -2.591
53.68000 -0.644
53.70000 2.071
53.72000 -1.222
53.74000 0.293
53.76000 1.174
53.78000 0.925
53.80000 1.788
53.82000 1.816
53.84000 1.021
53.86000 -0.877
53.88000 3.361
53.90000 6.653
53.92000 2.961
53.94000 3.895
53.96000 1.171
53.98000 -1.944
54.00000 0.422
54.02000 0.827
54.04000 2.614
54.06000 5.425
54.08000 3.952
54.10000 -0.211
54.12000 -0.034
54.14000 1.909
54.16000 0.121
54.18000 1.280
54.20000 4.688
54.22000 7.977
54.24000 0.629
54.26000 1.284
54.28000 1.417
54.30000 2.374
54.32000 -0.450
54.34000 2.721
54.36000 4.622
54.38000 5.714
54.40000 2.086
54.42000 3.476
54.44000 0.582
54.46000 -2.477
54.48000 -0.004
54.50000 2.589
54.52000 -1.998
54.54000 -0.503
54.56000 -0.348
54.58000 -2.527
54.60000 0.005
54.62000 1.186
54.64000 3.078
54.66000 6.900
54.68000 4.654
54.70000 2.760
54.72000 2.084
54.74000 3.069
54.76000 4.347
54.78000 4.474
54.80000 4.714
54.82000 2.212
54.84000 4.174
54.86000 2.422
54.88000 1.287
54.90000 3.265
54.92000 6.170
54.94000 6.022
54.96000 3.651
54.98000 4.490
55.00000 3.800
55.02000 2.039
55.04000 4.386
55.06000 5.233
55.08000 4.536
55.10000 4.954
55.12000 3.871
55.14000 1.966
55.16000 2.263
55.18000 0.758
55.20000 -1.787
55.22000 0.037
55.24000 0.577
55.26000 2.047
55.28000 2.747
55.30000 3.032
55.32000 4.776
55.34000 2.266
55.36000 1.844
55.38000 4.869
55.40000 5.294
55.42000 0.946
55.44000 -2.512
55.46000 0.808
55.48000 2.393
55.50000 4.399
55.52000 2.349
55.54000 2.288
55.56000 1.815
55.58000 0.016
55.60000 4.471
55.62000 3.853
55.64000 2.862
55.66000 2.842
55.68000 3.851
55.70000 2.576
55.72000 4.988
55.74000 3.140
55.76000 7.585
55.78000 4.522
55.80000 4.038
55.82000 7.411
55.84000 3.626
55.86000 3.434
55.88000 2.694
55.90000 0.985
55.92000 2.514
55.94000 -0.072
55.96000 0.965
55.98000 1.530
56.00000 1.164
56.02000 4.794
56.04000 4.318
56.06000 -0.043
56.08000 1.155
56.10000 1.314
56.12000 3.585
56.14000 -0.049
56.16000 -0.634
56.18000 2.371
56.20000 -0.441
56.22000 2.515
56.24000 5.535
56.26000 5.593
56.28000 0.717
56.30000 -0.130
56.32000 -1.096
56.34000 -2.523
56.36000 -0.311
56.38000 0.472
56.40000 -1.173
56.42000 -1.046
56.44000 1.010
56.46000 -1.653
56.48000 0.324
56.50000 4.816
56.52000 2.565
56.54000 -1.341
56.56000 1.681
56.58000 2.901
56.60000 1.258
56.62000 4.385
56.64000 5.608
56.66000 -0.095
56.68000 1.523
56.70000 2.462
56.72000 -1.646
56.74000 -1.213
56.76000 0.938
56.78000 4.827
56.80000 5.389
56.82000 3.458
56.84000 0.618
56.86000 0.626
56.88000 4.049
56.90000 2.240
56.92000 1.137
56.94000 -2.360
56.96000 -0.955
56.98000 0.663
57.00000 1.883
57.02000 1.845
57.04000 2.760
57.06000 0.706
57.08000 3.796
57.10000 0.728
57.12000 2.876
57.14000 -0.193
57.16000 0.124
57.18000 4.233
57.20000 2.125
57.22000 -0.941
57.24000 2.394
57.26000 -0.045
57.28000 -1.058
57.30000 1.869
57.32000 2.756
57.34000 1.943
57.36000 -0.446
57.38000 -0.519
57.40000 -2.065
57.42000 -0.688
57.44000 -1.950
57.46000 -2.488
57.48000 -0.530
57.50000 0.870
57.52000 2.819
57.54000 3.881
57.56000 2.471
57.58000 -2.485
57.60000 -1.631
57.62000 -1.467
57.64000 -1.036
57.66000 1.224
57.68000 3.332
57.70000 2.529
57.72000 1.223
57.74000 -0.357
57.76000 -2.132
57.78000 0.126
57.80000 0.898
57.82000 -0.231
57.84000 -0.338
57.86000 -0.194
57.88000 1.400
57.90000 1.020
57.92000 3.563
57.94000 5.458
57.96000 5.619
57.98000 4.012
58.00000 4.524
58.02000 1.702
58.04000 -0.760
58.06000 1.046
58.08000 -0.305
58.10000 -0.608
58.12000 0.301
58.14000 1.575
58.16000 4.921
58.18000 8.590
58.20000 7.185
58.22000 1.757
58.24000 -0.116
58.26000 3.141
58.28000 4.176
58.30000 5.616
58.32000 1.471
58.34000 -0.586
58.36000 2.023
58.38000 1.792
58.40000 -0.452
58.42000 0.826
58.44000 3.541
58.46000 1.473
58.48000 -1.090
58.50000 -1.700
58.52000 2.092
58.54000 2.972
58.56000 0.677
58.58000 -0.789
58.60000 1.681
58.62000 3.783
58.64000 4.499
58.66000 2.460
58.68000 4.151
58.70000 2.064
58.72000 -2.412
58.74000 -1.244
58.76000 0.807
58.78000 -0.287
58.80000 1.004
58.82000 2.466
58.84000 2.550
58.86000 5.132
58.88000 5.395
58.90000 3.436
58.92000 0.241
58.94000 2.906
58.96000 3.291
58.98000 0.849
59.00000 3.473
59.02000 1.239
59.04000 2.952
59.06000 3.695
59.08000 4.804
59.10000 2.497
59.12000 1.595
59.14000 3.080
59.16000 5.515
59.18000 5.213
59.20000 1.494
59.22000 2.688
59.24000 5.407
59.26000 1.804
59.28000 2.739
59.30000 2.353
59.32000 5.710
59.34000 1.609
59.36000 2.501
59.38000 2.355
59.40000 2.487
59.42000 1.361
59.44000 3.678
59.46000 0.404
59.48000 0.693
59.50000 2.467
59.52000 4.380
59.54000 0.838
59.56000 4.632
59.58000 2.166
59.60000 3.898
59.62000 5.074
59.64000 4.551
59.66000 5.227
59.68000 0.994
59.70000 1.177
59.72000 2.048
59.74000 7.215
59.76000 9.600
59.78000 3.737
59.80000 0.112
59.82000 -2.384
59.84000 -0.228
59.86000 0.903
59.88000 5.173
59.90000 6.391
59.92000 5.086
59.94000 4.303
59.96000 2.985
59.98000 2.514
60.00000 1.579
60.02000 2.325
60.04000 2.718
60.06000 3.503
60.08000 3.754
60.10000 -0.779
60.12000 0.070
60.14000 2.478
60.16000 3.296
60.18000 2.158
60.20000 1.935
60.22000 0.306
60.24000 0.957
60.26000 4.379
60.28000 5.103
60.30000 3.563
60.32000 7.250
60.34000 2.341
60.36000 -0.680
60.38000 0.158
60.40000 0.256
60.42000 1.071
60.44000 3.204
60.46000 0.945
60.48000 2.950
60.50000 4.743
60.52000 2.772
60.54000 1.304
60.56000 -0.902
60.58000 2.157
60.60000 5.970
60.62000 5.220
60.64000 3.811
60.66000 3.741
60.68000 2.867
60.70000 -0.012
60.72000 -0.682
60.74000 -0.086
60.76000 -0.378
60.78000 0.055
60.80000 1.168
60.82000 1.877
60.84000 1.695
60.86000 3.368
60.88000 3.157
60.90000 1.294
60.92000 1.645
60.94000 2.042
60.96000 2.010
60.98000 0.900
61.00000 1.226
61.02000 0.214
61.04000 3.123
61.06000 1.930
61.08000 0.153
61.10000 1.783
61.12000 2.073
61.14000 5.095
61.16000 7.170
61.18000 4.817
61.20000 2.054
61.22000 3.152
61.24000 2.631
61.26000 2.783
61.28000 4.132
61.30000 5.072
61.32000 8.496
61.34000 7.393
61.36000 6.345
61.38000 3.639
61.40000 2.725
61.42000 3.052
61.44000 2.243
61.46000 -0.269
61.48000 -2.313
61.50000 0.489
61.52000 4.686
61.54000 4.606
61.56000 1.014
61.58000 0.392
61.60000 1.476
61.62000 1.508
61.64000 3.426
61.66000 8.333
61.68000 6.251
61.70000 4.744
61.72000 6.637
61.74000 4.400
61.76000 -0.188
61.78000 0.747
61.80000 1.530
61.82000 3.046
61.84000 6.701
61.86000 3.987
61.88000 4.258
61.90000 2.406
61.92000 1.909
61.94000 8.991
61.96000 8.885
61.98000 6.878
62.00000 3.762
62.02000 5.452
62.04000 2.907
62.06000 1.724
62.08000 0.697
62.10000 2.089
62.12000 0.067
62.14000 3.964
62.16000 2.987
62.18000 -0.675
62.20000 4.090
62.22000 3.902
62.24000 3.514
62.26000 3.303
62.28000 4.381
62.30000 2.027
62.32000 4.019
62.34000 1.653
62.36000 0.171
62.38000 1.080
62.40000 0.387
62.42000 0.656
62.44000 0.680
62.46000 3.133
62.48000 6.829
62.50000 6.775
62.52000 5.197
62.54000 2.783
62.56000 1.858
62.58000 -0.125
62.60000 3.169
62.62000 1.696
62.64000 -0.191
62.66000 -0.259
62.68000 0.469
62.70000 -0.273
62.72000 -2.340
62.74000 -0.201
62.76000 0.108
62.78000 0.435
62.80000 3.452
62.82000 0.489
62.84000 -0.510
62.86000 1.259
62.88000 1.105
62.90000 1.374
62.92000 2.636
62.94000 2.095
62.96000 -1.076
62.98000 -0.489
63.00000 -2.346
63.02000 0.904
63.04000 5.046
63.06000 2.945
63.08000 0.833
63.10000 0.077
63.12000 0.690
63.14000 -1.882
63.16000 1.880
63.18000 4.147
63.20000 2.710
63.22000 0.397
63.24000 0.541
63.26000 -1.828
63.28000 -2.353
63.30000 -1.028
63.32000 -1.072
63.34000 0.126
63.36000 -0.425
63.38000 -1.357
63.40000 0.414
63.42000 2.928
63.44000 -0.967
63.46000 -2.117
63.48000 -1.724
63.50000 1.923
63.52000 2.105
63.54000 0.397
63.56000 -0.621
63.58000 -1.846
63.60000 -1.820
63.62000 -0.598
63.64000 -0.164
63.66000 -1.559
63.68000 -0.979
63.70000 0.829
63.72000 -2.365
63.74000 0.017
63.76000 3.944
63.78000 3.956
63.80000 0.953
63.82000 0.584
63.84000 -1.141
63.86000 -1.049
63.88000 -0.835
63.90000 0.466
63.92000 -0.404
63.94000 0.285
63.96000 1.188
63.98000 3.754
64.00000 2.018
64.02000 0.779
64.04000 1.872
64.06000 3.208
64.08000 -0.195
64.10000 1.388
64.12000 1.650
64.14000 2.041
64.16000 -1.620
64.18000 -2.087
64.20000 -2.179
64.22000 -1.676
64.24000 0.653
64.26000 0.789
64.28000 -1.549
64.30000 -2.144
64.32000 1.523
64.34000 2.757
64.36000 -0.825
64.38000 -0.692
64.40000 -1.921
64.42000 -2.358
64.44000 0.633
64.46000 0.049
64.48000 0.235
64.50000 -0.861
64.52000 -1.829
64.54000 -0.857
64.56000 0.549
64.58000 0.779
64.60000 4.177
64.62000 -0.729
64.64000 -2.350
64.66000 2.326
64.68000 7.807
64.70000 4.737
64.72000 -0.033
64.74000 0.413
64.76000 1.529
64.78000 1.206
64.80000 -0.392
64.82000 0.389
64.84000 3.974
64.86000 1.593
64.88000 4.079
64.90000 3.107
64.92000 -1.395
64.94000 0.331
64.96000 0.002
64.98000 -0.675
65.00000 0.722
65.02000 1.267
65.04000 1.113
65.06000 1.072
65.08000 0.558
65.10000 2.410
65.12000 3.552
65.14000 2.063
65.16000 2.230
65.18000 2.495
65.20000 2.197
65.22000 2.397
65.24000 0.869
65.26000 0.165
65.28000 0.978
65.30000 3.059
65.32000 -1.696
65.34000 -2.339
65.36000 1.668
65.38000 1.665
65.40000 1.546
65.42000 2.979
65.44000 2.042
65.46000 3.195
65.48000 2.523
65.50000 0.039
65.52000 -2.336
65.54000 2.020
65.56000 2.289
65.58000 3.713
65.60000 5.346
65.62000 4.563
65.64000 4.800
65.66000 4.037
65.68000 2.225
65.70000 1.898
65.72000 2.787
65.74000 2.230
65.76000 2.605
65.78000 1.247
65.80000 3.715
65.82000 5.748
65.84000 5.368
65.86000 1.274
65.88000 -1.305
65.90000 1.776
65.92000 2.054
65.94000 3.608
65.96000 2.880
65.98000 1.386
66.00000 1.524
66.02000 1.694
66.04000 1.129
66.06000 3.025
66.08000 0.413
66.10000 2.453
66.12000 2.884
66.14000 3.260
66.16000 2.953
66.18000 1.467
66.20000 3.299
66.22000 3.649
66.24000 4.870
66.26000 3.006
66.28000 3.752
66.30000 2.815
66.32000 -0.155
66.34000 -2.346
66.36000 1.087
66.38000 2.676
66.40000 2.355
66.42000 2.054
66.44000 1.871
66.46000 3.398
66.48000 5.186
66.50000 5.893
66.52000 3.340
66.54000 1.065
66.56000 0.064
66.58000 0.344
66.60000 -1.861
66.62000 -0.180
66.64000 -0.463
66.66000 2.919
66.68000 2.449
66.70000 -1.075
66.72000 -1.214
66.74000 2.817
66.76000 2.325
66.78000 1.772
66.80000 1.922
66.82000 -0.613
66.84000 -0.508
66.86000 3.116
66.88000 1.531
66.90000 2.067
66.92000 0.449
66.94000 -1.487
66.96000 0.168
66.98000 0.127
67.00000 -0.343
67.02000 2.160
67.04000 0.067
67.06000 -0.023
67.08000 1.234
67.10000 1.579
67.12000 -0.803
67.14000 2.189
67.16000 6.351
67.18000 4.468
67.20000 -1.471
67.22000 -0.701
67.24000 1.242
67.26000 3.370
67.28000 5.348
67.30000 8.858
67.32000 6.402
67.34000 3.839
67.36000 6.359
67.38000 4.641
67.40000 7.339
67.42000 6.359
67.44000 3.158
67.46000 3.191
67.48000 5.049
67.50000 6.803
67.52000 5.775
67.54000 2.163
67.56000 5.641
67.58000 9.008
67.60000 7.131
67.62000 9.307
67.64000 6.213
67.66000 7.167
67.68000 9.493
67.70000 9.993
67.72000 10.077
67.74000 10.302
67.76000 10.778
67.78000 9.847
67.80000 12.845
67.82000 13.418
67.84000 12.995
67.86000 15.149
67.88000 11.486
67.90000 11.026
67.92000 11.886
67.94000 13.969
67.96000 16.812
67.98000 17.420
68.00000 17.724
68.02000 16.725
68.04000 13.869
68.06000 19.213
68.08000 19.146
68.10000 17.020
68.12000 19.808
68.14000 22.632
68.16000 23.912
68.18000 24.770
68.20000 24.039
68.22000 23.167
68.24000 28.022
68.26000 28.883
68.28000 29.176
68.30000 26.974
68.32000 25.115
68.34000 26.908
68.36000 31.492
68.38000 30.599
68.40000 30.485
68.42000 35.006
68.44000 32.055
68.46000 29.200
68.48000 32.600
68.50000 38.137
68.52000 34.092
68.54000 35.442
68.56000 34.132
68.58000 36.078
68.60000 35.428
68.62000 36.308
68.64000 32.619
68.66000 30.980
68.68000 33.959
68.70000 35.111
68.72000 35.286
68.74000 33.797
68.76000 36.350
68.78000 39.629
68.80000 38.818
68.82000 39.369
68.84000 33.199
68.86000 31.123
68.88000 32.639
68.90000 33.377
68.92000 32.277
68.94000 33.737
68.96000 32.722
68.98000 30.555
69.00000 27.637
69.02000 24.370
69.04000 25.341
69.06000 23.779
69.08000 21.042
69.10000 20.876
69.12000 18.727
69.14000 20.977
69.16000 21.726
69.18000 22.718
69.20000 21.304
69.22000 20.217
69.24000 20.555
69.26000 15.191
69.28000 11.925
69.30000 8.909
69.32000 11.691
69.34000 13.047
69.36000 9.782
69.38000 10.436
69.40000 10.275
69.42000 9.059
69.44000 12.081
69.46000 13.383
69.48000 11.052
69.50000 9.428
69.52000 7.623
69.54000 6.829
69.56000 5.833
69.58000 6.672
69.60000 6.916
69.62000 5.389
69.64000 3.221
69.66000 4.478
69.68000 3.894
69.70000 4.010
69.72000 5.627
69.74000 3.940
69.76000 4.441
69.78000 5.717
69.80000 6.069
69.82000 0.655
69.84000 4.087
69.86000 2.926
69.88000 1.924
69.90000 1.744
69.92000 4.724
69.94000 2.496
69.96000 0.570
69.98000 1.283
70.00000 2.002
70.02000 5.730
70.04000 5.627
70.06000 5.503
70.08000 -0.805
70.10000 -1.641
70.12000 -0.739
70.14000 -2.328
70.16000 -1.198
70.18000 1.811
70.20000 3.546
70.22000 7.945
70.24000 6.731
70.26000 1.898
70.28000 1.093
70.30000 0.782
70.32000 2.740
70.34000 -1.706
70.36000 -1.435
70.38000 -0.154
70.40000 3.155
70.42000 4.291
70.44000 4.337
70.46000 2.912
70.48000 1.916
70.50000 3.878
70.52000 1.641
70.54000 1.038
70.56000 1.756
70.58000 4.603
70.60000 2.298
70.62000 2.534
70.64000 6.164
70.66000 4.867
70.68000 -0.884
70.70000 -2.065
70.72000 0.581
70.74000 4.675
70.76000 0.914
70.78000 -1.057
70.80000 2.256
70.82000 5.746
70.84000 2.260
70.86000 2.176
70.88000 0.148
70.90000 -2.080
70.92000 -2.294
70.94000 -0.213
70.96000 -0.442
70.98000 1.934
71.00000 1.253
71.02000 2.975
71.04000 4.033
71.06000 3.572
71.08000 3.017
71.10000 1.809
71.12000 4.180
71.14000 2.203
71.16000 2.399
71.18000 5.641
71.20000 0.202
71.22000 1.325
71.24000 2.798
71.26000 1.017
71.28000 -0.809
71.30000 -2.258
71.32000 -0.929
71.34000 0.671
71.36000 1.960
71.38000 2.659
71.40000 1.264
71.42000 -1.035
71.44000 -2.069
71.46000 0.166
71.48000 2.115
71.50000 -1.252
71.52000 -0.689
71.54000 0.060
71.56000 2.401
71.58000 0.396
71.60000 0.381
71.62000 2.892
71.64000 1.282
71.66000 -0.732
71.68000 0.986
71.70000 2.330
71.72000 2.398
71.74000 1.500
71.76000 -1.203
71.78000 -2.245
71.80000 1.457
71.82000 2.859
71.84000 3.087
71.86000 0.631
71.88000 -1.498
71.90000 -0.845
71.92000 -1.686
71.94000 -1.481
71.96000 -1.744
71.98000 2.469
72.00000 2.511
72.02000 6.638
72.04000 8.079
72.06000 2.411
72.08000 1.666
72.10000 0.183
72.12000 -0.209
72.14000 0.572
72.16000 4.035
72.18000 4.754
72.20000 6.628
72.22000 2.953
72.24000 -0.141
72.26000 1.533
72.28000 -0.878
72.30000 -0.185
72.32000 2.774
72.34000 2.309
72.36000 1.529
72.38000 2.213
72.40000 1.210
72.42000 0.558
72.44000 1.258
72.46000 4.741
72.48000 6.495
72.50000 10.946
72.52000 5.441
72.54000 4.454
72.56000 1.845
72.58000 0.714
72.60000 0.966
72.62000 2.251
72.64000 3.101
72.66000 5.849
72.68000 6.609
72.70000 9.022
72.72000 6.867
72.74000 0.021
72.76000 1.742
72.78000 8.198
72.80000 9.054
72.82000 5.295
72.84000 5.959
72.86000 4.053
72.88000 -1.787
72.90000 -2.140
72.92000 4.327
72.94000 7.770
72.96000 4.745
72.98000 1.844
73.00000 3.760
73.02000 5.204
73.04000 1.127
73.06000 0.261
73.08000 6.566
73.10000 5.053
73.12000 3.905
73.14000 3.997
73.16000 5.345
73.18000 2.512
73.20000 1.873
73.22000 -0.847
73.24000 1.542
73.26000 3.216
73.28000 8.551
73.30000 6.114
73.32000 3.781
73.34000 3.626
73.36000 0.043
73.38000 -0.920
73.40000 0.533
73.42000 8.158
73.44000 6.068
73.46000 3.858
73.48000 2.674
73.50000 3.613
73.52000 3.946
73.54000 4.227
73.56000 -0.109
73.58000 0.330
73.60000 -0.317
73.62000 4.372
73.64000 5.635
73.66000 3.326
73.68000 1.254
73.70000 1.763
73.72000 4.776
73.74000 1.685
73.76000 -0.501
73.78000 0.334
73.80000 2.192
73.82000 -1.059
73.84000 -0.453
73.86000 1.315
73.88000 2.606
73.90000 4.535
73.92000 1.055
73.94000 0.119
73.96000 -0.614
73.98000 1.757
74.00000 1.227
74.02000 0.191
74.04000 0.545
74.06000 -2.173
74.08000 0.505
74.10000 3.344
74.12000 5.512
74.14000 5.584
74.16000 3.756
74.18000 1.155
74.20000 0.459
74.22000 1.956
74.24000 2.367
74.26000 2.960
74.28000 -0.463
74.30000 -1.220
74.32000 -0.721
74.34000 0.085
74.36000 4.475
74.38000 2.324
74.40000 0.742
74.42000 0.344
74.44000 3.686
74.46000 1.752
74.48000 1.033
74.50000 3.527
74.52000 6.332
74.54000 3.455
74.56000 1.391
74.58000 -2.168
74.60000 0.058
74.62000 0.391
74.64000 3.798
74.66000 3.232
74.68000 3.210
74.70000 3.851
74.72000 4.357
74.74000 2.254
74.76000 3.534
74.78000 3.855
74.80000 -1.364
74.82000 -0.781
74.84000 5.129
74.86000 4.909
74.88000 1.643
74.90000 0.497
74.92000 0.017
74.94000 2.660
74.96000 6.509
74.98000 6.513
75.00000 3.515
75.02000 0.042
75.04000 -2.171
75.06000 0.992
75.08000 0.988
75.10000 1.206
75.12000 2.816
75.14000 1.543
75.16000 2.540
75.18000 5.595
75.20000 7.173
75.22000 3.127
75.24000 0.065
75.26000 3.159
75.28000 4.390
75.30000 5.035
75.32000 3.426
75.34000 4.475
75.36000 6.181
75.38000 6.052
75.40000 6.769
75.42000 7.482
75.44000 0.664
75.46000 2.450
75.48000 -1.713
75.50000 -2.169
75.52000 0.199
75.54000 5.294
75.56000 4.222
75.58000 0.928
75.60000 2.326
75.62000 3.467
75.64000 1.300
75.66000 -0.305
75.68000 -2.176
75.70000 1.997
75.72000 3.439
75.74000 7.344
75.76000 8.011
75.78000 4.741
75.80000 2.434
75.82000 2.750
75.84000 2.797
75.86000 3.256
75.88000 -0.542
75.90000 3.592
75.92000 5.795
75.94000 3.482
75.96000 6.496
75.98000 3.147
76.00000 -0.736
76.02000 1.289
76.04000 6.231
76.06000 4.518
76.08000 3.135
76.10000 2.748
76.12000 2.908
76.14000 4.967
76.16000 3.121
76.18000 2.584
76.20000 1.802
76.22000 1.268
76.24000 3.447
76.26000 1.544
76.28000 0.836
76.30000 1.363
76.32000 0.810
76.34000 -0.113
76.36000 5.085
76.38000 -2.187
76.40000 -1.213
76.42000 -0.054
76.44000 1.153
76.46000 1.052
76.48000 1.227
76.50000 -0.475
76.52000 1.692
76.54000 2.588
76.56000 2.220
76.58000 3.230
76.60000 3.387
76.62000 5.469
76.64000 4.968
76.66000 1.671
76.68000 1.193
76.70000 0.847
76.72000 0.307
76.74000 -0.310
76.76000 -1.760
76.78000 2.365
76.80000 5.093
76.82000 3.311
76.84000 3.058
76.86000 5.351
76.88000 3.734
76.90000 0.549
76.92000 -2.175
76.94000 -0.321
76.96000 2.339
76.98000 6.374
77.00000 5.260
77.02000 3.458
77.04000 4.017
77.06000 5.047
77.08000 1.902
77.10000 7.117
77.12000 4.973
77.14000 3.578
77.16000 -0.702
77.18000 -0.431
77.20000 0.203
77.22000 1.773
77.24000 -0.942
77.26000 -0.278
77.28000 -0.045
77.30000 1.466
77.32000 -0.329
77.34000 -1.068
77.36000 0.913
77.38000 1.853
77.40000 3.344
77.42000 3.993
77.44000 2.214
77.46000 4.604
77.48000 2.977
77.50000 3.084
77.52000 1.337
77.54000 1.093
77.56000 3.051
77.58000 2.632
77.60000 4.160
77.62000 0.036
77.64000 1.454
77.66000 3.247
77.68000 2.602
77.70000 0.159
77.72000 0.012
77.74000 0.179
77.76000 2.924
77.78000 1.042
77.80000 -1.782
77.82000 0.891
77.84000 1.599
77.86000 -1.377
77.88000 1.999
77.90000 4.092
77.92000 3.531
77.94000 -1.389
77.96000 0.833
77.98000 0.117
78.00000 1.479
78.02000 5.092
78.04000 2.148
78.06000 3.659
78.08000 1.043
78.10000 4.575
78.12000 3.670
78.14000 0.836
78.16000 0.041
78.18000 0.411
78.20000 -0.259
78.22000 1.501
78.24000 0.180
78.26000 -0.260
78.28000 0.063
78.30000 1.250
78.32000 1.584
78.34000 4.383
78.36000 0.801
78.38000 -0.113
78.40000 1.355
78.42000 -0.077
78.44000 -1.855
78.46000 1.671
78.48000 2.013
78.50000 3.353
78.52000 2.920
78.54000 3.496
78.56000 2.283
78.58000 -0.338
78.60000 1.562
78.62000 2.005
78.64000 -1.173
78.66000 -0.692
78.68000 2.328
78.70000 0.649
78.72000 0.874
78.74000 5.057
78.76000 7.584
78.78000 5.274
78.80000 3.851
78.82000 5.117
78.84000 4.065
78.86000 1.804
78.88000 4.356
78.90000 6.592
78.92000 4.575
78.94000 1.963
78.96000 0.131
78.98000 3.343
79.00000 6.058
79.02000 6.262
79.04000 3.373
79.06000 4.243
79.08000 -2.173
79.10000 1.795
79.12000 4.666
79.14000 4.680
79.16000 4.427
79.18000 3.929
79.20000 8.420
79.22000 9.918
79.24000 7.684
79.26000 8.224
79.28000 7.337
79.30000 6.158
79.32000 4.977
79.34000 1.781
79.36000 0.513
79.38000 4.198
79.40000 1.328
79.42000 -2.208
79.44000 1.337
79.46000 2.247
79.48000 1.410
79.50000 3.927
79.52000 5.864
79.54000 6.795
79.56000 4.525
79.58000 5.727
79.60000 4.950
79.62000 2.523
79.64000 0.236
79.66000 6.164
79.68000 6.978
79.70000 4.278
79.72000 5.137
79.74000 7.359
79.76000 1.552
79.78000 3.545
79.80000 5.821
79.82000 3.455
79.84000 2.660
79.86000 1.571
79.88000 3.164
79.90000 1.430
79.92000 -0.460
79.94000 0.103
79.96000 1.932
79.98000 5.616
80.00000 4.363
80.02000 0.950
80.04000 0.337
80.06000 2.858
80.08000 2.046
80.10000 1.856
80.12000 4.950
80.14000 1.863
80.16000 2.225
80.18000 1.136
80.20000 1.736
80.22000 1.251
80.24000 1.268
80.26000 1.838
80.28000 1.044
80.30000 -0.396
80.32000 1.947
80.34000 1.198
80.36000 4.803
80.38000 7.333
80.40000 5.872
80.42000 1.075
80.44000 3.156
80.46000 2.397
80.48000 3.004
80.50000 3.467
80.52000 0.539
80.54000 -2.288
80.56000 4.029
80.58000 6.176
80.60000 2.128
80.62000 0.359
80.64000 -0.043
80.66000 1.911
80.68000 -0.055
80.70000 1.905
80.72000 4.441
80.74000 1.687
80.76000 3.382
80.78000 9.730
80.80000 6.026
80.82000 1.462
80.84000 2.711
80.86000 4.455
80.88000 5.817
80.90000 4.425
80.92000 2.011
80.94000 3.263
80.96000 2.853
80.98000 4.544
81.00000 1.316
81.02000 1.125
81.04000 -1.401
81.06000 4.129
81.08000 1.554
81.10000 -2.377
81.12000 0.005
81.14000 0.884
81.16000 0.995
81.18000 4.176
81.20000 5.686
81.22000 6.765
81.24000 5.445
81.26000 3.108
81.28000 3.392
81.30000 6.938
81.32000 7.754
81.34000 3.774
81.36000 6.654
81.38000 7.968
81.40000 5.615
81.42000 4.791
81.44000 2.382
81.46000 5.092
81.48000 7.192
81.50000 7.659
81.52000 5.822
81.54000 0.907
81.56000 3.824
81.58000 11.187
81.60000 6.934
81.62000 7.207
81.64000 13.994
81.66000 14.375
81.68000 14.737
81.70000 11.986
81.72000 9.325
81.74000 12.786
81.76000 12.036
81.78000 15.374
81.80000 14.916
81.82000 8.465
81.84000 10.839
81.86000 16.762
81.88000 15.737
81.90000 12.801
81.92000 13.497
81.94000 18.136
81.96000 14.029
81.98000 17.218
82.00000 23.483
82.02000 19.408
82.04000 20.917
82.06000 22.389
82.08000 25.284
82.10000 26.434
82.12000 22.440
82.14000 24.148
82.16000 23.827
82.18000 24.337
82.20000 27.195
82.22000 29.292
82.24000 31.127
82.26000 28.299
82.28000 27.387
82.30000 27.615
82.32000 28.698
82.34000 35.011
82.36000 36.954
82.38000 35.661
82.40000 29.468
82.42000 30.947
82.44000 37.830
82.46000 41.604
82.48000 39.283
82.50000 34.667
82.52000 40.390
82.54000 43.626
82.56000 43.154
82.58000 41.523
82.60000 41.035
82.62000 45.685
82.64000 44.238
82.66000 44.031
82.68000 45.321
82.70000 47.313
82.72000 48.917
82.74000 44.547
82.76000 47.326
82.78000 46.356
82.80000 46.868
82.82000 46.605
82.84000 46.663
82.86000 49.549
82.88000 52.324
82.90000 46.545
82.92000 43.959
82.94000 39.633
82.96000 44.056
82.98000 50.544
83.00000 46.438
83.02000 44.529
83.04000 48.777
83.06000 43.798
83.08000 37.188
83.10000 38.210
83.12000 38.482
83.14000 38.218
83.16000 39.191
83.18000 42.291
83.20000 40.978
83.22000 37.811
83.24000 37.152
83.26000 34.789
83.28000 35.215
83.30000 37.116
83.32000 33.966
83.34000 29.387
83.36000 25.152
83.38000 28.457
83.40000 26.962
83.42000 23.591
83.44000 24.815
83.46000 27.892
83.48000 26.484
83.50000 21.336
83.52000 26.750
83.54000 27.977
83.56000 22.225
83.58000 18.710
83.60000 17.075
83.62000 18.565
83.64000 18.685
83.66000 17.187
83.68000 12.260
83.70000 13.147
83.72000 13.812
83.74000 11.716
83.76000 14.614
83.78000 19.561
83.80000 14.328
83.82000 8.700
83.84000 6.791
83.86000 3.907
83.88000 5.099
83.90000 5.456
83.92000 8.830
83.94000 4.781
83.96000 5.618
83.98000 3.814
84.00000 3.601
84.02000 1.859
84.04000 5.924
84.06000 5.063
84.08000 8.531
84.10000 7.259
84.12000 7.245
84.14000 6.751
84.16000 3.521
84.18000 1.799
84.20000 4.950
84.22000 5.667
84.24000 2.292
84.26000 -0.949
84.28000 -0.479
84.30000 -2.109
84.32000 2.552
84.34000 3.077
84.36000 5.869
84.38000 8.949
84.40000 3.128
84.42000 4.212
84.44000 1.773
84.46000 -0.536
84.48000 -0.311
84.50000 -0.349
84.52000 -2.351
84.54000 -1.055
84.56000 2.091
84.58000 3.693
84.60000 3.903
84.62000 0.101
84.64000 -0.821
84.66000 4.908
84.68000 3.980
84.70000 2.017
84.72000 3.335
84.74000 3.153
84.76000 0.263
84.78000 -2.057
84.80000 1.997
84.82000 -0.992
84.84000 -2.270
84.86000 -0.981
84.88000 -0.222
84.90000 3.144
84.92000 3.614
84.94000 5.298
84.96000 1.471
84.98000 -0.301
85.00000 -2.021
85.02000 -0.929
85.04000 1.821
85.06000 3.999
85.08000 1.528
85.10000 -0.229
85.12000 2.007
85.14000 7.289
85.16000 4.255
85.18000 6.265
85.20000 -0.650
85.22000 -2.292
85.24000 1.925
85.26000 5.558
85.28000 5.592
85.30000 4.407
85.32000 -0.470
85.34000 -0.978
85.36000 1.522
85.38000 -2.290
85.40000 -0.465
85.42000 4.714
85.44000 2.616
85.46000 3.035
85.48000 2.699
85.50000 0.004
85.52000 2.175
85.54000 3.117
85.56000 0.220
85.58000 2.130
85.60000 1.210
85.62000 1.576
85.64000 1.812
85.66000 2.516
85.68000 -0.164
85.70000 -1.552
85.72000 2.394
85.74000 -1.120
85.76000 -1.898
85.78000 -0.405
85.80000 5.739
85.82000 6.835
85.84000 6.970
85.86000 2.661
85.88000 -1.707
85.90000 -2.330
85.92000 1.227
85.94000 2.581
85.96000 2.877
85.98000 -1.213
86.00000 -0.912
86.02000 1.224
86.04000 2.041
86.06000 1.557
86.08000 0.559
86.10000 2.589
86.12000 5.964
86.14000 2.933
86.16000 3.062
86.18000 3.647
86.20000 2.436
86.22000 3.526
86.24000 5.131
86.26000 7.593
86.28000 3.457
86.30000 2.103
86.32000 4.690
86.34000 3.986
86.36000 -0.616
86.38000 3.021
86.40000 9.049
86.42000 6.802
86.44000 8.614
86.46000 11.123
86.48000 10.579
86.50000 8.753
86.52000 7.363
86.54000 10.679
86.56000 16.062
86.58000 16.278
86.60000 13.512
86.62000 12.140
86.64000 13.787
86.66000 16.242
86.68000 17.239
86.70000 14.872
86.72000 13.071
86.74000 13.065
86.76000 19.563
86.78000 17.185
86.80000 17.358
86.82000 18.544
86.84000 20.825
86.86000 17.103
86.88000 18.810
86.90000 21.822
86.92000 24.344
86.94000 25.441
86.96000 27.046
86.98000 24.986
87.00000 26.260
87.02000 29.182
87.04000 24.137
87.06000 24.380
87.08000 23.775
87.10000 24.483
87.12000 20.921
87.14000 25.076
87.16000 28.483
87.18000 27.193
87.20000 25.808
87.22000 25.002
87.24000 23.904
87.26000 20.915
87.28000 21.812
87.30000 23.660
87.32000 24.191
87.34000 25.457
87.36000 26.039
87.38000 27.144
87.40000 22.703
87.42000 18.066
87.44000 17.436
87.46000 20.817
87.48000 18.978
87.50000 23.319
87.52000 22.326
87.54000 19.167
87.56000 18.400
87.58000 22.584
87.60000 20.394
87.62000 20.682
87.64000 18.314
87.66000 16.225
87.68000 14.725
87.70000 16.313
87.72000 16.038
87.74000 14.663
87.76000 15.299
87.78000 14.665
87.80000 10.048
87.82000 6.781
87.84000 9.775
87.86000 16.452
87.88000 15.187
87.90000 11.670
87.92000 8.526
87.94000 9.460
87.96000 11.394
87.98000 7.081
88.00000 9.522
88.02000 12.829
88.04000 10.620
88.06000 5.918
88.08000 8.993
88.10000 6.070
88.12000 2.904
88.14000 5.987
88.16000 5.627
88.18000 3.067
88.20000 4.226
88.22000 0.983
88.24000 5.856
88.26000 7.116
88.28000 6.912
88.30000 4.715
88.32000 2.883
88.34000 3.760
88.36000 3.907
88.38000 2.787
88.40000 1.788
88.42000 0.113
88.44000 5.278
88.46000 5.028
88.48000 2.443
88.50000 3.672
88.52000 3.253
88.54000 4.568
88.56000 3.580
88.58000 1.545
88.60000 -0.101
88.62000 4.744
88.64000 1.851
88.66000 -0.779
88.68000 0.940
88.70000 2.073
88.72000 4.793
88.74000 0.159
88.76000 -2.151
88.78000 -1.158
88.80000 1.350
88.82000 4.129
88.84000 3.171
88.86000 4.939
88.88000 1.866
88.90000 1.910
88.92000 3.115
88.94000 1.592
88.96000 4.350
88.98000 1.833
89.00000 3.268
89.02000 1.267
89.04000 2.498
89.06000 3.027
89.08000 -1.041
89.10000 -2.111
89.12000 1.466
89.14000 1.989
89.16000 2.458
89.18000 0.088
89.20000 1.248
89.22000 5.230
89.24000 6.577
89.26000 3.617
89.28000 1.797
89.30000 5.493
89.32000 6.010
89.34000 2.499
89.36000 5.152
89.38000 5.905
89.40000 2.996
89.42000 -2.076
89.44000 0.538
89.46000 4.545
89.48000 2.371
89.50000 -0.257
89.52000 -0.573
89.54000 -0.709
89.56000 1.048
89.58000 0.318
89.60000 1.630
89.62000 5.673
89.64000 -0.781
89.66000 3.366
89.68000 0.970
89.70000 2.070
89.72000 1.601
89.74000 2.030
89.76000 1.136
89.78000 -0.335
89.80000 0.056
89.82000 4.508
89.84000 1.960
89.86000 0.476
89.88000 0.339
89.90000 -0.139
89.92000 1.604
89.94000 1.325
89.96000 0.696
89.98000 -0.746
90.00000 -1.125
90.02000 0.681
90.04000 1.565
90.06000 -0.041
90.08000 0.400
90.10000 -0.228
90.12000 3.893
90.14000 0.130
90.16000 -0.051
90.18000 0.371
90.20000 1.622
90.22000 -0.502
90.24000 0.526
90.26000 0.357
90.28000 -0.591
90.30000 0.606
90.32000 0.654
90.34000 0.597
90.36000 4.149
90.38000 3.918
90.40000 2.039
90.42000 2.310
90.44000 2.169
90.46000 2.167
90.48000 -1.425
90.50000 4.049
90.52000 4.188
90.54000 2.324
90.56000 1.283
90.58000 3.411
90.60000 0.733
90.62000 0.227
90.64000 1.099
90.66000 -1.095
90.68000 -0.680
90.70000 -1.137
90.72000 0.508
90.74000 1.008
90.76000 -1.332
90.78000 1.024
90.80000 2.625
90.82000 2.820
90.84000 2.109
90.86000 6.893
90.88000 4.803
90.90000 3.072
90.92000 8.363
90.94000 10.785
90.96000 8.113
90.98000 6.228
91.00000 3.380
91.02000 5.260
91.04000 2.482
91.06000 1.283
91.08000 2.758
91.10000 3.816
91.12000 6.345
91.14000 8.029
91.16000 4.967
91.18000 3.001
91.20000 -1.731
91.22000 -2.020
91.24000 1.844
91.26000 3.465
91.28000 5.445
91.30000 7.067
91.32000 2.983
91.34000 3.922
91.36000 5.406
91.38000 4.100
91.40000 3.718
91.42000 3.665
91.44000 3.837
91.46000 5.360
91.48000 5.806
91.50000 2.893
91.52000 2.996
91.54000 2.733
91.56000 2.251
91.58000 2.735
91.60000 0.506
91.62000 0.761
91.64000 1.755
91.66000 3.724
91.68000 4.813
91.70000 3.546
91.72000 3.811
91.74000 3.368
91.76000 2.124
91.78000 6.527
91.80000 6.279
91.82000 6.588
91.84000 3.531
91.86000 1.944
91.88000 3.739
91.90000 0.004
91.92000 -0.958
91.94000 -0.717
91.96000 -1.153
91.98000 3.893
92.00000 1.781
92.02000 0.161
92.04000 2.594
92.06000 0.540
92.08000 5.974
92.10000 4.762
92.12000 2.034
92.14000 7.251
92.16000 6.095
92.18000 4.348
92.20000 4.330
92.22000 5.137
92.24000 4.556
92.26000 7.836
92.28000 5.183
92.30000 4.007
92.32000 2.871
92.34000 2.749
92.36000 0.943
92.38000 0.279
92.40000 0.941
92.42000 1.367
92.44000 -1.592
92.46000 -0.533
92.48000 0.302
92.50000 -0.243
92.52000 5.103
92.54000 5.224
92.56000 7.577
92.58000 5.030
92.60000 0.867
92.62000 3.763
92.64000 7.812
92.66000 7.473
92.68000 5.296
92.70000 3.730
92.72000 8.423
92.74000 3.800
92.76000 4.196
92.78000 3.562
92.80000 4.305
92.82000 5.447
92.84000 5.186
92.86000 7.072
92.88000 5.534
92.90000 1.908
92.92000 1.146
92.94000 3.836
92.96000 7.737
92.98000 5.651
93.00000 4.450
93.02000 -2.008
93.04000 3.949
93.06000 7.988
93.08000 6.986
93.10000 9.718
93.12000 7.371
93.14000 2.767
93.16000 0.462
93.18000 3.635
93.20000 2.767
93.22000 1.463
93.24000 3.596
93.26000 8.074
93.28000 10.400
93.30000 5.626
93.32000 6.279
93.34000 6.575
93.36000 2.148
93.38000 -2.039
93.40000 -1.014
93.42000 -0.036
93.44000 0.632
93.46000 3.139
93.48000 5.133
93.50000 4.509
93.52000 4.436
93.54000 4.175
93.56000 0.954
93.58000 0.074
93.60000 -0.440
93.62000 0.305
93.64000 5.675
93.66000 9.264
93.68000 10.518
93.70000 6.156
93.72000 1.472
93.74000 0.144
93.76000 1.364
93.78000 -1.646
93.80000 1.778
93.82000 2.744
93.84000 2.011
93.86000 3.593
93.88000 5.095
93.90000 2.741
93.92000 -0.125
93.94000 -1.750
93.96000 1.529
93.98000 3.793
94.00000 5.808
94.02000 -0.103
94.04000 0.210
94.06000 6.002
94.08000 3.743
94.10000 5.177
94.12000 6.023
94.14000 3.549
94.16000 0.926
94.18000 2.737
94.20000 2.458
94.22000 2.468
94.24000 2.261
94.26000 1.028
94.28000 -0.911
94.30000 -1.770
94.32000 5.318
94.34000 6.549
94.36000 8.299
94.38000 3.972
94.40000 1.088
94.42000 2.423
94.44000 4.941
94.46000 1.439
94.48000 0.899
94.50000 3.491
94.52000 6.823
94.54000 4.566
94.56000 -0.259
94.58000 1.202
94.60000 1.108
94.62000 2.719
94.64000 5.758
94.66000 3.888
94.68000 6.937
94.70000 9.651
94.72000 6.704
94.74000 3.603
94.76000 3.677
94.78000 5.567
94.80000 8.013
94.82000 7.541
94.84000 3.895
94.86000 5.928
94.88000 5.453
94.90000 7.022
94.92000 4.596
94.94000 4.463
94.96000 4.668
94.98000 3.306
95.00000 7.990
95.02000 7.153
95.04000 3.393
95.06000 -0.668
95.08000 -2.033
95.10000 3.111
95.12000 3.584
95.14000 0.314
95.16000 4.428
95.18000 5.780
95.20000 -1.765
95.22000 -0.720
95.24000 2.048
95.26000 4.863
95.28000 4.359
95.30000 8.603
95.32000 6.360
95.34000 3.416
95.36000 7.885
95.38000 9.618
95.40000 3.127
95.42000 3.669
95.44000 8.928
95.46000 8.296
95.48000 4.918
95.50000 8.032
95.52000 4.642
95.54000 3.885
95.56000 2.359
95.58000 2.008
95.60000 1.045
95.62000 4.419
95.64000 7.952
95.66000 5.682
95.68000 6.131
95.70000 9.640
95.72000 4.761
95.74000 2.858
95.76000 5.034
95.78000 9.799
95.80000 10.059
95.82000 7.013
95.84000 2.320
95.86000 -2.035
95.88000 1.099
95.90000 6.344
95.92000 4.583
95.94000 7.839
95.96000 5.832
95.98000 3.317
96.00000 5.153
96.02000 1.002
96.04000 2.519
96.06000 5.241
96.08000 3.527
96.10000 0.747
96.12000 -0.310
96.14000 1.761
96.16000 10.208
96.18000 10.806
96.20000 7.524
96.22000 6.505
96.24000 9.649
96.26000 4.786
96.28000 4.675
96.30000 6.359
96.32000 5.682
96.34000 1.394
96.36000 2.911
96.38000 6.492
96.40000 6.923
96.42000 3.322
96.44000 3.149
96.46000 14.046
96.48000 11.157
96.50000 7.118
96.52000 5.353
96.54000 1.838
96.56000 4.201
96.58000 4.597
96.60000 3.681
96.62000 0.085
96.64000 5.930
96.66000 4.040
96.68000 8.731
96.70000 6.218
96.72000 6.576
96.74000 4.584
96.76000 3.764
96.78000 4.756
96.80000 3.172
96.82000 2.657
96.84000 3.189
96.86000 6.802
96.88000 3.771
96.90000 6.385
96.92000 2.547
96.94000 0.561
96.96000 2.947
96.98000 4.425
97.00000 4.834
97.02000 0.737
97.04000 7.565
97.06000 10.732
97.08000 9.820
97.10000 4.577
97.12000 3.996
97.14000 3.093
97.16000 6.986
97.18000 5.523
97.20000 5.850
97.22000 1.678
97.24000 -1.996
97.26000 2.004
97.28000 5.248
97.30000 1.157
97.32000 10.884
97.34000 9.506
97.36000 8.878
97.38000 5.974
97.40000 12.529
97.42000 9.818
97.44000 4.647
97.46000 0.828
97.48000 7.737
97.50000 11.914
97.52000 9.009
97.54000 5.480
97.56000 3.074
97.58000 7.399
97.60000 4.956
97.62000 1.853
97.64000 3.447
97.66000 5.970
97.68000 8.982
97.70000 10.307
97.72000 9.457
97.74000 9.030
97.76000 5.531
97.78000 5.258
97.80000 4.772
97.82000 4.155
97.84000 6.678
97.86000 6.094
97.88000 6.482
97.90000 0.866
97.92000 -1.029
97.94000 2.211
97.96000 5.669
97.98000 4.992
98.00000 5.840
98.02000 2.340
98.04000 4.837
98.06000 2.353
98.08000 -2.000
98.10000 -0.454
98.12000 3.321
98.14000 3.771
98.16000 3.828
98.18000 2.118
98.20000 8.859
98.22000 5.634
98.24000 -1.382
98.26000 4.117
98.28000 2.517
98.30000 4.714
98.32000 2.070
98.34000 4.265
98.36000 2.835
98.38000 9.783
98.40000 6.330
98.42000 4.622
98.44000 13.907
98.46000 9.907
98.48000 5.349
98.50000 0.062
98.52000 4.809
98.54000 7.823
98.56000 7.457
98.58000 10.272
98.60000 11.591
98.62000 8.292
98.64000 6.857
98.66000 5.724
98.68000 7.325
98.70000 9.275
98.72000 6.784
98.74000 5.997
98.76000 4.450
98.78000 3.383
98.80000 7.191
98.82000 5.144
98.84000 8.795
98.86000 4.228
98.88000 3.009
98.90000 9.271
98.92000 6.016
98.94000 4.358
98.96000 12.084
98.98000 11.096
99.00000 9.797
99.02000 8.362
99.04000 6.220
99.06000 7.993
99.08000 1.385
99.10000 5.896
99.12000 7.285
99.14000 0.917
99.16000 4.924
99.18000 7.480
99.20000 9.772
99.22000 5.231
99.24000 2.551
99.26000 3.024
99.28000 5.408
99.30000 7.978
99.32000 4.983
99.34000 4.156
99.36000 9.433
99.38000 3.915
99.40000 -1.087
99.42000 5.304
99.44000 6.718
99.46000 9.100
99.48000 8.459
99.50000 14.165
99.52000 12.418
99.54000 6.747
99.56000 8.449
99.58000 2.866
99.60000 7.080
99.62000 9.444
99.64000 8.342
99.66000 3.728
99.68000 -2.520
99.70000 5.883
99.72000 8.415
99.74000 6.105
99.76000 15.601
99.78000 16.712
99.80000 9.977
99.82000 6.439
99.84000 3.161
99.86000 9.959
99.88000 3.834
99.90000 -3.733
99.92000 7.236
99.94000 9.394
99.96000 13.009
99.98000 0.000
