'Id: "0011388" Comment: "Integrate frame 0011388_Au-Ir-Rh_Rh-rich_XRD-Mapping-137-0000.gfrmwith cursor Wedge Cursor #5" Operator: "B?rgel" Anode: "Cu" Wavelength: "1.5406" Scantype: "2Theta (TwoTheta)" TimePerStep: "1" X: "-40.5" Y: "-4.5" Z: "5.95" 
10.00000 0.000
10.02000 -4.638
10.04000 0.047
10.06000 -0.289
10.08000 4.053
10.10000 1.030
10.12000 12.592
10.14000 -0.255
10.16000 -2.088
10.18000 3.261
10.20000 7.983
10.22000 12.627
10.24000 8.872
10.26000 -4.492
10.28000 -0.758
10.30000 9.889
10.32000 6.081
10.34000 -4.258
10.36000 8.885
10.38000 19.041
10.40000 8.182
10.42000 25.175
10.44000 22.276
10.46000 16.527
10.48000 -4.434
10.50000 -0.177
10.52000 3.031
10.54000 12.481
10.56000 18.841
10.58000 20.148
10.60000 -0.798
10.62000 2.507
10.64000 5.627
10.66000 5.811
10.68000 14.913
10.70000 4.700
10.72000 14.734
10.74000 26.020
10.76000 17.441
10.78000 23.232
10.80000 16.949
10.82000 7.795
10.84000 -0.174
10.86000 -4.457
10.88000 14.464
10.90000 5.966
10.92000 18.175
10.94000 37.555
10.96000 28.392
10.98000 14.471
11.00000 11.819
11.02000 -1.844
11.04000 1.770
11.06000 11.475
11.08000 13.767
11.10000 18.404
11.12000 8.986
11.14000 9.125
11.16000 0.113
11.18000 5.100
11.20000 11.187
11.22000 19.542
11.24000 29.802
11.26000 25.376
11.28000 13.518
11.30000 14.171
11.32000 22.477
11.34000 21.826
11.36000 20.798
11.38000 24.101
11.40000 24.707
11.42000 19.279
11.44000 12.532
11.46000 11.870
11.48000 3.250
11.50000 6.207
11.52000 2.375
11.54000 8.800
11.56000 13.041
11.58000 13.406
11.60000 13.555
11.62000 6.913
11.64000 4.991
11.66000 5.194
11.68000 9.259
11.70000 13.558
11.72000 16.522
11.74000 17.867
11.76000 11.926
11.78000 7.170
11.80000 11.508
11.82000 18.281
11.84000 10.303
11.86000 17.768
11.88000 24.420
11.90000 20.148
11.92000 13.307
11.94000 19.059
11.96000 28.486
11.98000 13.035
12.00000 -0.496
12.02000 -2.437
12.04000 12.457
12.06000 9.856
12.08000 8.222
12.10000 2.145
12.12000 5.414
12.14000 6.931
12.16000 10.552
12.18000 5.948
12.20000 -4.499
12.22000 4.309
12.24000 5.443
12.26000 12.464
12.28000 4.491
12.30000 -1.483
12.32000 0.359
12.34000 12.076
12.36000 5.650
12.38000 5.636
12.40000 2.280
12.42000 -2.180
12.44000 3.050
12.46000 12.099
12.48000 12.463
12.50000 6.861
12.52000 8.320
12.54000 8.094
12.56000 7.492
12.58000 11.565
12.60000 13.343
12.62000 10.409
12.64000 16.813
12.66000 15.386
12.68000 7.539
12.70000 8.596
12.72000 13.065
12.74000 9.168
12.76000 -4.244
12.78000 4.174
12.80000 9.390
12.82000 8.684
12.84000 5.086
12.86000 11.627
12.88000 0.165
12.90000 -4.348
12.92000 6.263
12.94000 13.994
12.96000 17.394
12.98000 12.742
13.00000 1.671
13.02000 1.032
13.04000 8.450
13.06000 3.142
13.08000 4.903
13.10000 6.560
13.12000 4.578
13.14000 10.095
13.16000 13.590
13.18000 15.629
13.20000 10.082
13.22000 4.888
13.24000 7.832
13.26000 2.941
13.28000 0.741
13.30000 7.823
13.32000 10.989
13.34000 12.318
13.36000 9.828
13.38000 3.094
13.40000 1.589
13.42000 1.145
13.44000 0.352
13.46000 -1.494
13.48000 -4.057
13.50000 -2.374
13.52000 3.223
13.54000 9.296
13.56000 -0.157
13.58000 12.298
13.60000 11.705
13.62000 7.551
13.64000 0.421
13.66000 -1.439
13.68000 6.909
13.70000 1.835
13.72000 5.490
13.74000 7.235
13.76000 6.556
13.78000 -0.040
13.80000 -4.498
13.82000 3.362
13.84000 13.355
13.86000 9.886
13.88000 1.584
13.90000 5.838
13.92000 7.357
13.94000 4.487
13.96000 6.480
13.98000 2.060
14.00000 6.229
14.02000 10.180
14.04000 9.805
14.06000 -3.473
14.08000 -3.380
14.10000 7.736
14.12000 2.871
14.14000 -3.266
14.16000 7.340
14.18000 14.572
14.20000 10.447
14.22000 14.208
14.24000 5.729
14.26000 2.269
14.28000 -1.645
14.30000 5.294
14.32000 6.134
14.34000 2.744
14.36000 12.284
14.38000 14.342
14.40000 2.230
14.42000 -2.243
14.44000 -1.762
14.46000 6.920
14.48000 5.649
14.50000 5.807
14.52000 6.235
14.54000 5.862
14.56000 11.775
14.58000 12.333
14.60000 14.787
14.62000 11.740
14.64000 3.685
14.66000 7.034
14.68000 16.913
14.70000 17.182
14.72000 7.427
14.74000 3.542
14.76000 5.884
14.78000 12.415
14.80000 8.963
14.82000 3.299
14.84000 -2.372
14.86000 4.798
14.88000 7.998
14.90000 9.541
14.92000 8.401
14.94000 7.316
14.96000 6.982
14.98000 -2.816
15.00000 5.778
15.02000 2.323
15.04000 2.050
15.06000 8.358
15.08000 10.018
15.10000 5.592
15.12000 3.925
15.14000 -4.475
15.16000 3.977
15.18000 2.806
15.20000 3.329
15.22000 2.679
15.24000 9.316
15.26000 5.096
15.28000 7.285
15.30000 3.740
15.32000 1.434
15.34000 -0.539
15.36000 1.094
15.38000 9.731
15.40000 -2.951
15.42000 1.492
15.44000 11.654
15.46000 8.982
15.48000 -1.904
15.50000 2.221
15.52000 11.002
15.54000 5.619
15.56000 -1.988
15.58000 4.497
15.60000 2.632
15.62000 10.044
15.64000 13.706
15.66000 5.283
15.68000 6.161
15.70000 1.982
15.72000 -2.876
15.74000 -2.542
15.76000 0.669
15.78000 5.827
15.80000 4.738
15.82000 -0.352
15.84000 7.875
15.86000 7.208
15.88000 6.691
15.90000 6.216
15.92000 7.849
15.94000 9.683
15.96000 16.561
15.98000 15.894
16.00000 12.978
16.02000 2.288
16.04000 3.581
16.06000 3.783
16.08000 0.453
16.10000 9.626
16.12000 9.043
16.14000 11.303
16.16000 8.137
16.18000 6.600
16.20000 9.838
16.22000 18.540
16.24000 6.368
16.26000 3.116
16.28000 4.417
16.30000 6.697
16.32000 8.740
16.34000 7.771
16.36000 12.339
16.38000 14.342
16.40000 9.300
16.42000 8.345
16.44000 3.748
16.46000 -0.287
16.48000 4.396
16.50000 2.364
16.52000 7.245
16.54000 9.631
16.56000 2.254
16.58000 7.156
16.60000 5.587
16.62000 7.390
16.64000 12.467
16.66000 4.823
16.68000 3.379
16.70000 2.357
16.72000 4.583
16.74000 4.738
16.76000 11.952
16.78000 15.145
16.80000 9.145
16.82000 4.500
16.84000 1.648
16.86000 5.780
16.88000 6.770
16.90000 4.934
16.92000 -2.486
16.94000 6.855
16.96000 12.284
16.98000 3.500
17.00000 5.978
17.02000 12.442
17.04000 10.269
17.06000 11.581
17.08000 4.118
17.10000 5.094
17.12000 7.987
17.14000 9.840
17.16000 9.821
17.18000 8.827
17.20000 5.121
17.22000 18.060
17.24000 12.691
17.26000 4.935
17.28000 8.512
17.30000 13.281
17.32000 12.187
17.34000 8.474
17.36000 10.896
17.38000 9.882
17.40000 6.915
17.42000 9.335
17.44000 11.604
17.46000 14.333
17.48000 8.410
17.50000 7.677
17.52000 6.412
17.54000 7.934
17.56000 10.229
17.58000 7.778
17.60000 4.570
17.62000 6.045
17.64000 6.563
17.66000 11.271
17.68000 17.165
17.70000 15.238
17.72000 9.853
17.74000 8.762
17.76000 7.461
17.78000 7.285
17.80000 14.223
17.82000 6.153
17.84000 -4.257
17.86000 0.700
17.88000 3.898
17.90000 12.159
17.92000 15.105
17.94000 15.120
17.96000 14.755
17.98000 11.094
18.00000 7.158
18.02000 2.041
18.04000 2.031
18.06000 6.082
18.08000 6.993
18.10000 6.139
18.12000 11.893
18.14000 14.097
18.16000 7.262
18.18000 10.459
18.20000 9.683
18.22000 7.850
18.24000 8.326
18.26000 13.340
18.28000 12.912
18.30000 8.827
18.32000 8.990
18.34000 2.348
18.36000 5.610
18.38000 12.683
18.40000 7.755
18.42000 5.433
18.44000 4.054
18.46000 7.217
18.48000 12.748
18.50000 4.616
18.52000 -4.256
18.54000 4.800
18.56000 10.180
18.58000 9.269
18.60000 9.610
18.62000 2.238
18.64000 4.736
18.66000 9.560
18.68000 10.650
18.70000 9.483
18.72000 8.456
18.74000 6.544
18.76000 8.535
18.78000 8.590
18.80000 9.744
18.82000 8.540
18.84000 8.751
18.86000 6.381
18.88000 4.950
18.90000 13.721
18.92000 13.149
18.94000 5.771
18.96000 6.594
18.98000 9.335
19.00000 3.885
19.02000 1.895
19.04000 4.982
19.06000 2.602
19.08000 6.634
19.10000 11.314
19.12000 9.583
19.14000 2.168
19.16000 1.760
19.18000 -0.999
19.20000 4.620
19.22000 4.415
19.24000 -2.175
19.26000 -4.251
19.28000 -1.757
19.30000 2.782
19.32000 3.151
19.34000 7.942
19.36000 5.468
19.38000 -2.565
19.40000 -0.071
19.42000 -1.071
19.44000 3.644
19.46000 3.235
19.48000 2.008
19.50000 2.491
19.52000 0.810
19.54000 8.839
19.56000 9.005
19.58000 4.513
19.60000 3.385
19.62000 -0.187
19.64000 2.256
19.66000 8.226
19.68000 10.988
19.70000 6.947
19.72000 3.919
19.74000 4.143
19.76000 -1.011
19.78000 1.581
19.80000 0.860
19.82000 -2.824
19.84000 4.553
19.86000 5.694
19.88000 2.775
19.90000 3.842
19.92000 2.862
19.94000 1.716
19.96000 4.744
19.98000 0.036
20.00000 0.907
20.02000 -1.340
20.04000 4.425
20.06000 5.914
20.08000 6.147
20.10000 5.696
20.12000 5.370
20.14000 -0.493
20.16000 -0.976
20.18000 0.711
20.20000 -3.381
20.22000 -1.474
20.24000 -4.013
20.26000 1.223
20.28000 3.250
20.30000 3.943
20.32000 3.513
20.34000 0.182
20.36000 -0.479
20.38000 7.422
20.40000 5.346
20.42000 1.322
20.44000 0.426
20.46000 3.717
20.48000 6.837
20.50000 3.551
20.52000 1.458
20.54000 8.144
20.56000 8.315
20.58000 5.784
20.60000 4.977
20.62000 6.685
20.64000 11.107
20.66000 9.722
20.68000 5.862
20.70000 -3.299
20.72000 -2.754
20.74000 0.749
20.76000 1.663
20.78000 4.673
20.80000 6.100
20.82000 4.491
20.84000 2.028
20.86000 0.030
20.88000 -0.570
20.90000 4.955
20.92000 4.914
20.94000 6.747
20.96000 5.310
20.98000 2.807
21.00000 7.561
21.02000 13.189
21.04000 6.460
21.06000 7.317
21.08000 2.055
21.10000 2.044
21.12000 4.922
21.14000 8.641
21.16000 -0.279
21.18000 3.760
21.20000 6.902
21.22000 7.363
21.24000 6.265
21.26000 10.109
21.28000 2.394
21.30000 4.618
21.32000 11.765
21.34000 6.027
21.36000 7.166
21.38000 12.033
21.40000 12.029
21.42000 14.501
21.44000 11.040
21.46000 1.497
21.48000 1.875
21.50000 5.837
21.52000 3.665
21.54000 -1.018
21.56000 7.421
21.58000 9.426
21.60000 10.322
21.62000 10.076
21.64000 4.459
21.66000 -1.932
21.68000 4.449
21.70000 4.082
21.72000 -1.471
21.74000 -1.815
21.76000 3.961
21.78000 2.700
21.80000 2.253
21.82000 9.914
21.84000 13.152
21.86000 10.588
21.88000 7.071
21.90000 0.532
21.92000 0.847
21.94000 -4.074
21.96000 3.063
21.98000 1.304
22.00000 2.011
22.02000 10.381
22.04000 4.051
22.06000 1.906
22.08000 11.588
22.10000 9.135
22.12000 6.335
22.14000 6.915
22.16000 -0.656
22.18000 1.915
22.20000 3.812
22.22000 7.697
22.24000 8.255
22.26000 8.747
22.28000 10.777
22.30000 7.117
22.32000 5.486
22.34000 6.640
22.36000 8.937
22.38000 7.121
22.40000 8.127
22.42000 9.438
22.44000 10.774
22.46000 11.031
22.48000 8.493
22.50000 5.224
22.52000 4.906
22.54000 9.305
22.56000 7.658
22.58000 12.477
22.60000 13.671
22.62000 11.148
22.64000 6.594
22.66000 7.461
22.68000 10.191
22.70000 10.674
22.72000 9.555
22.74000 7.849
22.76000 13.492
22.78000 4.712
22.80000 1.976
22.82000 -0.051
22.84000 4.060
22.86000 2.307
22.88000 3.561
22.90000 10.460
22.92000 12.800
22.94000 14.351
22.96000 10.878
22.98000 3.450
23.00000 -4.010
23.02000 5.158
23.04000 14.201
23.06000 12.338
23.08000 10.106
23.10000 9.057
23.12000 12.339
23.14000 7.090
23.16000 4.018
23.18000 10.754
23.20000 4.371
23.22000 2.478
23.24000 6.575
23.26000 4.854
23.28000 6.012
23.30000 6.248
23.32000 9.154
23.34000 5.243
23.36000 1.824
23.38000 5.878
23.40000 4.656
23.42000 4.424
23.44000 2.720
23.46000 9.979
23.48000 8.427
23.50000 5.330
23.52000 7.542
23.54000 8.390
23.56000 4.424
23.58000 1.369
23.60000 9.679
23.62000 6.194
23.64000 -0.476
23.66000 5.183
23.68000 7.412
23.70000 8.715
23.72000 5.956
23.74000 6.962
23.76000 9.741
23.78000 12.898
23.80000 9.356
23.82000 4.451
23.84000 3.767
23.86000 2.451
23.88000 0.666
23.90000 -1.407
23.92000 0.375
23.94000 3.196
23.96000 7.858
23.98000 4.569
24.00000 4.842
24.02000 6.205
24.04000 1.454
24.06000 0.509
24.08000 1.507
24.10000 5.947
24.12000 6.799
24.14000 0.480
24.16000 1.686
24.18000 1.367
24.20000 6.292
24.22000 7.800
24.24000 6.183
24.26000 6.447
24.28000 3.531
24.30000 4.780
24.32000 -3.163
24.34000 -3.978
24.36000 2.618
24.38000 3.658
24.40000 0.423
24.42000 1.550
24.44000 -0.815
24.46000 3.253
24.48000 2.732
24.50000 6.398
24.52000 4.371
24.54000 -1.628
24.56000 0.960
24.58000 -2.481
24.60000 5.481
24.62000 7.208
24.64000 6.364
24.66000 3.957
24.68000 1.268
24.70000 -3.957
24.72000 2.247
24.74000 2.365
24.76000 2.151
24.78000 1.483
24.80000 2.587
24.82000 6.781
24.84000 1.456
24.86000 2.144
24.88000 4.607
24.90000 4.301
24.92000 5.315
24.94000 8.631
24.96000 11.024
24.98000 8.992
25.00000 9.959
25.02000 3.515
25.04000 -3.737
25.06000 0.299
25.08000 6.160
25.10000 6.788
25.12000 0.558
25.14000 0.911
25.16000 0.315
25.18000 -3.923
25.20000 -1.280
25.22000 -2.045
25.24000 0.318
25.26000 3.458
25.28000 3.953
25.30000 4.610
25.32000 -1.653
25.34000 2.604
25.36000 7.129
25.38000 8.934
25.40000 9.232
25.42000 8.206
25.44000 7.283
25.46000 5.061
25.48000 8.269
25.50000 10.565
25.52000 4.041
25.54000 -1.187
25.56000 -3.902
25.58000 2.015
25.60000 6.273
25.62000 4.177
25.64000 3.845
25.66000 -1.808
25.68000 -0.949
25.70000 1.667
25.72000 2.110
25.74000 4.839
25.76000 2.297
25.78000 -3.892
25.80000 -2.544
25.82000 3.094
25.84000 5.628
25.86000 1.697
25.88000 1.667
25.90000 2.790
25.92000 1.357
25.94000 -2.593
25.96000 3.061
25.98000 9.128
26.00000 8.837
26.02000 4.740
26.04000 4.779
26.06000 1.868
26.08000 1.899
26.10000 3.484
26.12000 4.854
26.14000 4.137
26.16000 5.024
26.18000 -0.576
26.20000 2.237
26.22000 1.913
26.24000 5.385
26.26000 5.534
26.28000 4.298
26.30000 0.734
26.32000 4.592
26.34000 5.272
26.36000 0.404
26.38000 3.245
26.40000 5.791
26.42000 0.725
26.44000 2.076
26.46000 -0.044
26.48000 0.604
26.50000 4.544
26.52000 5.264
26.54000 4.332
26.56000 4.947
26.58000 0.549
26.60000 1.440
26.62000 -0.267
26.64000 2.417
26.66000 -1.032
26.68000 -1.064
26.70000 0.011
26.72000 3.888
26.74000 6.895
26.76000 1.920
26.78000 1.577
26.80000 7.966
26.82000 8.248
26.84000 3.130
26.86000 4.259
26.88000 5.999
26.90000 3.863
26.92000 4.865
26.94000 8.356
26.96000 10.121
26.98000 5.111
27.00000 12.647
27.02000 10.622
27.04000 9.577
27.06000 4.915
27.08000 3.565
27.10000 5.752
27.12000 4.204
27.14000 -0.326
27.16000 1.790
27.18000 5.633
27.20000 7.456
27.22000 3.444
27.24000 2.805
27.26000 6.169
27.28000 5.069
27.30000 -3.808
27.32000 -3.605
27.34000 0.789
27.36000 0.881
27.38000 4.623
27.40000 8.183
27.42000 8.428
27.44000 5.997
27.46000 -0.549
27.48000 3.110
27.50000 10.912
27.52000 8.379
27.54000 3.895
27.56000 1.582
27.58000 -1.615
27.60000 3.315
27.62000 6.980
27.64000 6.644
27.66000 5.917
27.68000 10.028
27.70000 11.041
27.72000 2.667
27.74000 3.818
27.76000 -2.137
27.78000 0.408
27.80000 5.957
27.82000 -0.689
27.84000 0.346
27.86000 5.103
27.88000 7.725
27.90000 7.426
27.92000 4.255
27.94000 10.245
27.96000 6.144
27.98000 6.337
28.00000 3.026
28.02000 2.070
28.04000 3.289
28.06000 3.772
28.08000 0.506
28.10000 5.592
28.12000 5.504
28.14000 2.122
28.16000 2.607
28.18000 3.039
28.20000 6.919
28.22000 4.375
28.24000 -1.479
28.26000 3.942
28.28000 4.263
28.30000 6.305
28.32000 5.064
28.34000 1.569
28.36000 -0.192
28.38000 1.687
28.40000 1.138
28.42000 -2.784
28.44000 0.371
28.46000 0.684
28.48000 2.827
28.50000 4.702
28.52000 2.092
28.54000 -3.743
28.56000 -1.072
28.58000 0.493
28.60000 1.307
28.62000 -0.066
28.64000 6.432
28.66000 3.179
28.68000 4.165
28.70000 11.372
28.72000 5.787
28.74000 5.027
28.76000 6.613
28.78000 5.904
28.80000 7.255
28.82000 7.434
28.84000 5.693
28.86000 3.519
28.88000 4.672
28.90000 4.141
28.92000 -0.410
28.94000 -3.707
28.96000 0.978
28.98000 2.820
29.00000 0.861
29.02000 8.660
29.04000 6.505
29.06000 4.293
29.08000 1.463
29.10000 6.928
29.12000 3.694
29.14000 0.755
29.16000 3.880
29.18000 5.361
29.20000 8.399
29.22000 2.498
29.24000 1.322
29.26000 2.894
29.28000 5.622
29.30000 6.274
29.32000 3.802
29.34000 9.467
29.36000 3.812
29.38000 -0.561
29.40000 1.522
29.42000 4.274
29.44000 -0.797
29.46000 4.819
29.48000 6.076
29.50000 5.737
29.52000 1.107
29.54000 -0.771
29.56000 1.137
29.58000 4.204
29.60000 7.989
29.62000 2.406
29.64000 -1.920
29.66000 7.864
29.68000 5.778
29.70000 7.290
29.72000 3.241
29.74000 1.385
29.76000 5.384
29.78000 2.163
29.80000 2.027
29.82000 6.971
29.84000 3.785
29.86000 6.141
29.88000 3.180
29.90000 3.899
29.92000 1.314
29.94000 -0.409
29.96000 -3.671
29.98000 0.251
30.00000 2.988
30.02000 1.230
30.04000 -3.018
30.06000 3.315
30.08000 7.981
30.10000 3.830
30.12000 1.716
30.14000 2.728
30.16000 2.414
30.18000 1.814
30.20000 4.583
30.22000 0.354
30.24000 -0.472
30.26000 2.856
30.28000 -3.417
30.30000 -0.841
30.32000 3.331
30.34000 0.376
30.36000 7.935
30.38000 4.471
30.40000 4.968
30.42000 5.815
30.44000 0.449
30.46000 -0.593
30.48000 1.572
30.50000 1.397
30.52000 3.083
30.54000 -1.076
30.56000 0.764
30.58000 3.956
30.60000 1.826
30.62000 2.269
30.64000 3.774
30.66000 1.873
30.68000 4.068
30.70000 5.520
30.72000 -1.338
30.74000 0.666
30.76000 5.335
30.78000 6.486
30.80000 4.174
30.82000 2.146
30.84000 3.634
30.86000 2.576
30.88000 7.810
30.90000 11.441
30.92000 10.117
30.94000 5.311
30.96000 4.394
30.98000 2.637
31.00000 3.526
31.02000 0.866
31.04000 1.927
31.06000 3.627
31.08000 5.889
31.10000 1.199
31.12000 -3.612
31.14000 5.520
31.16000 4.811
31.18000 0.677
31.20000 3.077
31.22000 3.901
31.24000 5.981
31.26000 2.271
31.28000 -0.624
31.30000 -3.285
31.32000 4.209
31.34000 3.025
31.36000 -1.861
31.38000 -1.401
31.40000 0.544
31.42000 2.837
31.44000 7.182
31.46000 1.062
31.48000 1.903
31.50000 4.720
31.52000 3.816
31.54000 2.672
31.56000 0.633
31.58000 5.893
31.60000 8.874
31.62000 6.511
31.64000 6.913
31.66000 3.441
31.68000 4.242
31.70000 1.151
31.72000 -3.578
31.74000 1.177
31.76000 5.554
31.78000 0.097
31.80000 1.792
31.82000 7.548
31.84000 2.351
31.86000 2.495
31.88000 2.176
31.90000 3.853
31.92000 7.087
31.94000 8.985
31.96000 3.644
31.98000 -0.855
32.00000 4.722
32.02000 3.778
32.04000 3.389
32.06000 3.233
32.08000 3.702
32.10000 2.714
32.12000 -2.152
32.14000 -3.468
32.16000 3.965
32.18000 5.515
32.20000 2.686
32.22000 1.725
32.24000 4.476
32.26000 0.056
32.28000 -1.850
32.30000 2.943
32.32000 4.258
32.34000 2.398
32.36000 1.806
32.38000 4.226
32.40000 4.981
32.42000 3.292
32.44000 3.954
32.46000 -1.395
32.48000 -0.501
32.50000 3.126
32.52000 4.088
32.54000 0.344
32.56000 4.123
32.58000 5.028
32.60000 0.167
32.62000 0.610
32.64000 -1.386
32.66000 -2.242
32.68000 0.706
32.70000 5.498
32.72000 3.948
32.74000 6.369
32.76000 2.939
32.78000 1.601
32.80000 5.336
32.82000 4.613
32.84000 4.016
32.86000 4.566
32.88000 1.215
32.90000 3.297
32.92000 9.964
32.94000 10.062
32.96000 5.168
32.98000 4.517
33.00000 8.429
33.02000 6.342
33.04000 2.896
33.06000 6.481
33.08000 7.884
33.10000 5.267
33.12000 5.540
33.14000 0.234
33.16000 -1.579
33.18000 2.696
33.20000 4.584
33.22000 9.483
33.24000 4.723
33.26000 5.226
33.28000 -3.518
33.30000 -1.002
33.32000 3.150
33.34000 -0.806
33.36000 1.876
33.38000 4.546
33.40000 3.358
33.42000 9.256
33.44000 10.329
33.46000 4.491
33.48000 1.309
33.50000 0.604
33.52000 5.085
33.54000 1.689
33.56000 1.902
33.58000 7.460
33.60000 10.204
33.62000 5.590
33.64000 0.194
33.66000 2.219
33.68000 6.859
33.70000 7.823
33.72000 8.902
33.74000 2.749
33.76000 -0.629
33.78000 6.708
33.80000 11.192
33.82000 6.430
33.84000 4.351
33.86000 5.770
33.88000 3.153
33.90000 -1.516
33.92000 4.774
33.94000 8.157
33.96000 6.000
33.98000 3.299
34.00000 4.480
34.02000 6.677
34.04000 3.451
34.06000 -0.490
34.08000 3.275
34.10000 6.382
34.12000 4.162
34.14000 0.381
34.16000 2.442
34.18000 7.915
34.20000 3.594
34.22000 -0.105
34.24000 3.315
34.26000 2.782
34.28000 4.134
34.30000 2.131
34.32000 4.437
34.34000 6.186
34.36000 2.938
34.38000 5.957
34.40000 5.642
34.42000 0.896
34.44000 -0.766
34.46000 -2.379
34.48000 4.772
34.50000 5.057
34.52000 4.584
34.54000 0.327
34.56000 0.435
34.58000 4.691
34.60000 9.516
34.62000 6.713
34.64000 3.902
34.66000 5.185
34.68000 5.314
34.70000 4.414
34.72000 1.990
34.74000 2.417
34.76000 -0.148
34.78000 0.642
34.80000 3.777
34.82000 5.718
34.84000 0.227
34.86000 0.473
34.88000 -3.505
34.90000 -0.590
34.92000 0.539
34.94000 -0.464
34.96000 -2.080
34.98000 -0.592
35.00000 2.079
35.02000 -0.418
35.04000 -0.646
35.06000 5.264
35.08000 9.182
35.10000 4.764
35.12000 2.970
35.14000 3.668
35.16000 7.536
35.18000 2.056
35.20000 4.273
35.22000 1.272
35.24000 0.820
35.26000 2.558
35.28000 -1.498
35.30000 -2.166
35.32000 -2.220
35.34000 0.967
35.36000 2.074
35.38000 1.839
35.40000 3.673
35.42000 3.778
35.44000 -1.625
35.46000 -2.088
35.48000 -0.829
35.50000 -3.506
35.52000 3.718
35.54000 4.290
35.56000 5.357
35.58000 0.711
35.60000 0.278
35.62000 1.088
35.64000 4.708
35.66000 4.044
35.68000 1.481
35.70000 -1.159
35.72000 -1.338
35.74000 -0.126
35.76000 1.443
35.78000 3.478
35.80000 2.440
35.82000 3.120
35.84000 1.336
35.86000 -3.212
35.88000 -0.299
35.90000 3.241
35.92000 5.408
35.94000 4.760
35.96000 4.708
35.98000 2.397
36.00000 2.100
36.02000 5.529
36.04000 9.296
36.06000 4.098
36.08000 6.479
36.10000 6.525
36.12000 5.574
36.14000 2.671
36.16000 2.779
36.18000 4.069
36.20000 1.613
36.22000 3.744
36.24000 5.053
36.26000 3.579
36.28000 7.194
36.30000 6.479
36.32000 0.363
36.34000 5.466
36.36000 5.381
36.38000 4.405
36.40000 3.282
36.42000 4.862
36.44000 2.367
36.46000 -1.400
36.48000 -0.063
36.50000 5.023
36.52000 1.014
36.54000 -3.489
36.56000 -1.489
36.58000 2.117
36.60000 1.170
36.62000 3.597
36.64000 3.047
36.66000 3.277
36.68000 3.978
36.70000 4.778
36.72000 8.764
36.74000 7.272
36.76000 5.963
36.78000 0.311
36.80000 -1.397
36.82000 0.844
36.84000 -2.693
36.86000 0.857
36.88000 4.455
36.90000 4.906
36.92000 -0.430
36.94000 1.771
36.96000 3.863
36.98000 1.824
37.00000 3.327
37.02000 2.847
37.04000 4.367
37.06000 3.143
37.08000 4.693
37.10000 1.101
37.12000 7.742
37.14000 5.062
37.16000 2.601
37.18000 6.043
37.20000 2.937
37.22000 -2.186
37.24000 -3.553
37.26000 -0.753
37.28000 3.388
37.30000 3.576
37.32000 3.377
37.34000 5.185
37.36000 1.496
37.38000 -1.920
37.40000 0.590
37.42000 3.598
37.44000 2.986
37.46000 5.141
37.48000 6.586
37.50000 8.085
37.52000 6.717
37.54000 2.843
37.56000 3.372
37.58000 4.639
37.60000 8.369
37.62000 10.968
37.64000 6.021
37.66000 0.304
37.68000 5.434
37.70000 11.915
37.72000 8.974
37.74000 5.863
37.76000 3.295
37.78000 5.833
37.80000 3.919
37.82000 0.533
37.84000 3.753
37.86000 6.442
37.88000 10.731
37.90000 8.728
37.92000 7.388
37.94000 4.475
37.96000 7.255
37.98000 8.826
38.00000 8.904
38.02000 12.836
38.04000 13.069
38.06000 4.868
38.08000 7.713
38.10000 11.006
38.12000 8.361
38.14000 7.151
38.16000 9.999
38.18000 10.234
38.20000 10.702
38.22000 17.365
38.24000 13.248
38.26000 13.821
38.28000 14.402
38.30000 11.241
38.32000 10.954
38.34000 13.945
38.36000 12.753
38.38000 16.764
38.40000 10.637
38.42000 12.243
38.44000 14.407
38.46000 19.684
38.48000 22.436
38.50000 24.580
38.52000 20.500
38.54000 19.870
38.56000 20.140
38.58000 22.967
38.60000 17.039
38.62000 23.595
38.64000 26.722
38.66000 23.147
38.68000 24.114
38.70000 24.502
38.72000 24.126
38.74000 27.364
38.76000 26.012
38.78000 27.945
38.80000 32.138
38.82000 35.706
38.84000 38.172
38.86000 36.065
38.88000 34.854
38.90000 34.494
38.92000 37.792
38.94000 42.907
38.96000 45.517
38.98000 41.502
39.00000 42.609
39.02000 45.939
39.04000 43.857
39.06000 47.560
39.08000 48.487
39.10000 54.324
39.12000 61.972
39.14000 67.258
39.16000 60.062
39.18000 58.386
39.20000 60.038
39.22000 69.712
39.24000 76.717
39.26000 77.524
39.28000 83.079
39.30000 78.885
39.32000 81.337
39.34000 88.241
39.36000 91.343
39.38000 100.224
39.40000 108.237
39.42000 110.734
39.44000 106.291
39.46000 114.945
39.48000 120.876
39.50000 128.444
39.52000 133.769
39.54000 142.471
39.56000 151.082
39.58000 154.543
39.60000 167.661
39.62000 174.363
39.64000 178.201
39.66000 186.864
39.68000 194.940
39.70000 208.336
39.72000 216.394
39.74000 233.254
39.76000 249.990
39.78000 262.391
39.80000 274.557
39.82000 280.143
39.84000 290.504
39.86000 315.900
39.88000 328.284
39.90000 341.697
39.92000 359.225
39.94000 383.982
39.96000 391.695
39.98000 412.513
40.00000 431.682
40.02000 445.944
40.04000 469.838
40.06000 467.937
40.08000 485.133
40.10000 509.808
40.12000 522.251
40.14000 535.586
40.16000 548.612
40.18000 570.142
40.20000 591.594
40.22000 599.899
40.24000 605.279
40.26000 611.525
40.28000 614.225
40.30000 622.469
40.32000 614.846
40.34000 614.398
40.36000 602.412
40.38000 605.863
40.40000 603.232
40.42000 597.955
40.44000 585.542
40.46000 579.210
40.48000 572.620
40.50000 558.290
40.52000 536.056
40.54000 513.303
40.56000 509.596
40.58000 498.185
40.60000 470.409
40.62000 457.081
40.64000 438.103
40.66000 422.165
40.68000 402.144
40.70000 393.131
40.72000 375.095
40.74000 359.878
40.76000 340.436
40.78000 327.484
40.80000 307.761
40.82000 295.417
40.84000 274.880
40.86000 265.798
40.88000 245.702
40.90000 233.360
40.92000 215.376
40.94000 210.501
40.96000 202.271
40.98000 193.313
41.00000 183.841
41.02000 181.778
41.04000 166.118
41.06000 152.338
41.08000 141.309
41.10000 132.017
41.12000 121.379
41.14000 114.485
41.16000 112.859
41.18000 106.510
41.20000 100.813
41.22000 99.081
41.24000 92.421
41.26000 83.245
41.28000 75.394
41.30000 76.527
41.32000 74.091
41.34000 70.320
41.36000 68.161
41.38000 59.621
41.40000 56.053
41.42000 54.915
41.44000 50.210
41.46000 54.269
41.48000 49.398
41.50000 47.080
41.52000 42.391
41.54000 40.884
41.56000 34.268
41.58000 36.065
41.60000 34.951
41.62000 31.544
41.64000 32.438
41.66000 31.294
41.68000 29.680
41.70000 27.356
41.72000 27.065
41.74000 24.887
41.76000 20.059
41.78000 15.311
41.80000 21.095
41.82000 22.200
41.84000 20.044
41.86000 17.942
41.88000 10.415
41.90000 14.281
41.92000 20.805
41.94000 18.654
41.96000 19.710
41.98000 16.963
42.00000 12.940
42.02000 13.877
42.04000 13.020
42.06000 15.120
42.08000 11.354
42.10000 9.806
42.12000 9.638
42.14000 10.288
42.16000 8.732
42.18000 7.895
42.20000 6.275
42.22000 3.983
42.24000 3.367
42.26000 1.377
42.28000 2.361
42.30000 4.371
42.32000 4.757
42.34000 5.808
42.36000 6.153
42.38000 7.982
42.40000 7.297
42.42000 4.689
42.44000 -0.227
42.46000 4.144
42.48000 -0.266
42.50000 1.823
42.52000 4.995
42.54000 4.402
42.56000 8.622
42.58000 4.990
42.60000 1.984
42.62000 3.633
42.64000 4.552
42.66000 -2.693
42.68000 -0.602
42.70000 1.081
42.72000 3.295
42.74000 3.503
42.76000 1.369
42.78000 2.684
42.80000 3.180
42.82000 3.799
42.84000 2.902
42.86000 5.117
42.88000 1.962
42.90000 -0.704
42.92000 2.320
42.94000 3.963
42.96000 6.790
42.98000 6.952
43.00000 1.660
43.02000 2.188
43.04000 -0.790
43.06000 -3.482
43.08000 1.294
43.10000 -0.005
43.12000 0.885
43.14000 -1.445
43.16000 1.991
43.18000 4.719
43.20000 2.902
43.22000 -0.082
43.24000 2.186
43.26000 5.944
43.28000 3.370
43.30000 4.960
43.32000 0.471
43.34000 -2.277
43.36000 3.207
43.38000 5.628
43.40000 3.191
43.42000 0.850
43.44000 0.225
43.46000 2.763
43.48000 9.204
43.50000 1.648
43.52000 -0.671
43.54000 -3.440
43.56000 -0.606
43.58000 -1.041
43.60000 1.377
43.62000 4.399
43.64000 2.528
43.66000 2.027
43.68000 2.205
43.70000 2.578
43.72000 2.434
43.74000 -2.180
43.76000 -2.369
43.78000 -1.064
43.80000 -2.388
43.82000 2.508
43.84000 3.964
43.86000 -1.143
43.88000 -0.662
43.90000 -0.932
43.92000 -3.424
43.94000 -0.194
43.96000 3.145
43.98000 5.499
44.00000 4.374
44.02000 1.895
44.04000 -3.426
44.06000 0.241
44.08000 3.681
44.10000 4.241
44.12000 3.464
44.14000 3.947
44.16000 2.865
44.18000 6.154
44.20000 2.349
44.22000 0.047
44.24000 -1.245
44.26000 -2.554
44.28000 -0.293
44.30000 -0.546
44.32000 -3.291
44.34000 -3.434
44.36000 4.055
44.38000 3.046
44.40000 5.227
44.42000 5.420
44.44000 2.013
44.46000 2.591
44.48000 3.697
44.50000 6.270
44.52000 3.311
44.54000 3.582
44.56000 -0.017
44.58000 0.909
44.60000 6.189
44.62000 4.918
44.64000 -1.353
44.66000 1.447
44.68000 4.152
44.70000 -0.563
44.72000 4.246
44.74000 1.954
44.76000 5.104
44.78000 -0.628
44.80000 3.957
44.82000 2.952
44.84000 -3.442
44.86000 -0.727
44.88000 -0.951
44.90000 2.123
44.92000 3.273
44.94000 1.883
44.96000 4.716
44.98000 2.572
45.00000 1.681
45.02000 5.324
45.04000 7.888
45.06000 2.905
45.08000 3.790
45.10000 6.535
45.12000 11.517
45.14000 9.719
45.16000 8.542
45.18000 3.291
45.20000 3.448
45.22000 4.690
45.24000 5.655
45.26000 4.630
45.28000 0.567
45.30000 6.896
45.32000 4.843
45.34000 8.844
45.36000 6.243
45.38000 8.438
45.40000 8.853
45.42000 10.984
45.44000 8.918
45.46000 12.106
45.48000 12.774
45.50000 12.898
45.52000 7.893
45.54000 12.873
45.56000 19.059
45.58000 18.168
45.60000 19.684
45.62000 16.114
45.64000 19.717
45.66000 27.293
45.68000 23.564
45.70000 22.387
45.72000 16.058
45.74000 17.281
45.76000 19.451
45.78000 22.822
45.80000 28.407
45.82000 26.799
45.84000 29.590
45.86000 28.623
45.88000 31.806
45.90000 33.661
45.92000 32.377
45.94000 33.512
45.96000 35.033
45.98000 31.701
46.00000 36.513
46.02000 40.892
46.04000 37.386
46.06000 34.294
46.08000 37.119
46.10000 39.515
46.12000 42.713
46.14000 49.463
46.16000 51.584
46.18000 48.285
46.20000 44.534
46.22000 43.253
46.24000 50.338
46.26000 47.410
46.28000 51.338
46.30000 55.818
46.32000 53.460
46.34000 57.466
46.36000 62.443
46.38000 68.782
46.40000 69.141
46.42000 67.136
46.44000 63.480
46.46000 70.214
46.48000 71.383
46.50000 74.340
46.52000 75.116
46.54000 79.150
46.56000 77.250
46.58000 74.178
46.60000 79.380
46.62000 78.584
46.64000 84.742
46.66000 86.044
46.68000 85.236
46.70000 91.260
46.72000 82.356
46.74000 82.300
46.76000 88.564
46.78000 94.588
46.80000 86.922
46.82000 86.076
46.84000 91.513
46.86000 92.485
46.88000 94.515
46.90000 91.048
46.92000 92.041
46.94000 95.679
46.96000 91.959
46.98000 91.307
47.00000 92.942
47.02000 90.316
47.04000 86.184
47.06000 89.892
47.08000 93.177
47.10000 91.712
47.12000 88.940
47.14000 85.557
47.16000 77.538
47.18000 77.347
47.20000 79.118
47.22000 80.224
47.24000 74.624
47.26000 70.157
47.28000 76.101
47.30000 72.445
47.32000 71.089
47.34000 64.823
47.36000 64.259
47.38000 67.387
47.40000 67.256
47.42000 58.062
47.44000 52.602
47.46000 61.269
47.48000 54.577
47.50000 55.928
47.52000 54.384
47.54000 54.490
47.56000 50.529
47.58000 56.518
47.60000 51.579
47.62000 45.804
47.64000 44.857
47.66000 49.262
47.68000 42.976
47.70000 40.642
47.72000 41.753
47.74000 37.338
47.76000 29.795
47.78000 27.004
47.80000 33.751
47.82000 30.584
47.84000 30.769
47.86000 28.028
47.88000 27.416
47.90000 30.393
47.92000 23.733
47.94000 19.419
47.96000 25.312
47.98000 27.499
48.00000 26.936
48.02000 22.742
48.04000 21.453
48.06000 15.486
48.08000 10.600
48.10000 15.299
48.12000 17.170
48.14000 15.980
48.16000 18.355
48.18000 16.576
48.20000 4.301
48.22000 4.739
48.24000 11.080
48.26000 9.977
48.28000 8.309
48.30000 11.300
48.32000 8.479
48.34000 4.729
48.36000 7.515
48.38000 11.139
48.40000 8.729
48.42000 4.269
48.44000 7.677
48.46000 9.968
48.48000 10.232
48.50000 9.516
48.52000 11.350
48.54000 7.947
48.56000 6.012
48.58000 8.322
48.60000 7.692
48.62000 1.516
48.64000 1.478
48.66000 1.633
48.68000 1.639
48.70000 6.991
48.72000 1.471
48.74000 1.673
48.76000 4.387
48.78000 5.058
48.80000 6.645
48.82000 4.823
48.84000 0.013
48.86000 0.893
48.88000 -3.097
48.90000 3.345
48.92000 7.543
48.94000 10.927
48.96000 4.928
48.98000 3.383
49.00000 1.420
49.02000 0.549
49.04000 1.999
49.06000 -2.371
49.08000 -3.056
49.10000 1.125
49.12000 1.351
49.14000 3.203
49.16000 0.757
49.18000 4.728
49.20000 5.141
49.22000 2.935
49.24000 3.265
49.26000 0.876
49.28000 6.468
49.30000 5.146
49.32000 2.957
49.34000 4.338
49.36000 1.950
49.38000 4.300
49.40000 1.970
49.42000 6.401
49.44000 5.748
49.46000 3.809
49.48000 0.614
49.50000 5.012
49.52000 2.503
49.54000 4.780
49.56000 1.815
49.58000 2.057
49.60000 -0.583
49.62000 -0.191
49.64000 0.263
49.66000 3.104
49.68000 7.937
49.70000 7.705
49.72000 3.215
49.74000 5.146
49.76000 8.120
49.78000 4.682
49.80000 4.190
49.82000 6.654
49.84000 5.712
49.86000 5.817
49.88000 2.367
49.90000 0.683
49.92000 3.129
49.94000 6.162
49.96000 7.230
49.98000 3.781
50.00000 7.137
50.02000 9.703
50.04000 11.529
50.06000 10.977
50.08000 7.361
50.10000 6.223
50.12000 -2.888
50.14000 -0.250
50.16000 4.147
50.18000 1.211
50.20000 1.851
50.22000 3.572
50.24000 5.463
50.26000 3.718
50.28000 3.300
50.30000 1.152
50.32000 0.526
50.34000 4.938
50.36000 5.241
50.38000 6.996
50.40000 6.741
50.42000 7.129
50.44000 6.441
50.46000 2.566
50.48000 0.614
50.50000 3.129
50.52000 2.018
50.54000 5.642
50.56000 2.261
50.58000 2.366
50.60000 2.209
50.62000 -0.220
50.64000 1.936
50.66000 10.071
50.68000 10.057
50.70000 6.860
50.72000 5.036
50.74000 6.623
50.76000 5.454
50.78000 4.889
50.80000 5.926
50.82000 3.374
50.84000 0.902
50.86000 -1.403
50.88000 -2.856
50.90000 2.396
50.92000 4.291
50.94000 4.286
50.96000 8.033
50.98000 7.945
51.00000 4.691
51.02000 -0.903
51.04000 0.693
51.06000 0.541
51.08000 -0.565
51.10000 2.183
51.12000 4.648
51.14000 5.506
51.16000 5.610
51.18000 2.100
51.20000 4.114
51.22000 5.962
51.24000 8.939
51.26000 7.835
51.28000 2.475
51.30000 5.137
51.32000 2.045
51.34000 3.682
51.36000 2.826
51.38000 1.243
51.40000 1.270
51.42000 1.998
51.44000 3.347
51.46000 3.727
51.48000 5.619
51.50000 5.847
51.52000 0.083
51.54000 4.076
51.56000 5.559
51.58000 6.516
51.60000 3.028
51.62000 3.920
51.64000 5.499
51.66000 3.711
51.68000 6.744
51.70000 3.088
51.72000 -2.247
51.74000 -2.842
51.76000 1.279
51.78000 2.186
51.80000 -1.098
51.82000 0.469
51.84000 0.362
51.86000 0.657
51.88000 0.095
51.90000 4.490
51.92000 5.227
51.94000 4.100
51.96000 2.474
51.98000 5.620
52.00000 2.454
52.02000 2.243
52.04000 3.176
52.06000 2.953
52.08000 1.899
52.10000 4.400
52.12000 3.128
52.14000 3.167
52.16000 4.303
52.18000 4.108
52.20000 1.967
52.22000 2.789
52.24000 3.607
52.26000 4.500
52.28000 3.131
52.30000 3.088
52.32000 2.756
52.34000 0.593
52.36000 6.288
52.38000 -0.241
52.40000 -0.106
52.42000 1.291
52.44000 1.406
52.46000 2.507
52.48000 4.494
52.50000 2.219
52.52000 4.139
52.54000 3.164
52.56000 3.772
52.58000 0.638
52.60000 -2.511
52.62000 -1.629
52.64000 3.314
52.66000 4.866
52.68000 6.196
52.70000 7.795
52.72000 4.205
52.74000 3.044
52.76000 5.139
52.78000 1.504
52.80000 3.784
52.82000 0.139
52.84000 4.594
52.86000 4.960
52.88000 4.556
52.90000 4.203
52.92000 1.972
52.94000 1.663
52.96000 -0.527
52.98000 -0.538
53.00000 1.261
53.02000 3.064
53.04000 2.511
53.06000 1.044
53.08000 2.478
53.10000 5.545
53.12000 6.999
53.14000 2.067
53.16000 0.843
53.18000 1.302
53.20000 3.336
53.22000 7.322
53.24000 5.114
53.26000 2.577
53.28000 -2.471
53.30000 -2.770
53.32000 -1.481
53.34000 1.181
53.36000 4.816
53.38000 1.743
53.40000 0.646
53.42000 -2.610
53.44000 -1.666
53.46000 2.453
53.48000 1.066
53.50000 3.206
53.52000 6.160
53.54000 8.471
53.56000 4.354
53.58000 0.905
53.60000 5.730
53.62000 6.323
53.64000 1.341
53.66000 2.866
53.68000 9.494
53.70000 7.737
53.72000 0.838
53.74000 0.272
53.76000 6.266
53.78000 1.982
53.80000 0.597
53.82000 4.951
53.84000 5.456
53.86000 5.337
53.88000 8.484
53.90000 7.471
53.92000 4.238
53.94000 4.956
53.96000 4.719
53.98000 8.559
54.00000 0.990
54.02000 2.909
54.04000 -2.748
54.06000 -1.880
54.08000 2.092
54.10000 -0.001
54.12000 0.649
54.14000 2.991
54.16000 5.092
54.18000 6.918
54.20000 6.365
54.22000 7.949
54.24000 7.751
54.26000 10.102
54.28000 5.139
54.30000 4.365
54.32000 2.555
54.34000 3.672
54.36000 3.662
54.38000 1.266
54.40000 3.423
54.42000 4.851
54.44000 3.557
54.46000 3.704
54.48000 1.584
54.50000 2.157
54.52000 6.151
54.54000 9.099
54.56000 11.128
54.58000 7.725
54.60000 7.066
54.62000 -0.750
54.64000 1.888
54.66000 2.625
54.68000 6.567
54.70000 4.436
54.72000 4.340
54.74000 7.705
54.76000 7.545
54.78000 1.917
54.80000 1.504
54.82000 0.275
54.84000 3.081
54.86000 7.925
54.88000 4.998
54.90000 6.161
54.92000 9.285
54.94000 0.048
54.96000 0.532
54.98000 -1.483
55.00000 -2.735
55.02000 -0.205
55.04000 2.317
55.06000 4.165
55.08000 6.096
55.10000 5.173
55.12000 4.864
55.14000 6.187
55.16000 5.752
55.18000 5.435
55.20000 2.560
55.22000 2.669
55.24000 -0.149
55.26000 1.055
55.28000 1.574
55.30000 1.745
55.32000 0.300
55.34000 -0.145
55.36000 2.379
55.38000 3.086
55.40000 3.525
55.42000 -2.202
55.44000 -2.720
55.46000 2.030
55.48000 4.732
55.50000 3.904
55.52000 5.811
55.54000 1.994
55.56000 -0.315
55.58000 5.320
55.60000 5.285
55.62000 5.688
55.64000 2.507
55.66000 6.754
55.68000 8.134
55.70000 1.755
55.72000 0.687
55.74000 1.612
55.76000 2.424
55.78000 4.356
55.80000 5.643
55.82000 2.363
55.84000 -1.812
55.86000 -0.833
55.88000 3.404
55.90000 3.061
55.92000 1.329
55.94000 -2.298
55.96000 -0.620
55.98000 6.891
56.00000 5.462
56.02000 2.357
56.04000 1.673
56.06000 -0.202
56.08000 -2.348
56.10000 -1.910
56.12000 -0.423
56.14000 3.289
56.16000 4.759
56.18000 -0.026
56.20000 -2.717
56.22000 -1.606
56.24000 1.230
56.26000 1.249
56.28000 -0.936
56.30000 2.859
56.32000 0.849
56.34000 4.074
56.36000 5.264
56.38000 4.840
56.40000 4.479
56.42000 3.118
56.44000 1.652
56.46000 2.527
56.48000 -2.146
56.50000 -0.762
56.52000 4.241
56.54000 6.586
56.56000 5.631
56.58000 -0.896
56.60000 0.526
56.62000 4.003
56.64000 8.090
56.66000 1.558
56.68000 -2.228
56.70000 -0.796
56.72000 0.906
56.74000 1.421
56.76000 0.295
56.78000 1.870
56.80000 -1.230
56.82000 -0.734
56.84000 -2.693
56.86000 7.331
56.88000 1.754
56.90000 -2.494
56.92000 -1.200
56.94000 4.076
56.96000 5.263
56.98000 5.264
57.00000 3.635
57.02000 -0.988
57.04000 -0.512
57.06000 -0.285
57.08000 0.290
57.10000 0.967
57.12000 2.682
57.14000 3.010
57.16000 3.479
57.18000 2.037
57.20000 4.359
57.22000 2.317
57.24000 8.643
57.26000 4.365
57.28000 2.617
57.30000 2.098
57.32000 -1.271
57.34000 -1.564
57.36000 2.492
57.38000 3.817
57.40000 3.193
57.42000 4.082
57.44000 3.303
57.46000 -0.280
57.48000 -2.618
57.50000 -2.675
57.52000 -1.116
57.54000 2.828
57.56000 3.495
57.58000 1.184
57.60000 -0.331
57.62000 0.986
57.64000 1.360
57.66000 3.617
57.68000 2.670
57.70000 -0.047
57.72000 1.318
57.74000 2.258
57.76000 1.512
57.78000 3.115
57.80000 4.210
57.82000 6.030
57.84000 3.951
57.86000 3.342
57.88000 3.252
57.90000 3.605
57.92000 -0.415
57.94000 -0.332
57.96000 0.731
57.98000 2.684
58.00000 2.207
58.02000 8.103
58.04000 8.774
58.06000 6.045
58.08000 3.079
58.10000 0.033
58.12000 2.924
58.14000 1.758
58.16000 2.738
58.18000 0.288
58.20000 2.429
58.22000 1.756
58.24000 5.621
58.26000 6.721
58.28000 5.684
58.30000 2.982
58.32000 1.813
58.34000 3.207
58.36000 2.458
58.38000 -0.698
58.40000 -2.634
58.42000 3.309
58.44000 5.665
58.46000 6.334
58.48000 6.425
58.50000 4.575
58.52000 3.680
58.54000 1.908
58.56000 0.671
58.58000 -0.194
58.60000 0.241
58.62000 0.503
58.64000 2.514
58.66000 -1.657
58.68000 3.154
58.70000 1.629
58.72000 4.532
58.74000 6.430
58.76000 1.799
58.78000 3.725
58.80000 4.309
58.82000 -1.955
58.84000 0.810
58.86000 6.062
58.88000 2.976
58.90000 3.317
58.92000 4.221
58.94000 6.574
58.96000 7.337
58.98000 7.217
59.00000 2.405
59.02000 1.845
59.04000 -1.089
59.06000 4.939
59.08000 6.551
59.10000 4.589
59.12000 0.570
59.14000 0.525
59.16000 2.549
59.18000 4.769
59.20000 2.267
59.22000 3.508
59.24000 3.065
59.26000 2.009
59.28000 1.291
59.30000 -2.132
59.32000 0.541
59.34000 5.249
59.36000 8.108
59.38000 4.976
59.40000 3.534
59.42000 -0.950
59.44000 -0.491
59.46000 -2.590
59.48000 2.350
59.50000 3.828
59.52000 5.245
59.54000 5.478
59.56000 6.077
59.58000 3.018
59.60000 2.156
59.62000 4.300
59.64000 4.994
59.66000 4.410
59.68000 8.412
59.70000 5.962
59.72000 5.758
59.74000 4.623
59.76000 1.806
59.78000 1.208
59.80000 4.909
59.82000 3.170
59.84000 2.926
59.86000 2.302
59.88000 3.632
59.90000 2.459
59.92000 -1.004
59.94000 -1.030
59.96000 2.304
59.98000 2.767
60.00000 2.161
60.02000 6.526
60.04000 3.448
60.06000 3.609
60.08000 7.367
60.10000 6.607
60.12000 2.887
60.14000 7.312
60.16000 5.725
60.18000 -1.117
60.20000 5.272
60.22000 2.814
60.24000 7.351
60.26000 8.856
60.28000 3.106
60.30000 2.734
60.32000 6.650
60.34000 8.611
60.36000 5.618
60.38000 1.016
60.40000 0.374
60.42000 0.002
60.44000 2.322
60.46000 1.140
60.48000 0.402
60.50000 3.326
60.52000 1.304
60.54000 3.328
60.56000 2.238
60.58000 -0.947
60.60000 -2.407
60.62000 -2.573
60.64000 1.167
60.66000 0.827
60.68000 -0.233
60.70000 0.625
60.72000 -0.770
60.74000 1.541
60.76000 0.184
60.78000 -0.510
60.80000 3.739
60.82000 1.907
60.84000 3.417
60.86000 5.240
60.88000 8.497
60.90000 8.287
60.92000 4.076
60.94000 4.510
60.96000 5.793
60.98000 6.549
61.00000 1.910
61.02000 0.899
61.04000 1.546
61.06000 1.013
61.08000 -0.497
61.10000 3.301
61.12000 0.524
61.14000 0.718
61.16000 1.041
61.18000 -0.253
61.20000 0.576
61.22000 0.724
61.24000 1.964
61.26000 1.747
61.28000 1.597
61.30000 2.285
61.32000 2.693
61.34000 2.964
61.36000 0.318
61.38000 6.920
61.40000 5.908
61.42000 1.590
61.44000 -2.559
61.46000 -0.153
61.48000 4.010
61.50000 1.838
61.52000 0.912
61.54000 1.489
61.56000 2.239
61.58000 3.015
61.60000 0.066
61.62000 1.560
61.64000 1.900
61.66000 3.095
61.68000 3.648
61.70000 4.669
61.72000 1.156
61.74000 3.017
61.76000 -0.623
61.78000 -0.736
61.80000 -2.544
61.82000 0.193
61.84000 -0.966
61.86000 -1.257
61.88000 1.979
61.90000 0.517
61.92000 1.998
61.94000 2.476
61.96000 4.460
61.98000 0.610
62.00000 -0.183
62.02000 -1.742
62.04000 1.075
62.06000 2.368
62.08000 2.374
62.10000 4.422
62.12000 5.630
62.14000 4.342
62.16000 3.939
62.18000 0.559
62.20000 -0.071
62.22000 0.956
62.24000 3.267
62.26000 3.948
62.28000 0.675
62.30000 0.326
62.32000 -0.371
62.34000 0.668
62.36000 4.800
62.38000 4.433
62.40000 5.537
62.42000 5.131
62.44000 2.312
62.46000 2.124
62.48000 2.890
62.50000 -2.529
62.52000 -1.235
62.54000 -2.364
62.56000 4.443
62.58000 4.180
62.60000 2.836
62.62000 1.794
62.64000 2.622
62.66000 4.376
62.68000 4.552
62.70000 6.203
62.72000 5.846
62.74000 1.646
62.76000 2.290
62.78000 2.824
62.80000 0.490
62.82000 0.197
62.84000 -1.769
62.86000 -0.764
62.88000 2.174
62.90000 2.689
62.92000 6.929
62.94000 3.521
62.96000 2.697
62.98000 1.238
63.00000 -1.960
63.02000 -0.747
63.04000 0.011
63.06000 1.008
63.08000 1.634
63.10000 -0.246
63.12000 -0.788
63.14000 -0.659
63.16000 1.282
63.18000 2.359
63.20000 -0.498
63.22000 2.066
63.24000 4.850
63.26000 4.736
63.28000 -0.447
63.30000 1.285
63.32000 2.368
63.34000 4.284
63.36000 2.832
63.38000 0.912
63.40000 -0.307
63.42000 0.000
63.44000 2.479
63.46000 1.019
63.48000 1.598
63.50000 3.012
63.52000 3.825
63.54000 0.795
63.56000 1.265
63.58000 3.058
63.60000 0.479
63.62000 1.565
63.64000 3.379
63.66000 1.469
63.68000 -0.079
63.70000 3.314
63.72000 6.789
63.74000 1.614
63.76000 1.615
63.78000 1.201
63.80000 -0.673
63.82000 2.345
63.84000 2.592
63.86000 6.175
63.88000 5.048
63.90000 -0.235
63.92000 -1.980
63.94000 0.557
63.96000 -0.251
63.98000 4.405
64.00000 3.675
64.02000 2.477
64.04000 6.132
64.06000 8.710
64.08000 6.780
64.10000 3.729
64.12000 2.953
64.14000 4.787
64.16000 3.881
64.18000 -2.491
64.20000 -0.221
64.22000 1.456
64.24000 7.708
64.26000 5.602
64.28000 0.948
64.30000 -0.099
64.32000 1.679
64.34000 2.428
64.36000 1.863
64.38000 1.544
64.40000 3.520
64.42000 0.658
64.44000 3.413
64.46000 2.995
64.48000 1.824
64.50000 2.260
64.52000 7.672
64.54000 5.746
64.56000 3.044
64.58000 1.443
64.60000 1.811
64.62000 2.349
64.64000 0.979
64.66000 1.966
64.68000 0.924
64.70000 1.768
64.72000 2.566
64.74000 1.956
64.76000 3.867
64.78000 4.448
64.80000 2.199
64.82000 -0.096
64.84000 -1.618
64.86000 0.141
64.88000 5.946
64.90000 5.110
64.92000 3.979
64.94000 3.543
64.96000 0.926
64.98000 -0.203
65.00000 -0.657
65.02000 -1.565
65.04000 0.499
65.06000 0.955
65.08000 1.019
65.10000 5.845
65.12000 6.276
65.14000 2.304
65.16000 2.314
65.18000 -1.637
65.20000 -0.675
65.22000 1.736
65.24000 -0.794
65.26000 2.705
65.28000 -0.168
65.30000 0.914
65.32000 3.767
65.34000 2.442
65.36000 -1.611
65.38000 2.648
65.40000 2.529
65.42000 4.232
65.44000 2.691
65.46000 2.808
65.48000 5.352
65.50000 4.438
65.52000 2.656
65.54000 -0.042
65.56000 -1.235
65.58000 -2.546
65.60000 -2.202
65.62000 1.634
65.64000 0.944
65.66000 -1.143
65.68000 1.962
65.70000 4.879
65.72000 6.068
65.74000 3.881
65.76000 2.654
65.78000 3.772
65.80000 1.371
65.82000 -0.769
65.84000 0.761
65.86000 0.666
65.88000 0.337
65.90000 1.821
65.92000 3.031
65.94000 1.448
65.96000 2.029
65.98000 2.302
66.00000 0.858
66.02000 0.756
66.04000 5.900
66.06000 2.539
66.08000 0.395
66.10000 0.764
66.12000 0.524
66.14000 -1.004
66.16000 -1.776
66.18000 -0.367
66.20000 0.524
66.22000 -0.480
66.24000 2.132
66.26000 0.356
66.28000 -2.572
66.30000 0.387
66.32000 3.389
66.34000 3.392
66.36000 -1.847
66.38000 -2.162
66.40000 2.502
66.42000 3.083
66.44000 2.806
66.46000 2.423
66.48000 0.804
66.50000 1.243
66.52000 2.418
66.54000 6.083
66.56000 3.280
66.58000 0.271
66.60000 3.686
66.62000 1.908
66.64000 -0.797
66.66000 0.360
66.68000 0.945
66.70000 -2.013
66.72000 5.183
66.74000 4.054
66.76000 -1.178
66.78000 2.213
66.80000 1.667
66.82000 0.701
66.84000 1.915
66.86000 5.413
66.88000 3.298
66.90000 -2.610
66.92000 1.943
66.94000 1.188
66.96000 0.648
66.98000 1.435
67.00000 5.106
67.02000 3.999
67.04000 0.451
67.06000 0.395
67.08000 0.798
67.10000 0.303
67.12000 2.399
67.14000 5.119
67.16000 3.000
67.18000 7.173
67.20000 5.795
67.22000 0.364
67.24000 2.495
67.26000 0.911
67.28000 1.667
67.30000 1.228
67.32000 1.933
67.34000 7.000
67.36000 5.828
67.38000 3.146
67.40000 5.724
67.42000 6.835
67.44000 5.235
67.46000 6.229
67.48000 6.675
67.50000 3.006
67.52000 3.762
67.54000 5.563
67.56000 9.002
67.58000 2.714
67.60000 3.455
67.62000 6.589
67.64000 10.592
67.66000 10.896
67.68000 13.461
67.70000 8.102
67.72000 11.110
67.74000 10.701
67.76000 10.707
67.78000 13.422
67.80000 11.103
67.82000 12.879
67.84000 12.869
67.86000 11.955
67.88000 15.291
67.90000 16.223
67.92000 15.093
67.94000 12.312
67.96000 12.879
67.98000 12.050
68.00000 11.565
68.02000 12.342
68.04000 12.034
68.06000 14.201
68.08000 14.466
68.10000 11.905
68.12000 13.686
68.14000 11.755
68.16000 12.208
68.18000 19.835
68.20000 18.458
68.22000 13.576
68.24000 18.432
68.26000 22.801
68.28000 23.327
68.30000 18.369
68.32000 16.536
68.34000 16.245
68.36000 19.119
68.38000 20.145
68.40000 22.158
68.42000 18.780
68.44000 20.270
68.46000 22.610
68.48000 20.426
68.50000 19.124
68.52000 19.774
68.54000 22.284
68.56000 22.042
68.58000 18.846
68.60000 18.926
68.62000 23.729
68.64000 24.385
68.66000 17.455
68.68000 16.770
68.70000 18.068
68.72000 19.017
68.74000 19.299
68.76000 17.002
68.78000 14.289
68.80000 16.299
68.82000 14.669
68.84000 15.040
68.86000 14.194
68.88000 18.419
68.90000 18.810
68.92000 14.826
68.94000 16.184
68.96000 12.335
68.98000 11.082
69.00000 13.085
69.02000 16.135
69.04000 17.410
69.06000 17.023
69.08000 18.107
69.10000 15.129
69.12000 11.762
69.14000 11.300
69.16000 11.087
69.18000 9.121
69.20000 9.642
69.22000 13.457
69.24000 10.453
69.26000 8.194
69.28000 11.799
69.30000 11.179
69.32000 9.691
69.34000 8.501
69.36000 6.871
69.38000 5.397
69.40000 2.393
69.42000 9.368
69.44000 10.065
69.46000 10.316
69.48000 8.049
69.50000 7.270
69.52000 5.597
69.54000 7.320
69.56000 6.222
69.58000 0.854
69.60000 4.704
69.62000 12.680
69.64000 11.037
69.66000 5.785
69.68000 4.213
69.70000 7.999
69.72000 4.563
69.74000 2.682
69.76000 7.551
69.78000 1.253
69.80000 -1.291
69.82000 3.591
69.84000 2.079
69.86000 3.456
69.88000 1.202
69.90000 -2.478
69.92000 -0.187
69.94000 6.629
69.96000 10.832
69.98000 4.632
70.00000 3.467
70.02000 5.458
70.04000 6.937
70.06000 5.348
70.08000 5.198
70.10000 4.206
70.12000 1.992
70.14000 8.876
70.16000 5.410
70.18000 4.715
70.20000 3.928
70.22000 0.030
70.24000 2.477
70.26000 2.367
70.28000 3.254
70.30000 3.547
70.32000 6.488
70.34000 4.955
70.36000 3.045
70.38000 2.294
70.40000 -1.403
70.42000 -0.193
70.44000 -1.145
70.46000 0.791
70.48000 3.269
70.50000 4.534
70.52000 4.261
70.54000 3.092
70.56000 -2.445
70.58000 3.619
70.60000 3.059
70.62000 2.469
70.64000 3.227
70.66000 3.841
70.68000 3.284
70.70000 5.125
70.72000 6.197
70.74000 1.421
70.76000 -1.485
70.78000 1.408
70.80000 0.189
70.82000 -0.169
70.84000 -0.539
70.86000 -0.753
70.88000 2.621
70.90000 0.649
70.92000 0.364
70.94000 2.992
70.96000 5.287
70.98000 4.171
71.00000 3.108
71.02000 3.958
71.04000 6.274
71.06000 5.157
71.08000 4.916
71.10000 3.841
71.12000 2.268
71.14000 -2.403
71.16000 -2.036
71.18000 -0.660
71.20000 4.280
71.22000 4.909
71.24000 5.377
71.26000 7.273
71.28000 -0.169
71.30000 -0.011
71.32000 2.135
71.34000 1.084
71.36000 0.958
71.38000 -0.335
71.40000 0.788
71.42000 1.458
71.44000 2.228
71.46000 3.466
71.48000 3.932
71.50000 3.632
71.52000 -0.885
71.54000 -1.818
71.56000 1.063
71.58000 1.070
71.60000 2.667
71.62000 3.230
71.64000 1.378
71.66000 1.491
71.68000 3.520
71.70000 -1.151
71.72000 0.716
71.74000 4.566
71.76000 3.168
71.78000 0.099
71.80000 -2.211
71.82000 0.670
71.84000 0.690
71.86000 2.042
71.88000 -2.078
71.90000 -1.432
71.92000 -0.852
71.94000 -0.915
71.96000 2.747
71.98000 8.456
72.00000 5.140
72.02000 6.810
72.04000 3.360
72.06000 -0.183
72.08000 0.295
72.10000 0.928
72.12000 0.121
72.14000 5.645
72.16000 4.725
72.18000 -0.084
72.20000 3.029
72.22000 -0.098
72.24000 -0.954
72.26000 0.144
72.28000 2.618
72.30000 0.511
72.32000 2.385
72.34000 1.898
72.36000 -0.256
72.38000 -0.147
72.40000 2.448
72.42000 3.232
72.44000 2.281
72.46000 0.658
72.48000 0.214
72.50000 -2.129
72.52000 0.954
72.54000 -0.066
72.56000 1.711
72.58000 3.787
72.60000 5.161
72.62000 4.852
72.64000 3.574
72.66000 2.820
72.68000 1.005
72.70000 2.773
72.72000 3.487
72.74000 5.380
72.76000 4.958
72.78000 0.662
72.80000 2.351
72.82000 1.445
72.84000 4.567
72.86000 5.949
72.88000 7.722
72.90000 4.386
72.92000 -2.340
72.94000 0.938
72.96000 4.559
72.98000 3.791
73.00000 3.035
73.02000 5.140
73.04000 6.073
73.06000 6.085
73.08000 4.060
73.10000 2.931
73.12000 7.004
73.14000 2.139
73.16000 -0.306
73.18000 3.257
73.20000 2.882
73.22000 3.409
73.24000 5.358
73.26000 5.588
73.28000 4.466
73.30000 3.125
73.32000 2.430
73.34000 4.041
73.36000 6.494
73.38000 4.110
73.40000 3.042
73.42000 3.269
73.44000 10.791
73.46000 6.906
73.48000 3.432
73.50000 3.906
73.52000 1.095
73.54000 -2.331
73.56000 -0.662
73.58000 3.145
73.60000 5.212
73.62000 2.001
73.64000 3.351
73.66000 3.459
73.68000 3.223
73.70000 3.594
73.72000 2.288
73.74000 0.242
73.76000 2.203
73.78000 1.093
73.80000 6.034
73.82000 5.311
73.84000 4.086
73.86000 -1.134
73.88000 1.823
73.90000 7.084
73.92000 9.169
73.94000 6.648
73.96000 4.122
73.98000 4.972
74.00000 4.371
74.02000 1.037
74.04000 -0.789
74.06000 2.334
74.08000 1.860
74.10000 4.098
74.12000 3.295
74.14000 1.568
74.16000 2.969
74.18000 1.998
74.20000 1.572
74.22000 -0.577
74.24000 3.055
74.26000 7.094
74.28000 3.486
74.30000 2.365
74.32000 4.844
74.34000 2.052
74.36000 3.932
74.38000 5.101
74.40000 3.481
74.42000 5.289
74.44000 1.844
74.46000 1.462
74.48000 5.226
74.50000 8.130
74.52000 7.520
74.54000 5.585
74.56000 6.446
74.58000 6.319
74.60000 1.119
74.62000 2.553
74.64000 2.711
74.66000 2.092
74.68000 4.479
74.70000 8.168
74.72000 9.604
74.74000 6.123
74.76000 0.277
74.78000 -2.329
74.80000 0.124
74.82000 5.338
74.84000 3.954
74.86000 1.186
74.88000 -0.838
74.90000 1.138
74.92000 1.075
74.94000 2.563
74.96000 6.977
74.98000 7.126
75.00000 7.829
75.02000 3.341
75.04000 0.331
75.06000 2.484
75.08000 -2.329
75.10000 0.752
75.12000 -0.051
75.14000 1.061
75.16000 -0.540
75.18000 0.486
75.20000 -0.104
75.22000 0.488
75.24000 2.535
75.26000 5.382
75.28000 3.281
75.30000 6.537
75.32000 9.318
75.34000 6.756
75.36000 7.049
75.38000 3.861
75.40000 6.766
75.42000 8.876
75.44000 7.135
75.46000 0.104
75.48000 3.863
75.50000 6.680
75.52000 5.618
75.54000 1.480
75.56000 1.339
75.58000 2.537
75.60000 1.634
75.62000 -1.514
75.64000 -2.239
75.66000 1.645
75.68000 -1.884
75.70000 -0.652
75.72000 5.612
75.74000 1.978
75.76000 0.147
75.78000 -0.323
75.80000 3.948
75.82000 3.869
75.84000 3.812
75.86000 3.714
75.88000 3.601
75.90000 6.384
75.92000 7.763
75.94000 2.688
75.96000 2.578
75.98000 5.021
76.00000 2.703
76.02000 3.559
76.04000 8.096
76.06000 8.476
76.08000 6.225
76.10000 6.987
76.12000 1.333
76.14000 -0.434
76.16000 -0.684
76.18000 1.990
76.20000 5.350
76.22000 8.030
76.24000 7.162
76.26000 7.480
76.28000 5.332
76.30000 5.154
76.32000 7.669
76.34000 4.980
76.36000 4.176
76.38000 6.953
76.40000 4.167
76.42000 2.597
76.44000 5.050
76.46000 7.381
76.48000 5.136
76.50000 -0.064
76.52000 1.589
76.54000 5.357
76.56000 3.953
76.58000 8.035
76.60000 5.886
76.62000 7.207
76.64000 4.902
76.66000 5.015
76.68000 8.167
76.70000 7.530
76.72000 1.868
76.74000 -2.303
76.76000 0.408
76.78000 2.518
76.80000 2.291
76.82000 7.065
76.84000 2.238
76.86000 5.001
76.88000 5.388
76.90000 2.420
76.92000 5.505
76.94000 8.459
76.96000 7.686
76.98000 6.162
77.00000 9.094
77.02000 7.366
77.04000 2.488
77.06000 3.264
77.08000 0.953
77.10000 1.095
77.12000 3.152
77.14000 1.666
77.16000 3.158
77.18000 1.517
77.20000 0.741
77.22000 1.678
77.24000 3.066
77.26000 2.768
77.28000 6.915
77.30000 10.247
77.32000 5.524
77.34000 3.472
77.36000 5.251
77.38000 4.044
77.40000 8.989
77.42000 2.946
77.44000 2.721
77.46000 4.474
77.48000 4.187
77.50000 4.759
77.52000 7.575
77.54000 5.214
77.56000 6.583
77.58000 3.139
77.60000 2.585
77.62000 0.399
77.64000 2.247
77.66000 6.998
77.68000 4.425
77.70000 2.991
77.72000 4.678
77.74000 6.414
77.76000 9.138
77.78000 8.282
77.80000 4.152
77.82000 3.651
77.84000 5.117
77.86000 7.025
77.88000 7.005
77.90000 4.760
77.92000 3.960
77.94000 4.217
77.96000 1.677
77.98000 1.390
78.00000 2.593
78.02000 8.025
78.04000 8.439
78.06000 4.523
78.08000 3.697
78.10000 0.880
78.12000 0.223
78.14000 -2.348
78.16000 0.058
78.18000 2.682
78.20000 8.039
78.22000 4.780
78.24000 1.741
78.26000 3.228
78.28000 6.653
78.30000 6.640
78.32000 7.272
78.34000 2.593
78.36000 3.226
78.38000 6.003
78.40000 3.027
78.42000 5.680
78.44000 -0.176
78.46000 2.411
78.48000 10.155
78.50000 5.149
78.52000 2.225
78.54000 4.921
78.56000 4.920
78.58000 3.113
78.60000 6.728
78.62000 -0.369
78.64000 -0.950
78.66000 2.119
78.68000 6.653
78.70000 6.190
78.72000 4.023
78.74000 4.198
78.76000 2.831
78.78000 2.917
78.80000 5.523
78.82000 5.607
78.84000 3.654
78.86000 2.371
78.88000 -2.406
78.90000 -1.442
78.92000 1.349
78.94000 5.292
78.96000 5.855
78.98000 2.146
79.00000 2.835
79.02000 7.027
79.04000 6.200
79.06000 4.121
79.08000 5.772
79.10000 9.170
79.12000 7.986
79.14000 1.421
79.16000 0.157
79.18000 -0.070
79.20000 0.420
79.22000 -0.263
79.24000 2.008
79.26000 2.975
79.28000 3.662
79.30000 5.970
79.32000 -0.248
79.34000 0.153
79.36000 -0.174
79.38000 4.921
79.40000 -2.444
79.42000 2.340
79.44000 3.677
79.46000 2.617
79.48000 -0.763
79.50000 1.400
79.52000 2.285
79.54000 7.052
79.56000 2.406
79.58000 1.675
79.60000 -0.872
79.62000 4.672
79.64000 4.299
79.66000 5.897
79.68000 3.997
79.70000 2.192
79.72000 0.101
79.74000 3.156
79.76000 1.547
79.78000 1.537
79.80000 -0.909
79.82000 1.094
79.84000 2.740
79.86000 3.622
79.88000 3.096
79.90000 1.560
79.92000 0.408
79.94000 1.739
79.96000 1.583
79.98000 0.153
80.00000 4.172
80.02000 3.969
80.04000 -2.468
80.06000 -1.040
80.08000 3.638
80.10000 5.930
80.12000 6.481
80.14000 1.386
80.16000 1.008
80.18000 3.019
80.20000 2.714
80.22000 -0.880
80.24000 3.035
80.26000 2.810
80.28000 2.813
80.30000 1.358
80.32000 2.619
80.34000 6.329
80.36000 7.562
80.38000 5.323
80.40000 8.959
80.42000 9.470
80.44000 10.124
80.46000 5.491
80.48000 8.098
80.50000 4.067
80.52000 4.963
80.54000 5.431
80.56000 5.332
80.58000 3.752
80.60000 5.057
80.62000 5.750
80.64000 1.405
80.66000 -0.524
80.68000 -2.479
80.70000 2.604
80.72000 3.675
80.74000 6.097
80.76000 8.264
80.78000 8.765
80.80000 7.170
80.82000 7.471
80.84000 5.943
80.86000 4.801
80.88000 6.894
80.90000 6.280
80.92000 2.328
80.94000 3.365
80.96000 4.313
80.98000 10.690
81.00000 10.887
81.02000 11.004
81.04000 9.028
81.06000 4.829
81.08000 6.673
81.10000 12.393
81.12000 11.094
81.14000 9.866
81.16000 10.993
81.18000 11.377
81.20000 9.747
81.22000 7.297
81.24000 10.984
81.26000 6.201
81.28000 5.829
81.30000 4.821
81.32000 14.952
81.34000 14.977
81.36000 9.669
81.38000 10.340
81.40000 10.307
81.42000 4.491
81.44000 7.702
81.46000 10.531
81.48000 10.226
81.50000 7.687
81.52000 10.793
81.54000 13.159
81.56000 10.847
81.58000 14.387
81.60000 17.697
81.62000 14.469
81.64000 16.180
81.66000 15.337
81.68000 11.593
81.70000 11.579
81.72000 17.604
81.74000 17.533
81.76000 10.842
81.78000 7.415
81.80000 10.542
81.82000 7.080
81.84000 14.147
81.86000 16.515
81.88000 19.034
81.90000 19.542
81.92000 20.896
81.94000 21.647
81.96000 19.647
81.98000 15.626
82.00000 17.296
82.02000 18.140
82.04000 19.500
82.06000 18.504
82.08000 17.570
82.10000 19.272
82.12000 23.405
82.14000 22.809
82.16000 23.371
82.18000 20.001
82.20000 25.865
82.22000 21.826
82.24000 17.941
82.26000 20.812
82.28000 25.066
82.30000 20.988
82.32000 18.514
82.34000 21.617
82.36000 24.431
82.38000 27.733
82.40000 27.176
82.42000 30.046
82.44000 28.546
82.46000 25.536
82.48000 27.721
82.50000 28.530
82.52000 28.087
82.54000 26.748
82.56000 25.799
82.58000 27.411
82.60000 27.654
82.62000 24.693
82.64000 25.517
82.66000 25.385
82.68000 28.952
82.70000 32.899
82.72000 32.207
82.74000 26.229
82.76000 19.997
82.78000 18.392
82.80000 24.451
82.82000 25.430
82.84000 28.005
82.86000 27.844
82.88000 23.156
82.90000 24.823
82.92000 27.416
82.94000 27.500
82.96000 25.003
82.98000 19.485
83.00000 24.032
83.02000 23.491
83.04000 19.362
83.06000 26.263
83.08000 24.888
83.10000 25.927
83.12000 22.558
83.14000 20.944
83.16000 18.624
83.18000 19.777
83.20000 25.398
83.22000 25.035
83.24000 20.908
83.26000 22.235
83.28000 22.785
83.30000 19.722
83.32000 17.199
83.34000 18.461
83.36000 14.695
83.38000 18.174
83.40000 19.048
83.42000 11.926
83.44000 11.110
83.46000 7.253
83.48000 10.615
83.50000 14.179
83.52000 10.109
83.54000 10.838
83.56000 10.926
83.58000 8.802
83.60000 10.050
83.62000 10.274
83.64000 8.769
83.66000 8.811
83.68000 11.924
83.70000 10.409
83.72000 9.809
83.74000 6.866
83.76000 7.248
83.78000 7.945
83.80000 10.610
83.82000 10.928
83.84000 10.330
83.86000 8.005
83.88000 2.973
83.90000 4.183
83.92000 12.384
83.94000 10.379
83.96000 3.603
83.98000 2.331
84.00000 9.918
84.02000 12.090
84.04000 13.337
84.06000 9.826
84.08000 6.578
84.10000 12.682
84.12000 8.448
84.14000 9.310
84.16000 4.678
84.18000 -0.134
84.20000 3.860
84.22000 3.453
84.24000 3.422
84.26000 3.243
84.28000 5.735
84.30000 4.283
84.32000 4.034
84.34000 6.326
84.36000 4.640
84.38000 5.331
84.40000 -1.223
84.42000 -2.478
84.44000 1.363
84.46000 6.252
84.48000 3.733
84.50000 0.367
84.52000 2.631
84.54000 4.370
84.56000 3.191
84.58000 2.919
84.60000 1.892
84.62000 -0.064
84.64000 2.842
84.66000 2.905
84.68000 6.529
84.70000 6.395
84.72000 3.913
84.74000 0.715
84.76000 4.414
84.78000 2.022
84.80000 -0.126
84.82000 1.753
84.84000 0.535
84.86000 0.495
84.88000 0.768
84.90000 0.631
84.92000 3.779
84.94000 2.393
84.96000 1.159
84.98000 0.923
85.00000 0.213
85.02000 -1.216
85.04000 3.843
85.06000 4.670
85.08000 1.624
85.10000 0.054
85.12000 1.173
85.14000 6.038
85.16000 8.317
85.18000 1.353
85.20000 1.043
85.22000 -2.461
85.24000 0.743
85.26000 0.459
85.28000 2.226
85.30000 1.707
85.32000 5.382
85.34000 8.677
85.36000 6.833
85.38000 1.479
85.40000 2.952
85.42000 0.399
85.44000 0.324
85.46000 -1.120
85.48000 6.184
85.50000 5.126
85.52000 3.867
85.54000 3.608
85.56000 4.869
85.58000 3.489
85.60000 2.531
85.62000 2.410
85.64000 5.341
85.66000 13.099
85.68000 7.816
85.70000 4.256
85.72000 6.598
85.74000 2.104
85.76000 6.911
85.78000 4.864
85.80000 2.551
85.82000 4.356
85.84000 5.216
85.86000 7.420
85.88000 10.050
85.90000 3.951
85.92000 6.232
85.94000 12.290
85.96000 9.896
85.98000 9.307
86.00000 13.474
86.02000 4.882
86.04000 1.428
86.06000 5.328
86.08000 5.253
86.10000 5.020
86.12000 8.464
86.14000 10.925
86.16000 10.145
86.18000 9.529
86.20000 5.770
86.22000 8.712
86.24000 9.823
86.26000 13.085
86.28000 14.096
86.30000 12.083
86.32000 10.233
86.34000 7.713
86.36000 12.782
86.38000 12.808
86.40000 18.725
86.42000 16.137
86.44000 21.952
86.46000 21.875
86.48000 16.931
86.50000 13.440
86.52000 10.055
86.54000 14.051
86.56000 17.242
86.58000 18.962
86.60000 19.316
86.62000 19.210
86.64000 19.141
86.66000 18.000
86.68000 13.303
86.70000 20.068
86.72000 23.791
86.74000 21.871
86.76000 17.305
86.78000 16.146
86.80000 20.620
86.82000 30.320
86.84000 24.633
86.86000 18.602
86.88000 18.342
86.90000 20.900
86.92000 19.631
86.94000 19.935
86.96000 19.212
86.98000 21.216
87.00000 26.650
87.02000 29.714
87.04000 29.517
87.06000 27.628
87.08000 23.103
87.10000 21.523
87.12000 25.401
87.14000 29.784
87.16000 25.298
87.18000 27.327
87.20000 25.204
87.22000 26.022
87.24000 24.609
87.26000 24.006
87.28000 20.795
87.30000 20.670
87.32000 21.465
87.34000 26.279
87.36000 23.972
87.38000 24.115
87.40000 18.727
87.42000 19.389
87.44000 23.731
87.46000 21.548
87.48000 18.132
87.50000 18.860
87.52000 18.723
87.54000 19.268
87.56000 17.916
87.58000 17.550
87.60000 14.745
87.62000 16.525
87.64000 13.786
87.66000 13.793
87.68000 14.154
87.70000 16.373
87.72000 16.986
87.74000 10.577
87.76000 11.732
87.78000 14.187
87.80000 18.757
87.82000 12.995
87.84000 9.357
87.86000 12.189
87.88000 9.997
87.90000 8.819
87.92000 6.644
87.94000 8.399
87.96000 8.744
87.98000 7.909
88.00000 7.886
88.02000 9.686
88.04000 12.747
88.06000 10.336
88.08000 4.792
88.10000 2.316
88.12000 4.452
88.14000 7.379
88.16000 5.874
88.18000 5.435
88.20000 5.840
88.22000 6.652
88.24000 7.463
88.26000 5.291
88.28000 5.046
88.30000 3.226
88.32000 3.047
88.34000 1.617
88.36000 6.395
88.38000 9.785
88.40000 4.998
88.42000 0.063
88.44000 3.022
88.46000 7.434
88.48000 7.471
88.50000 5.159
88.52000 4.269
88.54000 5.083
88.56000 9.468
88.58000 10.582
88.60000 5.787
88.62000 8.653
88.64000 2.706
88.66000 1.112
88.68000 -1.755
88.70000 1.832
88.72000 2.065
88.74000 -0.215
88.76000 1.429
88.78000 0.709
88.80000 -2.276
88.82000 1.702
88.84000 7.404
88.86000 6.184
88.88000 6.105
88.90000 5.957
88.92000 1.087
88.94000 2.659
88.96000 2.782
88.98000 1.787
89.00000 -0.114
89.02000 1.079
89.04000 8.371
89.06000 5.298
89.08000 10.088
89.10000 4.286
89.12000 1.019
89.14000 4.202
89.16000 8.457
89.18000 2.676
89.20000 -0.476
89.22000 4.810
89.24000 3.514
89.26000 -1.193
89.28000 1.982
89.30000 6.633
89.32000 2.139
89.34000 -0.667
89.36000 -2.270
89.38000 -0.752
89.40000 2.649
89.42000 3.427
89.44000 1.500
89.46000 2.513
89.48000 3.576
89.50000 5.951
89.52000 3.212
89.54000 2.584
89.56000 9.591
89.58000 2.826
89.60000 0.006
89.62000 7.371
89.64000 1.222
89.66000 -0.671
89.68000 -1.095
89.70000 4.248
89.72000 5.770
89.74000 1.908
89.76000 -1.456
89.78000 1.433
89.80000 0.224
89.82000 1.616
89.84000 0.792
89.86000 5.509
89.88000 6.975
89.90000 7.962
89.92000 6.745
89.94000 3.723
89.96000 3.346
89.98000 4.322
90.00000 4.067
90.02000 3.098
90.04000 3.962
90.06000 6.929
90.08000 5.549
90.10000 6.571
90.12000 3.526
90.14000 5.371
90.16000 -2.226
90.18000 2.233
90.20000 1.121
90.22000 5.926
90.24000 8.727
90.26000 2.261
90.28000 0.681
90.30000 -1.002
90.32000 -0.142
90.34000 1.685
90.36000 4.414
90.38000 5.254
90.40000 2.649
90.42000 3.902
90.44000 1.448
90.46000 3.594
90.48000 2.408
90.50000 3.138
90.52000 7.684
90.54000 12.156
90.56000 7.260
90.58000 3.791
90.60000 1.218
90.62000 2.505
90.64000 1.361
90.66000 7.303
90.68000 6.187
90.70000 4.610
90.72000 3.957
90.74000 4.474
90.76000 3.181
90.78000 -2.213
90.80000 -2.151
90.82000 5.146
90.84000 5.540
90.86000 3.237
90.88000 1.577
90.90000 1.888
90.92000 1.525
90.94000 4.040
90.96000 -2.215
90.98000 3.523
91.00000 3.386
91.02000 -1.129
91.04000 -0.129
91.06000 2.300
91.08000 3.644
91.10000 2.124
91.12000 2.224
91.14000 0.965
91.16000 1.640
91.18000 6.417
91.20000 6.986
91.22000 5.230
91.24000 2.792
91.26000 1.198
91.28000 3.891
91.30000 4.003
91.32000 4.347
91.34000 2.210
91.36000 4.204
91.38000 4.460
91.40000 3.055
91.42000 0.247
91.44000 0.015
91.46000 0.155
91.48000 3.346
91.50000 9.496
91.52000 4.969
91.54000 3.154
91.56000 2.932
91.58000 3.982
91.60000 4.691
91.62000 2.293
91.64000 5.193
91.66000 6.241
91.68000 2.709
91.70000 0.041
91.72000 -0.240
91.74000 3.615
91.76000 1.061
91.78000 -2.232
91.80000 4.847
91.82000 7.206
91.84000 1.896
91.86000 4.748
91.88000 6.351
91.90000 8.325
91.92000 6.555
91.94000 3.789
91.96000 1.870
91.98000 2.157
92.00000 2.398
92.02000 3.014
92.04000 4.403
92.06000 1.369
92.08000 3.988
92.10000 6.817
92.12000 10.597
92.14000 6.898
92.16000 1.272
92.18000 1.204
92.20000 6.428
92.22000 7.491
92.24000 4.472
92.26000 2.893
92.28000 2.226
92.30000 6.492
92.32000 3.459
92.34000 -1.941
92.36000 0.867
92.38000 0.411
92.40000 -2.058
92.42000 2.469
92.44000 0.456
92.46000 2.863
92.48000 6.079
92.50000 6.621
92.52000 5.990
92.54000 7.750
92.56000 4.497
92.58000 3.164
92.60000 1.155
92.62000 6.144
92.64000 5.635
92.66000 2.749
92.68000 -0.008
92.70000 3.013
92.72000 0.347
92.74000 3.813
92.76000 2.771
92.78000 2.668
92.80000 1.631
92.82000 -0.804
92.84000 4.502
92.86000 8.851
92.88000 4.338
92.90000 4.175
92.92000 4.146
92.94000 4.640
92.96000 2.391
92.98000 0.493
93.00000 3.550
93.02000 6.017
93.04000 8.010
93.06000 6.020
93.08000 6.329
93.10000 7.491
93.12000 8.544
93.14000 3.335
93.16000 -0.102
93.18000 -1.301
93.20000 3.077
93.22000 6.399
93.24000 2.915
93.26000 3.320
93.28000 8.331
93.30000 8.698
93.32000 6.547
93.34000 2.090
93.36000 0.540
93.38000 2.047
93.40000 2.297
93.42000 7.247
93.44000 4.642
93.46000 3.534
93.48000 -2.187
93.50000 0.957
93.52000 3.817
93.54000 2.855
93.56000 7.368
93.58000 11.966
93.60000 9.883
93.62000 6.165
93.64000 7.283
93.66000 10.206
93.68000 4.066
93.70000 5.406
93.72000 8.460
93.74000 8.765
93.76000 8.300
93.78000 8.395
93.80000 9.610
93.82000 13.949
93.84000 5.574
93.86000 7.715
93.88000 6.842
93.90000 7.258
93.92000 2.778
93.94000 2.700
93.96000 4.738
93.98000 6.335
94.00000 2.954
94.02000 1.982
94.04000 4.843
94.06000 1.067
94.08000 5.658
94.10000 8.130
94.12000 7.990
94.14000 4.991
94.16000 2.206
94.18000 2.662
94.20000 3.930
94.22000 3.860
94.24000 7.863
94.26000 5.245
94.28000 1.285
94.30000 5.577
94.32000 7.441
94.34000 4.534
94.36000 1.388
94.38000 5.500
94.40000 3.601
94.42000 4.550
94.44000 5.147
94.46000 5.422
94.48000 5.260
94.50000 2.866
94.52000 1.879
94.54000 2.230
94.56000 3.962
94.58000 3.245
94.60000 8.083
94.62000 2.736
94.64000 0.731
94.66000 5.807
94.68000 9.624
94.70000 1.926
94.72000 5.287
94.74000 4.086
94.76000 3.486
94.78000 7.501
94.80000 8.762
94.82000 3.595
94.84000 4.290
94.86000 7.804
94.88000 5.756
94.90000 2.957
94.92000 3.171
94.94000 6.902
94.96000 11.769
94.98000 9.645
95.00000 1.700
95.02000 1.887
95.04000 4.965
95.06000 4.115
95.08000 4.454
95.10000 10.542
95.12000 8.583
95.14000 5.859
95.16000 2.199
95.18000 0.582
95.20000 -0.217
95.22000 1.216
95.24000 -0.275
95.26000 -0.582
95.28000 1.818
95.30000 2.394
95.32000 4.662
95.34000 8.186
95.36000 8.857
95.38000 11.841
95.40000 4.195
95.42000 1.481
95.44000 4.225
95.46000 7.548
95.48000 8.973
95.50000 9.980
95.52000 2.943
95.54000 6.821
95.56000 4.902
95.58000 1.454
95.60000 0.066
95.62000 -2.205
95.64000 6.810
95.66000 8.278
95.68000 6.669
95.70000 11.282
95.72000 16.534
95.74000 10.434
95.76000 6.440
95.78000 7.053
95.80000 10.395
95.82000 10.329
95.84000 8.168
95.86000 9.699
95.88000 6.258
95.90000 6.642
95.92000 10.260
95.94000 9.593
95.96000 9.378
95.98000 5.442
96.00000 3.437
96.02000 7.546
96.04000 4.857
96.06000 7.729
96.08000 2.473
96.10000 7.119
96.12000 9.298
96.14000 3.393
96.16000 0.557
96.18000 2.032
96.20000 2.154
96.22000 3.381
96.24000 3.553
96.26000 6.022
96.28000 2.250
96.30000 -2.204
96.32000 4.253
96.34000 4.974
96.36000 7.567
96.38000 10.107
96.40000 9.426
96.42000 8.916
96.44000 6.612
96.46000 3.379
96.48000 4.462
96.50000 11.724
96.52000 11.779
96.54000 8.835
96.56000 4.727
96.58000 7.075
96.60000 5.301
96.62000 5.702
96.64000 4.993
96.66000 3.104
96.68000 8.620
96.70000 9.204
96.72000 5.829
96.74000 2.737
96.76000 2.985
96.78000 6.921
96.80000 4.702
96.82000 4.988
96.84000 4.312
96.86000 1.187
96.88000 2.218
96.90000 4.366
96.92000 5.464
96.94000 3.514
96.96000 4.632
96.98000 6.942
97.00000 4.428
97.02000 2.262
97.04000 3.825
97.06000 5.325
97.08000 5.327
97.10000 5.463
97.12000 8.910
97.14000 5.092
97.16000 2.883
97.18000 7.812
97.20000 11.681
97.22000 14.353
97.24000 9.095
97.26000 6.231
97.28000 3.330
97.30000 7.866
97.32000 5.391
97.34000 8.959
97.36000 9.243
97.38000 17.101
97.40000 16.168
97.42000 9.084
97.44000 3.351
97.46000 2.113
97.48000 7.363
97.50000 8.598
97.52000 5.635
97.54000 6.770
97.56000 5.005
97.58000 7.414
97.60000 0.505
97.62000 -0.047
97.64000 2.475
97.66000 6.644
97.68000 11.979
97.70000 0.070
97.72000 -0.113
97.74000 4.199
97.76000 6.366
97.78000 -1.008
97.80000 4.900
97.82000 7.703
97.84000 9.932
97.86000 9.975
97.88000 14.349
97.90000 8.562
97.92000 5.740
97.94000 0.645
97.96000 -2.159
97.98000 0.279
98.00000 5.634
98.02000 12.999
98.04000 10.697
98.06000 6.375
98.08000 2.512
98.10000 4.681
98.12000 8.542
98.14000 3.115
98.16000 7.569
98.18000 2.864
98.20000 10.728
98.22000 14.783
98.24000 7.712
98.26000 10.484
98.28000 7.093
98.30000 11.939
98.32000 11.636
98.34000 9.005
98.36000 8.805
98.38000 14.636
98.40000 7.366
98.42000 5.902
98.44000 12.485
98.46000 16.830
98.48000 14.620
98.50000 10.960
98.52000 15.149
98.54000 2.068
98.56000 1.321
98.58000 3.366
98.60000 5.532
98.62000 4.960
98.64000 2.397
98.66000 9.036
98.68000 10.213
98.70000 5.953
98.72000 3.592
98.74000 5.789
98.76000 10.244
98.78000 4.799
98.80000 6.761
98.82000 -0.790
98.84000 2.133
98.86000 6.324
98.88000 5.071
98.90000 6.579
98.92000 6.107
98.94000 2.789
98.96000 -1.678
98.98000 0.581
99.00000 3.298
99.02000 9.896
99.04000 11.069
99.06000 13.077
99.08000 7.368
99.10000 2.896
99.12000 4.484
99.14000 8.031
99.16000 -0.182
99.18000 -1.119
99.20000 8.858
99.22000 1.941
99.24000 10.835
99.26000 11.070
99.28000 11.606
99.30000 11.049
99.32000 17.141
99.34000 12.778
99.36000 16.758
99.38000 15.452
99.40000 11.708
99.42000 0.178
99.44000 -2.137
99.46000 6.917
99.48000 12.067
99.50000 5.379
99.52000 1.687
99.54000 11.674
99.56000 1.441
99.58000 11.074
99.60000 5.422
99.62000 -1.872
99.64000 6.136
99.66000 6.738
99.68000 8.653
99.70000 -0.340
99.72000 -2.218
99.74000 0.733
99.76000 4.622
99.78000 6.583
99.80000 3.189
99.82000 13.877
99.84000 16.921
99.86000 12.225
99.88000 0.860
99.90000 3.773
99.92000 -1.694
99.94000 2.031
99.96000 -2.340
99.98000 0.000
