'Id: "0011388" Comment: "Integrate frame 0011388_Au-Ir-Rh_Rh-rich_XRD-Mapping-157-0000.gfrmwith cursor Wedge Cursor #5" Operator: "B?rgel" Anode: "Cu" Wavelength: "1.5406" Scantype: "2Theta (TwoTheta)" TimePerStep: "1" X: "-45" Y: "0" Z: "5.95" 
10.00000 0.000
10.02000 -4.655
10.04000 -2.360
10.06000 1.073
10.08000 -4.571
10.10000 10.916
10.12000 20.541
10.14000 13.139
10.16000 25.008
10.18000 13.287
10.20000 13.100
10.22000 -2.973
10.24000 0.500
10.26000 11.885
10.28000 10.624
10.30000 6.723
10.32000 18.441
10.34000 22.023
10.36000 14.604
10.38000 0.588
10.40000 6.357
10.42000 14.433
10.44000 18.881
10.46000 33.151
10.48000 21.538
10.50000 13.544
10.52000 24.127
10.54000 20.103
10.56000 29.620
10.58000 30.309
10.60000 23.768
10.62000 35.428
10.64000 37.768
10.66000 25.679
10.68000 10.059
10.70000 -4.503
10.72000 0.546
10.74000 10.078
10.76000 5.266
10.78000 0.246
10.80000 8.151
10.82000 13.393
10.84000 15.594
10.86000 18.837
10.88000 20.737
10.90000 15.827
10.92000 18.110
10.94000 8.895
10.96000 9.851
10.98000 5.174
11.00000 1.464
11.02000 5.109
11.04000 -0.801
11.06000 21.679
11.08000 25.682
11.10000 9.393
11.12000 6.841
11.14000 7.268
11.16000 1.846
11.18000 6.710
11.20000 21.940
11.22000 10.175
11.24000 10.231
11.26000 20.975
11.28000 14.082
11.30000 16.928
11.32000 18.820
11.34000 11.506
11.36000 9.790
11.38000 14.505
11.40000 14.223
11.42000 13.977
11.44000 15.963
11.46000 11.167
11.48000 2.486
11.50000 -3.568
11.52000 11.450
11.54000 21.396
11.56000 12.860
11.58000 5.310
11.60000 15.560
11.62000 26.745
11.64000 16.842
11.66000 3.739
11.68000 10.146
11.70000 25.778
11.72000 21.789
11.74000 13.823
11.76000 6.197
11.78000 5.335
11.80000 6.721
11.82000 14.474
11.84000 13.982
11.86000 7.928
11.88000 0.204
11.90000 9.386
11.92000 15.556
11.94000 3.138
11.96000 1.032
11.98000 -0.410
12.00000 -4.509
12.02000 4.450
12.04000 13.388
12.06000 12.339
12.08000 11.447
12.10000 19.733
12.12000 10.138
12.14000 -2.438
12.16000 1.775
12.18000 9.145
12.20000 6.158
12.22000 2.258
12.24000 6.246
12.26000 9.263
12.28000 15.915
12.30000 16.553
12.32000 4.536
12.34000 4.172
12.36000 -2.006
12.38000 10.633
12.40000 14.753
12.42000 17.075
12.44000 14.919
12.46000 6.722
12.48000 7.481
12.50000 16.690
12.52000 -1.533
12.54000 -3.459
12.56000 7.884
12.58000 4.210
12.60000 4.645
12.62000 -1.488
12.64000 2.109
12.66000 9.407
12.68000 4.804
12.70000 -3.924
12.72000 -2.422
12.74000 3.054
12.76000 1.219
12.78000 2.422
12.80000 11.086
12.82000 12.294
12.84000 9.186
12.86000 3.519
12.88000 12.002
12.90000 9.842
12.92000 5.915
12.94000 2.398
12.96000 13.287
12.98000 0.446
13.00000 -0.099
13.02000 9.682
13.04000 17.158
13.06000 12.383
13.08000 -1.387
13.10000 -3.938
13.12000 -1.945
13.14000 6.323
13.16000 8.583
13.18000 10.872
13.20000 7.972
13.22000 9.520
13.24000 13.629
13.26000 15.043
13.28000 18.939
13.30000 5.338
13.32000 -0.532
13.34000 2.761
13.36000 14.124
13.38000 21.488
13.40000 17.361
13.42000 3.720
13.44000 10.989
13.46000 9.858
13.48000 4.240
13.50000 14.081
13.52000 7.897
13.54000 12.909
13.56000 12.545
13.58000 9.769
13.60000 3.222
13.62000 0.699
13.64000 -2.801
13.66000 5.504
13.68000 8.005
13.70000 9.728
13.72000 3.978
13.74000 5.394
13.76000 10.149
13.78000 11.842
13.80000 14.862
13.82000 7.081
13.84000 8.928
13.86000 6.826
13.88000 6.975
13.90000 17.567
13.92000 25.530
13.94000 14.309
13.96000 5.254
13.98000 9.912
14.00000 7.796
14.02000 12.705
14.04000 7.674
14.06000 4.885
14.08000 2.405
14.10000 9.785
14.12000 4.992
14.14000 10.530
14.16000 10.599
14.18000 6.559
14.20000 11.288
14.22000 5.194
14.24000 3.257
14.26000 4.087
14.28000 11.984
14.30000 13.822
14.32000 6.377
14.34000 3.491
14.36000 1.443
14.38000 2.157
14.40000 -4.474
14.42000 3.518
14.44000 11.681
14.46000 10.985
14.48000 1.825
14.50000 -4.329
14.52000 3.480
14.54000 3.254
14.56000 5.148
14.58000 6.208
14.60000 13.701
14.62000 23.233
14.64000 10.942
14.66000 7.866
14.68000 0.717
14.70000 -3.016
14.72000 1.963
14.74000 2.565
14.76000 5.053
14.78000 2.218
14.80000 1.173
14.82000 12.545
14.84000 13.299
14.86000 10.895
14.88000 2.114
14.90000 10.705
14.92000 8.817
14.94000 8.808
14.96000 10.198
14.98000 13.246
15.00000 15.025
15.02000 9.863
15.04000 7.623
15.06000 7.321
15.08000 8.342
15.10000 8.242
15.12000 8.772
15.14000 14.093
15.16000 10.578
15.18000 12.174
15.20000 13.545
15.22000 28.743
15.24000 25.636
15.26000 18.992
15.28000 13.129
15.30000 10.514
15.32000 12.460
15.34000 10.333
15.36000 14.693
15.38000 17.275
15.40000 9.555
15.42000 -3.462
15.44000 10.127
15.46000 18.946
15.48000 19.502
15.50000 8.972
15.52000 7.761
15.54000 10.672
15.56000 4.944
15.58000 -1.066
15.60000 8.189
15.62000 20.658
15.64000 21.999
15.66000 17.320
15.68000 10.846
15.70000 14.615
15.72000 13.598
15.74000 9.922
15.76000 8.654
15.78000 11.781
15.80000 16.773
15.82000 19.331
15.84000 19.495
15.86000 14.483
15.88000 7.392
15.90000 0.605
15.92000 -4.345
15.94000 3.427
15.96000 11.867
15.98000 4.006
16.00000 0.871
16.02000 2.055
16.04000 9.958
16.06000 17.090
16.08000 12.684
16.10000 7.915
16.12000 10.496
16.14000 14.881
16.16000 20.067
16.18000 15.926
16.20000 11.973
16.22000 11.779
16.24000 9.253
16.26000 7.247
16.28000 5.915
16.30000 9.620
16.32000 13.815
16.34000 21.527
16.36000 18.624
16.38000 14.833
16.40000 4.915
16.42000 12.434
16.44000 9.665
16.46000 5.951
16.48000 5.947
16.50000 12.490
16.52000 6.361
16.54000 8.111
16.56000 13.444
16.58000 10.573
16.60000 2.534
16.62000 7.366
16.64000 7.496
16.66000 4.362
16.68000 6.512
16.70000 16.193
16.72000 13.615
16.74000 14.046
16.76000 8.113
16.78000 14.156
16.80000 9.694
16.82000 8.398
16.84000 13.867
16.86000 11.035
16.88000 12.784
16.90000 9.054
16.92000 7.952
16.94000 10.857
16.96000 6.266
16.98000 8.385
17.00000 7.540
17.02000 9.794
17.04000 6.335
17.06000 12.635
17.08000 1.456
17.10000 2.594
17.12000 20.021
17.14000 9.881
17.16000 3.111
17.18000 7.755
17.20000 4.922
17.22000 6.343
17.24000 4.606
17.26000 4.226
17.28000 8.749
17.30000 7.459
17.32000 9.403
17.34000 13.201
17.36000 14.963
17.38000 11.694
17.40000 12.180
17.42000 15.289
17.44000 16.854
17.46000 19.396
17.48000 16.120
17.50000 6.896
17.52000 5.086
17.54000 10.693
17.56000 8.013
17.58000 9.899
17.60000 15.448
17.62000 12.753
17.64000 9.181
17.66000 5.133
17.68000 9.022
17.70000 17.267
17.72000 18.358
17.74000 9.079
17.76000 0.068
17.78000 5.543
17.80000 5.865
17.82000 6.825
17.84000 4.153
17.86000 5.899
17.88000 9.633
17.90000 8.804
17.92000 8.483
17.94000 10.735
17.96000 7.760
17.98000 1.400
18.00000 0.657
18.02000 0.823
18.04000 -2.213
18.06000 -4.302
18.08000 -1.407
18.10000 -0.139
18.12000 5.923
18.14000 7.006
18.16000 11.788
18.18000 13.167
18.20000 2.818
18.22000 2.435
18.24000 4.732
18.26000 10.854
18.28000 8.653
18.30000 12.653
18.32000 6.407
18.34000 8.007
18.36000 4.461
18.38000 9.297
18.40000 12.713
18.42000 8.988
18.44000 0.525
18.46000 4.497
18.48000 8.547
18.50000 5.668
18.52000 11.336
18.54000 15.435
18.56000 11.448
18.58000 10.782
18.60000 3.830
18.62000 1.078
18.64000 8.072
18.66000 14.138
18.68000 5.901
18.70000 6.783
18.72000 12.707
18.74000 10.471
18.76000 9.682
18.78000 8.015
18.80000 1.364
18.82000 9.899
18.84000 12.783
18.86000 9.826
18.88000 3.844
18.90000 5.837
18.92000 7.631
18.94000 5.608
18.96000 4.650
18.98000 7.827
19.00000 7.075
19.02000 10.270
19.04000 8.866
19.06000 14.414
19.08000 11.375
19.10000 3.136
19.12000 -4.226
19.14000 0.866
19.16000 4.948
19.18000 7.748
19.20000 5.241
19.22000 3.428
19.24000 7.316
19.26000 11.101
19.28000 16.778
19.30000 8.852
19.32000 11.682
19.34000 3.717
19.36000 2.557
19.38000 1.656
19.40000 4.913
19.42000 8.248
19.44000 1.204
19.46000 -2.597
19.48000 5.850
19.50000 10.640
19.52000 8.309
19.54000 7.436
19.56000 13.177
19.58000 8.893
19.60000 1.819
19.62000 4.404
19.64000 3.684
19.66000 -0.534
19.68000 -4.210
19.70000 1.887
19.72000 6.027
19.74000 7.012
19.76000 0.609
19.78000 5.882
19.80000 3.839
19.82000 -3.546
19.84000 2.407
19.86000 5.029
19.88000 1.402
19.90000 0.428
19.92000 1.777
19.94000 6.417
19.96000 5.655
19.98000 4.033
20.00000 8.629
20.02000 11.747
20.04000 9.978
20.06000 3.574
20.08000 4.752
20.10000 9.367
20.12000 11.080
20.14000 7.558
20.16000 5.246
20.18000 9.548
20.20000 11.048
20.22000 7.545
20.24000 2.842
20.26000 3.344
20.28000 2.709
20.30000 9.592
20.32000 10.661
20.34000 5.984
20.36000 2.463
20.38000 8.704
20.40000 6.315
20.42000 7.991
20.44000 9.620
20.46000 -0.184
20.48000 6.504
20.50000 2.950
20.52000 4.106
20.54000 8.646
20.56000 6.662
20.58000 5.365
20.60000 -0.230
20.62000 1.176
20.64000 3.231
20.66000 2.060
20.68000 3.402
20.70000 7.823
20.72000 7.402
20.74000 13.442
20.76000 4.693
20.78000 8.731
20.80000 8.085
20.82000 3.892
20.84000 4.739
20.86000 -1.563
20.88000 -4.153
20.90000 -0.802
20.92000 -0.234
20.94000 3.714
20.96000 6.298
20.98000 8.473
21.00000 7.239
21.02000 5.640
21.04000 6.129
21.06000 13.335
21.08000 12.438
21.10000 2.326
21.12000 3.374
21.14000 3.297
21.16000 2.196
21.18000 1.336
21.20000 2.958
21.22000 3.873
21.24000 -0.138
21.26000 0.358
21.28000 3.140
21.30000 11.484
21.32000 7.469
21.34000 1.189
21.36000 3.303
21.38000 8.981
21.40000 4.946
21.42000 7.859
21.44000 8.574
21.46000 5.684
21.48000 11.509
21.50000 13.790
21.52000 11.412
21.54000 2.044
21.56000 1.125
21.58000 -0.898
21.60000 1.730
21.62000 3.029
21.64000 3.833
21.66000 3.172
21.68000 -1.417
21.70000 2.131
21.72000 -0.240
21.74000 0.521
21.76000 -1.984
21.78000 3.715
21.80000 1.819
21.82000 -1.023
21.84000 2.863
21.86000 5.718
21.88000 9.632
21.90000 4.599
21.92000 4.842
21.94000 4.886
21.96000 -0.897
21.98000 -0.182
22.00000 5.926
22.02000 4.386
22.04000 0.758
22.06000 2.799
22.08000 5.633
22.10000 5.025
22.12000 2.916
22.14000 -0.864
22.16000 -1.103
22.18000 1.481
22.20000 7.126
22.22000 -1.744
22.24000 -0.742
22.26000 2.752
22.28000 3.469
22.30000 -0.794
22.32000 3.320
22.34000 6.527
22.36000 -1.344
22.38000 -3.690
22.40000 -3.445
22.42000 5.703
22.44000 4.207
22.46000 4.356
22.48000 -4.085
22.50000 -1.730
22.52000 6.390
22.54000 10.531
22.56000 10.589
22.58000 5.074
22.60000 7.565
22.62000 5.052
22.64000 2.078
22.66000 3.216
22.68000 4.686
22.70000 3.092
22.72000 7.912
22.74000 8.270
22.76000 5.810
22.78000 3.501
22.80000 5.465
22.82000 4.932
22.84000 -0.367
22.86000 -3.771
22.88000 1.156
22.90000 3.395
22.92000 7.898
22.94000 0.949
22.96000 3.271
22.98000 -4.047
23.00000 -0.808
23.02000 5.627
23.04000 4.062
23.06000 3.903
23.08000 5.289
23.10000 8.384
23.12000 6.994
23.14000 2.765
23.16000 1.875
23.18000 -0.540
23.20000 3.126
23.22000 8.182
23.24000 6.728
23.26000 8.967
23.28000 6.095
23.30000 4.998
23.32000 0.292
23.34000 -4.018
23.36000 -2.389
23.38000 0.992
23.40000 -0.547
23.42000 0.206
23.44000 6.154
23.46000 -0.620
23.48000 0.866
23.50000 2.652
23.52000 4.879
23.54000 1.324
23.56000 2.818
23.58000 5.672
23.60000 0.543
23.62000 -4.014
23.64000 -4.012
23.66000 3.230
23.68000 5.493
23.70000 5.700
23.72000 7.695
23.74000 6.959
23.76000 2.323
23.78000 3.792
23.80000 9.625
23.82000 9.738
23.84000 3.898
23.86000 1.590
23.88000 4.545
23.90000 5.781
23.92000 4.931
23.94000 8.636
23.96000 8.232
23.98000 3.896
24.00000 0.733
24.02000 -1.485
24.04000 -3.924
24.06000 -3.075
24.08000 1.009
24.10000 1.538
24.12000 3.608
24.14000 3.341
24.16000 4.383
24.18000 8.118
24.20000 13.780
24.22000 8.728
24.24000 5.500
24.26000 1.069
24.28000 2.446
24.30000 7.890
24.32000 1.734
24.34000 7.023
24.36000 5.061
24.38000 5.993
24.40000 8.362
24.42000 5.846
24.44000 4.312
24.46000 5.344
24.48000 1.732
24.50000 0.014
24.52000 3.765
24.54000 9.174
24.56000 4.626
24.58000 5.845
24.60000 4.126
24.62000 5.916
24.64000 2.815
24.66000 4.640
24.68000 2.211
24.70000 2.837
24.72000 1.205
24.74000 1.534
24.76000 5.325
24.78000 3.066
24.80000 3.270
24.82000 1.998
24.84000 11.164
24.86000 15.801
24.88000 13.307
24.90000 13.784
24.92000 3.478
24.94000 4.899
24.96000 8.922
24.98000 6.111
25.00000 7.891
25.02000 4.593
25.04000 8.574
25.06000 9.369
25.08000 6.502
25.10000 3.415
25.12000 0.209
25.14000 1.844
25.16000 2.539
25.18000 -2.569
25.20000 -3.918
25.22000 8.326
25.24000 12.958
25.26000 6.880
25.28000 5.586
25.30000 5.493
25.32000 0.976
25.34000 2.002
25.36000 5.615
25.38000 8.543
25.40000 5.937
25.42000 5.404
25.44000 5.212
25.46000 0.909
25.48000 -0.571
25.50000 4.189
25.52000 3.573
25.54000 3.436
25.56000 4.632
25.58000 0.884
25.60000 -1.827
25.62000 -0.817
25.64000 2.910
25.66000 4.722
25.68000 -3.301
25.70000 -1.652
25.72000 1.739
25.74000 4.681
25.76000 3.453
25.78000 6.471
25.80000 4.719
25.82000 2.288
25.84000 1.043
25.86000 2.958
25.88000 -2.366
25.90000 -3.897
25.92000 -2.879
25.94000 0.880
25.96000 3.877
25.98000 0.996
26.00000 0.473
26.02000 0.048
26.04000 2.132
26.06000 2.535
26.08000 -0.655
26.10000 0.292
26.12000 2.617
26.14000 4.890
26.16000 3.873
26.18000 6.594
26.20000 2.542
26.22000 1.682
26.24000 3.490
26.26000 3.415
26.28000 6.809
26.30000 3.126
26.32000 -0.100
26.34000 -3.874
26.36000 0.358
26.38000 0.207
26.40000 2.996
26.42000 3.900
26.44000 5.324
26.46000 3.713
26.48000 7.530
26.50000 3.680
26.52000 -1.364
26.54000 1.193
26.56000 2.639
26.58000 -1.590
26.60000 1.635
26.62000 5.468
26.64000 6.903
26.66000 5.363
26.68000 2.839
26.70000 1.240
26.72000 -1.903
26.74000 1.380
26.76000 6.283
26.78000 2.471
26.80000 4.955
26.82000 5.583
26.84000 6.520
26.86000 2.844
26.88000 -3.843
26.90000 -2.956
26.92000 -0.531
26.94000 -0.625
26.96000 1.476
26.98000 -2.507
27.00000 -1.280
27.02000 2.832
27.04000 9.581
27.06000 8.193
27.08000 1.069
27.10000 -0.118
27.12000 5.301
27.14000 8.083
27.16000 4.410
27.18000 7.954
27.20000 6.058
27.22000 5.606
27.24000 4.336
27.26000 2.702
27.28000 1.861
27.30000 -0.246
27.32000 -0.382
27.34000 5.672
27.36000 3.052
27.38000 0.145
27.40000 -0.118
27.42000 -3.826
27.44000 4.530
27.46000 3.530
27.48000 0.267
27.50000 -1.650
27.52000 -1.478
27.54000 -2.024
27.56000 -2.228
27.58000 2.334
27.60000 1.732
27.62000 1.368
27.64000 -2.593
27.66000 -2.706
27.68000 4.612
27.70000 3.690
27.72000 0.302
27.74000 2.834
27.76000 5.124
27.78000 4.922
27.80000 -0.056
27.82000 1.271
27.84000 1.598
27.86000 2.590
27.88000 1.215
27.90000 -3.460
27.92000 -0.840
27.94000 -0.630
27.96000 2.617
27.98000 4.757
28.00000 2.170
28.02000 3.407
28.04000 0.769
28.06000 -2.615
28.08000 0.197
28.10000 2.202
28.12000 2.630
28.14000 1.680
28.16000 3.446
28.18000 9.262
28.20000 2.506
28.22000 4.677
28.24000 1.618
28.26000 -0.455
28.28000 2.298
28.30000 1.823
28.32000 2.946
28.34000 -1.815
28.36000 -3.768
28.38000 2.367
28.40000 2.494
28.42000 1.014
28.44000 2.039
28.46000 1.662
28.48000 -0.019
28.50000 3.826
28.52000 5.969
28.54000 1.995
28.56000 -2.595
28.58000 0.350
28.60000 3.431
28.62000 5.100
28.64000 8.232
28.66000 3.656
28.68000 3.544
28.70000 0.601
28.72000 -0.277
28.74000 -0.134
28.76000 3.375
28.78000 5.707
28.80000 2.275
28.82000 0.693
28.84000 1.808
28.86000 1.141
28.88000 -0.414
28.90000 -0.721
28.92000 0.372
28.94000 -3.738
28.96000 -0.548
28.98000 2.233
29.00000 -1.637
29.02000 1.495
29.04000 5.850
29.06000 0.517
29.08000 1.775
29.10000 0.543
29.12000 2.185
29.14000 3.340
29.16000 6.192
29.18000 4.436
29.20000 4.641
29.22000 5.355
29.24000 1.727
29.26000 2.431
29.28000 5.443
29.30000 3.197
29.32000 0.690
29.34000 3.203
29.36000 1.556
29.38000 0.090
29.40000 2.556
29.42000 9.973
29.44000 4.252
29.46000 3.562
29.48000 4.168
29.50000 2.976
29.52000 2.407
29.54000 -0.166
29.56000 1.510
29.58000 2.729
29.60000 6.757
29.62000 4.895
29.64000 4.119
29.66000 1.081
29.68000 0.713
29.70000 5.677
29.72000 7.010
29.74000 4.833
29.76000 -2.613
29.78000 2.060
29.80000 -3.112
29.82000 -3.695
29.84000 -3.065
29.86000 1.374
29.88000 0.586
29.90000 -1.856
29.92000 4.802
29.94000 7.691
29.96000 8.403
29.98000 1.271
30.00000 3.480
30.02000 0.234
30.04000 -3.060
30.06000 -2.684
30.08000 -1.025
30.10000 4.819
30.12000 2.761
30.14000 4.774
30.16000 5.925
30.18000 7.075
30.20000 -1.225
30.22000 1.188
30.24000 3.590
30.26000 0.609
30.28000 -2.611
30.30000 -1.710
30.32000 -2.058
30.34000 0.481
30.36000 3.313
30.38000 5.278
30.40000 3.354
30.42000 5.852
30.44000 3.617
30.46000 1.443
30.48000 -0.338
30.50000 -1.497
30.52000 -1.282
30.54000 1.692
30.56000 -1.365
30.58000 2.741
30.60000 10.717
30.62000 4.648
30.64000 -0.222
30.66000 2.066
30.68000 7.550
30.70000 3.990
30.72000 2.274
30.74000 1.794
30.76000 2.025
30.78000 2.833
30.80000 -2.407
30.82000 -1.225
30.84000 5.124
30.86000 6.877
30.88000 6.039
30.90000 1.138
30.92000 -2.079
30.94000 -3.645
30.96000 0.371
30.98000 1.428
31.00000 3.203
31.02000 5.224
31.04000 6.406
31.06000 5.282
31.08000 5.632
31.10000 1.024
31.12000 3.471
31.14000 2.790
31.16000 7.073
31.18000 9.091
31.20000 1.848
31.22000 2.728
31.24000 3.706
31.26000 3.007
31.28000 1.314
31.30000 3.338
31.32000 4.515
31.34000 1.869
31.36000 -0.293
31.38000 -2.123
31.40000 -2.819
31.42000 -1.087
31.44000 1.699
31.46000 2.185
31.48000 3.443
31.50000 1.331
31.52000 3.479
31.54000 1.819
31.56000 1.236
31.58000 -1.221
31.60000 4.179
31.62000 5.415
31.64000 1.212
31.66000 2.518
31.68000 5.320
31.70000 5.255
31.72000 8.026
31.74000 1.212
31.76000 -1.441
31.78000 -0.441
31.80000 -2.421
31.82000 4.393
31.84000 5.548
31.86000 -0.010
31.88000 2.448
31.90000 5.541
31.92000 1.618
31.94000 -1.887
31.96000 -3.596
31.98000 -0.834
32.00000 2.663
32.02000 8.228
32.04000 9.868
32.06000 3.204
32.08000 5.243
32.10000 0.345
32.12000 3.281
32.14000 2.953
32.16000 2.963
32.18000 2.267
32.20000 2.263
32.22000 4.397
32.24000 0.290
32.26000 -0.295
32.28000 -0.753
32.30000 0.345
32.32000 1.717
32.34000 0.816
32.36000 -1.015
32.38000 2.793
32.40000 0.253
32.42000 1.523
32.44000 4.151
32.46000 2.113
32.48000 0.109
32.50000 -2.424
32.52000 -1.082
32.54000 -1.750
32.56000 2.354
32.58000 4.465
32.60000 2.149
32.62000 -0.074
32.64000 1.118
32.66000 4.199
32.68000 4.570
32.70000 -0.022
32.72000 0.926
32.74000 3.433
32.76000 -3.587
32.78000 -0.396
32.80000 0.633
32.82000 5.046
32.84000 4.201
32.86000 0.843
32.88000 -0.152
32.90000 1.012
32.92000 -3.319
32.94000 -1.719
32.96000 3.665
32.98000 -0.006
33.00000 -1.509
33.02000 -0.136
33.04000 2.581
33.06000 3.312
33.08000 0.974
33.10000 0.194
33.12000 -0.945
33.14000 -0.923
33.16000 -0.812
33.18000 0.136
33.20000 0.903
33.22000 1.372
33.24000 3.720
33.26000 4.863
33.28000 5.563
33.30000 -2.530
33.32000 -3.356
33.34000 0.962
33.36000 -2.385
33.38000 -2.198
33.40000 0.583
33.42000 1.160
33.44000 3.522
33.46000 2.196
33.48000 1.324
33.50000 -0.516
33.52000 1.923
33.54000 -2.278
33.56000 -2.639
33.58000 -3.568
33.60000 -1.725
33.62000 -2.805
33.64000 -3.565
33.66000 -1.321
33.68000 3.416
33.70000 7.666
33.72000 7.061
33.74000 4.224
33.76000 9.593
33.78000 4.930
33.80000 1.694
33.82000 4.013
33.84000 3.596
33.86000 5.581
33.88000 0.928
33.90000 -1.485
33.92000 1.939
33.94000 6.582
33.96000 2.271
33.98000 5.390
34.00000 4.709
34.02000 4.158
34.04000 7.567
34.06000 6.404
34.08000 7.536
34.10000 4.876
34.12000 1.546
34.14000 1.457
34.16000 5.879
34.18000 11.784
34.20000 10.413
34.22000 5.195
34.24000 3.950
34.26000 4.064
34.28000 6.088
34.30000 6.384
34.32000 5.382
34.34000 8.430
34.36000 5.831
34.38000 2.154
34.40000 0.727
34.42000 -1.214
34.44000 -0.223
34.46000 5.386
34.48000 6.631
34.50000 2.631
34.52000 4.497
34.54000 9.824
34.56000 1.072
34.58000 -3.506
34.60000 0.461
34.62000 5.481
34.64000 7.013
34.66000 2.435
34.68000 2.944
34.70000 5.692
34.72000 5.920
34.74000 7.526
34.76000 8.518
34.78000 3.571
34.80000 7.227
34.82000 7.256
34.84000 -1.336
34.86000 3.221
34.88000 2.082
34.90000 0.852
34.92000 7.135
34.94000 5.379
34.96000 4.509
34.98000 5.960
35.00000 9.037
35.02000 6.124
35.04000 2.807
35.06000 2.168
35.08000 1.977
35.10000 4.248
35.12000 3.198
35.14000 3.996
35.16000 5.404
35.18000 6.988
35.20000 2.007
35.22000 0.891
35.24000 5.102
35.26000 4.975
35.28000 4.399
35.30000 5.691
35.32000 8.242
35.34000 4.814
35.36000 3.760
35.38000 1.982
35.40000 5.503
35.42000 5.560
35.44000 8.146
35.46000 3.684
35.48000 6.762
35.50000 8.813
35.52000 4.329
35.54000 2.953
35.56000 2.899
35.58000 2.168
35.60000 -0.359
35.62000 -3.473
35.64000 1.002
35.66000 0.938
35.68000 2.573
35.70000 1.478
35.72000 1.956
35.74000 7.327
35.76000 6.630
35.78000 2.451
35.80000 2.676
35.82000 7.625
35.84000 2.658
35.86000 4.360
35.88000 7.958
35.90000 1.192
35.92000 1.907
35.94000 4.871
35.96000 5.316
35.98000 4.426
36.00000 1.047
36.02000 -0.941
36.04000 -2.389
36.06000 -1.324
36.08000 -3.504
36.10000 2.458
36.12000 2.750
36.14000 3.537
36.16000 2.721
36.18000 0.113
36.20000 0.357
36.22000 1.934
36.24000 -3.513
36.26000 1.727
36.28000 1.735
36.30000 1.651
36.32000 7.643
36.34000 8.622
36.36000 4.954
36.38000 1.935
36.40000 0.239
36.42000 2.260
36.44000 -1.279
36.46000 4.770
36.48000 3.751
36.50000 1.061
36.52000 2.114
36.54000 1.601
36.56000 3.773
36.58000 6.193
36.60000 8.616
36.62000 7.122
36.64000 2.035
36.66000 0.736
36.68000 -0.099
36.70000 3.573
36.72000 2.202
36.74000 -0.159
36.76000 4.573
36.78000 2.881
36.80000 1.481
36.82000 2.824
36.84000 4.175
36.86000 4.667
36.88000 6.578
36.90000 5.603
36.92000 4.624
36.94000 6.785
36.96000 6.410
36.98000 1.382
37.00000 4.351
37.02000 3.178
37.04000 0.739
37.06000 1.896
37.08000 4.449
37.10000 6.939
37.12000 7.368
37.14000 2.373
37.16000 -3.554
37.18000 -0.202
37.20000 6.839
37.22000 3.380
37.24000 0.166
37.26000 4.476
37.28000 9.573
37.30000 7.252
37.32000 5.103
37.34000 3.951
37.36000 3.161
37.38000 1.815
37.40000 2.224
37.42000 0.996
37.44000 -2.180
37.46000 -2.388
37.48000 6.748
37.50000 1.843
37.52000 1.211
37.54000 7.178
37.56000 4.354
37.58000 4.237
37.60000 7.237
37.62000 3.867
37.64000 2.739
37.66000 2.543
37.68000 6.420
37.70000 5.105
37.72000 5.208
37.74000 6.726
37.76000 3.648
37.78000 4.314
37.80000 7.311
37.82000 3.473
37.84000 3.755
37.86000 7.943
37.88000 8.087
37.90000 6.011
37.92000 7.494
37.94000 8.282
37.96000 6.266
37.98000 4.465
38.00000 7.415
38.02000 9.380
38.04000 12.240
38.06000 7.798
38.08000 6.308
38.10000 10.334
38.12000 12.672
38.14000 14.664
38.16000 13.666
38.18000 15.293
38.20000 15.192
38.22000 13.761
38.24000 11.979
38.26000 12.089
38.28000 15.368
38.30000 18.094
38.32000 17.546
38.34000 11.996
38.36000 11.610
38.38000 15.557
38.40000 18.131
38.42000 16.866
38.44000 20.888
38.46000 24.012
38.48000 18.918
38.50000 15.200
38.52000 23.571
38.54000 24.666
38.56000 19.133
38.58000 27.083
38.60000 29.102
38.62000 28.385
38.64000 27.047
38.66000 22.629
38.68000 31.557
38.70000 30.646
38.72000 32.065
38.74000 32.237
38.76000 36.712
38.78000 38.389
38.80000 37.897
38.82000 41.178
38.84000 43.161
38.86000 49.426
38.88000 49.477
38.90000 50.697
38.92000 52.911
38.94000 52.462
38.96000 47.876
38.98000 55.021
39.00000 50.289
39.02000 53.837
39.04000 51.820
39.06000 53.077
39.08000 55.778
39.10000 65.631
39.12000 66.431
39.14000 69.527
39.16000 71.498
39.18000 75.337
39.20000 85.126
39.22000 90.613
39.24000 90.185
39.26000 88.812
39.28000 94.334
39.30000 100.419
39.32000 97.561
39.34000 103.277
39.36000 116.471
39.38000 126.947
39.40000 130.691
39.42000 135.655
39.44000 138.541
39.46000 144.311
39.48000 153.471
39.50000 165.888
39.52000 171.393
39.54000 177.030
39.56000 183.642
39.58000 192.962
39.60000 197.527
39.62000 214.598
39.64000 230.058
39.66000 239.571
39.68000 249.431
39.70000 264.036
39.72000 279.015
39.74000 295.563
39.76000 297.969
39.78000 312.813
39.80000 322.118
39.82000 339.164
39.84000 358.998
39.86000 373.809
39.88000 395.281
39.90000 417.344
39.92000 436.975
39.94000 453.984
39.96000 465.548
39.98000 479.223
40.00000 487.652
40.02000 515.037
40.04000 542.384
40.06000 554.032
40.08000 566.386
40.10000 576.514
40.12000 590.367
40.14000 606.032
40.16000 589.628
40.18000 594.329
40.20000 595.480
40.22000 609.184
40.24000 628.238
40.26000 627.928
40.28000 632.810
40.30000 624.893
40.32000 620.885
40.34000 619.521
40.36000 602.839
40.38000 591.525
40.40000 589.610
40.42000 578.275
40.44000 562.758
40.46000 548.872
40.48000 525.999
40.50000 513.945
40.52000 499.365
40.54000 483.403
40.56000 462.231
40.58000 447.739
40.60000 437.068
40.62000 411.829
40.64000 396.194
40.66000 377.959
40.68000 353.125
40.70000 343.249
40.72000 326.580
40.74000 303.354
40.76000 297.154
40.78000 285.202
40.80000 259.981
40.82000 248.485
40.84000 239.419
40.86000 221.027
40.88000 205.532
40.90000 196.117
40.92000 189.706
40.94000 175.491
40.96000 163.477
40.98000 155.971
41.00000 150.293
41.02000 146.593
41.04000 134.537
41.06000 124.963
41.08000 121.313
41.10000 108.034
41.12000 103.889
41.14000 101.450
41.16000 96.428
41.18000 89.416
41.20000 86.277
41.22000 78.862
41.24000 72.493
41.26000 72.851
41.28000 70.999
41.30000 64.656
41.32000 57.800
41.34000 61.926
41.36000 54.478
41.38000 53.982
41.40000 49.523
41.42000 45.070
41.44000 42.848
41.46000 39.081
41.48000 37.783
41.50000 35.208
41.52000 35.035
41.54000 30.742
41.56000 27.697
41.58000 25.288
41.60000 26.985
41.62000 25.611
41.64000 30.378
41.66000 32.273
41.68000 29.983
41.70000 23.815
41.72000 19.208
41.74000 16.519
41.76000 16.023
41.78000 12.641
41.80000 17.415
41.82000 19.166
41.84000 12.240
41.86000 10.323
41.88000 10.588
41.90000 11.559
41.92000 8.830
41.94000 12.583
41.96000 7.896
41.98000 4.753
42.00000 9.336
42.02000 12.138
42.04000 12.243
42.06000 5.069
42.08000 7.089
42.10000 8.225
42.12000 9.883
42.14000 8.468
42.16000 7.074
42.18000 8.229
42.20000 8.052
42.22000 6.712
42.24000 2.740
42.26000 1.226
42.28000 0.403
42.30000 2.032
42.32000 7.084
42.34000 7.340
42.36000 2.657
42.38000 -0.703
42.40000 4.106
42.42000 4.067
42.44000 0.066
42.46000 1.708
42.48000 0.406
42.50000 3.325
42.52000 1.839
42.54000 -0.048
42.56000 0.688
42.58000 5.251
42.60000 1.956
42.62000 1.790
42.64000 1.897
42.66000 -1.272
42.68000 -1.342
42.70000 -0.462
42.72000 -0.668
42.74000 0.821
42.76000 0.045
42.78000 -2.640
42.80000 -1.098
42.82000 -2.023
42.84000 -0.597
42.86000 1.813
42.88000 -0.049
42.90000 -3.531
42.92000 -1.948
42.94000 -2.043
42.96000 3.509
42.98000 4.000
43.00000 5.801
43.02000 2.304
43.04000 -2.706
43.06000 1.156
43.08000 4.095
43.10000 2.384
43.12000 -2.453
43.14000 6.298
43.16000 1.136
43.18000 -1.910
43.20000 0.465
43.22000 4.607
43.24000 2.034
43.26000 -0.369
43.28000 0.535
43.30000 3.542
43.32000 -0.603
43.34000 0.753
43.36000 -2.755
43.38000 -0.100
43.40000 -3.458
43.42000 2.851
43.44000 8.240
43.46000 5.050
43.48000 4.431
43.50000 2.004
43.52000 2.636
43.54000 3.603
43.56000 4.516
43.58000 1.940
43.60000 2.053
43.62000 1.766
43.64000 -1.245
43.66000 -0.335
43.68000 0.087
43.70000 -0.131
43.72000 -1.400
43.74000 -0.950
43.76000 1.404
43.78000 3.222
43.80000 0.255
43.82000 5.517
43.84000 4.898
43.86000 0.685
43.88000 0.703
43.90000 1.157
43.92000 -1.130
43.94000 0.658
43.96000 2.043
43.98000 2.680
44.00000 4.307
44.02000 4.967
44.04000 3.140
44.06000 -1.602
44.08000 3.878
44.10000 1.649
44.12000 3.287
44.14000 3.294
44.16000 -2.017
44.18000 -3.408
44.20000 -1.315
44.22000 -3.145
44.24000 -0.769
44.26000 0.029
44.28000 4.731
44.30000 5.221
44.32000 10.274
44.34000 3.011
44.36000 -2.029
44.38000 -3.436
44.40000 1.373
44.42000 4.937
44.44000 6.265
44.46000 6.312
44.48000 5.101
44.50000 0.403
44.52000 -2.195
44.54000 0.081
44.56000 -1.922
44.58000 -0.723
44.60000 4.495
44.62000 6.778
44.64000 6.105
44.66000 3.925
44.68000 2.406
44.70000 0.562
44.72000 3.928
44.74000 0.291
44.76000 6.368
44.78000 7.707
44.80000 7.803
44.82000 4.213
44.84000 4.891
44.86000 1.309
44.88000 -0.425
44.90000 -0.907
44.92000 0.607
44.94000 1.392
44.96000 1.895
44.98000 5.648
45.00000 11.442
45.02000 11.181
45.04000 7.475
45.06000 6.460
45.08000 8.027
45.10000 6.216
45.12000 13.438
45.14000 15.533
45.16000 12.363
45.18000 12.393
45.20000 10.313
45.22000 9.129
45.24000 11.110
45.26000 10.302
45.28000 12.293
45.30000 12.773
45.32000 13.761
45.34000 10.753
45.36000 7.733
45.38000 12.054
45.40000 11.088
45.42000 14.626
45.44000 16.141
45.46000 16.617
45.48000 15.051
45.50000 13.181
45.52000 14.108
45.54000 16.372
45.56000 23.323
45.58000 26.216
45.60000 20.930
45.62000 17.967
45.64000 26.646
45.66000 22.193
45.68000 22.718
45.70000 29.110
45.72000 29.409
45.74000 26.936
45.76000 24.955
45.78000 29.614
45.80000 33.280
45.82000 36.662
45.84000 33.686
45.86000 31.368
45.88000 34.483
45.90000 35.859
45.92000 36.957
45.94000 35.099
45.96000 38.905
45.98000 38.461
46.00000 37.426
46.02000 39.633
46.04000 45.824
46.06000 39.379
46.08000 45.521
46.10000 47.431
46.12000 51.630
46.14000 48.660
46.16000 48.795
46.18000 52.472
46.20000 52.740
46.22000 56.252
46.24000 53.663
46.26000 52.760
46.28000 60.780
46.30000 58.125
46.32000 61.065
46.34000 65.562
46.36000 72.197
46.38000 76.477
46.40000 78.846
46.42000 74.277
46.44000 78.632
46.46000 81.195
46.48000 86.933
46.50000 87.511
46.52000 78.681
46.54000 77.839
46.56000 76.964
46.58000 77.184
46.60000 87.398
46.62000 90.290
46.64000 91.784
46.66000 90.579
46.68000 93.548
46.70000 94.962
46.72000 93.562
46.74000 95.768
46.76000 100.301
46.78000 98.633
46.80000 91.724
46.82000 81.546
46.84000 89.130
46.86000 95.864
46.88000 92.966
46.90000 85.938
46.92000 90.440
46.94000 95.101
46.96000 93.629
46.98000 91.767
47.00000 91.909
47.02000 90.335
47.04000 91.588
47.06000 90.420
47.08000 85.139
47.10000 85.907
47.12000 79.990
47.14000 84.346
47.16000 87.805
47.18000 82.257
47.20000 76.351
47.22000 80.835
47.24000 71.081
47.26000 72.315
47.28000 75.777
47.30000 63.944
47.32000 63.678
47.34000 62.393
47.36000 69.340
47.38000 71.049
47.40000 67.606
47.42000 60.572
47.44000 56.554
47.46000 56.250
47.48000 48.953
47.50000 48.828
47.52000 53.289
47.54000 52.733
47.56000 45.701
47.58000 49.072
47.60000 42.698
47.62000 45.274
47.64000 46.018
47.66000 42.482
47.68000 40.374
47.70000 39.647
47.72000 31.012
47.74000 32.834
47.76000 31.491
47.78000 33.283
47.80000 28.180
47.82000 25.456
47.84000 27.703
47.86000 27.325
47.88000 20.452
47.90000 22.215
47.92000 21.032
47.94000 25.417
47.96000 29.441
47.98000 26.044
48.00000 25.612
48.02000 21.283
48.04000 15.323
48.06000 16.706
48.08000 14.347
48.10000 12.403
48.12000 12.733
48.14000 12.207
48.16000 12.479
48.18000 13.499
48.20000 7.925
48.22000 2.646
48.24000 4.147
48.26000 8.508
48.28000 9.357
48.30000 8.342
48.32000 4.959
48.34000 6.547
48.36000 9.826
48.38000 5.267
48.40000 3.058
48.42000 8.730
48.44000 7.998
48.46000 5.991
48.48000 7.020
48.50000 11.441
48.52000 5.968
48.54000 4.749
48.56000 7.207
48.58000 2.601
48.60000 3.143
48.62000 6.529
48.64000 7.593
48.66000 10.912
48.68000 6.761
48.70000 4.471
48.72000 1.294
48.74000 -1.031
48.76000 2.862
48.78000 5.084
48.80000 6.394
48.82000 5.413
48.84000 0.381
48.86000 5.648
48.88000 2.727
48.90000 -3.065
48.92000 3.095
48.94000 7.683
48.96000 7.595
48.98000 2.413
49.00000 6.134
49.02000 5.289
49.04000 2.089
49.06000 -0.359
49.08000 4.351
49.10000 1.349
49.12000 3.197
49.14000 4.312
49.16000 5.025
49.18000 6.118
49.20000 6.035
49.22000 8.711
49.24000 7.616
49.26000 4.401
49.28000 2.222
49.30000 4.720
49.32000 6.822
49.34000 9.530
49.36000 8.500
49.38000 6.947
49.40000 6.401
49.42000 0.457
49.44000 1.171
49.46000 2.092
49.48000 6.871
49.50000 0.907
49.52000 -2.247
49.54000 5.220
49.56000 3.856
49.58000 3.102
49.60000 2.730
49.62000 4.189
49.64000 1.927
49.66000 -2.969
49.68000 2.512
49.70000 1.868
49.72000 6.042
49.74000 10.021
49.76000 4.930
49.78000 2.370
49.80000 2.709
49.82000 0.461
49.84000 -1.067
49.86000 1.792
49.88000 4.085
49.90000 3.844
49.92000 1.299
49.94000 3.793
49.96000 3.076
49.98000 0.960
50.00000 1.317
50.02000 6.449
50.04000 4.132
50.06000 2.710
50.08000 2.072
50.10000 0.129
50.12000 -2.835
50.14000 -0.865
50.16000 1.687
50.18000 1.844
50.20000 1.601
50.22000 1.492
50.24000 6.683
50.26000 8.324
50.28000 1.245
50.30000 1.939
50.32000 8.365
50.34000 5.283
50.36000 4.063
50.38000 4.269
50.40000 1.376
50.42000 -1.164
50.44000 -2.930
50.46000 -0.090
50.48000 0.744
50.50000 1.645
50.52000 0.837
50.54000 4.753
50.56000 4.916
50.58000 1.059
50.60000 -0.182
50.62000 3.927
50.64000 0.940
50.66000 1.790
50.68000 8.989
50.70000 9.472
50.72000 2.398
50.74000 0.755
50.76000 1.255
50.78000 5.209
50.80000 2.076
50.82000 0.259
50.84000 -2.915
50.86000 1.391
50.88000 -2.493
50.90000 -1.684
50.92000 -0.499
50.94000 3.662
50.96000 4.957
50.98000 3.673
51.00000 3.546
51.02000 2.814
51.04000 1.959
51.06000 6.982
51.08000 5.461
51.10000 1.051
51.12000 0.573
51.14000 4.640
51.16000 -1.068
51.18000 3.731
51.20000 2.826
51.22000 -0.279
51.24000 0.405
51.26000 0.974
51.28000 0.665
51.30000 1.166
51.32000 4.217
51.34000 1.444
51.36000 7.110
51.38000 7.229
51.40000 0.192
51.42000 -0.533
51.44000 7.342
51.46000 8.062
51.48000 4.972
51.50000 3.118
51.52000 -0.354
51.54000 0.400
51.56000 -0.085
51.58000 3.489
51.60000 8.183
51.62000 7.380
51.64000 2.863
51.66000 0.923
51.68000 -0.146
51.70000 -2.456
51.72000 -2.887
51.74000 1.223
51.76000 3.765
51.78000 -1.025
51.80000 -2.696
51.82000 -1.598
51.84000 1.574
51.86000 3.398
51.88000 1.043
51.90000 2.762
51.92000 -2.601
51.94000 -2.219
51.96000 3.121
51.98000 2.570
52.00000 6.269
52.02000 5.555
52.04000 4.474
52.06000 -0.122
52.08000 5.933
52.10000 4.171
52.12000 -2.867
52.14000 -0.573
52.16000 -0.263
52.18000 0.542
52.20000 3.263
52.22000 6.065
52.24000 1.628
52.26000 -1.198
52.28000 0.993
52.30000 0.570
52.32000 5.967
52.34000 6.901
52.36000 4.223
52.38000 3.092
52.40000 3.999
52.42000 1.672
52.44000 -0.743
52.46000 0.538
52.48000 5.573
52.50000 8.249
52.52000 4.678
52.54000 -1.012
52.56000 1.059
52.58000 3.004
52.60000 2.303
52.62000 1.555
52.64000 -0.765
52.66000 1.988
52.68000 4.301
52.70000 4.888
52.72000 4.585
52.74000 3.482
52.76000 5.039
52.78000 2.849
52.80000 -2.834
52.82000 0.032
52.84000 0.306
52.86000 0.856
52.88000 2.394
52.90000 0.575
52.92000 -0.096
52.94000 2.909
52.96000 -1.226
52.98000 2.195
53.00000 5.193
53.02000 -1.787
53.04000 1.963
53.06000 5.798
53.08000 6.077
53.10000 2.836
53.12000 4.561
53.14000 6.123
53.16000 2.142
53.18000 1.093
53.20000 2.199
53.22000 -0.328
53.24000 0.134
53.26000 5.081
53.28000 0.612
53.30000 2.813
53.32000 4.381
53.34000 3.197
53.36000 3.307
53.38000 0.682
53.40000 0.731
53.42000 0.504
53.44000 3.471
53.46000 1.465
53.48000 3.223
53.50000 3.491
53.52000 1.593
53.54000 1.422
53.56000 -1.556
53.58000 -0.029
53.60000 0.203
53.62000 -1.938
53.64000 -1.464
53.66000 0.564
53.68000 2.432
53.70000 3.382
53.72000 -1.881
53.74000 1.003
53.76000 6.692
53.78000 4.727
53.80000 2.756
53.82000 -0.560
53.84000 2.785
53.86000 2.354
53.88000 2.541
53.90000 1.237
53.92000 1.360
53.94000 -0.470
53.96000 4.044
53.98000 6.569
54.00000 0.085
54.02000 -0.758
54.04000 3.446
54.06000 0.263
54.08000 1.495
54.10000 2.762
54.12000 1.187
54.14000 2.518
54.16000 2.991
54.18000 4.160
54.20000 0.242
54.22000 3.358
54.24000 4.510
54.26000 8.817
54.28000 3.867
54.30000 -0.593
54.32000 0.270
54.34000 0.652
54.36000 -1.980
54.38000 2.866
54.40000 0.729
54.42000 -0.408
54.44000 -0.308
54.46000 -2.783
54.48000 -0.089
54.50000 1.105
54.52000 -0.663
54.54000 -0.573
54.56000 0.309
54.58000 6.773
54.60000 2.691
54.62000 2.157
54.64000 6.220
54.66000 -1.547
54.68000 0.482
54.70000 3.691
54.72000 0.779
54.74000 0.222
54.76000 -0.460
54.78000 3.655
54.80000 5.524
54.82000 6.221
54.84000 4.682
54.86000 3.798
54.88000 7.459
54.90000 9.616
54.92000 6.456
54.94000 2.755
54.96000 1.232
54.98000 5.184
55.00000 1.669
55.02000 2.103
55.04000 4.199
55.06000 3.518
55.08000 2.029
55.10000 2.858
55.12000 1.372
55.14000 3.562
55.16000 1.375
55.18000 1.843
55.20000 -0.577
55.22000 4.490
55.24000 2.408
55.26000 6.715
55.28000 0.895
55.30000 2.241
55.32000 1.266
55.34000 -2.744
55.36000 -0.733
55.38000 5.852
55.40000 4.768
55.42000 3.020
55.44000 3.079
55.46000 -1.362
55.48000 -2.235
55.50000 1.692
55.52000 3.554
55.54000 7.256
55.56000 7.069
55.58000 3.203
55.60000 0.294
55.62000 3.386
55.64000 0.445
55.66000 0.596
55.68000 -2.436
55.70000 0.066
55.72000 2.481
55.74000 3.881
55.76000 1.042
55.78000 6.869
55.80000 7.497
55.82000 5.410
55.84000 7.173
55.86000 5.495
55.88000 6.218
55.90000 3.919
55.92000 3.387
55.94000 4.473
55.96000 4.570
55.98000 1.299
56.00000 3.878
56.02000 1.607
56.04000 4.124
56.06000 5.183
56.08000 3.332
56.10000 4.994
56.12000 8.626
56.14000 8.438
56.16000 5.973
56.18000 4.016
56.20000 1.961
56.22000 2.831
56.24000 2.217
56.26000 3.112
56.28000 1.805
56.30000 1.128
56.32000 4.011
56.34000 0.167
56.36000 -2.225
56.38000 -2.685
56.40000 -2.706
56.42000 -0.288
56.44000 7.292
56.46000 5.658
56.48000 3.908
56.50000 5.636
56.52000 2.856
56.54000 1.783
56.56000 5.565
56.58000 8.813
56.60000 8.182
56.62000 4.980
56.64000 1.995
56.66000 4.777
56.68000 8.442
56.70000 5.603
56.72000 -1.683
56.74000 0.062
56.76000 3.943
56.78000 1.195
56.80000 -2.575
56.82000 1.862
56.84000 6.858
56.86000 -0.848
56.88000 0.518
56.90000 2.802
56.92000 5.865
56.94000 7.398
56.96000 -0.195
56.98000 1.942
57.00000 1.364
57.02000 -0.640
57.04000 -0.285
57.06000 3.397
57.08000 6.732
57.10000 2.009
57.12000 3.711
57.14000 5.185
57.16000 4.176
57.18000 4.564
57.20000 4.306
57.22000 2.003
57.24000 -0.179
57.26000 -2.499
57.28000 -0.077
57.30000 2.030
57.32000 1.652
57.34000 5.647
57.36000 -2.212
57.38000 2.298
57.40000 2.021
57.42000 5.311
57.44000 1.960
57.46000 2.015
57.48000 0.618
57.50000 2.581
57.52000 -0.410
57.54000 -2.695
57.56000 -0.072
57.58000 3.930
57.60000 3.355
57.62000 1.294
57.64000 0.551
57.66000 4.245
57.68000 7.489
57.70000 2.669
57.72000 1.770
57.74000 2.961
57.76000 2.575
57.78000 -0.183
57.80000 1.393
57.82000 3.064
57.84000 2.960
57.86000 0.717
57.88000 0.348
57.90000 4.197
57.92000 5.014
57.94000 2.621
57.96000 1.447
57.98000 -0.094
58.00000 2.098
58.02000 -0.565
58.04000 1.354
58.06000 -2.645
58.08000 0.602
58.10000 1.016
58.12000 1.436
58.14000 2.065
58.16000 7.076
58.18000 5.008
58.20000 2.570
58.22000 2.306
58.24000 5.520
58.26000 4.115
58.28000 2.734
58.30000 -0.464
58.32000 -0.255
58.34000 4.114
58.36000 3.771
58.38000 2.761
58.40000 4.336
58.42000 4.448
58.44000 3.434
58.46000 1.313
58.48000 3.147
58.50000 3.693
58.52000 1.000
58.54000 -0.482
58.56000 1.744
58.58000 7.567
58.60000 3.164
58.62000 3.457
58.64000 6.646
58.66000 8.723
58.68000 2.404
58.70000 0.821
58.72000 5.541
58.74000 4.764
58.76000 -2.400
58.78000 -0.495
58.80000 -2.629
58.82000 1.962
58.84000 5.391
58.86000 2.632
58.88000 -1.035
58.90000 0.595
58.92000 6.281
58.94000 5.580
58.96000 4.628
58.98000 1.862
59.00000 2.840
59.02000 9.362
59.04000 8.204
59.06000 3.456
59.08000 4.068
59.10000 10.175
59.12000 7.871
59.14000 5.836
59.16000 1.255
59.18000 0.206
59.20000 5.671
59.22000 7.398
59.24000 3.735
59.26000 2.182
59.28000 0.867
59.30000 4.618
59.32000 6.820
59.34000 0.236
59.36000 -1.166
59.38000 2.884
59.40000 1.220
59.42000 5.482
59.44000 2.454
59.46000 0.097
59.48000 3.511
59.50000 5.103
59.52000 2.203
59.54000 3.666
59.56000 4.775
59.58000 4.897
59.60000 0.699
59.62000 1.673
59.64000 1.816
59.66000 2.776
59.68000 0.918
59.70000 -0.160
59.72000 -2.265
59.74000 -1.029
59.76000 0.895
59.78000 2.955
59.80000 2.278
59.82000 1.697
59.84000 -1.682
59.86000 -2.627
59.88000 0.034
59.90000 -1.838
59.92000 -1.632
59.94000 0.667
59.96000 1.256
59.98000 3.638
60.00000 3.821
60.02000 4.032
60.04000 1.330
60.06000 0.879
60.08000 -1.301
60.10000 -0.976
60.12000 0.481
60.14000 3.795
60.16000 4.154
60.18000 2.562
60.20000 4.912
60.22000 4.397
60.24000 1.686
60.26000 -0.172
60.28000 -1.135
60.30000 2.467
60.32000 -0.647
60.34000 2.332
60.36000 3.464
60.38000 4.533
60.40000 3.025
60.42000 2.429
60.44000 5.181
60.46000 2.387
60.48000 1.322
60.50000 -2.611
60.52000 1.836
60.54000 5.615
60.56000 2.268
60.58000 1.454
60.60000 1.170
60.62000 0.661
60.64000 3.173
60.66000 3.691
60.68000 1.266
60.70000 -0.112
60.72000 -2.111
60.74000 -0.421
60.76000 1.891
60.78000 -1.952
60.80000 1.665
60.82000 3.987
60.84000 0.752
60.86000 3.369
60.88000 3.888
60.90000 4.756
60.92000 2.450
60.94000 5.117
60.96000 1.628
60.98000 2.993
61.00000 -2.297
61.02000 -0.255
61.04000 0.304
61.06000 1.070
61.08000 -2.591
61.10000 3.795
61.12000 2.500
61.14000 -0.125
61.16000 -0.562
61.18000 6.954
61.20000 5.407
61.22000 0.596
61.24000 -2.582
61.26000 -0.629
61.28000 -1.755
61.30000 -2.293
61.32000 0.778
61.34000 0.737
61.36000 4.854
61.38000 3.730
61.40000 0.872
61.42000 -0.449
61.44000 -0.832
61.46000 2.713
61.48000 2.278
61.50000 0.102
61.52000 0.031
61.54000 3.599
61.56000 2.816
61.58000 5.917
61.60000 5.251
61.62000 -1.214
61.64000 -0.462
61.66000 4.429
61.68000 5.591
61.70000 3.495
61.72000 2.719
61.74000 -0.036
61.76000 -0.117
61.78000 2.696
61.80000 3.854
61.82000 1.132
61.84000 -0.835
61.86000 1.785
61.88000 1.583
61.90000 1.926
61.92000 -0.274
61.94000 3.224
61.96000 4.692
61.98000 -2.088
62.00000 0.723
62.02000 3.094
62.04000 1.698
62.06000 -1.593
62.08000 -1.269
62.10000 -2.198
62.12000 -1.438
62.14000 -2.545
62.16000 2.453
62.18000 1.958
62.20000 3.145
62.22000 3.470
62.24000 4.318
62.26000 3.820
62.28000 3.612
62.30000 5.164
62.32000 2.551
62.34000 3.729
62.36000 3.708
62.38000 2.784
62.40000 2.211
62.42000 2.689
62.44000 3.502
62.46000 2.689
62.48000 4.859
62.50000 2.374
62.52000 1.770
62.54000 2.244
62.56000 0.940
62.58000 3.299
62.60000 -0.127
62.62000 -0.478
62.64000 1.410
62.66000 1.072
62.68000 0.891
62.70000 -1.905
62.72000 1.570
62.74000 2.303
62.76000 0.795
62.78000 1.542
62.80000 -0.002
62.82000 4.602
62.84000 1.508
62.86000 -2.162
62.88000 0.325
62.90000 -1.328
62.92000 1.095
62.94000 -1.378
62.96000 1.651
62.98000 -0.071
63.00000 -0.674
63.02000 2.894
63.04000 0.365
63.06000 -0.257
63.08000 3.002
63.10000 0.369
63.12000 4.246
63.14000 1.795
63.16000 0.049
63.18000 -0.223
63.20000 -0.269
63.22000 2.323
63.24000 0.250
63.26000 -0.764
63.28000 -0.126
63.30000 1.903
63.32000 1.746
63.34000 5.600
63.36000 3.580
63.38000 0.126
63.40000 3.555
63.42000 0.847
63.44000 2.791
63.46000 3.544
63.48000 1.761
63.50000 0.085
63.52000 0.123
63.54000 -1.698
63.56000 0.369
63.58000 3.295
63.60000 2.792
63.62000 0.420
63.64000 -1.236
63.66000 2.181
63.68000 2.404
63.70000 -0.363
63.72000 -0.508
63.74000 3.781
63.76000 4.688
63.78000 2.817
63.80000 3.035
63.82000 0.060
63.84000 0.181
63.86000 4.181
63.88000 2.641
63.90000 0.869
63.92000 2.464
63.94000 3.533
63.96000 3.427
63.98000 3.417
64.00000 1.908
64.02000 4.224
64.04000 4.919
64.06000 4.503
64.08000 0.607
64.10000 2.722
64.12000 3.841
64.14000 1.836
64.16000 4.577
64.18000 5.637
64.20000 6.466
64.22000 3.790
64.24000 3.101
64.26000 6.919
64.28000 4.900
64.30000 2.508
64.32000 0.029
64.34000 -0.621
64.36000 4.541
64.38000 2.725
64.40000 -2.487
64.42000 -0.012
64.44000 6.242
64.46000 6.658
64.48000 7.262
64.50000 4.739
64.52000 2.831
64.54000 3.867
64.56000 3.137
64.58000 0.489
64.60000 0.817
64.62000 3.165
64.64000 2.862
64.66000 5.700
64.68000 5.797
64.70000 5.272
64.72000 3.553
64.74000 3.027
64.76000 3.850
64.78000 2.011
64.80000 1.890
64.82000 3.577
64.84000 8.807
64.86000 6.269
64.88000 4.107
64.90000 3.627
64.92000 1.700
64.94000 1.510
64.96000 1.281
64.98000 2.632
65.00000 3.650
65.02000 2.603
65.04000 3.896
65.06000 5.130
65.08000 1.895
65.10000 2.583
65.12000 2.957
65.14000 0.809
65.16000 1.499
65.18000 3.509
65.20000 1.388
65.22000 3.125
65.24000 3.756
65.26000 2.118
65.28000 3.711
65.30000 7.400
65.32000 -0.605
65.34000 2.268
65.36000 1.436
65.38000 3.779
65.40000 3.715
65.42000 2.378
65.44000 0.902
65.46000 4.380
65.48000 3.490
65.50000 1.500
65.52000 -0.586
65.54000 -1.773
65.56000 1.466
65.58000 2.862
65.60000 1.758
65.62000 4.984
65.64000 3.345
65.66000 0.578
65.68000 2.772
65.70000 -0.236
65.72000 1.952
65.74000 0.234
65.76000 -0.818
65.78000 2.475
65.80000 1.704
65.82000 -2.576
65.84000 3.138
65.86000 4.109
65.88000 0.107
65.90000 -0.500
65.92000 1.603
65.94000 3.145
65.96000 -1.718
65.98000 -1.572
66.00000 -1.052
66.02000 1.458
66.04000 1.428
66.06000 2.483
66.08000 2.833
66.10000 -0.786
66.12000 -0.111
66.14000 2.418
66.16000 1.281
66.18000 3.834
66.20000 3.539
66.22000 1.388
66.24000 1.222
66.26000 1.592
66.28000 -1.340
66.30000 -1.439
66.32000 0.216
66.34000 3.514
66.36000 2.109
66.38000 1.800
66.40000 2.486
66.42000 -0.622
66.44000 -0.509
66.46000 0.342
66.48000 -0.932
66.50000 1.840
66.52000 1.748
66.54000 -0.342
66.56000 3.808
66.58000 3.817
66.60000 4.138
66.62000 5.003
66.64000 -2.563
66.66000 0.949
66.68000 1.188
66.70000 -0.047
66.72000 -0.939
66.74000 1.628
66.76000 -1.291
66.78000 -0.635
66.80000 -1.509
66.82000 1.244
66.84000 4.545
66.86000 1.763
66.88000 -0.876
66.90000 4.621
66.92000 3.217
66.94000 3.744
66.96000 -0.309
66.98000 -1.071
67.00000 3.240
67.02000 6.028
67.04000 3.275
67.06000 2.972
67.08000 5.263
67.10000 -0.458
67.12000 -2.654
67.14000 2.473
67.16000 0.822
67.18000 3.532
67.20000 4.327
67.22000 5.286
67.24000 3.049
67.26000 0.632
67.28000 2.459
67.30000 4.601
67.32000 3.711
67.34000 6.576
67.36000 6.774
67.38000 3.112
67.40000 1.477
67.42000 -0.670
67.44000 1.773
67.46000 4.894
67.48000 3.139
67.50000 5.286
67.52000 5.368
67.54000 7.923
67.56000 7.481
67.58000 7.127
67.60000 6.584
67.62000 7.074
67.64000 9.458
67.66000 7.801
67.68000 9.045
67.70000 9.986
67.72000 8.088
67.74000 8.863
67.76000 4.657
67.78000 8.476
67.80000 12.319
67.82000 19.878
67.84000 15.569
67.86000 13.506
67.88000 11.220
67.90000 10.396
67.92000 10.442
67.94000 9.001
67.96000 11.242
67.98000 10.393
68.00000 11.866
68.02000 12.954
68.04000 17.175
68.06000 15.463
68.08000 13.089
68.10000 12.791
68.12000 12.973
68.14000 12.777
68.16000 12.948
68.18000 15.834
68.20000 15.814
68.22000 12.895
68.24000 10.138
68.26000 17.505
68.28000 19.156
68.30000 17.788
68.32000 18.402
68.34000 15.392
68.36000 15.981
68.38000 13.369
68.40000 15.472
68.42000 19.582
68.44000 15.239
68.46000 15.422
68.48000 17.524
68.50000 16.995
68.52000 17.588
68.54000 22.527
68.56000 17.310
68.58000 10.204
68.60000 9.258
68.62000 11.639
68.64000 17.633
68.66000 17.933
68.68000 16.818
68.70000 15.380
68.72000 14.379
68.74000 14.331
68.76000 10.553
68.78000 12.821
68.80000 9.973
68.82000 10.891
68.84000 15.166
68.86000 10.299
68.88000 4.842
68.90000 5.104
68.92000 9.212
68.94000 8.712
68.96000 10.642
68.98000 10.852
69.00000 7.667
69.02000 6.306
69.04000 7.605
69.06000 9.987
69.08000 10.110
69.10000 2.300
69.12000 3.707
69.14000 5.535
69.16000 3.422
69.18000 0.757
69.20000 2.567
69.22000 3.293
69.24000 2.447
69.26000 3.232
69.28000 1.611
69.30000 1.741
69.32000 0.877
69.34000 1.676
69.36000 4.155
69.38000 6.343
69.40000 2.208
69.42000 -0.721
69.44000 -0.098
69.46000 -0.885
69.48000 -0.552
69.50000 -0.320
69.52000 -0.036
69.54000 -1.110
69.56000 -0.445
69.58000 -0.413
69.60000 0.091
69.62000 -2.369
69.64000 -0.132
69.66000 0.071
69.68000 -0.906
69.70000 2.241
69.72000 0.226
69.74000 -0.631
69.76000 2.324
69.78000 2.927
69.80000 2.792
69.82000 0.560
69.84000 -1.932
69.86000 2.274
69.88000 1.265
69.90000 -1.466
69.92000 1.602
69.94000 2.110
69.96000 2.122
69.98000 2.273
70.00000 2.732
70.02000 0.036
70.04000 -2.306
70.06000 -1.749
70.08000 -0.742
70.10000 -1.095
70.12000 -0.645
70.14000 -2.543
70.16000 -2.386
70.18000 3.196
70.20000 2.764
70.22000 1.977
70.24000 3.044
70.26000 1.045
70.28000 0.000
70.30000 3.851
70.32000 0.920
70.34000 0.017
70.36000 4.488
70.38000 -0.460
70.40000 -2.510
70.42000 3.104
70.44000 2.291
70.46000 2.571
70.48000 2.464
70.50000 3.197
70.52000 -0.492
70.54000 -0.036
70.56000 0.361
70.58000 0.177
70.60000 -1.322
70.62000 -0.668
70.64000 -0.588
70.66000 -1.496
70.68000 1.753
70.70000 -0.529
70.72000 0.146
70.74000 -1.573
70.76000 0.269
70.78000 3.208
70.80000 1.663
70.82000 3.843
70.84000 4.795
70.86000 1.965
70.88000 1.066
70.90000 2.624
70.92000 0.754
70.94000 -2.484
70.96000 0.492
70.98000 1.291
71.00000 -0.362
71.02000 -0.771
71.04000 -0.068
71.06000 2.080
71.08000 3.272
71.10000 0.426
71.12000 1.324
71.14000 1.030
71.16000 0.992
71.18000 2.425
71.20000 2.242
71.22000 3.542
71.24000 2.062
71.26000 2.378
71.28000 0.281
71.30000 -0.031
71.32000 1.254
71.34000 2.917
71.36000 -0.258
71.38000 -0.272
71.40000 2.274
71.42000 5.410
71.44000 4.987
71.46000 -0.302
71.48000 1.028
71.50000 7.699
71.52000 11.354
71.54000 7.491
71.56000 6.827
71.58000 3.028
71.60000 3.039
71.62000 5.592
71.64000 5.773
71.66000 2.559
71.68000 -0.099
71.70000 1.434
71.72000 -2.415
71.74000 1.197
71.76000 0.892
71.78000 2.851
71.80000 6.626
71.82000 8.269
71.84000 9.383
71.86000 3.672
71.88000 0.691
71.90000 2.838
71.92000 4.007
71.94000 6.834
71.96000 3.111
71.98000 4.629
72.00000 3.739
72.02000 3.366
72.04000 3.058
72.06000 5.364
72.08000 2.711
72.10000 4.746
72.12000 1.679
72.14000 4.048
72.16000 4.859
72.18000 -0.242
72.20000 2.189
72.22000 3.076
72.24000 4.441
72.26000 0.644
72.28000 -2.396
72.30000 3.277
72.32000 1.831
72.34000 3.192
72.36000 4.270
72.38000 6.957
72.40000 9.640
72.42000 5.860
72.44000 1.370
72.46000 0.309
72.48000 0.486
72.50000 0.578
72.52000 1.530
72.54000 0.772
72.56000 2.800
72.58000 1.316
72.60000 5.677
72.62000 8.756
72.64000 3.756
72.66000 4.268
72.68000 2.670
72.70000 -0.389
72.72000 1.925
72.74000 4.169
72.76000 -0.498
72.78000 -2.360
72.80000 2.995
72.82000 0.410
72.84000 -1.874
72.86000 2.294
72.88000 8.152
72.90000 9.673
72.92000 3.941
72.94000 1.568
72.96000 6.138
72.98000 7.790
73.00000 -0.234
73.02000 1.497
73.04000 5.540
73.06000 3.213
73.08000 3.912
73.10000 1.539
73.12000 1.093
73.14000 6.721
73.16000 4.026
73.18000 -0.156
73.20000 -0.667
73.22000 3.640
73.24000 7.819
73.26000 6.056
73.28000 4.810
73.30000 3.921
73.32000 1.561
73.34000 3.691
73.36000 3.757
73.38000 4.390
73.40000 5.964
73.42000 -0.152
73.44000 2.235
73.46000 0.469
73.48000 2.284
73.50000 1.658
73.52000 0.507
73.54000 -0.139
73.56000 6.440
73.58000 6.483
73.60000 3.698
73.62000 0.818
73.64000 1.403
73.66000 1.076
73.68000 5.635
73.70000 5.522
73.72000 5.683
73.74000 5.856
73.76000 4.391
73.78000 0.743
73.80000 1.224
73.82000 -0.833
73.84000 -0.430
73.86000 4.756
73.88000 3.700
73.90000 4.571
73.92000 0.335
73.94000 0.312
73.96000 0.143
73.98000 3.723
74.00000 1.880
74.02000 -0.281
74.04000 2.379
74.06000 5.767
74.08000 6.479
74.10000 3.411
74.12000 -0.736
74.14000 -2.356
74.16000 3.057
74.18000 5.006
74.20000 0.978
74.22000 1.021
74.24000 2.912
74.26000 3.001
74.28000 7.081
74.30000 5.870
74.32000 8.778
74.34000 7.221
74.36000 2.067
74.38000 2.908
74.40000 0.223
74.42000 -0.546
74.44000 2.087
74.46000 5.083
74.48000 6.271
74.50000 3.393
74.52000 7.923
74.54000 5.331
74.56000 2.668
74.58000 2.415
74.60000 6.809
74.62000 3.221
74.64000 4.460
74.66000 6.803
74.68000 3.041
74.70000 -2.335
74.72000 1.573
74.74000 2.895
74.76000 2.062
74.78000 1.026
74.80000 1.703
74.82000 3.890
74.84000 3.450
74.86000 3.830
74.88000 4.035
74.90000 2.462
74.92000 7.375
74.94000 5.530
74.96000 11.760
74.98000 5.629
75.00000 2.620
75.02000 4.536
75.04000 3.800
75.06000 4.367
75.08000 4.050
75.10000 4.829
75.12000 1.906
75.14000 1.726
75.16000 5.308
75.18000 4.305
75.20000 5.892
75.22000 5.321
75.24000 5.150
75.26000 5.487
75.28000 0.156
75.30000 1.344
75.32000 3.177
75.34000 4.045
75.36000 9.147
75.38000 5.722
75.40000 4.010
75.42000 6.792
75.44000 6.981
75.46000 6.499
75.48000 8.381
75.50000 8.317
75.52000 5.306
75.54000 7.777
75.56000 8.241
75.58000 3.883
75.60000 4.683
75.62000 5.224
75.64000 7.863
75.66000 5.235
75.68000 6.782
75.70000 4.820
75.72000 3.819
75.74000 4.213
75.76000 4.083
75.78000 1.470
75.80000 7.212
75.82000 5.183
75.84000 3.225
75.86000 -2.366
75.88000 0.519
75.90000 3.689
75.92000 5.660
75.94000 8.138
75.96000 5.304
75.98000 2.941
76.00000 3.040
76.02000 4.241
76.04000 2.341
76.06000 4.223
76.08000 0.516
76.10000 -1.912
76.12000 0.359
76.14000 7.768
76.16000 3.951
76.18000 -0.620
76.20000 -0.356
76.22000 2.262
76.24000 0.544
76.26000 0.564
76.28000 3.151
76.30000 3.272
76.32000 -2.205
76.34000 -1.129
76.36000 1.920
76.38000 1.294
76.40000 -1.432
76.42000 1.397
76.44000 1.875
76.46000 0.180
76.48000 -0.746
76.50000 -0.156
76.52000 -0.587
76.54000 -0.843
76.56000 -1.045
76.58000 -1.595
76.60000 -1.134
76.62000 -2.264
76.64000 1.760
76.66000 6.164
76.68000 5.579
76.70000 0.660
76.72000 0.808
76.74000 -2.371
76.76000 4.235
76.78000 -0.464
76.80000 5.164
76.82000 2.367
76.84000 -0.163
76.86000 1.441
76.88000 0.190
76.90000 -2.225
76.92000 3.535
76.94000 1.204
76.96000 0.558
76.98000 1.550
77.00000 1.500
77.02000 -1.057
77.04000 4.542
77.06000 3.323
77.08000 0.218
77.10000 2.813
77.12000 0.355
77.14000 0.375
77.16000 1.172
77.18000 1.948
77.20000 1.100
77.22000 -1.769
77.24000 -1.895
77.26000 1.652
77.28000 -1.229
77.30000 -2.431
77.32000 2.868
77.34000 0.967
77.36000 -1.592
77.38000 1.135
77.40000 6.426
77.42000 0.377
77.44000 0.333
77.46000 4.086
77.48000 7.697
77.50000 4.205
77.52000 5.343
77.54000 3.423
77.56000 2.047
77.58000 4.976
77.60000 4.998
77.62000 1.957
77.64000 0.876
77.66000 6.713
77.68000 2.403
77.70000 1.676
77.72000 5.023
77.74000 -0.475
77.76000 -0.471
77.78000 -1.497
77.80000 -2.163
77.82000 -0.333
77.84000 0.871
77.86000 1.919
77.88000 1.946
77.90000 1.768
77.92000 3.176
77.94000 -2.004
77.96000 -1.708
77.98000 4.604
78.00000 4.386
78.02000 3.431
78.04000 -1.259
78.06000 0.025
78.08000 2.167
78.10000 -0.333
78.12000 -0.034
78.14000 -0.314
78.16000 2.619
78.18000 2.332
78.20000 1.299
78.22000 0.507
78.24000 0.879
78.26000 0.521
78.28000 1.177
78.30000 0.598
78.32000 1.868
78.34000 0.396
78.36000 -2.434
78.38000 2.238
78.40000 5.719
78.42000 -0.810
78.44000 3.232
78.46000 2.450
78.48000 2.144
78.50000 2.205
78.52000 1.447
78.54000 -1.439
78.56000 -1.518
78.58000 -0.541
78.60000 -0.099
78.62000 3.476
78.64000 3.028
78.66000 6.795
78.68000 6.914
78.70000 7.445
78.72000 7.449
78.74000 5.294
78.76000 3.334
78.78000 1.523
78.80000 2.055
78.82000 1.819
78.84000 -2.242
78.86000 -0.739
78.88000 6.289
78.90000 6.708
78.92000 0.392
78.94000 -2.446
78.96000 -0.393
78.98000 4.516
79.00000 0.197
79.02000 4.365
79.04000 3.180
79.06000 2.215
79.08000 6.623
79.10000 1.506
79.12000 -2.456
79.14000 1.103
79.16000 2.713
79.18000 2.142
79.20000 2.123
79.22000 2.766
79.24000 0.685
79.26000 2.243
79.28000 4.603
79.30000 2.006
79.32000 -0.892
79.34000 1.801
79.36000 2.219
79.38000 1.439
79.40000 1.616
79.42000 1.378
79.44000 1.710
79.46000 3.837
79.48000 1.033
79.50000 -1.628
79.52000 0.228
79.54000 3.194
79.56000 1.168
79.58000 3.610
79.60000 1.071
79.62000 -1.216
79.64000 -1.375
79.66000 2.407
79.68000 2.225
79.70000 0.308
79.72000 1.615
79.74000 0.604
79.76000 0.596
79.78000 2.363
79.80000 5.071
79.82000 7.264
79.84000 3.783
79.86000 0.499
79.88000 -1.241
79.90000 2.417
79.92000 0.062
79.94000 -0.631
79.96000 -1.139
79.98000 -2.517
80.00000 2.020
80.02000 -0.528
80.04000 0.754
80.06000 4.868
80.08000 7.900
80.10000 6.087
80.12000 1.805
80.14000 0.895
80.16000 1.157
80.18000 1.057
80.20000 0.795
80.22000 6.079
80.24000 7.971
80.26000 8.711
80.28000 3.375
80.30000 0.128
80.32000 7.666
80.34000 10.722
80.36000 5.016
80.38000 3.661
80.40000 -0.220
80.42000 4.982
80.44000 5.163
80.46000 3.349
80.48000 3.831
80.50000 5.014
80.52000 3.734
80.54000 2.544
80.56000 2.549
80.58000 0.945
80.60000 -2.579
80.62000 0.455
80.64000 3.174
80.66000 0.543
80.68000 4.116
80.70000 3.694
80.72000 1.836
80.74000 2.816
80.76000 6.429
80.78000 4.160
80.80000 1.960
80.82000 1.678
80.84000 3.575
80.86000 0.230
80.88000 5.510
80.90000 5.699
80.92000 8.007
80.94000 7.179
80.96000 6.666
80.98000 6.899
81.00000 8.604
81.02000 6.447
81.04000 4.866
81.06000 2.967
81.08000 3.341
81.10000 7.529
81.12000 -2.621
81.14000 -0.705
81.16000 7.787
81.18000 9.937
81.20000 2.794
81.22000 3.057
81.24000 3.363
81.26000 10.582
81.28000 9.532
81.30000 8.817
81.32000 6.122
81.34000 4.407
81.36000 4.185
81.38000 4.859
81.40000 11.455
81.42000 13.000
81.44000 9.059
81.46000 7.087
81.48000 11.037
81.50000 12.601
81.52000 10.082
81.54000 8.991
81.56000 8.251
81.58000 15.132
81.60000 14.762
81.62000 14.521
81.64000 15.163
81.66000 15.013
81.68000 13.355
81.70000 13.278
81.72000 15.183
81.74000 12.490
81.76000 10.464
81.78000 14.840
81.80000 12.461
81.82000 10.034
81.84000 12.184
81.86000 11.285
81.88000 15.626
81.90000 12.557
81.92000 10.997
81.94000 12.969
81.96000 18.479
81.98000 20.999
82.00000 15.874
82.02000 19.299
82.04000 23.265
82.06000 24.274
82.08000 25.259
82.10000 25.004
82.12000 24.563
82.14000 18.112
82.16000 15.489
82.18000 13.621
82.20000 15.585
82.22000 24.292
82.24000 23.281
82.26000 22.385
82.28000 24.002
82.30000 23.727
82.32000 25.618
82.34000 22.641
82.36000 22.485
82.38000 20.114
82.40000 20.762
82.42000 23.317
82.44000 18.442
82.46000 14.350
82.48000 23.558
82.50000 23.919
82.52000 19.046
82.54000 22.477
82.56000 22.348
82.58000 24.594
82.60000 23.571
82.62000 23.615
82.64000 24.756
82.66000 24.446
82.68000 26.078
82.70000 27.845
82.72000 19.754
82.74000 20.301
82.76000 21.657
82.78000 21.047
82.80000 23.972
82.82000 22.010
82.84000 29.225
82.86000 24.915
82.88000 22.733
82.90000 18.449
82.92000 17.682
82.94000 19.255
82.96000 24.382
82.98000 21.792
83.00000 17.583
83.02000 18.027
83.04000 22.411
83.06000 21.829
83.08000 19.514
83.10000 16.564
83.12000 13.502
83.14000 15.426
83.16000 16.529
83.18000 13.519
83.20000 12.513
83.22000 13.222
83.24000 13.094
83.26000 13.322
83.28000 11.347
83.30000 10.485
83.32000 14.658
83.34000 14.417
83.36000 13.956
83.38000 9.702
83.40000 6.202
83.42000 4.982
83.44000 5.612
83.46000 8.782
83.48000 10.906
83.50000 19.006
83.52000 17.430
83.54000 12.586
83.56000 9.290
83.58000 10.984
83.60000 10.228
83.62000 11.203
83.64000 8.419
83.66000 4.464
83.68000 5.548
83.70000 9.853
83.72000 7.776
83.74000 9.114
83.76000 6.216
83.78000 6.910
83.80000 3.317
83.82000 8.846
83.84000 9.587
83.86000 6.027
83.88000 6.656
83.90000 8.705
83.92000 9.944
83.94000 8.053
83.96000 4.738
83.98000 2.321
84.00000 6.694
84.02000 5.429
84.04000 4.222
84.06000 3.184
84.08000 8.447
84.10000 7.721
84.12000 2.924
84.14000 -2.521
84.16000 0.359
84.18000 2.269
84.20000 6.704
84.22000 4.590
84.24000 3.036
84.26000 1.873
84.28000 3.691
84.30000 4.996
84.32000 3.083
84.34000 3.257
84.36000 6.278
84.38000 3.736
84.40000 6.807
84.42000 9.652
84.44000 4.809
84.46000 2.208
84.48000 -1.597
84.50000 -1.218
84.52000 2.304
84.54000 0.568
84.56000 2.874
84.58000 2.471
84.60000 -0.765
84.62000 5.319
84.64000 8.382
84.66000 9.836
84.68000 6.020
84.70000 4.544
84.72000 -0.255
84.74000 -2.490
84.76000 0.173
84.78000 1.582
84.80000 4.861
84.82000 1.979
84.84000 2.326
84.86000 5.276
84.88000 0.895
84.90000 -1.577
84.92000 -1.492
84.94000 2.454
84.96000 4.445
84.98000 1.721
85.00000 0.764
85.02000 0.627
85.04000 0.389
85.06000 -0.205
85.08000 -2.119
85.10000 2.134
85.12000 1.208
85.14000 2.196
85.16000 0.777
85.18000 0.244
85.20000 -1.386
85.22000 1.651
85.24000 3.241
85.26000 6.028
85.28000 6.074
85.30000 8.604
85.32000 5.276
85.34000 -0.785
85.36000 -2.512
85.38000 1.183
85.40000 2.689
85.42000 -0.497
85.44000 1.153
85.46000 4.688
85.48000 1.144
85.50000 -1.268
85.52000 -0.806
85.54000 3.962
85.56000 4.645
85.58000 3.392
85.60000 5.851
85.62000 6.759
85.64000 3.957
85.66000 0.293
85.68000 -0.251
85.70000 6.878
85.72000 7.317
85.74000 9.086
85.76000 4.233
85.78000 -0.967
85.80000 1.144
85.82000 4.706
85.84000 4.204
85.86000 5.898
85.88000 8.681
85.90000 7.258
85.92000 6.458
85.94000 7.080
85.96000 6.931
85.98000 6.170
86.00000 9.715
86.02000 7.165
86.04000 6.330
86.06000 9.072
86.08000 13.934
86.10000 16.375
86.12000 11.278
86.14000 11.193
86.16000 12.546
86.18000 15.073
86.20000 15.705
86.22000 10.415
86.24000 11.499
86.26000 13.146
86.28000 10.929
86.30000 16.253
86.32000 14.015
86.34000 16.805
86.36000 20.181
86.38000 15.196
86.40000 12.879
86.42000 15.870
86.44000 20.779
86.46000 22.893
86.48000 21.989
86.50000 21.845
86.52000 24.797
86.54000 18.653
86.56000 15.419
86.58000 21.745
86.60000 27.258
86.62000 27.123
86.64000 24.833
86.66000 29.264
86.68000 28.256
86.70000 29.878
86.72000 30.599
86.74000 30.271
86.76000 25.280
86.78000 22.955
86.80000 25.000
86.82000 27.508
86.84000 20.770
86.86000 20.084
86.88000 19.851
86.90000 27.359
86.92000 29.260
86.94000 28.402
86.96000 28.943
86.98000 33.048
87.00000 28.957
87.02000 23.097
87.04000 16.735
87.06000 20.986
87.08000 20.009
87.10000 20.286
87.12000 21.144
87.14000 17.284
87.16000 25.149
87.18000 27.002
87.20000 23.489
87.22000 19.572
87.24000 16.490
87.26000 18.481
87.28000 19.989
87.30000 25.786
87.32000 23.594
87.34000 21.100
87.36000 18.450
87.38000 15.546
87.40000 12.852
87.42000 17.407
87.44000 16.311
87.46000 17.063
87.48000 17.147
87.50000 14.547
87.52000 11.017
87.54000 8.378
87.56000 11.283
87.58000 12.119
87.60000 10.655
87.62000 9.246
87.64000 11.987
87.66000 10.727
87.68000 14.041
87.70000 10.312
87.72000 6.437
87.74000 7.122
87.76000 7.190
87.78000 4.727
87.80000 7.267
87.82000 8.744
87.84000 11.237
87.86000 11.356
87.88000 7.445
87.90000 3.347
87.92000 5.985
87.94000 9.670
87.96000 6.641
87.98000 8.199
88.00000 5.467
88.02000 6.014
88.04000 6.901
88.06000 1.245
88.08000 0.633
88.10000 1.663
88.12000 6.555
88.14000 2.514
88.16000 3.154
88.18000 5.054
88.20000 1.692
88.22000 6.156
88.24000 0.477
88.26000 -1.304
88.28000 2.464
88.30000 2.866
88.32000 5.053
88.34000 5.925
88.36000 6.982
88.38000 7.252
88.40000 2.858
88.42000 -1.805
88.44000 -1.107
88.46000 3.123
88.48000 4.592
88.50000 5.748
88.52000 4.303
88.54000 5.264
88.56000 5.729
88.58000 3.698
88.60000 7.799
88.62000 5.301
88.64000 2.121
88.66000 2.141
88.68000 5.102
88.70000 4.610
88.72000 4.941
88.74000 4.138
88.76000 0.013
88.78000 4.966
88.80000 4.007
88.82000 -2.301
88.84000 4.217
88.86000 2.101
88.88000 2.236
88.90000 5.402
88.92000 3.798
88.94000 3.450
88.96000 1.073
88.98000 -0.286
89.00000 2.258
89.02000 0.173
89.04000 -0.864
89.06000 0.190
89.08000 1.052
89.10000 2.418
89.12000 3.819
89.14000 11.630
89.16000 5.655
89.18000 2.089
89.20000 2.505
89.22000 1.993
89.24000 6.468
89.26000 10.464
89.28000 2.509
89.30000 -1.892
89.32000 3.644
89.34000 4.892
89.36000 4.790
89.38000 1.987
89.40000 1.304
89.42000 0.081
89.44000 0.192
89.46000 4.475
89.48000 5.036
89.50000 4.898
89.52000 2.743
89.54000 2.229
89.56000 5.811
89.58000 3.256
89.60000 2.374
89.62000 0.903
89.64000 2.579
89.66000 -0.104
89.68000 -1.791
89.70000 1.441
89.72000 3.007
89.74000 3.370
89.76000 7.016
89.78000 7.813
89.80000 9.409
89.82000 7.679
89.84000 3.390
89.86000 2.742
89.88000 5.603
89.90000 6.125
89.92000 2.644
89.94000 -2.236
89.96000 0.561
89.98000 4.757
90.00000 7.498
90.02000 7.321
90.04000 2.522
90.06000 1.640
90.08000 4.421
90.10000 6.581
90.12000 5.360
90.14000 3.533
90.16000 3.485
90.18000 0.912
90.20000 3.966
90.22000 8.404
90.24000 6.951
90.26000 0.435
90.28000 2.384
90.30000 5.880
90.32000 6.734
90.34000 6.578
90.36000 1.388
90.38000 3.765
90.40000 4.852
90.42000 6.580
90.44000 7.141
90.46000 4.425
90.48000 4.893
90.50000 3.153
90.52000 3.637
90.54000 3.627
90.56000 4.284
90.58000 2.509
90.60000 -2.216
90.62000 -0.216
90.64000 6.277
90.66000 5.759
90.68000 1.244
90.70000 3.893
90.72000 5.532
90.74000 3.189
90.76000 2.220
90.78000 5.910
90.80000 9.685
90.82000 10.820
90.84000 6.551
90.86000 4.672
90.88000 3.529
90.90000 6.149
90.92000 5.166
90.94000 2.074
90.96000 -2.229
90.98000 1.452
91.00000 6.184
91.02000 8.670
91.04000 3.391
91.06000 -0.828
91.08000 5.611
91.10000 8.442
91.12000 6.633
91.14000 4.123
91.16000 7.832
91.18000 11.816
91.20000 8.543
91.22000 5.310
91.24000 7.886
91.26000 6.743
91.28000 1.681
91.30000 5.014
91.32000 5.936
91.34000 5.284
91.36000 8.178
91.38000 9.282
91.40000 7.653
91.42000 5.755
91.44000 5.038
91.46000 2.924
91.48000 1.513
91.50000 -0.337
91.52000 3.268
91.54000 3.839
91.56000 3.974
91.58000 0.601
91.60000 0.221
91.62000 5.638
91.64000 7.770
91.66000 0.745
91.68000 -1.514
91.70000 2.584
91.72000 7.644
91.74000 5.257
91.76000 1.574
91.78000 -1.069
91.80000 0.528
91.82000 -1.736
91.84000 -0.364
91.86000 2.053
91.88000 -0.147
91.90000 1.214
91.92000 -2.230
91.94000 1.920
91.96000 3.714
91.98000 2.496
92.00000 2.292
92.02000 4.781
92.04000 6.987
92.06000 4.154
92.08000 3.854
92.10000 0.465
92.12000 6.007
92.14000 5.210
92.16000 3.646
92.18000 -0.546
92.20000 4.745
92.22000 0.895
92.24000 0.224
92.26000 -2.163
92.28000 1.250
92.30000 4.464
92.32000 7.666
92.34000 10.823
92.36000 6.214
92.38000 6.230
92.40000 6.790
92.42000 1.944
92.44000 4.227
92.46000 4.061
92.48000 3.037
92.50000 4.210
92.52000 3.993
92.54000 0.719
92.56000 2.348
92.58000 4.261
92.60000 2.555
92.62000 4.595
92.64000 -1.726
92.66000 0.557
92.68000 7.042
92.70000 5.072
92.72000 1.440
92.74000 -1.269
92.76000 6.255
92.78000 1.920
92.80000 3.956
92.82000 0.307
92.84000 3.399
92.86000 2.848
92.88000 2.161
92.90000 -0.108
92.92000 -0.967
92.94000 4.923
92.96000 4.381
92.98000 2.206
93.00000 -2.266
93.02000 -0.373
93.04000 1.409
93.06000 2.523
93.08000 1.962
93.10000 2.893
93.12000 6.580
93.14000 6.399
93.16000 5.840
93.18000 4.444
93.20000 2.823
93.22000 -1.039
93.24000 -1.655
93.26000 1.406
93.28000 3.113
93.30000 3.368
93.32000 6.365
93.34000 5.544
93.36000 4.261
93.38000 1.920
93.40000 3.950
93.42000 5.079
93.44000 4.381
93.46000 -0.221
93.48000 0.454
93.50000 1.696
93.52000 1.887
93.54000 1.193
93.56000 3.776
93.58000 1.290
93.60000 -2.272
93.62000 0.912
93.64000 2.273
93.66000 7.578
93.68000 9.744
93.70000 12.610
93.72000 6.507
93.74000 1.930
93.76000 6.173
93.78000 6.568
93.80000 3.977
93.82000 4.638
93.84000 4.799
93.86000 2.732
93.88000 4.488
93.90000 4.598
93.92000 -0.187
93.94000 0.581
93.96000 4.473
93.98000 5.332
94.00000 1.167
94.02000 0.054
94.04000 1.453
94.06000 4.468
94.08000 3.577
94.10000 5.558
94.12000 1.906
94.14000 1.184
94.16000 7.289
94.18000 9.010
94.20000 6.657
94.22000 5.541
94.24000 5.322
94.26000 4.872
94.28000 9.247
94.30000 3.509
94.32000 2.729
94.34000 5.813
94.36000 9.362
94.38000 6.845
94.40000 3.773
94.42000 8.549
94.44000 6.865
94.46000 2.945
94.48000 0.822
94.50000 0.134
94.52000 -2.257
94.54000 5.191
94.56000 6.277
94.58000 5.137
94.60000 11.213
94.62000 5.627
94.64000 4.871
94.66000 9.782
94.68000 10.254
94.70000 8.393
94.72000 5.099
94.74000 3.769
94.76000 3.393
94.78000 3.386
94.80000 3.376
94.82000 1.667
94.84000 0.620
94.86000 3.296
94.88000 7.114
94.90000 10.258
94.92000 2.537
94.94000 0.012
94.96000 5.798
94.98000 5.339
95.00000 6.230
95.02000 5.931
95.04000 4.093
95.06000 0.214
95.08000 3.085
95.10000 4.830
95.12000 1.610
95.14000 1.084
95.16000 3.160
95.18000 7.384
95.20000 10.798
95.22000 5.822
95.24000 -1.631
95.26000 4.031
95.28000 6.708
95.30000 8.320
95.32000 4.608
95.34000 0.477
95.36000 2.495
95.38000 4.713
95.40000 -0.182
95.42000 -0.456
95.44000 -1.613
95.46000 -1.634
95.48000 3.565
95.50000 3.425
95.52000 2.887
95.54000 3.599
95.56000 5.917
95.58000 5.094
95.60000 13.215
95.62000 11.100
95.64000 9.375
95.66000 6.474
95.68000 2.998
95.70000 8.306
95.72000 9.105
95.74000 6.438
95.76000 -2.258
95.78000 2.525
95.80000 4.071
95.82000 5.943
95.84000 6.152
95.86000 5.371
95.88000 7.768
95.90000 5.882
95.92000 0.753
95.94000 3.546
95.96000 1.768
95.98000 2.253
96.00000 5.866
96.02000 7.168
96.04000 7.205
96.06000 6.682
96.08000 5.341
96.10000 4.818
96.12000 8.592
96.14000 8.715
96.16000 2.835
96.18000 1.728
96.20000 5.268
96.22000 7.572
96.24000 2.251
96.26000 5.366
96.28000 6.658
96.30000 5.264
96.32000 1.071
96.34000 5.281
96.36000 5.484
96.38000 1.513
96.40000 6.192
96.42000 6.603
96.44000 6.171
96.46000 3.903
96.48000 -0.791
96.50000 1.432
96.52000 -1.431
96.54000 -0.177
96.56000 4.920
96.58000 6.504
96.60000 9.205
96.62000 12.463
96.64000 8.381
96.66000 1.713
96.68000 5.734
96.70000 8.899
96.72000 1.618
96.74000 1.222
96.76000 0.060
96.78000 4.234
96.80000 -0.325
96.82000 5.008
96.84000 2.886
96.86000 -2.263
96.88000 4.093
96.90000 0.977
96.92000 2.030
96.94000 2.646
96.96000 4.642
96.98000 5.178
97.00000 -0.200
97.02000 2.413
97.04000 6.914
97.06000 3.454
97.08000 1.811
97.10000 2.032
97.12000 0.490
97.14000 1.278
97.16000 7.514
97.18000 9.797
97.20000 4.940
97.22000 5.332
97.24000 4.577
97.26000 4.222
97.28000 4.989
97.30000 2.111
97.32000 0.937
97.34000 9.947
97.36000 4.757
97.38000 8.396
97.40000 11.844
97.42000 11.193
97.44000 5.621
97.46000 3.162
97.48000 0.929
97.50000 2.371
97.52000 -1.817
97.54000 3.916
97.56000 6.792
97.58000 2.116
97.60000 -1.113
97.62000 -1.039
97.64000 4.245
97.66000 0.854
97.68000 4.691
97.70000 2.319
97.72000 -2.231
97.74000 -0.201
97.76000 0.963
97.78000 4.635
97.80000 3.790
97.82000 7.594
97.84000 5.796
97.86000 3.844
97.88000 6.555
97.90000 10.032
97.92000 3.381
97.94000 -1.480
97.96000 3.557
97.98000 2.106
98.00000 8.102
98.02000 7.791
98.04000 3.728
98.06000 2.504
98.08000 7.183
98.10000 4.064
98.12000 3.306
98.14000 1.635
98.16000 10.940
98.18000 4.103
98.20000 2.708
98.22000 6.187
98.24000 7.659
98.26000 1.738
98.28000 3.511
98.30000 3.657
98.32000 3.151
98.34000 9.135
98.36000 4.400
98.38000 9.733
98.40000 7.126
98.42000 1.776
98.44000 5.882
98.46000 5.489
98.48000 2.122
98.50000 8.816
98.52000 6.101
98.54000 4.882
98.56000 -1.953
98.58000 8.468
98.60000 5.676
98.62000 7.193
98.64000 1.841
98.66000 11.072
98.68000 6.664
98.70000 4.055
98.72000 -0.241
98.74000 -2.185
98.76000 4.311
98.78000 2.677
98.80000 7.289
98.82000 9.560
98.84000 0.098
98.86000 9.989
98.88000 10.450
98.90000 1.661
98.92000 9.057
98.94000 5.391
98.96000 6.159
98.98000 13.831
99.00000 8.696
99.02000 8.149
99.04000 8.127
99.06000 4.139
99.08000 2.865
99.10000 6.639
99.12000 0.940
99.14000 6.900
99.16000 12.771
99.18000 2.669
99.20000 9.793
99.22000 8.762
99.24000 11.250
99.26000 7.931
99.28000 4.834
99.30000 3.091
99.32000 0.889
99.34000 5.476
99.36000 9.784
99.38000 0.559
99.40000 7.995
99.42000 2.615
99.44000 0.430
99.46000 3.242
99.48000 4.419
99.50000 10.177
99.52000 13.778
99.54000 8.380
99.56000 14.644
99.58000 10.616
99.60000 13.820
99.62000 18.155
99.64000 21.084
99.66000 6.544
99.68000 1.916
99.70000 -2.157
99.72000 7.213
99.74000 8.886
99.76000 5.158
99.78000 9.709
99.80000 4.241
99.82000 17.096
99.84000 -2.633
99.86000 -2.161
99.88000 11.089
99.90000 7.436
99.92000 2.000
99.94000 4.665
99.96000 2.624
99.98000 0.000
