'Id: "0011389" Comment: "Integrate frame 0011389_Au-Ir-Rh_Au-Rich_XRD_Mapping-237-0000.gfrmwith cursor Wedge Cursor #5" Operator: "B?rgel" Anode: "Cu" Wavelength: "1.5406" Scantype: "2Theta (TwoTheta)" TimePerStep: "1" X: "31.5" Y: "13.5" Z: "5.95" 
10.00000 0.000
10.02000 3.455
10.04000 10.190
10.06000 4.342
10.08000 -1.492
10.10000 -3.428
10.12000 14.361
10.14000 15.154
10.16000 15.792
10.18000 -0.394
10.20000 -3.460
10.22000 9.275
10.24000 15.991
10.26000 19.605
10.28000 21.685
10.30000 30.794
10.32000 29.248
10.34000 17.155
10.36000 8.126
10.38000 28.459
10.40000 15.939
10.42000 14.115
10.44000 23.572
10.46000 22.386
10.48000 15.772
10.50000 17.483
10.52000 16.452
10.54000 9.330
10.56000 5.853
10.58000 20.357
10.60000 21.067
10.62000 16.674
10.64000 13.637
10.66000 19.157
10.68000 17.339
10.70000 20.054
10.72000 9.445
10.74000 13.447
10.76000 19.548
10.78000 24.053
10.80000 24.709
10.82000 24.439
10.84000 23.610
10.86000 11.593
10.88000 20.820
10.90000 26.883
10.92000 25.103
10.94000 19.820
10.96000 27.731
10.98000 21.487
11.00000 19.424
11.02000 9.231
11.04000 8.524
11.06000 11.790
11.08000 14.964
11.10000 20.937
11.12000 25.080
11.14000 25.010
11.16000 24.305
11.18000 31.237
11.20000 29.179
11.22000 30.016
11.24000 37.400
11.26000 37.739
11.28000 29.415
11.30000 19.412
11.32000 19.913
11.34000 25.452
11.36000 13.135
11.38000 14.074
11.40000 27.950
11.42000 38.053
11.44000 34.554
11.46000 31.111
11.48000 21.604
11.50000 26.623
11.52000 25.277
11.54000 23.322
11.56000 32.876
11.58000 29.322
11.60000 31.662
11.62000 31.988
11.64000 22.303
11.66000 25.737
11.68000 24.024
11.70000 21.074
11.72000 28.996
11.74000 30.304
11.76000 35.516
11.78000 33.108
11.80000 31.832
11.82000 34.733
11.84000 40.027
11.86000 31.235
11.88000 36.303
11.90000 38.502
11.92000 35.719
11.94000 21.041
11.96000 23.388
11.98000 24.400
12.00000 28.442
12.02000 22.276
12.04000 30.331
12.06000 40.670
12.08000 36.946
12.10000 33.663
12.12000 38.362
12.14000 34.115
12.16000 39.442
12.18000 34.076
12.20000 40.204
12.22000 37.831
12.24000 39.451
12.26000 35.377
12.28000 36.716
12.30000 34.675
12.32000 37.609
12.34000 31.618
12.36000 28.062
12.38000 48.301
12.40000 44.891
12.42000 33.050
12.44000 42.905
12.46000 38.285
12.48000 31.129
12.50000 29.037
12.52000 31.485
12.54000 44.274
12.56000 41.261
12.58000 38.432
12.60000 53.986
12.62000 44.331
12.64000 37.842
12.66000 32.377
12.68000 35.035
12.70000 43.254
12.72000 50.964
12.74000 45.419
12.76000 35.830
12.78000 39.215
12.80000 34.853
12.82000 28.548
12.84000 30.083
12.86000 33.563
12.88000 41.587
12.90000 36.688
12.92000 42.359
12.94000 45.042
12.96000 27.514
12.98000 30.901
13.00000 34.632
13.02000 35.707
13.04000 38.802
13.06000 30.340
13.08000 22.192
13.10000 37.845
13.12000 41.030
13.14000 38.818
13.16000 28.966
13.18000 30.467
13.20000 37.907
13.22000 38.461
13.24000 34.565
13.26000 21.473
13.28000 20.529
13.30000 29.889
13.32000 38.457
13.34000 39.330
13.36000 25.906
13.38000 33.247
13.40000 39.426
13.42000 42.843
13.44000 41.353
13.46000 24.007
13.48000 22.972
13.50000 33.005
13.52000 42.541
13.54000 47.669
13.56000 43.791
13.58000 30.999
13.60000 31.339
13.62000 35.008
13.64000 28.794
13.66000 23.533
13.68000 29.279
13.70000 32.081
13.72000 33.283
13.74000 30.524
13.76000 24.524
13.78000 25.217
13.80000 21.544
13.82000 20.270
13.84000 21.599
13.86000 23.305
13.88000 35.121
13.90000 32.052
13.92000 27.632
13.94000 25.513
13.96000 29.260
13.98000 32.245
14.00000 27.462
14.02000 24.161
14.04000 33.153
14.06000 28.628
14.08000 22.149
14.10000 33.974
14.12000 32.048
14.14000 26.312
14.16000 34.687
14.18000 29.975
14.20000 26.243
14.22000 29.435
14.24000 25.960
14.26000 31.046
14.28000 27.114
14.30000 25.337
14.32000 30.190
14.34000 28.218
14.36000 28.824
14.38000 30.979
14.40000 21.648
14.42000 13.702
14.44000 27.891
14.46000 34.079
14.48000 42.661
14.50000 29.193
14.52000 21.065
14.54000 19.040
14.56000 12.888
14.58000 16.896
14.60000 15.156
14.62000 22.986
14.64000 18.783
14.66000 20.806
14.68000 15.501
14.70000 16.359
14.72000 31.396
14.74000 30.627
14.76000 25.584
14.78000 16.965
14.80000 18.549
14.82000 20.356
14.84000 25.356
14.86000 22.973
14.88000 20.176
14.90000 28.523
14.92000 26.717
14.94000 24.390
14.96000 23.827
14.98000 18.525
15.00000 18.530
15.02000 21.055
15.04000 17.477
15.06000 15.620
15.08000 24.121
15.10000 21.662
15.12000 15.934
15.14000 13.560
15.16000 16.162
15.18000 19.742
15.20000 22.497
15.22000 10.678
15.24000 16.336
15.26000 18.875
15.28000 17.573
15.30000 15.346
15.32000 13.326
15.34000 22.049
15.36000 20.705
15.38000 22.067
15.40000 18.522
15.42000 15.232
15.44000 23.040
15.46000 30.051
15.48000 17.797
15.50000 16.787
15.52000 16.151
15.54000 13.380
15.56000 25.747
15.58000 11.990
15.60000 4.455
15.62000 15.671
15.64000 11.524
15.66000 4.795
15.68000 11.361
15.70000 10.475
15.72000 19.912
15.74000 13.795
15.76000 14.597
15.78000 24.296
15.80000 29.111
15.82000 22.250
15.84000 12.701
15.86000 13.339
15.88000 19.420
15.90000 19.225
15.92000 17.135
15.94000 17.299
15.96000 13.441
15.98000 15.553
16.00000 16.871
16.02000 8.456
16.04000 12.987
16.06000 15.830
16.08000 11.922
16.10000 19.696
16.12000 22.071
16.14000 15.768
16.16000 22.704
16.18000 27.175
16.20000 15.002
16.22000 17.017
16.24000 15.862
16.26000 13.193
16.28000 16.039
16.30000 10.790
16.32000 13.510
16.34000 10.145
16.36000 7.665
16.38000 13.295
16.40000 5.928
16.42000 11.225
16.44000 14.956
16.46000 13.306
16.48000 19.463
16.50000 18.093
16.52000 20.913
16.54000 9.161
16.56000 -2.616
16.58000 -2.235
16.60000 4.172
16.62000 12.491
16.64000 6.768
16.66000 5.948
16.68000 8.352
16.70000 14.674
16.72000 6.661
16.74000 12.586
16.76000 21.586
16.78000 11.879
16.80000 12.098
16.82000 14.932
16.84000 11.249
16.86000 10.646
16.88000 19.126
16.90000 10.990
16.92000 7.534
16.94000 8.530
16.96000 8.833
16.98000 10.243
17.00000 10.240
17.02000 14.864
17.04000 8.269
17.06000 4.693
17.08000 2.233
17.10000 0.183
17.12000 7.594
17.14000 11.922
17.16000 14.688
17.18000 9.879
17.20000 6.180
17.22000 -0.375
17.24000 4.912
17.26000 13.871
17.28000 4.904
17.30000 2.897
17.32000 3.282
17.34000 3.117
17.36000 12.030
17.38000 15.011
17.40000 6.497
17.42000 6.937
17.44000 14.554
17.46000 18.987
17.48000 9.082
17.50000 -1.067
17.52000 3.254
17.54000 13.470
17.56000 16.732
17.58000 14.009
17.60000 8.096
17.62000 -0.679
17.64000 1.030
17.66000 7.618
17.68000 10.164
17.70000 3.396
17.72000 8.351
17.74000 5.846
17.76000 7.484
17.78000 6.113
17.80000 3.594
17.82000 -1.910
17.84000 -1.133
17.86000 6.762
17.88000 11.992
17.90000 8.555
17.92000 7.362
17.94000 12.828
17.96000 10.366
17.98000 8.196
18.00000 8.179
18.02000 6.735
18.04000 4.276
18.06000 4.647
18.08000 11.464
18.10000 15.583
18.12000 9.505
18.14000 5.559
18.16000 2.012
18.18000 8.865
18.20000 1.868
18.22000 -0.034
18.24000 9.927
18.26000 4.307
18.28000 6.950
18.30000 6.247
18.32000 7.154
18.34000 -0.568
18.36000 -1.160
18.38000 7.628
18.40000 6.970
18.42000 5.746
18.44000 5.966
18.46000 4.142
18.48000 4.426
18.50000 6.350
18.52000 -2.624
18.54000 6.930
18.56000 -1.809
18.58000 -4.336
18.60000 4.939
18.62000 10.256
18.64000 3.386
18.66000 8.983
18.68000 3.790
18.70000 0.584
18.72000 8.166
18.74000 9.287
18.76000 9.828
18.78000 5.630
18.80000 5.581
18.82000 2.109
18.84000 8.040
18.86000 12.043
18.88000 16.347
18.90000 10.825
18.92000 8.131
18.94000 8.468
18.96000 1.610
18.98000 9.217
19.00000 15.323
19.02000 7.901
19.04000 1.989
19.06000 7.438
19.08000 8.280
19.10000 3.284
19.12000 8.666
19.14000 11.779
19.16000 14.483
19.18000 10.876
19.20000 5.004
19.22000 -4.287
19.24000 2.754
19.26000 10.309
19.28000 15.242
19.30000 12.611
19.32000 2.800
19.34000 8.456
19.36000 7.956
19.38000 4.668
19.40000 6.342
19.42000 5.923
19.44000 4.341
19.46000 2.937
19.48000 7.735
19.50000 11.623
19.52000 9.077
19.54000 10.562
19.56000 11.119
19.58000 5.265
19.60000 8.713
19.62000 3.786
19.64000 4.503
19.66000 6.267
19.68000 6.339
19.70000 3.135
19.72000 -0.309
19.74000 2.105
19.76000 4.869
19.78000 3.693
19.80000 3.330
19.82000 -1.167
19.84000 6.206
19.86000 7.866
19.88000 8.958
19.90000 6.231
19.92000 5.506
19.94000 5.010
19.96000 6.738
19.98000 6.164
20.00000 7.832
20.02000 2.606
20.04000 1.961
20.06000 6.965
20.08000 4.909
20.10000 0.561
20.12000 -0.394
20.14000 0.775
20.16000 9.818
20.18000 6.351
20.20000 3.487
20.22000 1.949
20.24000 10.125
20.26000 10.095
20.28000 6.766
20.30000 8.183
20.32000 4.634
20.34000 0.109
20.36000 7.270
20.38000 5.303
20.40000 6.148
20.42000 1.572
20.44000 5.585
20.46000 3.957
20.48000 -4.228
20.50000 8.506
20.52000 11.117
20.54000 0.466
20.56000 -0.175
20.58000 2.876
20.60000 1.260
20.62000 3.686
20.64000 2.794
20.66000 3.864
20.68000 9.417
20.70000 10.978
20.72000 8.595
20.74000 3.405
20.76000 4.218
20.78000 8.475
20.80000 7.144
20.82000 8.495
20.84000 3.527
20.86000 2.204
20.88000 5.233
20.90000 3.753
20.92000 3.547
20.94000 4.604
20.96000 -0.687
20.98000 3.025
21.00000 6.836
21.02000 7.142
21.04000 10.602
21.06000 1.759
21.08000 1.859
21.10000 10.885
21.12000 9.674
21.14000 8.223
21.16000 7.698
21.18000 3.843
21.20000 3.870
21.22000 11.685
21.24000 10.851
21.26000 4.525
21.28000 3.754
21.30000 9.269
21.32000 8.712
21.34000 -4.178
21.36000 -2.342
21.38000 2.327
21.40000 5.116
21.42000 3.356
21.44000 4.055
21.46000 3.839
21.48000 0.249
21.50000 8.093
21.52000 6.734
21.54000 2.975
21.56000 0.467
21.58000 4.369
21.60000 -0.823
21.62000 3.985
21.64000 5.862
21.66000 4.662
21.68000 8.894
21.70000 13.369
21.72000 7.163
21.74000 1.513
21.76000 4.100
21.78000 2.849
21.80000 5.987
21.82000 4.845
21.84000 2.647
21.86000 -0.972
21.88000 3.083
21.90000 5.812
21.92000 9.245
21.94000 4.336
21.96000 -0.347
21.98000 -0.303
22.00000 1.274
22.02000 -0.424
22.04000 -3.688
22.06000 2.436
22.08000 6.536
22.10000 8.256
22.12000 3.899
22.14000 -0.783
22.16000 -4.152
22.18000 -1.721
22.20000 1.826
22.22000 1.030
22.24000 -1.724
22.26000 1.373
22.28000 -0.924
22.30000 2.780
22.32000 4.109
22.34000 5.337
22.36000 5.940
22.38000 6.056
22.40000 8.275
22.42000 1.751
22.44000 1.671
22.46000 0.834
22.48000 0.071
22.50000 -0.421
22.52000 0.349
22.54000 2.386
22.56000 4.602
22.58000 6.333
22.60000 1.821
22.62000 0.330
22.64000 3.670
22.66000 9.169
22.68000 10.146
22.70000 1.713
22.72000 4.154
22.74000 -0.973
22.76000 3.266
22.78000 7.137
22.80000 7.398
22.82000 2.147
22.84000 7.690
22.86000 12.331
22.88000 6.374
22.90000 0.326
22.92000 0.548
22.94000 0.699
22.96000 4.676
22.98000 2.944
23.00000 -1.483
23.02000 -1.302
23.04000 2.527
23.06000 3.622
23.08000 1.617
23.10000 1.369
23.12000 6.573
23.14000 1.577
23.16000 -0.495
23.18000 9.202
23.20000 9.251
23.22000 8.180
23.24000 9.838
23.26000 4.313
23.28000 1.188
23.30000 10.124
23.32000 6.771
23.34000 9.962
23.36000 10.427
23.38000 12.732
23.40000 6.052
23.42000 6.147
23.44000 7.940
23.46000 3.698
23.48000 1.709
23.50000 2.748
23.52000 -4.059
23.54000 -3.320
23.56000 -1.648
23.58000 4.429
23.60000 6.952
23.62000 4.234
23.64000 2.881
23.66000 1.878
23.68000 3.041
23.70000 6.344
23.72000 5.351
23.74000 5.249
23.76000 10.283
23.78000 6.701
23.80000 2.316
23.82000 -0.114
23.84000 2.673
23.86000 -2.369
23.88000 3.571
23.90000 4.314
23.92000 -0.706
23.94000 2.038
23.96000 3.955
23.98000 8.883
24.00000 5.812
24.02000 5.695
24.04000 6.178
24.06000 5.447
24.08000 8.225
24.10000 -2.452
24.12000 -1.479
24.14000 -4.037
24.16000 -1.191
24.18000 3.301
24.20000 1.181
24.22000 -0.669
24.24000 -1.009
24.26000 2.266
24.28000 2.744
24.30000 2.933
24.32000 0.784
24.34000 2.316
24.36000 4.261
24.38000 3.181
24.40000 3.706
24.42000 4.926
24.44000 6.253
24.46000 1.818
24.48000 0.748
24.50000 -0.211
24.52000 1.622
24.54000 1.215
24.56000 1.307
24.58000 -1.628
24.60000 -0.448
24.62000 1.884
24.64000 3.081
24.66000 2.067
24.68000 3.166
24.70000 -1.003
24.72000 -0.162
24.74000 3.844
24.76000 1.737
24.78000 5.415
24.80000 4.725
24.82000 0.290
24.84000 2.307
24.86000 3.452
24.88000 -1.854
24.90000 -3.649
24.92000 -1.151
24.94000 2.422
24.96000 2.438
24.98000 1.547
25.00000 -2.078
25.02000 -3.075
25.04000 -0.050
25.06000 6.953
25.08000 7.537
25.10000 7.722
25.12000 5.435
25.14000 -1.483
25.16000 1.400
25.18000 5.011
25.20000 0.742
25.22000 -0.625
25.24000 3.414
25.26000 7.830
25.28000 7.390
25.30000 2.708
25.32000 7.746
25.34000 0.510
25.36000 0.964
25.38000 5.830
25.40000 3.783
25.42000 7.101
25.44000 13.538
25.46000 8.355
25.48000 10.312
25.50000 5.806
25.52000 2.904
25.54000 -0.806
25.56000 -3.941
25.58000 0.158
25.60000 3.957
25.62000 6.108
25.64000 9.468
25.66000 6.266
25.68000 4.029
25.70000 3.588
25.72000 7.203
25.74000 9.459
25.76000 4.358
25.78000 2.737
25.80000 2.851
25.82000 4.254
25.84000 4.819
25.86000 8.481
25.88000 10.229
25.90000 11.760
25.92000 5.529
25.94000 -0.687
25.96000 2.229
25.98000 5.928
26.00000 4.577
26.02000 3.198
26.04000 2.853
26.06000 -0.921
26.08000 1.299
26.10000 5.897
26.12000 9.236
26.14000 8.341
26.16000 6.273
26.18000 2.689
26.20000 3.785
26.22000 5.403
26.24000 4.806
26.26000 0.977
26.28000 8.773
26.30000 10.418
26.32000 12.797
26.34000 13.960
26.36000 11.492
26.38000 9.945
26.40000 0.721
26.42000 -1.447
26.44000 0.874
26.46000 2.019
26.48000 2.086
26.50000 0.853
26.52000 3.351
26.54000 2.807
26.56000 3.420
26.58000 8.036
26.60000 5.204
26.62000 5.739
26.64000 4.922
26.66000 7.897
26.68000 4.306
26.70000 2.767
26.72000 3.426
26.74000 0.042
26.76000 5.036
26.78000 12.209
26.80000 3.656
26.82000 6.866
26.84000 8.572
26.86000 5.226
26.88000 3.778
26.90000 3.550
26.92000 4.082
26.94000 0.084
26.96000 2.233
26.98000 2.478
27.00000 0.961
27.02000 0.390
27.04000 5.283
27.06000 6.006
27.08000 5.649
27.10000 10.434
27.12000 6.784
27.14000 2.900
27.16000 1.115
27.18000 -0.398
27.20000 -1.282
27.22000 4.651
27.24000 6.107
27.26000 7.035
27.28000 2.556
27.30000 4.145
27.32000 4.646
27.34000 3.421
27.36000 1.351
27.38000 5.892
27.40000 9.604
27.42000 4.326
27.44000 0.119
27.46000 -3.840
27.48000 1.051
27.50000 3.721
27.52000 3.096
27.54000 1.812
27.56000 6.350
27.58000 4.162
27.60000 3.075
27.62000 4.661
27.64000 8.451
27.66000 7.320
27.68000 7.945
27.70000 9.439
27.72000 8.611
27.74000 9.728
27.76000 0.273
27.78000 0.565
27.80000 7.287
27.82000 2.188
27.84000 2.297
27.86000 4.197
27.88000 2.155
27.90000 6.240
27.92000 4.364
27.94000 4.390
27.96000 6.450
27.98000 7.177
28.00000 2.349
28.02000 4.045
28.04000 1.989
28.06000 2.925
28.08000 4.115
28.10000 8.761
28.12000 5.997
28.14000 3.978
28.16000 7.106
28.18000 6.410
28.20000 -0.439
28.22000 4.464
28.24000 1.902
28.26000 -0.610
28.28000 1.405
28.30000 8.442
28.32000 9.875
28.34000 2.145
28.36000 -3.791
28.38000 1.386
28.40000 5.171
28.42000 6.503
28.44000 9.114
28.46000 9.755
28.48000 4.226
28.50000 -1.498
28.52000 -3.791
28.54000 -0.554
28.56000 5.643
28.58000 9.482
28.60000 8.368
28.62000 1.895
28.64000 0.511
28.66000 9.482
28.68000 4.540
28.70000 8.738
28.72000 8.135
28.74000 3.833
28.76000 8.150
28.78000 4.924
28.80000 2.598
28.82000 1.545
28.84000 5.347
28.86000 9.052
28.88000 8.619
28.90000 3.198
28.92000 -1.963
28.94000 0.005
28.96000 1.470
28.98000 4.219
29.00000 3.921
29.02000 -1.424
29.04000 1.119
29.06000 2.596
29.08000 4.274
29.10000 2.786
29.12000 0.702
29.14000 -0.095
29.16000 6.225
29.18000 7.315
29.20000 2.200
29.22000 0.700
29.24000 2.554
29.26000 3.575
29.28000 1.594
29.30000 2.073
29.32000 2.805
29.34000 -1.239
29.36000 2.509
29.38000 2.633
29.40000 6.649
29.42000 9.001
29.44000 8.598
29.46000 -0.913
29.48000 -2.833
29.50000 2.006
29.52000 0.829
29.54000 -0.384
29.56000 2.419
29.58000 6.815
29.60000 3.994
29.62000 1.100
29.64000 1.948
29.66000 4.616
29.68000 0.218
29.70000 3.689
29.72000 6.598
29.74000 4.644
29.76000 3.281
29.78000 3.245
29.80000 1.400
29.82000 2.455
29.84000 5.886
29.86000 3.025
29.88000 0.448
29.90000 2.006
29.92000 -0.865
29.94000 2.668
29.96000 1.778
29.98000 -0.276
30.00000 -0.905
30.02000 -1.591
30.04000 0.055
30.06000 7.980
30.08000 3.165
30.10000 8.461
30.12000 10.665
30.14000 7.328
30.16000 10.633
30.18000 10.685
30.20000 8.668
30.22000 4.169
30.24000 2.339
30.26000 4.181
30.28000 4.665
30.30000 5.602
30.32000 5.734
30.34000 1.092
30.36000 -3.706
30.38000 1.155
30.40000 2.729
30.42000 5.833
30.44000 3.647
30.46000 3.936
30.48000 3.165
30.50000 6.141
30.52000 3.482
30.54000 4.819
30.56000 1.935
30.58000 5.676
30.60000 4.130
30.62000 2.630
30.64000 1.486
30.66000 2.915
30.68000 1.019
30.70000 2.598
30.72000 6.725
30.74000 5.273
30.76000 6.449
30.78000 3.870
30.80000 0.383
30.82000 3.465
30.84000 5.389
30.86000 7.532
30.88000 3.987
30.90000 2.903
30.92000 4.702
30.94000 5.388
30.96000 5.567
30.98000 6.376
31.00000 11.846
31.02000 8.782
31.04000 3.004
31.06000 -1.326
31.08000 4.558
31.10000 2.990
31.12000 4.595
31.14000 6.944
31.16000 5.876
31.18000 6.543
31.20000 9.217
31.22000 8.842
31.24000 7.138
31.26000 5.138
31.28000 3.561
31.30000 2.672
31.32000 2.851
31.34000 4.224
31.36000 6.038
31.38000 7.214
31.40000 8.009
31.42000 11.887
31.44000 7.875
31.46000 5.921
31.48000 0.898
31.50000 0.397
31.52000 4.545
31.54000 10.275
31.56000 8.621
31.58000 4.545
31.60000 3.314
31.62000 5.382
31.64000 4.245
31.66000 0.492
31.68000 -3.644
31.70000 -0.547
31.72000 8.117
31.74000 8.865
31.76000 9.174
31.78000 8.078
31.80000 4.833
31.82000 2.766
31.84000 2.677
31.86000 2.616
31.88000 4.198
31.90000 6.430
31.92000 7.877
31.94000 9.363
31.96000 6.325
31.98000 6.657
32.00000 7.996
32.02000 7.817
32.04000 1.726
32.06000 0.663
32.08000 6.476
32.10000 6.259
32.12000 -3.573
32.14000 -2.696
32.16000 -0.135
32.18000 1.447
32.20000 3.365
32.22000 0.724
32.24000 1.920
32.26000 3.147
32.28000 3.041
32.30000 5.436
32.32000 5.332
32.34000 6.892
32.36000 11.988
32.38000 5.859
32.40000 -2.444
32.42000 0.733
32.44000 7.926
32.46000 10.995
32.48000 4.840
32.50000 -0.218
32.52000 3.338
32.54000 0.059
32.56000 3.891
32.58000 4.491
32.60000 5.741
32.62000 5.018
32.64000 1.979
32.66000 4.901
32.68000 1.745
32.70000 1.602
32.72000 7.150
32.74000 -0.328
32.76000 1.432
32.78000 5.813
32.80000 6.919
32.82000 -0.908
32.84000 1.137
32.86000 3.752
32.88000 -3.625
32.90000 -2.054
32.92000 2.013
32.94000 7.373
32.96000 4.441
32.98000 -1.007
33.00000 1.649
33.02000 0.609
33.04000 2.443
33.06000 3.301
33.08000 4.807
33.10000 5.921
33.12000 6.774
33.14000 4.479
33.16000 4.590
33.18000 4.503
33.20000 5.135
33.22000 3.782
33.24000 2.813
33.26000 4.267
33.28000 8.395
33.30000 5.387
33.32000 3.479
33.34000 3.658
33.36000 4.999
33.38000 5.951
33.40000 1.691
33.42000 -0.285
33.44000 2.365
33.46000 3.150
33.48000 -0.625
33.50000 2.341
33.52000 2.482
33.54000 5.985
33.56000 3.534
33.58000 2.347
33.60000 7.031
33.62000 2.656
33.64000 5.219
33.66000 6.970
33.68000 -0.112
33.70000 1.040
33.72000 3.029
33.74000 4.582
33.76000 8.368
33.78000 7.153
33.80000 7.826
33.82000 2.923
33.84000 0.358
33.86000 0.794
33.88000 8.215
33.90000 8.005
33.92000 7.270
33.94000 3.867
33.96000 4.601
33.98000 6.022
34.00000 7.862
34.02000 7.297
34.04000 7.855
34.06000 6.188
34.08000 3.737
34.10000 2.879
34.12000 5.803
34.14000 6.998
34.16000 5.646
34.18000 4.862
34.20000 4.272
34.22000 -0.697
34.24000 1.748
34.26000 4.150
34.28000 3.940
34.30000 -0.178
34.32000 2.316
34.34000 4.625
34.36000 6.591
34.38000 8.030
34.40000 8.887
34.42000 5.045
34.44000 2.827
34.46000 6.655
34.48000 4.459
34.50000 -1.340
34.52000 -1.802
34.54000 -0.404
34.56000 5.257
34.58000 5.224
34.60000 5.233
34.62000 6.984
34.64000 7.784
34.66000 6.015
34.68000 1.014
34.70000 0.647
34.72000 6.850
34.74000 5.026
34.76000 0.723
34.78000 1.255
34.80000 0.277
34.82000 -1.593
34.84000 -3.613
34.86000 3.511
34.88000 3.581
34.90000 8.601
34.92000 3.095
34.94000 -1.429
34.96000 4.190
34.98000 2.666
35.00000 4.876
35.02000 4.186
35.04000 0.298
35.06000 -1.186
35.08000 -2.672
35.10000 0.608
35.12000 -1.152
35.14000 1.200
35.16000 0.409
35.18000 0.626
35.20000 0.515
35.22000 4.036
35.24000 5.256
35.26000 3.362
35.28000 -0.126
35.30000 3.929
35.32000 0.732
35.34000 -1.730
35.36000 -1.137
35.38000 5.562
35.40000 3.689
35.42000 5.383
35.44000 5.725
35.46000 4.212
35.48000 3.264
35.50000 3.717
35.52000 6.314
35.54000 0.561
35.56000 -3.625
35.58000 0.161
35.60000 4.404
35.62000 5.826
35.64000 4.065
35.66000 4.933
35.68000 3.217
35.70000 5.908
35.72000 5.232
35.74000 5.847
35.76000 0.721
35.78000 2.637
35.80000 6.886
35.82000 5.306
35.84000 1.336
35.86000 5.176
35.88000 7.083
35.90000 1.155
35.92000 4.491
35.94000 3.876
35.96000 -1.067
35.98000 -3.629
36.00000 8.583
36.02000 5.904
36.04000 2.110
36.06000 -0.264
36.08000 1.288
36.10000 0.370
36.12000 3.423
36.14000 0.626
36.16000 1.606
36.18000 4.469
36.20000 6.121
36.22000 6.944
36.24000 6.205
36.26000 3.827
36.28000 6.617
36.30000 5.252
36.32000 1.712
36.34000 1.118
36.36000 1.705
36.38000 4.185
36.40000 -1.991
36.42000 1.154
36.44000 -2.693
36.46000 -2.931
36.48000 1.372
36.50000 3.625
36.52000 -2.304
36.54000 -1.940
36.56000 -0.412
36.58000 2.307
36.60000 2.914
36.62000 3.965
36.64000 1.987
36.66000 0.975
36.68000 -0.386
36.70000 1.278
36.72000 0.209
36.74000 -0.642
36.76000 -1.115
36.78000 2.604
36.80000 2.887
36.82000 1.284
36.84000 3.406
36.86000 1.151
36.88000 -0.208
36.90000 2.115
36.92000 1.991
36.94000 5.322
36.96000 5.320
36.98000 2.317
37.00000 0.455
37.02000 8.318
37.04000 -1.387
37.06000 -1.343
37.08000 2.429
37.10000 0.998
37.12000 5.625
37.14000 5.095
37.16000 1.078
37.18000 3.112
37.20000 6.406
37.22000 0.529
37.24000 6.998
37.26000 9.188
37.28000 3.728
37.30000 2.417
37.32000 4.719
37.34000 7.332
37.36000 6.021
37.38000 6.322
37.40000 7.477
37.42000 8.439
37.44000 8.157
37.46000 7.927
37.48000 8.873
37.50000 14.557
37.52000 10.036
37.54000 8.400
37.56000 11.458
37.58000 15.329
37.60000 14.567
37.62000 11.708
37.64000 12.790
37.66000 10.517
37.68000 6.850
37.70000 16.300
37.72000 16.721
37.74000 14.147
37.76000 13.393
37.78000 15.056
37.80000 17.411
37.82000 19.496
37.84000 19.572
37.86000 20.989
37.88000 21.774
37.90000 20.398
37.92000 21.069
37.94000 22.082
37.96000 17.663
37.98000 19.978
38.00000 22.885
38.02000 23.087
38.04000 26.226
38.06000 31.978
38.08000 27.772
38.10000 30.188
38.12000 27.940
38.14000 33.937
38.16000 36.889
38.18000 38.720
38.20000 37.728
38.22000 34.109
38.24000 29.984
38.26000 33.726
38.28000 35.690
38.30000 37.860
38.32000 43.754
38.34000 40.157
38.36000 43.866
38.38000 48.954
38.40000 44.669
38.42000 53.726
38.44000 55.180
38.46000 56.317
38.48000 56.950
38.50000 61.728
38.52000 59.803
38.54000 61.270
38.56000 64.549
38.58000 69.870
38.60000 66.306
38.62000 75.421
38.64000 79.772
38.66000 83.670
38.68000 81.200
38.70000 92.866
38.72000 97.031
38.74000 94.429
38.76000 101.273
38.78000 110.739
38.80000 116.571
38.82000 125.815
38.84000 131.813
38.86000 135.787
38.88000 139.324
38.90000 147.231
38.92000 155.862
38.94000 169.191
38.96000 175.992
38.98000 181.571
39.00000 189.847
39.02000 206.470
39.04000 217.781
39.06000 228.890
39.08000 246.091
39.10000 260.124
39.12000 275.012
39.14000 291.607
39.16000 305.297
39.18000 324.032
39.20000 345.181
39.22000 368.014
39.24000 386.449
39.26000 400.381
39.28000 420.527
39.30000 440.491
39.32000 454.236
39.34000 480.700
39.36000 485.268
39.38000 504.714
39.40000 527.571
39.42000 549.600
39.44000 566.241
39.46000 578.727
39.48000 587.789
39.50000 601.705
39.52000 613.640
39.54000 607.816
39.56000 614.564
39.58000 626.774
39.60000 612.913
39.62000 608.116
39.64000 590.725
39.66000 579.904
39.68000 569.447
39.70000 558.157
39.72000 550.028
39.74000 526.118
39.76000 508.872
39.78000 483.462
39.80000 463.236
39.82000 441.259
39.84000 428.509
39.86000 413.021
39.88000 388.130
39.90000 367.267
39.92000 347.588
39.94000 327.605
39.96000 307.654
39.98000 289.271
40.00000 277.726
40.02000 257.348
40.04000 238.985
40.06000 232.998
40.08000 214.990
40.10000 197.284
40.12000 186.487
40.14000 173.630
40.16000 162.640
40.18000 152.794
40.20000 141.277
40.22000 131.631
40.24000 128.976
40.26000 126.384
40.28000 116.729
40.30000 107.464
40.32000 99.428
40.34000 98.325
40.36000 90.453
40.38000 85.003
40.40000 77.555
40.42000 70.776
40.44000 66.708
40.46000 65.998
40.48000 64.150
40.50000 59.100
40.52000 53.670
40.54000 50.633
40.56000 50.606
40.58000 52.276
40.60000 47.647
40.62000 46.542
40.64000 44.091
40.66000 41.352
40.68000 35.231
40.70000 32.312
40.72000 30.803
40.74000 29.233
40.76000 31.412
40.78000 26.973
40.80000 25.193
40.82000 23.150
40.84000 25.977
40.86000 24.550
40.88000 24.167
40.90000 22.830
40.92000 17.090
40.94000 14.402
40.96000 17.645
40.98000 19.327
41.00000 17.821
41.02000 15.861
41.04000 16.182
41.06000 12.230
41.08000 14.197
41.10000 13.687
41.12000 10.377
41.14000 10.376
41.16000 4.788
41.18000 8.549
41.20000 12.039
41.22000 7.833
41.24000 6.321
41.26000 9.867
41.28000 7.841
41.30000 10.430
41.32000 9.521
41.34000 6.401
41.36000 4.971
41.38000 8.720
41.40000 6.030
41.42000 3.687
41.44000 7.862
41.46000 7.147
41.48000 3.269
41.50000 1.499
41.52000 2.909
41.54000 3.913
41.56000 0.286
41.58000 0.546
41.60000 4.812
41.62000 2.006
41.64000 -0.776
41.66000 -1.260
41.68000 4.093
41.70000 0.417
41.72000 0.609
41.74000 -3.410
41.76000 0.375
41.78000 -0.044
41.80000 -1.355
41.82000 -0.868
41.84000 4.425
41.86000 2.890
41.88000 0.523
41.90000 -2.146
41.92000 -1.356
41.94000 1.768
41.96000 3.423
41.98000 3.514
42.00000 1.770
42.02000 2.293
42.04000 2.676
42.06000 -2.049
42.08000 -2.053
42.10000 -0.147
42.12000 0.867
42.14000 1.526
42.16000 -0.386
42.18000 -2.189
42.20000 0.230
42.22000 0.662
42.24000 -0.063
42.26000 6.228
42.28000 4.109
42.30000 -0.025
42.32000 1.761
42.34000 2.547
42.36000 4.502
42.38000 0.353
42.40000 0.008
42.42000 0.307
42.44000 0.493
42.46000 -0.391
42.48000 0.105
42.50000 -0.334
42.52000 0.155
42.54000 -1.289
42.56000 -2.904
42.58000 -1.619
42.60000 -1.381
42.62000 0.914
42.64000 -0.540
42.66000 -0.030
42.68000 1.686
42.70000 -0.062
42.72000 2.099
42.74000 2.446
42.76000 -0.060
42.78000 -3.243
42.80000 -2.481
42.82000 0.897
42.84000 2.886
42.86000 3.780
42.88000 4.695
42.90000 1.559
42.92000 -0.920
42.94000 1.906
42.96000 3.386
42.98000 0.816
43.00000 0.739
43.02000 3.293
43.04000 1.816
43.06000 3.626
43.08000 1.867
43.10000 1.382
43.12000 0.194
43.14000 1.042
43.16000 -1.661
43.18000 0.005
43.20000 1.846
43.22000 6.154
43.24000 6.671
43.26000 0.258
43.28000 -0.611
43.30000 -1.772
43.32000 0.791
43.34000 2.217
43.36000 3.903
43.38000 -1.462
43.40000 -1.593
43.42000 -1.151
43.44000 2.924
43.46000 6.761
43.48000 4.228
43.50000 2.532
43.52000 0.835
43.54000 -0.609
43.56000 -3.144
43.58000 -0.732
43.60000 -0.102
43.62000 1.865
43.64000 1.706
43.66000 4.024
43.68000 4.180
43.70000 5.885
43.72000 3.568
43.74000 2.605
43.76000 1.733
43.78000 1.522
43.80000 4.008
43.82000 3.025
43.84000 2.758
43.86000 3.249
43.88000 0.471
43.90000 1.442
43.92000 -0.989
43.94000 -1.102
43.96000 1.296
43.98000 0.884
44.00000 -0.799
44.02000 1.720
44.04000 3.623
44.06000 1.410
44.08000 -0.043
44.10000 0.633
44.12000 1.136
44.14000 1.621
44.16000 -0.565
44.18000 2.230
44.20000 2.898
44.22000 4.065
44.24000 4.044
44.26000 2.601
44.28000 1.729
44.30000 -1.016
44.32000 -3.105
44.34000 -2.657
44.36000 -0.983
44.38000 0.690
44.40000 1.250
44.42000 -0.459
44.44000 0.222
44.46000 -1.178
44.48000 0.678
44.50000 1.479
44.52000 1.400
44.54000 1.007
44.56000 2.205
44.58000 4.905
44.60000 5.219
44.62000 2.842
44.64000 1.533
44.66000 -1.056
44.68000 -0.027
44.70000 5.734
44.72000 7.800
44.74000 4.349
44.76000 0.614
44.78000 2.660
44.80000 3.638
44.82000 1.585
44.84000 2.254
44.86000 5.811
44.88000 7.040
44.90000 7.393
44.92000 7.107
44.94000 7.027
44.96000 3.542
44.98000 6.701
45.00000 11.070
45.02000 9.636
45.04000 6.943
45.06000 9.272
45.08000 11.255
45.10000 10.424
45.12000 10.890
45.14000 8.914
45.16000 13.683
45.18000 14.534
45.20000 10.868
45.22000 14.665
45.24000 14.501
45.26000 14.920
45.28000 18.050
45.30000 18.476
45.32000 12.944
45.34000 15.234
45.36000 20.243
45.38000 23.505
45.40000 20.312
45.42000 21.397
45.44000 18.304
45.46000 20.035
45.48000 18.688
45.50000 24.062
45.52000 27.289
45.54000 26.547
45.56000 24.614
45.58000 25.932
45.60000 27.668
45.62000 28.332
45.64000 30.741
45.66000 32.475
45.68000 35.318
45.70000 34.408
45.72000 34.604
45.74000 39.071
45.76000 38.604
45.78000 40.793
45.80000 42.295
45.82000 40.124
45.84000 41.421
45.86000 42.690
45.88000 43.158
45.90000 44.341
45.92000 46.446
45.94000 46.047
45.96000 50.636
45.98000 55.491
46.00000 55.337
46.02000 58.139
46.04000 54.059
46.06000 55.842
46.08000 56.188
46.10000 56.815
46.12000 61.934
46.14000 61.268
46.16000 62.927
46.18000 61.292
46.20000 58.242
46.22000 61.100
46.24000 65.376
46.26000 63.818
46.28000 63.830
46.30000 62.042
46.32000 64.721
46.34000 63.860
46.36000 62.530
46.38000 63.724
46.40000 59.078
46.42000 62.101
46.44000 59.187
46.46000 60.830
46.48000 58.160
46.50000 54.164
46.52000 51.084
46.54000 48.910
46.56000 47.861
46.58000 46.530
46.60000 46.658
46.62000 48.366
46.64000 44.602
46.66000 41.396
46.68000 37.081
46.70000 34.495
46.72000 35.900
46.74000 37.656
46.76000 36.642
46.78000 33.270
46.80000 34.096
46.82000 31.088
46.84000 29.277
46.86000 26.492
46.88000 27.486
46.90000 26.641
46.92000 23.001
46.94000 22.678
46.96000 20.387
46.98000 21.565
47.00000 22.081
47.02000 23.064
47.04000 23.556
47.06000 23.247
47.08000 15.887
47.10000 12.515
47.12000 13.841
47.14000 10.962
47.16000 10.655
47.18000 8.108
47.20000 7.234
47.22000 6.114
47.24000 7.361
47.26000 12.673
47.28000 11.153
47.30000 9.046
47.32000 5.309
47.34000 7.422
47.36000 8.379
47.38000 6.008
47.40000 1.507
47.42000 4.817
47.44000 8.445
47.46000 8.678
47.48000 7.943
47.50000 10.479
47.52000 9.295
47.54000 4.181
47.56000 2.206
47.58000 1.901
47.60000 2.404
47.62000 0.824
47.64000 -0.564
47.66000 -2.755
47.68000 1.054
47.70000 3.765
47.72000 0.837
47.74000 0.435
47.76000 3.114
47.78000 5.379
47.80000 5.257
47.82000 3.218
47.84000 -0.541
47.86000 -0.306
47.88000 2.985
47.90000 3.922
47.92000 1.074
47.94000 -2.711
47.96000 -2.321
47.98000 0.116
48.00000 -0.402
48.02000 -2.699
48.04000 -0.873
48.06000 0.796
48.08000 3.067
48.10000 1.466
48.12000 1.444
48.14000 -0.586
48.16000 0.586
48.18000 4.626
48.20000 1.872
48.22000 -0.387
48.24000 2.180
48.26000 3.544
48.28000 0.436
48.30000 -2.102
48.32000 -0.142
48.34000 2.914
48.36000 3.185
48.38000 0.237
48.40000 -0.236
48.42000 3.595
48.44000 5.044
48.46000 1.544
48.48000 1.041
48.50000 0.170
48.52000 -2.100
48.54000 0.374
48.56000 2.601
48.58000 1.588
48.60000 2.548
48.62000 3.717
48.64000 2.563
48.66000 2.696
48.68000 -1.712
48.70000 -0.810
48.72000 0.534
48.74000 -1.568
48.76000 -1.732
48.78000 2.646
48.80000 0.215
48.82000 -2.601
48.84000 -0.613
48.86000 1.202
48.88000 1.883
48.90000 1.205
48.92000 1.052
48.94000 3.656
48.96000 2.945
48.98000 5.558
49.00000 1.753
49.02000 1.578
49.04000 7.799
49.06000 4.954
49.08000 1.161
49.10000 0.026
49.12000 0.610
49.14000 2.497
49.16000 4.024
49.18000 4.674
49.20000 3.483
49.22000 -0.401
49.24000 -0.780
49.26000 2.635
49.28000 3.535
49.30000 0.854
49.32000 1.640
49.34000 2.388
49.36000 2.515
49.38000 3.508
49.40000 1.781
49.42000 2.774
49.44000 3.325
49.46000 2.838
49.48000 4.281
49.50000 5.764
49.52000 4.362
49.54000 2.168
49.56000 0.806
49.58000 -2.512
49.60000 0.886
49.62000 3.298
49.64000 6.768
49.66000 6.894
49.68000 7.790
49.70000 8.434
49.72000 7.305
49.74000 4.367
49.76000 4.068
49.78000 4.711
49.80000 4.358
49.82000 3.440
49.84000 3.104
49.86000 5.241
49.88000 2.907
49.90000 3.947
49.92000 2.692
49.94000 3.760
49.96000 7.108
49.98000 3.857
50.00000 3.767
50.02000 7.848
50.04000 5.169
50.06000 0.535
50.08000 1.119
50.10000 3.530
50.12000 3.538
50.14000 3.872
50.16000 1.424
50.18000 0.981
50.20000 0.223
50.22000 1.530
50.24000 5.563
50.26000 5.059
50.28000 2.260
50.30000 2.130
50.32000 1.960
50.34000 5.091
50.36000 5.221
50.38000 2.410
50.40000 1.298
50.42000 2.946
50.44000 0.708
50.46000 -0.228
50.48000 -0.405
50.50000 -1.664
50.52000 -0.269
50.54000 1.794
50.56000 1.496
50.58000 1.614
50.60000 0.161
50.62000 1.582
50.64000 3.769
50.66000 4.981
50.68000 2.094
50.70000 2.736
50.72000 4.629
50.74000 3.674
50.76000 4.411
50.78000 5.029
50.80000 6.151
50.82000 1.216
50.84000 0.283
50.86000 1.184
50.88000 5.763
50.90000 3.239
50.92000 -1.397
50.94000 1.253
50.96000 0.531
50.98000 -0.804
51.00000 0.434
51.02000 -0.325
51.04000 -0.921
51.06000 1.435
51.08000 3.280
51.10000 2.738
51.12000 3.941
51.14000 5.213
51.16000 8.561
51.18000 6.087
51.20000 2.589
51.22000 5.458
51.24000 6.444
51.26000 3.569
51.28000 3.757
51.30000 6.691
51.32000 3.746
51.34000 2.244
51.36000 -2.472
51.38000 -0.749
51.40000 2.497
51.42000 1.875
51.44000 3.367
51.46000 1.716
51.48000 2.249
51.50000 1.376
51.52000 0.715
51.54000 1.467
51.56000 3.475
51.58000 1.421
51.60000 4.377
51.62000 2.617
51.64000 4.022
51.66000 2.368
51.68000 3.505
51.70000 0.032
51.72000 2.115
51.74000 3.585
51.76000 0.240
51.78000 0.667
51.80000 5.497
51.82000 7.118
51.84000 5.758
51.86000 0.570
51.88000 2.487
51.90000 3.135
51.92000 4.971
51.94000 6.403
51.96000 3.189
51.98000 4.172
52.00000 3.490
52.02000 2.873
52.04000 1.004
52.06000 3.914
52.08000 2.490
52.10000 2.763
52.12000 0.994
52.14000 0.497
52.16000 0.214
52.18000 1.413
52.20000 2.507
52.22000 1.385
52.24000 2.411
52.26000 5.477
52.28000 3.832
52.30000 2.427
52.32000 -2.474
52.34000 -1.922
52.36000 -2.260
52.38000 0.266
52.40000 1.996
52.42000 5.208
52.44000 3.917
52.46000 4.133
52.48000 2.414
52.50000 2.315
52.52000 -0.658
52.54000 1.358
52.56000 -0.383
52.58000 1.137
52.60000 2.693
52.62000 1.452
52.64000 0.511
52.66000 -0.678
52.68000 -0.176
52.70000 0.776
52.72000 1.356
52.74000 -0.482
52.76000 0.717
52.78000 2.932
52.80000 0.291
52.82000 -2.461
52.84000 2.887
52.86000 0.737
52.88000 0.687
52.90000 1.178
52.92000 2.981
52.94000 3.875
52.96000 4.881
52.98000 0.506
53.00000 1.799
53.02000 1.016
53.04000 0.979
53.06000 2.093
53.08000 5.554
53.10000 4.273
53.12000 1.699
53.14000 -1.936
53.16000 3.634
53.18000 3.750
53.20000 0.091
53.22000 4.188
53.24000 1.961
53.26000 1.718
53.28000 1.507
53.30000 -2.438
53.32000 -1.246
53.34000 2.269
53.36000 4.748
53.38000 2.499
53.40000 -2.255
53.42000 -0.875
53.44000 -1.019
53.46000 1.928
53.48000 1.525
53.50000 0.362
53.52000 -0.898
53.54000 -1.605
53.56000 1.511
53.58000 2.998
53.60000 5.126
53.62000 -0.358
53.64000 -2.433
53.66000 1.195
53.68000 2.294
53.70000 0.226
53.72000 -0.641
53.74000 0.783
53.76000 1.054
53.78000 2.181
53.80000 2.871
53.82000 3.727
53.84000 0.390
53.86000 1.983
53.88000 0.840
53.90000 3.549
53.92000 2.734
53.94000 1.414
53.96000 1.306
53.98000 0.717
54.00000 -0.466
54.02000 2.727
54.04000 3.293
54.06000 2.482
54.08000 1.151
54.10000 2.195
54.12000 1.422
54.14000 -0.767
54.16000 -1.335
54.18000 -0.782
54.20000 0.942
54.22000 1.855
54.24000 1.780
54.26000 2.761
54.28000 2.690
54.30000 3.090
54.32000 4.630
54.34000 2.425
54.36000 3.799
54.38000 0.140
54.40000 -0.836
54.42000 1.708
54.44000 4.730
54.46000 6.178
54.48000 4.912
54.50000 2.712
54.52000 1.541
54.54000 -2.404
54.56000 0.641
54.58000 4.151
54.60000 4.597
54.62000 3.526
54.64000 2.445
54.66000 -0.037
54.68000 5.265
54.70000 4.939
54.72000 3.450
54.74000 2.997
54.76000 4.919
54.78000 5.018
54.80000 3.961
54.82000 0.013
54.84000 3.266
54.86000 8.512
54.88000 1.783
54.90000 2.478
54.92000 2.482
54.94000 4.615
54.96000 3.390
54.98000 4.203
55.00000 5.939
55.02000 3.466
55.04000 1.040
55.06000 3.970
55.08000 4.658
55.10000 1.468
55.12000 1.299
55.14000 -1.418
55.16000 -0.180
55.18000 1.409
55.20000 4.061
55.22000 4.057
55.24000 5.527
55.26000 4.473
55.28000 5.484
55.30000 6.032
55.32000 2.159
55.34000 4.447
55.36000 5.142
55.38000 4.387
55.40000 7.669
55.42000 4.237
55.44000 3.661
55.46000 4.791
55.48000 0.930
55.50000 -0.784
55.52000 -2.371
55.54000 1.660
55.56000 3.370
55.58000 3.256
55.60000 4.639
55.62000 1.446
55.64000 0.427
55.66000 -0.547
55.68000 -0.142
55.70000 0.481
55.72000 2.066
55.74000 0.918
55.76000 3.710
55.78000 3.269
55.80000 2.119
55.82000 -0.378
55.84000 0.227
55.86000 5.419
55.88000 0.597
55.90000 1.923
55.92000 1.768
55.94000 1.361
55.96000 2.614
55.98000 2.470
56.00000 1.024
56.02000 1.457
56.04000 2.022
56.06000 2.540
56.08000 -2.383
56.10000 -1.854
56.12000 -1.802
56.14000 0.209
56.16000 2.657
56.18000 1.277
56.20000 3.015
56.22000 2.325
56.24000 -1.149
56.26000 -2.285
56.28000 0.953
56.30000 -0.116
56.32000 -0.538
56.34000 -0.832
56.36000 -0.197
56.38000 0.755
56.40000 2.431
56.42000 2.030
56.44000 5.055
56.46000 4.664
56.48000 2.862
56.50000 5.432
56.52000 5.014
56.54000 2.437
56.56000 1.574
56.58000 -1.242
56.60000 0.134
56.62000 0.824
56.64000 -0.064
56.66000 1.424
56.68000 0.340
56.70000 -1.042
56.72000 -1.802
56.74000 -1.528
56.76000 1.679
56.78000 -0.054
56.80000 0.189
56.82000 -0.615
56.84000 0.644
56.86000 2.746
56.88000 2.879
56.90000 2.114
56.92000 1.220
56.94000 1.068
56.96000 -2.224
56.98000 2.364
57.00000 -0.117
57.02000 0.619
57.04000 4.189
57.06000 2.863
57.08000 1.854
57.10000 3.830
57.12000 0.658
57.14000 -1.154
57.16000 -0.944
57.18000 -1.629
57.20000 0.430
57.22000 2.026
57.24000 -0.210
57.26000 -2.358
57.28000 -1.620
57.30000 1.152
57.32000 -1.855
57.34000 -2.353
57.36000 -0.435
57.38000 3.147
57.40000 4.565
57.42000 -0.665
57.44000 -0.305
57.46000 2.685
57.48000 1.148
57.50000 0.478
57.52000 2.941
57.54000 2.419
57.56000 0.032
57.58000 -1.152
57.60000 1.633
57.62000 3.169
57.64000 1.442
57.66000 1.139
57.68000 2.019
57.70000 1.384
57.72000 -0.503
57.74000 2.168
57.76000 2.841
57.78000 0.541
57.80000 -0.318
57.82000 2.538
57.84000 1.513
57.86000 1.341
57.88000 -0.053
57.90000 2.544
57.92000 2.144
57.94000 1.640
57.96000 1.413
57.98000 -0.631
58.00000 6.446
58.02000 5.306
58.04000 1.764
58.06000 -1.991
58.08000 4.704
58.10000 0.294
58.12000 -0.508
58.14000 0.919
58.16000 0.614
58.18000 -2.319
58.20000 2.936
58.22000 2.648
58.24000 -0.162
58.26000 1.442
58.28000 3.701
58.30000 1.609
58.32000 1.300
58.34000 2.069
58.36000 5.338
58.38000 2.191
58.40000 -0.042
58.42000 -1.517
58.44000 0.782
58.46000 -0.275
58.48000 0.172
58.50000 -0.046
58.52000 -0.535
58.54000 1.845
58.56000 0.280
58.58000 2.665
58.60000 1.794
58.62000 1.611
58.64000 1.915
58.66000 1.909
58.68000 0.708
58.70000 0.940
58.72000 0.140
58.74000 1.314
58.76000 0.814
58.78000 3.187
58.80000 2.874
58.82000 -0.424
58.84000 2.044
58.86000 -0.789
58.88000 -1.868
58.90000 -0.372
58.92000 -2.314
58.94000 0.316
58.96000 3.344
58.98000 3.020
59.00000 0.071
59.02000 -1.263
59.04000 0.701
59.06000 1.691
59.08000 4.376
59.10000 1.262
59.12000 0.816
59.14000 -0.905
59.16000 -0.166
59.18000 0.526
59.20000 -2.121
59.22000 -2.241
59.24000 -0.706
59.26000 -0.807
59.28000 3.206
59.30000 -1.365
59.32000 0.242
59.34000 -0.382
59.36000 0.898
59.38000 -1.459
59.40000 -0.567
59.42000 1.086
59.44000 1.723
59.46000 4.250
59.48000 1.486
59.50000 -2.304
59.52000 -0.574
59.54000 0.696
59.56000 2.047
59.58000 5.588
59.60000 2.436
59.62000 -1.195
59.64000 -0.945
59.66000 -0.016
59.68000 1.546
59.70000 0.209
59.72000 1.429
59.74000 -0.697
59.76000 0.821
59.78000 -0.219
59.80000 2.551
59.82000 0.659
59.84000 0.143
59.86000 -1.362
59.88000 -2.290
59.90000 -0.940
59.92000 1.552
59.94000 0.669
59.96000 -0.022
59.98000 -2.238
60.00000 0.465
60.02000 2.712
60.04000 1.090
60.06000 2.812
60.08000 3.625
60.10000 -1.185
60.12000 -1.624
60.14000 -0.504
60.16000 0.403
60.18000 2.319
60.20000 0.338
60.22000 1.212
60.24000 1.226
60.26000 0.570
60.28000 -0.532
60.30000 -1.571
60.32000 -2.270
60.34000 1.524
60.36000 3.288
60.38000 1.449
60.40000 2.346
60.42000 0.421
60.44000 4.147
60.46000 4.256
60.48000 1.052
60.50000 0.229
60.52000 -0.182
60.54000 2.305
60.56000 1.165
60.58000 -2.127
60.60000 -0.508
60.62000 1.330
60.64000 2.966
60.66000 -0.280
60.68000 1.140
60.70000 2.085
60.72000 0.942
60.74000 -0.515
60.76000 0.670
60.78000 0.830
60.80000 -0.938
60.82000 0.646
60.84000 3.336
60.86000 -0.237
60.88000 1.373
60.90000 2.581
60.92000 0.657
60.94000 0.388
60.96000 2.506
60.98000 3.011
61.00000 3.084
61.02000 -0.753
61.04000 -2.242
61.06000 0.451
61.08000 -0.559
61.10000 0.832
61.12000 0.486
61.14000 2.152
61.16000 1.979
61.18000 3.986
61.20000 5.082
61.22000 2.425
61.24000 -1.541
61.26000 0.209
61.28000 -2.230
61.30000 0.543
61.32000 1.273
61.34000 2.739
61.36000 3.695
61.38000 3.049
61.40000 0.567
61.42000 0.642
61.44000 3.821
61.46000 1.882
61.48000 -0.068
61.50000 0.727
61.52000 0.286
61.54000 -0.931
61.56000 0.476
61.58000 2.549
61.60000 -1.310
61.62000 -1.815
61.64000 2.612
61.66000 2.192
61.68000 0.667
61.70000 1.055
61.72000 -0.138
61.74000 0.766
61.76000 2.247
61.78000 2.153
61.80000 2.134
61.82000 3.039
61.84000 -0.420
61.86000 -0.526
61.88000 3.805
61.90000 5.226
61.92000 -1.135
61.94000 -2.209
61.96000 -0.150
61.98000 1.778
62.00000 1.008
62.02000 -0.604
62.04000 1.488
62.06000 3.509
62.08000 2.180
62.10000 0.589
62.12000 1.228
62.14000 -0.277
62.16000 0.978
62.18000 0.662
62.20000 3.753
62.22000 1.274
62.24000 0.523
62.26000 1.803
62.28000 1.753
62.30000 1.706
62.32000 1.325
62.34000 1.058
62.36000 4.648
62.38000 4.844
62.40000 2.054
62.42000 2.751
62.44000 2.400
62.46000 4.461
62.48000 2.128
62.50000 1.088
62.52000 0.724
62.54000 1.226
62.56000 -1.032
62.58000 1.582
62.60000 2.220
62.62000 2.271
62.64000 1.070
62.66000 -0.190
62.68000 2.359
62.70000 0.667
62.72000 1.354
62.74000 1.066
62.76000 2.643
62.78000 0.951
62.80000 1.595
62.82000 2.164
62.84000 1.557
62.86000 -0.011
62.88000 1.430
62.90000 -2.211
62.92000 -0.381
62.94000 -0.239
62.96000 -0.500
62.98000 2.586
63.00000 0.257
63.02000 0.546
63.04000 0.657
63.06000 -0.237
63.08000 0.953
63.10000 -1.081
63.12000 1.390
63.14000 1.690
63.16000 0.732
63.18000 0.979
63.20000 0.147
63.22000 0.494
63.24000 -0.098
63.26000 -1.452
63.28000 2.075
63.30000 -0.890
63.32000 -1.070
63.34000 -0.546
63.36000 -1.809
63.38000 -1.174
63.40000 -0.364
63.42000 -1.394
63.44000 -0.291
63.46000 -0.023
63.48000 -0.835
63.50000 0.414
63.52000 -2.211
63.54000 -0.424
63.56000 -0.693
63.58000 2.268
63.60000 4.389
63.62000 3.608
63.64000 4.738
63.66000 -1.988
63.68000 2.109
63.70000 2.421
63.72000 1.527
63.74000 0.210
63.76000 0.700
63.78000 0.157
63.80000 0.022
63.82000 1.442
63.84000 3.633
63.86000 2.598
63.88000 1.432
63.90000 -1.173
63.92000 -0.412
63.94000 -0.189
63.96000 -1.097
63.98000 -0.341
64.00000 -0.231
64.02000 1.194
64.04000 1.889
64.06000 2.630
64.08000 0.950
64.10000 -0.717
64.12000 -2.216
64.14000 1.413
64.16000 -1.412
64.18000 0.513
64.20000 -0.473
64.22000 2.972
64.24000 1.213
64.26000 0.062
64.28000 0.532
64.30000 0.972
64.32000 -0.919
64.34000 -1.145
64.36000 -0.684
64.38000 0.359
64.40000 3.574
64.42000 -0.501
64.44000 -0.219
64.46000 -0.254
64.48000 -1.738
64.50000 0.224
64.52000 -1.254
64.54000 -0.768
64.56000 -0.956
64.58000 -1.048
64.60000 -2.213
64.62000 -0.505
64.64000 1.002
64.66000 1.521
64.68000 1.623
64.70000 -0.808
64.72000 -2.066
64.74000 0.531
64.76000 3.650
64.78000 1.410
64.80000 -1.486
64.82000 -1.435
64.84000 4.129
64.86000 0.894
64.88000 -1.098
64.90000 0.078
64.92000 0.703
64.94000 0.600
64.96000 1.556
64.98000 0.796
65.00000 4.453
65.02000 1.415
65.04000 0.994
65.06000 0.418
65.08000 1.679
65.10000 0.877
65.12000 -0.650
65.14000 -2.197
65.16000 -0.882
65.18000 -1.454
65.20000 0.555
65.22000 1.886
65.24000 1.378
65.26000 5.125
65.28000 2.791
65.30000 -0.603
65.32000 0.663
65.34000 -1.266
65.36000 -2.193
65.38000 3.026
65.40000 1.493
65.42000 1.582
65.44000 1.448
65.46000 2.211
65.48000 -0.614
65.50000 -1.095
65.52000 -1.921
65.54000 0.916
65.56000 2.647
65.58000 0.924
65.60000 2.836
65.62000 1.223
65.64000 0.652
65.66000 0.825
65.68000 1.352
65.70000 0.214
65.72000 -2.069
65.74000 0.832
65.76000 1.250
65.78000 1.205
65.80000 1.509
65.82000 0.960
65.84000 -0.887
65.86000 -0.063
65.88000 -0.817
65.90000 -0.430
65.92000 -2.207
65.94000 -1.720
65.96000 -0.897
65.98000 0.154
66.00000 -0.750
66.02000 0.979
66.04000 0.391
66.06000 0.972
66.08000 1.167
66.10000 1.034
66.12000 -0.370
66.14000 0.151
66.16000 3.083
66.18000 1.929
66.20000 -0.648
66.22000 -1.141
66.24000 -0.790
66.26000 2.953
66.28000 2.974
66.30000 3.439
66.32000 1.721
66.34000 4.055
66.36000 3.279
66.38000 2.088
66.40000 4.228
66.42000 5.502
66.44000 2.450
66.46000 3.501
66.48000 4.498
66.50000 0.445
66.52000 0.598
66.54000 3.880
66.56000 5.051
66.58000 6.672
66.60000 5.408
66.62000 4.685
66.64000 3.358
66.66000 3.501
66.68000 4.340
66.70000 5.199
66.72000 5.002
66.74000 6.156
66.76000 6.128
66.78000 7.775
66.80000 6.910
66.82000 5.547
66.84000 8.605
66.86000 7.235
66.88000 4.602
66.90000 5.112
66.92000 5.868
66.94000 8.696
66.96000 6.958
66.98000 8.747
67.00000 8.578
67.02000 7.089
67.04000 8.492
67.06000 9.955
67.08000 9.411
67.10000 11.555
67.12000 12.532
67.14000 12.816
67.16000 11.760
67.18000 10.804
67.20000 13.118
67.22000 11.885
67.24000 10.703
67.26000 10.905
67.28000 8.649
67.30000 8.777
67.32000 9.670
67.34000 8.092
67.36000 6.576
67.38000 7.864
67.40000 10.663
67.42000 11.003
67.44000 11.841
67.46000 13.235
67.48000 10.780
67.50000 9.960
67.52000 9.084
67.54000 7.901
67.56000 8.091
67.58000 7.398
67.60000 7.410
67.62000 6.599
67.64000 8.920
67.66000 8.627
67.68000 6.463
67.70000 9.376
67.72000 5.941
67.74000 8.164
67.76000 10.139
67.78000 4.335
67.80000 3.142
67.82000 3.694
67.84000 5.092
67.86000 4.755
67.88000 4.913
67.90000 4.206
67.92000 4.532
67.94000 5.014
67.96000 4.499
67.98000 1.280
68.00000 1.807
68.02000 4.519
68.04000 5.199
68.06000 4.318
68.08000 3.997
68.10000 1.839
68.12000 3.301
68.14000 1.840
68.16000 0.837
68.18000 2.770
68.20000 2.744
68.22000 -0.556
68.24000 -1.922
68.26000 0.823
68.28000 0.217
68.30000 -0.347
68.32000 -2.036
68.34000 -2.148
68.36000 -1.722
68.38000 -0.896
68.40000 0.379
68.42000 -0.319
68.44000 0.042
68.46000 0.809
68.48000 -0.132
68.50000 -1.000
68.52000 1.084
68.54000 -1.819
68.56000 -1.900
68.58000 -1.611
68.60000 -1.198
68.62000 0.953
68.64000 0.577
68.66000 1.273
68.68000 -1.121
68.70000 0.816
68.72000 -0.180
68.74000 -1.116
68.76000 -0.906
68.78000 0.069
68.80000 0.544
68.82000 1.442
68.84000 0.659
68.86000 0.825
68.88000 2.473
68.90000 0.795
68.92000 0.554
68.94000 -0.119
68.96000 0.763
68.98000 -0.956
69.00000 -2.070
69.02000 -0.543
69.04000 0.368
69.06000 1.138
69.08000 2.755
69.10000 3.426
69.12000 3.726
69.14000 1.588
69.16000 1.594
69.18000 1.833
69.20000 2.484
69.22000 0.189
69.24000 -2.052
69.26000 -1.630
69.28000 0.579
69.30000 0.810
69.32000 1.719
69.34000 1.745
69.36000 0.628
69.38000 0.370
69.40000 2.958
69.42000 3.402
69.44000 0.146
69.46000 -0.075
69.48000 1.208
69.50000 -0.183
69.52000 -0.868
69.54000 0.307
69.56000 -1.214
69.58000 -1.262
69.60000 1.067
69.62000 -0.200
69.64000 0.252
69.66000 -0.420
69.68000 -1.916
69.70000 0.185
69.72000 -0.700
69.74000 -0.827
69.76000 -1.101
69.78000 0.855
69.80000 0.731
69.82000 0.360
69.84000 0.036
69.86000 1.499
69.88000 1.823
69.90000 3.048
69.92000 1.395
69.94000 0.243
69.96000 1.269
69.98000 0.456
70.00000 -1.349
70.02000 -0.202
70.04000 1.334
70.06000 2.175
70.08000 -1.228
70.10000 -0.038
70.12000 1.761
70.14000 1.773
70.16000 1.213
70.18000 -1.129
70.20000 -0.104
70.22000 1.184
70.24000 1.512
70.26000 -0.573
70.28000 -0.526
70.30000 -0.177
70.32000 0.152
70.34000 -0.910
70.36000 -0.032
70.38000 0.043
70.40000 -0.077
70.42000 0.803
70.44000 0.288
70.46000 -1.121
70.48000 -2.003
70.50000 0.481
70.52000 0.292
70.54000 -0.528
70.56000 0.595
70.58000 3.507
70.60000 2.215
70.62000 -1.700
70.64000 0.178
70.66000 1.778
70.68000 0.282
70.70000 -0.150
70.72000 2.109
70.74000 0.246
70.76000 1.236
70.78000 2.320
70.80000 2.692
70.82000 3.249
70.84000 2.068
70.86000 1.968
70.88000 0.584
70.90000 1.403
70.92000 1.827
70.94000 2.410
70.96000 3.399
70.98000 0.768
71.00000 2.330
71.02000 4.761
71.04000 5.003
71.06000 3.718
71.08000 -0.175
71.10000 -1.960
71.12000 2.473
71.14000 -0.257
71.16000 -1.564
71.18000 -0.060
71.20000 1.576
71.22000 0.706
71.24000 1.216
71.26000 2.330
71.28000 0.205
71.30000 -0.791
71.32000 0.495
71.34000 2.829
71.36000 2.707
71.38000 2.505
71.40000 -0.170
71.42000 0.580
71.44000 3.578
71.46000 3.710
71.48000 2.306
71.50000 0.512
71.52000 0.221
71.54000 -0.075
71.56000 1.697
71.58000 2.062
71.60000 3.368
71.62000 3.614
71.64000 3.401
71.66000 1.969
71.68000 1.818
71.70000 2.953
71.72000 4.205
71.74000 3.164
71.76000 1.844
71.78000 2.895
71.80000 3.581
71.82000 -0.954
71.84000 0.149
71.86000 2.756
71.88000 3.570
71.90000 -0.825
71.92000 -1.218
71.94000 -1.912
71.96000 1.129
71.98000 0.848
72.00000 0.241
72.02000 2.608
72.04000 1.770
72.06000 3.456
72.08000 2.703
72.10000 1.218
72.12000 2.262
72.14000 2.598
72.16000 4.946
72.18000 2.672
72.20000 -0.005
72.22000 -0.337
72.24000 -1.226
72.26000 -1.213
72.28000 -0.712
72.30000 0.153
72.32000 1.011
72.34000 1.785
72.36000 2.208
72.38000 1.501
72.40000 1.308
72.42000 -0.377
72.44000 3.027
72.46000 5.663
72.48000 3.154
72.50000 0.274
72.52000 -0.267
72.54000 0.128
72.56000 2.701
72.58000 -0.229
72.60000 1.941
72.62000 2.061
72.64000 3.774
72.66000 2.619
72.68000 -0.485
72.70000 -0.854
72.72000 -1.896
72.74000 1.550
72.76000 -0.584
72.78000 -0.088
72.80000 3.343
72.82000 2.805
72.84000 -0.268
72.86000 1.473
72.88000 4.258
72.90000 4.550
72.92000 3.709
72.94000 4.837
72.96000 3.006
72.98000 0.931
73.00000 0.360
73.02000 1.064
73.04000 -0.513
73.06000 1.118
73.08000 -0.079
73.10000 0.544
73.12000 0.164
73.14000 3.139
73.16000 1.696
73.18000 1.341
73.20000 1.120
73.22000 0.687
73.24000 0.459
73.26000 6.380
73.28000 6.945
73.30000 0.554
73.32000 -1.890
73.34000 2.096
73.36000 1.857
73.38000 1.071
73.40000 2.484
73.42000 4.060
73.44000 2.926
73.46000 1.920
73.48000 -0.008
73.50000 1.327
73.52000 0.945
73.54000 2.396
73.56000 -0.114
73.58000 1.813
73.60000 2.333
73.62000 3.278
73.64000 1.173
73.66000 -1.553
73.68000 -0.148
73.70000 3.413
73.72000 3.878
73.74000 0.468
73.76000 -1.437
73.78000 -0.551
73.80000 -0.680
73.82000 0.809
73.84000 3.046
73.86000 0.531
73.88000 2.180
73.90000 1.878
73.92000 3.210
73.94000 -0.135
73.96000 1.709
73.98000 -0.130
74.00000 -1.894
74.02000 2.014
74.04000 3.153
74.06000 2.889
74.08000 0.443
74.10000 0.835
74.12000 2.072
74.14000 2.344
74.16000 3.008
74.18000 2.067
74.20000 0.874
74.22000 2.478
74.24000 3.489
74.26000 3.005
74.28000 5.114
74.30000 7.119
74.32000 3.782
74.34000 2.940
74.36000 4.182
74.38000 3.064
74.40000 -0.083
74.42000 -1.877
74.44000 0.674
74.46000 4.147
74.48000 4.557
74.50000 2.343
74.52000 2.571
74.54000 1.779
74.56000 1.724
74.58000 3.425
74.60000 3.670
74.62000 2.244
74.64000 2.237
74.66000 1.729
74.68000 2.540
74.70000 2.478
74.72000 4.045
74.74000 -1.369
74.76000 1.592
74.78000 3.498
74.80000 3.973
74.82000 2.505
74.84000 -1.692
74.86000 -1.897
74.88000 2.632
74.90000 3.715
74.92000 2.262
74.94000 1.235
74.96000 1.442
74.98000 3.681
75.00000 0.589
75.02000 3.029
75.04000 0.436
75.06000 -0.937
75.08000 1.489
75.10000 0.812
75.12000 -0.794
75.14000 1.170
75.16000 3.502
75.18000 3.821
75.20000 2.227
75.22000 0.284
75.24000 2.352
75.26000 -0.354
75.28000 -1.913
75.30000 0.764
75.32000 1.585
75.34000 0.158
75.36000 1.522
75.38000 1.546
75.40000 1.799
75.42000 2.816
75.44000 1.159
75.46000 1.096
75.48000 1.195
75.50000 1.397
75.52000 -0.336
75.54000 0.454
75.56000 0.122
75.58000 -0.462
75.60000 0.716
75.62000 -0.067
75.64000 -1.175
75.66000 -1.900
75.68000 -0.593
75.70000 -1.140
75.72000 0.318
75.74000 0.989
75.76000 0.310
75.78000 1.632
75.80000 0.622
75.82000 0.400
75.84000 1.135
75.86000 2.208
75.88000 1.918
75.90000 1.137
75.92000 -0.633
75.94000 -1.921
75.96000 0.593
75.98000 2.777
76.00000 1.076
76.02000 0.930
76.04000 1.312
76.06000 2.668
76.08000 1.076
76.10000 2.873
76.12000 1.357
76.14000 1.701
76.16000 1.584
76.18000 1.786
76.20000 0.530
76.22000 1.129
76.24000 -1.186
76.26000 -1.608
76.28000 0.024
76.30000 0.794
76.32000 1.056
76.34000 1.546
76.36000 1.471
76.38000 2.226
76.40000 1.871
76.42000 0.605
76.44000 0.995
76.46000 1.905
76.48000 1.733
76.50000 -0.076
76.52000 0.208
76.54000 0.896
76.56000 1.214
76.58000 0.488
76.60000 3.787
76.62000 -0.933
76.64000 -1.602
76.66000 -0.479
76.68000 0.690
76.70000 5.182
76.72000 4.536
76.74000 3.904
76.76000 2.986
76.78000 3.485
76.80000 1.434
76.82000 1.667
76.84000 2.511
76.86000 -1.184
76.88000 0.881
76.90000 2.420
76.92000 2.366
76.94000 0.907
76.96000 0.983
76.98000 0.609
77.00000 -1.914
77.02000 0.255
77.04000 2.477
77.06000 1.954
77.08000 3.215
77.10000 2.939
77.12000 1.036
77.14000 -0.180
77.16000 -0.251
77.18000 1.796
77.20000 0.228
77.22000 0.826
77.24000 0.029
77.26000 1.510
77.28000 1.153
77.30000 5.299
77.32000 6.626
77.34000 4.142
77.36000 4.024
77.38000 0.258
77.40000 1.538
77.42000 2.178
77.44000 1.113
77.46000 -1.242
77.48000 1.162
77.50000 1.163
77.52000 1.563
77.54000 3.247
77.56000 1.690
77.58000 0.423
77.60000 3.948
77.62000 3.812
77.64000 3.990
77.66000 4.899
77.68000 2.916
77.70000 5.186
77.72000 6.930
77.74000 7.204
77.76000 3.963
77.78000 0.746
77.80000 -0.151
77.82000 -0.539
77.84000 1.506
77.86000 3.762
77.88000 1.770
77.90000 2.057
77.92000 2.454
77.94000 5.299
77.96000 3.523
77.98000 4.132
78.00000 6.250
78.02000 4.130
78.04000 1.539
78.06000 -1.932
78.08000 1.467
78.10000 4.908
78.12000 2.179
78.14000 1.148
78.16000 1.966
78.18000 -1.944
78.20000 -0.968
78.22000 5.349
78.24000 2.697
78.26000 4.110
78.28000 3.732
78.30000 2.252
78.32000 1.028
78.34000 1.397
78.36000 0.690
78.38000 2.646
78.40000 2.873
78.42000 3.068
78.44000 0.640
78.46000 -0.775
78.48000 -0.584
78.50000 -1.911
78.52000 1.813
78.54000 -0.209
78.56000 -1.198
78.58000 -1.445
78.60000 -0.189
78.62000 2.125
78.64000 2.948
78.66000 0.494
78.68000 2.278
78.70000 2.888
78.72000 3.291
78.74000 1.985
78.76000 1.453
78.78000 -0.610
78.80000 -0.522
78.82000 2.050
78.84000 2.927
78.86000 5.697
78.88000 3.531
78.90000 1.944
78.92000 0.546
78.94000 -1.405
78.96000 -0.113
78.98000 -0.049
79.00000 -1.786
79.02000 -2.001
79.04000 1.722
79.06000 1.145
79.08000 2.007
79.10000 0.911
79.12000 -0.021
79.14000 0.310
79.16000 0.194
79.18000 1.578
79.20000 3.402
79.22000 1.663
79.24000 1.070
79.26000 -1.711
79.28000 0.053
79.30000 1.485
79.32000 6.578
79.34000 6.260
79.36000 4.211
79.38000 1.107
79.40000 1.015
79.42000 -0.029
79.44000 0.873
79.46000 3.155
79.48000 4.480
79.50000 0.957
79.52000 -0.074
79.54000 5.917
79.56000 3.562
79.58000 2.514
79.60000 3.144
79.62000 1.128
79.64000 1.694
79.66000 0.568
79.68000 2.941
79.70000 0.946
79.72000 -2.027
79.74000 0.016
79.76000 4.425
79.78000 5.865
79.80000 5.118
79.82000 4.000
79.84000 3.247
79.86000 -0.280
79.88000 2.043
79.90000 4.802
79.92000 5.946
79.94000 5.143
79.96000 4.655
79.98000 3.905
80.00000 0.803
80.02000 3.217
80.04000 4.775
80.06000 6.439
80.08000 7.613
80.10000 4.773
80.12000 4.107
80.14000 3.620
80.16000 2.569
80.18000 9.049
80.20000 6.719
80.22000 4.152
80.24000 4.834
80.26000 9.017
80.28000 14.147
80.30000 10.174
80.32000 9.632
80.34000 7.717
80.36000 6.912
80.38000 8.260
80.40000 10.813
80.42000 7.255
80.44000 4.086
80.46000 7.508
80.48000 6.576
80.50000 12.184
80.52000 9.612
80.54000 11.029
80.56000 11.331
80.58000 9.357
80.60000 12.199
80.62000 11.785
80.64000 11.288
80.66000 13.783
80.68000 11.669
80.70000 10.213
80.72000 9.659
80.74000 8.836
80.76000 9.894
80.78000 7.916
80.80000 15.128
80.82000 12.605
80.84000 11.366
80.86000 15.460
80.88000 16.776
80.90000 17.115
80.92000 16.930
80.94000 12.871
80.96000 17.710
80.98000 17.769
81.00000 15.271
81.02000 17.682
81.04000 20.186
81.06000 17.489
81.08000 20.136
81.10000 19.962
81.12000 20.787
81.14000 20.872
81.16000 24.878
81.18000 23.481
81.20000 20.073
81.22000 19.617
81.24000 18.267
81.26000 17.199
81.28000 16.679
81.30000 19.267
81.32000 20.987
81.34000 22.497
81.36000 18.263
81.38000 21.813
81.40000 23.282
81.42000 19.806
81.44000 22.555
81.46000 16.729
81.48000 15.902
81.50000 18.793
81.52000 22.829
81.54000 19.892
81.56000 14.910
81.58000 14.575
81.60000 18.690
81.62000 16.458
81.64000 15.476
81.66000 16.861
81.68000 15.516
81.70000 14.225
81.72000 14.703
81.74000 13.858
81.76000 14.549
81.78000 18.111
81.80000 15.180
81.82000 15.826
81.84000 12.204
81.86000 14.271
81.88000 14.580
81.90000 12.531
81.92000 12.935
81.94000 11.642
81.96000 12.213
81.98000 8.905
82.00000 7.558
82.02000 8.806
82.04000 8.599
82.06000 5.968
82.08000 6.408
82.10000 5.963
82.12000 7.732
82.14000 8.446
82.16000 8.203
82.18000 8.308
82.20000 6.616
82.22000 7.357
82.24000 5.458
82.26000 7.651
82.28000 6.900
82.30000 8.093
82.32000 10.371
82.34000 9.117
82.36000 7.170
82.38000 3.938
82.40000 5.468
82.42000 3.032
82.44000 1.064
82.46000 -2.081
82.48000 1.975
82.50000 1.876
82.52000 4.884
82.54000 0.844
82.56000 0.288
82.58000 2.169
82.60000 3.862
82.62000 1.931
82.64000 2.424
82.66000 4.060
82.68000 2.724
82.70000 2.625
82.72000 -1.641
82.74000 -1.128
82.76000 3.014
82.78000 6.464
82.80000 3.936
82.82000 5.079
82.84000 3.564
82.86000 1.772
82.88000 -0.202
82.90000 2.252
82.92000 0.919
82.94000 -0.181
82.96000 0.391
82.98000 2.249
83.00000 1.246
83.02000 -0.408
83.04000 1.582
83.06000 2.627
83.08000 1.648
83.10000 -1.599
83.12000 -2.048
83.14000 0.377
83.16000 3.540
83.18000 2.442
83.20000 3.650
83.22000 -0.594
83.24000 -0.065
83.26000 -0.346
83.28000 0.186
83.30000 1.697
83.32000 0.769
83.34000 2.186
83.36000 3.716
83.38000 1.337
83.40000 -1.231
83.42000 -0.666
83.44000 1.446
83.46000 0.035
83.48000 -2.043
83.50000 3.759
83.52000 4.082
83.54000 3.076
83.56000 3.374
83.58000 2.556
83.60000 0.627
83.62000 2.511
83.64000 3.109
83.66000 4.836
83.68000 4.632
83.70000 5.134
83.72000 6.568
83.74000 5.689
83.76000 4.715
83.78000 5.488
83.80000 0.861
83.82000 -0.456
83.84000 1.787
83.86000 2.457
83.88000 1.404
83.90000 1.352
83.92000 3.029
83.94000 2.655
83.96000 0.971
83.98000 -1.573
84.00000 2.785
84.02000 3.748
84.04000 2.719
84.06000 2.825
84.08000 2.521
84.10000 2.804
84.12000 5.217
84.14000 3.954
84.16000 3.059
84.18000 4.260
84.20000 2.923
84.22000 1.967
84.24000 4.652
84.26000 0.612
84.28000 0.678
84.30000 4.690
84.32000 3.081
84.34000 3.587
84.36000 5.895
84.38000 6.328
84.40000 7.199
84.42000 5.519
84.44000 7.019
84.46000 8.543
84.48000 10.375
84.50000 8.568
84.52000 11.241
84.54000 12.049
84.56000 10.303
84.58000 8.603
84.60000 11.031
84.62000 8.731
84.64000 10.022
84.66000 9.143
84.68000 10.653
84.70000 8.656
84.72000 9.384
84.74000 12.225
84.76000 12.216
84.78000 14.854
84.80000 18.519
84.82000 16.919
84.84000 16.448
84.86000 15.658
84.88000 15.474
84.90000 14.304
84.92000 18.936
84.94000 16.700
84.96000 13.194
84.98000 16.905
85.00000 21.238
85.02000 18.324
85.04000 16.101
85.06000 14.027
85.08000 15.252
85.10000 18.066
85.12000 17.554
85.14000 17.762
85.16000 18.690
85.18000 18.056
85.20000 20.577
85.22000 16.509
85.24000 16.392
85.26000 17.977
85.28000 18.563
85.30000 18.528
85.32000 20.451
85.34000 17.874
85.36000 15.808
85.38000 17.694
85.40000 15.430
85.42000 15.229
85.44000 19.465
85.46000 17.873
85.48000 13.436
85.50000 12.429
85.52000 16.198
85.54000 15.889
85.56000 13.305
85.58000 14.003
85.60000 13.175
85.62000 10.460
85.64000 9.707
85.66000 11.254
85.68000 10.278
85.70000 10.179
85.72000 8.078
85.74000 8.442
85.76000 8.886
85.78000 7.984
85.80000 7.689
85.82000 10.677
85.84000 7.025
85.86000 7.516
85.88000 5.574
85.90000 5.406
85.92000 4.059
85.94000 2.684
85.96000 5.952
85.98000 6.621
86.00000 7.010
86.02000 4.498
86.04000 3.382
86.06000 1.539
86.08000 1.005
86.10000 3.692
86.12000 5.016
86.14000 2.756
86.16000 0.869
86.18000 2.067
86.20000 4.012
86.22000 3.136
86.24000 1.461
86.26000 2.839
86.28000 3.934
86.30000 0.740
86.32000 0.885
86.34000 1.329
86.36000 0.549
86.38000 -1.935
86.40000 0.207
86.42000 2.750
86.44000 4.505
86.46000 1.497
86.48000 -0.235
86.50000 -1.597
86.52000 -1.061
86.54000 2.866
86.56000 1.353
86.58000 0.467
86.60000 3.513
86.62000 3.161
86.64000 0.313
86.66000 -0.189
86.68000 0.555
86.70000 -1.891
86.72000 0.566
86.74000 2.389
86.76000 3.380
86.78000 2.109
86.80000 2.803
86.82000 1.624
86.84000 -0.695
86.86000 -1.866
86.88000 -1.082
86.90000 -0.125
86.92000 1.308
86.94000 1.728
86.96000 -0.883
86.98000 -1.330
87.00000 -0.601
87.02000 -1.854
87.04000 1.001
87.06000 2.869
87.08000 3.258
87.10000 -0.085
87.12000 -0.130
87.14000 -0.218
87.16000 -0.074
87.18000 2.626
87.20000 0.940
87.22000 -1.398
87.24000 -0.185
87.26000 -1.572
87.28000 0.135
87.30000 -0.646
87.32000 -0.191
87.34000 -0.171
87.36000 -0.059
87.38000 1.588
87.40000 1.283
87.42000 2.425
87.44000 1.328
87.46000 -0.246
87.48000 -0.044
87.50000 0.382
87.52000 -1.259
87.54000 0.753
87.56000 1.332
87.58000 1.088
87.60000 2.407
87.62000 1.950
87.64000 1.946
87.66000 3.066
87.68000 -1.739
87.70000 -1.804
87.72000 1.951
87.74000 0.690
87.76000 -0.991
87.78000 1.495
87.80000 4.831
87.82000 4.169
87.84000 2.592
87.86000 4.614
87.88000 2.059
87.90000 2.887
87.92000 3.657
87.94000 3.412
87.96000 3.627
87.98000 0.393
88.00000 0.858
88.02000 2.013
88.04000 0.936
88.06000 1.205
88.08000 3.290
88.10000 2.877
88.12000 1.828
88.14000 4.208
88.16000 1.276
88.18000 0.931
88.20000 2.337
88.22000 1.817
88.24000 3.794
88.26000 0.911
88.28000 -1.739
88.30000 2.206
88.32000 5.872
88.34000 5.136
88.36000 2.663
88.38000 -0.440
88.40000 -0.497
88.42000 3.819
88.44000 5.543
88.46000 4.657
88.48000 6.131
88.50000 4.607
88.52000 5.632
88.54000 4.215
88.56000 2.525
88.58000 3.068
88.60000 5.347
88.62000 3.517
88.64000 2.453
88.66000 3.899
88.68000 1.878
88.70000 0.400
88.72000 0.383
88.74000 1.960
88.76000 3.119
88.78000 5.514
88.80000 4.805
88.82000 3.368
88.84000 5.111
88.86000 3.568
88.88000 0.598
88.90000 1.510
88.92000 3.873
88.94000 3.138
88.96000 2.328
88.98000 2.617
89.00000 2.440
89.02000 1.946
89.04000 2.112
89.06000 2.853
89.08000 1.401
89.10000 0.860
89.12000 3.844
89.14000 0.622
89.16000 2.965
89.18000 4.336
89.20000 2.163
89.22000 1.780
89.24000 3.765
89.26000 1.881
89.28000 -1.740
89.30000 0.990
89.32000 3.535
89.34000 3.554
89.36000 3.419
89.38000 1.239
89.40000 3.190
89.42000 4.913
89.44000 2.395
89.46000 2.724
89.48000 4.461
89.50000 0.808
89.52000 1.143
89.54000 2.667
89.56000 4.016
89.58000 2.876
89.60000 3.499
89.62000 3.701
89.64000 1.335
89.66000 1.542
89.68000 3.429
89.70000 1.720
89.72000 2.536
89.74000 3.845
89.76000 1.824
89.78000 -0.770
89.80000 -0.754
89.82000 -0.340
89.84000 2.853
89.86000 0.778
89.88000 7.095
89.90000 4.381
89.92000 3.661
89.94000 2.631
89.96000 2.418
89.98000 3.438
90.00000 0.918
90.02000 -1.485
90.04000 0.757
90.06000 1.982
90.08000 2.267
90.10000 0.405
90.12000 -1.752
90.14000 2.940
90.16000 2.349
90.18000 1.350
90.20000 -0.698
90.22000 1.211
90.24000 0.708
90.26000 1.820
90.28000 6.192
90.30000 5.727
90.32000 2.826
90.34000 1.904
90.36000 0.908
90.38000 2.469
90.40000 2.666
90.42000 5.655
90.44000 2.051
90.46000 0.420
90.48000 -0.077
90.50000 -0.877
90.52000 1.620
90.54000 0.629
90.56000 1.086
90.58000 1.069
90.60000 -0.618
90.62000 0.567
90.64000 1.443
90.66000 2.866
90.68000 -0.572
90.70000 -1.752
90.72000 0.716
90.74000 0.453
90.76000 1.496
90.78000 2.947
90.80000 4.312
90.82000 3.515
90.84000 1.089
90.86000 4.151
90.88000 4.076
90.90000 -0.048
90.92000 1.526
90.94000 1.648
90.96000 2.047
90.98000 3.772
91.00000 3.189
91.02000 0.611
91.04000 -1.757
91.06000 -1.260
91.08000 0.225
91.10000 1.078
91.12000 3.851
91.14000 2.148
91.16000 -0.536
91.18000 0.684
91.20000 1.346
91.22000 1.836
91.24000 1.361
91.26000 1.482
91.28000 3.097
91.30000 3.935
91.32000 1.747
91.34000 2.559
91.36000 1.145
91.38000 1.052
91.40000 -0.598
91.42000 1.858
91.44000 2.705
91.46000 2.408
91.48000 4.114
91.50000 3.782
91.52000 4.127
91.54000 1.816
91.56000 2.379
91.58000 2.202
91.60000 2.374
91.62000 6.308
91.64000 3.845
91.66000 3.648
91.68000 3.244
91.70000 0.689
91.72000 -1.276
91.74000 -1.742
91.76000 2.931
91.78000 7.482
91.80000 6.203
91.82000 3.174
91.84000 3.502
91.86000 1.645
91.88000 2.528
91.90000 1.393
91.92000 0.227
91.94000 0.577
91.96000 0.658
91.98000 1.863
92.00000 1.709
92.02000 2.177
92.04000 -0.143
92.06000 0.349
92.08000 0.480
92.10000 -1.033
92.12000 -1.369
92.14000 2.282
92.16000 3.364
92.18000 -0.018
92.20000 0.050
92.22000 1.999
92.24000 2.065
92.26000 0.565
92.28000 2.286
92.30000 1.124
92.32000 -1.153
92.34000 0.321
92.36000 -0.332
92.38000 1.147
92.40000 1.502
92.42000 -0.161
92.44000 -0.562
92.46000 0.386
92.48000 -1.789
92.50000 1.093
92.52000 2.780
92.54000 1.037
92.56000 6.008
92.58000 5.044
92.60000 2.818
92.62000 2.011
92.64000 -0.274
92.66000 -1.722
92.68000 0.871
92.70000 5.788
92.72000 3.385
92.74000 0.073
92.76000 0.356
92.78000 0.795
92.80000 2.309
92.82000 3.229
92.84000 2.375
92.86000 1.662
92.88000 -1.815
92.90000 -1.768
92.92000 -1.173
92.94000 1.657
92.96000 -0.527
92.98000 -0.353
93.00000 -0.708
93.02000 -0.530
93.04000 -1.228
93.06000 -1.727
93.08000 3.574
93.10000 0.750
93.12000 -0.594
93.14000 -0.676
93.16000 -1.814
93.18000 0.632
93.20000 2.799
93.22000 3.374
93.24000 0.583
93.26000 -1.690
93.28000 2.514
93.30000 3.746
93.32000 -0.048
93.34000 -1.102
93.36000 1.196
93.38000 2.457
93.40000 0.502
93.42000 0.196
93.44000 0.470
93.46000 -0.996
93.48000 -1.384
93.50000 0.382
93.52000 0.645
93.54000 0.474
93.56000 0.512
93.58000 0.444
93.60000 2.798
93.62000 4.670
93.64000 2.490
93.66000 4.452
93.68000 0.203
93.70000 -0.552
93.72000 -1.478
93.74000 0.751
93.76000 -0.299
93.78000 -0.304
93.80000 0.146
93.82000 -1.788
93.84000 1.601
93.86000 0.463
93.88000 1.528
93.90000 -0.258
93.92000 3.131
93.94000 1.179
93.96000 1.922
93.98000 2.551
94.00000 2.880
94.02000 2.624
94.04000 0.823
94.06000 2.788
94.08000 4.013
94.10000 4.702
94.12000 2.368
94.14000 2.990
94.16000 -0.712
94.18000 0.621
94.20000 2.172
94.22000 3.795
94.24000 4.476
94.26000 4.592
94.28000 4.028
94.30000 2.896
94.32000 -0.259
94.34000 0.428
94.36000 1.140
94.38000 1.249
94.40000 2.179
94.42000 2.031
94.44000 0.109
94.46000 0.687
94.48000 2.357
94.50000 1.053
94.52000 2.056
94.54000 1.384
94.56000 1.905
94.58000 3.248
94.60000 1.077
94.62000 -0.290
94.64000 3.659
94.66000 4.493
94.68000 1.324
94.70000 -0.643
94.72000 0.695
94.74000 1.055
94.76000 1.099
94.78000 1.683
94.80000 4.121
94.82000 3.225
94.84000 1.430
94.86000 2.017
94.88000 0.080
94.90000 0.013
94.92000 1.266
94.94000 1.471
94.96000 -0.147
94.98000 1.027
95.00000 2.297
95.02000 3.577
95.04000 7.025
95.06000 2.822
95.08000 -1.784
95.10000 -1.418
95.12000 -0.761
95.14000 1.559
95.16000 2.880
95.18000 -0.167
95.20000 1.055
95.22000 4.313
95.24000 2.280
95.26000 0.195
95.28000 1.263
95.30000 5.110
95.32000 5.275
95.34000 5.655
95.36000 8.638
95.38000 5.284
95.40000 2.941
95.42000 3.054
95.44000 1.937
95.46000 3.634
95.48000 3.424
95.50000 2.306
95.52000 3.022
95.54000 4.114
95.56000 0.782
95.58000 0.991
95.60000 3.566
95.62000 1.694
95.64000 2.888
95.66000 4.293
95.68000 3.269
95.70000 6.295
95.72000 5.428
95.74000 5.464
95.76000 2.114
95.78000 -1.779
95.80000 0.503
95.82000 3.507
95.84000 5.025
95.86000 4.323
95.88000 -0.040
95.90000 4.738
95.92000 4.392
95.94000 5.749
95.96000 2.103
95.98000 2.289
96.00000 4.682
96.02000 3.444
96.04000 1.867
96.06000 4.273
96.08000 -0.884
96.10000 0.267
96.12000 4.838
96.14000 7.319
96.16000 6.713
96.18000 5.424
96.20000 1.217
96.22000 7.650
96.24000 7.040
96.26000 8.386
96.28000 4.255
96.30000 2.834
96.32000 2.065
96.34000 0.218
96.36000 1.474
96.38000 4.314
96.40000 3.013
96.42000 0.770
96.44000 -0.178
96.46000 -1.795
96.48000 2.636
96.50000 0.272
96.52000 -1.171
96.54000 2.036
96.56000 1.457
96.58000 -0.193
96.60000 1.512
96.62000 0.602
96.64000 1.667
96.66000 2.952
96.68000 2.976
96.70000 -0.893
96.72000 2.565
96.74000 3.266
96.76000 1.295
96.78000 1.625
96.80000 -1.610
96.82000 -0.211
96.84000 -0.029
96.86000 -0.194
96.88000 0.799
96.90000 0.435
96.92000 1.453
96.94000 7.115
96.96000 3.875
96.98000 2.128
97.00000 4.180
97.02000 1.236
97.04000 0.945
97.06000 2.424
97.08000 2.239
97.10000 1.560
97.12000 5.171
97.14000 2.877
97.16000 3.639
97.18000 2.795
97.20000 2.572
97.22000 5.473
97.24000 5.427
97.26000 0.772
97.28000 4.719
97.30000 2.883
97.32000 1.292
97.34000 1.275
97.36000 -1.098
97.38000 -0.426
97.40000 3.115
97.42000 3.666
97.44000 0.651
97.46000 3.102
97.48000 2.148
97.50000 1.343
97.52000 0.745
97.54000 0.247
97.56000 5.151
97.58000 6.076
97.60000 0.904
97.62000 1.579
97.64000 1.388
97.66000 3.763
97.68000 1.929
97.70000 4.333
97.72000 5.691
97.74000 0.905
97.76000 2.877
97.78000 -0.587
97.80000 1.981
97.82000 1.342
97.84000 3.699
97.86000 5.381
97.88000 3.113
97.90000 5.037
97.92000 5.229
97.94000 3.990
97.96000 2.371
97.98000 -1.738
98.00000 2.708
98.02000 5.300
98.04000 0.698
98.06000 1.778
98.08000 7.624
98.10000 4.887
98.12000 2.228
98.14000 5.766
98.16000 3.902
98.18000 3.171
98.20000 0.695
98.22000 2.077
98.24000 3.900
98.26000 2.410
98.28000 1.850
98.30000 1.198
98.32000 2.242
98.34000 2.485
98.36000 5.672
98.38000 1.322
98.40000 1.045
98.42000 -0.430
98.44000 1.096
98.46000 2.307
98.48000 -0.066
98.50000 0.036
98.52000 5.770
98.54000 2.815
98.56000 3.633
98.58000 0.669
98.60000 -1.550
98.62000 3.825
98.64000 5.503
98.66000 8.058
98.68000 6.207
98.70000 5.186
98.72000 2.374
98.74000 1.972
98.76000 5.826
98.78000 4.674
98.80000 2.629
98.82000 3.953
98.84000 3.763
98.86000 5.854
98.88000 1.377
98.90000 0.147
98.92000 2.705
98.94000 4.776
98.96000 2.044
98.98000 0.744
99.00000 1.124
99.02000 -1.758
99.04000 2.725
99.06000 3.129
99.08000 2.261
99.10000 3.956
99.12000 4.295
99.14000 4.153
99.16000 5.732
99.18000 11.799
99.20000 4.489
99.22000 2.329
99.24000 4.149
99.26000 3.326
99.28000 0.205
99.30000 0.847
99.32000 -1.762
99.34000 0.671
99.36000 1.927
99.38000 0.875
99.40000 3.203
99.42000 4.117
99.44000 3.191
99.46000 0.294
99.48000 1.474
99.50000 3.865
99.52000 3.923
99.54000 2.466
99.56000 0.089
99.58000 4.666
99.60000 2.957
99.62000 2.600
99.64000 2.194
99.66000 1.869
99.68000 0.995
99.70000 1.749
99.72000 3.030
99.74000 2.184
99.76000 -1.827
99.78000 1.946
99.80000 1.276
99.82000 3.046
99.84000 1.406
99.86000 4.541
99.88000 1.986
99.90000 -0.445
99.92000 5.564
99.94000 8.877
99.96000 2.511
99.98000 0.000
