'Id: "0011387" Comment: "Integrate frame 0011387_Au-Ir-Rh_Rh-rich_XRD-Mapping-007-0000.gfrmwith cursor Wedge Cursor #5" Operator: "B?rgel" Anode: "Cu" Wavelength: "1.5406" Scantype: "2Theta (TwoTheta)" TimePerStep: "1" X: "9" Y: "-40.5" Z: "5.95" 
10.00000 0.000
10.02000 19.239
10.04000 7.214
10.06000 25.682
10.08000 19.340
10.10000 30.621
10.12000 15.580
10.14000 9.538
10.16000 7.587
10.18000 1.329
10.20000 11.088
10.22000 18.316
10.24000 26.311
10.26000 41.908
10.28000 42.217
10.30000 24.212
10.32000 16.125
10.34000 27.100
10.36000 29.934
10.38000 3.829
10.40000 3.021
10.42000 11.825
10.44000 34.760
10.46000 31.569
10.48000 29.809
10.50000 10.930
10.52000 22.499
10.54000 17.307
10.56000 10.576
10.58000 21.984
10.60000 16.612
10.62000 15.243
10.64000 11.657
10.66000 11.391
10.68000 25.362
10.70000 26.741
10.72000 18.462
10.74000 11.826
10.76000 7.275
10.78000 30.347
10.80000 29.352
10.82000 14.442
10.84000 4.321
10.86000 -0.839
10.88000 -4.501
10.90000 5.893
10.92000 17.040
10.94000 19.605
10.96000 10.395
10.98000 13.268
11.00000 22.134
11.02000 15.440
11.04000 12.043
11.06000 12.559
11.08000 -2.921
11.10000 14.325
11.12000 2.072
11.14000 1.579
11.16000 9.992
11.18000 16.281
11.20000 22.108
11.22000 14.770
11.24000 12.674
11.26000 9.848
11.28000 21.404
11.30000 21.571
11.32000 27.386
11.34000 15.637
11.36000 16.249
11.38000 24.410
11.40000 22.534
11.42000 11.560
11.44000 5.676
11.46000 2.909
11.48000 -1.791
11.50000 8.381
11.52000 22.041
11.54000 23.486
11.56000 29.996
11.58000 31.439
11.60000 24.920
11.62000 18.605
11.64000 11.080
11.66000 1.079
11.68000 5.123
11.70000 18.274
11.72000 12.230
11.74000 19.522
11.76000 10.018
11.78000 4.133
11.80000 2.271
11.82000 -4.475
11.84000 -4.559
11.86000 9.715
11.88000 25.591
11.90000 21.370
11.92000 16.395
11.94000 18.017
11.96000 13.113
11.98000 16.688
12.00000 6.909
12.02000 12.838
12.04000 17.780
12.06000 3.503
12.08000 16.362
12.10000 18.329
12.12000 11.950
12.14000 12.574
12.16000 15.151
12.18000 13.138
12.20000 6.375
12.22000 6.872
12.24000 1.996
12.26000 9.778
12.28000 20.712
12.30000 10.213
12.32000 8.202
12.34000 6.047
12.36000 14.267
12.38000 18.134
12.40000 8.277
12.42000 -3.669
12.44000 8.577
12.46000 17.230
12.48000 12.871
12.50000 17.991
12.52000 17.723
12.54000 21.065
12.56000 15.255
12.58000 21.957
12.60000 22.499
12.62000 13.683
12.64000 19.429
12.66000 25.259
12.68000 31.311
12.70000 21.266
12.72000 26.093
12.74000 12.054
12.76000 6.965
12.78000 17.156
12.80000 16.008
12.82000 10.303
12.84000 9.647
12.86000 12.824
12.88000 10.824
12.90000 19.839
12.92000 14.584
12.94000 5.567
12.96000 -0.996
12.98000 4.808
13.00000 10.252
13.02000 12.506
13.04000 15.183
13.06000 17.742
13.08000 13.443
13.10000 7.533
13.12000 7.479
13.14000 16.650
13.16000 11.420
13.18000 14.870
13.20000 16.684
13.22000 22.659
13.24000 27.054
13.26000 14.483
13.28000 9.219
13.30000 7.105
13.32000 4.741
13.34000 15.220
13.36000 18.925
13.38000 14.383
13.40000 11.178
13.42000 8.025
13.44000 18.720
13.46000 14.384
13.48000 -2.085
13.50000 -3.685
13.52000 4.137
13.54000 15.904
13.56000 5.897
13.58000 1.480
13.60000 3.697
13.62000 12.131
13.64000 10.727
13.66000 7.663
13.68000 15.160
13.70000 7.301
13.72000 6.559
13.74000 11.046
13.76000 7.937
13.78000 13.761
13.80000 5.378
13.82000 -2.114
13.84000 0.847
13.86000 -1.213
13.88000 1.155
13.90000 1.252
13.92000 12.514
13.94000 6.543
13.96000 6.934
13.98000 14.694
14.00000 6.546
14.02000 12.246
14.04000 2.418
14.06000 1.532
14.08000 1.417
14.10000 7.212
14.12000 11.856
14.14000 4.271
14.16000 16.371
14.18000 18.335
14.20000 16.281
14.22000 7.581
14.24000 9.325
14.26000 5.704
14.28000 7.369
14.30000 6.919
14.32000 5.662
14.34000 6.827
14.36000 0.085
14.38000 4.705
14.40000 4.297
14.42000 0.758
14.44000 7.484
14.46000 7.350
14.48000 5.469
14.50000 3.473
14.52000 -0.749
14.54000 13.917
14.56000 20.645
14.58000 14.531
14.60000 9.851
14.62000 14.824
14.64000 1.937
14.66000 0.900
14.68000 4.839
14.70000 11.110
14.72000 2.338
14.74000 2.446
14.76000 1.314
14.78000 5.846
14.80000 1.685
14.82000 6.459
14.84000 10.650
14.86000 17.061
14.88000 12.411
14.90000 12.974
14.92000 7.205
14.94000 6.817
14.96000 14.897
14.98000 6.716
15.00000 11.792
15.02000 19.586
15.04000 4.699
15.06000 3.796
15.08000 7.303
15.10000 6.743
15.12000 4.879
15.14000 12.392
15.16000 12.504
15.18000 22.143
15.20000 25.373
15.22000 20.852
15.24000 8.230
15.26000 9.543
15.28000 14.063
15.30000 23.615
15.32000 11.865
15.34000 5.860
15.36000 0.004
15.38000 13.240
15.40000 9.569
15.42000 -4.634
15.44000 4.874
15.46000 13.879
15.48000 13.577
15.50000 16.187
15.52000 7.966
15.54000 2.574
15.56000 3.072
15.58000 8.393
15.60000 6.481
15.62000 8.161
15.64000 8.699
15.66000 9.828
15.68000 7.412
15.70000 15.697
15.72000 12.035
15.74000 11.099
15.76000 7.818
15.78000 9.107
15.80000 6.286
15.82000 3.818
15.84000 5.726
15.86000 13.639
15.88000 18.525
15.90000 8.683
15.92000 0.008
15.94000 -1.412
15.96000 1.993
15.98000 3.762
16.00000 0.359
16.02000 3.265
16.04000 11.868
16.06000 2.249
16.08000 -2.117
16.10000 9.874
16.12000 10.169
16.14000 5.218
16.16000 4.676
16.18000 1.978
16.20000 3.998
16.22000 5.690
16.24000 10.184
16.26000 14.299
16.28000 5.947
16.30000 -2.829
16.32000 -2.474
16.34000 0.251
16.36000 0.585
16.38000 -2.611
16.40000 -0.864
16.42000 5.677
16.44000 2.939
16.46000 0.878
16.48000 4.192
16.50000 8.302
16.52000 7.998
16.54000 2.166
16.56000 -3.959
16.58000 -3.556
16.60000 -0.322
16.62000 -1.034
16.64000 1.484
16.66000 9.286
16.68000 18.220
16.70000 10.649
16.72000 -2.901
16.74000 -0.939
16.76000 4.690
16.78000 3.525
16.80000 6.876
16.82000 1.467
16.84000 -4.582
16.86000 -1.037
16.88000 -1.224
16.90000 0.310
16.92000 -2.959
16.94000 4.108
16.96000 5.401
16.98000 1.267
17.00000 3.544
17.02000 7.243
17.04000 8.930
17.06000 10.585
17.08000 3.885
17.10000 -0.203
17.12000 3.400
17.14000 5.516
17.16000 9.924
17.18000 15.558
17.20000 13.111
17.22000 10.584
17.24000 7.208
17.26000 4.375
17.28000 4.582
17.30000 4.979
17.32000 10.325
17.34000 10.845
17.36000 18.542
17.38000 15.895
17.40000 4.897
17.42000 9.869
17.44000 6.215
17.46000 7.017
17.48000 7.120
17.50000 -3.184
17.52000 7.098
17.54000 11.051
17.56000 8.855
17.58000 11.881
17.60000 4.655
17.62000 -2.000
17.64000 5.817
17.66000 14.264
17.68000 10.112
17.70000 7.393
17.72000 4.772
17.74000 2.346
17.76000 11.664
17.78000 9.732
17.80000 3.585
17.82000 2.351
17.84000 8.207
17.86000 11.439
17.88000 6.945
17.90000 11.633
17.92000 8.295
17.94000 -4.501
17.96000 4.018
17.98000 8.422
18.00000 2.717
18.02000 8.592
18.04000 9.000
18.06000 1.028
18.08000 3.702
18.10000 1.174
18.12000 5.752
18.14000 6.732
18.16000 3.151
18.18000 0.248
18.20000 0.627
18.22000 7.238
18.24000 7.314
18.26000 1.708
18.28000 4.661
18.30000 9.100
18.32000 0.589
18.34000 -0.828
18.36000 6.987
18.38000 -0.573
18.40000 -4.274
18.42000 3.816
18.44000 2.153
18.46000 -2.023
18.48000 7.361
18.50000 -1.339
18.52000 -1.903
18.54000 -4.465
18.56000 7.001
18.58000 2.823
18.60000 4.442
18.62000 6.038
18.64000 12.677
18.66000 7.601
18.68000 0.903
18.70000 -1.479
18.72000 3.258
18.74000 6.161
18.76000 4.707
18.78000 1.907
18.80000 5.043
18.82000 12.353
18.84000 0.764
18.86000 -3.681
18.88000 1.488
18.90000 1.441
18.92000 -0.652
18.94000 4.734
18.96000 10.031
18.98000 6.381
19.00000 0.866
19.02000 1.515
19.04000 0.291
19.06000 -4.428
19.08000 -1.148
19.10000 -1.813
19.12000 -3.963
19.14000 4.248
19.16000 8.976
19.18000 9.975
19.20000 6.995
19.22000 0.798
19.24000 -4.418
19.26000 -2.066
19.28000 4.223
19.30000 10.303
19.32000 13.577
19.34000 6.058
19.36000 7.232
19.38000 13.325
19.40000 7.539
19.42000 5.091
19.44000 9.177
19.46000 10.872
19.48000 7.285
19.50000 6.970
19.52000 11.945
19.54000 9.193
19.56000 12.994
19.58000 10.096
19.60000 -3.097
19.62000 4.657
19.64000 4.864
19.66000 6.843
19.68000 3.785
19.70000 8.787
19.72000 6.457
19.74000 4.039
19.76000 -0.802
19.78000 -0.424
19.80000 3.526
19.82000 3.566
19.84000 7.973
19.86000 3.303
19.88000 3.259
19.90000 5.949
19.92000 2.082
19.94000 7.817
19.96000 3.428
19.98000 7.161
20.00000 11.167
20.02000 8.966
20.04000 6.407
20.06000 2.613
20.08000 4.753
20.10000 3.518
20.12000 3.146
20.14000 3.154
20.16000 7.046
20.18000 7.647
20.20000 4.903
20.22000 10.616
20.24000 16.780
20.26000 16.177
20.28000 5.867
20.30000 0.167
20.32000 1.827
20.34000 2.162
20.36000 5.761
20.38000 3.534
20.40000 5.695
20.42000 8.121
20.44000 6.908
20.46000 2.075
20.48000 -1.524
20.50000 -4.306
20.52000 -0.327
20.54000 6.834
20.56000 5.652
20.58000 11.238
20.60000 14.845
20.62000 8.049
20.64000 1.622
20.66000 5.651
20.68000 5.062
20.70000 3.093
20.72000 1.846
20.74000 10.977
20.76000 7.527
20.78000 5.220
20.80000 7.914
20.82000 6.928
20.84000 3.253
20.86000 1.613
20.88000 3.822
20.90000 10.418
20.92000 11.124
20.94000 7.297
20.96000 5.394
20.98000 4.365
21.00000 -0.094
21.02000 6.026
21.04000 8.918
21.06000 8.066
21.08000 6.868
21.10000 10.981
21.12000 12.651
21.14000 5.405
21.16000 0.229
21.18000 4.888
21.20000 7.642
21.22000 3.749
21.24000 0.565
21.26000 9.209
21.28000 6.137
21.30000 3.896
21.32000 4.934
21.34000 0.482
21.36000 -2.162
21.38000 -4.268
21.40000 0.314
21.42000 4.870
21.44000 12.421
21.46000 9.611
21.48000 5.296
21.50000 5.062
21.52000 3.972
21.54000 1.903
21.56000 4.063
21.58000 6.847
21.60000 5.020
21.62000 7.494
21.64000 9.073
21.66000 14.090
21.68000 11.846
21.70000 3.209
21.72000 3.437
21.74000 5.670
21.76000 1.042
21.78000 3.824
21.80000 7.761
21.82000 7.891
21.84000 7.406
21.86000 6.790
21.88000 6.714
21.90000 8.155
21.92000 6.486
21.94000 5.634
21.96000 3.201
21.98000 2.888
22.00000 8.384
22.02000 10.527
22.04000 4.870
22.06000 0.563
22.08000 5.869
22.10000 4.339
22.12000 -1.067
22.14000 -3.520
22.16000 3.012
22.18000 9.705
22.20000 6.598
22.22000 4.675
22.24000 2.098
22.26000 -1.943
22.28000 -0.860
22.30000 7.334
22.32000 5.315
22.34000 7.385
22.36000 2.375
22.38000 5.739
22.40000 4.143
22.42000 2.660
22.44000 4.729
22.46000 -0.893
22.48000 1.866
22.50000 9.573
22.52000 1.603
22.54000 -4.018
22.56000 -2.096
22.58000 1.007
22.60000 -3.628
22.62000 -0.617
22.64000 -4.232
22.66000 -1.345
22.68000 7.250
22.70000 2.377
22.72000 3.040
22.74000 4.907
22.76000 8.749
22.78000 6.206
22.80000 4.360
22.82000 2.320
22.84000 0.004
22.86000 2.152
22.88000 3.293
22.90000 2.576
22.92000 4.682
22.94000 2.551
22.96000 1.878
22.98000 -1.730
23.00000 -1.829
23.02000 0.114
23.04000 3.882
23.06000 1.176
23.08000 4.028
23.10000 7.806
23.12000 9.046
23.14000 6.729
23.16000 5.645
23.18000 1.826
23.20000 1.010
23.22000 -1.661
23.24000 -3.098
23.26000 -1.816
23.28000 2.014
23.30000 3.765
23.32000 5.171
23.34000 1.745
23.36000 1.893
23.38000 5.465
23.40000 7.230
23.42000 0.805
23.44000 3.077
23.46000 8.977
23.48000 10.367
23.50000 7.019
23.52000 1.528
23.54000 5.528
23.56000 -0.800
23.58000 -4.147
23.60000 3.979
23.62000 8.937
23.64000 0.110
23.66000 3.018
23.68000 9.657
23.70000 6.857
23.72000 12.718
23.74000 -0.647
23.76000 2.179
23.78000 3.513
23.80000 5.535
23.82000 8.064
23.84000 4.736
23.86000 4.966
23.88000 8.209
23.90000 9.476
23.92000 10.024
23.94000 6.218
23.96000 8.853
23.98000 9.069
24.00000 1.777
24.02000 -1.279
24.04000 -0.542
24.06000 -0.229
24.08000 4.039
24.10000 -0.754
24.12000 1.790
24.14000 1.644
24.16000 8.245
24.18000 5.046
24.20000 -4.093
24.22000 0.180
24.24000 -4.090
24.26000 -0.380
24.28000 7.402
24.30000 6.676
24.32000 3.895
24.34000 0.747
24.36000 -0.886
24.38000 -1.667
24.40000 3.373
24.42000 4.460
24.44000 6.462
24.46000 3.564
24.48000 8.808
24.50000 11.812
24.52000 5.685
24.54000 -4.082
24.56000 1.629
24.58000 3.930
24.60000 7.220
24.62000 3.370
24.64000 0.485
24.66000 6.231
24.68000 0.105
24.70000 2.203
24.72000 1.927
24.74000 6.467
24.76000 9.937
24.78000 -0.048
24.80000 0.941
24.82000 9.482
24.84000 6.754
24.86000 1.278
24.88000 -4.048
24.90000 3.405
24.92000 4.643
24.94000 0.608
24.96000 4.231
24.98000 4.974
25.00000 11.510
25.02000 9.090
25.04000 2.834
25.06000 0.655
25.08000 1.532
25.10000 0.920
25.12000 -0.752
25.14000 2.107
25.16000 12.107
25.18000 9.545
25.20000 9.103
25.22000 10.205
25.24000 10.983
25.26000 12.281
25.28000 9.130
25.30000 5.604
25.32000 2.135
25.34000 2.609
25.36000 0.787
25.38000 6.307
25.40000 10.057
25.42000 1.403
25.44000 1.680
25.46000 5.998
25.48000 5.102
25.50000 6.036
25.52000 4.661
25.54000 4.371
25.56000 6.047
25.58000 5.212
25.60000 7.875
25.62000 3.070
25.64000 7.561
25.66000 9.369
25.68000 9.254
25.70000 7.417
25.72000 2.013
25.74000 3.692
25.76000 8.399
25.78000 14.790
25.80000 11.760
25.82000 8.665
25.84000 11.314
25.86000 8.217
25.88000 7.607
25.90000 7.377
25.92000 4.994
25.94000 8.228
25.96000 6.171
25.98000 5.120
26.00000 5.918
26.02000 7.851
26.04000 5.032
26.06000 1.090
26.08000 -3.971
26.10000 5.090
26.12000 10.555
26.14000 7.258
26.16000 8.486
26.18000 8.633
26.20000 8.909
26.22000 11.819
26.24000 13.718
26.26000 13.080
26.28000 10.181
26.30000 7.645
26.32000 6.297
26.34000 3.412
26.36000 0.505
26.38000 0.562
26.40000 1.284
26.42000 4.982
26.44000 6.787
26.46000 4.459
26.48000 8.388
26.50000 9.733
26.52000 5.878
26.54000 8.136
26.56000 11.041
26.58000 10.648
26.60000 8.488
26.62000 6.094
26.64000 2.111
26.66000 -0.474
26.68000 3.832
26.70000 5.616
26.72000 -0.351
26.74000 2.778
26.76000 5.066
26.78000 3.318
26.80000 1.260
26.82000 5.594
26.84000 -0.515
26.86000 1.509
26.88000 3.661
26.90000 3.199
26.92000 2.600
26.94000 2.216
26.96000 1.012
26.98000 3.651
27.00000 1.905
27.02000 -3.160
27.04000 1.512
27.06000 6.005
27.08000 5.324
27.10000 3.920
27.12000 7.233
27.14000 3.736
27.16000 3.839
27.18000 4.521
27.20000 5.468
27.22000 6.500
27.24000 7.683
27.26000 1.463
27.28000 0.474
27.30000 7.213
27.32000 6.183
27.34000 1.550
27.36000 2.734
27.38000 5.153
27.40000 7.029
27.42000 7.465
27.44000 4.504
27.46000 1.556
27.48000 1.738
27.50000 1.836
27.52000 1.585
27.54000 1.665
27.56000 1.010
27.58000 -1.446
27.60000 -1.407
27.62000 3.791
27.64000 1.226
27.66000 2.755
27.68000 7.752
27.70000 1.450
27.72000 -3.941
27.74000 5.470
27.76000 3.995
27.78000 5.659
27.80000 -2.612
27.82000 -0.006
27.84000 4.547
27.86000 7.737
27.88000 1.961
27.90000 1.058
27.92000 3.941
27.94000 -1.747
27.96000 -1.339
27.98000 6.979
28.00000 8.640
28.02000 9.541
28.04000 8.725
28.06000 5.671
28.08000 4.968
28.10000 2.689
28.12000 0.194
28.14000 7.798
28.16000 8.831
28.18000 -1.125
28.20000 0.697
28.22000 1.101
28.24000 3.319
28.26000 6.043
28.28000 7.197
28.30000 9.659
28.32000 3.838
28.34000 5.016
28.36000 4.955
28.38000 4.385
28.40000 4.409
28.42000 3.679
28.44000 6.251
28.46000 1.713
28.48000 4.358
28.50000 10.894
28.52000 7.415
28.54000 4.640
28.56000 5.504
28.58000 6.008
28.60000 9.793
28.62000 9.171
28.64000 6.112
28.66000 2.610
28.68000 3.002
28.70000 6.221
28.72000 5.549
28.74000 1.658
28.76000 0.829
28.78000 4.177
28.80000 8.429
28.82000 6.980
28.84000 9.786
28.86000 11.098
28.88000 8.080
28.90000 3.978
28.92000 2.887
28.94000 0.517
28.96000 -1.938
28.98000 -1.050
29.00000 2.387
29.02000 -3.814
29.04000 -2.573
29.06000 3.691
29.08000 8.391
29.10000 10.832
29.12000 8.071
29.14000 9.160
29.16000 7.808
29.18000 11.289
29.20000 3.899
29.22000 -1.612
29.24000 1.086
29.26000 1.190
29.28000 -0.486
29.30000 3.155
29.32000 6.591
29.34000 7.865
29.36000 7.118
29.38000 4.456
29.40000 -2.499
29.42000 -0.347
29.44000 7.134
29.46000 9.708
29.48000 11.252
29.50000 10.900
29.52000 7.520
29.54000 4.263
29.56000 5.002
29.58000 7.972
29.60000 9.869
29.62000 7.901
29.64000 1.312
29.66000 1.853
29.68000 8.920
29.70000 11.540
29.72000 6.719
29.74000 4.411
29.76000 8.510
29.78000 4.316
29.80000 7.413
29.82000 2.239
29.84000 1.878
29.86000 4.874
29.88000 7.821
29.90000 2.678
29.92000 -3.812
29.94000 4.813
29.96000 8.200
29.98000 1.338
30.00000 5.191
30.02000 3.631
30.04000 0.723
30.06000 2.327
30.08000 0.606
30.10000 2.523
30.12000 7.174
30.14000 3.107
30.16000 1.523
30.18000 -1.249
30.20000 5.982
30.22000 6.745
30.24000 3.795
30.26000 6.108
30.28000 2.745
30.30000 -2.811
30.32000 4.873
30.34000 6.919
30.36000 3.551
30.38000 -2.017
30.40000 -2.082
30.42000 2.199
30.44000 7.631
30.46000 2.926
30.48000 3.268
30.50000 0.409
30.52000 2.632
30.54000 4.062
30.56000 3.530
30.58000 2.974
30.60000 3.290
30.62000 4.249
30.64000 1.993
30.66000 0.186
30.68000 4.469
30.70000 -0.955
30.72000 -0.582
30.74000 0.294
30.76000 5.731
30.78000 8.284
30.80000 6.667
30.82000 -0.322
30.84000 3.359
30.86000 7.855
30.88000 3.953
30.90000 0.136
30.92000 4.985
30.94000 12.295
30.96000 12.097
30.98000 6.016
31.00000 0.673
31.02000 1.492
31.04000 5.124
31.06000 -0.699
31.08000 0.228
31.10000 2.156
31.12000 7.707
31.14000 3.693
31.16000 1.839
31.18000 -3.744
31.20000 -2.880
31.22000 3.207
31.24000 3.829
31.26000 3.379
31.28000 4.837
31.30000 2.105
31.32000 0.032
31.34000 1.934
31.36000 0.757
31.38000 -1.086
31.40000 0.748
31.42000 -0.445
31.44000 3.868
31.46000 5.230
31.48000 4.974
31.50000 13.902
31.52000 11.654
31.54000 11.962
31.56000 7.706
31.58000 6.946
31.60000 1.386
31.62000 -1.078
31.64000 -3.744
31.66000 -3.564
31.68000 -1.148
31.70000 0.378
31.72000 2.257
31.74000 0.686
31.76000 0.693
31.78000 7.643
31.80000 2.461
31.82000 -2.199
31.84000 1.434
31.86000 7.022
31.88000 5.457
31.90000 6.078
31.92000 5.812
31.94000 1.719
31.96000 -0.418
31.98000 -1.889
32.00000 5.652
32.02000 12.083
32.04000 8.403
32.06000 0.975
32.08000 0.684
32.10000 4.398
32.12000 8.876
32.14000 7.124
32.16000 1.234
32.18000 -0.416
32.20000 1.857
32.22000 1.139
32.24000 -0.461
32.26000 -3.417
32.28000 -2.438
32.30000 3.218
32.32000 5.938
32.34000 6.752
32.36000 4.636
32.38000 2.609
32.40000 3.786
32.42000 -0.050
32.44000 0.002
32.46000 -0.018
32.48000 0.510
32.50000 7.424
32.52000 5.025
32.54000 1.737
32.56000 3.722
32.58000 1.964
32.60000 1.604
32.62000 4.399
32.64000 1.945
32.66000 2.254
32.68000 2.865
32.70000 -1.478
32.72000 2.964
32.74000 2.076
32.76000 -0.422
32.78000 0.174
32.80000 -0.877
32.82000 1.908
32.84000 6.594
32.86000 5.917
32.88000 8.573
32.90000 7.845
32.92000 3.854
32.94000 5.584
32.96000 3.224
32.98000 2.815
33.00000 5.071
33.02000 2.070
33.04000 -1.317
33.06000 1.253
33.08000 4.318
33.10000 8.879
33.12000 6.515
33.14000 7.569
33.16000 2.566
33.18000 -3.657
33.20000 3.302
33.22000 9.959
33.24000 8.686
33.26000 2.542
33.28000 8.338
33.30000 13.217
33.32000 11.870
33.34000 8.478
33.36000 4.764
33.38000 2.097
33.40000 7.307
33.42000 4.006
33.44000 0.443
33.46000 -0.166
33.48000 -0.306
33.50000 0.477
33.52000 7.410
33.54000 4.895
33.56000 8.982
33.58000 6.642
33.60000 6.207
33.62000 6.156
33.64000 5.288
33.66000 2.268
33.68000 4.785
33.70000 7.057
33.72000 5.401
33.74000 0.030
33.76000 1.893
33.78000 7.198
33.80000 9.911
33.82000 7.747
33.84000 4.259
33.86000 4.331
33.88000 -2.288
33.90000 1.180
33.92000 4.786
33.94000 4.160
33.96000 -0.405
33.98000 0.327
34.00000 1.635
34.02000 10.199
34.04000 9.517
34.06000 9.157
34.08000 8.271
34.10000 6.779
34.12000 3.569
34.14000 4.996
34.16000 5.899
34.18000 8.153
34.20000 7.375
34.22000 7.345
34.24000 2.664
34.26000 1.858
34.28000 2.948
34.30000 5.846
34.32000 11.223
34.34000 5.866
34.36000 4.272
34.38000 9.787
34.40000 8.981
34.42000 8.761
34.44000 1.168
34.46000 -1.985
34.48000 -0.283
34.50000 4.604
34.52000 6.353
34.54000 6.523
34.56000 11.548
34.58000 8.766
34.60000 7.864
34.62000 5.275
34.64000 4.960
34.66000 7.557
34.68000 3.798
34.70000 8.802
34.72000 7.612
34.74000 6.351
34.76000 4.217
34.78000 3.610
34.80000 3.645
34.82000 3.657
34.84000 3.068
34.86000 4.051
34.88000 -2.003
34.90000 -3.570
34.92000 6.779
34.94000 2.237
34.96000 5.245
34.98000 3.469
35.00000 6.469
35.02000 5.128
35.04000 3.465
35.06000 3.756
35.08000 7.586
35.10000 8.025
35.12000 5.886
35.14000 7.414
35.16000 3.687
35.18000 5.940
35.20000 4.402
35.22000 4.374
35.24000 3.347
35.26000 2.036
35.28000 3.152
35.30000 1.496
35.32000 2.022
35.34000 0.051
35.36000 3.222
35.38000 7.358
35.40000 3.105
35.42000 2.212
35.44000 6.556
35.46000 7.987
35.48000 6.626
35.50000 5.195
35.52000 1.963
35.54000 5.293
35.56000 0.215
35.58000 -1.068
35.60000 6.647
35.62000 4.552
35.64000 9.322
35.66000 8.919
35.68000 7.817
35.70000 4.013
35.72000 1.338
35.74000 2.495
35.76000 3.490
35.78000 3.846
35.80000 8.046
35.82000 0.474
35.84000 -1.120
35.86000 4.064
35.88000 3.400
35.90000 4.116
35.92000 3.752
35.94000 3.663
35.96000 2.629
35.98000 0.884
36.00000 -0.505
36.02000 0.102
36.04000 -3.058
36.06000 1.431
36.08000 4.910
36.10000 5.469
36.12000 2.680
36.14000 1.355
36.16000 0.103
36.18000 -3.571
36.20000 -0.364
36.22000 4.186
36.24000 2.533
36.26000 3.733
36.28000 4.911
36.30000 4.010
36.32000 4.646
36.34000 8.216
36.36000 6.400
36.38000 1.077
36.40000 8.542
36.42000 6.671
36.44000 4.311
36.46000 -0.843
36.48000 -3.565
36.50000 -0.409
36.52000 5.856
36.54000 5.094
36.56000 4.074
36.58000 0.350
36.60000 1.448
36.62000 4.086
36.64000 1.623
36.66000 0.900
36.68000 0.951
36.70000 1.440
36.72000 4.081
36.74000 3.379
36.76000 2.013
36.78000 4.788
36.80000 3.060
36.82000 2.657
36.84000 2.551
36.86000 0.269
36.88000 -1.010
36.90000 -0.525
36.92000 5.366
36.94000 6.011
36.96000 2.182
36.98000 -2.918
37.00000 -1.211
37.02000 -2.361
37.04000 -2.955
37.06000 0.881
37.08000 1.616
37.10000 -3.502
37.12000 -2.089
37.14000 -1.902
37.16000 -0.446
37.18000 3.484
37.20000 2.205
37.22000 2.992
37.24000 1.255
37.26000 4.463
37.28000 -2.058
37.30000 -0.922
37.32000 0.074
37.34000 -0.923
37.36000 -3.630
37.38000 -1.613
37.40000 1.432
37.42000 1.296
37.44000 3.674
37.46000 8.365
37.48000 4.751
37.50000 0.076
37.52000 -1.987
37.54000 1.656
37.56000 6.052
37.58000 8.194
37.60000 2.565
37.62000 3.433
37.64000 6.075
37.66000 6.843
37.68000 2.295
37.70000 3.178
37.72000 0.440
37.74000 4.569
37.76000 -0.454
37.78000 -3.657
37.80000 -0.285
37.82000 1.957
37.84000 1.482
37.86000 1.740
37.88000 1.633
37.90000 -0.544
37.92000 1.553
37.94000 3.637
37.96000 2.095
37.98000 4.568
38.00000 4.215
38.02000 8.019
38.04000 7.052
38.06000 9.212
38.08000 7.271
38.10000 7.524
38.12000 5.346
38.14000 7.242
38.16000 14.154
38.18000 8.466
38.20000 6.443
38.22000 6.943
38.24000 10.481
38.26000 5.525
38.28000 9.628
38.30000 11.654
38.32000 11.958
38.34000 10.549
38.36000 10.153
38.38000 13.557
38.40000 12.585
38.42000 8.405
38.44000 10.427
38.46000 9.078
38.48000 8.933
38.50000 9.063
38.52000 12.500
38.54000 14.457
38.56000 14.491
38.58000 17.559
38.60000 21.806
38.62000 16.074
38.64000 16.736
38.66000 20.158
38.68000 13.389
38.70000 12.894
38.72000 19.086
38.74000 18.199
38.76000 20.332
38.78000 20.603
38.80000 22.397
38.82000 24.962
38.84000 20.592
38.86000 17.461
38.88000 18.849
38.90000 22.640
38.92000 26.742
38.94000 24.651
38.96000 19.016
38.98000 22.308
39.00000 19.762
39.02000 28.762
39.04000 24.271
39.06000 24.663
39.08000 22.319
39.10000 27.154
39.12000 28.908
39.14000 29.743
39.16000 30.289
39.18000 33.522
39.20000 36.837
39.22000 39.713
39.24000 44.975
39.26000 47.727
39.28000 46.584
39.30000 46.750
39.32000 37.334
39.34000 45.840
39.36000 49.001
39.38000 53.811
39.40000 53.527
39.42000 64.229
39.44000 67.226
39.46000 65.426
39.48000 68.134
39.50000 71.053
39.52000 78.646
39.54000 74.153
39.56000 80.147
39.58000 89.395
39.60000 89.667
39.62000 94.215
39.64000 101.537
39.66000 106.554
39.68000 114.199
39.70000 124.523
39.72000 136.090
39.74000 144.149
39.76000 146.146
39.78000 157.770
39.80000 169.850
39.82000 181.611
39.84000 191.745
39.86000 210.448
39.88000 223.101
39.90000 236.529
39.92000 253.465
39.94000 271.609
39.96000 286.545
39.98000 309.266
40.00000 335.479
40.02000 358.312
40.04000 397.111
40.06000 429.455
40.08000 462.638
40.10000 490.115
40.12000 523.567
40.14000 559.618
40.16000 592.942
40.18000 638.466
40.20000 691.223
40.22000 730.207
40.24000 780.394
40.26000 833.121
40.28000 879.120
40.30000 918.570
40.32000 970.791
40.34000 1015.709
40.36000 1056.784
40.38000 1078.115
40.40000 1115.099
40.42000 1140.030
40.44000 1176.684
40.46000 1205.200
40.48000 1224.890
40.50000 1206.090
40.52000 1204.621
40.54000 1205.707
40.56000 1214.351
40.58000 1207.230
40.60000 1180.807
40.62000 1145.241
40.64000 1116.280
40.66000 1093.870
40.68000 1055.604
40.70000 1032.290
40.72000 983.794
40.74000 949.380
40.76000 919.456
40.78000 885.193
40.80000 857.548
40.82000 813.242
40.84000 786.143
40.86000 757.628
40.88000 716.069
40.90000 672.798
40.92000 644.328
40.94000 620.702
40.96000 592.430
40.98000 559.318
41.00000 529.029
41.02000 497.278
41.04000 477.405
41.06000 449.932
41.08000 428.163
41.10000 413.601
41.12000 386.602
41.14000 367.569
41.16000 343.171
41.18000 325.504
41.20000 313.953
41.22000 293.169
41.24000 277.810
41.26000 274.607
41.28000 252.985
41.30000 234.897
41.32000 213.767
41.34000 202.720
41.36000 199.603
41.38000 186.272
41.40000 173.818
41.42000 165.189
41.44000 157.301
41.46000 153.519
41.48000 149.965
41.50000 140.540
41.52000 130.263
41.54000 125.326
41.56000 123.217
41.58000 118.712
41.60000 109.483
41.62000 110.566
41.64000 105.961
41.66000 91.783
41.68000 89.523
41.70000 88.329
41.72000 82.647
41.74000 76.330
41.76000 75.825
41.78000 71.337
41.80000 71.959
41.82000 73.744
41.84000 71.984
41.86000 62.435
41.88000 64.783
41.90000 59.237
41.92000 51.826
41.94000 48.781
41.96000 51.952
41.98000 49.143
42.00000 44.855
42.02000 42.437
42.04000 45.310
42.06000 42.418
42.08000 40.011
42.10000 39.631
42.12000 42.557
42.14000 38.808
42.16000 38.892
42.18000 32.957
42.20000 33.375
42.22000 33.775
42.24000 29.737
42.26000 28.450
42.28000 22.321
42.30000 22.197
42.32000 27.853
42.34000 28.429
42.36000 22.550
42.38000 21.496
42.40000 23.582
42.42000 19.348
42.44000 17.387
42.46000 16.740
42.48000 21.359
42.50000 21.313
42.52000 17.026
42.54000 18.309
42.56000 15.873
42.58000 14.923
42.60000 10.870
42.62000 12.080
42.64000 14.533
42.66000 13.549
42.68000 7.668
42.70000 11.870
42.72000 10.836
42.74000 9.062
42.76000 7.993
42.78000 6.850
42.80000 7.142
42.82000 8.308
42.84000 8.575
42.86000 6.264
42.88000 7.239
42.90000 8.260
42.92000 7.070
42.94000 8.377
42.96000 7.866
42.98000 6.330
43.00000 3.303
43.02000 4.071
43.04000 3.321
43.06000 3.497
43.08000 2.797
43.10000 0.447
43.12000 2.323
43.14000 5.456
43.16000 3.832
43.18000 2.009
43.20000 2.828
43.22000 3.091
43.24000 2.275
43.26000 0.696
43.28000 4.234
43.30000 5.415
43.32000 6.439
43.34000 2.616
43.36000 0.701
43.38000 -3.167
43.40000 0.241
43.42000 6.052
43.44000 1.702
43.46000 -2.305
43.48000 -3.009
43.50000 -0.600
43.52000 1.732
43.54000 1.105
43.56000 -0.274
43.58000 -3.416
43.60000 0.485
43.62000 0.200
43.64000 -0.691
43.66000 3.559
43.68000 1.781
43.70000 2.277
43.72000 1.087
43.74000 2.522
43.76000 0.547
43.78000 4.002
43.80000 4.452
43.82000 4.554
43.84000 4.196
43.86000 1.073
43.88000 -0.085
43.90000 1.941
43.92000 -1.265
43.94000 -3.082
43.96000 0.235
43.98000 4.949
44.00000 5.640
44.02000 -0.632
44.04000 2.142
44.06000 -0.635
44.08000 0.568
44.10000 -2.587
44.12000 -1.315
44.14000 -1.140
44.16000 -0.133
44.18000 3.572
44.20000 4.023
44.22000 3.068
44.24000 3.417
44.26000 0.050
44.28000 3.764
44.30000 3.404
44.32000 2.236
44.34000 2.199
44.36000 0.720
44.38000 2.161
44.40000 3.940
44.42000 3.150
44.44000 -3.259
44.46000 0.313
44.48000 4.425
44.50000 3.621
44.52000 3.961
44.54000 4.389
44.56000 1.040
44.58000 1.478
44.60000 3.364
44.62000 1.498
44.64000 -2.468
44.66000 -1.251
44.68000 0.536
44.70000 -0.798
44.72000 -0.579
44.74000 -0.160
44.76000 -0.950
44.78000 0.221
44.80000 -2.882
44.82000 -2.376
44.84000 2.026
44.86000 7.173
44.88000 8.392
44.90000 6.310
44.92000 0.773
44.94000 -1.963
44.96000 0.194
44.98000 -3.230
45.00000 -1.428
45.02000 -1.127
45.04000 0.262
45.06000 3.002
45.08000 0.828
45.10000 4.573
45.12000 8.041
45.14000 4.320
45.16000 -1.316
45.18000 0.466
45.20000 0.328
45.22000 0.733
45.24000 1.480
45.26000 -0.934
45.28000 1.914
45.30000 0.660
45.32000 0.672
45.34000 3.971
45.36000 -3.221
45.38000 1.882
45.40000 4.735
45.42000 0.812
45.44000 4.031
45.46000 5.512
45.48000 3.807
45.50000 3.075
45.52000 3.235
45.54000 5.283
45.56000 6.800
45.58000 7.572
45.60000 4.569
45.62000 9.335
45.64000 8.097
45.66000 7.267
45.68000 6.329
45.70000 5.929
45.72000 6.270
45.74000 6.069
45.76000 3.581
45.78000 6.289
45.80000 7.860
45.82000 7.843
45.84000 11.082
45.86000 11.415
45.88000 12.176
45.90000 11.220
45.92000 12.653
45.94000 12.856
45.96000 11.674
45.98000 11.310
46.00000 14.718
46.02000 15.328
46.04000 14.951
46.06000 14.625
46.08000 17.018
46.10000 16.513
46.12000 18.185
46.14000 20.783
46.16000 18.091
46.18000 18.690
46.20000 20.698
46.22000 20.927
46.24000 18.568
46.26000 21.751
46.28000 25.186
46.30000 22.155
46.32000 24.363
46.34000 24.782
46.36000 25.889
46.38000 29.546
46.40000 31.975
46.42000 35.923
46.44000 32.342
46.46000 31.633
46.48000 36.819
46.50000 40.759
46.52000 40.041
46.54000 42.871
46.56000 46.599
46.58000 50.361
46.60000 49.541
46.62000 50.090
46.64000 52.838
46.66000 56.357
46.68000 58.448
46.70000 59.792
46.72000 61.110
46.74000 65.289
46.76000 66.467
46.78000 69.866
46.80000 72.910
46.82000 73.360
46.84000 75.606
46.86000 80.165
46.88000 80.447
46.90000 86.063
46.92000 91.593
46.94000 88.701
46.96000 97.914
46.98000 99.139
47.00000 95.441
47.02000 98.987
47.04000 107.571
47.06000 106.548
47.08000 106.376
47.10000 105.346
47.12000 106.594
47.14000 110.665
47.16000 114.410
47.18000 112.909
47.20000 114.198
47.22000 116.511
47.24000 115.760
47.26000 113.735
47.28000 105.569
47.30000 103.899
47.32000 106.741
47.34000 102.626
47.36000 105.241
47.38000 103.370
47.40000 97.196
47.42000 95.335
47.44000 90.150
47.46000 86.717
47.48000 82.588
47.50000 85.384
47.52000 84.677
47.54000 72.425
47.56000 72.313
47.58000 72.825
47.60000 68.364
47.62000 66.693
47.64000 62.691
47.66000 58.810
47.68000 61.265
47.70000 57.247
47.72000 51.950
47.74000 53.695
47.76000 53.958
47.78000 45.675
47.80000 43.566
47.82000 40.113
47.84000 42.294
47.86000 40.154
47.88000 34.595
47.90000 31.271
47.92000 28.052
47.94000 29.032
47.96000 32.182
47.98000 27.295
48.00000 20.506
48.02000 20.774
48.04000 21.459
48.06000 15.655
48.08000 16.241
48.10000 15.762
48.12000 14.492
48.14000 10.939
48.16000 13.673
48.18000 13.272
48.20000 15.104
48.22000 11.025
48.24000 9.722
48.26000 10.246
48.28000 10.830
48.30000 12.523
48.32000 14.398
48.34000 10.732
48.36000 4.537
48.38000 1.325
48.40000 4.572
48.42000 1.477
48.44000 6.274
48.46000 10.489
48.48000 10.083
48.50000 4.930
48.52000 4.730
48.54000 4.935
48.56000 2.777
48.58000 4.350
48.60000 7.024
48.62000 6.839
48.64000 2.253
48.66000 0.498
48.68000 4.603
48.70000 2.845
48.72000 -2.524
48.74000 -2.725
48.76000 2.043
48.78000 4.033
48.80000 2.039
48.82000 3.837
48.84000 -0.794
48.86000 -2.126
48.88000 2.136
48.90000 4.369
48.92000 6.647
48.94000 5.944
48.96000 0.970
48.98000 3.319
49.00000 4.449
49.02000 -1.934
49.04000 -2.651
49.06000 3.122
49.08000 5.380
49.10000 6.035
49.12000 0.879
49.14000 0.023
49.16000 -0.881
49.18000 0.743
49.20000 4.927
49.22000 4.019
49.24000 2.831
49.26000 3.322
49.28000 2.553
49.30000 3.894
49.32000 4.879
49.34000 5.363
49.36000 2.585
49.38000 3.599
49.40000 2.629
49.42000 1.965
49.44000 1.211
49.46000 5.799
49.48000 3.525
49.50000 -0.496
49.52000 -1.621
49.54000 -2.356
49.56000 1.180
49.58000 3.190
49.60000 4.882
49.62000 1.679
49.64000 -1.101
49.66000 -1.728
49.68000 2.680
49.70000 -0.552
49.72000 -2.585
49.74000 -1.379
49.76000 -2.304
49.78000 2.723
49.80000 4.542
49.82000 2.385
49.84000 -1.180
49.86000 0.605
49.88000 1.287
49.90000 2.900
49.92000 1.214
49.94000 1.539
49.96000 -0.563
49.98000 -0.673
50.00000 3.928
50.02000 -0.099
50.04000 -1.620
50.06000 -1.112
50.08000 -1.819
50.10000 1.267
50.12000 1.615
50.14000 2.097
50.16000 -0.200
50.18000 1.881
50.20000 3.126
50.22000 2.454
50.24000 1.620
50.26000 1.490
50.28000 3.582
50.30000 3.231
50.32000 0.122
50.34000 -2.531
50.36000 0.029
50.38000 3.845
50.40000 -0.924
50.42000 1.052
50.44000 0.269
50.46000 1.251
50.48000 0.226
50.50000 3.103
50.52000 2.378
50.54000 -0.225
50.56000 -0.315
50.58000 -0.960
50.60000 -1.246
50.62000 -1.812
50.64000 1.238
50.66000 1.447
50.68000 0.185
50.70000 -2.496
50.72000 -0.671
50.74000 7.887
50.76000 6.583
50.78000 4.635
50.80000 3.793
50.82000 0.175
50.84000 -0.523
50.86000 -0.470
50.88000 0.324
50.90000 5.269
50.92000 1.355
50.94000 0.256
50.96000 1.625
50.98000 0.346
51.00000 -1.518
51.02000 -1.715
51.04000 -0.900
51.06000 -2.476
51.08000 -2.179
51.10000 1.238
51.12000 0.162
51.14000 4.765
51.16000 4.860
51.18000 2.896
51.20000 -0.294
51.22000 0.779
51.24000 3.936
51.26000 3.062
51.28000 1.029
51.30000 -2.327
51.32000 -1.915
51.34000 -2.205
51.36000 -0.543
51.38000 1.006
51.40000 -1.957
51.42000 0.083
51.44000 1.387
51.46000 1.433
51.48000 1.474
51.50000 0.375
51.52000 2.512
51.54000 1.248
51.56000 2.351
51.58000 0.212
51.60000 -0.507
51.62000 -0.057
51.64000 0.294
51.66000 -0.342
51.68000 -0.550
51.70000 2.327
51.72000 0.180
51.74000 -1.136
51.76000 -1.985
51.78000 1.253
51.80000 0.480
51.82000 -2.136
51.84000 -0.123
51.86000 0.082
51.88000 0.293
51.90000 1.913
51.92000 -2.131
51.94000 -0.448
51.96000 1.148
51.98000 4.514
52.00000 2.698
52.02000 0.536
52.04000 0.904
52.06000 0.349
52.08000 -0.100
52.10000 3.930
52.12000 0.927
52.14000 -0.946
52.16000 1.117
52.18000 -2.309
52.20000 0.316
52.22000 -0.113
52.24000 0.032
52.26000 -1.644
52.28000 -1.479
52.30000 -2.417
52.32000 0.350
52.34000 -1.463
52.36000 1.398
52.38000 1.416
52.40000 1.382
52.42000 1.252
52.44000 5.849
52.46000 4.366
52.48000 -1.046
52.50000 -2.398
52.52000 0.828
52.54000 3.481
52.56000 1.794
52.58000 2.400
52.60000 0.900
52.62000 -1.135
52.64000 -2.396
52.66000 -1.451
52.68000 0.162
52.70000 3.226
52.72000 4.685
52.74000 3.618
52.76000 2.421
52.78000 3.669
52.80000 3.558
52.82000 2.670
52.84000 1.798
52.86000 1.034
52.88000 2.708
52.90000 2.724
52.92000 0.085
52.94000 -2.095
52.96000 -0.017
52.98000 1.761
53.00000 -0.940
53.02000 -0.709
53.04000 1.663
53.06000 1.127
53.08000 -1.147
53.10000 -0.396
53.12000 -1.334
53.14000 -0.036
53.16000 -0.171
53.18000 -1.817
53.20000 -0.991
53.22000 -2.399
53.24000 2.027
53.26000 1.517
53.28000 0.605
53.30000 -0.510
53.32000 1.808
53.34000 -1.105
53.36000 0.126
53.38000 2.449
53.40000 1.386
53.42000 1.420
53.44000 2.596
53.46000 2.193
53.48000 1.254
53.50000 2.848
53.52000 0.641
53.54000 -1.657
53.56000 -1.412
53.58000 -1.558
53.60000 2.346
53.62000 0.101
53.64000 -0.290
53.66000 -0.530
53.68000 -0.023
53.70000 -1.073
53.72000 -1.368
53.74000 -2.398
53.76000 -1.172
53.78000 0.900
53.80000 -1.570
53.82000 -0.591
53.84000 0.915
53.86000 -0.096
53.88000 -1.265
53.90000 0.829
53.92000 2.503
53.94000 3.614
53.96000 2.932
53.98000 3.914
54.00000 1.572
54.02000 3.159
54.04000 1.957
54.06000 -0.935
54.08000 2.229
54.10000 4.382
54.12000 5.156
54.14000 3.335
54.16000 0.999
54.18000 1.005
54.20000 -2.168
54.22000 -2.245
54.24000 0.222
54.26000 1.695
54.28000 1.805
54.30000 3.246
54.32000 2.787
54.34000 1.422
54.36000 -1.147
54.38000 0.948
54.40000 0.449
54.42000 -1.991
54.44000 1.023
54.46000 4.769
54.48000 2.710
54.50000 0.141
54.52000 -0.980
54.54000 -2.157
54.56000 3.412
54.58000 3.853
54.60000 -0.154
54.62000 -0.429
54.64000 2.509
54.66000 4.413
54.68000 4.350
54.70000 -2.354
54.72000 -0.063
54.74000 0.968
54.76000 2.107
54.78000 1.504
54.80000 2.322
54.82000 0.848
54.84000 -0.739
54.86000 -1.082
54.88000 1.283
54.90000 1.853
54.92000 -1.393
54.94000 -0.131
54.96000 0.813
54.98000 2.744
55.00000 2.269
55.02000 3.413
55.04000 1.453
55.06000 2.276
55.08000 3.188
55.10000 1.781
55.12000 -0.383
55.14000 -1.322
55.16000 0.425
55.18000 0.114
55.20000 0.865
55.22000 1.162
55.24000 3.009
55.26000 1.754
55.28000 0.145
55.30000 2.342
55.32000 2.056
55.34000 1.655
55.36000 1.069
55.38000 -0.719
55.40000 -1.817
55.42000 2.615
55.44000 2.222
55.46000 0.502
55.48000 1.006
55.50000 0.423
55.52000 0.236
55.54000 1.707
55.56000 1.555
55.58000 0.109
55.60000 0.349
55.62000 -0.112
55.64000 -2.306
55.66000 1.371
55.68000 3.115
55.70000 5.461
55.72000 1.740
55.74000 1.893
55.76000 4.170
55.78000 2.236
55.80000 0.863
55.82000 1.434
55.84000 5.936
55.86000 3.540
55.88000 1.396
55.90000 1.414
55.92000 -0.465
55.94000 1.721
55.96000 3.084
55.98000 2.324
56.00000 3.002
56.02000 2.919
56.04000 2.010
56.06000 3.373
56.08000 1.549
56.10000 0.921
56.12000 1.392
56.14000 2.119
56.16000 2.175
56.18000 2.569
56.20000 1.230
56.22000 0.907
56.24000 1.988
56.26000 0.106
56.28000 1.993
56.30000 3.445
56.32000 0.269
56.34000 0.418
56.36000 0.870
56.38000 2.591
56.40000 4.674
56.42000 6.355
56.44000 2.802
56.46000 3.657
56.48000 4.171
56.50000 6.521
56.52000 1.574
56.54000 -2.019
56.56000 1.689
56.58000 2.830
56.60000 3.707
56.62000 -0.131
56.64000 0.203
56.66000 0.122
56.68000 -0.857
56.70000 1.349
56.72000 1.797
56.74000 5.425
56.76000 1.868
56.78000 2.483
56.80000 4.810
56.82000 5.182
56.84000 2.594
56.86000 0.534
56.88000 1.419
56.90000 1.730
56.92000 1.491
56.94000 2.508
56.96000 2.484
56.98000 1.497
57.00000 4.511
57.02000 4.686
57.04000 2.450
57.06000 2.657
57.08000 3.825
57.10000 4.553
57.12000 5.019
57.14000 3.424
57.16000 3.742
57.18000 6.778
57.20000 5.500
57.22000 7.657
57.24000 7.706
57.26000 5.419
57.28000 3.928
57.30000 4.795
57.32000 3.693
57.34000 -2.209
57.36000 2.759
57.38000 5.429
57.40000 5.104
57.42000 6.145
57.44000 2.637
57.46000 7.915
57.48000 9.865
57.50000 7.157
57.52000 5.071
57.54000 4.016
57.56000 5.084
57.58000 0.961
57.60000 1.376
57.62000 3.421
57.64000 2.126
57.66000 0.281
57.68000 3.938
57.70000 5.474
57.72000 5.299
57.74000 6.614
57.76000 8.260
57.78000 2.850
57.80000 2.969
57.82000 3.562
57.84000 3.797
57.86000 5.440
57.88000 5.792
57.90000 2.408
57.92000 -1.594
57.94000 -2.057
57.96000 -0.354
57.98000 1.124
58.00000 -2.076
58.02000 -0.006
58.04000 2.072
58.06000 -1.195
58.08000 1.874
58.10000 3.326
58.12000 4.705
58.14000 5.746
58.16000 3.067
58.18000 3.581
58.20000 2.132
58.22000 4.847
58.24000 4.150
58.26000 2.729
58.28000 0.288
58.30000 0.768
58.32000 1.925
58.34000 1.648
58.36000 5.152
58.38000 6.778
58.40000 3.148
58.42000 3.108
58.44000 4.506
58.46000 4.131
58.48000 -0.207
58.50000 -0.150
58.52000 2.705
58.54000 1.784
58.56000 0.472
58.58000 4.972
58.60000 2.864
58.62000 3.091
58.64000 5.171
58.66000 5.593
58.68000 1.842
58.70000 2.250
58.72000 1.965
58.74000 -0.269
58.76000 3.586
58.78000 5.026
58.80000 2.652
58.82000 0.946
58.84000 4.279
58.86000 6.900
58.88000 3.120
58.90000 0.727
58.92000 2.334
58.94000 2.225
58.96000 0.838
58.98000 1.102
59.00000 -2.204
59.02000 3.208
59.04000 2.864
59.06000 4.262
59.08000 5.114
59.10000 5.805
59.12000 4.622
59.14000 2.468
59.16000 -0.181
59.18000 1.199
59.20000 1.680
59.22000 -0.219
59.24000 -1.862
59.26000 -0.126
59.28000 1.926
59.30000 0.806
59.32000 3.191
59.34000 -0.576
59.36000 2.397
59.38000 3.581
59.40000 1.161
59.42000 -1.490
59.44000 -1.854
59.46000 0.701
59.48000 1.485
59.50000 2.215
59.52000 3.370
59.54000 4.513
59.56000 3.322
59.58000 2.610
59.60000 0.537
59.62000 2.956
59.64000 1.039
59.66000 3.679
59.68000 2.153
59.70000 -1.374
59.72000 -0.198
59.74000 0.624
59.76000 1.249
59.78000 2.692
59.80000 2.984
59.82000 2.455
59.84000 1.887
59.86000 2.513
59.88000 1.447
59.90000 -0.449
59.92000 2.964
59.94000 2.536
59.96000 0.694
59.98000 -1.730
60.00000 3.123
60.02000 1.051
60.04000 4.719
60.06000 5.245
60.08000 2.564
60.10000 1.447
60.12000 0.997
60.14000 1.168
60.16000 2.657
60.18000 2.278
60.20000 0.704
60.22000 0.860
60.24000 3.679
60.26000 1.539
60.28000 -2.142
60.30000 0.361
60.32000 1.542
60.34000 2.011
60.36000 3.736
60.38000 2.750
60.40000 1.923
60.42000 1.310
60.44000 0.649
60.46000 1.658
60.48000 2.374
60.50000 3.869
60.52000 4.691
60.54000 4.291
60.56000 3.084
60.58000 3.391
60.60000 3.439
60.62000 3.591
60.64000 1.150
60.66000 0.695
60.68000 2.922
60.70000 2.162
60.72000 1.550
60.74000 -0.071
60.76000 1.106
60.78000 1.531
60.80000 1.954
60.82000 3.918
60.84000 2.365
60.86000 2.802
60.88000 1.788
60.90000 1.672
60.92000 2.305
60.94000 1.756
60.96000 0.221
60.98000 2.509
61.00000 -0.702
61.02000 -2.077
61.04000 0.834
61.06000 2.005
61.08000 0.967
61.10000 0.638
61.12000 -0.607
61.14000 -2.156
61.16000 0.742
61.18000 -0.219
61.20000 3.924
61.22000 3.746
61.24000 3.068
61.26000 -0.464
61.28000 2.878
61.30000 2.989
61.32000 2.451
61.34000 0.660
61.36000 0.483
61.38000 -0.623
61.40000 -0.590
61.42000 -2.151
61.44000 0.340
61.46000 -1.333
61.48000 -1.361
61.50000 0.918
61.52000 1.757
61.54000 2.388
61.56000 1.169
61.58000 3.058
61.60000 0.588
61.62000 0.729
61.64000 1.195
61.66000 1.177
61.68000 0.038
61.70000 0.062
61.72000 1.507
61.74000 0.269
61.76000 -2.142
61.78000 1.746
61.80000 -1.455
61.82000 0.147
61.84000 -0.710
61.86000 1.625
61.88000 5.189
61.90000 1.811
61.92000 -0.605
61.94000 -0.200
61.96000 3.679
61.98000 1.105
62.00000 0.957
62.02000 1.058
62.04000 2.519
62.06000 1.128
62.08000 1.831
62.10000 4.091
62.12000 1.409
62.14000 -1.383
62.16000 -0.761
62.18000 1.300
62.20000 4.637
62.22000 1.980
62.24000 -0.443
62.26000 0.598
62.28000 0.657
62.30000 0.446
62.32000 -0.934
62.34000 2.448
62.36000 3.544
62.38000 4.508
62.40000 1.153
62.42000 0.985
62.44000 -2.136
62.46000 0.454
62.48000 -0.042
62.50000 1.562
62.52000 1.585
62.54000 0.218
62.56000 -1.789
62.58000 -0.809
62.60000 -0.721
62.62000 0.854
62.64000 0.656
62.66000 -1.125
62.68000 1.025
62.70000 3.696
62.72000 4.074
62.74000 0.518
62.76000 -0.806
62.78000 1.529
62.80000 0.071
62.82000 -0.690
62.84000 -1.645
62.86000 0.588
62.88000 1.317
62.90000 1.735
62.92000 2.223
62.94000 2.877
62.96000 5.517
62.98000 6.433
63.00000 4.290
63.02000 1.407
63.04000 -0.953
63.06000 0.024
63.08000 -2.115
63.10000 0.959
63.12000 1.227
63.14000 0.677
63.16000 -0.010
63.18000 1.921
63.20000 2.411
63.22000 -0.512
63.24000 1.003
63.26000 0.024
63.28000 3.104
63.30000 4.072
63.32000 5.116
63.34000 3.333
63.36000 2.450
63.38000 1.518
63.40000 -2.104
63.42000 1.611
63.44000 3.199
63.46000 1.063
63.48000 3.235
63.50000 2.327
63.52000 2.925
63.54000 2.584
63.56000 2.004
63.58000 1.084
63.60000 4.504
63.62000 2.711
63.64000 1.701
63.66000 0.418
63.68000 0.416
63.70000 -0.227
63.72000 1.723
63.74000 1.502
63.76000 2.787
63.78000 2.637
63.80000 2.587
63.82000 2.848
63.84000 3.426
63.86000 5.093
63.88000 3.521
63.90000 3.298
63.92000 2.074
63.94000 0.007
63.96000 1.305
63.98000 1.738
64.00000 2.859
64.02000 4.998
64.04000 7.268
64.06000 6.155
64.08000 3.144
64.10000 3.527
64.12000 4.546
64.14000 0.666
64.16000 -2.098
64.18000 -0.769
64.20000 2.477
64.22000 1.606
64.24000 -0.570
64.26000 -0.024
64.28000 -1.734
64.30000 1.610
64.32000 -0.402
64.34000 -1.600
64.36000 0.462
64.38000 0.523
64.40000 0.125
64.42000 3.391
64.44000 2.366
64.46000 2.326
64.48000 3.876
64.50000 1.094
64.52000 -1.795
64.54000 2.451
64.56000 1.662
64.58000 0.651
64.60000 2.292
64.62000 3.023
64.64000 0.449
64.66000 2.327
64.68000 3.652
64.70000 0.027
64.72000 -0.861
64.74000 0.331
64.76000 4.093
64.78000 3.649
64.80000 1.976
64.82000 0.616
64.84000 0.216
64.86000 1.659
64.88000 1.490
64.90000 2.703
64.92000 0.825
64.94000 3.543
64.96000 3.508
64.98000 3.120
65.00000 1.467
65.02000 0.708
65.04000 2.535
65.06000 1.690
65.08000 3.805
65.10000 1.041
65.12000 -2.119
65.14000 0.558
65.16000 -0.930
65.18000 -0.268
65.20000 0.042
65.22000 0.531
65.24000 -0.429
65.26000 0.854
65.28000 1.901
65.30000 2.782
65.32000 5.163
65.34000 2.475
65.36000 1.118
65.38000 0.705
65.40000 3.077
65.42000 3.303
65.44000 0.785
65.46000 0.821
65.48000 0.111
65.50000 3.278
65.52000 4.118
65.54000 3.620
65.56000 1.547
65.58000 -0.324
65.60000 0.345
65.62000 2.396
65.64000 3.390
65.66000 2.363
65.68000 1.884
65.70000 0.357
65.72000 -0.354
65.74000 1.284
65.76000 1.358
65.78000 0.092
65.80000 0.255
65.82000 1.791
65.84000 1.195
65.86000 2.495
65.88000 -0.261
65.90000 0.290
65.92000 1.521
65.94000 1.190
65.96000 2.137
65.98000 0.237
66.00000 -0.095
66.02000 -2.101
66.04000 -1.964
66.06000 2.098
66.08000 3.632
66.10000 2.581
66.12000 1.348
66.14000 1.221
66.16000 0.646
66.18000 1.153
66.20000 -2.093
66.22000 -1.931
66.24000 2.118
66.26000 1.672
66.28000 1.242
66.30000 0.779
66.32000 1.290
66.34000 1.534
66.36000 3.000
66.38000 1.171
66.40000 -0.345
66.42000 0.509
66.44000 1.753
66.46000 2.176
66.48000 2.911
66.50000 3.428
66.52000 1.745
66.54000 -0.302
66.56000 -0.926
66.58000 0.321
66.60000 1.696
66.62000 0.166
66.64000 -1.392
66.66000 0.357
66.68000 -0.089
66.70000 0.466
66.72000 0.518
66.74000 -1.068
66.76000 2.006
66.78000 0.519
66.80000 -2.063
66.82000 1.299
66.84000 1.505
66.86000 1.969
66.88000 -0.072
66.90000 0.801
66.92000 0.591
66.94000 -1.159
66.96000 -0.743
66.98000 0.553
67.00000 1.649
67.02000 0.945
67.04000 0.264
67.06000 0.158
67.08000 0.391
67.10000 -0.340
67.12000 1.687
67.14000 1.247
67.16000 -0.222
67.18000 -1.548
67.20000 -0.321
67.22000 -0.967
67.24000 0.663
67.26000 -0.413
67.28000 -1.852
67.30000 0.852
67.32000 0.406
67.34000 -2.160
67.36000 0.007
67.38000 1.638
67.40000 -0.709
67.42000 0.149
67.44000 2.013
67.46000 1.320
67.48000 -0.694
67.50000 -1.511
67.52000 -0.921
67.54000 0.307
67.56000 1.726
67.58000 3.585
67.60000 1.701
67.62000 1.307
67.64000 -1.317
67.66000 -1.024
67.68000 1.818
67.70000 1.582
67.72000 -0.202
67.74000 1.007
67.76000 1.783
67.78000 0.898
67.80000 3.208
67.82000 3.495
67.84000 0.747
67.86000 -0.660
67.88000 2.982
67.90000 2.361
67.92000 0.683
67.94000 0.223
67.96000 1.182
67.98000 2.723
68.00000 2.947
68.02000 -2.158
68.04000 -1.113
68.06000 -0.667
68.08000 0.600
68.10000 1.656
68.12000 3.515
68.14000 2.937
68.16000 6.053
68.18000 2.939
68.20000 2.068
68.22000 4.554
68.24000 5.800
68.26000 7.417
68.28000 5.042
68.30000 2.871
68.32000 4.413
68.34000 3.744
68.36000 5.329
68.38000 4.895
68.40000 3.486
68.42000 7.550
68.44000 9.567
68.46000 8.529
68.48000 9.178
68.50000 11.531
68.52000 11.008
68.54000 7.250
68.56000 8.306
68.58000 8.674
68.60000 9.830
68.62000 11.583
68.64000 15.686
68.66000 14.213
68.68000 9.892
68.70000 10.048
68.72000 13.625
68.74000 16.148
68.76000 15.945
68.78000 19.553
68.80000 18.008
68.82000 16.556
68.84000 16.014
68.86000 17.498
68.88000 19.483
68.90000 19.695
68.92000 18.914
68.94000 17.730
68.96000 16.722
68.98000 17.344
69.00000 20.518
69.02000 20.168
69.04000 15.478
69.06000 15.549
69.08000 17.983
69.10000 16.613
69.12000 16.666
69.14000 22.085
69.16000 23.877
69.18000 20.132
69.20000 16.151
69.22000 14.615
69.24000 16.512
69.26000 17.375
69.28000 16.684
69.30000 15.030
69.32000 12.563
69.34000 12.071
69.36000 12.203
69.38000 14.098
69.40000 12.573
69.42000 12.934
69.44000 15.357
69.46000 12.982
69.48000 11.905
69.50000 10.555
69.52000 8.626
69.54000 5.385
69.56000 10.116
69.58000 7.748
69.60000 6.931
69.62000 8.427
69.64000 8.685
69.66000 7.228
69.68000 6.006
69.70000 4.419
69.72000 7.762
69.74000 4.936
69.76000 4.423
69.78000 5.197
69.80000 5.876
69.82000 6.058
69.84000 5.150
69.86000 2.769
69.88000 6.292
69.90000 5.984
69.92000 4.514
69.94000 3.801
69.96000 2.668
69.98000 2.765
70.00000 2.438
70.02000 2.108
70.04000 0.295
70.06000 -0.799
70.08000 2.904
70.10000 3.583
70.12000 5.406
70.14000 3.490
70.16000 2.051
70.18000 1.695
70.20000 1.259
70.22000 1.435
70.24000 2.975
70.26000 3.387
70.28000 0.517
70.30000 0.163
70.32000 -1.174
70.34000 -2.085
70.36000 0.402
70.38000 4.035
70.40000 1.506
70.42000 1.167
70.44000 4.294
70.46000 2.159
70.48000 1.093
70.50000 1.790
70.52000 -1.503
70.54000 -1.911
70.56000 0.914
70.58000 -1.517
70.60000 2.202
70.62000 1.414
70.64000 3.731
70.66000 0.510
70.68000 -0.145
70.70000 -1.185
70.72000 2.671
70.74000 0.049
70.76000 -1.836
70.78000 -2.059
70.80000 1.030
70.82000 0.668
70.84000 1.127
70.86000 1.671
70.88000 1.025
70.90000 1.656
70.92000 2.810
70.94000 1.077
70.96000 1.886
70.98000 -0.419
71.00000 -0.547
71.02000 1.278
71.04000 3.698
71.06000 1.353
71.08000 -1.569
71.10000 2.152
71.12000 0.938
71.14000 -0.491
71.16000 0.612
71.18000 -0.256
71.20000 -0.043
71.22000 1.966
71.24000 1.924
71.26000 2.004
71.28000 1.428
71.30000 -1.207
71.32000 2.282
71.34000 3.206
71.36000 1.341
71.38000 0.010
71.40000 -1.003
71.42000 -0.775
71.44000 1.269
71.46000 1.658
71.48000 2.053
71.50000 1.987
71.52000 -0.675
71.54000 -0.873
71.56000 1.378
71.58000 2.319
71.60000 2.176
71.62000 -0.472
71.64000 -0.410
71.66000 -0.015
71.68000 1.067
71.70000 1.565
71.72000 -0.173
71.74000 -1.351
71.76000 -1.719
71.78000 0.091
71.80000 -1.956
71.82000 1.014
71.84000 3.304
71.86000 4.435
71.88000 2.409
71.90000 -0.896
71.92000 0.602
71.94000 0.297
71.96000 1.497
71.98000 -0.443
72.00000 0.482
72.02000 3.769
72.04000 4.834
72.06000 2.667
72.08000 0.173
72.10000 -0.516
72.12000 2.568
72.14000 1.522
72.16000 -1.980
72.18000 -1.645
72.20000 1.275
72.22000 2.682
72.24000 3.053
72.26000 0.136
72.28000 2.623
72.30000 2.411
72.32000 0.521
72.34000 1.796
72.36000 -0.247
72.38000 -0.197
72.40000 3.481
72.42000 1.604
72.44000 -1.188
72.46000 0.540
72.48000 2.027
72.50000 4.006
72.52000 5.020
72.54000 2.052
72.56000 0.997
72.58000 0.473
72.60000 3.150
72.62000 1.579
72.64000 -0.062
72.66000 -1.533
72.68000 -0.042
72.70000 1.671
72.72000 0.849
72.74000 2.835
72.76000 1.648
72.78000 0.443
72.80000 1.309
72.82000 1.526
72.84000 0.443
72.86000 1.948
72.88000 1.653
72.90000 1.070
72.92000 4.039
72.94000 3.815
72.96000 2.642
72.98000 2.103
73.00000 2.435
73.02000 5.372
73.04000 2.617
73.06000 2.319
73.08000 3.386
73.10000 1.099
73.12000 1.998
73.14000 5.339
73.16000 3.045
73.18000 1.044
73.20000 3.365
73.22000 -0.473
73.24000 -1.940
73.26000 -0.749
73.28000 2.680
73.30000 4.344
73.32000 3.212
73.34000 2.560
73.36000 1.711
73.38000 0.761
73.40000 -0.207
73.42000 1.040
73.44000 1.532
73.46000 3.279
73.48000 1.682
73.50000 3.267
73.52000 5.189
73.54000 4.873
73.56000 5.370
73.58000 3.599
73.60000 1.133
73.62000 1.247
73.64000 1.708
73.66000 4.392
73.68000 2.441
73.70000 1.025
73.72000 1.873
73.74000 2.600
73.76000 2.137
73.78000 3.659
73.80000 2.535
73.82000 1.927
73.84000 1.680
73.86000 0.461
73.88000 -0.588
73.90000 0.535
73.92000 0.123
73.94000 -0.923
73.96000 -0.754
73.98000 1.248
74.00000 2.963
74.02000 -0.442
74.04000 0.822
74.06000 0.916
74.08000 1.749
74.10000 1.866
74.12000 0.613
74.14000 0.414
74.16000 2.140
74.18000 1.559
74.20000 -0.148
74.22000 -1.922
74.24000 0.718
74.26000 2.740
74.28000 3.298
74.30000 0.640
74.32000 3.085
74.34000 5.660
74.36000 3.805
74.38000 2.938
74.40000 2.099
74.42000 1.195
74.44000 3.223
74.46000 2.163
74.48000 1.348
74.50000 0.907
74.52000 2.230
74.54000 1.824
74.56000 0.871
74.58000 3.881
74.60000 3.204
74.62000 0.341
74.64000 0.560
74.66000 0.883
74.68000 1.096
74.70000 3.794
74.72000 1.227
74.74000 0.418
74.76000 3.155
74.78000 4.996
74.80000 2.969
74.82000 5.594
74.84000 0.225
74.86000 -1.896
74.88000 -1.146
74.90000 2.974
74.92000 2.867
74.94000 4.412
74.96000 3.938
74.98000 4.558
75.00000 1.908
75.02000 1.710
75.04000 1.336
75.06000 3.467
75.08000 3.295
75.10000 2.844
75.12000 5.173
75.14000 3.315
75.16000 3.582
75.18000 2.975
75.20000 2.955
75.22000 0.826
75.24000 3.348
75.26000 6.038
75.28000 1.322
75.30000 3.017
75.32000 0.503
75.34000 2.565
75.36000 3.200
75.38000 1.039
75.40000 -0.217
75.42000 -0.932
75.44000 -0.146
75.46000 0.084
75.48000 1.519
75.50000 0.146
75.52000 0.961
75.54000 3.580
75.56000 -0.658
75.58000 -1.572
75.60000 -0.068
75.62000 -1.948
75.64000 -1.628
75.66000 -0.817
75.68000 3.938
75.70000 3.036
75.72000 2.124
75.74000 3.552
75.76000 1.024
75.78000 -1.133
75.80000 -0.600
75.82000 1.410
75.84000 0.356
75.86000 3.175
75.88000 4.323
75.90000 0.826
75.92000 -1.569
75.94000 0.098
75.96000 3.845
75.98000 2.506
76.00000 0.806
76.02000 -1.007
76.04000 -0.751
76.06000 0.858
76.08000 0.773
76.10000 0.233
76.12000 -0.140
76.14000 0.801
76.16000 -1.703
76.18000 -0.329
76.20000 1.389
76.22000 2.412
76.24000 1.830
76.26000 0.923
76.28000 1.631
76.30000 1.317
76.32000 1.360
76.34000 -0.371
76.36000 2.116
76.38000 2.116
76.40000 2.104
76.42000 1.180
76.44000 3.222
76.46000 1.094
76.48000 -1.588
76.50000 -1.961
76.52000 -1.377
76.54000 0.827
76.56000 5.173
76.58000 3.975
76.60000 0.622
76.62000 2.468
76.64000 0.673
76.66000 2.109
76.68000 2.227
76.70000 2.573
76.72000 1.544
76.74000 2.716
76.76000 6.200
76.78000 -0.678
76.80000 3.280
76.82000 3.755
76.84000 5.421
76.86000 2.713
76.88000 1.078
76.90000 -0.282
76.92000 0.739
76.94000 2.392
76.96000 2.257
76.98000 0.872
77.00000 1.968
77.02000 1.212
77.04000 -1.956
77.06000 2.796
77.08000 3.550
77.10000 3.549
77.12000 2.638
77.14000 4.077
77.16000 4.481
77.18000 4.039
77.20000 3.395
77.22000 1.490
77.24000 1.728
77.26000 -1.946
77.28000 0.977
77.30000 1.140
77.32000 2.845
77.34000 3.315
77.36000 3.270
77.38000 0.663
77.40000 2.076
77.42000 3.713
77.44000 5.241
77.46000 5.372
77.48000 4.390
77.50000 2.504
77.52000 4.953
77.54000 3.337
77.56000 2.098
77.58000 0.664
77.60000 1.754
77.62000 2.387
77.64000 3.550
77.66000 3.607
77.68000 4.090
77.70000 1.814
77.72000 0.685
77.74000 -1.086
77.76000 -0.269
77.78000 0.206
77.80000 1.020
77.82000 3.308
77.84000 0.749
77.86000 4.160
77.88000 3.837
77.90000 0.697
77.92000 0.741
77.94000 0.530
77.96000 -1.858
77.98000 0.184
78.00000 3.948
78.02000 4.381
78.04000 3.185
78.06000 3.602
78.08000 1.956
78.10000 3.040
78.12000 3.373
78.14000 4.148
78.16000 2.403
78.18000 0.224
78.20000 -1.449
78.22000 0.474
78.24000 1.990
78.26000 1.920
78.28000 -0.107
78.30000 -0.818
78.32000 -0.142
78.34000 0.522
78.36000 1.270
78.38000 -1.270
78.40000 0.746
78.42000 3.149
78.44000 0.026
78.46000 1.052
78.48000 -1.975
78.50000 1.757
78.52000 3.572
78.54000 2.028
78.56000 3.663
78.58000 1.353
78.60000 0.696
78.62000 2.831
78.64000 1.810
78.66000 3.063
78.68000 4.536
78.70000 4.196
78.72000 2.907
78.74000 0.042
78.76000 1.761
78.78000 0.648
78.80000 1.374
78.82000 2.416
78.84000 0.795
78.86000 0.519
78.88000 -1.230
78.90000 -0.437
78.92000 0.093
78.94000 1.174
78.96000 0.845
78.98000 3.090
79.00000 3.155
79.02000 3.233
79.04000 0.992
79.06000 -0.499
79.08000 -0.459
79.10000 0.391
79.12000 2.692
79.14000 1.215
79.16000 3.224
79.18000 0.634
79.20000 0.080
79.22000 -0.407
79.24000 -2.024
79.26000 -1.020
79.28000 0.579
79.30000 1.028
79.32000 1.965
79.34000 -1.440
79.36000 1.184
79.38000 2.071
79.40000 -0.262
79.42000 0.779
79.44000 3.470
79.46000 2.061
79.48000 0.086
79.50000 0.566
79.52000 -0.308
79.54000 2.477
79.56000 4.029
79.58000 2.824
79.60000 3.231
79.62000 5.236
79.64000 4.500
79.66000 2.985
79.68000 -2.025
79.70000 -1.677
79.72000 -0.932
79.74000 -1.451
79.76000 1.787
79.78000 3.635
79.80000 2.748
79.82000 1.115
79.84000 1.437
79.86000 1.605
79.88000 1.786
79.90000 3.593
79.92000 3.606
79.94000 -2.025
79.96000 1.069
79.98000 2.430
80.00000 1.745
80.02000 1.692
80.04000 2.013
80.06000 0.329
80.08000 1.356
80.10000 3.798
80.12000 1.724
80.14000 1.807
80.16000 3.563
80.18000 2.304
80.20000 0.924
80.22000 -0.376
80.24000 1.634
80.26000 3.052
80.28000 1.130
80.30000 2.057
80.32000 2.523
80.34000 -0.147
80.36000 3.097
80.38000 5.177
80.40000 6.178
80.42000 3.821
80.44000 0.361
80.46000 1.863
80.48000 3.513
80.50000 3.408
80.52000 3.617
80.54000 2.995
80.56000 2.553
80.58000 4.534
80.60000 2.634
80.62000 3.660
80.64000 3.096
80.66000 2.713
80.68000 2.169
80.70000 0.722
80.72000 -2.021
80.74000 -0.725
80.76000 0.555
80.78000 -0.361
80.80000 2.537
80.82000 0.973
80.84000 3.219
80.86000 1.557
80.88000 3.705
80.90000 3.442
80.92000 3.316
80.94000 -1.138
80.96000 2.685
80.98000 -0.435
81.00000 0.882
81.02000 2.913
81.04000 3.817
81.06000 4.178
81.08000 2.028
81.10000 0.602
81.12000 1.026
81.14000 1.741
81.16000 2.274
81.18000 0.986
81.20000 1.184
81.22000 2.953
81.24000 6.146
81.26000 1.136
81.28000 0.985
81.30000 -2.074
81.32000 -1.548
81.34000 -0.480
81.36000 3.454
81.38000 -0.379
81.40000 -0.500
81.42000 3.630
81.44000 1.641
81.46000 -0.610
81.48000 -1.566
81.50000 1.785
81.52000 2.742
81.54000 2.593
81.56000 1.676
81.58000 3.835
81.60000 3.586
81.62000 2.001
81.64000 1.488
81.66000 3.212
81.68000 4.351
81.70000 5.022
81.72000 4.489
81.74000 1.239
81.76000 2.549
81.78000 -0.456
81.80000 1.837
81.82000 3.043
81.84000 2.500
81.86000 3.635
81.88000 3.160
81.90000 1.601
81.92000 4.492
81.94000 4.261
81.96000 2.669
81.98000 3.563
82.00000 0.837
82.02000 2.853
82.04000 4.105
82.06000 3.894
82.08000 1.318
82.10000 3.081
82.12000 1.823
82.14000 3.844
82.16000 4.094
82.18000 5.931
82.20000 3.272
82.22000 3.412
82.24000 4.528
82.26000 4.770
82.28000 4.537
82.30000 4.356
82.32000 3.479
82.34000 5.909
82.36000 6.849
82.38000 9.592
82.40000 10.356
82.42000 10.355
82.44000 10.710
82.46000 13.359
82.48000 11.825
82.50000 13.275
82.52000 14.016
82.54000 12.836
82.56000 14.083
82.58000 19.569
82.60000 24.631
82.62000 17.412
82.64000 17.013
82.66000 18.753
82.68000 22.509
82.70000 23.288
82.72000 24.831
82.74000 23.725
82.76000 27.362
82.78000 25.821
82.80000 26.271
82.82000 26.641
82.84000 26.835
82.86000 33.665
82.88000 34.694
82.90000 35.440
82.92000 32.765
82.94000 30.245
82.96000 39.970
82.98000 42.326
83.00000 42.502
83.02000 42.940
83.04000 44.094
83.06000 43.183
83.08000 41.428
83.10000 41.832
83.12000 42.170
83.14000 45.019
83.16000 49.201
83.18000 49.915
83.20000 49.156
83.22000 43.903
83.24000 48.945
83.26000 55.020
83.28000 52.048
83.30000 51.619
83.32000 48.444
83.34000 47.777
83.36000 48.090
83.38000 46.029
83.40000 45.593
83.42000 49.849
83.44000 53.180
83.46000 47.194
83.48000 45.529
83.50000 43.614
83.52000 45.421
83.54000 45.628
83.56000 39.460
83.58000 39.865
83.60000 33.555
83.62000 35.919
83.64000 35.910
83.66000 32.772
83.68000 30.198
83.70000 35.252
83.72000 33.026
83.74000 23.514
83.76000 24.886
83.78000 27.374
83.80000 25.816
83.82000 20.302
83.84000 24.920
83.86000 24.635
83.88000 18.996
83.90000 22.651
83.92000 22.828
83.94000 16.078
83.96000 21.445
83.98000 18.570
84.00000 17.057
84.02000 19.476
84.04000 21.066
84.06000 15.125
84.08000 10.944
84.10000 12.891
84.12000 15.974
84.14000 15.128
84.16000 13.316
84.18000 15.949
84.20000 10.723
84.22000 10.395
84.24000 11.318
84.26000 10.860
84.28000 8.897
84.30000 8.519
84.32000 7.330
84.34000 6.172
84.36000 7.218
84.38000 9.789
84.40000 10.030
84.42000 7.651
84.44000 7.892
84.46000 4.982
84.48000 4.410
84.50000 6.073
84.52000 5.877
84.54000 4.405
84.56000 4.245
84.58000 3.102
84.60000 3.672
84.62000 5.232
84.64000 7.056
84.66000 5.715
84.68000 5.070
84.70000 3.067
84.72000 3.530
84.74000 6.728
84.76000 4.079
84.78000 5.214
84.80000 4.397
84.82000 2.635
84.84000 0.986
84.86000 4.813
84.88000 7.575
84.90000 5.512
84.92000 3.084
84.94000 2.923
84.96000 4.213
84.98000 4.572
85.00000 4.064
85.02000 3.958
85.04000 2.599
85.06000 3.548
85.08000 4.437
85.10000 4.123
85.12000 4.552
85.14000 6.584
85.16000 6.949
85.18000 -0.896
85.20000 -2.015
85.22000 2.319
85.24000 2.342
85.26000 1.377
85.28000 3.097
85.30000 5.227
85.32000 1.691
85.34000 0.128
85.36000 -0.503
85.38000 -1.173
85.40000 1.500
85.42000 1.409
85.44000 1.659
85.46000 3.593
85.48000 2.926
85.50000 3.236
85.52000 4.642
85.54000 5.123
85.56000 1.519
85.58000 3.548
85.60000 5.041
85.62000 3.824
85.64000 4.112
85.66000 2.841
85.68000 1.608
85.70000 0.474
85.72000 -1.765
85.74000 0.001
85.76000 0.454
85.78000 0.609
85.80000 1.147
85.82000 0.838
85.84000 0.232
85.86000 -2.034
85.88000 -1.069
85.90000 0.431
85.92000 2.811
85.94000 5.156
85.96000 0.403
85.98000 1.062
86.00000 -1.643
86.02000 -1.448
86.04000 0.213
86.06000 -2.056
86.08000 0.490
86.10000 1.187
86.12000 1.816
86.14000 3.468
86.16000 3.804
86.18000 1.762
86.20000 2.240
86.22000 2.526
86.24000 0.042
86.26000 0.835
86.28000 2.331
86.30000 1.416
86.32000 0.288
86.34000 2.383
86.36000 1.443
86.38000 1.866
86.40000 0.831
86.42000 0.316
86.44000 1.952
86.46000 3.345
86.48000 1.584
86.50000 2.800
86.52000 0.871
86.54000 -2.094
86.56000 1.779
86.58000 1.505
86.60000 0.744
86.62000 1.534
86.64000 0.693
86.66000 0.503
86.68000 4.440
86.70000 6.690
86.72000 4.172
86.74000 3.150
86.76000 3.130
86.78000 0.197
86.80000 -1.162
86.82000 2.460
86.84000 3.713
86.86000 4.413
86.88000 3.454
86.90000 4.689
86.92000 3.965
86.94000 3.479
86.96000 4.213
86.98000 5.490
87.00000 9.514
87.02000 9.939
87.04000 7.871
87.06000 12.374
87.08000 8.269
87.10000 11.150
87.12000 14.987
87.14000 13.457
87.16000 12.900
87.18000 12.983
87.20000 12.962
87.22000 13.573
87.24000 11.830
87.26000 11.248
87.28000 13.278
87.30000 12.203
87.32000 15.192
87.34000 20.748
87.36000 19.275
87.38000 17.084
87.40000 19.078
87.42000 16.533
87.44000 18.085
87.46000 19.092
87.48000 19.087
87.50000 21.587
87.52000 23.908
87.54000 24.013
87.56000 27.336
87.58000 27.529
87.60000 26.145
87.62000 23.715
87.64000 26.076
87.66000 28.591
87.68000 28.664
87.70000 25.279
87.72000 27.121
87.74000 29.883
87.76000 31.813
87.78000 27.424
87.80000 26.109
87.82000 29.048
87.84000 30.030
87.86000 28.146
87.88000 29.214
87.90000 29.653
87.92000 25.216
87.94000 23.546
87.96000 23.671
87.98000 22.721
88.00000 20.302
88.02000 23.370
88.04000 24.548
88.06000 20.784
88.08000 22.200
88.10000 17.181
88.12000 19.163
88.14000 16.363
88.16000 18.036
88.18000 25.162
88.20000 20.943
88.22000 19.593
88.24000 15.485
88.26000 14.647
88.28000 15.004
88.30000 18.530
88.32000 18.854
88.34000 20.744
88.36000 17.014
88.38000 12.678
88.40000 11.910
88.42000 11.298
88.44000 8.853
88.46000 11.704
88.48000 9.789
88.50000 12.101
88.52000 13.362
88.54000 11.984
88.56000 8.369
88.58000 8.644
88.60000 7.786
88.62000 10.467
88.64000 7.501
88.66000 6.403
88.68000 4.390
88.70000 6.656
88.72000 7.496
88.74000 8.429
88.76000 3.789
88.78000 5.474
88.80000 5.847
88.82000 4.987
88.84000 4.218
88.86000 4.569
88.88000 5.651
88.90000 2.278
88.92000 0.340
88.94000 -1.965
88.96000 0.382
88.98000 3.542
89.00000 5.099
89.02000 3.503
89.04000 -0.103
89.06000 4.976
89.08000 7.693
89.10000 5.165
89.12000 0.258
89.14000 0.234
89.16000 4.143
89.18000 3.447
89.20000 3.359
89.22000 4.910
89.24000 6.314
89.26000 3.801
89.28000 -0.416
89.30000 1.696
89.32000 4.517
89.34000 4.252
89.36000 2.430
89.38000 1.860
89.40000 7.282
89.42000 6.922
89.44000 5.689
89.46000 2.401
89.48000 3.470
89.50000 3.573
89.52000 5.403
89.54000 3.114
89.56000 0.732
89.58000 3.491
89.60000 -1.877
89.62000 -1.851
89.64000 0.538
89.66000 3.535
89.68000 3.155
89.70000 1.505
89.72000 4.824
89.74000 1.008
89.76000 -1.879
89.78000 1.706
89.80000 2.090
89.82000 1.184
89.84000 0.286
89.86000 2.473
89.88000 6.333
89.90000 3.739
89.92000 1.454
89.94000 2.615
89.96000 1.770
89.98000 -0.508
90.00000 -0.515
90.02000 0.708
90.04000 0.813
90.06000 -1.141
90.08000 -1.536
90.10000 -0.261
90.12000 0.267
90.14000 -0.183
90.16000 3.634
90.18000 3.747
90.20000 -1.699
90.22000 -1.306
90.24000 1.390
90.26000 0.851
90.28000 2.292
90.30000 -0.094
90.32000 0.840
90.34000 3.385
90.36000 6.298
90.38000 2.972
90.40000 3.050
90.42000 1.439
90.44000 2.364
90.46000 4.998
90.48000 1.095
90.50000 1.430
90.52000 0.808
90.54000 2.512
90.56000 1.089
90.58000 -0.405
90.60000 1.675
90.62000 2.667
90.64000 0.144
90.66000 1.006
90.68000 3.297
90.70000 1.832
90.72000 2.263
90.74000 1.583
90.76000 -0.018
90.78000 0.487
90.80000 2.258
90.82000 -0.384
90.84000 -0.409
90.86000 -0.455
90.88000 -1.863
90.90000 -1.799
90.92000 -0.345
90.94000 0.416
90.96000 -0.102
90.98000 4.248
91.00000 1.010
91.02000 2.826
91.04000 2.261
91.06000 3.211
91.08000 3.874
91.10000 1.412
91.12000 1.542
91.14000 4.881
91.16000 4.630
91.18000 2.703
91.20000 1.915
91.22000 2.330
91.24000 3.296
91.26000 4.912
91.28000 3.745
91.30000 4.263
91.32000 4.383
91.34000 2.669
91.36000 1.097
91.38000 0.976
91.40000 4.213
91.42000 6.020
91.44000 7.141
91.46000 5.528
91.48000 5.805
91.50000 5.924
91.52000 7.818
91.54000 6.047
91.56000 5.008
91.58000 2.963
91.60000 -1.808
91.62000 2.369
91.64000 5.509
91.66000 4.229
91.68000 7.353
91.70000 4.990
91.72000 4.556
91.74000 2.648
91.76000 -0.539
91.78000 -0.930
91.80000 5.761
91.82000 3.426
91.84000 4.422
91.86000 1.496
91.88000 4.947
91.90000 2.444
91.92000 1.427
91.94000 2.815
91.96000 2.678
91.98000 1.499
92.00000 -1.428
92.02000 -1.227
92.04000 1.513
92.06000 7.136
92.08000 6.880
92.10000 2.676
92.12000 2.892
92.14000 2.010
92.16000 2.048
92.18000 5.338
92.20000 6.172
92.22000 2.021
92.24000 3.970
92.26000 3.895
92.28000 2.305
92.30000 2.222
92.32000 3.197
92.34000 6.906
92.36000 2.341
92.38000 2.500
92.40000 3.971
92.42000 2.698
92.44000 2.376
92.46000 1.328
92.48000 1.697
92.50000 -0.430
92.52000 0.535
92.54000 3.939
92.56000 7.029
92.58000 3.168
92.60000 1.214
92.62000 0.767
92.64000 1.845
92.66000 2.963
92.68000 1.498
92.70000 0.096
92.72000 2.099
92.74000 1.760
92.76000 -1.222
92.78000 -0.128
92.80000 -1.838
92.82000 2.942
92.84000 5.476
92.86000 0.387
92.88000 3.948
92.90000 3.560
92.92000 5.634
92.94000 1.200
92.96000 0.033
92.98000 1.582
93.00000 3.013
93.02000 1.901
93.04000 2.972
93.06000 4.759
93.08000 3.406
93.10000 4.117
93.12000 2.844
93.14000 2.513
93.16000 5.503
93.18000 3.530
93.20000 2.330
93.22000 1.914
93.24000 1.762
93.26000 2.134
93.28000 3.405
93.30000 7.066
93.32000 7.498
93.34000 3.986
93.36000 4.268
93.38000 4.618
93.40000 7.305
93.42000 5.913
93.44000 2.955
93.46000 5.294
93.48000 3.826
93.50000 3.851
93.52000 3.305
93.54000 6.599
93.56000 4.404
93.58000 4.514
93.60000 3.768
93.62000 1.552
93.64000 3.085
93.66000 0.462
93.68000 2.326
93.70000 4.920
93.72000 2.399
93.74000 -0.096
93.76000 3.215
93.78000 6.067
93.80000 4.315
93.82000 5.644
93.84000 5.433
93.86000 -0.711
93.88000 -1.873
93.90000 0.408
93.92000 2.784
93.94000 3.268
93.96000 -1.009
93.98000 4.133
94.00000 1.985
94.02000 4.453
94.04000 5.311
94.06000 3.211
94.08000 2.444
94.10000 2.846
94.12000 5.215
94.14000 6.317
94.16000 3.770
94.18000 4.109
94.20000 6.063
94.22000 3.900
94.24000 -0.564
94.26000 2.384
94.28000 5.839
94.30000 6.862
94.32000 2.969
94.34000 2.104
94.36000 3.224
94.38000 3.305
94.40000 1.981
94.42000 3.771
94.44000 -0.378
94.46000 0.916
94.48000 3.708
94.50000 4.506
94.52000 2.351
94.54000 0.526
94.56000 -0.263
94.58000 -1.866
94.60000 0.842
94.62000 2.619
94.64000 1.106
94.66000 2.042
94.68000 4.520
94.70000 5.218
94.72000 3.294
94.74000 0.375
94.76000 4.810
94.78000 4.815
94.80000 4.948
94.82000 3.151
94.84000 3.056
94.86000 4.979
94.88000 2.863
94.90000 0.811
94.92000 0.601
94.94000 3.793
94.96000 3.278
94.98000 3.229
95.00000 4.420
95.02000 3.953
95.04000 3.452
95.06000 2.932
95.08000 1.788
95.10000 0.687
95.12000 0.174
95.14000 2.678
95.16000 1.431
95.18000 2.935
95.20000 2.623
95.22000 3.444
95.24000 4.441
95.26000 3.589
95.28000 3.325
95.30000 4.070
95.32000 3.066
95.34000 5.412
95.36000 4.748
95.38000 2.997
95.40000 2.684
95.42000 3.401
95.44000 2.205
95.46000 1.394
95.48000 5.711
95.50000 4.682
95.52000 1.287
95.54000 1.840
95.56000 3.810
95.58000 0.207
95.60000 3.326
95.62000 3.557
95.64000 3.495
95.66000 1.751
95.68000 3.825
95.70000 5.385
95.72000 1.856
95.74000 2.241
95.76000 3.959
95.78000 3.314
95.80000 4.861
95.82000 8.992
95.84000 4.912
95.86000 0.067
95.88000 2.666
95.90000 4.939
95.92000 6.951
95.94000 1.655
95.96000 0.476
95.98000 0.538
96.00000 -1.875
96.02000 2.326
96.04000 4.646
96.06000 6.464
96.08000 7.341
96.10000 4.766
96.12000 2.079
96.14000 0.606
96.16000 3.042
96.18000 4.662
96.20000 9.092
96.22000 6.564
96.24000 6.987
96.26000 2.133
96.28000 4.530
96.30000 0.953
96.32000 3.367
96.34000 3.219
96.36000 0.706
96.38000 1.027
96.40000 5.146
96.42000 4.086
96.44000 1.753
96.46000 3.875
96.48000 1.785
96.50000 5.877
96.52000 6.544
96.54000 1.059
96.56000 -0.029
96.58000 -0.584
96.60000 1.595
96.62000 1.233
96.64000 1.797
96.66000 1.134
96.68000 2.075
96.70000 5.120
96.72000 5.811
96.74000 3.312
96.76000 4.197
96.78000 3.854
96.80000 0.964
96.82000 4.533
96.84000 4.679
96.86000 5.022
96.88000 6.150
96.90000 2.996
96.92000 1.256
96.94000 8.394
96.96000 11.166
96.98000 2.589
97.00000 -1.878
97.02000 1.524
97.04000 6.265
97.06000 0.884
97.08000 4.662
97.10000 5.367
97.12000 0.192
97.14000 6.427
97.16000 6.339
97.18000 0.967
97.20000 1.956
97.22000 0.270
97.24000 2.468
97.26000 2.386
97.28000 3.366
97.30000 1.643
97.32000 2.107
97.34000 3.206
97.36000 4.288
97.38000 0.944
97.40000 1.303
97.42000 2.832
97.44000 6.213
97.46000 3.497
97.48000 2.205
97.50000 3.348
97.52000 7.890
97.54000 9.206
97.56000 6.003
97.58000 2.336
97.60000 0.131
97.62000 0.730
97.64000 2.593
97.66000 3.730
97.68000 2.128
97.70000 2.127
97.72000 2.267
97.74000 3.493
97.76000 4.828
97.78000 4.936
97.80000 4.433
97.82000 6.810
97.84000 4.513
97.86000 2.946
97.88000 4.670
97.90000 3.931
97.92000 4.154
97.94000 5.034
97.96000 0.630
97.98000 2.980
98.00000 6.324
98.02000 8.516
98.04000 6.939
98.06000 5.828
98.08000 3.151
98.10000 2.280
98.12000 4.821
98.14000 7.074
98.16000 6.975
98.18000 4.359
98.20000 8.004
98.22000 7.356
98.24000 0.326
98.26000 1.214
98.28000 1.353
98.30000 2.643
98.32000 4.785
98.34000 3.790
98.36000 7.670
98.38000 9.305
98.40000 11.081
98.42000 6.652
98.44000 5.842
98.46000 13.661
98.48000 12.255
98.50000 12.297
98.52000 0.464
98.54000 -1.294
98.56000 -1.742
98.58000 5.978
98.60000 11.269
98.62000 10.351
98.64000 7.156
98.66000 4.671
98.68000 3.061
98.70000 4.532
98.72000 8.251
98.74000 10.758
98.76000 10.105
98.78000 5.362
98.80000 10.633
98.82000 6.763
98.84000 0.504
98.86000 2.845
98.88000 5.438
98.90000 8.497
98.92000 9.315
98.94000 6.233
98.96000 1.799
98.98000 5.155
99.00000 1.941
99.02000 6.473
99.04000 3.203
99.06000 4.700
99.08000 7.973
99.10000 9.238
99.12000 5.356
99.14000 0.557
99.16000 1.989
99.18000 1.701
99.20000 2.133
99.22000 3.099
99.24000 -1.708
99.26000 0.955
99.28000 2.342
99.30000 2.731
99.32000 10.999
99.34000 8.958
99.36000 6.154
99.38000 9.421
99.40000 -3.019
99.42000 3.721
99.44000 -0.789
99.46000 1.820
99.48000 4.179
99.50000 0.617
99.52000 -0.939
99.54000 -1.050
99.56000 7.421
99.58000 1.935
99.60000 5.325
99.62000 10.933
99.64000 10.781
99.66000 8.962
99.68000 6.312
99.70000 6.268
99.72000 -0.225
99.74000 1.291
99.76000 0.440
99.78000 0.643
99.80000 1.243
99.82000 11.403
99.84000 7.738
99.86000 -1.403
99.88000 -1.899
99.90000 3.513
99.92000 1.360
99.94000 2.646
99.96000 1.309
99.98000 0.000
