'Id: "0011389" Comment: "Integrate frame 0011389_Au-Ir-Rh_Au-Rich_XRD_Mapping-063-0000.gfrmwith cursor Wedge Cursor #5" Operator: "B?rgel" Anode: "Cu" Wavelength: "1.5406" Scantype: "2Theta (TwoTheta)" TimePerStep: "1" X: "-9" Y: "-22.5" Z: "5.95" 
10.00000 0.000
10.02000 -4.306
10.04000 -3.714
10.06000 -4.246
10.08000 13.760
10.10000 17.831
10.12000 6.956
10.14000 7.835
10.16000 36.533
10.18000 21.842
10.20000 -2.858
10.22000 10.065
10.24000 18.210
10.26000 22.159
10.28000 25.804
10.30000 20.235
10.32000 8.932
10.34000 13.626
10.36000 21.026
10.38000 20.690
10.40000 10.621
10.42000 -2.275
10.44000 5.342
10.46000 13.322
10.48000 12.628
10.50000 14.276
10.52000 12.175
10.54000 7.784
10.56000 19.064
10.58000 29.158
10.60000 5.215
10.62000 -1.927
10.64000 3.722
10.66000 17.951
10.68000 24.476
10.70000 14.413
10.72000 5.810
10.74000 7.072
10.76000 11.904
10.78000 11.066
10.80000 20.664
10.82000 7.240
10.84000 6.983
10.86000 10.316
10.88000 22.329
10.90000 20.033
10.92000 21.619
10.94000 22.404
10.96000 17.448
10.98000 8.629
11.00000 9.775
11.02000 21.292
11.04000 13.414
11.06000 16.438
11.08000 11.341
11.10000 5.045
11.12000 11.928
11.14000 10.859
11.16000 14.449
11.18000 20.717
11.20000 9.892
11.22000 1.604
11.24000 -4.344
11.26000 12.861
11.28000 19.743
11.30000 9.610
11.32000 10.599
11.34000 14.386
11.36000 14.183
11.38000 17.273
11.40000 13.815
11.42000 11.401
11.44000 11.517
11.46000 8.033
11.48000 8.219
11.50000 13.596
11.52000 8.379
11.54000 15.863
11.56000 19.226
11.58000 19.101
11.60000 22.279
11.62000 12.898
11.64000 5.674
11.66000 17.843
11.68000 23.272
11.70000 18.220
11.72000 24.116
11.74000 20.556
11.76000 14.300
11.78000 12.083
11.80000 3.091
11.82000 1.281
11.84000 -4.381
11.86000 5.683
11.88000 17.644
11.90000 13.812
11.92000 22.981
11.94000 19.173
11.96000 15.713
11.98000 15.798
12.00000 16.820
12.02000 21.097
12.04000 15.423
12.06000 9.901
12.08000 2.825
12.10000 14.790
12.12000 20.417
12.14000 15.112
12.16000 17.667
12.18000 6.340
12.20000 20.380
12.22000 19.100
12.24000 10.724
12.26000 15.417
12.28000 9.206
12.30000 15.895
12.32000 17.064
12.34000 19.222
12.36000 18.252
12.38000 17.075
12.40000 20.092
12.42000 26.427
12.44000 14.987
12.46000 17.066
12.48000 21.918
12.50000 12.701
12.52000 12.450
12.54000 9.764
12.56000 9.185
12.58000 5.188
12.60000 9.402
12.62000 13.369
12.64000 10.903
12.66000 21.201
12.68000 16.231
12.70000 14.899
12.72000 20.439
12.74000 4.206
12.76000 7.757
12.78000 17.471
12.80000 14.257
12.82000 10.754
12.84000 18.975
12.86000 13.113
12.88000 14.378
12.90000 3.565
12.92000 10.346
12.94000 13.274
12.96000 9.258
12.98000 16.153
13.00000 17.755
13.02000 4.857
13.04000 7.900
13.06000 6.842
13.08000 3.653
13.10000 3.872
13.12000 7.704
13.14000 14.588
13.16000 6.715
13.18000 11.362
13.20000 18.906
13.22000 3.701
13.24000 8.503
13.26000 6.252
13.28000 7.769
13.30000 11.880
13.32000 13.002
13.34000 17.302
13.36000 4.512
13.38000 -1.221
13.40000 2.821
13.42000 11.372
13.44000 16.179
13.46000 8.603
13.48000 1.598
13.50000 7.921
13.52000 7.602
13.54000 10.925
13.56000 8.665
13.58000 12.918
13.60000 7.329
13.62000 10.475
13.64000 15.525
13.66000 9.525
13.68000 4.780
13.70000 -2.998
13.72000 -0.929
13.74000 14.386
13.76000 2.975
13.78000 6.197
13.80000 1.905
13.82000 -3.025
13.84000 6.951
13.86000 15.398
13.88000 15.005
13.90000 3.342
13.92000 -1.242
13.94000 7.351
13.96000 4.989
13.98000 2.720
14.00000 7.999
14.02000 0.196
14.04000 3.478
14.06000 8.627
14.08000 0.952
14.10000 3.531
14.12000 4.116
14.14000 5.905
14.16000 5.026
14.18000 8.200
14.20000 11.549
14.22000 2.631
14.24000 7.210
14.26000 11.308
14.28000 2.701
14.30000 10.069
14.32000 10.549
14.34000 9.570
14.36000 5.970
14.38000 4.011
14.40000 1.600
14.42000 7.421
14.44000 10.434
14.46000 6.652
14.48000 1.939
14.50000 10.935
14.52000 4.777
14.54000 12.105
14.56000 10.135
14.58000 4.487
14.60000 5.177
14.62000 -1.729
14.64000 2.952
14.66000 3.044
14.68000 -2.813
14.70000 -3.137
14.72000 7.858
14.74000 16.104
14.76000 8.303
14.78000 2.902
14.80000 11.894
14.82000 1.707
14.84000 2.242
14.86000 6.476
14.88000 9.898
14.90000 0.806
14.92000 1.459
14.94000 6.229
14.96000 7.735
14.98000 5.591
15.00000 8.276
15.02000 15.027
15.04000 8.134
15.06000 2.579
15.08000 6.101
15.10000 0.058
15.12000 0.556
15.14000 -3.894
15.16000 -1.695
15.18000 4.627
15.20000 6.333
15.22000 7.433
15.24000 3.753
15.26000 3.797
15.28000 3.627
15.30000 4.613
15.32000 -4.464
15.34000 -0.735
15.36000 0.620
15.38000 1.954
15.40000 -2.714
15.42000 4.305
15.44000 2.172
15.46000 0.352
15.48000 11.104
15.50000 16.749
15.52000 13.735
15.54000 8.175
15.56000 0.683
15.58000 1.914
15.60000 7.699
15.62000 11.729
15.64000 11.137
15.66000 13.357
15.68000 8.133
15.70000 1.783
15.72000 3.509
15.74000 8.953
15.76000 10.368
15.78000 6.934
15.80000 3.472
15.82000 5.776
15.84000 5.417
15.86000 4.766
15.88000 8.309
15.90000 4.165
15.92000 6.020
15.94000 2.319
15.96000 1.240
15.98000 6.053
16.00000 -0.633
16.02000 7.997
16.04000 7.859
16.06000 6.435
16.08000 -1.739
16.10000 -2.323
16.12000 5.380
16.14000 1.070
16.16000 -2.035
16.18000 3.915
16.20000 6.430
16.22000 5.410
16.24000 6.569
16.26000 2.325
16.28000 2.280
16.30000 7.105
16.32000 6.564
16.34000 -0.890
16.36000 -3.001
16.38000 -4.413
16.40000 -3.556
16.42000 3.937
16.44000 -3.425
16.46000 11.343
16.48000 7.451
16.50000 5.314
16.52000 3.115
16.54000 -2.979
16.56000 1.017
16.58000 -1.840
16.60000 -1.732
16.62000 -1.456
16.64000 4.345
16.66000 6.943
16.68000 10.320
16.70000 12.256
16.72000 5.792
16.74000 0.311
16.76000 4.736
16.78000 0.439
16.80000 2.237
16.82000 0.721
16.84000 7.459
16.86000 5.921
16.88000 3.837
16.90000 4.082
16.92000 3.843
16.94000 2.203
16.96000 6.823
16.98000 7.761
17.00000 4.744
17.02000 5.143
17.04000 6.380
17.06000 3.655
17.08000 9.369
17.10000 1.677
17.12000 -0.558
17.14000 5.243
17.16000 1.542
17.18000 -0.145
17.20000 5.354
17.22000 7.817
17.24000 14.489
17.26000 5.297
17.28000 1.474
17.30000 3.825
17.32000 1.170
17.34000 3.754
17.36000 1.167
17.38000 1.122
17.40000 8.618
17.42000 8.229
17.44000 5.710
17.46000 10.443
17.48000 9.305
17.50000 1.975
17.52000 0.455
17.54000 2.661
17.56000 6.013
17.58000 11.968
17.60000 2.423
17.62000 -1.476
17.64000 -1.792
17.66000 4.121
17.68000 7.977
17.70000 -4.337
17.72000 6.150
17.74000 9.671
17.76000 -1.951
17.78000 -0.775
17.80000 5.244
17.82000 5.034
17.84000 6.869
17.86000 7.002
17.88000 13.067
17.90000 13.101
17.92000 7.889
17.94000 7.669
17.96000 0.192
17.98000 2.116
18.00000 11.582
18.02000 8.928
18.04000 8.023
18.06000 1.616
18.08000 3.735
18.10000 6.844
18.12000 5.915
18.14000 -0.072
18.16000 -1.553
18.18000 2.498
18.20000 5.036
18.22000 9.371
18.24000 4.483
18.26000 6.104
18.28000 0.018
18.30000 -2.923
18.32000 4.499
18.34000 10.738
18.36000 8.008
18.38000 9.224
18.40000 11.118
18.42000 9.981
18.44000 7.568
18.46000 9.385
18.48000 8.065
18.50000 3.161
18.52000 6.014
18.54000 1.628
18.56000 3.111
18.58000 6.416
18.60000 0.677
18.62000 1.676
18.64000 -4.283
18.66000 -0.493
18.68000 2.377
18.70000 4.348
18.72000 5.981
18.74000 6.558
18.76000 8.585
18.78000 8.732
18.80000 6.479
18.82000 7.562
18.84000 4.630
18.86000 8.369
18.88000 8.626
18.90000 7.308
18.92000 12.497
18.94000 9.622
18.96000 -2.975
18.98000 -2.031
19.00000 6.624
19.02000 7.827
19.04000 6.310
19.06000 2.495
19.08000 -0.942
19.10000 4.453
19.12000 7.581
19.14000 9.683
19.16000 14.127
19.18000 13.487
19.20000 9.116
19.22000 0.559
19.24000 4.285
19.26000 3.493
19.28000 5.481
19.30000 8.912
19.32000 6.114
19.34000 6.033
19.36000 5.040
19.38000 9.438
19.40000 9.458
19.42000 7.928
19.44000 5.390
19.46000 5.920
19.48000 3.967
19.50000 -0.966
19.52000 2.773
19.54000 6.243
19.56000 13.683
19.58000 9.890
19.60000 4.340
19.62000 0.893
19.64000 -4.235
19.66000 -2.538
19.68000 -1.084
19.70000 -0.246
19.72000 0.891
19.74000 4.058
19.76000 13.291
19.78000 7.531
19.80000 2.959
19.82000 7.479
19.84000 7.207
19.86000 6.670
19.88000 8.234
19.90000 7.115
19.92000 -2.528
19.94000 -1.741
19.96000 4.411
19.98000 0.543
20.00000 0.370
20.02000 5.444
20.04000 3.456
20.06000 4.480
20.08000 -2.103
20.10000 -1.381
20.12000 1.378
20.14000 2.205
20.16000 5.870
20.18000 2.864
20.20000 3.193
20.22000 2.884
20.24000 11.691
20.26000 13.348
20.28000 9.596
20.30000 9.023
20.32000 7.299
20.34000 11.224
20.36000 13.651
20.38000 8.041
20.40000 6.020
20.42000 0.225
20.44000 -0.544
20.46000 3.814
20.48000 3.735
20.50000 5.262
20.52000 11.369
20.54000 0.946
20.56000 -4.157
20.58000 1.259
20.60000 3.027
20.62000 4.968
20.64000 4.055
20.66000 6.993
20.68000 0.557
20.70000 6.889
20.72000 4.707
20.74000 2.212
20.76000 4.994
20.78000 4.827
20.80000 8.438
20.82000 6.577
20.84000 5.464
20.86000 8.204
20.88000 13.040
20.90000 12.052
20.92000 8.892
20.94000 11.800
20.96000 5.540
20.98000 4.986
21.00000 10.836
21.02000 12.849
21.04000 6.867
21.06000 10.781
21.08000 11.767
21.10000 1.517
21.12000 -1.648
21.14000 2.488
21.16000 7.491
21.18000 3.296
21.20000 6.805
21.22000 11.887
21.24000 14.708
21.26000 10.813
21.28000 6.193
21.30000 9.608
21.32000 16.084
21.34000 10.851
21.36000 0.299
21.38000 -4.118
21.40000 3.377
21.42000 13.879
21.44000 13.594
21.46000 10.021
21.48000 10.053
21.50000 4.426
21.52000 2.464
21.54000 4.132
21.56000 2.351
21.58000 4.076
21.60000 8.474
21.62000 10.290
21.64000 10.761
21.66000 8.931
21.68000 5.617
21.70000 3.836
21.72000 2.499
21.74000 6.381
21.76000 5.214
21.78000 4.584
21.80000 0.316
21.82000 1.872
21.84000 4.202
21.86000 3.398
21.88000 5.178
21.90000 4.091
21.92000 1.587
21.94000 4.394
21.96000 3.762
21.98000 4.071
22.00000 2.496
22.02000 4.821
22.04000 2.850
22.06000 4.250
22.08000 4.260
22.10000 4.771
22.12000 8.006
22.14000 10.677
22.16000 15.366
22.18000 14.763
22.20000 6.952
22.22000 1.447
22.24000 2.540
22.26000 -2.210
22.28000 -1.233
22.30000 4.924
22.32000 1.518
22.34000 1.919
22.36000 3.816
22.38000 -0.951
22.40000 -2.993
22.42000 -0.911
22.44000 2.961
22.46000 0.091
22.48000 -3.369
22.50000 0.203
22.52000 1.795
22.54000 6.640
22.56000 2.557
22.58000 0.322
22.60000 2.125
22.62000 4.784
22.64000 -1.221
22.66000 -0.556
22.68000 2.346
22.70000 9.921
22.72000 6.083
22.74000 -1.728
22.76000 3.161
22.78000 2.786
22.80000 1.735
22.82000 -0.713
22.84000 -4.070
22.86000 -1.045
22.88000 0.877
22.90000 3.837
22.92000 3.121
22.94000 -2.550
22.96000 -1.023
22.98000 3.662
23.00000 -0.633
23.02000 3.706
23.04000 4.951
23.06000 -0.154
23.08000 4.691
23.10000 4.822
23.12000 -0.191
23.14000 1.973
23.16000 3.567
23.18000 2.522
23.20000 -0.006
23.22000 1.115
23.24000 3.549
23.26000 4.029
23.28000 3.103
23.30000 6.029
23.32000 5.861
23.34000 -1.022
23.36000 1.918
23.38000 4.729
23.40000 1.961
23.42000 0.974
23.44000 -4.029
23.46000 -3.974
23.48000 0.373
23.50000 -2.607
23.52000 0.995
23.54000 -0.210
23.56000 0.127
23.58000 2.833
23.60000 5.650
23.62000 3.242
23.64000 5.463
23.66000 4.124
23.68000 5.262
23.70000 3.361
23.72000 6.517
23.74000 8.175
23.76000 8.751
23.78000 3.680
23.80000 0.705
23.82000 1.788
23.84000 0.865
23.86000 0.704
23.88000 8.147
23.90000 5.254
23.92000 -4.000
23.94000 -3.818
23.96000 -3.100
23.98000 -1.504
24.00000 5.544
24.02000 5.482
24.04000 0.305
24.06000 1.128
24.08000 7.700
24.10000 2.506
24.12000 1.388
24.14000 1.289
24.16000 4.844
24.18000 4.226
24.20000 6.051
24.22000 3.920
24.24000 1.817
24.26000 -1.314
24.28000 3.248
24.30000 3.380
24.32000 6.535
24.34000 7.701
24.36000 8.222
24.38000 2.733
24.40000 4.472
24.42000 1.725
24.44000 0.221
24.46000 7.243
24.48000 10.761
24.50000 6.884
24.52000 5.985
24.54000 3.735
24.56000 0.920
24.58000 -3.944
24.60000 -1.067
24.62000 -1.480
24.64000 6.465
24.66000 1.547
24.68000 2.557
24.70000 7.217
24.72000 6.056
24.74000 4.940
24.76000 7.878
24.78000 7.457
24.80000 5.830
24.82000 4.869
24.84000 5.176
24.86000 5.128
24.88000 2.967
24.90000 -0.069
24.92000 3.165
24.94000 4.638
24.96000 2.729
24.98000 -0.257
25.00000 0.375
25.02000 5.909
25.04000 2.436
25.06000 -0.364
25.08000 -0.303
25.10000 1.025
25.12000 2.003
25.14000 5.307
25.16000 2.907
25.18000 -2.290
25.20000 3.607
25.22000 2.775
25.24000 -0.692
25.26000 5.257
25.28000 9.996
25.30000 8.131
25.32000 -1.587
25.34000 -3.898
25.36000 1.278
25.38000 6.112
25.40000 3.585
25.42000 -0.047
25.44000 2.128
25.46000 -3.917
25.48000 -1.683
25.50000 -1.552
25.52000 3.047
25.54000 8.731
25.56000 4.732
25.58000 8.041
25.60000 11.996
25.62000 3.604
25.64000 -0.561
25.66000 -1.653
25.68000 1.677
25.70000 1.103
25.72000 -3.909
25.74000 -1.797
25.76000 1.182
25.78000 3.802
25.80000 7.280
25.82000 4.219
25.84000 2.581
25.86000 3.630
25.88000 -1.202
25.90000 -0.433
25.92000 0.666
25.94000 2.236
25.96000 5.183
25.98000 -0.075
26.00000 7.023
26.02000 9.447
26.04000 2.434
26.06000 4.215
26.08000 7.263
26.10000 4.669
26.12000 2.585
26.14000 0.403
26.16000 -0.148
26.18000 2.204
26.20000 1.445
26.22000 2.750
26.24000 -1.173
26.26000 -2.843
26.28000 4.869
26.30000 4.784
26.32000 2.704
26.34000 8.305
26.36000 3.444
26.38000 2.131
26.40000 3.689
26.42000 2.503
26.44000 4.108
26.46000 -1.809
26.48000 -3.821
26.50000 6.250
26.52000 6.938
26.54000 7.649
26.56000 5.159
26.58000 0.517
26.60000 -2.049
26.62000 -0.519
26.64000 -1.213
26.66000 0.183
26.68000 -1.020
26.70000 -0.262
26.72000 -0.157
26.74000 -0.511
26.76000 -0.066
26.78000 -3.870
26.80000 2.213
26.82000 4.897
26.84000 2.661
26.86000 2.818
26.88000 1.312
26.90000 -1.714
26.92000 -1.023
26.94000 0.220
26.96000 -0.314
26.98000 5.135
27.00000 3.174
27.02000 3.777
27.04000 -2.910
27.06000 -1.270
27.08000 1.035
27.10000 2.396
27.12000 -0.589
27.14000 0.020
27.16000 -3.843
27.18000 -3.467
27.20000 6.238
27.22000 5.094
27.24000 1.547
27.26000 -0.881
27.28000 -1.080
27.30000 2.886
27.32000 4.799
27.34000 -0.615
27.36000 1.137
27.38000 4.711
27.40000 2.230
27.42000 -1.269
27.44000 -1.093
27.46000 -1.518
27.48000 3.117
27.50000 1.651
27.52000 5.344
27.54000 5.416
27.56000 3.982
27.58000 0.377
27.60000 -1.653
27.62000 3.686
27.64000 -0.496
27.66000 2.342
27.68000 5.550
27.70000 0.033
27.72000 -3.346
27.74000 0.080
27.76000 -0.524
27.78000 4.767
27.80000 4.985
27.82000 7.795
27.84000 6.535
27.86000 2.422
27.88000 7.183
27.90000 1.504
27.92000 -0.036
27.94000 2.103
27.96000 1.981
27.98000 -0.984
28.00000 2.127
28.02000 3.667
28.04000 3.705
28.06000 5.327
28.08000 0.865
28.10000 0.968
28.12000 -1.121
28.14000 3.718
28.16000 10.426
28.18000 8.062
28.20000 6.841
28.22000 7.348
28.24000 4.228
28.26000 -3.391
28.28000 3.920
28.30000 5.090
28.32000 -1.048
28.34000 -3.758
28.36000 2.576
28.38000 0.716
28.40000 -1.819
28.42000 4.570
28.44000 4.775
28.46000 3.075
28.48000 3.157
28.50000 -2.746
28.52000 -3.750
28.54000 1.608
28.56000 0.974
28.58000 1.321
28.60000 -2.167
28.62000 0.888
28.64000 1.303
28.66000 0.741
28.68000 4.277
28.70000 7.208
28.72000 4.808
28.74000 3.417
28.76000 4.475
28.78000 5.117
28.80000 5.084
28.82000 5.178
28.84000 0.653
28.86000 -0.264
28.88000 0.644
28.90000 2.794
28.92000 1.388
28.94000 -0.565
28.96000 3.528
28.98000 6.177
29.00000 4.977
29.02000 4.267
29.04000 7.379
29.06000 5.320
29.08000 0.405
29.10000 2.751
29.12000 4.218
29.14000 -0.749
29.16000 5.823
29.18000 7.515
29.20000 2.564
29.22000 2.069
29.24000 0.058
29.26000 -3.662
29.28000 -3.304
29.30000 -3.715
29.32000 2.314
29.34000 6.579
29.36000 6.745
29.38000 -1.912
29.40000 -1.305
29.42000 -1.262
29.44000 -0.149
29.46000 7.197
29.48000 2.684
29.50000 0.254
29.52000 2.448
29.54000 0.400
29.56000 3.203
29.58000 2.754
29.60000 1.558
29.62000 -1.560
29.64000 2.809
29.66000 8.939
29.68000 4.691
29.70000 -2.194
29.72000 -3.685
29.74000 -1.324
29.76000 2.310
29.78000 4.296
29.80000 2.791
29.82000 3.242
29.84000 0.623
29.86000 3.755
29.88000 6.591
29.90000 2.816
29.92000 1.417
29.94000 8.967
29.96000 5.659
29.98000 -0.329
30.00000 1.961
30.02000 3.994
30.04000 3.052
30.06000 4.009
30.08000 2.366
30.10000 -1.844
30.12000 -2.718
30.14000 1.031
30.16000 -1.256
30.18000 -0.948
30.20000 -2.586
30.22000 0.647
30.24000 5.025
30.26000 4.079
30.28000 1.149
30.30000 -1.599
30.32000 4.307
30.34000 -0.387
30.36000 -2.051
30.38000 0.974
30.40000 3.553
30.42000 4.016
30.44000 2.401
30.46000 3.311
30.48000 4.807
30.50000 2.609
30.52000 -0.397
30.54000 4.984
30.56000 4.820
30.58000 1.850
30.60000 1.970
30.62000 1.205
30.64000 2.541
30.66000 1.938
30.68000 -0.034
30.70000 0.134
30.72000 5.243
30.74000 7.567
30.76000 4.802
30.78000 4.531
30.80000 6.468
30.82000 2.772
30.84000 2.724
30.86000 0.754
30.88000 2.791
30.90000 3.547
30.92000 3.957
30.94000 -3.491
30.96000 -0.506
30.98000 2.044
31.00000 -2.870
31.02000 -2.958
31.04000 -0.035
31.06000 -1.615
31.08000 2.004
31.10000 4.398
31.12000 -0.281
31.14000 0.766
31.16000 1.127
31.18000 2.581
31.20000 2.987
31.22000 -1.045
31.24000 -3.634
31.26000 1.423
31.28000 1.113
31.30000 1.758
31.32000 3.768
31.34000 7.710
31.36000 4.708
31.38000 4.199
31.40000 1.303
31.42000 3.241
31.44000 5.401
31.46000 -0.444
31.48000 5.426
31.50000 5.117
31.52000 -1.255
31.54000 0.597
31.56000 4.126
31.58000 0.969
31.60000 10.516
31.62000 8.484
31.64000 2.053
31.66000 0.959
31.68000 1.319
31.70000 2.860
31.72000 5.267
31.74000 6.495
31.76000 4.234
31.78000 9.585
31.80000 11.312
31.82000 14.854
31.84000 9.164
31.86000 0.572
31.88000 0.678
31.90000 4.844
31.92000 5.096
31.94000 1.548
31.96000 1.538
31.98000 -1.390
32.00000 3.630
32.02000 5.744
32.04000 4.223
32.06000 4.706
32.08000 0.751
32.10000 -3.556
32.12000 -1.564
32.14000 7.581
32.16000 5.391
32.18000 3.020
32.20000 1.610
32.22000 -1.837
32.24000 0.533
32.26000 0.595
32.28000 2.441
32.30000 5.599
32.32000 5.356
32.34000 5.240
32.36000 6.140
32.38000 11.094
32.40000 7.532
32.42000 4.523
32.44000 8.542
32.46000 6.296
32.48000 0.968
32.50000 2.063
32.52000 1.147
32.54000 5.216
32.56000 3.158
32.58000 -3.553
32.60000 2.954
32.62000 3.448
32.64000 4.575
32.66000 9.404
32.68000 6.796
32.70000 -1.355
32.72000 -2.255
32.74000 3.585
32.76000 4.246
32.78000 4.028
32.80000 5.641
32.82000 3.592
32.84000 5.548
32.86000 10.597
32.88000 9.655
32.90000 6.847
32.92000 6.612
32.94000 3.436
32.96000 4.535
32.98000 7.092
33.00000 5.904
33.02000 3.184
33.04000 -3.557
33.06000 -2.554
33.08000 -0.218
33.10000 1.324
33.12000 4.188
33.14000 4.042
33.16000 -2.273
33.18000 1.332
33.20000 0.225
33.22000 2.115
33.24000 1.948
33.26000 2.799
33.28000 1.997
33.30000 2.274
33.32000 3.494
33.34000 8.047
33.36000 5.469
33.38000 1.461
33.40000 4.753
33.42000 5.989
33.44000 4.236
33.46000 5.579
33.48000 7.603
33.50000 9.735
33.52000 6.597
33.54000 3.090
33.56000 9.577
33.58000 8.168
33.60000 3.842
33.62000 5.828
33.64000 5.051
33.66000 4.655
33.68000 2.024
33.70000 1.467
33.72000 3.252
33.74000 0.684
33.76000 1.720
33.78000 -0.820
33.80000 6.774
33.82000 2.872
33.84000 -3.020
33.86000 -0.131
33.88000 2.466
33.90000 -0.248
33.92000 2.277
33.94000 3.577
33.96000 -0.513
33.98000 1.873
34.00000 1.758
34.02000 3.196
34.04000 5.139
34.06000 6.512
34.08000 0.804
34.10000 0.428
34.12000 5.619
34.14000 0.950
34.16000 3.526
34.18000 7.193
34.20000 3.134
34.22000 1.572
34.24000 0.384
34.26000 0.929
34.28000 5.743
34.30000 1.336
34.32000 -0.582
34.34000 3.227
34.36000 7.224
34.38000 5.239
34.40000 2.665
34.42000 2.902
34.44000 2.998
34.46000 -1.195
34.48000 7.212
34.50000 2.986
34.52000 2.464
34.54000 0.260
34.56000 1.155
34.58000 3.939
34.60000 2.826
34.62000 5.093
34.64000 0.722
34.66000 -0.124
34.68000 0.151
34.70000 -0.789
34.72000 -1.683
34.74000 3.349
34.76000 2.247
34.78000 -0.388
34.80000 -0.618
34.82000 6.437
34.84000 7.250
34.86000 3.859
34.88000 0.735
34.90000 2.604
34.92000 1.490
34.94000 -1.051
34.96000 -3.348
34.98000 4.419
35.00000 7.996
35.02000 1.022
35.04000 3.600
35.06000 0.679
35.08000 -2.073
35.10000 -1.883
35.12000 -0.858
35.14000 0.752
35.16000 -1.154
35.18000 3.667
35.20000 6.410
35.22000 2.466
35.24000 -1.209
35.26000 1.149
35.28000 4.258
35.30000 3.789
35.32000 3.240
35.34000 1.760
35.36000 -0.581
35.38000 0.785
35.40000 2.839
35.42000 3.246
35.44000 3.273
35.46000 2.833
35.48000 6.101
35.50000 5.305
35.52000 1.827
35.54000 2.854
35.56000 -0.114
35.58000 -0.887
35.60000 -3.521
35.62000 2.283
35.64000 7.046
35.66000 7.759
35.68000 4.260
35.70000 3.208
35.72000 3.740
35.74000 -3.527
35.76000 3.500
35.78000 1.501
35.80000 5.581
35.82000 10.641
35.84000 4.718
35.86000 2.357
35.88000 3.214
35.90000 0.656
35.92000 -0.035
35.94000 2.204
35.96000 8.066
35.98000 6.027
36.00000 1.574
36.02000 8.056
36.04000 9.844
36.06000 0.275
36.08000 -0.738
36.10000 -2.053
36.12000 -2.482
36.14000 -1.727
36.16000 2.283
36.18000 -0.538
36.20000 2.307
36.22000 3.644
36.24000 -0.633
36.26000 -1.981
36.28000 -0.613
36.30000 -0.902
36.32000 -2.123
36.34000 -0.232
36.36000 3.005
36.38000 5.445
36.40000 6.299
36.42000 -3.595
36.44000 -2.473
36.46000 2.373
36.48000 -1.274
36.50000 -3.602
36.52000 2.312
36.54000 0.597
36.56000 -0.213
36.58000 -0.545
36.60000 1.903
36.62000 2.012
36.64000 2.270
36.66000 6.241
36.68000 1.819
36.70000 -1.967
36.72000 -2.960
36.74000 -3.378
36.76000 -1.744
36.78000 0.178
36.80000 3.993
36.82000 1.933
36.84000 5.424
36.86000 -0.772
36.88000 -2.204
36.90000 3.674
36.92000 3.479
36.94000 1.329
36.96000 -0.733
36.98000 -2.714
37.00000 -2.306
37.02000 -0.401
37.04000 0.451
37.06000 1.193
37.08000 2.386
37.10000 2.986
37.12000 -1.658
37.14000 -2.242
37.16000 2.034
37.18000 0.238
37.20000 2.970
37.22000 3.965
37.24000 4.253
37.26000 -0.837
37.28000 3.136
37.30000 4.233
37.32000 3.700
37.34000 3.402
37.36000 5.304
37.38000 7.236
37.40000 2.114
37.42000 4.046
37.44000 6.005
37.46000 8.834
37.48000 9.608
37.50000 7.932
37.52000 5.812
37.54000 2.948
37.56000 2.904
37.58000 8.008
37.60000 6.465
37.62000 8.586
37.64000 7.325
37.66000 8.999
37.68000 3.672
37.70000 4.791
37.72000 8.032
37.74000 10.748
37.76000 9.410
37.78000 11.663
37.80000 17.326
37.82000 7.474
37.84000 11.933
37.86000 18.296
37.88000 20.357
37.90000 12.057
37.92000 17.825
37.94000 20.490
37.96000 17.468
37.98000 20.094
38.00000 24.441
38.02000 20.023
38.04000 17.540
38.06000 17.145
38.08000 19.315
38.10000 19.475
38.12000 22.494
38.14000 19.508
38.16000 24.114
38.18000 25.523
38.20000 25.036
38.22000 27.207
38.24000 29.380
38.26000 31.598
38.28000 31.882
38.30000 38.736
38.32000 40.141
38.34000 39.450
38.36000 43.761
38.38000 42.144
38.40000 40.046
38.42000 39.571
38.44000 41.669
38.46000 47.632
38.48000 47.336
38.50000 47.896
38.52000 50.156
38.54000 51.669
38.56000 53.629
38.58000 56.074
38.60000 57.564
38.62000 65.388
38.64000 69.269
38.66000 69.579
38.68000 69.257
38.70000 78.113
38.72000 80.088
38.74000 82.129
38.76000 84.724
38.78000 86.397
38.80000 93.504
38.82000 101.545
38.84000 102.124
38.86000 103.068
38.88000 111.265
38.90000 118.684
38.92000 125.788
38.94000 129.870
38.96000 136.525
38.98000 146.492
39.00000 153.252
39.02000 165.308
39.04000 176.396
39.06000 184.406
39.08000 188.725
39.10000 209.825
39.12000 223.614
39.14000 233.872
39.16000 251.525
39.18000 276.003
39.20000 290.730
39.22000 301.767
39.24000 311.612
39.26000 325.004
39.28000 352.237
39.30000 373.019
39.32000 395.743
39.34000 422.348
39.36000 438.953
39.38000 459.474
39.40000 488.935
39.42000 512.776
39.44000 536.282
39.46000 552.899
39.48000 576.900
39.50000 603.334
39.52000 625.251
39.54000 644.894
39.56000 660.133
39.58000 676.124
39.60000 694.298
39.62000 706.833
39.64000 703.934
39.66000 702.927
39.68000 708.408
39.70000 712.769
39.72000 723.857
39.74000 723.025
39.76000 716.705
39.78000 700.273
39.80000 680.969
39.82000 674.306
39.84000 662.228
39.86000 644.997
39.88000 622.639
39.90000 600.216
39.92000 571.999
39.94000 548.358
39.96000 521.120
39.98000 499.267
40.00000 481.327
40.02000 444.973
40.04000 425.488
40.06000 399.582
40.08000 385.721
40.10000 366.759
40.12000 343.452
40.14000 320.902
40.16000 293.334
40.18000 279.171
40.20000 269.217
40.22000 260.195
40.24000 235.950
40.26000 224.291
40.28000 210.191
40.30000 190.301
40.32000 180.431
40.34000 166.224
40.36000 158.992
40.38000 147.163
40.40000 135.463
40.42000 123.903
40.44000 117.476
40.46000 115.083
40.48000 100.902
40.50000 97.388
40.52000 93.396
40.54000 84.634
40.56000 74.750
40.58000 73.785
40.60000 74.347
40.62000 68.350
40.64000 60.349
40.66000 65.561
40.68000 58.843
40.70000 52.336
40.72000 46.194
40.74000 41.844
40.76000 40.566
40.78000 42.480
40.80000 42.645
40.82000 39.725
40.84000 34.772
40.86000 34.361
40.88000 31.957
40.90000 30.424
40.92000 32.484
40.94000 25.687
40.96000 22.722
40.98000 24.587
41.00000 18.245
41.02000 20.686
41.04000 19.291
41.06000 17.757
41.08000 18.712
41.10000 17.311
41.12000 21.733
41.14000 18.310
41.16000 14.902
41.18000 14.343
41.20000 14.175
41.22000 14.642
41.24000 16.244
41.26000 10.174
41.28000 5.590
41.30000 7.285
41.32000 9.661
41.34000 11.293
41.36000 4.587
41.38000 7.810
41.40000 6.540
41.42000 4.752
41.44000 8.686
41.46000 12.322
41.48000 8.607
41.50000 2.791
41.52000 1.194
41.54000 4.558
41.56000 6.956
41.58000 0.388
41.60000 4.459
41.62000 4.143
41.64000 3.432
41.66000 4.709
41.68000 1.898
41.70000 0.620
41.72000 1.910
41.74000 2.129
41.76000 0.992
41.78000 3.513
41.80000 0.519
41.82000 0.890
41.84000 -0.797
41.86000 -0.246
41.88000 -0.286
41.90000 0.252
41.92000 -1.224
41.94000 -1.605
41.96000 0.505
41.98000 -0.244
42.00000 -1.535
42.02000 -1.652
42.04000 -2.620
42.06000 -0.969
42.08000 -0.040
42.10000 1.961
42.12000 -0.645
42.14000 -1.889
42.16000 -1.375
42.18000 -1.981
42.20000 -2.227
42.22000 0.659
42.24000 -2.375
42.26000 2.577
42.28000 0.720
42.30000 2.461
42.32000 3.768
42.34000 2.059
42.36000 2.512
42.38000 2.452
42.40000 0.173
42.42000 0.673
42.44000 -0.141
42.46000 -1.040
42.48000 0.643
42.50000 -1.360
42.52000 0.405
42.54000 2.669
42.56000 5.270
42.58000 4.409
42.60000 2.553
42.62000 3.655
42.64000 2.170
42.66000 0.642
42.68000 1.085
42.70000 -0.663
42.72000 0.205
42.74000 1.439
42.76000 4.369
42.78000 6.495
42.80000 4.567
42.82000 2.076
42.84000 -0.722
42.86000 -3.254
42.88000 -1.160
42.90000 -0.716
42.92000 3.162
42.94000 5.210
42.96000 3.500
42.98000 2.432
43.00000 0.995
43.02000 2.359
43.04000 5.433
43.06000 4.851
43.08000 4.810
43.10000 0.014
43.12000 0.233
43.14000 1.029
43.16000 2.380
43.18000 3.876
43.20000 3.233
43.22000 0.782
43.24000 0.736
43.26000 1.666
43.28000 2.596
43.30000 1.973
43.32000 2.392
43.34000 3.258
43.36000 2.601
43.38000 0.494
43.40000 -2.140
43.42000 0.387
43.44000 1.728
43.46000 -0.212
43.48000 1.057
43.50000 -0.256
43.52000 -0.139
43.54000 -1.071
43.56000 1.611
43.58000 -0.569
43.60000 -0.455
43.62000 3.275
43.64000 2.161
43.66000 1.279
43.68000 -1.512
43.70000 -1.670
43.72000 -0.188
43.74000 2.723
43.76000 -0.799
43.78000 -3.184
43.80000 -2.904
43.82000 2.988
43.84000 2.919
43.86000 2.936
43.88000 -1.093
43.90000 1.178
43.92000 2.424
43.94000 0.333
43.96000 0.184
43.98000 -0.089
44.00000 1.096
44.02000 0.807
44.04000 0.612
44.06000 1.040
44.08000 -0.145
44.10000 -1.180
44.12000 -1.465
44.14000 -2.180
44.16000 -3.181
44.18000 4.113
44.20000 4.118
44.22000 -0.601
44.24000 -2.596
44.26000 -0.706
44.28000 0.118
44.30000 1.580
44.32000 -1.117
44.34000 -1.736
44.36000 0.022
44.38000 -3.181
44.40000 -2.791
44.42000 -2.498
44.44000 0.796
44.46000 5.144
44.48000 0.478
44.50000 0.795
44.52000 -0.527
44.54000 3.795
44.56000 2.295
44.58000 -0.235
44.60000 2.281
44.62000 -0.668
44.64000 -2.626
44.66000 -0.749
44.68000 0.310
44.70000 -0.648
44.72000 1.783
44.74000 3.939
44.76000 -0.863
44.78000 0.414
44.80000 2.814
44.82000 -1.936
44.84000 -1.012
44.86000 -1.249
44.88000 -0.912
44.90000 0.177
44.92000 1.872
44.94000 -0.130
44.96000 -1.145
44.98000 2.667
45.00000 2.872
45.02000 5.857
45.04000 7.569
45.06000 8.358
45.08000 11.347
45.10000 7.072
45.12000 6.767
45.14000 7.890
45.16000 2.015
45.18000 -2.472
45.20000 2.255
45.22000 5.871
45.24000 5.610
45.26000 1.633
45.28000 4.655
45.30000 9.597
45.32000 11.115
45.34000 11.737
45.36000 7.675
45.38000 7.886
45.40000 10.232
45.42000 12.761
45.44000 13.707
45.46000 16.083
45.48000 15.518
45.50000 11.299
45.52000 13.759
45.54000 17.197
45.56000 18.235
45.58000 19.212
45.60000 21.470
45.62000 24.958
45.64000 26.729
45.66000 22.133
45.68000 22.732
45.70000 25.873
45.72000 29.179
45.74000 33.094
45.76000 32.871
45.78000 31.318
45.80000 32.038
45.82000 35.488
45.84000 38.208
45.86000 38.918
45.88000 36.423
45.90000 37.084
45.92000 40.628
45.94000 42.686
45.96000 41.906
45.98000 42.672
46.00000 43.896
46.02000 47.717
46.04000 51.277
46.06000 51.551
46.08000 55.620
46.10000 60.219
46.12000 59.075
46.14000 66.139
46.16000 66.113
46.18000 64.365
46.20000 66.459
46.22000 64.639
46.24000 62.342
46.26000 67.267
46.28000 69.206
46.30000 63.837
46.32000 70.725
46.34000 75.917
46.36000 73.962
46.38000 75.978
46.40000 73.537
46.42000 73.391
46.44000 69.670
46.46000 70.778
46.48000 72.226
46.50000 66.637
46.52000 70.321
46.54000 69.238
46.56000 68.364
46.58000 66.939
46.60000 63.880
46.62000 61.187
46.64000 65.253
46.66000 62.970
46.68000 59.864
46.70000 55.224
46.72000 54.594
46.74000 48.628
46.76000 48.863
46.78000 44.868
46.80000 50.069
46.82000 48.960
46.84000 44.290
46.86000 41.477
46.88000 34.133
46.90000 35.921
46.92000 33.947
46.94000 35.220
46.96000 30.077
46.98000 30.270
47.00000 29.456
47.02000 28.576
47.04000 21.496
47.06000 22.194
47.08000 20.115
47.10000 21.219
47.12000 18.559
47.14000 15.949
47.16000 16.108
47.18000 17.383
47.20000 13.186
47.22000 12.105
47.24000 12.833
47.26000 11.497
47.28000 11.033
47.30000 9.256
47.32000 12.233
47.34000 6.565
47.36000 5.467
47.38000 7.849
47.40000 5.021
47.42000 9.007
47.44000 9.487
47.46000 5.131
47.48000 3.798
47.50000 0.221
47.52000 0.279
47.54000 1.314
47.56000 2.297
47.58000 3.763
47.60000 4.464
47.62000 1.366
47.64000 3.992
47.66000 1.967
47.68000 2.360
47.70000 3.778
47.72000 4.932
47.74000 1.612
47.76000 -1.652
47.78000 -0.406
47.80000 -1.510
47.82000 -2.805
47.84000 -0.803
47.86000 0.537
47.88000 -0.364
47.90000 4.008
47.92000 1.732
47.94000 0.063
47.96000 -1.997
47.98000 -2.098
48.00000 1.762
48.02000 3.071
48.04000 1.674
48.06000 -0.683
48.08000 0.702
48.10000 1.263
48.12000 2.118
48.14000 1.840
48.16000 5.752
48.18000 0.113
48.20000 -0.666
48.22000 3.172
48.24000 4.991
48.26000 3.225
48.28000 -2.136
48.30000 -2.742
48.32000 -1.608
48.34000 -1.934
48.36000 -0.916
48.38000 1.156
48.40000 1.044
48.42000 0.988
48.44000 0.248
48.46000 -0.320
48.48000 0.028
48.50000 -0.313
48.52000 2.424
48.54000 0.761
48.56000 -0.325
48.58000 1.205
48.60000 2.351
48.62000 2.020
48.64000 -0.523
48.66000 0.290
48.68000 1.507
48.70000 2.316
48.72000 6.383
48.74000 8.618
48.76000 3.295
48.78000 2.851
48.80000 3.217
48.82000 0.972
48.84000 -1.629
48.86000 -1.574
48.88000 0.006
48.90000 4.128
48.92000 3.055
48.94000 4.219
48.96000 4.891
48.98000 3.231
49.00000 -2.641
49.02000 -0.363
49.04000 -1.309
49.06000 1.267
49.08000 3.277
49.10000 6.306
49.12000 4.926
49.14000 5.717
49.16000 2.026
49.18000 3.766
49.20000 -0.833
49.22000 -0.669
49.24000 -1.596
49.26000 1.127
49.28000 -0.551
49.30000 -2.054
49.32000 0.191
49.34000 1.330
49.36000 4.474
49.38000 5.210
49.40000 2.376
49.42000 1.194
49.44000 0.885
49.46000 4.435
49.48000 4.370
49.50000 4.586
49.52000 7.526
49.54000 7.035
49.56000 3.462
49.58000 1.312
49.60000 3.189
49.62000 3.409
49.64000 4.785
49.66000 2.855
49.68000 2.572
49.70000 0.319
49.72000 3.903
49.74000 4.220
49.76000 4.692
49.78000 2.871
49.80000 1.483
49.82000 2.584
49.84000 3.579
49.86000 2.667
49.88000 1.642
49.90000 1.224
49.92000 3.165
49.94000 5.128
49.96000 0.942
49.98000 -0.171
50.00000 4.268
50.02000 2.911
50.04000 4.992
50.06000 1.507
50.08000 -2.577
50.10000 0.219
50.12000 -0.836
50.14000 0.207
50.16000 0.304
50.18000 0.702
50.20000 0.838
50.22000 3.746
50.24000 3.250
50.26000 6.736
50.28000 2.463
50.30000 -0.051
50.32000 2.108
50.34000 0.838
50.36000 1.670
50.38000 1.500
50.40000 3.434
50.42000 3.079
50.44000 6.361
50.46000 8.227
50.48000 4.090
50.50000 3.539
50.52000 3.126
50.54000 -0.148
50.56000 3.983
50.58000 -0.499
50.60000 -0.954
50.62000 -0.671
50.64000 1.155
50.66000 2.639
50.68000 -1.171
50.70000 -2.468
50.72000 2.521
50.74000 4.136
50.76000 4.119
50.78000 6.173
50.80000 4.314
50.82000 -1.497
50.84000 1.860
50.86000 0.785
50.88000 2.163
50.90000 2.900
50.92000 0.933
50.94000 3.300
50.96000 5.495
50.98000 7.449
51.00000 2.994
51.02000 2.593
51.04000 3.754
51.06000 2.486
51.08000 2.603
51.10000 5.451
51.12000 2.885
51.14000 2.298
51.16000 -2.527
51.18000 1.314
51.20000 3.238
51.22000 7.773
51.24000 7.913
51.26000 6.224
51.28000 7.079
51.30000 6.006
51.32000 3.640
51.34000 7.116
51.36000 -0.058
51.38000 -2.526
51.40000 0.281
51.42000 7.219
51.44000 7.018
51.46000 4.028
51.48000 2.170
51.50000 2.267
51.52000 3.637
51.54000 3.264
51.56000 0.921
51.58000 2.426
51.60000 6.612
51.62000 4.138
51.64000 -0.258
51.66000 1.481
51.68000 -0.302
51.70000 2.825
51.72000 4.937
51.74000 5.315
51.76000 2.189
51.78000 5.156
51.80000 3.028
51.82000 -0.112
51.84000 -2.142
51.86000 -0.694
51.88000 3.737
51.90000 3.470
51.92000 3.299
51.94000 3.801
51.96000 2.746
51.98000 2.170
52.00000 1.735
52.02000 -0.047
52.04000 0.906
52.06000 -0.625
52.08000 -0.500
52.10000 1.325
52.12000 3.016
52.14000 1.176
52.16000 -1.453
52.18000 -2.137
52.20000 2.488
52.22000 6.401
52.24000 3.464
52.26000 0.637
52.28000 3.629
52.30000 0.587
52.32000 -1.591
52.34000 1.450
52.36000 3.957
52.38000 3.978
52.40000 3.212
52.42000 5.143
52.44000 3.970
52.46000 2.556
52.48000 -0.621
52.50000 1.168
52.52000 2.246
52.54000 5.472
52.56000 6.418
52.58000 2.348
52.60000 1.587
52.62000 2.702
52.64000 4.833
52.66000 4.912
52.68000 6.754
52.70000 2.458
52.72000 2.090
52.74000 -1.447
52.76000 -2.487
52.78000 -0.320
52.80000 4.293
52.82000 6.024
52.84000 2.597
52.86000 0.242
52.88000 2.473
52.90000 7.098
52.92000 11.287
52.94000 4.781
52.96000 2.151
52.98000 5.365
53.00000 8.419
53.02000 6.481
53.04000 1.485
53.06000 -0.876
53.08000 0.801
53.10000 2.170
53.12000 2.062
53.14000 6.070
53.16000 9.103
53.18000 7.554
53.20000 2.257
53.22000 3.556
53.24000 8.053
53.26000 2.966
53.28000 -0.494
53.30000 1.754
53.32000 3.654
53.34000 0.865
53.36000 5.448
53.38000 2.628
53.40000 -1.796
53.42000 -2.443
53.44000 3.942
53.46000 4.681
53.48000 2.958
53.50000 5.287
53.52000 3.255
53.54000 2.863
53.56000 3.661
53.58000 3.065
53.60000 1.650
53.62000 0.297
53.64000 3.578
53.66000 6.218
53.68000 6.062
53.70000 3.682
53.72000 1.394
53.74000 2.362
53.76000 4.165
53.78000 2.888
53.80000 1.119
53.82000 5.622
53.84000 1.758
53.86000 -1.980
53.88000 1.883
53.90000 3.133
53.92000 3.357
53.94000 4.157
53.96000 2.350
53.98000 0.402
54.00000 -1.032
54.02000 2.852
54.04000 4.715
54.06000 6.212
54.08000 4.210
54.10000 1.437
54.12000 3.664
54.14000 4.668
54.16000 1.020
54.18000 0.988
54.20000 3.621
54.22000 1.072
54.24000 2.548
54.26000 1.894
54.28000 -1.859
54.30000 -0.319
54.32000 1.234
54.34000 2.875
54.36000 3.508
54.38000 3.531
54.40000 2.961
54.42000 4.862
54.44000 1.540
54.46000 2.263
54.48000 2.181
54.50000 2.309
54.52000 3.031
54.54000 3.903
54.56000 5.447
54.58000 4.463
54.60000 4.356
54.62000 6.007
54.64000 3.062
54.66000 -1.520
54.68000 -2.436
54.70000 0.082
54.72000 3.657
54.74000 3.989
54.76000 3.679
54.78000 2.369
54.80000 4.811
54.82000 0.293
54.84000 -2.319
54.86000 4.122
54.88000 2.664
54.90000 0.511
54.92000 -0.945
54.94000 1.208
54.96000 2.573
54.98000 4.573
55.00000 2.106
55.02000 0.482
55.04000 -1.207
55.06000 2.308
55.08000 4.416
55.10000 3.573
55.12000 4.468
55.14000 -1.336
55.16000 1.431
55.18000 1.755
55.20000 2.987
55.22000 4.574
55.24000 2.450
55.26000 5.003
55.28000 4.470
55.30000 0.169
55.32000 2.032
55.34000 1.894
55.36000 1.540
55.38000 4.208
55.40000 4.549
55.42000 2.248
55.44000 1.226
55.46000 1.570
55.48000 3.142
55.50000 1.102
55.52000 -0.233
55.54000 1.032
55.56000 6.323
55.58000 2.598
55.60000 0.989
55.62000 0.019
55.64000 2.405
55.66000 1.009
55.68000 1.790
55.70000 2.184
55.72000 3.094
55.74000 0.917
55.76000 3.002
55.78000 5.455
55.80000 7.556
55.82000 9.513
55.84000 3.741
55.86000 0.112
55.88000 3.875
55.90000 1.365
55.92000 -2.430
55.94000 -1.702
55.96000 2.573
55.98000 2.631
56.00000 1.866
56.02000 -0.295
56.04000 -1.655
56.06000 2.098
56.08000 3.379
56.10000 0.776
56.12000 -0.483
56.14000 1.896
56.16000 -1.156
56.18000 0.645
56.20000 3.451
56.22000 5.053
56.24000 2.891
56.26000 1.795
56.28000 4.715
56.30000 4.597
56.32000 2.895
56.34000 4.059
56.36000 0.027
56.38000 0.974
56.40000 2.492
56.42000 3.897
56.44000 2.179
56.46000 1.511
56.48000 -2.411
56.50000 -1.193
56.52000 0.113
56.54000 0.463
56.56000 4.987
56.58000 2.337
56.60000 0.950
56.62000 2.336
56.64000 2.357
56.66000 1.277
56.68000 2.246
56.70000 2.307
56.72000 3.282
56.74000 7.331
56.76000 7.213
56.78000 4.136
56.80000 5.195
56.82000 4.713
56.84000 2.609
56.86000 4.802
56.88000 6.433
56.90000 5.301
56.92000 2.374
56.94000 3.658
56.96000 -0.694
56.98000 -2.381
57.00000 2.640
57.02000 5.573
57.04000 2.703
57.06000 3.347
57.08000 -1.013
57.10000 2.889
57.12000 5.614
57.14000 -1.609
57.16000 -1.335
57.18000 4.640
57.20000 2.171
57.22000 2.085
57.24000 2.754
57.26000 4.772
57.28000 0.946
57.30000 3.148
57.32000 6.714
57.34000 5.301
57.36000 2.529
57.38000 3.972
57.40000 0.163
57.42000 -0.877
57.44000 1.501
57.46000 4.356
57.48000 3.459
57.50000 -2.363
57.52000 -1.414
57.54000 1.604
57.56000 3.590
57.58000 3.220
57.60000 2.840
57.62000 3.090
57.64000 -0.385
57.66000 -1.330
57.68000 0.940
57.70000 -0.586
57.72000 1.207
57.74000 1.214
57.76000 1.475
57.78000 0.859
57.80000 2.692
57.82000 4.114
57.84000 2.922
57.86000 1.335
57.88000 -0.181
57.90000 1.736
57.92000 3.479
57.94000 3.097
57.96000 -0.768
57.98000 -1.200
58.00000 -0.559
58.02000 2.027
58.04000 2.331
58.06000 1.770
58.08000 1.651
58.10000 0.343
58.12000 1.838
58.14000 -0.881
58.16000 1.128
58.18000 3.628
58.20000 4.081
58.22000 1.707
58.24000 1.524
58.26000 4.622
58.28000 0.734
58.30000 0.966
58.32000 2.777
58.34000 5.865
58.36000 2.608
58.38000 0.622
58.40000 -1.326
58.42000 0.431
58.44000 3.041
58.46000 2.646
58.48000 1.017
58.50000 0.841
58.52000 3.657
58.54000 5.594
58.56000 6.147
58.58000 3.960
58.60000 0.873
58.62000 2.573
58.64000 5.077
58.66000 4.470
58.68000 2.491
58.70000 2.451
58.72000 6.143
58.74000 5.261
58.76000 5.684
58.78000 5.321
58.80000 5.848
58.82000 3.682
58.84000 -0.133
58.86000 -2.314
58.88000 0.351
58.90000 2.390
58.92000 2.547
58.94000 1.629
58.96000 1.770
58.98000 3.123
59.00000 3.790
59.02000 2.958
59.04000 2.071
59.06000 4.263
59.08000 2.771
59.10000 1.580
59.12000 1.700
59.14000 2.276
59.16000 4.578
59.18000 2.623
59.20000 1.239
59.22000 5.036
59.24000 1.247
59.26000 0.791
59.28000 4.514
59.30000 6.256
59.32000 4.877
59.34000 1.215
59.36000 3.005
59.38000 7.399
59.40000 3.116
59.42000 3.092
59.44000 3.668
59.46000 6.015
59.48000 8.924
59.50000 7.158
59.52000 4.458
59.54000 4.927
59.56000 1.286
59.58000 2.402
59.60000 1.690
59.62000 1.651
59.64000 -0.059
59.66000 3.659
59.68000 6.959
59.70000 2.473
59.72000 0.145
59.74000 -2.285
59.76000 4.295
59.78000 4.741
59.80000 -0.309
59.82000 -1.906
59.84000 2.324
59.86000 0.328
59.88000 0.664
59.90000 -1.298
59.92000 -1.295
59.94000 4.643
59.96000 5.059
59.98000 2.386
60.00000 5.443
60.02000 3.339
60.04000 0.723
60.06000 2.939
60.08000 1.498
60.10000 0.578
60.12000 2.093
60.14000 4.757
60.16000 1.622
60.18000 0.814
60.20000 1.490
60.22000 4.327
60.24000 6.033
60.26000 6.643
60.28000 5.272
60.30000 2.317
60.32000 -1.682
60.34000 0.428
60.36000 -0.770
60.38000 -0.555
60.40000 3.799
60.42000 3.377
60.44000 2.820
60.46000 2.875
60.48000 1.158
60.50000 0.443
60.52000 0.967
60.54000 -0.003
60.56000 1.341
60.58000 2.597
60.60000 1.933
60.62000 2.120
60.64000 4.599
60.66000 0.693
60.68000 -0.096
60.70000 -2.283
60.72000 1.631
60.74000 3.866
60.76000 3.685
60.78000 -1.632
60.80000 -1.320
60.82000 3.046
60.84000 2.282
60.86000 0.627
60.88000 4.053
60.90000 5.683
60.92000 6.046
60.94000 4.633
60.96000 1.269
60.98000 -0.614
61.00000 -1.767
61.02000 -1.732
61.04000 3.083
61.06000 3.218
61.08000 1.279
61.10000 -0.003
61.12000 1.980
61.14000 1.367
61.16000 1.712
61.18000 2.867
61.20000 2.301
61.22000 3.026
61.24000 2.204
61.26000 -0.109
61.28000 -0.972
61.30000 -0.853
61.32000 0.069
61.34000 0.338
61.36000 2.886
61.38000 4.779
61.40000 0.835
61.42000 -1.071
61.44000 -0.722
61.46000 2.143
61.48000 -0.317
61.50000 2.700
61.52000 4.580
61.54000 3.835
61.56000 3.125
61.58000 0.925
61.60000 -2.267
61.62000 1.745
61.64000 1.651
61.66000 0.305
61.68000 1.301
61.70000 -0.112
61.72000 -0.607
61.74000 1.099
61.76000 1.544
61.78000 -0.348
61.80000 0.605
61.82000 -0.092
61.84000 2.036
61.86000 0.628
61.88000 2.095
61.90000 3.320
61.92000 3.849
61.94000 4.258
61.96000 1.394
61.98000 -0.857
62.00000 -0.613
62.02000 -1.523
62.04000 -1.398
62.06000 -1.418
62.08000 -0.910
62.10000 -0.111
62.12000 3.568
62.14000 1.674
62.16000 0.079
62.18000 0.027
62.20000 0.308
62.22000 3.333
62.24000 2.418
62.26000 1.057
62.28000 -2.251
62.30000 -0.124
62.32000 2.765
62.34000 1.550
62.36000 -0.077
62.38000 2.661
62.40000 3.512
62.42000 4.326
62.44000 -0.677
62.46000 -1.234
62.48000 -1.806
62.50000 1.858
62.52000 0.769
62.54000 0.689
62.56000 2.151
62.58000 2.937
62.60000 2.667
62.62000 1.798
62.64000 -0.028
62.66000 -2.067
62.68000 2.767
62.70000 3.119
62.72000 1.980
62.74000 3.181
62.76000 -0.400
62.78000 -0.030
62.80000 1.423
62.82000 1.261
62.84000 5.159
62.86000 5.317
62.88000 2.491
62.90000 -0.765
62.92000 0.246
62.94000 -0.398
62.96000 2.043
62.98000 1.400
63.00000 2.190
63.02000 2.889
63.04000 2.612
63.06000 -1.692
63.08000 2.280
63.10000 3.355
63.12000 4.720
63.14000 3.776
63.16000 3.533
63.18000 2.085
63.20000 -0.450
63.22000 2.771
63.24000 4.488
63.26000 2.987
63.28000 4.579
63.30000 2.418
63.32000 -0.875
63.34000 -2.221
63.36000 -0.024
63.38000 0.978
63.40000 6.085
63.42000 5.356
63.44000 2.504
63.46000 3.490
63.48000 2.652
63.50000 2.295
63.52000 1.983
63.54000 -1.216
63.56000 0.342
63.58000 0.369
63.60000 1.976
63.62000 2.941
63.64000 6.183
63.66000 -0.153
63.68000 0.572
63.70000 0.568
63.72000 0.039
63.74000 1.053
63.76000 1.441
63.78000 0.953
63.80000 0.413
63.82000 -1.317
63.84000 -1.010
63.86000 1.076
63.88000 1.733
63.90000 3.187
63.92000 2.130
63.94000 0.575
63.96000 2.946
63.98000 1.393
64.00000 -0.344
64.02000 -0.918
64.04000 1.328
64.06000 2.159
64.08000 1.814
64.10000 2.671
64.12000 2.406
64.14000 1.769
64.16000 2.978
64.18000 1.406
64.20000 0.540
64.22000 -1.053
64.24000 -1.460
64.26000 -0.109
64.28000 1.646
64.30000 -1.113
64.32000 -0.199
64.34000 1.806
64.36000 1.889
64.38000 0.985
64.40000 1.882
64.42000 2.629
64.44000 2.724
64.46000 1.046
64.48000 -1.581
64.50000 -2.131
64.52000 1.662
64.54000 2.667
64.56000 0.767
64.58000 1.960
64.60000 1.673
64.62000 0.470
64.64000 0.770
64.66000 0.707
64.68000 1.487
64.70000 1.848
64.72000 0.526
64.74000 3.222
64.76000 1.816
64.78000 2.590
64.80000 0.911
64.82000 2.336
64.84000 -0.414
64.86000 0.054
64.88000 1.771
64.90000 1.841
64.92000 3.934
64.94000 1.331
64.96000 -2.140
64.98000 -1.262
65.00000 0.063
65.02000 1.848
65.04000 2.061
65.06000 2.342
65.08000 1.377
65.10000 1.662
65.12000 5.387
65.14000 4.728
65.16000 0.459
65.18000 -0.668
65.20000 -2.273
65.22000 1.738
65.24000 4.585
65.26000 4.908
65.28000 5.715
65.30000 4.499
65.32000 3.593
65.34000 2.540
65.36000 1.843
65.38000 -0.497
65.40000 0.263
65.42000 0.471
65.44000 -0.531
65.46000 -0.895
65.48000 1.743
65.50000 0.873
65.52000 -1.237
65.54000 1.291
65.56000 7.252
65.58000 4.394
65.60000 4.276
65.62000 1.996
65.64000 1.700
65.66000 -1.379
65.68000 -0.025
65.70000 2.426
65.72000 1.340
65.74000 -1.943
65.76000 1.321
65.78000 1.520
65.80000 0.660
65.82000 -2.278
65.84000 -0.476
65.86000 -0.499
65.88000 -0.211
65.90000 3.222
65.92000 1.660
65.94000 -2.241
65.96000 -0.312
65.98000 1.217
66.00000 1.400
66.02000 0.341
66.04000 0.008
66.06000 -0.447
66.08000 -0.444
66.10000 -2.298
66.12000 0.926
66.14000 1.734
66.16000 -1.202
66.18000 0.327
66.20000 2.256
66.22000 1.792
66.24000 0.427
66.26000 -0.861
66.28000 -1.939
66.30000 -1.132
66.32000 0.585
66.34000 0.633
66.36000 2.637
66.38000 2.561
66.40000 2.497
66.42000 1.398
66.44000 4.728
66.46000 5.364
66.48000 0.519
66.50000 0.155
66.52000 1.044
66.54000 1.811
66.56000 -0.002
66.58000 1.829
66.60000 2.771
66.62000 1.289
66.64000 4.342
66.66000 6.900
66.68000 2.739
66.70000 1.512
66.72000 2.652
66.74000 4.251
66.76000 4.727
66.78000 5.724
66.80000 6.203
66.82000 3.976
66.84000 4.558
66.86000 3.603
66.88000 5.347
66.90000 4.208
66.92000 3.654
66.94000 5.221
66.96000 4.943
66.98000 5.928
67.00000 9.160
67.02000 5.623
67.04000 5.751
67.06000 7.030
67.08000 7.500
67.10000 8.946
67.12000 7.226
67.14000 4.215
67.16000 7.607
67.18000 9.465
67.20000 9.392
67.22000 10.536
67.24000 9.379
67.26000 10.072
67.28000 9.392
67.30000 11.001
67.32000 12.039
67.34000 10.110
67.36000 8.995
67.38000 11.627
67.40000 11.697
67.42000 12.777
67.44000 12.862
67.46000 13.508
67.48000 12.762
67.50000 10.570
67.52000 10.875
67.54000 13.787
67.56000 15.136
67.58000 13.895
67.60000 16.479
67.62000 17.448
67.64000 15.833
67.66000 13.090
67.68000 9.587
67.70000 7.948
67.72000 11.428
67.74000 11.621
67.76000 10.152
67.78000 9.505
67.80000 6.590
67.82000 7.085
67.84000 9.765
67.86000 10.219
67.88000 8.900
67.90000 9.302
67.92000 11.630
67.94000 10.099
67.96000 8.426
67.98000 7.941
68.00000 6.724
68.02000 5.714
68.04000 6.417
68.06000 7.301
68.08000 5.937
68.10000 8.429
68.12000 5.176
68.14000 6.431
68.16000 8.409
68.18000 5.382
68.20000 2.650
68.22000 4.985
68.24000 3.997
68.26000 3.959
68.28000 4.688
68.30000 5.601
68.32000 2.276
68.34000 3.238
68.36000 4.242
68.38000 1.877
68.40000 3.213
68.42000 3.049
68.44000 2.622
68.46000 -0.539
68.48000 1.231
68.50000 2.989
68.52000 -0.200
68.54000 -2.262
68.56000 0.802
68.58000 0.862
68.60000 -2.121
68.62000 1.567
68.64000 1.103
68.66000 0.465
68.68000 1.721
68.70000 1.994
68.72000 0.005
68.74000 0.277
68.76000 1.811
68.78000 1.958
68.80000 3.931
68.82000 2.140
68.84000 2.320
68.86000 -1.598
68.88000 -0.509
68.90000 -0.939
68.92000 0.307
68.94000 -1.430
68.96000 0.115
68.98000 2.853
69.00000 3.313
69.02000 1.412
69.04000 -1.832
69.06000 -2.222
69.08000 -0.908
69.10000 0.160
69.12000 -1.588
69.14000 -2.223
69.16000 0.332
69.18000 -1.190
69.20000 -1.213
69.22000 -0.043
69.24000 1.576
69.26000 0.899
69.28000 0.361
69.30000 0.071
69.32000 -0.525
69.34000 0.746
69.36000 0.016
69.38000 3.304
69.40000 1.725
69.42000 -0.497
69.44000 0.767
69.46000 0.148
69.48000 2.555
69.50000 0.666
69.52000 -2.204
69.54000 -1.889
69.56000 -0.366
69.58000 1.641
69.60000 5.029
69.62000 3.924
69.64000 2.636
69.66000 1.559
69.68000 3.376
69.70000 0.742
69.72000 0.751
69.74000 0.214
69.76000 -0.587
69.78000 -0.410
69.80000 1.113
69.82000 3.652
69.84000 3.655
69.86000 2.515
69.88000 1.661
69.90000 2.459
69.92000 -0.518
69.94000 -1.646
69.96000 -1.015
69.98000 -0.740
70.00000 -1.750
70.02000 -0.040
70.04000 1.700
70.06000 0.745
70.08000 -0.576
70.10000 1.204
70.12000 -0.305
70.14000 -0.288
70.16000 2.699
70.18000 2.531
70.20000 3.795
70.22000 4.633
70.24000 4.284
70.26000 2.665
70.28000 1.079
70.30000 -1.241
70.32000 0.073
70.34000 2.159
70.36000 1.361
70.38000 0.021
70.40000 2.322
70.42000 5.262
70.44000 3.246
70.46000 1.435
70.48000 -0.719
70.50000 -0.043
70.52000 0.000
70.54000 -2.163
70.56000 0.430
70.58000 -1.594
70.60000 0.014
70.62000 1.128
70.64000 1.424
70.66000 2.006
70.68000 2.265
70.70000 4.236
70.72000 3.417
70.74000 2.895
70.76000 -0.010
70.78000 0.602
70.80000 0.311
70.82000 -0.783
70.84000 1.153
70.86000 0.535
70.88000 -1.904
70.90000 -2.149
70.92000 -1.047
70.94000 3.567
70.96000 4.195
70.98000 3.421
71.00000 0.905
71.02000 1.063
71.04000 4.135
71.06000 3.218
71.08000 1.908
71.10000 -0.286
71.12000 -0.164
71.14000 0.653
71.16000 -0.662
71.18000 0.831
71.20000 0.699
71.22000 1.762
71.24000 4.919
71.26000 5.129
71.28000 3.080
71.30000 0.239
71.32000 0.002
71.34000 -0.110
71.36000 3.372
71.38000 3.179
71.40000 2.267
71.42000 1.068
71.44000 0.441
71.46000 0.837
71.48000 2.669
71.50000 1.448
71.52000 -1.288
71.54000 0.869
71.56000 -0.335
71.58000 -1.054
71.60000 1.549
71.62000 -1.081
71.64000 -0.022
71.66000 0.511
71.68000 1.869
71.70000 4.106
71.72000 1.033
71.74000 0.166
71.76000 -2.148
71.78000 -1.441
71.80000 -2.128
71.82000 0.245
71.84000 3.849
71.86000 4.484
71.88000 2.777
71.90000 2.781
71.92000 -1.548
71.94000 -0.867
71.96000 3.267
71.98000 2.912
72.00000 -0.449
72.02000 -0.502
72.04000 0.906
72.06000 -2.091
72.08000 -0.513
72.10000 2.190
72.12000 4.678
72.14000 1.770
72.16000 -0.242
72.18000 0.324
72.20000 2.789
72.22000 1.624
72.24000 1.994
72.26000 0.440
72.28000 2.286
72.30000 -0.030
72.32000 -1.164
72.34000 1.443
72.36000 2.273
72.38000 0.459
72.40000 -1.948
72.42000 -1.880
72.44000 2.275
72.46000 1.108
72.48000 -0.213
72.50000 2.856
72.52000 2.333
72.54000 0.913
72.56000 -2.114
72.58000 0.785
72.60000 3.524
72.62000 3.191
72.64000 3.047
72.66000 3.558
72.68000 2.437
72.70000 0.644
72.72000 0.052
72.74000 4.049
72.76000 5.015
72.78000 1.378
72.80000 0.058
72.82000 4.769
72.84000 3.214
72.86000 2.491
72.88000 5.152
72.90000 5.336
72.92000 -0.193
72.94000 -1.525
72.96000 3.251
72.98000 3.796
73.00000 5.710
73.02000 1.841
73.04000 2.686
73.06000 1.945
73.08000 1.667
73.10000 3.228
73.12000 3.547
73.14000 3.666
73.16000 -0.320
73.18000 0.790
73.20000 3.366
73.22000 1.795
73.24000 -2.087
73.26000 -1.494
73.28000 3.685
73.30000 3.937
73.32000 1.910
73.34000 0.054
73.36000 4.260
73.38000 4.834
73.40000 4.138
73.42000 2.044
73.44000 2.377
73.46000 0.523
73.48000 1.920
73.50000 1.409
73.52000 -2.084
73.54000 -0.387
73.56000 -0.084
73.58000 2.944
73.60000 4.555
73.62000 2.050
73.64000 1.328
73.66000 2.845
73.68000 2.912
73.70000 3.484
73.72000 0.063
73.74000 1.448
73.76000 4.412
73.78000 2.381
73.80000 3.261
73.82000 1.889
73.84000 2.964
73.86000 0.047
73.88000 1.754
73.90000 0.595
73.92000 1.752
73.94000 2.080
73.96000 -0.260
73.98000 0.111
74.00000 2.276
74.02000 1.459
74.04000 0.447
74.06000 2.408
74.08000 7.009
74.10000 2.553
74.12000 0.349
74.14000 -1.818
74.16000 -2.071
74.18000 1.220
74.20000 3.887
74.22000 2.787
74.24000 -0.767
74.26000 1.307
74.28000 2.596
74.30000 4.639
74.32000 3.229
74.34000 4.706
74.36000 2.352
74.38000 -0.824
74.40000 1.182
74.42000 0.912
74.44000 -1.485
74.46000 -0.088
74.48000 3.108
74.50000 3.425
74.52000 2.659
74.54000 4.524
74.56000 2.694
74.58000 -0.588
74.60000 0.446
74.62000 -0.930
74.64000 -1.118
74.66000 2.818
74.68000 4.326
74.70000 0.816
74.72000 0.888
74.74000 0.703
74.76000 1.200
74.78000 -0.059
74.80000 2.650
74.82000 1.682
74.84000 -1.819
74.86000 -1.930
74.88000 3.225
74.90000 2.701
74.92000 1.894
74.94000 4.461
74.96000 7.227
74.98000 7.690
75.00000 6.187
75.02000 3.334
75.04000 1.298
75.06000 -0.201
75.08000 -2.070
75.10000 -1.634
75.12000 3.215
75.14000 4.586
75.16000 1.123
75.18000 3.527
75.20000 4.154
75.22000 0.260
75.24000 -0.783
75.26000 1.419
75.28000 4.185
75.30000 4.261
75.32000 3.990
75.34000 1.732
75.36000 1.627
75.38000 1.927
75.40000 1.224
75.42000 0.874
75.44000 4.521
75.46000 5.381
75.48000 2.607
75.50000 1.586
75.52000 0.794
75.54000 3.935
75.56000 6.286
75.58000 4.325
75.60000 1.788
75.62000 -2.102
75.64000 0.168
75.66000 1.101
75.68000 5.107
75.70000 6.374
75.72000 0.036
75.74000 1.759
75.76000 2.286
75.78000 2.036
75.80000 -1.778
75.82000 -1.946
75.84000 -0.820
75.86000 -1.901
75.88000 1.455
75.90000 2.343
75.92000 2.894
75.94000 2.633
75.96000 3.656
75.98000 1.559
76.00000 1.088
76.02000 -1.129
76.04000 2.675
76.06000 0.780
76.08000 -0.163
76.10000 3.650
76.12000 2.596
76.14000 1.945
76.16000 -0.906
76.18000 -0.551
76.20000 0.554
76.22000 -2.129
76.24000 -1.955
76.26000 3.098
76.28000 -0.440
76.30000 0.952
76.32000 1.128
76.34000 1.725
76.36000 2.873
76.38000 1.052
76.40000 1.260
76.42000 3.421
76.44000 5.990
76.46000 4.665
76.48000 2.587
76.50000 -0.288
76.52000 -0.197
76.54000 -1.737
76.56000 0.998
76.58000 3.149
76.60000 2.085
76.62000 -0.453
76.64000 0.741
76.66000 0.123
76.68000 2.499
76.70000 1.246
76.72000 -1.918
76.74000 2.125
76.76000 0.635
76.78000 1.627
76.80000 3.681
76.82000 2.086
76.84000 -1.310
76.86000 0.164
76.88000 -0.372
76.90000 3.349
76.92000 1.357
76.94000 1.842
76.96000 3.870
76.98000 6.341
77.00000 6.665
77.02000 2.380
77.04000 -1.675
77.06000 -0.012
77.08000 5.030
77.10000 3.776
77.12000 3.097
77.14000 3.843
77.16000 5.308
77.18000 6.252
77.20000 6.279
77.22000 2.249
77.24000 2.522
77.26000 -2.105
77.28000 -0.519
77.30000 0.671
77.32000 3.888
77.34000 4.342
77.36000 2.305
77.38000 0.656
77.40000 1.149
77.42000 3.015
77.44000 5.643
77.46000 4.770
77.48000 3.467
77.50000 4.261
77.52000 1.921
77.54000 1.772
77.56000 3.319
77.58000 0.414
77.60000 -0.912
77.62000 -0.306
77.64000 3.316
77.66000 4.291
77.68000 3.949
77.70000 5.552
77.72000 3.000
77.74000 3.090
77.76000 1.706
77.78000 0.501
77.80000 1.057
77.82000 -0.156
77.84000 2.197
77.86000 0.897
77.88000 -0.496
77.90000 0.222
77.92000 4.086
77.94000 5.761
77.96000 1.878
77.98000 0.744
78.00000 3.725
78.02000 4.774
78.04000 5.905
78.06000 6.887
78.08000 2.709
78.10000 2.426
78.12000 -2.121
78.14000 1.596
78.16000 6.059
78.18000 5.964
78.20000 3.814
78.22000 5.062
78.24000 2.411
78.26000 2.605
78.28000 4.986
78.30000 5.083
78.32000 4.317
78.34000 3.497
78.36000 2.578
78.38000 7.126
78.40000 -0.110
78.42000 -2.151
78.44000 -1.499
78.46000 2.922
78.48000 3.613
78.50000 3.043
78.52000 3.639
78.54000 1.070
78.56000 3.469
78.58000 1.344
78.60000 1.602
78.62000 3.237
78.64000 2.648
78.66000 3.567
78.68000 6.038
78.70000 6.005
78.72000 5.846
78.74000 1.321
78.76000 3.127
78.78000 -0.019
78.80000 -0.973
78.82000 1.861
78.84000 1.843
78.86000 3.230
78.88000 5.114
78.90000 1.476
78.92000 1.551
78.94000 2.881
78.96000 0.552
78.98000 1.086
79.00000 3.585
79.02000 0.871
79.04000 0.713
79.06000 0.908
79.08000 -0.046
79.10000 -1.665
79.12000 -2.205
79.14000 0.678
79.16000 2.694
79.18000 3.682
79.20000 4.809
79.22000 4.061
79.24000 2.611
79.26000 1.189
79.28000 1.116
79.30000 0.809
79.32000 1.404
79.34000 3.460
79.36000 2.506
79.38000 3.563
79.40000 4.870
79.42000 3.662
79.44000 2.358
79.46000 1.557
79.48000 3.668
79.50000 0.976
79.52000 1.096
79.54000 -2.174
79.56000 -2.231
79.58000 0.294
79.60000 -0.772
79.62000 -1.598
79.64000 1.593
79.66000 3.186
79.68000 2.129
79.70000 1.380
79.72000 5.192
79.74000 2.696
79.76000 1.579
79.78000 1.149
79.80000 3.468
79.82000 1.095
79.84000 -0.962
79.86000 -0.601
79.88000 0.606
79.90000 -1.163
79.92000 1.357
79.94000 2.840
79.96000 2.466
79.98000 -1.900
80.00000 -0.117
80.02000 3.577
80.04000 4.305
80.06000 -0.186
80.08000 0.295
80.10000 3.942
80.12000 4.977
80.14000 3.526
80.16000 2.508
80.18000 1.325
80.20000 5.409
80.22000 4.705
80.24000 7.523
80.26000 7.113
80.28000 4.532
80.30000 3.813
80.32000 7.233
80.34000 7.144
80.36000 4.580
80.38000 8.443
80.40000 13.290
80.42000 6.510
80.44000 4.335
80.46000 6.275
80.48000 6.329
80.50000 7.290
80.52000 6.613
80.54000 5.489
80.56000 8.594
80.58000 10.455
80.60000 9.566
80.62000 12.061
80.64000 6.978
80.66000 10.225
80.68000 11.318
80.70000 11.965
80.72000 15.319
80.74000 16.002
80.76000 15.227
80.78000 12.741
80.80000 12.495
80.82000 15.077
80.84000 18.548
80.86000 19.479
80.88000 12.667
80.90000 13.714
80.92000 18.408
80.94000 22.333
80.96000 18.653
80.98000 19.261
81.00000 19.540
81.02000 18.101
81.04000 13.848
81.06000 18.540
81.08000 18.030
81.10000 18.939
81.12000 22.116
81.14000 21.965
81.16000 23.791
81.18000 23.345
81.20000 22.444
81.22000 26.334
81.24000 30.066
81.26000 25.895
81.28000 26.115
81.30000 29.013
81.32000 32.706
81.34000 24.677
81.36000 23.301
81.38000 27.421
81.40000 29.419
81.42000 28.462
81.44000 27.108
81.46000 27.839
81.48000 25.577
81.50000 26.230
81.52000 28.543
81.54000 22.547
81.56000 21.128
81.58000 25.808
81.60000 28.137
81.62000 25.713
81.64000 24.296
81.66000 23.435
81.68000 26.124
81.70000 23.790
81.72000 21.758
81.74000 26.109
81.76000 25.444
81.78000 24.301
81.80000 21.520
81.82000 19.913
81.84000 21.663
81.86000 20.808
81.88000 20.963
81.90000 17.128
81.92000 19.383
81.94000 18.632
81.96000 18.641
81.98000 17.653
82.00000 18.632
82.02000 16.493
82.04000 13.932
82.06000 16.471
82.08000 19.113
82.10000 19.979
82.12000 16.401
82.14000 13.515
82.16000 14.124
82.18000 12.628
82.20000 11.193
82.22000 13.378
82.24000 16.053
82.26000 14.401
82.28000 9.166
82.30000 6.366
82.32000 4.911
82.34000 6.765
82.36000 9.042
82.38000 8.501
82.40000 6.260
82.42000 6.206
82.44000 6.883
82.46000 9.739
82.48000 10.463
82.50000 9.603
82.52000 8.308
82.54000 6.842
82.56000 7.082
82.58000 8.691
82.60000 5.378
82.62000 6.148
82.64000 6.382
82.66000 3.729
82.68000 1.181
82.70000 0.087
82.72000 2.211
82.74000 -1.129
82.76000 0.109
82.78000 2.602
82.80000 2.136
82.82000 2.730
82.84000 1.669
82.86000 3.091
82.88000 1.007
82.90000 3.071
82.92000 1.512
82.94000 1.663
82.96000 0.755
82.98000 1.199
83.00000 0.689
83.02000 2.023
83.04000 2.005
83.06000 4.400
83.08000 6.867
83.10000 4.330
83.12000 -0.094
83.14000 2.379
83.16000 5.001
83.18000 5.131
83.20000 5.111
83.22000 4.768
83.24000 -0.475
83.26000 3.493
83.28000 1.118
83.30000 -2.250
83.32000 -1.187
83.34000 1.976
83.36000 4.543
83.38000 4.629
83.40000 4.825
83.42000 5.120
83.44000 2.910
83.46000 1.519
83.48000 4.077
83.50000 3.504
83.52000 4.180
83.54000 6.291
83.56000 0.754
83.58000 2.919
83.60000 6.044
83.62000 2.148
83.64000 2.957
83.66000 4.597
83.68000 2.433
83.70000 4.022
83.72000 6.396
83.74000 3.327
83.76000 -0.049
83.78000 -0.943
83.80000 -0.310
83.82000 -2.292
83.84000 -2.001
83.86000 1.565
83.88000 1.301
83.90000 1.088
83.92000 0.452
83.94000 0.260
83.96000 3.485
83.98000 2.062
84.00000 0.336
84.02000 3.249
84.04000 2.051
84.06000 0.654
84.08000 1.655
84.10000 5.155
84.12000 5.717
84.14000 2.026
84.16000 0.041
84.18000 3.513
84.20000 7.818
84.22000 5.490
84.24000 5.648
84.26000 2.336
84.28000 4.453
84.30000 4.766
84.32000 6.765
84.34000 6.458
84.36000 5.892
84.38000 6.748
84.40000 7.214
84.42000 8.698
84.44000 5.864
84.46000 3.833
84.48000 5.831
84.50000 8.562
84.52000 8.405
84.54000 10.868
84.56000 12.361
84.58000 15.200
84.60000 13.337
84.62000 10.311
84.64000 10.775
84.66000 15.857
84.68000 14.043
84.70000 15.916
84.72000 17.687
84.74000 17.118
84.76000 16.965
84.78000 13.705
84.80000 11.401
84.82000 19.128
84.84000 20.938
84.86000 17.295
84.88000 18.086
84.90000 23.750
84.92000 21.335
84.94000 19.287
84.96000 17.511
84.98000 21.290
85.00000 24.265
85.02000 22.142
85.04000 23.860
85.06000 23.296
85.08000 20.626
85.10000 23.551
85.12000 22.518
85.14000 22.617
85.16000 25.948
85.18000 26.796
85.20000 25.330
85.22000 32.402
85.24000 32.268
85.26000 25.118
85.28000 26.722
85.30000 26.197
85.32000 23.754
85.34000 28.904
85.36000 30.802
85.38000 31.551
85.40000 30.564
85.42000 27.025
85.44000 28.838
85.46000 27.729
85.48000 26.610
85.50000 25.335
85.52000 31.839
85.54000 30.007
85.56000 28.335
85.58000 27.444
85.60000 25.297
85.62000 22.433
85.64000 20.411
85.66000 23.109
85.68000 24.097
85.70000 29.189
85.72000 27.026
85.74000 25.977
85.76000 24.937
85.78000 21.252
85.80000 22.139
85.82000 26.152
85.84000 25.932
85.86000 27.495
85.88000 23.106
85.90000 25.296
85.92000 21.808
85.94000 19.530
85.96000 19.937
85.98000 17.660
86.00000 21.972
86.02000 21.020
86.04000 14.960
86.06000 10.454
86.08000 9.687
86.10000 11.546
86.12000 13.334
86.14000 14.977
86.16000 13.957
86.18000 12.131
86.20000 9.956
86.22000 7.193
86.24000 7.448
86.26000 7.017
86.28000 10.070
86.30000 10.088
86.32000 9.333
86.34000 6.634
86.36000 3.575
86.38000 3.186
86.40000 4.160
86.42000 2.448
86.44000 2.324
86.46000 2.681
86.48000 3.781
86.50000 3.689
86.52000 1.779
86.54000 1.384
86.56000 2.575
86.58000 5.000
86.60000 3.639
86.62000 -0.356
86.64000 -2.158
86.66000 1.385
86.68000 -1.049
86.70000 1.019
86.72000 1.842
86.74000 1.178
86.76000 1.244
86.78000 1.772
86.80000 1.382
86.82000 0.092
86.84000 1.561
86.86000 6.338
86.88000 5.094
86.90000 2.987
86.92000 3.172
86.94000 3.277
86.96000 1.385
86.98000 1.765
87.00000 1.350
87.02000 -2.096
87.04000 -1.802
87.06000 1.024
87.08000 0.587
87.10000 1.165
87.12000 -0.520
87.14000 -1.575
87.16000 0.064
87.18000 4.048
87.20000 1.106
87.22000 0.564
87.24000 0.678
87.26000 1.410
87.28000 1.168
87.30000 2.957
87.32000 0.202
87.34000 -0.024
87.36000 0.617
87.38000 0.591
87.40000 2.180
87.42000 2.809
87.44000 0.792
87.46000 1.347
87.48000 -1.348
87.50000 -1.512
87.52000 1.795
87.54000 1.984
87.56000 1.967
87.58000 1.359
87.60000 -0.517
87.62000 2.996
87.64000 2.479
87.66000 1.332
87.68000 -2.048
87.70000 -0.363
87.72000 4.677
87.74000 1.394
87.76000 1.888
87.78000 2.110
87.80000 1.194
87.82000 0.272
87.84000 -0.171
87.86000 -0.223
87.88000 -1.818
87.90000 0.775
87.92000 2.529
87.94000 6.717
87.96000 3.305
87.98000 1.490
88.00000 3.859
88.02000 0.571
88.04000 1.370
88.06000 -0.734
88.08000 5.500
88.10000 5.035
88.12000 2.301
88.14000 2.578
88.16000 -0.473
88.18000 0.344
88.20000 3.539
88.22000 3.297
88.24000 1.641
88.26000 0.239
88.28000 -1.080
88.30000 -0.791
88.32000 -0.336
88.34000 -0.411
88.36000 2.228
88.38000 3.601
88.40000 2.374
88.42000 -0.663
88.44000 -0.845
88.46000 2.183
88.48000 0.697
88.50000 -1.998
88.52000 -0.348
88.54000 0.621
88.56000 -0.478
88.58000 0.928
88.60000 4.929
88.62000 2.926
88.64000 2.173
88.66000 0.964
88.68000 5.126
88.70000 7.747
88.72000 5.335
88.74000 2.218
88.76000 4.753
88.78000 2.034
88.80000 4.964
88.82000 -0.043
88.84000 1.113
88.86000 2.136
88.88000 -0.620
88.90000 -1.549
88.92000 2.527
88.94000 4.858
88.96000 4.368
88.98000 2.898
89.00000 1.238
89.02000 -1.198
89.04000 -1.107
89.06000 3.007
89.08000 1.789
89.10000 2.862
89.12000 2.673
89.14000 0.705
89.16000 1.603
89.18000 4.568
89.20000 2.382
89.22000 0.009
89.24000 -1.979
89.26000 1.571
89.28000 3.238
89.30000 4.310
89.32000 4.692
89.34000 2.670
89.36000 2.964
89.38000 -0.136
89.40000 -0.507
89.42000 -0.809
89.44000 -1.812
89.46000 0.907
89.48000 2.655
89.50000 3.444
89.52000 5.071
89.54000 3.788
89.56000 5.102
89.58000 1.649
89.60000 -0.639
89.62000 2.212
89.64000 1.607
89.66000 3.940
89.68000 2.075
89.70000 1.889
89.72000 2.831
89.74000 -0.938
89.76000 1.174
89.78000 1.841
89.80000 4.460
89.82000 3.707
89.84000 5.513
89.86000 1.221
89.88000 3.975
89.90000 1.963
89.92000 1.150
89.94000 2.591
89.96000 1.778
89.98000 2.673
90.00000 4.495
90.02000 3.192
90.04000 1.523
90.06000 2.593
90.08000 5.860
90.10000 4.144
90.12000 0.770
90.14000 1.030
90.16000 3.854
90.18000 0.820
90.20000 0.870
90.22000 4.045
90.24000 1.030
90.26000 5.834
90.28000 8.057
90.30000 6.762
90.32000 5.349
90.34000 1.120
90.36000 1.599
90.38000 2.527
90.40000 1.657
90.42000 3.495
90.44000 5.390
90.46000 5.712
90.48000 5.848
90.50000 0.863
90.52000 -1.430
90.54000 -1.929
90.56000 2.424
90.58000 3.178
90.60000 5.232
90.62000 8.011
90.64000 6.019
90.66000 5.272
90.68000 7.901
90.70000 2.273
90.72000 2.876
90.74000 2.361
90.76000 1.325
90.78000 5.236
90.80000 3.773
90.82000 3.532
90.84000 0.085
90.86000 4.420
90.88000 5.450
90.90000 5.465
90.92000 6.881
90.94000 7.042
90.96000 1.998
90.98000 2.009
91.00000 0.436
91.02000 0.194
91.04000 1.934
91.06000 1.673
91.08000 1.944
91.10000 4.149
91.12000 6.945
91.14000 4.775
91.16000 3.909
91.18000 2.371
91.20000 3.050
91.22000 2.292
91.24000 3.174
91.26000 5.408
91.28000 5.834
91.30000 1.045
91.32000 3.111
91.34000 3.103
91.36000 2.877
91.38000 1.513
91.40000 3.748
91.42000 2.313
91.44000 -0.158
91.46000 -0.031
91.48000 3.234
91.50000 5.740
91.52000 6.550
91.54000 5.361
91.56000 4.106
91.58000 2.701
91.60000 6.732
91.62000 5.430
91.64000 5.729
91.66000 5.350
91.68000 5.679
91.70000 5.484
91.72000 6.177
91.74000 3.918
91.76000 2.078
91.78000 -0.523
91.80000 2.182
91.82000 5.360
91.84000 3.136
91.86000 3.756
91.88000 2.717
91.90000 3.622
91.92000 3.115
91.94000 4.053
91.96000 3.249
91.98000 2.233
92.00000 4.774
92.02000 6.208
92.04000 7.357
92.06000 6.974
92.08000 6.065
92.10000 5.162
92.12000 2.264
92.14000 3.230
92.16000 2.293
92.18000 -1.951
92.20000 4.448
92.22000 5.316
92.24000 5.136
92.26000 3.951
92.28000 3.084
92.30000 1.667
92.32000 0.915
92.34000 5.702
92.36000 4.408
92.38000 3.471
92.40000 3.772
92.42000 5.731
92.44000 6.901
92.46000 1.405
92.48000 1.853
92.50000 1.758
92.52000 1.943
92.54000 7.093
92.56000 7.470
92.58000 8.781
92.60000 4.789
92.62000 3.170
92.64000 4.017
92.66000 1.300
92.68000 -1.965
92.70000 2.072
92.72000 6.110
92.74000 2.744
92.76000 2.869
92.78000 1.055
92.80000 1.187
92.82000 1.369
92.84000 3.842
92.86000 -0.085
92.88000 1.134
92.90000 1.095
92.92000 5.239
92.94000 3.124
92.96000 1.866
92.98000 3.454
93.00000 -1.187
93.02000 -0.427
93.04000 3.572
93.06000 0.703
93.08000 -0.865
93.10000 5.353
93.12000 3.261
93.14000 4.824
93.16000 1.214
93.18000 -0.269
93.20000 0.348
93.22000 0.168
93.24000 -1.155
93.26000 1.317
93.28000 3.658
93.30000 3.177
93.32000 2.190
93.34000 2.351
93.36000 3.253
93.38000 4.069
93.40000 0.710
93.42000 0.242
93.44000 -0.565
93.46000 0.333
93.48000 -2.009
93.50000 -1.815
93.52000 5.692
93.54000 2.821
93.56000 -1.408
93.58000 -0.201
93.60000 0.337
93.62000 4.912
93.64000 4.227
93.66000 3.222
93.68000 0.588
93.70000 0.584
93.72000 -0.124
93.74000 0.272
93.76000 0.251
93.78000 1.032
93.80000 2.794
93.82000 -0.643
93.84000 4.753
93.86000 1.059
93.88000 4.525
93.90000 -0.346
93.92000 1.900
93.94000 -2.020
93.96000 0.633
93.98000 1.195
94.00000 2.896
94.02000 1.163
94.04000 2.339
94.06000 4.848
94.08000 3.780
94.10000 -1.351
94.12000 0.278
94.14000 2.925
94.16000 1.478
94.18000 1.381
94.20000 1.516
94.22000 4.786
94.24000 5.429
94.26000 6.756
94.28000 6.230
94.30000 4.147
94.32000 1.054
94.34000 3.332
94.36000 1.297
94.38000 1.590
94.40000 3.857
94.42000 1.023
94.44000 6.123
94.46000 4.600
94.48000 3.547
94.50000 0.658
94.52000 3.218
94.54000 2.084
94.56000 3.811
94.58000 6.031
94.60000 6.764
94.62000 5.320
94.64000 6.189
94.66000 5.083
94.68000 5.030
94.70000 4.790
94.72000 3.747
94.74000 1.002
94.76000 -0.007
94.78000 2.338
94.80000 2.283
94.82000 0.515
94.84000 0.140
94.86000 -2.009
94.88000 -0.924
94.90000 -1.397
94.92000 1.690
94.94000 0.353
94.96000 0.070
94.98000 -1.290
95.00000 -0.973
95.02000 1.779
95.04000 0.364
95.06000 -0.527
95.08000 1.749
95.10000 2.608
95.12000 1.509
95.14000 -1.984
95.16000 -0.369
95.18000 7.578
95.20000 5.085
95.22000 0.815
95.24000 -2.023
95.26000 -0.062
95.28000 0.789
95.30000 3.159
95.32000 2.409
95.34000 0.417
95.36000 2.630
95.38000 6.844
95.40000 6.210
95.42000 2.759
95.44000 -1.077
95.46000 2.803
95.48000 3.019
95.50000 1.264
95.52000 3.090
95.54000 4.726
95.56000 6.236
95.58000 2.415
95.60000 -0.717
95.62000 1.073
95.64000 3.041
95.66000 0.884
95.68000 1.735
95.70000 1.650
95.72000 7.223
95.74000 4.442
95.76000 3.077
95.78000 3.749
95.80000 -1.120
95.82000 -1.018
95.84000 1.928
95.86000 3.989
95.88000 -1.179
95.90000 0.742
95.92000 0.410
95.94000 2.012
95.96000 4.876
95.98000 1.394
96.00000 -2.015
96.02000 3.162
96.04000 3.702
96.06000 1.441
96.08000 -0.354
96.10000 0.540
96.12000 1.148
96.14000 1.068
96.16000 5.481
96.18000 5.031
96.20000 3.737
96.22000 7.163
96.24000 2.195
96.26000 1.680
96.28000 0.388
96.30000 3.482
96.32000 1.802
96.34000 -1.997
96.36000 -0.429
96.38000 2.490
96.40000 2.549
96.42000 3.649
96.44000 6.026
96.46000 2.383
96.48000 4.483
96.50000 1.510
96.52000 1.035
96.54000 1.105
96.56000 -1.521
96.58000 3.057
96.60000 4.560
96.62000 0.367
96.64000 0.935
96.66000 3.235
96.68000 3.629
96.70000 5.693
96.72000 7.040
96.74000 4.205
96.76000 1.390
96.78000 5.268
96.80000 5.148
96.82000 4.333
96.84000 4.225
96.86000 6.495
96.88000 7.752
96.90000 2.018
96.92000 2.840
96.94000 1.538
96.96000 5.031
96.98000 6.256
97.00000 4.354
97.02000 3.349
97.04000 7.067
97.06000 7.331
97.08000 9.089
97.10000 5.527
97.12000 5.669
97.14000 2.773
97.16000 4.823
97.18000 2.652
97.20000 3.433
97.22000 4.172
97.24000 2.238
97.26000 5.741
97.28000 0.292
97.30000 1.717
97.32000 -1.952
97.34000 3.102
97.36000 6.562
97.38000 11.107
97.40000 8.469
97.42000 7.889
97.44000 5.369
97.46000 2.596
97.48000 3.862
97.50000 4.488
97.52000 7.797
97.54000 13.319
97.56000 9.547
97.58000 7.281
97.60000 3.743
97.62000 2.387
97.64000 1.850
97.66000 1.513
97.68000 0.120
97.70000 2.338
97.72000 3.862
97.74000 3.610
97.76000 4.543
97.78000 5.271
97.80000 2.715
97.82000 1.089
97.84000 3.656
97.86000 0.967
97.88000 -1.933
97.90000 1.797
97.92000 8.055
97.94000 9.395
97.96000 5.938
97.98000 5.424
98.00000 4.648
98.02000 8.658
98.04000 9.504
98.06000 7.504
98.08000 5.671
98.10000 8.694
98.12000 7.022
98.14000 5.382
98.16000 7.443
98.18000 7.942
98.20000 5.068
98.22000 3.236
98.24000 2.336
98.26000 2.657
98.28000 4.369
98.30000 6.424
98.32000 7.283
98.34000 8.138
98.36000 8.615
98.38000 8.105
98.40000 4.973
98.42000 2.408
98.44000 5.537
98.46000 10.428
98.48000 7.385
98.50000 8.186
98.52000 11.728
98.54000 7.943
98.56000 4.007
98.58000 3.030
98.60000 9.405
98.62000 7.267
98.64000 8.435
98.66000 10.436
98.68000 8.809
98.70000 0.528
98.72000 1.161
98.74000 6.032
98.76000 8.806
98.78000 6.930
98.80000 7.138
98.82000 11.836
98.84000 1.003
98.86000 1.177
98.88000 5.183
98.90000 7.391
98.92000 10.664
98.94000 12.773
98.96000 12.599
98.98000 8.697
99.00000 6.110
99.02000 3.914
99.04000 6.034
99.06000 3.928
99.08000 4.199
99.10000 4.341
99.12000 6.469
99.14000 -0.093
99.16000 0.657
99.18000 5.076
99.20000 9.108
99.22000 7.956
99.24000 -0.693
99.26000 -1.877
99.28000 6.139
99.30000 4.383
99.32000 6.787
99.34000 14.327
99.36000 11.552
99.38000 8.108
99.40000 10.725
99.42000 3.348
99.44000 -4.264
99.46000 6.124
99.48000 12.432
99.50000 9.164
99.52000 5.184
99.54000 5.936
99.56000 4.643
99.58000 7.427
99.60000 12.128
99.62000 10.458
99.64000 11.158
99.66000 11.056
99.68000 9.873
99.70000 1.694
99.72000 3.634
99.74000 1.986
99.76000 1.270
99.78000 -0.990
99.80000 5.814
99.82000 8.038
99.84000 2.937
99.86000 1.146
99.88000 6.034
99.90000 10.919
99.92000 3.590
99.94000 -0.249
99.96000 -2.042
99.98000 0.000
