'Id: "0011389" Comment: "Integrate frame 0011389_Au-Ir-Rh_Au-Rich_XRD_Mapping-269-0000.gfrmwith cursor Wedge Cursor #5" Operator: "B?rgel" Anode: "Cu" Wavelength: "1.5406" Scantype: "2Theta (TwoTheta)" TimePerStep: "1" X: "0" Y: "22.5" Z: "5.95" 
10.00000 0.000
10.02000 -4.344
10.04000 -4.248
10.06000 3.767
10.08000 13.913
10.10000 22.136
10.12000 9.648
10.14000 18.282
10.16000 21.770
10.18000 7.923
10.20000 4.917
10.22000 0.835
10.24000 8.501
10.26000 9.834
10.28000 20.329
10.30000 9.892
10.32000 4.043
10.34000 14.912
10.36000 25.376
10.38000 12.687
10.40000 10.239
10.42000 10.359
10.44000 35.117
10.46000 48.996
10.48000 45.322
10.50000 20.910
10.52000 11.575
10.54000 3.003
10.56000 9.871
10.58000 14.571
10.60000 13.805
10.62000 20.470
10.64000 11.885
10.66000 12.319
10.68000 15.938
10.70000 15.829
10.72000 20.998
10.74000 15.587
10.76000 16.234
10.78000 14.608
10.80000 10.520
10.82000 5.294
10.84000 11.021
10.86000 27.928
10.88000 26.673
10.90000 12.703
10.92000 13.952
10.94000 19.486
10.96000 18.286
10.98000 17.608
11.00000 17.803
11.02000 21.471
11.04000 32.343
11.06000 22.039
11.08000 13.462
11.10000 27.858
11.12000 25.299
11.14000 18.376
11.16000 16.256
11.18000 16.120
11.20000 29.088
11.22000 22.573
11.24000 30.685
11.26000 34.253
11.28000 21.614
11.30000 33.677
11.32000 26.340
11.34000 17.547
11.36000 14.828
11.38000 13.088
11.40000 18.193
11.42000 25.851
11.44000 28.775
11.46000 25.326
11.48000 9.926
11.50000 -4.273
11.52000 -2.451
11.54000 9.884
11.56000 19.490
11.58000 18.013
11.60000 20.974
11.62000 16.208
11.64000 18.571
11.66000 38.112
11.68000 33.443
11.70000 11.159
11.72000 17.965
11.74000 23.716
11.76000 19.213
11.78000 28.592
11.80000 26.317
11.82000 27.812
11.84000 26.514
11.86000 19.937
11.88000 17.863
11.90000 20.962
11.92000 20.501
11.94000 28.875
11.96000 24.862
11.98000 8.286
12.00000 23.864
12.02000 23.621
12.04000 22.764
12.06000 27.532
12.08000 30.998
12.10000 38.691
12.12000 23.317
12.14000 16.102
12.16000 16.913
12.18000 16.883
12.20000 17.176
12.22000 15.947
12.24000 28.367
12.26000 31.669
12.28000 27.272
12.30000 19.059
12.32000 19.912
12.34000 13.702
12.36000 24.234
12.38000 23.729
12.40000 19.311
12.42000 10.855
12.44000 28.921
12.46000 29.706
12.48000 24.672
12.50000 22.684
12.52000 15.171
12.54000 12.599
12.56000 14.039
12.58000 20.509
12.60000 17.422
12.62000 22.916
12.64000 29.083
12.66000 21.261
12.68000 20.307
12.70000 22.244
12.72000 20.192
12.74000 25.642
12.76000 24.072
12.78000 27.218
12.80000 29.451
12.82000 21.480
12.84000 11.534
12.86000 12.123
12.88000 18.617
12.90000 29.939
12.92000 27.937
12.94000 21.769
12.96000 18.767
12.98000 10.860
13.00000 18.040
13.02000 19.819
13.04000 21.774
13.06000 26.002
13.08000 24.348
13.10000 20.072
13.12000 16.389
13.14000 21.864
13.16000 18.086
13.18000 13.773
13.20000 16.526
13.22000 10.841
13.24000 12.698
13.26000 26.217
13.28000 21.458
13.30000 18.288
13.32000 16.611
13.34000 9.513
13.36000 15.446
13.38000 25.268
13.40000 19.553
13.42000 16.766
13.44000 19.085
13.46000 15.001
13.48000 19.248
13.50000 20.357
13.52000 11.615
13.54000 21.319
13.56000 22.614
13.58000 23.617
13.60000 12.849
13.62000 14.521
13.64000 16.566
13.66000 8.102
13.68000 11.315
13.70000 13.386
13.72000 13.593
13.74000 18.063
13.76000 20.542
13.78000 13.975
13.80000 9.303
13.82000 12.549
13.84000 20.034
13.86000 18.684
13.88000 22.620
13.90000 20.045
13.92000 17.107
13.94000 18.954
13.96000 14.881
13.98000 10.955
14.00000 11.611
14.02000 15.569
14.04000 20.035
14.06000 15.623
14.08000 2.633
14.10000 2.293
14.12000 18.721
14.14000 17.049
14.16000 16.772
14.18000 14.472
14.20000 18.849
14.22000 18.124
14.24000 8.363
14.26000 10.656
14.28000 19.165
14.30000 17.578
14.32000 20.906
14.34000 17.929
14.36000 11.476
14.38000 14.716
14.40000 19.629
14.42000 13.853
14.44000 10.527
14.46000 6.552
14.48000 13.231
14.50000 12.421
14.52000 13.305
14.54000 15.248
14.56000 15.331
14.58000 13.440
14.60000 14.449
14.62000 18.907
14.64000 8.460
14.66000 13.526
14.68000 13.700
14.70000 23.179
14.72000 18.946
14.74000 11.537
14.76000 13.508
14.78000 12.550
14.80000 5.371
14.82000 5.575
14.84000 8.469
14.86000 8.860
14.88000 7.983
14.90000 10.521
14.92000 20.517
14.94000 14.036
14.96000 8.745
14.98000 12.328
15.00000 13.320
15.02000 17.716
15.04000 22.565
15.06000 22.399
15.08000 20.083
15.10000 4.649
15.12000 -0.498
15.14000 0.513
15.16000 3.220
15.18000 6.058
15.20000 11.658
15.22000 11.958
15.24000 10.488
15.26000 18.037
15.28000 16.655
15.30000 13.011
15.32000 6.724
15.34000 10.721
15.36000 17.944
15.38000 17.968
15.40000 20.109
15.42000 17.677
15.44000 14.495
15.46000 15.844
15.48000 16.284
15.50000 15.315
15.52000 12.447
15.54000 11.806
15.56000 6.172
15.58000 9.873
15.60000 1.646
15.62000 1.492
15.64000 8.363
15.66000 12.198
15.68000 9.177
15.70000 1.117
15.72000 2.800
15.74000 7.055
15.76000 11.191
15.78000 15.876
15.80000 14.625
15.82000 14.788
15.84000 18.289
15.86000 17.658
15.88000 13.092
15.90000 9.156
15.92000 16.504
15.94000 14.298
15.96000 12.493
15.98000 9.397
16.00000 13.396
16.02000 19.064
16.04000 14.945
16.06000 8.626
16.08000 2.883
16.10000 9.721
16.12000 3.909
16.14000 4.570
16.16000 8.316
16.18000 9.281
16.20000 10.323
16.22000 13.088
16.24000 7.601
16.26000 -0.569
16.28000 -2.738
16.30000 -4.428
16.32000 6.164
16.34000 -1.253
16.36000 -2.789
16.38000 -4.074
16.40000 -2.319
16.42000 7.024
16.44000 1.504
16.46000 2.900
16.48000 7.959
16.50000 10.199
16.52000 6.478
16.54000 8.050
16.56000 9.964
16.58000 17.400
16.60000 13.384
16.62000 9.644
16.64000 11.319
16.66000 8.271
16.68000 0.847
16.70000 9.271
16.72000 14.920
16.74000 15.526
16.76000 8.798
16.78000 3.647
16.80000 10.618
16.82000 6.830
16.84000 -0.617
16.86000 -0.291
16.88000 12.545
16.90000 7.126
16.92000 2.226
16.94000 8.781
16.96000 7.528
16.98000 -2.321
17.00000 5.373
17.02000 3.632
17.04000 10.145
17.06000 14.968
17.08000 10.161
17.10000 4.155
17.12000 6.652
17.14000 17.365
17.16000 10.075
17.18000 4.425
17.20000 6.942
17.22000 9.816
17.24000 3.739
17.26000 6.670
17.28000 13.001
17.30000 11.327
17.32000 1.575
17.34000 0.873
17.36000 9.845
17.38000 13.432
17.40000 7.182
17.42000 2.687
17.44000 8.114
17.46000 9.756
17.48000 13.217
17.50000 8.089
17.52000 5.099
17.54000 2.534
17.56000 -1.057
17.58000 4.522
17.60000 6.817
17.62000 10.877
17.64000 5.209
17.66000 3.164
17.68000 -0.521
17.70000 1.914
17.72000 5.260
17.74000 4.458
17.76000 8.773
17.78000 7.052
17.80000 3.929
17.82000 6.278
17.84000 8.556
17.86000 10.275
17.88000 11.380
17.90000 9.656
17.92000 4.771
17.94000 2.321
17.96000 3.292
17.98000 7.576
18.00000 5.737
18.02000 0.457
18.04000 -0.611
18.06000 4.243
18.08000 6.394
18.10000 7.328
18.12000 8.475
18.14000 8.849
18.16000 9.485
18.18000 8.545
18.20000 7.196
18.22000 7.998
18.24000 1.580
18.26000 3.488
18.28000 5.332
18.30000 -0.810
18.32000 0.575
18.34000 -4.363
18.36000 2.558
18.38000 10.125
18.40000 2.291
18.42000 0.836
18.44000 6.668
18.46000 7.652
18.48000 4.667
18.50000 7.401
18.52000 3.575
18.54000 3.583
18.56000 4.237
18.58000 -0.500
18.60000 2.974
18.62000 4.340
18.64000 -2.004
18.66000 -1.381
18.68000 4.288
18.70000 7.826
18.72000 4.890
18.74000 0.796
18.76000 4.213
18.78000 6.678
18.80000 1.025
18.82000 -0.253
18.84000 2.414
18.86000 1.623
18.88000 1.534
18.90000 5.868
18.92000 2.001
18.94000 1.962
18.96000 7.630
18.98000 4.845
19.00000 4.250
19.02000 -0.553
19.04000 3.892
19.06000 2.620
19.08000 -2.599
19.10000 -0.206
19.12000 3.939
19.14000 0.491
19.16000 -1.255
19.18000 1.028
19.20000 -0.898
19.22000 4.439
19.24000 13.948
19.26000 6.657
19.28000 7.403
19.30000 8.566
19.32000 14.435
19.34000 7.037
19.36000 1.369
19.38000 8.138
19.40000 11.492
19.42000 5.715
19.44000 10.129
19.46000 6.523
19.48000 1.657
19.50000 0.817
19.52000 9.167
19.54000 9.829
19.56000 6.832
19.58000 1.551
19.60000 3.115
19.62000 2.517
19.64000 5.911
19.66000 6.770
19.68000 6.338
19.70000 3.998
19.72000 1.604
19.74000 -2.502
19.76000 2.262
19.78000 8.938
19.80000 2.990
19.82000 -1.971
19.84000 2.123
19.86000 3.269
19.88000 0.749
19.90000 -0.429
19.92000 5.249
19.94000 5.351
19.96000 4.712
19.98000 4.892
20.00000 -0.625
20.02000 2.836
20.04000 4.062
20.06000 -2.511
20.08000 -3.310
20.10000 4.851
20.12000 4.913
20.14000 3.200
20.16000 3.942
20.18000 7.563
20.20000 5.897
20.22000 7.405
20.24000 7.674
20.26000 4.690
20.28000 -3.126
20.30000 3.607
20.32000 0.474
20.34000 -0.158
20.36000 -4.236
20.38000 -2.733
20.40000 2.285
20.42000 0.523
20.44000 -0.359
20.46000 -1.683
20.48000 -3.164
20.50000 0.783
20.52000 3.924
20.54000 1.090
20.56000 7.200
20.58000 10.784
20.60000 7.724
20.62000 0.683
20.64000 0.057
20.66000 1.955
20.68000 4.730
20.70000 3.925
20.72000 2.163
20.74000 4.192
20.76000 4.701
20.78000 7.241
20.80000 1.213
20.82000 -2.229
20.84000 -1.613
20.86000 3.271
20.88000 2.120
20.90000 -1.618
20.92000 1.112
20.94000 6.475
20.96000 0.800
20.98000 1.853
21.00000 4.873
21.02000 3.392
21.04000 7.158
21.06000 1.052
21.08000 -3.142
21.10000 -0.337
21.12000 1.133
21.14000 7.832
21.16000 6.156
21.18000 1.604
21.20000 -2.447
21.22000 0.580
21.24000 4.042
21.26000 3.105
21.28000 4.120
21.30000 6.321
21.32000 5.498
21.34000 -0.008
21.36000 -1.762
21.38000 1.802
21.40000 5.214
21.42000 2.222
21.44000 -1.360
21.46000 -0.498
21.48000 -4.162
21.50000 5.359
21.52000 9.271
21.54000 11.258
21.56000 3.393
21.58000 3.286
21.60000 10.925
21.62000 5.771
21.64000 2.755
21.66000 8.012
21.68000 7.083
21.70000 7.187
21.72000 5.160
21.74000 0.811
21.76000 10.885
21.78000 7.009
21.80000 6.772
21.82000 8.962
21.84000 6.460
21.86000 4.704
21.88000 4.733
21.90000 4.363
21.92000 4.760
21.94000 -0.508
21.96000 -0.806
21.98000 5.830
22.00000 6.364
22.02000 1.177
22.04000 2.183
22.06000 9.339
22.08000 5.971
22.10000 -1.975
22.12000 -4.123
22.14000 -2.856
22.16000 -2.438
22.18000 6.473
22.20000 11.881
22.22000 8.485
22.24000 5.268
22.26000 9.176
22.28000 7.443
22.30000 7.246
22.32000 9.100
22.34000 11.305
22.36000 13.015
22.38000 8.209
22.40000 8.395
22.42000 10.434
22.44000 12.391
22.46000 12.932
22.48000 8.034
22.50000 5.777
22.52000 3.217
22.54000 -0.779
22.56000 -1.162
22.58000 2.931
22.60000 5.812
22.62000 9.908
22.64000 7.401
22.66000 -3.768
22.68000 1.263
22.70000 4.919
22.72000 9.118
22.74000 3.546
22.76000 2.561
22.78000 3.237
22.80000 4.767
22.82000 5.398
22.84000 4.891
22.86000 10.638
22.88000 4.456
22.90000 0.309
22.92000 -0.190
22.94000 5.947
22.96000 8.661
22.98000 8.993
23.00000 13.991
23.02000 7.163
23.04000 3.142
23.06000 1.372
23.08000 7.957
23.10000 14.497
23.12000 5.469
23.14000 5.080
23.16000 6.117
23.18000 2.264
23.20000 3.509
23.22000 7.035
23.24000 5.316
23.26000 4.870
23.28000 5.284
23.30000 0.368
23.32000 2.074
23.34000 1.437
23.36000 -0.245
23.38000 4.644
23.40000 5.511
23.42000 1.401
23.44000 -0.456
23.46000 1.954
23.48000 5.542
23.50000 8.493
23.52000 7.872
23.54000 11.395
23.56000 8.223
23.58000 6.198
23.60000 3.769
23.62000 -4.030
23.64000 2.995
23.66000 1.313
23.68000 4.255
23.70000 1.005
23.72000 -0.157
23.74000 7.343
23.76000 10.232
23.78000 12.549
23.80000 12.464
23.82000 13.129
23.84000 13.135
23.86000 8.762
23.88000 7.864
23.90000 11.293
23.92000 5.643
23.94000 1.010
23.96000 -4.001
23.98000 0.837
24.00000 1.346
24.02000 6.356
24.04000 8.885
24.06000 13.991
24.08000 12.757
24.10000 3.265
24.12000 2.033
24.14000 3.817
24.16000 3.149
24.18000 4.170
24.20000 3.899
24.22000 6.170
24.24000 9.602
24.26000 4.219
24.28000 10.530
24.30000 10.176
24.32000 10.266
24.34000 11.500
24.36000 5.364
24.38000 3.086
24.40000 4.718
24.42000 3.962
24.44000 1.075
24.46000 3.329
24.48000 4.375
24.50000 5.323
24.52000 6.663
24.54000 8.451
24.56000 4.952
24.58000 1.674
24.60000 -1.367
24.62000 2.792
24.64000 7.600
24.66000 3.922
24.68000 5.029
24.70000 6.563
24.72000 3.344
24.74000 0.848
24.76000 -3.984
24.78000 -0.803
24.80000 5.986
24.82000 3.119
24.84000 -0.986
24.86000 4.794
24.88000 1.566
24.90000 0.267
24.92000 1.262
24.94000 0.971
24.96000 -0.414
24.98000 -0.112
25.00000 5.071
25.02000 6.133
25.04000 6.918
25.06000 3.090
25.08000 3.698
25.10000 6.816
25.12000 0.896
25.14000 6.430
25.16000 6.517
25.18000 8.916
25.20000 11.055
25.22000 6.579
25.24000 8.940
25.26000 7.968
25.28000 3.690
25.30000 0.246
25.32000 4.274
25.34000 7.424
25.36000 9.519
25.38000 10.826
25.40000 12.725
25.42000 6.280
25.44000 1.212
25.46000 3.938
25.48000 2.305
25.50000 -0.346
25.52000 1.671
25.54000 2.435
25.56000 5.278
25.58000 4.439
25.60000 5.064
25.62000 4.539
25.64000 1.355
25.66000 1.746
25.68000 0.798
25.70000 1.199
25.72000 -1.107
25.74000 1.241
25.76000 0.585
25.78000 -1.198
25.80000 2.306
25.82000 2.405
25.84000 2.289
25.86000 4.351
25.88000 7.289
25.90000 6.454
25.92000 2.062
25.94000 0.237
25.96000 -2.607
25.98000 -3.939
26.00000 1.060
26.02000 5.578
26.04000 5.960
26.06000 -0.148
26.08000 8.872
26.10000 9.649
26.12000 4.430
26.14000 5.310
26.16000 5.097
26.18000 7.332
26.20000 4.115
26.22000 0.939
26.24000 0.395
26.26000 4.041
26.28000 9.046
26.30000 5.631
26.32000 -1.978
26.34000 -2.894
26.36000 -1.536
26.38000 4.668
26.40000 5.409
26.42000 5.279
26.44000 6.799
26.46000 1.032
26.48000 0.485
26.50000 2.651
26.52000 -0.441
26.54000 5.442
26.56000 5.866
26.58000 0.236
26.60000 6.551
26.62000 5.144
26.64000 6.886
26.66000 8.983
26.68000 6.619
26.70000 1.271
26.72000 -0.399
26.74000 0.506
26.76000 2.290
26.78000 2.725
26.80000 4.743
26.82000 7.626
26.84000 8.283
26.86000 3.281
26.88000 -0.488
26.90000 2.062
26.92000 4.542
26.94000 3.731
26.96000 -0.971
26.98000 0.144
27.00000 6.298
27.02000 1.011
27.04000 -3.103
27.06000 -1.591
27.08000 2.240
27.10000 2.618
27.12000 5.107
27.14000 5.488
27.16000 2.969
27.18000 1.973
27.20000 4.644
27.22000 8.133
27.24000 -0.059
27.26000 1.874
27.28000 4.599
27.30000 0.737
27.32000 -1.784
27.34000 4.243
27.36000 1.667
27.38000 0.756
27.40000 4.856
27.42000 5.532
27.44000 0.447
27.46000 0.802
27.48000 -3.815
27.50000 -3.863
27.52000 -1.353
27.54000 -1.075
27.56000 -0.368
27.58000 1.098
27.60000 0.405
27.62000 0.872
27.64000 7.376
27.66000 2.773
27.68000 -1.876
27.70000 0.535
27.72000 -0.739
27.74000 -3.165
27.76000 3.459
27.78000 6.009
27.80000 4.244
27.82000 5.828
27.84000 3.122
27.86000 1.620
27.88000 2.412
27.90000 -0.322
27.92000 0.013
27.94000 -2.254
27.96000 3.869
27.98000 8.155
28.00000 0.331
28.02000 2.471
28.04000 2.229
28.06000 2.977
28.08000 3.511
28.10000 1.951
28.12000 2.691
28.14000 1.647
28.16000 1.161
28.18000 2.873
28.20000 -3.064
28.22000 -0.054
28.24000 5.661
28.26000 3.869
28.28000 -0.570
28.30000 0.364
28.32000 6.814
28.34000 6.549
28.36000 4.886
28.38000 0.143
28.40000 4.035
28.42000 10.599
28.44000 7.394
28.46000 9.417
28.48000 -0.287
28.50000 -3.020
28.52000 4.206
28.54000 5.443
28.56000 0.738
28.58000 0.124
28.60000 1.056
28.62000 3.266
28.64000 8.265
28.66000 3.144
28.68000 9.138
28.70000 4.217
28.72000 5.697
28.74000 -0.533
28.76000 -0.571
28.78000 3.914
28.80000 3.174
28.82000 4.710
28.84000 4.728
28.86000 5.864
28.88000 5.696
28.90000 6.134
28.92000 1.820
28.94000 4.694
28.96000 0.234
28.98000 1.921
29.00000 6.230
29.02000 6.022
29.04000 -0.068
29.06000 4.483
29.08000 6.804
29.10000 6.845
29.12000 8.056
29.14000 6.865
29.16000 6.631
29.18000 7.883
29.20000 5.264
29.22000 3.277
29.24000 10.710
29.26000 7.485
29.28000 6.068
29.30000 2.950
29.32000 0.108
29.34000 -0.239
29.36000 0.916
29.38000 2.127
29.40000 8.825
29.42000 5.079
29.44000 -3.729
29.46000 3.217
29.48000 8.709
29.50000 6.110
29.52000 3.916
29.54000 3.630
29.56000 10.555
29.58000 14.409
29.60000 8.129
29.62000 3.608
29.64000 9.800
29.66000 8.636
29.68000 4.573
29.70000 8.994
29.72000 6.840
29.74000 2.117
29.76000 0.182
29.78000 -1.287
29.80000 2.717
29.82000 3.465
29.84000 0.411
29.86000 -2.395
29.88000 2.175
29.90000 7.512
29.92000 7.803
29.94000 4.805
29.96000 2.608
29.98000 7.391
30.00000 1.237
30.02000 0.779
30.04000 1.448
30.06000 -0.415
30.08000 0.001
30.10000 -1.321
30.12000 0.050
30.14000 0.767
30.16000 3.147
30.18000 6.052
30.20000 4.889
30.22000 4.288
30.24000 -0.136
30.26000 -0.193
30.28000 -1.721
30.30000 0.297
30.32000 3.492
30.34000 1.727
30.36000 3.637
30.38000 -0.054
30.40000 -0.634
30.42000 2.837
30.44000 5.014
30.46000 1.413
30.48000 0.567
30.50000 2.048
30.52000 2.124
30.54000 1.425
30.56000 0.228
30.58000 0.637
30.60000 5.953
30.62000 4.946
30.64000 2.772
30.66000 0.357
30.68000 2.455
30.70000 0.793
30.72000 3.081
30.74000 0.020
30.76000 -1.683
30.78000 1.686
30.80000 2.461
30.82000 6.367
30.84000 3.624
30.86000 -0.019
30.88000 0.213
30.90000 4.588
30.92000 2.475
30.94000 -2.855
30.96000 -0.630
30.98000 5.604
31.00000 6.679
31.02000 5.465
31.04000 5.108
31.06000 7.727
31.08000 9.162
31.10000 3.923
31.12000 4.612
31.14000 -0.270
31.16000 -3.694
31.18000 0.589
31.20000 -0.205
31.22000 -2.641
31.24000 3.591
31.26000 -2.787
31.28000 -1.986
31.30000 -1.804
31.32000 1.193
31.34000 8.928
31.36000 5.381
31.38000 -1.239
31.40000 2.309
31.42000 1.504
31.44000 0.872
31.46000 3.507
31.48000 1.763
31.50000 2.779
31.52000 -1.548
31.54000 -1.450
31.56000 -3.684
31.58000 -2.631
31.60000 2.931
31.62000 5.427
31.64000 5.270
31.66000 1.492
31.68000 1.942
31.70000 -2.813
31.72000 -0.107
31.74000 3.431
31.76000 5.969
31.78000 4.129
31.80000 6.638
31.82000 3.886
31.84000 -0.361
31.86000 1.691
31.88000 6.742
31.90000 7.728
31.92000 2.015
31.94000 4.103
31.96000 1.798
31.98000 2.506
32.00000 3.919
32.02000 4.235
32.04000 3.535
32.06000 2.184
32.08000 5.649
32.10000 7.701
32.12000 3.596
32.14000 0.424
32.16000 -0.599
32.18000 5.873
32.20000 2.293
32.22000 0.715
32.24000 1.367
32.26000 3.320
32.28000 3.113
32.30000 -0.034
32.32000 3.987
32.34000 5.748
32.36000 -0.906
32.38000 1.337
32.40000 -0.453
32.42000 -1.589
32.44000 3.601
32.46000 4.176
32.48000 4.164
32.50000 -1.524
32.52000 -2.796
32.54000 0.812
32.56000 -0.086
32.58000 -1.121
32.60000 -3.322
32.62000 -2.326
32.64000 -3.134
32.66000 -1.658
32.68000 -3.658
32.70000 -0.961
32.72000 0.113
32.74000 2.943
32.76000 0.020
32.78000 -1.928
32.80000 3.325
32.82000 -1.049
32.84000 4.998
32.86000 0.938
32.88000 0.909
32.90000 0.506
32.92000 2.342
32.94000 3.857
32.96000 6.940
32.98000 5.016
33.00000 4.817
33.02000 -1.054
33.04000 2.098
33.06000 4.067
33.08000 5.132
33.10000 2.137
33.12000 0.650
33.14000 2.593
33.16000 -0.189
33.18000 2.212
33.20000 3.215
33.22000 -1.041
33.24000 2.267
33.26000 9.497
33.28000 5.937
33.30000 0.913
33.32000 1.293
33.34000 6.434
33.36000 3.976
33.38000 4.596
33.40000 1.094
33.42000 -1.661
33.44000 -2.405
33.46000 6.329
33.48000 9.665
33.50000 4.464
33.52000 3.929
33.54000 4.389
33.56000 -1.995
33.58000 -3.350
33.60000 1.882
33.62000 -1.195
33.64000 2.042
33.66000 2.844
33.68000 4.992
33.70000 4.200
33.72000 -0.864
33.74000 3.450
33.76000 4.267
33.78000 1.438
33.80000 5.360
33.82000 4.568
33.84000 1.087
33.86000 3.089
33.88000 4.633
33.90000 5.765
33.92000 8.309
33.94000 6.554
33.96000 6.899
33.98000 3.051
34.00000 1.239
34.02000 1.659
34.04000 5.553
34.06000 -1.284
34.08000 1.746
34.10000 6.003
34.12000 2.479
34.14000 -2.869
34.16000 7.286
34.18000 -0.269
34.20000 -3.628
34.22000 -3.421
34.24000 1.496
34.26000 1.026
34.28000 0.334
34.30000 -0.241
34.32000 3.140
34.34000 1.523
34.36000 3.956
34.38000 5.203
34.40000 -2.379
34.42000 3.428
34.44000 8.233
34.46000 6.345
34.48000 0.975
34.50000 -0.556
34.52000 -1.520
34.54000 -2.572
34.56000 3.465
34.58000 5.736
34.60000 0.134
34.62000 -2.842
34.64000 4.312
34.66000 3.961
34.68000 4.668
34.70000 2.677
34.72000 -0.199
34.74000 1.048
34.76000 3.246
34.78000 -0.116
34.80000 3.896
34.82000 5.157
34.84000 -1.994
34.86000 -1.092
34.88000 -0.578
34.90000 0.996
34.92000 -0.862
34.94000 0.828
34.96000 2.094
34.98000 4.985
35.00000 3.824
35.02000 8.175
35.04000 4.681
35.06000 7.422
35.08000 1.438
35.10000 0.888
35.12000 3.201
35.14000 -1.247
35.16000 -0.328
35.18000 3.156
35.20000 -1.910
35.22000 2.637
35.24000 4.942
35.26000 3.651
35.28000 1.686
35.30000 2.524
35.32000 2.002
35.34000 1.136
35.36000 -1.089
35.38000 -1.197
35.40000 -2.179
35.42000 1.063
35.44000 7.054
35.46000 4.249
35.48000 -2.093
35.50000 0.062
35.52000 2.633
35.54000 1.806
35.56000 4.326
35.58000 1.647
35.60000 4.678
35.62000 1.506
35.64000 -3.595
35.66000 -1.634
35.68000 2.775
35.70000 -0.248
35.72000 -1.512
35.74000 3.159
35.76000 -1.028
35.78000 -3.623
35.80000 -1.755
35.82000 5.706
35.84000 4.218
35.86000 4.118
35.88000 2.407
35.90000 4.967
35.92000 6.132
35.94000 3.603
35.96000 6.806
35.98000 7.109
36.00000 5.419
36.02000 1.770
36.04000 0.462
36.06000 1.906
36.08000 1.318
36.10000 1.876
36.12000 0.976
36.14000 0.174
36.16000 5.089
36.18000 3.554
36.20000 -0.955
36.22000 7.178
36.24000 2.803
36.26000 4.280
36.28000 -0.728
36.30000 0.018
36.32000 6.169
36.34000 3.413
36.36000 1.840
36.38000 4.093
36.40000 1.700
36.42000 -0.801
36.44000 4.686
36.46000 7.185
36.48000 3.114
36.50000 2.847
36.52000 3.643
36.54000 2.253
36.56000 6.962
36.58000 6.014
36.60000 5.254
36.62000 -0.901
36.64000 1.461
36.66000 5.321
36.68000 6.952
36.70000 9.132
36.72000 9.375
36.74000 5.971
36.76000 11.614
36.78000 13.803
36.80000 6.347
36.82000 5.583
36.84000 7.206
36.86000 6.260
36.88000 3.648
36.90000 5.753
36.92000 9.292
36.94000 6.865
36.96000 6.385
36.98000 7.353
37.00000 7.609
37.02000 12.303
37.04000 14.523
37.06000 12.089
37.08000 10.668
37.10000 10.491
37.12000 9.739
37.14000 11.880
37.16000 9.767
37.18000 10.414
37.20000 13.687
37.22000 15.626
37.24000 17.434
37.26000 19.293
37.28000 18.713
37.30000 12.814
37.32000 15.259
37.34000 17.795
37.36000 17.244
37.38000 13.562
37.40000 11.957
37.42000 16.057
37.44000 16.592
37.46000 15.949
37.48000 14.250
37.50000 11.934
37.52000 16.194
37.54000 24.835
37.56000 20.812
37.58000 18.874
37.60000 21.612
37.62000 23.992
37.64000 27.786
37.66000 25.074
37.68000 25.198
37.70000 26.891
37.72000 27.513
37.74000 28.584
37.76000 28.749
37.78000 29.446
37.80000 30.299
37.82000 37.384
37.84000 36.821
37.86000 36.367
37.88000 31.452
37.90000 35.256
37.92000 35.044
37.94000 36.143
37.96000 36.298
37.98000 36.647
38.00000 40.094
38.02000 39.667
38.04000 41.971
38.06000 43.428
38.08000 46.426
38.10000 45.068
38.12000 47.545
38.14000 51.818
38.16000 47.851
38.18000 49.661
38.20000 56.566
38.22000 59.012
38.24000 57.381
38.26000 60.786
38.28000 62.970
38.30000 68.706
38.32000 68.942
38.34000 72.128
38.36000 73.974
38.38000 79.179
38.40000 82.024
38.42000 86.387
38.44000 89.316
38.46000 94.004
38.48000 96.985
38.50000 101.734
38.52000 114.501
38.54000 117.802
38.56000 120.506
38.58000 129.207
38.60000 136.244
38.62000 143.535
38.64000 147.100
38.66000 159.430
38.68000 172.180
38.70000 184.817
38.72000 188.315
38.74000 201.723
38.76000 216.089
38.78000 230.759
38.80000 243.813
38.82000 248.540
38.84000 262.507
38.86000 277.362
38.88000 297.458
38.90000 305.808
38.92000 319.484
38.94000 329.334
38.96000 324.842
38.98000 339.366
39.00000 342.148
39.02000 351.775
39.04000 363.123
39.06000 370.279
39.08000 368.776
39.10000 362.051
39.12000 361.535
39.14000 359.454
39.16000 350.855
39.18000 341.507
39.20000 336.118
39.22000 331.231
39.24000 329.048
39.26000 306.409
39.28000 301.267
39.30000 294.192
39.32000 281.273
39.34000 263.433
39.36000 259.330
39.38000 246.283
39.40000 236.096
39.42000 224.755
39.44000 211.027
39.46000 187.434
39.48000 182.324
39.50000 170.192
39.52000 157.687
39.54000 145.557
39.56000 139.515
39.58000 133.823
39.60000 123.804
39.62000 112.238
39.64000 108.570
39.66000 101.158
39.68000 97.607
39.70000 95.079
39.72000 94.823
39.74000 85.423
39.76000 73.984
39.78000 71.995
39.80000 69.184
39.82000 64.020
39.84000 63.312
39.86000 61.333
39.88000 56.530
39.90000 48.452
39.92000 48.555
39.94000 48.103
39.96000 42.491
39.98000 43.048
40.00000 42.092
40.02000 36.702
40.04000 35.559
40.06000 38.440
40.08000 39.209
40.10000 36.641
40.12000 33.018
40.14000 37.885
40.16000 33.268
40.18000 27.043
40.20000 25.749
40.22000 33.280
40.24000 24.551
40.26000 26.162
40.28000 24.281
40.30000 24.055
40.32000 25.711
40.34000 24.114
40.36000 22.379
40.38000 19.985
40.40000 20.554
40.42000 17.761
40.44000 16.843
40.46000 19.456
40.48000 16.940
40.50000 13.333
40.52000 11.594
40.54000 10.882
40.56000 14.611
40.58000 16.891
40.60000 15.786
40.62000 15.267
40.64000 16.090
40.66000 13.437
40.68000 11.297
40.70000 6.662
40.72000 9.641
40.74000 12.212
40.76000 13.088
40.78000 10.677
40.80000 5.682
40.82000 4.725
40.84000 4.784
40.86000 5.755
40.88000 5.569
40.90000 4.252
40.92000 7.047
40.94000 6.106
40.96000 4.649
40.98000 2.531
41.00000 4.276
41.02000 4.583
41.04000 5.301
41.06000 7.222
41.08000 2.773
41.10000 3.661
41.12000 3.654
41.14000 6.512
41.16000 6.268
41.18000 5.806
41.20000 3.195
41.22000 3.190
41.24000 2.476
41.26000 4.173
41.28000 3.471
41.30000 5.306
41.32000 1.104
41.34000 1.413
41.36000 1.510
41.38000 1.055
41.40000 0.200
41.42000 3.239
41.44000 -0.940
41.46000 4.084
41.48000 5.570
41.50000 3.948
41.52000 2.756
41.54000 2.782
41.56000 1.456
41.58000 3.503
41.60000 3.273
41.62000 -1.310
41.64000 -3.433
41.66000 1.571
41.68000 5.862
41.70000 3.588
41.72000 2.266
41.74000 4.199
41.76000 3.415
41.78000 2.866
41.80000 3.822
41.82000 1.519
41.84000 0.240
41.86000 -1.366
41.88000 2.721
41.90000 2.631
41.92000 2.889
41.94000 -0.048
41.96000 3.699
41.98000 1.646
42.00000 -0.336
42.02000 0.306
42.04000 -0.955
42.06000 -1.114
42.08000 2.145
42.10000 1.199
42.12000 -0.901
42.14000 -0.453
42.16000 0.408
42.18000 2.414
42.20000 1.994
42.22000 1.009
42.24000 -2.078
42.26000 -0.435
42.28000 -0.661
42.30000 -0.983
42.32000 1.452
42.34000 5.644
42.36000 6.100
42.38000 5.513
42.40000 2.397
42.42000 -1.014
42.44000 -0.159
42.46000 3.602
42.48000 4.216
42.50000 2.727
42.52000 6.054
42.54000 1.121
42.56000 -1.872
42.58000 2.073
42.60000 3.277
42.62000 4.222
42.64000 3.703
42.66000 0.351
42.68000 4.065
42.70000 2.413
42.72000 4.840
42.74000 7.871
42.76000 6.554
42.78000 5.398
42.80000 6.655
42.82000 6.517
42.84000 5.452
42.86000 4.706
42.88000 4.193
42.90000 4.427
42.92000 3.304
42.94000 4.916
42.96000 2.667
42.98000 0.771
43.00000 0.229
43.02000 0.111
43.04000 3.575
43.06000 1.557
43.08000 3.254
43.10000 -3.230
43.12000 2.224
43.14000 4.000
43.16000 3.376
43.18000 2.523
43.20000 1.815
43.22000 1.089
43.24000 1.723
43.26000 2.561
43.28000 6.866
43.30000 7.049
43.32000 4.088
43.34000 3.593
43.36000 4.124
43.38000 2.753
43.40000 1.384
43.42000 4.129
43.44000 3.978
43.46000 4.443
43.48000 3.841
43.50000 4.878
43.52000 6.706
43.54000 4.774
43.56000 -0.448
43.58000 1.527
43.60000 1.511
43.62000 2.707
43.64000 5.514
43.66000 6.515
43.68000 6.785
43.70000 4.504
43.72000 2.865
43.74000 3.035
43.76000 3.516
43.78000 4.783
43.80000 5.456
43.82000 5.658
43.84000 4.823
43.86000 3.311
43.88000 -3.211
43.90000 2.099
43.92000 5.331
43.94000 2.815
43.96000 3.845
43.98000 2.038
44.00000 3.374
44.02000 1.281
44.04000 -0.808
44.06000 2.097
44.08000 1.115
44.10000 3.715
44.12000 3.634
44.14000 3.071
44.16000 1.198
44.18000 3.660
44.20000 5.970
44.22000 5.394
44.24000 6.406
44.26000 6.477
44.28000 5.992
44.30000 8.609
44.32000 8.711
44.34000 8.161
44.36000 4.779
44.38000 5.118
44.40000 5.885
44.42000 9.734
44.44000 12.669
44.46000 11.250
44.48000 10.066
44.50000 12.957
44.52000 6.658
44.54000 5.599
44.56000 10.833
44.58000 12.821
44.60000 14.928
44.62000 15.834
44.64000 12.095
44.66000 8.392
44.68000 6.007
44.70000 12.953
44.72000 17.442
44.74000 12.366
44.76000 17.873
44.78000 22.103
44.80000 22.732
44.82000 23.268
44.84000 20.396
44.86000 20.442
44.88000 25.112
44.90000 27.615
44.92000 24.588
44.94000 27.532
44.96000 30.985
44.98000 31.256
45.00000 36.570
45.02000 36.043
45.04000 36.823
45.06000 38.903
45.08000 41.734
45.10000 46.689
45.12000 51.967
45.14000 46.844
45.16000 49.061
45.18000 53.294
45.20000 56.534
45.22000 59.106
45.24000 62.231
45.26000 61.301
45.28000 67.280
45.30000 68.274
45.32000 71.721
45.34000 68.760
45.36000 72.661
45.38000 76.529
45.40000 77.292
45.42000 80.742
45.44000 84.365
45.46000 83.460
45.48000 85.975
45.50000 93.323
45.52000 94.586
45.54000 93.166
45.56000 94.702
45.58000 97.443
45.60000 95.202
45.62000 94.526
45.64000 92.850
45.66000 94.359
45.68000 93.931
45.70000 87.589
45.72000 88.595
45.74000 95.052
45.76000 92.359
45.78000 85.945
45.80000 84.980
45.82000 85.888
45.84000 80.946
45.86000 82.149
45.88000 78.705
45.90000 73.334
45.92000 67.905
45.94000 68.950
45.96000 68.794
45.98000 69.098
46.00000 66.959
46.02000 59.469
46.04000 54.141
46.06000 52.248
46.08000 50.698
46.10000 45.287
46.12000 44.674
46.14000 43.872
46.16000 40.704
46.18000 42.014
46.20000 39.122
46.22000 39.316
46.24000 32.439
46.26000 33.358
46.28000 29.774
46.30000 26.379
46.32000 25.392
46.34000 25.922
46.36000 18.529
46.38000 15.627
46.40000 15.349
46.42000 16.047
46.44000 15.241
46.46000 13.779
46.48000 16.863
46.50000 12.429
46.52000 12.006
46.54000 14.208
46.56000 8.040
46.58000 8.769
46.60000 9.487
46.62000 7.365
46.64000 7.697
46.66000 6.019
46.68000 1.730
46.70000 4.634
46.72000 4.628
46.74000 -0.112
46.76000 -2.427
46.78000 -0.982
46.80000 0.630
46.82000 1.924
46.84000 3.436
46.86000 3.351
46.88000 2.227
46.90000 4.155
46.92000 1.548
46.94000 1.197
46.96000 3.242
46.98000 3.103
47.00000 -1.539
47.02000 -2.606
47.04000 -0.258
47.06000 -1.423
47.08000 -1.898
47.10000 -0.683
47.12000 -0.183
47.14000 0.072
47.16000 0.402
47.18000 -2.883
47.20000 -0.178
47.22000 -2.501
47.24000 2.407
47.26000 6.842
47.28000 -1.461
47.30000 -0.202
47.32000 3.914
47.34000 2.089
47.36000 -1.558
47.38000 0.996
47.40000 -2.051
47.42000 -0.201
47.44000 0.749
47.46000 3.485
47.48000 3.877
47.50000 3.013
47.52000 2.422
47.54000 2.850
47.56000 0.510
47.58000 -1.639
47.60000 0.968
47.62000 -0.939
47.64000 3.423
47.66000 1.909
47.68000 1.086
47.70000 1.064
47.72000 3.405
47.74000 -0.178
47.76000 2.710
47.78000 1.969
47.80000 5.109
47.82000 1.741
47.84000 1.168
47.86000 -2.746
47.88000 -0.056
47.90000 2.362
47.92000 4.902
47.94000 4.430
47.96000 1.774
47.98000 2.342
48.00000 4.196
48.02000 1.233
48.04000 2.405
48.06000 2.491
48.08000 1.692
48.10000 3.730
48.12000 2.396
48.14000 -0.811
48.16000 1.241
48.18000 4.255
48.20000 -1.753
48.22000 0.151
48.24000 -1.451
48.26000 2.713
48.28000 3.932
48.30000 1.096
48.32000 2.739
48.34000 2.245
48.36000 -0.486
48.38000 -2.241
48.40000 -2.334
48.42000 -1.074
48.44000 1.074
48.46000 2.530
48.48000 1.866
48.50000 -0.388
48.52000 1.114
48.54000 -0.825
48.56000 2.504
48.58000 3.513
48.60000 2.778
48.62000 1.766
48.64000 1.498
48.66000 2.655
48.68000 3.981
48.70000 3.878
48.72000 1.452
48.74000 0.794
48.76000 -0.535
48.78000 3.135
48.80000 3.285
48.82000 3.241
48.84000 1.781
48.86000 -1.521
48.88000 -1.191
48.90000 1.627
48.92000 3.463
48.94000 -0.261
48.96000 0.895
48.98000 5.763
49.00000 5.922
49.02000 3.659
49.04000 3.750
49.06000 -0.897
49.08000 -2.675
49.10000 2.708
49.12000 2.514
49.14000 3.741
49.16000 2.802
49.18000 0.625
49.20000 2.744
49.22000 1.521
49.24000 -1.749
49.26000 -1.608
49.28000 2.759
49.30000 2.885
49.32000 0.062
49.34000 3.835
49.36000 3.593
49.38000 2.254
49.40000 1.900
49.42000 5.179
49.44000 5.785
49.46000 3.045
49.48000 -0.296
49.50000 2.757
49.52000 2.718
49.54000 5.419
49.56000 4.225
49.58000 0.973
49.60000 3.797
49.62000 7.232
49.64000 4.148
49.66000 -0.104
49.68000 -0.167
49.70000 2.653
49.72000 1.876
49.74000 2.822
49.76000 3.756
49.78000 -2.620
49.80000 -1.310
49.82000 6.815
49.84000 9.455
49.86000 7.115
49.88000 2.562
49.90000 3.968
49.92000 6.273
49.94000 5.815
49.96000 4.099
49.98000 0.858
50.00000 4.169
50.02000 8.510
50.04000 7.189
50.06000 3.747
50.08000 -1.261
50.10000 -0.887
50.12000 0.843
50.14000 3.777
50.16000 1.976
50.18000 1.151
50.20000 -2.621
50.22000 0.727
50.24000 3.344
50.26000 0.242
50.28000 0.636
50.30000 1.747
50.32000 3.259
50.34000 1.104
50.36000 1.521
50.38000 -0.955
50.40000 0.085
50.42000 0.412
50.44000 -0.089
50.46000 0.724
50.48000 0.779
50.50000 1.443
50.52000 -1.856
50.54000 -0.500
50.56000 1.797
50.58000 3.010
50.60000 -0.558
50.62000 -2.586
50.64000 -2.292
50.66000 1.161
50.68000 0.713
50.70000 2.040
50.72000 4.418
50.74000 3.536
50.76000 2.996
50.78000 3.805
50.80000 -0.661
50.82000 -1.027
50.84000 -1.979
50.86000 -2.588
50.88000 1.656
50.90000 -0.434
50.92000 -2.603
50.94000 -0.412
50.96000 0.722
50.98000 5.653
51.00000 6.069
51.02000 4.285
51.04000 1.700
51.06000 3.162
51.08000 0.858
51.10000 2.296
51.12000 1.477
51.14000 3.574
51.16000 3.763
51.18000 2.823
51.20000 2.056
51.22000 6.030
51.24000 7.041
51.26000 4.122
51.28000 3.153
51.30000 3.666
51.32000 11.596
51.34000 5.536
51.36000 2.126
51.38000 0.484
51.40000 0.724
51.42000 1.714
51.44000 0.690
51.46000 -1.198
51.48000 0.241
51.50000 0.210
51.52000 4.207
51.54000 3.736
51.56000 4.831
51.58000 5.333
51.60000 0.645
51.62000 3.849
51.64000 -2.060
51.66000 -1.207
51.68000 -1.197
51.70000 4.350
51.72000 3.756
51.74000 5.888
51.76000 4.944
51.78000 1.900
51.80000 0.279
51.82000 3.367
51.84000 7.805
51.86000 3.858
51.88000 2.611
51.90000 -0.576
51.92000 -0.175
51.94000 2.635
51.96000 1.948
51.98000 2.860
52.00000 3.155
52.02000 2.082
52.04000 -2.489
52.06000 1.974
52.08000 4.804
52.10000 3.045
52.12000 1.997
52.14000 -2.553
52.16000 -1.703
52.18000 0.777
52.20000 -1.799
52.22000 0.339
52.24000 0.259
52.26000 0.584
52.28000 -1.211
52.30000 -0.296
52.32000 -0.716
52.34000 4.062
52.36000 2.583
52.38000 3.105
52.40000 0.911
52.42000 0.773
52.44000 0.983
52.46000 -1.777
52.48000 -2.121
52.50000 1.178
52.52000 3.723
52.54000 3.272
52.56000 4.127
52.58000 1.462
52.60000 2.648
52.62000 1.035
52.64000 1.283
52.66000 4.992
52.68000 1.801
52.70000 -0.927
52.72000 -1.870
52.74000 1.137
52.76000 3.887
52.78000 0.888
52.80000 -0.381
52.82000 -0.086
52.84000 -1.241
52.86000 0.140
52.88000 -0.041
52.90000 -0.790
52.92000 0.695
52.94000 -0.202
52.96000 -1.289
52.98000 1.959
53.00000 5.201
53.02000 1.509
53.04000 -0.818
53.06000 2.544
53.08000 2.499
53.10000 1.661
53.12000 0.301
53.14000 0.801
53.16000 1.382
53.18000 0.606
53.20000 0.118
53.22000 -0.300
53.24000 6.336
53.26000 2.076
53.28000 -0.873
53.30000 -0.750
53.32000 3.701
53.34000 4.529
53.36000 6.999
53.38000 4.279
53.40000 1.787
53.42000 3.152
53.44000 4.450
53.46000 1.860
53.48000 0.424
53.50000 0.455
53.52000 4.554
53.54000 4.763
53.56000 1.646
53.58000 -1.187
53.60000 2.187
53.62000 3.665
53.64000 2.073
53.66000 3.809
53.68000 2.334
53.70000 2.167
53.72000 3.554
53.74000 4.003
53.76000 2.508
53.78000 1.451
53.80000 5.438
53.82000 2.235
53.84000 0.457
53.86000 3.072
53.88000 5.048
53.90000 4.363
53.92000 0.908
53.94000 -2.000
53.96000 -2.521
53.98000 -2.520
54.00000 1.506
54.02000 0.824
54.04000 -0.039
54.06000 2.237
54.08000 1.704
54.10000 1.543
54.12000 0.498
54.14000 0.120
54.16000 0.787
54.18000 0.344
54.20000 1.007
54.22000 -0.853
54.24000 -1.940
54.26000 0.188
54.28000 3.504
54.30000 2.562
54.32000 0.329
54.34000 0.599
54.36000 0.676
54.38000 2.852
54.40000 -0.546
54.42000 -0.907
54.44000 3.023
54.46000 3.611
54.48000 0.013
54.50000 2.647
54.52000 1.694
54.54000 -0.944
54.56000 0.008
54.58000 3.197
54.60000 2.701
54.62000 2.302
54.64000 0.310
54.66000 -0.162
54.68000 1.429
54.70000 2.281
54.72000 4.250
54.74000 7.500
54.76000 8.611
54.78000 7.363
54.80000 2.915
54.82000 -0.665
54.84000 -1.905
54.86000 -1.097
54.88000 1.612
54.90000 1.247
54.92000 0.091
54.94000 4.303
54.96000 4.606
54.98000 3.892
55.00000 4.594
55.02000 3.456
55.04000 1.375
55.06000 3.486
55.08000 4.848
55.10000 0.133
55.12000 1.113
55.14000 2.660
55.16000 4.983
55.18000 5.964
55.20000 4.130
55.22000 1.210
55.24000 -0.278
55.26000 0.910
55.28000 3.284
55.30000 1.455
55.32000 8.884
55.34000 4.832
55.36000 3.245
55.38000 1.169
55.40000 -2.452
55.42000 1.465
55.44000 3.344
55.46000 0.923
55.48000 3.908
55.50000 4.912
55.52000 4.350
55.54000 3.839
55.56000 3.751
55.58000 4.308
55.60000 4.208
55.62000 3.569
55.64000 6.028
55.66000 7.459
55.68000 5.068
55.70000 1.642
55.72000 2.375
55.74000 3.917
55.76000 1.749
55.78000 -0.023
55.80000 4.548
55.82000 5.193
55.84000 0.514
55.86000 0.454
55.88000 2.767
55.90000 2.005
55.92000 2.077
55.94000 1.375
55.96000 -2.358
55.98000 2.665
56.00000 1.509
56.02000 3.737
56.04000 3.032
56.06000 0.815
56.08000 2.598
56.10000 7.819
56.12000 4.099
56.14000 1.661
56.16000 1.484
56.18000 3.620
56.20000 1.480
56.22000 -0.044
56.24000 2.933
56.26000 3.200
56.28000 3.053
56.30000 -0.641
56.32000 1.427
56.34000 4.197
56.36000 4.610
56.38000 6.827
56.40000 6.143
56.42000 3.968
56.44000 2.791
56.46000 1.946
56.48000 0.557
56.50000 4.095
56.52000 4.525
56.54000 4.700
56.56000 4.883
56.58000 5.349
56.60000 0.830
56.62000 2.763
56.64000 2.999
56.66000 0.330
56.68000 -0.646
56.70000 1.885
56.72000 5.802
56.74000 1.627
56.76000 4.143
56.78000 4.170
56.80000 -0.507
56.82000 0.037
56.84000 3.058
56.86000 0.472
56.88000 0.467
56.90000 0.468
56.92000 -2.418
56.94000 0.603
56.96000 4.467
56.98000 1.177
57.00000 3.934
57.02000 6.763
57.04000 7.123
57.06000 3.546
57.08000 2.404
57.10000 3.966
57.12000 3.401
57.14000 3.673
57.16000 2.008
57.18000 2.112
57.20000 7.832
57.22000 4.576
57.24000 2.130
57.26000 3.962
57.28000 4.407
57.30000 2.834
57.32000 3.417
57.34000 3.474
57.36000 1.252
57.38000 2.900
57.40000 1.254
57.42000 0.566
57.44000 2.979
57.46000 6.500
57.48000 3.747
57.50000 4.219
57.52000 3.486
57.54000 4.273
57.56000 4.666
57.58000 4.740
57.60000 2.934
57.62000 2.301
57.64000 2.597
57.66000 4.226
57.68000 6.498
57.70000 1.291
57.72000 -0.578
57.74000 -2.411
57.76000 -0.939
57.78000 -1.151
57.80000 1.802
57.82000 1.786
57.84000 4.965
57.86000 4.564
57.88000 3.017
57.90000 2.031
57.92000 1.941
57.94000 2.274
57.96000 1.392
57.98000 2.099
58.00000 2.191
58.02000 4.115
58.04000 3.528
58.06000 0.421
58.08000 5.173
58.10000 4.913
58.12000 0.962
58.14000 0.075
58.16000 -1.311
58.18000 -2.395
58.20000 -2.079
58.22000 2.304
58.24000 5.412
58.26000 2.325
58.28000 2.360
58.30000 1.280
58.32000 1.911
58.34000 1.098
58.36000 -0.113
58.38000 2.051
58.40000 2.740
58.42000 0.390
58.44000 -0.528
58.46000 1.368
58.48000 5.458
58.50000 0.387
58.52000 -0.031
58.54000 -1.024
58.56000 1.679
58.58000 0.467
58.60000 -0.074
58.62000 1.606
58.64000 1.807
58.66000 -2.389
58.68000 0.364
58.70000 3.536
58.72000 0.816
58.74000 0.100
58.76000 -0.069
58.78000 1.500
58.80000 2.271
58.82000 0.535
58.84000 -0.045
58.86000 1.659
58.88000 3.630
58.90000 4.742
58.92000 6.029
58.94000 5.341
58.96000 4.739
58.98000 1.110
59.00000 3.604
59.02000 4.797
59.04000 4.411
59.06000 1.524
59.08000 1.996
59.10000 5.404
59.12000 4.505
59.14000 5.090
59.16000 4.139
59.18000 1.042
59.20000 1.738
59.22000 5.114
59.24000 1.073
59.26000 1.767
59.28000 2.006
59.30000 -0.798
59.32000 0.972
59.34000 4.119
59.36000 3.657
59.38000 2.888
59.40000 0.783
59.42000 0.929
59.44000 0.169
59.46000 4.380
59.48000 3.920
59.50000 2.411
59.52000 -0.010
59.54000 1.109
59.56000 -2.357
59.58000 -1.450
59.60000 1.407
59.62000 2.553
59.64000 -0.722
59.66000 4.072
59.68000 6.397
59.70000 0.047
59.72000 2.952
59.74000 4.306
59.76000 -1.403
59.78000 0.499
59.80000 2.968
59.82000 0.200
59.84000 1.671
59.86000 2.944
59.88000 3.916
59.90000 3.481
59.92000 1.169
59.94000 -1.162
59.96000 2.759
59.98000 1.574
60.00000 -1.524
60.02000 -1.750
60.04000 -1.302
60.06000 -2.351
60.08000 -1.902
60.10000 -1.307
60.12000 -1.365
60.14000 0.998
60.16000 5.399
60.18000 6.419
60.20000 1.918
60.22000 0.506
60.24000 2.252
60.26000 3.218
60.28000 1.929
60.30000 0.204
60.32000 0.872
60.34000 -0.039
60.36000 0.976
60.38000 1.844
60.40000 3.381
60.42000 0.606
60.44000 -0.135
60.46000 -0.092
60.48000 3.187
60.50000 2.776
60.52000 3.442
60.54000 0.432
60.56000 -1.834
60.58000 -1.030
60.60000 1.754
60.62000 -1.834
60.64000 2.026
60.66000 4.149
60.68000 4.146
60.70000 1.943
60.72000 3.385
60.74000 2.763
60.76000 1.463
60.78000 0.815
60.80000 2.862
60.82000 3.276
60.84000 0.638
60.86000 -2.336
60.88000 2.689
60.90000 5.325
60.92000 -0.967
60.94000 0.045
60.96000 -0.338
60.98000 -0.132
61.00000 2.140
61.02000 4.360
61.04000 1.515
61.06000 2.441
61.08000 2.160
61.10000 2.180
61.12000 1.423
61.14000 -1.842
61.16000 -0.344
61.18000 2.587
61.20000 1.552
61.22000 2.375
61.24000 -1.224
61.26000 -0.856
61.28000 -0.525
61.30000 0.125
61.32000 -1.678
61.34000 0.362
61.36000 -0.458
61.38000 3.467
61.40000 2.015
61.42000 0.995
61.44000 -0.222
61.46000 2.120
61.48000 -2.311
61.50000 0.016
61.52000 2.386
61.54000 2.932
61.56000 -0.135
61.58000 -0.179
61.60000 0.889
61.62000 2.694
61.64000 -1.430
61.66000 0.287
61.68000 0.743
61.70000 3.128
61.72000 1.252
61.74000 1.124
61.76000 0.368
61.78000 2.684
61.80000 1.962
61.82000 3.788
61.84000 5.986
61.86000 1.154
61.88000 2.409
61.90000 4.102
61.92000 0.726
61.94000 1.312
61.96000 1.470
61.98000 3.982
62.00000 2.247
62.02000 1.916
62.04000 4.452
62.06000 5.036
62.08000 3.270
62.10000 0.526
62.12000 0.211
62.14000 1.244
62.16000 0.835
62.18000 0.283
62.20000 -0.690
62.22000 -2.274
62.24000 -0.531
62.26000 -1.427
62.28000 -0.911
62.30000 -0.346
62.32000 3.773
62.34000 0.718
62.36000 1.504
62.38000 -1.048
62.40000 3.665
62.42000 3.659
62.44000 3.994
62.46000 3.413
62.48000 0.832
62.50000 2.532
62.52000 1.563
62.54000 2.093
62.56000 0.266
62.58000 0.392
62.60000 -2.274
62.62000 2.335
62.64000 2.223
62.66000 2.064
62.68000 1.394
62.70000 0.832
62.72000 0.873
62.74000 -0.431
62.76000 1.538
62.78000 2.313
62.80000 0.812
62.82000 2.636
62.84000 2.394
62.86000 0.672
62.88000 2.530
62.90000 5.870
62.92000 -0.510
62.94000 0.039
62.96000 1.697
62.98000 2.095
63.00000 0.646
63.02000 1.173
63.04000 -0.294
63.06000 3.736
63.08000 1.088
63.10000 -1.150
63.12000 -2.165
63.14000 -0.474
63.16000 1.086
63.18000 2.046
63.20000 1.146
63.22000 1.055
63.24000 1.499
63.26000 -1.404
63.28000 -1.751
63.30000 2.399
63.32000 2.868
63.34000 5.375
63.36000 5.259
63.38000 0.729
63.40000 0.290
63.42000 0.725
63.44000 -2.045
63.46000 -0.255
63.48000 0.597
63.50000 1.181
63.52000 -0.827
63.54000 0.126
63.56000 -1.717
63.58000 -1.382
63.60000 -2.285
63.62000 0.874
63.64000 1.207
63.66000 -2.285
63.68000 -1.583
63.70000 2.976
63.72000 2.921
63.74000 0.501
63.76000 -0.754
63.78000 0.969
63.80000 -0.058
63.82000 -2.282
63.84000 0.208
63.86000 -0.890
63.88000 0.325
63.90000 0.344
63.92000 1.353
63.94000 -0.304
63.96000 -0.009
63.98000 1.656
64.00000 -0.963
64.02000 0.054
64.04000 1.376
64.06000 0.362
64.08000 1.532
64.10000 3.497
64.12000 2.428
64.14000 1.789
64.16000 1.370
64.18000 1.052
64.20000 2.195
64.22000 3.389
64.24000 0.616
64.26000 0.981
64.28000 0.012
64.30000 -2.276
64.32000 0.608
64.34000 -0.382
64.36000 0.449
64.38000 -0.261
64.40000 0.202
64.42000 0.706
64.44000 1.157
64.46000 -0.042
64.48000 0.600
64.50000 0.443
64.52000 3.493
64.54000 1.168
64.56000 -0.890
64.58000 -0.450
64.60000 -0.112
64.62000 1.014
64.64000 -0.627
64.66000 -2.032
64.68000 0.300
64.70000 1.286
64.72000 2.149
64.74000 2.147
64.76000 0.918
64.78000 0.707
64.80000 -0.492
64.82000 -0.491
64.84000 0.347
64.86000 -0.793
64.88000 -1.099
64.90000 0.111
64.92000 -0.457
64.94000 -0.930
64.96000 0.107
64.98000 -1.137
65.00000 3.288
65.02000 1.035
65.04000 0.171
65.06000 0.258
65.08000 0.286
65.10000 -0.006
65.12000 -1.010
65.14000 1.316
65.16000 1.451
65.18000 4.682
65.20000 5.350
65.22000 1.931
65.24000 -0.159
65.26000 1.513
65.28000 0.125
65.30000 0.074
65.32000 2.706
65.34000 5.449
65.36000 3.510
65.38000 1.764
65.40000 1.629
65.42000 0.041
65.44000 0.352
65.46000 -2.261
65.48000 1.702
65.50000 4.845
65.52000 2.761
65.54000 1.017
65.56000 2.153
65.58000 4.075
65.60000 4.061
65.62000 2.107
65.64000 3.193
65.66000 2.185
65.68000 3.926
65.70000 4.782
65.72000 3.361
65.74000 4.400
65.76000 6.383
65.78000 4.281
65.80000 3.051
65.82000 2.629
65.84000 4.389
65.86000 1.028
65.88000 3.323
65.90000 5.542
65.92000 3.495
65.94000 4.418
65.96000 3.593
65.98000 3.513
66.00000 2.809
66.02000 3.724
66.04000 4.702
66.06000 4.440
66.08000 4.047
66.10000 7.957
66.12000 7.275
66.14000 6.262
66.16000 4.479
66.18000 5.867
66.20000 5.799
66.22000 4.261
66.24000 4.828
66.26000 6.244
66.28000 8.896
66.30000 7.599
66.32000 9.413
66.34000 11.486
66.36000 11.034
66.38000 8.526
66.40000 4.839
66.42000 5.913
66.44000 4.832
66.46000 4.669
66.48000 7.403
66.50000 10.287
66.52000 6.838
66.54000 7.881
66.56000 6.936
66.58000 6.640
66.60000 6.364
66.62000 7.859
66.64000 3.749
66.66000 6.167
66.68000 5.823
66.70000 3.563
66.72000 6.544
66.74000 6.780
66.76000 4.646
66.78000 3.770
66.80000 3.985
66.82000 4.236
66.84000 3.991
66.86000 3.241
66.88000 3.997
66.90000 4.420
66.92000 3.604
66.94000 1.589
66.96000 3.947
66.98000 4.266
67.00000 2.143
67.02000 0.654
67.04000 1.556
67.06000 3.375
67.08000 6.029
67.10000 5.765
67.12000 2.831
67.14000 2.626
67.16000 -0.198
67.18000 -1.308
67.20000 2.073
67.22000 3.074
67.24000 1.546
67.26000 -0.883
67.28000 -0.361
67.30000 1.679
67.32000 0.094
67.34000 0.412
67.36000 2.412
67.38000 4.716
67.40000 3.660
67.42000 3.042
67.44000 2.372
67.46000 1.109
67.48000 -0.934
67.50000 -2.030
67.52000 -0.625
67.54000 1.335
67.56000 -0.410
67.58000 -1.214
67.60000 0.496
67.62000 0.814
67.64000 0.160
67.66000 -1.388
67.68000 0.552
67.70000 1.903
67.72000 0.778
67.74000 -1.661
67.76000 -1.330
67.78000 1.107
67.80000 0.879
67.82000 0.051
67.84000 1.649
67.86000 -0.193
67.88000 0.209
67.90000 1.615
67.92000 1.964
67.94000 2.032
67.96000 1.060
67.98000 -0.470
68.00000 3.086
68.02000 -0.302
68.04000 -2.160
68.06000 -2.016
68.08000 1.015
68.10000 1.545
68.12000 3.824
68.14000 2.048
68.16000 2.401
68.18000 3.466
68.20000 1.285
68.22000 3.128
68.24000 6.394
68.26000 3.348
68.28000 4.431
68.30000 2.460
68.32000 1.067
68.34000 -0.063
68.36000 -0.620
68.38000 -0.303
68.40000 -0.407
68.42000 0.400
68.44000 0.194
68.46000 1.585
68.48000 1.704
68.50000 2.700
68.52000 0.562
68.54000 1.704
68.56000 -0.527
68.58000 -1.518
68.60000 0.094
68.62000 -0.106
68.64000 -2.133
68.66000 -0.961
68.68000 1.301
68.70000 3.826
68.72000 3.052
68.74000 2.048
68.76000 2.028
68.78000 1.208
68.80000 0.463
68.82000 -0.398
68.84000 0.459
68.86000 1.801
68.88000 2.970
68.90000 1.892
68.92000 2.679
68.94000 3.193
68.96000 0.183
68.98000 1.928
69.00000 1.349
69.02000 0.478
69.04000 -0.485
69.06000 0.044
69.08000 1.113
69.10000 2.122
69.12000 1.321
69.14000 0.581
69.16000 0.093
69.18000 2.424
69.20000 3.961
69.22000 0.968
69.24000 -0.609
69.26000 1.107
69.28000 1.391
69.30000 3.159
69.32000 2.880
69.34000 -0.070
69.36000 1.389
69.38000 1.203
69.40000 0.414
69.42000 0.010
69.44000 0.439
69.46000 -0.019
69.48000 -2.114
69.50000 -1.214
69.52000 0.675
69.54000 -0.810
69.56000 -0.549
69.58000 -1.624
69.60000 0.088
69.62000 3.126
69.64000 -0.308
69.66000 0.403
69.68000 1.863
69.70000 0.627
69.72000 3.485
69.74000 1.828
69.76000 -1.626
69.78000 -1.020
69.80000 -2.023
69.82000 -0.284
69.84000 1.415
69.86000 1.409
69.88000 -0.865
69.90000 -1.270
69.92000 -1.354
69.94000 0.343
69.96000 1.627
69.98000 4.108
70.00000 3.999
70.02000 3.520
70.04000 -0.495
70.06000 -0.854
70.08000 0.906
70.10000 1.003
70.12000 -0.999
70.14000 -1.897
70.16000 0.724
70.18000 1.726
70.20000 0.005
70.22000 -0.486
70.24000 -2.089
70.26000 -1.028
70.28000 -1.057
70.30000 1.510
70.32000 0.335
70.34000 2.075
70.36000 -0.472
70.38000 -1.656
70.40000 -1.792
70.42000 0.576
70.44000 0.415
70.46000 2.035
70.48000 0.516
70.50000 -0.634
70.52000 -0.225
70.54000 0.945
70.56000 -0.256
70.58000 -0.642
70.60000 0.983
70.62000 2.432
70.64000 1.061
70.66000 1.403
70.68000 2.109
70.70000 -0.551
70.72000 1.992
70.74000 -0.999
70.76000 1.248
70.78000 1.049
70.80000 -0.226
70.82000 -0.786
70.84000 1.612
70.86000 2.490
70.88000 -0.174
70.90000 0.352
70.92000 2.463
70.94000 4.116
70.96000 3.787
70.98000 1.317
71.00000 -2.035
71.02000 0.358
71.04000 2.751
71.06000 1.482
71.08000 1.923
71.10000 2.476
71.12000 2.969
71.14000 2.209
71.16000 1.749
71.18000 4.907
71.20000 4.983
71.22000 0.602
71.24000 3.502
71.26000 3.883
71.28000 3.543
71.30000 0.514
71.32000 0.756
71.34000 1.178
71.36000 2.337
71.38000 4.080
71.40000 2.257
71.42000 -0.413
71.44000 0.016
71.46000 0.748
71.48000 3.436
71.50000 2.445
71.52000 2.213
71.54000 2.756
71.56000 -0.138
71.58000 0.149
71.60000 1.258
71.62000 0.718
71.64000 0.351
71.66000 1.720
71.68000 4.246
71.70000 5.002
71.72000 1.753
71.74000 1.604
71.76000 2.182
71.78000 -2.013
71.80000 -1.959
71.82000 -0.472
71.84000 0.878
71.86000 4.655
71.88000 2.411
71.90000 2.733
71.92000 0.307
71.94000 0.673
71.96000 0.659
71.98000 1.353
72.00000 1.239
72.02000 1.810
72.04000 4.379
72.06000 1.080
72.08000 2.494
72.10000 1.835
72.12000 2.566
72.14000 0.384
72.16000 2.706
72.18000 3.560
72.20000 0.148
72.22000 -0.802
72.24000 -0.865
72.26000 -0.192
72.28000 2.801
72.30000 -0.459
72.32000 -0.833
72.34000 -1.993
72.36000 2.209
72.38000 0.766
72.40000 2.431
72.42000 1.416
72.44000 0.502
72.46000 3.458
72.48000 1.414
72.50000 -1.359
72.52000 -1.093
72.54000 0.185
72.56000 -1.012
72.58000 0.367
72.60000 0.705
72.62000 1.311
72.64000 1.942
72.66000 3.888
72.68000 1.425
72.70000 3.222
72.72000 2.997
72.74000 3.334
72.76000 2.935
72.78000 2.971
72.80000 0.508
72.82000 -0.202
72.84000 1.486
72.86000 1.824
72.88000 -0.760
72.90000 0.636
72.92000 -0.788
72.94000 -1.456
72.96000 -0.941
72.98000 -1.787
73.00000 -1.197
73.02000 0.808
73.04000 1.842
73.06000 0.440
73.08000 0.620
73.10000 1.213
73.12000 0.795
73.14000 -1.696
73.16000 -0.610
73.18000 1.428
73.20000 -0.361
73.22000 -1.444
73.24000 -0.489
73.26000 0.045
73.28000 1.149
73.30000 0.678
73.32000 -0.626
73.34000 -0.308
73.36000 1.070
73.38000 0.507
73.40000 0.182
73.42000 -0.403
73.44000 4.606
73.46000 3.432
73.48000 0.500
73.50000 0.328
73.52000 0.235
73.54000 1.387
73.56000 3.022
73.58000 1.531
73.60000 2.615
73.62000 2.712
73.64000 2.283
73.66000 1.010
73.68000 1.652
73.70000 2.002
73.72000 0.316
73.74000 0.509
73.76000 0.936
73.78000 -0.969
73.80000 0.604
73.82000 2.427
73.84000 0.971
73.86000 0.456
73.88000 1.123
73.90000 1.740
73.92000 1.213
73.94000 1.491
73.96000 1.839
73.98000 1.443
74.00000 2.049
74.02000 3.413
74.04000 0.256
74.06000 -1.986
74.08000 -1.459
74.10000 1.831
74.12000 2.038
74.14000 3.101
74.16000 2.144
74.18000 1.127
74.20000 1.604
74.22000 -1.984
74.24000 -0.286
74.26000 3.783
74.28000 4.029
74.30000 2.132
74.32000 1.392
74.34000 1.646
74.36000 5.625
74.38000 2.515
74.40000 -0.063
74.42000 1.249
74.44000 1.210
74.46000 0.585
74.48000 1.009
74.50000 -1.160
74.52000 0.733
74.54000 1.459
74.56000 4.455
74.58000 2.638
74.60000 3.446
74.62000 0.938
74.64000 -0.232
74.66000 2.263
74.68000 3.136
74.70000 2.947
74.72000 3.148
74.74000 1.111
74.76000 0.472
74.78000 -1.969
74.80000 0.047
74.82000 2.866
74.84000 3.493
74.86000 0.831
74.88000 2.221
74.90000 5.434
74.92000 3.793
74.94000 1.104
74.96000 2.592
74.98000 3.829
75.00000 4.555
75.02000 2.256
75.04000 3.433
75.06000 2.957
75.08000 3.629
75.10000 -1.472
75.12000 -1.951
75.14000 3.482
75.16000 2.572
75.18000 0.406
75.20000 1.721
75.22000 0.360
75.24000 2.364
75.26000 6.505
75.28000 5.213
75.30000 2.855
75.32000 3.159
75.34000 2.745
75.36000 1.284
75.38000 0.727
75.40000 1.379
75.42000 0.100
75.44000 3.641
75.46000 3.074
75.48000 4.825
75.50000 6.264
75.52000 5.193
75.54000 4.053
75.56000 2.393
75.58000 -0.386
75.60000 2.732
75.62000 4.168
75.64000 2.341
75.66000 0.954
75.68000 1.904
75.70000 1.138
75.72000 1.814
75.74000 4.615
75.76000 2.416
75.78000 0.409
75.80000 1.472
75.82000 -1.001
75.84000 -0.501
75.86000 0.043
75.88000 2.712
75.90000 0.752
75.92000 -0.454
75.94000 1.224
75.96000 2.198
75.98000 1.410
76.00000 2.556
76.02000 4.299
76.04000 3.196
76.06000 0.447
76.08000 -1.362
76.10000 0.659
76.12000 0.822
76.14000 -0.604
76.16000 -1.001
76.18000 -0.280
76.20000 0.258
76.22000 3.348
76.24000 3.566
76.26000 2.663
76.28000 3.694
76.30000 2.949
76.32000 1.123
76.34000 1.927
76.36000 2.228
76.38000 0.712
76.40000 1.451
76.42000 -0.627
76.44000 2.599
76.46000 3.647
76.48000 3.000
76.50000 6.868
76.52000 4.213
76.54000 2.468
76.56000 0.611
76.58000 2.956
76.60000 0.646
76.62000 -2.031
76.64000 -0.349
76.66000 0.643
76.68000 -0.055
76.70000 1.014
76.72000 4.335
76.74000 1.362
76.76000 3.084
76.78000 1.442
76.80000 1.336
76.82000 1.890
76.84000 2.558
76.86000 1.500
76.88000 0.220
76.90000 2.347
76.92000 2.230
76.94000 2.302
76.96000 1.395
76.98000 1.756
77.00000 1.475
77.02000 3.552
77.04000 -2.041
77.06000 -0.246
77.08000 3.248
77.10000 2.505
77.12000 -0.460
77.14000 0.622
77.16000 0.618
77.18000 2.979
77.20000 3.665
77.22000 0.274
77.24000 0.378
77.26000 3.740
77.28000 3.464
77.30000 5.149
77.32000 1.801
77.34000 -0.521
77.36000 1.050
77.38000 0.965
77.40000 0.595
77.42000 1.059
77.44000 1.990
77.46000 1.192
77.48000 1.311
77.50000 4.479
77.52000 0.825
77.54000 1.015
77.56000 0.788
77.58000 1.151
77.60000 2.466
77.62000 0.365
77.64000 -1.730
77.66000 -0.601
77.68000 2.429
77.70000 2.455
77.72000 -0.829
77.74000 0.848
77.76000 -0.947
77.78000 -0.670
77.80000 -2.086
77.82000 2.380
77.84000 2.237
77.86000 -0.907
77.88000 -0.054
77.90000 1.091
77.92000 1.705
77.94000 2.412
77.96000 0.166
77.98000 0.057
78.00000 -0.498
78.02000 1.946
78.04000 2.997
78.06000 3.266
78.08000 4.227
78.10000 3.934
78.12000 2.879
78.14000 2.549
78.16000 -1.862
78.18000 -1.352
78.20000 -2.107
78.22000 0.451
78.24000 3.182
78.26000 2.018
78.28000 3.287
78.30000 0.153
78.32000 2.460
78.34000 4.589
78.36000 1.885
78.38000 4.946
78.40000 4.771
78.42000 1.212
78.44000 1.160
78.46000 -0.156
78.48000 0.438
78.50000 3.540
78.52000 5.460
78.54000 3.008
78.56000 1.611
78.58000 1.207
78.60000 2.285
78.62000 -0.927
78.64000 1.094
78.66000 3.020
78.68000 3.139
78.70000 1.465
78.72000 1.587
78.74000 3.941
78.76000 3.331
78.78000 3.191
78.80000 2.304
78.82000 3.647
78.84000 5.717
78.86000 4.911
78.88000 5.131
78.90000 0.667
78.92000 0.138
78.94000 0.840
78.96000 2.531
78.98000 7.682
79.00000 6.212
79.02000 5.070
79.04000 5.956
79.06000 8.593
79.08000 8.641
79.10000 8.957
79.12000 7.603
79.14000 8.327
79.16000 7.278
79.18000 9.581
79.20000 9.588
79.22000 9.755
79.24000 8.243
79.26000 8.257
79.28000 8.901
79.30000 9.835
79.32000 12.852
79.34000 15.471
79.36000 16.830
79.38000 14.590
79.40000 12.094
79.42000 12.439
79.44000 12.744
79.46000 11.067
79.48000 12.576
79.50000 12.927
79.52000 14.113
79.54000 16.481
79.56000 20.032
79.58000 21.772
79.60000 19.061
79.62000 16.078
79.64000 21.525
79.66000 21.755
79.68000 18.931
79.70000 21.593
79.72000 20.555
79.74000 21.771
79.76000 24.835
79.78000 24.312
79.80000 25.568
79.82000 24.568
79.84000 23.464
79.86000 25.242
79.88000 24.749
79.90000 26.751
79.92000 25.541
79.94000 26.908
79.96000 25.549
79.98000 24.777
80.00000 23.031
80.02000 23.101
80.04000 25.450
80.06000 26.283
80.08000 23.194
80.10000 18.451
80.12000 19.398
80.14000 21.596
80.16000 21.851
80.18000 22.419
80.20000 23.496
80.22000 24.055
80.24000 19.986
80.26000 19.730
80.28000 22.760
80.30000 22.678
80.32000 19.279
80.34000 17.363
80.36000 18.681
80.38000 13.974
80.40000 15.137
80.42000 14.833
80.44000 15.283
80.46000 15.636
80.48000 17.504
80.50000 11.925
80.52000 13.457
80.54000 17.198
80.56000 18.780
80.58000 15.273
80.60000 17.826
80.62000 13.519
80.64000 10.088
80.66000 8.753
80.68000 8.398
80.70000 11.101
80.72000 10.595
80.74000 9.232
80.76000 9.806
80.78000 8.801
80.80000 11.013
80.82000 11.253
80.84000 8.103
80.86000 7.076
80.88000 7.886
80.90000 4.745
80.92000 1.642
80.94000 0.260
80.96000 -0.887
80.98000 0.203
81.00000 2.699
81.02000 -0.065
81.04000 -1.988
81.06000 0.268
81.08000 -1.346
81.10000 3.812
81.12000 5.095
81.14000 2.611
81.16000 1.908
81.18000 2.493
81.20000 1.435
81.22000 0.776
81.24000 -0.614
81.26000 0.922
81.28000 1.094
81.30000 3.988
81.32000 4.056
81.34000 2.905
81.36000 3.371
81.38000 3.090
81.40000 3.813
81.42000 7.296
81.44000 3.037
81.46000 1.246
81.48000 0.843
81.50000 1.293
81.52000 3.963
81.54000 4.920
81.56000 1.806
81.58000 3.267
81.60000 -0.966
81.62000 -2.238
81.64000 3.001
81.66000 3.072
81.68000 0.981
81.70000 -0.604
81.72000 1.122
81.74000 2.757
81.76000 0.222
81.78000 0.959
81.80000 0.927
81.82000 2.380
81.84000 2.199
81.86000 2.375
81.88000 -1.370
81.90000 -0.194
81.92000 0.116
81.94000 0.037
81.96000 1.018
81.98000 2.457
82.00000 1.825
82.02000 0.851
82.04000 -0.719
82.06000 1.576
82.08000 0.481
82.10000 -1.286
82.12000 0.546
82.14000 0.612
82.16000 -1.344
82.18000 0.786
82.20000 1.667
82.22000 -1.934
82.24000 1.046
82.26000 3.642
82.28000 3.335
82.30000 2.432
82.32000 4.806
82.34000 4.250
82.36000 3.258
82.38000 -0.018
82.40000 -0.290
82.42000 -0.918
82.44000 -0.556
82.46000 1.209
82.48000 1.509
82.50000 1.644
82.52000 1.273
82.54000 1.033
82.56000 2.881
82.58000 3.473
82.60000 3.916
82.62000 6.419
82.64000 5.958
82.66000 4.289
82.68000 6.515
82.70000 9.621
82.72000 8.006
82.74000 8.935
82.76000 7.221
82.78000 5.849
82.80000 3.563
82.82000 -0.401
82.84000 1.746
82.86000 2.427
82.88000 5.834
82.90000 6.907
82.92000 6.657
82.94000 5.328
82.96000 10.706
82.98000 10.155
83.00000 9.505
83.02000 11.427
83.04000 8.300
83.06000 9.278
83.08000 13.287
83.10000 11.596
83.12000 11.392
83.14000 16.662
83.16000 14.318
83.18000 13.520
83.20000 11.728
83.22000 16.159
83.24000 18.691
83.26000 20.698
83.28000 20.301
83.30000 16.275
83.32000 19.920
83.34000 20.601
83.36000 22.999
83.38000 25.188
83.40000 26.848
83.42000 22.927
83.44000 24.648
83.46000 31.191
83.48000 28.366
83.50000 25.375
83.52000 26.980
83.54000 29.003
83.56000 31.690
83.58000 28.980
83.60000 30.676
83.62000 32.411
83.64000 38.120
83.66000 41.321
83.68000 38.917
83.70000 38.901
83.72000 39.747
83.74000 40.347
83.76000 34.531
83.78000 34.187
83.80000 37.333
83.82000 41.167
83.84000 42.131
83.86000 42.836
83.88000 42.575
83.90000 41.924
83.92000 45.179
83.94000 43.065
83.96000 43.165
83.98000 40.498
84.00000 43.327
84.02000 48.321
84.04000 48.600
84.06000 44.079
84.08000 42.282
84.10000 37.121
84.12000 36.106
84.14000 37.000
84.16000 38.166
84.18000 38.550
84.20000 38.533
84.22000 36.910
84.24000 36.728
84.26000 34.076
84.28000 31.434
84.30000 37.029
84.32000 37.393
84.34000 30.329
84.36000 27.983
84.38000 27.772
84.40000 24.654
84.42000 27.628
84.44000 23.518
84.46000 21.268
84.48000 18.689
84.50000 14.370
84.52000 11.423
84.54000 15.569
84.56000 18.443
84.58000 16.770
84.60000 14.153
84.62000 13.944
84.64000 14.356
84.66000 13.179
84.68000 12.382
84.70000 9.794
84.72000 12.264
84.74000 9.696
84.76000 9.028
84.78000 10.206
84.80000 10.390
84.82000 10.155
84.84000 11.573
84.86000 7.553
84.88000 2.835
84.90000 -0.430
84.92000 0.824
84.94000 1.372
84.96000 3.965
84.98000 4.483
85.00000 3.562
85.02000 3.358
85.04000 5.680
85.06000 2.090
85.08000 1.920
85.10000 0.497
85.12000 1.633
85.14000 2.598
85.16000 3.904
85.18000 2.567
85.20000 3.280
85.22000 4.375
85.24000 3.038
85.26000 2.601
85.28000 3.114
85.30000 -0.469
85.32000 1.981
85.34000 0.720
85.36000 -2.052
85.38000 -1.455
85.40000 1.712
85.42000 0.855
85.44000 3.695
85.46000 3.514
85.48000 0.804
85.50000 1.303
85.52000 1.720
85.54000 3.484
85.56000 2.684
85.58000 2.739
85.60000 2.801
85.62000 3.018
85.64000 2.060
85.66000 -0.560
85.68000 -0.380
85.70000 2.027
85.72000 4.745
85.74000 3.994
85.76000 2.684
85.78000 -1.987
85.80000 -0.881
85.82000 -0.833
85.84000 -1.753
85.86000 1.550
85.88000 0.419
85.90000 -0.207
85.92000 0.050
85.94000 2.140
85.96000 2.096
85.98000 2.048
86.00000 0.468
86.02000 4.314
86.04000 2.604
86.06000 1.895
86.08000 2.315
86.10000 2.105
86.12000 0.169
86.14000 1.512
86.16000 -0.648
86.18000 -1.443
86.20000 1.117
86.22000 0.868
86.24000 1.528
86.26000 0.438
86.28000 -0.003
86.30000 -1.271
86.32000 -1.923
86.34000 0.098
86.36000 0.499
86.38000 -0.622
86.40000 1.201
86.42000 -0.048
86.44000 -0.589
86.46000 -0.889
86.48000 0.996
86.50000 1.125
86.52000 2.866
86.54000 2.379
86.56000 1.214
86.58000 1.411
86.60000 2.861
86.62000 0.675
86.64000 2.453
86.66000 -0.820
86.68000 -1.604
86.70000 -0.126
86.72000 0.923
86.74000 1.695
86.76000 0.590
86.78000 0.629
86.80000 3.548
86.82000 1.935
86.84000 0.275
86.86000 1.421
86.88000 2.434
86.90000 1.359
86.92000 -0.528
86.94000 1.329
86.96000 3.338
86.98000 -0.839
87.00000 -1.892
87.02000 1.026
87.04000 2.836
87.06000 2.049
87.08000 2.637
87.10000 3.046
87.12000 1.052
87.14000 -0.498
87.16000 2.665
87.18000 0.015
87.20000 1.201
87.22000 3.638
87.24000 4.367
87.26000 1.028
87.28000 -0.095
87.30000 1.572
87.32000 4.842
87.34000 1.697
87.36000 -1.879
87.38000 -0.673
87.40000 1.641
87.42000 0.432
87.44000 3.143
87.46000 3.412
87.48000 1.311
87.50000 1.087
87.52000 1.403
87.54000 4.251
87.56000 3.488
87.58000 2.344
87.60000 4.256
87.62000 1.848
87.64000 1.135
87.66000 3.472
87.68000 1.208
87.70000 -0.965
87.72000 1.749
87.74000 2.551
87.76000 6.558
87.78000 4.627
87.80000 2.376
87.82000 -0.159
87.84000 2.507
87.86000 3.852
87.88000 4.571
87.90000 3.573
87.92000 -0.278
87.94000 -1.066
87.96000 2.163
87.98000 3.824
88.00000 2.242
88.02000 0.265
88.04000 2.137
88.06000 2.458
88.08000 4.571
88.10000 2.617
88.12000 1.973
88.14000 3.695
88.16000 2.175
88.18000 3.417
88.20000 5.278
88.22000 2.181
88.24000 -1.834
88.26000 0.333
88.28000 0.881
88.30000 1.405
88.32000 4.136
88.34000 4.564
88.36000 3.382
88.38000 3.438
88.40000 3.888
88.42000 -1.342
88.44000 -0.107
88.46000 2.564
88.48000 3.646
88.50000 3.606
88.52000 3.910
88.54000 2.217
88.56000 2.877
88.58000 3.543
88.60000 5.214
88.62000 5.057
88.64000 2.880
88.66000 4.262
88.68000 3.122
88.70000 3.773
88.72000 3.527
88.74000 1.538
88.76000 0.247
88.78000 0.270
88.80000 1.789
88.82000 0.342
88.84000 1.464
88.86000 0.403
88.88000 2.256
88.90000 0.707
88.92000 -0.331
88.94000 3.566
88.96000 4.962
88.98000 1.246
89.00000 0.096
89.02000 1.378
89.04000 1.856
89.06000 0.748
89.08000 0.758
89.10000 0.925
89.12000 -0.047
89.14000 -1.123
89.16000 -1.502
89.18000 -0.500
89.20000 3.218
89.22000 3.064
89.24000 1.940
89.26000 1.828
89.28000 1.712
89.30000 2.128
89.32000 -1.835
89.34000 -1.536
89.36000 2.186
89.38000 2.370
89.40000 4.992
89.42000 2.335
89.44000 2.586
89.46000 0.464
89.48000 0.107
89.50000 1.724
89.52000 2.121
89.54000 2.059
89.56000 1.249
89.58000 5.158
89.60000 5.728
89.62000 1.258
89.64000 0.627
89.66000 0.514
89.68000 1.879
89.70000 5.088
89.72000 5.265
89.74000 3.868
89.76000 1.530
89.78000 1.442
89.80000 0.754
89.82000 2.604
89.84000 4.922
89.86000 4.548
89.88000 3.735
89.90000 4.254
89.92000 3.897
89.94000 4.720
89.96000 4.470
89.98000 5.031
90.00000 4.422
90.02000 2.487
90.04000 2.018
90.06000 0.458
90.08000 0.730
90.10000 -1.229
90.12000 -0.972
90.14000 -1.848
90.16000 -1.222
90.18000 1.891
90.20000 3.259
90.22000 3.732
90.24000 5.176
90.26000 3.462
90.28000 1.456
90.30000 4.266
90.32000 1.201
90.34000 0.828
90.36000 -0.295
90.38000 0.291
90.40000 1.088
90.42000 -0.436
90.44000 -1.673
90.46000 -0.023
90.48000 -0.166
90.50000 1.855
90.52000 1.565
90.54000 2.301
90.56000 2.807
90.58000 -1.843
90.60000 -0.804
90.62000 0.673
90.64000 -1.070
90.66000 -0.089
90.68000 2.176
90.70000 1.689
90.72000 6.394
90.74000 4.789
90.76000 1.470
90.78000 -0.572
90.80000 0.893
90.82000 4.538
90.84000 1.948
90.86000 4.821
90.88000 7.136
90.90000 4.818
90.92000 2.668
90.94000 5.204
90.96000 2.481
90.98000 2.081
91.00000 3.527
91.02000 2.152
91.04000 3.258
91.06000 3.782
91.08000 4.125
91.10000 3.972
91.12000 3.719
91.14000 1.264
91.16000 -0.909
91.18000 0.856
91.20000 -1.834
91.22000 1.006
91.24000 3.668
91.26000 1.809
91.28000 2.476
91.30000 2.267
91.32000 4.399
91.34000 0.321
91.36000 -0.045
91.38000 4.437
91.40000 3.558
91.42000 5.611
91.44000 3.313
91.46000 2.921
91.48000 3.150
91.50000 2.638
91.52000 0.593
91.54000 -1.845
91.56000 3.870
91.58000 2.163
91.60000 1.443
91.62000 1.492
91.64000 2.350
91.66000 3.261
91.68000 2.281
91.70000 3.356
91.72000 4.941
91.74000 2.848
91.76000 2.704
91.78000 -0.255
91.80000 -0.292
91.82000 2.074
91.84000 2.221
91.86000 5.888
91.88000 3.200
91.90000 0.189
91.92000 0.899
91.94000 3.506
91.96000 1.828
91.98000 1.935
92.00000 -0.014
92.02000 0.366
92.04000 2.006
92.06000 1.203
92.08000 1.155
92.10000 2.955
92.12000 3.308
92.14000 0.861
92.16000 -0.258
92.18000 -0.465
92.20000 0.945
92.22000 5.444
92.24000 3.314
92.26000 0.358
92.28000 0.132
92.30000 2.708
92.32000 1.583
92.34000 2.074
92.36000 4.305
92.38000 0.326
92.40000 2.361
92.42000 -0.714
92.44000 1.554
92.46000 1.137
92.48000 1.694
92.50000 3.301
92.52000 -0.021
92.54000 2.607
92.56000 1.680
92.58000 2.224
92.60000 1.360
92.62000 3.276
92.64000 5.245
92.66000 3.735
92.68000 1.947
92.70000 -0.228
92.72000 0.427
92.74000 2.345
92.76000 1.194
92.78000 2.093
92.80000 0.596
92.82000 -0.424
92.84000 0.717
92.86000 4.162
92.88000 3.804
92.90000 2.653
92.92000 1.819
92.94000 -0.989
92.96000 -0.059
92.98000 1.344
93.00000 1.343
93.02000 0.757
93.04000 0.691
93.06000 3.011
93.08000 4.908
93.10000 -0.279
93.12000 -1.860
93.14000 -0.793
93.16000 -1.184
93.18000 3.545
93.20000 8.421
93.22000 3.545
93.24000 2.563
93.26000 1.613
93.28000 1.200
93.30000 0.138
93.32000 0.298
93.34000 2.578
93.36000 4.455
93.38000 2.178
93.40000 -0.367
93.42000 1.612
93.44000 1.895
93.46000 5.474
93.48000 2.489
93.50000 2.884
93.52000 5.146
93.54000 4.411
93.56000 2.870
93.58000 0.815
93.60000 2.820
93.62000 5.807
93.64000 6.313
93.66000 11.375
93.68000 5.580
93.70000 4.307
93.72000 1.252
93.74000 -1.813
93.76000 0.378
93.78000 3.202
93.80000 7.449
93.82000 6.736
93.84000 6.680
93.86000 6.337
93.88000 2.683
93.90000 4.262
93.92000 3.095
93.94000 8.246
93.96000 4.569
93.98000 8.322
94.00000 7.005
94.02000 0.592
94.04000 1.761
94.06000 -0.072
94.08000 -0.534
94.10000 0.765
94.12000 4.893
94.14000 3.066
94.16000 2.446
94.18000 4.088
94.20000 3.641
94.22000 5.029
94.24000 6.731
94.26000 4.139
94.28000 2.943
94.30000 4.161
94.32000 1.207
94.34000 -0.202
94.36000 2.652
94.38000 2.527
94.40000 1.364
94.42000 -0.758
94.44000 1.459
94.46000 1.816
94.48000 3.370
94.50000 2.831
94.52000 4.119
94.54000 2.977
94.56000 2.227
94.58000 1.077
94.60000 2.330
94.62000 3.751
94.64000 2.845
94.66000 5.880
94.68000 5.377
94.70000 3.607
94.72000 1.043
94.74000 3.009
94.76000 2.289
94.78000 5.592
94.80000 5.984
94.82000 4.918
94.84000 4.578
94.86000 -0.023
94.88000 1.038
94.90000 4.203
94.92000 3.120
94.94000 5.357
94.96000 3.967
94.98000 1.198
95.00000 2.650
95.02000 0.970
95.04000 1.688
95.06000 1.572
95.08000 3.528
95.10000 2.053
95.12000 2.666
95.14000 1.149
95.16000 1.112
95.18000 1.703
95.20000 -1.397
95.22000 1.517
95.24000 3.631
95.26000 4.233
95.28000 -0.116
95.30000 2.936
95.32000 4.748
95.34000 7.695
95.36000 6.025
95.38000 2.904
95.40000 4.954
95.42000 5.792
95.44000 4.191
95.46000 0.371
95.48000 -1.849
95.50000 0.480
95.52000 1.209
95.54000 5.357
95.56000 4.518
95.58000 2.574
95.60000 3.492
95.62000 4.842
95.64000 3.318
95.66000 8.575
95.68000 6.969
95.70000 2.622
95.72000 3.321
95.74000 3.830
95.76000 4.414
95.78000 5.296
95.80000 4.488
95.82000 3.388
95.84000 2.084
95.86000 3.742
95.88000 5.456
95.90000 6.692
95.92000 6.706
95.94000 5.634
95.96000 5.344
95.98000 5.651
96.00000 3.535
96.02000 3.574
96.04000 6.362
96.06000 6.477
96.08000 5.072
96.10000 5.107
96.12000 6.092
96.14000 -0.999
96.16000 -1.831
96.18000 1.362
96.20000 5.419
96.22000 4.819
96.24000 2.719
96.26000 4.669
96.28000 5.604
96.30000 7.366
96.32000 6.321
96.34000 1.281
96.36000 2.751
96.38000 6.924
96.40000 6.474
96.42000 7.314
96.44000 6.619
96.46000 5.371
96.48000 8.045
96.50000 6.809
96.52000 8.286
96.54000 8.449
96.56000 4.379
96.58000 2.433
96.60000 0.767
96.62000 1.825
96.64000 4.471
96.66000 4.047
96.68000 5.429
96.70000 3.436
96.72000 3.162
96.74000 4.304
96.76000 3.932
96.78000 2.490
96.80000 -1.747
96.82000 -1.558
96.84000 -0.571
96.86000 1.701
96.88000 4.336
96.90000 4.541
96.92000 4.219
96.94000 2.535
96.96000 0.557
96.98000 -0.329
97.00000 2.469
97.02000 2.396
97.04000 7.890
97.06000 6.198
97.08000 2.365
97.10000 0.932
97.12000 -1.432
97.14000 -0.157
97.16000 0.958
97.18000 3.900
97.20000 3.964
97.22000 0.006
97.24000 -1.849
97.26000 4.024
97.28000 6.127
97.30000 3.484
97.32000 1.679
97.34000 2.788
97.36000 4.400
97.38000 4.885
97.40000 5.652
97.42000 6.250
97.44000 -0.723
97.46000 -0.478
97.48000 2.580
97.50000 4.375
97.52000 4.554
97.54000 1.276
97.56000 5.157
97.58000 2.270
97.60000 2.289
97.62000 1.623
97.64000 1.314
97.66000 0.812
97.68000 2.235
97.70000 4.768
97.72000 5.109
97.74000 4.021
97.76000 2.024
97.78000 0.100
97.80000 2.960
97.82000 1.288
97.84000 0.456
97.86000 2.284
97.88000 4.281
97.90000 2.745
97.92000 3.192
97.94000 2.765
97.96000 -1.811
97.98000 3.211
98.00000 9.681
98.02000 4.628
98.04000 3.594
98.06000 4.438
98.08000 6.279
98.10000 6.501
98.12000 -0.250
98.14000 1.874
98.16000 3.872
98.18000 2.157
98.20000 5.590
98.22000 5.226
98.24000 2.511
98.26000 3.497
98.28000 4.589
98.30000 5.494
98.32000 5.229
98.34000 4.219
98.36000 8.126
98.38000 8.516
98.40000 5.080
98.42000 6.611
98.44000 3.737
98.46000 5.932
98.48000 9.423
98.50000 10.097
98.52000 4.828
98.54000 2.375
98.56000 -0.767
98.58000 3.782
98.60000 2.992
98.62000 -0.186
98.64000 0.600
98.66000 3.806
98.68000 2.931
98.70000 -0.137
98.72000 -1.049
98.74000 5.310
98.76000 4.747
98.78000 1.661
98.80000 -1.817
98.82000 3.290
98.84000 1.876
98.86000 5.176
98.88000 8.774
98.90000 9.598
98.92000 2.687
98.94000 1.475
98.96000 4.643
98.98000 9.060
99.00000 2.091
99.02000 2.071
99.04000 2.696
99.06000 2.721
99.08000 2.511
99.10000 8.222
99.12000 4.607
99.14000 4.988
99.16000 2.384
99.18000 0.876
99.20000 1.609
99.22000 2.109
99.24000 0.343
99.26000 4.161
99.28000 3.903
99.30000 2.736
99.32000 6.438
99.34000 4.362
99.36000 1.519
99.38000 5.903
99.40000 1.705
99.42000 5.659
99.44000 8.027
99.46000 3.284
99.48000 1.953
99.50000 4.569
99.52000 11.236
99.54000 5.086
99.56000 8.470
99.58000 9.608
99.60000 8.395
99.62000 9.912
99.64000 12.633
99.66000 10.200
99.68000 3.180
99.70000 8.615
99.72000 2.623
99.74000 1.778
99.76000 -1.780
99.78000 5.019
99.80000 3.938
99.82000 3.393
99.84000 -1.829
99.86000 -1.837
99.88000 1.177
99.90000 3.474
99.92000 4.877
99.94000 0.859
99.96000 -1.925
99.98000 0.000
