'Id: "0011388" Comment: "Integrate frame 0011388_Au-Ir-Rh_Rh-rich_XRD-Mapping-187-0000.gfrmwith cursor Wedge Cursor #5" Operator: "B?rgel" Anode: "Cu" Wavelength: "1.5406" Scantype: "2Theta (TwoTheta)" TimePerStep: "1" X: "-4.5" Y: "4.5" Z: "5.95" 
10.00000 0.000
10.02000 -4.249
10.04000 -1.829
10.06000 -3.120
10.08000 -1.546
10.10000 2.486
10.12000 9.466
10.14000 4.262
10.16000 12.068
10.18000 16.499
10.20000 8.135
10.22000 15.339
10.24000 -3.264
10.26000 9.707
10.28000 7.034
10.30000 -4.177
10.32000 1.996
10.34000 9.461
10.36000 6.480
10.38000 6.876
10.40000 17.177
10.42000 22.172
10.44000 12.733
10.46000 -0.037
10.48000 11.563
10.50000 17.586
10.52000 15.701
10.54000 16.520
10.56000 22.765
10.58000 20.720
10.60000 1.369
10.62000 0.295
10.64000 4.159
10.66000 7.020
10.68000 8.360
10.70000 14.440
10.72000 10.496
10.74000 1.604
10.76000 12.828
10.78000 25.239
10.80000 13.294
10.82000 6.287
10.84000 -0.980
10.86000 6.508
10.88000 14.536
10.90000 8.563
10.92000 12.646
10.94000 27.353
10.96000 35.830
10.98000 15.547
11.00000 8.601
11.02000 11.661
11.04000 14.930
11.06000 18.195
11.08000 22.140
11.10000 27.493
11.12000 19.048
11.14000 5.162
11.16000 16.067
11.18000 12.426
11.20000 3.062
11.22000 5.634
11.24000 7.054
11.26000 19.858
11.28000 12.628
11.30000 8.030
11.32000 10.845
11.34000 6.701
11.36000 3.717
11.38000 7.806
11.40000 3.297
11.42000 7.858
11.44000 16.561
11.46000 19.687
11.48000 7.793
11.50000 6.772
11.52000 3.575
11.54000 8.428
11.56000 33.062
11.58000 34.922
11.60000 22.161
11.62000 15.270
11.64000 9.677
11.66000 13.616
11.68000 25.976
11.70000 12.467
11.72000 12.463
11.74000 17.182
11.76000 20.777
11.78000 30.228
11.80000 26.319
11.82000 17.862
11.84000 2.962
11.86000 -4.298
11.88000 12.386
11.90000 21.933
11.92000 19.114
11.94000 22.915
11.96000 23.646
11.98000 21.632
12.00000 15.691
12.02000 16.598
12.04000 11.387
12.06000 17.582
12.08000 20.636
12.10000 11.224
12.12000 14.346
12.14000 22.388
12.16000 21.798
12.18000 18.852
12.20000 13.275
12.22000 5.527
12.24000 6.622
12.26000 19.123
12.28000 25.570
12.30000 20.058
12.32000 20.233
12.34000 17.059
12.36000 9.869
12.38000 14.621
12.40000 19.724
12.42000 15.860
12.44000 13.010
12.46000 15.348
12.48000 10.619
12.50000 17.305
12.52000 29.153
12.54000 25.294
12.56000 23.624
12.58000 23.347
12.60000 23.398
12.62000 22.894
12.64000 15.603
12.66000 10.438
12.68000 7.587
12.70000 7.912
12.72000 13.342
12.74000 12.300
12.76000 12.621
12.78000 8.542
12.80000 22.125
12.82000 18.585
12.84000 5.773
12.86000 6.992
12.88000 14.439
12.90000 23.307
12.92000 28.807
12.94000 21.537
12.96000 7.607
12.98000 7.340
13.00000 12.525
13.02000 8.443
13.04000 9.856
13.06000 16.383
13.08000 23.998
13.10000 25.159
13.12000 26.409
13.14000 25.772
13.16000 10.773
13.18000 6.980
13.20000 7.336
13.22000 9.327
13.24000 14.924
13.26000 0.996
13.28000 7.395
13.30000 3.397
13.32000 8.851
13.34000 16.314
13.36000 24.868
13.38000 18.812
13.40000 11.409
13.42000 11.707
13.44000 9.607
13.46000 15.595
13.48000 13.057
13.50000 11.543
13.52000 13.836
13.54000 15.625
13.56000 12.717
13.58000 11.538
13.60000 3.945
13.62000 7.502
13.64000 11.896
13.66000 14.602
13.68000 14.063
13.70000 10.875
13.72000 14.882
13.74000 24.164
13.76000 5.273
13.78000 9.491
13.80000 10.549
13.82000 9.137
13.84000 13.101
13.86000 8.635
13.88000 13.719
13.90000 10.381
13.92000 2.310
13.94000 7.634
13.96000 15.106
13.98000 15.954
14.00000 18.790
14.02000 15.068
14.04000 9.706
14.06000 12.260
14.08000 9.681
14.10000 10.398
14.12000 9.394
14.14000 5.825
14.16000 4.103
14.18000 7.188
14.20000 10.679
14.22000 5.840
14.24000 5.373
14.26000 3.323
14.28000 -1.771
14.30000 -2.340
14.32000 -1.396
14.34000 -2.450
14.36000 -0.792
14.38000 5.608
14.40000 5.344
14.42000 -4.464
14.44000 6.888
14.46000 11.888
14.48000 7.422
14.50000 8.102
14.52000 3.335
14.54000 -3.914
14.56000 -3.128
14.58000 9.447
14.60000 3.787
14.62000 9.332
14.64000 12.923
14.66000 14.515
14.68000 11.789
14.70000 9.771
14.72000 11.072
14.74000 4.132
14.76000 -1.654
14.78000 1.216
14.80000 5.472
14.82000 9.802
14.84000 3.732
14.86000 -3.688
14.88000 -1.781
14.90000 0.519
14.92000 1.587
14.94000 -3.124
14.96000 2.490
14.98000 10.819
15.00000 13.518
15.02000 5.676
15.04000 6.015
15.06000 -0.899
15.08000 15.775
15.10000 6.931
15.12000 3.582
15.14000 5.261
15.16000 9.151
15.18000 8.265
15.20000 -2.619
15.22000 2.298
15.24000 1.910
15.26000 5.549
15.28000 5.708
15.30000 1.716
15.32000 1.634
15.34000 -0.473
15.36000 5.823
15.38000 12.267
15.40000 21.783
15.42000 12.827
15.44000 8.847
15.46000 2.898
15.48000 0.048
15.50000 1.981
15.52000 7.180
15.54000 13.300
15.56000 3.862
15.58000 1.590
15.60000 5.855
15.62000 2.716
15.64000 2.927
15.66000 1.868
15.68000 2.930
15.70000 1.721
15.72000 8.711
15.74000 5.746
15.76000 -1.743
15.78000 2.149
15.80000 2.285
15.82000 2.203
15.84000 3.316
15.86000 0.411
15.88000 4.972
15.90000 1.347
15.92000 -0.704
15.94000 -1.169
15.96000 -3.218
15.98000 0.856
16.00000 5.422
16.02000 8.177
16.04000 7.010
16.06000 6.253
16.08000 6.878
16.10000 10.823
16.12000 6.696
16.14000 3.448
16.16000 5.538
16.18000 0.719
16.20000 3.001
16.22000 5.877
16.24000 5.503
16.26000 4.399
16.28000 10.462
16.30000 11.243
16.32000 13.574
16.34000 3.900
16.36000 3.807
16.38000 4.776
16.40000 -4.443
16.42000 -4.161
16.44000 2.202
16.46000 7.866
16.48000 2.842
16.50000 6.326
16.52000 0.188
16.54000 2.721
16.56000 1.897
16.58000 5.927
16.60000 0.568
16.62000 -2.830
16.64000 3.074
16.66000 1.132
16.68000 1.729
16.70000 3.381
16.72000 -1.057
16.74000 10.208
16.76000 8.758
16.78000 11.317
16.80000 10.824
16.82000 0.527
16.84000 4.278
16.86000 1.998
16.88000 4.534
16.90000 12.162
16.92000 6.968
16.94000 4.174
16.96000 7.840
16.98000 7.729
17.00000 9.294
17.02000 5.426
17.04000 2.874
17.06000 1.968
17.08000 -2.600
17.10000 4.410
17.12000 -2.409
17.14000 2.958
17.16000 4.115
17.18000 3.607
17.20000 1.836
17.22000 -2.706
17.24000 -1.980
17.26000 3.894
17.28000 2.154
17.30000 -1.010
17.32000 3.595
17.34000 3.000
17.36000 3.222
17.38000 2.348
17.40000 1.851
17.42000 0.606
17.44000 -0.284
17.46000 -0.250
17.48000 4.145
17.50000 7.178
17.52000 14.291
17.54000 8.519
17.56000 7.436
17.58000 7.277
17.60000 6.898
17.62000 0.027
17.64000 3.071
17.66000 1.803
17.68000 1.369
17.70000 6.854
17.72000 -1.153
17.74000 -2.926
17.76000 9.652
17.78000 9.469
17.80000 10.477
17.82000 1.437
17.84000 -0.190
17.86000 10.275
17.88000 11.841
17.90000 7.416
17.92000 4.787
17.94000 5.360
17.96000 7.728
17.98000 13.751
18.00000 16.238
18.02000 9.725
18.04000 3.565
18.06000 3.646
18.08000 4.899
18.10000 9.992
18.12000 9.029
18.14000 8.619
18.16000 8.625
18.18000 8.501
18.20000 8.598
18.22000 6.560
18.24000 -1.443
18.26000 -4.315
18.28000 2.950
18.30000 8.760
18.32000 9.038
18.34000 8.980
18.36000 9.241
18.38000 11.639
18.40000 5.206
18.42000 7.384
18.44000 3.740
18.46000 6.812
18.48000 6.922
18.50000 1.474
18.52000 -4.289
18.54000 6.565
18.56000 12.549
18.58000 12.945
18.60000 5.964
18.62000 10.973
18.64000 9.177
18.66000 3.814
18.68000 6.480
18.70000 7.089
18.72000 7.114
18.74000 4.059
18.76000 9.217
18.78000 3.684
18.80000 5.262
18.82000 2.940
18.84000 -0.312
18.86000 1.387
18.88000 -1.435
18.90000 4.468
18.92000 7.994
18.94000 9.003
18.96000 7.291
18.98000 10.128
19.00000 9.679
19.02000 1.433
19.04000 3.860
19.06000 3.582
19.08000 0.581
19.10000 2.650
19.12000 5.790
19.14000 9.770
19.16000 1.520
19.18000 1.255
19.20000 6.224
19.22000 11.794
19.24000 3.334
19.26000 5.757
19.28000 4.399
19.30000 -0.041
19.32000 3.708
19.34000 8.765
19.36000 7.001
19.38000 5.309
19.40000 10.545
19.42000 2.779
19.44000 1.026
19.46000 3.257
19.48000 -1.922
19.50000 -0.698
19.52000 0.179
19.54000 5.213
19.56000 7.316
19.58000 -0.798
19.60000 6.260
19.62000 14.135
19.64000 9.609
19.66000 8.174
19.68000 -0.060
19.70000 -0.235
19.72000 10.795
19.74000 1.894
19.76000 -0.333
19.78000 -0.390
19.80000 3.620
19.82000 8.524
19.84000 0.753
19.86000 -4.226
19.88000 -2.903
19.90000 3.161
19.92000 3.727
19.94000 3.161
19.96000 6.458
19.98000 6.207
20.00000 7.223
20.02000 1.806
20.04000 1.703
20.06000 5.395
20.08000 9.378
20.10000 4.539
20.12000 4.306
20.14000 3.260
20.16000 0.753
20.18000 8.364
20.20000 2.410
20.22000 4.125
20.24000 5.056
20.26000 8.008
20.28000 4.708
20.30000 6.678
20.32000 9.162
20.34000 8.699
20.36000 3.486
20.38000 4.556
20.40000 5.543
20.42000 1.338
20.44000 1.967
20.46000 10.988
20.48000 8.717
20.50000 8.106
20.52000 6.508
20.54000 -2.505
20.56000 0.639
20.58000 4.148
20.60000 7.604
20.62000 10.387
20.64000 7.000
20.66000 6.059
20.68000 2.184
20.70000 -2.151
20.72000 1.410
20.74000 6.280
20.76000 9.105
20.78000 11.707
20.80000 4.029
20.82000 -1.494
20.84000 -0.244
20.86000 2.523
20.88000 2.828
20.90000 2.310
20.92000 -4.178
20.94000 -1.904
20.96000 0.095
20.98000 2.464
21.00000 9.330
21.02000 13.205
21.04000 11.995
21.06000 7.136
21.08000 6.889
21.10000 8.679
21.12000 7.278
21.14000 2.642
21.16000 6.700
21.18000 4.833
21.20000 -0.602
21.22000 0.996
21.24000 4.947
21.26000 9.600
21.28000 3.913
21.30000 3.780
21.32000 4.598
21.34000 7.246
21.36000 2.970
21.38000 -2.153
21.40000 4.745
21.42000 8.973
21.44000 4.838
21.46000 3.187
21.48000 4.141
21.50000 7.647
21.52000 9.592
21.54000 0.574
21.56000 -3.694
21.58000 3.514
21.60000 8.368
21.62000 3.513
21.64000 7.133
21.66000 7.029
21.68000 2.953
21.70000 5.035
21.72000 2.262
21.74000 4.189
21.76000 1.434
21.78000 0.714
21.80000 0.500
21.82000 -1.114
21.84000 7.975
21.86000 3.683
21.88000 -1.292
21.90000 -0.923
21.92000 0.550
21.94000 0.977
21.96000 4.831
21.98000 1.596
22.00000 0.151
22.02000 5.317
22.04000 0.885
22.06000 1.169
22.08000 5.853
22.10000 9.180
22.12000 5.155
22.14000 3.148
22.16000 -4.135
22.18000 0.521
22.20000 9.283
22.22000 2.934
22.24000 1.280
22.26000 -3.623
22.28000 -4.128
22.30000 1.284
22.32000 1.465
22.34000 3.719
22.36000 1.894
22.38000 -2.726
22.40000 -1.255
22.42000 0.132
22.44000 6.004
22.46000 3.666
22.48000 1.623
22.50000 4.438
22.52000 6.129
22.54000 1.522
22.56000 1.677
22.58000 3.847
22.60000 4.368
22.62000 2.906
22.64000 8.199
22.66000 9.001
22.68000 5.853
22.70000 0.813
22.72000 -0.025
22.74000 3.198
22.76000 -3.144
22.78000 -3.689
22.80000 1.327
22.82000 2.101
22.84000 4.346
22.86000 7.614
22.88000 5.432
22.90000 8.455
22.92000 1.909
22.94000 0.000
22.96000 7.057
22.98000 8.404
23.00000 7.744
23.02000 7.046
23.04000 -1.997
23.06000 6.358
23.08000 10.062
23.10000 9.634
23.12000 4.040
23.14000 5.034
23.16000 2.896
23.18000 0.301
23.20000 4.436
23.22000 4.055
23.24000 3.333
23.26000 6.000
23.28000 0.445
23.30000 0.387
23.32000 3.384
23.34000 6.983
23.36000 2.493
23.38000 -1.509
23.40000 5.712
23.42000 3.728
23.44000 2.893
23.46000 5.521
23.48000 2.512
23.50000 3.201
23.52000 4.146
23.54000 4.234
23.56000 6.786
23.58000 4.118
23.60000 5.173
23.62000 4.308
23.64000 3.823
23.66000 1.347
23.68000 3.487
23.70000 8.680
23.72000 9.359
23.74000 10.478
23.76000 4.193
23.78000 1.712
23.80000 2.475
23.82000 5.623
23.84000 14.517
23.86000 12.067
23.88000 1.451
23.90000 2.441
23.92000 7.570
23.94000 7.398
23.96000 7.383
23.98000 12.191
24.00000 15.120
24.02000 12.574
24.04000 13.690
24.06000 5.867
24.08000 -3.971
24.10000 -1.837
24.12000 4.465
24.14000 8.387
24.16000 7.771
24.18000 2.827
24.20000 4.200
24.22000 2.896
24.24000 -0.613
24.26000 2.518
24.28000 8.057
24.30000 7.668
24.32000 10.487
24.34000 9.016
24.36000 6.222
24.38000 8.696
24.40000 4.525
24.42000 5.607
24.44000 1.677
24.46000 3.452
24.48000 7.867
24.50000 7.864
24.52000 5.260
24.54000 8.721
24.56000 5.505
24.58000 -1.367
24.60000 4.970
24.62000 6.874
24.64000 1.954
24.66000 1.441
24.68000 5.239
24.70000 10.983
24.72000 5.470
24.74000 -1.589
24.76000 7.870
24.78000 4.808
24.80000 2.344
24.82000 2.888
24.84000 3.822
24.86000 5.115
24.88000 0.588
24.90000 0.669
24.92000 0.718
24.94000 -1.630
24.96000 -1.504
24.98000 3.017
25.00000 7.764
25.02000 3.037
25.04000 3.986
25.06000 3.503
25.08000 -2.368
25.10000 2.679
25.12000 2.487
25.14000 -1.543
25.16000 1.881
25.18000 6.272
25.20000 2.345
25.22000 -3.128
25.24000 -2.808
25.26000 2.638
25.28000 -1.002
25.30000 -2.039
25.32000 6.409
25.34000 8.044
25.36000 5.955
25.38000 2.178
25.40000 1.229
25.42000 0.084
25.44000 2.535
25.46000 5.277
25.48000 5.736
25.50000 5.057
25.52000 3.019
25.54000 7.502
25.56000 12.248
25.58000 7.158
25.60000 4.957
25.62000 5.573
25.64000 1.922
25.66000 6.724
25.68000 6.098
25.70000 0.516
25.72000 0.340
25.74000 5.777
25.76000 6.209
25.78000 3.679
25.80000 -2.148
25.82000 -3.269
25.84000 0.540
25.86000 7.443
25.88000 0.213
25.90000 -3.918
25.92000 -1.496
25.94000 2.096
25.96000 7.503
25.98000 2.887
26.00000 4.577
26.02000 3.946
26.04000 6.776
26.06000 1.737
26.08000 5.631
26.10000 4.940
26.12000 1.897
26.14000 -0.516
26.16000 1.915
26.18000 5.519
26.20000 3.004
26.22000 0.986
26.24000 6.568
26.26000 7.677
26.28000 -1.702
26.30000 1.539
26.32000 2.180
26.34000 1.384
26.36000 -2.727
26.38000 -3.889
26.40000 2.499
26.42000 6.477
26.44000 11.673
26.46000 4.120
26.48000 0.570
26.50000 1.843
26.52000 5.297
26.54000 6.019
26.56000 -0.422
26.58000 2.835
26.60000 3.945
26.62000 3.404
26.64000 6.444
26.66000 3.876
26.68000 -0.820
26.70000 1.813
26.72000 0.459
26.74000 0.065
26.76000 5.758
26.78000 5.802
26.80000 2.004
26.82000 4.421
26.84000 5.170
26.86000 6.225
26.88000 9.580
26.90000 7.896
26.92000 0.706
26.94000 7.240
26.96000 8.566
26.98000 5.659
27.00000 5.729
27.02000 5.912
27.04000 3.185
27.06000 -1.184
27.08000 3.121
27.10000 4.600
27.12000 6.435
27.14000 3.265
27.16000 2.854
27.18000 1.697
27.20000 -1.480
27.22000 3.677
27.24000 4.036
27.26000 -2.296
27.28000 -1.409
27.30000 1.697
27.32000 4.745
27.34000 -0.684
27.36000 -3.309
27.38000 -3.840
27.40000 5.495
27.42000 5.869
27.44000 3.726
27.46000 3.887
27.48000 6.348
27.50000 9.014
27.52000 3.531
27.54000 -1.648
27.56000 0.170
27.58000 2.284
27.60000 1.323
27.62000 2.708
27.64000 2.181
27.66000 4.476
27.68000 7.125
27.70000 5.587
27.72000 11.660
27.74000 8.741
27.76000 5.294
27.78000 8.098
27.80000 8.258
27.82000 9.278
27.84000 6.217
27.86000 -0.329
27.88000 -2.366
27.90000 0.624
27.92000 -3.123
27.94000 -3.816
27.96000 3.817
27.98000 7.262
28.00000 2.434
28.02000 3.653
28.04000 2.510
28.06000 3.314
28.08000 3.346
28.10000 8.917
28.12000 8.504
28.14000 2.780
28.16000 -2.104
28.18000 0.120
28.20000 1.980
28.22000 1.295
28.24000 0.665
28.26000 2.853
28.28000 -0.011
28.30000 -0.949
28.32000 -0.547
28.34000 0.839
28.36000 8.843
28.38000 6.214
28.40000 -1.243
28.42000 -3.786
28.44000 2.431
28.46000 6.569
28.48000 3.857
28.50000 -2.071
28.52000 0.855
28.54000 0.809
28.56000 0.192
28.58000 4.019
28.60000 1.891
28.62000 5.922
28.64000 4.165
28.66000 3.600
28.68000 4.307
28.70000 4.560
28.72000 3.866
28.74000 -1.156
28.76000 -1.480
28.78000 1.218
28.80000 2.798
28.82000 3.483
28.84000 0.182
28.86000 6.755
28.88000 13.442
28.90000 7.851
28.92000 7.560
28.94000 2.470
28.96000 -2.816
28.98000 -2.438
29.00000 0.427
29.02000 5.637
29.04000 3.209
29.06000 -1.227
29.08000 -0.652
29.10000 -1.682
29.12000 -2.019
29.14000 -0.767
29.16000 -0.257
29.18000 2.141
29.20000 2.405
29.22000 5.568
29.24000 1.817
29.26000 3.945
29.28000 5.675
29.30000 4.523
29.32000 1.967
29.34000 1.846
29.36000 6.466
29.38000 3.357
29.40000 5.947
29.42000 6.255
29.44000 2.309
29.46000 -0.037
29.48000 1.915
29.50000 0.371
29.52000 4.636
29.54000 7.207
29.56000 6.165
29.58000 2.075
29.60000 2.347
29.62000 1.280
29.64000 1.868
29.66000 -0.856
29.68000 -3.607
29.70000 6.256
29.72000 7.076
29.74000 -0.383
29.76000 2.611
29.78000 5.159
29.80000 1.143
29.82000 3.197
29.84000 3.447
29.86000 2.334
29.88000 3.592
29.90000 8.791
29.92000 7.530
29.94000 10.625
29.96000 5.101
29.98000 4.987
30.00000 4.922
30.02000 1.943
30.04000 -3.029
30.06000 -1.301
30.08000 -3.683
30.10000 -0.681
30.12000 2.239
30.14000 8.256
30.16000 2.690
30.18000 2.723
30.20000 3.455
30.22000 4.382
30.24000 6.614
30.26000 0.462
30.28000 -0.558
30.30000 3.572
30.32000 4.629
30.34000 9.250
30.36000 5.012
30.38000 2.931
30.40000 7.060
30.42000 3.065
30.44000 -1.636
30.46000 2.748
30.48000 7.900
30.50000 4.860
30.52000 1.781
30.54000 7.847
30.56000 1.005
30.58000 0.111
30.60000 3.770
30.62000 6.895
30.64000 1.357
30.66000 3.462
30.68000 5.986
30.70000 3.918
30.72000 1.785
30.74000 -0.981
30.76000 0.846
30.78000 5.804
30.80000 2.010
30.82000 0.607
30.84000 0.044
30.86000 1.259
30.88000 -1.811
30.90000 -1.821
30.92000 1.575
30.94000 -1.872
30.96000 -0.355
30.98000 -0.675
31.00000 0.660
31.02000 3.504
31.04000 -0.258
31.06000 1.758
31.08000 5.570
31.10000 2.325
31.12000 0.107
31.14000 0.656
31.16000 2.215
31.18000 5.919
31.20000 3.925
31.22000 -1.909
31.24000 -2.998
31.26000 7.256
31.28000 5.857
31.30000 -2.457
31.32000 -3.657
31.34000 -0.230
31.36000 4.289
31.38000 4.669
31.40000 1.564
31.42000 2.341
31.44000 0.102
31.46000 0.903
31.48000 4.692
31.50000 0.038
31.52000 -0.617
31.54000 2.949
31.56000 5.512
31.58000 6.532
31.60000 1.978
31.62000 -1.755
31.64000 -3.646
31.66000 -3.526
31.68000 -0.556
31.70000 -3.047
31.72000 0.190
31.74000 4.662
31.76000 6.181
31.78000 -0.471
31.80000 1.892
31.82000 2.127
31.84000 2.426
31.86000 -0.143
31.88000 4.127
31.90000 8.590
31.92000 8.242
31.94000 8.335
31.96000 2.071
31.98000 -2.192
32.00000 -0.137
32.02000 2.026
32.04000 0.282
32.06000 -1.274
32.08000 -2.438
32.10000 -0.457
32.12000 5.497
32.14000 5.149
32.16000 3.813
32.18000 6.038
32.20000 4.434
32.22000 3.793
32.24000 2.085
32.26000 2.331
32.28000 -1.494
32.30000 -0.417
32.32000 1.096
32.34000 -3.627
32.36000 0.814
32.38000 -3.018
32.40000 -0.787
32.42000 3.924
32.44000 -0.368
32.46000 -0.625
32.48000 0.315
32.50000 1.862
32.52000 0.850
32.54000 -1.162
32.56000 -0.564
32.58000 2.951
32.60000 6.396
32.62000 5.517
32.64000 2.436
32.66000 0.550
32.68000 0.994
32.70000 3.735
32.72000 2.537
32.74000 0.993
32.76000 4.413
32.78000 -0.238
32.80000 -2.073
32.82000 -2.010
32.84000 2.260
32.86000 -0.889
32.88000 0.053
32.90000 -0.979
32.92000 2.302
32.94000 1.412
32.96000 -3.120
32.98000 -3.613
33.00000 0.885
33.02000 -2.650
33.04000 -0.730
33.06000 1.749
33.08000 4.258
33.10000 1.631
33.12000 0.749
33.14000 3.696
33.16000 0.715
33.18000 -1.718
33.20000 4.600
33.22000 4.605
33.24000 2.380
33.26000 -2.672
33.28000 1.580
33.30000 6.068
33.32000 1.822
33.34000 1.611
33.36000 4.562
33.38000 0.965
33.40000 3.210
33.42000 -1.263
33.44000 -0.804
33.46000 0.633
33.48000 2.085
33.50000 -1.025
33.52000 1.392
33.54000 -0.080
33.56000 -1.365
33.58000 0.344
33.60000 -3.598
33.62000 0.178
33.64000 -2.052
33.66000 -1.158
33.68000 0.131
33.70000 -3.143
33.72000 3.951
33.74000 5.779
33.76000 5.578
33.78000 7.824
33.80000 9.073
33.82000 3.779
33.84000 3.049
33.86000 2.493
33.88000 5.069
33.90000 7.232
33.92000 3.731
33.94000 0.588
33.96000 -0.439
33.98000 3.330
34.00000 2.621
34.02000 1.657
34.04000 1.302
34.06000 -0.827
34.08000 7.138
34.10000 4.547
34.12000 5.799
34.14000 5.219
34.16000 3.042
34.18000 3.229
34.20000 0.877
34.22000 -2.425
34.24000 0.360
34.26000 4.181
34.28000 2.903
34.30000 0.050
34.32000 -3.559
34.34000 -2.214
34.36000 4.359
34.38000 7.222
34.40000 9.395
34.42000 5.349
34.44000 2.200
34.46000 2.722
34.48000 6.892
34.50000 3.943
34.52000 5.443
34.54000 6.585
34.56000 5.197
34.58000 3.502
34.60000 0.964
34.62000 -0.981
34.64000 -0.534
34.66000 1.553
34.68000 3.589
34.70000 6.970
34.72000 4.005
34.74000 2.741
34.76000 4.334
34.78000 5.744
34.80000 5.065
34.82000 1.647
34.84000 -3.532
34.86000 0.875
34.88000 -0.250
34.90000 -0.695
34.92000 5.716
34.94000 7.247
34.96000 5.228
34.98000 10.069
35.00000 8.578
35.02000 4.979
35.04000 4.137
35.06000 4.239
35.08000 1.908
35.10000 1.250
35.12000 2.520
35.14000 0.638
35.16000 1.764
35.18000 -0.178
35.20000 1.725
35.22000 7.353
35.24000 5.524
35.26000 1.401
35.28000 3.966
35.30000 0.636
35.32000 -2.457
35.34000 -1.904
35.36000 -1.529
35.38000 -0.716
35.40000 -0.637
35.42000 -2.986
35.44000 -2.261
35.46000 1.385
35.48000 0.690
35.50000 0.152
35.52000 -3.197
35.54000 1.699
35.56000 3.139
35.58000 -2.337
35.60000 -3.351
35.62000 0.796
35.64000 -1.617
35.66000 1.670
35.68000 4.592
35.70000 0.058
35.72000 -2.817
35.74000 -3.362
35.76000 -3.142
35.78000 -3.213
35.80000 1.553
35.82000 5.891
35.84000 0.373
35.86000 2.974
35.88000 5.409
35.90000 0.468
35.92000 -1.095
35.94000 -3.154
35.96000 -0.839
35.98000 -2.650
36.00000 3.079
36.02000 3.068
36.04000 0.413
36.06000 6.488
36.08000 5.278
36.10000 7.740
36.12000 2.230
36.14000 5.229
36.16000 6.621
36.18000 7.989
36.20000 3.433
36.22000 2.204
36.24000 6.281
36.26000 6.040
36.28000 2.106
36.30000 1.115
36.32000 4.626
36.34000 0.676
36.36000 1.281
36.38000 -0.901
36.40000 -3.552
36.42000 -0.750
36.44000 2.529
36.46000 4.520
36.48000 7.175
36.50000 1.788
36.52000 1.687
36.54000 -2.957
36.56000 -3.410
36.58000 -3.549
36.60000 -1.120
36.62000 4.501
36.64000 3.347
36.66000 1.273
36.68000 -0.891
36.70000 0.409
36.72000 -1.864
36.74000 -1.338
36.76000 -0.757
36.78000 -1.543
36.80000 2.110
36.82000 3.983
36.84000 4.647
36.86000 3.253
36.88000 2.583
36.90000 4.964
36.92000 5.503
36.94000 -0.674
36.96000 -1.931
36.98000 3.717
37.00000 1.735
37.02000 0.698
37.04000 1.480
37.06000 0.643
37.08000 0.387
37.10000 3.101
37.12000 4.853
37.14000 1.731
37.16000 -0.625
37.18000 2.228
37.20000 5.600
37.22000 5.731
37.24000 2.616
37.26000 -1.558
37.28000 -2.572
37.30000 0.181
37.32000 2.742
37.34000 -0.363
37.36000 -3.612
37.38000 1.004
37.40000 0.449
37.42000 -0.538
37.44000 3.285
37.46000 1.203
37.48000 1.343
37.50000 5.997
37.52000 4.889
37.54000 2.942
37.56000 0.411
37.58000 -1.078
37.60000 -0.744
37.62000 1.586
37.64000 -0.289
37.66000 -1.235
37.68000 0.789
37.70000 4.850
37.72000 5.198
37.74000 1.277
37.76000 -3.646
37.78000 0.871
37.80000 6.036
37.82000 7.621
37.84000 1.098
37.86000 3.722
37.88000 8.250
37.90000 7.692
37.92000 5.660
37.94000 10.098
37.96000 6.378
37.98000 8.122
38.00000 10.564
38.02000 10.351
38.04000 6.547
38.06000 10.850
38.08000 9.852
38.10000 10.172
38.12000 9.189
38.14000 10.187
38.16000 10.961
38.18000 8.964
38.20000 11.883
38.22000 14.475
38.24000 10.425
38.26000 11.353
38.28000 11.619
38.30000 5.242
38.32000 8.651
38.34000 13.147
38.36000 12.938
38.38000 13.471
38.40000 14.814
38.42000 16.606
38.44000 17.110
38.46000 14.370
38.48000 14.018
38.50000 11.903
38.52000 13.993
38.54000 14.573
38.56000 18.172
38.58000 20.514
38.60000 23.361
38.62000 20.990
38.64000 20.968
38.66000 24.086
38.68000 21.344
38.70000 21.417
38.72000 19.307
38.74000 21.403
38.76000 23.487
38.78000 23.448
38.80000 27.506
38.82000 31.140
38.84000 28.517
38.86000 31.522
38.88000 32.672
38.90000 31.416
38.92000 33.561
38.94000 31.758
38.96000 35.138
38.98000 37.235
39.00000 35.986
39.02000 38.284
39.04000 37.456
39.06000 39.760
39.08000 47.224
39.10000 47.070
39.12000 51.208
39.14000 49.993
39.16000 50.564
39.18000 56.785
39.20000 58.195
39.22000 56.536
39.24000 62.558
39.26000 61.270
39.28000 63.926
39.30000 67.733
39.32000 71.075
39.34000 75.130
39.36000 84.057
39.38000 85.807
39.40000 87.544
39.42000 89.502
39.44000 93.487
39.46000 99.641
39.48000 108.887
39.50000 111.554
39.52000 118.680
39.54000 122.585
39.56000 117.818
39.58000 127.785
39.60000 139.853
39.62000 146.989
39.64000 147.132
39.66000 152.969
39.68000 165.907
39.70000 169.404
39.72000 178.409
39.74000 193.725
39.76000 202.897
39.78000 212.268
39.80000 223.030
39.82000 233.496
39.84000 230.594
39.86000 249.321
39.88000 263.335
39.90000 272.716
39.92000 285.295
39.94000 303.198
39.96000 311.388
39.98000 315.979
40.00000 326.096
40.02000 343.585
40.04000 362.474
40.06000 376.714
40.08000 390.983
40.10000 407.861
40.12000 417.883
40.14000 425.850
40.16000 430.376
40.18000 456.936
40.20000 467.987
40.22000 481.484
40.24000 498.153
40.26000 509.755
40.28000 526.369
40.30000 517.691
40.32000 525.658
40.34000 529.839
40.36000 540.562
40.38000 550.770
40.40000 557.407
40.42000 560.701
40.44000 549.895
40.46000 545.201
40.48000 545.919
40.50000 534.869
40.52000 528.263
40.54000 522.222
40.56000 516.432
40.58000 515.156
40.60000 509.393
40.62000 496.792
40.64000 471.629
40.66000 460.683
40.68000 451.511
40.70000 437.057
40.72000 421.879
40.74000 413.404
40.76000 397.173
40.78000 377.096
40.80000 355.772
40.82000 342.818
40.84000 324.116
40.86000 314.555
40.88000 295.068
40.90000 284.429
40.92000 282.011
40.94000 259.559
40.96000 248.087
40.98000 236.179
41.00000 230.707
41.02000 218.177
41.04000 209.360
41.06000 196.145
41.08000 188.198
41.10000 180.236
41.12000 166.950
41.14000 160.972
41.16000 154.719
41.18000 146.265
41.20000 136.110
41.22000 128.545
41.24000 124.464
41.26000 120.389
41.28000 108.994
41.30000 103.678
41.32000 101.561
41.34000 94.649
41.36000 80.766
41.38000 79.179
41.40000 77.420
41.42000 73.378
41.44000 73.555
41.46000 64.922
41.48000 62.613
41.50000 67.228
41.52000 63.144
41.54000 55.381
41.56000 51.564
41.58000 49.759
41.60000 52.723
41.62000 48.477
41.64000 43.662
41.66000 43.986
41.68000 44.249
41.70000 34.189
41.72000 28.988
41.74000 34.237
41.76000 33.700
41.78000 28.811
41.80000 27.321
41.82000 28.238
41.84000 26.661
41.86000 21.366
41.88000 19.466
41.90000 21.076
41.92000 25.753
41.94000 17.801
41.96000 16.206
41.98000 19.138
42.00000 18.353
42.02000 19.121
42.04000 20.294
42.06000 15.506
42.08000 12.967
42.10000 14.309
42.12000 10.430
42.14000 6.183
42.16000 3.754
42.18000 6.621
42.20000 7.011
42.22000 11.185
42.24000 9.194
42.26000 6.787
42.28000 9.071
42.30000 9.613
42.32000 10.234
42.34000 10.742
42.36000 7.401
42.38000 1.982
42.40000 2.510
42.42000 3.478
42.44000 1.745
42.46000 1.464
42.48000 10.853
42.50000 6.267
42.52000 3.487
42.54000 5.923
42.56000 9.191
42.58000 4.625
42.60000 -0.208
42.62000 1.290
42.64000 -0.313
42.66000 0.192
42.68000 2.201
42.70000 -1.309
42.72000 0.126
42.74000 4.929
42.76000 -0.195
42.78000 2.875
42.80000 4.393
42.82000 0.796
42.84000 0.829
42.86000 3.327
42.88000 4.977
42.90000 1.681
42.92000 -0.067
42.94000 1.676
42.96000 -0.019
42.98000 -3.480
43.00000 -3.560
43.02000 -0.694
43.04000 4.855
43.06000 1.601
43.08000 -2.894
43.10000 1.557
43.12000 -1.522
43.14000 1.498
43.16000 2.349
43.18000 1.548
43.20000 5.522
43.22000 5.432
43.24000 3.465
43.26000 -2.275
43.28000 1.569
43.30000 -1.547
43.32000 -0.399
43.34000 3.345
43.36000 1.771
43.38000 0.127
43.40000 1.055
43.42000 -0.302
43.44000 -0.274
43.46000 0.145
43.48000 -2.525
43.50000 1.988
43.52000 3.868
43.54000 -0.820
43.56000 -0.459
43.58000 1.097
43.60000 -0.583
43.62000 -3.481
43.64000 -1.151
43.66000 -1.535
43.68000 -3.411
43.70000 -2.112
43.72000 -2.280
43.74000 1.035
43.76000 2.262
43.78000 0.896
43.80000 0.408
43.82000 3.434
43.84000 -1.088
43.86000 2.103
43.88000 0.934
43.90000 0.245
43.92000 1.323
43.94000 5.592
43.96000 4.365
43.98000 2.134
44.00000 6.725
44.02000 2.445
44.04000 -2.194
44.06000 -2.251
44.08000 -0.186
44.10000 1.799
44.12000 1.889
44.14000 0.813
44.16000 -1.910
44.18000 1.359
44.20000 4.121
44.22000 3.897
44.24000 5.102
44.26000 -1.442
44.28000 -2.363
44.30000 -1.397
44.32000 6.496
44.34000 6.866
44.36000 0.711
44.38000 3.673
44.40000 5.223
44.42000 2.535
44.44000 -0.356
44.46000 -1.526
44.48000 -3.458
44.50000 4.070
44.52000 4.642
44.54000 0.050
44.56000 0.451
44.58000 4.863
44.60000 1.870
44.62000 -1.705
44.64000 -0.328
44.66000 -1.811
44.68000 -3.075
44.70000 0.568
44.72000 5.832
44.74000 0.977
44.76000 0.134
44.78000 0.082
44.80000 4.695
44.82000 5.259
44.84000 1.591
44.86000 1.556
44.88000 5.369
44.90000 1.073
44.92000 3.653
44.94000 2.582
44.96000 1.784
44.98000 3.695
45.00000 4.212
45.02000 1.892
45.04000 6.778
45.06000 3.274
45.08000 1.481
45.10000 4.034
45.12000 7.105
45.14000 8.314
45.16000 9.302
45.18000 13.134
45.20000 8.481
45.22000 7.155
45.24000 10.597
45.26000 4.345
45.28000 6.397
45.30000 11.806
45.32000 10.230
45.34000 14.395
45.36000 15.115
45.38000 11.937
45.40000 10.256
45.42000 13.615
45.44000 12.059
45.46000 13.626
45.48000 13.029
45.50000 11.045
45.52000 9.495
45.54000 10.811
45.56000 12.972
45.58000 14.152
45.60000 14.475
45.62000 17.293
45.64000 20.812
45.66000 14.814
45.68000 13.846
45.70000 17.767
45.72000 24.641
45.74000 20.882
45.76000 22.928
45.78000 21.327
45.80000 21.956
45.82000 25.902
45.84000 26.022
45.86000 30.409
45.88000 27.272
45.90000 26.961
45.92000 26.756
45.94000 29.518
45.96000 29.031
45.98000 32.734
46.00000 34.838
46.02000 35.215
46.04000 34.886
46.06000 36.708
46.08000 36.341
46.10000 38.852
46.12000 40.473
46.14000 41.449
46.16000 41.888
46.18000 36.335
46.20000 37.886
46.22000 45.837
46.24000 45.670
46.26000 53.178
46.28000 54.902
46.30000 54.064
46.32000 58.178
46.34000 56.128
46.36000 55.419
46.38000 58.412
46.40000 61.699
46.42000 56.076
46.44000 59.150
46.46000 66.255
46.48000 66.681
46.50000 63.858
46.52000 61.385
46.54000 69.419
46.56000 64.142
46.58000 65.344
46.60000 71.555
46.62000 70.298
46.64000 74.591
46.66000 73.713
46.68000 72.060
46.70000 74.160
46.72000 73.652
46.74000 75.905
46.76000 76.144
46.78000 78.244
46.80000 74.341
46.82000 75.066
46.84000 78.270
46.86000 72.790
46.88000 75.541
46.90000 86.874
46.92000 88.388
46.94000 80.978
46.96000 78.882
46.98000 86.910
47.00000 84.303
47.02000 81.586
47.04000 81.097
47.06000 79.293
47.08000 81.762
47.10000 72.998
47.12000 81.581
47.14000 80.295
47.16000 78.025
47.18000 77.328
47.20000 81.791
47.22000 81.056
47.24000 77.883
47.26000 69.372
47.28000 68.472
47.30000 68.656
47.32000 76.661
47.34000 67.663
47.36000 67.907
47.38000 71.111
47.40000 80.443
47.42000 66.747
47.44000 59.699
47.46000 61.843
47.48000 59.347
47.50000 58.357
47.52000 55.143
47.54000 58.769
47.56000 60.133
47.58000 52.375
47.60000 47.711
47.62000 46.802
47.64000 41.618
47.66000 37.673
47.68000 40.188
47.70000 42.329
47.72000 39.196
47.74000 34.804
47.76000 36.092
47.78000 38.467
47.80000 40.742
47.82000 38.316
47.84000 35.565
47.86000 35.835
47.88000 39.013
47.90000 30.892
47.92000 25.157
47.94000 27.602
47.96000 25.684
47.98000 24.185
48.00000 22.501
48.02000 22.229
48.04000 28.698
48.06000 24.802
48.08000 20.712
48.10000 20.088
48.12000 18.255
48.14000 16.496
48.16000 16.952
48.18000 19.788
48.20000 15.057
48.22000 17.628
48.24000 17.756
48.26000 15.335
48.28000 9.203
48.30000 9.391
48.32000 12.222
48.34000 10.341
48.36000 15.498
48.38000 14.203
48.40000 7.466
48.42000 8.879
48.44000 7.485
48.46000 7.632
48.48000 12.225
48.50000 11.285
48.52000 13.689
48.54000 10.364
48.56000 8.733
48.58000 11.469
48.60000 8.559
48.62000 2.994
48.64000 1.789
48.66000 10.037
48.68000 5.643
48.70000 3.363
48.72000 6.410
48.74000 1.755
48.76000 -0.333
48.78000 6.000
48.80000 9.944
48.82000 9.057
48.84000 7.053
48.86000 7.566
48.88000 6.579
48.90000 5.626
48.92000 1.558
48.94000 -3.128
48.96000 3.227
48.98000 2.484
49.00000 3.298
49.02000 4.091
49.04000 10.847
49.06000 13.224
49.08000 10.327
49.10000 6.720
49.12000 3.217
49.14000 -0.707
49.16000 -0.848
49.18000 0.624
49.20000 5.060
49.22000 0.518
49.24000 1.299
49.26000 3.738
49.28000 1.947
49.30000 2.067
49.32000 6.619
49.34000 6.646
49.36000 3.145
49.38000 4.309
49.40000 0.901
49.42000 1.522
49.44000 1.251
49.46000 5.520
49.48000 2.802
49.50000 -3.000
49.52000 1.533
49.54000 6.439
49.56000 6.659
49.58000 5.748
49.60000 5.924
49.62000 5.667
49.64000 1.784
49.66000 -1.702
49.68000 5.859
49.70000 4.468
49.72000 -0.522
49.74000 0.097
49.76000 4.182
49.78000 1.689
49.80000 3.894
49.82000 4.999
49.84000 3.579
49.86000 3.365
49.88000 5.247
49.90000 0.705
49.92000 0.635
49.94000 3.096
49.96000 4.702
49.98000 8.007
50.00000 3.164
50.02000 3.656
50.04000 3.731
50.06000 4.645
50.08000 3.943
50.10000 4.063
50.12000 6.428
50.14000 4.139
50.16000 5.999
50.18000 3.504
50.20000 3.837
50.22000 5.657
50.24000 1.728
50.26000 -2.354
50.28000 -2.947
50.30000 4.801
50.32000 -1.679
50.34000 1.183
50.36000 2.239
50.38000 5.809
50.40000 10.311
50.42000 4.802
50.44000 -2.737
50.46000 -1.165
50.48000 5.875
50.50000 4.190
50.52000 4.605
50.54000 8.013
50.56000 3.060
50.58000 1.531
50.60000 6.186
50.62000 7.473
50.64000 6.644
50.66000 4.260
50.68000 5.943
50.70000 2.182
50.72000 5.153
50.74000 7.493
50.76000 5.510
50.78000 6.796
50.80000 7.669
50.82000 2.937
50.84000 4.564
50.86000 2.796
50.88000 2.632
50.90000 4.128
50.92000 5.546
50.94000 5.354
50.96000 11.709
50.98000 6.389
51.00000 3.065
51.02000 6.792
51.04000 7.395
51.06000 2.385
51.08000 2.214
51.10000 3.314
51.12000 3.229
51.14000 6.196
51.16000 4.848
51.18000 1.725
51.20000 2.618
51.22000 5.648
51.24000 7.917
51.26000 5.422
51.28000 6.567
51.30000 4.228
51.32000 4.385
51.34000 -0.420
51.36000 5.530
51.38000 1.328
51.40000 2.286
51.42000 3.960
51.44000 1.373
51.46000 4.325
51.48000 0.996
51.50000 6.168
51.52000 6.596
51.54000 8.318
51.56000 5.443
51.58000 1.762
51.60000 0.580
51.62000 0.271
51.64000 1.511
51.66000 -2.906
51.68000 4.791
51.70000 10.131
51.72000 7.824
51.74000 8.552
51.76000 6.332
51.78000 3.488
51.80000 1.485
51.82000 4.438
51.84000 9.514
51.86000 6.429
51.88000 1.677
51.90000 -1.321
51.92000 -2.428
51.94000 -2.563
51.96000 1.257
51.98000 2.942
52.00000 2.103
52.02000 1.623
52.04000 1.749
52.06000 1.860
52.08000 4.299
52.10000 3.147
52.12000 2.924
52.14000 1.673
52.16000 1.744
52.18000 -0.956
52.20000 4.464
52.22000 -0.302
52.24000 -2.106
52.26000 -2.066
52.28000 1.672
52.30000 10.170
52.32000 9.166
52.34000 3.631
52.36000 6.576
52.38000 4.006
52.40000 3.881
52.42000 -0.451
52.44000 -0.402
52.46000 0.470
52.48000 -0.179
52.50000 1.862
52.52000 1.365
52.54000 1.199
52.56000 4.803
52.58000 4.104
52.60000 1.903
52.62000 -2.456
52.64000 2.718
52.66000 7.712
52.68000 6.505
52.70000 3.719
52.72000 3.662
52.74000 5.098
52.76000 9.132
52.78000 8.136
52.80000 4.213
52.82000 1.998
52.84000 4.427
52.86000 2.488
52.88000 -0.788
52.90000 0.011
52.92000 3.436
52.94000 4.611
52.96000 4.882
52.98000 10.080
53.00000 6.011
53.02000 4.469
53.04000 1.984
53.06000 4.263
53.08000 9.752
53.10000 5.141
53.12000 4.289
53.14000 5.969
53.16000 8.328
53.18000 7.398
53.20000 6.800
53.22000 6.220
53.24000 7.093
53.26000 6.467
53.28000 3.267
53.30000 5.289
53.32000 5.661
53.34000 1.403
53.36000 0.598
53.38000 -2.835
53.40000 2.950
53.42000 5.423
53.44000 0.365
53.46000 3.024
53.48000 4.464
53.50000 5.063
53.52000 10.850
53.54000 6.782
53.56000 1.392
53.58000 -1.422
53.60000 2.948
53.62000 4.083
53.64000 2.275
53.66000 4.713
53.68000 8.879
53.70000 6.452
53.72000 5.237
53.74000 9.256
53.76000 8.060
53.78000 3.701
53.80000 6.930
53.82000 4.484
53.84000 1.740
53.86000 2.036
53.88000 1.792
53.90000 4.484
53.92000 1.870
53.94000 0.555
53.96000 2.227
53.98000 7.602
54.00000 8.154
54.02000 5.599
54.04000 3.712
54.06000 0.793
54.08000 0.583
54.10000 4.668
54.12000 3.714
54.14000 1.986
54.16000 1.567
54.18000 2.914
54.20000 7.452
54.22000 1.895
54.24000 2.105
54.26000 4.226
54.28000 6.422
54.30000 3.481
54.32000 2.008
54.34000 3.860
54.36000 3.898
54.38000 -0.143
54.40000 3.119
54.42000 2.957
54.44000 1.484
54.46000 3.020
54.48000 1.253
54.50000 -1.570
54.52000 1.182
54.54000 2.411
54.56000 0.906
54.58000 1.469
54.60000 4.135
54.62000 3.779
54.64000 5.234
54.66000 1.749
54.68000 4.486
54.70000 5.078
54.72000 6.542
54.74000 4.065
54.76000 7.627
54.78000 2.732
54.80000 4.015
54.82000 2.072
54.84000 -1.596
54.86000 3.549
54.88000 2.648
54.90000 4.199
54.92000 5.426
54.94000 2.510
54.96000 3.425
54.98000 2.704
55.00000 -2.794
55.02000 5.033
55.04000 3.504
55.06000 2.857
55.08000 3.586
55.10000 4.864
55.12000 9.209
55.14000 4.553
55.16000 4.296
55.18000 4.231
55.20000 7.570
55.22000 4.441
55.24000 0.177
55.26000 5.100
55.28000 7.889
55.30000 2.001
55.32000 -0.597
55.34000 -0.256
55.36000 1.540
55.38000 1.904
55.40000 3.875
55.42000 5.804
55.44000 2.971
55.46000 3.858
55.48000 7.589
55.50000 6.210
55.52000 6.910
55.54000 4.924
55.56000 0.077
55.58000 3.159
55.60000 0.490
55.62000 6.064
55.64000 1.805
55.66000 6.281
55.68000 3.361
55.70000 3.131
55.72000 6.629
55.74000 3.618
55.76000 -0.556
55.78000 5.042
55.80000 4.311
55.82000 5.343
55.84000 4.413
55.86000 -1.202
55.88000 2.523
55.90000 6.904
55.92000 4.964
55.94000 3.020
55.96000 3.473
55.98000 -0.645
56.00000 0.550
56.02000 -0.204
56.04000 1.880
56.06000 5.255
56.08000 3.974
56.10000 0.285
56.12000 1.442
56.14000 -1.453
56.16000 1.580
56.18000 1.307
56.20000 7.793
56.22000 5.660
56.24000 -0.630
56.26000 2.051
56.28000 4.501
56.30000 2.654
56.32000 1.642
56.34000 -1.046
56.36000 -1.890
56.38000 -1.179
56.40000 -2.792
56.42000 3.485
56.44000 6.316
56.46000 5.551
56.48000 5.878
56.50000 4.438
56.52000 4.805
56.54000 0.501
56.56000 -1.506
56.58000 0.297
56.60000 2.935
56.62000 0.015
56.64000 -2.783
56.66000 1.522
56.68000 0.903
56.70000 0.984
56.72000 3.777
56.74000 7.155
56.76000 5.576
56.78000 6.151
56.80000 5.247
56.82000 4.554
56.84000 0.843
56.86000 0.994
56.88000 6.730
56.90000 9.332
56.92000 2.470
56.94000 -1.171
56.96000 0.221
56.98000 1.538
57.00000 -2.006
57.02000 0.385
57.04000 -0.463
57.06000 1.435
57.08000 6.618
57.10000 5.092
57.12000 1.545
57.14000 1.341
57.16000 -1.895
57.18000 -2.766
57.20000 -0.959
57.22000 0.015
57.24000 5.348
57.26000 2.554
57.28000 1.677
57.30000 5.711
57.32000 6.234
57.34000 5.437
57.36000 2.019
57.38000 2.309
57.40000 1.476
57.42000 -0.347
57.44000 -2.151
57.46000 -0.635
57.48000 5.341
57.50000 2.921
57.52000 -0.015
57.54000 -0.893
57.56000 3.662
57.58000 3.922
57.60000 2.150
57.62000 0.543
57.64000 2.056
57.66000 4.219
57.68000 3.704
57.70000 1.501
57.72000 4.218
57.74000 5.935
57.76000 -0.655
57.78000 3.043
57.80000 2.924
57.82000 4.836
57.84000 3.153
57.86000 0.254
57.88000 -0.415
57.90000 -0.412
57.92000 -0.685
57.94000 -2.714
57.96000 1.163
57.98000 1.207
58.00000 1.499
58.02000 4.150
58.04000 1.012
58.06000 1.677
58.08000 -0.136
58.10000 0.183
58.12000 4.113
58.14000 2.140
58.16000 3.444
58.18000 7.065
58.20000 9.290
58.22000 4.663
58.24000 -0.462
58.26000 0.722
58.28000 3.486
58.30000 0.918
58.32000 3.365
58.34000 -2.688
58.36000 1.720
58.38000 3.499
58.40000 -0.096
58.42000 -0.941
58.44000 0.502
58.46000 5.099
58.48000 5.968
58.50000 8.473
58.52000 2.450
58.54000 -0.776
58.56000 -1.966
58.58000 3.031
58.60000 6.254
58.62000 2.600
58.64000 1.341
58.66000 -0.811
58.68000 1.535
58.70000 -0.406
58.72000 1.789
58.74000 -0.294
58.76000 4.557
58.78000 4.857
58.80000 -0.094
58.82000 -1.195
58.84000 3.384
58.86000 2.120
58.88000 2.627
58.90000 -0.669
58.92000 -2.695
58.94000 1.220
58.96000 3.336
58.98000 3.068
59.00000 0.911
59.02000 0.372
59.04000 -1.306
59.06000 -1.184
59.08000 -0.448
59.10000 -2.150
59.12000 0.844
59.14000 4.202
59.16000 2.076
59.18000 4.344
59.20000 1.733
59.22000 3.922
59.24000 1.702
59.26000 -1.993
59.28000 -2.696
59.30000 3.257
59.32000 2.788
59.34000 1.951
59.36000 4.794
59.38000 2.089
59.40000 4.277
59.42000 4.794
59.44000 0.079
59.46000 1.813
59.48000 2.084
59.50000 4.078
59.52000 5.035
59.54000 5.756
59.56000 4.180
59.58000 -0.936
59.60000 -0.238
59.62000 -1.982
59.64000 -0.358
59.66000 3.236
59.68000 2.579
59.70000 2.716
59.72000 -0.871
59.74000 0.606
59.76000 0.185
59.78000 -0.264
59.80000 1.371
59.82000 2.458
59.84000 2.035
59.86000 2.448
59.88000 1.990
59.90000 -1.173
59.92000 -2.155
59.94000 -0.260
59.96000 0.332
59.98000 1.076
60.00000 3.103
60.02000 2.068
60.04000 -0.267
60.06000 1.268
60.08000 2.928
60.10000 2.805
60.12000 2.623
60.14000 5.075
60.16000 3.599
60.18000 3.761
60.20000 3.668
60.22000 1.595
60.24000 -2.663
60.26000 -1.086
60.28000 1.984
60.30000 -0.869
60.32000 -0.817
60.34000 -0.866
60.36000 3.208
60.38000 1.950
60.40000 3.433
60.42000 -0.161
60.44000 -0.136
60.46000 -0.098
60.48000 1.897
60.50000 0.483
60.52000 -2.627
60.54000 0.168
60.56000 1.085
60.58000 3.032
60.60000 3.143
60.62000 -0.783
60.64000 -1.371
60.66000 3.048
60.68000 5.272
60.70000 6.143
60.72000 4.730
60.74000 1.517
60.76000 0.050
60.78000 2.272
60.80000 4.227
60.82000 0.802
60.84000 1.704
60.86000 1.869
60.88000 5.915
60.90000 5.046
60.92000 0.811
60.94000 -0.315
60.96000 5.099
60.98000 3.799
61.00000 1.201
61.02000 1.977
61.04000 2.499
61.06000 1.289
61.08000 -1.958
61.10000 1.583
61.12000 5.803
61.14000 3.221
61.16000 2.803
61.18000 0.955
61.20000 -0.775
61.22000 -1.752
61.24000 -2.162
61.26000 4.409
61.28000 1.057
61.30000 -0.743
61.32000 0.752
61.34000 2.873
61.36000 -1.461
61.38000 1.735
61.40000 3.060
61.42000 4.112
61.44000 0.918
61.46000 -1.885
61.48000 1.263
61.50000 2.222
61.52000 4.584
61.54000 7.101
61.56000 4.755
61.58000 -0.179
61.60000 1.083
61.62000 3.503
61.64000 3.351
61.66000 -0.842
61.68000 1.001
61.70000 2.974
61.72000 4.531
61.74000 4.275
61.76000 5.315
61.78000 3.684
61.80000 -2.593
61.82000 -0.334
61.84000 -2.029
61.86000 0.111
61.88000 3.225
61.90000 -2.587
61.92000 0.297
61.94000 1.188
61.96000 5.114
61.98000 4.736
62.00000 5.664
62.02000 6.040
62.04000 3.800
62.06000 2.316
62.08000 1.763
62.10000 -0.683
62.12000 2.383
62.14000 0.475
62.16000 -2.293
62.18000 2.322
62.20000 4.142
62.22000 1.895
62.24000 1.783
62.26000 3.198
62.28000 2.432
62.30000 2.614
62.32000 -0.939
62.34000 2.254
62.36000 2.294
62.38000 2.185
62.40000 0.276
62.42000 1.775
62.44000 0.640
62.46000 -0.282
62.48000 0.141
62.50000 0.002
62.52000 -2.426
62.54000 -1.064
62.56000 -0.031
62.58000 0.161
62.60000 0.235
62.62000 2.546
62.64000 1.031
62.66000 -0.965
62.68000 2.112
62.70000 5.036
62.72000 4.480
62.74000 -0.358
62.76000 -2.620
62.78000 3.167
62.80000 5.139
62.82000 0.112
62.84000 0.738
62.86000 0.554
62.88000 2.029
62.90000 3.555
62.92000 4.821
62.94000 1.178
62.96000 2.585
62.98000 -0.389
63.00000 0.407
63.02000 3.978
63.04000 4.622
63.06000 0.025
63.08000 -0.839
63.10000 -2.622
63.12000 -0.851
63.14000 0.214
63.16000 -0.719
63.18000 4.378
63.20000 0.791
63.22000 2.796
63.24000 1.978
63.26000 2.628
63.28000 -0.005
63.30000 -0.386
63.32000 3.232
63.34000 4.012
63.36000 1.673
63.38000 0.112
63.40000 0.319
63.42000 0.736
63.44000 -2.093
63.46000 -2.529
63.48000 1.748
63.50000 -1.019
63.52000 0.534
63.54000 2.721
63.56000 4.626
63.58000 0.734
63.60000 -0.761
63.62000 1.053
63.64000 3.576
63.66000 -0.751
63.68000 1.865
63.70000 7.812
63.72000 2.353
63.74000 0.218
63.76000 -2.210
63.78000 -1.562
63.80000 -2.599
63.82000 -0.490
63.84000 5.098
63.86000 0.254
63.88000 2.250
63.90000 0.404
63.92000 -1.692
63.94000 -0.833
63.96000 0.874
63.98000 -1.698
64.00000 -1.290
64.02000 -1.793
64.04000 -1.798
64.06000 -0.764
64.08000 0.716
64.10000 1.065
64.12000 1.237
64.14000 1.410
64.16000 5.302
64.18000 3.814
64.20000 -0.391
64.22000 0.204
64.24000 4.523
64.26000 3.141
64.28000 0.386
64.30000 0.358
64.32000 -2.438
64.34000 -0.287
64.36000 -2.600
64.38000 -1.839
64.40000 0.165
64.42000 0.222
64.44000 1.969
64.46000 -0.259
64.48000 1.245
64.50000 2.095
64.52000 -0.351
64.54000 -2.594
64.56000 1.076
64.58000 3.094
64.60000 3.092
64.62000 1.115
64.64000 1.352
64.66000 1.262
64.68000 4.922
64.70000 7.590
64.72000 3.923
64.74000 7.389
64.76000 2.927
64.78000 2.654
64.80000 0.336
64.82000 3.474
64.84000 2.088
64.86000 4.014
64.88000 5.078
64.90000 0.471
64.92000 -2.587
64.94000 -0.468
64.96000 1.845
64.98000 1.884
65.00000 0.375
65.02000 2.436
65.04000 2.482
65.06000 3.474
65.08000 2.490
65.10000 3.350
65.12000 4.267
65.14000 6.864
65.16000 2.353
65.18000 1.455
65.20000 2.995
65.22000 1.142
65.24000 1.930
65.26000 1.765
65.28000 2.039
65.30000 -0.063
65.32000 4.150
65.34000 4.751
65.36000 1.839
65.38000 0.861
65.40000 1.182
65.42000 1.121
65.44000 3.601
65.46000 4.451
65.48000 1.122
65.50000 -2.453
65.52000 -0.256
65.54000 -2.363
65.56000 -1.603
65.58000 -0.364
65.60000 5.060
65.62000 5.889
65.64000 5.191
65.66000 2.090
65.68000 1.985
65.70000 3.498
65.72000 3.319
65.74000 2.236
65.76000 2.632
65.78000 2.795
65.80000 3.782
65.82000 0.113
65.84000 -2.639
65.86000 4.124
65.88000 2.053
65.90000 -2.330
65.92000 1.314
65.94000 3.804
65.96000 1.802
65.98000 2.095
66.00000 2.204
66.02000 1.341
66.04000 -1.372
66.06000 1.439
66.08000 2.017
66.10000 2.144
66.12000 0.351
66.14000 -0.127
66.16000 0.622
66.18000 1.984
66.20000 5.915
66.22000 3.392
66.24000 3.353
66.26000 6.376
66.28000 5.081
66.30000 0.399
66.32000 1.320
66.34000 2.047
66.36000 2.042
66.38000 -2.647
66.40000 3.010
66.42000 5.553
66.44000 1.360
66.46000 1.288
66.48000 4.451
66.50000 -0.071
66.52000 2.050
66.54000 0.729
66.56000 2.815
66.58000 1.636
66.60000 -1.125
66.62000 -0.195
66.64000 0.886
66.66000 4.491
66.68000 6.601
66.70000 6.399
66.72000 3.736
66.74000 2.797
66.76000 4.794
66.78000 3.479
66.80000 3.409
66.82000 1.904
66.84000 0.504
66.86000 -2.686
66.88000 0.928
66.90000 0.504
66.92000 1.042
66.94000 4.979
66.96000 4.141
66.98000 -2.414
67.00000 -2.695
67.02000 1.200
67.04000 1.353
67.06000 5.611
67.08000 0.586
67.10000 3.976
67.12000 0.145
67.14000 -1.201
67.16000 0.052
67.18000 5.393
67.20000 4.665
67.22000 2.664
67.24000 4.515
67.26000 4.278
67.28000 9.041
67.30000 5.702
67.32000 3.754
67.34000 2.858
67.36000 2.247
67.38000 6.351
67.40000 6.607
67.42000 4.411
67.44000 2.695
67.46000 5.470
67.48000 5.980
67.50000 9.032
67.52000 8.895
67.54000 8.688
67.56000 5.771
67.58000 4.985
67.60000 7.702
67.62000 8.409
67.64000 8.955
67.66000 5.495
67.68000 5.227
67.70000 9.098
67.72000 10.449
67.74000 8.930
67.76000 9.829
67.78000 6.405
67.80000 9.182
67.82000 9.814
67.84000 10.875
67.86000 12.414
67.88000 12.167
67.90000 13.495
67.92000 12.935
67.94000 14.209
67.96000 12.649
67.98000 12.088
68.00000 14.870
68.02000 16.250
68.04000 13.754
68.06000 12.197
68.08000 16.297
68.10000 14.542
68.12000 13.526
68.14000 18.251
68.16000 17.013
68.18000 18.655
68.20000 19.076
68.22000 20.699
68.24000 19.735
68.26000 20.928
68.28000 22.689
68.30000 18.124
68.32000 20.970
68.34000 18.626
68.36000 22.989
68.38000 22.568
68.40000 23.740
68.42000 22.295
68.44000 17.513
68.46000 16.726
68.48000 19.309
68.50000 24.409
68.52000 22.742
68.54000 21.993
68.56000 23.624
68.58000 18.484
68.60000 21.578
68.62000 22.200
68.64000 17.865
68.66000 21.264
68.68000 23.065
68.70000 27.424
68.72000 29.794
68.74000 25.282
68.76000 24.280
68.78000 24.755
68.80000 19.671
68.82000 22.115
68.84000 20.433
68.86000 24.079
68.88000 22.869
68.90000 24.655
68.92000 23.166
68.94000 23.707
68.96000 21.973
68.98000 16.631
69.00000 19.642
69.02000 18.350
69.04000 13.076
69.06000 17.171
69.08000 16.314
69.10000 20.558
69.12000 15.997
69.14000 13.359
69.16000 14.143
69.18000 14.960
69.20000 17.794
69.22000 16.308
69.24000 13.935
69.26000 12.255
69.28000 10.632
69.30000 7.681
69.32000 12.571
69.34000 16.136
69.36000 12.408
69.38000 9.130
69.40000 11.896
69.42000 8.885
69.44000 11.030
69.46000 11.363
69.48000 11.242
69.50000 12.353
69.52000 7.175
69.54000 4.985
69.56000 5.650
69.58000 4.356
69.60000 4.511
69.62000 10.645
69.64000 11.947
69.66000 10.056
69.68000 7.303
69.70000 5.163
69.72000 8.586
69.74000 7.727
69.76000 2.102
69.78000 1.555
69.80000 1.635
69.82000 1.104
69.84000 2.203
69.86000 4.432
69.88000 0.490
69.90000 1.152
69.92000 0.852
69.94000 1.298
69.96000 1.334
69.98000 1.600
70.00000 2.488
70.02000 0.426
70.04000 -2.162
70.06000 -0.301
70.08000 -0.915
70.10000 3.577
70.12000 2.512
70.14000 3.476
70.16000 0.206
70.18000 -2.625
70.20000 -2.489
70.22000 0.091
70.24000 -0.080
70.26000 -0.239
70.28000 0.960
70.30000 3.060
70.32000 -0.831
70.34000 1.503
70.36000 -1.019
70.38000 -0.051
70.40000 0.225
70.42000 2.292
70.44000 -0.285
70.46000 -1.697
70.48000 -0.208
70.50000 -0.920
70.52000 -0.405
70.54000 -2.246
70.56000 -2.586
70.58000 -0.420
70.60000 -0.329
70.62000 3.807
70.64000 1.393
70.66000 0.785
70.68000 0.378
70.70000 3.263
70.72000 -0.456
70.74000 1.862
70.76000 3.750
70.78000 3.200
70.80000 4.510
70.82000 4.269
70.84000 3.235
70.86000 -0.155
70.88000 0.510
70.90000 -1.120
70.92000 -1.420
70.94000 0.242
70.96000 3.234
70.98000 4.361
71.00000 3.673
71.02000 0.903
71.04000 2.143
71.06000 5.091
71.08000 7.146
71.10000 5.913
71.12000 0.084
71.14000 0.577
71.16000 -0.756
71.18000 -2.148
71.20000 2.172
71.22000 1.012
71.24000 -0.495
71.26000 1.206
71.28000 0.469
71.30000 3.355
71.32000 0.186
71.34000 1.533
71.36000 -0.299
71.38000 -1.599
71.40000 1.394
71.42000 3.624
71.44000 2.138
71.46000 1.009
71.48000 1.603
71.50000 0.297
71.52000 1.390
71.54000 0.239
71.56000 -0.296
71.58000 0.870
71.60000 2.651
71.62000 -1.689
71.64000 -0.645
71.66000 1.797
71.68000 3.860
71.70000 5.901
71.72000 2.100
71.74000 0.878
71.76000 4.724
71.78000 2.658
71.80000 0.240
71.82000 0.846
71.84000 3.238
71.86000 1.339
71.88000 1.190
71.90000 4.874
71.92000 -0.353
71.94000 -1.490
71.96000 -2.442
71.98000 1.146
72.00000 1.900
72.02000 -0.339
72.04000 5.445
72.06000 6.876
72.08000 4.492
72.10000 4.513
72.12000 3.897
72.14000 2.919
72.16000 3.508
72.18000 5.353
72.20000 7.381
72.22000 2.784
72.24000 1.465
72.26000 5.941
72.28000 4.765
72.30000 7.629
72.32000 7.925
72.34000 0.721
72.36000 1.826
72.38000 2.534
72.40000 3.848
72.42000 3.161
72.44000 8.471
72.46000 4.865
72.48000 6.949
72.50000 3.087
72.52000 3.338
72.54000 6.799
72.56000 4.331
72.58000 5.229
72.60000 5.603
72.62000 5.036
72.64000 5.818
72.66000 3.487
72.68000 2.976
72.70000 4.077
72.72000 3.762
72.74000 2.909
72.76000 2.682
72.78000 4.948
72.80000 -0.190
72.82000 -2.415
72.84000 3.182
72.86000 5.157
72.88000 3.813
72.90000 -1.774
72.92000 0.107
72.94000 0.969
72.96000 6.702
72.98000 6.991
73.00000 3.287
73.02000 2.431
73.04000 1.287
73.06000 0.100
73.08000 0.711
73.10000 4.048
73.12000 5.869
73.14000 4.595
73.16000 4.555
73.18000 4.297
73.20000 6.283
73.22000 5.333
73.24000 1.758
73.26000 4.786
73.28000 4.122
73.30000 0.974
73.32000 5.123
73.34000 4.827
73.36000 5.939
73.38000 3.225
73.40000 2.414
73.42000 4.732
73.44000 2.230
73.46000 1.420
73.48000 3.126
73.50000 3.582
73.52000 6.401
73.54000 4.074
73.56000 5.388
73.58000 4.709
73.60000 1.325
73.62000 3.020
73.64000 -0.475
73.66000 -0.138
73.68000 -1.741
73.70000 0.270
73.72000 4.793
73.74000 0.040
73.76000 0.234
73.78000 4.796
73.80000 9.155
73.82000 4.391
73.84000 -0.960
73.86000 -0.074
73.88000 3.807
73.90000 6.362
73.92000 6.964
73.94000 6.562
73.96000 6.608
73.98000 1.732
74.00000 -0.846
74.02000 -1.322
74.04000 -2.381
74.06000 4.467
74.08000 3.334
74.10000 2.148
74.12000 2.199
74.14000 3.920
74.16000 2.377
74.18000 -1.040
74.20000 0.227
74.22000 4.379
74.24000 4.061
74.26000 3.452
74.28000 4.799
74.30000 5.883
74.32000 1.823
74.34000 4.755
74.36000 5.909
74.38000 7.134
74.40000 3.070
74.42000 0.576
74.44000 0.425
74.46000 4.814
74.48000 5.276
74.50000 6.343
74.52000 3.656
74.54000 4.909
74.56000 11.912
74.58000 6.718
74.60000 2.990
74.62000 5.272
74.64000 3.655
74.66000 4.029
74.68000 6.618
74.70000 2.445
74.72000 5.230
74.74000 8.254
74.76000 6.774
74.78000 4.339
74.80000 4.025
74.82000 10.298
74.84000 7.264
74.86000 7.398
74.88000 6.718
74.90000 5.856
74.92000 3.914
74.94000 2.792
74.96000 4.998
74.98000 7.014
75.00000 3.320
75.02000 4.310
75.04000 2.448
75.06000 7.313
75.08000 8.519
75.10000 8.194
75.12000 7.516
75.14000 9.774
75.16000 9.708
75.18000 6.863
75.20000 4.237
75.22000 7.991
75.24000 2.157
75.26000 5.866
75.28000 8.553
75.30000 12.348
75.32000 7.487
75.34000 7.034
75.36000 6.361
75.38000 9.958
75.40000 11.546
75.42000 10.091
75.44000 7.326
75.46000 3.094
75.48000 5.165
75.50000 14.704
75.52000 14.066
75.54000 7.015
75.56000 6.983
75.58000 8.994
75.60000 8.291
75.62000 10.579
75.64000 10.242
75.66000 8.533
75.68000 1.547
75.70000 -2.265
75.72000 5.267
75.74000 8.165
75.76000 10.969
75.78000 10.126
75.80000 13.782
75.82000 7.277
75.84000 3.856
75.86000 4.143
75.88000 8.850
75.90000 4.914
75.92000 5.821
75.94000 5.320
75.96000 6.430
75.98000 9.073
76.00000 6.102
76.02000 4.988
76.04000 8.305
76.06000 9.884
76.08000 7.711
76.10000 8.571
76.12000 9.476
76.14000 6.508
76.16000 4.130
76.18000 8.273
76.20000 9.136
76.22000 10.224
76.24000 10.137
76.26000 10.515
76.28000 11.829
76.30000 8.286
76.32000 5.478
76.34000 5.055
76.36000 9.168
76.38000 6.338
76.40000 6.490
76.42000 6.599
76.44000 1.918
76.46000 4.066
76.48000 4.339
76.50000 5.173
76.52000 4.535
76.54000 3.641
76.56000 0.211
76.58000 0.073
76.60000 4.180
76.62000 5.920
76.64000 7.172
76.66000 12.159
76.68000 7.670
76.70000 2.562
76.72000 4.780
76.74000 2.472
76.76000 5.562
76.78000 7.636
76.80000 7.378
76.82000 7.713
76.84000 4.900
76.86000 1.826
76.88000 1.747
76.90000 7.448
76.92000 5.051
76.94000 5.762
76.96000 9.456
76.98000 12.771
77.00000 9.543
77.02000 4.485
77.04000 3.033
77.06000 -0.227
77.08000 3.697
77.10000 6.837
77.12000 4.214
77.14000 6.170
77.16000 2.991
77.18000 5.385
77.20000 4.983
77.22000 2.932
77.24000 1.562
77.26000 1.820
77.28000 4.236
77.30000 7.844
77.32000 7.758
77.34000 4.222
77.36000 1.672
77.38000 3.145
77.40000 6.408
77.42000 4.732
77.44000 5.892
77.46000 9.809
77.48000 6.670
77.50000 6.855
77.52000 9.042
77.54000 8.574
77.56000 5.515
77.58000 3.809
77.60000 -2.408
77.62000 -0.846
77.64000 1.980
77.66000 7.148
77.68000 3.506
77.70000 1.124
77.72000 1.156
77.74000 4.841
77.76000 2.165
77.78000 3.308
77.80000 3.779
77.82000 3.033
77.84000 1.323
77.86000 0.757
77.88000 0.727
77.90000 2.834
77.92000 4.325
77.94000 -0.354
77.96000 1.852
77.98000 2.063
78.00000 2.997
78.02000 3.237
78.04000 3.082
78.06000 3.097
78.08000 4.561
78.10000 3.433
78.12000 5.602
78.14000 3.234
78.16000 2.399
78.18000 2.390
78.20000 6.894
78.22000 1.690
78.24000 -2.413
78.26000 2.111
78.28000 6.870
78.30000 9.444
78.32000 6.955
78.34000 6.696
78.36000 6.851
78.38000 3.297
78.40000 1.324
78.42000 2.946
78.44000 4.562
78.46000 5.884
78.48000 4.519
78.50000 -2.180
78.52000 3.664
78.54000 3.097
78.56000 9.917
78.58000 11.178
78.60000 3.869
78.62000 3.885
78.64000 6.937
78.66000 10.490
78.68000 5.900
78.70000 2.987
78.72000 4.381
78.74000 3.190
78.76000 0.546
78.78000 2.051
78.80000 5.691
78.82000 5.459
78.84000 9.670
78.86000 8.901
78.88000 2.345
78.90000 4.635
78.92000 7.238
78.94000 5.977
78.96000 7.260
78.98000 1.151
79.00000 0.935
79.02000 -1.172
79.04000 -0.937
79.06000 2.717
79.08000 3.819
79.10000 2.093
79.12000 4.376
79.14000 4.841
79.16000 5.087
79.18000 3.595
79.20000 4.642
79.22000 7.318
79.24000 4.143
79.26000 0.674
79.28000 1.242
79.30000 8.633
79.32000 6.741
79.34000 7.512
79.36000 0.246
79.38000 -2.416
79.40000 0.862
79.42000 4.511
79.44000 7.463
79.46000 6.644
79.48000 2.290
79.50000 6.117
79.52000 4.972
79.54000 5.744
79.56000 5.633
79.58000 7.713
79.60000 8.269
79.62000 6.007
79.64000 3.656
79.66000 5.115
79.68000 6.005
79.70000 7.426
79.72000 4.865
79.74000 5.415
79.76000 4.462
79.78000 2.039
79.80000 3.385
79.82000 2.117
79.84000 5.479
79.86000 13.690
79.88000 6.069
79.90000 3.092
79.92000 1.709
79.94000 2.428
79.96000 3.959
79.98000 4.459
80.00000 4.310
80.02000 4.466
80.04000 4.554
80.06000 7.835
80.08000 6.602
80.10000 1.108
80.12000 3.043
80.14000 2.362
80.16000 6.844
80.18000 7.583
80.20000 1.940
80.22000 3.579
80.24000 7.104
80.26000 6.911
80.28000 4.799
80.30000 5.523
80.32000 4.302
80.34000 3.190
80.36000 3.095
80.38000 1.680
80.40000 1.873
80.42000 -0.833
80.44000 -0.696
80.46000 3.033
80.48000 5.489
80.50000 7.057
80.52000 6.824
80.54000 4.784
80.56000 6.851
80.58000 10.415
80.60000 3.331
80.62000 8.592
80.64000 -0.421
80.66000 2.484
80.68000 5.970
80.70000 0.858
80.72000 -1.496
80.74000 4.531
80.76000 7.459
80.78000 3.852
80.80000 3.843
80.82000 6.448
80.84000 2.205
80.86000 2.702
80.88000 -2.577
80.90000 -2.579
80.92000 0.505
80.94000 3.787
80.96000 -0.538
80.98000 -0.912
81.00000 2.684
81.02000 8.026
81.04000 5.519
81.06000 4.991
81.08000 7.791
81.10000 8.145
81.12000 2.109
81.14000 5.039
81.16000 5.595
81.18000 6.820
81.20000 11.021
81.22000 10.270
81.24000 8.073
81.26000 2.013
81.28000 4.299
81.30000 1.356
81.32000 11.066
81.34000 13.767
81.36000 8.122
81.38000 9.353
81.40000 13.966
81.42000 8.650
81.44000 6.168
81.46000 4.203
81.48000 7.020
81.50000 8.277
81.52000 12.470
81.54000 8.055
81.56000 7.024
81.58000 4.602
81.60000 3.616
81.62000 6.913
81.64000 16.061
81.66000 9.991
81.68000 6.527
81.70000 7.854
81.72000 7.532
81.74000 12.738
81.76000 12.630
81.78000 13.210
81.80000 12.911
81.82000 9.192
81.84000 11.885
81.86000 6.912
81.88000 11.983
81.90000 13.580
81.92000 14.628
81.94000 13.002
81.96000 12.903
81.98000 10.407
82.00000 13.837
82.02000 18.187
82.04000 15.160
82.06000 16.263
82.08000 19.262
82.10000 16.558
82.12000 13.869
82.14000 14.279
82.16000 15.461
82.18000 19.847
82.20000 20.712
82.22000 16.890
82.24000 15.060
82.26000 14.241
82.28000 17.010
82.30000 21.641
82.32000 18.574
82.34000 13.478
82.36000 20.722
82.38000 19.476
82.40000 15.265
82.42000 17.536
82.44000 13.538
82.46000 15.712
82.48000 15.519
82.50000 18.323
82.52000 18.960
82.54000 17.131
82.56000 20.578
82.58000 27.043
82.60000 23.267
82.62000 19.349
82.64000 17.577
82.66000 24.310
82.68000 23.404
82.70000 25.220
82.72000 26.560
82.74000 25.046
82.76000 22.996
82.78000 25.311
82.80000 28.208
82.82000 27.663
82.84000 26.607
82.86000 23.431
82.88000 26.314
82.90000 23.061
82.92000 19.926
82.94000 20.133
82.96000 24.800
82.98000 27.149
83.00000 28.574
83.02000 26.294
83.04000 24.415
83.06000 18.722
83.08000 22.148
83.10000 27.868
83.12000 23.681
83.14000 20.789
83.16000 19.711
83.18000 18.351
83.20000 26.204
83.22000 21.807
83.24000 19.040
83.26000 16.910
83.28000 23.325
83.30000 19.903
83.32000 20.117
83.34000 15.226
83.36000 23.132
83.38000 21.950
83.40000 16.263
83.42000 14.630
83.44000 16.663
83.46000 20.050
83.48000 17.734
83.50000 16.557
83.52000 20.693
83.54000 15.536
83.56000 15.092
83.58000 20.201
83.60000 15.421
83.62000 11.826
83.64000 13.329
83.66000 15.962
83.68000 22.413
83.70000 19.916
83.72000 16.021
83.74000 15.767
83.76000 13.858
83.78000 11.484
83.80000 9.496
83.82000 9.746
83.84000 9.088
83.86000 8.584
83.88000 12.434
83.90000 8.919
83.92000 8.747
83.94000 12.921
83.96000 11.927
83.98000 14.156
84.00000 10.534
84.02000 7.547
84.04000 7.620
84.06000 5.721
84.08000 1.364
84.10000 4.869
84.12000 6.944
84.14000 6.577
84.16000 5.459
84.18000 9.188
84.20000 6.134
84.22000 6.634
84.24000 8.472
84.26000 8.965
84.28000 5.126
84.30000 4.023
84.32000 6.522
84.34000 10.387
84.36000 9.523
84.38000 5.129
84.40000 4.311
84.42000 6.554
84.44000 5.207
84.46000 0.910
84.48000 1.450
84.50000 2.422
84.52000 0.454
84.54000 -0.775
84.56000 -2.548
84.58000 4.071
84.60000 4.375
84.62000 6.383
84.64000 4.253
84.66000 1.895
84.68000 1.789
84.70000 -0.385
84.72000 3.033
84.74000 -1.027
84.76000 -2.528
84.78000 1.663
84.80000 7.660
84.82000 1.790
84.84000 -1.651
84.86000 -0.905
84.88000 -0.809
84.90000 1.911
84.92000 0.835
84.94000 4.606
84.96000 1.099
84.98000 4.236
85.00000 4.953
85.02000 3.463
85.04000 4.526
85.06000 10.229
85.08000 7.231
85.10000 5.219
85.12000 0.219
85.14000 3.832
85.16000 7.623
85.18000 4.958
85.20000 4.045
85.22000 6.927
85.24000 6.601
85.26000 3.551
85.28000 3.886
85.30000 4.998
85.32000 6.878
85.34000 3.457
85.36000 5.049
85.38000 7.098
85.40000 -0.819
85.42000 -2.455
85.44000 2.486
85.46000 0.962
85.48000 4.401
85.50000 6.880
85.52000 11.551
85.54000 7.071
85.56000 4.435
85.58000 -1.212
85.60000 -0.512
85.62000 2.202
85.64000 3.064
85.66000 3.801
85.68000 4.871
85.70000 5.850
85.72000 3.682
85.74000 7.332
85.76000 4.431
85.78000 3.870
85.80000 3.489
85.82000 4.102
85.84000 5.898
85.86000 1.671
85.88000 1.724
85.90000 6.755
85.92000 5.013
85.94000 5.640
85.96000 5.862
85.98000 1.805
86.00000 0.457
86.02000 3.179
86.04000 6.991
86.06000 5.371
86.08000 1.483
86.10000 4.143
86.12000 5.260
86.14000 4.698
86.16000 0.596
86.18000 2.369
86.20000 5.264
86.22000 9.543
86.24000 10.179
86.26000 9.101
86.28000 -0.537
86.30000 -1.334
86.32000 2.873
86.34000 5.736
86.36000 3.490
86.38000 5.702
86.40000 2.182
86.42000 9.321
86.44000 7.604
86.46000 3.103
86.48000 7.023
86.50000 8.192
86.52000 11.242
86.54000 7.884
86.56000 7.449
86.58000 9.403
86.60000 11.295
86.62000 11.570
86.64000 11.308
86.66000 7.830
86.68000 12.321
86.70000 19.759
86.72000 14.538
86.74000 9.627
86.76000 9.064
86.78000 10.053
86.80000 10.160
86.82000 12.175
86.84000 10.883
86.86000 10.731
86.88000 22.264
86.90000 21.285
86.92000 16.036
86.94000 12.756
86.96000 13.172
86.98000 17.626
87.00000 17.559
87.02000 20.185
87.04000 19.090
87.06000 15.166
87.08000 19.084
87.10000 20.555
87.12000 19.307
87.14000 15.947
87.16000 14.100
87.18000 16.307
87.20000 17.227
87.22000 13.261
87.24000 20.924
87.26000 19.031
87.28000 17.281
87.30000 19.746
87.32000 23.903
87.34000 18.951
87.36000 19.477
87.38000 20.972
87.40000 20.329
87.42000 23.238
87.44000 23.543
87.46000 21.814
87.48000 20.836
87.50000 20.705
87.52000 22.126
87.54000 18.894
87.56000 17.972
87.58000 18.493
87.60000 22.633
87.62000 16.526
87.64000 17.579
87.66000 17.536
87.68000 14.194
87.70000 16.075
87.72000 18.064
87.74000 20.097
87.76000 20.760
87.78000 14.797
87.80000 13.785
87.82000 11.203
87.84000 13.967
87.86000 12.963
87.88000 13.548
87.90000 15.573
87.92000 16.930
87.94000 16.368
87.96000 16.036
87.98000 12.698
88.00000 6.343
88.02000 8.641
88.04000 12.712
88.06000 13.214
88.08000 6.817
88.10000 4.193
88.12000 5.993
88.14000 8.253
88.16000 12.040
88.18000 16.519
88.20000 14.771
88.22000 9.499
88.24000 10.978
88.26000 13.993
88.28000 11.203
88.30000 10.023
88.32000 8.896
88.34000 4.240
88.36000 8.839
88.38000 14.048
88.40000 10.642
88.42000 11.187
88.44000 13.610
88.46000 9.961
88.48000 12.417
88.50000 9.042
88.52000 9.828
88.54000 4.939
88.56000 1.094
88.58000 5.119
88.60000 9.317
88.62000 5.908
88.64000 2.757
88.66000 5.546
88.68000 0.907
88.70000 3.912
88.72000 2.495
88.74000 4.471
88.76000 8.845
88.78000 6.151
88.80000 3.435
88.82000 3.300
88.84000 7.823
88.86000 10.104
88.88000 8.820
88.90000 5.498
88.92000 -2.354
88.94000 -2.352
88.96000 4.844
88.98000 6.333
89.00000 0.392
89.02000 1.399
89.04000 2.110
89.06000 3.700
89.08000 7.631
89.10000 1.412
89.12000 4.749
89.14000 3.196
89.16000 -2.231
89.18000 -0.888
89.20000 3.010
89.22000 2.836
89.24000 1.609
89.26000 0.985
89.28000 1.472
89.30000 4.935
89.32000 5.403
89.34000 2.129
89.36000 6.450
89.38000 3.291
89.40000 0.707
89.42000 4.818
89.44000 2.195
89.46000 5.363
89.48000 6.884
89.50000 8.928
89.52000 3.581
89.54000 -0.540
89.56000 4.770
89.58000 3.941
89.60000 7.731
89.62000 4.600
89.64000 1.027
89.66000 2.306
89.68000 2.035
89.70000 -2.309
89.72000 3.927
89.74000 0.189
89.76000 1.811
89.78000 4.517
89.80000 4.180
89.82000 0.942
89.84000 -1.013
89.86000 2.780
89.88000 3.922
89.90000 5.760
89.92000 6.404
89.94000 0.917
89.96000 0.877
89.98000 4.017
90.00000 5.051
90.02000 5.266
90.04000 4.243
90.06000 1.612
90.08000 0.290
90.10000 4.492
90.12000 1.008
90.14000 1.742
90.16000 -2.295
90.18000 4.328
90.20000 2.792
90.22000 0.621
90.24000 2.544
90.26000 -0.052
90.28000 1.413
90.30000 5.098
90.32000 2.228
90.34000 -0.336
90.36000 2.447
90.38000 6.071
90.40000 8.017
90.42000 11.502
90.44000 3.079
90.46000 -2.286
90.48000 1.397
90.50000 2.937
90.52000 -0.042
90.54000 1.863
90.56000 0.592
90.58000 1.580
90.60000 5.813
90.62000 4.734
90.64000 0.531
90.66000 4.968
90.68000 3.120
90.70000 2.107
90.72000 3.871
90.74000 7.202
90.76000 7.051
90.78000 6.385
90.80000 3.424
90.82000 2.638
90.84000 7.007
90.86000 7.171
90.88000 4.040
90.90000 -2.261
90.92000 -1.060
90.94000 1.548
90.96000 7.058
90.98000 12.347
91.00000 10.645
91.02000 6.379
91.04000 2.582
91.06000 3.857
91.08000 0.917
91.10000 3.431
91.12000 2.227
91.14000 6.958
91.16000 5.877
91.18000 6.440
91.20000 2.881
91.22000 0.184
91.24000 -1.485
91.26000 3.116
91.28000 4.085
91.30000 15.358
91.32000 10.316
91.34000 3.527
91.36000 2.727
91.38000 1.667
91.40000 -0.115
91.42000 1.509
91.44000 0.258
91.46000 -0.249
91.48000 1.266
91.50000 1.861
91.52000 3.327
91.54000 2.417
91.56000 5.031
91.58000 2.570
91.60000 -0.806
91.62000 -0.369
91.64000 7.390
91.66000 4.446
91.68000 0.886
91.70000 1.119
91.72000 -2.290
91.74000 2.394
91.76000 3.673
91.78000 5.977
91.80000 3.974
91.82000 1.863
91.84000 0.841
91.86000 -2.292
91.88000 0.591
91.90000 1.930
91.92000 2.207
91.94000 0.629
91.96000 2.147
91.98000 -0.345
92.00000 -1.908
92.02000 -1.289
92.04000 1.637
92.06000 5.676
92.08000 1.387
92.10000 4.473
92.12000 0.978
92.14000 1.257
92.16000 4.427
92.18000 1.909
92.20000 5.933
92.22000 3.779
92.24000 2.484
92.26000 4.451
92.28000 -1.120
92.30000 4.436
92.32000 5.758
92.34000 3.343
92.36000 -0.898
92.38000 4.689
92.40000 9.239
92.42000 6.841
92.44000 1.907
92.46000 5.912
92.48000 8.893
92.50000 4.747
92.52000 3.284
92.54000 0.382
92.56000 -1.668
92.58000 -2.297
92.60000 3.736
92.62000 5.899
92.64000 1.346
92.66000 3.343
92.68000 5.817
92.70000 4.147
92.72000 3.839
92.74000 3.462
92.76000 0.066
92.78000 4.175
92.80000 2.433
92.82000 -1.679
92.84000 0.703
92.86000 4.983
92.88000 4.784
92.90000 1.159
92.92000 1.890
92.94000 0.534
92.96000 1.526
92.98000 8.715
93.00000 7.567
93.02000 9.535
93.04000 6.905
93.06000 3.750
93.08000 3.803
93.10000 6.480
93.12000 7.323
93.14000 6.157
93.16000 3.059
93.18000 1.013
93.20000 5.840
93.22000 6.082
93.24000 3.219
93.26000 2.938
93.28000 4.665
93.30000 4.756
93.32000 9.603
93.34000 8.955
93.36000 4.605
93.38000 1.470
93.40000 -2.270
93.42000 1.616
93.44000 -0.308
93.46000 4.543
93.48000 3.747
93.50000 4.704
93.52000 6.796
93.54000 3.455
93.56000 2.863
93.58000 7.029
93.60000 4.884
93.62000 4.820
93.64000 4.285
93.66000 3.140
93.68000 3.920
93.70000 2.948
93.72000 1.463
93.74000 0.251
93.76000 3.814
93.78000 4.393
93.80000 5.192
93.82000 5.839
93.84000 7.650
93.86000 5.684
93.88000 8.950
93.90000 5.380
93.92000 5.046
93.94000 6.371
93.96000 5.690
93.98000 1.792
94.00000 1.374
94.02000 1.431
94.04000 -0.737
94.06000 -1.458
94.08000 5.401
94.10000 7.850
94.12000 7.933
94.14000 -2.281
94.16000 0.818
94.18000 2.371
94.20000 -1.028
94.22000 -2.021
94.24000 1.542
94.26000 2.799
94.28000 0.625
94.30000 0.299
94.32000 3.998
94.34000 4.384
94.36000 3.832
94.38000 3.005
94.40000 4.205
94.42000 9.527
94.44000 4.115
94.46000 2.223
94.48000 1.129
94.50000 2.949
94.52000 0.859
94.54000 3.034
94.56000 7.401
94.58000 4.996
94.60000 3.301
94.62000 2.613
94.64000 4.766
94.66000 4.127
94.68000 6.799
94.70000 5.806
94.72000 5.747
94.74000 1.777
94.76000 -2.278
94.78000 2.930
94.80000 0.623
94.82000 4.152
94.84000 9.567
94.86000 5.200
94.88000 6.046
94.90000 3.731
94.92000 5.205
94.94000 5.830
94.96000 5.728
94.98000 6.900
95.00000 4.589
95.02000 1.852
95.04000 5.449
95.06000 7.781
95.08000 4.850
95.10000 1.638
95.12000 6.672
95.14000 9.889
95.16000 5.323
95.18000 5.296
95.20000 2.314
95.22000 3.159
95.24000 4.345
95.26000 4.882
95.28000 5.288
95.30000 2.285
95.32000 -0.636
95.34000 1.637
95.36000 2.793
95.38000 5.489
95.40000 6.967
95.42000 3.823
95.44000 4.118
95.46000 4.910
95.48000 6.820
95.50000 2.889
95.52000 4.515
95.54000 6.076
95.56000 6.374
95.58000 2.973
95.60000 4.197
95.62000 6.766
95.64000 6.913
95.66000 6.446
95.68000 7.008
95.70000 9.278
95.72000 7.740
95.74000 4.188
95.76000 2.093
95.78000 4.183
95.80000 -0.776
95.82000 -2.279
95.84000 2.156
95.86000 9.369
95.88000 9.662
95.90000 10.684
95.92000 11.438
95.94000 6.805
95.96000 5.592
95.98000 4.095
96.00000 0.665
96.02000 3.727
96.04000 2.781
96.06000 2.221
96.08000 3.299
96.10000 3.843
96.12000 8.386
96.14000 5.944
96.16000 5.935
96.18000 1.262
96.20000 1.765
96.22000 3.010
96.24000 4.939
96.26000 7.165
96.28000 6.804
96.30000 4.213
96.32000 4.657
96.34000 6.014
96.36000 4.926
96.38000 1.367
96.40000 3.016
96.42000 12.803
96.44000 14.398
96.46000 7.600
96.48000 5.607
96.50000 5.955
96.52000 5.863
96.54000 5.540
96.56000 3.774
96.58000 2.964
96.60000 7.658
96.62000 15.132
96.64000 6.293
96.66000 1.111
96.68000 1.010
96.70000 2.474
96.72000 3.859
96.74000 5.300
96.76000 8.332
96.78000 8.745
96.80000 4.945
96.82000 9.214
96.84000 8.530
96.86000 9.527
96.88000 9.598
96.90000 4.546
96.92000 4.802
96.94000 6.333
96.96000 9.499
96.98000 7.954
97.00000 0.977
97.02000 2.411
97.04000 0.608
97.06000 -0.536
97.08000 -0.812
97.10000 4.569
97.12000 9.386
97.14000 9.289
97.16000 7.336
97.18000 9.446
97.20000 9.562
97.22000 6.862
97.24000 7.542
97.26000 4.509
97.28000 4.717
97.30000 -1.929
97.32000 2.961
97.34000 5.268
97.36000 10.319
97.38000 5.972
97.40000 8.507
97.42000 3.061
97.44000 -0.195
97.46000 1.437
97.48000 1.823
97.50000 2.588
97.52000 7.267
97.54000 15.013
97.56000 9.814
97.58000 5.336
97.60000 4.356
97.62000 5.140
97.64000 5.168
97.66000 10.665
97.68000 7.411
97.70000 8.242
97.72000 9.184
97.74000 11.110
97.76000 7.304
97.78000 1.074
97.80000 11.728
97.82000 8.251
97.84000 4.820
97.86000 6.499
97.88000 5.790
97.90000 -2.204
97.92000 0.605
97.94000 3.064
97.96000 6.634
97.98000 8.454
98.00000 11.115
98.02000 8.403
98.04000 9.304
98.06000 8.594
98.08000 3.163
98.10000 3.575
98.12000 2.497
98.14000 0.323
98.16000 8.453
98.18000 11.881
98.20000 13.703
98.22000 13.951
98.24000 11.737
98.26000 8.866
98.28000 18.765
98.30000 16.961
98.32000 11.407
98.34000 9.981
98.36000 10.207
98.38000 17.262
98.40000 7.731
98.42000 4.294
98.44000 2.854
98.46000 6.117
98.48000 14.426
98.50000 14.304
98.52000 9.102
98.54000 -2.555
98.56000 5.156
98.58000 5.427
98.60000 5.356
98.62000 7.382
98.64000 8.792
98.66000 6.866
98.68000 8.774
98.70000 19.139
98.72000 8.602
98.74000 4.195
98.76000 13.060
98.78000 11.066
98.80000 11.206
98.82000 6.260
98.84000 7.358
98.86000 -2.154
98.88000 1.101
98.90000 8.915
98.92000 7.388
98.94000 9.774
98.96000 6.780
98.98000 8.101
99.00000 7.749
99.02000 6.183
99.04000 15.645
99.06000 21.191
99.08000 6.647
99.10000 14.332
99.12000 8.363
99.14000 2.900
99.16000 3.224
99.18000 -2.159
99.20000 4.456
99.22000 5.848
99.24000 8.339
99.26000 12.775
99.28000 13.733
99.30000 15.443
99.32000 12.032
99.34000 14.922
99.36000 14.012
99.38000 7.813
99.40000 16.242
99.42000 11.897
99.44000 0.341
99.46000 2.643
99.48000 6.095
99.50000 13.153
99.52000 14.743
99.54000 12.123
99.56000 20.153
99.58000 21.579
99.60000 14.563
99.62000 10.703
99.64000 8.447
99.66000 6.214
99.68000 6.511
99.70000 5.276
99.72000 7.770
99.74000 4.223
99.76000 1.658
99.78000 2.461
99.80000 -2.255
99.82000 2.246
99.84000 11.961
99.86000 11.276
99.88000 5.962
99.90000 18.035
99.92000 14.519
99.94000 12.694
99.96000 7.259
99.98000 0.000
