'Id: "0011387" Comment: "Integrate frame 0011387_Au-Ir-Rh_Rh-rich_XRD-Mapping-073-0000.gfrmwith cursor Wedge Cursor #5" Operator: "B?rgel" Anode: "Cu" Wavelength: "1.5406" Scantype: "2Theta (TwoTheta)" TimePerStep: "1" X: "36" Y: "-22.5" Z: "5.95" 
10.00000 0.000
10.02000 0.579
10.04000 4.294
10.06000 -5.474
10.08000 10.158
10.10000 7.331
10.12000 3.016
10.14000 13.632
10.16000 12.378
10.18000 4.673
10.20000 2.646
10.22000 14.383
10.24000 -0.216
10.26000 3.957
10.28000 14.638
10.30000 6.843
10.32000 3.822
10.34000 -3.439
10.36000 2.465
10.38000 8.492
10.40000 3.250
10.42000 14.465
10.44000 21.205
10.46000 15.574
10.48000 16.486
10.50000 10.139
10.52000 9.554
10.54000 12.967
10.56000 14.237
10.58000 18.556
10.60000 22.038
10.62000 24.246
10.64000 11.239
10.66000 11.559
10.68000 5.507
10.70000 7.359
10.72000 10.213
10.74000 19.015
10.76000 30.609
10.78000 19.497
10.80000 27.082
10.82000 19.493
10.84000 13.446
10.86000 17.950
10.88000 41.161
10.90000 37.972
10.92000 39.999
10.94000 25.746
10.96000 17.095
10.98000 24.410
11.00000 20.995
11.02000 17.784
11.04000 21.043
11.06000 25.073
11.08000 35.294
11.10000 20.106
11.12000 17.230
11.14000 22.331
11.16000 24.185
11.18000 31.619
11.20000 31.590
11.22000 36.512
11.24000 37.756
11.26000 26.016
11.28000 10.277
11.30000 18.417
11.32000 23.908
11.34000 18.267
11.36000 19.470
11.38000 25.928
11.40000 20.219
11.42000 28.225
11.44000 33.228
11.46000 26.042
11.48000 26.118
11.50000 22.282
11.52000 18.833
11.54000 22.643
11.56000 29.441
11.58000 36.135
11.60000 33.772
11.62000 32.752
11.64000 32.555
11.66000 25.063
11.68000 30.288
11.70000 33.006
11.72000 25.100
11.74000 21.766
11.76000 23.304
11.78000 31.994
11.80000 28.614
11.82000 20.168
11.84000 28.524
11.86000 24.695
11.88000 28.291
11.90000 36.195
11.92000 33.257
11.94000 28.166
11.96000 32.875
11.98000 31.674
12.00000 29.352
12.02000 22.209
12.04000 26.457
12.06000 26.090
12.08000 20.798
12.10000 30.164
12.12000 29.801
12.14000 30.329
12.16000 29.511
12.18000 34.532
12.20000 33.906
12.22000 28.568
12.24000 29.948
12.26000 28.226
12.28000 24.502
12.30000 32.696
12.32000 34.763
12.34000 24.697
12.36000 22.026
12.38000 32.845
12.40000 35.828
12.42000 43.638
12.44000 37.475
12.46000 33.371
12.48000 31.776
12.50000 33.598
12.52000 30.890
12.54000 25.218
12.56000 25.795
12.58000 27.599
12.60000 21.936
12.62000 32.302
12.64000 28.238
12.66000 25.710
12.68000 30.974
12.70000 34.413
12.72000 29.326
12.74000 30.360
12.76000 34.513
12.78000 30.054
12.80000 30.267
12.82000 31.825
12.84000 34.721
12.86000 39.616
12.88000 35.569
12.90000 30.977
12.92000 35.574
12.94000 32.528
12.96000 36.814
12.98000 39.265
13.00000 41.167
13.02000 40.620
13.04000 41.907
13.06000 34.020
13.08000 31.601
13.10000 32.510
13.12000 37.255
13.14000 48.634
13.16000 48.650
13.18000 43.689
13.20000 33.783
13.22000 26.602
13.24000 29.456
13.26000 30.537
13.28000 32.892
13.30000 40.525
13.32000 35.512
13.34000 36.037
13.36000 31.250
13.38000 34.521
13.40000 32.007
13.42000 28.870
13.44000 30.599
13.46000 31.766
13.48000 33.967
13.50000 31.168
13.52000 28.518
13.54000 37.467
13.56000 31.910
13.58000 38.454
13.60000 35.982
13.62000 33.858
13.64000 31.028
13.66000 28.299
13.68000 29.493
13.70000 31.918
13.72000 28.974
13.74000 31.324
13.76000 31.327
13.78000 37.501
13.80000 22.825
13.82000 23.295
13.84000 25.468
13.86000 30.441
13.88000 24.030
13.90000 28.158
13.92000 30.768
13.94000 29.913
13.96000 29.305
13.98000 22.537
14.00000 23.360
14.02000 29.501
14.04000 27.878
14.06000 29.494
14.08000 26.015
14.10000 27.642
14.12000 23.058
14.14000 21.499
14.16000 15.292
14.18000 19.080
14.20000 30.106
14.22000 18.548
14.24000 24.960
14.26000 33.933
14.28000 27.436
14.30000 24.876
14.32000 27.349
14.34000 26.113
14.36000 23.922
14.38000 20.299
14.40000 17.511
14.42000 15.543
14.44000 15.427
14.46000 25.033
14.48000 29.934
14.50000 32.216
14.52000 29.731
14.54000 31.029
14.56000 34.536
14.58000 12.934
14.60000 15.801
14.62000 11.531
14.64000 1.904
14.66000 20.259
14.68000 25.627
14.70000 22.531
14.72000 10.789
14.74000 17.378
14.76000 13.647
14.78000 9.747
14.80000 19.463
14.82000 23.907
14.84000 23.254
14.86000 13.485
14.88000 11.070
14.90000 9.065
14.92000 18.546
14.94000 17.020
14.96000 18.797
14.98000 17.120
15.00000 23.180
15.02000 24.480
15.04000 22.179
15.06000 24.730
15.08000 15.116
15.10000 15.335
15.12000 16.651
15.14000 24.773
15.16000 21.344
15.18000 16.613
15.20000 16.654
15.22000 19.348
15.24000 18.700
15.26000 19.198
15.28000 22.037
15.30000 17.668
15.32000 18.903
15.34000 17.772
15.36000 16.437
15.38000 21.461
15.40000 20.866
15.42000 7.783
15.44000 14.390
15.46000 17.697
15.48000 19.140
15.50000 17.407
15.52000 20.774
15.54000 17.397
15.56000 17.094
15.58000 16.306
15.60000 11.888
15.62000 12.553
15.64000 8.744
15.66000 4.974
15.68000 18.054
15.70000 18.167
15.72000 16.077
15.74000 16.185
15.76000 14.392
15.78000 13.405
15.80000 19.874
15.82000 9.842
15.84000 10.928
15.86000 10.982
15.88000 16.190
15.90000 14.494
15.92000 6.559
15.94000 7.214
15.96000 13.408
15.98000 16.184
16.00000 2.804
16.02000 11.405
16.04000 15.182
16.06000 6.562
16.08000 9.910
16.10000 23.812
16.12000 26.222
16.14000 20.943
16.16000 9.653
16.18000 9.003
16.20000 11.299
16.22000 10.831
16.24000 22.710
16.26000 18.427
16.28000 9.231
16.30000 7.806
16.32000 13.633
16.34000 4.970
16.36000 5.648
16.38000 8.634
16.40000 4.371
16.42000 5.930
16.44000 16.818
16.46000 15.402
16.48000 8.895
16.50000 16.808
16.52000 6.909
16.54000 -0.218
16.56000 -3.387
16.58000 4.742
16.60000 9.028
16.62000 6.689
16.64000 7.478
16.66000 7.824
16.68000 4.643
16.70000 1.842
16.72000 0.407
16.74000 -1.168
16.76000 -0.129
16.78000 3.383
16.80000 -0.268
16.82000 1.591
16.84000 11.524
16.86000 6.137
16.88000 5.387
16.90000 5.228
16.92000 -1.916
16.94000 -2.744
16.96000 -1.945
16.98000 -0.765
17.00000 4.005
17.02000 8.636
17.04000 6.812
17.06000 9.393
17.08000 11.848
17.10000 12.553
17.12000 12.987
17.14000 11.579
17.16000 8.474
17.18000 16.071
17.20000 12.304
17.22000 6.120
17.24000 10.123
17.26000 10.149
17.28000 7.137
17.30000 14.601
17.32000 13.041
17.34000 12.023
17.36000 13.194
17.38000 6.652
17.40000 3.791
17.42000 4.450
17.44000 2.309
17.46000 2.898
17.48000 4.830
17.50000 5.326
17.52000 8.692
17.54000 7.979
17.56000 15.704
17.58000 15.126
17.60000 6.955
17.62000 5.776
17.64000 4.480
17.66000 9.159
17.68000 8.957
17.70000 13.113
17.72000 10.914
17.74000 5.849
17.76000 2.736
17.78000 4.883
17.80000 11.569
17.82000 6.352
17.84000 5.087
17.86000 -0.732
17.88000 2.389
17.90000 10.491
17.92000 14.605
17.94000 13.498
17.96000 3.379
17.98000 -0.211
18.00000 1.471
18.02000 1.078
18.04000 5.151
18.06000 2.784
18.08000 -2.864
18.10000 0.631
18.12000 0.928
18.14000 8.429
18.16000 9.102
18.18000 9.806
18.20000 6.885
18.22000 4.012
18.24000 5.693
18.26000 3.375
18.28000 5.771
18.30000 4.750
18.32000 2.270
18.34000 4.915
18.36000 5.321
18.38000 1.980
18.40000 -4.304
18.42000 0.393
18.44000 4.150
18.46000 2.535
18.48000 7.345
18.50000 5.579
18.52000 10.715
18.54000 11.399
18.56000 1.434
18.58000 3.404
18.60000 7.696
18.62000 3.101
18.64000 1.036
18.66000 -1.113
18.68000 4.115
18.70000 -3.056
18.72000 -1.568
18.74000 -2.818
18.76000 1.647
18.78000 2.350
18.80000 0.575
18.82000 -0.658
18.84000 -3.670
18.86000 0.069
18.88000 2.876
18.90000 5.985
18.92000 -0.519
18.94000 -2.476
18.96000 2.110
18.98000 -4.243
19.00000 -3.756
19.02000 4.692
19.04000 8.012
19.06000 -0.819
19.08000 3.250
19.10000 -0.595
19.12000 4.892
19.14000 10.502
19.16000 13.520
19.18000 10.319
19.20000 2.676
19.22000 4.961
19.24000 9.687
19.26000 3.230
19.28000 10.110
19.30000 6.732
19.32000 0.085
19.34000 -0.302
19.36000 3.349
19.38000 9.768
19.40000 6.107
19.42000 1.635
19.44000 -4.260
19.46000 1.013
19.48000 0.733
19.50000 2.520
19.52000 6.721
19.54000 7.183
19.56000 3.824
19.58000 3.974
19.60000 1.269
19.62000 0.637
19.64000 1.619
19.66000 3.111
19.68000 3.754
19.70000 5.953
19.72000 6.565
19.74000 3.954
19.76000 4.490
19.78000 2.892
19.80000 -1.751
19.82000 -3.711
19.84000 -2.956
19.86000 -3.875
19.88000 0.726
19.90000 1.008
19.92000 2.008
19.94000 2.766
19.96000 2.391
19.98000 4.397
20.00000 4.194
20.02000 0.035
20.04000 6.641
20.06000 4.286
20.08000 -2.947
20.10000 -0.850
20.12000 -2.118
20.14000 3.806
20.16000 4.509
20.18000 8.111
20.20000 5.751
20.22000 5.230
20.24000 3.760
20.26000 4.535
20.28000 6.365
20.30000 3.584
20.32000 5.673
20.34000 2.847
20.36000 -3.380
20.38000 -4.207
20.40000 0.958
20.42000 0.061
20.44000 0.918
20.46000 0.195
20.48000 2.576
20.50000 6.775
20.52000 10.603
20.54000 6.962
20.56000 -0.993
20.58000 1.429
20.60000 11.586
20.62000 7.757
20.64000 7.192
20.66000 10.741
20.68000 13.494
20.70000 9.576
20.72000 4.696
20.74000 5.964
20.76000 9.314
20.78000 2.614
20.80000 0.473
20.82000 4.192
20.84000 -4.178
20.86000 0.223
20.88000 6.539
20.90000 4.682
20.92000 4.233
20.94000 4.800
20.96000 1.630
20.98000 2.314
21.00000 -0.976
21.02000 1.389
21.04000 -1.489
21.06000 1.181
21.08000 2.386
21.10000 -2.050
21.12000 4.099
21.14000 4.682
21.16000 4.457
21.18000 7.766
21.20000 6.022
21.22000 2.016
21.24000 6.654
21.26000 -1.758
21.28000 -2.786
21.30000 -2.128
21.32000 3.610
21.34000 3.679
21.36000 4.167
21.38000 0.486
21.40000 -2.552
21.42000 -3.775
21.44000 1.726
21.46000 -0.379
21.48000 1.548
21.50000 4.913
21.52000 3.271
21.54000 1.754
21.56000 0.173
21.58000 2.693
21.60000 9.155
21.62000 8.627
21.64000 5.934
21.66000 2.511
21.68000 5.535
21.70000 1.802
21.72000 2.003
21.74000 -0.014
21.76000 2.200
21.78000 2.474
21.80000 -0.102
21.82000 1.634
21.84000 -3.263
21.86000 -4.132
21.88000 1.252
21.90000 5.087
21.92000 2.846
21.94000 5.986
21.96000 3.871
21.98000 7.765
22.00000 1.654
22.02000 -3.371
22.04000 1.156
22.06000 5.698
22.08000 6.597
22.10000 3.778
22.12000 3.557
22.14000 -3.776
22.16000 -4.116
22.18000 -1.296
22.20000 3.473
22.22000 -0.105
22.24000 -0.346
22.26000 -0.890
22.28000 3.264
22.30000 4.382
22.32000 5.700
22.34000 -1.160
22.36000 -1.262
22.38000 -2.334
22.40000 -0.320
22.42000 0.266
22.44000 -1.421
22.46000 1.281
22.48000 2.066
22.50000 0.385
22.52000 -1.100
22.54000 -2.760
22.56000 1.349
22.58000 -0.189
22.60000 -1.978
22.62000 -3.556
22.64000 0.224
22.66000 -2.158
22.68000 1.835
22.70000 8.364
22.72000 9.851
22.74000 3.711
22.76000 0.626
22.78000 -1.898
22.80000 -1.986
22.82000 -0.376
22.84000 -3.916
22.86000 7.735
22.88000 9.275
22.90000 2.190
22.92000 1.606
22.94000 -1.575
22.96000 2.027
22.98000 0.401
23.00000 -2.122
23.02000 2.603
23.04000 -0.701
23.06000 -0.815
23.08000 1.410
23.10000 1.391
23.12000 1.430
23.14000 -1.553
23.16000 3.798
23.18000 6.783
23.20000 4.502
23.22000 2.373
23.24000 7.353
23.26000 4.391
23.28000 2.155
23.30000 -1.292
23.32000 0.781
23.34000 -0.023
23.36000 2.028
23.38000 5.218
23.40000 6.744
23.42000 3.986
23.44000 1.524
23.46000 2.735
23.48000 -2.170
23.50000 -4.031
23.52000 -0.837
23.54000 2.804
23.56000 2.854
23.58000 5.438
23.60000 8.782
23.62000 4.013
23.64000 7.092
23.66000 5.806
23.68000 5.444
23.70000 2.280
23.72000 1.677
23.74000 0.851
23.76000 1.256
23.78000 2.227
23.80000 -0.471
23.82000 0.632
23.84000 3.426
23.86000 4.536
23.88000 9.716
23.90000 4.572
23.92000 1.182
23.94000 4.149
23.96000 5.358
23.98000 3.700
24.00000 2.422
24.02000 6.969
24.04000 4.830
24.06000 2.685
24.08000 8.765
24.10000 1.436
24.12000 -2.565
24.14000 -3.966
24.16000 0.427
24.18000 1.132
24.20000 6.013
24.22000 0.929
24.24000 0.131
24.26000 1.982
24.28000 -1.273
24.30000 0.243
24.32000 1.959
24.34000 6.685
24.36000 10.928
24.38000 5.750
24.40000 2.858
24.42000 3.702
24.44000 2.388
24.46000 6.588
24.48000 6.772
24.50000 5.257
24.52000 0.117
24.54000 -3.383
24.56000 -3.656
24.58000 3.799
24.60000 0.745
24.62000 0.958
24.64000 1.909
24.66000 3.135
24.68000 -2.637
24.70000 -2.097
24.72000 3.831
24.74000 1.361
24.76000 1.928
24.78000 5.789
24.80000 3.149
24.82000 1.800
24.84000 1.726
24.86000 4.594
24.88000 3.655
24.90000 9.411
24.92000 5.974
24.94000 4.517
24.96000 -0.220
24.98000 2.316
25.00000 8.874
25.02000 5.887
25.04000 5.395
25.06000 4.156
25.08000 4.281
25.10000 7.037
25.12000 7.895
25.14000 6.486
25.16000 1.495
25.18000 6.158
25.20000 9.950
25.22000 13.142
25.24000 11.452
25.26000 6.736
25.28000 11.546
25.30000 6.504
25.32000 3.251
25.34000 3.684
25.36000 -3.890
25.38000 -2.833
25.40000 6.785
25.42000 7.027
25.44000 5.353
25.46000 4.673
25.48000 7.373
25.50000 2.238
25.52000 -2.718
25.54000 -1.583
25.56000 4.510
25.58000 4.902
25.60000 1.987
25.62000 4.067
25.64000 3.877
25.66000 -1.441
25.68000 -0.643
25.70000 0.364
25.72000 1.694
25.74000 1.339
25.76000 2.156
25.78000 -0.576
25.80000 -2.107
25.82000 -1.505
25.84000 -0.399
25.86000 6.388
25.88000 5.752
25.90000 -1.149
25.92000 -0.137
25.94000 4.940
25.96000 0.872
25.98000 2.710
26.00000 3.254
26.02000 1.598
26.04000 4.161
26.06000 9.011
26.08000 3.739
26.10000 -3.617
26.12000 -0.567
26.14000 3.766
26.16000 5.615
26.18000 3.059
26.20000 8.071
26.22000 7.552
26.24000 5.026
26.26000 5.109
26.28000 -0.166
26.30000 3.323
26.32000 5.380
26.34000 1.419
26.36000 0.605
26.38000 2.407
26.40000 9.549
26.42000 7.186
26.44000 2.392
26.46000 -0.545
26.48000 -2.673
26.50000 4.425
26.52000 9.241
26.54000 7.043
26.56000 -1.148
26.58000 1.221
26.60000 3.753
26.62000 3.056
26.64000 3.848
26.66000 6.950
26.68000 6.820
26.70000 6.065
26.72000 1.135
26.74000 1.438
26.76000 0.308
26.78000 4.380
26.80000 7.733
26.82000 7.760
26.84000 3.012
26.86000 -1.439
26.88000 -2.389
26.90000 1.152
26.92000 4.377
26.94000 0.375
26.96000 2.639
26.98000 6.105
27.00000 8.527
27.02000 9.952
27.04000 7.984
27.06000 11.933
27.08000 9.718
27.10000 8.545
27.12000 7.584
27.14000 1.560
27.16000 -0.131
27.18000 1.949
27.20000 3.406
27.22000 -0.008
27.24000 -2.594
27.26000 3.647
27.28000 4.867
27.30000 3.589
27.32000 -3.795
27.34000 1.577
27.36000 3.723
27.38000 4.975
27.40000 1.395
27.42000 0.628
27.44000 4.059
27.46000 6.371
27.48000 8.205
27.50000 10.570
27.52000 6.123
27.54000 1.627
27.56000 -1.866
27.58000 3.288
27.60000 5.442
27.62000 4.073
27.64000 0.950
27.66000 -0.570
27.68000 2.223
27.70000 4.081
27.72000 4.014
27.74000 2.171
27.76000 4.118
27.78000 1.455
27.80000 -0.909
27.82000 1.225
27.84000 7.686
27.86000 7.361
27.88000 5.449
27.90000 2.841
27.92000 4.362
27.94000 6.141
27.96000 2.788
27.98000 4.737
28.00000 5.578
28.02000 3.442
28.04000 1.479
28.06000 -2.799
28.08000 0.880
28.10000 -3.439
28.12000 2.813
28.14000 3.741
28.16000 2.694
28.18000 3.267
28.20000 -1.800
28.22000 -0.805
28.24000 0.853
28.26000 -0.025
28.28000 1.283
28.30000 3.915
28.32000 2.654
28.34000 3.121
28.36000 3.359
28.38000 4.728
28.40000 4.775
28.42000 5.927
28.44000 8.112
28.46000 6.868
28.48000 6.388
28.50000 3.436
28.52000 0.920
28.54000 2.364
28.56000 5.296
28.58000 7.591
28.60000 2.078
28.62000 0.888
28.64000 4.929
28.66000 7.671
28.68000 4.047
28.70000 3.185
28.72000 1.967
28.74000 2.866
28.76000 4.637
28.78000 4.962
28.80000 5.624
28.82000 6.772
28.84000 3.823
28.86000 2.999
28.88000 6.750
28.90000 2.983
28.92000 -3.708
28.94000 1.689
28.96000 3.206
28.98000 0.138
29.00000 5.689
29.02000 4.037
29.04000 3.236
29.06000 1.427
29.08000 -2.346
29.10000 2.991
29.12000 4.631
29.14000 5.148
29.16000 2.845
29.18000 -0.451
29.20000 2.015
29.22000 1.591
29.24000 3.426
29.26000 4.224
29.28000 1.393
29.30000 2.467
29.32000 7.489
29.34000 -0.403
29.36000 6.343
29.38000 4.327
29.40000 -0.914
29.42000 5.323
29.44000 -0.268
29.46000 7.232
29.48000 3.363
29.50000 1.041
29.52000 -2.285
29.54000 5.644
29.56000 11.738
29.58000 4.406
29.60000 2.638
29.62000 -0.718
29.64000 -0.603
29.66000 3.450
29.68000 3.443
29.70000 4.103
29.72000 2.022
29.74000 3.457
29.76000 4.253
29.78000 0.445
29.80000 4.080
29.82000 -0.783
29.84000 -3.134
29.86000 -0.435
29.88000 1.769
29.90000 4.933
29.92000 7.786
29.94000 5.681
29.96000 5.417
29.98000 1.331
30.00000 0.041
30.02000 -0.763
30.04000 3.436
30.06000 2.783
30.08000 1.469
30.10000 5.924
30.12000 2.438
30.14000 1.709
30.16000 5.125
30.18000 8.407
30.20000 1.781
30.22000 -1.293
30.24000 -0.665
30.26000 -1.047
30.28000 1.987
30.30000 -0.032
30.32000 -1.532
30.34000 2.405
30.36000 6.379
30.38000 3.966
30.40000 1.098
30.42000 -1.204
30.44000 -0.026
30.46000 3.572
30.48000 0.352
30.50000 0.360
30.52000 1.499
30.54000 5.602
30.56000 2.990
30.58000 -0.272
30.60000 0.817
30.62000 2.662
30.64000 4.769
30.66000 4.473
30.68000 2.118
30.70000 5.792
30.72000 11.475
30.74000 10.233
30.76000 6.184
30.78000 2.967
30.80000 2.150
30.82000 -2.393
30.84000 -3.624
30.86000 2.780
30.88000 4.825
30.90000 3.953
30.92000 1.669
30.94000 -0.699
30.96000 2.370
30.98000 6.378
31.00000 4.729
31.02000 3.436
31.04000 -1.233
31.06000 1.954
31.08000 4.889
31.10000 5.419
31.12000 3.971
31.14000 2.235
31.16000 4.768
31.18000 0.317
31.20000 1.998
31.22000 3.303
31.24000 1.872
31.26000 2.432
31.28000 2.871
31.30000 -0.414
31.32000 2.337
31.34000 4.468
31.36000 2.378
31.38000 -0.626
31.40000 0.435
31.42000 0.452
31.44000 2.971
31.46000 5.492
31.48000 0.558
31.50000 1.891
31.52000 4.587
31.54000 1.453
31.56000 2.366
31.58000 1.742
31.60000 3.999
31.62000 4.612
31.64000 -2.640
31.66000 -0.766
31.68000 4.083
31.70000 3.311
31.72000 3.699
31.74000 -0.585
31.76000 1.745
31.78000 5.977
31.80000 3.734
31.82000 -1.451
31.84000 0.850
31.86000 0.861
31.88000 3.916
31.90000 5.145
31.92000 5.864
31.94000 6.943
31.96000 1.653
31.98000 5.264
32.00000 5.779
32.02000 4.095
32.04000 -2.527
32.06000 -0.658
32.08000 1.940
32.10000 -1.890
32.12000 -2.707
32.14000 0.573
32.16000 4.562
32.18000 6.994
32.20000 5.473
32.22000 2.047
32.24000 0.878
32.26000 3.628
32.28000 0.642
32.30000 2.940
32.32000 2.048
32.34000 -0.364
32.36000 2.611
32.38000 7.416
32.40000 4.350
32.42000 5.750
32.44000 5.274
32.46000 -1.364
32.48000 3.308
32.50000 6.053
32.52000 6.772
32.54000 4.162
32.56000 4.468
32.58000 4.811
32.60000 5.257
32.62000 0.094
32.64000 -3.509
32.66000 -0.555
32.68000 2.427
32.70000 4.081
32.72000 3.199
32.74000 4.773
32.76000 6.552
32.78000 12.785
32.80000 6.017
32.82000 5.532
32.84000 3.530
32.86000 4.976
32.88000 6.736
32.90000 2.465
32.92000 -0.950
32.94000 4.672
32.96000 6.737
32.98000 5.385
33.00000 6.520
33.02000 5.792
33.04000 10.189
33.06000 11.898
33.08000 15.073
33.10000 5.438
33.12000 10.769
33.14000 12.531
33.16000 5.804
33.18000 -1.531
33.20000 0.580
33.22000 1.278
33.24000 2.298
33.26000 4.414
33.28000 2.857
33.30000 5.423
33.32000 7.381
33.34000 3.128
33.36000 4.434
33.38000 3.175
33.40000 4.018
33.42000 -2.187
33.44000 1.709
33.46000 3.494
33.48000 11.972
33.50000 8.599
33.52000 3.593
33.54000 3.512
33.56000 7.662
33.58000 8.565
33.60000 2.789
33.62000 0.818
33.64000 3.569
33.66000 4.932
33.68000 4.651
33.70000 2.958
33.72000 4.453
33.74000 6.256
33.76000 3.399
33.78000 7.891
33.80000 7.923
33.82000 4.525
33.84000 4.077
33.86000 7.996
33.88000 6.915
33.90000 3.604
33.92000 1.746
33.94000 6.885
33.96000 9.614
33.98000 10.073
34.00000 6.604
34.02000 8.097
34.04000 10.519
34.06000 7.076
34.08000 10.900
34.10000 10.627
34.12000 6.920
34.14000 3.407
34.16000 6.405
34.18000 9.294
34.20000 1.987
34.22000 6.708
34.24000 4.301
34.26000 5.581
34.28000 2.692
34.30000 4.285
34.32000 6.135
34.34000 3.648
34.36000 3.249
34.38000 0.678
34.40000 1.986
34.42000 2.279
34.44000 0.683
34.46000 4.934
34.48000 7.985
34.50000 5.968
34.52000 5.237
34.54000 6.225
34.56000 7.906
34.58000 4.037
34.60000 2.712
34.62000 9.300
34.64000 5.139
34.66000 5.036
34.68000 1.234
34.70000 -3.470
34.72000 4.010
34.74000 2.650
34.76000 3.669
34.78000 6.821
34.80000 4.596
34.82000 -1.040
34.84000 -3.465
34.86000 1.227
34.88000 5.544
34.90000 7.980
34.92000 9.422
34.94000 2.807
34.96000 3.393
34.98000 8.288
35.00000 8.432
35.02000 4.337
35.04000 0.528
35.06000 1.819
35.08000 6.193
35.10000 2.218
35.12000 4.397
35.14000 4.562
35.16000 4.955
35.18000 1.553
35.20000 -2.619
35.22000 -0.650
35.24000 4.218
35.26000 6.411
35.28000 7.100
35.30000 1.687
35.32000 5.494
35.34000 0.881
35.36000 0.893
35.38000 1.764
35.40000 3.532
35.42000 6.235
35.44000 1.696
35.46000 1.101
35.48000 -0.274
35.50000 -3.478
35.52000 -2.936
35.54000 -2.080
35.56000 0.132
35.58000 -0.987
35.60000 -2.890
35.62000 -0.709
35.64000 5.724
35.66000 8.025
35.68000 -0.131
35.70000 -2.173
35.72000 0.406
35.74000 1.040
35.76000 1.024
35.78000 -0.205
35.80000 3.868
35.82000 2.736
35.84000 -1.512
35.86000 -2.554
35.88000 -0.438
35.90000 0.148
35.92000 -1.772
35.94000 -1.738
35.96000 2.579
35.98000 4.127
36.00000 7.314
36.02000 2.762
36.04000 2.024
36.06000 -1.011
36.08000 -1.209
36.10000 -1.893
36.12000 -0.556
36.14000 3.933
36.16000 -1.216
36.18000 -1.968
36.20000 -2.138
36.22000 3.833
36.24000 4.477
36.26000 -2.266
36.28000 -1.572
36.30000 1.253
36.32000 -0.762
36.34000 0.851
36.36000 2.532
36.38000 -0.604
36.40000 4.319
36.42000 -0.283
36.44000 1.562
36.46000 1.655
36.48000 2.200
36.50000 2.707
36.52000 3.631
36.54000 2.591
36.56000 -0.015
36.58000 -0.496
36.60000 1.893
36.62000 -0.960
36.64000 0.998
36.66000 3.447
36.68000 -0.328
36.70000 1.547
36.72000 2.929
36.74000 -0.240
36.76000 -0.330
36.78000 3.082
36.80000 5.350
36.82000 -0.032
36.84000 2.030
36.86000 3.429
36.88000 2.761
36.90000 -0.211
36.92000 -1.622
36.94000 0.520
36.96000 -1.099
36.98000 -1.272
37.00000 -3.358
37.02000 -2.756
37.04000 -3.498
37.06000 -2.277
37.08000 1.904
37.10000 5.548
37.12000 3.667
37.14000 1.516
37.16000 -1.953
37.18000 -0.464
37.20000 0.479
37.22000 2.598
37.24000 -2.581
37.26000 2.011
37.28000 4.532
37.30000 7.111
37.32000 4.558
37.34000 1.766
37.36000 3.513
37.38000 4.131
37.40000 4.294
37.42000 1.593
37.44000 -0.975
37.46000 0.040
37.48000 1.736
37.50000 2.725
37.52000 0.151
37.54000 -2.423
37.56000 0.021
37.58000 1.338
37.60000 1.151
37.62000 2.613
37.64000 6.145
37.66000 2.532
37.68000 0.262
37.70000 5.133
37.72000 2.914
37.74000 1.754
37.76000 -2.917
37.78000 -3.537
37.80000 3.043
37.82000 4.257
37.84000 1.084
37.86000 2.162
37.88000 4.245
37.90000 3.193
37.92000 1.990
37.94000 6.732
37.96000 8.268
37.98000 7.678
38.00000 8.708
38.02000 8.289
38.04000 7.743
38.06000 7.406
38.08000 6.400
38.10000 5.266
38.12000 3.226
38.14000 6.506
38.16000 12.726
38.18000 15.442
38.20000 16.610
38.22000 13.746
38.24000 11.735
38.26000 9.655
38.28000 10.424
38.30000 10.388
38.32000 9.654
38.34000 13.074
38.36000 17.276
38.38000 14.168
38.40000 12.883
38.42000 13.968
38.44000 10.592
38.46000 12.094
38.48000 17.021
38.50000 15.725
38.52000 16.134
38.54000 14.961
38.56000 15.394
38.58000 15.438
38.60000 16.635
38.62000 17.968
38.64000 19.938
38.66000 15.196
38.68000 13.889
38.70000 18.257
38.72000 14.894
38.74000 16.529
38.76000 17.245
38.78000 13.169
38.80000 21.274
38.82000 19.523
38.84000 21.177
38.86000 21.286
38.88000 20.306
38.90000 18.088
38.92000 19.405
38.94000 22.840
38.96000 22.153
38.98000 22.917
39.00000 27.858
39.02000 31.534
39.04000 28.659
39.06000 26.426
39.08000 27.851
39.10000 28.889
39.12000 29.213
39.14000 28.798
39.16000 35.710
39.18000 34.619
39.20000 35.429
39.22000 38.653
39.24000 43.585
39.26000 40.746
39.28000 39.083
39.30000 37.293
39.32000 39.959
39.34000 43.089
39.36000 44.711
39.38000 50.582
39.40000 48.689
39.42000 51.359
39.44000 54.014
39.46000 53.292
39.48000 56.514
39.50000 60.360
39.52000 60.816
39.54000 68.948
39.56000 68.045
39.58000 68.725
39.60000 73.691
39.62000 74.590
39.64000 76.749
39.66000 76.763
39.68000 86.323
39.70000 93.987
39.72000 97.347
39.74000 99.474
39.76000 106.448
39.78000 113.451
39.80000 118.194
39.82000 124.082
39.84000 132.955
39.86000 141.298
39.88000 147.271
39.90000 155.547
39.92000 165.123
39.94000 175.629
39.96000 191.237
39.98000 195.057
40.00000 200.522
40.02000 216.236
40.04000 232.507
40.06000 250.300
40.08000 264.654
40.10000 285.534
40.12000 300.923
40.14000 316.317
40.16000 334.213
40.18000 361.473
40.20000 383.599
40.22000 402.639
40.24000 427.335
40.26000 451.156
40.28000 470.857
40.30000 492.993
40.32000 511.111
40.34000 529.136
40.36000 563.007
40.38000 589.162
40.40000 612.406
40.42000 632.159
40.44000 648.701
40.46000 666.325
40.48000 684.174
40.50000 694.287
40.52000 696.545
40.54000 697.728
40.56000 712.743
40.58000 717.875
40.60000 717.343
40.62000 712.456
40.64000 703.255
40.66000 693.526
40.68000 684.510
40.70000 665.393
40.72000 656.649
40.74000 644.469
40.76000 624.165
40.78000 619.532
40.80000 603.261
40.82000 571.167
40.84000 551.224
40.86000 534.371
40.88000 514.706
40.90000 491.762
40.92000 463.465
40.94000 452.587
40.96000 431.275
40.98000 408.581
41.00000 389.679
41.02000 368.462
41.04000 348.854
41.06000 329.416
41.08000 309.486
41.10000 293.875
41.12000 281.485
41.14000 265.095
41.16000 253.842
41.18000 237.290
41.20000 236.977
41.22000 217.065
41.24000 208.002
41.26000 198.671
41.28000 191.850
41.30000 179.654
41.32000 169.790
41.34000 155.339
41.36000 144.750
41.38000 140.011
41.40000 134.333
41.42000 125.807
41.44000 122.963
41.46000 116.422
41.48000 111.870
41.50000 107.098
41.52000 98.305
41.54000 89.679
41.56000 86.849
41.58000 90.375
41.60000 79.242
41.62000 70.987
41.64000 71.673
41.66000 73.903
41.68000 70.892
41.70000 66.416
41.72000 64.659
41.74000 62.619
41.76000 54.176
41.78000 52.351
41.80000 51.797
41.82000 49.199
41.84000 46.578
41.86000 42.994
41.88000 43.710
41.90000 47.304
41.92000 39.800
41.94000 35.417
41.96000 34.639
41.98000 32.097
42.00000 33.947
42.02000 32.227
42.04000 32.123
42.06000 25.986
42.08000 30.311
42.10000 29.654
42.12000 26.663
42.14000 22.321
42.16000 22.763
42.18000 23.523
42.20000 26.664
42.22000 23.610
42.24000 24.335
42.26000 22.139
42.28000 20.878
42.30000 19.468
42.32000 17.593
42.34000 16.852
42.36000 17.426
42.38000 13.796
42.40000 12.140
42.42000 14.665
42.44000 13.371
42.46000 12.032
42.48000 13.182
42.50000 11.956
42.52000 10.662
42.54000 9.774
42.56000 9.865
42.58000 7.612
42.60000 8.601
42.62000 14.273
42.64000 9.323
42.66000 6.763
42.68000 6.144
42.70000 5.659
42.72000 8.162
42.74000 9.665
42.76000 7.205
42.78000 7.471
42.80000 7.660
42.82000 5.397
42.84000 3.686
42.86000 -0.509
42.88000 2.748
42.90000 3.643
42.92000 3.843
42.94000 3.268
42.96000 5.933
42.98000 3.243
43.00000 0.654
43.02000 1.993
43.04000 1.919
43.06000 -0.703
43.08000 3.557
43.10000 2.242
43.12000 -0.192
43.14000 0.545
43.16000 4.986
43.18000 1.620
43.20000 -0.214
43.22000 -3.430
43.24000 -2.520
43.26000 1.150
43.28000 -0.177
43.30000 1.558
43.32000 1.643
43.34000 -0.443
43.36000 -2.759
43.38000 -0.259
43.40000 2.021
43.42000 2.326
43.44000 0.843
43.46000 1.265
43.48000 -2.244
43.50000 -0.285
43.52000 2.834
43.54000 1.909
43.56000 2.241
43.58000 -1.802
43.60000 -3.022
43.62000 -1.140
43.64000 -1.526
43.66000 -0.864
43.68000 0.124
43.70000 1.641
43.72000 -0.601
43.74000 -0.511
43.76000 0.339
43.78000 0.991
43.80000 3.497
43.82000 1.632
43.84000 4.053
43.86000 0.819
43.88000 1.899
43.90000 1.006
43.92000 0.069
43.94000 -1.506
43.96000 -0.488
43.98000 -3.311
44.00000 -0.726
44.02000 1.477
44.04000 2.918
44.06000 4.769
44.08000 3.371
44.10000 1.614
44.12000 1.554
44.14000 1.994
44.16000 3.168
44.18000 3.484
44.20000 3.859
44.22000 3.533
44.24000 2.109
44.26000 1.263
44.28000 0.875
44.30000 -1.645
44.32000 -3.118
44.34000 1.604
44.36000 4.154
44.38000 0.026
44.40000 -1.430
44.42000 -2.038
44.44000 -1.580
44.46000 -2.199
44.48000 -3.264
44.50000 -1.388
44.52000 2.552
44.54000 0.835
44.56000 1.244
44.58000 0.297
44.60000 -2.977
44.62000 1.140
44.64000 0.774
44.66000 0.080
44.68000 -2.579
44.70000 0.940
44.72000 -1.039
44.74000 -0.390
44.76000 -2.155
44.78000 -0.320
44.80000 1.643
44.82000 2.502
44.84000 3.552
44.86000 3.647
44.88000 0.641
44.90000 0.443
44.92000 0.798
44.94000 0.358
44.96000 1.913
44.98000 -0.011
45.00000 2.232
45.02000 -1.988
45.04000 -3.255
45.06000 1.437
45.08000 5.161
45.10000 2.978
45.12000 2.271
45.14000 0.886
45.16000 3.827
45.18000 3.685
45.20000 3.403
45.22000 0.140
45.24000 2.615
45.26000 4.620
45.28000 1.116
45.30000 -1.387
45.32000 -1.702
45.34000 2.242
45.36000 2.163
45.38000 -2.031
45.40000 -1.026
45.42000 0.155
45.44000 -0.457
45.46000 2.092
45.48000 4.856
45.50000 4.707
45.52000 1.576
45.54000 1.181
45.56000 3.520
45.58000 1.721
45.60000 1.945
45.62000 3.578
45.64000 8.775
45.66000 9.939
45.68000 10.516
45.70000 10.911
45.72000 10.520
45.74000 2.974
45.76000 2.075
45.78000 5.148
45.80000 7.948
45.82000 7.222
45.84000 8.104
45.86000 8.853
45.88000 10.576
45.90000 6.941
45.92000 8.383
45.94000 8.777
45.96000 7.381
45.98000 10.621
46.00000 14.529
46.02000 19.811
46.04000 15.925
46.06000 14.303
46.08000 11.578
46.10000 12.513
46.12000 14.348
46.14000 13.103
46.16000 13.034
46.18000 15.019
46.20000 16.245
46.22000 20.285
46.24000 20.997
46.26000 26.583
46.28000 31.856
46.30000 23.628
46.32000 16.656
46.34000 19.220
46.36000 28.668
46.38000 27.215
46.40000 31.586
46.42000 32.355
46.44000 27.257
46.46000 27.302
46.48000 37.331
46.50000 38.674
46.52000 34.582
46.54000 34.601
46.56000 36.238
46.58000 39.906
46.60000 40.023
46.62000 48.512
46.64000 52.119
46.66000 48.998
46.68000 48.859
46.70000 50.948
46.72000 53.684
46.74000 59.786
46.76000 61.943
46.78000 59.514
46.80000 61.228
46.82000 57.439
46.84000 60.243
46.86000 69.113
46.88000 68.619
46.90000 71.839
46.92000 73.448
46.94000 76.282
46.96000 76.714
46.98000 80.631
47.00000 83.105
47.02000 82.809
47.04000 78.360
47.06000 80.334
47.08000 83.063
47.10000 83.692
47.12000 85.173
47.14000 83.352
47.16000 83.687
47.18000 89.217
47.20000 88.354
47.22000 86.995
47.24000 92.631
47.26000 94.038
47.28000 90.590
47.30000 85.359
47.32000 77.624
47.34000 86.587
47.36000 90.560
47.38000 84.401
47.40000 82.698
47.42000 81.966
47.44000 86.372
47.46000 79.149
47.48000 75.272
47.50000 72.685
47.52000 70.279
47.54000 68.919
47.56000 68.873
47.58000 67.836
47.60000 64.364
47.62000 60.953
47.64000 61.166
47.66000 57.734
47.68000 57.434
47.70000 52.768
47.72000 51.840
47.74000 48.311
47.76000 48.837
47.78000 45.343
47.80000 43.154
47.82000 45.414
47.84000 34.181
47.86000 34.890
47.88000 32.062
47.90000 31.160
47.92000 33.384
47.94000 34.835
47.96000 32.568
47.98000 29.673
48.00000 28.683
48.02000 26.658
48.04000 22.482
48.06000 18.316
48.08000 21.685
48.10000 20.605
48.12000 19.295
48.14000 17.049
48.16000 17.100
48.18000 13.037
48.20000 14.570
48.22000 11.325
48.24000 12.239
48.26000 9.622
48.28000 14.444
48.30000 14.621
48.32000 14.945
48.34000 13.281
48.36000 13.066
48.38000 10.692
48.40000 9.650
48.42000 6.865
48.44000 5.476
48.46000 7.184
48.48000 10.018
48.50000 10.920
48.52000 7.059
48.54000 7.239
48.56000 3.360
48.58000 2.156
48.60000 -0.323
48.62000 2.515
48.64000 0.117
48.66000 6.385
48.68000 4.581
48.70000 -2.427
48.72000 -1.889
48.74000 -0.225
48.76000 2.300
48.78000 5.166
48.80000 3.602
48.82000 -0.004
48.84000 -0.566
48.86000 2.570
48.88000 2.972
48.90000 4.844
48.92000 3.984
48.94000 3.079
48.96000 2.450
48.98000 -0.747
49.00000 4.915
49.02000 3.277
49.04000 1.294
49.06000 -1.579
49.08000 -0.680
49.10000 2.719
49.12000 4.866
49.14000 6.330
49.16000 -2.775
49.18000 2.164
49.20000 3.329
49.22000 6.287
49.24000 11.029
49.26000 7.654
49.28000 -0.929
49.30000 1.980
49.32000 6.043
49.34000 5.046
49.36000 4.397
49.38000 2.881
49.40000 0.316
49.42000 1.039
49.44000 3.289
49.46000 3.560
49.48000 1.454
49.50000 -0.187
49.52000 3.707
49.54000 2.679
49.56000 4.285
49.58000 3.220
49.60000 3.279
49.62000 7.756
49.64000 4.451
49.66000 -1.798
49.68000 0.507
49.70000 0.047
49.72000 1.020
49.74000 -1.160
49.76000 3.017
49.78000 2.668
49.80000 0.207
49.82000 3.054
49.84000 0.791
49.86000 1.883
49.88000 0.991
49.90000 4.323
49.92000 1.783
49.94000 2.342
49.96000 3.737
49.98000 1.558
50.00000 -0.012
50.02000 3.121
50.04000 4.475
50.06000 -1.049
50.08000 -2.675
50.10000 -0.048
50.12000 2.424
50.14000 4.452
50.16000 4.398
50.18000 0.695
50.20000 -2.174
50.22000 4.003
50.24000 0.281
50.26000 0.110
50.28000 2.289
50.30000 3.890
50.32000 -2.278
50.34000 0.230
50.36000 1.509
50.38000 0.723
50.40000 2.406
50.42000 1.966
50.44000 -0.558
50.46000 -2.646
50.48000 1.447
50.50000 1.618
50.52000 1.902
50.54000 6.455
50.56000 4.307
50.58000 1.589
50.60000 3.736
50.62000 1.231
50.64000 0.310
50.66000 2.122
50.68000 0.380
50.70000 -1.685
50.72000 3.431
50.74000 5.226
50.76000 1.237
50.78000 1.236
50.80000 -0.944
50.82000 4.649
50.84000 5.523
50.86000 1.055
50.88000 1.020
50.90000 3.736
50.92000 -0.353
50.94000 -1.130
50.96000 0.605
50.98000 6.320
51.00000 6.012
51.02000 5.551
51.04000 3.645
51.06000 4.896
51.08000 7.079
51.10000 4.738
51.12000 0.593
51.14000 1.020
51.16000 0.274
51.18000 4.503
51.20000 1.962
51.22000 1.496
51.24000 2.564
51.26000 -0.993
51.28000 1.887
51.30000 1.254
51.32000 -1.933
51.34000 -1.198
51.36000 -2.596
51.38000 -1.566
51.40000 -0.019
51.42000 1.210
51.44000 1.498
51.46000 6.917
51.48000 4.674
51.50000 2.725
51.52000 1.588
51.54000 0.766
51.56000 0.999
51.58000 0.422
51.60000 2.687
51.62000 3.999
51.64000 3.458
51.66000 7.260
51.68000 3.554
51.70000 -0.627
51.72000 0.208
51.74000 0.965
51.76000 0.451
51.78000 0.550
51.80000 -0.242
51.82000 -1.096
51.84000 3.105
51.86000 6.633
51.88000 4.081
51.90000 -0.614
51.92000 -1.139
51.94000 3.216
51.96000 4.558
51.98000 4.094
52.00000 1.457
52.02000 1.605
52.04000 2.431
52.06000 3.647
52.08000 6.068
52.10000 4.876
52.12000 7.919
52.14000 9.867
52.16000 5.833
52.18000 5.271
52.20000 3.770
52.22000 1.713
52.24000 1.274
52.26000 2.442
52.28000 3.150
52.30000 2.349
52.32000 2.679
52.34000 4.142
52.36000 6.508
52.38000 1.787
52.40000 0.300
52.42000 2.681
52.44000 2.364
52.46000 -2.540
52.48000 1.683
52.50000 4.625
52.52000 3.264
52.54000 5.699
52.56000 0.847
52.58000 -1.954
52.60000 1.199
52.62000 6.312
52.64000 4.976
52.66000 4.804
52.68000 4.875
52.70000 4.048
52.72000 0.104
52.74000 0.292
52.76000 0.531
52.78000 2.930
52.80000 3.656
52.82000 5.650
52.84000 3.395
52.86000 -0.792
52.88000 0.289
52.90000 3.377
52.92000 3.313
52.94000 4.981
52.96000 4.662
52.98000 3.702
53.00000 -0.108
53.02000 0.578
53.04000 -0.243
53.06000 4.209
53.08000 6.745
53.10000 3.466
53.12000 1.005
53.14000 2.589
53.16000 -0.272
53.18000 0.224
53.20000 -0.090
53.22000 0.293
53.24000 2.524
53.26000 0.529
53.28000 0.284
53.30000 2.182
53.32000 1.394
53.34000 1.301
53.36000 2.458
53.38000 0.690
53.40000 4.503
53.42000 1.082
53.44000 -1.091
53.46000 -0.336
53.48000 -1.049
53.50000 -0.633
53.52000 0.320
53.54000 3.679
53.56000 2.884
53.58000 3.335
53.60000 1.231
53.62000 3.289
53.64000 -0.979
53.66000 -1.378
53.68000 -0.838
53.70000 -2.086
53.72000 -2.517
53.74000 -2.255
53.76000 -0.284
53.78000 4.765
53.80000 5.338
53.82000 0.654
53.84000 1.675
53.86000 3.671
53.88000 5.950
53.90000 2.924
53.92000 2.384
53.94000 0.474
53.96000 -0.010
53.98000 4.852
54.00000 3.891
54.02000 1.704
54.04000 3.691
54.06000 5.426
54.08000 4.133
54.10000 2.352
54.12000 -0.178
54.14000 1.266
54.16000 3.724
54.18000 1.347
54.20000 3.081
54.22000 -2.418
54.24000 1.378
54.26000 -0.905
54.28000 -1.372
54.30000 -0.247
54.32000 0.391
54.34000 -2.382
54.36000 2.563
54.38000 4.764
54.40000 1.357
54.42000 3.319
54.44000 4.112
54.46000 -0.454
54.48000 -0.478
54.50000 1.258
54.52000 2.116
54.54000 1.034
54.56000 -0.102
54.58000 3.726
54.60000 3.652
54.62000 2.524
54.64000 0.928
54.66000 4.454
54.68000 2.003
54.70000 1.823
54.72000 -0.161
54.74000 3.691
54.76000 1.929
54.78000 -0.676
54.80000 -1.070
54.82000 0.641
54.84000 3.801
54.86000 3.288
54.88000 2.674
54.90000 0.410
54.92000 3.277
54.94000 5.682
54.96000 6.556
54.98000 0.176
55.00000 -2.478
55.02000 2.344
55.04000 0.767
55.06000 2.157
55.08000 0.043
55.10000 2.508
55.12000 3.210
55.14000 2.242
55.16000 2.240
55.18000 1.960
55.20000 2.759
55.22000 1.089
55.24000 2.156
55.26000 1.289
55.28000 0.322
55.30000 2.147
55.32000 2.367
55.34000 6.244
55.36000 3.738
55.38000 2.195
55.40000 0.379
55.42000 3.551
55.44000 4.547
55.46000 0.619
55.48000 -0.746
55.50000 0.068
55.52000 3.117
55.54000 4.007
55.56000 2.296
55.58000 1.242
55.60000 3.152
55.62000 3.266
55.64000 0.066
55.66000 0.816
55.68000 0.969
55.70000 1.520
55.72000 2.378
55.74000 0.295
55.76000 -0.278
55.78000 0.868
55.80000 1.818
55.82000 2.590
55.84000 1.028
55.86000 0.256
55.88000 0.552
55.90000 -2.471
55.92000 -0.330
55.94000 -0.331
55.96000 -1.368
55.98000 2.557
56.00000 4.656
56.02000 5.052
56.04000 2.700
56.06000 1.282
56.08000 0.570
56.10000 3.111
56.12000 0.473
56.14000 -0.280
56.16000 2.127
56.18000 4.017
56.20000 4.684
56.22000 5.395
56.24000 4.341
56.26000 2.537
56.28000 0.460
56.30000 0.882
56.32000 1.065
56.34000 2.109
56.36000 -1.455
56.38000 -0.799
56.40000 -0.971
56.42000 1.318
56.44000 -2.463
56.46000 -1.510
56.48000 1.446
56.50000 1.547
56.52000 3.481
56.54000 3.434
56.56000 2.183
56.58000 1.356
56.60000 -0.794
56.62000 1.309
56.64000 0.668
56.66000 0.489
56.68000 2.187
56.70000 2.176
56.72000 1.865
56.74000 -0.518
56.76000 -0.778
56.78000 1.109
56.80000 -0.519
56.82000 -0.915
56.84000 1.377
56.86000 1.758
56.88000 5.012
56.90000 6.331
56.92000 2.020
56.94000 5.052
56.96000 7.382
56.98000 3.702
57.00000 4.205
57.02000 0.324
57.04000 -0.342
57.06000 6.209
57.08000 7.259
57.10000 6.829
57.12000 3.080
57.14000 -0.196
57.16000 3.114
57.18000 3.603
57.20000 0.553
57.22000 0.624
57.24000 2.992
57.26000 4.781
57.28000 1.608
57.30000 0.819
57.32000 2.259
57.34000 2.844
57.36000 5.019
57.38000 6.143
57.40000 4.314
57.42000 3.416
57.44000 0.838
57.46000 2.856
57.48000 3.088
57.50000 -2.387
57.52000 0.812
57.54000 6.975
57.56000 5.483
57.58000 7.586
57.60000 9.236
57.62000 6.292
57.64000 2.586
57.66000 3.547
57.68000 0.526
57.70000 -0.636
57.72000 1.528
57.74000 -1.206
57.76000 -0.285
57.78000 1.590
57.80000 4.004
57.82000 3.160
57.84000 0.632
57.86000 0.294
57.88000 2.202
57.90000 3.252
57.92000 3.024
57.94000 5.225
57.96000 6.556
57.98000 6.973
58.00000 0.459
58.02000 0.792
58.04000 -0.257
58.06000 -0.458
58.08000 0.058
58.10000 1.206
58.12000 0.923
58.14000 -0.782
58.16000 -2.406
58.18000 -0.044
58.20000 2.274
58.22000 0.861
58.24000 -1.879
58.26000 0.474
58.28000 1.821
58.30000 1.071
58.32000 -0.061
58.34000 -0.184
58.36000 -1.251
58.38000 1.540
58.40000 1.301
58.42000 -0.086
58.44000 0.235
58.46000 -0.087
58.48000 -1.487
58.50000 3.488
58.52000 4.479
58.54000 4.734
58.56000 2.295
58.58000 2.511
58.60000 -0.658
58.62000 -1.815
58.64000 -0.490
58.66000 -0.915
58.68000 1.257
58.70000 -0.514
58.72000 4.838
58.74000 3.281
58.76000 0.397
58.78000 0.942
58.80000 0.312
58.82000 -1.695
58.84000 -0.851
58.86000 -1.042
58.88000 2.155
58.90000 2.245
58.92000 2.226
58.94000 6.966
58.96000 7.565
58.98000 3.018
59.00000 2.897
59.02000 3.461
59.04000 3.553
59.06000 4.708
59.08000 0.254
59.10000 -0.702
59.12000 1.568
59.14000 2.606
59.16000 1.860
59.18000 3.719
59.20000 -0.486
59.22000 -2.194
59.24000 1.326
59.26000 -0.788
59.28000 2.932
59.30000 1.099
59.32000 0.342
59.34000 2.115
59.36000 2.931
59.38000 3.838
59.40000 1.509
59.42000 -0.577
59.44000 3.222
59.46000 3.540
59.48000 -1.179
59.50000 -0.859
59.52000 3.388
59.54000 3.107
59.56000 1.150
59.58000 3.532
59.60000 4.255
59.62000 3.650
59.64000 -2.344
59.66000 -0.098
59.68000 -2.031
59.70000 0.643
59.72000 1.740
59.74000 0.078
59.76000 1.222
59.78000 0.367
59.80000 2.303
59.82000 -0.120
59.84000 -0.616
59.86000 2.207
59.88000 5.549
59.90000 5.959
59.92000 1.741
59.94000 1.875
59.96000 1.258
59.98000 5.645
60.00000 4.521
60.02000 2.710
60.04000 1.887
60.06000 0.478
60.08000 0.137
60.10000 3.395
60.12000 1.025
60.14000 -1.116
60.16000 0.482
60.18000 -1.560
60.20000 -2.339
60.22000 -0.387
60.24000 0.747
60.26000 2.820
60.28000 0.578
60.30000 2.405
60.32000 2.718
60.34000 0.775
60.36000 -0.181
60.38000 0.138
60.40000 3.403
60.42000 7.472
60.44000 1.383
60.46000 -1.929
60.48000 1.941
60.50000 1.407
60.52000 1.472
60.54000 0.759
60.56000 2.450
60.58000 0.831
60.60000 0.598
60.62000 0.816
60.64000 2.297
60.66000 1.911
60.68000 1.533
60.70000 -0.306
60.72000 -0.480
60.74000 -2.218
60.76000 0.298
60.78000 -2.209
60.80000 -2.332
60.82000 2.134
60.84000 4.220
60.86000 4.779
60.88000 4.405
60.90000 0.113
60.92000 1.160
60.94000 3.891
60.96000 4.231
60.98000 4.448
61.00000 4.638
61.02000 5.293
61.04000 0.157
61.06000 -1.238
61.08000 -0.347
61.10000 1.031
61.12000 3.600
61.14000 0.617
61.16000 2.050
61.18000 2.048
61.20000 0.016
61.22000 0.348
61.24000 -2.210
61.26000 -0.483
61.28000 2.417
61.30000 1.445
61.32000 0.309
61.34000 -1.053
61.36000 -2.316
61.38000 -0.605
61.40000 -1.084
61.42000 0.096
61.44000 1.101
61.46000 0.359
61.48000 -0.967
61.50000 -2.313
61.52000 -2.088
61.54000 2.380
61.56000 0.211
61.58000 1.026
61.60000 0.504
61.62000 2.636
61.64000 -0.093
61.66000 -0.930
61.68000 -0.566
61.70000 0.389
61.72000 1.188
61.74000 1.578
61.76000 3.131
61.78000 0.854
61.80000 -0.019
61.82000 3.703
61.84000 3.096
61.86000 3.059
61.88000 2.121
61.90000 2.591
61.92000 -0.283
61.94000 0.429
61.96000 5.215
61.98000 3.832
62.00000 3.153
62.02000 1.721
62.04000 0.845
62.06000 -2.295
62.08000 0.992
62.10000 1.278
62.12000 1.095
62.14000 2.738
62.16000 0.744
62.18000 -0.132
62.20000 4.772
62.22000 3.231
62.24000 3.230
62.26000 0.779
62.28000 1.177
62.30000 -0.269
62.32000 2.232
62.34000 -1.495
62.36000 0.929
62.38000 1.498
62.40000 1.380
62.42000 0.471
62.44000 3.466
62.46000 2.704
62.48000 -0.029
62.50000 0.164
62.52000 -0.115
62.54000 1.682
62.56000 3.680
62.58000 5.316
62.60000 2.476
62.62000 2.233
62.64000 0.407
62.66000 1.508
62.68000 5.264
62.70000 4.611
62.72000 3.314
62.74000 5.086
62.76000 3.668
62.78000 2.848
62.80000 3.028
62.82000 0.202
62.84000 0.854
62.86000 0.808
62.88000 -0.674
62.90000 -2.245
62.92000 1.823
62.94000 3.821
62.96000 1.692
62.98000 1.966
63.00000 4.159
63.02000 5.073
63.04000 3.435
63.06000 1.093
63.08000 3.696
63.10000 4.160
63.12000 3.662
63.14000 6.741
63.16000 1.567
63.18000 -1.453
63.20000 0.646
63.22000 0.388
63.24000 1.316
63.26000 1.946
63.28000 0.194
63.30000 -0.874
63.32000 0.537
63.34000 0.525
63.36000 -0.185
63.38000 2.940
63.40000 1.481
63.42000 -1.204
63.44000 -0.641
63.46000 1.565
63.48000 1.827
63.50000 1.099
63.52000 4.834
63.54000 4.482
63.56000 2.876
63.58000 0.239
63.60000 1.276
63.62000 2.389
63.64000 3.420
63.66000 1.570
63.68000 -0.948
63.70000 -2.288
63.72000 -0.566
63.74000 0.385
63.76000 1.597
63.78000 3.079
63.80000 0.795
63.82000 -1.107
63.84000 0.286
63.86000 1.526
63.88000 1.613
63.90000 0.796
63.92000 2.009
63.94000 0.250
63.96000 -0.658
63.98000 2.487
64.00000 1.751
64.02000 1.678
64.04000 -0.035
64.06000 -0.515
64.08000 0.610
64.10000 0.368
64.12000 -0.286
64.14000 2.993
64.16000 -0.420
64.18000 2.637
64.20000 0.383
64.22000 -0.138
64.24000 3.196
64.26000 0.595
64.28000 0.018
64.30000 1.368
64.32000 1.591
64.34000 2.045
64.36000 0.787
64.38000 -0.519
64.40000 2.563
64.42000 1.624
64.44000 0.590
64.46000 1.691
64.48000 0.220
64.50000 3.636
64.52000 2.113
64.54000 4.926
64.56000 4.070
64.58000 3.137
64.60000 1.991
64.62000 0.434
64.64000 -0.682
64.66000 -0.816
64.68000 2.243
64.70000 2.790
64.72000 -0.394
64.74000 0.785
64.76000 0.382
64.78000 1.327
64.80000 4.389
64.82000 5.259
64.84000 3.884
64.86000 0.729
64.88000 -0.042
64.90000 4.440
64.92000 0.735
64.94000 -0.444
64.96000 -2.278
64.98000 2.358
65.00000 2.160
65.02000 2.287
65.04000 0.756
65.06000 2.919
65.08000 3.256
65.10000 2.535
65.12000 2.142
65.14000 2.572
65.16000 1.709
65.18000 2.398
65.20000 -1.177
65.22000 -1.188
65.24000 0.323
65.26000 2.239
65.28000 2.272
65.30000 2.358
65.32000 -0.847
65.34000 1.451
65.36000 -0.129
65.38000 0.256
65.40000 1.707
65.42000 4.168
65.44000 2.388
65.46000 1.349
65.48000 1.125
65.50000 2.182
65.52000 1.512
65.54000 0.913
65.56000 0.043
65.58000 -0.352
65.60000 -0.915
65.62000 0.818
65.64000 2.630
65.66000 2.429
65.68000 1.253
65.70000 0.756
65.72000 0.495
65.74000 -0.705
65.76000 -2.270
65.78000 1.019
65.80000 4.827
65.82000 1.581
65.84000 2.945
65.86000 3.003
65.88000 2.760
65.90000 3.761
65.92000 1.655
65.94000 2.652
65.96000 1.573
65.98000 1.440
66.00000 2.527
66.02000 3.006
66.04000 1.477
66.06000 1.626
66.08000 2.895
66.10000 0.604
66.12000 -2.192
66.14000 0.218
66.16000 0.417
66.18000 -1.447
66.20000 -0.561
66.22000 3.448
66.24000 1.644
66.26000 0.954
66.28000 3.841
66.30000 2.345
66.32000 0.621
66.34000 -0.520
66.36000 1.328
66.38000 3.012
66.40000 1.465
66.42000 1.800
66.44000 2.513
66.46000 4.162
66.48000 2.571
66.50000 0.823
66.52000 2.770
66.54000 2.882
66.56000 3.253
66.58000 3.059
66.60000 0.104
66.62000 0.976
66.64000 2.197
66.66000 1.992
66.68000 2.396
66.70000 2.802
66.72000 2.085
66.74000 3.901
66.76000 2.923
66.78000 2.187
66.80000 0.082
66.82000 -2.271
66.84000 -0.523
66.86000 2.621
66.88000 1.806
66.90000 2.312
66.92000 1.976
66.94000 1.890
66.96000 0.353
66.98000 1.921
67.00000 2.867
67.02000 -0.198
67.04000 2.304
67.06000 -1.851
67.08000 2.594
67.10000 1.838
67.12000 1.742
67.14000 1.902
67.16000 2.352
67.18000 4.257
67.20000 3.250
67.22000 2.194
67.24000 2.427
67.26000 2.114
67.28000 1.242
67.30000 1.031
67.32000 0.042
67.34000 2.462
67.36000 2.867
67.38000 3.583
67.40000 3.951
67.42000 1.966
67.44000 1.978
67.46000 -2.109
67.48000 -0.831
67.50000 0.744
67.52000 0.473
67.54000 0.275
67.56000 2.751
67.58000 4.191
67.60000 2.253
67.62000 0.275
67.64000 1.746
67.66000 1.583
67.68000 1.061
67.70000 -1.907
67.72000 -1.889
67.74000 -1.535
67.76000 -2.348
67.78000 -1.035
67.80000 2.123
67.82000 2.157
67.84000 4.331
67.86000 3.234
67.88000 3.261
67.90000 3.713
67.92000 1.161
67.94000 0.285
67.96000 3.381
67.98000 2.355
68.00000 -0.114
68.02000 0.312
68.04000 3.761
68.06000 3.485
68.08000 3.849
68.10000 2.899
68.12000 4.634
68.14000 4.463
68.16000 5.456
68.18000 10.531
68.20000 5.876
68.22000 4.257
68.24000 5.476
68.26000 4.225
68.28000 4.666
68.30000 6.504
68.32000 7.883
68.34000 6.350
68.36000 3.602
68.38000 4.197
68.40000 8.631
68.42000 8.529
68.44000 5.970
68.46000 6.787
68.48000 10.071
68.50000 10.976
68.52000 13.465
68.54000 12.991
68.56000 13.147
68.58000 12.762
68.60000 12.502
68.62000 15.041
68.64000 16.082
68.66000 16.494
68.68000 16.311
68.70000 17.565
68.72000 18.359
68.74000 19.142
68.76000 20.418
68.78000 21.459
68.80000 21.874
68.82000 19.526
68.84000 19.602
68.86000 22.628
68.88000 25.195
68.90000 25.294
68.92000 21.361
68.94000 17.797
68.96000 15.692
68.98000 17.591
69.00000 19.478
69.02000 24.617
69.04000 25.859
69.06000 23.593
69.08000 20.997
69.10000 19.939
69.12000 24.036
69.14000 23.480
69.16000 21.944
69.18000 18.840
69.20000 18.218
69.22000 19.840
69.24000 17.933
69.26000 20.167
69.28000 23.822
69.30000 20.327
69.32000 18.038
69.34000 17.785
69.36000 16.284
69.38000 14.009
69.40000 12.063
69.42000 14.368
69.44000 14.471
69.46000 11.064
69.48000 9.682
69.50000 8.986
69.52000 10.301
69.54000 9.907
69.56000 9.535
69.58000 9.458
69.60000 12.090
69.62000 11.613
69.64000 8.522
69.66000 5.745
69.68000 5.017
69.70000 5.194
69.72000 6.014
69.74000 4.245
69.76000 4.711
69.78000 3.708
69.80000 2.913
69.82000 1.037
69.84000 4.825
69.86000 4.438
69.88000 6.178
69.90000 5.765
69.92000 5.411
69.94000 4.396
69.96000 4.344
69.98000 3.569
70.00000 2.829
70.02000 1.765
70.04000 3.205
70.06000 2.893
70.08000 0.492
70.10000 -0.362
70.12000 -0.168
70.14000 -0.955
70.16000 -0.340
70.18000 6.128
70.20000 3.413
70.22000 0.407
70.24000 -2.291
70.26000 -0.484
70.28000 2.797
70.30000 2.295
70.32000 1.440
70.34000 0.136
70.36000 -0.787
70.38000 -0.618
70.40000 2.809
70.42000 2.355
70.44000 -1.216
70.46000 0.859
70.48000 2.074
70.50000 2.172
70.52000 -0.900
70.54000 -0.549
70.56000 0.019
70.58000 1.509
70.60000 1.890
70.62000 1.382
70.64000 1.773
70.66000 -1.268
70.68000 -0.716
70.70000 -0.183
70.72000 1.238
70.74000 0.482
70.76000 1.727
70.78000 5.282
70.80000 7.542
70.82000 3.112
70.84000 3.005
70.86000 3.478
70.88000 0.671
70.90000 2.350
70.92000 5.263
70.94000 2.453
70.96000 2.529
70.98000 5.898
71.00000 5.950
71.02000 3.780
71.04000 0.988
71.06000 -2.172
71.08000 -0.975
71.10000 2.763
71.12000 8.343
71.14000 2.930
71.16000 5.834
71.18000 3.116
71.20000 4.659
71.22000 4.016
71.24000 4.577
71.26000 4.832
71.28000 2.401
71.30000 2.287
71.32000 0.884
71.34000 3.503
71.36000 4.747
71.38000 4.587
71.40000 3.796
71.42000 2.863
71.44000 5.290
71.46000 4.088
71.48000 -0.839
71.50000 -0.025
71.52000 -0.643
71.54000 1.929
71.56000 3.306
71.58000 3.305
71.60000 0.905
71.62000 0.538
71.64000 0.634
71.66000 1.266
71.68000 2.989
71.70000 6.619
71.72000 5.265
71.74000 3.726
71.76000 3.974
71.78000 4.125
71.80000 2.972
71.82000 2.331
71.84000 4.832
71.86000 3.420
71.88000 2.532
71.90000 5.134
71.92000 4.166
71.94000 4.159
71.96000 0.582
71.98000 1.001
72.00000 0.686
72.02000 5.933
72.04000 5.904
72.06000 3.644
72.08000 3.209
72.10000 5.080
72.12000 4.356
72.14000 1.906
72.16000 5.733
72.18000 5.470
72.20000 5.401
72.22000 6.045
72.24000 4.048
72.26000 2.862
72.28000 3.745
72.30000 8.261
72.32000 5.163
72.34000 2.057
72.36000 -2.077
72.38000 0.341
72.40000 2.770
72.42000 6.276
72.44000 3.952
72.46000 2.548
72.48000 3.060
72.50000 5.023
72.52000 5.799
72.54000 6.159
72.56000 4.029
72.58000 1.171
72.60000 1.564
72.62000 3.093
72.64000 2.886
72.66000 1.695
72.68000 -1.567
72.70000 2.272
72.72000 3.967
72.74000 5.226
72.76000 2.694
72.78000 1.149
72.80000 0.242
72.82000 -2.106
72.84000 1.758
72.86000 3.610
72.88000 2.893
72.90000 1.739
72.92000 3.254
72.94000 5.868
72.96000 3.271
72.98000 2.042
73.00000 -0.153
73.02000 3.555
73.04000 2.633
73.06000 0.472
73.08000 -1.803
73.10000 -1.857
73.12000 3.734
73.14000 3.921
73.16000 6.623
73.18000 5.455
73.20000 0.994
73.22000 1.684
73.24000 2.472
73.26000 2.973
73.28000 3.158
73.30000 2.018
73.32000 2.855
73.34000 3.558
73.36000 3.265
73.38000 0.850
73.40000 0.293
73.42000 1.959
73.44000 3.138
73.46000 1.936
73.48000 2.930
73.50000 0.056
73.52000 -0.183
73.54000 0.772
73.56000 0.825
73.58000 -1.931
73.60000 -0.103
73.62000 0.529
73.64000 1.128
73.66000 1.868
73.68000 -1.429
73.70000 1.540
73.72000 1.399
73.74000 -0.179
73.76000 1.723
73.78000 1.592
73.80000 0.044
73.82000 -2.126
73.84000 -0.291
73.86000 0.692
73.88000 -1.610
73.90000 -1.012
73.92000 -0.345
73.94000 -0.278
73.96000 4.058
73.98000 4.609
74.00000 3.685
74.02000 3.771
74.04000 0.175
74.06000 0.193
74.08000 2.734
74.10000 0.490
74.12000 2.658
74.14000 3.137
74.16000 2.916
74.18000 1.031
74.20000 1.136
74.22000 2.917
74.24000 2.089
74.26000 0.520
74.28000 0.834
74.30000 3.713
74.32000 6.164
74.34000 5.341
74.36000 6.067
74.38000 5.939
74.40000 4.972
74.42000 4.524
74.44000 0.640
74.46000 -2.106
74.48000 -0.046
74.50000 1.124
74.52000 -0.797
74.54000 0.789
74.56000 2.221
74.58000 3.279
74.60000 0.964
74.62000 0.363
74.64000 1.687
74.66000 2.627
74.68000 1.241
74.70000 -0.218
74.72000 1.074
74.74000 0.676
74.76000 3.126
74.78000 3.171
74.80000 -2.083
74.82000 -0.334
74.84000 4.175
74.86000 3.840
74.88000 2.129
74.90000 3.154
74.92000 3.512
74.94000 0.529
74.96000 2.938
74.98000 1.812
75.00000 6.895
75.02000 2.812
75.04000 -1.332
75.06000 1.801
75.08000 4.495
75.10000 4.478
75.12000 4.767
75.14000 4.956
75.16000 2.655
75.18000 2.349
75.20000 2.024
75.22000 0.180
75.24000 1.619
75.26000 1.422
75.28000 4.434
75.30000 4.359
75.32000 3.423
75.34000 1.374
75.36000 1.136
75.38000 3.012
75.40000 0.694
75.42000 2.144
75.44000 2.118
75.46000 1.965
75.48000 3.658
75.50000 3.491
75.52000 1.972
75.54000 2.012
75.56000 -0.189
75.58000 0.198
75.60000 4.321
75.62000 2.206
75.64000 -1.420
75.66000 1.902
75.68000 0.594
75.70000 0.069
75.72000 0.755
75.74000 1.012
75.76000 -0.628
75.78000 1.278
75.80000 1.191
75.82000 -2.119
75.84000 0.666
75.86000 0.751
75.88000 2.955
75.90000 8.551
75.92000 4.873
75.94000 2.508
75.96000 3.497
75.98000 1.071
76.00000 2.484
76.02000 3.341
76.04000 0.127
76.06000 -0.114
76.08000 1.889
76.10000 1.115
76.12000 2.435
76.14000 6.682
76.16000 6.083
76.18000 3.871
76.20000 3.972
76.22000 3.214
76.24000 2.908
76.26000 2.411
76.28000 5.809
76.30000 6.181
76.32000 4.218
76.34000 5.730
76.36000 5.681
76.38000 5.705
76.40000 2.348
76.42000 -0.441
76.44000 -0.159
76.46000 2.814
76.48000 5.251
76.50000 3.651
76.52000 4.348
76.54000 4.981
76.56000 3.937
76.58000 3.468
76.60000 4.599
76.62000 5.477
76.64000 2.155
76.66000 -0.127
76.68000 -0.778
76.70000 -0.260
76.72000 -2.079
76.74000 0.594
76.76000 2.208
76.78000 1.814
76.80000 3.628
76.82000 3.939
76.84000 3.022
76.86000 5.497
76.88000 4.449
76.90000 1.840
76.92000 3.720
76.94000 1.648
76.96000 2.077
76.98000 2.903
77.00000 1.891
77.02000 1.799
77.04000 1.476
77.06000 3.086
77.08000 5.927
77.10000 3.978
77.12000 4.437
77.14000 3.047
77.16000 2.934
77.18000 3.555
77.20000 3.142
77.22000 4.852
77.24000 1.974
77.26000 -1.363
77.28000 -0.315
77.30000 0.419
77.32000 0.078
77.34000 1.062
77.36000 1.035
77.38000 -0.905
77.40000 -1.682
77.42000 2.599
77.44000 5.179
77.46000 1.779
77.48000 2.645
77.50000 1.386
77.52000 0.973
77.54000 -0.193
77.56000 0.170
77.58000 -1.593
77.60000 0.811
77.62000 0.725
77.64000 2.246
77.66000 3.120
77.68000 3.260
77.70000 3.600
77.72000 2.157
77.74000 4.299
77.76000 2.964
77.78000 1.492
77.80000 3.354
77.82000 4.318
77.84000 6.695
77.86000 3.979
77.88000 3.214
77.90000 3.590
77.92000 5.143
77.94000 4.455
77.96000 5.065
77.98000 0.546
78.00000 -0.899
78.02000 0.667
78.04000 1.184
78.06000 0.366
78.08000 4.302
78.10000 2.627
78.12000 2.421
78.14000 -0.714
78.16000 1.163
78.18000 0.702
78.20000 1.713
78.22000 0.128
78.24000 1.999
78.26000 -0.033
78.28000 1.791
78.30000 4.499
78.32000 4.905
78.34000 1.949
78.36000 0.373
78.38000 1.704
78.40000 0.842
78.42000 5.003
78.44000 2.118
78.46000 1.417
78.48000 -0.820
78.50000 -0.780
78.52000 -1.529
78.54000 -1.276
78.56000 2.247
78.58000 0.967
78.60000 -0.197
78.62000 4.649
78.64000 6.292
78.66000 4.608
78.68000 4.847
78.70000 2.080
78.72000 2.443
78.74000 0.783
78.76000 0.157
78.78000 1.668
78.80000 0.104
78.82000 -1.151
78.84000 -1.054
78.86000 -0.498
78.88000 -0.223
78.90000 1.267
78.92000 1.027
78.94000 1.929
78.96000 3.808
78.98000 4.359
79.00000 3.294
79.02000 3.981
79.04000 2.906
79.06000 5.133
79.08000 3.043
79.10000 3.980
79.12000 3.679
79.14000 -2.125
79.16000 1.239
79.18000 7.537
79.20000 4.554
79.22000 1.069
79.24000 0.757
79.26000 -0.936
79.28000 2.058
79.30000 2.624
79.32000 4.615
79.34000 3.998
79.36000 6.204
79.38000 7.384
79.40000 3.230
79.42000 5.034
79.44000 5.517
79.46000 2.003
79.48000 3.063
79.50000 3.073
79.52000 2.283
79.54000 0.348
79.56000 -0.255
79.58000 5.884
79.60000 5.090
79.62000 1.966
79.64000 1.330
79.66000 -0.233
79.68000 2.228
79.70000 4.344
79.72000 5.661
79.74000 2.939
79.76000 0.867
79.78000 2.380
79.80000 1.393
79.82000 4.846
79.84000 6.414
79.86000 4.433
79.88000 1.800
79.90000 1.753
79.92000 6.678
79.94000 5.184
79.96000 2.135
79.98000 1.372
80.00000 1.332
80.02000 -2.136
80.04000 -1.438
80.06000 0.001
80.08000 3.169
80.10000 0.860
80.12000 0.152
80.14000 -1.191
80.16000 -0.368
80.18000 0.567
80.20000 2.602
80.22000 4.353
80.24000 -0.696
80.26000 2.323
80.28000 -1.078
80.30000 -1.092
80.32000 0.100
80.34000 0.756
80.36000 2.798
80.38000 3.170
80.40000 1.400
80.42000 1.481
80.44000 3.383
80.46000 2.704
80.48000 -0.640
80.50000 0.628
80.52000 0.308
80.54000 4.858
80.56000 5.050
80.58000 1.748
80.60000 -2.189
80.62000 1.178
80.64000 3.207
80.66000 0.090
80.68000 3.323
80.70000 1.898
80.72000 1.013
80.74000 1.855
80.76000 0.899
80.78000 2.730
80.80000 1.779
80.82000 0.752
80.84000 -0.923
80.86000 4.272
80.88000 7.292
80.90000 3.378
80.92000 4.989
80.94000 2.576
80.96000 0.914
80.98000 1.115
81.00000 2.019
81.02000 -0.218
81.04000 1.364
81.06000 3.258
81.08000 1.791
81.10000 -1.925
81.12000 -0.555
81.14000 -1.757
81.16000 1.605
81.18000 0.992
81.20000 2.102
81.22000 1.002
81.24000 -2.230
81.26000 -0.741
81.28000 1.864
81.30000 0.578
81.32000 0.855
81.34000 0.379
81.36000 0.445
81.38000 3.862
81.40000 -1.277
81.42000 -1.124
81.44000 -0.515
81.46000 2.354
81.48000 2.666
81.50000 5.700
81.52000 3.518
81.54000 3.047
81.56000 -2.117
81.58000 -0.407
81.60000 0.743
81.62000 -0.321
81.64000 -1.157
81.66000 2.648
81.68000 3.183
81.70000 0.715
81.72000 0.895
81.74000 0.986
81.76000 1.093
81.78000 2.546
81.80000 1.116
81.82000 -0.321
81.84000 -1.674
81.86000 -1.554
81.88000 -1.110
81.90000 -1.587
81.92000 0.102
81.94000 2.381
81.96000 3.475
81.98000 5.721
82.00000 3.643
82.02000 1.692
82.04000 5.724
82.06000 3.866
82.08000 6.490
82.10000 3.832
82.12000 5.246
82.14000 4.348
82.16000 3.888
82.18000 2.443
82.20000 0.282
82.22000 3.704
82.24000 7.892
82.26000 8.310
82.28000 6.451
82.30000 6.222
82.32000 3.490
82.34000 2.706
82.36000 2.999
82.38000 3.025
82.40000 5.827
82.42000 8.526
82.44000 11.201
82.46000 8.345
82.48000 8.869
82.50000 12.766
82.52000 11.098
82.54000 14.854
82.56000 15.563
82.58000 13.090
82.60000 15.641
82.62000 13.691
82.64000 13.490
82.66000 11.520
82.68000 13.348
82.70000 15.747
82.72000 16.185
82.74000 22.124
82.76000 22.249
82.78000 15.366
82.80000 18.577
82.82000 18.357
82.84000 19.612
82.86000 22.069
82.88000 25.919
82.90000 22.721
82.92000 23.298
82.94000 21.431
82.96000 27.131
82.98000 29.239
83.00000 29.069
83.02000 28.021
83.04000 30.057
83.06000 27.428
83.08000 30.174
83.10000 36.391
83.12000 34.871
83.14000 35.147
83.16000 34.758
83.18000 34.971
83.20000 39.347
83.22000 37.063
83.24000 34.171
83.26000 30.758
83.28000 40.022
83.30000 35.904
83.32000 38.887
83.34000 41.505
83.36000 36.172
83.38000 36.541
83.40000 38.344
83.42000 32.738
83.44000 32.227
83.46000 36.675
83.48000 38.836
83.50000 35.130
83.52000 33.410
83.54000 34.380
83.56000 33.900
83.58000 35.018
83.60000 33.644
83.62000 31.162
83.64000 34.208
83.66000 32.273
83.68000 30.489
83.70000 29.824
83.72000 31.485
83.74000 24.320
83.76000 20.805
83.78000 23.542
83.80000 27.531
83.82000 26.160
83.84000 24.675
83.86000 21.387
83.88000 21.316
83.90000 19.941
83.92000 21.443
83.94000 17.816
83.96000 17.518
83.98000 17.893
84.00000 18.752
84.02000 19.539
84.04000 18.330
84.06000 17.767
84.08000 19.406
84.10000 17.209
84.12000 16.592
84.14000 14.417
84.16000 11.913
84.18000 10.236
84.20000 11.604
84.22000 11.613
84.24000 13.083
84.26000 11.955
84.28000 7.863
84.30000 6.474
84.32000 9.705
84.34000 5.805
84.36000 4.412
84.38000 5.481
84.40000 6.578
84.42000 6.590
84.44000 8.726
84.46000 6.784
84.48000 4.490
84.50000 8.220
84.52000 7.217
84.54000 6.666
84.56000 6.539
84.58000 3.246
84.60000 2.494
84.62000 6.966
84.64000 5.101
84.66000 6.694
84.68000 2.570
84.70000 -0.164
84.72000 1.469
84.74000 -1.332
84.76000 4.251
84.78000 4.763
84.80000 2.936
84.82000 2.331
84.84000 1.360
84.86000 6.980
84.88000 1.221
84.90000 -2.234
84.92000 1.280
84.94000 1.972
84.96000 2.476
84.98000 4.792
85.00000 2.721
85.02000 2.414
85.04000 5.621
85.06000 6.381
85.08000 3.770
85.10000 -2.050
85.12000 1.759
85.14000 4.758
85.16000 3.773
85.18000 5.303
85.20000 4.522
85.22000 2.309
85.24000 1.917
85.26000 3.643
85.28000 1.598
85.30000 0.636
85.32000 2.247
85.34000 3.743
85.36000 2.617
85.38000 0.812
85.40000 0.228
85.42000 2.637
85.44000 2.429
85.46000 -1.509
85.48000 -0.767
85.50000 -1.770
85.52000 -2.181
85.54000 0.364
85.56000 1.862
85.58000 1.631
85.60000 1.276
85.62000 0.606
85.64000 -1.384
85.66000 -1.674
85.68000 -0.543
85.70000 -1.058
85.72000 1.635
85.74000 -1.337
85.76000 -1.789
85.78000 2.872
85.80000 5.647
85.82000 0.362
85.84000 2.765
85.86000 6.615
85.88000 5.243
85.90000 2.305
85.92000 -0.771
85.94000 -1.171
85.96000 1.929
85.98000 2.808
86.00000 2.009
86.02000 1.555
86.04000 0.885
86.06000 3.519
86.08000 4.325
86.10000 5.210
86.12000 3.420
86.14000 1.931
86.16000 1.223
86.18000 3.960
86.20000 4.606
86.22000 4.837
86.24000 4.460
86.26000 3.881
86.28000 0.134
86.30000 -0.901
86.32000 -2.147
86.34000 1.490
86.36000 0.572
86.38000 -1.878
86.40000 2.464
86.42000 0.914
86.44000 4.068
86.46000 4.104
86.48000 4.354
86.50000 2.681
86.52000 1.932
86.54000 4.643
86.56000 2.933
86.58000 1.994
86.60000 2.333
86.62000 3.771
86.64000 7.009
86.66000 4.694
86.68000 3.079
86.70000 2.337
86.72000 6.861
86.74000 9.443
86.76000 4.205
86.78000 2.781
86.80000 4.223
86.82000 4.379
86.84000 2.573
86.86000 2.583
86.88000 3.063
86.90000 4.643
86.92000 3.214
86.94000 6.054
86.96000 5.500
86.98000 6.999
87.00000 4.401
87.02000 3.001
87.04000 7.425
87.06000 5.988
87.08000 4.094
87.10000 4.506
87.12000 5.103
87.14000 7.510
87.16000 8.094
87.18000 9.529
87.20000 9.953
87.22000 9.484
87.24000 14.333
87.26000 12.878
87.28000 12.269
87.30000 11.697
87.32000 13.253
87.34000 16.568
87.36000 15.365
87.38000 11.500
87.40000 12.754
87.42000 13.721
87.44000 13.399
87.46000 13.668
87.48000 17.319
87.50000 16.280
87.52000 12.736
87.54000 19.305
87.56000 24.305
87.58000 24.510
87.60000 25.900
87.62000 22.028
87.64000 16.930
87.66000 18.228
87.68000 18.616
87.70000 18.936
87.72000 16.955
87.74000 23.637
87.76000 23.380
87.78000 22.903
87.80000 20.875
87.82000 22.204
87.84000 21.965
87.86000 23.535
87.88000 23.686
87.90000 23.586
87.92000 24.353
87.94000 21.610
87.96000 17.909
87.98000 17.736
88.00000 19.163
88.02000 18.506
88.04000 22.220
88.06000 24.527
88.08000 20.593
88.10000 16.495
88.12000 17.650
88.14000 24.812
88.16000 20.856
88.18000 19.770
88.20000 17.809
88.22000 15.390
88.24000 17.615
88.26000 18.812
88.28000 15.950
88.30000 16.388
88.32000 15.715
88.34000 13.119
88.36000 13.089
88.38000 11.904
88.40000 11.433
88.42000 9.810
88.44000 9.305
88.46000 9.374
88.48000 9.592
88.50000 10.280
88.52000 9.907
88.54000 10.204
88.56000 11.171
88.58000 10.241
88.60000 7.622
88.62000 5.902
88.64000 4.983
88.66000 7.600
88.68000 9.622
88.70000 7.630
88.72000 9.927
88.74000 9.382
88.76000 8.350
88.78000 5.947
88.80000 5.335
88.82000 8.026
88.84000 5.525
88.86000 3.659
88.88000 -2.149
88.90000 1.035
88.92000 4.932
88.94000 4.520
88.96000 3.497
88.98000 0.668
89.00000 3.887
89.02000 3.487
89.04000 4.625
89.06000 3.657
89.08000 5.184
89.10000 3.924
89.12000 -1.767
89.14000 0.608
89.16000 3.604
89.18000 2.713
89.20000 0.656
89.22000 -0.036
89.24000 1.678
89.26000 2.973
89.28000 0.664
89.30000 2.286
89.32000 1.720
89.34000 2.151
89.36000 -0.149
89.38000 0.278
89.40000 2.737
89.42000 0.331
89.44000 -2.090
89.46000 -0.253
89.48000 2.729
89.50000 -0.204
89.52000 -1.133
89.54000 3.012
89.56000 5.812
89.58000 1.264
89.60000 1.047
89.62000 -0.748
89.64000 -1.117
89.66000 0.284
89.68000 2.388
89.70000 -0.233
89.72000 0.239
89.74000 0.302
89.76000 2.050
89.78000 1.716
89.80000 1.705
89.82000 1.771
89.84000 4.259
89.86000 1.679
89.88000 3.063
89.90000 4.811
89.92000 2.274
89.94000 2.211
89.96000 1.224
89.98000 1.692
90.00000 5.306
90.02000 6.443
90.04000 2.310
90.06000 -0.478
90.08000 -1.539
90.10000 -1.387
90.12000 -1.261
90.14000 -1.817
90.16000 0.539
90.18000 -1.702
90.20000 -0.230
90.22000 3.844
90.24000 4.903
90.26000 4.250
90.28000 2.200
90.30000 3.277
90.32000 0.751
90.34000 4.943
90.36000 6.805
90.38000 4.991
90.40000 5.824
90.42000 5.444
90.44000 4.887
90.46000 -0.378
90.48000 1.298
90.50000 0.458
90.52000 0.557
90.54000 1.634
90.56000 3.506
90.58000 1.438
90.60000 4.071
90.62000 4.631
90.64000 0.958
90.66000 -1.951
90.68000 4.167
90.70000 2.610
90.72000 1.651
90.74000 6.984
90.76000 2.424
90.78000 3.459
90.80000 5.976
90.82000 5.773
90.84000 4.955
90.86000 5.305
90.88000 5.936
90.90000 6.743
90.92000 6.141
90.94000 3.245
90.96000 3.071
90.98000 1.810
91.00000 1.402
91.02000 5.123
91.04000 5.152
91.06000 2.527
91.08000 1.231
91.10000 7.513
91.12000 4.965
91.14000 6.158
91.16000 3.822
91.18000 0.715
91.20000 1.962
91.22000 6.261
91.24000 3.647
91.26000 4.570
91.28000 7.509
91.30000 5.686
91.32000 2.635
91.34000 3.435
91.36000 9.068
91.38000 5.926
91.40000 3.557
91.42000 3.825
91.44000 2.974
91.46000 1.346
91.48000 2.508
91.50000 7.099
91.52000 4.885
91.54000 -1.853
91.56000 2.029
91.58000 3.726
91.60000 2.930
91.62000 5.055
91.64000 3.577
91.66000 4.522
91.68000 6.509
91.70000 4.392
91.72000 2.637
91.74000 4.347
91.76000 0.390
91.78000 0.448
91.80000 1.881
91.82000 3.503
91.84000 4.497
91.86000 1.327
91.88000 2.442
91.90000 5.071
91.92000 1.996
91.94000 3.797
91.96000 0.513
91.98000 -1.020
92.00000 -2.002
92.02000 3.657
92.04000 4.888
92.06000 2.064
92.08000 1.030
92.10000 3.552
92.12000 3.058
92.14000 6.661
92.16000 2.508
92.18000 5.429
92.20000 6.017
92.22000 4.827
92.24000 3.577
92.26000 4.362
92.28000 4.289
92.30000 1.922
92.32000 2.404
92.34000 2.898
92.36000 7.848
92.38000 9.510
92.40000 3.963
92.42000 2.295
92.44000 4.083
92.46000 3.423
92.48000 5.040
92.50000 3.337
92.52000 2.193
92.54000 2.165
92.56000 1.253
92.58000 -0.895
92.60000 -1.992
92.62000 0.950
92.64000 2.160
92.66000 4.934
92.68000 4.762
92.70000 1.068
92.72000 3.480
92.74000 4.417
92.76000 3.901
92.78000 2.457
92.80000 2.329
92.82000 1.468
92.84000 0.193
92.86000 -0.347
92.88000 -0.010
92.90000 0.116
92.92000 6.045
92.94000 5.521
92.96000 4.176
92.98000 5.092
93.00000 3.100
93.02000 0.433
93.04000 4.585
93.06000 4.430
93.08000 2.183
93.10000 -2.006
93.12000 4.369
93.14000 2.238
93.16000 -1.244
93.18000 2.844
93.20000 2.973
93.22000 3.255
93.24000 5.288
93.26000 2.244
93.28000 2.690
93.30000 1.181
93.32000 2.834
93.34000 1.171
93.36000 1.951
93.38000 -0.335
93.40000 0.347
93.42000 4.971
93.44000 2.969
93.46000 3.108
93.48000 5.300
93.50000 0.943
93.52000 -1.477
93.54000 0.125
93.56000 2.222
93.58000 -0.041
93.60000 -0.656
93.62000 -1.211
93.64000 -2.030
93.66000 0.019
93.68000 2.819
93.70000 2.391
93.72000 4.141
93.74000 3.929
93.76000 3.347
93.78000 -0.050
93.80000 0.751
93.82000 0.241
93.84000 2.763
93.86000 0.845
93.88000 0.146
93.90000 5.224
93.92000 6.695
93.94000 5.439
93.96000 2.880
93.98000 0.674
94.00000 3.753
94.02000 8.554
94.04000 4.008
94.06000 3.147
94.08000 2.829
94.10000 1.936
94.12000 -2.041
94.14000 -1.520
94.16000 3.966
94.18000 2.978
94.20000 0.195
94.22000 2.322
94.24000 1.489
94.26000 -0.389
94.28000 0.184
94.30000 1.926
94.32000 4.204
94.34000 4.662
94.36000 4.801
94.38000 3.072
94.40000 3.871
94.42000 5.205
94.44000 1.122
94.46000 2.176
94.48000 2.452
94.50000 1.372
94.52000 1.848
94.54000 -1.587
94.56000 -2.044
94.58000 -1.408
94.60000 2.623
94.62000 -0.002
94.64000 2.569
94.66000 3.695
94.68000 -0.667
94.70000 2.205
94.72000 0.721
94.74000 -0.625
94.76000 -0.404
94.78000 0.539
94.80000 -0.820
94.82000 0.112
94.84000 4.584
94.86000 3.756
94.88000 2.959
94.90000 4.634
94.92000 1.667
94.94000 0.244
94.96000 0.158
94.98000 1.910
95.00000 -0.285
95.02000 1.557
95.04000 4.215
95.06000 2.958
95.08000 -1.288
95.10000 -1.214
95.12000 -1.077
95.14000 4.586
95.16000 1.436
95.18000 1.615
95.20000 -0.760
95.22000 1.548
95.24000 -1.205
95.26000 1.602
95.28000 -0.669
95.30000 1.571
95.32000 2.909
95.34000 6.925
95.36000 5.746
95.38000 1.577
95.40000 0.907
95.42000 2.442
95.44000 1.231
95.46000 -2.049
95.48000 2.861
95.50000 3.687
95.52000 2.888
95.54000 3.702
95.56000 2.739
95.58000 0.362
95.60000 -1.740
95.62000 -2.045
95.64000 1.433
95.66000 1.693
95.68000 1.581
95.70000 1.522
95.72000 7.242
95.74000 9.238
95.76000 5.117
95.78000 2.601
95.80000 5.429
95.82000 -1.330
95.84000 2.092
95.86000 4.377
95.88000 1.869
95.90000 2.404
95.92000 0.532
95.94000 1.105
95.96000 4.996
95.98000 7.289
96.00000 1.926
96.02000 0.527
96.04000 2.344
96.06000 2.694
96.08000 3.502
96.10000 2.192
96.12000 -0.923
96.14000 2.730
96.16000 5.576
96.18000 7.330
96.20000 4.166
96.22000 3.294
96.24000 3.971
96.26000 4.907
96.28000 6.415
96.30000 3.255
96.32000 -0.926
96.34000 -0.078
96.36000 5.069
96.38000 2.581
96.40000 4.329
96.42000 3.031
96.44000 4.952
96.46000 2.462
96.48000 -0.873
96.50000 1.901
96.52000 0.104
96.54000 0.578
96.56000 0.312
96.58000 2.075
96.60000 0.509
96.62000 3.003
96.64000 1.056
96.66000 3.248
96.68000 4.698
96.70000 6.923
96.72000 7.619
96.74000 8.248
96.76000 -1.566
96.78000 -2.000
96.80000 2.488
96.82000 -0.058
96.84000 2.441
96.86000 3.000
96.88000 4.667
96.90000 7.264
96.92000 12.515
96.94000 4.873
96.96000 1.671
96.98000 1.768
97.00000 6.240
97.02000 6.188
97.04000 -0.023
97.06000 -0.067
97.08000 7.922
97.10000 6.384
97.12000 0.956
97.14000 -1.925
97.16000 2.643
97.18000 5.574
97.20000 0.500
97.22000 3.957
97.24000 3.102
97.26000 3.922
97.28000 5.961
97.30000 3.032
97.32000 3.768
97.34000 4.920
97.36000 7.664
97.38000 3.462
97.40000 -0.386
97.42000 -2.006
97.44000 0.064
97.46000 1.990
97.48000 2.055
97.50000 -0.610
97.52000 -0.137
97.54000 1.704
97.56000 6.924
97.58000 2.502
97.60000 4.562
97.62000 10.711
97.64000 9.157
97.66000 6.354
97.68000 3.621
97.70000 1.677
97.72000 5.135
97.74000 5.416
97.76000 1.235
97.78000 0.664
97.80000 -0.933
97.82000 3.824
97.84000 5.001
97.86000 1.780
97.88000 0.089
97.90000 2.891
97.92000 4.322
97.94000 0.567
97.96000 0.598
97.98000 7.311
98.00000 9.654
98.02000 6.326
98.04000 5.481
98.06000 -1.350
98.08000 -1.979
98.10000 0.316
98.12000 1.726
98.14000 4.732
98.16000 -1.219
98.18000 5.595
98.20000 4.079
98.22000 4.583
98.24000 4.827
98.26000 -0.860
98.28000 0.889
98.30000 6.076
98.32000 7.298
98.34000 2.322
98.36000 1.274
98.38000 0.462
98.40000 7.657
98.42000 2.751
98.44000 1.843
98.46000 2.522
98.48000 11.506
98.50000 13.156
98.52000 5.210
98.54000 10.081
98.56000 10.785
98.58000 6.966
98.60000 10.495
98.62000 9.917
98.64000 7.273
98.66000 8.468
98.68000 -1.937
98.70000 0.461
98.72000 7.045
98.74000 4.422
98.76000 2.002
98.78000 8.924
98.80000 7.567
98.82000 6.871
98.84000 2.629
98.86000 5.106
98.88000 3.263
98.90000 1.836
98.92000 3.474
98.94000 12.745
98.96000 15.838
98.98000 2.713
99.00000 2.312
99.02000 4.299
99.04000 0.196
99.06000 1.748
99.08000 0.246
99.10000 6.381
99.12000 7.501
99.14000 8.535
99.16000 9.807
99.18000 10.127
99.20000 3.256
99.22000 5.170
99.24000 9.385
99.26000 10.379
99.28000 9.906
99.30000 6.100
99.32000 5.916
99.34000 4.738
99.36000 -0.321
99.38000 0.431
99.40000 1.917
99.42000 -1.796
99.44000 -0.324
99.46000 1.748
99.48000 1.949
99.50000 5.652
99.52000 5.455
99.54000 2.197
99.56000 4.501
99.58000 -0.417
99.60000 6.628
99.62000 2.018
99.64000 5.211
99.66000 6.955
99.68000 -1.514
99.70000 -0.366
99.72000 1.936
99.74000 4.276
99.76000 7.803
99.78000 2.432
99.80000 0.451
99.82000 2.061
99.84000 5.095
99.86000 3.050
99.88000 -1.989
99.90000 1.587
99.92000 17.407
99.94000 11.717
99.96000 9.755
99.98000 0.000
