'Id: "0011389" Comment: "Integrate frame 0011389_Au-Ir-Rh_Au-Rich_XRD_Mapping-156-0000.gfrmwith cursor Wedge Cursor #5" Operator: "B?rgel" Anode: "Cu" Wavelength: "1.5406" Scantype: "2Theta (TwoTheta)" TimePerStep: "1" X: "45" Y: "-4.5" Z: "5.95" 
10.00000 0.000
10.02000 -2.714
10.04000 -2.639
10.06000 4.251
10.08000 0.299
10.10000 8.923
10.12000 5.692
10.14000 5.575
10.16000 13.934
10.18000 13.932
10.20000 12.053
10.22000 18.178
10.24000 13.151
10.26000 10.072
10.28000 11.332
10.30000 16.221
10.32000 21.577
10.34000 28.801
10.36000 26.077
10.38000 12.822
10.40000 4.906
10.42000 13.014
10.44000 2.178
10.46000 13.095
10.48000 21.878
10.50000 13.693
10.52000 20.313
10.54000 25.763
10.56000 17.853
10.58000 19.728
10.60000 23.706
10.62000 29.828
10.64000 22.762
10.66000 17.740
10.68000 24.800
10.70000 28.820
10.72000 26.491
10.74000 39.538
10.76000 38.993
10.78000 30.068
10.80000 15.672
10.82000 12.721
10.84000 28.348
10.86000 23.632
10.88000 28.274
10.90000 34.230
10.92000 35.239
10.94000 42.220
10.96000 49.859
10.98000 35.420
11.00000 34.943
11.02000 39.820
11.04000 41.249
11.06000 38.875
11.08000 35.887
11.10000 27.718
11.12000 24.637
11.14000 27.886
11.16000 39.452
11.18000 46.389
11.20000 43.626
11.22000 41.315
11.24000 49.519
11.26000 42.018
11.28000 41.301
11.30000 36.708
11.32000 48.689
11.34000 44.094
11.36000 54.417
11.38000 53.608
11.40000 46.750
11.42000 55.664
11.44000 47.950
11.46000 44.226
11.48000 45.204
11.50000 45.730
11.52000 38.566
11.54000 44.292
11.56000 51.182
11.58000 56.818
11.60000 56.877
11.62000 57.250
11.64000 50.537
11.66000 41.637
11.68000 43.763
11.70000 53.738
11.72000 53.932
11.74000 56.711
11.76000 58.560
11.78000 53.984
11.80000 47.278
11.82000 47.265
11.84000 47.122
11.86000 48.625
11.88000 57.432
11.90000 58.188
11.92000 51.718
11.94000 58.244
11.96000 64.635
11.98000 60.881
12.00000 63.354
12.02000 54.671
12.04000 57.088
12.06000 63.090
12.08000 53.384
12.10000 56.210
12.12000 59.018
12.14000 63.656
12.16000 67.275
12.18000 61.319
12.20000 60.221
12.22000 58.387
12.24000 52.307
12.26000 54.752
12.28000 67.369
12.30000 67.413
12.32000 62.400
12.34000 64.240
12.36000 66.109
12.38000 60.577
12.40000 51.476
12.42000 54.046
12.44000 53.618
12.46000 70.458
12.48000 76.886
12.50000 71.559
12.52000 63.482
12.54000 57.672
12.56000 56.839
12.58000 67.539
12.60000 58.552
12.62000 56.003
12.64000 55.837
12.66000 57.872
12.68000 64.776
12.70000 68.427
12.72000 65.613
12.74000 68.889
12.76000 64.440
12.78000 61.836
12.80000 68.205
12.82000 65.098
12.84000 59.674
12.86000 76.940
12.88000 70.466
12.90000 57.341
12.92000 61.235
12.94000 61.390
12.96000 71.099
12.98000 68.545
13.00000 66.083
13.02000 65.060
13.04000 62.580
13.06000 50.987
13.08000 57.725
13.10000 67.596
13.12000 57.867
13.14000 54.798
13.16000 59.837
13.18000 57.401
13.20000 68.202
13.22000 69.150
13.24000 71.348
13.26000 59.857
13.28000 57.409
13.30000 56.039
13.32000 70.056
13.34000 71.537
13.36000 70.624
13.38000 74.572
13.40000 67.441
13.42000 62.091
13.44000 61.115
13.46000 70.645
13.48000 57.516
13.50000 53.786
13.52000 57.523
13.54000 58.536
13.56000 61.369
13.58000 61.989
13.60000 54.337
13.62000 47.411
13.64000 57.079
13.66000 62.759
13.68000 57.298
13.70000 57.130
13.72000 55.733
13.74000 56.700
13.76000 50.593
13.78000 53.068
13.80000 55.168
13.82000 59.692
13.84000 58.686
13.86000 53.334
13.88000 59.681
13.90000 62.098
13.92000 48.234
13.94000 48.704
13.96000 57.265
13.98000 51.812
14.00000 50.503
14.02000 52.404
14.04000 52.728
14.06000 54.657
14.08000 46.044
14.10000 48.516
14.12000 60.911
14.14000 55.212
14.16000 50.211
14.18000 52.422
14.20000 50.945
14.22000 49.521
14.24000 46.822
14.26000 52.930
14.28000 56.608
14.30000 58.200
14.32000 51.502
14.34000 44.305
14.36000 40.620
14.38000 36.594
14.40000 46.599
14.42000 53.461
14.44000 52.905
14.46000 49.811
14.48000 41.058
14.50000 43.832
14.52000 43.914
14.54000 35.786
14.56000 51.789
14.58000 50.313
14.60000 45.998
14.62000 46.827
14.64000 50.783
14.66000 49.707
14.68000 40.266
14.70000 41.225
14.72000 47.349
14.74000 46.203
14.76000 48.095
14.78000 47.276
14.80000 41.037
14.82000 46.136
14.84000 43.448
14.86000 49.794
14.88000 44.958
14.90000 41.002
14.92000 35.021
14.94000 42.086
14.96000 41.471
14.98000 43.670
15.00000 39.741
15.02000 39.434
15.04000 40.559
15.06000 29.116
15.08000 36.884
15.10000 47.304
15.12000 40.563
15.14000 34.104
15.16000 37.617
15.18000 38.475
15.20000 44.370
15.22000 38.640
15.24000 40.543
15.26000 44.870
15.28000 36.781
15.30000 43.520
15.32000 38.450
15.34000 29.190
15.36000 26.914
15.38000 25.041
15.40000 28.656
15.42000 27.986
15.44000 29.733
15.46000 35.365
15.48000 41.261
15.50000 43.319
15.52000 39.080
15.54000 32.709
15.56000 38.420
15.58000 29.881
15.60000 30.200
15.62000 38.290
15.64000 35.373
15.66000 31.983
15.68000 32.192
15.70000 34.531
15.72000 36.292
15.74000 37.441
15.76000 29.802
15.78000 28.343
15.80000 30.237
15.82000 35.652
15.84000 39.295
15.86000 32.387
15.88000 24.197
15.90000 22.078
15.92000 27.357
15.94000 31.479
15.96000 37.200
15.98000 27.849
16.00000 24.561
16.02000 29.941
16.04000 26.046
16.06000 25.848
16.08000 25.036
16.10000 31.358
16.12000 36.592
16.14000 29.706
16.16000 28.556
16.18000 29.314
16.20000 34.680
16.22000 24.626
16.24000 25.794
16.26000 22.701
16.28000 20.512
16.30000 14.465
16.32000 19.601
16.34000 27.335
16.36000 30.781
16.38000 27.471
16.40000 31.054
16.42000 32.955
16.44000 31.798
16.46000 28.735
16.48000 26.560
16.50000 18.267
16.52000 21.846
16.54000 24.128
16.56000 19.969
16.58000 22.117
16.60000 27.129
16.62000 25.570
16.64000 8.284
16.66000 11.681
16.68000 23.439
16.70000 22.684
16.72000 21.648
16.74000 27.809
16.76000 30.125
16.78000 21.234
16.80000 19.996
16.82000 17.661
16.84000 17.950
16.86000 23.910
16.88000 17.382
16.90000 19.047
16.92000 18.716
16.94000 19.756
16.96000 24.278
16.98000 17.904
17.00000 16.194
17.02000 22.172
17.04000 13.080
17.06000 11.033
17.08000 19.576
17.10000 29.490
17.12000 27.848
17.14000 19.904
17.16000 19.971
17.18000 18.578
17.20000 11.616
17.22000 24.488
17.24000 19.255
17.26000 13.184
17.28000 4.190
17.30000 5.464
17.32000 11.702
17.34000 15.157
17.36000 28.185
17.38000 25.037
17.40000 14.059
17.42000 11.779
17.44000 11.025
17.46000 19.739
17.48000 20.372
17.50000 17.633
17.52000 14.706
17.54000 8.175
17.56000 6.631
17.58000 10.158
17.60000 20.521
17.62000 10.135
17.64000 4.137
17.66000 18.869
17.68000 20.310
17.70000 17.620
17.72000 14.082
17.74000 15.807
17.76000 18.247
17.78000 11.008
17.80000 11.398
17.82000 10.852
17.84000 5.321
17.86000 9.592
17.88000 10.473
17.90000 10.648
17.92000 16.068
17.94000 13.506
17.96000 12.067
17.98000 14.139
18.00000 14.451
18.02000 7.660
18.04000 12.425
18.06000 13.560
18.08000 23.686
18.10000 21.701
18.12000 12.909
18.14000 10.091
18.16000 10.661
18.18000 18.894
18.20000 7.885
18.22000 0.723
18.24000 4.317
18.26000 8.278
18.28000 9.525
18.30000 14.259
18.32000 12.440
18.34000 5.181
18.36000 6.577
18.38000 4.420
18.40000 0.273
18.42000 5.253
18.44000 4.167
18.46000 9.110
18.48000 9.126
18.50000 9.922
18.52000 11.638
18.54000 5.677
18.56000 13.151
18.58000 13.792
18.60000 9.115
18.62000 12.460
18.64000 9.661
18.66000 3.168
18.68000 3.300
18.70000 3.505
18.72000 6.153
18.74000 3.609
18.76000 5.258
18.78000 4.349
18.80000 1.078
18.82000 6.208
18.84000 12.213
18.86000 10.826
18.88000 4.823
18.90000 7.407
18.92000 12.258
18.94000 7.980
18.96000 -4.283
18.98000 3.183
19.00000 5.314
19.02000 10.072
19.04000 9.792
19.06000 2.901
19.08000 0.555
19.10000 5.466
19.12000 4.790
19.14000 9.025
19.16000 12.071
19.18000 8.575
19.20000 2.610
19.22000 7.251
19.24000 9.731
19.26000 7.698
19.28000 12.230
19.30000 8.262
19.32000 13.168
19.34000 8.858
19.36000 2.800
19.38000 -2.962
19.40000 -3.780
19.42000 0.426
19.44000 5.141
19.46000 8.032
19.48000 6.793
19.50000 10.064
19.52000 0.958
19.54000 -4.265
19.56000 -3.009
19.58000 4.483
19.60000 9.027
19.62000 3.599
19.64000 3.068
19.66000 2.407
19.68000 1.116
19.70000 7.187
19.72000 7.187
19.74000 4.862
19.76000 5.393
19.78000 7.047
19.80000 2.239
19.82000 2.585
19.84000 3.094
19.86000 8.672
19.88000 2.595
19.90000 4.234
19.92000 9.938
19.94000 4.632
19.96000 3.749
19.98000 0.520
20.00000 1.290
20.02000 -2.515
20.04000 -3.839
20.06000 3.122
20.08000 8.093
20.10000 7.339
20.12000 -0.009
20.14000 -2.266
20.16000 4.402
20.18000 4.490
20.20000 -0.357
20.22000 -0.244
20.24000 -0.867
20.26000 5.805
20.28000 9.576
20.30000 -3.812
20.32000 1.901
20.34000 1.076
20.36000 -1.652
20.38000 2.858
20.40000 2.900
20.42000 1.069
20.44000 1.961
20.46000 -4.161
20.48000 4.015
20.50000 3.513
20.52000 2.983
20.54000 -0.298
20.56000 0.468
20.58000 -1.442
20.60000 1.974
20.62000 0.996
20.64000 -0.522
20.66000 0.681
20.68000 -1.999
20.70000 -2.469
20.72000 -1.648
20.74000 0.623
20.76000 -0.734
20.78000 0.905
20.80000 -2.025
20.82000 2.271
20.84000 -2.523
20.86000 -2.929
20.88000 1.647
20.90000 2.174
20.92000 2.872
20.94000 -2.089
20.96000 2.350
20.98000 0.788
21.00000 -1.551
21.02000 1.211
21.04000 0.408
21.06000 1.194
21.08000 0.970
21.10000 6.994
21.12000 11.092
21.14000 4.465
21.16000 1.802
21.18000 7.845
21.20000 4.303
21.22000 7.669
21.24000 -0.145
21.26000 6.663
21.28000 -0.051
21.30000 -3.465
21.32000 2.251
21.34000 -2.056
21.36000 -0.114
21.38000 -3.739
21.40000 0.334
21.42000 -4.177
21.44000 2.363
21.46000 5.304
21.48000 4.429
21.50000 1.384
21.52000 3.728
21.54000 4.661
21.56000 3.495
21.58000 6.489
21.60000 -1.008
21.62000 -1.637
21.64000 -3.539
21.66000 0.636
21.68000 3.813
21.70000 3.885
21.72000 5.595
21.74000 7.291
21.76000 4.206
21.78000 0.499
21.80000 3.250
21.82000 4.940
21.84000 1.699
21.86000 3.335
21.88000 12.797
21.90000 7.248
21.92000 1.885
21.94000 -1.013
21.96000 0.934
21.98000 5.850
22.00000 6.844
22.02000 1.202
22.04000 1.349
22.06000 2.116
22.08000 4.191
22.10000 2.053
22.12000 -0.381
22.14000 1.741
22.16000 2.353
22.18000 -0.918
22.20000 -1.787
22.22000 1.712
22.24000 2.001
22.26000 -4.128
22.28000 1.105
22.30000 -1.630
22.32000 1.811
22.34000 1.484
22.36000 -2.888
22.38000 -0.917
22.40000 3.951
22.42000 9.128
22.44000 3.513
22.46000 -1.833
22.48000 4.241
22.50000 4.547
22.52000 2.979
22.54000 5.094
22.56000 2.024
22.58000 6.789
22.60000 1.895
22.62000 0.488
22.64000 7.853
22.66000 3.537
22.68000 2.573
22.70000 3.248
22.72000 1.724
22.74000 3.943
22.76000 6.760
22.78000 4.879
22.80000 4.508
22.82000 7.372
22.84000 7.581
22.86000 6.937
22.88000 2.318
22.90000 -4.087
22.92000 2.784
22.94000 11.058
22.96000 6.257
22.98000 3.445
23.00000 6.925
23.02000 5.584
23.04000 3.735
23.06000 2.789
23.08000 -1.061
23.10000 4.835
23.12000 11.388
23.14000 4.441
23.16000 -3.559
23.18000 -4.077
23.20000 -3.032
23.22000 3.400
23.24000 2.102
23.26000 2.034
23.28000 3.918
23.30000 -1.063
23.32000 1.603
23.34000 4.776
23.36000 3.879
23.38000 2.473
23.40000 0.457
23.42000 -3.586
23.44000 -0.861
23.46000 -2.001
23.48000 -0.624
23.50000 5.791
23.52000 1.503
23.54000 0.765
23.56000 3.156
23.58000 2.305
23.60000 6.781
23.62000 8.886
23.64000 3.374
23.66000 -1.944
23.68000 2.727
23.70000 0.959
23.72000 5.529
23.74000 5.535
23.76000 0.979
23.78000 3.852
23.80000 2.246
23.82000 2.601
23.84000 2.722
23.86000 -0.037
23.88000 2.803
23.90000 -1.326
23.92000 -1.969
23.94000 1.236
23.96000 2.220
23.98000 5.514
24.00000 -0.728
24.02000 2.865
24.04000 6.503
24.06000 0.860
24.08000 -0.479
24.10000 1.615
24.12000 -2.168
24.14000 -4.031
24.16000 -2.214
24.18000 0.054
24.20000 3.520
24.22000 4.236
24.24000 2.629
24.26000 4.327
24.28000 3.568
24.30000 -2.247
24.32000 -0.882
24.34000 -1.361
24.36000 2.331
24.38000 2.947
24.40000 1.311
24.42000 1.165
24.44000 0.809
24.46000 5.242
24.48000 5.457
24.50000 4.401
24.52000 7.211
24.54000 1.270
24.56000 4.326
24.58000 5.582
24.60000 4.989
24.62000 3.115
24.64000 2.806
24.66000 7.102
24.68000 3.804
24.70000 -3.987
24.72000 -1.756
24.74000 1.319
24.76000 -1.182
24.78000 3.504
24.80000 10.135
24.82000 5.268
24.84000 -0.357
24.86000 -0.340
24.88000 -0.786
24.90000 -2.353
24.92000 3.855
24.94000 5.302
24.96000 1.717
24.98000 -0.671
25.00000 1.895
25.02000 1.424
25.04000 2.062
25.06000 1.235
25.08000 1.763
25.10000 4.358
25.12000 4.806
25.14000 7.291
25.16000 8.731
25.18000 5.047
25.20000 2.246
25.22000 1.959
25.24000 3.872
25.26000 4.523
25.28000 -0.579
25.30000 1.474
25.32000 2.654
25.34000 0.048
25.36000 -0.135
25.38000 5.926
25.40000 1.900
25.42000 -3.945
25.44000 4.583
25.46000 6.388
25.48000 2.302
25.50000 -0.228
25.52000 1.773
25.54000 1.543
25.56000 0.261
25.58000 2.792
25.60000 2.602
25.62000 2.592
25.64000 0.679
25.66000 5.828
25.68000 8.360
25.70000 5.873
25.72000 6.548
25.74000 9.020
25.76000 9.399
25.78000 7.173
25.80000 5.660
25.82000 8.448
25.84000 11.700
25.86000 6.327
25.88000 3.162
25.90000 3.653
25.92000 3.464
25.94000 4.078
25.96000 6.976
25.98000 7.424
26.00000 2.659
26.02000 5.871
26.04000 4.517
26.06000 -3.903
26.08000 -0.581
26.10000 4.141
26.12000 8.997
26.14000 9.103
26.16000 3.990
26.18000 3.853
26.20000 6.031
26.22000 4.085
26.24000 5.169
26.26000 4.004
26.28000 9.043
26.30000 10.855
26.32000 -1.365
26.34000 -0.651
26.36000 1.265
26.38000 -0.582
26.40000 -0.834
26.42000 -1.635
26.44000 -1.117
26.46000 -1.030
26.48000 -0.198
26.50000 0.462
26.52000 0.861
26.54000 1.683
26.56000 -0.537
26.58000 -0.009
26.60000 0.760
26.62000 -1.955
26.64000 7.986
26.66000 7.535
26.68000 5.820
26.70000 2.176
26.72000 1.378
26.74000 8.382
26.76000 6.599
26.78000 2.823
26.80000 1.878
26.82000 1.841
26.84000 1.891
26.86000 2.907
26.88000 2.339
26.90000 0.933
26.92000 2.694
26.94000 5.382
26.96000 4.203
26.98000 8.515
27.00000 7.044
27.02000 7.758
27.04000 8.659
27.06000 2.443
27.08000 3.991
27.10000 3.112
27.12000 -0.779
27.14000 -0.781
27.16000 -0.158
27.18000 9.429
27.20000 7.679
27.22000 7.429
27.24000 7.311
27.26000 4.393
27.28000 8.622
27.30000 8.891
27.32000 3.355
27.34000 -3.834
27.36000 0.632
27.38000 8.012
27.40000 8.136
27.42000 8.176
27.44000 8.105
27.46000 4.456
27.48000 4.730
27.50000 7.936
27.52000 6.920
27.54000 0.847
27.56000 -3.814
27.58000 -0.399
27.60000 3.343
27.62000 -0.875
27.64000 -0.441
27.66000 -0.012
27.68000 2.672
27.70000 3.906
27.72000 1.914
27.74000 11.243
27.76000 7.125
27.78000 9.662
27.80000 8.820
27.82000 6.048
27.84000 0.250
27.86000 -1.126
27.88000 -2.887
27.90000 2.023
27.92000 6.875
27.94000 5.435
27.96000 3.061
27.98000 4.026
28.00000 4.167
28.02000 5.052
28.04000 9.094
28.06000 4.990
28.08000 1.883
28.10000 6.047
28.12000 9.815
28.14000 1.981
28.16000 -1.334
28.18000 0.404
28.20000 1.347
28.22000 3.808
28.24000 6.934
28.26000 2.851
28.28000 1.145
28.30000 3.255
28.32000 4.449
28.34000 1.315
28.36000 0.779
28.38000 3.096
28.40000 5.326
28.42000 3.714
28.44000 1.544
28.46000 7.010
28.48000 6.238
28.50000 7.642
28.52000 11.708
28.54000 5.710
28.56000 7.530
28.58000 6.944
28.60000 7.195
28.62000 5.320
28.64000 7.996
28.66000 4.113
28.68000 4.089
28.70000 2.941
28.72000 -3.746
28.74000 -1.341
28.76000 0.672
28.78000 -1.647
28.80000 3.371
28.82000 7.151
28.84000 4.945
28.86000 5.395
28.88000 -0.537
28.90000 0.023
28.92000 3.304
28.94000 7.299
28.96000 4.885
28.98000 8.961
29.00000 5.715
29.02000 6.514
29.04000 9.171
29.06000 6.992
29.08000 7.502
29.10000 5.995
29.12000 3.700
29.14000 3.299
29.16000 2.794
29.18000 9.041
29.20000 3.580
29.22000 6.212
29.24000 8.794
29.26000 8.070
29.28000 4.109
29.30000 1.025
29.32000 0.378
29.34000 0.707
29.36000 0.837
29.38000 -0.403
29.40000 0.418
29.42000 4.047
29.44000 1.076
29.46000 3.141
29.48000 3.476
29.50000 4.197
29.52000 4.694
29.54000 7.033
29.56000 3.366
29.58000 4.331
29.60000 1.642
29.62000 -1.036
29.64000 3.717
29.66000 3.311
29.68000 -0.635
29.70000 1.769
29.72000 8.120
29.74000 10.281
29.76000 8.371
29.78000 1.224
29.80000 0.629
29.82000 2.876
29.84000 3.156
29.86000 0.577
29.88000 -3.695
29.90000 3.234
29.92000 2.251
29.94000 5.652
29.96000 3.349
29.98000 3.636
30.00000 1.966
30.02000 2.878
30.04000 5.016
30.06000 5.940
30.08000 2.537
30.10000 5.643
30.12000 4.194
30.14000 -3.700
30.16000 -0.026
30.18000 4.715
30.20000 1.142
30.22000 5.817
30.24000 4.468
30.26000 3.086
30.28000 1.381
30.30000 -2.454
30.32000 -1.380
30.34000 -0.657
30.36000 3.156
30.38000 1.014
30.40000 1.551
30.42000 0.891
30.44000 3.657
30.46000 3.147
30.48000 7.770
30.50000 4.355
30.52000 4.881
30.54000 7.283
30.56000 4.892
30.58000 4.942
30.60000 1.495
30.62000 1.125
30.64000 5.744
30.66000 2.531
30.68000 1.751
30.70000 3.154
30.72000 5.185
30.74000 6.088
30.76000 0.984
30.78000 2.108
30.80000 1.282
30.82000 3.980
30.84000 -0.461
30.86000 -1.537
30.88000 -0.327
30.90000 0.232
30.92000 2.363
30.94000 4.835
30.96000 1.753
30.98000 4.356
31.00000 5.068
31.02000 -0.275
31.04000 -0.124
31.06000 5.318
31.08000 4.197
31.10000 1.684
31.12000 3.159
31.14000 4.938
31.16000 1.110
31.18000 0.247
31.20000 -1.531
31.22000 -2.791
31.24000 -1.480
31.26000 -3.679
31.28000 0.812
31.30000 0.169
31.32000 2.938
31.34000 -2.753
31.36000 -2.068
31.38000 0.568
31.40000 1.566
31.42000 1.249
31.44000 3.559
31.46000 0.427
31.48000 2.119
31.50000 1.914
31.52000 2.457
31.54000 4.176
31.56000 4.176
31.58000 -1.197
31.60000 1.270
31.62000 2.126
31.64000 -0.736
31.66000 -1.628
31.68000 0.406
31.70000 1.650
31.72000 3.552
31.74000 0.192
31.76000 1.488
31.78000 -1.004
31.80000 1.405
31.82000 1.316
31.84000 2.682
31.86000 -0.171
31.88000 -3.539
31.90000 -0.390
31.92000 1.963
31.94000 4.350
31.96000 0.097
31.98000 -1.918
32.00000 0.231
32.02000 -1.507
32.04000 -2.905
32.06000 1.417
32.08000 5.260
32.10000 3.444
32.12000 0.842
32.14000 7.109
32.16000 5.194
32.18000 2.331
32.20000 1.874
32.22000 4.922
32.24000 4.636
32.26000 3.507
32.28000 3.295
32.30000 5.723
32.32000 9.269
32.34000 6.249
32.36000 9.349
32.38000 8.129
32.40000 3.120
32.42000 3.469
32.44000 8.344
32.46000 8.577
32.48000 6.107
32.50000 6.233
32.52000 3.443
32.54000 2.805
32.56000 1.251
32.58000 -0.281
32.60000 1.299
32.62000 4.933
32.64000 4.027
32.66000 2.316
32.68000 5.486
32.70000 2.886
32.72000 4.193
32.74000 5.530
32.76000 6.067
32.78000 9.118
32.80000 10.322
32.82000 5.238
32.84000 -1.280
32.86000 -3.593
32.88000 -0.367
32.90000 5.389
32.92000 6.029
32.94000 4.255
32.96000 -1.871
32.98000 -0.374
33.00000 6.247
33.02000 8.010
33.04000 4.642
33.06000 7.630
33.08000 3.540
33.10000 8.864
33.12000 7.309
33.14000 4.188
33.16000 3.957
33.18000 2.483
33.20000 3.122
33.22000 4.938
33.24000 8.404
33.26000 7.595
33.28000 7.907
33.30000 3.352
33.32000 3.928
33.34000 2.052
33.36000 6.030
33.38000 4.159
33.40000 4.030
33.42000 7.959
33.44000 9.192
33.46000 10.312
33.48000 5.066
33.50000 5.954
33.52000 7.263
33.54000 7.635
33.56000 3.787
33.58000 4.929
33.60000 7.967
33.62000 4.020
33.64000 3.748
33.66000 5.212
33.68000 7.049
33.70000 8.046
33.72000 6.158
33.74000 2.135
33.76000 3.981
33.78000 0.075
33.80000 0.134
33.82000 1.538
33.84000 6.454
33.86000 7.059
33.88000 -0.439
33.90000 -1.077
33.92000 5.628
33.94000 3.891
33.96000 8.640
33.98000 8.631
34.00000 4.585
34.02000 5.863
34.04000 8.018
34.06000 5.604
34.08000 6.344
34.10000 3.389
34.12000 3.383
34.14000 2.447
34.16000 6.030
34.18000 8.816
34.20000 7.996
34.22000 4.991
34.24000 4.400
34.26000 4.781
34.28000 3.129
34.30000 4.199
34.32000 5.369
34.34000 3.813
34.36000 1.343
34.38000 3.092
34.40000 5.761
34.42000 12.016
34.44000 8.798
34.46000 6.982
34.48000 5.587
34.50000 7.156
34.52000 4.379
34.54000 1.260
34.56000 -3.561
34.58000 -1.362
34.60000 1.260
34.62000 3.762
34.64000 7.838
34.66000 8.065
34.68000 9.574
34.70000 5.077
34.72000 4.239
34.74000 3.569
34.76000 1.648
34.78000 2.096
34.80000 2.198
34.82000 2.617
34.84000 -2.558
34.86000 2.600
34.88000 5.113
34.90000 5.527
34.92000 9.231
34.94000 6.827
34.96000 0.153
34.98000 5.635
35.00000 6.659
35.02000 8.233
35.04000 2.273
35.06000 4.232
35.08000 1.268
35.10000 2.791
35.12000 3.857
35.14000 0.831
35.16000 -3.298
35.18000 -3.559
35.20000 3.106
35.22000 2.403
35.24000 2.673
35.26000 0.780
35.28000 0.759
35.30000 2.482
35.32000 5.702
35.34000 2.862
35.36000 3.310
35.38000 2.925
35.40000 4.231
35.42000 1.334
35.44000 0.323
35.46000 -1.721
35.48000 -0.614
35.50000 3.224
35.52000 4.136
35.54000 1.890
35.56000 0.216
35.58000 -0.375
35.60000 -3.258
35.62000 1.903
35.64000 1.770
35.66000 0.331
35.68000 1.504
35.70000 4.273
35.72000 0.195
35.74000 -0.202
35.76000 -3.571
35.78000 -2.100
35.80000 -0.299
35.82000 3.777
35.84000 9.046
35.86000 5.100
35.88000 2.059
35.90000 1.977
35.92000 3.021
35.94000 2.588
35.96000 6.938
35.98000 7.273
36.00000 5.924
36.02000 7.940
36.04000 9.561
36.06000 6.237
36.08000 4.965
36.10000 6.516
36.12000 7.116
36.14000 5.291
36.16000 1.831
36.18000 3.969
36.20000 7.657
36.22000 4.040
36.24000 4.592
36.26000 4.669
36.28000 2.471
36.30000 3.096
36.32000 4.913
36.34000 1.271
36.36000 -0.439
36.38000 -2.436
36.40000 -0.240
36.42000 -0.742
36.44000 3.518
36.46000 5.478
36.48000 7.385
36.50000 8.513
36.52000 7.997
36.54000 4.217
36.56000 2.782
36.58000 4.567
36.60000 3.243
36.62000 4.318
36.64000 4.965
36.66000 6.768
36.68000 11.910
36.70000 13.566
36.72000 8.332
36.74000 -0.467
36.76000 -3.580
36.78000 2.825
36.80000 7.394
36.82000 6.559
36.84000 6.186
36.86000 7.422
36.88000 9.673
36.90000 4.479
36.92000 10.200
36.94000 12.127
36.96000 5.733
36.98000 8.525
37.00000 6.740
37.02000 3.579
37.04000 1.421
37.06000 -0.310
37.08000 3.564
37.10000 6.294
37.12000 6.870
37.14000 7.009
37.16000 7.660
37.18000 5.755
37.20000 7.349
37.22000 6.507
37.24000 4.595
37.26000 7.584
37.28000 9.164
37.30000 6.224
37.32000 4.838
37.34000 5.705
37.36000 5.135
37.38000 8.771
37.40000 10.780
37.42000 14.326
37.44000 7.147
37.46000 3.834
37.48000 7.953
37.50000 7.299
37.52000 6.723
37.54000 9.859
37.56000 11.318
37.58000 8.826
37.60000 9.086
37.62000 10.529
37.64000 11.990
37.66000 8.161
37.68000 14.231
37.70000 13.393
37.72000 13.112
37.74000 12.160
37.76000 13.367
37.78000 8.939
37.80000 9.397
37.82000 19.235
37.84000 18.429
37.86000 16.429
37.88000 14.036
37.90000 15.472
37.92000 18.340
37.94000 15.439
37.96000 12.541
37.98000 14.672
38.00000 22.680
38.02000 24.216
38.04000 19.417
38.06000 20.240
38.08000 19.675
38.10000 19.679
38.12000 22.612
38.14000 24.859
38.16000 27.758
38.18000 28.659
38.20000 30.228
38.22000 24.412
38.24000 26.376
38.26000 30.033
38.28000 37.983
38.30000 34.749
38.32000 30.601
38.34000 32.442
38.36000 34.857
38.38000 30.288
38.40000 39.183
38.42000 36.829
38.44000 39.253
38.46000 45.085
38.48000 42.493
38.50000 43.033
38.52000 47.470
38.54000 47.857
38.56000 52.313
38.58000 53.297
38.60000 55.386
38.62000 57.114
38.64000 52.639
38.66000 59.786
38.68000 59.313
38.70000 65.183
38.72000 71.685
38.74000 69.246
38.76000 66.770
38.78000 68.543
38.80000 71.858
38.82000 74.735
38.84000 81.247
38.86000 81.360
38.88000 81.595
38.90000 90.984
38.92000 97.197
38.94000 104.010
38.96000 108.156
38.98000 106.583
39.00000 105.319
39.02000 114.373
39.04000 128.823
39.06000 140.325
39.08000 141.903
39.10000 149.356
39.12000 155.192
39.14000 160.507
39.16000 173.527
39.18000 177.263
39.20000 188.090
39.22000 197.777
39.24000 208.266
39.26000 216.418
39.28000 234.307
39.30000 247.187
39.32000 262.307
39.34000 271.856
39.36000 288.045
39.38000 299.768
39.40000 318.441
39.42000 330.730
39.44000 356.878
39.46000 376.799
39.48000 389.682
39.50000 403.877
39.52000 426.626
39.54000 452.035
39.56000 467.993
39.58000 476.321
39.60000 494.348
39.62000 517.532
39.64000 533.944
39.66000 550.212
39.68000 578.745
39.70000 605.665
39.72000 621.634
39.74000 633.697
39.76000 629.743
39.78000 646.317
39.80000 656.703
39.82000 664.928
39.84000 666.207
39.86000 675.669
39.88000 671.151
39.90000 671.379
39.92000 668.899
39.94000 657.855
39.96000 645.004
39.98000 644.443
40.00000 634.614
40.02000 616.457
40.04000 602.653
40.06000 584.947
40.08000 584.416
40.10000 575.040
40.12000 548.850
40.14000 520.874
40.16000 497.441
40.18000 476.520
40.20000 459.484
40.22000 437.399
40.24000 419.369
40.26000 405.952
40.28000 378.499
40.30000 360.640
40.32000 344.784
40.34000 322.128
40.36000 299.973
40.38000 276.797
40.40000 261.244
40.42000 246.351
40.44000 237.127
40.46000 221.115
40.48000 219.415
40.50000 198.098
40.52000 185.150
40.54000 179.499
40.56000 167.571
40.58000 158.116
40.60000 146.895
40.62000 142.038
40.64000 134.665
40.66000 123.956
40.68000 111.739
40.70000 102.204
40.72000 93.468
40.74000 92.667
40.76000 93.138
40.78000 88.799
40.80000 81.905
40.82000 80.491
40.84000 70.965
40.86000 65.380
40.88000 64.662
40.90000 59.139
40.92000 55.655
40.94000 52.059
40.96000 51.447
40.98000 46.462
41.00000 44.635
41.02000 40.603
41.04000 40.086
41.06000 35.595
41.08000 39.869
41.10000 38.126
41.12000 30.641
41.14000 34.031
41.16000 32.825
41.18000 30.373
41.20000 23.893
41.22000 22.947
41.24000 21.881
41.26000 24.271
41.28000 28.307
41.30000 24.786
41.32000 21.722
41.34000 21.296
41.36000 21.650
41.38000 15.205
41.40000 12.421
41.42000 11.534
41.44000 10.251
41.46000 15.326
41.48000 13.314
41.50000 10.094
41.52000 9.183
41.54000 6.471
41.56000 5.081
41.58000 7.932
41.60000 6.636
41.62000 8.002
41.64000 10.387
41.66000 14.340
41.68000 10.477
41.70000 9.162
41.72000 8.987
41.74000 7.139
41.76000 6.704
41.78000 4.101
41.80000 1.703
41.82000 3.704
41.84000 1.974
41.86000 2.423
41.88000 2.651
41.90000 4.620
41.92000 4.887
41.94000 1.396
41.96000 1.247
41.98000 3.957
42.00000 4.104
42.02000 1.352
42.04000 2.742
42.06000 2.152
42.08000 2.885
42.10000 0.676
42.12000 -1.572
42.14000 4.001
42.16000 1.451
42.18000 3.763
42.20000 5.228
42.22000 1.578
42.24000 2.195
42.26000 0.958
42.28000 1.195
42.30000 4.001
42.32000 5.352
42.34000 2.660
42.36000 3.848
42.38000 6.558
42.40000 5.484
42.42000 2.471
42.44000 5.552
42.46000 1.484
42.48000 -1.381
42.50000 -3.405
42.52000 1.592
42.54000 2.313
42.56000 2.395
42.58000 1.260
42.60000 3.681
42.62000 4.841
42.64000 -2.209
42.66000 -1.787
42.68000 -2.778
42.70000 -0.973
42.72000 0.034
42.74000 0.602
42.76000 2.250
42.78000 2.234
42.80000 3.778
42.82000 1.348
42.84000 -0.220
42.86000 1.375
42.88000 0.187
42.90000 2.099
42.92000 1.254
42.94000 -0.673
42.96000 -0.110
42.98000 -0.183
43.00000 -0.831
43.02000 -0.270
43.04000 -1.948
43.06000 -2.099
43.08000 0.877
43.10000 -1.605
43.12000 0.655
43.14000 4.752
43.16000 1.881
43.18000 0.087
43.20000 -3.313
43.22000 -2.070
43.24000 4.209
43.26000 4.201
43.28000 4.155
43.30000 5.092
43.32000 -0.820
43.34000 -0.006
43.36000 2.062
43.38000 -2.692
43.40000 -0.079
43.42000 0.744
43.44000 2.376
43.46000 1.676
43.48000 -2.901
43.50000 -2.967
43.52000 -0.144
43.54000 -0.377
43.56000 -2.083
43.58000 0.428
43.60000 -0.576
43.62000 -1.220
43.64000 -0.920
43.66000 -0.248
43.68000 -2.554
43.70000 2.661
43.72000 1.982
43.74000 2.714
43.76000 5.315
43.78000 -0.091
43.80000 -1.863
43.82000 0.364
43.84000 -1.292
43.86000 -0.615
43.88000 -0.781
43.90000 1.776
43.92000 0.382
43.94000 -1.486
43.96000 0.973
43.98000 -0.810
44.00000 -1.725
44.02000 -1.943
44.04000 0.915
44.06000 4.484
44.08000 3.353
44.10000 -0.411
44.12000 -3.279
44.14000 -0.948
44.16000 -3.049
44.18000 -1.798
44.20000 -0.967
44.22000 3.656
44.24000 2.497
44.26000 0.041
44.28000 -0.896
44.30000 0.886
44.32000 -0.899
44.34000 -0.869
44.36000 -0.410
44.38000 -0.758
44.40000 -0.181
44.42000 2.939
44.44000 -3.278
44.46000 -1.171
44.48000 0.051
44.50000 -1.009
44.52000 -0.511
44.54000 0.344
44.56000 -0.468
44.58000 -2.348
44.60000 1.433
44.62000 -0.177
44.64000 0.756
44.66000 0.982
44.68000 -1.263
44.70000 -3.131
44.72000 2.346
44.74000 3.555
44.76000 6.112
44.78000 -0.699
44.80000 -0.850
44.82000 1.391
44.84000 1.910
44.86000 1.123
44.88000 -0.616
44.90000 -0.597
44.92000 -0.220
44.94000 3.020
44.96000 5.638
44.98000 7.728
45.00000 3.733
45.02000 4.816
45.04000 8.757
45.06000 7.124
45.08000 3.099
45.10000 2.173
45.12000 4.772
45.14000 4.926
45.16000 6.196
45.18000 1.349
45.20000 4.592
45.22000 5.998
45.24000 5.698
45.26000 9.800
45.28000 9.595
45.30000 5.817
45.32000 7.584
45.34000 11.991
45.36000 11.998
45.38000 13.346
45.40000 14.231
45.42000 11.092
45.44000 15.098
45.46000 16.445
45.48000 19.023
45.50000 18.352
45.52000 20.955
45.54000 18.989
45.56000 19.512
45.58000 20.611
45.60000 18.086
45.62000 25.229
45.64000 27.887
45.66000 20.646
45.68000 25.665
45.70000 26.908
45.72000 26.108
45.74000 26.200
45.76000 20.713
45.78000 28.036
45.80000 26.784
45.82000 28.229
45.84000 33.376
45.86000 32.620
45.88000 31.277
45.90000 37.618
45.92000 37.721
45.94000 41.835
45.96000 41.834
45.98000 42.169
46.00000 43.110
46.02000 40.253
46.04000 42.620
46.06000 46.749
46.08000 54.157
46.10000 52.316
46.12000 55.126
46.14000 58.456
46.16000 51.338
46.18000 52.663
46.20000 50.499
46.22000 54.910
46.24000 59.818
46.26000 61.065
46.28000 58.942
46.30000 61.594
46.32000 64.367
46.34000 69.873
46.36000 68.860
46.38000 68.410
46.40000 65.670
46.42000 72.200
46.44000 71.457
46.46000 66.352
46.48000 61.528
46.50000 67.431
46.52000 71.003
46.54000 72.411
46.56000 71.205
46.58000 67.734
46.60000 65.422
46.62000 69.435
46.64000 68.504
46.66000 66.193
46.68000 68.113
46.70000 62.642
46.72000 63.113
46.74000 62.352
46.76000 61.454
46.78000 63.084
46.80000 59.126
46.82000 56.157
46.84000 55.174
46.86000 49.121
46.88000 61.069
46.90000 56.007
46.92000 52.438
46.94000 47.353
46.96000 45.130
46.98000 41.283
47.00000 46.046
47.02000 47.638
47.04000 44.924
47.06000 44.236
47.08000 39.530
47.10000 38.492
47.12000 37.446
47.14000 35.219
47.16000 29.009
47.18000 31.768
47.20000 34.322
47.22000 28.285
47.24000 24.195
47.26000 19.186
47.28000 22.514
47.30000 21.052
47.32000 24.082
47.34000 22.260
47.36000 21.063
47.38000 24.629
47.40000 25.094
47.42000 20.902
47.44000 14.550
47.46000 15.423
47.48000 16.418
47.50000 17.571
47.52000 15.434
47.54000 15.791
47.56000 14.518
47.58000 10.734
47.60000 9.266
47.62000 8.581
47.64000 11.064
47.66000 7.915
47.68000 9.386
47.70000 6.037
47.72000 7.579
47.74000 7.654
47.76000 5.899
47.78000 8.267
47.80000 8.315
47.82000 7.560
47.84000 5.804
47.86000 5.041
47.88000 7.171
47.90000 3.771
47.92000 5.223
47.94000 5.383
47.96000 2.904
47.98000 -1.503
48.00000 2.575
48.02000 3.135
48.04000 0.098
48.06000 2.513
48.08000 6.099
48.10000 6.528
48.12000 4.752
48.14000 2.413
48.16000 2.012
48.18000 -1.806
48.20000 -2.918
48.22000 -2.914
48.24000 3.061
48.26000 1.491
48.28000 4.357
48.30000 5.817
48.32000 2.582
48.34000 5.487
48.36000 3.686
48.38000 4.634
48.40000 0.774
48.42000 2.054
48.44000 4.275
48.46000 4.028
48.48000 0.723
48.50000 6.281
48.52000 2.387
48.54000 -0.585
48.56000 -1.030
48.58000 -1.084
48.60000 1.009
48.62000 3.150
48.64000 4.924
48.66000 2.849
48.68000 2.013
48.70000 1.525
48.72000 3.256
48.74000 -2.073
48.76000 -0.885
48.78000 7.367
48.80000 6.368
48.82000 4.001
48.84000 3.375
48.86000 2.405
48.88000 0.737
48.90000 -2.809
48.92000 -1.437
48.94000 1.683
48.96000 2.104
48.98000 2.246
49.00000 -0.822
49.02000 -1.030
49.04000 -0.189
49.06000 2.155
49.08000 1.038
49.10000 -0.948
49.12000 3.928
49.14000 4.339
49.16000 0.859
49.18000 -2.832
49.20000 -1.077
49.22000 5.656
49.24000 4.185
49.26000 1.879
49.28000 0.170
49.30000 2.719
49.32000 4.564
49.34000 3.726
49.36000 -0.422
49.38000 0.816
49.40000 3.233
49.42000 4.137
49.44000 -2.662
49.46000 -0.758
49.48000 3.801
49.50000 3.742
49.52000 3.473
49.54000 2.769
49.56000 -2.786
49.58000 -0.119
49.60000 0.954
49.62000 0.645
49.64000 1.103
49.66000 0.066
49.68000 1.395
49.70000 5.706
49.72000 6.725
49.74000 3.222
49.76000 3.453
49.78000 2.748
49.80000 2.876
49.82000 4.760
49.84000 8.566
49.86000 4.960
49.88000 0.393
49.90000 3.298
49.92000 -0.413
49.94000 4.548
49.96000 8.062
49.98000 4.438
50.00000 2.171
50.02000 2.642
50.04000 5.433
50.06000 5.270
50.08000 2.150
50.10000 3.225
50.12000 1.984
50.14000 -2.770
50.16000 0.682
50.18000 1.019
50.20000 2.835
50.22000 3.498
50.24000 3.566
50.26000 0.223
50.28000 1.561
50.30000 0.550
50.32000 0.271
50.34000 1.683
50.36000 1.273
50.38000 -0.182
50.40000 2.494
50.42000 3.723
50.44000 3.745
50.46000 3.286
50.48000 0.468
50.50000 -0.532
50.52000 -2.760
50.54000 -0.342
50.56000 -0.006
50.58000 -0.983
50.60000 1.798
50.62000 -1.491
50.64000 -2.300
50.66000 2.254
50.68000 8.455
50.70000 6.693
50.72000 4.248
50.74000 2.903
50.76000 3.307
50.78000 4.769
50.80000 6.615
50.82000 2.625
50.84000 1.583
50.86000 3.073
50.88000 -0.683
50.90000 -0.818
50.92000 -0.647
50.94000 1.183
50.96000 3.461
50.98000 3.057
51.00000 3.690
51.02000 2.613
51.04000 -1.101
51.06000 -0.021
51.08000 -2.189
51.10000 -0.637
51.12000 0.305
51.14000 0.967
51.16000 0.229
51.18000 3.186
51.20000 4.359
51.22000 4.878
51.24000 2.777
51.26000 -1.196
51.28000 2.659
51.30000 2.923
51.32000 0.642
51.34000 -1.632
51.36000 -0.974
51.38000 3.259
51.40000 1.640
51.42000 0.288
51.44000 1.088
51.46000 -0.878
51.48000 2.460
51.50000 -2.728
51.52000 -1.606
51.54000 2.085
51.56000 3.203
51.58000 2.580
51.60000 1.060
51.62000 2.200
51.64000 2.613
51.66000 1.132
51.68000 -0.961
51.70000 -1.960
51.72000 -0.800
51.74000 5.071
51.76000 4.193
51.78000 1.428
51.80000 4.280
51.82000 -0.479
51.84000 -1.103
51.86000 -1.095
51.88000 1.397
51.90000 1.138
51.92000 -1.560
51.94000 2.810
51.96000 -1.083
51.98000 -2.623
52.00000 2.026
52.02000 -1.002
52.04000 -2.705
52.06000 -0.891
52.08000 -0.238
52.10000 2.390
52.12000 0.052
52.14000 3.876
52.16000 6.020
52.18000 2.463
52.20000 2.480
52.22000 3.964
52.24000 5.162
52.26000 4.731
52.28000 1.019
52.30000 3.933
52.32000 -2.435
52.34000 -0.160
52.36000 -0.684
52.38000 3.309
52.40000 1.384
52.42000 -0.813
52.44000 3.285
52.46000 2.002
52.48000 4.813
52.50000 7.563
52.52000 4.486
52.54000 0.982
52.56000 -0.500
52.58000 1.927
52.60000 4.965
52.62000 2.786
52.64000 0.310
52.66000 5.088
52.68000 2.237
52.70000 0.880
52.72000 -2.667
52.74000 1.038
52.76000 3.717
52.78000 6.767
52.80000 3.895
52.82000 3.506
52.84000 1.261
52.86000 5.458
52.88000 8.651
52.90000 4.401
52.92000 1.572
52.94000 2.279
52.96000 0.254
52.98000 2.052
53.00000 0.791
53.02000 3.035
53.04000 5.856
53.06000 2.214
53.08000 6.083
53.10000 9.293
53.12000 7.408
53.14000 0.322
53.16000 -2.658
53.18000 2.207
53.20000 1.206
53.22000 3.523
53.24000 3.331
53.26000 -1.423
53.28000 0.906
53.30000 1.543
53.32000 6.492
53.34000 3.505
53.36000 0.633
53.38000 2.335
53.40000 4.149
53.42000 2.293
53.44000 2.582
53.46000 2.491
53.48000 1.903
53.50000 3.479
53.52000 3.030
53.54000 1.647
53.56000 1.967
53.58000 0.427
53.60000 1.146
53.62000 3.238
53.64000 4.235
53.66000 5.699
53.68000 4.580
53.70000 1.077
53.72000 -1.386
53.74000 -2.642
53.76000 1.010
53.78000 -1.189
53.80000 -0.302
53.82000 2.763
53.84000 3.627
53.86000 0.922
53.88000 4.568
53.90000 6.539
53.92000 2.327
53.94000 8.822
53.96000 8.366
53.98000 4.232
54.00000 -2.632
54.02000 3.764
54.04000 -0.274
54.06000 2.413
54.08000 5.241
54.10000 5.640
54.12000 5.444
54.14000 0.101
54.16000 0.848
54.18000 0.735
54.20000 3.248
54.22000 7.704
54.24000 6.076
54.26000 4.735
54.28000 2.104
54.30000 3.649
54.32000 0.342
54.34000 -0.938
54.36000 -0.144
54.38000 2.119
54.40000 0.124
54.42000 1.178
54.44000 2.565
54.46000 1.266
54.48000 -1.988
54.50000 1.907
54.52000 3.670
54.54000 5.664
54.56000 9.433
54.58000 7.991
54.60000 3.555
54.62000 2.392
54.64000 3.039
54.66000 4.838
54.68000 2.846
54.70000 -2.604
54.72000 3.881
54.74000 4.100
54.76000 9.214
54.78000 3.437
54.80000 4.723
54.82000 8.828
54.84000 5.620
54.86000 5.585
54.88000 7.532
54.90000 3.310
54.92000 5.277
54.94000 2.786
54.96000 4.423
54.98000 4.506
55.00000 3.013
55.02000 4.222
55.04000 6.463
55.06000 4.978
55.08000 4.170
55.10000 4.238
55.12000 1.684
55.14000 0.140
55.16000 3.764
55.18000 2.338
55.20000 0.914
55.22000 0.039
55.24000 1.195
55.26000 -2.581
55.28000 -1.071
55.30000 -0.789
55.32000 2.992
55.34000 2.658
55.36000 3.244
55.38000 1.189
55.40000 2.031
55.42000 2.016
55.44000 5.238
55.46000 -0.022
55.48000 0.859
55.50000 1.689
55.52000 6.912
55.54000 6.716
55.56000 2.499
55.58000 5.710
55.60000 3.272
55.62000 4.077
55.64000 2.555
55.66000 0.584
55.68000 -2.597
55.70000 2.120
55.72000 4.801
55.74000 6.083
55.76000 5.260
55.78000 4.394
55.80000 1.540
55.82000 4.897
55.84000 2.813
55.86000 5.307
55.88000 2.860
55.90000 4.191
55.92000 4.249
55.94000 4.129
55.96000 6.139
55.98000 5.429
56.00000 5.524
56.02000 5.274
56.04000 5.390
56.06000 2.732
56.08000 4.839
56.10000 5.550
56.12000 2.646
56.14000 1.904
56.16000 2.984
56.18000 6.562
56.20000 9.183
56.22000 2.417
56.24000 6.214
56.26000 2.430
56.28000 -0.779
56.30000 5.222
56.32000 6.025
56.34000 1.793
56.36000 -2.571
56.38000 4.071
56.40000 3.610
56.42000 2.480
56.44000 -0.169
56.46000 3.091
56.48000 2.795
56.50000 3.537
56.52000 3.895
56.54000 8.597
56.56000 3.991
56.58000 0.364
56.60000 -1.379
56.62000 1.559
56.64000 0.102
56.66000 -1.529
56.68000 -1.477
56.70000 2.139
56.72000 4.739
56.74000 5.926
56.76000 2.798
56.78000 1.350
56.80000 0.268
56.82000 2.954
56.84000 5.676
56.86000 6.965
56.88000 8.513
56.90000 3.501
56.92000 2.272
56.94000 2.051
56.96000 0.550
56.98000 1.610
57.00000 1.913
57.02000 -2.271
57.04000 0.038
57.06000 2.850
57.08000 2.295
57.10000 -0.400
57.12000 3.232
57.14000 4.990
57.16000 2.144
57.18000 7.515
57.20000 8.337
57.22000 3.030
57.24000 2.441
57.26000 2.527
57.28000 -1.953
57.30000 -0.278
57.32000 2.165
57.34000 2.527
57.36000 3.068
57.38000 4.700
57.40000 3.965
57.42000 3.920
57.44000 7.170
57.46000 2.884
57.48000 1.980
57.50000 -1.190
57.52000 0.849
57.54000 -2.094
57.56000 3.592
57.58000 4.969
57.60000 3.245
57.62000 -2.302
57.64000 -2.521
57.66000 0.376
57.68000 4.723
57.70000 1.569
57.72000 3.356
57.74000 5.078
57.76000 2.924
57.78000 4.755
57.80000 7.073
57.82000 6.247
57.84000 3.394
57.86000 3.068
57.88000 4.673
57.90000 3.095
57.92000 2.346
57.94000 2.751
57.96000 2.232
57.98000 -0.551
58.00000 0.362
58.02000 3.202
58.04000 5.248
58.06000 4.726
58.08000 2.516
58.10000 7.011
58.12000 4.499
58.14000 0.129
58.16000 2.482
58.18000 2.997
58.20000 1.949
58.22000 2.146
58.24000 2.720
58.26000 5.492
58.28000 4.190
58.30000 2.770
58.32000 -1.253
58.34000 -1.822
58.36000 -0.977
58.38000 1.707
58.40000 5.053
58.42000 3.688
58.44000 6.023
58.46000 6.003
58.48000 1.788
58.50000 2.995
58.52000 1.008
58.54000 1.816
58.56000 3.589
58.58000 7.190
58.60000 5.301
58.62000 3.019
58.64000 4.617
58.66000 2.020
58.68000 0.981
58.70000 0.763
58.72000 1.675
58.74000 -1.715
58.76000 -2.486
58.78000 2.858
58.80000 8.647
58.82000 8.460
58.84000 3.697
58.86000 2.799
58.88000 2.311
58.90000 2.917
58.92000 1.201
58.94000 5.274
58.96000 4.726
58.98000 0.987
59.00000 -0.404
59.02000 -2.198
59.04000 2.377
59.06000 5.529
59.08000 5.184
59.10000 5.298
59.12000 5.432
59.14000 3.981
59.16000 5.050
59.18000 7.258
59.20000 5.881
59.22000 2.840
59.24000 6.490
59.26000 9.548
59.28000 4.610
59.30000 3.127
59.32000 -2.478
59.34000 -0.675
59.36000 0.425
59.38000 -0.845
59.40000 -0.156
59.42000 -0.996
59.44000 -0.158
59.46000 0.653
59.48000 2.709
59.50000 5.406
59.52000 2.901
59.54000 7.106
59.56000 8.792
59.58000 6.222
59.60000 2.533
59.62000 2.517
59.64000 5.440
59.66000 2.810
59.68000 2.217
59.70000 1.191
59.72000 1.790
59.74000 3.215
59.76000 5.643
59.78000 3.208
59.80000 0.688
59.82000 -0.398
59.84000 3.691
59.86000 1.851
59.88000 -0.107
59.90000 1.943
59.92000 5.118
59.94000 3.140
59.96000 -1.014
59.98000 3.492
60.00000 6.323
60.02000 0.870
60.04000 -1.679
60.06000 2.107
60.08000 5.868
60.10000 3.693
60.12000 4.176
60.14000 4.587
60.16000 4.262
60.18000 3.741
60.20000 2.836
60.22000 3.021
60.24000 7.070
60.26000 6.829
60.28000 6.268
60.30000 4.144
60.32000 0.202
60.34000 -2.441
60.36000 4.216
60.38000 5.091
60.40000 2.089
60.42000 2.762
60.44000 4.722
60.46000 1.859
60.48000 1.753
60.50000 -1.280
60.52000 2.454
60.54000 6.596
60.56000 1.713
60.58000 4.133
60.60000 3.230
60.62000 1.856
60.64000 4.628
60.66000 2.968
60.68000 3.834
60.70000 3.572
60.72000 3.986
60.74000 2.999
60.76000 -1.346
60.78000 -0.386
60.80000 0.104
60.82000 3.145
60.84000 5.024
60.86000 2.746
60.88000 4.401
60.90000 4.658
60.92000 3.813
60.94000 4.906
60.96000 2.550
60.98000 3.604
61.00000 2.836
61.02000 -0.090
61.04000 2.961
61.06000 4.511
61.08000 2.616
61.10000 1.139
61.12000 0.581
61.14000 -2.444
61.16000 -1.794
61.18000 1.165
61.20000 -1.883
61.22000 -1.857
61.24000 4.684
61.26000 2.295
61.28000 -0.466
61.30000 -1.381
61.32000 0.942
61.34000 -2.418
61.36000 -2.441
61.38000 -2.104
61.40000 0.452
61.42000 1.994
61.44000 6.405
61.46000 2.735
61.48000 -1.129
61.50000 0.600
61.52000 4.170
61.54000 4.102
61.56000 -1.761
61.58000 -1.777
61.60000 0.253
61.62000 1.013
61.64000 -1.652
61.66000 4.066
61.68000 2.960
61.70000 -1.632
61.72000 0.745
61.74000 4.408
61.76000 -0.041
61.78000 -1.689
61.80000 -0.249
61.82000 2.337
61.84000 -0.322
61.86000 1.287
61.88000 3.844
61.90000 4.604
61.92000 2.149
61.94000 2.139
61.96000 2.131
61.98000 1.230
62.00000 1.015
62.02000 -2.455
62.04000 1.120
62.06000 5.731
62.08000 5.291
62.10000 1.594
62.12000 -0.001
62.14000 4.445
62.16000 5.549
62.18000 0.770
62.20000 2.269
62.22000 -0.033
62.24000 -0.664
62.26000 4.193
62.28000 2.333
62.30000 0.993
62.32000 1.197
62.34000 2.650
62.36000 0.028
62.38000 -0.910
62.40000 0.292
62.42000 1.579
62.44000 -0.112
62.46000 0.718
62.48000 -0.931
62.50000 3.748
62.52000 2.894
62.54000 2.717
62.56000 -1.513
62.58000 0.808
62.60000 2.221
62.62000 3.348
62.64000 3.155
62.66000 1.854
62.68000 0.483
62.70000 0.156
62.72000 0.953
62.74000 0.579
62.76000 1.915
62.78000 -1.084
62.80000 0.359
62.82000 0.622
62.84000 -1.323
62.86000 0.618
62.88000 3.510
62.90000 1.944
62.92000 1.493
62.94000 0.769
62.96000 1.640
62.98000 0.808
63.00000 1.655
63.02000 0.489
63.04000 1.693
63.06000 3.657
63.08000 2.969
63.10000 -0.592
63.12000 -2.421
63.14000 1.130
63.16000 1.122
63.18000 0.098
63.20000 -0.344
63.22000 2.044
63.24000 3.852
63.26000 7.621
63.28000 3.163
63.30000 -1.166
63.32000 -0.669
63.34000 0.968
63.36000 -1.037
63.38000 1.908
63.40000 4.868
63.42000 2.750
63.44000 -1.277
63.46000 -0.990
63.48000 0.904
63.50000 1.797
63.52000 3.571
63.54000 3.895
63.56000 1.740
63.58000 -0.427
63.60000 -1.694
63.62000 3.716
63.64000 4.265
63.66000 -2.440
63.68000 -2.171
63.70000 -2.270
63.72000 1.899
63.74000 1.775
63.76000 3.845
63.78000 5.250
63.80000 4.688
63.82000 -0.300
63.84000 -2.445
63.86000 0.074
63.88000 1.623
63.90000 1.411
63.92000 1.246
63.94000 1.720
63.96000 -0.102
63.98000 -1.466
64.00000 -1.459
64.02000 3.036
64.04000 4.630
64.06000 2.199
64.08000 2.090
64.10000 2.006
64.12000 1.271
64.14000 -0.981
64.16000 1.553
64.18000 3.534
64.20000 1.242
64.22000 4.262
64.24000 4.568
64.26000 2.043
64.28000 4.510
64.30000 4.699
64.32000 4.612
64.34000 1.326
64.36000 2.203
64.38000 5.074
64.40000 1.745
64.42000 0.168
64.44000 0.329
64.46000 -0.011
64.48000 1.385
64.50000 -0.642
64.52000 0.913
64.54000 1.206
64.56000 0.826
64.58000 -0.121
64.60000 -0.319
64.62000 2.152
64.64000 3.801
64.66000 1.780
64.68000 2.635
64.70000 3.632
64.72000 5.506
64.74000 3.801
64.76000 1.179
64.78000 2.956
64.80000 2.125
64.82000 -2.118
64.84000 -0.274
64.86000 0.517
64.88000 -2.446
64.90000 -1.652
64.92000 -0.125
64.94000 2.208
64.96000 -0.833
64.98000 0.523
65.00000 1.474
65.02000 3.859
65.04000 3.311
65.06000 4.257
65.08000 2.293
65.10000 1.890
65.12000 2.694
65.14000 2.062
65.16000 2.256
65.18000 3.378
65.20000 1.311
65.22000 1.507
65.24000 2.310
65.26000 2.553
65.28000 3.091
65.30000 4.178
65.32000 2.619
65.34000 1.749
65.36000 1.640
65.38000 -1.401
65.40000 -2.431
65.42000 2.334
65.44000 5.094
65.46000 5.818
65.48000 3.618
65.50000 2.070
65.52000 0.763
65.54000 -2.239
65.56000 0.623
65.58000 2.041
65.60000 3.807
65.62000 2.944
65.64000 1.395
65.66000 1.320
65.68000 0.615
65.70000 -1.291
65.72000 1.196
65.74000 3.293
65.76000 4.002
65.78000 0.609
65.80000 1.618
65.82000 1.955
65.84000 2.309
65.86000 -0.509
65.88000 2.664
65.90000 0.298
65.92000 1.697
65.94000 3.831
65.96000 3.236
65.98000 3.569
66.00000 2.349
66.02000 0.120
66.04000 1.436
66.06000 -2.470
66.08000 0.603
66.10000 1.963
66.12000 3.502
66.14000 5.298
66.16000 5.802
66.18000 4.514
66.20000 1.137
66.22000 -0.348
66.24000 4.707
66.26000 6.577
66.28000 2.898
66.30000 5.660
66.32000 5.742
66.34000 4.739
66.36000 1.072
66.38000 1.169
66.40000 1.318
66.42000 0.153
66.44000 3.359
66.46000 2.539
66.48000 4.661
66.50000 8.498
66.52000 6.040
66.54000 5.745
66.56000 5.222
66.58000 1.882
66.60000 -0.231
66.62000 3.542
66.64000 0.381
66.66000 -1.304
66.68000 0.105
66.70000 2.999
66.72000 4.210
66.74000 5.108
66.76000 4.293
66.78000 5.757
66.80000 3.332
66.82000 8.415
66.84000 10.034
66.86000 9.233
66.88000 7.852
66.90000 7.094
66.92000 8.537
66.94000 7.754
66.96000 10.177
66.98000 11.014
67.00000 7.641
67.02000 6.244
67.04000 9.661
67.06000 9.229
67.08000 6.153
67.10000 8.534
67.12000 14.689
67.14000 10.149
67.16000 8.632
67.18000 8.435
67.20000 14.271
67.22000 13.533
67.24000 12.722
67.26000 11.667
67.28000 15.210
67.30000 13.871
67.32000 15.443
67.34000 14.532
67.36000 12.205
67.38000 16.863
67.40000 16.912
67.42000 15.475
67.44000 15.076
67.46000 16.873
67.48000 16.654
67.50000 19.413
67.52000 18.155
67.54000 19.545
67.56000 17.941
67.58000 15.029
67.60000 17.123
67.62000 19.627
67.64000 16.896
67.66000 16.474
67.68000 19.818
67.70000 23.658
67.72000 21.833
67.74000 21.013
67.76000 19.548
67.78000 17.542
67.80000 16.935
67.82000 17.636
67.84000 19.587
67.86000 18.741
67.88000 21.373
67.90000 21.564
67.92000 18.350
67.94000 18.121
67.96000 20.098
67.98000 19.692
68.00000 18.774
68.02000 22.500
68.04000 19.329
68.06000 12.260
68.08000 15.721
68.10000 19.091
68.12000 15.211
68.14000 13.743
68.16000 14.734
68.18000 15.149
68.20000 18.267
68.22000 16.479
68.24000 16.253
68.26000 13.456
68.28000 11.862
68.30000 16.501
68.32000 13.490
68.34000 10.962
68.36000 9.416
68.38000 10.255
68.40000 15.244
68.42000 12.599
68.44000 11.270
68.46000 8.963
68.48000 8.119
68.50000 9.054
68.52000 6.388
68.54000 3.785
68.56000 6.687
68.58000 7.893
68.60000 6.395
68.62000 7.746
68.64000 8.793
68.66000 10.887
68.68000 11.708
68.70000 6.525
68.72000 1.159
68.74000 2.643
68.76000 1.407
68.78000 1.086
68.80000 2.268
68.82000 7.007
68.84000 5.806
68.86000 4.100
68.88000 2.091
68.90000 1.360
68.92000 0.205
68.94000 2.574
68.96000 2.556
68.98000 3.733
69.00000 5.916
69.02000 3.474
69.04000 4.500
69.06000 1.200
69.08000 2.104
69.10000 -0.617
69.12000 0.087
69.14000 4.554
69.16000 5.476
69.18000 2.673
69.20000 1.592
69.22000 0.218
69.24000 1.538
69.26000 -0.273
69.28000 -2.009
69.30000 -1.705
69.32000 -2.388
69.34000 -0.503
69.36000 2.370
69.38000 1.329
69.40000 -0.513
69.42000 1.095
69.44000 0.768
69.46000 2.362
69.48000 0.116
69.50000 2.199
69.52000 2.825
69.54000 2.584
69.56000 2.687
69.58000 4.695
69.60000 5.754
69.62000 5.728
69.64000 4.817
69.66000 3.430
69.68000 1.774
69.70000 1.615
69.72000 2.851
69.74000 2.865
69.76000 1.101
69.78000 -2.347
69.80000 1.648
69.82000 4.055
69.84000 6.168
69.86000 7.982
69.88000 4.913
69.90000 2.788
69.92000 4.396
69.94000 7.078
69.96000 6.885
69.98000 2.687
70.00000 5.900
70.02000 4.126
70.04000 -0.356
70.06000 -1.942
70.08000 0.594
70.10000 1.341
70.12000 -0.890
70.14000 0.581
70.16000 2.514
70.18000 4.962
70.20000 -1.156
70.22000 1.980
70.24000 1.909
70.26000 2.819
70.28000 3.471
70.30000 1.963
70.32000 0.968
70.34000 2.284
70.36000 1.831
70.38000 -1.233
70.40000 1.535
70.42000 2.655
70.44000 2.280
70.46000 4.058
70.48000 5.109
70.50000 7.501
70.52000 6.004
70.54000 3.565
70.56000 2.592
70.58000 1.142
70.60000 -2.312
70.62000 -0.703
70.64000 3.425
70.66000 5.686
70.68000 8.167
70.70000 10.113
70.72000 5.124
70.74000 5.105
70.76000 0.914
70.78000 6.730
70.80000 7.581
70.82000 7.520
70.84000 -1.496
70.86000 -2.293
70.88000 3.028
70.90000 7.520
70.92000 6.228
70.94000 1.943
70.96000 -2.287
70.98000 1.788
71.00000 7.078
71.02000 6.444
71.04000 1.734
71.06000 3.642
71.08000 3.043
71.10000 0.854
71.12000 4.574
71.14000 5.645
71.16000 5.897
71.18000 3.394
71.20000 0.057
71.22000 3.193
71.24000 7.310
71.26000 2.854
71.28000 3.552
71.30000 -0.165
71.32000 2.461
71.34000 2.796
71.36000 4.245
71.38000 1.071
71.40000 4.511
71.42000 4.272
71.44000 3.340
71.46000 0.706
71.48000 0.767
71.50000 -0.206
71.52000 -0.059
71.54000 -2.300
71.56000 -2.059
71.58000 -1.359
71.60000 -2.072
71.62000 1.368
71.64000 1.688
71.66000 -0.987
71.68000 -0.052
71.70000 -1.274
71.72000 -0.045
71.74000 -0.699
71.76000 -1.735
71.78000 1.100
71.80000 1.901
71.82000 4.414
71.84000 2.813
71.86000 1.149
71.88000 0.336
71.90000 0.517
71.92000 0.055
71.94000 -0.248
71.96000 4.914
71.98000 3.495
72.00000 5.496
72.02000 1.398
72.04000 1.067
72.06000 0.659
72.08000 0.774
72.10000 1.647
72.12000 2.492
72.14000 2.508
72.16000 -0.737
72.18000 -0.227
72.20000 0.812
72.22000 2.721
72.24000 -1.942
72.26000 -0.928
72.28000 -0.915
72.30000 0.896
72.32000 0.162
72.34000 0.850
72.36000 1.057
72.38000 -0.996
72.40000 -1.803
72.42000 -0.353
72.44000 0.805
72.46000 2.051
72.48000 3.952
72.50000 4.473
72.52000 -0.072
72.54000 -1.493
72.56000 0.770
72.58000 3.923
72.60000 4.223
72.62000 2.116
72.64000 0.682
72.66000 0.843
72.68000 2.192
72.70000 4.124
72.72000 0.899
72.74000 1.310
72.76000 3.127
72.78000 4.977
72.80000 2.947
72.82000 0.976
72.84000 2.877
72.86000 4.809
72.88000 5.619
72.90000 2.308
72.92000 0.359
72.94000 3.533
72.96000 5.420
72.98000 -1.356
73.00000 -2.240
73.02000 4.880
73.04000 4.059
73.06000 5.109
73.08000 8.390
73.10000 10.358
73.12000 5.370
73.14000 0.556
73.16000 4.532
73.18000 5.709
73.20000 5.551
73.22000 2.718
73.24000 1.013
73.26000 3.850
73.28000 6.592
73.30000 3.607
73.32000 -0.359
73.34000 -1.227
73.36000 3.855
73.38000 0.124
73.40000 -0.839
73.42000 0.361
73.44000 1.184
73.46000 3.090
73.48000 2.628
73.50000 0.016
73.52000 0.420
73.54000 3.125
73.56000 3.058
73.58000 -1.671
73.60000 -1.271
73.62000 -1.705
73.64000 -0.945
73.66000 2.015
73.68000 0.895
73.70000 2.727
73.72000 3.298
73.74000 2.744
73.76000 2.905
73.78000 -0.380
73.80000 0.029
73.82000 2.829
73.84000 1.332
73.86000 0.109
73.88000 0.220
73.90000 4.667
73.92000 4.155
73.94000 3.303
73.96000 6.891
73.98000 3.947
74.00000 3.037
74.02000 2.324
74.04000 1.972
74.06000 -0.346
74.08000 4.639
74.10000 5.037
74.12000 5.636
74.14000 1.811
74.16000 0.567
74.18000 -0.015
74.20000 0.717
74.22000 0.405
74.24000 2.504
74.26000 2.238
74.28000 6.083
74.30000 6.543
74.32000 1.982
74.34000 -2.249
74.36000 -1.201
74.38000 0.294
74.40000 1.385
74.42000 7.809
74.44000 7.332
74.46000 3.184
74.48000 3.571
74.50000 3.469
74.52000 4.154
74.54000 -0.418
74.56000 2.043
74.58000 3.027
74.60000 3.047
74.62000 1.325
74.64000 2.849
74.66000 1.944
74.68000 2.528
74.70000 2.261
74.72000 0.479
74.74000 1.909
74.76000 1.875
74.78000 1.955
74.80000 4.020
74.82000 7.955
74.84000 2.484
74.86000 -1.434
74.88000 -2.249
74.90000 4.341
74.92000 5.205
74.94000 6.012
74.96000 3.047
74.98000 1.649
75.00000 -0.111
75.02000 -0.118
75.04000 3.654
75.06000 2.445
75.08000 4.085
75.10000 5.994
75.12000 0.446
75.14000 -0.317
75.16000 3.603
75.18000 0.573
75.20000 1.016
75.22000 5.946
75.24000 3.678
75.26000 1.461
75.28000 0.575
75.30000 1.201
75.32000 2.804
75.34000 3.453
75.36000 1.319
75.38000 2.002
75.40000 2.754
75.42000 1.318
75.44000 -0.018
75.46000 -0.876
75.48000 6.139
75.50000 4.687
75.52000 1.584
75.54000 -0.139
75.56000 -0.078
75.58000 1.152
75.60000 -0.476
75.62000 -1.429
75.64000 -0.495
75.66000 0.364
75.68000 0.517
75.70000 0.340
75.72000 -1.106
75.74000 2.316
75.76000 4.061
75.78000 1.803
75.80000 2.797
75.82000 0.902
75.84000 -0.916
75.86000 1.969
75.88000 6.570
75.90000 4.428
75.92000 5.873
75.94000 6.281
75.96000 6.476
75.98000 6.428
76.00000 4.953
76.02000 3.708
76.04000 3.203
76.06000 4.316
76.08000 2.054
76.10000 0.707
76.12000 1.793
76.14000 2.968
76.16000 4.591
76.18000 3.488
76.20000 1.163
76.22000 4.532
76.24000 7.137
76.26000 4.990
76.28000 7.752
76.30000 5.267
76.32000 5.913
76.34000 6.955
76.36000 6.717
76.38000 5.909
76.40000 4.248
76.42000 5.275
76.44000 7.853
76.46000 3.987
76.48000 4.312
76.50000 5.833
76.52000 6.661
76.54000 3.481
76.56000 -2.197
76.58000 1.103
76.60000 4.003
76.62000 6.675
76.64000 4.043
76.66000 4.387
76.68000 2.567
76.70000 3.106
76.72000 0.772
76.74000 1.952
76.76000 2.550
76.78000 4.469
76.80000 5.464
76.82000 5.168
76.84000 4.946
76.86000 5.476
76.88000 3.781
76.90000 6.455
76.92000 6.783
76.94000 2.337
76.96000 4.227
76.98000 4.901
77.00000 4.116
77.02000 5.625
77.04000 2.817
77.06000 1.768
77.08000 9.690
77.10000 5.103
77.12000 4.175
77.14000 3.272
77.16000 2.593
77.18000 5.084
77.20000 2.169
77.22000 0.883
77.24000 0.969
77.26000 5.468
77.28000 7.399
77.30000 2.092
77.32000 3.839
77.34000 0.913
77.36000 2.723
77.38000 4.362
77.40000 5.452
77.42000 4.219
77.44000 -0.710
77.46000 -0.495
77.48000 3.517
77.50000 6.709
77.52000 6.720
77.54000 5.506
77.56000 6.451
77.58000 2.505
77.60000 4.701
77.62000 4.680
77.64000 1.323
77.66000 3.010
77.68000 4.221
77.70000 4.706
77.72000 1.549
77.74000 4.327
77.76000 5.547
77.78000 4.676
77.80000 3.844
77.82000 3.275
77.84000 5.564
77.86000 6.187
77.88000 5.536
77.90000 5.232
77.92000 1.532
77.94000 -2.300
77.96000 -0.564
77.98000 1.493
78.00000 1.133
78.02000 1.816
78.04000 0.645
78.06000 -1.079
78.08000 -0.606
78.10000 -1.472
78.12000 -0.853
78.14000 -0.472
78.16000 2.238
78.18000 6.588
78.20000 1.640
78.22000 2.977
78.24000 7.849
78.26000 1.141
78.28000 -2.302
78.30000 3.498
78.32000 4.173
78.34000 0.823
78.36000 -1.009
78.38000 0.472
78.40000 -2.309
78.42000 -0.379
78.44000 0.244
78.46000 2.521
78.48000 4.664
78.50000 4.252
78.52000 3.473
78.54000 3.863
78.56000 1.907
78.58000 1.928
78.60000 0.577
78.62000 1.519
78.64000 4.917
78.66000 4.312
78.68000 -0.135
78.70000 4.952
78.72000 2.782
78.74000 -0.534
78.76000 -0.391
78.78000 2.202
78.80000 1.860
78.82000 1.809
78.84000 2.513
78.86000 2.767
78.88000 2.708
78.90000 3.824
78.92000 1.134
78.94000 2.863
78.96000 6.435
78.98000 2.390
79.00000 -1.448
79.02000 1.945
79.04000 0.881
79.06000 0.866
79.08000 4.883
79.10000 -0.232
79.12000 0.820
79.14000 -2.349
79.16000 0.958
79.18000 6.111
79.20000 5.512
79.22000 6.242
79.24000 4.889
79.26000 3.635
79.28000 3.575
79.30000 0.560
79.32000 -1.621
79.34000 1.314
79.36000 2.314
79.38000 -2.359
79.40000 4.177
79.42000 4.935
79.44000 1.655
79.46000 5.345
79.48000 5.460
79.50000 3.609
79.52000 5.551
79.54000 7.767
79.56000 3.699
79.58000 3.028
79.60000 0.688
79.62000 1.141
79.64000 -1.218
79.66000 -2.370
79.68000 1.994
79.70000 1.966
79.72000 3.647
79.74000 -0.110
79.76000 1.876
79.78000 0.579
79.80000 3.770
79.82000 0.005
79.84000 -0.367
79.86000 0.350
79.88000 1.991
79.90000 3.528
79.92000 0.562
79.94000 -1.970
79.96000 0.736
79.98000 2.213
80.00000 -0.385
80.02000 0.932
80.04000 3.674
80.06000 7.627
80.08000 4.481
80.10000 3.169
80.12000 -1.020
80.14000 3.194
80.16000 5.279
80.18000 -0.098
80.20000 1.488
80.22000 2.165
80.24000 2.138
80.26000 3.456
80.28000 0.053
80.30000 1.393
80.32000 -0.553
80.34000 -2.460
80.36000 -1.555
80.38000 0.661
80.40000 3.727
80.42000 4.449
80.44000 1.977
80.46000 7.006
80.48000 6.090
80.50000 3.037
80.52000 3.053
80.54000 3.410
80.56000 3.299
80.58000 4.184
80.60000 6.796
80.62000 4.940
80.64000 8.248
80.66000 2.695
80.68000 0.640
80.70000 1.347
80.72000 6.185
80.74000 6.751
80.76000 2.015
80.78000 3.267
80.80000 4.635
80.82000 11.548
80.84000 7.371
80.86000 5.249
80.88000 9.005
80.90000 4.191
80.92000 3.035
80.94000 6.979
80.96000 7.182
80.98000 6.296
81.00000 9.084
81.02000 8.396
81.04000 10.024
81.06000 11.294
81.08000 10.798
81.10000 8.553
81.12000 9.586
81.14000 8.104
81.16000 10.900
81.18000 9.281
81.20000 12.610
81.22000 17.055
81.24000 15.802
81.26000 16.570
81.28000 14.212
81.30000 14.201
81.32000 18.114
81.34000 20.468
81.36000 19.369
81.38000 16.936
81.40000 16.264
81.42000 19.966
81.44000 19.519
81.46000 22.340
81.48000 18.511
81.50000 25.549
81.52000 21.883
81.54000 24.780
81.56000 26.162
81.58000 23.536
81.60000 19.771
81.62000 17.405
81.64000 17.071
81.66000 16.652
81.68000 16.994
81.70000 23.285
81.72000 22.706
81.74000 23.674
81.76000 21.352
81.78000 23.346
81.80000 19.238
81.82000 21.391
81.84000 25.054
81.86000 27.917
81.88000 27.577
81.90000 24.056
81.92000 23.190
81.94000 27.951
81.96000 22.207
81.98000 17.743
82.00000 21.563
82.02000 19.288
82.04000 22.069
82.06000 22.618
82.08000 20.001
82.10000 19.919
82.12000 17.351
82.14000 18.984
82.16000 17.539
82.18000 17.618
82.20000 17.585
82.22000 15.824
82.24000 19.350
82.26000 21.520
82.28000 18.689
82.30000 20.426
82.32000 20.922
82.34000 15.893
82.36000 15.175
82.38000 13.303
82.40000 19.288
82.42000 18.536
82.44000 14.531
82.46000 15.172
82.48000 13.524
82.50000 14.584
82.52000 14.042
82.54000 10.953
82.56000 9.717
82.58000 11.432
82.60000 10.440
82.62000 11.570
82.64000 17.361
82.66000 12.893
82.68000 10.096
82.70000 6.759
82.72000 6.781
82.74000 7.551
82.76000 10.796
82.78000 9.124
82.80000 7.514
82.82000 8.913
82.84000 9.451
82.86000 7.555
82.88000 6.689
82.90000 0.742
82.92000 1.735
82.94000 6.652
82.96000 7.639
82.98000 5.039
83.00000 6.252
83.02000 5.998
83.04000 2.518
83.06000 8.648
83.08000 6.511
83.10000 4.708
83.12000 1.035
83.14000 2.657
83.16000 3.507
83.18000 3.927
83.20000 2.392
83.22000 4.250
83.24000 2.449
83.26000 0.411
83.28000 1.190
83.30000 2.754
83.32000 4.427
83.34000 3.418
83.36000 7.759
83.38000 0.131
83.40000 -0.159
83.42000 3.811
83.44000 5.955
83.46000 5.943
83.48000 3.061
83.50000 1.926
83.52000 2.885
83.54000 1.709
83.56000 1.043
83.58000 6.991
83.60000 1.500
83.62000 1.779
83.64000 5.160
83.66000 3.874
83.68000 5.397
83.70000 2.180
83.72000 0.235
83.74000 -2.396
83.76000 0.679
83.78000 2.409
83.80000 1.737
83.82000 2.746
83.84000 1.271
83.86000 4.740
83.88000 2.729
83.90000 2.908
83.92000 2.113
83.94000 -2.110
83.96000 4.229
83.98000 3.638
84.00000 2.588
84.02000 -1.362
84.04000 -1.575
84.06000 3.771
84.08000 4.917
84.10000 -0.699
84.12000 -2.370
84.14000 -0.415
84.16000 1.477
84.18000 6.164
84.20000 4.685
84.22000 2.570
84.24000 -0.381
84.26000 3.336
84.28000 3.154
84.30000 2.584
84.32000 4.522
84.34000 5.299
84.36000 1.144
84.38000 1.715
84.40000 -1.275
84.42000 2.224
84.44000 4.268
84.46000 -2.139
84.48000 0.025
84.50000 -0.430
84.52000 3.410
84.54000 4.428
84.56000 6.820
84.58000 4.472
84.60000 0.391
84.62000 4.839
84.64000 10.701
84.66000 7.497
84.68000 7.420
84.70000 3.523
84.72000 5.127
84.74000 7.849
84.76000 8.237
84.78000 1.758
84.80000 4.238
84.82000 8.230
84.84000 1.904
84.86000 1.020
84.88000 8.626
84.90000 9.897
84.92000 7.982
84.94000 5.139
84.96000 3.449
84.98000 6.736
85.00000 5.092
85.02000 4.819
85.04000 10.095
85.06000 7.111
85.08000 6.402
85.10000 7.390
85.12000 3.598
85.14000 7.145
85.16000 5.839
85.18000 11.254
85.20000 14.268
85.22000 12.225
85.24000 6.951
85.26000 9.403
85.28000 8.747
85.30000 9.072
85.32000 11.743
85.34000 13.014
85.36000 14.572
85.38000 9.047
85.40000 10.803
85.42000 12.563
85.44000 16.090
85.46000 19.237
85.48000 14.961
85.50000 10.109
85.52000 13.599
85.54000 15.701
85.56000 12.909
85.58000 11.030
85.60000 16.578
85.62000 23.643
85.64000 23.042
85.66000 17.386
85.68000 20.375
85.70000 27.753
85.72000 26.466
85.74000 21.104
85.76000 19.546
85.78000 16.179
85.80000 15.475
85.82000 18.053
85.84000 19.700
85.86000 20.148
85.88000 22.543
85.90000 19.820
85.92000 20.224
85.94000 18.681
85.96000 22.005
85.98000 22.437
86.00000 22.469
86.02000 26.302
86.04000 23.961
86.06000 27.094
86.08000 25.715
86.10000 24.178
86.12000 20.528
86.14000 19.017
86.16000 16.951
86.18000 20.150
86.20000 18.652
86.22000 21.280
86.24000 19.486
86.26000 26.016
86.28000 22.601
86.30000 23.658
86.32000 22.142
86.34000 21.491
86.36000 15.749
86.38000 12.872
86.40000 16.557
86.42000 19.770
86.44000 18.683
86.46000 21.349
86.48000 20.053
86.50000 16.415
86.52000 18.071
86.54000 16.521
86.56000 13.825
86.58000 21.542
86.60000 14.797
86.62000 11.678
86.64000 15.997
86.66000 8.292
86.68000 6.452
86.70000 8.466
86.72000 3.795
86.74000 7.146
86.76000 10.294
86.78000 13.085
86.80000 14.719
86.82000 14.912
86.84000 12.173
86.86000 7.041
86.88000 10.565
86.90000 8.438
86.92000 3.860
86.94000 7.368
86.96000 10.463
86.98000 4.075
87.00000 5.173
87.02000 5.801
87.04000 3.733
87.06000 5.599
87.08000 8.385
87.10000 5.274
87.12000 1.492
87.14000 0.883
87.16000 2.588
87.18000 3.135
87.20000 7.365
87.22000 8.031
87.24000 6.597
87.26000 5.065
87.28000 -0.717
87.30000 -1.166
87.32000 3.666
87.34000 3.833
87.36000 -1.109
87.38000 0.466
87.40000 0.349
87.42000 5.311
87.44000 3.461
87.46000 1.597
87.48000 0.446
87.50000 2.542
87.52000 2.512
87.54000 -2.256
87.56000 -0.361
87.58000 4.036
87.60000 2.546
87.62000 2.149
87.64000 2.649
87.66000 -0.383
87.68000 0.918
87.70000 2.860
87.72000 4.114
87.74000 5.066
87.76000 5.047
87.78000 3.749
87.80000 -0.351
87.82000 -1.330
87.84000 -1.482
87.86000 -2.063
87.88000 0.145
87.90000 3.542
87.92000 7.101
87.94000 6.989
87.96000 7.392
87.98000 5.621
88.00000 2.632
88.02000 -2.110
88.04000 0.491
88.06000 -1.204
88.08000 0.454
88.10000 0.532
88.12000 4.267
88.14000 0.819
88.16000 4.087
88.18000 2.840
88.20000 2.503
88.22000 3.033
88.24000 2.618
88.26000 5.603
88.28000 2.822
88.30000 -1.456
88.32000 1.810
88.34000 4.307
88.36000 1.256
88.38000 -2.122
88.40000 -1.003
88.42000 2.027
88.44000 -0.524
88.46000 2.387
88.48000 4.118
88.50000 4.500
88.52000 2.786
88.54000 2.362
88.56000 0.459
88.58000 -0.398
88.60000 3.289
88.62000 2.463
88.64000 1.611
88.66000 3.272
88.68000 3.535
88.70000 1.821
88.72000 1.499
88.74000 5.550
88.76000 3.473
88.78000 -1.844
88.80000 1.761
88.82000 1.935
88.84000 3.862
88.86000 2.939
88.88000 0.677
88.90000 3.034
88.92000 5.064
88.94000 2.034
88.96000 0.921
88.98000 0.296
89.00000 3.023
89.02000 5.568
89.04000 3.380
89.06000 5.803
89.08000 3.090
89.10000 1.233
89.12000 4.690
89.14000 3.138
89.16000 2.749
89.18000 2.731
89.20000 4.131
89.22000 3.902
89.24000 3.496
89.26000 3.683
89.28000 2.499
89.30000 3.767
89.32000 6.701
89.34000 4.705
89.36000 4.733
89.38000 3.989
89.40000 2.258
89.42000 1.196
89.44000 5.819
89.46000 2.846
89.48000 -1.825
89.50000 1.004
89.52000 2.266
89.54000 3.580
89.56000 4.556
89.58000 7.473
89.60000 4.553
89.62000 -2.112
89.64000 -1.333
89.66000 -1.382
89.68000 0.646
89.70000 4.825
89.72000 0.990
89.74000 0.164
89.76000 3.985
89.78000 6.028
89.80000 2.478
89.82000 1.864
89.84000 4.306
89.86000 3.386
89.88000 1.123
89.90000 2.562
89.92000 2.193
89.94000 4.279
89.96000 5.309
89.98000 4.002
90.00000 1.611
90.02000 -0.677
90.04000 1.466
90.06000 5.761
90.08000 2.585
90.10000 -1.281
90.12000 -1.666
90.14000 2.352
90.16000 0.823
90.18000 2.274
90.20000 4.248
90.22000 4.498
90.24000 1.502
90.26000 1.322
90.28000 1.813
90.30000 0.187
90.32000 2.887
90.34000 1.191
90.36000 5.640
90.38000 7.325
90.40000 0.993
90.42000 -0.196
90.44000 -2.119
90.46000 2.148
90.48000 2.470
90.50000 2.137
90.52000 1.298
90.54000 0.227
90.56000 1.256
90.58000 1.474
90.60000 -0.354
90.62000 0.996
90.64000 -0.300
90.66000 4.786
90.68000 -0.051
90.70000 -0.596
90.72000 0.551
90.74000 1.194
90.76000 4.591
90.78000 4.467
90.80000 0.980
90.82000 1.570
90.84000 1.951
90.86000 5.938
90.88000 5.527
90.90000 0.892
90.92000 2.260
90.94000 0.715
90.96000 2.849
90.98000 0.284
91.00000 3.545
91.02000 -1.733
91.04000 1.996
91.06000 0.487
91.08000 2.513
91.10000 2.957
91.12000 4.595
91.14000 1.906
91.16000 0.977
91.18000 0.153
91.20000 -0.627
91.22000 -0.785
91.24000 1.237
91.26000 -0.617
91.28000 4.199
91.30000 3.141
91.32000 2.760
91.34000 -0.449
91.36000 -2.036
91.38000 1.846
91.40000 1.845
91.42000 2.220
91.44000 -2.111
91.46000 3.130
91.48000 7.797
91.50000 7.141
91.52000 6.066
91.54000 1.341
91.56000 0.767
91.58000 0.633
91.60000 1.068
91.62000 0.773
91.64000 1.240
91.66000 0.616
91.68000 3.270
91.70000 6.959
91.72000 2.316
91.74000 -0.459
91.76000 0.808
91.78000 -0.794
91.80000 2.432
91.82000 2.439
91.84000 1.670
91.86000 4.031
91.88000 6.845
91.90000 7.124
91.92000 3.374
91.94000 3.384
91.96000 3.941
91.98000 3.896
92.00000 1.546
92.02000 3.304
92.04000 1.449
92.06000 0.748
92.08000 -2.135
92.10000 4.590
92.12000 3.635
92.14000 3.953
92.16000 4.420
92.18000 4.483
92.20000 5.724
92.22000 3.314
92.24000 1.646
92.26000 2.380
92.28000 1.735
92.30000 2.847
92.32000 3.780
92.34000 8.343
92.36000 8.709
92.38000 8.230
92.40000 1.520
92.42000 1.093
92.44000 2.285
92.46000 3.504
92.48000 0.790
92.50000 2.239
92.52000 2.090
92.54000 3.756
92.56000 2.376
92.58000 -1.395
92.60000 4.796
92.62000 6.570
92.64000 0.184
92.66000 1.417
92.68000 3.420
92.70000 3.143
92.72000 2.533
92.74000 1.376
92.76000 2.548
92.78000 3.296
92.80000 3.059
92.82000 4.320
92.84000 4.150
92.86000 3.082
92.88000 2.323
92.90000 2.804
92.92000 6.664
92.94000 5.441
92.96000 1.612
92.98000 3.133
93.00000 2.804
93.02000 -2.130
93.04000 0.647
93.06000 -0.769
93.08000 -0.711
93.10000 -0.025
93.12000 4.920
93.14000 4.635
93.16000 -2.134
93.18000 1.705
93.20000 0.752
93.22000 1.160
93.24000 4.118
93.26000 2.254
93.28000 1.958
93.30000 1.026
93.32000 -1.264
93.34000 -1.086
93.36000 0.011
93.38000 2.833
93.40000 4.292
93.42000 1.654
93.44000 2.180
93.46000 -0.818
93.48000 -1.460
93.50000 -0.933
93.52000 3.328
93.54000 2.256
93.56000 0.506
93.58000 1.735
93.60000 3.147
93.62000 3.401
93.64000 0.090
93.66000 3.452
93.68000 4.844
93.70000 3.820
93.72000 5.165
93.74000 1.226
93.76000 2.495
93.78000 3.756
93.80000 -0.834
93.82000 2.429
93.84000 4.593
93.86000 5.031
93.88000 3.458
93.90000 1.554
93.92000 4.319
93.94000 3.359
93.96000 -0.136
93.98000 -0.364
94.00000 4.463
94.02000 1.486
94.04000 3.080
94.06000 1.988
94.08000 0.885
94.10000 2.646
94.12000 8.391
94.14000 3.639
94.16000 3.766
94.18000 1.962
94.20000 2.630
94.22000 5.456
94.24000 4.912
94.26000 4.572
94.28000 4.128
94.30000 3.310
94.32000 5.707
94.34000 3.460
94.36000 2.535
94.38000 6.679
94.40000 4.797
94.42000 2.208
94.44000 2.347
94.46000 5.121
94.48000 1.645
94.50000 -0.604
94.52000 -2.132
94.54000 -0.248
94.56000 3.937
94.58000 3.199
94.60000 -0.135
94.62000 0.858
94.64000 -0.528
94.66000 -0.961
94.68000 3.499
94.70000 4.800
94.72000 2.854
94.74000 0.789
94.76000 7.870
94.78000 4.128
94.80000 2.090
94.82000 3.746
94.84000 4.613
94.86000 4.957
94.88000 4.026
94.90000 -1.407
94.92000 -1.099
94.94000 -2.137
94.96000 -0.974
94.98000 1.694
95.00000 3.887
95.02000 5.963
95.04000 1.019
95.06000 -1.242
95.08000 0.232
95.10000 -0.810
95.12000 2.604
95.14000 7.898
95.16000 3.986
95.18000 1.488
95.20000 3.210
95.22000 5.519
95.24000 3.048
95.26000 3.031
95.28000 5.167
95.30000 2.946
95.32000 0.994
95.34000 3.948
95.36000 7.403
95.38000 1.056
95.40000 2.281
95.42000 3.507
95.44000 -0.550
95.46000 2.868
95.48000 2.997
95.50000 2.044
95.52000 4.005
95.54000 6.243
95.56000 3.563
95.58000 4.154
95.60000 6.605
95.62000 6.034
95.64000 0.280
95.66000 2.313
95.68000 3.174
95.70000 3.955
95.72000 8.312
95.74000 7.525
95.76000 6.890
95.78000 5.393
95.80000 5.175
95.82000 6.399
95.84000 7.362
95.86000 5.597
95.88000 6.284
95.90000 2.799
95.92000 1.875
95.94000 5.066
95.96000 1.986
95.98000 2.784
96.00000 3.584
96.02000 4.922
96.04000 -2.127
96.06000 5.617
96.08000 7.433
96.10000 6.846
96.12000 11.542
96.14000 6.711
96.16000 1.548
96.18000 5.410
96.20000 5.727
96.22000 0.889
96.24000 5.559
96.26000 4.804
96.28000 5.542
96.30000 0.370
96.32000 0.538
96.34000 2.702
96.36000 1.084
96.38000 1.529
96.40000 1.724
96.42000 0.021
96.44000 -2.150
96.46000 -1.488
96.48000 2.320
96.50000 4.713
96.52000 9.177
96.54000 6.343
96.56000 3.852
96.58000 2.316
96.60000 5.890
96.62000 5.712
96.64000 10.024
96.66000 3.885
96.68000 2.023
96.70000 2.947
96.72000 7.363
96.74000 3.687
96.76000 1.908
96.78000 7.365
96.80000 9.140
96.82000 7.821
96.84000 2.765
96.86000 7.580
96.88000 7.165
96.90000 2.340
96.92000 6.817
96.94000 5.063
96.96000 -0.613
96.98000 2.473
97.00000 7.628
97.02000 6.993
97.04000 4.016
97.06000 5.531
97.08000 6.318
97.10000 3.158
97.12000 5.241
97.14000 5.560
97.16000 -0.165
97.18000 4.279
97.20000 4.582
97.22000 4.499
97.24000 3.565
97.26000 6.406
97.28000 6.650
97.30000 9.705
97.32000 4.871
97.34000 6.746
97.36000 3.227
97.38000 2.083
97.40000 -0.687
97.42000 -1.833
97.44000 2.209
97.46000 -1.438
97.48000 -1.819
97.50000 -0.855
97.52000 1.920
97.54000 6.962
97.56000 11.940
97.58000 2.549
97.60000 0.790
97.62000 3.509
97.64000 8.505
97.66000 -0.584
97.68000 -0.103
97.70000 -1.406
97.72000 11.781
97.74000 5.295
97.76000 2.107
97.78000 1.320
97.80000 1.268
97.82000 4.035
97.84000 5.138
97.86000 4.445
97.88000 3.783
97.90000 6.759
97.92000 -0.046
97.94000 -1.701
97.96000 1.131
97.98000 6.647
98.00000 6.756
98.02000 3.734
98.04000 0.438
98.06000 3.719
98.08000 3.642
98.10000 10.060
98.12000 8.022
98.14000 7.704
98.16000 13.452
98.18000 8.898
98.20000 6.607
98.22000 8.890
98.24000 2.558
98.26000 4.040
98.28000 6.332
98.30000 4.631
98.32000 8.105
98.34000 5.379
98.36000 3.961
98.38000 -1.281
98.40000 -2.078
98.42000 3.892
98.44000 11.181
98.46000 4.377
98.48000 0.975
98.50000 4.387
98.52000 6.025
98.54000 4.754
98.56000 11.243
98.58000 8.173
98.60000 10.113
98.62000 6.073
98.64000 8.980
98.66000 8.827
98.68000 -2.054
98.70000 -1.549
98.72000 1.107
98.74000 7.740
98.76000 10.573
98.78000 10.819
98.80000 13.570
98.82000 7.102
98.84000 3.330
98.86000 -0.316
98.88000 1.057
98.90000 -0.828
98.92000 2.080
98.94000 1.485
98.96000 4.995
98.98000 7.689
99.00000 3.001
99.02000 12.453
99.04000 10.956
99.06000 4.122
99.08000 2.818
99.10000 8.670
99.12000 7.334
99.14000 8.558
99.16000 9.998
99.18000 6.067
99.20000 2.511
99.22000 -0.508
99.24000 -2.047
99.26000 7.505
99.28000 14.609
99.30000 9.865
99.32000 8.450
99.34000 7.318
99.36000 -0.215
99.38000 6.414
99.40000 15.524
99.42000 15.774
99.44000 19.374
99.46000 13.234
99.48000 13.957
99.50000 4.977
99.52000 -1.030
99.54000 4.761
99.56000 6.364
99.58000 9.247
99.60000 14.701
99.62000 13.513
99.64000 3.631
99.66000 6.862
99.68000 -1.769
99.70000 -1.654
99.72000 -2.057
99.74000 4.012
99.76000 7.226
99.78000 2.774
99.80000 9.867
99.82000 7.774
99.84000 1.034
99.86000 0.400
99.88000 0.958
99.90000 3.077
99.92000 5.300
99.94000 -3.052
99.96000 7.289
99.98000 0.000
