'Id: "0011388" Comment: "Integrate frame 0011388_Au-Ir-Rh_Rh-rich_XRD-Mapping-268-0000.gfrmwith cursor Wedge Cursor #5" Operator: "B?rgel" Anode: "Cu" Wavelength: "1.5406" Scantype: "2Theta (TwoTheta)" TimePerStep: "1" X: "-4.5" Y: "22.5" Z: "5.95" 
10.00000 0.000
10.02000 7.910
10.04000 0.485
10.06000 2.662
10.08000 5.017
10.10000 3.475
10.12000 -2.731
10.14000 -0.344
10.16000 -1.673
10.18000 -4.348
10.20000 -4.343
10.22000 -4.340
10.24000 -0.767
10.26000 -2.241
10.28000 0.767
10.30000 3.331
10.32000 16.235
10.34000 15.831
10.36000 1.513
10.38000 0.697
10.40000 -2.864
10.42000 -4.217
10.44000 -4.320
10.46000 7.497
10.48000 -3.894
10.50000 12.380
10.52000 4.528
10.54000 1.532
10.56000 5.916
10.58000 4.783
10.60000 9.663
10.62000 18.104
10.64000 11.668
10.66000 11.508
10.68000 4.525
10.70000 18.912
10.72000 3.760
10.74000 -0.068
10.76000 7.547
10.78000 3.256
10.80000 -0.285
10.82000 -1.192
10.84000 -3.691
10.86000 8.509
10.88000 9.934
10.90000 16.534
10.92000 16.733
10.94000 23.147
10.96000 26.919
10.98000 7.518
11.00000 11.006
11.02000 2.162
11.04000 16.191
11.06000 22.997
11.08000 3.282
11.10000 11.931
11.12000 5.707
11.14000 1.580
11.16000 8.470
11.18000 9.246
11.20000 11.032
11.22000 13.933
11.24000 11.467
11.26000 0.578
11.28000 -1.074
11.30000 10.952
11.32000 3.833
11.34000 -4.362
11.36000 -0.658
11.38000 10.111
11.40000 18.561
11.42000 12.253
11.44000 11.608
11.46000 13.219
11.48000 9.933
11.50000 7.001
11.52000 11.363
11.54000 14.656
11.56000 17.959
11.58000 14.286
11.60000 16.328
11.62000 16.599
11.64000 14.310
11.66000 9.960
11.68000 4.091
11.70000 -1.428
11.72000 -0.134
11.74000 9.263
11.76000 7.529
11.78000 16.356
11.80000 14.427
11.82000 16.333
11.84000 13.738
11.86000 12.575
11.88000 -0.200
11.90000 -0.545
11.92000 8.386
11.94000 16.301
11.96000 17.926
11.98000 3.138
12.00000 2.521
12.02000 7.361
12.04000 2.329
12.06000 7.579
12.08000 14.245
12.10000 13.794
12.12000 21.117
12.14000 21.221
12.16000 17.897
12.18000 19.191
12.20000 10.751
12.22000 11.146
12.24000 22.509
12.26000 10.894
12.28000 14.187
12.30000 14.324
12.32000 13.329
12.34000 19.045
12.36000 5.344
12.38000 0.258
12.40000 16.917
12.42000 13.265
12.44000 7.510
12.46000 15.281
12.48000 25.522
12.50000 22.599
12.52000 10.689
12.54000 7.005
12.56000 11.865
12.58000 10.714
12.60000 16.646
12.62000 15.890
12.64000 7.545
12.66000 13.310
12.68000 15.927
12.70000 23.797
12.72000 23.868
12.74000 13.058
12.76000 6.026
12.78000 10.335
12.80000 23.183
12.82000 19.096
12.84000 7.787
12.86000 13.363
12.88000 18.604
12.90000 7.704
12.92000 10.780
12.94000 19.924
12.96000 13.383
12.98000 13.181
13.00000 15.777
13.02000 12.520
13.04000 5.674
13.06000 7.660
13.08000 12.265
13.10000 8.306
13.12000 2.167
13.14000 5.671
13.16000 8.727
13.18000 16.180
13.20000 17.757
13.22000 19.443
13.24000 16.232
13.26000 19.539
13.28000 12.008
13.30000 -0.005
13.32000 9.622
13.34000 19.476
13.36000 17.897
13.38000 18.152
13.40000 16.992
13.42000 14.762
13.44000 16.845
13.46000 10.384
13.48000 18.462
13.50000 18.353
13.52000 15.097
13.54000 6.930
13.56000 5.191
13.58000 9.653
13.60000 16.969
13.62000 14.015
13.64000 13.781
13.66000 10.637
13.68000 12.144
13.70000 14.865
13.72000 18.735
13.74000 18.707
13.76000 6.511
13.78000 0.770
13.80000 5.964
13.82000 10.088
13.84000 13.538
13.86000 14.732
13.88000 12.063
13.90000 23.853
13.92000 12.859
13.94000 5.512
13.96000 6.521
13.98000 2.984
14.00000 2.001
14.02000 13.140
14.04000 16.669
14.06000 13.609
14.08000 19.008
14.10000 13.125
14.12000 16.011
14.14000 9.609
14.16000 16.072
14.18000 18.626
14.20000 20.333
14.22000 16.583
14.24000 13.832
14.26000 20.929
14.28000 17.793
14.30000 5.860
14.32000 10.904
14.34000 21.236
14.36000 8.649
14.38000 7.358
14.40000 9.172
14.42000 8.451
14.44000 11.657
14.46000 8.400
14.48000 16.116
14.50000 14.019
14.52000 7.847
14.54000 14.237
14.56000 20.279
14.58000 23.100
14.60000 10.620
14.62000 16.622
14.64000 16.964
14.66000 7.439
14.68000 8.444
14.70000 12.445
14.72000 10.805
14.74000 18.198
14.76000 20.706
14.78000 21.888
14.80000 13.895
14.82000 19.929
14.84000 7.374
14.86000 14.229
14.88000 14.906
14.90000 14.033
14.92000 9.827
14.94000 11.437
14.96000 6.196
14.98000 -2.420
15.00000 -0.128
15.02000 -4.421
15.04000 2.456
15.06000 12.852
15.08000 9.846
15.10000 14.224
15.12000 10.485
15.14000 1.233
15.16000 8.776
15.18000 8.573
15.20000 9.927
15.22000 7.881
15.24000 5.315
15.26000 4.024
15.28000 8.481
15.30000 10.838
15.32000 1.644
15.34000 1.229
15.36000 7.727
15.38000 6.042
15.40000 9.862
15.42000 8.097
15.44000 6.323
15.46000 8.391
15.48000 12.350
15.50000 11.244
15.52000 9.322
15.54000 11.420
15.56000 10.812
15.58000 0.649
15.60000 11.056
15.62000 11.841
15.64000 11.109
15.66000 21.541
15.68000 22.907
15.70000 10.930
15.72000 8.485
15.74000 7.529
15.76000 5.235
15.78000 5.742
15.80000 7.552
15.82000 3.667
15.84000 8.907
15.86000 7.002
15.88000 5.028
15.90000 8.717
15.92000 3.939
15.94000 4.079
15.96000 -0.358
15.98000 16.905
16.00000 17.292
16.02000 6.363
16.04000 6.073
16.06000 8.793
16.08000 5.797
16.10000 22.003
16.12000 14.522
16.14000 5.905
16.16000 7.993
16.18000 14.087
16.20000 9.540
16.22000 5.837
16.24000 19.403
16.26000 17.256
16.28000 11.613
16.30000 10.843
16.32000 10.134
16.34000 11.468
16.36000 12.979
16.38000 10.394
16.40000 14.829
16.42000 16.358
16.44000 12.276
16.46000 15.530
16.48000 14.465
16.50000 10.111
16.52000 8.373
16.54000 5.666
16.56000 5.019
16.58000 7.864
16.60000 12.368
16.62000 1.102
16.64000 1.032
16.66000 4.992
16.68000 1.671
16.70000 -0.362
16.72000 8.662
16.74000 7.672
16.76000 -0.311
16.78000 8.697
16.80000 14.187
16.82000 7.623
16.84000 -1.726
16.86000 2.492
16.88000 13.813
16.90000 6.896
16.92000 5.722
16.94000 8.287
16.96000 9.621
16.98000 11.227
17.00000 6.751
17.02000 -1.030
17.04000 6.057
17.06000 6.954
17.08000 -2.899
17.10000 -4.400
17.12000 7.638
17.14000 15.065
17.16000 12.955
17.18000 4.767
17.20000 17.038
17.22000 14.178
17.24000 14.571
17.26000 14.495
17.28000 1.915
17.30000 3.701
17.32000 2.710
17.34000 7.092
17.36000 6.131
17.38000 10.452
17.40000 8.651
17.42000 2.411
17.44000 5.850
17.46000 6.655
17.48000 6.122
17.50000 4.834
17.52000 1.487
17.54000 -3.177
17.56000 -2.610
17.58000 4.250
17.60000 5.346
17.62000 -4.378
17.64000 1.288
17.66000 10.643
17.68000 4.997
17.70000 8.081
17.72000 10.086
17.74000 9.263
17.76000 8.994
17.78000 11.451
17.80000 6.873
17.82000 7.343
17.84000 9.496
17.86000 7.520
17.88000 15.174
17.90000 13.007
17.92000 9.377
17.94000 1.738
17.96000 3.894
17.98000 7.145
18.00000 7.257
18.02000 4.384
18.04000 -2.518
18.06000 6.793
18.08000 7.626
18.10000 4.412
18.12000 11.303
18.14000 4.307
18.16000 5.928
18.18000 11.656
18.20000 5.893
18.22000 4.762
18.24000 5.389
18.26000 8.065
18.28000 13.164
18.30000 16.766
18.32000 11.795
18.34000 3.268
18.36000 1.523
18.38000 3.724
18.40000 8.031
18.42000 7.301
18.44000 8.077
18.46000 5.765
18.48000 3.401
18.50000 -1.730
18.52000 7.395
18.54000 9.373
18.56000 5.592
18.58000 5.706
18.60000 1.196
18.62000 -0.244
18.64000 -0.878
18.66000 2.552
18.68000 7.775
18.70000 3.063
18.72000 3.700
18.74000 9.020
18.76000 2.393
18.78000 0.375
18.80000 -4.302
18.82000 -0.547
18.84000 6.289
18.86000 8.635
18.88000 4.989
18.90000 6.776
18.92000 7.365
18.94000 5.358
18.96000 6.814
18.98000 8.224
19.00000 4.284
19.02000 -1.180
19.04000 0.263
19.06000 0.993
19.08000 4.217
19.10000 4.288
19.12000 9.002
19.14000 4.252
19.16000 7.718
19.18000 8.302
19.20000 8.415
19.22000 6.265
19.24000 8.120
19.26000 2.420
19.28000 3.346
19.30000 7.873
19.32000 10.344
19.34000 9.190
19.36000 7.144
19.38000 10.540
19.40000 7.920
19.42000 7.501
19.44000 4.236
19.46000 6.259
19.48000 8.368
19.50000 12.875
19.52000 12.067
19.54000 1.342
19.56000 3.374
19.58000 4.826
19.60000 5.196
19.62000 4.515
19.64000 6.774
19.66000 1.577
19.68000 -1.579
19.70000 -0.987
19.72000 8.249
19.74000 10.355
19.76000 14.017
19.78000 10.887
19.80000 6.776
19.82000 6.895
19.84000 4.568
19.86000 11.922
19.88000 8.877
19.90000 0.216
19.92000 -3.292
19.94000 1.709
19.96000 1.353
19.98000 2.809
20.00000 5.320
20.02000 3.649
20.04000 3.456
20.06000 9.054
20.08000 4.864
20.10000 4.265
20.12000 6.886
20.14000 2.457
20.16000 10.226
20.18000 12.525
20.20000 5.762
20.22000 10.494
20.24000 7.794
20.26000 0.161
20.28000 -4.203
20.30000 5.839
20.32000 6.778
20.34000 1.972
20.36000 -2.563
20.38000 -1.696
20.40000 1.269
20.42000 7.348
20.44000 12.906
20.46000 0.520
20.48000 -0.271
20.50000 0.585
20.52000 6.348
20.54000 8.389
20.56000 7.674
20.58000 8.627
20.60000 5.587
20.62000 8.072
20.64000 9.098
20.66000 6.319
20.68000 7.835
20.70000 3.895
20.72000 9.392
20.74000 4.899
20.76000 4.926
20.78000 6.466
20.80000 12.151
20.82000 13.710
20.84000 14.078
20.86000 11.372
20.88000 2.921
20.90000 6.333
20.92000 9.292
20.94000 12.192
20.96000 10.855
20.98000 0.239
21.00000 -0.845
21.02000 2.974
21.04000 3.717
21.06000 4.667
21.08000 3.391
21.10000 6.144
21.12000 1.284
21.14000 6.736
21.16000 11.588
21.18000 10.020
21.20000 5.484
21.22000 7.845
21.24000 10.707
21.26000 4.941
21.28000 4.798
21.30000 7.757
21.32000 9.856
21.34000 11.650
21.36000 8.903
21.38000 1.987
21.40000 -0.701
21.42000 2.653
21.44000 1.549
21.46000 4.964
21.48000 -0.415
21.50000 -2.890
21.52000 -2.462
21.54000 3.704
21.56000 3.075
21.58000 -0.265
21.60000 -0.475
21.62000 5.157
21.64000 9.600
21.66000 3.121
21.68000 3.058
21.70000 5.566
21.72000 4.218
21.74000 -4.141
21.76000 -2.515
21.78000 2.313
21.80000 -0.321
21.82000 4.866
21.84000 9.775
21.86000 15.659
21.88000 9.470
21.90000 4.155
21.92000 4.768
21.94000 5.215
21.96000 5.466
21.98000 4.893
22.00000 3.372
22.02000 -0.547
22.04000 1.826
22.06000 3.866
22.08000 6.720
22.10000 7.837
22.12000 7.902
22.14000 7.752
22.16000 7.764
22.18000 -2.732
22.20000 -1.584
22.22000 -0.666
22.24000 2.638
22.26000 6.158
22.28000 3.460
22.30000 0.246
22.32000 1.448
22.34000 11.406
22.36000 5.315
22.38000 3.573
22.40000 2.380
22.42000 5.319
22.44000 7.446
22.46000 6.995
22.48000 8.561
22.50000 5.227
22.52000 2.000
22.54000 -2.414
22.56000 0.182
22.58000 2.852
22.60000 5.761
22.62000 -0.739
22.64000 2.487
22.66000 9.353
22.68000 6.541
22.70000 10.820
22.72000 8.429
22.74000 4.661
22.76000 3.225
22.78000 0.631
22.80000 -0.814
22.82000 -2.530
22.84000 2.026
22.86000 1.574
22.88000 4.144
22.90000 6.469
22.92000 3.102
22.94000 2.411
22.96000 4.181
22.98000 2.214
23.00000 2.554
23.02000 5.905
23.04000 11.661
23.06000 7.587
23.08000 3.543
23.10000 -2.023
23.12000 -3.037
23.14000 -3.077
23.16000 4.296
23.18000 4.301
23.20000 5.628
23.22000 2.572
23.24000 -1.582
23.26000 0.991
23.28000 3.620
23.30000 3.528
23.32000 2.751
23.34000 2.659
23.36000 -0.993
23.38000 1.494
23.40000 2.780
23.42000 -4.059
23.44000 1.535
23.46000 5.456
23.48000 4.461
23.50000 4.041
23.52000 7.685
23.54000 7.555
23.56000 8.039
23.58000 6.081
23.60000 6.700
23.62000 10.300
23.64000 4.415
23.66000 2.859
23.68000 -1.067
23.70000 4.172
23.72000 7.891
23.74000 5.553
23.76000 12.484
23.78000 8.862
23.80000 1.316
23.82000 8.197
23.84000 7.906
23.86000 5.109
23.88000 3.712
23.90000 1.320
23.92000 -3.420
23.94000 -1.833
23.96000 -3.313
23.98000 -0.750
24.00000 1.317
24.02000 -0.534
24.04000 -4.019
24.06000 0.621
24.08000 3.341
24.10000 5.405
24.12000 8.705
24.14000 3.734
24.16000 7.251
24.18000 3.796
24.20000 2.661
24.22000 2.479
24.24000 -2.182
24.26000 -2.434
24.28000 2.240
24.30000 3.537
24.32000 3.552
24.34000 3.674
24.36000 7.606
24.38000 2.883
24.40000 -1.763
24.42000 -2.956
24.44000 0.081
24.46000 2.401
24.48000 9.708
24.50000 8.683
24.52000 5.001
24.54000 -0.448
24.56000 -0.789
24.58000 6.723
24.60000 6.312
24.62000 1.993
24.64000 5.217
24.66000 6.767
24.68000 4.957
24.70000 4.118
24.72000 5.011
24.74000 7.527
24.76000 6.199
24.78000 3.164
24.80000 3.281
24.82000 7.038
24.84000 3.652
24.86000 1.060
24.88000 1.545
24.90000 1.972
24.92000 6.076
24.94000 8.902
24.96000 5.283
24.98000 -2.939
25.00000 -1.430
25.02000 9.648
25.04000 12.841
25.06000 10.498
25.08000 3.645
25.10000 8.306
25.12000 5.957
25.14000 2.602
25.16000 7.820
25.18000 3.470
25.20000 -3.941
25.22000 -3.941
25.24000 7.349
25.26000 7.891
25.28000 7.414
25.30000 7.832
25.32000 8.217
25.34000 6.730
25.36000 7.835
25.38000 7.224
25.40000 9.916
25.42000 8.086
25.44000 3.050
25.46000 2.121
25.48000 1.979
25.50000 1.922
25.52000 7.213
25.54000 10.973
25.56000 9.045
25.58000 -1.128
25.60000 2.526
25.62000 11.711
25.64000 9.839
25.66000 5.851
25.68000 3.072
25.70000 0.722
25.72000 1.353
25.74000 -0.473
25.76000 -0.610
25.78000 2.134
25.80000 4.145
25.82000 8.852
25.84000 5.326
25.86000 0.864
25.88000 -2.738
25.90000 -0.233
25.92000 4.426
25.94000 3.048
25.96000 4.662
25.98000 5.331
26.00000 2.067
26.02000 -1.038
26.04000 -0.772
26.06000 0.621
26.08000 1.895
26.10000 3.710
26.12000 3.886
26.14000 5.106
26.16000 1.844
26.18000 2.490
26.20000 4.102
26.22000 4.394
26.24000 3.936
26.26000 -3.922
26.28000 3.594
26.30000 2.722
26.32000 3.793
26.34000 6.139
26.36000 8.655
26.38000 3.584
26.40000 -0.742
26.42000 -2.402
26.44000 -2.567
26.46000 4.123
26.48000 5.044
26.50000 9.190
26.52000 6.043
26.54000 -0.942
26.56000 -0.122
26.58000 3.025
26.60000 -0.730
26.62000 4.093
26.64000 5.705
26.66000 0.218
26.68000 0.660
26.70000 -1.600
26.72000 1.287
26.74000 1.605
26.76000 -0.839
26.78000 0.918
26.80000 -1.704
26.82000 0.381
26.84000 1.571
26.86000 5.026
26.88000 4.276
26.90000 0.635
26.92000 2.675
26.94000 6.788
26.96000 4.831
26.98000 0.722
27.00000 1.059
27.02000 0.248
27.04000 5.315
27.06000 7.637
27.08000 3.448
27.10000 0.699
27.12000 7.232
27.14000 7.535
27.16000 1.410
27.18000 0.869
27.20000 1.056
27.22000 0.373
27.24000 3.641
27.26000 4.690
27.28000 7.880
27.30000 7.836
27.32000 5.142
27.34000 4.290
27.36000 3.351
27.38000 7.995
27.40000 8.396
27.42000 8.865
27.44000 4.153
27.46000 8.735
27.48000 6.103
27.50000 -1.432
27.52000 2.714
27.54000 1.935
27.56000 3.378
27.58000 0.665
27.60000 0.731
27.62000 0.303
27.64000 -1.060
27.66000 2.363
27.68000 -1.129
27.70000 -2.673
27.72000 1.644
27.74000 3.223
27.76000 0.041
27.78000 3.038
27.80000 1.227
27.82000 -0.823
27.84000 3.652
27.86000 0.629
27.88000 -2.503
27.90000 -0.588
27.92000 4.652
27.94000 2.403
27.96000 0.996
27.98000 3.618
28.00000 -2.289
28.02000 0.723
28.04000 2.986
28.06000 1.692
28.08000 1.475
28.10000 -2.167
28.12000 -1.159
28.14000 -0.508
28.16000 2.862
28.18000 2.343
28.20000 3.412
28.22000 4.504
28.24000 8.588
28.26000 7.538
28.28000 2.203
28.30000 -0.806
28.32000 0.694
28.34000 6.289
28.36000 -3.280
28.38000 -3.786
28.40000 -1.864
28.42000 1.937
28.44000 1.465
28.46000 0.839
28.48000 6.558
28.50000 6.760
28.52000 5.163
28.54000 3.823
28.56000 -0.284
28.58000 6.197
28.60000 7.875
28.62000 5.597
28.64000 -0.599
28.66000 2.345
28.68000 6.077
28.70000 4.563
28.72000 2.024
28.74000 4.539
28.76000 7.966
28.78000 6.791
28.80000 2.243
28.82000 3.324
28.84000 -0.617
28.86000 3.905
28.88000 -1.187
28.90000 -3.753
28.92000 2.179
28.94000 5.662
28.96000 5.516
28.98000 7.936
29.00000 3.802
29.02000 1.949
29.04000 5.931
29.06000 3.376
29.08000 3.096
29.10000 6.107
29.12000 9.071
29.14000 3.859
29.16000 -3.400
29.18000 2.407
29.20000 6.245
29.22000 -0.375
29.24000 -0.218
29.26000 2.970
29.28000 2.883
29.30000 4.516
29.32000 4.404
29.34000 5.401
29.36000 6.452
29.38000 5.387
29.40000 4.011
29.42000 0.899
29.44000 1.873
29.46000 6.971
29.48000 3.270
29.50000 2.746
29.52000 7.601
29.54000 8.622
29.56000 6.436
29.58000 1.712
29.60000 0.736
29.62000 4.029
29.64000 6.902
29.66000 3.163
29.68000 1.699
29.70000 -0.749
29.72000 -1.643
29.74000 2.972
29.76000 3.646
29.78000 0.921
29.80000 4.034
29.82000 5.107
29.84000 6.449
29.86000 1.453
29.88000 -0.125
29.90000 1.184
29.92000 6.952
29.94000 3.266
29.96000 4.753
29.98000 6.057
30.00000 1.624
30.02000 3.080
30.04000 3.345
30.06000 1.294
30.08000 -1.844
30.10000 2.490
30.12000 2.225
30.14000 2.155
30.16000 -3.692
30.18000 -1.942
30.20000 6.005
30.22000 5.100
30.24000 3.229
30.26000 2.192
30.28000 -0.809
30.30000 1.225
30.32000 2.364
30.34000 7.984
30.36000 4.570
30.38000 6.053
30.40000 5.029
30.42000 9.040
30.44000 7.288
30.46000 3.886
30.48000 4.372
30.50000 3.605
30.52000 6.843
30.54000 8.434
30.56000 8.016
30.58000 1.667
30.60000 4.057
30.62000 6.772
30.64000 3.961
30.66000 4.342
30.68000 0.042
30.70000 2.335
30.72000 0.532
30.74000 1.248
30.76000 8.791
30.78000 6.785
30.80000 9.916
30.82000 6.512
30.84000 7.908
30.86000 5.585
30.88000 6.211
30.90000 6.966
30.92000 4.006
30.94000 3.363
30.96000 4.251
30.98000 5.509
31.00000 5.327
31.02000 4.817
31.04000 8.403
31.06000 10.220
31.08000 10.810
31.10000 6.378
31.12000 4.217
31.14000 -3.645
31.16000 0.094
31.18000 3.944
31.20000 -0.539
31.22000 0.650
31.24000 1.854
31.26000 3.371
31.28000 6.195
31.30000 7.469
31.32000 5.882
31.34000 8.015
31.36000 7.238
31.38000 1.023
31.40000 0.549
31.42000 7.545
31.44000 6.808
31.46000 2.322
31.48000 7.843
31.50000 8.652
31.52000 5.845
31.54000 6.668
31.56000 6.259
31.58000 5.413
31.60000 3.338
31.62000 3.063
31.64000 2.579
31.66000 6.119
31.68000 3.252
31.70000 1.907
31.72000 1.172
31.74000 6.675
31.76000 10.452
31.78000 0.363
31.80000 -3.618
31.82000 -1.718
31.84000 -1.402
31.86000 -0.171
31.88000 0.913
31.90000 4.071
31.92000 3.805
31.94000 2.911
31.96000 8.633
31.98000 5.639
32.00000 1.841
32.02000 5.667
32.04000 2.868
32.06000 0.450
32.08000 -0.976
32.10000 1.716
32.12000 2.304
32.14000 3.313
32.16000 6.539
32.18000 4.425
32.20000 4.484
32.22000 4.891
32.24000 5.126
32.26000 0.500
32.28000 -1.208
32.30000 0.987
32.32000 2.055
32.34000 2.241
32.36000 1.797
32.38000 -0.406
32.40000 -1.459
32.42000 0.407
32.44000 1.708
32.46000 0.444
32.48000 -2.919
32.50000 0.434
32.52000 -1.049
32.54000 -0.732
32.56000 -1.697
32.58000 2.681
32.60000 5.587
32.62000 3.732
32.64000 4.856
32.66000 8.772
32.68000 -1.211
32.70000 -3.628
32.72000 -2.107
32.74000 3.728
32.76000 3.608
32.78000 3.751
32.80000 2.384
32.82000 1.200
32.84000 -1.787
32.86000 -2.196
32.88000 -0.055
32.90000 0.374
32.92000 5.753
32.94000 1.100
32.96000 -1.319
32.98000 -0.657
33.00000 -2.650
33.02000 -3.065
33.04000 5.214
33.06000 5.663
33.08000 -2.422
33.10000 1.268
33.12000 -0.936
33.14000 -3.624
33.16000 -1.689
33.18000 0.616
33.20000 -0.054
33.22000 0.069
33.24000 0.915
33.26000 5.808
33.28000 -1.836
33.30000 -2.123
33.32000 3.946
33.34000 1.729
33.36000 -1.933
33.38000 -2.527
33.40000 2.671
33.42000 1.770
33.44000 2.024
33.46000 3.361
33.48000 5.240
33.50000 3.834
33.52000 8.942
33.54000 6.598
33.56000 2.758
33.58000 4.813
33.60000 6.888
33.62000 5.062
33.64000 3.595
33.66000 1.080
33.68000 7.210
33.70000 2.312
33.72000 -3.609
33.74000 -0.562
33.76000 -2.187
33.78000 -1.758
33.80000 0.780
33.82000 1.129
33.84000 0.646
33.86000 -1.261
33.88000 -1.785
33.90000 1.382
33.92000 0.382
33.94000 -2.956
33.96000 1.055
33.98000 -0.482
34.00000 6.914
34.02000 8.778
34.04000 1.821
34.06000 1.354
34.08000 6.315
34.10000 8.663
34.12000 5.559
34.14000 0.331
34.16000 0.994
34.18000 2.389
34.20000 3.764
34.22000 3.108
34.24000 -1.655
34.26000 -2.612
34.28000 6.925
34.30000 7.017
34.32000 3.346
34.34000 4.182
34.36000 9.800
34.38000 6.377
34.40000 0.731
34.42000 3.098
34.44000 6.602
34.46000 5.321
34.48000 1.990
34.50000 4.153
34.52000 1.637
34.54000 4.090
34.56000 5.397
34.58000 2.696
34.60000 0.174
34.62000 4.854
34.64000 3.431
34.66000 4.990
34.68000 3.521
34.70000 4.132
34.72000 6.093
34.74000 2.507
34.76000 -0.459
34.78000 0.639
34.80000 1.852
34.82000 0.610
34.84000 5.353
34.86000 6.188
34.88000 -2.064
34.90000 -3.573
34.92000 -1.396
34.94000 1.356
34.96000 4.326
34.98000 4.023
35.00000 4.252
35.02000 7.640
35.04000 2.636
35.06000 2.426
35.08000 1.669
35.10000 1.744
35.12000 -0.690
35.14000 -0.892
35.16000 1.218
35.18000 0.662
35.20000 2.364
35.22000 -0.612
35.24000 2.608
35.26000 3.576
35.28000 4.641
35.30000 2.194
35.32000 -0.223
35.34000 -1.220
35.36000 2.333
35.38000 3.059
35.40000 5.090
35.42000 2.597
35.44000 3.057
35.46000 9.646
35.48000 3.050
35.50000 -2.294
35.52000 0.964
35.54000 2.886
35.56000 3.920
35.58000 1.257
35.60000 -0.138
35.62000 2.971
35.64000 -3.581
35.66000 3.339
35.68000 1.871
35.70000 3.261
35.72000 7.678
35.74000 5.678
35.76000 3.248
35.78000 6.346
35.80000 5.201
35.82000 1.679
35.84000 -1.317
35.86000 -0.538
35.88000 -0.690
35.90000 0.276
35.92000 1.730
35.94000 1.803
35.96000 -2.151
35.98000 -1.758
36.00000 1.038
36.02000 2.115
36.04000 2.365
36.06000 -1.451
36.08000 -0.260
36.10000 2.094
36.12000 0.477
36.14000 2.830
36.16000 -1.233
36.18000 1.278
36.20000 3.253
36.22000 0.688
36.24000 0.940
36.26000 -1.635
36.28000 -1.558
36.30000 -1.929
36.32000 -2.249
36.34000 0.568
36.36000 3.110
36.38000 0.872
36.40000 -0.472
36.42000 -0.498
36.44000 -2.674
36.46000 -1.458
36.48000 -3.597
36.50000 -1.631
36.52000 -0.922
36.54000 3.306
36.56000 4.196
36.58000 3.120
36.60000 1.106
36.62000 -0.671
36.64000 1.978
36.66000 0.076
36.68000 3.767
36.70000 8.083
36.72000 7.505
36.74000 6.545
36.76000 5.520
36.78000 2.897
36.80000 4.317
36.82000 6.253
36.84000 0.602
36.86000 2.721
36.88000 7.587
36.90000 6.318
36.92000 7.196
36.94000 10.659
36.96000 6.538
36.98000 3.750
37.00000 -0.556
37.02000 -3.601
37.04000 1.913
37.06000 2.632
37.08000 3.622
37.10000 5.492
37.12000 7.716
37.14000 7.012
37.16000 1.768
37.18000 1.498
37.20000 3.830
37.22000 4.717
37.24000 6.831
37.26000 2.346
37.28000 2.323
37.30000 4.399
37.32000 4.976
37.34000 -1.940
37.36000 -0.906
37.38000 -0.608
37.40000 5.560
37.42000 8.671
37.44000 9.989
37.46000 4.683
37.48000 3.022
37.50000 4.740
37.52000 1.307
37.54000 -1.838
37.56000 1.830
37.58000 4.975
37.60000 4.504
37.62000 3.858
37.64000 4.094
37.66000 7.443
37.68000 4.525
37.70000 6.512
37.72000 9.222
37.74000 7.104
37.76000 6.864
37.78000 7.407
37.80000 5.415
37.82000 5.984
37.84000 4.857
37.86000 7.619
37.88000 5.827
37.90000 10.285
37.92000 10.580
37.94000 13.306
37.96000 14.410
37.98000 13.560
38.00000 9.059
38.02000 13.575
38.04000 18.227
38.06000 15.087
38.08000 14.801
38.10000 12.747
38.12000 13.860
38.14000 21.363
38.16000 20.689
38.18000 23.865
38.20000 18.782
38.22000 15.665
38.24000 10.036
38.26000 11.733
38.28000 20.818
38.30000 20.338
38.32000 19.827
38.34000 22.214
38.36000 19.359
38.38000 22.835
38.40000 23.764
38.42000 27.954
38.44000 28.149
38.46000 26.548
38.48000 29.966
38.50000 23.842
38.52000 25.274
38.54000 26.375
38.56000 27.846
38.58000 29.553
38.60000 28.405
38.62000 24.632
38.64000 32.099
38.66000 35.503
38.68000 33.769
38.70000 35.536
38.72000 37.790
38.74000 40.813
38.76000 41.467
38.78000 43.339
38.80000 44.408
38.82000 48.956
38.84000 49.375
38.86000 46.244
38.88000 46.879
38.90000 50.022
38.92000 54.635
38.94000 55.611
38.96000 59.448
38.98000 59.030
39.00000 65.456
39.02000 66.823
39.04000 72.815
39.06000 74.437
39.08000 73.886
39.10000 70.301
39.12000 76.327
39.14000 85.229
39.16000 94.326
39.18000 88.915
39.20000 90.308
39.22000 100.643
39.24000 103.217
39.26000 100.626
39.28000 110.272
39.30000 117.197
39.32000 119.585
39.34000 119.114
39.36000 128.010
39.38000 134.285
39.40000 133.708
39.42000 145.449
39.44000 154.231
39.46000 163.474
39.48000 170.006
39.50000 175.150
39.52000 189.555
39.54000 197.017
39.56000 207.528
39.58000 224.973
39.60000 229.598
39.62000 232.067
39.64000 240.845
39.66000 253.796
39.68000 271.241
39.70000 295.948
39.72000 304.812
39.74000 306.837
39.76000 325.230
39.78000 341.918
39.80000 349.087
39.82000 365.279
39.84000 379.131
39.86000 401.669
39.88000 426.488
39.90000 438.801
39.92000 446.102
39.94000 461.537
39.96000 477.583
39.98000 502.265
40.00000 524.415
40.02000 530.301
40.04000 544.031
40.06000 550.730
40.08000 567.089
40.10000 576.187
40.12000 587.032
40.14000 608.705
40.16000 611.833
40.18000 620.698
40.20000 626.434
40.22000 631.437
40.24000 639.390
40.26000 645.981
40.28000 643.249
40.30000 629.445
40.32000 622.368
40.34000 612.891
40.36000 621.114
40.38000 618.422
40.40000 599.864
40.42000 597.083
40.44000 580.499
40.46000 566.235
40.48000 563.005
40.50000 536.462
40.52000 519.081
40.54000 499.873
40.56000 490.736
40.58000 475.781
40.60000 462.600
40.62000 447.524
40.64000 431.535
40.66000 405.250
40.68000 385.596
40.70000 372.473
40.72000 348.327
40.74000 344.800
40.76000 325.043
40.78000 316.493
40.80000 300.831
40.82000 277.637
40.84000 261.982
40.86000 255.567
40.88000 233.618
40.90000 217.286
40.92000 214.022
40.94000 207.830
40.96000 195.961
40.98000 184.118
41.00000 171.933
41.02000 162.418
41.04000 152.073
41.06000 145.860
41.08000 138.300
41.10000 130.100
41.12000 119.910
41.14000 118.739
41.16000 115.113
41.18000 107.027
41.20000 100.937
41.22000 95.396
41.24000 95.509
41.26000 87.514
41.28000 78.439
41.30000 75.432
41.32000 69.202
41.34000 65.289
41.36000 61.399
41.38000 59.030
41.40000 55.015
41.42000 48.038
41.44000 49.118
41.46000 52.978
41.48000 50.611
41.50000 45.938
41.52000 45.854
41.54000 42.966
41.56000 37.124
41.58000 36.807
41.60000 35.357
41.62000 36.177
41.64000 32.267
41.66000 29.735
41.68000 24.694
41.70000 29.126
41.72000 28.411
41.74000 23.878
41.76000 24.994
41.78000 22.334
41.80000 21.000
41.82000 20.199
41.84000 19.029
41.86000 20.107
41.88000 13.937
41.90000 17.427
41.92000 19.328
41.94000 18.670
41.96000 12.497
41.98000 10.855
42.00000 13.963
42.02000 12.371
42.04000 13.192
42.06000 10.686
42.08000 11.052
42.10000 12.180
42.12000 10.591
42.14000 9.228
42.16000 8.511
42.18000 9.185
42.20000 2.706
42.22000 5.872
42.24000 5.876
42.26000 5.512
42.28000 10.586
42.30000 2.816
42.32000 -1.294
42.34000 1.520
42.36000 6.666
42.38000 6.158
42.40000 2.503
42.42000 4.123
42.44000 4.383
42.46000 7.084
42.48000 6.508
42.50000 7.458
42.52000 1.908
42.54000 0.922
42.56000 -0.517
42.58000 3.319
42.60000 0.005
42.62000 2.168
42.64000 5.501
42.66000 0.183
42.68000 3.463
42.70000 4.957
42.72000 8.720
42.74000 10.142
42.76000 1.635
42.78000 1.632
42.80000 4.821
42.82000 1.401
42.84000 -2.310
42.86000 0.616
42.88000 6.431
42.90000 1.504
42.92000 0.476
42.94000 5.694
42.96000 9.457
42.98000 9.893
43.00000 8.455
43.02000 2.992
43.04000 3.809
43.06000 7.879
43.08000 4.273
43.10000 2.619
43.12000 2.329
43.14000 0.369
43.16000 2.145
43.18000 6.331
43.20000 5.778
43.22000 1.414
43.24000 1.171
43.26000 0.923
43.28000 2.224
43.30000 6.476
43.32000 4.873
43.34000 5.325
43.36000 4.746
43.38000 2.721
43.40000 -1.239
43.42000 1.821
43.44000 6.290
43.46000 4.277
43.48000 6.029
43.50000 1.894
43.52000 0.901
43.54000 0.177
43.56000 -3.461
43.58000 1.164
43.60000 6.812
43.62000 5.747
43.64000 4.188
43.66000 3.255
43.68000 6.385
43.70000 8.154
43.72000 8.839
43.74000 7.246
43.76000 9.413
43.78000 7.873
43.80000 5.899
43.82000 2.685
43.84000 2.797
43.86000 3.826
43.88000 4.176
43.90000 2.490
43.92000 2.937
43.94000 -0.502
43.96000 4.148
43.98000 4.530
44.00000 4.269
44.02000 6.094
44.04000 3.196
44.06000 3.503
44.08000 1.750
44.10000 -1.730
44.12000 1.813
44.14000 5.398
44.16000 0.845
44.18000 2.054
44.20000 1.285
44.22000 3.935
44.24000 6.224
44.26000 9.086
44.28000 1.891
44.30000 -0.758
44.32000 -0.401
44.34000 1.883
44.36000 5.232
44.38000 -0.244
44.40000 0.184
44.42000 2.491
44.44000 -1.998
44.46000 -0.438
44.48000 2.620
44.50000 1.494
44.52000 0.290
44.54000 -0.506
44.56000 -0.535
44.58000 0.210
44.60000 8.376
44.62000 6.750
44.64000 4.861
44.66000 2.632
44.68000 -0.205
44.70000 -0.040
44.72000 7.391
44.74000 5.950
44.76000 3.718
44.78000 3.923
44.80000 5.832
44.82000 4.118
44.84000 5.608
44.86000 8.241
44.88000 9.141
44.90000 5.503
44.92000 3.552
44.94000 3.309
44.96000 6.662
44.98000 9.149
45.00000 7.031
45.02000 -0.044
45.04000 6.299
45.06000 12.589
45.08000 16.912
45.10000 19.089
45.12000 10.540
45.14000 7.447
45.16000 9.093
45.18000 8.226
45.20000 9.552
45.22000 10.688
45.24000 6.487
45.26000 6.220
45.28000 8.916
45.30000 13.003
45.32000 16.692
45.34000 10.997
45.36000 12.995
45.38000 15.219
45.40000 16.993
45.42000 15.062
45.44000 14.182
45.46000 14.384
45.48000 16.156
45.50000 18.898
45.52000 18.357
45.54000 11.503
45.56000 21.867
45.58000 20.291
45.60000 21.811
45.62000 18.465
45.64000 20.758
45.66000 27.546
45.68000 25.852
45.70000 28.284
45.72000 35.577
45.74000 35.459
45.76000 32.447
45.78000 26.313
45.80000 29.840
45.82000 33.784
45.84000 38.312
45.86000 41.354
45.88000 36.338
45.90000 35.660
45.92000 43.608
45.94000 39.682
45.96000 42.749
45.98000 35.994
46.00000 32.840
46.02000 38.528
46.04000 41.638
46.06000 45.095
46.08000 59.026
46.10000 60.246
46.12000 52.660
46.14000 52.603
46.16000 55.062
46.18000 56.848
46.20000 52.919
46.22000 55.078
46.24000 56.804
46.26000 63.255
46.28000 70.515
46.30000 62.880
46.32000 60.729
46.34000 66.272
46.36000 66.970
46.38000 69.410
46.40000 70.791
46.42000 67.646
46.44000 67.728
46.46000 69.168
46.48000 79.391
46.50000 72.325
46.52000 76.774
46.54000 80.730
46.56000 84.488
46.58000 79.456
46.60000 79.581
46.62000 80.598
46.64000 81.085
46.66000 78.035
46.68000 82.362
46.70000 86.594
46.72000 76.728
46.74000 75.185
46.76000 79.470
46.78000 82.246
46.80000 86.424
46.82000 88.008
46.84000 86.997
46.86000 90.840
46.88000 77.319
46.90000 80.199
46.92000 84.065
46.94000 83.604
46.96000 87.815
46.98000 88.055
47.00000 85.718
47.02000 82.697
47.04000 91.513
47.06000 90.884
47.08000 81.021
47.10000 81.330
47.12000 74.879
47.14000 67.507
47.16000 62.396
47.18000 67.562
47.20000 75.695
47.22000 76.480
47.24000 67.876
47.26000 70.906
47.28000 65.462
47.30000 63.782
47.32000 64.032
47.34000 56.361
47.36000 55.656
47.38000 57.157
47.40000 55.538
47.42000 53.647
47.44000 56.113
47.46000 59.515
47.48000 52.310
47.50000 45.431
47.52000 50.104
47.54000 50.262
47.56000 48.824
47.58000 42.781
47.60000 41.030
47.62000 36.818
47.64000 37.539
47.66000 35.151
47.68000 33.916
47.70000 34.184
47.72000 36.021
47.74000 37.867
47.76000 34.656
47.78000 33.873
47.80000 26.616
47.82000 32.628
47.84000 31.342
47.86000 31.017
47.88000 23.561
47.90000 23.103
47.92000 19.672
47.94000 20.503
47.96000 19.817
47.98000 17.339
48.00000 18.122
48.02000 19.939
48.04000 21.200
48.06000 18.237
48.08000 18.115
48.10000 19.385
48.12000 17.678
48.14000 9.078
48.16000 8.242
48.18000 7.218
48.20000 13.673
48.22000 21.811
48.24000 20.806
48.26000 12.710
48.28000 7.697
48.30000 7.238
48.32000 13.031
48.34000 15.542
48.36000 13.744
48.38000 9.516
48.40000 13.468
48.42000 12.403
48.44000 9.330
48.46000 12.216
48.48000 10.231
48.50000 6.761
48.52000 -3.191
48.54000 -2.210
48.56000 7.025
48.58000 3.828
48.60000 5.654
48.62000 4.038
48.64000 9.162
48.66000 9.421
48.68000 13.384
48.70000 12.000
48.72000 10.167
48.74000 1.549
48.76000 2.772
48.78000 3.215
48.80000 3.306
48.82000 5.181
48.84000 6.146
48.86000 3.951
48.88000 3.091
48.90000 0.658
48.92000 1.707
48.94000 7.296
48.96000 8.641
48.98000 1.131
49.00000 1.678
49.02000 0.661
49.04000 2.059
49.06000 2.675
49.08000 0.309
49.10000 7.365
49.12000 8.460
49.14000 10.335
49.16000 5.206
49.18000 5.392
49.20000 7.652
49.22000 4.982
49.24000 -2.347
49.26000 1.642
49.28000 3.179
49.30000 5.324
49.32000 5.124
49.34000 8.552
49.36000 9.987
49.38000 4.694
49.40000 0.313
49.42000 -0.506
49.44000 -0.619
49.46000 -1.271
49.48000 -3.091
49.50000 7.400
49.52000 3.179
49.54000 5.766
49.56000 5.700
49.58000 2.177
49.60000 0.576
49.62000 -1.327
49.64000 5.358
49.66000 1.327
49.68000 2.426
49.70000 3.238
49.72000 4.501
49.74000 3.117
49.76000 3.256
49.78000 5.779
49.80000 -1.464
49.82000 1.767
49.84000 4.629
49.86000 3.986
49.88000 3.037
49.90000 7.564
49.92000 2.996
49.94000 -1.982
49.96000 -0.326
49.98000 3.131
50.00000 0.498
50.02000 1.278
50.04000 2.840
50.06000 4.253
50.08000 -2.702
50.10000 0.944
50.12000 0.990
50.14000 1.244
50.16000 -1.441
50.18000 2.434
50.20000 1.282
50.22000 4.617
50.24000 3.961
50.26000 1.764
50.28000 2.024
50.30000 4.302
50.32000 2.333
50.34000 4.350
50.36000 1.836
50.38000 -1.707
50.40000 -1.351
50.42000 0.085
50.44000 -0.734
50.46000 -2.243
50.48000 3.645
50.50000 3.847
50.52000 2.717
50.54000 2.736
50.56000 0.472
50.58000 3.537
50.60000 2.920
50.62000 0.447
50.64000 -1.275
50.66000 0.390
50.68000 2.791
50.70000 4.778
50.72000 6.240
50.74000 6.610
50.76000 6.431
50.78000 7.171
50.80000 4.025
50.82000 5.254
50.84000 3.030
50.86000 7.944
50.88000 5.818
50.90000 8.283
50.92000 5.967
50.94000 4.309
50.96000 1.617
50.98000 4.082
51.00000 7.599
51.02000 5.855
51.04000 7.525
51.06000 3.603
51.08000 0.738
51.10000 6.611
51.12000 2.794
51.14000 1.805
51.16000 1.861
51.18000 4.293
51.20000 8.720
51.22000 7.567
51.24000 8.198
51.26000 4.453
51.28000 -0.557
51.30000 -2.966
51.32000 2.574
51.34000 6.445
51.36000 4.625
51.38000 1.288
51.40000 4.059
51.42000 5.968
51.44000 5.352
51.46000 4.699
51.48000 0.519
51.50000 0.457
51.52000 -0.094
51.54000 0.255
51.56000 0.250
51.58000 1.237
51.60000 2.915
51.62000 8.440
51.64000 3.650
51.66000 2.120
51.68000 4.676
51.70000 1.646
51.72000 0.270
51.74000 -2.651
51.76000 2.152
51.78000 5.420
51.80000 6.524
51.82000 3.763
51.84000 -0.731
51.86000 -2.966
51.88000 -2.389
51.90000 -1.366
51.92000 -2.056
51.94000 6.923
51.96000 10.135
51.98000 7.419
52.00000 0.675
52.02000 3.108
52.04000 1.770
52.06000 6.568
52.08000 1.907
52.10000 0.806
52.12000 4.247
52.14000 0.662
52.16000 -1.749
52.18000 2.908
52.20000 7.153
52.22000 5.534
52.24000 -1.025
52.26000 -0.664
52.28000 -0.200
52.30000 -0.722
52.32000 -0.890
52.34000 -0.502
52.36000 1.567
52.38000 3.862
52.40000 -1.033
52.42000 2.181
52.44000 0.701
52.46000 2.973
52.48000 1.505
52.50000 3.570
52.52000 0.254
52.54000 -0.820
52.56000 5.581
52.58000 5.487
52.60000 0.175
52.62000 -1.862
52.64000 0.394
52.66000 -1.278
52.68000 -0.284
52.70000 2.191
52.72000 2.897
52.74000 5.545
52.76000 2.595
52.78000 -1.547
52.80000 1.374
52.82000 4.474
52.84000 7.783
52.86000 7.547
52.88000 4.226
52.90000 7.513
52.92000 5.697
52.94000 2.952
52.96000 -0.034
52.98000 0.031
53.00000 -0.019
53.02000 4.457
53.04000 7.903
53.06000 7.090
53.08000 10.711
53.10000 8.852
53.12000 7.466
53.14000 5.039
53.16000 3.236
53.18000 0.100
53.20000 -0.027
53.22000 -0.264
53.24000 2.735
53.26000 -1.421
53.28000 0.908
53.30000 3.744
53.32000 4.880
53.34000 4.349
53.36000 4.816
53.38000 -0.854
53.40000 -1.365
53.42000 2.895
53.44000 6.963
53.46000 7.050
53.48000 8.449
53.50000 4.326
53.52000 6.619
53.54000 3.639
53.56000 -0.195
53.58000 0.328
53.60000 7.139
53.62000 9.580
53.64000 5.855
53.66000 7.440
53.68000 6.621
53.70000 3.921
53.72000 -1.041
53.74000 1.536
53.76000 6.866
53.78000 3.369
53.80000 4.915
53.82000 -2.861
53.84000 0.391
53.86000 3.596
53.88000 7.747
53.90000 7.326
53.92000 2.170
53.94000 2.669
53.96000 4.592
53.98000 4.316
54.00000 2.455
54.02000 0.379
54.04000 1.178
54.06000 0.594
54.08000 2.168
54.10000 6.941
54.12000 6.494
54.14000 6.665
54.16000 5.302
54.18000 1.711
54.20000 0.881
54.22000 1.560
54.24000 5.797
54.26000 7.240
54.28000 3.955
54.30000 -0.621
54.32000 -1.128
54.34000 0.564
54.36000 5.876
54.38000 -0.153
54.40000 -2.345
54.42000 1.791
54.44000 7.617
54.46000 5.355
54.48000 3.318
54.50000 4.102
54.52000 0.189
54.54000 6.050
54.56000 4.372
54.58000 1.489
54.60000 2.099
54.62000 3.292
54.64000 7.510
54.66000 8.260
54.68000 8.445
54.70000 4.206
54.72000 3.426
54.74000 5.471
54.76000 3.120
54.78000 -0.011
54.80000 2.726
54.82000 -1.002
54.84000 3.066
54.86000 2.018
54.88000 1.009
54.90000 1.444
54.92000 -0.262
54.94000 -2.074
54.96000 2.751
54.98000 1.803
55.00000 3.791
55.02000 1.849
55.04000 0.616
55.06000 1.252
55.08000 -0.390
55.10000 3.311
55.12000 1.721
55.14000 -2.279
55.16000 1.727
55.18000 -0.221
55.20000 2.799
55.22000 2.364
55.24000 3.085
55.26000 3.273
55.28000 0.957
55.30000 2.846
55.32000 -0.719
55.34000 -0.435
55.36000 0.204
55.38000 -0.839
55.40000 -1.065
55.42000 0.440
55.44000 3.667
55.46000 3.632
55.48000 2.315
55.50000 -1.667
55.52000 4.132
55.54000 5.931
55.56000 2.788
55.58000 0.334
55.60000 1.814
55.62000 2.804
55.64000 1.130
55.66000 3.853
55.68000 0.450
55.70000 4.993
55.72000 4.783
55.74000 3.511
55.76000 3.104
55.78000 5.138
55.80000 1.257
55.82000 1.437
55.84000 -0.914
55.86000 0.539
55.88000 -1.312
55.90000 0.942
55.92000 6.191
55.94000 5.317
55.96000 5.100
55.98000 4.994
56.00000 1.208
56.02000 1.965
56.04000 2.307
56.06000 7.781
56.08000 5.622
56.10000 4.042
56.12000 6.266
56.14000 6.045
56.16000 1.324
56.18000 2.901
56.20000 5.989
56.22000 3.557
56.24000 1.202
56.26000 0.334
56.28000 -0.256
56.30000 4.189
56.32000 -2.670
56.34000 -1.782
56.36000 -0.233
56.38000 -2.818
56.40000 -2.817
56.42000 1.712
56.44000 2.155
56.46000 4.219
56.48000 3.693
56.50000 -0.814
56.52000 7.897
56.54000 8.402
56.56000 7.327
56.58000 6.774
56.60000 8.470
56.62000 4.896
56.64000 1.742
56.66000 4.480
56.68000 3.708
56.70000 2.396
56.72000 5.154
56.74000 7.461
56.76000 2.404
56.78000 2.718
56.80000 1.649
56.82000 0.311
56.84000 1.585
56.86000 2.122
56.88000 1.057
56.90000 5.352
56.92000 -0.284
56.94000 2.329
56.96000 1.617
56.98000 5.491
57.00000 5.430
57.02000 5.826
57.04000 7.934
57.06000 9.156
57.08000 5.032
57.10000 2.403
57.12000 1.383
57.14000 -1.580
57.16000 1.900
57.18000 0.856
57.20000 1.914
57.22000 1.018
57.24000 1.283
57.26000 3.089
57.28000 1.289
57.30000 1.383
57.32000 -0.169
57.34000 -1.845
57.36000 -0.647
57.38000 0.531
57.40000 -0.402
57.42000 0.466
57.44000 0.445
57.46000 -2.152
57.48000 1.301
57.50000 -1.732
57.52000 -2.520
57.54000 -2.814
57.56000 -2.064
57.58000 2.332
57.60000 3.743
57.62000 2.514
57.64000 5.114
57.66000 1.951
57.68000 -2.508
57.70000 -0.643
57.72000 3.943
57.74000 4.234
57.76000 -0.189
57.78000 2.888
57.80000 1.951
57.82000 1.824
57.84000 0.085
57.86000 2.599
57.88000 1.471
57.90000 -2.396
57.92000 0.353
57.94000 -2.650
57.96000 -1.188
57.98000 2.550
58.00000 1.645
58.02000 1.109
58.04000 5.634
58.06000 1.267
58.08000 0.946
58.10000 -1.660
58.12000 -0.888
58.14000 -0.986
58.16000 1.386
58.18000 0.219
58.20000 -0.676
58.22000 4.528
58.24000 2.484
58.26000 7.569
58.28000 6.211
58.30000 0.690
58.32000 3.536
58.34000 2.551
58.36000 0.509
58.38000 -1.391
58.40000 -1.991
58.42000 1.349
58.44000 0.954
58.46000 0.538
58.48000 -2.784
58.50000 0.455
58.52000 -0.740
58.54000 1.091
58.56000 3.847
58.58000 6.395
58.60000 3.034
58.62000 2.405
58.64000 5.746
58.66000 3.436
58.68000 7.494
58.70000 8.289
58.72000 3.792
58.74000 5.687
58.76000 6.060
58.78000 1.770
58.80000 -1.248
58.82000 -0.089
58.84000 -1.810
58.86000 -2.761
58.88000 1.729
58.90000 3.166
58.92000 5.276
58.94000 2.207
58.96000 3.012
58.98000 -0.824
59.00000 -2.717
59.02000 1.834
59.04000 1.347
59.06000 8.144
59.08000 8.938
59.10000 4.233
59.12000 4.899
59.14000 7.560
59.16000 3.122
59.18000 -1.535
59.20000 2.393
59.22000 1.552
59.24000 -1.537
59.26000 -2.742
59.28000 0.351
59.30000 -0.788
59.32000 0.704
59.34000 -0.872
59.36000 -1.025
59.38000 6.655
59.40000 7.611
59.42000 5.419
59.44000 -1.030
59.46000 -0.394
59.48000 6.449
59.50000 1.296
59.52000 2.503
59.54000 1.916
59.56000 1.643
59.58000 2.895
59.60000 4.537
59.62000 0.064
59.64000 0.049
59.66000 1.275
59.68000 1.570
59.70000 2.247
59.72000 5.153
59.74000 3.344
59.76000 5.127
59.78000 1.787
59.80000 1.475
59.82000 1.345
59.84000 2.815
59.86000 1.191
59.88000 2.420
59.90000 3.310
59.92000 3.848
59.94000 3.965
59.96000 0.903
59.98000 3.416
60.00000 1.286
60.02000 0.734
60.04000 0.878
60.06000 3.006
60.08000 1.437
60.10000 -1.855
60.12000 -2.467
60.14000 1.249
60.16000 -0.046
60.18000 3.013
60.20000 1.961
60.22000 -1.882
60.24000 -1.619
60.26000 3.435
60.28000 4.279
60.30000 1.233
60.32000 -1.895
60.34000 -2.697
60.36000 0.860
60.38000 5.829
60.40000 2.957
60.42000 4.870
60.44000 8.719
60.46000 10.893
60.48000 2.350
60.50000 -0.366
60.52000 0.363
60.54000 4.675
60.56000 2.768
60.58000 2.780
60.60000 4.399
60.62000 0.239
60.64000 2.009
60.66000 1.363
60.68000 3.143
60.70000 2.215
60.72000 2.727
60.74000 -0.469
60.76000 -0.393
60.78000 -1.040
60.80000 0.687
60.82000 3.783
60.84000 -0.118
60.86000 -0.910
60.88000 1.202
60.90000 -0.395
60.92000 2.330
60.94000 3.645
60.96000 3.867
60.98000 8.729
61.00000 6.770
61.02000 2.260
61.04000 4.166
61.06000 3.779
61.08000 2.087
61.10000 0.567
61.12000 -2.218
61.14000 0.273
61.16000 0.317
61.18000 -2.653
61.20000 1.319
61.22000 11.291
61.24000 7.819
61.26000 3.069
61.28000 2.620
61.30000 2.003
61.32000 2.976
61.34000 2.004
61.36000 0.557
61.38000 1.697
61.40000 5.838
61.42000 4.574
61.44000 3.661
61.46000 3.428
61.48000 4.569
61.50000 2.488
61.52000 0.041
61.54000 2.171
61.56000 2.351
61.58000 3.656
61.60000 2.831
61.62000 0.674
61.64000 3.896
61.66000 4.404
61.68000 0.527
61.70000 2.539
61.72000 2.963
61.74000 5.414
61.76000 5.687
61.78000 0.145
61.80000 3.987
61.82000 1.936
61.84000 3.679
61.86000 3.308
61.88000 2.311
61.90000 1.320
61.92000 -2.648
61.94000 -0.537
61.96000 2.727
61.98000 2.816
62.00000 -0.452
62.02000 2.965
62.04000 3.051
62.06000 11.254
62.08000 5.535
62.10000 0.365
62.12000 0.630
62.14000 3.768
62.16000 2.092
62.18000 1.670
62.20000 1.959
62.22000 1.664
62.24000 -0.268
62.26000 -1.358
62.28000 1.920
62.30000 3.638
62.32000 -0.172
62.34000 -1.345
62.36000 -0.147
62.38000 3.780
62.40000 5.192
62.42000 3.598
62.44000 6.101
62.46000 3.389
62.48000 1.813
62.50000 2.942
62.52000 4.603
62.54000 6.956
62.56000 2.215
62.58000 -2.635
62.60000 1.916
62.62000 3.851
62.64000 3.207
62.66000 3.533
62.68000 7.270
62.70000 5.223
62.72000 6.678
62.74000 5.366
62.76000 4.596
62.78000 0.774
62.80000 4.025
62.82000 5.701
62.84000 4.790
62.86000 2.032
62.88000 2.249
62.90000 0.972
62.92000 1.838
62.94000 3.978
62.96000 3.811
62.98000 6.341
63.00000 4.765
63.02000 0.898
63.04000 -1.558
63.06000 4.854
63.08000 0.591
63.10000 2.375
63.12000 0.435
63.14000 0.341
63.16000 3.263
63.18000 4.216
63.20000 2.124
63.22000 1.639
63.24000 0.687
63.26000 1.389
63.28000 0.075
63.30000 4.956
63.32000 6.461
63.34000 6.883
63.36000 5.721
63.38000 1.479
63.40000 4.554
63.42000 5.626
63.44000 2.406
63.46000 3.908
63.48000 5.224
63.50000 6.956
63.52000 3.722
63.54000 3.359
63.56000 -2.651
63.58000 -1.313
63.60000 3.356
63.62000 2.976
63.64000 4.924
63.66000 2.563
63.68000 6.938
63.70000 4.475
63.72000 3.235
63.74000 0.335
63.76000 3.331
63.78000 4.989
63.80000 4.524
63.82000 3.383
63.84000 3.489
63.86000 5.028
63.88000 2.169
63.90000 2.314
63.92000 0.647
63.94000 2.710
63.96000 0.623
63.98000 2.812
64.00000 2.312
64.02000 1.349
64.04000 1.688
64.06000 -1.700
64.08000 1.275
64.10000 5.868
64.12000 3.170
64.14000 0.094
64.16000 1.308
64.18000 5.464
64.20000 9.599
64.22000 7.560
64.24000 5.256
64.26000 1.513
64.28000 2.366
64.30000 6.023
64.32000 5.435
64.34000 5.462
64.36000 1.615
64.38000 5.370
64.40000 5.492
64.42000 4.834
64.44000 4.199
64.46000 3.563
64.48000 4.197
64.50000 0.784
64.52000 -2.607
64.54000 0.591
64.56000 3.904
64.58000 8.236
64.60000 9.192
64.62000 9.357
64.64000 6.859
64.66000 2.790
64.68000 4.379
64.70000 0.509
64.72000 0.127
64.74000 4.020
64.76000 8.798
64.78000 7.757
64.80000 4.316
64.82000 4.965
64.84000 3.689
64.86000 3.968
64.88000 3.922
64.90000 2.537
64.92000 3.577
64.94000 3.337
64.96000 4.451
64.98000 5.602
65.00000 5.935
65.02000 3.276
65.04000 4.781
65.06000 4.359
65.08000 4.197
65.10000 2.177
65.12000 3.320
65.14000 5.306
65.16000 4.908
65.18000 0.436
65.20000 -0.068
65.22000 4.727
65.24000 3.497
65.26000 5.983
65.28000 5.592
65.30000 8.718
65.32000 5.230
65.34000 2.684
65.36000 2.602
65.38000 1.439
65.40000 4.084
65.42000 3.096
65.44000 2.330
65.46000 0.270
65.48000 -0.666
65.50000 -2.672
65.52000 0.754
65.54000 1.261
65.56000 1.873
65.58000 -1.063
65.60000 1.841
65.62000 1.616
65.64000 0.895
65.66000 0.950
65.68000 1.462
65.70000 1.609
65.72000 1.313
65.74000 -0.036
65.76000 0.036
65.78000 2.223
65.80000 1.965
65.82000 2.933
65.84000 2.926
65.86000 3.158
65.88000 5.025
65.90000 1.378
65.92000 -2.703
65.94000 0.931
65.96000 -1.047
65.98000 0.839
66.00000 3.368
66.02000 -0.322
66.04000 -2.713
66.06000 1.042
66.08000 4.183
66.10000 1.599
66.12000 4.422
66.14000 2.558
66.16000 2.215
66.18000 4.625
66.20000 2.766
66.22000 0.207
66.24000 -0.161
66.26000 -0.817
66.28000 0.538
66.30000 -1.645
66.32000 -1.907
66.34000 1.891
66.36000 2.944
66.38000 3.430
66.40000 1.792
66.42000 -1.327
66.44000 -0.394
66.46000 2.558
66.48000 1.264
66.50000 0.861
66.52000 2.891
66.54000 2.053
66.56000 -0.523
66.58000 0.709
66.60000 3.769
66.62000 1.561
66.64000 -1.772
66.66000 3.756
66.68000 -0.038
66.70000 5.216
66.72000 0.480
66.74000 2.893
66.76000 3.424
66.78000 5.070
66.80000 5.337
66.82000 6.167
66.84000 2.449
66.86000 2.119
66.88000 -0.796
66.90000 0.850
66.92000 1.954
66.94000 0.348
66.96000 -0.214
66.98000 4.688
67.00000 7.433
67.02000 7.206
67.04000 6.695
67.06000 4.866
67.08000 9.318
67.10000 10.005
67.12000 10.699
67.14000 10.403
67.16000 5.482
67.18000 5.389
67.20000 8.266
67.22000 9.594
67.24000 6.106
67.26000 7.609
67.28000 6.012
67.30000 5.802
67.32000 7.169
67.34000 9.391
67.36000 10.557
67.38000 8.028
67.40000 9.725
67.42000 7.331
67.44000 8.431
67.46000 8.080
67.48000 13.442
67.50000 15.004
67.52000 8.841
67.54000 9.217
67.56000 7.922
67.58000 6.400
67.60000 10.494
67.62000 12.304
67.64000 11.049
67.66000 14.732
67.68000 13.693
67.70000 15.301
67.72000 14.091
67.74000 12.559
67.76000 14.445
67.78000 17.060
67.80000 14.964
67.82000 18.041
67.84000 17.049
67.86000 17.857
67.88000 15.251
67.90000 18.843
67.92000 18.926
67.94000 20.860
67.96000 19.660
67.98000 19.682
68.00000 20.785
68.02000 19.893
68.04000 21.565
68.06000 23.063
68.08000 24.550
68.10000 18.323
68.12000 17.299
68.14000 21.895
68.16000 22.355
68.18000 24.718
68.20000 24.553
68.22000 21.871
68.24000 19.635
68.26000 18.711
68.28000 26.138
68.30000 28.588
68.32000 27.335
68.34000 19.697
68.36000 20.522
68.38000 20.864
68.40000 21.855
68.42000 26.432
68.44000 26.490
68.46000 25.344
68.48000 22.957
68.50000 24.302
68.52000 23.287
68.54000 23.513
68.56000 21.974
68.58000 24.397
68.60000 23.194
68.62000 20.764
68.64000 20.934
68.66000 26.732
68.68000 24.385
68.70000 21.694
68.72000 19.007
68.74000 19.891
68.76000 18.855
68.78000 20.181
68.80000 22.234
68.82000 19.155
68.84000 22.018
68.86000 18.929
68.88000 19.933
68.90000 20.966
68.92000 22.118
68.94000 20.744
68.96000 15.491
68.98000 16.011
69.00000 16.177
69.02000 15.688
69.04000 12.300
69.06000 14.225
69.08000 9.518
69.10000 11.229
69.12000 12.178
69.14000 12.327
69.16000 11.915
69.18000 11.232
69.20000 11.015
69.22000 7.338
69.24000 14.222
69.26000 11.119
69.28000 11.072
69.30000 7.203
69.32000 4.355
69.34000 7.379
69.36000 7.527
69.38000 3.212
69.40000 10.568
69.42000 13.471
69.44000 11.522
69.46000 5.721
69.48000 3.137
69.50000 2.772
69.52000 4.641
69.54000 5.933
69.56000 8.874
69.58000 6.296
69.60000 5.688
69.62000 6.379
69.64000 8.592
69.66000 4.698
69.68000 5.556
69.70000 0.840
69.72000 5.024
69.74000 2.981
69.76000 4.868
69.78000 8.008
69.80000 4.507
69.82000 4.584
69.84000 3.955
69.86000 0.028
69.88000 3.302
69.90000 2.811
69.92000 1.774
69.94000 1.415
69.96000 3.966
69.98000 4.341
70.00000 1.670
70.02000 3.294
70.04000 3.472
70.06000 3.450
70.08000 1.928
70.10000 1.599
70.12000 0.429
70.14000 0.815
70.16000 2.717
70.18000 4.045
70.20000 3.579
70.22000 -2.014
70.24000 -0.028
70.26000 3.460
70.28000 1.253
70.30000 0.005
70.32000 2.498
70.34000 4.674
70.36000 8.846
70.38000 7.362
70.40000 1.745
70.42000 0.791
70.44000 0.431
70.46000 -2.559
70.48000 0.570
70.50000 0.758
70.52000 4.495
70.54000 5.671
70.56000 8.327
70.58000 6.932
70.60000 5.364
70.62000 8.949
70.64000 8.227
70.66000 4.186
70.68000 5.940
70.70000 -2.551
70.72000 -0.855
70.74000 1.981
70.76000 2.930
70.78000 1.324
70.80000 7.397
70.82000 8.479
70.84000 5.656
70.86000 3.341
70.88000 6.537
70.90000 5.238
70.92000 2.042
70.94000 5.750
70.96000 4.793
70.98000 5.410
71.00000 4.719
71.02000 4.278
71.04000 1.546
71.06000 1.790
71.08000 0.885
71.10000 3.775
71.12000 -0.974
71.14000 -2.099
71.16000 -0.520
71.18000 2.349
71.20000 6.939
71.22000 3.083
71.24000 4.405
71.26000 3.611
71.28000 4.712
71.30000 6.245
71.32000 5.358
71.34000 3.315
71.36000 2.653
71.38000 3.021
71.40000 5.875
71.42000 1.850
71.44000 2.979
71.46000 -1.014
71.48000 5.440
71.50000 2.938
71.52000 0.856
71.54000 1.783
71.56000 -0.459
71.58000 -2.530
71.60000 -0.003
71.62000 3.187
71.64000 3.981
71.66000 3.317
71.68000 3.639
71.70000 1.543
71.72000 1.192
71.74000 3.110
71.76000 3.714
71.78000 0.275
71.80000 2.574
71.82000 7.409
71.84000 5.639
71.86000 3.453
71.88000 0.489
71.90000 -1.885
71.92000 -2.512
71.94000 1.885
71.96000 1.438
71.98000 1.244
72.00000 1.816
72.02000 2.552
72.04000 2.123
72.06000 6.655
72.08000 3.235
72.10000 2.819
72.12000 -2.203
72.14000 -1.952
72.16000 -0.113
72.18000 2.104
72.20000 3.570
72.22000 3.552
72.24000 4.604
72.26000 2.093
72.28000 3.699
72.30000 0.820
72.32000 -1.638
72.34000 -1.628
72.36000 1.934
72.38000 3.295
72.40000 5.545
72.42000 3.764
72.44000 4.794
72.46000 1.939
72.48000 3.991
72.50000 2.878
72.52000 1.085
72.54000 0.617
72.56000 -2.188
72.58000 -1.340
72.60000 3.344
72.62000 3.540
72.64000 -0.217
72.66000 -0.555
72.68000 -2.481
72.70000 -0.926
72.72000 6.581
72.74000 4.568
72.76000 4.313
72.78000 4.900
72.80000 3.336
72.82000 2.441
72.84000 -2.472
72.86000 4.430
72.88000 6.350
72.90000 1.644
72.92000 3.274
72.94000 3.462
72.96000 -0.280
72.98000 0.555
73.00000 3.902
73.02000 5.527
73.04000 0.533
73.06000 -0.237
73.08000 6.519
73.10000 3.414
73.12000 5.339
73.14000 1.551
73.16000 -2.468
73.18000 4.419
73.20000 5.057
73.22000 1.667
73.24000 2.437
73.26000 4.156
73.28000 2.101
73.30000 2.112
73.32000 3.584
73.34000 5.579
73.36000 5.145
73.38000 9.057
73.40000 3.864
73.42000 3.169
73.44000 2.989
73.46000 3.653
73.48000 4.347
73.50000 5.030
73.52000 1.279
73.54000 -0.296
73.56000 -2.457
73.58000 1.758
73.60000 6.760
73.62000 1.986
73.64000 -2.253
73.66000 -1.166
73.68000 0.215
73.70000 0.052
73.72000 -1.742
73.74000 4.338
73.76000 5.565
73.78000 1.707
73.80000 3.327
73.82000 8.169
73.84000 5.177
73.86000 6.816
73.88000 7.697
73.90000 2.253
73.92000 -2.196
73.94000 2.283
73.96000 6.149
73.98000 1.530
74.00000 2.299
74.02000 1.587
74.04000 -1.760
74.06000 1.692
74.08000 5.762
74.10000 2.374
74.12000 0.660
74.14000 3.080
74.16000 4.489
74.18000 2.583
74.20000 6.062
74.22000 1.359
74.24000 -0.681
74.26000 -2.426
74.28000 4.558
74.30000 6.930
74.32000 9.121
74.34000 5.998
74.36000 6.371
74.38000 3.134
74.40000 -2.424
74.42000 -0.033
74.44000 6.711
74.46000 4.093
74.48000 5.636
74.50000 5.363
74.52000 2.426
74.54000 2.720
74.56000 -1.385
74.58000 -0.952
74.60000 4.995
74.62000 4.721
74.64000 5.297
74.66000 3.105
74.68000 2.508
74.70000 7.018
74.72000 3.734
74.74000 1.703
74.76000 -1.678
74.78000 -0.204
74.80000 6.040
74.82000 1.811
74.84000 2.470
74.86000 1.852
74.88000 2.063
74.90000 1.554
74.92000 6.337
74.94000 2.604
74.96000 5.361
74.98000 4.724
75.00000 -0.055
75.02000 1.381
75.04000 2.767
75.06000 2.666
75.08000 6.670
75.10000 1.373
75.12000 3.636
75.14000 2.863
75.16000 5.050
75.18000 5.495
75.20000 1.216
75.22000 -2.432
75.24000 5.187
75.26000 8.159
75.28000 7.285
75.30000 2.044
75.32000 2.947
75.34000 4.897
75.36000 4.818
75.38000 6.721
75.40000 4.272
75.42000 -1.454
75.44000 -0.251
75.46000 3.750
75.48000 5.351
75.50000 1.544
75.52000 0.302
75.54000 6.989
75.56000 4.172
75.58000 6.282
75.60000 5.049
75.62000 1.991
75.64000 4.518
75.66000 6.080
75.68000 1.859
75.70000 -0.126
75.72000 3.069
75.74000 6.536
75.76000 7.965
75.78000 5.208
75.80000 2.280
75.82000 -0.570
75.84000 -1.357
75.86000 2.656
75.88000 6.071
75.90000 2.663
75.92000 6.242
75.94000 3.506
75.96000 4.575
75.98000 11.896
76.00000 2.521
76.02000 2.680
76.04000 1.717
76.06000 3.588
76.08000 8.667
76.10000 3.076
76.12000 4.692
76.14000 4.490
76.16000 2.596
76.18000 -0.042
76.20000 0.467
76.22000 3.062
76.24000 5.739
76.26000 1.968
76.28000 -0.036
76.30000 1.675
76.32000 1.627
76.34000 2.479
76.36000 2.444
76.38000 4.157
76.40000 2.970
76.42000 4.940
76.44000 3.813
76.46000 3.505
76.48000 5.017
76.50000 5.032
76.52000 1.489
76.54000 0.774
76.56000 -0.141
76.58000 2.634
76.60000 5.427
76.62000 7.579
76.64000 8.731
76.66000 10.160
76.68000 5.030
76.70000 3.098
76.72000 3.229
76.74000 3.204
76.76000 3.104
76.78000 3.545
76.80000 7.641
76.82000 6.463
76.84000 3.793
76.86000 -2.448
76.88000 0.233
76.90000 3.397
76.92000 1.965
76.94000 2.357
76.96000 3.462
76.98000 3.713
77.00000 6.358
77.02000 4.757
77.04000 5.484
77.06000 4.124
77.08000 8.580
77.10000 6.786
77.12000 3.836
77.14000 2.692
77.16000 2.073
77.18000 4.010
77.20000 3.780
77.22000 3.291
77.24000 0.891
77.26000 -2.445
77.28000 2.474
77.30000 6.073
77.32000 7.336
77.34000 4.790
77.36000 1.530
77.38000 4.046
77.40000 4.402
77.42000 3.995
77.44000 5.621
77.46000 3.823
77.48000 6.377
77.50000 5.209
77.52000 -0.508
77.54000 -1.448
77.56000 9.407
77.58000 6.372
77.60000 5.078
77.62000 5.951
77.64000 11.417
77.66000 7.663
77.68000 1.329
77.70000 2.469
77.72000 5.347
77.74000 10.772
77.76000 5.989
77.78000 0.378
77.80000 -0.838
77.82000 2.208
77.84000 1.575
77.86000 0.704
77.88000 4.292
77.90000 4.407
77.92000 3.744
77.94000 0.698
77.96000 3.881
77.98000 6.488
78.00000 5.713
78.02000 8.684
78.04000 6.487
78.06000 4.981
78.08000 3.879
78.10000 2.297
78.12000 -2.487
78.14000 -1.264
78.16000 -2.108
78.18000 2.471
78.20000 1.919
78.22000 -0.756
78.24000 7.983
78.26000 7.049
78.28000 5.414
78.30000 2.980
78.32000 5.507
78.34000 8.847
78.36000 5.912
78.38000 5.029
78.40000 4.146
78.42000 3.804
78.44000 6.062
78.46000 6.258
78.48000 4.874
78.50000 4.512
78.52000 0.098
78.54000 2.992
78.56000 7.341
78.58000 5.420
78.60000 1.331
78.62000 -0.937
78.64000 7.889
78.66000 3.677
78.68000 5.146
78.70000 7.723
78.72000 9.384
78.74000 10.685
78.76000 5.658
78.78000 3.930
78.80000 0.755
78.82000 0.746
78.84000 9.636
78.86000 6.880
78.88000 1.333
78.90000 2.004
78.92000 2.938
78.94000 1.766
78.96000 1.891
78.98000 3.434
79.00000 3.355
79.02000 3.233
79.04000 1.432
79.06000 -0.299
79.08000 -2.506
79.10000 3.628
79.12000 3.071
79.14000 0.271
79.16000 0.743
79.18000 0.410
79.20000 1.631
79.22000 3.100
79.24000 -0.125
79.26000 1.461
79.28000 4.482
79.30000 3.675
79.32000 2.964
79.34000 3.125
79.36000 0.964
79.38000 3.224
79.40000 4.117
79.42000 2.140
79.44000 4.089
79.46000 -0.404
79.48000 -1.132
79.50000 0.827
79.52000 1.067
79.54000 0.469
79.56000 0.149
79.58000 0.943
79.60000 0.432
79.62000 -0.171
79.64000 1.267
79.66000 1.070
79.68000 2.662
79.70000 3.160
79.72000 -0.103
79.74000 2.638
79.76000 0.702
79.78000 4.357
79.80000 6.724
79.82000 9.625
79.84000 5.258
79.86000 4.297
79.88000 4.309
79.90000 -1.847
79.92000 -0.054
79.94000 -2.591
79.96000 -0.561
79.98000 3.733
80.00000 1.528
80.02000 4.229
80.04000 4.082
80.06000 2.727
80.08000 2.787
80.10000 3.144
80.12000 7.560
80.14000 2.843
80.16000 -0.840
80.18000 0.343
80.20000 1.361
80.22000 3.254
80.24000 2.894
80.26000 5.882
80.28000 3.584
80.30000 2.871
80.32000 4.945
80.34000 9.169
80.36000 4.486
80.38000 9.174
80.40000 8.576
80.42000 5.350
80.44000 6.696
80.46000 7.384
80.48000 5.316
80.50000 5.108
80.52000 -0.145
80.54000 5.624
80.56000 -0.107
80.58000 0.296
80.60000 2.935
80.62000 5.430
80.64000 3.161
80.66000 -2.634
80.68000 1.358
80.70000 5.473
80.72000 3.565
80.74000 3.924
80.76000 4.815
80.78000 3.786
80.80000 2.201
80.82000 5.376
80.84000 6.815
80.86000 5.132
80.88000 7.456
80.90000 4.872
80.92000 -1.138
80.94000 3.924
80.96000 4.844
80.98000 5.227
81.00000 5.213
81.02000 4.386
81.04000 2.463
81.06000 7.735
81.08000 13.273
81.10000 8.777
81.12000 7.487
81.14000 12.627
81.16000 10.845
81.18000 8.332
81.20000 6.399
81.22000 7.585
81.24000 11.778
81.26000 14.659
81.28000 11.729
81.30000 12.721
81.32000 10.411
81.34000 8.794
81.36000 12.105
81.38000 11.748
81.40000 13.771
81.42000 8.630
81.44000 8.463
81.46000 9.256
81.48000 11.478
81.50000 22.464
81.52000 20.745
81.54000 20.004
81.56000 12.882
81.58000 7.840
81.60000 16.750
81.62000 16.739
81.64000 13.084
81.66000 9.065
81.68000 9.696
81.70000 16.524
81.72000 18.089
81.74000 13.433
81.76000 10.260
81.78000 10.530
81.80000 9.218
81.82000 15.600
81.84000 18.747
81.86000 19.525
81.88000 20.593
81.90000 20.530
81.92000 18.848
81.94000 19.531
81.96000 17.723
81.98000 17.627
82.00000 13.791
82.02000 15.982
82.04000 17.527
82.06000 23.522
82.08000 18.648
82.10000 14.901
82.12000 20.214
82.14000 19.072
82.16000 21.249
82.18000 21.073
82.20000 17.569
82.22000 15.969
82.24000 19.277
82.26000 18.605
82.28000 20.972
82.30000 25.218
82.32000 16.963
82.34000 20.823
82.36000 19.249
82.38000 19.244
82.40000 19.142
82.42000 22.046
82.44000 28.132
82.46000 27.667
82.48000 31.405
82.50000 21.218
82.52000 20.906
82.54000 25.997
82.56000 24.480
82.58000 29.243
82.60000 29.119
82.62000 24.830
82.64000 27.379
82.66000 22.833
82.68000 27.338
82.70000 30.089
82.72000 25.057
82.74000 21.826
82.76000 26.230
82.78000 26.157
82.80000 23.788
82.82000 25.387
82.84000 28.260
82.86000 21.858
82.88000 24.155
82.90000 23.433
82.92000 23.835
82.94000 20.780
82.96000 22.669
82.98000 22.160
83.00000 24.046
83.02000 22.178
83.04000 23.349
83.06000 28.181
83.08000 23.253
83.10000 19.056
83.12000 18.840
83.14000 21.074
83.16000 18.060
83.18000 15.210
83.20000 19.165
83.22000 23.675
83.24000 17.511
83.26000 20.487
83.28000 16.652
83.30000 18.030
83.32000 18.104
83.34000 22.164
83.36000 17.230
83.38000 10.755
83.40000 8.596
83.42000 10.666
83.44000 10.639
83.46000 11.154
83.48000 19.001
83.50000 18.490
83.52000 18.778
83.54000 18.615
83.56000 12.220
83.58000 8.941
83.60000 12.482
83.62000 12.745
83.64000 6.603
83.66000 7.297
83.68000 15.329
83.70000 11.843
83.72000 10.965
83.74000 6.332
83.76000 7.244
83.78000 11.204
83.80000 10.786
83.82000 11.779
83.84000 7.570
83.86000 9.288
83.88000 10.201
83.90000 9.570
83.92000 11.336
83.94000 13.091
83.96000 9.200
83.98000 3.837
84.00000 2.374
84.02000 0.052
84.04000 -1.232
84.06000 -0.045
84.08000 5.300
84.10000 5.528
84.12000 3.485
84.14000 2.284
84.16000 3.877
84.18000 4.979
84.20000 6.507
84.22000 5.095
84.24000 3.415
84.26000 4.376
84.28000 2.120
84.30000 1.480
84.32000 1.285
84.34000 3.909
84.36000 3.836
84.38000 7.536
84.40000 2.986
84.42000 0.196
84.44000 2.416
84.46000 8.419
84.48000 8.013
84.50000 4.977
84.52000 0.779
84.54000 -2.582
84.56000 -2.363
84.58000 8.047
84.60000 10.700
84.62000 3.966
84.64000 2.637
84.66000 0.365
84.68000 0.454
84.70000 4.325
84.72000 5.512
84.74000 4.949
84.76000 3.371
84.78000 -2.581
84.80000 3.632
84.82000 2.700
84.84000 0.167
84.86000 0.036
84.88000 0.480
84.90000 -1.589
84.92000 0.902
84.94000 3.321
84.96000 4.197
84.98000 0.679
85.00000 2.984
85.02000 4.143
85.04000 -0.868
85.06000 0.537
85.08000 -0.273
85.10000 4.771
85.12000 5.946
85.14000 1.219
85.16000 0.687
85.18000 5.046
85.20000 8.412
85.22000 6.686
85.24000 5.935
85.26000 2.880
85.28000 5.926
85.30000 3.412
85.32000 4.712
85.34000 -2.586
85.36000 0.590
85.38000 1.362
85.40000 1.510
85.42000 2.409
85.44000 2.429
85.46000 -0.895
85.48000 4.358
85.50000 11.485
85.52000 4.548
85.54000 -1.857
85.56000 -2.585
85.58000 4.900
85.60000 5.864
85.62000 8.260
85.64000 3.473
85.66000 10.731
85.68000 9.062
85.70000 6.089
85.72000 -0.466
85.74000 -1.004
85.76000 1.025
85.78000 2.020
85.80000 6.256
85.82000 5.926
85.84000 5.953
85.86000 8.418
85.88000 7.247
85.90000 6.839
85.92000 8.776
85.94000 8.131
85.96000 7.879
85.98000 13.700
86.00000 10.547
86.02000 10.172
86.04000 7.457
86.06000 7.089
86.08000 9.353
86.10000 12.148
86.12000 12.279
86.14000 9.718
86.16000 12.928
86.18000 12.103
86.20000 3.151
86.22000 5.554
86.24000 9.550
86.26000 10.341
86.28000 9.071
86.30000 7.628
86.32000 5.445
86.34000 10.135
86.36000 15.470
86.38000 12.689
86.40000 8.152
86.42000 18.756
86.44000 20.606
86.46000 18.671
86.48000 23.153
86.50000 20.986
86.52000 17.632
86.54000 17.378
86.56000 15.178
86.58000 18.195
86.60000 17.115
86.62000 17.350
86.64000 21.909
86.66000 20.856
86.68000 18.733
86.70000 16.235
86.72000 19.903
86.74000 22.224
86.76000 25.903
86.78000 26.066
86.80000 17.960
86.82000 19.489
86.84000 25.373
86.86000 23.265
86.88000 18.244
86.90000 21.090
86.92000 27.644
86.94000 29.597
86.96000 24.989
86.98000 27.381
87.00000 26.855
87.02000 26.942
87.04000 29.657
87.06000 27.561
87.08000 30.457
87.10000 29.905
87.12000 26.011
87.14000 21.663
87.16000 24.631
87.18000 28.716
87.20000 25.849
87.22000 20.742
87.24000 18.810
87.26000 27.617
87.28000 26.784
87.30000 26.326
87.32000 20.367
87.34000 24.430
87.36000 23.544
87.38000 21.686
87.40000 25.348
87.42000 21.187
87.44000 21.644
87.46000 16.651
87.48000 11.880
87.50000 12.922
87.52000 17.108
87.54000 18.580
87.56000 17.905
87.58000 21.774
87.60000 21.486
87.62000 20.734
87.64000 18.868
87.66000 16.367
87.68000 10.210
87.70000 10.361
87.72000 14.743
87.74000 15.748
87.76000 14.381
87.78000 14.514
87.80000 13.193
87.82000 14.470
87.84000 17.443
87.86000 17.562
87.88000 14.931
87.90000 11.333
87.92000 4.533
87.94000 9.975
87.96000 12.045
87.98000 10.903
88.00000 8.864
88.02000 8.469
88.04000 5.215
88.06000 6.774
88.08000 9.310
88.10000 3.022
88.12000 4.013
88.14000 6.531
88.16000 5.974
88.18000 2.426
88.20000 1.408
88.22000 7.683
88.24000 6.455
88.26000 2.240
88.28000 4.467
88.30000 7.074
88.32000 8.035
88.34000 5.503
88.36000 8.137
88.38000 4.068
88.40000 0.879
88.42000 1.831
88.44000 6.138
88.46000 5.074
88.48000 8.939
88.50000 6.286
88.52000 3.483
88.54000 1.386
88.56000 4.228
88.58000 7.069
88.60000 6.297
88.62000 4.988
88.64000 5.327
88.66000 11.172
88.68000 8.978
88.70000 5.859
88.72000 1.432
88.74000 3.747
88.76000 3.344
88.78000 3.909
88.80000 6.910
88.82000 2.118
88.84000 5.449
88.86000 5.804
88.88000 4.410
88.90000 4.811
88.92000 5.579
88.94000 3.823
88.96000 0.540
88.98000 2.855
89.00000 4.733
89.02000 6.090
89.04000 5.960
89.06000 5.011
89.08000 4.766
89.10000 1.796
89.12000 7.311
89.14000 7.035
89.16000 9.908
89.18000 7.821
89.20000 4.046
89.22000 -0.231
89.24000 -2.288
89.26000 2.719
89.28000 6.960
89.30000 11.135
89.32000 10.388
89.34000 8.535
89.36000 1.769
89.38000 5.957
89.40000 9.117
89.42000 11.136
89.44000 11.665
89.46000 6.997
89.48000 9.606
89.50000 9.677
89.52000 4.475
89.54000 2.415
89.56000 5.668
89.58000 4.741
89.60000 3.215
89.62000 6.562
89.64000 4.515
89.66000 4.074
89.68000 7.429
89.70000 7.052
89.72000 7.716
89.74000 7.877
89.76000 8.808
89.78000 7.485
89.80000 4.573
89.82000 5.138
89.84000 5.288
89.86000 4.845
89.88000 7.385
89.90000 2.395
89.92000 6.265
89.94000 3.144
89.96000 3.922
89.98000 5.283
90.00000 2.739
90.02000 1.997
90.04000 3.303
90.06000 3.010
90.08000 4.370
90.10000 9.714
90.12000 5.006
90.14000 4.591
90.16000 0.860
90.18000 5.590
90.20000 1.567
90.22000 -1.268
90.24000 -2.280
90.26000 0.288
90.28000 2.074
90.30000 5.933
90.32000 4.474
90.34000 3.588
90.36000 5.097
90.38000 3.263
90.40000 5.430
90.42000 9.759
90.44000 9.826
90.46000 8.309
90.48000 5.355
90.50000 8.592
90.52000 4.686
90.54000 3.958
90.56000 4.585
90.58000 0.509
90.60000 -0.360
90.62000 2.637
90.64000 4.819
90.66000 3.869
90.68000 3.510
90.70000 4.567
90.72000 6.978
90.74000 8.190
90.76000 3.072
90.78000 3.342
90.80000 7.973
90.82000 4.664
90.84000 4.044
90.86000 4.209
90.88000 3.511
90.90000 -1.022
90.92000 1.522
90.94000 -0.005
90.96000 1.122
90.98000 5.762
91.00000 5.471
91.02000 7.463
91.04000 10.037
91.06000 6.614
91.08000 5.126
91.10000 2.781
91.12000 4.720
91.14000 5.892
91.16000 3.862
91.18000 3.812
91.20000 6.283
91.22000 3.779
91.24000 1.584
91.26000 1.390
91.28000 1.555
91.30000 3.031
91.32000 2.338
91.34000 3.612
91.36000 4.828
91.38000 3.458
91.40000 3.107
91.42000 1.349
91.44000 2.142
91.46000 -0.429
91.48000 -1.141
91.50000 9.371
91.52000 7.893
91.54000 6.060
91.56000 5.136
91.58000 3.139
91.60000 -0.877
91.62000 -0.292
91.64000 1.566
91.66000 7.583
91.68000 2.638
91.70000 0.370
91.72000 1.215
91.74000 10.936
91.76000 15.100
91.78000 4.330
91.80000 3.549
91.82000 -2.301
91.84000 5.728
91.86000 3.620
91.88000 10.066
91.90000 7.657
91.92000 4.352
91.94000 1.425
91.96000 5.553
91.98000 8.358
92.00000 10.467
92.02000 11.099
92.04000 8.718
92.06000 2.725
92.08000 3.615
92.10000 4.734
92.12000 -2.290
92.14000 2.002
92.16000 4.385
92.18000 9.353
92.20000 6.177
92.22000 5.578
92.24000 6.800
92.26000 6.310
92.28000 6.759
92.30000 3.797
92.32000 2.127
92.34000 7.747
92.36000 7.032
92.38000 4.115
92.40000 7.700
92.42000 3.755
92.44000 7.997
92.46000 7.204
92.48000 2.170
92.50000 7.926
92.52000 4.731
92.54000 3.193
92.56000 6.592
92.58000 11.891
92.60000 8.652
92.62000 3.944
92.64000 8.188
92.66000 7.227
92.68000 8.931
92.70000 6.847
92.72000 1.989
92.74000 3.891
92.76000 0.933
92.78000 6.113
92.80000 3.682
92.82000 0.440
92.84000 -0.269
92.86000 4.820
92.88000 5.646
92.90000 5.937
92.92000 2.940
92.94000 1.691
92.96000 8.454
92.98000 7.644
93.00000 4.456
93.02000 5.766
93.04000 0.991
93.06000 3.167
93.08000 11.146
93.10000 9.764
93.12000 7.855
93.14000 0.885
93.16000 1.552
93.18000 3.177
93.20000 1.793
93.22000 2.707
93.24000 4.853
93.26000 2.714
93.28000 5.818
93.30000 7.456
93.32000 8.402
93.34000 4.364
93.36000 3.165
93.38000 4.508
93.40000 5.459
93.42000 3.395
93.44000 -2.295
93.46000 3.367
93.48000 9.620
93.50000 10.370
93.52000 9.114
93.54000 6.312
93.56000 7.476
93.58000 -0.680
93.60000 -0.378
93.62000 1.459
93.64000 6.760
93.66000 1.447
93.68000 1.937
93.70000 3.130
93.72000 2.409
93.74000 3.708
93.76000 4.487
93.78000 3.226
93.80000 4.805
93.82000 10.290
93.84000 8.213
93.86000 4.700
93.88000 9.019
93.90000 3.685
93.92000 4.534
93.94000 3.987
93.96000 6.656
93.98000 5.293
94.00000 12.687
94.02000 7.866
94.04000 2.281
94.06000 2.045
94.08000 6.761
94.10000 6.719
94.12000 -1.168
94.14000 4.016
94.16000 5.566
94.18000 2.986
94.20000 6.244
94.22000 8.194
94.24000 9.317
94.26000 3.603
94.28000 -0.192
94.30000 0.670
94.32000 4.533
94.34000 6.714
94.36000 4.569
94.38000 3.381
94.40000 0.760
94.42000 2.118
94.44000 5.294
94.46000 8.890
94.48000 9.666
94.50000 10.305
94.52000 6.959
94.54000 4.137
94.56000 3.024
94.58000 7.014
94.60000 7.380
94.62000 7.209
94.64000 6.033
94.66000 4.852
94.68000 3.220
94.70000 7.368
94.72000 8.389
94.74000 14.123
94.76000 11.654
94.78000 9.234
94.80000 7.187
94.82000 8.483
94.84000 8.987
94.86000 7.122
94.88000 4.791
94.90000 6.667
94.92000 2.462
94.94000 -1.726
94.96000 -2.296
94.98000 5.916
95.00000 10.323
95.02000 9.320
95.04000 2.455
95.06000 13.114
95.08000 11.246
95.10000 5.177
95.12000 3.818
95.14000 6.596
95.16000 9.974
95.18000 10.161
95.20000 5.739
95.22000 5.206
95.24000 3.304
95.26000 4.575
95.28000 6.951
95.30000 6.989
95.32000 6.962
95.34000 5.846
95.36000 4.050
95.38000 1.571
95.40000 3.668
95.42000 5.407
95.44000 7.855
95.46000 9.438
95.48000 8.282
95.50000 5.693
95.52000 4.469
95.54000 3.845
95.56000 5.191
95.58000 2.418
95.60000 5.072
95.62000 3.390
95.64000 3.323
95.66000 7.050
95.68000 4.136
95.70000 3.175
95.72000 5.783
95.74000 3.442
95.76000 8.902
95.78000 10.597
95.80000 11.675
95.82000 2.235
95.84000 5.700
95.86000 5.983
95.88000 1.407
95.90000 5.018
95.92000 9.796
95.94000 7.098
95.96000 4.411
95.98000 7.691
96.00000 9.683
96.02000 6.421
96.04000 3.573
96.06000 2.744
96.08000 4.065
96.10000 3.408
96.12000 4.463
96.14000 5.033
96.16000 5.669
96.18000 8.602
96.20000 10.347
96.22000 8.967
96.24000 11.088
96.26000 12.319
96.28000 3.727
96.30000 -2.274
96.32000 1.205
96.34000 4.235
96.36000 6.407
96.38000 6.625
96.40000 5.675
96.42000 2.762
96.44000 10.185
96.46000 11.461
96.48000 3.617
96.50000 9.566
96.52000 7.912
96.54000 5.269
96.56000 4.586
96.58000 9.104
96.60000 9.261
96.62000 4.661
96.64000 6.052
96.66000 8.119
96.68000 2.881
96.70000 5.982
96.72000 -0.308
96.74000 0.504
96.76000 4.835
96.78000 4.187
96.80000 4.916
96.82000 6.282
96.84000 1.413
96.86000 5.355
96.88000 9.152
96.90000 8.924
96.92000 1.974
96.94000 5.860
96.96000 8.074
96.98000 8.625
97.00000 6.987
97.02000 4.804
97.04000 7.121
97.06000 4.183
97.08000 3.509
97.10000 3.433
97.12000 8.873
97.14000 8.970
97.16000 6.649
97.18000 4.776
97.20000 6.918
97.22000 11.514
97.24000 14.551
97.26000 13.781
97.28000 12.584
97.30000 5.260
97.32000 6.601
97.34000 8.768
97.36000 7.090
97.38000 -1.698
97.40000 3.962
97.42000 10.256
97.44000 5.853
97.46000 5.673
97.48000 3.252
97.50000 11.269
97.52000 11.596
97.54000 11.245
97.56000 12.847
97.58000 11.896
97.60000 4.664
97.62000 3.241
97.64000 3.179
97.66000 4.943
97.68000 12.046
97.70000 9.611
97.72000 14.856
97.74000 14.729
97.76000 10.959
97.78000 6.922
97.80000 4.846
97.82000 10.047
97.84000 10.804
97.86000 12.252
97.88000 9.659
97.90000 3.459
97.92000 4.971
97.94000 6.286
97.96000 8.726
97.98000 12.316
98.00000 8.719
98.02000 5.085
98.04000 3.737
98.06000 10.788
98.08000 0.841
98.10000 -0.510
98.12000 9.607
98.14000 8.656
98.16000 8.114
98.18000 11.263
98.20000 12.594
98.22000 5.585
98.24000 0.701
98.26000 3.099
98.28000 4.645
98.30000 12.872
98.32000 15.009
98.34000 13.770
98.36000 10.577
98.38000 14.826
98.40000 15.959
98.42000 11.171
98.44000 11.149
98.46000 6.840
98.48000 5.898
98.50000 15.369
98.52000 7.277
98.54000 3.380
98.56000 -2.306
98.58000 7.675
98.60000 16.874
98.62000 16.756
98.64000 11.377
98.66000 19.672
98.68000 12.069
98.70000 8.167
98.72000 7.370
98.74000 4.458
98.76000 7.375
98.78000 6.974
98.80000 2.784
98.82000 11.611
98.84000 13.123
98.86000 11.922
98.88000 13.940
98.90000 8.787
98.92000 13.704
98.94000 17.159
98.96000 18.318
98.98000 10.716
99.00000 16.253
99.02000 10.191
99.04000 9.839
99.06000 1.105
99.08000 5.044
99.10000 6.430
99.12000 15.214
99.14000 21.081
99.16000 9.271
99.18000 14.333
99.20000 9.870
99.22000 5.492
99.24000 5.581
99.26000 10.250
99.28000 9.534
99.30000 4.885
99.32000 7.133
99.34000 8.439
99.36000 3.021
99.38000 2.197
99.40000 5.167
99.42000 10.720
99.44000 14.370
99.46000 -4.182
99.48000 -2.256
99.50000 6.117
99.52000 1.234
99.54000 0.918
99.56000 0.738
99.58000 0.426
99.60000 9.344
99.62000 6.243
99.64000 6.676
99.66000 3.052
99.68000 11.795
99.70000 8.576
99.72000 0.664
99.74000 6.220
99.76000 4.272
99.78000 -4.600
99.80000 7.989
99.82000 3.539
99.84000 -2.389
99.86000 5.995
99.88000 -0.405
99.90000 3.046
99.92000 -0.550
99.94000 1.643
99.96000 6.246
99.98000 0.000
