'Id: "0011389" Comment: "Integrate frame 0011389_Au-Ir-Rh_Au-Rich_XRD_Mapping-153-0000.gfrmwith cursor Wedge Cursor #5" Operator: "B?rgel" Anode: "Cu" Wavelength: "1.5406" Scantype: "2Theta (TwoTheta)" TimePerStep: "1" X: "31.5" Y: "-4.5" Z: "5.95" 
10.00000 0.000
10.02000 0.741
10.04000 -3.379
10.06000 -3.272
10.08000 7.599
10.10000 5.441
10.12000 13.533
10.14000 1.342
10.16000 12.251
10.18000 16.230
10.20000 5.716
10.22000 14.799
10.24000 8.492
10.26000 -3.419
10.28000 6.659
10.30000 1.639
10.32000 1.814
10.34000 0.953
10.36000 9.381
10.38000 1.442
10.40000 12.611
10.42000 15.626
10.44000 29.590
10.46000 15.142
10.48000 12.013
10.50000 11.558
10.52000 12.257
10.54000 9.759
10.56000 8.766
10.58000 16.022
10.60000 27.571
10.62000 28.147
10.64000 15.161
10.66000 15.500
10.68000 23.180
10.70000 16.875
10.72000 20.182
10.74000 29.092
10.76000 17.082
10.78000 12.241
10.80000 13.385
10.82000 23.707
10.84000 18.310
10.86000 19.492
10.88000 28.839
10.90000 32.676
10.92000 30.280
10.94000 21.759
10.96000 22.588
10.98000 24.814
11.00000 22.290
11.02000 22.570
11.04000 23.600
11.06000 28.211
11.08000 24.933
11.10000 15.689
11.12000 15.381
11.14000 20.032
11.16000 21.736
11.18000 25.719
11.20000 34.935
11.22000 30.045
11.24000 38.999
11.26000 32.883
11.28000 25.207
11.30000 23.006
11.32000 20.286
11.34000 5.348
11.36000 9.620
11.38000 18.348
11.40000 24.611
11.42000 20.366
11.44000 25.656
11.46000 22.750
11.48000 23.287
11.50000 18.105
11.52000 33.099
11.54000 37.334
11.56000 35.700
11.58000 27.629
11.60000 32.892
11.62000 26.588
11.64000 27.061
11.66000 25.007
11.68000 25.278
11.70000 20.151
11.72000 22.647
11.74000 28.043
11.76000 26.151
11.78000 28.120
11.80000 25.617
11.82000 27.470
11.84000 20.546
11.86000 18.899
11.88000 29.263
11.90000 28.135
11.92000 27.294
11.94000 30.026
11.96000 25.109
11.98000 26.043
12.00000 27.539
12.02000 27.325
12.04000 37.065
12.06000 32.672
12.08000 32.493
12.10000 36.895
12.12000 44.570
12.14000 45.867
12.16000 40.237
12.18000 34.193
12.20000 26.895
12.22000 30.360
12.24000 42.286
12.26000 42.611
12.28000 34.531
12.30000 47.846
12.32000 48.423
12.34000 38.464
12.36000 45.828
12.38000 40.979
12.40000 34.457
12.42000 38.040
12.44000 40.996
12.46000 34.727
12.48000 41.037
12.50000 43.288
12.52000 42.033
12.54000 37.544
12.56000 35.370
12.58000 33.780
12.60000 33.493
12.62000 39.413
12.64000 36.910
12.66000 38.840
12.68000 32.470
12.70000 40.258
12.72000 43.943
12.74000 41.366
12.76000 38.137
12.78000 36.133
12.80000 35.875
12.82000 30.453
12.84000 35.085
12.86000 30.216
12.88000 34.178
12.90000 30.958
12.92000 35.556
12.94000 31.673
12.96000 38.079
12.98000 40.682
13.00000 45.853
13.02000 42.076
13.04000 40.802
13.06000 44.214
13.08000 36.748
13.10000 34.823
13.12000 39.747
13.14000 41.794
13.16000 39.158
13.18000 38.643
13.20000 37.863
13.22000 37.213
13.24000 36.635
13.26000 29.669
13.28000 28.098
13.30000 38.866
13.32000 41.043
13.34000 40.140
13.36000 31.268
13.38000 37.856
13.40000 33.136
13.42000 35.088
13.44000 29.217
13.46000 26.056
13.48000 26.283
13.50000 37.606
13.52000 44.065
13.54000 38.752
13.56000 34.819
13.58000 42.800
13.60000 35.339
13.62000 32.310
13.64000 27.762
13.66000 25.361
13.68000 28.899
13.70000 29.028
13.72000 37.870
13.74000 34.099
13.76000 35.723
13.78000 32.094
13.80000 16.856
13.82000 21.706
13.84000 25.500
13.86000 35.521
13.88000 38.383
13.90000 33.827
13.92000 37.070
13.94000 29.938
13.96000 33.898
13.98000 28.835
14.00000 32.266
14.02000 32.775
14.04000 30.827
14.06000 30.738
14.08000 30.105
14.10000 32.743
14.12000 34.191
14.14000 37.070
14.16000 32.457
14.18000 25.258
14.20000 24.310
14.22000 32.540
14.24000 32.978
14.26000 27.926
14.28000 33.036
14.30000 26.592
14.32000 36.606
14.34000 36.893
14.36000 28.837
14.38000 29.975
14.40000 27.638
14.42000 25.420
14.44000 27.395
14.46000 32.414
14.48000 22.472
14.50000 25.440
14.52000 34.537
14.54000 25.501
14.56000 25.757
14.58000 15.668
14.60000 14.225
14.62000 24.567
14.64000 34.395
14.66000 29.904
14.68000 30.925
14.70000 32.555
14.72000 20.344
14.74000 25.446
14.76000 34.787
14.78000 24.755
14.80000 25.090
14.82000 35.113
14.84000 32.196
14.86000 22.870
14.88000 16.237
14.90000 18.799
14.92000 20.035
14.94000 16.732
14.96000 26.458
14.98000 27.013
15.00000 27.256
15.02000 15.728
15.04000 17.914
15.06000 23.747
15.08000 26.236
15.10000 18.913
15.12000 16.283
15.14000 9.200
15.16000 12.141
15.18000 21.882
15.20000 28.285
15.22000 24.515
15.24000 19.317
15.26000 17.538
15.28000 18.691
15.30000 20.304
15.32000 21.789
15.34000 29.363
15.36000 23.494
15.38000 17.928
15.40000 12.402
15.42000 13.249
15.44000 14.452
15.46000 20.106
15.48000 29.455
15.50000 29.120
15.52000 27.313
15.54000 18.903
15.56000 6.636
15.58000 8.168
15.60000 13.812
15.62000 18.716
15.64000 19.826
15.66000 13.569
15.68000 14.307
15.70000 19.751
15.72000 21.259
15.74000 15.549
15.76000 16.249
15.78000 16.832
15.80000 13.273
15.82000 13.707
15.84000 15.911
15.86000 19.632
15.88000 7.164
15.90000 13.723
15.92000 15.632
15.94000 10.466
15.96000 13.999
15.98000 11.216
16.00000 19.968
16.02000 16.853
16.04000 17.058
16.06000 17.049
16.08000 14.809
16.10000 12.796
16.12000 13.479
16.14000 8.761
16.16000 6.496
16.18000 8.852
16.20000 16.930
16.22000 10.483
16.24000 11.864
16.26000 13.567
16.28000 6.598
16.30000 1.195
16.32000 11.495
16.34000 19.001
16.36000 11.498
16.38000 10.361
16.40000 18.214
16.42000 18.745
16.44000 7.255
16.46000 6.126
16.48000 7.739
16.50000 18.632
16.52000 14.823
16.54000 8.449
16.56000 7.091
16.58000 7.109
16.60000 9.146
16.62000 14.159
16.64000 11.425
16.66000 11.175
16.68000 18.444
16.70000 17.072
16.72000 9.738
16.74000 18.158
16.76000 9.053
16.78000 6.882
16.80000 7.675
16.82000 10.479
16.84000 11.332
16.86000 16.016
16.88000 12.145
16.90000 6.802
16.92000 6.698
16.94000 7.199
16.96000 8.329
16.98000 10.404
17.00000 18.822
17.02000 10.912
17.04000 8.721
17.06000 9.212
17.08000 10.082
17.10000 9.713
17.12000 9.540
17.14000 4.787
17.16000 8.003
17.18000 5.684
17.20000 10.732
17.22000 5.957
17.24000 7.960
17.26000 7.981
17.28000 1.866
17.30000 6.495
17.32000 10.306
17.34000 8.041
17.36000 15.964
17.38000 19.945
17.40000 13.083
17.42000 5.174
17.44000 6.193
17.46000 5.812
17.48000 5.150
17.50000 5.504
17.52000 7.382
17.54000 7.238
17.56000 5.221
17.58000 5.750
17.60000 5.575
17.62000 -2.057
17.64000 3.750
17.66000 8.219
17.68000 11.886
17.70000 11.591
17.72000 11.928
17.74000 10.891
17.76000 6.147
17.78000 8.389
17.80000 5.945
17.82000 10.344
17.84000 11.464
17.86000 5.398
17.88000 3.841
17.90000 8.578
17.92000 15.905
17.94000 8.036
17.96000 9.095
17.98000 15.657
18.00000 15.222
18.02000 10.421
18.04000 3.659
18.06000 4.464
18.08000 -2.460
18.10000 -1.399
18.12000 2.911
18.14000 6.142
18.16000 9.785
18.18000 18.289
18.20000 7.304
18.22000 2.960
18.24000 1.573
18.26000 0.882
18.28000 0.985
18.30000 1.737
18.32000 5.617
18.34000 4.381
18.36000 9.559
18.38000 13.406
18.40000 8.906
18.42000 -1.312
18.44000 3.024
18.46000 1.185
18.48000 -4.295
18.50000 -0.846
18.52000 6.437
18.54000 6.211
18.56000 10.269
18.58000 10.330
18.60000 0.253
18.62000 1.720
18.64000 8.079
18.66000 -1.835
18.68000 4.351
18.70000 3.695
18.72000 4.921
18.74000 2.658
18.76000 1.276
18.78000 4.581
18.80000 9.854
18.82000 14.657
18.84000 8.791
18.86000 6.283
18.88000 4.579
18.90000 3.616
18.92000 -0.269
18.94000 5.798
18.96000 12.224
18.98000 9.542
19.00000 6.166
19.02000 -1.279
19.04000 5.103
19.06000 10.626
19.08000 14.031
19.10000 5.253
19.12000 0.427
19.14000 0.965
19.16000 10.843
19.18000 12.107
19.20000 6.624
19.22000 7.918
19.24000 10.110
19.26000 9.559
19.28000 1.689
19.30000 -2.525
19.32000 2.898
19.34000 8.208
19.36000 6.050
19.38000 8.628
19.40000 9.656
19.42000 10.412
19.44000 1.958
19.46000 5.710
19.48000 4.216
19.50000 6.147
19.52000 14.210
19.54000 5.132
19.56000 13.321
19.58000 11.096
19.60000 2.180
19.62000 -4.233
19.64000 3.057
19.66000 0.652
19.68000 1.367
19.70000 0.153
19.72000 1.654
19.74000 4.179
19.76000 5.578
19.78000 4.025
19.80000 4.262
19.82000 5.183
19.84000 5.759
19.86000 4.346
19.88000 4.364
19.90000 11.330
19.92000 14.534
19.94000 6.728
19.96000 4.737
19.98000 3.449
20.00000 3.628
20.02000 2.995
20.04000 2.537
20.06000 7.696
20.08000 5.309
20.10000 2.023
20.12000 2.980
20.14000 9.448
20.16000 -1.707
20.18000 -0.120
20.20000 3.643
20.22000 1.416
20.24000 -2.055
20.26000 5.513
20.28000 7.642
20.30000 15.035
20.32000 10.364
20.34000 5.273
20.36000 6.209
20.38000 -1.952
20.40000 -2.637
20.42000 1.092
20.44000 3.307
20.46000 -0.425
20.48000 -2.753
20.50000 2.745
20.52000 4.016
20.54000 -1.767
20.56000 -2.990
20.58000 0.006
20.60000 3.464
20.62000 1.542
20.64000 2.644
20.66000 4.586
20.68000 3.779
20.70000 1.301
20.72000 3.135
20.74000 0.021
20.76000 5.665
20.78000 0.294
20.80000 2.601
20.82000 4.472
20.84000 0.352
20.86000 -1.640
20.88000 8.864
20.90000 5.498
20.92000 -0.741
20.94000 3.656
20.96000 4.748
20.98000 2.409
21.00000 5.553
21.02000 -0.335
21.04000 -1.398
21.06000 -1.892
21.08000 6.133
21.10000 4.627
21.12000 1.423
21.14000 3.272
21.16000 7.247
21.18000 0.331
21.20000 1.980
21.22000 2.335
21.24000 4.431
21.26000 4.354
21.28000 -1.067
21.30000 -3.006
21.32000 1.142
21.34000 0.426
21.36000 8.095
21.38000 1.766
21.40000 -2.037
21.42000 5.298
21.44000 5.850
21.46000 7.615
21.48000 1.506
21.50000 -0.551
21.52000 3.197
21.54000 4.433
21.56000 2.216
21.58000 -1.036
21.60000 -0.930
21.62000 6.339
21.64000 9.941
21.66000 3.083
21.68000 7.304
21.70000 2.181
21.72000 -4.149
21.74000 -0.471
21.76000 5.377
21.78000 4.894
21.80000 3.006
21.82000 5.547
21.84000 6.857
21.86000 1.378
21.88000 4.666
21.90000 5.168
21.92000 7.452
21.94000 3.227
21.96000 -0.445
21.98000 3.569
22.00000 9.694
22.02000 2.178
22.04000 4.405
22.06000 7.668
22.08000 7.071
22.10000 -1.889
22.12000 1.154
22.14000 4.843
22.16000 6.336
22.18000 5.914
22.20000 8.296
22.22000 1.833
22.24000 -2.131
22.26000 0.249
22.28000 -4.105
22.30000 2.458
22.32000 5.928
22.34000 4.882
22.36000 2.042
22.38000 -1.892
22.40000 2.012
22.42000 5.780
22.44000 1.657
22.46000 3.141
22.48000 4.816
22.50000 3.501
22.52000 2.288
22.54000 3.298
22.56000 8.285
22.58000 6.055
22.60000 3.005
22.62000 4.972
22.64000 4.832
22.66000 1.263
22.68000 4.517
22.70000 8.978
22.72000 -4.065
22.74000 -2.375
22.76000 3.328
22.78000 4.382
22.80000 5.257
22.82000 4.602
22.84000 8.613
22.86000 2.490
22.88000 1.703
22.90000 0.751
22.92000 2.828
22.94000 4.321
22.96000 1.362
22.98000 3.604
23.00000 8.014
23.02000 7.077
23.04000 3.389
23.06000 3.555
23.08000 2.570
23.10000 -3.274
23.12000 0.553
23.14000 3.934
23.16000 3.869
23.18000 3.177
23.20000 5.380
23.22000 7.854
23.24000 9.078
23.26000 5.931
23.28000 -0.210
23.30000 0.033
23.32000 4.511
23.34000 6.463
23.36000 0.624
23.38000 -0.279
23.40000 -1.482
23.42000 1.544
23.44000 1.517
23.46000 3.460
23.48000 2.889
23.50000 -3.203
23.52000 -2.000
23.54000 2.201
23.56000 -2.945
23.58000 -0.763
23.60000 -0.599
23.62000 2.053
23.64000 5.441
23.66000 0.321
23.68000 3.748
23.70000 0.559
23.72000 -0.341
23.74000 -3.546
23.76000 -3.011
23.78000 0.027
23.80000 8.530
23.82000 8.925
23.84000 7.468
23.86000 1.000
23.88000 2.723
23.90000 2.374
23.92000 3.786
23.94000 -0.084
23.96000 -3.482
23.98000 -1.267
24.00000 -3.954
24.02000 -1.833
24.04000 2.960
24.06000 7.913
24.08000 16.309
24.10000 10.794
24.12000 8.677
24.14000 4.716
24.16000 5.334
24.18000 1.501
24.20000 -1.046
24.22000 5.208
24.24000 4.117
24.26000 3.839
24.28000 7.247
24.30000 7.140
24.32000 11.372
24.34000 8.620
24.36000 4.125
24.38000 0.851
24.40000 4.314
24.42000 2.943
24.44000 4.323
24.46000 3.639
24.48000 4.558
24.50000 6.262
24.52000 8.583
24.54000 5.820
24.56000 8.806
24.58000 2.955
24.60000 0.052
24.62000 4.561
24.64000 8.810
24.66000 6.104
24.68000 6.201
24.70000 1.786
24.72000 2.831
24.74000 3.841
24.76000 3.460
24.78000 -0.798
24.80000 0.917
24.82000 9.360
24.84000 8.317
24.86000 2.904
24.88000 7.928
24.90000 7.894
24.92000 -3.931
24.94000 -3.929
24.96000 4.732
24.98000 6.425
25.00000 2.061
25.02000 4.733
25.04000 3.304
25.06000 9.777
25.08000 7.017
25.10000 -0.920
25.12000 0.994
25.14000 7.320
25.16000 9.168
25.18000 4.345
25.20000 0.721
25.22000 0.266
25.24000 1.147
25.26000 -2.359
25.28000 4.884
25.30000 11.872
25.32000 5.935
25.34000 4.007
25.36000 2.838
25.38000 3.502
25.40000 3.484
25.42000 8.280
25.44000 5.962
25.46000 6.368
25.48000 9.514
25.50000 6.491
25.52000 4.257
25.54000 3.009
25.56000 3.833
25.58000 2.174
25.60000 6.464
25.62000 11.670
25.64000 11.983
25.66000 8.418
25.68000 5.572
25.70000 -0.928
25.72000 0.062
25.74000 4.922
25.76000 11.665
25.78000 4.614
25.80000 3.414
25.82000 9.412
25.84000 7.572
25.86000 0.142
25.88000 0.585
25.90000 2.896
25.92000 0.501
25.94000 -3.857
25.96000 6.326
25.98000 12.132
26.00000 10.388
26.02000 3.047
26.04000 3.873
26.06000 4.887
26.08000 7.038
26.10000 8.549
26.12000 3.664
26.14000 6.551
26.16000 6.846
26.18000 7.217
26.20000 9.782
26.22000 9.256
26.24000 5.184
26.26000 9.114
26.28000 6.452
26.30000 6.094
26.32000 8.658
26.34000 6.240
26.36000 4.081
26.38000 7.166
26.40000 11.715
26.42000 9.325
26.44000 6.788
26.46000 6.843
26.48000 9.617
26.50000 12.535
26.52000 8.289
26.54000 6.245
26.56000 7.778
26.58000 7.356
26.60000 -3.849
26.62000 -1.079
26.64000 6.646
26.66000 4.095
26.68000 5.539
26.70000 5.182
26.72000 3.286
26.74000 0.801
26.76000 7.337
26.78000 7.016
26.80000 1.660
26.82000 5.721
26.84000 3.351
26.86000 1.832
26.88000 8.427
26.90000 8.493
26.92000 3.269
26.94000 4.593
26.96000 3.330
26.98000 0.230
27.00000 6.221
27.02000 4.700
27.04000 5.799
27.06000 6.603
27.08000 3.019
27.10000 6.400
27.12000 4.081
27.14000 6.203
27.16000 3.058
27.18000 5.510
27.20000 5.425
27.22000 0.700
27.24000 1.374
27.26000 4.519
27.28000 2.529
27.30000 -1.922
27.32000 -0.279
27.34000 -3.274
27.36000 -2.564
27.38000 3.844
27.40000 1.078
27.42000 1.245
27.44000 5.372
27.46000 9.155
27.48000 7.222
27.50000 4.655
27.52000 5.944
27.54000 3.951
27.56000 2.879
27.58000 2.911
27.60000 8.178
27.62000 4.310
27.64000 0.017
27.66000 2.153
27.68000 4.386
27.70000 6.990
27.72000 5.947
27.74000 2.065
27.76000 -1.090
27.78000 1.671
27.80000 -3.178
27.82000 -1.961
27.84000 1.781
27.86000 0.901
27.88000 -0.620
27.90000 -2.601
27.92000 3.871
27.94000 4.941
27.96000 0.704
27.98000 -1.776
28.00000 0.254
28.02000 -0.107
28.04000 -0.445
28.06000 -1.171
28.08000 -3.822
28.10000 -2.491
28.12000 3.921
28.14000 5.369
28.16000 3.576
28.18000 0.042
28.20000 1.795
28.22000 3.014
28.24000 2.313
28.26000 -0.108
28.28000 3.318
28.30000 3.322
28.32000 1.180
28.34000 -0.308
28.36000 -1.787
28.38000 -3.238
28.40000 -0.688
28.42000 -1.844
28.44000 -1.955
28.46000 -1.032
28.48000 4.653
28.50000 3.061
28.52000 8.822
28.54000 7.185
28.56000 0.148
28.58000 -2.865
28.60000 -2.031
28.62000 -3.010
28.64000 0.333
28.66000 0.433
28.68000 3.478
28.70000 6.217
28.72000 2.902
28.74000 1.571
28.76000 2.571
28.78000 -2.624
28.80000 0.550
28.82000 0.982
28.84000 3.692
28.86000 -0.549
28.88000 5.461
28.90000 1.515
28.92000 -1.129
28.94000 1.479
28.96000 2.428
28.98000 1.798
29.00000 -0.176
29.02000 -3.295
29.04000 -0.814
29.06000 -0.597
29.08000 2.870
29.10000 0.332
29.12000 2.175
29.14000 0.343
29.16000 -2.768
29.18000 -2.423
29.20000 1.433
29.22000 0.458
29.24000 -3.772
29.26000 0.062
29.28000 2.153
29.30000 -0.318
29.32000 2.663
29.34000 4.504
29.36000 1.470
29.38000 3.788
29.40000 0.918
29.42000 1.615
29.44000 3.299
29.46000 -1.401
29.48000 -1.100
29.50000 -2.194
29.52000 2.555
29.54000 4.925
29.56000 5.841
29.58000 7.826
29.60000 4.139
29.62000 5.550
29.64000 1.758
29.66000 2.540
29.68000 6.083
29.70000 3.617
29.72000 -1.176
29.74000 -1.945
29.76000 4.261
29.78000 4.428
29.80000 2.171
29.82000 -3.726
29.84000 -0.911
29.86000 4.582
29.88000 3.039
29.90000 0.635
29.92000 4.655
29.94000 7.332
29.96000 8.113
29.98000 4.636
30.00000 5.825
30.02000 5.485
30.04000 4.075
30.06000 3.409
30.08000 3.988
30.10000 -0.960
30.12000 4.405
30.14000 4.273
30.16000 3.531
30.18000 5.898
30.20000 7.698
30.22000 1.415
30.24000 -2.110
30.26000 1.189
30.28000 7.011
30.30000 2.931
30.32000 4.453
30.34000 7.113
30.36000 9.356
30.38000 7.183
30.40000 5.759
30.42000 3.617
30.44000 1.652
30.46000 0.215
30.48000 2.692
30.50000 -3.669
30.52000 2.770
30.54000 5.406
30.56000 6.583
30.58000 8.929
30.60000 3.111
30.62000 -0.342
30.64000 0.255
30.66000 -1.299
30.68000 0.847
30.70000 1.923
30.72000 2.408
30.74000 2.357
30.76000 4.407
30.78000 6.170
30.80000 2.404
30.82000 -3.437
30.84000 1.023
30.86000 7.266
30.88000 5.466
30.90000 3.721
30.92000 -0.050
30.94000 -0.721
30.96000 1.577
30.98000 5.638
31.00000 3.680
31.02000 2.566
31.04000 4.615
31.06000 2.670
31.08000 1.311
31.10000 -0.017
31.12000 0.609
31.14000 5.254
31.16000 3.969
31.18000 1.066
31.20000 3.851
31.22000 6.793
31.24000 8.241
31.26000 6.389
31.28000 3.382
31.30000 3.587
31.32000 2.496
31.34000 1.330
31.36000 7.143
31.38000 5.968
31.40000 5.663
31.42000 6.028
31.44000 8.969
31.46000 9.234
31.48000 2.114
31.50000 3.571
31.52000 -2.209
31.54000 4.887
31.56000 6.275
31.58000 6.039
31.60000 -1.047
31.62000 -0.680
31.64000 0.961
31.66000 3.662
31.68000 7.551
31.70000 2.946
31.72000 5.238
31.74000 5.037
31.76000 9.385
31.78000 5.761
31.80000 -0.864
31.82000 -3.630
31.84000 0.797
31.86000 -1.423
31.88000 -0.640
31.90000 7.259
31.92000 5.360
31.94000 1.709
31.96000 4.391
31.98000 11.565
32.00000 5.760
32.02000 1.925
32.04000 -0.789
32.06000 3.011
32.08000 1.111
32.10000 -2.251
32.12000 -2.615
32.14000 4.131
32.16000 0.990
32.18000 2.561
32.20000 -0.628
32.22000 4.180
32.24000 5.066
32.26000 1.969
32.28000 -1.961
32.30000 -0.764
32.32000 4.169
32.34000 0.564
32.36000 1.248
32.38000 2.837
32.40000 6.316
32.42000 3.282
32.44000 3.217
32.46000 0.845
32.48000 -0.326
32.50000 5.899
32.52000 3.038
32.54000 2.921
32.56000 3.557
32.58000 3.159
32.60000 3.873
32.62000 6.648
32.64000 7.103
32.66000 0.145
32.68000 -1.595
32.70000 1.159
32.72000 3.093
32.74000 1.755
32.76000 1.693
32.78000 -1.294
32.80000 -3.263
32.82000 -1.450
32.84000 -0.869
32.86000 -1.744
32.88000 -0.310
32.90000 1.149
32.92000 7.182
32.94000 10.073
32.96000 7.468
32.98000 3.617
33.00000 4.372
33.02000 3.700
33.04000 0.131
33.06000 3.580
33.08000 4.554
33.10000 1.018
33.12000 0.576
33.14000 -0.939
33.16000 -0.618
33.18000 -3.604
33.20000 -1.480
33.22000 -1.542
33.24000 0.784
33.26000 2.171
33.28000 0.954
33.30000 0.675
33.32000 3.381
33.34000 0.587
33.36000 0.427
33.38000 0.287
33.40000 3.345
33.42000 5.949
33.44000 5.597
33.46000 4.641
33.48000 6.391
33.50000 5.775
33.52000 6.020
33.54000 7.504
33.56000 3.532
33.58000 0.282
33.60000 6.244
33.62000 5.134
33.64000 -0.212
33.66000 -1.871
33.68000 -1.465
33.70000 8.541
33.72000 10.162
33.74000 1.734
33.76000 -0.842
33.78000 3.208
33.80000 5.877
33.82000 4.667
33.84000 6.764
33.86000 9.872
33.88000 7.377
33.90000 9.826
33.92000 5.308
33.94000 4.571
33.96000 1.829
33.98000 4.404
34.00000 4.658
34.02000 1.241
34.04000 6.637
34.06000 6.157
34.08000 0.723
34.10000 4.064
34.12000 8.778
34.14000 7.175
34.16000 11.309
34.18000 9.645
34.20000 8.539
34.22000 6.037
34.24000 6.255
34.26000 6.821
34.28000 5.914
34.30000 5.123
34.32000 4.970
34.34000 3.163
34.36000 2.878
34.38000 5.417
34.40000 5.639
34.42000 -3.573
34.44000 -1.479
34.46000 0.101
34.48000 3.850
34.50000 2.894
34.52000 3.863
34.54000 5.298
34.56000 6.004
34.58000 3.639
34.60000 7.141
34.62000 4.028
34.64000 1.841
34.66000 3.755
34.68000 3.991
34.70000 -1.936
34.72000 -0.536
34.74000 5.000
34.76000 2.837
34.78000 5.424
34.80000 6.037
34.82000 2.907
34.84000 5.933
34.86000 -0.299
34.88000 1.321
34.90000 0.454
34.92000 -0.379
34.94000 0.842
34.96000 -0.084
34.98000 -1.560
35.00000 -2.206
35.02000 -1.723
35.04000 1.457
35.06000 4.256
35.08000 2.373
35.10000 1.380
35.12000 0.189
35.14000 -0.101
35.16000 3.271
35.18000 3.265
35.20000 5.367
35.22000 1.326
35.24000 0.776
35.26000 3.550
35.28000 2.114
35.30000 3.899
35.32000 1.439
35.34000 -0.083
35.36000 1.303
35.38000 4.812
35.40000 5.952
35.42000 4.374
35.44000 4.070
35.46000 0.761
35.48000 -1.870
35.50000 -3.555
35.52000 0.682
35.54000 3.893
35.56000 0.053
35.58000 0.410
35.60000 3.839
35.62000 3.949
35.64000 5.988
35.66000 6.037
35.68000 6.365
35.70000 0.787
35.72000 1.481
35.74000 3.358
35.76000 6.270
35.78000 3.536
35.80000 4.744
35.82000 6.702
35.84000 5.090
35.86000 -3.578
35.88000 0.894
35.90000 3.819
35.92000 4.068
35.94000 0.030
35.96000 -0.651
35.98000 -0.522
36.00000 3.622
36.02000 4.957
36.04000 -2.552
36.06000 -2.860
36.08000 0.163
36.10000 6.605
36.12000 7.670
36.14000 4.980
36.16000 3.209
36.18000 -1.881
36.20000 1.435
36.22000 4.125
36.24000 3.663
36.26000 0.309
36.28000 2.885
36.30000 1.636
36.32000 -0.954
36.34000 0.575
36.36000 1.888
36.38000 -0.566
36.40000 -1.955
36.42000 -0.968
36.44000 1.450
36.46000 5.607
36.48000 7.644
36.50000 1.378
36.52000 0.438
36.54000 2.282
36.56000 -0.789
36.58000 2.781
36.60000 4.631
36.62000 4.452
36.64000 2.996
36.66000 2.774
36.68000 1.586
36.70000 -1.511
36.72000 0.088
36.74000 0.948
36.76000 4.252
36.78000 9.903
36.80000 6.865
36.82000 8.015
36.84000 5.989
36.86000 1.259
36.88000 6.796
36.90000 7.682
36.92000 1.818
36.94000 0.999
36.96000 3.196
36.98000 -3.639
37.00000 -3.456
37.02000 2.283
37.04000 5.402
37.06000 -0.469
37.08000 0.638
37.10000 1.616
37.12000 0.033
37.14000 5.494
37.16000 5.526
37.18000 3.768
37.20000 7.415
37.22000 9.212
37.24000 7.514
37.26000 9.657
37.28000 7.725
37.30000 1.848
37.32000 0.533
37.34000 5.716
37.36000 6.447
37.38000 6.350
37.40000 5.781
37.42000 6.526
37.44000 11.319
37.46000 13.930
37.48000 14.789
37.50000 9.141
37.52000 7.560
37.54000 6.260
37.56000 12.361
37.58000 12.884
37.60000 12.375
37.62000 9.143
37.64000 5.152
37.66000 8.159
37.68000 7.115
37.70000 9.510
37.72000 10.042
37.74000 11.953
37.76000 14.702
37.78000 13.948
37.80000 12.499
37.82000 15.451
37.84000 12.971
37.86000 16.307
37.88000 17.328
37.90000 23.608
37.92000 22.219
37.94000 21.668
37.96000 17.263
37.98000 14.883
38.00000 17.327
38.02000 19.186
38.04000 20.088
38.06000 24.582
38.08000 22.548
38.10000 23.738
38.12000 29.071
38.14000 29.931
38.16000 29.346
38.18000 26.380
38.20000 24.098
38.22000 29.643
38.24000 29.808
38.26000 27.786
38.28000 29.025
38.30000 29.916
38.32000 33.231
38.34000 39.433
38.36000 42.569
38.38000 41.714
38.40000 40.247
38.42000 41.200
38.44000 46.975
38.46000 49.345
38.48000 47.138
38.50000 47.821
38.52000 45.968
38.54000 53.370
38.56000 56.346
38.58000 51.328
38.60000 51.682
38.62000 56.244
38.64000 58.335
38.66000 62.339
38.68000 69.316
38.70000 74.570
38.72000 77.054
38.74000 79.026
38.76000 89.535
38.78000 87.187
38.80000 88.685
38.82000 93.840
38.84000 92.369
38.86000 96.309
38.88000 109.080
38.90000 114.731
38.92000 118.174
38.94000 120.585
38.96000 124.580
38.98000 133.593
39.00000 138.662
39.02000 142.236
39.04000 152.644
39.06000 165.769
39.08000 172.691
39.10000 186.819
39.12000 193.754
39.14000 203.549
39.16000 214.125
39.18000 231.912
39.20000 247.892
39.22000 255.431
39.24000 264.996
39.26000 281.068
39.28000 302.880
39.30000 311.755
39.32000 327.773
39.34000 355.872
39.36000 375.857
39.38000 386.746
39.40000 404.676
39.42000 426.456
39.44000 445.467
39.46000 470.835
39.48000 489.199
39.50000 503.523
39.52000 523.927
39.54000 539.371
39.56000 554.946
39.58000 577.275
39.60000 590.418
39.62000 603.211
39.64000 610.079
39.66000 616.670
39.68000 634.210
39.70000 645.675
39.72000 649.514
39.74000 650.091
39.76000 640.679
39.78000 634.217
39.80000 624.866
39.82000 623.106
39.84000 622.284
39.86000 608.560
39.88000 587.616
39.90000 588.776
39.92000 560.946
39.94000 535.561
39.96000 514.011
39.98000 500.970
40.00000 482.759
40.02000 459.425
40.04000 448.798
40.06000 425.984
40.08000 411.837
40.10000 393.776
40.12000 374.313
40.14000 354.015
40.16000 336.111
40.18000 309.984
40.20000 293.916
40.22000 284.991
40.24000 263.190
40.26000 247.605
40.28000 238.516
40.30000 222.389
40.32000 209.861
40.34000 189.763
40.36000 172.718
40.38000 164.073
40.40000 153.469
40.42000 147.906
40.44000 141.845
40.46000 133.387
40.48000 120.874
40.50000 119.401
40.52000 117.315
40.54000 103.724
40.56000 97.894
40.58000 89.052
40.60000 83.562
40.62000 83.226
40.64000 81.359
40.66000 76.942
40.68000 63.896
40.70000 58.440
40.72000 59.660
40.74000 52.353
40.76000 54.608
40.78000 54.258
40.80000 52.442
40.82000 50.407
40.84000 41.029
40.86000 39.497
40.88000 38.214
40.90000 35.450
40.92000 36.019
40.94000 32.262
40.96000 28.887
40.98000 28.368
41.00000 29.684
41.02000 29.719
41.04000 31.401
41.06000 28.913
41.08000 23.732
41.10000 20.518
41.12000 18.551
41.14000 17.464
41.16000 19.895
41.18000 14.319
41.20000 15.014
41.22000 18.155
41.24000 17.440
41.26000 14.028
41.28000 11.101
41.30000 10.918
41.32000 14.520
41.34000 13.506
41.36000 12.393
41.38000 12.074
41.40000 12.570
41.42000 9.241
41.44000 9.862
41.46000 6.144
41.48000 8.399
41.50000 6.964
41.52000 9.245
41.54000 10.100
41.56000 6.388
41.58000 7.106
41.60000 9.605
41.62000 7.715
41.64000 3.453
41.66000 6.994
41.68000 8.837
41.70000 3.730
41.72000 -0.044
41.74000 5.844
41.76000 4.960
41.78000 9.698
41.80000 4.378
41.82000 2.505
41.84000 4.875
41.86000 4.231
41.88000 2.839
41.90000 6.219
41.92000 5.941
41.94000 -0.341
41.96000 -0.606
41.98000 2.870
42.00000 4.202
42.02000 2.962
42.04000 -3.393
42.06000 -0.734
42.08000 2.788
42.10000 1.608
42.12000 0.493
42.14000 3.000
42.16000 0.444
42.18000 2.106
42.20000 3.582
42.22000 -0.036
42.24000 4.587
42.26000 0.853
42.28000 1.160
42.30000 1.013
42.32000 -0.923
42.34000 1.185
42.36000 3.017
42.38000 0.422
42.40000 -1.140
42.42000 1.479
42.44000 -1.575
42.46000 -0.832
42.48000 -1.946
42.50000 -2.303
42.52000 0.119
42.54000 1.091
42.56000 0.258
42.58000 -2.495
42.60000 -1.074
42.62000 1.337
42.64000 0.210
42.66000 1.027
42.68000 1.893
42.70000 4.717
42.72000 0.148
42.74000 -0.348
42.76000 1.109
42.78000 2.225
42.80000 -3.295
42.82000 -0.393
42.84000 2.242
42.86000 3.096
42.88000 1.399
42.90000 -1.373
42.92000 -3.284
42.94000 -0.139
42.96000 2.531
42.98000 2.527
43.00000 0.647
43.02000 -1.135
43.04000 0.888
43.06000 3.463
43.08000 0.678
43.10000 1.284
43.12000 -0.047
43.14000 -1.151
43.16000 -1.426
43.18000 -0.100
43.20000 2.592
43.22000 -2.214
43.24000 -2.721
43.26000 -0.832
43.28000 1.247
43.30000 3.089
43.32000 2.215
43.34000 1.898
43.36000 2.584
43.38000 1.991
43.40000 0.388
43.42000 -0.691
43.44000 0.704
43.46000 -0.081
43.48000 0.316
43.50000 -0.978
43.52000 -1.667
43.54000 -3.217
43.56000 1.765
43.58000 2.423
43.60000 0.620
43.62000 0.260
43.64000 0.246
43.66000 0.365
43.68000 0.175
43.70000 -1.259
43.72000 -2.148
43.74000 1.413
43.76000 1.416
43.78000 -1.266
43.80000 -2.935
43.82000 3.179
43.84000 0.485
43.86000 -0.131
43.88000 -0.874
43.90000 -1.419
43.92000 -2.174
43.94000 1.550
43.96000 1.183
43.98000 1.475
44.00000 2.040
44.02000 -0.653
44.04000 0.179
44.06000 2.486
44.08000 2.419
44.10000 0.232
44.12000 2.939
44.14000 5.353
44.16000 2.091
44.18000 1.103
44.20000 -0.695
44.22000 2.502
44.24000 4.009
44.26000 0.453
44.28000 -3.142
44.30000 0.608
44.32000 2.709
44.34000 3.311
44.36000 -0.405
44.38000 5.813
44.40000 4.462
44.42000 3.051
44.44000 6.944
44.46000 6.693
44.48000 3.019
44.50000 3.170
44.52000 2.821
44.54000 2.224
44.56000 2.766
44.58000 3.622
44.60000 6.501
44.62000 4.433
44.64000 2.491
44.66000 4.157
44.68000 3.897
44.70000 5.397
44.72000 5.374
44.74000 5.232
44.76000 4.359
44.78000 0.910
44.80000 -0.965
44.82000 0.568
44.84000 3.323
44.86000 2.841
44.88000 3.529
44.90000 6.882
44.92000 6.290
44.94000 3.488
44.96000 4.739
44.98000 6.965
45.00000 9.268
45.02000 9.380
45.04000 6.334
45.06000 8.312
45.08000 11.695
45.10000 7.861
45.12000 6.309
45.14000 10.737
45.16000 11.780
45.18000 12.883
45.20000 12.671
45.22000 9.205
45.24000 6.107
45.26000 7.522
45.28000 12.736
45.30000 12.399
45.32000 9.243
45.34000 7.712
45.36000 13.867
45.38000 13.306
45.40000 14.389
45.42000 17.291
45.44000 18.018
45.46000 18.481
45.48000 17.187
45.50000 15.572
45.52000 20.193
45.54000 22.421
45.56000 22.371
45.58000 21.765
45.60000 22.656
45.62000 28.014
45.64000 26.106
45.66000 25.171
45.68000 23.462
45.70000 24.649
45.72000 27.840
45.74000 23.781
45.76000 30.882
45.78000 35.744
45.80000 31.982
45.82000 33.132
45.84000 38.044
45.86000 34.468
45.88000 36.125
45.90000 38.920
45.92000 40.768
45.94000 43.979
45.96000 42.382
45.98000 40.389
46.00000 45.383
46.02000 50.098
46.04000 51.981
46.06000 50.757
46.08000 51.117
46.10000 52.155
46.12000 50.490
46.14000 51.869
46.16000 51.612
46.18000 53.828
46.20000 57.641
46.22000 59.996
46.24000 63.679
46.26000 65.430
46.28000 65.959
46.30000 67.229
46.32000 70.216
46.34000 70.079
46.36000 65.902
46.38000 64.065
46.40000 65.701
46.42000 67.805
46.44000 66.772
46.46000 64.964
46.48000 67.494
46.50000 64.144
46.52000 57.489
46.54000 58.573
46.56000 62.793
46.58000 64.454
46.60000 64.886
46.62000 64.117
46.64000 58.710
46.66000 51.483
46.68000 54.879
46.70000 55.550
46.72000 52.089
46.74000 54.637
46.76000 47.251
46.78000 47.515
46.80000 44.200
46.82000 43.718
46.84000 41.244
46.86000 38.332
46.88000 35.839
46.90000 38.637
46.92000 35.735
46.94000 33.755
46.96000 33.753
46.98000 31.556
47.00000 30.573
47.02000 31.774
47.04000 35.551
47.06000 30.770
47.08000 23.122
47.10000 27.213
47.12000 21.895
47.14000 19.194
47.16000 25.052
47.18000 21.500
47.20000 16.746
47.22000 15.848
47.24000 11.969
47.26000 11.646
47.28000 17.742
47.30000 13.670
47.32000 12.964
47.34000 13.620
47.36000 20.518
47.38000 19.164
47.40000 13.292
47.42000 7.038
47.44000 4.703
47.46000 0.328
47.48000 4.483
47.50000 10.268
47.52000 9.438
47.54000 9.382
47.56000 9.490
47.58000 7.548
47.60000 7.535
47.62000 8.063
47.64000 4.206
47.66000 7.204
47.68000 8.765
47.70000 7.850
47.72000 1.492
47.74000 4.631
47.76000 4.636
47.78000 4.037
47.80000 1.652
47.82000 -0.394
47.84000 -2.836
47.86000 1.407
47.88000 6.335
47.90000 4.246
47.92000 2.223
47.94000 4.188
47.96000 5.886
47.98000 3.248
48.00000 3.485
48.02000 7.977
48.04000 4.500
48.06000 4.497
48.08000 3.239
48.10000 3.438
48.12000 6.509
48.14000 4.392
48.16000 2.289
48.18000 3.013
48.20000 4.850
48.22000 4.459
48.24000 6.255
48.26000 5.265
48.28000 1.409
48.30000 -2.738
48.32000 -1.705
48.34000 -0.511
48.36000 2.238
48.38000 4.505
48.40000 1.552
48.42000 2.156
48.44000 4.045
48.46000 2.497
48.48000 2.297
48.50000 2.205
48.52000 5.011
48.54000 8.612
48.56000 6.004
48.58000 5.497
48.60000 0.412
48.62000 1.069
48.64000 0.550
48.66000 1.286
48.68000 0.745
48.70000 2.954
48.72000 0.312
48.74000 1.452
48.76000 1.010
48.78000 -1.590
48.80000 -1.686
48.82000 -0.307
48.84000 -0.310
48.86000 3.021
48.88000 2.739
48.90000 1.458
48.92000 5.003
48.94000 4.187
48.96000 2.153
48.98000 1.187
49.00000 1.039
49.02000 3.120
49.04000 0.276
49.06000 5.475
49.08000 7.606
49.10000 -0.885
49.12000 -2.476
49.14000 -0.415
49.16000 0.385
49.18000 4.706
49.20000 4.868
49.22000 1.642
49.24000 3.005
49.26000 4.992
49.28000 0.868
49.30000 -0.874
49.32000 -1.092
49.34000 1.638
49.36000 4.356
49.38000 1.470
49.40000 5.026
49.42000 3.738
49.44000 3.353
49.46000 -1.698
49.48000 6.064
49.50000 3.716
49.52000 -2.159
49.54000 0.635
49.56000 2.683
49.58000 2.589
49.60000 4.908
49.62000 4.274
49.64000 2.834
49.66000 1.546
49.68000 -0.753
49.70000 0.710
49.72000 -1.864
49.74000 -1.319
49.76000 -0.676
49.78000 1.256
49.80000 1.198
49.82000 1.429
49.84000 1.103
49.86000 -0.369
49.88000 0.081
49.90000 2.907
49.92000 1.815
49.94000 5.777
49.96000 5.288
49.98000 5.108
50.00000 3.421
50.02000 4.497
50.04000 5.804
50.06000 5.617
50.08000 3.206
50.10000 1.293
50.12000 1.721
50.14000 1.181
50.16000 -1.906
50.18000 -1.084
50.20000 2.114
50.22000 -2.597
50.24000 -1.115
50.26000 2.876
50.28000 4.925
50.30000 6.565
50.32000 6.239
50.34000 6.406
50.36000 7.126
50.38000 5.504
50.40000 0.477
50.42000 -2.583
50.44000 0.061
50.46000 1.676
50.48000 2.246
50.50000 4.669
50.52000 5.724
50.54000 8.319
50.56000 3.816
50.58000 3.472
50.60000 4.858
50.62000 1.338
50.64000 2.596
50.66000 3.990
50.68000 3.271
50.70000 1.835
50.72000 4.472
50.74000 0.150
50.76000 3.953
50.78000 2.804
50.80000 -2.206
50.82000 -0.781
50.84000 4.486
50.86000 7.100
50.88000 3.990
50.90000 1.952
50.92000 1.972
50.94000 1.116
50.96000 1.381
50.98000 1.995
51.00000 -1.520
51.02000 -0.910
51.04000 4.224
51.06000 2.832
51.08000 1.887
51.10000 2.791
51.12000 5.382
51.14000 4.677
51.16000 2.140
51.18000 6.593
51.20000 3.743
51.22000 0.647
51.24000 2.867
51.26000 4.834
51.28000 3.691
51.30000 5.492
51.32000 3.914
51.34000 -1.810
51.36000 -0.464
51.38000 3.858
51.40000 3.178
51.42000 1.593
51.44000 1.549
51.46000 1.175
51.48000 4.872
51.50000 2.685
51.52000 2.557
51.54000 4.830
51.56000 2.356
51.58000 -1.931
51.60000 -2.578
51.62000 2.002
51.64000 2.892
51.66000 2.013
51.68000 1.477
51.70000 3.852
51.72000 6.493
51.74000 7.830
51.76000 5.974
51.78000 5.739
51.80000 1.483
51.82000 -2.090
51.84000 -2.052
51.86000 3.385
51.88000 5.124
51.90000 -0.875
51.92000 -0.991
51.94000 2.388
51.96000 4.822
51.98000 3.598
52.00000 2.243
52.02000 7.118
52.04000 5.744
52.06000 7.448
52.08000 5.774
52.10000 3.455
52.12000 1.978
52.14000 0.155
52.16000 -2.564
52.18000 -0.176
52.20000 1.702
52.22000 4.936
52.24000 4.426
52.26000 0.474
52.28000 0.355
52.30000 -0.246
52.32000 3.198
52.34000 2.170
52.36000 3.382
52.38000 10.205
52.40000 5.934
52.42000 4.380
52.44000 1.382
52.46000 0.595
52.48000 0.788
52.50000 5.017
52.52000 4.754
52.54000 3.485
52.56000 3.696
52.58000 3.094
52.60000 2.044
52.62000 0.938
52.64000 2.126
52.66000 -1.934
52.68000 0.167
52.70000 0.284
52.72000 3.124
52.74000 4.873
52.76000 0.977
52.78000 -1.090
52.80000 1.949
52.82000 2.893
52.84000 2.233
52.86000 1.945
52.88000 5.318
52.90000 4.463
52.92000 2.503
52.94000 1.281
52.96000 1.456
52.98000 -0.058
53.00000 0.316
53.02000 -0.817
53.04000 -2.536
53.06000 3.197
53.08000 1.931
53.10000 -0.470
53.12000 -2.536
53.14000 2.333
53.16000 -1.057
53.18000 0.145
53.20000 -0.245
53.22000 3.562
53.24000 5.360
53.26000 2.342
53.28000 2.726
53.30000 5.200
53.32000 1.844
53.34000 4.617
53.36000 5.169
53.38000 4.219
53.40000 4.306
53.42000 3.532
53.44000 0.861
53.46000 -0.240
53.48000 1.910
53.50000 3.402
53.52000 3.968
53.54000 7.264
53.56000 3.359
53.58000 -1.331
53.60000 1.299
53.62000 -0.049
53.64000 -0.007
53.66000 2.058
53.68000 -0.942
53.70000 -1.799
53.72000 -0.711
53.74000 2.055
53.76000 4.868
53.78000 4.934
53.80000 3.756
53.82000 2.503
53.84000 3.588
53.86000 2.812
53.88000 3.389
53.90000 2.871
53.92000 0.660
53.94000 0.465
53.96000 -0.006
53.98000 -0.764
54.00000 -0.084
54.02000 -0.270
54.04000 1.380
54.06000 -0.528
54.08000 -0.456
54.10000 -0.671
54.12000 0.514
54.14000 -1.292
54.16000 -1.668
54.18000 0.092
54.20000 3.594
54.22000 4.990
54.24000 4.588
54.26000 3.477
54.28000 4.604
54.30000 0.847
54.32000 1.584
54.34000 -2.517
54.36000 0.609
54.38000 0.954
54.40000 1.505
54.42000 3.396
54.44000 3.126
54.46000 3.330
54.48000 3.547
54.50000 3.764
54.52000 3.913
54.54000 -0.208
54.56000 3.454
54.58000 -0.751
54.60000 -0.543
54.62000 -0.758
54.64000 3.607
54.66000 -0.316
54.68000 0.014
54.70000 -1.358
54.72000 -0.786
54.74000 -0.263
54.76000 -2.134
54.78000 0.016
54.80000 3.692
54.82000 2.591
54.84000 0.424
54.86000 -0.459
54.88000 2.459
54.90000 3.444
54.92000 -1.923
54.94000 1.135
54.96000 5.376
54.98000 5.844
55.00000 1.247
55.02000 1.915
55.04000 -0.637
55.06000 -1.260
55.08000 -0.550
55.10000 1.458
55.12000 6.788
55.14000 5.935
55.16000 5.992
55.18000 -0.179
55.20000 -0.794
55.22000 2.664
55.24000 2.112
55.26000 -0.810
55.28000 0.383
55.30000 -1.004
55.32000 2.388
55.34000 -0.222
55.36000 -0.242
55.38000 0.831
55.40000 4.212
55.42000 5.639
55.44000 4.505
55.46000 2.569
55.48000 -1.934
55.50000 2.281
55.52000 0.069
55.54000 1.575
55.56000 -2.410
55.58000 -2.339
55.60000 -0.493
55.62000 -1.472
55.64000 1.482
55.66000 3.769
55.68000 1.822
55.70000 1.671
55.72000 5.295
55.74000 5.278
55.76000 2.825
55.78000 5.424
55.80000 5.618
55.82000 0.567
55.84000 -0.402
55.86000 -0.740
55.88000 -1.600
55.90000 -2.484
55.92000 -0.675
55.94000 3.492
55.96000 8.968
55.98000 4.583
56.00000 0.477
56.02000 0.719
56.04000 3.050
56.06000 4.675
56.08000 0.285
56.10000 1.312
56.12000 2.098
56.14000 6.758
56.16000 3.090
56.18000 5.336
56.20000 5.440
56.22000 -0.201
56.24000 2.725
56.26000 4.971
56.28000 3.156
56.30000 2.099
56.32000 2.575
56.34000 2.186
56.36000 0.491
56.38000 2.742
56.40000 4.448
56.42000 4.158
56.44000 3.954
56.46000 3.018
56.48000 -0.506
56.50000 0.174
56.52000 0.435
56.54000 2.034
56.56000 1.293
56.58000 1.133
56.60000 2.369
56.62000 0.575
56.64000 0.770
56.66000 3.607
56.68000 3.770
56.70000 2.448
56.72000 6.047
56.74000 1.339
56.76000 2.987
56.78000 3.943
56.80000 2.934
56.82000 2.925
56.84000 3.555
56.86000 1.820
56.88000 2.469
56.90000 -0.794
56.92000 -1.420
56.94000 -2.424
56.96000 1.204
56.98000 0.420
57.00000 3.715
57.02000 3.718
57.04000 7.081
57.06000 6.565
57.08000 4.722
57.10000 4.933
57.12000 3.363
57.14000 2.819
57.16000 0.308
57.18000 -1.420
57.20000 1.531
57.22000 2.610
57.24000 4.321
57.26000 3.728
57.28000 0.073
57.30000 -0.277
57.32000 1.100
57.34000 4.129
57.36000 3.639
57.38000 4.668
57.40000 1.054
57.42000 3.384
57.44000 4.845
57.46000 4.476
57.48000 3.324
57.50000 2.868
57.52000 2.179
57.54000 2.989
57.56000 5.080
57.58000 1.754
57.60000 -0.491
57.62000 2.332
57.64000 5.713
57.66000 7.342
57.68000 4.059
57.70000 0.771
57.72000 2.981
57.74000 2.612
57.76000 2.533
57.78000 3.899
57.80000 3.134
57.82000 2.424
57.84000 3.907
57.86000 2.075
57.88000 2.351
57.90000 -1.021
57.92000 -2.400
57.94000 -0.694
57.96000 1.476
57.98000 0.808
58.00000 -0.346
58.02000 2.304
58.04000 3.843
58.06000 8.649
58.08000 2.730
58.10000 2.227
58.12000 4.782
58.14000 1.398
58.16000 -2.396
58.18000 -1.850
58.20000 1.505
58.22000 2.871
58.24000 3.998
58.26000 2.229
58.28000 4.138
58.30000 2.999
58.32000 2.381
58.34000 -2.392
58.36000 -0.005
58.38000 -2.010
58.40000 -0.439
58.42000 1.343
58.44000 2.435
58.46000 -0.632
58.48000 0.325
58.50000 1.071
58.52000 1.290
58.54000 1.718
58.56000 -2.387
58.58000 0.196
58.60000 1.815
58.62000 -0.063
58.64000 0.541
58.66000 0.987
58.68000 5.488
58.70000 3.787
58.72000 3.804
58.74000 1.453
58.76000 -1.083
58.78000 -1.321
58.80000 3.273
58.82000 5.863
58.84000 5.271
58.86000 4.765
58.88000 4.742
58.90000 4.225
58.92000 2.799
58.94000 4.791
58.96000 6.789
58.98000 5.375
59.00000 3.399
59.02000 -0.640
59.04000 -2.386
59.06000 1.198
59.08000 4.224
59.10000 0.847
59.12000 0.927
59.14000 0.136
59.16000 1.692
59.18000 1.431
59.20000 2.631
59.22000 1.568
59.24000 4.887
59.26000 4.157
59.28000 5.240
59.30000 4.186
59.32000 1.618
59.34000 -0.800
59.36000 -0.591
59.38000 1.648
59.40000 3.055
59.42000 4.882
59.44000 1.460
59.46000 -0.283
59.48000 0.780
59.50000 0.627
59.52000 1.907
59.54000 4.630
59.56000 2.722
59.58000 -2.378
59.60000 -0.606
59.62000 2.928
59.64000 5.213
59.66000 3.007
59.68000 3.598
59.70000 3.517
59.72000 1.159
59.74000 1.922
59.76000 0.716
59.78000 2.171
59.80000 3.082
59.82000 2.056
59.84000 3.282
59.86000 3.467
59.88000 1.746
59.90000 -0.042
59.92000 3.857
59.94000 2.155
59.96000 -1.549
59.98000 -2.362
60.00000 1.817
60.02000 2.980
60.04000 2.144
60.06000 -0.929
60.08000 -0.530
60.10000 -0.975
60.12000 3.050
60.14000 0.088
60.16000 -0.419
60.18000 1.855
60.20000 2.264
60.22000 2.125
60.24000 1.418
60.26000 0.172
60.28000 0.585
60.30000 0.572
60.32000 0.698
60.34000 -0.243
60.36000 0.402
60.38000 0.047
60.40000 1.482
60.42000 2.574
60.44000 3.043
60.46000 2.270
60.48000 3.218
60.50000 4.779
60.52000 1.370
60.54000 1.207
60.56000 3.295
60.58000 4.626
60.60000 4.060
60.62000 0.357
60.64000 -1.663
60.66000 -1.250
60.68000 0.912
60.70000 -0.246
60.72000 0.546
60.74000 4.201
60.76000 1.606
60.78000 -0.110
60.80000 2.893
60.82000 2.531
60.84000 2.846
60.86000 2.045
60.88000 0.076
60.90000 0.130
60.92000 -1.543
60.94000 -0.735
60.96000 0.407
60.98000 1.245
61.00000 1.499
61.02000 0.377
61.04000 0.382
61.06000 3.024
61.08000 4.491
61.10000 3.554
61.12000 2.623
61.14000 -1.646
61.16000 -0.067
61.18000 -2.336
61.20000 -1.662
61.22000 0.010
61.24000 1.285
61.26000 -1.416
61.28000 -1.442
61.30000 1.436
61.32000 1.103
61.34000 2.405
61.36000 3.299
61.38000 4.989
61.40000 2.320
61.42000 2.393
61.44000 0.960
61.46000 2.716
61.48000 0.189
61.50000 -0.645
61.52000 -2.334
61.54000 -2.202
61.56000 -0.832
61.58000 -0.104
61.60000 2.348
61.62000 -0.353
61.64000 -0.039
61.66000 -2.192
61.68000 2.566
61.70000 3.898
61.72000 4.265
61.74000 3.102
61.76000 0.937
61.78000 4.512
61.80000 4.199
61.82000 2.295
61.84000 1.666
61.86000 1.806
61.88000 4.018
61.90000 3.320
61.92000 2.841
61.94000 0.660
61.96000 3.775
61.98000 3.872
62.00000 0.596
62.02000 0.546
62.04000 0.515
62.06000 4.516
62.08000 1.873
62.10000 0.151
62.12000 0.958
62.14000 -2.311
62.16000 0.699
62.18000 0.849
62.20000 0.665
62.22000 3.372
62.24000 2.738
62.26000 0.862
62.28000 1.842
62.30000 2.435
62.32000 3.130
62.34000 5.795
62.36000 1.252
62.38000 -0.411
62.40000 0.843
62.42000 -0.477
62.44000 -0.599
62.46000 0.067
62.48000 0.959
62.50000 1.994
62.52000 -1.496
62.54000 -0.330
62.56000 2.157
62.58000 1.767
62.60000 0.731
62.62000 3.325
62.64000 3.563
62.66000 -0.593
62.68000 0.767
62.70000 1.828
62.72000 -1.713
62.74000 -0.338
62.76000 1.192
62.78000 4.222
62.80000 6.570
62.82000 2.570
62.84000 3.539
62.86000 3.849
62.88000 4.599
62.90000 2.911
62.92000 1.120
62.94000 2.790
62.96000 5.453
62.98000 1.720
63.00000 -1.187
63.02000 -1.178
63.04000 -2.287
63.06000 -0.741
63.08000 1.228
63.10000 -0.983
63.12000 -0.040
63.14000 1.010
63.16000 1.967
63.18000 2.209
63.20000 6.643
63.22000 4.167
63.24000 2.073
63.26000 1.963
63.28000 1.400
63.30000 2.248
63.32000 4.655
63.34000 3.501
63.36000 2.551
63.38000 -0.860
63.40000 -0.824
63.42000 -0.260
63.44000 -1.424
63.46000 -0.882
63.48000 2.341
63.50000 4.843
63.52000 6.905
63.54000 2.686
63.56000 2.019
63.58000 2.255
63.60000 0.981
63.62000 -0.498
63.64000 0.629
63.66000 3.259
63.68000 4.405
63.70000 3.177
63.72000 2.216
63.74000 1.084
63.76000 -0.641
63.78000 1.278
63.80000 1.748
63.82000 -0.057
63.84000 4.590
63.86000 2.425
63.88000 1.695
63.90000 1.086
63.92000 1.484
63.94000 2.449
63.96000 2.151
63.98000 -0.230
64.00000 1.054
64.02000 -2.315
64.04000 -0.789
64.06000 3.980
64.08000 2.518
64.10000 0.187
64.12000 4.204
64.14000 3.990
64.16000 3.095
64.18000 0.904
64.20000 1.494
64.22000 1.114
64.24000 3.050
64.26000 1.654
64.28000 3.776
64.30000 1.498
64.32000 1.611
64.34000 1.961
64.36000 -0.081
64.38000 -2.314
64.40000 -0.297
64.42000 1.946
64.44000 1.210
64.46000 2.489
64.48000 0.277
64.50000 0.069
64.52000 2.654
64.54000 3.435
64.56000 -1.589
64.58000 1.352
64.60000 0.999
64.62000 1.988
64.64000 0.714
64.66000 0.628
64.68000 0.521
64.70000 -0.521
64.72000 2.250
64.74000 1.235
64.76000 0.504
64.78000 0.241
64.80000 -0.158
64.82000 -1.142
64.84000 2.762
64.86000 0.705
64.88000 2.343
64.90000 4.468
64.92000 1.734
64.94000 -0.695
64.96000 3.621
64.98000 1.795
65.00000 1.435
65.02000 3.785
65.04000 1.867
65.06000 1.636
65.08000 -1.102
65.10000 -0.992
65.12000 0.557
65.14000 1.928
65.16000 1.429
65.18000 1.228
65.20000 2.137
65.22000 0.582
65.24000 -0.344
65.26000 -0.465
65.28000 1.331
65.30000 1.307
65.32000 3.760
65.34000 3.053
65.36000 1.163
65.38000 2.530
65.40000 1.478
65.42000 1.937
65.44000 3.133
65.46000 2.919
65.48000 4.114
65.50000 4.848
65.52000 1.828
65.54000 0.548
65.56000 4.046
65.58000 4.034
65.60000 3.810
65.62000 3.341
65.64000 1.198
65.66000 0.555
65.68000 1.935
65.70000 0.460
65.72000 2.120
65.74000 4.586
65.76000 2.022
65.78000 1.208
65.80000 5.129
65.82000 5.788
65.84000 3.884
65.86000 -2.314
65.88000 0.193
65.90000 2.729
65.92000 2.730
65.94000 1.098
65.96000 0.663
65.98000 3.862
66.00000 4.823
66.02000 2.510
66.04000 1.837
66.06000 2.963
66.08000 5.484
66.10000 1.444
66.12000 1.377
66.14000 2.214
66.16000 2.128
66.18000 0.611
66.20000 0.555
66.22000 0.746
66.24000 3.605
66.26000 4.020
66.28000 1.064
66.30000 0.194
66.32000 -0.286
66.34000 3.045
66.36000 3.840
66.38000 1.725
66.40000 2.329
66.42000 2.559
66.44000 1.546
66.46000 0.962
66.48000 -0.041
66.50000 0.569
66.52000 0.535
66.54000 3.196
66.56000 5.289
66.58000 5.077
66.60000 4.668
66.62000 6.589
66.64000 4.281
66.66000 6.684
66.68000 5.128
66.70000 4.456
66.72000 8.108
66.74000 5.493
66.76000 5.835
66.78000 8.311
66.80000 10.454
66.82000 9.214
66.84000 8.115
66.86000 8.342
66.88000 8.385
66.90000 6.588
66.92000 6.182
66.94000 5.255
66.96000 4.989
66.98000 6.131
67.00000 8.803
67.02000 11.527
67.04000 10.880
67.06000 8.276
67.08000 9.648
67.10000 11.237
67.12000 9.174
67.14000 7.967
67.16000 8.827
67.18000 12.025
67.20000 15.074
67.22000 11.854
67.24000 7.319
67.26000 11.978
67.28000 13.490
67.30000 17.298
67.32000 14.626
67.34000 12.126
67.36000 14.716
67.38000 13.328
67.40000 12.641
67.42000 12.288
67.44000 11.103
67.46000 16.439
67.48000 17.141
67.50000 13.570
67.52000 13.453
67.54000 15.048
67.56000 15.514
67.58000 16.229
67.60000 13.376
67.62000 15.163
67.64000 15.393
67.66000 13.871
67.68000 15.065
67.70000 15.375
67.72000 16.649
67.74000 11.947
67.76000 12.050
67.78000 15.920
67.80000 15.006
67.82000 13.681
67.84000 14.918
67.86000 13.928
67.88000 15.337
67.90000 12.425
67.92000 13.929
67.94000 14.278
67.96000 12.915
67.98000 10.395
68.00000 8.549
68.02000 11.045
68.04000 12.316
68.06000 12.288
68.08000 10.287
68.10000 7.780
68.12000 5.071
68.14000 7.217
68.16000 6.708
68.18000 4.807
68.20000 5.226
68.22000 7.864
68.24000 6.629
68.26000 3.709
68.28000 6.519
68.30000 5.960
68.32000 6.721
68.34000 5.860
68.36000 5.422
68.38000 2.967
68.40000 3.412
68.42000 4.140
68.44000 4.322
68.46000 4.909
68.48000 6.831
68.50000 4.497
68.52000 3.171
68.54000 0.813
68.56000 0.629
68.58000 0.559
68.60000 -0.268
68.62000 -0.161
68.64000 1.463
68.66000 -0.882
68.68000 1.232
68.70000 1.624
68.72000 2.460
68.74000 1.514
68.76000 -0.008
68.78000 2.734
68.80000 -0.094
68.82000 -0.026
68.84000 -0.376
68.86000 0.904
68.88000 -0.757
68.90000 -1.738
68.92000 0.490
68.94000 1.320
68.96000 1.080
68.98000 1.713
69.00000 1.798
69.02000 -0.872
69.04000 0.647
69.06000 -1.963
69.08000 0.572
69.10000 -2.300
69.12000 -1.810
69.14000 2.329
69.16000 1.084
69.18000 -0.569
69.20000 -0.234
69.22000 -0.695
69.24000 0.001
69.26000 2.543
69.28000 -0.861
69.30000 -0.197
69.32000 1.854
69.34000 2.022
69.36000 0.645
69.38000 -0.537
69.40000 0.333
69.42000 0.831
69.44000 1.041
69.46000 2.485
69.48000 0.598
69.50000 -2.268
69.52000 -0.313
69.54000 1.688
69.56000 1.957
69.58000 2.643
69.60000 1.584
69.62000 3.104
69.64000 5.724
69.66000 4.813
69.68000 2.329
69.70000 3.120
69.72000 6.089
69.74000 2.790
69.76000 0.979
69.78000 -0.668
69.80000 0.959
69.82000 1.730
69.84000 3.036
69.86000 5.257
69.88000 0.630
69.90000 -2.229
69.92000 0.723
69.94000 3.617
69.96000 3.350
69.98000 -0.034
70.00000 2.569
70.02000 2.409
70.04000 0.658
70.06000 1.898
70.08000 1.542
70.10000 1.330
70.12000 0.686
70.14000 1.011
70.16000 2.670
70.18000 1.871
70.20000 -0.798
70.22000 2.023
70.24000 0.993
70.26000 0.583
70.28000 -0.038
70.30000 2.449
70.32000 3.973
70.34000 1.829
70.36000 -0.004
70.38000 1.129
70.40000 1.392
70.42000 0.217
70.44000 -0.658
70.46000 1.686
70.48000 3.897
70.50000 3.800
70.52000 1.746
70.54000 2.491
70.56000 0.630
70.58000 0.531
70.60000 -1.020
70.62000 0.911
70.64000 -2.196
70.66000 2.267
70.68000 2.861
70.70000 5.058
70.72000 6.678
70.74000 3.753
70.76000 5.450
70.78000 1.447
70.80000 3.084
70.82000 1.199
70.84000 -1.577
70.86000 -0.501
70.88000 3.096
70.90000 -2.194
70.92000 0.224
70.94000 2.256
70.96000 3.163
70.98000 3.699
71.00000 3.991
71.02000 -0.801
71.04000 3.032
71.06000 3.318
71.08000 2.060
71.10000 4.140
71.12000 1.372
71.14000 2.475
71.16000 6.115
71.18000 2.016
71.20000 0.445
71.22000 1.983
71.24000 0.677
71.26000 -0.218
71.28000 -0.765
71.30000 1.278
71.32000 2.717
71.34000 2.034
71.36000 4.440
71.38000 2.780
71.40000 3.461
71.42000 2.169
71.44000 2.363
71.46000 4.006
71.48000 1.298
71.50000 1.862
71.52000 2.081
71.54000 2.490
71.56000 4.287
71.58000 6.198
71.60000 5.081
71.62000 4.596
71.64000 1.087
71.66000 2.543
71.68000 1.111
71.70000 4.941
71.72000 0.678
71.74000 -0.705
71.76000 3.525
71.78000 5.670
71.80000 5.336
71.82000 1.893
71.84000 3.918
71.86000 4.419
71.88000 3.167
71.90000 1.863
71.92000 4.011
71.94000 4.420
71.96000 3.041
71.98000 1.039
72.00000 2.055
72.02000 2.751
72.04000 -0.276
72.06000 0.084
72.08000 3.886
72.10000 4.307
72.12000 4.038
72.14000 2.741
72.16000 5.843
72.18000 2.842
72.20000 2.471
72.22000 3.208
72.24000 -2.123
72.26000 2.116
72.28000 5.548
72.30000 6.308
72.32000 2.947
72.34000 2.250
72.36000 4.971
72.38000 8.010
72.40000 5.788
72.42000 8.661
72.44000 3.376
72.46000 2.152
72.48000 5.935
72.50000 2.469
72.52000 1.959
72.54000 5.718
72.56000 -0.310
72.58000 -0.035
72.60000 -0.779
72.62000 0.549
72.64000 1.667
72.66000 3.868
72.68000 5.077
72.70000 6.648
72.72000 5.907
72.74000 4.955
72.76000 2.083
72.78000 0.474
72.80000 -1.140
72.82000 2.933
72.84000 2.203
72.86000 2.460
72.88000 0.665
72.90000 1.212
72.92000 3.191
72.94000 3.815
72.96000 4.704
72.98000 3.961
73.00000 2.813
73.02000 3.142
73.04000 2.868
73.06000 2.953
73.08000 2.209
73.10000 3.598
73.12000 3.307
73.14000 4.734
73.16000 2.600
73.18000 1.298
73.20000 2.013
73.22000 0.344
73.24000 3.176
73.26000 3.001
73.28000 -0.059
73.30000 0.404
73.32000 1.205
73.34000 0.255
73.36000 1.718
73.38000 1.411
73.40000 -0.930
73.42000 -2.145
73.44000 -0.309
73.46000 0.507
73.48000 0.487
73.50000 3.263
73.52000 4.172
73.54000 -1.278
73.56000 -1.123
73.58000 0.779
73.60000 -0.942
73.62000 1.549
73.64000 1.453
73.66000 -2.111
73.68000 -0.919
73.70000 0.488
73.72000 -0.187
73.74000 1.866
73.76000 2.782
73.78000 0.923
73.80000 2.493
73.82000 3.772
73.84000 0.668
73.86000 -1.285
73.88000 -2.141
73.90000 1.398
73.92000 4.600
73.94000 2.436
73.96000 -0.815
73.98000 -0.690
74.00000 1.136
74.02000 0.581
74.04000 1.026
74.06000 1.641
74.08000 2.511
74.10000 1.764
74.12000 4.503
74.14000 5.358
74.16000 1.202
74.18000 -2.036
74.20000 -1.968
74.22000 -2.151
74.24000 -1.942
74.26000 2.175
74.28000 5.745
74.30000 5.340
74.32000 4.626
74.34000 2.059
74.36000 -0.702
74.38000 0.760
74.40000 -0.429
74.42000 -1.007
74.44000 -0.856
74.46000 0.962
74.48000 1.386
74.50000 -0.363
74.52000 -0.236
74.54000 1.086
74.56000 3.077
74.58000 0.832
74.60000 -0.889
74.62000 1.513
74.64000 1.491
74.66000 1.260
74.68000 2.603
74.70000 1.767
74.72000 2.170
74.74000 5.275
74.76000 3.059
74.78000 2.314
74.80000 -0.073
74.82000 -2.136
74.84000 -1.312
74.86000 2.171
74.88000 3.183
74.90000 6.239
74.92000 4.404
74.94000 0.953
74.96000 0.693
74.98000 0.039
75.00000 -0.041
75.02000 1.441
75.04000 0.365
75.06000 0.946
75.08000 1.325
75.10000 1.018
75.12000 0.461
75.14000 2.374
75.16000 3.357
75.18000 4.724
75.20000 6.796
75.22000 6.286
75.24000 3.203
75.26000 0.417
75.28000 1.475
75.30000 1.650
75.32000 2.006
75.34000 2.101
75.36000 3.413
75.38000 3.412
75.40000 5.909
75.42000 6.008
75.44000 2.736
75.46000 0.947
75.48000 3.097
75.50000 6.010
75.52000 7.919
75.54000 4.013
75.56000 3.079
75.58000 0.217
75.60000 -0.434
75.62000 1.246
75.64000 1.473
75.66000 3.178
75.68000 4.409
75.70000 5.450
75.72000 6.218
75.74000 2.936
75.76000 -0.620
75.78000 -2.139
75.80000 -1.885
75.82000 -0.981
75.84000 3.588
75.86000 4.252
75.88000 4.814
75.90000 1.982
75.92000 4.348
75.94000 4.067
75.96000 3.369
75.98000 3.455
76.00000 -0.545
76.02000 0.803
76.04000 2.563
76.06000 1.204
76.08000 3.627
76.10000 3.867
76.12000 3.282
76.14000 3.068
76.16000 -1.002
76.18000 -0.607
76.20000 1.691
76.22000 4.551
76.24000 1.567
76.26000 0.019
76.28000 0.317
76.30000 3.529
76.32000 -1.262
76.34000 -0.720
76.36000 2.633
76.38000 0.649
76.40000 -0.956
76.42000 0.624
76.44000 -0.822
76.46000 0.959
76.48000 0.443
76.50000 2.322
76.52000 0.145
76.54000 1.459
76.56000 2.074
76.58000 0.321
76.60000 -0.686
76.62000 -0.070
76.64000 0.680
76.66000 2.310
76.68000 2.023
76.70000 -1.311
76.72000 -2.101
76.74000 -2.176
76.76000 -0.257
76.78000 1.093
76.80000 1.255
76.82000 1.713
76.84000 4.056
76.86000 0.229
76.88000 -0.136
76.90000 2.639
76.92000 -0.217
76.94000 -1.824
76.96000 1.499
76.98000 4.046
77.00000 6.744
77.02000 8.181
77.04000 4.197
77.06000 1.071
77.08000 -0.071
77.10000 0.714
77.12000 0.098
77.14000 2.179
77.16000 2.929
77.18000 1.830
77.20000 -0.413
77.22000 -2.189
77.24000 -1.299
77.26000 1.662
77.28000 3.807
77.30000 3.170
77.32000 6.772
77.34000 2.283
77.36000 1.597
77.38000 0.880
77.40000 1.202
77.42000 3.474
77.44000 4.352
77.46000 9.354
77.48000 3.336
77.50000 3.548
77.52000 2.815
77.54000 2.577
77.56000 0.901
77.58000 0.375
77.60000 2.454
77.62000 1.117
77.64000 2.986
77.66000 3.784
77.68000 2.967
77.70000 -0.101
77.72000 0.713
77.74000 5.992
77.76000 5.949
77.78000 -0.300
77.80000 -0.440
77.82000 1.558
77.84000 0.392
77.86000 -2.016
77.88000 -0.293
77.90000 0.249
77.92000 -0.278
77.94000 4.475
77.96000 3.717
77.98000 2.352
78.00000 0.054
78.02000 3.305
78.04000 5.169
78.06000 0.562
78.08000 -1.894
78.10000 0.233
78.12000 4.364
78.14000 3.680
78.16000 3.390
78.18000 3.917
78.20000 1.245
78.22000 -0.593
78.24000 -2.194
78.26000 2.421
78.28000 4.328
78.30000 2.064
78.32000 -0.817
78.34000 -1.512
78.36000 1.881
78.38000 7.887
78.40000 6.679
78.42000 5.849
78.44000 -1.332
78.46000 5.171
78.48000 4.075
78.50000 5.209
78.52000 5.318
78.54000 4.931
78.56000 5.972
78.58000 6.280
78.60000 2.583
78.62000 3.208
78.64000 1.513
78.66000 3.842
78.68000 0.699
78.70000 -2.171
78.72000 3.518
78.74000 5.593
78.76000 4.620
78.78000 2.559
78.80000 2.304
78.82000 6.116
78.84000 5.966
78.86000 7.429
78.88000 2.874
78.90000 8.532
78.92000 9.404
78.94000 4.001
78.96000 3.540
78.98000 4.788
79.00000 3.001
79.02000 2.644
79.04000 3.001
79.06000 -1.783
79.08000 1.849
79.10000 0.771
79.12000 0.489
79.14000 1.591
79.16000 0.098
79.18000 -1.903
79.20000 2.200
79.22000 6.801
79.24000 7.275
79.26000 2.038
79.28000 0.299
79.30000 0.101
79.32000 0.256
79.34000 0.118
79.36000 0.478
79.38000 2.736
79.40000 3.673
79.42000 2.494
79.44000 0.874
79.46000 0.548
79.48000 2.666
79.50000 -0.086
79.52000 3.021
79.54000 3.042
79.56000 3.700
79.58000 0.596
79.60000 0.544
79.62000 5.436
79.64000 4.699
79.66000 -0.725
79.68000 -1.403
79.70000 2.410
79.72000 -0.037
79.74000 1.134
79.76000 0.904
79.78000 -0.732
79.80000 0.764
79.82000 0.664
79.84000 0.057
79.86000 -2.305
79.88000 -0.276
79.90000 4.392
79.92000 5.018
79.94000 2.336
79.96000 2.326
79.98000 -1.362
80.00000 1.332
80.02000 4.603
80.04000 3.978
80.06000 5.926
80.08000 7.295
80.10000 6.655
80.12000 6.066
80.14000 6.596
80.16000 5.570
80.18000 5.095
80.20000 6.544
80.22000 5.528
80.24000 3.739
80.26000 2.686
80.28000 7.467
80.30000 7.454
80.32000 5.136
80.34000 6.012
80.36000 2.713
80.38000 2.559
80.40000 3.342
80.42000 3.234
80.44000 2.579
80.46000 6.516
80.48000 9.392
80.50000 8.119
80.52000 8.332
80.54000 7.365
80.56000 7.671
80.58000 7.644
80.60000 9.124
80.62000 5.129
80.64000 7.372
80.66000 8.890
80.68000 11.180
80.70000 10.862
80.72000 11.464
80.74000 11.144
80.76000 14.327
80.78000 10.566
80.80000 13.058
80.82000 15.723
80.84000 12.239
80.86000 12.744
80.88000 12.077
80.90000 14.034
80.92000 14.615
80.94000 13.980
80.96000 15.548
80.98000 15.875
81.00000 14.378
81.02000 13.120
81.04000 13.863
81.06000 14.050
81.08000 16.560
81.10000 14.021
81.12000 19.341
81.14000 19.371
81.16000 17.266
81.18000 16.371
81.20000 18.264
81.22000 15.407
81.24000 19.614
81.26000 22.893
81.28000 21.157
81.30000 21.547
81.32000 27.736
81.34000 20.199
81.36000 21.046
81.38000 18.194
81.40000 16.813
81.42000 19.157
81.44000 21.625
81.46000 23.629
81.48000 25.546
81.50000 26.822
81.52000 22.116
81.54000 21.503
81.56000 23.066
81.58000 23.937
81.60000 20.139
81.62000 22.222
81.64000 25.082
81.66000 25.756
81.68000 24.601
81.70000 22.736
81.72000 27.746
81.74000 28.256
81.76000 26.408
81.78000 23.323
81.80000 23.944
81.82000 24.244
81.84000 22.765
81.86000 17.364
81.88000 17.502
81.90000 20.523
81.92000 18.820
81.94000 18.891
81.96000 17.481
81.98000 17.905
82.00000 14.533
82.02000 9.801
82.04000 13.351
82.06000 15.195
82.08000 15.694
82.10000 11.095
82.12000 11.003
82.14000 12.122
82.16000 14.859
82.18000 15.162
82.20000 11.663
82.22000 7.745
82.24000 8.487
82.26000 8.329
82.28000 8.441
82.30000 6.998
82.32000 8.143
82.34000 7.131
82.36000 7.007
82.38000 9.171
82.40000 6.428
82.42000 5.978
82.44000 2.225
82.46000 7.669
82.48000 7.282
82.50000 3.635
82.52000 4.741
82.54000 3.701
82.56000 6.961
82.58000 10.759
82.60000 7.317
82.62000 8.225
82.64000 7.983
82.66000 3.863
82.68000 -0.079
82.70000 5.637
82.72000 3.002
82.74000 1.176
82.76000 2.142
82.78000 1.133
82.80000 -1.634
82.82000 -0.466
82.84000 -1.447
82.86000 -1.945
82.88000 2.534
82.90000 6.440
82.92000 5.113
82.94000 0.715
82.96000 -1.302
82.98000 1.083
83.00000 -0.239
83.02000 2.111
83.04000 0.921
83.06000 -2.023
83.08000 -2.361
83.10000 -1.947
83.12000 3.486
83.14000 5.557
83.16000 5.410
83.18000 0.165
83.20000 -1.816
83.22000 -0.494
83.24000 4.798
83.26000 4.167
83.28000 -1.140
83.30000 2.827
83.32000 3.411
83.34000 -0.116
83.36000 -0.138
83.38000 1.803
83.40000 -0.324
83.42000 2.522
83.44000 3.420
83.46000 1.893
83.48000 2.051
83.50000 1.052
83.52000 3.774
83.54000 0.506
83.56000 -0.029
83.58000 -0.622
83.60000 -2.317
83.62000 3.248
83.64000 3.032
83.66000 3.255
83.68000 0.451
83.70000 -1.822
83.72000 -0.252
83.74000 2.162
83.76000 2.828
83.78000 -2.304
83.80000 0.139
83.82000 -1.788
83.84000 -1.119
83.86000 2.000
83.88000 -0.403
83.90000 0.350
83.92000 0.166
83.94000 0.406
83.96000 2.329
83.98000 4.385
84.00000 4.094
84.02000 2.211
84.04000 7.414
84.06000 1.907
84.08000 3.140
84.10000 4.752
84.12000 4.424
84.14000 1.644
84.16000 6.802
84.18000 4.653
84.20000 4.090
84.22000 2.526
84.24000 4.435
84.26000 1.777
84.28000 -1.369
84.30000 -2.314
84.32000 -0.063
84.34000 3.855
84.36000 1.737
84.38000 4.030
84.40000 4.269
84.42000 5.264
84.44000 5.554
84.46000 5.234
84.48000 1.659
84.50000 3.305
84.52000 1.921
84.54000 2.026
84.56000 8.813
84.58000 7.203
84.60000 5.088
84.62000 4.564
84.64000 6.958
84.66000 7.014
84.68000 5.365
84.70000 4.407
84.72000 7.490
84.74000 8.672
84.76000 9.617
84.78000 11.281
84.80000 8.848
84.82000 8.277
84.84000 8.123
84.86000 11.783
84.88000 12.022
84.90000 8.058
84.92000 7.703
84.94000 14.112
84.96000 13.145
84.98000 6.710
85.00000 10.112
85.02000 10.865
85.04000 9.222
85.06000 12.581
85.08000 17.797
85.10000 17.684
85.12000 13.447
85.14000 15.207
85.16000 14.598
85.18000 16.764
85.20000 16.939
85.22000 16.161
85.24000 19.683
85.26000 18.860
85.28000 17.221
85.30000 16.025
85.32000 17.173
85.34000 20.430
85.36000 21.404
85.38000 19.958
85.40000 19.486
85.42000 14.410
85.44000 16.748
85.46000 21.502
85.48000 19.572
85.50000 19.082
85.52000 20.566
85.54000 23.349
85.56000 25.193
85.58000 24.503
85.60000 21.011
85.62000 18.961
85.64000 23.420
85.66000 20.142
85.68000 17.085
85.70000 17.560
85.72000 22.035
85.74000 24.750
85.76000 23.776
85.78000 21.247
85.80000 21.163
85.82000 22.621
85.84000 22.250
85.86000 21.978
85.88000 23.619
85.90000 20.275
85.92000 21.667
85.94000 22.282
85.96000 18.457
85.98000 16.066
86.00000 8.320
86.02000 10.831
86.04000 13.875
86.06000 12.096
86.08000 19.007
86.10000 14.944
86.12000 11.332
86.14000 10.539
86.16000 15.147
86.18000 11.847
86.20000 10.692
86.22000 11.264
86.24000 12.650
86.26000 13.602
86.28000 13.092
86.30000 8.782
86.32000 8.099
86.34000 9.312
86.36000 11.522
86.38000 11.541
86.40000 10.742
86.42000 10.950
86.44000 9.410
86.46000 7.862
86.48000 5.605
86.50000 7.474
86.52000 8.003
86.54000 7.440
86.56000 7.859
86.58000 3.765
86.60000 2.958
86.62000 -0.947
86.64000 -0.530
86.66000 1.404
86.68000 7.174
86.70000 5.065
86.72000 2.700
86.74000 1.320
86.76000 1.777
86.78000 4.714
86.80000 4.954
86.82000 3.541
86.84000 1.124
86.86000 3.863
86.88000 3.352
86.90000 0.277
86.92000 3.417
86.94000 0.773
86.96000 0.442
86.98000 0.139
87.00000 3.569
87.02000 5.947
87.04000 4.137
87.06000 0.764
87.08000 6.125
87.10000 6.397
87.12000 3.165
87.14000 4.375
87.16000 4.824
87.18000 1.160
87.20000 0.708
87.22000 4.793
87.24000 5.234
87.26000 3.742
87.28000 1.570
87.30000 -2.107
87.32000 3.958
87.34000 4.903
87.36000 1.355
87.38000 0.347
87.40000 -1.715
87.42000 -1.605
87.44000 1.127
87.46000 0.225
87.48000 3.499
87.50000 2.143
87.52000 3.754
87.54000 2.076
87.56000 1.037
87.58000 0.448
87.60000 -0.311
87.62000 -0.114
87.64000 4.650
87.66000 5.822
87.68000 2.603
87.70000 0.703
87.72000 2.865
87.74000 3.572
87.76000 2.531
87.78000 4.176
87.80000 3.726
87.82000 2.621
87.84000 2.873
87.86000 3.412
87.88000 -0.603
87.90000 1.794
87.92000 6.023
87.94000 6.457
87.96000 1.216
87.98000 2.954
88.00000 -2.017
88.02000 0.740
88.04000 3.216
88.06000 2.635
88.08000 1.435
88.10000 1.806
88.12000 3.324
88.14000 0.688
88.16000 -1.208
88.18000 0.448
88.20000 3.616
88.22000 5.380
88.24000 5.841
88.26000 4.049
88.28000 -0.694
88.30000 0.021
88.32000 2.042
88.34000 3.544
88.36000 2.014
88.38000 1.263
88.40000 4.324
88.42000 3.937
88.44000 -1.416
88.46000 -0.347
88.48000 1.169
88.50000 1.129
88.52000 0.165
88.54000 2.073
88.56000 1.965
88.58000 4.738
88.60000 6.822
88.62000 3.241
88.64000 2.976
88.66000 1.499
88.68000 1.451
88.70000 0.653
88.72000 2.530
88.74000 1.825
88.76000 0.063
88.78000 0.228
88.80000 3.609
88.82000 1.893
88.84000 -0.219
88.86000 -1.676
88.88000 2.022
88.90000 1.779
88.92000 -0.478
88.94000 -1.599
88.96000 -2.014
88.98000 2.601
89.00000 2.086
89.02000 4.089
89.04000 1.104
89.06000 -0.101
89.08000 3.883
89.10000 4.500
89.12000 4.122
89.14000 4.352
89.16000 -0.217
89.18000 0.756
89.20000 2.333
89.22000 0.079
89.24000 2.329
89.26000 2.692
89.28000 6.398
89.30000 3.620
89.32000 1.311
89.34000 5.081
89.36000 3.908
89.38000 5.703
89.40000 5.829
89.42000 3.760
89.44000 0.055
89.46000 0.241
89.48000 1.811
89.50000 1.307
89.52000 0.969
89.54000 0.885
89.56000 1.836
89.58000 2.302
89.60000 0.982
89.62000 1.188
89.64000 2.611
89.66000 2.731
89.68000 0.562
89.70000 -1.111
89.72000 -1.613
89.74000 -1.995
89.76000 0.296
89.78000 1.319
89.80000 2.116
89.82000 2.531
89.84000 1.460
89.86000 4.388
89.88000 3.387
89.90000 3.969
89.92000 2.829
89.94000 2.709
89.96000 1.638
89.98000 2.482
90.00000 4.656
90.02000 4.437
90.04000 3.248
90.06000 3.360
90.08000 5.264
90.10000 0.764
90.12000 7.024
90.14000 3.264
90.16000 1.532
90.18000 6.355
90.20000 5.352
90.22000 1.867
90.24000 2.028
90.26000 0.107
90.28000 -1.097
90.30000 -0.978
90.32000 -2.001
90.34000 1.971
90.36000 0.579
90.38000 0.010
90.40000 2.523
90.42000 3.410
90.44000 4.711
90.46000 4.531
90.48000 3.128
90.50000 5.446
90.52000 4.155
90.54000 1.659
90.56000 1.357
90.58000 3.380
90.60000 0.962
90.62000 1.231
90.64000 2.522
90.66000 1.349
90.68000 1.676
90.70000 1.561
90.72000 5.280
90.74000 2.347
90.76000 0.517
90.78000 0.468
90.80000 -0.400
90.82000 1.301
90.84000 2.301
90.86000 0.584
90.88000 -1.664
90.90000 -0.322
90.92000 -0.289
90.94000 -2.006
90.96000 -0.196
90.98000 0.698
91.00000 0.500
91.02000 0.411
91.04000 -0.649
91.06000 2.078
91.08000 2.929
91.10000 2.626
91.12000 3.136
91.14000 4.955
91.16000 8.075
91.18000 5.838
91.20000 0.886
91.22000 -0.453
91.24000 0.274
91.26000 1.860
91.28000 2.936
91.30000 4.614
91.32000 4.915
91.34000 3.403
91.36000 3.111
91.38000 2.834
91.40000 2.162
91.42000 -1.228
91.44000 -0.395
91.46000 -2.028
91.48000 -0.720
91.50000 6.592
91.52000 3.980
91.54000 1.521
91.56000 4.280
91.58000 -0.732
91.60000 -2.031
91.62000 -0.200
91.64000 -0.677
91.66000 1.545
91.68000 2.337
91.70000 6.324
91.72000 7.180
91.74000 1.974
91.76000 1.574
91.78000 -1.856
91.80000 2.434
91.82000 1.391
91.84000 0.063
91.86000 -1.144
91.88000 -1.231
91.90000 0.884
91.92000 -1.665
91.94000 1.731
91.96000 0.592
91.98000 2.540
92.00000 2.680
92.02000 0.783
92.04000 1.640
92.06000 3.284
92.08000 5.028
92.10000 0.583
92.12000 -2.040
92.14000 2.207
92.16000 0.455
92.18000 -0.686
92.20000 -1.748
92.22000 -2.024
92.24000 -2.042
92.26000 -1.516
92.28000 0.393
92.30000 2.663
92.32000 -1.080
92.34000 -0.871
92.36000 0.420
92.38000 2.115
92.40000 1.203
92.42000 0.577
92.44000 3.311
92.46000 1.899
92.48000 3.820
92.50000 2.311
92.52000 -0.032
92.54000 -1.120
92.56000 -1.108
92.58000 2.637
92.60000 3.352
92.62000 4.404
92.64000 0.267
92.66000 1.773
92.68000 0.673
92.70000 -1.528
92.72000 -1.407
92.74000 3.210
92.76000 4.776
92.78000 -1.118
92.80000 0.152
92.82000 -0.857
92.84000 0.073
92.86000 0.566
92.88000 2.007
92.90000 0.939
92.92000 -0.033
92.94000 1.401
92.96000 2.349
92.98000 1.716
93.00000 -0.673
93.02000 0.316
93.04000 -0.956
93.06000 -1.368
93.08000 1.094
93.10000 -0.333
93.12000 1.633
93.14000 2.971
93.16000 -1.168
93.18000 -1.513
93.20000 2.398
93.22000 4.484
93.24000 2.120
93.26000 0.664
93.28000 0.781
93.30000 3.185
93.32000 3.473
93.34000 1.500
93.36000 0.061
93.38000 2.449
93.40000 4.483
93.42000 1.613
93.44000 -0.551
93.46000 -0.676
93.48000 -1.497
93.50000 -1.877
93.52000 -0.429
93.54000 2.993
93.56000 5.647
93.58000 5.390
93.60000 3.396
93.62000 1.375
93.64000 2.366
93.66000 1.352
93.68000 2.680
93.70000 1.963
93.72000 3.061
93.74000 1.570
93.76000 -2.018
93.78000 4.186
93.80000 2.108
93.82000 0.997
93.84000 2.311
93.86000 6.576
93.88000 7.401
93.90000 3.712
93.92000 -2.022
93.94000 1.909
93.96000 1.230
93.98000 3.154
94.00000 4.852
94.02000 3.979
94.04000 2.843
94.06000 4.278
94.08000 3.911
94.10000 1.405
94.12000 2.055
94.14000 4.833
94.16000 4.858
94.18000 1.452
94.20000 -1.594
94.22000 -1.317
94.24000 -1.677
94.26000 3.365
94.28000 3.774
94.30000 6.082
94.32000 -1.414
94.34000 0.729
94.36000 2.793
94.38000 2.871
94.40000 3.303
94.42000 2.954
94.44000 3.680
94.46000 3.520
94.48000 2.122
94.50000 -0.137
94.52000 0.678
94.54000 2.886
94.56000 3.061
94.58000 -0.540
94.60000 -0.296
94.62000 1.177
94.64000 0.318
94.66000 -0.840
94.68000 -0.098
94.70000 5.198
94.72000 2.829
94.74000 5.053
94.76000 8.256
94.78000 3.302
94.80000 0.988
94.82000 2.709
94.84000 1.721
94.86000 0.841
94.88000 1.600
94.90000 -1.176
94.92000 -1.071
94.94000 0.577
94.96000 -0.188
94.98000 2.795
95.00000 4.670
95.02000 2.300
95.04000 3.938
95.06000 2.980
95.08000 2.095
95.10000 1.355
95.12000 0.211
95.14000 2.098
95.16000 4.499
95.18000 4.412
95.20000 9.943
95.22000 5.972
95.24000 -0.194
95.26000 1.181
95.28000 3.464
95.30000 6.192
95.32000 1.615
95.34000 -2.062
95.36000 -0.897
95.38000 3.688
95.40000 7.144
95.42000 5.739
95.44000 3.245
95.46000 2.820
95.48000 5.063
95.50000 10.100
95.52000 6.553
95.54000 1.847
95.56000 2.119
95.58000 4.735
95.60000 6.482
95.62000 4.890
95.64000 3.754
95.66000 8.161
95.68000 5.061
95.70000 2.384
95.72000 1.735
95.74000 -0.983
95.76000 3.315
95.78000 0.872
95.80000 6.116
95.82000 5.438
95.84000 4.426
95.86000 5.592
95.88000 3.277
95.90000 6.013
95.92000 4.213
95.94000 -2.043
95.96000 4.792
95.98000 4.874
96.00000 7.756
96.02000 4.020
96.04000 5.625
96.06000 9.218
96.08000 7.867
96.10000 5.978
96.12000 5.203
96.14000 5.360
96.16000 1.849
96.18000 -0.095
96.20000 4.792
96.22000 5.835
96.24000 2.994
96.26000 1.900
96.28000 4.677
96.30000 5.966
96.32000 3.541
96.34000 4.135
96.36000 3.278
96.38000 1.818
96.40000 1.757
96.42000 -1.468
96.44000 -0.707
96.46000 4.792
96.48000 7.014
96.50000 4.483
96.52000 3.162
96.54000 3.041
96.56000 3.600
96.58000 5.512
96.60000 1.377
96.62000 -2.038
96.64000 -0.906
96.66000 7.450
96.68000 8.401
96.70000 4.901
96.72000 6.027
96.74000 2.044
96.76000 3.652
96.78000 5.427
96.80000 -1.214
96.82000 -1.952
96.84000 2.621
96.86000 0.881
96.88000 6.093
96.90000 6.701
96.92000 7.532
96.94000 5.328
96.96000 10.107
96.98000 5.061
97.00000 1.562
97.02000 5.228
97.04000 6.698
97.06000 4.707
97.08000 3.145
97.10000 6.328
97.12000 2.965
97.14000 2.238
97.16000 1.474
97.18000 0.238
97.20000 3.204
97.22000 5.329
97.24000 4.029
97.26000 3.213
97.28000 2.013
97.30000 1.009
97.32000 1.671
97.34000 2.478
97.36000 8.351
97.38000 7.689
97.40000 2.931
97.42000 5.148
97.44000 4.162
97.46000 6.753
97.48000 4.979
97.50000 8.750
97.52000 5.235
97.54000 4.032
97.56000 7.314
97.58000 6.558
97.60000 9.570
97.62000 5.687
97.64000 3.064
97.66000 -1.367
97.68000 3.614
97.70000 11.030
97.72000 6.807
97.74000 6.053
97.76000 1.414
97.78000 1.320
97.80000 -0.892
97.82000 2.967
97.84000 2.687
97.86000 1.870
97.88000 4.708
97.90000 1.174
97.92000 3.876
97.94000 2.980
97.96000 2.053
97.98000 3.691
98.00000 11.245
98.02000 9.918
98.04000 11.969
98.06000 11.253
98.08000 10.078
98.10000 2.529
98.12000 6.910
98.14000 4.710
98.16000 3.164
98.18000 7.728
98.20000 14.032
98.22000 8.671
98.24000 5.334
98.26000 5.675
98.28000 6.702
98.30000 11.706
98.32000 12.088
98.34000 7.742
98.36000 10.585
98.38000 12.007
98.40000 9.784
98.42000 8.106
98.44000 7.692
98.46000 10.162
98.48000 10.763
98.50000 2.214
98.52000 -1.904
98.54000 0.362
98.56000 9.371
98.58000 10.824
98.60000 6.332
98.62000 9.365
98.64000 11.939
98.66000 12.803
98.68000 3.563
98.70000 2.537
98.72000 4.135
98.74000 6.676
98.76000 10.940
98.78000 10.179
98.80000 10.539
98.82000 10.352
98.84000 10.267
98.86000 5.186
98.88000 5.255
98.90000 5.075
98.92000 3.879
98.94000 4.602
98.96000 5.031
98.98000 8.594
99.00000 9.891
99.02000 11.930
99.04000 10.218
99.06000 9.257
99.08000 10.110
99.10000 8.676
99.12000 0.777
99.14000 3.772
99.16000 10.530
99.18000 5.375
99.20000 10.881
99.22000 12.320
99.24000 3.626
99.26000 6.494
99.28000 7.826
99.30000 10.782
99.32000 0.808
99.34000 0.713
99.36000 7.364
99.38000 4.927
99.40000 4.998
99.42000 5.456
99.44000 1.705
99.46000 -1.935
99.48000 1.027
99.50000 4.505
99.52000 10.123
99.54000 8.344
99.56000 7.344
99.58000 3.534
99.60000 3.847
99.62000 11.905
99.64000 0.790
99.66000 2.180
99.68000 3.262
99.70000 1.324
99.72000 8.164
99.74000 2.891
99.76000 1.779
99.78000 5.091
99.80000 16.301
99.82000 12.065
99.84000 2.932
99.86000 2.643
99.88000 -3.387
99.90000 5.702
99.92000 6.144
99.94000 3.901
99.96000 3.735
99.98000 0.000
