'Id: "0011387" Comment: "Integrate frame 0011387_Au-Ir-Rh_Rh-rich_XRD-Mapping-339-0000.gfrmwith cursor Wedge Cursor #5" Operator: "B?rgel" Anode: "Cu" Wavelength: "1.5406" Scantype: "2Theta (TwoTheta)" TimePerStep: "1" X: "4.5" Y: "45" Z: "5.95" 
10.00000 0.000
10.02000 5.374
10.04000 6.868
10.06000 4.119
10.08000 1.433
10.10000 29.937
10.12000 23.579
10.14000 23.502
10.16000 5.765
10.18000 16.095
10.20000 14.316
10.22000 22.824
10.24000 25.392
10.26000 27.548
10.28000 19.586
10.30000 12.639
10.32000 15.437
10.34000 -2.021
10.36000 -4.262
10.38000 17.431
10.40000 21.243
10.42000 26.182
10.44000 23.425
10.46000 12.263
10.48000 21.709
10.50000 20.180
10.52000 25.337
10.54000 26.952
10.56000 33.173
10.58000 29.467
10.60000 25.346
10.62000 18.623
10.64000 27.738
10.66000 15.345
10.68000 20.775
10.70000 34.399
10.72000 16.235
10.74000 7.851
10.76000 15.308
10.78000 22.392
10.80000 17.255
10.82000 10.597
10.84000 17.001
10.86000 18.899
10.88000 16.639
10.90000 15.309
10.92000 17.189
10.94000 22.477
10.96000 24.743
10.98000 16.525
11.00000 14.887
11.02000 12.255
11.04000 23.764
11.06000 25.184
11.08000 29.711
11.10000 18.459
11.12000 19.391
11.14000 20.308
11.16000 26.817
11.18000 17.674
11.20000 17.396
11.22000 23.041
11.24000 16.494
11.26000 30.760
11.28000 26.322
11.30000 13.223
11.32000 6.181
11.34000 1.033
11.36000 4.890
11.38000 29.421
11.40000 31.694
11.42000 31.820
11.44000 23.335
11.46000 15.290
11.48000 24.952
11.50000 24.361
11.52000 20.586
11.54000 19.546
11.56000 35.486
11.58000 34.757
11.60000 33.505
11.62000 28.733
11.64000 18.675
11.66000 30.220
11.68000 28.498
11.70000 25.775
11.72000 20.549
11.74000 19.848
11.76000 11.412
11.78000 15.865
11.80000 28.779
11.82000 24.579
11.84000 15.530
11.86000 13.426
11.88000 14.931
11.90000 16.797
11.92000 20.363
11.94000 15.967
11.96000 13.833
11.98000 9.059
12.00000 11.653
12.02000 15.256
12.04000 18.760
12.06000 16.744
12.08000 24.962
12.10000 28.364
12.12000 24.711
12.14000 16.148
12.16000 18.967
12.18000 21.093
12.20000 16.934
12.22000 15.530
12.24000 9.044
12.26000 16.284
12.28000 25.636
12.30000 23.753
12.32000 13.297
12.34000 11.935
12.36000 13.354
12.38000 3.898
12.40000 10.919
12.42000 8.199
12.44000 11.929
12.46000 25.199
12.48000 24.230
12.50000 15.881
12.52000 21.363
12.54000 26.549
12.56000 16.778
12.58000 18.199
12.60000 8.968
12.62000 4.250
12.64000 13.865
12.66000 10.854
12.68000 7.895
12.70000 6.998
12.72000 15.259
12.74000 13.809
12.76000 10.006
12.78000 18.608
12.80000 24.792
12.82000 24.723
12.84000 21.581
12.86000 10.105
12.88000 8.019
12.90000 16.477
12.92000 16.042
12.94000 12.605
12.96000 13.316
12.98000 18.364
13.00000 21.766
13.02000 13.199
13.04000 9.819
13.06000 15.713
13.08000 16.974
13.10000 16.717
13.12000 17.057
13.14000 15.128
13.16000 11.040
13.18000 8.229
13.20000 2.861
13.22000 10.027
13.24000 8.197
13.26000 6.037
13.28000 11.733
13.30000 12.413
13.32000 9.021
13.34000 6.967
13.36000 7.244
13.38000 13.650
13.40000 15.000
13.42000 19.725
13.44000 16.732
13.46000 5.097
13.48000 9.118
13.50000 8.112
13.52000 7.852
13.54000 5.553
13.56000 6.806
13.58000 7.106
13.60000 12.937
13.62000 25.948
13.64000 16.921
13.66000 19.233
13.68000 15.411
13.70000 11.590
13.72000 9.901
13.74000 4.848
13.76000 10.208
13.78000 13.133
13.80000 11.695
13.82000 12.307
13.84000 11.044
13.86000 6.409
13.88000 3.432
13.90000 3.366
13.92000 18.535
13.94000 18.329
13.96000 14.508
13.98000 12.680
14.00000 18.423
14.02000 13.682
14.04000 4.907
14.06000 8.777
14.08000 7.552
14.10000 9.644
14.12000 16.375
14.14000 24.504
14.16000 20.494
14.18000 12.567
14.20000 8.678
14.22000 13.419
14.24000 8.465
14.26000 6.235
14.28000 8.930
14.30000 12.206
14.32000 13.169
14.34000 10.652
14.36000 3.301
14.38000 3.306
14.40000 12.521
14.42000 6.109
14.44000 7.097
14.46000 8.963
14.48000 5.535
14.50000 9.669
14.52000 6.253
14.54000 4.531
14.56000 12.374
14.58000 10.081
14.60000 3.415
14.62000 6.730
14.64000 18.498
14.66000 15.730
14.68000 13.090
14.70000 8.749
14.72000 12.236
14.74000 5.763
14.76000 5.622
14.78000 1.389
14.80000 4.483
14.82000 11.356
14.84000 9.397
14.86000 9.038
14.88000 20.041
14.90000 21.917
14.92000 17.199
14.94000 12.396
14.96000 5.237
14.98000 3.088
15.00000 3.319
15.02000 -4.448
15.04000 -3.927
15.06000 1.484
15.08000 9.146
15.10000 6.952
15.12000 7.347
15.14000 14.759
15.16000 11.925
15.18000 6.647
15.20000 6.717
15.22000 1.249
15.24000 3.891
15.26000 13.167
15.28000 13.199
15.30000 9.331
15.32000 13.069
15.34000 4.798
15.36000 -0.223
15.38000 11.026
15.40000 12.797
15.42000 7.423
15.44000 11.696
15.46000 12.758
15.48000 9.078
15.50000 1.219
15.52000 16.909
15.54000 11.599
15.56000 3.953
15.58000 9.694
15.60000 8.525
15.62000 14.964
15.64000 9.287
15.66000 3.362
15.68000 5.792
15.70000 7.893
15.72000 7.323
15.74000 2.148
15.76000 1.918
15.78000 5.394
15.80000 7.765
15.82000 5.668
15.84000 5.791
15.86000 3.629
15.88000 5.850
15.90000 6.800
15.92000 4.848
15.94000 10.018
15.96000 5.939
15.98000 1.593
16.00000 1.209
16.02000 -1.438
16.04000 6.668
16.06000 3.902
16.08000 4.737
16.10000 7.164
16.12000 6.843
16.14000 5.596
16.16000 2.510
16.18000 4.305
16.20000 1.889
16.22000 0.483
16.24000 9.370
16.26000 11.741
16.28000 9.233
16.30000 0.159
16.32000 -4.464
16.34000 11.196
16.36000 13.332
16.38000 14.868
16.40000 6.493
16.42000 -0.137
16.44000 6.948
16.46000 1.648
16.48000 10.087
16.50000 3.008
16.52000 -1.783
16.54000 3.270
16.56000 2.367
16.58000 -4.338
16.60000 -3.183
16.62000 5.974
16.64000 6.671
16.66000 5.163
16.68000 6.085
16.70000 3.664
16.72000 5.379
16.74000 5.145
16.76000 2.553
16.78000 2.143
16.80000 -0.279
16.82000 -0.180
16.84000 4.315
16.86000 -2.064
16.88000 2.171
16.90000 12.957
16.92000 10.816
16.94000 11.620
16.96000 13.263
16.98000 9.013
17.00000 4.208
17.02000 5.491
17.04000 6.276
17.06000 3.267
17.08000 -0.924
17.10000 -1.577
17.12000 1.603
17.14000 0.179
17.16000 -0.713
17.18000 1.974
17.20000 5.064
17.22000 11.263
17.24000 14.864
17.26000 1.681
17.28000 4.208
17.30000 7.677
17.32000 12.659
17.34000 0.904
17.36000 2.056
17.38000 2.170
17.40000 4.146
17.42000 1.690
17.44000 3.912
17.46000 -1.076
17.48000 4.197
17.50000 1.271
17.52000 -0.050
17.54000 -2.586
17.56000 1.251
17.58000 3.074
17.60000 7.881
17.62000 4.588
17.64000 5.015
17.66000 3.582
17.68000 2.565
17.70000 -0.111
17.72000 4.618
17.74000 3.520
17.76000 0.803
17.78000 -2.131
17.80000 -4.419
17.82000 3.748
17.84000 5.898
17.86000 4.188
17.88000 6.660
17.90000 2.491
17.92000 3.905
17.94000 -0.315
17.96000 2.273
17.98000 -1.897
18.00000 4.507
18.02000 1.367
18.04000 -2.922
18.06000 -1.033
18.08000 6.019
18.10000 11.602
18.12000 3.694
18.14000 2.897
18.16000 1.450
18.18000 3.756
18.20000 1.127
18.22000 3.146
18.24000 1.505
18.26000 5.057
18.28000 7.766
18.30000 8.933
18.32000 -2.567
18.34000 2.981
18.36000 10.581
18.38000 8.565
18.40000 3.037
18.42000 5.948
18.44000 7.713
18.46000 4.172
18.48000 2.933
18.50000 5.435
18.52000 13.122
18.54000 11.888
18.56000 3.650
18.58000 -0.385
18.60000 -4.358
18.62000 1.226
18.64000 2.476
18.66000 2.913
18.68000 2.254
18.70000 3.648
18.72000 1.674
18.74000 -1.437
18.76000 1.050
18.78000 1.603
18.80000 1.341
18.82000 -3.050
18.84000 4.758
18.86000 2.839
18.88000 1.353
18.90000 1.278
18.92000 7.259
18.94000 7.473
18.96000 5.179
18.98000 8.892
19.00000 12.090
19.02000 9.205
19.04000 4.939
19.06000 6.042
19.08000 1.951
19.10000 -1.369
19.12000 -3.871
19.14000 0.654
19.16000 11.657
19.18000 10.669
19.20000 15.130
19.22000 13.801
19.24000 11.541
19.26000 -2.894
19.28000 -1.648
19.30000 2.921
19.32000 -4.312
19.34000 -2.572
19.36000 4.270
19.38000 6.664
19.40000 2.816
19.42000 8.386
19.44000 12.293
19.46000 12.102
19.48000 10.893
19.50000 10.830
19.52000 3.670
19.54000 1.614
19.56000 3.672
19.58000 7.314
19.60000 6.143
19.62000 4.151
19.64000 5.003
19.66000 6.571
19.68000 9.870
19.70000 10.058
19.72000 4.987
19.74000 -1.425
19.76000 0.092
19.78000 8.009
19.80000 4.453
19.82000 -0.876
19.84000 2.411
19.86000 1.481
19.88000 0.621
19.90000 1.529
19.92000 -3.420
19.94000 1.369
19.96000 7.269
19.98000 10.533
20.00000 7.769
20.02000 5.664
20.04000 -0.842
20.06000 0.758
20.08000 -0.589
20.10000 2.017
20.12000 3.519
20.14000 2.665
20.16000 1.485
20.18000 4.190
20.20000 10.668
20.22000 7.686
20.24000 2.521
20.26000 3.766
20.28000 1.718
20.30000 4.340
20.32000 2.673
20.34000 4.333
20.36000 6.151
20.38000 -4.269
20.40000 -1.134
20.42000 12.209
20.44000 13.894
20.46000 7.747
20.48000 3.985
20.50000 1.381
20.52000 1.473
20.54000 -0.514
20.56000 1.440
20.58000 6.739
20.60000 0.760
20.62000 -1.638
20.64000 4.122
20.66000 2.818
20.68000 14.665
20.70000 5.583
20.72000 -1.167
20.74000 4.246
20.76000 3.108
20.78000 0.692
20.80000 -2.769
20.82000 2.569
20.84000 4.147
20.86000 5.829
20.88000 4.839
20.90000 0.691
20.92000 -4.233
20.94000 4.617
20.96000 2.204
20.98000 3.832
21.00000 1.415
21.02000 -2.081
21.04000 1.717
21.06000 1.320
21.08000 4.910
21.10000 5.189
21.12000 4.273
21.14000 0.245
21.16000 0.977
21.18000 1.840
21.20000 -2.254
21.22000 4.339
21.24000 10.450
21.26000 9.912
21.28000 4.636
21.30000 -0.581
21.32000 3.573
21.34000 2.426
21.36000 -1.051
21.38000 -0.517
21.40000 3.940
21.42000 -3.239
21.44000 -0.612
21.46000 5.455
21.48000 3.851
21.50000 -0.001
21.52000 3.136
21.54000 -0.566
21.56000 1.140
21.58000 2.115
21.60000 -2.932
21.62000 -4.191
21.64000 4.090
21.66000 3.905
21.68000 -2.644
21.70000 -1.383
21.72000 1.314
21.74000 -1.592
21.76000 8.128
21.78000 8.069
21.80000 3.663
21.82000 5.969
21.84000 1.877
21.86000 6.188
21.88000 15.204
21.90000 7.237
21.92000 3.493
21.94000 -0.807
21.96000 3.033
21.98000 2.586
22.00000 0.517
22.02000 0.522
22.04000 2.090
22.06000 0.683
22.08000 3.849
22.10000 9.188
22.12000 6.438
22.14000 5.827
22.16000 11.939
22.18000 13.945
22.20000 8.106
22.22000 2.694
22.24000 -0.538
22.26000 -4.141
22.28000 -3.351
22.30000 3.996
22.32000 10.932
22.34000 6.928
22.36000 8.412
22.38000 6.193
22.40000 6.028
22.42000 6.307
22.44000 3.409
22.46000 3.506
22.48000 -2.061
22.50000 0.979
22.52000 0.664
22.54000 5.661
22.56000 4.511
22.58000 1.314
22.60000 7.816
22.62000 10.233
22.64000 10.417
22.66000 6.444
22.68000 1.771
22.70000 4.616
22.72000 2.416
22.74000 9.920
22.76000 6.896
22.78000 7.128
22.80000 7.778
22.82000 11.710
22.84000 11.118
22.86000 5.391
22.88000 6.021
22.90000 4.728
22.92000 4.668
22.94000 2.422
22.96000 4.628
22.98000 8.100
23.00000 2.335
23.02000 2.688
23.04000 5.386
23.06000 3.217
23.08000 -0.478
23.10000 -4.107
23.12000 1.108
23.14000 1.938
23.16000 -0.218
23.18000 1.672
23.20000 4.874
23.22000 1.213
23.24000 5.678
23.26000 9.333
23.28000 1.394
23.30000 0.006
23.32000 1.814
23.34000 4.800
23.36000 5.510
23.38000 7.488
23.40000 5.275
23.42000 5.233
23.44000 5.530
23.46000 8.961
23.48000 6.763
23.50000 6.314
23.52000 2.252
23.54000 1.350
23.56000 2.184
23.58000 0.633
23.60000 -4.073
23.62000 4.228
23.64000 1.716
23.66000 -1.198
23.68000 1.337
23.70000 11.223
23.72000 8.184
23.74000 4.844
23.76000 11.309
23.78000 10.476
23.80000 7.464
23.82000 0.021
23.84000 2.455
23.86000 6.008
23.88000 6.959
23.90000 8.691
23.92000 1.481
23.94000 3.395
23.96000 4.902
23.98000 1.403
24.00000 5.031
24.02000 1.693
24.04000 4.019
24.06000 1.810
24.08000 2.160
24.10000 5.756
24.12000 2.918
24.14000 2.995
24.16000 5.963
24.18000 6.323
24.20000 5.922
24.22000 6.632
24.24000 2.090
24.26000 3.168
24.28000 3.222
24.30000 1.240
24.32000 4.548
24.34000 4.304
24.36000 -0.658
24.38000 -4.021
24.40000 4.667
24.42000 10.744
24.44000 8.922
24.46000 2.442
24.48000 1.808
24.50000 1.573
24.52000 1.185
24.54000 1.597
24.56000 3.831
24.58000 3.779
24.60000 5.687
24.62000 2.407
24.64000 6.332
24.66000 3.868
24.68000 3.992
24.70000 5.058
24.72000 6.126
24.74000 6.516
24.76000 6.235
24.78000 -0.253
24.80000 1.304
24.82000 -1.395
24.84000 6.854
24.86000 8.662
24.88000 2.592
24.90000 -0.841
24.92000 2.110
24.94000 4.137
24.96000 6.547
24.98000 2.219
25.00000 4.723
25.02000 5.406
25.04000 6.704
25.06000 6.579
25.08000 3.237
25.10000 2.122
25.12000 -1.760
25.14000 -3.624
25.16000 -1.636
25.18000 6.140
25.20000 2.344
25.22000 2.396
25.24000 -0.365
25.26000 3.779
25.28000 5.454
25.30000 1.203
25.32000 -1.413
25.34000 1.379
25.36000 2.404
25.38000 4.666
25.40000 2.375
25.42000 -1.894
25.44000 7.612
25.46000 10.020
25.48000 2.506
25.50000 4.180
25.52000 4.911
25.54000 7.847
25.56000 6.842
25.58000 13.267
25.60000 8.280
25.62000 2.534
25.64000 1.748
25.66000 6.418
25.68000 5.786
25.70000 5.668
25.72000 6.108
25.74000 5.757
25.76000 4.466
25.78000 2.532
25.80000 5.673
25.82000 0.664
25.84000 0.450
25.86000 4.729
25.88000 3.118
25.90000 2.011
25.92000 7.116
25.94000 9.928
25.96000 7.730
25.98000 5.433
26.00000 3.751
26.02000 2.988
26.04000 0.796
26.06000 0.452
26.08000 4.014
26.10000 10.028
26.12000 6.836
26.14000 4.312
26.16000 2.126
26.18000 0.439
26.20000 2.889
26.22000 8.373
26.24000 8.655
26.26000 3.073
26.28000 5.398
26.30000 3.737
26.32000 3.331
26.34000 5.876
26.36000 5.010
26.38000 3.485
26.40000 0.909
26.42000 -3.889
26.44000 4.044
26.46000 10.723
26.48000 8.042
26.50000 6.189
26.52000 5.762
26.54000 6.977
26.56000 7.183
26.58000 12.502
26.60000 11.858
26.62000 6.359
26.64000 7.666
26.66000 0.663
26.68000 0.194
26.70000 2.098
26.72000 7.189
26.74000 1.680
26.76000 4.502
26.78000 5.318
26.80000 4.754
26.82000 5.738
26.84000 4.864
26.86000 7.514
26.88000 10.660
26.90000 6.638
26.92000 6.677
26.94000 6.681
26.96000 8.161
26.98000 10.886
27.00000 8.266
27.02000 7.961
27.04000 8.596
27.06000 6.019
27.08000 -0.559
27.10000 -0.124
27.12000 9.443
27.14000 9.919
27.16000 8.015
27.18000 3.698
27.20000 3.460
27.22000 3.552
27.24000 5.972
27.26000 6.388
27.28000 5.706
27.30000 7.267
27.32000 7.089
27.34000 1.305
27.36000 2.248
27.38000 4.508
27.40000 9.068
27.42000 7.090
27.44000 10.583
27.46000 11.940
27.48000 11.346
27.50000 12.255
27.52000 7.750
27.54000 5.256
27.56000 8.105
27.58000 12.912
27.60000 8.000
27.62000 0.523
27.64000 -3.833
27.66000 2.033
27.68000 5.434
27.70000 10.027
27.72000 10.673
27.74000 4.916
27.76000 0.563
27.78000 4.418
27.80000 1.946
27.82000 3.603
27.84000 1.575
27.86000 2.339
27.88000 3.037
27.90000 1.519
27.92000 0.161
27.94000 5.454
27.96000 3.956
27.98000 4.734
28.00000 1.364
28.02000 4.158
28.04000 4.776
28.06000 8.390
28.08000 3.077
28.10000 0.758
28.12000 -1.132
28.14000 0.965
28.16000 4.103
28.18000 4.039
28.20000 4.642
28.22000 6.705
28.24000 4.520
28.26000 4.192
28.28000 5.907
28.30000 9.592
28.32000 9.134
28.34000 7.226
28.36000 0.457
28.38000 -3.790
28.40000 2.163
28.42000 4.117
28.44000 1.632
28.46000 2.823
28.48000 0.276
28.50000 7.327
28.52000 8.559
28.54000 5.422
28.56000 2.098
28.58000 -1.220
28.60000 3.739
28.62000 9.079
28.64000 7.289
28.66000 4.267
28.68000 0.737
28.70000 6.551
28.72000 11.053
28.74000 4.587
28.76000 4.429
28.78000 9.176
28.80000 7.068
28.82000 3.564
28.84000 3.217
28.86000 -1.740
28.88000 3.918
28.90000 2.083
28.92000 2.318
28.94000 3.521
28.96000 5.438
28.98000 0.917
29.00000 -0.477
29.02000 -3.049
29.04000 6.777
29.06000 7.013
29.08000 0.725
29.10000 -1.481
29.12000 1.244
29.14000 -3.312
29.16000 -3.099
29.18000 4.391
29.20000 7.745
29.22000 3.947
29.24000 0.392
29.26000 2.642
29.28000 4.083
29.30000 2.012
29.32000 3.146
29.34000 5.667
29.36000 4.388
29.38000 6.553
29.40000 7.383
29.42000 4.187
29.44000 0.031
29.46000 0.041
29.48000 0.869
29.50000 2.784
29.52000 -0.748
29.54000 -0.514
29.56000 3.046
29.58000 3.682
29.60000 2.503
29.62000 -1.664
29.64000 0.158
29.66000 3.744
29.68000 5.812
29.70000 2.204
29.72000 -0.622
29.74000 -3.735
29.76000 -1.396
29.78000 -1.050
29.80000 2.635
29.82000 -0.679
29.84000 -1.300
29.86000 -2.427
29.88000 -1.815
29.90000 -3.728
29.92000 2.420
29.94000 5.004
29.96000 4.908
29.98000 5.952
30.00000 2.250
30.02000 -1.614
30.04000 -2.975
30.06000 0.094
30.08000 -1.627
30.10000 3.224
30.12000 0.821
30.14000 1.847
30.16000 -1.706
30.18000 3.504
30.20000 0.910
30.22000 1.255
30.24000 6.429
30.26000 1.933
30.28000 3.500
30.30000 9.943
30.32000 8.430
30.34000 0.845
30.36000 2.804
30.38000 4.632
30.40000 3.835
30.42000 2.346
30.44000 4.142
30.46000 3.901
30.48000 1.229
30.50000 1.485
30.52000 3.911
30.54000 2.403
30.56000 3.898
30.58000 3.399
30.60000 2.172
30.62000 3.734
30.64000 1.841
30.66000 1.021
30.68000 3.184
30.70000 1.175
30.72000 4.843
30.74000 4.005
30.76000 4.763
30.78000 6.223
30.80000 3.174
30.82000 4.380
30.84000 3.640
30.86000 8.619
30.88000 5.630
30.90000 0.471
30.92000 -2.378
30.94000 -0.264
30.96000 3.316
30.98000 2.939
31.00000 1.735
31.02000 -3.041
31.04000 -0.445
31.06000 8.904
31.08000 9.164
31.10000 4.943
31.12000 -0.348
31.14000 -3.652
31.16000 1.714
31.18000 8.269
31.20000 8.962
31.22000 10.743
31.24000 12.176
31.26000 2.366
31.28000 4.885
31.30000 1.018
31.32000 -0.060
31.34000 2.741
31.36000 2.180
31.38000 3.161
31.40000 4.865
31.42000 5.001
31.44000 4.164
31.46000 -0.691
31.48000 3.864
31.50000 2.579
31.52000 3.912
31.54000 3.674
31.56000 4.555
31.58000 5.426
31.60000 0.742
31.62000 -0.630
31.64000 6.822
31.66000 4.029
31.68000 4.471
31.70000 0.122
31.72000 -0.806
31.74000 2.056
31.76000 4.572
31.78000 4.766
31.80000 1.536
31.82000 3.323
31.84000 4.463
31.86000 3.987
31.88000 6.128
31.90000 5.064
31.92000 2.931
31.94000 -2.242
31.96000 0.746
31.98000 3.718
32.00000 1.657
32.02000 2.911
32.04000 3.064
32.06000 2.488
32.08000 -1.519
32.10000 2.437
32.12000 4.097
32.14000 12.517
32.16000 5.698
32.18000 -3.134
32.20000 -3.616
32.22000 3.169
32.24000 6.245
32.26000 2.068
32.28000 8.395
32.30000 5.726
32.32000 3.747
32.34000 5.237
32.36000 4.585
32.38000 6.225
32.40000 6.056
32.42000 3.194
32.44000 6.198
32.46000 6.266
32.48000 8.211
32.50000 4.296
32.52000 6.414
32.54000 9.322
32.56000 8.237
32.58000 5.772
32.60000 5.548
32.62000 -0.549
32.64000 2.066
32.66000 -3.622
32.68000 -0.559
32.70000 1.188
32.72000 4.069
32.74000 4.540
32.76000 -0.109
32.78000 1.226
32.80000 0.227
32.82000 -0.416
32.84000 0.141
32.86000 0.640
32.88000 -2.257
32.90000 0.178
32.92000 0.812
32.94000 0.707
32.96000 0.291
32.98000 0.754
33.00000 1.375
33.02000 1.703
33.04000 4.088
33.06000 4.676
33.08000 3.285
33.10000 3.183
33.12000 5.530
33.14000 -1.774
33.16000 0.223
33.18000 1.796
33.20000 0.977
33.22000 3.885
33.24000 7.622
33.26000 1.801
33.28000 1.695
33.30000 3.466
33.32000 -0.205
33.34000 0.281
33.36000 -1.124
33.38000 -3.565
33.40000 -3.618
33.42000 -2.266
33.44000 1.517
33.46000 -0.057
33.48000 1.198
33.50000 4.072
33.52000 -0.229
33.54000 0.320
33.56000 3.995
33.58000 3.107
33.60000 7.650
33.62000 8.736
33.64000 -1.192
33.66000 -1.306
33.68000 0.445
33.70000 4.640
33.72000 5.948
33.74000 5.705
33.76000 -0.554
33.78000 -3.479
33.80000 0.300
33.82000 2.008
33.84000 7.030
33.86000 8.092
33.88000 3.105
33.90000 5.295
33.92000 8.946
33.94000 5.102
33.96000 1.464
33.98000 -0.296
34.00000 -0.433
34.02000 2.736
34.04000 7.106
34.06000 4.336
34.08000 4.304
34.10000 6.931
34.12000 5.234
34.14000 7.075
34.16000 5.240
34.18000 3.884
34.20000 3.504
34.22000 3.350
34.24000 8.038
34.26000 0.196
34.28000 5.652
34.30000 9.825
34.32000 3.242
34.34000 2.711
34.36000 1.897
34.38000 4.905
34.40000 7.596
34.42000 4.990
34.44000 2.409
34.46000 -0.530
34.48000 -1.324
34.50000 1.280
34.52000 3.881
34.54000 1.048
34.56000 -0.578
34.58000 3.591
34.60000 8.934
34.62000 9.729
34.64000 11.477
34.66000 5.208
34.68000 7.691
34.70000 5.692
34.72000 6.308
34.74000 2.459
34.76000 4.463
34.78000 6.087
34.80000 3.329
34.82000 1.818
34.84000 6.825
34.86000 5.497
34.88000 -0.168
34.90000 -3.563
34.92000 -1.745
34.94000 0.947
34.96000 3.411
34.98000 2.296
35.00000 2.400
35.02000 3.211
35.04000 4.347
35.06000 5.593
35.08000 3.334
35.10000 2.490
35.12000 3.766
35.14000 2.953
35.16000 -1.635
35.18000 -2.059
35.20000 -0.395
35.22000 -1.756
35.24000 -0.494
35.26000 1.334
35.28000 -0.756
35.30000 -0.430
35.32000 0.544
35.34000 7.467
35.36000 -0.337
35.38000 -1.685
35.40000 -0.627
35.42000 0.198
35.44000 -2.821
35.46000 -3.310
35.48000 -0.966
35.50000 -0.281
35.52000 3.850
35.54000 6.620
35.56000 2.732
35.58000 -1.851
35.60000 -0.335
35.62000 -0.418
35.64000 -0.825
35.66000 3.717
35.68000 -0.314
35.70000 -0.669
35.72000 -1.912
35.74000 -3.458
35.76000 4.328
35.78000 2.067
35.80000 1.338
35.82000 -1.290
35.84000 -0.340
35.86000 -0.670
35.88000 2.444
35.90000 1.226
35.92000 4.952
35.94000 9.342
35.96000 7.210
35.98000 3.968
36.00000 5.082
36.02000 2.068
36.04000 2.452
36.06000 1.024
36.08000 -2.048
36.10000 0.672
36.12000 2.979
36.14000 -1.108
36.16000 -1.107
36.18000 1.061
36.20000 4.338
36.22000 7.049
36.24000 2.789
36.26000 3.575
36.28000 2.968
36.30000 -1.735
36.32000 -0.594
36.34000 1.087
36.36000 2.553
36.38000 5.622
36.40000 3.915
36.42000 0.027
36.44000 -0.325
36.46000 2.176
36.48000 6.931
36.50000 0.836
36.52000 -3.610
36.54000 1.505
36.56000 0.939
36.58000 5.536
36.60000 0.839
36.62000 0.176
36.64000 2.426
36.66000 5.660
36.68000 3.432
36.70000 3.384
36.72000 6.909
36.74000 5.120
36.76000 7.576
36.78000 8.921
36.80000 6.454
36.82000 0.934
36.84000 0.086
36.86000 -0.606
36.88000 1.426
36.90000 0.807
36.92000 0.277
36.94000 0.332
36.96000 -1.071
36.98000 -1.239
37.00000 -2.497
37.02000 -1.108
37.04000 0.372
37.06000 0.256
37.08000 7.123
37.10000 2.421
37.12000 3.205
37.14000 4.292
37.16000 5.457
37.18000 1.895
37.20000 0.073
37.22000 1.568
37.24000 4.624
37.26000 3.489
37.28000 3.984
37.30000 1.267
37.32000 -2.128
37.34000 3.705
37.36000 5.206
37.38000 1.649
37.40000 0.193
37.42000 5.321
37.44000 7.454
37.46000 11.835
37.48000 9.229
37.50000 7.108
37.52000 6.412
37.54000 8.717
37.56000 6.094
37.58000 1.020
37.60000 6.145
37.62000 8.756
37.64000 8.207
37.66000 8.312
37.68000 9.184
37.70000 9.329
37.72000 8.242
37.74000 8.468
37.76000 10.727
37.78000 16.376
37.80000 19.059
37.82000 18.429
37.84000 18.206
37.86000 17.428
37.88000 17.751
37.90000 10.277
37.92000 16.876
37.94000 18.324
37.96000 17.323
37.98000 22.262
38.00000 23.586
38.02000 22.658
38.04000 18.809
38.06000 17.153
38.08000 17.520
38.10000 22.776
38.12000 27.845
38.14000 25.844
38.16000 27.023
38.18000 27.260
38.20000 25.259
38.22000 30.715
38.24000 24.285
38.26000 27.857
38.28000 35.346
38.30000 29.534
38.32000 28.552
38.34000 27.642
38.36000 29.791
38.38000 34.987
38.40000 40.434
38.42000 39.304
38.44000 43.471
38.46000 48.082
38.48000 48.856
38.50000 46.087
38.52000 45.815
38.54000 45.780
38.56000 53.309
38.58000 56.074
38.60000 57.120
38.62000 58.047
38.64000 58.187
38.66000 61.305
38.68000 60.782
38.70000 69.819
38.72000 73.918
38.74000 71.483
38.76000 76.715
38.78000 76.188
38.80000 80.414
38.82000 86.778
38.84000 91.184
38.86000 94.871
38.88000 97.637
38.90000 105.499
38.92000 111.163
38.94000 117.779
38.96000 118.917
38.98000 122.353
39.00000 130.512
39.02000 134.502
39.04000 141.277
39.06000 148.904
39.08000 153.992
39.10000 168.922
39.12000 175.940
39.14000 184.172
39.16000 191.831
39.18000 198.816
39.20000 208.232
39.22000 229.127
39.24000 234.898
39.26000 241.653
39.28000 253.337
39.30000 269.810
39.32000 282.666
39.34000 294.901
39.36000 316.762
39.38000 324.336
39.40000 339.950
39.42000 360.189
39.44000 376.856
39.46000 401.935
39.48000 421.905
39.50000 433.575
39.52000 448.212
39.54000 472.432
39.56000 490.480
39.58000 516.879
39.60000 544.039
39.62000 564.486
39.64000 580.721
39.66000 596.571
39.68000 616.044
39.70000 639.063
39.72000 654.677
39.74000 658.375
39.76000 669.206
39.78000 682.404
39.80000 697.512
39.82000 691.832
39.84000 695.667
39.86000 717.953
39.88000 717.885
39.90000 710.438
39.92000 713.021
39.94000 692.418
39.96000 678.378
39.98000 672.886
40.00000 660.073
40.02000 637.309
40.04000 623.470
40.06000 612.945
40.08000 587.887
40.10000 573.992
40.12000 560.667
40.14000 540.703
40.16000 516.669
40.18000 493.538
40.20000 475.009
40.22000 447.883
40.24000 435.832
40.26000 423.839
40.28000 391.233
40.30000 367.442
40.32000 349.441
40.34000 330.340
40.36000 307.453
40.38000 290.495
40.40000 268.783
40.42000 255.653
40.44000 244.916
40.46000 232.029
40.48000 210.723
40.50000 201.818
40.52000 191.811
40.54000 187.995
40.56000 175.597
40.58000 169.687
40.60000 162.478
40.62000 143.660
40.64000 129.077
40.66000 120.618
40.68000 119.619
40.70000 111.053
40.72000 97.522
40.74000 97.313
40.76000 93.438
40.78000 85.907
40.80000 81.017
40.82000 77.440
40.84000 75.678
40.86000 69.842
40.88000 66.532
40.90000 62.134
40.92000 61.884
40.94000 58.110
40.96000 50.366
40.98000 46.559
41.00000 42.921
41.02000 40.029
41.04000 41.974
41.06000 42.408
41.08000 38.423
41.10000 36.151
41.12000 31.834
41.14000 29.976
41.16000 28.593
41.18000 30.253
41.20000 32.203
41.22000 27.850
41.24000 25.807
41.26000 23.278
41.28000 24.685
41.30000 22.233
41.32000 21.336
41.34000 18.845
41.36000 18.645
41.38000 14.421
41.40000 13.676
41.42000 11.867
41.44000 10.812
41.46000 9.007
41.48000 9.084
41.50000 10.535
41.52000 8.980
41.54000 7.728
41.56000 6.086
41.58000 7.210
41.60000 11.255
41.62000 6.723
41.64000 4.996
41.66000 10.039
41.68000 8.292
41.70000 4.966
41.72000 -0.553
41.74000 0.470
41.76000 7.260
41.78000 7.386
41.80000 8.183
41.82000 3.747
41.84000 2.893
41.86000 -0.517
41.88000 -1.446
41.90000 1.242
41.92000 6.166
41.94000 8.348
41.96000 7.088
41.98000 4.714
42.00000 3.351
42.02000 1.996
42.04000 1.997
42.06000 4.667
42.08000 5.326
42.10000 6.424
42.12000 6.054
42.14000 4.863
42.16000 4.753
42.18000 2.671
42.20000 3.282
42.22000 3.067
42.24000 3.073
42.26000 6.245
42.28000 3.664
42.30000 4.445
42.32000 2.676
42.34000 1.797
42.36000 3.577
42.38000 3.405
42.40000 1.049
42.42000 1.844
42.44000 2.468
42.46000 -1.089
42.48000 -1.768
42.50000 -0.238
42.52000 -2.049
42.54000 -2.041
42.56000 -1.102
42.58000 -3.461
42.60000 -1.654
42.62000 1.422
42.64000 1.647
42.66000 -1.310
42.68000 0.429
42.70000 0.323
42.72000 1.301
42.74000 3.142
42.76000 2.819
42.78000 3.867
42.80000 3.212
42.82000 0.320
42.84000 -0.154
42.86000 2.012
42.88000 4.806
42.90000 3.444
42.92000 -0.494
42.94000 -3.412
42.96000 0.175
42.98000 7.007
43.00000 1.524
43.02000 -1.301
43.04000 -1.185
43.06000 -3.400
43.08000 1.388
43.10000 1.890
43.12000 -2.782
43.14000 -1.673
43.16000 2.328
43.18000 2.558
43.20000 2.798
43.22000 3.905
43.24000 0.339
43.26000 1.583
43.28000 0.990
43.30000 -2.331
43.32000 -2.850
43.34000 -0.122
43.36000 -0.974
43.38000 -1.264
43.40000 -0.297
43.42000 0.315
43.44000 -2.474
43.46000 -0.416
43.48000 3.949
43.50000 3.052
43.52000 -0.096
43.54000 4.093
43.56000 4.159
43.58000 2.987
43.60000 1.708
43.62000 -0.172
43.64000 0.141
43.66000 1.154
43.68000 1.656
43.70000 -0.325
43.72000 -0.888
43.74000 2.136
43.76000 1.460
43.78000 -0.016
43.80000 0.038
43.82000 -0.609
43.84000 1.068
43.86000 -0.656
43.88000 -1.540
43.90000 0.788
43.92000 -3.351
43.94000 -2.559
43.96000 3.664
43.98000 1.804
44.00000 4.811
44.02000 0.556
44.04000 -0.289
44.06000 2.789
44.08000 2.662
44.10000 7.549
44.12000 5.872
44.14000 -0.422
44.16000 -3.200
44.18000 -3.332
44.20000 -3.197
44.22000 0.911
44.24000 -0.785
44.26000 -2.383
44.28000 -0.181
44.30000 -1.075
44.32000 -0.908
44.34000 3.791
44.36000 4.436
44.38000 4.251
44.40000 3.475
44.42000 3.587
44.44000 3.661
44.46000 5.946
44.48000 9.692
44.50000 7.184
44.52000 2.541
44.54000 7.219
44.56000 1.985
44.58000 -2.719
44.60000 -0.391
44.62000 6.966
44.64000 7.736
44.66000 5.559
44.68000 6.824
44.70000 6.210
44.72000 4.484
44.74000 8.268
44.76000 12.090
44.78000 10.288
44.80000 7.702
44.82000 6.739
44.84000 7.833
44.86000 9.155
44.88000 9.812
44.90000 10.338
44.92000 10.313
44.94000 9.614
44.96000 7.874
44.98000 7.789
45.00000 10.268
45.02000 12.183
45.04000 11.093
45.06000 8.626
45.08000 3.514
45.10000 2.203
45.12000 4.987
45.14000 8.379
45.16000 12.507
45.18000 14.922
45.20000 12.977
45.22000 16.385
45.24000 15.445
45.26000 17.097
45.28000 12.554
45.30000 11.474
45.32000 13.792
45.34000 17.677
45.36000 19.334
45.38000 19.282
45.40000 19.324
45.42000 17.471
45.44000 23.792
45.46000 25.804
45.48000 23.541
45.50000 24.411
45.52000 26.188
45.54000 30.234
45.56000 28.815
45.58000 27.411
45.60000 33.744
45.62000 35.669
45.64000 33.484
45.66000 31.005
45.68000 36.424
45.70000 38.176
45.72000 37.390
45.74000 37.434
45.76000 38.199
45.78000 40.614
45.80000 43.709
45.82000 43.662
45.84000 44.107
45.86000 49.709
45.88000 50.735
45.90000 54.747
45.92000 53.269
45.94000 50.957
45.96000 58.577
45.98000 64.758
46.00000 65.992
46.02000 63.939
46.04000 62.947
46.06000 66.227
46.08000 68.479
46.10000 67.668
46.12000 70.132
46.14000 74.245
46.16000 75.779
46.18000 75.360
46.20000 79.868
46.22000 81.251
46.24000 81.381
46.26000 87.244
46.28000 88.792
46.30000 91.904
46.32000 89.725
46.34000 88.044
46.36000 87.692
46.38000 92.291
46.40000 92.135
46.42000 92.499
46.44000 96.262
46.46000 106.226
46.48000 104.882
46.50000 96.806
46.52000 101.619
46.54000 105.585
46.56000 97.030
46.58000 101.430
46.60000 102.490
46.62000 100.134
46.64000 95.705
46.66000 95.443
46.68000 98.252
46.70000 92.413
46.72000 98.802
46.74000 98.105
46.76000 92.058
46.78000 96.632
46.80000 99.179
46.82000 95.125
46.84000 89.546
46.86000 81.880
46.88000 79.075
46.90000 79.105
46.92000 82.695
46.94000 73.055
46.96000 74.272
46.98000 71.465
47.00000 70.507
47.02000 64.210
47.04000 62.064
47.06000 63.256
47.08000 61.951
47.10000 62.783
47.12000 61.062
47.14000 57.003
47.16000 47.900
47.18000 43.216
47.20000 43.322
47.22000 40.268
47.24000 37.779
47.26000 37.976
47.28000 35.811
47.30000 32.406
47.32000 31.728
47.34000 34.848
47.36000 35.269
47.38000 33.994
47.40000 33.221
47.42000 28.937
47.44000 25.671
47.46000 26.715
47.48000 27.965
47.50000 22.830
47.52000 24.218
47.54000 18.691
47.56000 13.272
47.58000 17.142
47.60000 20.737
47.62000 16.322
47.64000 17.871
47.66000 15.174
47.68000 14.569
47.70000 13.374
47.72000 8.634
47.74000 6.400
47.76000 7.036
47.78000 10.454
47.80000 6.365
47.82000 5.996
47.84000 11.825
47.86000 5.913
47.88000 6.891
47.90000 10.750
47.92000 6.563
47.94000 1.944
47.96000 2.549
47.98000 3.042
48.00000 1.065
48.02000 -0.430
48.04000 -0.040
48.06000 1.053
48.08000 3.886
48.10000 5.077
48.12000 2.904
48.14000 3.603
48.16000 4.925
48.18000 0.538
48.20000 4.104
48.22000 -1.778
48.24000 -2.590
48.26000 -3.016
48.28000 0.260
48.30000 -1.648
48.32000 -1.516
48.34000 0.109
48.36000 1.512
48.38000 -0.554
48.40000 -0.477
48.42000 2.054
48.44000 -0.135
48.46000 -0.665
48.48000 4.077
48.50000 2.774
48.52000 2.173
48.54000 5.626
48.56000 5.324
48.58000 5.586
48.60000 2.568
48.62000 1.819
48.64000 2.930
48.66000 5.191
48.68000 1.222
48.70000 0.051
48.72000 -1.057
48.74000 1.085
48.76000 2.892
48.78000 -2.925
48.80000 -2.088
48.82000 1.994
48.84000 2.878
48.86000 -1.972
48.88000 -2.619
48.90000 -2.143
48.92000 5.797
48.94000 8.971
48.96000 4.261
48.98000 3.479
49.00000 2.027
49.02000 3.778
49.04000 1.988
49.06000 2.295
49.08000 4.775
49.10000 7.885
49.12000 2.905
49.14000 3.474
49.16000 7.011
49.18000 5.252
49.20000 2.485
49.22000 -2.850
49.24000 -2.697
49.26000 -1.776
49.28000 -2.060
49.30000 2.417
49.32000 2.747
49.34000 7.337
49.36000 1.842
49.38000 2.100
49.40000 6.059
49.42000 5.122
49.44000 3.699
49.46000 1.797
49.48000 3.729
49.50000 9.488
49.52000 4.481
49.54000 2.713
49.56000 3.885
49.58000 4.164
49.60000 3.536
49.62000 4.183
49.64000 1.523
49.66000 1.362
49.68000 8.146
49.70000 6.802
49.72000 7.313
49.74000 7.520
49.76000 5.364
49.78000 -2.781
49.80000 0.664
49.82000 4.853
49.84000 5.955
49.86000 4.891
49.88000 4.620
49.90000 3.078
49.92000 2.274
49.94000 3.213
49.96000 1.694
49.98000 3.799
50.00000 8.515
50.02000 6.707
50.04000 1.662
50.06000 7.138
50.08000 3.693
50.10000 -0.632
50.12000 3.048
50.14000 5.587
50.16000 9.887
50.18000 10.259
50.20000 9.444
50.22000 6.287
50.24000 6.138
50.26000 4.898
50.28000 -2.746
50.30000 0.859
50.32000 8.276
50.34000 11.458
50.36000 8.112
50.38000 4.794
50.40000 7.830
50.42000 5.471
50.44000 6.283
50.46000 4.955
50.48000 2.573
50.50000 4.033
50.52000 1.621
50.54000 0.594
50.56000 1.022
50.58000 0.950
50.60000 -1.226
50.62000 2.215
50.64000 2.591
50.66000 1.263
50.68000 3.222
50.70000 4.261
50.72000 4.593
50.74000 3.954
50.76000 5.239
50.78000 10.454
50.80000 7.462
50.82000 7.606
50.84000 1.820
50.86000 -1.326
50.88000 1.814
50.90000 2.747
50.92000 2.249
50.94000 3.728
50.96000 9.217
50.98000 4.904
51.00000 -0.387
51.02000 3.967
51.04000 8.001
51.06000 4.799
51.08000 1.973
51.10000 4.370
51.12000 3.105
51.14000 6.608
51.16000 1.915
51.18000 -0.655
51.20000 0.009
51.22000 0.586
51.24000 7.417
51.26000 8.503
51.28000 6.342
51.30000 2.635
51.32000 3.369
51.34000 3.133
51.36000 3.117
51.38000 2.677
51.40000 1.433
51.42000 1.488
51.44000 3.731
51.46000 2.616
51.48000 -2.706
51.50000 3.357
51.52000 1.160
51.54000 -2.369
51.56000 3.659
51.58000 3.846
51.60000 3.225
51.62000 8.993
51.64000 7.217
51.66000 5.624
51.68000 6.170
51.70000 3.655
51.72000 3.853
51.74000 1.060
51.76000 -0.627
51.78000 1.174
51.80000 4.429
51.82000 8.714
51.84000 5.120
51.86000 3.006
51.88000 1.807
51.90000 1.593
51.92000 3.302
51.94000 1.785
51.96000 2.041
51.98000 3.743
52.00000 8.157
52.02000 5.809
52.04000 4.483
52.06000 3.715
52.08000 1.647
52.10000 2.452
52.12000 6.943
52.14000 8.106
52.16000 4.591
52.18000 5.380
52.20000 4.954
52.22000 4.878
52.24000 8.227
52.26000 6.193
52.28000 4.048
52.30000 3.097
52.32000 3.397
52.34000 -2.682
52.36000 -1.298
52.38000 3.710
52.40000 5.786
52.42000 6.037
52.44000 5.229
52.46000 4.152
52.48000 3.083
52.50000 1.811
52.52000 0.817
52.54000 -0.453
52.56000 5.021
52.58000 5.102
52.60000 3.851
52.62000 4.346
52.64000 4.515
52.66000 3.192
52.68000 0.903
52.70000 3.764
52.72000 4.958
52.74000 1.818
52.76000 1.935
52.78000 0.354
52.80000 -2.444
52.82000 -1.212
52.84000 0.735
52.86000 1.862
52.88000 2.063
52.90000 3.925
52.92000 1.284
52.94000 2.147
52.96000 2.763
52.98000 -2.103
53.00000 -2.668
53.02000 -2.253
53.04000 0.927
53.06000 1.277
53.08000 1.288
53.10000 0.397
53.12000 -1.873
53.14000 1.370
53.16000 5.495
53.18000 0.231
53.20000 3.316
53.22000 1.095
53.24000 -0.046
53.26000 -1.260
53.28000 0.430
53.30000 3.996
53.32000 5.288
53.34000 2.191
53.36000 1.452
53.38000 5.262
53.40000 5.107
53.42000 1.749
53.44000 1.069
53.46000 1.816
53.48000 3.763
53.50000 0.819
53.52000 0.183
53.54000 4.133
53.56000 5.852
53.58000 1.235
53.60000 -1.542
53.62000 4.225
53.64000 4.986
53.66000 5.510
53.68000 3.051
53.70000 -0.037
53.72000 3.035
53.74000 4.915
53.76000 3.904
53.78000 1.206
53.80000 1.204
53.82000 0.029
53.84000 1.142
53.86000 -0.033
53.88000 -2.370
53.90000 -2.639
53.92000 2.403
53.94000 3.825
53.96000 1.725
53.98000 1.805
54.00000 4.313
54.02000 1.819
54.04000 2.455
54.06000 7.151
54.08000 2.483
54.10000 0.066
54.12000 0.209
54.14000 1.021
54.16000 2.231
54.18000 1.487
54.20000 -1.123
54.22000 1.327
54.24000 1.575
54.26000 3.566
54.28000 3.516
54.30000 2.902
54.32000 0.829
54.34000 2.705
54.36000 -2.403
54.38000 1.366
54.40000 7.296
54.42000 2.199
54.44000 3.468
54.46000 7.110
54.48000 2.251
54.50000 -0.221
54.52000 1.058
54.54000 5.283
54.56000 3.927
54.58000 4.752
54.60000 2.149
54.62000 2.094
54.64000 2.638
54.66000 3.062
54.68000 1.268
54.70000 -1.938
54.72000 1.151
54.74000 3.600
54.76000 1.746
54.78000 0.686
54.80000 2.200
54.82000 4.394
54.84000 6.461
54.86000 4.247
54.88000 7.809
54.90000 9.553
54.92000 9.463
54.94000 5.161
54.96000 3.566
54.98000 0.812
55.00000 1.089
55.02000 5.023
55.04000 2.021
55.06000 -2.550
55.08000 6.767
55.10000 8.108
55.12000 8.164
55.14000 6.813
55.16000 7.212
55.18000 3.616
55.20000 2.258
55.22000 1.467
55.24000 5.124
55.26000 7.857
55.28000 4.446
55.30000 3.590
55.32000 5.955
55.34000 7.034
55.36000 5.080
55.38000 8.058
55.40000 8.428
55.42000 4.342
55.44000 3.587
55.46000 5.583
55.48000 7.244
55.50000 6.635
55.52000 2.651
55.54000 2.006
55.56000 0.963
55.58000 3.694
55.60000 3.089
55.62000 4.600
55.64000 5.181
55.66000 3.458
55.68000 7.401
55.70000 4.687
55.72000 2.158
55.74000 4.350
55.76000 5.274
55.78000 1.051
55.80000 0.436
55.82000 1.466
55.84000 5.053
55.86000 -1.114
55.88000 -0.876
55.90000 1.685
55.92000 6.424
55.94000 2.000
55.96000 -0.691
55.98000 4.356
56.00000 4.470
56.02000 3.763
56.04000 7.269
56.06000 5.281
56.08000 2.901
56.10000 1.854
56.12000 2.964
56.14000 -0.162
56.16000 -0.082
56.18000 3.201
56.20000 2.290
56.22000 2.840
56.24000 4.128
56.26000 5.641
56.28000 4.977
56.30000 0.934
56.32000 -1.878
56.34000 4.022
56.36000 2.041
56.38000 3.043
56.40000 2.594
56.42000 1.181
56.44000 4.653
56.46000 7.294
56.48000 4.104
56.50000 4.471
56.52000 3.784
56.54000 2.785
56.56000 3.601
56.58000 3.846
56.60000 8.207
56.62000 1.389
56.64000 -1.163
56.66000 -1.137
56.68000 1.835
56.70000 6.581
56.72000 3.783
56.74000 1.375
56.76000 2.334
56.78000 5.343
56.80000 6.165
56.82000 4.876
56.84000 2.991
56.86000 4.787
56.88000 3.328
56.90000 2.422
56.92000 2.197
56.94000 5.070
56.96000 2.173
56.98000 1.719
57.00000 -2.397
57.02000 0.790
57.04000 4.086
57.06000 5.025
57.08000 -0.700
57.10000 -1.130
57.12000 -2.537
57.14000 -0.226
57.16000 1.794
57.18000 0.728
57.20000 1.405
57.22000 1.081
57.24000 4.242
57.26000 3.198
57.28000 5.179
57.30000 3.676
57.32000 3.534
57.34000 1.746
57.36000 -0.389
57.38000 -1.082
57.40000 -0.834
57.42000 -1.149
57.44000 1.057
57.46000 5.060
57.48000 4.248
57.50000 7.032
57.52000 5.023
57.54000 6.010
57.56000 7.637
57.58000 4.654
57.60000 2.514
57.62000 -1.937
57.64000 0.205
57.66000 2.302
57.68000 3.642
57.70000 5.846
57.72000 5.498
57.74000 1.068
57.76000 0.395
57.78000 1.277
57.80000 0.720
57.82000 0.790
57.84000 2.799
57.86000 1.511
57.88000 2.285
57.90000 -0.145
57.92000 2.397
57.94000 1.206
57.96000 -1.370
57.98000 2.549
58.00000 3.258
58.02000 2.728
58.04000 0.854
58.06000 4.348
58.08000 4.876
58.10000 -0.590
58.12000 0.801
58.14000 -1.597
58.16000 1.966
58.18000 -0.791
58.20000 1.357
58.22000 2.175
58.24000 2.550
58.26000 5.465
58.28000 5.216
58.30000 2.205
58.32000 4.778
58.34000 3.811
58.36000 2.522
58.38000 1.717
58.40000 1.289
58.42000 6.150
58.44000 5.790
58.46000 3.935
58.48000 0.979
58.50000 -0.238
58.52000 -1.933
58.54000 1.286
58.56000 3.576
58.58000 1.242
58.60000 4.121
58.62000 0.400
58.64000 -0.124
58.66000 0.582
58.68000 1.039
58.70000 3.711
58.72000 8.046
58.74000 2.187
58.76000 0.248
58.78000 4.632
58.80000 2.759
58.82000 -2.485
58.84000 -1.762
58.86000 1.145
58.88000 3.483
58.90000 1.462
58.92000 0.960
58.94000 -0.161
58.96000 -0.779
58.98000 2.280
59.00000 1.597
59.02000 -2.134
59.04000 0.075
59.06000 -1.099
59.08000 1.353
59.10000 7.220
59.12000 5.628
59.14000 4.935
59.16000 6.789
59.18000 7.810
59.20000 6.692
59.22000 1.583
59.24000 1.702
59.26000 1.634
59.28000 2.585
59.30000 2.326
59.32000 2.749
59.34000 3.922
59.36000 2.702
59.38000 3.152
59.40000 1.948
59.42000 4.671
59.44000 5.364
59.46000 3.299
59.48000 3.102
59.50000 3.668
59.52000 4.839
59.54000 5.795
59.56000 1.871
59.58000 -0.529
59.60000 2.911
59.62000 6.743
59.64000 3.999
59.66000 4.024
59.68000 4.781
59.70000 6.372
59.72000 6.375
59.74000 5.510
59.76000 4.264
59.78000 4.310
59.80000 4.765
59.82000 7.125
59.84000 4.469
59.86000 1.494
59.88000 1.817
59.90000 3.710
59.92000 1.063
59.94000 0.933
59.96000 3.132
59.98000 3.701
60.00000 0.802
60.02000 0.916
60.04000 3.351
60.06000 -0.531
60.08000 3.608
60.10000 4.835
60.12000 0.595
60.14000 2.601
60.16000 2.169
60.18000 -1.669
60.20000 1.505
60.22000 6.116
60.24000 5.482
60.26000 3.005
60.28000 2.779
60.30000 4.081
60.32000 3.464
60.34000 4.307
60.36000 6.339
60.38000 7.902
60.40000 3.933
60.42000 3.860
60.44000 4.337
60.46000 2.730
60.48000 2.177
60.50000 4.723
60.52000 2.328
60.54000 1.819
60.56000 6.431
60.58000 7.830
60.60000 1.681
60.62000 -2.431
60.64000 -1.395
60.66000 -0.978
60.68000 3.819
60.70000 6.231
60.72000 5.353
60.74000 2.746
60.76000 3.531
60.78000 1.855
60.80000 2.826
60.82000 3.999
60.84000 3.718
60.86000 4.412
60.88000 3.238
60.90000 5.276
60.92000 3.251
60.94000 3.368
60.96000 3.699
60.98000 0.873
61.00000 2.601
61.02000 3.434
61.04000 5.513
61.06000 4.278
61.08000 3.643
61.10000 6.985
61.12000 7.424
61.14000 3.843
61.16000 2.420
61.18000 2.748
61.20000 5.392
61.22000 5.994
61.24000 6.263
61.26000 7.463
61.28000 5.665
61.30000 2.408
61.32000 1.171
61.34000 0.752
61.36000 -0.225
61.38000 2.307
61.40000 2.003
61.42000 1.880
61.44000 5.618
61.46000 9.066
61.48000 6.890
61.50000 3.004
61.52000 2.848
61.54000 6.769
61.56000 5.348
61.58000 1.126
61.60000 4.089
61.62000 4.239
61.64000 2.521
61.66000 3.527
61.68000 3.815
61.70000 3.536
61.72000 4.626
61.74000 3.501
61.76000 3.294
61.78000 4.377
61.80000 5.519
61.82000 6.086
61.84000 5.380
61.86000 2.370
61.88000 2.180
61.90000 0.473
61.92000 -2.405
61.94000 -0.631
61.96000 2.256
61.98000 5.230
62.00000 5.778
62.02000 7.114
62.04000 9.285
62.06000 6.013
62.08000 2.995
62.10000 4.417
62.12000 9.268
62.14000 5.058
62.16000 3.335
62.18000 0.681
62.20000 2.713
62.22000 8.857
62.24000 6.744
62.26000 1.236
62.28000 2.322
62.30000 -0.026
62.32000 2.360
62.34000 1.706
62.36000 -0.021
62.38000 2.953
62.40000 -1.324
62.42000 1.246
62.44000 3.603
62.46000 4.014
62.48000 3.613
62.50000 3.176
62.52000 0.470
62.54000 1.776
62.56000 1.780
62.58000 3.146
62.60000 -0.423
62.62000 1.612
62.64000 3.739
62.66000 2.738
62.68000 5.849
62.70000 5.562
62.72000 3.007
62.74000 3.671
62.76000 0.880
62.78000 1.150
62.80000 2.562
62.82000 0.774
62.84000 2.793
62.86000 1.488
62.88000 -0.974
62.90000 0.408
62.92000 -0.452
62.94000 0.044
62.96000 -0.348
62.98000 2.052
63.00000 2.296
63.02000 2.553
63.04000 1.190
63.06000 -1.249
63.08000 1.591
63.10000 4.676
63.12000 3.239
63.14000 1.664
63.16000 -0.983
63.18000 3.261
63.20000 3.641
63.22000 2.881
63.24000 4.254
63.26000 0.302
63.28000 3.562
63.30000 -1.023
63.32000 0.112
63.34000 0.190
63.36000 0.802
63.38000 -0.202
63.40000 2.640
63.42000 2.209
63.44000 3.954
63.46000 5.648
63.48000 3.490
63.50000 3.324
63.52000 1.301
63.54000 0.276
63.56000 -2.378
63.58000 2.710
63.60000 2.911
63.62000 -0.777
63.64000 2.224
63.66000 4.066
63.68000 1.576
63.70000 2.383
63.72000 4.905
63.74000 4.978
63.76000 2.068
63.78000 2.814
63.80000 5.530
63.82000 6.388
63.84000 5.364
63.86000 5.876
63.88000 4.495
63.90000 1.152
63.92000 1.614
63.94000 3.787
63.96000 4.355
63.98000 0.353
64.00000 2.949
64.02000 3.458
64.04000 3.567
64.06000 3.664
64.08000 3.121
64.10000 4.483
64.12000 4.023
64.14000 4.232
64.16000 7.901
64.18000 5.360
64.20000 2.989
64.22000 2.027
64.24000 3.707
64.26000 4.313
64.28000 5.877
64.30000 4.066
64.32000 2.255
64.34000 1.190
64.36000 2.188
64.38000 -2.352
64.40000 2.564
64.42000 6.659
64.44000 6.589
64.46000 4.306
64.48000 1.507
64.50000 2.554
64.52000 2.160
64.54000 1.174
64.56000 -0.257
64.58000 1.429
64.60000 5.340
64.62000 4.963
64.64000 2.136
64.66000 3.377
64.68000 1.908
64.70000 1.174
64.72000 4.873
64.74000 7.126
64.76000 3.895
64.78000 -0.348
64.80000 -0.472
64.82000 1.320
64.84000 0.126
64.86000 -1.196
64.88000 2.003
64.90000 -1.353
64.92000 -2.381
64.94000 -2.130
64.96000 -2.156
64.98000 1.685
65.00000 1.784
65.02000 0.886
65.04000 -0.618
65.06000 -1.058
65.08000 -0.116
65.10000 4.255
65.12000 4.634
65.14000 3.914
65.16000 1.978
65.18000 0.330
65.20000 -0.336
65.22000 2.405
65.24000 3.799
65.26000 0.615
65.28000 2.473
65.30000 -0.628
65.32000 -2.405
65.34000 0.089
65.36000 0.565
65.38000 2.489
65.40000 2.486
65.42000 1.874
65.44000 -0.577
65.46000 1.867
65.48000 0.438
65.50000 0.571
65.52000 1.662
65.54000 2.503
65.56000 2.029
65.58000 2.456
65.60000 0.245
65.62000 2.004
65.64000 0.309
65.66000 -2.405
65.68000 -0.497
65.70000 -1.727
65.72000 0.068
65.74000 -0.676
65.76000 0.937
65.78000 -2.243
65.80000 0.394
65.82000 3.348
65.84000 1.675
65.86000 0.379
65.88000 2.418
65.90000 0.121
65.92000 -1.230
65.94000 4.666
65.96000 3.716
65.98000 2.505
66.00000 -2.423
66.02000 -0.792
66.04000 1.776
66.06000 2.626
66.08000 4.165
66.10000 5.537
66.12000 4.579
66.14000 3.430
66.16000 4.325
66.18000 2.270
66.20000 3.532
66.22000 6.243
66.24000 2.954
66.26000 1.444
66.28000 0.734
66.30000 2.092
66.32000 6.625
66.34000 3.497
66.36000 -2.432
66.38000 -1.646
66.40000 5.009
66.42000 4.224
66.44000 3.588
66.46000 3.359
66.48000 4.235
66.50000 1.691
66.52000 2.227
66.54000 2.319
66.56000 1.502
66.58000 5.928
66.60000 5.641
66.62000 4.451
66.64000 4.146
66.66000 0.586
66.68000 1.182
66.70000 5.236
66.72000 4.339
66.74000 6.675
66.76000 4.867
66.78000 4.842
66.80000 2.576
66.82000 4.051
66.84000 6.671
66.86000 7.373
66.88000 5.481
66.90000 7.677
66.92000 6.113
66.94000 6.963
66.96000 5.169
66.98000 8.655
67.00000 8.710
67.02000 7.251
67.04000 6.803
67.06000 11.529
67.08000 9.779
67.10000 9.638
67.12000 13.420
67.14000 10.516
67.16000 7.287
67.18000 8.827
67.20000 7.580
67.22000 8.537
67.24000 10.226
67.26000 9.123
67.28000 11.463
67.30000 11.217
67.32000 12.521
67.34000 12.932
67.36000 14.771
67.38000 13.361
67.40000 10.278
67.42000 9.624
67.44000 11.813
67.46000 13.138
67.48000 13.994
67.50000 11.728
67.52000 10.672
67.54000 13.175
67.56000 13.795
67.58000 11.390
67.60000 11.575
67.62000 11.031
67.64000 11.481
67.66000 15.673
67.68000 16.025
67.70000 17.446
67.72000 16.780
67.74000 17.561
67.76000 16.397
67.78000 15.556
67.80000 16.447
67.82000 17.461
67.84000 17.380
67.86000 16.704
67.88000 14.236
67.90000 14.572
67.92000 14.023
67.94000 14.702
67.96000 19.073
67.98000 20.976
68.00000 18.889
68.02000 17.548
68.04000 14.757
68.06000 15.297
68.08000 12.783
68.10000 17.588
68.12000 17.260
68.14000 15.138
68.16000 14.521
68.18000 15.431
68.20000 15.293
68.22000 13.422
68.24000 13.547
68.26000 12.472
68.28000 12.976
68.30000 14.648
68.32000 14.314
68.34000 13.269
68.36000 13.924
68.38000 10.410
68.40000 9.881
68.42000 12.570
68.44000 12.520
68.46000 9.586
68.48000 8.948
68.50000 10.262
68.52000 8.710
68.54000 8.195
68.56000 10.128
68.58000 9.277
68.60000 7.300
68.62000 6.591
68.64000 4.745
68.66000 5.128
68.68000 6.404
68.70000 7.546
68.72000 7.146
68.74000 4.290
68.76000 2.617
68.78000 3.340
68.80000 5.814
68.82000 6.734
68.84000 5.979
68.86000 4.843
68.88000 2.663
68.90000 2.555
68.92000 0.995
68.94000 5.006
68.96000 7.605
68.98000 4.515
69.00000 4.121
69.02000 4.110
69.04000 5.882
69.06000 3.542
69.08000 3.809
69.10000 3.888
69.12000 4.392
69.14000 2.641
69.16000 2.960
69.18000 4.461
69.20000 3.110
69.22000 5.497
69.24000 3.402
69.26000 3.081
69.28000 1.340
69.30000 0.276
69.32000 -2.275
69.34000 -1.749
69.36000 -0.845
69.38000 2.074
69.40000 4.140
69.42000 1.715
69.44000 1.197
69.46000 1.872
69.48000 1.979
69.50000 2.618
69.52000 2.764
69.54000 0.801
69.56000 2.544
69.58000 0.757
69.60000 1.418
69.62000 -0.121
69.64000 -0.198
69.66000 0.281
69.68000 -0.547
69.70000 -2.254
69.72000 1.042
69.74000 2.958
69.76000 2.653
69.78000 1.084
69.80000 -1.103
69.82000 -0.899
69.84000 -0.028
69.86000 -0.615
69.88000 -0.402
69.90000 4.409
69.92000 3.441
69.94000 -0.365
69.96000 -1.437
69.98000 -1.197
70.00000 0.776
70.02000 -1.141
70.04000 1.571
70.06000 -0.147
70.08000 -0.174
70.10000 0.609
70.12000 1.144
70.14000 3.257
70.16000 5.011
70.18000 1.399
70.20000 -0.603
70.22000 -0.834
70.24000 -1.354
70.26000 -1.047
70.28000 0.479
70.30000 -1.060
70.32000 -2.088
70.34000 -0.354
70.36000 -0.120
70.38000 -2.217
70.40000 0.307
70.42000 0.561
70.44000 1.593
70.46000 0.251
70.48000 2.015
70.50000 1.138
70.52000 1.549
70.54000 2.943
70.56000 2.809
70.58000 1.379
70.60000 0.011
70.62000 0.273
70.64000 -0.071
70.66000 0.002
70.68000 2.198
70.70000 1.327
70.72000 1.100
70.74000 -0.528
70.76000 0.075
70.78000 3.675
70.80000 2.256
70.82000 2.500
70.84000 1.521
70.86000 4.071
70.88000 2.432
70.90000 2.131
70.92000 2.088
70.94000 1.368
70.96000 2.518
70.98000 1.843
71.00000 3.317
71.02000 1.306
71.04000 2.788
71.06000 2.482
71.08000 0.404
71.10000 -0.415
71.12000 -2.148
71.14000 2.706
71.16000 3.712
71.18000 2.250
71.20000 3.705
71.22000 2.511
71.24000 0.679
71.26000 2.506
71.28000 1.071
71.30000 2.363
71.32000 5.521
71.34000 6.466
71.36000 3.556
71.38000 3.816
71.40000 4.502
71.42000 1.778
71.44000 3.361
71.46000 4.624
71.48000 5.034
71.50000 4.464
71.52000 2.375
71.54000 1.705
71.56000 1.572
71.58000 0.856
71.60000 0.409
71.62000 -0.135
71.64000 -1.517
71.66000 -0.259
71.68000 1.926
71.70000 2.046
71.72000 1.438
71.74000 0.198
71.76000 -0.768
71.78000 0.277
71.80000 0.507
71.82000 1.429
71.84000 1.565
71.86000 0.770
71.88000 4.241
71.90000 4.385
71.92000 0.694
71.94000 1.373
71.96000 3.841
71.98000 3.557
72.00000 -1.678
72.02000 -1.749
72.04000 -2.121
72.06000 -1.426
72.08000 -0.487
72.10000 1.808
72.12000 4.144
72.14000 1.925
72.16000 -0.684
72.18000 0.337
72.20000 1.069
72.22000 3.182
72.24000 3.918
72.26000 1.980
72.28000 3.144
72.30000 0.123
72.32000 -0.190
72.34000 0.578
72.36000 1.769
72.38000 -1.728
72.40000 0.849
72.42000 1.793
72.44000 0.328
72.46000 -1.793
72.48000 1.918
72.50000 3.907
72.52000 5.165
72.54000 2.966
72.56000 1.715
72.58000 1.972
72.60000 3.832
72.62000 3.541
72.64000 -0.186
72.66000 1.335
72.68000 3.032
72.70000 3.509
72.72000 4.543
72.74000 1.775
72.76000 1.138
72.78000 -1.274
72.80000 0.016
72.82000 3.235
72.84000 3.268
72.86000 2.239
72.88000 2.747
72.90000 1.430
72.92000 1.681
72.94000 2.156
72.96000 3.877
72.98000 6.791
73.00000 4.962
73.02000 4.188
73.04000 2.255
73.06000 3.753
73.08000 3.350
73.10000 2.289
73.12000 0.062
73.14000 -2.055
73.16000 3.546
73.18000 3.019
73.20000 0.997
73.22000 2.955
73.24000 2.328
73.26000 2.023
73.28000 0.639
73.30000 2.095
73.32000 5.861
73.34000 5.585
73.36000 2.973
73.38000 2.122
73.40000 2.760
73.42000 4.090
73.44000 4.621
73.46000 -1.034
73.48000 -1.599
73.50000 -0.939
73.52000 -0.517
73.54000 2.875
73.56000 1.560
73.58000 3.039
73.60000 -0.156
73.62000 0.323
73.64000 1.121
73.66000 0.997
73.68000 1.261
73.70000 1.705
73.72000 3.673
73.74000 0.998
73.76000 -1.045
73.78000 -0.442
73.80000 0.558
73.82000 1.716
73.84000 -0.822
73.86000 0.671
73.88000 3.235
73.90000 -1.128
73.92000 1.260
73.94000 5.452
73.96000 4.562
73.98000 1.491
74.00000 -0.938
74.02000 1.469
74.04000 -1.907
74.06000 -1.563
74.08000 1.387
74.10000 3.064
74.12000 -0.761
74.14000 -1.907
74.16000 -0.068
74.18000 2.550
74.20000 0.883
74.22000 -2.094
74.24000 1.434
74.26000 1.525
74.28000 0.539
74.30000 0.426
74.32000 1.104
74.34000 0.876
74.36000 -0.190
74.38000 0.134
74.40000 2.752
74.42000 -0.096
74.44000 -1.746
74.46000 0.315
74.48000 -0.031
74.50000 2.297
74.52000 0.189
74.54000 -0.483
74.56000 -0.472
74.58000 0.591
74.60000 -0.046
74.62000 -2.083
74.64000 -0.721
74.66000 0.661
74.68000 0.425
74.70000 -1.089
74.72000 0.263
74.74000 -0.102
74.76000 3.170
74.78000 -0.146
74.80000 0.817
74.82000 -1.004
74.84000 2.755
74.86000 0.536
74.88000 -0.007
74.90000 2.531
74.92000 3.676
74.94000 2.605
74.96000 0.150
74.98000 0.085
75.00000 3.210
75.02000 5.166
75.04000 4.752
75.06000 0.891
75.08000 4.786
75.10000 2.581
75.12000 1.613
75.14000 2.381
75.16000 1.634
75.18000 3.005
75.20000 2.570
75.22000 2.274
75.24000 0.218
75.26000 -0.988
75.28000 0.781
75.30000 2.077
75.32000 0.869
75.34000 -0.683
75.36000 1.619
75.38000 -0.662
75.40000 2.127
75.42000 0.156
75.44000 0.474
75.46000 5.545
75.48000 3.809
75.50000 0.806
75.52000 2.038
75.54000 6.709
75.56000 3.348
75.58000 3.357
75.60000 1.473
75.62000 -1.001
75.64000 -1.972
75.66000 3.529
75.68000 7.914
75.70000 6.515
75.72000 3.477
75.74000 4.024
75.76000 3.292
75.78000 5.061
75.80000 5.703
75.82000 1.029
75.84000 -2.031
75.86000 1.371
75.88000 5.114
75.90000 7.149
75.92000 7.748
75.94000 4.144
75.96000 6.045
75.98000 5.064
76.00000 2.346
76.02000 3.305
76.04000 6.029
76.06000 5.407
76.08000 3.736
76.10000 5.074
76.12000 5.226
76.14000 1.860
76.16000 5.007
76.18000 3.892
76.20000 3.850
76.22000 1.391
76.24000 3.180
76.26000 0.969
76.28000 2.181
76.30000 1.897
76.32000 2.155
76.34000 0.016
76.36000 1.292
76.38000 -0.096
76.40000 2.390
76.42000 2.123
76.44000 0.951
76.46000 2.112
76.48000 1.395
76.50000 1.289
76.52000 1.825
76.54000 2.261
76.56000 3.803
76.58000 2.403
76.60000 2.937
76.62000 0.253
76.64000 1.436
76.66000 2.446
76.68000 0.801
76.70000 -2.090
76.72000 1.649
76.74000 2.056
76.76000 2.622
76.78000 1.168
76.80000 -1.118
76.82000 0.226
76.84000 1.558
76.86000 0.747
76.88000 -0.477
76.90000 0.695
76.92000 1.971
76.94000 2.819
76.96000 1.268
76.98000 -0.580
77.00000 -0.520
77.02000 0.217
77.04000 -1.281
77.06000 0.017
77.08000 -2.097
77.10000 -0.433
77.12000 1.176
77.14000 -0.075
77.16000 1.053
77.18000 0.954
77.20000 -0.601
77.22000 1.361
77.24000 2.173
77.26000 1.174
77.28000 1.394
77.30000 0.818
77.32000 2.851
77.34000 2.105
77.36000 -0.010
77.38000 1.679
77.40000 1.505
77.42000 -0.005
77.44000 1.160
77.46000 -0.940
77.48000 -2.098
77.50000 -1.639
77.52000 -0.251
77.54000 2.531
77.56000 4.365
77.58000 3.461
77.60000 4.581
77.62000 5.829
77.64000 3.121
77.66000 1.309
77.68000 4.404
77.70000 2.943
77.72000 1.477
77.74000 3.314
77.76000 2.480
77.78000 5.499
77.80000 0.826
77.82000 1.370
77.84000 3.409
77.86000 3.529
77.88000 -1.781
77.90000 -2.073
77.92000 -0.359
77.94000 2.114
77.96000 1.214
77.98000 2.266
78.00000 4.202
78.02000 1.520
78.04000 3.667
78.06000 3.326
78.08000 2.387
78.10000 4.139
78.12000 2.875
78.14000 -0.170
78.16000 3.150
78.18000 3.840
78.20000 5.979
78.22000 4.514
78.24000 1.879
78.26000 1.636
78.28000 -2.105
78.30000 -1.236
78.32000 -1.804
78.34000 1.676
78.36000 4.239
78.38000 4.169
78.40000 3.807
78.42000 4.967
78.44000 3.914
78.46000 1.586
78.48000 1.745
78.50000 6.308
78.52000 2.614
78.54000 0.581
78.56000 0.935
78.58000 2.639
78.60000 2.072
78.62000 3.303
78.64000 3.914
78.66000 1.750
78.68000 1.121
78.70000 0.190
78.72000 2.339
78.74000 5.905
78.76000 6.343
78.78000 3.308
78.80000 3.078
78.82000 5.860
78.84000 8.244
78.86000 3.618
78.88000 1.528
78.90000 -0.157
78.92000 1.700
78.94000 1.288
78.96000 1.383
78.98000 4.416
79.00000 3.864
79.02000 5.940
79.04000 9.492
79.06000 5.386
79.08000 4.068
79.10000 2.102
79.12000 -2.080
79.14000 3.324
79.16000 2.526
79.18000 4.152
79.20000 3.236
79.22000 2.880
79.24000 4.212
79.26000 6.637
79.28000 5.364
79.30000 3.033
79.32000 2.514
79.34000 -0.063
79.36000 5.864
79.38000 7.989
79.40000 5.836
79.42000 5.621
79.44000 4.020
79.46000 4.079
79.48000 6.645
79.50000 6.226
79.52000 3.148
79.54000 1.511
79.56000 2.847
79.58000 3.202
79.60000 3.992
79.62000 3.421
79.64000 -0.679
79.66000 1.769
79.68000 3.907
79.70000 1.479
79.72000 1.202
79.74000 3.188
79.76000 2.313
79.78000 3.503
79.80000 4.615
79.82000 2.232
79.84000 3.897
79.86000 2.188
79.88000 4.680
79.90000 5.295
79.92000 2.812
79.94000 2.314
79.96000 1.356
79.98000 -0.198
80.00000 -0.923
80.02000 -2.223
80.04000 2.828
80.06000 7.068
80.08000 3.792
80.10000 2.027
80.12000 5.292
80.14000 5.543
80.16000 4.523
80.18000 2.528
80.20000 3.606
80.22000 3.183
80.24000 3.345
80.26000 1.128
80.28000 -0.498
80.30000 0.706
80.32000 8.141
80.34000 5.843
80.36000 4.180
80.38000 4.316
80.40000 5.461
80.42000 2.339
80.44000 2.590
80.46000 5.847
80.48000 1.890
80.50000 3.917
80.52000 6.328
80.54000 5.863
80.56000 1.554
80.58000 4.668
80.60000 4.593
80.62000 5.221
80.64000 6.954
80.66000 4.745
80.68000 3.051
80.70000 9.202
80.72000 11.838
80.74000 8.536
80.76000 6.077
80.78000 9.785
80.80000 8.840
80.82000 5.947
80.84000 10.193
80.86000 6.840
80.88000 6.919
80.90000 8.512
80.92000 10.625
80.94000 13.983
80.96000 10.357
80.98000 5.457
81.00000 6.088
81.02000 10.272
81.04000 14.280
81.06000 12.916
81.08000 10.785
81.10000 11.853
81.12000 13.024
81.14000 12.567
81.16000 11.494
81.18000 9.406
81.20000 8.288
81.22000 10.580
81.24000 11.916
81.26000 13.042
81.28000 12.382
81.30000 9.353
81.32000 15.629
81.34000 10.363
81.36000 11.342
81.38000 16.243
81.40000 17.850
81.42000 15.658
81.44000 16.240
81.46000 16.097
81.48000 15.049
81.50000 15.897
81.52000 20.599
81.54000 17.035
81.56000 18.777
81.58000 21.821
81.60000 20.056
81.62000 22.126
81.64000 21.811
81.66000 20.714
81.68000 21.084
81.70000 19.519
81.72000 18.620
81.74000 18.639
81.76000 21.639
81.78000 23.776
81.80000 21.834
81.82000 26.496
81.84000 22.743
81.86000 17.679
81.88000 19.333
81.90000 23.260
81.92000 20.058
81.94000 23.245
81.96000 24.563
81.98000 20.336
82.00000 19.195
82.02000 20.358
82.04000 19.970
82.06000 23.496
82.08000 21.179
82.10000 19.072
82.12000 16.756
82.14000 17.429
82.16000 17.365
82.18000 19.890
82.20000 16.761
82.22000 18.253
82.24000 20.848
82.26000 17.949
82.28000 15.908
82.30000 17.342
82.32000 17.145
82.34000 18.790
82.36000 16.769
82.38000 18.966
82.40000 14.873
82.42000 13.029
82.44000 12.235
82.46000 14.543
82.48000 14.359
82.50000 17.541
82.52000 18.139
82.54000 15.419
82.56000 9.554
82.58000 9.849
82.60000 10.921
82.62000 11.379
82.64000 9.089
82.66000 9.809
82.68000 9.868
82.70000 8.668
82.72000 6.686
82.74000 8.432
82.76000 5.168
82.78000 7.241
82.80000 5.879
82.82000 9.685
82.84000 8.106
82.86000 9.544
82.88000 6.157
82.90000 5.475
82.92000 6.582
82.94000 3.042
82.96000 2.614
82.98000 5.238
83.00000 5.489
83.02000 2.624
83.04000 3.253
83.06000 4.370
83.08000 4.774
83.10000 2.872
83.12000 2.221
83.14000 2.751
83.16000 0.792
83.18000 0.565
83.20000 3.754
83.22000 -1.858
83.24000 3.652
83.26000 5.778
83.28000 3.119
83.30000 3.940
83.32000 4.838
83.34000 -0.005
83.36000 1.403
83.38000 5.723
83.40000 4.150
83.42000 3.302
83.44000 -0.904
83.46000 -0.745
83.48000 0.869
83.50000 3.622
83.52000 3.943
83.54000 4.011
83.56000 0.303
83.58000 1.825
83.60000 1.496
83.62000 0.870
83.64000 -2.263
83.66000 1.012
83.68000 2.947
83.70000 2.420
83.72000 2.008
83.74000 0.582
83.76000 -0.418
83.78000 -0.386
83.80000 -0.096
83.82000 1.524
83.84000 1.220
83.86000 1.322
83.88000 -1.059
83.90000 -2.027
83.92000 -1.568
83.94000 -0.981
83.96000 1.554
83.98000 4.544
84.00000 3.119
84.02000 1.243
84.04000 0.951
84.06000 -1.639
84.08000 1.481
84.10000 1.380
84.12000 -2.212
84.14000 0.077
84.16000 2.295
84.18000 6.175
84.20000 1.878
84.22000 1.401
84.24000 0.991
84.26000 2.725
84.28000 4.066
84.30000 5.809
84.32000 -0.100
84.34000 2.640
84.36000 1.847
84.38000 -0.731
84.40000 -1.474
84.42000 2.095
84.44000 2.252
84.46000 -0.130
84.48000 0.589
84.50000 -2.227
84.52000 2.138
84.54000 2.077
84.56000 3.082
84.58000 3.072
84.60000 1.531
84.62000 1.840
84.64000 1.112
84.66000 -1.410
84.68000 0.276
84.70000 2.236
84.72000 3.877
84.74000 4.968
84.76000 5.021
84.78000 2.444
84.80000 3.371
84.82000 -2.248
84.84000 0.990
84.86000 4.814
84.88000 3.895
84.90000 2.463
84.92000 1.502
84.94000 5.468
84.96000 6.381
84.98000 3.236
85.00000 6.321
85.02000 9.012
85.04000 3.763
85.06000 5.519
85.08000 6.627
85.10000 3.699
85.12000 5.637
85.14000 6.852
85.16000 6.168
85.18000 8.173
85.20000 11.394
85.22000 9.864
85.24000 7.054
85.26000 9.910
85.28000 10.224
85.30000 6.548
85.32000 3.626
85.34000 7.224
85.36000 9.540
85.38000 10.464
85.40000 7.180
85.42000 4.833
85.44000 9.637
85.46000 14.321
85.48000 12.253
85.50000 12.265
85.52000 11.331
85.54000 14.541
85.56000 18.627
85.58000 20.577
85.60000 18.775
85.62000 16.715
85.64000 19.220
85.66000 17.925
85.68000 16.280
85.70000 17.013
85.72000 15.076
85.74000 17.801
85.76000 19.707
85.78000 18.930
85.80000 19.433
85.82000 14.505
85.84000 19.917
85.86000 25.619
85.88000 18.516
85.90000 17.932
85.92000 21.015
85.94000 25.303
85.96000 27.066
85.98000 23.617
86.00000 24.357
86.02000 25.244
86.04000 18.571
86.06000 19.419
86.08000 25.622
86.10000 24.733
86.12000 19.580
86.14000 22.813
86.16000 22.156
86.18000 23.709
86.20000 23.037
86.22000 20.594
86.24000 19.232
86.26000 17.382
86.28000 17.690
86.30000 18.182
86.32000 17.910
86.34000 17.234
86.36000 15.642
86.38000 15.985
86.40000 20.226
86.42000 17.660
86.44000 13.228
86.46000 13.112
86.48000 13.722
86.50000 13.013
86.52000 16.965
86.54000 17.670
86.56000 17.473
86.58000 12.897
86.60000 16.164
86.62000 16.213
86.64000 13.545
86.66000 12.071
86.68000 9.785
86.70000 8.293
86.72000 7.555
86.74000 4.601
86.76000 5.530
86.78000 8.952
86.80000 10.543
86.82000 7.419
86.84000 7.649
86.86000 8.328
86.88000 7.062
86.90000 4.060
86.92000 3.772
86.94000 8.346
86.96000 7.194
86.98000 4.647
87.00000 1.564
87.02000 -1.830
87.04000 3.059
87.06000 3.636
87.08000 6.555
87.10000 6.908
87.12000 4.061
87.14000 1.418
87.16000 0.446
87.18000 -1.311
87.20000 0.239
87.22000 2.276
87.24000 -1.463
87.26000 0.037
87.28000 3.134
87.30000 0.086
87.32000 1.642
87.34000 1.020
87.36000 0.772
87.38000 -2.118
87.40000 0.153
87.42000 0.236
87.44000 0.084
87.46000 1.958
87.48000 1.500
87.50000 3.344
87.52000 0.872
87.54000 1.417
87.56000 1.593
87.58000 -0.960
87.60000 1.157
87.62000 2.052
87.64000 1.456
87.66000 0.042
87.68000 0.581
87.70000 4.074
87.72000 0.173
87.74000 2.596
87.76000 3.569
87.78000 3.234
87.80000 2.984
87.82000 0.125
87.84000 -0.770
87.86000 0.157
87.88000 1.228
87.90000 6.552
87.92000 1.867
87.94000 -2.035
87.96000 -1.163
87.98000 2.337
88.00000 0.206
88.02000 1.711
88.04000 -0.678
88.06000 -0.264
88.08000 2.074
88.10000 3.668
88.12000 5.505
88.14000 1.127
88.16000 4.287
88.18000 1.407
88.20000 0.324
88.22000 3.147
88.24000 -0.830
88.26000 -1.963
88.28000 -1.987
88.30000 -1.985
88.32000 2.342
88.34000 3.854
88.36000 1.860
88.38000 1.841
88.40000 3.146
88.42000 1.869
88.44000 0.852
88.46000 3.809
88.48000 4.263
88.50000 0.350
88.52000 1.591
88.54000 3.952
88.56000 3.480
88.58000 3.796
88.60000 3.687
88.62000 5.167
88.64000 3.793
88.66000 3.403
88.68000 6.320
88.70000 5.545
88.72000 1.253
88.74000 -1.932
88.76000 1.734
88.78000 2.356
88.80000 0.654
88.82000 3.211
88.84000 4.388
88.86000 0.360
88.88000 1.993
88.90000 3.332
88.92000 2.297
88.94000 3.691
88.96000 5.585
88.98000 1.086
89.00000 4.151
89.02000 3.786
89.04000 3.542
89.06000 2.902
89.08000 2.541
89.10000 -0.350
89.12000 3.409
89.14000 6.757
89.16000 3.643
89.18000 1.528
89.20000 1.814
89.22000 4.625
89.24000 2.143
89.26000 0.545
89.28000 1.969
89.30000 3.827
89.32000 4.337
89.34000 7.211
89.36000 0.263
89.38000 0.350
89.40000 2.258
89.42000 2.703
89.44000 2.909
89.46000 4.160
89.48000 1.421
89.50000 2.723
89.52000 0.670
89.54000 -1.970
89.56000 0.649
89.58000 -1.110
89.60000 -0.201
89.62000 -1.497
89.64000 -0.122
89.66000 5.117
89.68000 5.545
89.70000 4.463
89.72000 -0.048
89.74000 -0.161
89.76000 -0.406
89.78000 -0.120
89.80000 0.277
89.82000 0.699
89.84000 -0.662
89.86000 1.949
89.88000 0.005
89.90000 2.330
89.92000 1.185
89.94000 0.237
89.96000 -0.165
89.98000 1.159
90.00000 1.751
90.02000 2.432
90.04000 3.515
90.06000 -0.444
90.08000 -1.245
90.10000 3.166
90.12000 3.569
90.14000 2.169
90.16000 2.369
90.18000 3.324
90.20000 0.640
90.22000 1.374
90.24000 -0.054
90.26000 -0.202
90.28000 -0.777
90.30000 0.567
90.32000 1.322
90.34000 2.330
90.36000 2.006
90.38000 0.930
90.40000 0.936
90.42000 -1.225
90.44000 1.111
90.46000 6.101
90.48000 5.322
90.50000 2.206
90.52000 1.035
90.54000 -0.254
90.56000 2.167
90.58000 0.818
90.60000 2.323
90.62000 0.684
90.64000 2.568
90.66000 1.951
90.68000 0.849
90.70000 1.274
90.72000 -0.071
90.74000 -0.205
90.76000 -0.145
90.78000 0.712
90.80000 1.809
90.82000 4.444
90.84000 3.061
90.86000 -0.050
90.88000 3.224
90.90000 1.446
90.92000 2.323
90.94000 1.843
90.96000 7.078
90.98000 4.490
91.00000 3.615
91.02000 0.435
91.04000 0.557
91.06000 0.624
91.08000 -0.277
91.10000 0.027
91.12000 -0.666
91.14000 2.729
91.16000 6.849
91.18000 4.720
91.20000 1.874
91.22000 0.308
91.24000 0.031
91.26000 0.686
91.28000 1.902
91.30000 -0.432
91.32000 -0.956
91.34000 -1.955
91.36000 3.294
91.38000 6.666
91.40000 3.445
91.42000 2.188
91.44000 1.188
91.46000 0.735
91.48000 4.030
91.50000 3.819
91.52000 2.117
91.54000 2.539
91.56000 4.661
91.58000 3.003
91.60000 -0.476
91.62000 -0.038
91.64000 0.041
91.66000 3.811
91.68000 1.466
91.70000 0.981
91.72000 4.973
91.74000 3.372
91.76000 4.126
91.78000 1.776
91.80000 -0.585
91.82000 0.688
91.84000 4.756
91.86000 2.330
91.88000 -1.732
91.90000 -0.052
91.92000 -1.941
91.94000 -1.430
91.96000 1.072
91.98000 3.153
92.00000 3.776
92.02000 5.393
92.04000 5.797
92.06000 3.105
92.08000 2.500
92.10000 2.235
92.12000 2.543
92.14000 2.774
92.16000 5.917
92.18000 5.452
92.20000 3.618
92.22000 1.565
92.24000 1.009
92.26000 0.806
92.28000 -0.697
92.30000 2.977
92.32000 4.360
92.34000 4.511
92.36000 3.038
92.38000 3.473
92.40000 2.153
92.42000 3.393
92.44000 2.424
92.46000 2.823
92.48000 4.661
92.50000 5.344
92.52000 5.464
92.54000 2.877
92.56000 1.630
92.58000 0.551
92.60000 2.226
92.62000 2.383
92.64000 2.213
92.66000 -0.252
92.68000 -1.930
92.70000 -0.711
92.72000 2.706
92.74000 3.547
92.76000 3.256
92.78000 3.330
92.80000 1.469
92.82000 0.930
92.84000 5.693
92.86000 6.168
92.88000 4.295
92.90000 3.884
92.92000 1.010
92.94000 2.976
92.96000 3.382
92.98000 -0.614
93.00000 -0.876
93.02000 0.596
93.04000 0.633
93.06000 1.311
93.08000 -0.777
93.10000 -0.165
93.12000 7.136
93.14000 7.247
93.16000 5.200
93.18000 5.097
93.20000 4.306
93.22000 4.010
93.24000 1.115
93.26000 0.896
93.28000 2.571
93.30000 6.644
93.32000 3.312
93.34000 0.123
93.36000 1.432
93.38000 1.779
93.40000 2.333
93.42000 1.853
93.44000 2.049
93.46000 0.511
93.48000 -1.924
93.50000 1.068
93.52000 5.338
93.54000 5.097
93.56000 3.049
93.58000 1.695
93.60000 -0.522
93.62000 1.493
93.64000 4.128
93.66000 3.729
93.68000 2.434
93.70000 2.702
93.72000 2.387
93.74000 5.538
93.76000 4.880
93.78000 2.410
93.80000 5.103
93.82000 5.462
93.84000 3.113
93.86000 0.238
93.88000 -0.424
93.90000 -0.629
93.92000 -1.168
93.94000 0.410
93.96000 6.824
93.98000 4.773
94.00000 1.370
94.02000 1.066
94.04000 2.521
94.06000 5.413
94.08000 3.105
94.10000 -0.760
94.12000 -1.887
94.14000 -1.940
94.16000 1.905
94.18000 5.355
94.20000 4.582
94.22000 3.437
94.24000 3.782
94.26000 5.398
94.28000 2.119
94.30000 0.293
94.32000 1.182
94.34000 2.824
94.36000 5.229
94.38000 5.214
94.40000 6.363
94.42000 6.624
94.44000 8.570
94.46000 5.282
94.48000 0.666
94.50000 1.778
94.52000 -1.955
94.54000 1.122
94.56000 0.904
94.58000 -0.171
94.60000 4.409
94.62000 2.760
94.64000 2.511
94.66000 1.567
94.68000 3.747
94.70000 4.420
94.72000 2.856
94.74000 2.606
94.76000 3.054
94.78000 2.090
94.80000 -0.918
94.82000 1.539
94.84000 3.295
94.86000 7.043
94.88000 5.428
94.90000 2.407
94.92000 2.649
94.94000 -0.483
94.96000 0.004
94.98000 2.424
95.00000 1.374
95.02000 1.308
95.04000 2.333
95.06000 0.836
95.08000 -0.935
95.10000 2.947
95.12000 0.000
95.14000 -1.474
95.16000 0.857
95.18000 4.570
95.20000 0.649
95.22000 -1.950
95.24000 1.729
95.26000 3.762
95.28000 5.509
95.30000 3.496
95.32000 2.519
95.34000 5.080
95.36000 4.320
95.38000 4.430
95.40000 4.661
95.42000 2.536
95.44000 5.422
95.46000 6.298
95.48000 -0.805
95.50000 -1.950
95.52000 3.212
95.54000 3.291
95.56000 0.363
95.58000 5.995
95.60000 2.788
95.62000 3.381
95.64000 6.202
95.66000 2.790
95.68000 3.039
95.70000 3.862
95.72000 2.257
95.74000 2.673
95.76000 -0.658
95.78000 0.217
95.80000 0.574
95.82000 2.917
95.84000 3.682
95.86000 0.412
95.88000 3.786
95.90000 6.308
95.92000 2.439
95.94000 4.618
95.96000 4.989
95.98000 4.047
96.00000 5.077
96.02000 7.753
96.04000 1.380
96.06000 0.992
96.08000 1.760
96.10000 0.279
96.12000 0.578
96.14000 -1.184
96.16000 -1.950
96.18000 0.287
96.20000 3.412
96.22000 6.537
96.24000 1.926
96.26000 -0.323
96.28000 -0.195
96.30000 -1.018
96.32000 -0.782
96.34000 2.383
96.36000 4.133
96.38000 0.593
96.40000 3.441
96.42000 7.993
96.44000 3.255
96.46000 4.784
96.48000 7.768
96.50000 7.244
96.52000 7.742
96.54000 3.901
96.56000 2.243
96.58000 0.978
96.60000 5.915
96.62000 7.209
96.64000 3.500
96.66000 2.786
96.68000 -0.718
96.70000 -1.654
96.72000 0.919
96.74000 3.395
96.76000 5.225
96.78000 3.976
96.80000 2.520
96.82000 2.705
96.84000 3.456
96.86000 1.559
96.88000 1.860
96.90000 5.098
96.92000 6.104
96.94000 5.637
96.96000 0.528
96.98000 2.058
97.00000 6.131
97.02000 1.885
97.04000 1.220
97.06000 4.103
97.08000 1.966
97.10000 3.707
97.12000 4.912
97.14000 7.178
97.16000 7.347
97.18000 7.480
97.20000 2.664
97.22000 -0.045
97.24000 5.082
97.26000 5.631
97.28000 2.447
97.30000 -0.252
97.32000 0.688
97.34000 0.091
97.36000 -1.884
97.38000 1.134
97.40000 4.166
97.42000 1.509
97.44000 0.852
97.46000 7.413
97.48000 2.729
97.50000 1.768
97.52000 0.479
97.54000 6.928
97.56000 8.611
97.58000 4.478
97.60000 7.346
97.62000 3.805
97.64000 1.253
97.66000 2.410
97.68000 2.119
97.70000 4.161
97.72000 -0.487
97.74000 3.271
97.76000 3.644
97.78000 1.570
97.80000 -0.376
97.82000 2.193
97.84000 1.896
97.86000 2.534
97.88000 8.363
97.90000 7.077
97.92000 7.687
97.94000 5.051
97.96000 4.720
97.98000 3.874
98.00000 2.496
98.02000 0.792
98.04000 2.793
98.06000 3.638
98.08000 0.754
98.10000 5.972
98.12000 8.499
98.14000 5.025
98.16000 4.774
98.18000 5.886
98.20000 5.834
98.22000 0.465
98.24000 0.431
98.26000 -0.004
98.28000 2.841
98.30000 4.404
98.32000 7.406
98.34000 6.878
98.36000 6.351
98.38000 0.801
98.40000 0.297
98.42000 -1.887
98.44000 0.309
98.46000 -0.683
98.48000 2.419
98.50000 6.991
98.52000 6.742
98.54000 6.475
98.56000 0.557
98.58000 -0.198
98.60000 6.662
98.62000 8.084
98.64000 6.390
98.66000 4.432
98.68000 3.298
98.70000 4.291
98.72000 0.752
98.74000 -1.872
98.76000 0.594
98.78000 5.695
98.80000 7.409
98.82000 7.399
98.84000 7.970
98.86000 6.339
98.88000 7.655
98.90000 5.713
98.92000 2.173
98.94000 5.943
98.96000 5.446
98.98000 4.528
99.00000 4.725
99.02000 2.225
99.04000 7.078
99.06000 3.479
99.08000 4.220
99.10000 13.119
99.12000 8.736
99.14000 5.694
99.16000 -0.425
99.18000 1.937
99.20000 14.206
99.22000 13.448
99.24000 10.118
99.26000 10.501
99.28000 9.723
99.30000 1.963
99.32000 -1.754
99.34000 -1.883
99.36000 6.798
99.38000 10.265
99.40000 4.348
99.42000 10.606
99.44000 1.633
99.46000 3.832
99.48000 5.378
99.50000 5.207
99.52000 2.831
99.54000 2.429
99.56000 6.564
99.58000 2.608
99.60000 2.347
99.62000 10.498
99.64000 11.697
99.66000 13.129
99.68000 4.804
99.70000 2.988
99.72000 1.300
99.74000 1.700
99.76000 8.790
99.78000 8.963
99.80000 7.003
99.82000 -1.887
99.84000 0.330
99.86000 -1.923
99.88000 -0.222
99.90000 5.464
99.92000 10.641
99.94000 2.878
99.96000 -2.078
99.98000 0.000
