'Id: "0011389" Comment: "Integrate frame 0011389_Au-Ir-Rh_Au-Rich_XRD_Mapping-186-0000.gfrmwith cursor Wedge Cursor #5" Operator: "B?rgel" Anode: "Cu" Wavelength: "1.5406" Scantype: "2Theta (TwoTheta)" TimePerStep: "1" X: "-9" Y: "4.5" Z: "5.95" 
10.00000 0.000
10.02000 5.730
10.04000 8.135
10.06000 10.309
10.08000 13.935
10.10000 20.128
10.12000 37.937
10.14000 26.351
10.16000 34.823
10.18000 25.510
10.20000 20.923
10.22000 23.664
10.24000 24.461
10.26000 19.409
10.28000 4.103
10.30000 8.896
10.32000 16.875
10.34000 14.885
10.36000 24.392
10.38000 24.501
10.40000 14.567
10.42000 17.042
10.44000 18.150
10.46000 11.842
10.48000 17.988
10.50000 14.305
10.52000 11.892
10.54000 19.731
10.56000 23.808
10.58000 32.341
10.60000 19.177
10.62000 8.084
10.64000 8.082
10.66000 2.329
10.68000 10.382
10.70000 20.657
10.72000 10.072
10.74000 16.482
10.76000 16.815
10.78000 8.497
10.80000 14.923
10.82000 25.816
10.84000 30.067
10.86000 5.823
10.88000 4.463
10.90000 13.703
10.92000 15.949
10.94000 15.192
10.96000 5.427
10.98000 15.960
11.00000 8.523
11.02000 11.451
11.04000 16.507
11.06000 21.770
11.08000 17.237
11.10000 32.137
11.12000 28.837
11.14000 30.377
11.16000 10.136
11.18000 0.117
11.20000 11.851
11.22000 16.782
11.24000 11.123
11.26000 28.494
11.28000 19.894
11.30000 11.376
11.32000 21.368
11.34000 18.260
11.36000 17.815
11.38000 10.220
11.40000 8.575
11.42000 6.014
11.44000 15.309
11.46000 22.341
11.48000 10.647
11.50000 7.227
11.52000 9.242
11.54000 4.686
11.56000 4.309
11.58000 16.199
11.60000 20.192
11.62000 24.202
11.64000 16.217
11.66000 20.328
11.68000 24.185
11.70000 19.012
11.72000 16.653
11.74000 14.294
11.76000 1.915
11.78000 3.232
11.80000 5.772
11.82000 5.197
11.84000 11.031
11.86000 14.544
11.88000 18.264
11.90000 13.711
11.92000 11.758
11.94000 18.387
11.96000 18.618
11.98000 10.916
12.00000 22.193
12.02000 7.024
12.04000 9.463
12.06000 11.666
12.08000 12.693
12.10000 16.869
12.12000 18.173
12.14000 14.658
12.16000 14.492
12.18000 8.526
12.20000 7.293
12.22000 11.970
12.24000 14.721
12.26000 8.097
12.28000 11.957
12.30000 20.592
12.32000 11.599
12.34000 3.797
12.36000 12.092
12.38000 9.232
12.40000 10.820
12.42000 8.865
12.44000 14.583
12.46000 18.992
12.48000 9.701
12.50000 12.243
12.52000 13.823
12.54000 9.352
12.56000 16.495
12.58000 18.794
12.60000 7.194
12.62000 5.883
12.64000 4.646
12.66000 9.823
12.68000 8.692
12.70000 9.024
12.72000 5.238
12.74000 3.721
12.76000 6.436
12.78000 22.510
12.80000 8.329
12.82000 12.084
12.84000 17.028
12.86000 16.602
12.88000 21.030
12.90000 22.691
12.92000 17.595
12.94000 12.936
12.96000 21.458
12.98000 17.497
13.00000 8.025
13.02000 13.010
13.04000 18.207
13.06000 14.163
13.08000 8.283
13.10000 8.546
13.12000 4.308
13.14000 18.628
13.16000 22.433
13.18000 21.350
13.20000 16.061
13.22000 9.504
13.24000 8.760
13.26000 10.211
13.28000 6.782
13.30000 18.095
13.32000 14.988
13.34000 20.633
13.36000 21.358
13.38000 25.751
13.40000 12.306
13.42000 4.506
13.44000 6.232
13.46000 9.222
13.48000 3.271
13.50000 4.290
13.52000 12.715
13.54000 7.777
13.56000 15.114
13.58000 23.670
13.60000 19.070
13.62000 16.460
13.64000 27.400
13.66000 22.336
13.68000 12.714
13.70000 2.056
13.72000 -0.538
13.74000 16.475
13.76000 18.562
13.78000 11.224
13.80000 7.213
13.82000 6.177
13.84000 8.950
13.86000 5.108
13.88000 11.082
13.90000 14.499
13.92000 3.617
13.94000 -4.481
13.96000 5.181
13.98000 11.362
14.00000 3.062
14.02000 10.297
14.04000 15.010
14.06000 14.112
14.08000 8.984
14.10000 10.147
14.12000 23.971
14.14000 20.697
14.16000 14.777
14.18000 10.948
14.20000 12.100
14.22000 10.189
14.24000 16.059
14.26000 19.154
14.28000 16.288
14.30000 11.403
14.32000 18.187
14.34000 15.185
14.36000 10.962
14.38000 9.247
14.40000 7.231
14.42000 7.765
14.44000 5.708
14.46000 2.509
14.48000 11.466
14.50000 12.312
14.52000 17.081
14.54000 9.739
14.56000 10.436
14.58000 14.702
14.60000 20.012
14.62000 21.235
14.64000 4.783
14.66000 -1.137
14.68000 6.521
14.70000 10.703
14.72000 13.023
14.74000 10.985
14.76000 11.076
14.78000 14.358
14.80000 12.539
14.82000 8.460
14.84000 9.410
14.86000 9.354
14.88000 16.810
14.90000 15.858
14.92000 8.663
14.94000 3.700
14.96000 9.160
14.98000 4.702
15.00000 5.861
15.02000 10.166
15.04000 14.648
15.06000 3.062
15.08000 -4.468
15.10000 1.413
15.12000 2.917
15.14000 8.458
15.16000 15.550
15.18000 15.592
15.20000 17.554
15.22000 10.832
15.24000 5.486
15.26000 0.009
15.28000 4.811
15.30000 4.218
15.32000 2.300
15.34000 5.222
15.36000 6.393
15.38000 11.529
15.40000 11.143
15.42000 10.115
15.44000 13.130
15.46000 9.713
15.48000 12.157
15.50000 12.162
15.52000 9.833
15.54000 11.454
15.56000 6.053
15.58000 5.980
15.60000 1.492
15.62000 9.711
15.64000 14.956
15.66000 10.985
15.68000 1.370
15.70000 6.591
15.72000 11.227
15.74000 7.953
15.76000 2.737
15.78000 3.460
15.80000 9.925
15.82000 11.652
15.84000 9.893
15.86000 10.872
15.88000 6.873
15.90000 4.158
15.92000 1.700
15.94000 -0.831
15.96000 0.324
15.98000 8.379
16.00000 5.009
16.02000 4.016
16.04000 6.362
16.06000 15.187
16.08000 2.711
16.10000 0.286
16.12000 5.971
16.14000 0.736
16.16000 10.150
16.18000 10.927
16.20000 7.619
16.22000 17.167
16.24000 12.525
16.26000 7.325
16.28000 -1.342
16.30000 -2.477
16.32000 13.753
16.34000 11.324
16.36000 9.058
16.38000 4.274
16.40000 13.534
16.42000 14.760
16.44000 15.127
16.46000 16.088
16.48000 12.778
16.50000 7.230
16.52000 6.875
16.54000 7.894
16.56000 1.748
16.58000 4.432
16.60000 8.914
16.62000 5.151
16.64000 8.037
16.66000 13.657
16.68000 18.507
16.70000 14.716
16.72000 10.145
16.74000 10.588
16.76000 5.716
16.78000 1.615
16.80000 3.634
16.82000 7.915
16.84000 5.763
16.86000 12.288
16.88000 7.616
16.90000 7.408
16.92000 7.187
16.94000 7.765
16.96000 7.470
16.98000 9.605
17.00000 8.605
17.02000 13.873
17.04000 10.476
17.06000 8.152
17.08000 9.335
17.10000 9.228
17.12000 2.501
17.14000 -4.375
17.16000 -0.673
17.18000 11.466
17.20000 10.153
17.22000 6.988
17.24000 2.383
17.26000 5.925
17.28000 15.727
17.30000 11.631
17.32000 6.344
17.34000 9.086
17.36000 7.990
17.38000 6.153
17.40000 5.541
17.42000 22.346
17.44000 13.972
17.46000 7.201
17.48000 11.770
17.50000 8.586
17.52000 7.395
17.54000 8.564
17.56000 7.547
17.58000 9.204
17.60000 8.425
17.62000 10.405
17.64000 5.301
17.66000 11.924
17.68000 8.663
17.70000 4.775
17.72000 11.876
17.74000 7.047
17.76000 2.370
17.78000 10.175
17.80000 5.382
17.82000 8.809
17.84000 15.325
17.86000 11.125
17.88000 10.883
17.90000 3.043
17.92000 6.742
17.94000 12.522
17.96000 15.924
17.98000 8.608
18.00000 10.022
18.02000 10.007
18.04000 3.918
18.06000 -4.300
18.08000 3.953
18.10000 9.564
18.12000 9.313
18.14000 12.676
18.16000 13.271
18.18000 11.188
18.20000 7.705
18.22000 2.319
18.24000 9.510
18.26000 15.182
18.28000 8.725
18.30000 7.135
18.32000 6.991
18.34000 15.789
18.36000 3.291
18.38000 -1.132
18.40000 3.343
18.42000 11.115
18.44000 12.430
18.46000 9.538
18.48000 13.840
18.50000 11.650
18.52000 14.353
18.54000 17.971
18.56000 17.081
18.58000 15.242
18.60000 10.939
18.62000 13.316
18.64000 15.097
18.66000 12.633
18.68000 13.366
18.70000 3.161
18.72000 1.348
18.74000 2.510
18.76000 0.834
18.78000 7.163
18.80000 5.202
18.82000 17.789
18.84000 18.271
18.86000 9.665
18.88000 9.714
18.90000 4.638
18.92000 5.335
18.94000 4.336
18.96000 -0.279
18.98000 -4.202
19.00000 2.934
19.02000 4.806
19.04000 7.700
19.06000 6.721
19.08000 4.671
19.10000 2.758
19.12000 -3.066
19.14000 3.064
19.16000 10.795
19.18000 10.316
19.20000 6.557
19.22000 10.340
19.24000 9.640
19.26000 5.088
19.28000 0.966
19.30000 7.137
19.32000 8.015
19.34000 1.402
19.36000 5.071
19.38000 5.640
19.40000 0.498
19.42000 5.428
19.44000 1.820
19.46000 -0.658
19.48000 0.355
19.50000 10.247
19.52000 11.603
19.54000 6.749
19.56000 0.468
19.58000 4.597
19.60000 4.048
19.62000 4.259
19.64000 2.989
19.66000 10.418
19.68000 9.134
19.70000 11.006
19.72000 14.189
19.74000 5.613
19.76000 -2.793
19.78000 1.275
19.80000 4.847
19.82000 5.426
19.84000 12.020
19.86000 14.911
19.88000 5.431
19.90000 -4.212
19.92000 7.047
19.94000 5.748
19.96000 2.586
19.98000 5.409
20.00000 6.035
20.02000 10.411
20.04000 9.025
20.06000 6.894
20.08000 8.349
20.10000 9.504
20.12000 10.460
20.14000 14.841
20.16000 8.513
20.18000 4.989
20.20000 2.351
20.22000 5.593
20.24000 9.090
20.26000 6.739
20.28000 6.725
20.30000 14.252
20.32000 8.415
20.34000 5.472
20.36000 9.889
20.38000 4.110
20.40000 3.915
20.42000 9.111
20.44000 4.978
20.46000 -0.460
20.48000 5.655
20.50000 3.087
20.52000 3.165
20.54000 5.687
20.56000 4.232
20.58000 3.613
20.60000 8.436
20.62000 10.683
20.64000 2.253
20.66000 6.426
20.68000 13.671
20.70000 10.967
20.72000 7.580
20.74000 9.397
20.76000 8.811
20.78000 13.690
20.80000 8.692
20.82000 -0.673
20.84000 0.547
20.86000 1.823
20.88000 9.986
20.90000 14.575
20.92000 10.171
20.94000 7.199
20.96000 8.846
20.98000 4.716
21.00000 0.011
21.02000 0.836
21.04000 7.451
21.06000 10.801
21.08000 10.677
21.10000 2.387
21.12000 9.765
21.14000 11.170
21.16000 9.705
21.18000 15.208
21.20000 7.172
21.22000 -0.467
21.24000 8.431
21.26000 11.412
21.28000 6.694
21.30000 6.559
21.32000 2.027
21.34000 -1.018
21.36000 -4.138
21.38000 -0.579
21.40000 -3.023
21.42000 5.426
21.44000 1.313
21.46000 10.959
21.48000 14.247
21.50000 6.394
21.52000 5.217
21.54000 10.212
21.56000 6.365
21.58000 2.743
21.60000 7.348
21.62000 11.001
21.64000 0.871
21.66000 2.931
21.68000 10.322
21.70000 9.824
21.72000 11.380
21.74000 5.170
21.76000 5.579
21.78000 5.313
21.80000 2.061
21.82000 2.290
21.84000 7.133
21.86000 8.088
21.88000 4.562
21.90000 1.876
21.92000 8.840
21.94000 8.365
21.96000 8.168
21.98000 8.928
22.00000 4.001
22.02000 7.546
22.04000 3.731
22.06000 7.400
22.08000 8.374
22.10000 5.393
22.12000 2.718
22.14000 4.590
22.16000 7.115
22.18000 4.592
22.20000 1.777
22.22000 3.841
22.24000 4.794
22.26000 8.003
22.28000 3.616
22.30000 8.737
22.32000 10.347
22.34000 12.051
22.36000 7.570
22.38000 6.870
22.40000 8.728
22.42000 7.512
22.44000 3.353
22.46000 6.168
22.48000 5.008
22.50000 7.142
22.52000 6.926
22.54000 6.154
22.56000 6.098
22.58000 5.258
22.60000 7.066
22.62000 3.737
22.64000 1.892
22.66000 5.798
22.68000 6.743
22.70000 10.527
22.72000 3.892
22.74000 7.042
22.76000 13.771
22.78000 8.930
22.80000 9.088
22.82000 6.788
22.84000 4.077
22.86000 4.210
22.88000 4.259
22.90000 10.599
22.92000 10.001
22.94000 2.294
22.96000 3.751
22.98000 2.890
23.00000 4.224
23.02000 4.106
23.04000 2.585
23.06000 0.502
23.08000 6.798
23.10000 8.212
23.12000 10.097
23.14000 6.563
23.16000 5.157
23.18000 6.268
23.20000 11.275
23.22000 -0.118
23.24000 -4.024
23.26000 7.110
23.28000 9.991
23.30000 13.040
23.32000 8.885
23.34000 7.283
23.36000 10.202
23.38000 3.856
23.40000 5.816
23.42000 17.836
23.44000 18.650
23.46000 8.335
23.48000 7.577
23.50000 3.897
23.52000 6.621
23.54000 5.287
23.56000 -0.705
23.58000 3.578
23.60000 3.251
23.62000 5.597
23.64000 2.446
23.66000 3.011
23.68000 6.657
23.70000 12.404
23.72000 11.452
23.74000 5.150
23.76000 2.988
23.78000 -1.340
23.80000 4.751
23.82000 4.868
23.84000 1.761
23.86000 3.713
23.88000 12.668
23.90000 7.643
23.92000 5.480
23.94000 2.598
23.96000 3.766
23.98000 5.159
24.00000 6.980
24.02000 2.198
24.04000 1.672
24.06000 3.095
24.08000 6.227
24.10000 6.054
24.12000 5.912
24.14000 9.764
24.16000 4.614
24.18000 -0.810
24.20000 1.750
24.22000 -0.791
24.24000 2.982
24.26000 6.672
24.28000 9.265
24.30000 6.054
24.32000 1.652
24.34000 4.398
24.36000 7.733
24.38000 9.925
24.40000 14.194
24.42000 9.918
24.44000 5.179
24.46000 3.178
24.48000 6.004
24.50000 1.786
24.52000 -1.704
24.54000 1.970
24.56000 5.451
24.58000 11.000
24.60000 6.455
24.62000 1.783
24.64000 3.354
24.66000 -0.909
24.68000 1.429
24.70000 3.767
24.72000 10.055
24.74000 2.942
24.76000 8.507
24.78000 5.357
24.80000 5.662
24.82000 9.146
24.84000 11.873
24.86000 9.269
24.88000 4.958
24.90000 5.858
24.92000 7.668
24.94000 6.848
24.96000 4.942
24.98000 7.676
25.00000 3.261
25.02000 4.930
25.04000 3.992
25.06000 -3.936
25.08000 -2.338
25.10000 0.124
25.12000 2.409
25.14000 1.849
25.16000 -0.576
25.18000 2.177
25.20000 2.456
25.22000 3.475
25.24000 7.242
25.26000 7.312
25.28000 3.694
25.30000 8.238
25.32000 4.435
25.34000 3.924
25.36000 8.176
25.38000 5.299
25.40000 7.323
25.42000 9.707
25.44000 4.703
25.46000 4.326
25.48000 7.813
25.50000 4.982
25.52000 7.976
25.54000 7.751
25.56000 8.687
25.58000 16.093
25.60000 8.469
25.62000 -1.682
25.64000 -0.423
25.66000 -3.911
25.68000 2.617
25.70000 4.474
25.72000 6.774
25.74000 3.852
25.76000 4.886
25.78000 4.837
25.80000 2.911
25.82000 5.240
25.84000 8.537
25.86000 3.646
25.88000 -1.014
25.90000 0.517
25.92000 3.503
25.94000 6.188
25.96000 1.179
25.98000 -3.903
26.00000 1.894
26.02000 3.720
26.04000 4.556
26.06000 2.597
26.08000 5.156
26.10000 -1.173
26.12000 -3.426
26.14000 4.165
26.16000 6.061
26.18000 2.833
26.20000 -0.446
26.22000 -1.446
26.24000 -3.141
26.26000 1.957
26.28000 2.085
26.30000 -0.378
26.32000 4.587
26.34000 6.401
26.36000 6.614
26.38000 3.384
26.40000 8.534
26.42000 7.224
26.44000 0.006
26.46000 5.904
26.48000 4.691
26.50000 4.585
26.52000 -2.680
26.54000 -0.390
26.56000 3.949
26.58000 4.704
26.60000 -3.066
26.62000 -1.076
26.64000 -0.087
26.66000 1.603
26.68000 -0.484
26.70000 1.070
26.72000 3.353
26.74000 4.171
26.76000 0.597
26.78000 4.057
26.80000 6.067
26.82000 0.590
26.84000 1.060
26.86000 -3.673
26.88000 0.217
26.90000 3.699
26.92000 -0.815
26.94000 -2.275
26.96000 1.195
26.98000 2.792
27.00000 0.182
27.02000 0.986
27.04000 1.155
27.06000 -1.206
27.08000 -3.002
27.10000 1.174
27.12000 7.323
27.14000 8.890
27.16000 1.445
27.18000 2.104
27.20000 2.545
27.22000 5.468
27.24000 5.051
27.26000 6.322
27.28000 -0.949
27.30000 5.075
27.32000 6.654
27.34000 6.948
27.36000 6.009
27.38000 5.544
27.40000 2.911
27.42000 1.720
27.44000 -0.903
27.46000 -3.834
27.48000 -1.915
27.50000 1.280
27.52000 2.465
27.54000 0.051
27.56000 0.235
27.58000 8.386
27.60000 0.824
27.62000 0.354
27.64000 6.399
27.66000 7.158
27.68000 1.346
27.70000 -1.202
27.72000 -0.021
27.74000 0.173
27.76000 2.528
27.78000 1.261
27.80000 1.095
27.82000 3.129
27.84000 1.704
27.86000 3.332
27.88000 3.747
27.90000 5.518
27.92000 5.071
27.94000 4.358
27.96000 7.316
27.98000 3.610
28.00000 0.656
28.02000 -1.327
28.04000 3.002
28.06000 -0.408
28.08000 4.092
28.10000 7.589
28.12000 9.365
28.14000 7.322
28.16000 7.076
28.18000 3.494
28.20000 5.682
28.22000 6.547
28.24000 1.086
28.26000 3.714
28.28000 8.851
28.30000 5.619
28.32000 2.528
28.34000 1.014
28.36000 3.944
28.38000 2.131
28.40000 1.291
28.42000 6.768
28.44000 3.833
28.46000 1.234
28.48000 6.033
28.50000 7.039
28.52000 8.665
28.54000 4.382
28.56000 0.041
28.58000 2.416
28.60000 7.183
28.62000 2.361
28.64000 3.354
28.66000 6.131
28.68000 2.715
28.70000 -3.742
28.72000 -0.393
28.74000 3.174
28.76000 6.750
28.78000 5.520
28.80000 4.549
28.82000 3.780
28.84000 6.868
28.86000 5.576
28.88000 7.264
28.90000 7.311
28.92000 4.250
28.94000 1.926
28.96000 2.557
28.98000 10.560
29.00000 8.148
29.02000 5.521
29.04000 4.831
29.06000 8.308
29.08000 8.278
29.10000 2.894
29.12000 0.885
29.14000 1.756
29.16000 0.978
29.18000 -2.043
29.20000 -3.736
29.22000 2.349
29.24000 5.564
29.26000 6.620
29.28000 0.292
29.30000 3.063
29.32000 5.129
29.34000 5.067
29.36000 7.377
29.38000 4.467
29.40000 2.481
29.42000 6.801
29.44000 8.026
29.46000 4.616
29.48000 3.606
29.50000 3.261
29.52000 2.070
29.54000 4.554
29.56000 5.013
29.58000 3.696
29.60000 4.220
29.62000 5.319
29.64000 7.878
29.66000 -0.240
29.68000 1.467
29.70000 6.029
29.72000 1.309
29.74000 0.182
29.76000 -0.347
29.78000 -0.381
29.80000 6.551
29.82000 10.465
29.84000 5.266
29.86000 0.171
29.88000 -2.709
29.90000 -0.830
29.92000 -0.373
29.94000 0.515
29.96000 1.531
29.98000 2.919
30.00000 3.341
30.02000 3.335
30.04000 -0.093
30.06000 -0.469
30.08000 1.526
30.10000 6.472
30.12000 2.200
30.14000 -1.466
30.16000 3.311
30.18000 2.530
30.20000 2.565
30.22000 0.809
30.24000 0.522
30.26000 1.303
30.28000 0.226
30.30000 4.479
30.32000 1.237
30.34000 0.233
30.36000 2.375
30.38000 -0.507
30.40000 -0.440
30.42000 2.627
30.44000 3.183
30.46000 3.114
30.48000 5.405
30.50000 7.965
30.52000 2.640
30.54000 4.524
30.56000 -0.298
30.58000 -2.038
30.60000 -2.008
30.62000 5.824
30.64000 9.982
30.66000 5.884
30.68000 3.270
30.70000 2.506
30.72000 3.421
30.74000 4.893
30.76000 6.653
30.78000 5.205
30.80000 4.477
30.82000 6.571
30.84000 3.978
30.86000 4.995
30.88000 -2.550
30.90000 -3.660
30.92000 3.168
30.94000 6.248
30.96000 3.494
30.98000 2.234
31.00000 5.196
31.02000 5.990
31.04000 2.124
31.06000 -0.488
31.08000 4.780
31.10000 5.025
31.12000 2.971
31.14000 2.582
31.16000 3.837
31.18000 6.800
31.20000 8.663
31.22000 10.368
31.24000 12.633
31.26000 5.754
31.28000 2.140
31.30000 1.227
31.32000 5.823
31.34000 6.820
31.36000 7.221
31.38000 6.701
31.40000 -0.019
31.42000 -1.305
31.44000 -0.784
31.46000 0.964
31.48000 -0.216
31.50000 1.258
31.52000 2.997
31.54000 3.858
31.56000 4.514
31.58000 6.910
31.60000 6.216
31.62000 2.302
31.64000 2.197
31.66000 2.879
31.68000 1.592
31.70000 1.142
31.72000 5.450
31.74000 4.019
31.76000 3.055
31.78000 -3.649
31.80000 0.245
31.82000 0.311
31.84000 -0.362
31.86000 -1.266
31.88000 -0.009
31.90000 -3.207
31.92000 -2.435
31.94000 3.273
31.96000 6.090
31.98000 5.255
32.00000 0.249
32.02000 2.884
32.04000 -1.183
32.06000 -0.585
32.08000 -1.377
32.10000 -3.555
32.12000 0.860
32.14000 3.758
32.16000 1.517
32.18000 0.020
32.20000 -0.718
32.22000 1.880
32.24000 2.979
32.26000 -3.637
32.28000 2.079
32.30000 4.032
32.32000 1.892
32.34000 1.945
32.36000 9.296
32.38000 12.119
32.40000 5.424
32.42000 0.792
32.44000 1.267
32.46000 5.330
32.48000 3.333
32.50000 0.712
32.52000 -0.769
32.54000 -2.409
32.56000 -3.630
32.58000 1.964
32.60000 6.819
32.62000 0.326
32.64000 3.057
32.66000 -3.148
32.68000 -0.663
32.70000 1.619
32.72000 3.003
32.74000 -1.097
32.76000 -2.102
32.78000 -0.476
32.80000 -0.466
32.82000 -1.017
32.84000 -1.084
32.86000 0.493
32.88000 -2.237
32.90000 0.506
32.92000 1.184
32.94000 -0.160
32.96000 0.127
32.98000 2.966
33.00000 0.487
33.02000 -1.412
33.04000 -3.425
33.06000 -0.055
33.08000 1.417
33.10000 -0.029
33.12000 -0.134
33.14000 0.875
33.16000 5.434
33.18000 3.792
33.20000 -0.278
33.22000 4.308
33.24000 4.306
33.26000 1.676
33.28000 0.820
33.30000 4.248
33.32000 9.024
33.34000 4.436
33.36000 2.404
33.38000 -3.115
33.40000 -0.432
33.42000 -3.384
33.44000 0.660
33.46000 0.339
33.48000 3.975
33.50000 3.935
33.52000 5.556
33.54000 0.060
33.56000 -0.603
33.58000 -2.395
33.60000 1.133
33.62000 1.456
33.64000 2.056
33.66000 2.752
33.68000 -0.713
33.70000 3.012
33.72000 2.464
33.74000 -1.631
33.76000 -2.502
33.78000 2.904
33.80000 9.841
33.82000 0.037
33.84000 1.415
33.86000 0.092
33.88000 -1.536
33.90000 -0.447
33.92000 3.006
33.94000 10.033
33.96000 9.079
33.98000 4.612
34.00000 0.908
34.02000 0.604
34.04000 1.859
34.06000 6.235
34.08000 0.254
34.10000 -1.575
34.12000 2.979
34.14000 1.554
34.16000 3.856
34.18000 4.911
34.20000 9.627
34.22000 14.206
34.24000 4.213
34.26000 2.193
34.28000 6.228
34.30000 6.606
34.32000 4.622
34.34000 6.259
34.36000 4.045
34.38000 6.598
34.40000 2.577
34.42000 0.254
34.44000 0.811
34.46000 1.494
34.48000 2.383
34.50000 3.911
34.52000 2.758
34.54000 4.534
34.56000 1.808
34.58000 1.596
34.60000 3.261
34.62000 5.361
34.64000 1.660
34.66000 0.692
34.68000 5.913
34.70000 4.767
34.72000 3.230
34.74000 4.457
34.76000 3.092
34.78000 6.208
34.80000 8.020
34.82000 1.134
34.84000 -3.565
34.86000 -3.564
34.88000 0.269
34.90000 4.110
34.92000 6.066
34.94000 1.480
34.96000 -3.414
34.98000 1.175
35.00000 7.450
35.02000 3.111
35.04000 1.262
35.06000 4.519
35.08000 3.197
35.10000 3.966
35.12000 3.089
35.14000 2.709
35.16000 0.771
35.18000 -1.917
35.20000 -3.013
35.22000 -1.407
35.24000 -1.252
35.26000 0.373
35.28000 3.943
35.30000 0.295
35.32000 0.183
35.34000 0.892
35.36000 3.995
35.38000 1.290
35.40000 2.807
35.42000 3.591
35.44000 6.609
35.46000 6.695
35.48000 3.939
35.50000 0.049
35.52000 -1.805
35.54000 0.322
35.56000 -0.093
35.58000 -1.010
35.60000 -1.581
35.62000 -0.398
35.64000 3.643
35.66000 3.062
35.68000 0.344
35.70000 -0.296
35.72000 -1.075
35.74000 -3.618
35.76000 -3.508
35.78000 -0.302
35.80000 1.393
35.82000 2.881
35.84000 -0.981
35.86000 2.943
35.88000 5.764
35.90000 3.428
35.92000 2.669
35.94000 5.950
35.96000 -2.214
35.98000 -1.503
36.00000 -2.118
36.02000 -2.125
36.04000 0.123
36.06000 -0.035
36.08000 -1.036
36.10000 1.742
36.12000 2.989
36.14000 2.246
36.16000 3.455
36.18000 3.835
36.20000 3.710
36.22000 0.008
36.24000 3.010
36.26000 2.461
36.28000 -1.784
36.30000 -1.973
36.32000 -3.639
36.34000 -3.097
36.36000 3.272
36.38000 1.449
36.40000 1.921
36.42000 -0.360
36.44000 0.154
36.46000 2.453
36.48000 0.911
36.50000 4.952
36.52000 1.827
36.54000 1.580
36.56000 2.977
36.58000 1.517
36.60000 2.057
36.62000 3.877
36.64000 0.663
36.66000 7.510
36.68000 2.034
36.70000 7.921
36.72000 10.624
36.74000 7.383
36.76000 4.427
36.78000 2.034
36.80000 0.502
36.82000 5.905
36.84000 4.580
36.86000 6.774
36.88000 4.863
36.90000 3.236
36.92000 1.875
36.94000 1.998
36.96000 1.229
36.98000 4.830
37.00000 7.615
37.02000 4.819
37.04000 2.343
37.06000 9.643
37.08000 9.846
37.10000 6.777
37.12000 8.297
37.14000 5.152
37.16000 3.486
37.18000 9.467
37.20000 8.556
37.22000 8.246
37.24000 3.524
37.26000 8.123
37.28000 9.467
37.30000 13.462
37.32000 9.701
37.34000 5.927
37.36000 8.880
37.38000 10.815
37.40000 8.920
37.42000 12.589
37.44000 10.574
37.46000 14.794
37.48000 15.219
37.50000 13.545
37.52000 13.613
37.54000 19.399
37.56000 21.314
37.58000 18.525
37.60000 16.109
37.62000 15.232
37.64000 16.250
37.66000 18.015
37.68000 18.263
37.70000 20.884
37.72000 22.188
37.74000 17.945
37.76000 20.381
37.78000 21.278
37.80000 15.835
37.82000 19.842
37.84000 18.105
37.86000 19.035
37.88000 21.976
37.90000 23.509
37.92000 23.095
37.94000 30.657
37.96000 33.696
37.98000 31.280
38.00000 28.114
38.02000 27.277
38.04000 29.792
38.06000 29.158
38.08000 32.551
38.10000 36.044
38.12000 35.018
38.14000 40.214
38.16000 40.847
38.18000 39.163
38.20000 43.182
38.22000 48.854
38.24000 53.630
38.26000 52.220
38.28000 50.166
38.30000 48.968
38.32000 55.662
38.34000 56.567
38.36000 60.549
38.38000 62.511
38.40000 63.988
38.42000 63.471
38.44000 71.080
38.46000 73.136
38.48000 75.987
38.50000 80.595
38.52000 86.709
38.54000 89.409
38.56000 91.662
38.58000 96.500
38.60000 102.680
38.62000 114.198
38.64000 117.103
38.66000 119.861
38.68000 124.403
38.70000 135.361
38.72000 144.543
38.74000 150.299
38.76000 156.640
38.78000 169.275
38.80000 180.701
38.82000 188.739
38.84000 201.409
38.86000 215.065
38.88000 228.712
38.90000 237.051
38.92000 253.433
38.94000 268.059
38.96000 286.265
38.98000 301.611
39.00000 309.930
39.02000 324.042
39.04000 340.331
39.06000 359.462
39.08000 374.528
39.10000 380.442
39.12000 390.818
39.14000 398.002
39.16000 405.366
39.18000 411.653
39.20000 413.641
39.22000 421.733
39.24000 429.572
39.26000 426.871
39.28000 420.698
39.30000 414.095
39.32000 410.833
39.34000 405.448
39.36000 391.775
39.38000 389.577
39.40000 372.241
39.42000 362.701
39.44000 352.506
39.46000 340.641
39.48000 327.414
39.50000 308.194
39.52000 302.608
39.54000 283.572
39.56000 265.328
39.58000 243.801
39.60000 233.573
39.62000 225.160
39.64000 212.873
39.66000 202.315
39.68000 191.459
39.70000 187.044
39.72000 173.743
39.74000 156.394
39.76000 143.470
39.78000 139.748
39.80000 127.962
39.82000 119.380
39.84000 116.151
39.86000 112.921
39.88000 103.997
39.90000 92.863
39.92000 88.506
39.94000 81.471
39.96000 76.177
39.98000 70.733
40.00000 74.010
40.02000 66.924
40.04000 60.197
40.06000 58.021
40.08000 56.039
40.10000 52.776
40.12000 51.053
40.14000 45.928
40.16000 45.557
40.18000 42.936
40.20000 41.142
40.22000 38.101
40.24000 36.853
40.26000 36.937
40.28000 35.888
40.30000 30.259
40.32000 28.016
40.34000 28.464
40.36000 27.384
40.38000 26.303
40.40000 21.705
40.42000 22.636
40.44000 23.633
40.46000 20.948
40.48000 22.270
40.50000 24.820
40.52000 24.573
40.54000 21.608
40.56000 20.123
40.58000 19.269
40.60000 20.240
40.62000 20.924
40.64000 19.263
40.66000 17.025
40.68000 14.748
40.70000 9.772
40.72000 6.526
40.74000 10.055
40.76000 13.609
40.78000 14.795
40.80000 13.900
40.82000 10.514
40.84000 11.646
40.86000 8.442
40.88000 5.583
40.90000 7.745
40.92000 7.770
40.94000 7.943
40.96000 5.954
40.98000 8.065
41.00000 5.988
41.02000 4.858
41.04000 6.736
41.06000 6.713
41.08000 9.837
41.10000 6.456
41.12000 4.748
41.14000 2.389
41.16000 3.066
41.18000 5.438
41.20000 2.224
41.22000 1.992
41.24000 -0.510
41.26000 1.404
41.28000 4.756
41.30000 2.784
41.32000 2.163
41.34000 4.673
41.36000 3.552
41.38000 2.284
41.40000 0.425
41.42000 0.158
41.44000 1.376
41.46000 0.795
41.48000 3.761
41.50000 3.995
41.52000 0.969
41.54000 -2.097
41.56000 -1.357
41.58000 2.974
41.60000 1.640
41.62000 1.717
41.64000 5.026
41.66000 8.521
41.68000 -0.350
41.70000 0.168
41.72000 1.290
41.74000 -0.697
41.76000 -3.010
41.78000 -1.079
41.80000 -0.724
41.82000 1.719
41.84000 -3.404
41.86000 2.882
41.88000 3.714
41.90000 1.451
41.92000 4.538
41.94000 5.136
41.96000 0.628
41.98000 1.114
42.00000 3.212
42.02000 1.394
42.04000 2.403
42.06000 3.649
42.08000 3.098
42.10000 3.652
42.12000 -1.077
42.14000 -3.351
42.16000 -2.459
42.18000 -2.205
42.20000 -1.817
42.22000 -0.624
42.24000 3.043
42.26000 4.396
42.28000 5.429
42.30000 1.494
42.32000 -2.725
42.34000 0.569
42.36000 3.445
42.38000 5.573
42.40000 0.962
42.42000 0.461
42.44000 1.333
42.46000 4.582
42.48000 4.239
42.50000 -1.225
42.52000 -1.103
42.54000 -1.711
42.56000 2.641
42.58000 3.511
42.60000 1.198
42.62000 -1.470
42.64000 -2.158
42.66000 1.903
42.68000 2.505
42.70000 4.359
42.72000 1.417
42.74000 4.156
42.76000 2.239
42.78000 1.970
42.80000 0.982
42.82000 -0.508
42.84000 3.392
42.86000 4.334
42.88000 1.178
42.90000 -3.243
42.92000 2.137
42.94000 3.005
42.96000 1.329
42.98000 2.090
43.00000 -1.343
43.02000 -0.419
43.04000 0.573
43.06000 -2.050
43.08000 1.988
43.10000 4.203
43.12000 0.805
43.14000 3.857
43.16000 3.216
43.18000 0.654
43.20000 4.649
43.22000 1.043
43.24000 -2.591
43.26000 -1.375
43.28000 3.171
43.30000 2.743
43.32000 -0.240
43.34000 -1.329
43.36000 1.697
43.38000 2.927
43.40000 0.363
43.42000 -0.250
43.44000 -0.015
43.46000 -1.310
43.48000 -2.328
43.50000 -0.680
43.52000 1.203
43.54000 -2.544
43.56000 -1.580
43.58000 1.951
43.60000 1.274
43.62000 -0.430
43.64000 -1.213
43.66000 -1.930
43.68000 -1.866
43.70000 1.631
43.72000 1.335
43.74000 2.327
43.76000 -0.187
43.78000 -1.099
43.80000 -1.356
43.82000 -1.375
43.84000 1.437
43.86000 -0.231
43.88000 -3.202
43.90000 -0.153
43.92000 -1.884
43.94000 -3.211
43.96000 -0.722
43.98000 2.174
44.00000 -0.373
44.02000 -0.685
44.04000 -1.010
44.06000 -0.723
44.08000 0.551
44.10000 0.374
44.12000 2.321
44.14000 2.410
44.16000 1.481
44.18000 3.087
44.20000 1.449
44.22000 -1.613
44.24000 -1.849
44.26000 3.100
44.28000 1.770
44.30000 0.071
44.32000 -2.541
44.34000 -1.326
44.36000 1.946
44.38000 1.107
44.40000 0.850
44.42000 1.609
44.44000 2.420
44.46000 -0.172
44.48000 -0.655
44.50000 0.958
44.52000 4.644
44.54000 3.995
44.56000 0.515
44.58000 2.565
44.60000 -0.291
44.62000 5.484
44.64000 9.085
44.66000 7.250
44.68000 4.666
44.70000 5.273
44.72000 8.431
44.74000 9.795
44.76000 10.548
44.78000 11.474
44.80000 10.049
44.82000 10.735
44.84000 7.578
44.86000 8.013
44.88000 12.121
44.90000 13.538
44.92000 11.398
44.94000 9.658
44.96000 13.445
44.98000 13.434
45.00000 14.506
45.02000 17.221
45.04000 21.127
45.06000 20.264
45.08000 22.472
45.10000 19.962
45.12000 17.961
45.14000 19.199
45.16000 21.272
45.18000 22.717
45.20000 27.625
45.22000 31.393
45.24000 24.880
45.26000 28.675
45.28000 30.210
45.30000 30.321
45.32000 35.604
45.34000 37.747
45.36000 36.339
45.38000 38.900
45.40000 40.030
45.42000 44.395
45.44000 44.079
45.46000 43.867
45.48000 44.214
45.50000 44.845
45.52000 47.829
45.54000 51.314
45.56000 53.872
45.58000 57.498
45.60000 59.113
45.62000 59.047
45.64000 59.117
45.66000 57.598
45.68000 60.374
45.70000 65.801
45.72000 67.198
45.74000 65.044
45.76000 69.402
45.78000 67.800
45.80000 67.823
45.82000 69.466
45.84000 68.265
45.86000 68.738
45.88000 73.423
45.90000 70.923
45.92000 64.740
45.94000 63.682
45.96000 67.303
45.98000 68.822
46.00000 65.742
46.02000 61.995
46.04000 63.083
46.06000 62.716
46.08000 61.285
46.10000 61.012
46.12000 57.614
46.14000 51.649
46.16000 45.377
46.18000 46.668
46.20000 49.829
46.22000 46.695
46.24000 42.234
46.26000 42.411
46.28000 40.354
46.30000 40.586
46.32000 39.754
46.34000 33.613
46.36000 33.263
46.38000 31.189
46.40000 28.470
46.42000 30.471
46.44000 28.091
46.46000 23.388
46.48000 23.595
46.50000 21.577
46.52000 20.778
46.54000 21.069
46.56000 21.689
46.58000 18.658
46.60000 8.900
46.62000 12.395
46.64000 12.807
46.66000 10.334
46.68000 8.077
46.70000 9.034
46.72000 9.817
46.74000 5.591
46.76000 8.370
46.78000 10.794
46.80000 4.454
46.82000 1.121
46.84000 1.935
46.86000 4.871
46.88000 4.150
46.90000 5.326
46.92000 4.363
46.94000 -0.507
46.96000 0.524
46.98000 1.873
47.00000 2.928
47.02000 1.322
47.04000 4.091
47.06000 6.489
47.08000 3.906
47.10000 4.401
47.12000 -0.016
47.14000 -2.881
47.16000 -1.254
47.18000 1.424
47.20000 0.465
47.22000 2.963
47.24000 1.726
47.26000 -1.734
47.28000 -1.664
47.30000 -2.598
47.32000 0.418
47.34000 3.013
47.36000 5.468
47.38000 2.473
47.40000 -2.636
47.42000 -2.838
47.44000 2.245
47.46000 4.600
47.48000 -0.623
47.50000 0.824
47.52000 2.887
47.54000 1.809
47.56000 2.379
47.58000 0.211
47.60000 1.815
47.62000 2.293
47.64000 2.039
47.66000 1.246
47.68000 2.326
47.70000 -1.607
47.72000 -0.034
47.74000 -0.364
47.76000 -0.176
47.78000 0.140
47.80000 0.688
47.82000 2.299
47.84000 1.452
47.86000 2.785
47.88000 3.144
47.90000 1.263
47.92000 -0.030
47.94000 1.514
47.96000 -0.862
47.98000 -1.782
48.00000 -0.567
48.02000 0.340
48.04000 1.047
48.06000 3.718
48.08000 3.583
48.10000 0.381
48.12000 -2.730
48.14000 0.643
48.16000 3.146
48.18000 -1.700
48.20000 -2.156
48.22000 -1.001
48.24000 0.521
48.26000 2.997
48.28000 1.335
48.30000 -2.366
48.32000 -2.284
48.34000 -1.533
48.36000 2.130
48.38000 3.358
48.40000 -1.152
48.42000 -2.683
48.44000 -1.488
48.46000 3.485
48.48000 4.679
48.50000 6.019
48.52000 3.142
48.54000 4.982
48.56000 4.881
48.58000 3.762
48.60000 3.607
48.62000 -1.033
48.64000 -1.438
48.66000 2.787
48.68000 4.718
48.70000 1.901
48.72000 -1.992
48.74000 1.799
48.76000 0.542
48.78000 1.474
48.80000 -2.674
48.82000 0.589
48.84000 1.753
48.86000 3.062
48.88000 4.990
48.90000 2.944
48.92000 0.110
48.94000 -0.533
48.96000 2.022
48.98000 2.045
49.00000 2.180
49.02000 -2.168
49.04000 1.484
49.06000 -0.177
49.08000 -0.857
49.10000 -0.638
49.12000 0.220
49.14000 -0.197
49.16000 -0.235
49.18000 1.094
49.20000 1.407
49.22000 0.247
49.24000 0.446
49.26000 3.892
49.28000 2.551
49.30000 6.224
49.32000 4.313
49.34000 -1.645
49.36000 -1.014
49.38000 -1.708
49.40000 -0.130
49.42000 -1.173
49.44000 -1.557
49.46000 1.610
49.48000 2.768
49.50000 -0.571
49.52000 2.158
49.54000 -0.569
49.56000 2.764
49.58000 5.157
49.60000 3.829
49.62000 -2.635
49.64000 -1.683
49.66000 3.048
49.68000 6.959
49.70000 1.727
49.72000 4.931
49.74000 2.906
49.76000 2.946
49.78000 4.159
49.80000 3.834
49.82000 3.019
49.84000 3.187
49.86000 2.349
49.88000 4.749
49.90000 1.468
49.92000 -1.276
49.94000 -0.126
49.96000 4.040
49.98000 5.895
50.00000 6.948
50.02000 1.649
50.04000 -0.668
50.06000 -0.377
50.08000 0.615
50.10000 2.601
50.12000 -1.655
50.14000 -1.465
50.16000 -0.180
50.18000 2.050
50.20000 -1.859
50.22000 -0.616
50.24000 2.863
50.26000 1.529
50.28000 0.798
50.30000 0.629
50.32000 0.413
50.34000 1.002
50.36000 -0.530
50.38000 0.547
50.40000 1.192
50.42000 -0.538
50.44000 -1.569
50.46000 0.799
50.48000 3.301
50.50000 1.286
50.52000 -2.611
50.54000 2.398
50.56000 2.402
50.58000 0.439
50.60000 0.691
50.62000 -1.658
50.64000 -2.408
50.66000 0.469
50.68000 1.972
50.70000 1.661
50.72000 -1.437
50.74000 -1.058
50.76000 3.355
50.78000 3.572
50.80000 2.272
50.82000 4.112
50.84000 2.279
50.86000 0.221
50.88000 1.353
50.90000 5.969
50.92000 0.106
50.94000 -0.018
50.96000 5.627
50.98000 4.420
51.00000 -0.460
51.02000 0.125
51.04000 -2.590
51.06000 -0.727
51.08000 -1.593
51.10000 -1.927
51.12000 1.939
51.14000 -1.272
51.16000 1.106
51.18000 -0.438
51.20000 -1.655
51.22000 1.252
51.24000 4.451
51.26000 6.009
51.28000 4.016
51.30000 1.575
51.32000 -0.156
51.34000 -1.634
51.36000 0.602
51.38000 0.575
51.40000 -1.145
51.42000 1.883
51.44000 3.471
51.46000 0.606
51.48000 0.775
51.50000 3.464
51.52000 0.529
51.54000 -0.779
51.56000 2.275
51.58000 0.048
51.60000 0.967
51.62000 3.223
51.64000 1.273
51.66000 1.521
51.68000 -0.034
51.70000 -0.371
51.72000 -0.135
51.74000 -1.472
51.76000 -2.190
51.78000 -1.114
51.80000 3.140
51.82000 0.142
51.84000 1.161
51.86000 2.216
51.88000 1.679
51.90000 1.939
51.92000 -2.557
51.94000 -0.776
51.96000 -0.776
51.98000 -0.822
52.00000 1.947
52.02000 1.783
52.04000 -0.189
52.06000 -0.999
52.08000 2.212
52.10000 -0.218
52.12000 -0.252
52.14000 1.040
52.16000 0.004
52.18000 1.073
52.20000 3.786
52.22000 1.526
52.24000 2.374
52.26000 1.529
52.28000 0.189
52.30000 1.787
52.32000 -0.433
52.34000 1.067
52.36000 2.045
52.38000 -0.434
52.40000 4.379
52.42000 3.286
52.44000 2.096
52.46000 2.514
52.48000 3.323
52.50000 3.277
52.52000 1.086
52.54000 1.134
52.56000 3.157
52.58000 5.969
52.60000 4.117
52.62000 4.617
52.64000 4.167
52.66000 4.963
52.68000 2.511
52.70000 6.068
52.72000 5.217
52.74000 4.298
52.76000 -0.414
52.78000 -0.331
52.80000 -2.502
52.82000 1.558
52.84000 -0.431
52.86000 1.123
52.88000 2.865
52.90000 3.476
52.92000 3.967
52.94000 0.526
52.96000 -1.755
52.98000 -2.038
53.00000 -0.835
53.02000 0.952
53.04000 -1.932
53.06000 0.170
53.08000 0.935
53.10000 0.561
53.12000 4.657
53.14000 5.909
53.16000 4.203
53.18000 -0.836
53.20000 0.715
53.22000 2.191
53.24000 1.222
53.26000 2.564
53.28000 2.775
53.30000 4.056
53.32000 5.445
53.34000 1.985
53.36000 2.425
53.38000 0.722
53.40000 2.077
53.42000 4.833
53.44000 8.719
53.46000 6.524
53.48000 5.751
53.50000 3.976
53.52000 3.237
53.54000 4.211
53.56000 6.881
53.58000 4.187
53.60000 2.868
53.62000 4.921
53.64000 4.032
53.66000 7.219
53.68000 4.894
53.70000 3.592
53.72000 5.277
53.74000 2.165
53.76000 1.175
53.78000 3.760
53.80000 5.890
53.82000 0.720
53.84000 3.136
53.86000 -0.272
53.88000 4.270
53.90000 1.280
53.92000 3.230
53.94000 1.145
53.96000 -2.481
53.98000 1.275
54.00000 0.307
54.02000 2.457
54.04000 3.088
54.06000 1.812
54.08000 0.887
54.10000 1.116
54.12000 4.244
54.14000 5.236
54.16000 1.341
54.18000 1.579
54.20000 1.703
54.22000 1.789
54.24000 -0.943
54.26000 5.524
54.28000 8.406
54.30000 2.913
54.32000 -2.114
54.34000 1.505
54.36000 2.815
54.38000 4.051
54.40000 7.503
54.42000 5.278
54.44000 7.560
54.46000 5.605
54.48000 4.342
54.50000 0.906
54.52000 5.012
54.54000 3.593
54.56000 2.827
54.58000 2.762
54.60000 0.622
54.62000 1.541
54.64000 -0.138
54.66000 1.941
54.68000 3.808
54.70000 2.382
54.72000 2.388
54.74000 1.603
54.76000 3.222
54.78000 1.789
54.80000 0.721
54.82000 3.646
54.84000 3.587
54.86000 3.921
54.88000 3.454
54.90000 3.838
54.92000 1.691
54.94000 3.130
54.96000 1.384
54.98000 -0.664
55.00000 5.087
55.02000 4.690
55.04000 2.394
55.06000 1.981
55.08000 1.686
55.10000 2.260
55.12000 -1.845
55.14000 -2.445
55.16000 2.394
55.18000 3.249
55.20000 3.733
55.22000 -0.684
55.24000 1.064
55.26000 5.559
55.28000 3.302
55.30000 0.210
55.32000 3.332
55.34000 5.725
55.36000 3.568
55.38000 1.838
55.40000 3.759
55.42000 4.349
55.44000 3.553
55.46000 4.091
55.48000 4.314
55.50000 2.940
55.52000 4.507
55.54000 3.409
55.56000 2.430
55.58000 2.204
55.60000 0.756
55.62000 3.247
55.64000 2.161
55.66000 6.864
55.68000 6.500
55.70000 4.766
55.72000 1.305
55.74000 4.774
55.76000 5.992
55.78000 4.908
55.80000 3.682
55.82000 4.093
55.84000 5.667
55.86000 5.493
55.88000 6.493
55.90000 1.978
55.92000 4.999
55.94000 5.400
55.96000 2.286
55.98000 3.517
56.00000 6.199
56.02000 3.937
56.04000 3.477
56.06000 6.910
56.08000 3.770
56.10000 2.929
56.12000 -2.378
56.14000 1.761
56.16000 10.468
56.18000 10.292
56.20000 6.291
56.22000 6.732
56.24000 7.117
56.26000 5.335
56.28000 5.304
56.30000 8.354
56.32000 9.285
56.34000 6.440
56.36000 6.154
56.38000 7.386
56.40000 5.472
56.42000 4.819
56.44000 4.833
56.46000 5.348
56.48000 6.029
56.50000 4.358
56.52000 3.600
56.54000 4.426
56.56000 3.201
56.58000 4.242
56.60000 2.240
56.62000 2.816
56.64000 2.213
56.66000 5.189
56.68000 4.185
56.70000 1.624
56.72000 2.901
56.74000 0.692
56.76000 -0.791
56.78000 -2.050
56.80000 1.151
56.82000 4.764
56.84000 3.496
56.86000 5.122
56.88000 6.230
56.90000 3.214
56.92000 0.559
56.94000 3.461
56.96000 3.307
56.98000 -0.163
57.00000 -0.575
57.02000 -2.185
57.04000 1.556
57.06000 0.367
57.08000 3.127
57.10000 2.780
57.12000 3.733
57.14000 3.716
57.16000 3.420
57.18000 -1.160
57.20000 0.323
57.22000 0.400
57.24000 3.860
57.26000 3.553
57.28000 6.235
57.30000 8.195
57.32000 2.163
57.34000 -1.092
57.36000 1.495
57.38000 1.400
57.40000 -2.237
57.42000 1.055
57.44000 2.479
57.46000 4.481
57.48000 5.247
57.50000 1.632
57.52000 3.143
57.54000 3.848
57.56000 5.583
57.58000 4.678
57.60000 0.966
57.62000 -0.880
57.64000 2.784
57.66000 0.140
57.68000 -2.376
57.70000 -0.075
57.72000 1.985
57.74000 4.276
57.76000 4.034
57.78000 4.533
57.80000 4.480
57.82000 5.772
57.84000 5.127
57.86000 4.496
57.88000 -2.081
57.90000 0.198
57.92000 0.828
57.94000 3.308
57.96000 4.056
57.98000 1.720
58.00000 1.361
58.02000 3.350
58.04000 3.540
58.06000 4.308
58.08000 4.625
58.10000 3.962
58.12000 0.286
58.14000 3.527
58.16000 5.231
58.18000 2.787
58.20000 6.027
58.22000 3.797
58.24000 3.452
58.26000 4.314
58.28000 6.137
58.30000 7.677
58.32000 2.288
58.34000 0.488
58.36000 2.179
58.38000 1.594
58.40000 3.148
58.42000 3.243
58.44000 2.537
58.46000 2.228
58.48000 3.567
58.50000 2.663
58.52000 1.788
58.54000 5.560
58.56000 5.540
58.58000 4.720
58.60000 4.934
58.62000 5.267
58.64000 3.226
58.66000 2.522
58.68000 0.639
58.70000 1.861
58.72000 2.467
58.74000 0.274
58.76000 6.625
58.78000 1.071
58.80000 0.167
58.82000 -2.319
58.84000 0.558
58.86000 5.259
58.88000 7.003
58.90000 5.182
58.92000 1.287
58.94000 0.299
58.96000 5.066
58.98000 3.336
59.00000 0.649
59.02000 3.895
59.04000 4.851
59.06000 4.805
59.08000 4.835
59.10000 3.765
59.12000 2.530
59.14000 1.995
59.16000 2.380
59.18000 4.062
59.20000 4.831
59.22000 1.721
59.24000 4.657
59.26000 9.701
59.28000 6.708
59.30000 3.920
59.32000 2.275
59.34000 0.270
59.36000 5.202
59.38000 5.219
59.40000 5.873
59.42000 5.701
59.44000 5.118
59.46000 6.485
59.48000 8.521
59.50000 7.703
59.52000 5.079
59.54000 4.359
59.56000 0.927
59.58000 -2.252
59.60000 4.494
59.62000 5.530
59.64000 5.824
59.66000 5.514
59.68000 7.117
59.70000 9.619
59.72000 9.670
59.74000 4.987
59.76000 6.369
59.78000 7.609
59.80000 7.052
59.82000 0.365
59.84000 3.363
59.86000 4.954
59.88000 3.580
59.90000 3.513
59.92000 2.436
59.94000 2.848
59.96000 1.164
59.98000 3.213
60.00000 1.818
60.02000 4.813
60.04000 5.347
60.06000 1.625
60.08000 1.285
60.10000 1.745
60.12000 3.156
60.14000 1.656
60.16000 2.104
60.18000 4.227
60.20000 5.583
60.22000 3.341
60.24000 4.640
60.26000 4.390
60.28000 6.280
60.30000 5.318
60.32000 0.826
60.34000 4.414
60.36000 2.281
60.38000 2.566
60.40000 3.113
60.42000 0.832
60.44000 4.732
60.46000 3.467
60.48000 2.888
60.50000 0.883
60.52000 0.560
60.54000 1.109
60.56000 -0.391
60.58000 -1.154
60.60000 2.205
60.62000 2.869
60.64000 1.483
60.66000 3.889
60.68000 0.655
60.70000 -1.458
60.72000 -1.640
60.74000 2.033
60.76000 1.579
60.78000 0.055
60.80000 3.826
60.82000 3.931
60.84000 3.021
60.86000 2.091
60.88000 0.978
60.90000 3.395
60.92000 3.778
60.94000 1.961
60.96000 2.714
60.98000 2.677
61.00000 2.554
61.02000 3.083
61.04000 2.921
61.06000 3.173
61.08000 4.940
61.10000 2.876
61.12000 3.625
61.14000 4.306
61.16000 2.759
61.18000 2.654
61.20000 1.949
61.22000 0.684
61.24000 1.064
61.26000 2.132
61.28000 -2.272
61.30000 -0.972
61.32000 -1.809
61.34000 0.418
61.36000 2.615
61.38000 4.703
61.40000 3.951
61.42000 3.536
61.44000 2.561
61.46000 2.474
61.48000 5.112
61.50000 2.897
61.52000 -0.217
61.54000 1.765
61.56000 2.337
61.58000 -0.139
61.60000 0.065
61.62000 0.749
61.64000 0.573
61.66000 -0.058
61.68000 1.550
61.70000 0.136
61.72000 2.675
61.74000 0.468
61.76000 1.406
61.78000 4.687
61.80000 1.903
61.82000 -2.251
61.84000 -1.021
61.86000 -0.247
61.88000 0.386
61.90000 -0.114
61.92000 0.454
61.94000 2.530
61.96000 1.094
61.98000 1.567
62.00000 1.733
62.02000 4.114
62.04000 2.600
62.06000 3.467
62.08000 3.123
62.10000 3.376
62.12000 2.385
62.14000 3.141
62.16000 0.108
62.18000 -0.438
62.20000 -0.073
62.22000 1.118
62.24000 4.040
62.26000 6.524
62.28000 2.015
62.30000 2.456
62.32000 5.228
62.34000 3.738
62.36000 1.484
62.38000 -0.277
62.40000 2.214
62.42000 2.773
62.44000 3.062
62.46000 2.181
62.48000 2.023
62.50000 -0.008
62.52000 -0.206
62.54000 0.714
62.56000 2.936
62.58000 0.307
62.60000 0.233
62.62000 -1.180
62.64000 -0.174
62.66000 1.430
62.68000 0.815
62.70000 1.712
62.72000 -0.863
62.74000 0.431
62.76000 1.912
62.78000 4.099
62.80000 2.949
62.82000 3.095
62.84000 2.459
62.86000 1.404
62.88000 0.254
62.90000 1.466
62.92000 2.127
62.94000 -2.261
62.96000 -1.121
62.98000 -0.476
63.00000 0.422
63.02000 0.122
63.04000 -2.162
63.06000 -1.306
63.08000 -2.258
63.10000 0.571
63.12000 0.949
63.14000 1.627
63.16000 0.729
63.18000 0.194
63.20000 -1.656
63.22000 -1.232
63.24000 2.215
63.26000 3.720
63.28000 2.144
63.30000 1.471
63.32000 -0.636
63.34000 0.852
63.36000 1.724
63.38000 -0.505
63.40000 2.308
63.42000 -1.759
63.44000 0.395
63.46000 0.149
63.48000 -2.154
63.50000 0.575
63.52000 0.376
63.54000 0.746
63.56000 0.366
63.58000 0.353
63.60000 1.612
63.62000 3.232
63.64000 1.085
63.66000 1.472
63.68000 2.823
63.70000 1.127
63.72000 1.438
63.74000 1.708
63.76000 -0.886
63.78000 -2.246
63.80000 -0.586
63.82000 3.093
63.84000 -0.716
63.86000 -1.398
63.88000 1.740
63.90000 0.868
63.92000 -0.665
63.94000 0.056
63.96000 -2.066
63.98000 1.014
64.00000 0.284
64.02000 0.484
64.04000 2.017
64.06000 3.195
64.08000 4.793
64.10000 7.130
64.12000 4.852
64.14000 3.223
64.16000 2.396
64.18000 2.313
64.20000 0.822
64.22000 3.208
64.24000 1.741
64.26000 -0.121
64.28000 -0.812
64.30000 0.137
64.32000 -0.139
64.34000 -1.815
64.36000 1.075
64.38000 2.154
64.40000 2.434
64.42000 0.794
64.44000 0.702
64.46000 -1.486
64.48000 0.425
64.50000 0.444
64.52000 -1.013
64.54000 0.644
64.56000 -0.701
64.58000 -2.221
64.60000 -0.302
64.62000 -1.503
64.64000 2.060
64.66000 2.443
64.68000 -0.706
64.70000 0.876
64.72000 4.223
64.74000 1.811
64.76000 3.921
64.78000 6.556
64.80000 5.029
64.82000 3.209
64.84000 3.829
64.86000 1.126
64.88000 0.239
64.90000 3.465
64.92000 4.959
64.94000 1.939
64.96000 3.061
64.98000 3.370
65.00000 -0.225
65.02000 -0.886
65.04000 0.625
65.06000 5.000
65.08000 4.510
65.10000 3.937
65.12000 2.171
65.14000 3.553
65.16000 5.732
65.18000 3.101
65.20000 1.621
65.22000 0.710
65.24000 -1.259
65.26000 -0.298
65.28000 -0.621
65.30000 -2.226
65.32000 -1.504
65.34000 1.514
65.36000 3.499
65.38000 1.248
65.40000 3.798
65.42000 3.071
65.44000 4.094
65.46000 1.875
65.48000 4.246
65.50000 0.223
65.52000 -0.069
65.54000 -0.199
65.56000 -0.200
65.58000 1.370
65.60000 0.556
65.62000 1.822
65.64000 -0.535
65.66000 0.011
65.68000 -0.316
65.70000 1.719
65.72000 0.897
65.74000 1.513
65.76000 -1.745
65.78000 0.097
65.80000 0.592
65.82000 0.473
65.84000 1.752
65.86000 -0.075
65.88000 1.087
65.90000 1.564
65.92000 0.538
65.94000 2.331
65.96000 0.994
65.98000 -0.618
66.00000 0.110
66.02000 2.748
66.04000 0.942
66.06000 0.357
66.08000 1.166
66.10000 1.998
66.12000 1.051
66.14000 2.615
66.16000 2.575
66.18000 1.984
66.20000 2.782
66.22000 3.195
66.24000 2.998
66.26000 3.838
66.28000 4.875
66.30000 5.201
66.32000 5.647
66.34000 4.419
66.36000 6.499
66.38000 7.497
66.40000 7.848
66.42000 6.440
66.44000 6.972
66.46000 7.410
66.48000 6.072
66.50000 5.673
66.52000 3.368
66.54000 5.525
66.56000 7.595
66.58000 6.445
66.60000 4.194
66.62000 1.949
66.64000 2.467
66.66000 7.434
66.68000 5.927
66.70000 5.144
66.72000 9.218
66.74000 7.171
66.76000 7.066
66.78000 8.208
66.80000 6.424
66.82000 8.637
66.84000 8.785
66.86000 7.324
66.88000 5.510
66.90000 6.662
66.92000 7.277
66.94000 6.073
66.96000 7.030
66.98000 6.554
67.00000 7.344
67.02000 10.148
67.04000 6.282
67.06000 6.252
67.08000 7.343
67.10000 6.871
67.12000 8.169
67.14000 5.190
67.16000 5.022
67.18000 3.753
67.20000 6.755
67.22000 7.416
67.24000 5.212
67.26000 2.425
67.28000 1.557
67.30000 0.301
67.32000 0.702
67.34000 1.836
67.36000 2.046
67.38000 3.261
67.40000 1.366
67.42000 2.195
67.44000 1.862
67.46000 2.986
67.48000 1.791
67.50000 0.797
67.52000 3.195
67.54000 2.942
67.56000 1.969
67.58000 2.216
67.60000 2.909
67.62000 2.817
67.64000 -0.269
67.66000 -2.157
67.68000 -0.288
67.70000 1.544
67.72000 0.495
67.74000 0.229
67.76000 3.738
67.78000 4.271
67.80000 4.255
67.82000 3.185
67.84000 3.006
67.86000 1.248
67.88000 3.548
67.90000 4.409
67.92000 2.297
67.94000 3.327
67.96000 3.918
67.98000 2.265
68.00000 2.066
68.02000 2.144
68.04000 1.952
68.06000 4.262
68.08000 3.242
68.10000 0.813
68.12000 -0.654
68.14000 1.157
68.16000 1.005
68.18000 1.619
68.20000 4.355
68.22000 4.417
68.24000 2.237
68.26000 0.425
68.28000 0.232
68.30000 2.066
68.32000 1.457
68.34000 0.627
68.36000 1.663
68.38000 1.920
68.40000 3.899
68.42000 -0.484
68.44000 -1.917
68.46000 -2.086
68.48000 -0.114
68.50000 0.474
68.52000 1.882
68.54000 3.282
68.56000 3.095
68.58000 0.657
68.60000 2.777
68.62000 3.364
68.64000 2.593
68.66000 1.468
68.68000 0.588
68.70000 3.168
68.72000 6.264
68.74000 2.901
68.76000 4.755
68.78000 3.408
68.80000 0.885
68.82000 1.738
68.84000 0.984
68.86000 2.689
68.88000 1.181
68.90000 0.821
68.92000 2.345
68.94000 2.508
68.96000 3.130
68.98000 3.386
69.00000 2.769
69.02000 2.573
69.04000 5.487
69.06000 4.585
69.08000 2.511
69.10000 4.289
69.12000 3.311
69.14000 1.127
69.16000 -2.052
69.18000 -0.797
69.20000 1.831
69.22000 4.208
69.24000 5.536
69.26000 5.536
69.28000 6.158
69.30000 3.732
69.32000 1.643
69.34000 2.299
69.36000 3.274
69.38000 4.043
69.40000 2.836
69.42000 1.261
69.44000 0.590
69.46000 4.488
69.48000 1.945
69.50000 0.848
69.52000 1.097
69.54000 1.148
69.56000 0.536
69.58000 0.948
69.60000 0.803
69.62000 1.004
69.64000 0.909
69.66000 2.027
69.68000 2.971
69.70000 5.745
69.72000 3.842
69.74000 3.013
69.76000 -0.019
69.78000 -1.156
69.80000 2.484
69.82000 1.466
69.84000 -0.160
69.86000 2.722
69.88000 2.894
69.90000 2.496
69.92000 2.181
69.94000 1.262
69.96000 -0.101
69.98000 0.359
70.00000 2.280
70.02000 1.150
70.04000 -0.543
70.06000 -2.052
70.08000 -1.535
70.10000 0.140
70.12000 -0.103
70.14000 -0.315
70.16000 1.173
70.18000 0.415
70.20000 0.102
70.22000 -0.949
70.24000 1.753
70.26000 0.913
70.28000 1.334
70.30000 3.450
70.32000 1.694
70.34000 2.772
70.36000 1.787
70.38000 -1.482
70.40000 -1.236
70.42000 0.507
70.44000 -0.465
70.46000 0.041
70.48000 3.727
70.50000 3.258
70.52000 1.253
70.54000 2.241
70.56000 1.895
70.58000 2.986
70.60000 2.173
70.62000 1.448
70.64000 1.081
70.66000 2.777
70.68000 3.863
70.70000 3.022
70.72000 2.518
70.74000 2.941
70.76000 2.955
70.78000 2.700
70.80000 1.045
70.82000 -1.093
70.84000 0.621
70.86000 0.894
70.88000 -0.653
70.90000 -2.028
70.92000 0.513
70.94000 0.826
70.96000 0.995
70.98000 -1.012
71.00000 2.795
71.02000 3.258
71.04000 2.790
71.06000 0.054
71.08000 -0.322
71.10000 -1.227
71.12000 -0.956
71.14000 -0.109
71.16000 0.123
71.18000 1.662
71.20000 0.935
71.22000 0.873
71.24000 0.607
71.26000 4.121
71.28000 2.721
71.30000 -0.604
71.32000 -2.012
71.34000 0.291
71.36000 -0.711
71.38000 -0.559
71.40000 -0.468
71.42000 0.002
71.44000 -1.796
71.46000 2.578
71.48000 2.855
71.50000 3.522
71.52000 2.710
71.54000 1.819
71.56000 0.151
71.58000 1.122
71.60000 1.087
71.62000 1.260
71.64000 0.803
71.66000 2.193
71.68000 1.115
71.70000 -1.249
71.72000 -0.131
71.74000 1.174
71.76000 1.408
71.78000 -0.863
71.80000 -1.656
71.82000 -0.351
71.84000 -0.749
71.86000 0.090
71.88000 -1.169
71.90000 -0.632
71.92000 2.194
71.94000 1.758
71.96000 -0.345
71.98000 1.544
72.00000 1.202
72.02000 2.508
72.04000 0.975
72.06000 2.134
72.08000 3.817
72.10000 3.956
72.12000 0.452
72.14000 -1.964
72.16000 -0.274
72.18000 1.495
72.20000 2.285
72.22000 2.142
72.24000 4.044
72.26000 3.225
72.28000 1.997
72.30000 2.152
72.32000 3.773
72.34000 1.428
72.36000 -1.320
72.38000 1.306
72.40000 2.251
72.42000 4.335
72.44000 4.032
72.46000 2.802
72.48000 1.884
72.50000 1.419
72.52000 0.781
72.54000 1.407
72.56000 0.834
72.58000 1.237
72.60000 0.548
72.62000 -1.368
72.64000 3.444
72.66000 5.136
72.68000 2.330
72.70000 1.913
72.72000 1.954
72.74000 1.345
72.76000 2.954
72.78000 0.849
72.80000 1.651
72.82000 1.173
72.84000 2.512
72.86000 4.134
72.88000 3.922
72.90000 1.094
72.92000 0.144
72.94000 -0.100
72.96000 0.829
72.98000 1.052
73.00000 -1.617
73.02000 -0.595
73.04000 -1.974
73.06000 0.981
73.08000 0.652
73.10000 -0.485
73.12000 1.549
73.14000 -1.259
73.16000 -1.866
73.18000 -1.179
73.20000 0.231
73.22000 1.333
73.24000 0.725
73.26000 2.608
73.28000 1.297
73.30000 1.550
73.32000 2.469
73.34000 -0.774
73.36000 -1.872
73.38000 1.423
73.40000 0.302
73.42000 0.905
73.44000 -1.644
73.46000 0.105
73.48000 -0.675
73.50000 -0.986
73.52000 -0.299
73.54000 2.854
73.56000 -1.418
73.58000 -1.982
73.60000 -0.746
73.62000 0.251
73.64000 4.953
73.66000 0.342
73.68000 0.687
73.70000 -0.305
73.72000 -1.045
73.74000 0.308
73.76000 1.607
73.78000 0.938
73.80000 -0.064
73.82000 1.643
73.84000 4.094
73.86000 4.664
73.88000 4.049
73.90000 2.010
73.92000 0.957
73.94000 2.729
73.96000 1.601
73.98000 -0.554
74.00000 -0.528
74.02000 -0.633
74.04000 -1.973
74.06000 -1.108
74.08000 1.297
74.10000 2.520
74.12000 -0.186
74.14000 0.499
74.16000 1.389
74.18000 -1.970
74.20000 -1.187
74.22000 0.770
74.24000 0.492
74.26000 1.276
74.28000 2.288
74.30000 3.709
74.32000 0.303
74.34000 0.143
74.36000 1.601
74.38000 0.684
74.40000 1.171
74.42000 2.189
74.44000 1.058
74.46000 -1.319
74.48000 0.282
74.50000 0.904
74.52000 1.414
74.54000 0.601
74.56000 1.299
74.58000 -0.502
74.60000 -0.770
74.62000 0.345
74.64000 -0.015
74.66000 2.346
74.68000 2.233
74.70000 4.089
74.72000 2.412
74.74000 -0.108
74.76000 1.735
74.78000 1.188
74.80000 2.045
74.82000 3.474
74.84000 5.938
74.86000 1.494
74.88000 0.528
74.90000 4.050
74.92000 2.670
74.94000 0.610
74.96000 0.897
74.98000 2.144
75.00000 4.288
75.02000 1.392
75.04000 -0.563
75.06000 0.801
75.08000 0.964
75.10000 0.109
75.12000 0.555
75.14000 3.423
75.16000 2.190
75.18000 3.667
75.20000 4.161
75.22000 1.301
75.24000 5.139
75.26000 2.474
75.28000 -1.932
75.30000 0.431
75.32000 2.033
75.34000 0.474
75.36000 0.260
75.38000 1.874
75.40000 1.282
75.42000 2.694
75.44000 3.357
75.46000 2.612
75.48000 2.034
75.50000 1.029
75.52000 -0.114
75.54000 2.168
75.56000 1.340
75.58000 4.694
75.60000 2.343
75.62000 2.277
75.64000 3.897
75.66000 2.298
75.68000 3.819
75.70000 2.337
75.72000 2.761
75.74000 2.257
75.76000 3.070
75.78000 2.960
75.80000 0.691
75.82000 1.533
75.84000 2.136
75.86000 3.804
75.88000 2.117
75.90000 2.354
75.92000 -1.216
75.94000 -1.970
75.96000 -0.181
75.98000 0.122
76.00000 2.663
76.02000 0.536
76.04000 0.874
76.06000 2.120
76.08000 5.503
76.10000 7.630
76.12000 2.672
76.14000 -0.578
76.16000 -0.800
76.18000 0.840
76.20000 -0.258
76.22000 2.433
76.24000 2.660
76.26000 1.773
76.28000 3.987
76.30000 2.840
76.32000 3.338
76.34000 3.949
76.36000 -0.696
76.38000 0.285
76.40000 4.156
76.42000 3.218
76.44000 0.187
76.46000 -1.606
76.48000 -1.093
76.50000 0.106
76.52000 0.926
76.54000 2.509
76.56000 4.100
76.58000 3.888
76.60000 2.475
76.62000 1.928
76.64000 1.945
76.66000 0.312
76.68000 -0.187
76.70000 1.195
76.72000 0.263
76.74000 2.265
76.76000 0.855
76.78000 -0.061
76.80000 0.341
76.82000 2.694
76.84000 1.582
76.86000 0.458
76.88000 -0.678
76.90000 2.402
76.92000 3.942
76.94000 1.744
76.96000 2.292
76.98000 3.680
77.00000 -1.961
77.02000 -1.468
77.04000 2.690
77.06000 3.538
77.08000 1.553
77.10000 -0.349
77.12000 1.517
77.14000 3.044
77.16000 4.124
77.18000 4.402
77.20000 4.437
77.22000 1.339
77.24000 0.114
77.26000 -1.985
77.28000 1.600
77.30000 4.470
77.32000 2.669
77.34000 1.629
77.36000 2.053
77.38000 4.743
77.40000 2.893
77.42000 1.916
77.44000 2.594
77.46000 3.350
77.48000 1.235
77.50000 0.669
77.52000 3.953
77.54000 4.875
77.56000 0.587
77.58000 3.017
77.60000 2.971
77.62000 1.615
77.64000 1.410
77.66000 3.017
77.68000 1.436
77.70000 0.745
77.72000 1.393
77.74000 4.051
77.76000 5.279
77.78000 1.651
77.80000 0.994
77.82000 -0.368
77.84000 -0.456
77.86000 2.860
77.88000 1.746
77.90000 -1.273
77.92000 -2.040
77.94000 2.553
77.96000 4.477
77.98000 2.437
78.00000 0.131
78.02000 0.756
78.04000 -0.011
78.06000 -0.631
78.08000 0.674
78.10000 -0.669
78.12000 1.478
78.14000 1.661
78.16000 4.301
78.18000 3.048
78.20000 2.426
78.22000 -0.637
78.24000 0.869
78.26000 1.198
78.28000 1.163
78.30000 3.064
78.32000 3.970
78.34000 2.698
78.36000 1.403
78.38000 -0.119
78.40000 -0.985
78.42000 1.606
78.44000 1.703
78.46000 0.077
78.48000 0.376
78.50000 2.865
78.52000 3.020
78.54000 -2.076
78.56000 -0.493
78.58000 2.995
78.60000 1.848
78.62000 4.243
78.64000 4.135
78.66000 3.127
78.68000 0.572
78.70000 -0.684
78.72000 -0.617
78.74000 1.889
78.76000 3.010
78.78000 1.574
78.80000 1.775
78.82000 -1.227
78.84000 -0.278
78.86000 -0.337
78.88000 -0.717
78.90000 -0.113
78.92000 1.153
78.94000 2.656
78.96000 3.663
78.98000 0.970
79.00000 -1.583
79.02000 0.196
79.04000 0.244
79.06000 0.675
79.08000 2.003
79.10000 0.362
79.12000 2.926
79.14000 2.620
79.16000 1.110
79.18000 1.731
79.20000 1.369
79.22000 4.210
79.24000 4.100
79.26000 3.348
79.28000 3.156
79.30000 3.910
79.32000 4.175
79.34000 4.099
79.36000 4.483
79.38000 4.918
79.40000 -0.150
79.42000 4.560
79.44000 4.108
79.46000 6.414
79.48000 6.067
79.50000 6.097
79.52000 4.780
79.54000 6.009
79.56000 5.907
79.58000 5.146
79.60000 6.653
79.62000 6.979
79.64000 1.614
79.66000 4.589
79.68000 9.026
79.70000 9.310
79.72000 9.305
79.74000 9.630
79.76000 9.172
79.78000 11.054
79.80000 9.682
79.82000 8.177
79.84000 10.636
79.86000 10.446
79.88000 11.727
79.90000 9.893
79.92000 12.295
79.94000 10.818
79.96000 11.943
79.98000 11.487
80.00000 13.602
80.02000 12.365
80.04000 12.611
80.06000 16.303
80.08000 17.416
80.10000 14.754
80.12000 14.034
80.14000 14.134
80.16000 18.722
80.18000 20.371
80.20000 18.036
80.22000 15.153
80.24000 14.113
80.26000 17.762
80.28000 20.526
80.30000 18.696
80.32000 17.374
80.34000 19.781
80.36000 19.378
80.38000 19.799
80.40000 22.116
80.42000 15.224
80.44000 16.236
80.46000 16.747
80.48000 16.658
80.50000 20.636
80.52000 17.429
80.54000 14.142
80.56000 10.932
80.58000 16.890
80.60000 18.567
80.62000 13.050
80.64000 12.516
80.66000 12.413
80.68000 14.872
80.70000 14.931
80.72000 12.879
80.74000 16.540
80.76000 17.874
80.78000 14.835
80.80000 15.452
80.82000 15.401
80.84000 14.315
80.86000 14.434
80.88000 12.225
80.90000 12.861
80.92000 10.412
80.94000 9.359
80.96000 9.194
80.98000 7.756
81.00000 5.401
81.02000 5.724
81.04000 8.361
81.06000 6.756
81.08000 5.970
81.10000 6.337
81.12000 2.688
81.14000 6.656
81.16000 2.746
81.18000 3.356
81.20000 3.929
81.22000 3.502
81.24000 7.636
81.26000 7.782
81.28000 3.468
81.30000 -0.159
81.32000 0.873
81.34000 5.282
81.36000 4.358
81.38000 2.463
81.40000 -1.207
81.42000 0.484
81.44000 0.398
81.46000 1.222
81.48000 2.596
81.50000 3.668
81.52000 1.217
81.54000 3.386
81.56000 2.159
81.58000 0.380
81.60000 2.545
81.62000 4.239
81.64000 3.836
81.66000 0.080
81.68000 1.701
81.70000 3.557
81.72000 0.097
81.74000 -1.444
81.76000 -1.458
81.78000 2.215
81.80000 -0.341
81.82000 -1.146
81.84000 3.282
81.86000 1.792
81.88000 -0.049
81.90000 3.577
81.92000 0.197
81.94000 -2.185
81.96000 -1.194
81.98000 0.965
82.00000 3.555
82.02000 3.550
82.04000 0.294
82.06000 1.010
82.08000 0.487
82.10000 -2.143
82.12000 -1.734
82.14000 0.148
82.16000 0.577
82.18000 3.593
82.20000 1.519
82.22000 2.489
82.24000 3.553
82.26000 4.131
82.28000 4.162
82.30000 3.306
82.32000 0.432
82.34000 1.727
82.36000 5.290
82.38000 3.120
82.40000 3.584
82.42000 3.853
82.44000 3.932
82.46000 0.783
82.48000 1.726
82.50000 0.721
82.52000 2.329
82.54000 -2.164
82.56000 0.859
82.58000 5.224
82.60000 4.876
82.62000 2.360
82.64000 0.350
82.66000 3.034
82.68000 0.719
82.70000 -1.040
82.72000 0.134
82.74000 0.035
82.76000 -1.908
82.78000 -0.785
82.80000 4.015
82.82000 3.814
82.84000 5.913
82.86000 4.421
82.88000 5.279
82.90000 4.171
82.92000 0.167
82.94000 -0.275
82.96000 6.178
82.98000 6.078
83.00000 5.056
83.02000 4.179
83.04000 2.258
83.06000 1.001
83.08000 3.703
83.10000 2.873
83.12000 3.801
83.14000 10.244
83.16000 7.368
83.18000 5.826
83.20000 5.921
83.22000 4.390
83.24000 4.840
83.26000 7.770
83.28000 9.004
83.30000 8.369
83.32000 8.502
83.34000 8.664
83.36000 9.438
83.38000 10.849
83.40000 9.596
83.42000 7.403
83.44000 9.331
83.46000 5.547
83.48000 7.410
83.50000 10.957
83.52000 13.641
83.54000 11.531
83.56000 11.837
83.58000 9.186
83.60000 13.251
83.62000 15.690
83.64000 15.982
83.66000 18.089
83.68000 16.914
83.70000 14.220
83.72000 19.019
83.74000 19.387
83.76000 22.443
83.78000 23.758
83.80000 23.815
83.82000 24.517
83.84000 23.826
83.86000 23.282
83.88000 23.272
83.90000 23.025
83.92000 26.833
83.94000 23.905
83.96000 27.516
83.98000 27.474
84.00000 29.373
84.02000 27.768
84.04000 27.376
84.06000 29.254
84.08000 29.554
84.10000 28.860
84.12000 28.666
84.14000 31.583
84.16000 36.612
84.18000 33.865
84.20000 32.525
84.22000 30.829
84.24000 34.504
84.26000 30.028
84.28000 30.530
84.30000 33.516
84.32000 38.504
84.34000 36.079
84.36000 30.724
84.38000 30.694
84.40000 28.659
84.42000 34.615
84.44000 33.820
84.46000 29.958
84.48000 28.388
84.50000 26.259
84.52000 27.973
84.54000 23.464
84.56000 24.974
84.58000 28.721
84.60000 25.337
84.62000 22.655
84.64000 22.793
84.66000 22.589
84.68000 21.574
84.70000 18.186
84.72000 16.503
84.74000 17.648
84.76000 17.344
84.78000 19.235
84.80000 14.362
84.82000 13.915
84.84000 16.638
84.86000 14.337
84.88000 11.160
84.90000 14.193
84.92000 13.499
84.94000 13.423
84.96000 14.171
84.98000 13.993
85.00000 9.815
85.02000 13.915
85.04000 11.723
85.06000 9.790
85.08000 9.141
85.10000 8.069
85.12000 10.552
85.14000 6.221
85.16000 5.435
85.18000 2.289
85.20000 4.654
85.22000 2.545
85.24000 6.677
85.26000 7.074
85.28000 5.949
85.30000 6.907
85.32000 6.083
85.34000 6.199
85.36000 5.533
85.38000 1.905
85.40000 5.797
85.42000 3.560
85.44000 3.977
85.46000 1.048
85.48000 -1.960
85.50000 1.432
85.52000 4.214
85.54000 5.909
85.56000 2.848
85.58000 0.782
85.60000 1.358
85.62000 2.081
85.64000 3.710
85.66000 5.037
85.68000 -0.254
85.70000 1.832
85.72000 4.616
85.74000 4.613
85.76000 3.660
85.78000 -0.541
85.80000 -1.096
85.82000 -0.645
85.84000 1.915
85.86000 2.954
85.88000 2.310
85.90000 0.091
85.92000 -1.970
85.94000 -0.968
85.96000 0.164
85.98000 0.380
86.00000 2.077
86.02000 -1.595
86.04000 -1.640
86.06000 -0.615
86.08000 1.535
86.10000 -0.832
86.12000 -0.746
86.14000 4.461
86.16000 4.217
86.18000 0.899
86.20000 1.551
86.22000 -1.191
86.24000 -0.163
86.26000 -0.677
86.28000 -0.118
86.30000 -0.175
86.32000 -1.352
86.34000 -1.607
86.36000 0.372
86.38000 -0.172
86.40000 -1.347
86.42000 1.791
86.44000 4.436
86.46000 2.490
86.48000 1.321
86.50000 0.324
86.52000 1.869
86.54000 0.516
86.56000 -0.057
86.58000 -1.921
86.60000 -0.480
86.62000 1.947
86.64000 0.857
86.66000 3.391
86.68000 3.092
86.70000 1.758
86.72000 1.258
86.74000 2.273
86.76000 1.008
86.78000 1.757
86.80000 -1.708
86.82000 -0.705
86.84000 -1.070
86.86000 -0.607
86.88000 0.029
86.90000 3.444
86.92000 2.499
86.94000 2.156
86.96000 3.091
86.98000 0.260
87.00000 1.178
87.02000 -1.873
87.04000 0.132
87.06000 -0.680
87.08000 1.670
87.10000 1.040
87.12000 2.411
87.14000 3.740
87.16000 3.927
87.18000 3.192
87.20000 3.898
87.22000 5.907
87.24000 4.521
87.26000 1.873
87.28000 2.062
87.30000 -1.842
87.32000 1.667
87.34000 3.260
87.36000 2.978
87.38000 4.125
87.40000 4.230
87.42000 4.195
87.44000 -0.229
87.46000 1.155
87.48000 0.705
87.50000 2.208
87.52000 -0.536
87.54000 2.483
87.56000 1.169
87.58000 2.735
87.60000 -0.912
87.62000 0.284
87.64000 2.021
87.66000 2.806
87.68000 4.328
87.70000 4.800
87.72000 2.451
87.74000 2.331
87.76000 1.340
87.78000 -1.034
87.80000 -1.392
87.82000 2.984
87.84000 3.960
87.86000 1.923
87.88000 1.379
87.90000 3.302
87.92000 3.474
87.94000 2.078
87.96000 2.514
87.98000 2.684
88.00000 1.128
88.02000 4.059
88.04000 5.788
88.06000 1.140
88.08000 -0.978
88.10000 1.424
88.12000 0.859
88.14000 1.737
88.16000 6.040
88.18000 2.948
88.20000 4.256
88.22000 0.946
88.24000 2.897
88.26000 2.997
88.28000 3.206
88.30000 0.097
88.32000 0.839
88.34000 5.014
88.36000 4.842
88.38000 2.132
88.40000 3.510
88.42000 2.419
88.44000 0.769
88.46000 3.132
88.48000 3.615
88.50000 3.439
88.52000 2.119
88.54000 -1.793
88.56000 1.625
88.58000 3.364
88.60000 3.271
88.62000 3.092
88.64000 4.261
88.66000 1.291
88.68000 -0.077
88.70000 -0.416
88.72000 0.635
88.74000 1.949
88.76000 4.229
88.78000 4.679
88.80000 5.070
88.82000 2.366
88.84000 6.886
88.86000 7.612
88.88000 2.144
88.90000 2.224
88.92000 -1.773
88.94000 -1.815
88.96000 0.738
88.98000 0.209
89.00000 3.413
89.02000 3.814
89.04000 2.396
89.06000 3.077
89.08000 0.900
89.10000 1.011
89.12000 2.279
89.14000 4.200
89.16000 2.686
89.18000 2.654
89.20000 1.825
89.22000 1.083
89.24000 0.550
89.26000 1.025
89.28000 5.067
89.30000 1.299
89.32000 1.147
89.34000 2.700
89.36000 4.179
89.38000 3.192
89.40000 3.962
89.42000 3.208
89.44000 3.615
89.46000 4.556
89.48000 5.275
89.50000 2.550
89.52000 2.074
89.54000 -1.099
89.56000 3.514
89.58000 3.206
89.60000 4.891
89.62000 3.114
89.64000 0.402
89.66000 0.338
89.68000 0.931
89.70000 4.988
89.72000 3.391
89.74000 -0.343
89.76000 -0.775
89.78000 -0.011
89.80000 -1.082
89.82000 0.315
89.84000 4.580
89.86000 2.380
89.88000 2.018
89.90000 4.352
89.92000 3.114
89.94000 1.752
89.96000 2.486
89.98000 2.820
90.00000 2.578
90.02000 1.811
90.04000 0.419
90.06000 1.772
90.08000 3.643
90.10000 2.899
90.12000 1.299
90.14000 -0.783
90.16000 -1.812
90.18000 1.801
90.20000 2.652
90.22000 0.678
90.24000 0.139
90.26000 1.467
90.28000 3.711
90.30000 2.912
90.32000 1.044
90.34000 1.607
90.36000 1.603
90.38000 2.555
90.40000 -0.963
90.42000 0.707
90.44000 0.194
90.46000 3.859
90.48000 0.858
90.50000 0.428
90.52000 -0.035
90.54000 0.839
90.56000 -0.052
90.58000 1.805
90.60000 5.655
90.62000 4.620
90.64000 0.563
90.66000 0.795
90.68000 -0.127
90.70000 0.978
90.72000 2.540
90.74000 0.456
90.76000 -0.198
90.78000 0.178
90.80000 2.081
90.82000 2.224
90.84000 1.263
90.86000 0.951
90.88000 1.173
90.90000 0.923
90.92000 0.130
90.94000 -0.012
90.96000 -0.512
90.98000 -1.835
91.00000 -0.237
91.02000 -0.418
91.04000 0.599
91.06000 -0.207
91.08000 0.825
91.10000 -0.435
91.12000 -0.380
91.14000 -0.303
91.16000 -1.565
91.18000 1.866
91.20000 2.755
91.22000 2.184
91.24000 2.507
91.26000 3.855
91.28000 1.826
91.30000 0.144
91.32000 -0.230
91.34000 0.193
91.36000 2.776
91.38000 3.848
91.40000 0.942
91.42000 -1.599
91.44000 0.008
91.46000 -1.186
91.48000 2.787
91.50000 5.600
91.52000 4.778
91.54000 2.328
91.56000 2.535
91.58000 1.795
91.60000 0.021
91.62000 -1.847
91.64000 0.651
91.66000 2.444
91.68000 0.573
91.70000 -1.722
91.72000 -0.648
91.74000 3.684
91.76000 2.430
91.78000 0.382
91.80000 0.516
91.82000 1.023
91.84000 0.345
91.86000 1.331
91.88000 4.765
91.90000 4.725
91.92000 1.364
91.94000 -1.821
91.96000 -0.718
91.98000 -1.783
92.00000 -0.712
92.02000 -1.473
92.04000 1.288
92.06000 1.227
92.08000 2.792
92.10000 0.040
92.12000 -0.685
92.14000 -1.210
92.16000 -1.847
92.18000 -1.251
92.20000 1.437
92.22000 2.397
92.24000 1.947
92.26000 1.217
92.28000 0.748
92.30000 -0.222
92.32000 0.011
92.34000 1.740
92.36000 2.405
92.38000 3.584
92.40000 3.129
92.42000 1.405
92.44000 -1.078
92.46000 -1.843
92.48000 2.291
92.50000 3.215
92.52000 -0.993
92.54000 -0.163
92.56000 1.501
92.58000 1.198
92.60000 0.259
92.62000 -1.343
92.64000 -0.753
92.66000 0.358
92.68000 0.552
92.70000 -1.536
92.72000 1.180
92.74000 1.506
92.76000 4.473
92.78000 3.141
92.80000 0.658
92.82000 3.027
92.84000 1.948
92.86000 0.735
92.88000 2.040
92.90000 4.508
92.92000 3.731
92.94000 -0.017
92.96000 -0.947
92.98000 1.462
93.00000 2.205
93.02000 2.382
93.04000 0.335
93.06000 0.430
93.08000 -1.641
93.10000 3.061
93.12000 5.784
93.14000 2.996
93.16000 1.402
93.18000 2.797
93.20000 3.766
93.22000 0.880
93.24000 2.104
93.26000 3.828
93.28000 3.834
93.30000 -1.122
93.32000 -0.426
93.34000 0.837
93.36000 4.581
93.38000 2.293
93.40000 1.372
93.42000 0.937
93.44000 1.060
93.46000 2.077
93.48000 3.516
93.50000 4.593
93.52000 4.628
93.54000 4.382
93.56000 2.471
93.58000 3.224
93.60000 2.405
93.62000 -0.473
93.64000 1.791
93.66000 5.028
93.68000 5.316
93.70000 4.804
93.72000 3.189
93.74000 -1.657
93.76000 -1.812
93.78000 -0.174
93.80000 1.850
93.82000 1.765
93.84000 3.306
93.86000 4.826
93.88000 6.173
93.90000 3.027
93.92000 4.676
93.94000 3.437
93.96000 4.219
93.98000 6.131
94.00000 4.298
94.02000 3.022
94.04000 3.462
94.06000 2.757
94.08000 1.623
94.10000 3.211
94.12000 4.321
94.14000 2.989
94.16000 1.253
94.18000 0.314
94.20000 1.012
94.22000 1.881
94.24000 0.961
94.26000 2.006
94.28000 1.548
94.30000 2.273
94.32000 3.897
94.34000 4.244
94.36000 4.408
94.38000 1.673
94.40000 1.220
94.42000 0.452
94.44000 -0.549
94.46000 1.437
94.48000 1.605
94.50000 1.860
94.52000 2.125
94.54000 1.004
94.56000 0.195
94.58000 2.658
94.60000 -0.624
94.62000 -0.840
94.64000 5.708
94.66000 2.773
94.68000 2.690
94.70000 3.019
94.72000 1.654
94.74000 0.572
94.76000 2.459
94.78000 3.428
94.80000 1.358
94.82000 -1.352
94.84000 0.235
94.86000 1.743
94.88000 2.731
94.90000 -0.547
94.92000 0.765
94.94000 0.215
94.96000 2.442
94.98000 5.104
95.00000 3.451
95.02000 -0.547
95.04000 0.042
95.06000 -0.725
95.08000 -0.255
95.10000 0.996
95.12000 3.032
95.14000 3.524
95.16000 2.203
95.18000 2.349
95.20000 -0.506
95.22000 0.493
95.24000 -1.887
95.26000 0.128
95.28000 2.998
95.30000 4.893
95.32000 3.976
95.34000 -0.640
95.36000 -0.393
95.38000 2.495
95.40000 -0.142
95.42000 2.978
95.44000 2.896
95.46000 2.265
95.48000 0.991
95.50000 2.669
95.52000 2.240
95.54000 1.267
95.56000 -0.719
95.58000 1.632
95.60000 1.344
95.62000 1.367
95.64000 0.395
95.66000 -1.544
95.68000 0.879
95.70000 -0.210
95.72000 3.078
95.74000 1.423
95.76000 3.287
95.78000 2.706
95.80000 -1.056
95.82000 -1.876
95.84000 -1.753
95.86000 0.471
95.88000 2.503
95.90000 1.576
95.92000 -0.268
95.94000 1.299
95.96000 0.548
95.98000 3.113
96.00000 1.874
96.02000 0.872
96.04000 -0.072
96.06000 0.350
96.08000 -0.727
96.10000 0.372
96.12000 3.033
96.14000 -0.565
96.16000 -0.807
96.18000 0.340
96.20000 3.054
96.22000 -1.841
96.24000 -0.545
96.26000 3.154
96.28000 0.930
96.30000 0.092
96.32000 1.811
96.34000 7.733
96.36000 3.012
96.38000 0.319
96.40000 3.745
96.42000 0.105
96.44000 0.106
96.46000 1.747
96.48000 0.161
96.50000 1.652
96.52000 0.845
96.54000 0.491
96.56000 2.022
96.58000 -0.117
96.60000 0.149
96.62000 2.986
96.64000 5.144
96.66000 5.235
96.68000 -0.316
96.70000 -0.091
96.72000 3.865
96.74000 5.258
96.76000 5.113
96.78000 3.791
96.80000 1.501
96.82000 -0.039
96.84000 0.354
96.86000 -0.688
96.88000 5.043
96.90000 4.960
96.92000 2.585
96.94000 2.445
96.96000 4.848
96.98000 3.254
97.00000 0.918
97.02000 5.350
97.04000 6.779
97.06000 4.058
97.08000 -0.080
97.10000 -0.917
97.12000 7.060
97.14000 3.361
97.16000 0.160
97.18000 1.451
97.20000 3.103
97.22000 8.987
97.24000 7.570
97.26000 5.706
97.28000 4.209
97.30000 5.520
97.32000 4.419
97.34000 3.036
97.36000 6.528
97.38000 14.197
97.40000 11.426
97.42000 3.967
97.44000 6.566
97.46000 4.376
97.48000 4.346
97.50000 5.914
97.52000 7.966
97.54000 8.712
97.56000 5.704
97.58000 7.570
97.60000 3.157
97.62000 4.252
97.64000 4.406
97.66000 -1.745
97.68000 1.147
97.70000 8.634
97.72000 8.719
97.74000 4.122
97.76000 3.772
97.78000 6.563
97.80000 3.190
97.82000 7.524
97.84000 6.998
97.86000 6.517
97.88000 5.914
97.90000 5.484
97.92000 5.775
97.94000 3.298
97.96000 5.005
97.98000 1.726
98.00000 2.733
98.02000 6.189
98.04000 9.652
98.06000 6.872
98.08000 1.522
98.10000 4.744
98.12000 5.144
98.14000 6.557
98.16000 6.935
98.18000 5.919
98.20000 2.870
98.22000 2.497
98.24000 0.363
98.26000 1.530
98.28000 0.343
98.30000 2.769
98.32000 3.795
98.34000 6.579
98.36000 6.506
98.38000 7.173
98.40000 3.220
98.42000 -1.759
98.44000 1.372
98.46000 4.698
98.48000 3.378
98.50000 1.282
98.52000 1.582
98.54000 3.930
98.56000 0.482
98.58000 -0.395
98.60000 1.514
98.62000 1.383
98.64000 -1.779
98.66000 0.797
98.68000 4.284
98.70000 3.146
98.72000 3.579
98.74000 2.902
98.76000 2.220
98.78000 5.372
98.80000 1.990
98.82000 -1.178
98.84000 5.745
98.86000 4.034
98.88000 7.977
98.90000 9.052
98.92000 8.474
98.94000 9.538
98.96000 6.551
98.98000 0.990
99.00000 1.448
99.02000 1.262
99.04000 4.857
99.06000 6.690
99.08000 6.177
99.10000 8.246
99.12000 4.171
99.14000 3.931
99.16000 6.046
99.18000 3.346
99.20000 2.487
99.22000 -1.346
99.24000 7.280
99.26000 10.046
99.28000 3.236
99.30000 4.576
99.32000 3.924
99.34000 5.442
99.36000 1.245
99.38000 1.686
99.40000 -1.803
99.42000 6.175
99.44000 1.644
99.46000 1.980
99.48000 5.536
99.50000 0.274
99.52000 2.512
99.54000 0.295
99.56000 -0.249
99.58000 3.526
99.60000 6.830
99.62000 2.015
99.64000 0.095
99.66000 2.512
99.68000 6.195
99.70000 5.210
99.72000 5.782
99.74000 1.834
99.76000 6.995
99.78000 9.149
99.80000 8.383
99.82000 13.030
99.84000 7.105
99.86000 -1.824
99.88000 -1.832
99.90000 5.634
99.92000 3.931
99.94000 0.134
99.96000 0.194
99.98000 0.000
