'Id: "0011388" Comment: "Integrate frame 0011388_Au-Ir-Rh_Rh-rich_XRD-Mapping-288-0000.gfrmwith cursor Wedge Cursor #5" Operator: "B?rgel" Anode: "Cu" Wavelength: "1.5406" Scantype: "2Theta (TwoTheta)" TimePerStep: "1" X: "4.5" Y: "27" Z: "5.95" 
10.00000 0.000
10.02000 6.532
10.04000 -4.075
10.06000 4.581
10.08000 31.854
10.10000 22.282
10.12000 16.647
10.14000 16.438
10.16000 7.788
10.18000 -0.905
10.20000 6.315
10.22000 9.135
10.24000 18.048
10.26000 20.034
10.28000 15.875
10.30000 32.240
10.32000 19.188
10.34000 16.032
10.36000 12.461
10.38000 3.995
10.40000 24.261
10.42000 19.238
10.44000 11.823
10.46000 7.198
10.48000 2.590
10.50000 4.766
10.52000 9.001
10.54000 35.141
10.56000 25.268
10.58000 14.530
10.60000 14.969
10.62000 13.284
10.64000 11.060
10.66000 11.993
10.68000 17.385
10.70000 6.952
10.72000 25.105
10.74000 26.401
10.76000 25.201
10.78000 20.396
10.80000 16.458
10.82000 12.868
10.84000 18.380
10.86000 11.385
10.88000 13.263
10.90000 26.962
10.92000 23.855
10.94000 31.081
10.96000 32.845
10.98000 21.040
11.00000 16.710
11.02000 20.747
11.04000 15.806
11.06000 23.499
11.08000 11.205
11.10000 10.929
11.12000 10.313
11.14000 19.085
11.16000 5.570
11.18000 1.857
11.20000 18.866
11.22000 14.048
11.24000 16.581
11.26000 16.222
11.28000 13.510
11.30000 10.056
11.32000 3.347
11.34000 11.574
11.36000 11.362
11.38000 14.319
11.40000 19.686
11.42000 25.718
11.44000 19.842
11.46000 8.224
11.48000 10.308
11.50000 13.123
11.52000 18.773
11.54000 15.809
11.56000 15.150
11.58000 24.097
11.60000 15.802
11.62000 6.413
11.64000 7.548
11.66000 7.259
11.68000 24.652
11.70000 26.427
11.72000 21.716
11.74000 14.917
11.76000 21.296
11.78000 30.465
11.80000 30.077
11.82000 17.149
11.84000 9.930
11.86000 16.211
11.88000 7.215
11.90000 16.795
11.92000 18.637
11.94000 17.500
11.96000 16.472
11.98000 6.798
12.00000 5.479
12.02000 9.338
12.04000 16.094
12.06000 18.091
12.08000 16.917
12.10000 9.956
12.12000 11.371
12.14000 12.826
12.16000 12.331
12.18000 4.288
12.20000 8.068
12.22000 9.832
12.24000 5.559
12.26000 14.094
12.28000 7.330
12.30000 6.354
12.32000 12.232
12.34000 11.244
12.36000 11.412
12.38000 20.011
12.40000 14.524
12.42000 7.348
12.44000 11.830
12.46000 22.930
12.48000 13.523
12.50000 18.997
12.52000 16.188
12.54000 17.229
12.56000 8.080
12.58000 5.783
12.60000 16.078
12.62000 17.143
12.64000 8.801
12.66000 4.027
12.68000 13.419
12.70000 20.158
12.72000 23.768
12.74000 26.755
12.76000 18.454
12.78000 24.974
12.80000 19.525
12.82000 15.250
12.84000 18.775
12.86000 11.932
12.88000 14.416
12.90000 17.271
12.92000 9.354
12.94000 12.688
12.96000 14.947
12.98000 14.413
13.00000 8.938
13.02000 3.564
13.04000 10.395
13.06000 7.825
13.08000 10.745
13.10000 14.123
13.12000 10.844
13.14000 17.669
13.16000 21.196
13.18000 28.796
13.20000 21.642
13.22000 22.718
13.24000 13.944
13.26000 9.958
13.28000 22.122
13.30000 17.753
13.32000 11.653
13.34000 14.126
13.36000 17.797
13.38000 17.412
13.40000 10.746
13.42000 9.835
13.44000 13.902
13.46000 9.283
13.48000 20.654
13.50000 19.281
13.52000 12.265
13.54000 7.252
13.56000 11.139
13.58000 5.703
13.60000 2.557
13.62000 5.240
13.64000 8.542
13.66000 4.465
13.68000 10.185
13.70000 9.202
13.72000 8.201
13.74000 13.097
13.76000 6.754
13.78000 4.691
13.80000 4.766
13.82000 4.610
13.84000 8.401
13.86000 5.896
13.88000 4.921
13.90000 6.703
13.92000 13.726
13.94000 9.241
13.96000 7.311
13.98000 -0.329
14.00000 9.215
14.02000 12.914
14.04000 9.539
14.06000 15.688
14.08000 11.368
14.10000 17.942
14.12000 13.812
14.14000 6.924
14.16000 6.977
14.18000 -1.220
14.20000 -4.483
14.22000 5.722
14.24000 8.110
14.26000 8.173
14.28000 7.570
14.30000 1.220
14.32000 4.300
14.34000 16.594
14.36000 13.129
14.38000 7.092
14.40000 15.107
14.42000 21.204
14.44000 13.595
14.46000 9.910
14.48000 4.204
14.50000 10.328
14.52000 13.397
14.54000 8.389
14.56000 13.580
14.58000 7.898
14.60000 6.617
14.62000 11.674
14.64000 9.708
14.66000 8.097
14.68000 13.624
14.70000 14.706
14.72000 9.594
14.74000 5.561
14.76000 2.291
14.78000 10.259
14.80000 10.354
14.82000 6.306
14.84000 -2.800
14.86000 4.117
14.88000 7.251
14.90000 9.639
14.92000 9.306
14.94000 9.607
14.96000 9.967
14.98000 10.564
15.00000 10.806
15.02000 10.441
15.04000 2.951
15.06000 8.755
15.08000 19.875
15.10000 13.689
15.12000 13.150
15.14000 11.516
15.16000 6.125
15.18000 1.323
15.20000 1.291
15.22000 1.728
15.24000 9.900
15.26000 11.752
15.28000 10.667
15.30000 7.906
15.32000 3.534
15.34000 -2.465
15.36000 4.153
15.38000 8.557
15.40000 7.445
15.42000 5.984
15.44000 5.991
15.46000 5.282
15.48000 -0.179
15.50000 8.792
15.52000 4.829
15.54000 6.194
15.56000 -0.632
15.58000 -4.487
15.60000 11.884
15.62000 17.173
15.64000 8.377
15.66000 6.703
15.68000 1.138
15.70000 -3.931
15.72000 7.254
15.74000 15.583
15.76000 2.970
15.78000 -4.364
15.80000 0.330
15.82000 1.261
15.84000 5.837
15.86000 5.399
15.88000 3.526
15.90000 7.731
15.92000 15.827
15.94000 9.273
15.96000 -3.309
15.98000 0.223
16.00000 7.248
16.02000 5.845
16.04000 4.007
16.06000 9.397
16.08000 6.212
16.10000 4.670
16.12000 -3.459
16.14000 -4.475
16.16000 9.516
16.18000 8.101
16.20000 5.815
16.22000 -1.409
16.24000 4.151
16.26000 1.285
16.28000 -3.645
16.30000 1.291
16.32000 1.951
16.34000 8.089
16.36000 -0.792
16.38000 0.281
16.40000 3.854
16.42000 3.562
16.44000 13.049
16.46000 8.216
16.48000 -0.860
16.50000 -2.840
16.52000 -3.179
16.54000 -1.980
16.56000 -1.157
16.58000 6.109
16.60000 5.665
16.62000 5.632
16.64000 2.391
16.66000 7.252
16.68000 1.589
16.70000 -2.221
16.72000 2.924
16.74000 0.177
16.76000 -1.772
16.78000 2.884
16.80000 13.477
16.82000 16.700
16.84000 13.824
16.86000 2.265
16.88000 -4.453
16.90000 -2.662
16.92000 3.817
16.94000 8.296
16.96000 -2.628
16.98000 8.782
17.00000 16.701
17.02000 10.680
17.04000 4.621
17.06000 7.499
17.08000 1.012
17.10000 -0.797
17.12000 -0.174
17.14000 3.788
17.16000 5.068
17.18000 -3.256
17.20000 -4.194
17.22000 1.294
17.24000 -3.386
17.26000 5.165
17.28000 6.273
17.30000 -1.280
17.32000 6.085
17.34000 2.375
17.36000 3.518
17.38000 0.806
17.40000 2.480
17.42000 8.819
17.44000 0.681
17.46000 2.138
17.48000 -0.098
17.50000 -1.948
17.52000 1.301
17.54000 2.828
17.56000 4.429
17.58000 -1.923
17.60000 -0.763
17.62000 2.525
17.64000 5.574
17.66000 2.541
17.68000 -0.593
17.70000 4.303
17.72000 4.701
17.74000 0.645
17.76000 1.954
17.78000 1.117
17.80000 8.446
17.82000 2.614
17.84000 -3.385
17.86000 -1.326
17.88000 2.255
17.90000 -1.714
17.92000 -1.210
17.94000 8.070
17.96000 10.758
17.98000 -1.485
18.00000 2.909
18.02000 3.871
18.04000 -1.542
18.06000 -3.428
18.08000 4.890
18.10000 5.765
18.12000 5.317
18.14000 7.079
18.16000 7.968
18.18000 7.362
18.20000 5.276
18.22000 8.476
18.24000 4.704
18.26000 6.526
18.28000 6.975
18.30000 4.156
18.32000 8.537
18.34000 1.208
18.36000 2.587
18.38000 5.623
18.40000 9.741
18.42000 1.236
18.44000 1.824
18.46000 8.035
18.48000 11.126
18.50000 7.224
18.52000 5.819
18.54000 7.406
18.56000 8.235
18.58000 8.321
18.60000 11.000
18.62000 8.322
18.64000 10.198
18.66000 13.505
18.68000 9.290
18.70000 12.446
18.72000 4.898
18.74000 5.600
18.76000 11.145
18.78000 13.981
18.80000 8.151
18.82000 2.956
18.84000 8.286
18.86000 12.289
18.88000 11.112
18.90000 9.634
18.92000 13.168
18.94000 11.508
18.96000 5.349
18.98000 2.807
19.00000 3.285
19.02000 -0.392
19.04000 1.879
19.06000 5.103
19.08000 4.953
19.10000 8.950
19.12000 8.124
19.14000 10.704
19.16000 2.931
19.18000 -4.265
19.20000 -0.742
19.22000 -0.973
19.24000 1.125
19.26000 6.564
19.28000 2.257
19.30000 -2.255
19.32000 1.741
19.34000 6.780
19.36000 5.107
19.38000 9.518
19.40000 5.947
19.42000 -0.718
19.44000 4.687
19.46000 7.153
19.48000 -0.112
19.50000 1.986
19.52000 8.312
19.54000 4.436
19.56000 3.735
19.58000 9.120
19.60000 7.014
19.62000 6.317
19.64000 2.017
19.66000 3.763
19.68000 9.385
19.70000 7.411
19.72000 6.362
19.74000 6.217
19.76000 8.044
19.78000 10.533
19.80000 3.214
19.82000 10.558
19.84000 9.882
19.86000 5.247
19.88000 6.592
19.90000 7.303
19.92000 1.387
19.94000 3.274
19.96000 8.317
19.98000 8.550
20.00000 12.818
20.02000 11.256
20.04000 16.694
20.06000 12.488
20.08000 13.762
20.10000 14.583
20.12000 4.617
20.14000 3.271
20.16000 3.105
20.18000 1.915
20.20000 2.922
20.22000 2.209
20.24000 6.584
20.26000 6.970
20.28000 8.733
20.30000 7.292
20.32000 8.354
20.34000 11.000
20.36000 11.566
20.38000 11.619
20.40000 3.290
20.42000 3.524
20.44000 3.970
20.46000 2.900
20.48000 4.042
20.50000 4.628
20.52000 2.967
20.54000 2.254
20.56000 2.017
20.58000 8.308
20.60000 4.035
20.62000 5.855
20.64000 4.710
20.66000 -1.471
20.68000 -1.266
20.70000 2.972
20.72000 13.451
20.74000 7.411
20.76000 -2.017
20.78000 2.389
20.80000 10.735
20.82000 7.962
20.84000 0.124
20.86000 2.168
20.88000 2.091
20.90000 3.445
20.92000 6.659
20.94000 7.752
20.96000 9.498
20.98000 3.554
21.00000 4.270
21.02000 6.008
21.04000 8.475
21.06000 8.077
21.08000 0.752
21.10000 -2.171
21.12000 -4.193
21.14000 0.912
21.16000 6.835
21.18000 8.131
21.20000 8.518
21.22000 4.852
21.24000 3.863
21.26000 2.874
21.28000 9.397
21.30000 5.683
21.32000 -0.286
21.34000 4.013
21.36000 5.449
21.38000 4.644
21.40000 4.233
21.42000 7.034
21.44000 12.226
21.46000 11.319
21.48000 8.636
21.50000 2.832
21.52000 -3.825
21.54000 5.184
21.56000 11.486
21.58000 7.944
21.60000 8.629
21.62000 8.565
21.64000 4.350
21.66000 7.225
21.68000 5.313
21.70000 0.725
21.72000 7.294
21.74000 5.633
21.76000 1.841
21.78000 2.172
21.80000 5.645
21.82000 5.842
21.84000 5.740
21.86000 9.576
21.88000 -0.686
21.90000 1.675
21.92000 3.976
21.94000 4.974
21.96000 9.864
21.98000 10.195
22.00000 8.113
22.02000 8.138
22.04000 7.892
22.06000 8.707
22.08000 9.129
22.10000 -4.131
22.12000 -2.419
22.14000 -1.285
22.16000 3.656
22.18000 6.034
22.20000 5.292
22.22000 0.147
22.24000 0.170
22.26000 5.607
22.28000 9.137
22.30000 3.134
22.32000 4.080
22.34000 0.860
22.36000 2.402
22.38000 4.736
22.40000 7.071
22.42000 5.101
22.44000 1.243
22.46000 -1.282
22.48000 1.385
22.50000 7.083
22.52000 16.117
22.54000 14.796
22.56000 7.779
22.58000 4.088
22.60000 1.633
22.62000 0.226
22.64000 -0.844
22.66000 1.400
22.68000 6.003
22.70000 3.338
22.72000 -4.118
22.74000 -0.283
22.76000 6.102
22.78000 7.915
22.80000 3.715
22.82000 3.896
22.84000 3.838
22.86000 2.410
22.88000 7.565
22.90000 4.625
22.92000 4.242
22.94000 1.976
22.96000 3.064
22.98000 0.719
23.00000 1.824
23.02000 5.216
23.04000 3.869
23.06000 8.973
23.08000 8.803
23.10000 6.206
23.12000 5.676
23.14000 4.293
23.16000 5.796
23.18000 -0.756
23.20000 4.692
23.22000 4.932
23.24000 4.426
23.26000 2.893
23.28000 3.404
23.30000 3.623
23.32000 5.998
23.34000 4.104
23.36000 -4.089
23.38000 -0.647
23.40000 -0.608
23.42000 3.173
23.44000 3.557
23.46000 2.063
23.48000 2.239
23.50000 7.167
23.52000 5.040
23.54000 4.611
23.56000 1.022
23.58000 -1.742
23.60000 -0.472
23.62000 1.141
23.64000 2.627
23.66000 9.350
23.68000 6.975
23.70000 6.754
23.72000 1.031
23.74000 1.773
23.76000 1.553
23.78000 -2.409
23.80000 1.642
23.82000 7.011
23.84000 11.000
23.86000 6.772
23.88000 2.396
23.90000 -4.057
23.92000 -3.467
23.94000 1.140
23.96000 5.528
23.98000 7.755
24.00000 6.024
24.02000 5.161
24.04000 4.822
24.06000 1.993
24.08000 -0.511
24.10000 3.000
24.12000 1.779
24.14000 6.841
24.16000 0.691
24.18000 6.495
24.20000 7.907
24.22000 -0.938
24.24000 -4.039
24.26000 5.753
24.28000 1.337
24.30000 0.632
24.32000 4.350
24.34000 3.005
24.36000 1.920
24.38000 1.382
24.40000 -3.873
24.42000 0.490
24.44000 5.621
24.46000 4.721
24.48000 7.237
24.50000 6.393
24.52000 0.717
24.54000 -1.795
24.56000 -0.901
24.58000 5.669
24.60000 -0.449
24.62000 -2.316
24.64000 -2.585
24.66000 1.522
24.68000 -1.366
24.70000 3.682
24.72000 8.184
24.74000 7.527
24.76000 4.347
24.78000 -2.116
24.80000 0.119
24.82000 -1.231
24.84000 0.967
24.86000 3.109
24.88000 7.081
24.90000 2.480
24.92000 2.811
24.94000 4.053
24.96000 -2.653
24.98000 1.529
25.00000 1.966
25.02000 3.018
25.04000 4.560
25.06000 0.510
25.08000 -1.472
25.10000 2.270
25.12000 4.415
25.14000 4.330
25.16000 0.190
25.18000 1.839
25.20000 4.551
25.22000 3.365
25.24000 1.769
25.26000 1.428
25.28000 -3.576
25.30000 0.470
25.32000 -1.537
25.34000 0.252
25.36000 -1.475
25.38000 -0.585
25.40000 3.267
25.42000 2.119
25.44000 -0.372
25.46000 5.423
25.48000 6.793
25.50000 5.214
25.52000 3.786
25.54000 2.683
25.56000 -3.967
25.58000 -1.878
25.60000 -1.975
25.62000 -2.744
25.64000 -2.065
25.66000 -1.495
25.68000 1.411
25.70000 1.212
25.72000 5.182
25.74000 5.683
25.76000 8.599
25.78000 7.304
25.80000 0.180
25.82000 -1.112
25.84000 -1.662
25.86000 -0.704
25.88000 3.115
25.90000 5.421
25.92000 6.713
25.94000 7.858
25.96000 3.154
25.98000 0.036
26.00000 1.479
26.02000 2.737
26.04000 0.684
26.06000 2.791
26.08000 2.654
26.10000 2.620
26.12000 1.744
26.14000 2.272
26.16000 6.391
26.18000 6.898
26.20000 2.065
26.22000 -1.159
26.24000 5.239
26.26000 -0.641
26.28000 -0.353
26.30000 -0.103
26.32000 -0.669
26.34000 5.964
26.36000 3.788
26.38000 3.178
26.40000 5.613
26.42000 8.957
26.44000 4.582
26.46000 5.779
26.48000 3.052
26.50000 -0.509
26.52000 1.749
26.54000 6.855
26.56000 1.965
26.58000 5.181
26.60000 10.312
26.62000 10.793
26.64000 8.613
26.66000 6.696
26.68000 7.737
26.70000 4.710
26.72000 0.379
26.74000 0.913
26.76000 7.744
26.78000 4.985
26.80000 6.288
26.82000 7.213
26.84000 3.156
26.86000 4.185
26.88000 -0.832
26.90000 -3.857
26.92000 -0.096
26.94000 3.155
26.96000 5.105
26.98000 4.352
27.00000 9.164
27.02000 10.786
27.04000 6.110
27.06000 6.992
27.08000 4.675
27.10000 -0.173
27.12000 5.359
27.14000 4.036
27.16000 4.358
27.18000 0.386
27.20000 1.961
27.22000 4.968
27.24000 7.588
27.26000 13.462
27.28000 6.020
27.30000 1.987
27.32000 4.697
27.34000 4.024
27.36000 3.754
27.38000 3.168
27.40000 1.428
27.42000 2.227
27.44000 6.029
27.46000 2.883
27.48000 1.710
27.50000 3.884
27.52000 2.371
27.54000 9.862
27.56000 13.600
27.58000 2.439
27.60000 -0.673
27.62000 0.339
27.64000 3.934
27.66000 -0.317
27.68000 -0.847
27.70000 0.654
27.72000 1.874
27.74000 11.524
27.76000 11.050
27.78000 1.944
27.80000 -3.835
27.82000 -0.646
27.84000 0.209
27.86000 6.381
27.88000 1.901
27.90000 3.856
27.92000 6.413
27.94000 3.028
27.96000 4.954
27.98000 5.020
28.00000 0.416
28.02000 -1.579
28.04000 4.486
28.06000 7.374
28.08000 1.624
28.10000 -2.240
28.12000 -2.790
28.14000 4.964
28.16000 0.549
28.18000 -2.146
28.20000 0.635
28.22000 2.335
28.24000 7.742
28.26000 4.743
28.28000 0.690
28.30000 0.315
28.32000 2.699
28.34000 -1.345
28.36000 3.912
28.38000 6.893
28.40000 3.525
28.42000 2.096
28.44000 8.761
28.46000 5.053
28.48000 -0.833
28.50000 1.512
28.52000 3.369
28.54000 3.829
28.56000 5.429
28.58000 4.329
28.60000 0.640
28.62000 5.330
28.64000 3.442
28.66000 4.637
28.68000 5.244
28.70000 3.356
28.72000 -0.107
28.74000 -2.626
28.76000 2.246
28.78000 1.759
28.80000 0.282
28.82000 -0.244
28.84000 4.512
28.86000 5.732
28.88000 9.554
28.90000 6.867
28.92000 2.883
28.94000 6.652
28.96000 3.002
28.98000 2.501
29.00000 1.208
29.02000 2.311
29.04000 5.222
29.06000 0.992
29.08000 2.654
29.10000 2.040
29.12000 6.766
29.14000 5.773
29.16000 5.341
29.18000 2.524
29.20000 4.196
29.22000 2.469
29.24000 0.234
29.26000 1.976
29.28000 -1.346
29.30000 -3.758
29.32000 -0.058
29.34000 1.003
29.36000 -0.244
29.38000 1.610
29.40000 4.456
29.42000 7.047
29.44000 4.845
29.46000 2.104
29.48000 4.990
29.50000 4.896
29.52000 2.157
29.54000 -1.178
29.56000 -1.512
29.58000 0.308
29.60000 0.412
29.62000 -1.650
29.64000 -1.076
29.66000 -0.035
29.68000 2.397
29.70000 3.151
29.72000 6.061
29.74000 3.281
29.76000 5.602
29.78000 -1.749
29.80000 0.570
29.82000 2.538
29.84000 1.823
29.86000 0.516
29.88000 3.310
29.90000 3.951
29.92000 2.154
29.94000 -1.318
29.96000 2.166
29.98000 2.413
30.00000 5.903
30.02000 4.488
30.04000 0.697
30.06000 1.915
30.08000 4.804
30.10000 -0.089
30.12000 5.885
30.14000 4.868
30.16000 4.454
30.18000 4.850
30.20000 0.343
30.22000 0.480
30.24000 1.304
30.26000 2.907
30.28000 -0.444
30.30000 -3.060
30.32000 3.753
30.34000 7.958
30.36000 2.957
30.38000 5.040
30.40000 1.589
30.42000 1.847
30.44000 4.543
30.46000 4.670
30.48000 1.587
30.50000 5.550
30.52000 5.611
30.54000 2.566
30.56000 1.873
30.58000 3.454
30.60000 0.437
30.62000 -1.935
30.64000 2.626
30.66000 0.589
30.68000 0.621
30.70000 -1.944
30.72000 0.995
30.74000 0.323
30.76000 2.826
30.78000 3.663
30.80000 3.170
30.82000 1.522
30.84000 9.911
30.86000 13.087
30.88000 5.023
30.90000 4.381
30.92000 2.600
30.94000 2.567
30.96000 3.088
30.98000 5.405
31.00000 4.989
31.02000 7.195
31.04000 3.272
31.06000 1.539
31.08000 2.675
31.10000 1.135
31.12000 3.569
31.14000 1.059
31.16000 8.988
31.18000 10.672
31.20000 8.120
31.22000 7.123
31.24000 2.480
31.26000 8.218
31.28000 5.579
31.30000 4.337
31.32000 4.262
31.34000 5.820
31.36000 5.704
31.38000 -0.597
31.40000 -3.653
31.42000 -1.317
31.44000 5.065
31.46000 8.221
31.48000 4.056
31.50000 -0.268
31.52000 0.453
31.54000 9.366
31.56000 8.479
31.58000 1.618
31.60000 -3.649
31.62000 -3.286
31.64000 2.008
31.66000 2.005
31.68000 2.738
31.70000 3.904
31.72000 7.281
31.74000 9.610
31.76000 5.749
31.78000 5.823
31.80000 2.622
31.82000 0.236
31.84000 0.615
31.86000 2.301
31.88000 6.883
31.90000 10.560
31.92000 6.082
31.94000 5.421
31.96000 0.861
31.98000 -1.119
32.00000 -0.894
32.02000 5.057
32.04000 3.232
32.06000 0.522
32.08000 1.921
32.10000 1.599
32.12000 2.930
32.14000 -2.646
32.16000 3.023
32.18000 7.696
32.20000 4.475
32.22000 5.594
32.24000 2.169
32.26000 0.110
32.28000 9.899
32.30000 6.081
32.32000 -2.921
32.34000 -1.534
32.36000 2.402
32.38000 1.923
32.40000 3.765
32.42000 1.584
32.44000 0.061
32.46000 1.128
32.48000 -0.320
32.50000 0.628
32.52000 -2.383
32.54000 -1.170
32.56000 5.171
32.58000 4.899
32.60000 6.514
32.62000 0.839
32.64000 -0.903
32.66000 3.669
32.68000 8.303
32.70000 1.718
32.72000 1.002
32.74000 -3.615
32.76000 -3.451
32.78000 1.210
32.80000 0.079
32.82000 4.279
32.84000 4.189
32.86000 3.419
32.88000 0.803
32.90000 1.727
32.92000 5.156
32.94000 1.766
32.96000 -2.757
32.98000 -1.233
33.00000 3.891
33.02000 4.289
33.04000 -0.697
33.06000 -1.468
33.08000 -1.487
33.10000 -0.070
33.12000 0.038
33.14000 3.972
33.16000 7.413
33.18000 6.391
33.20000 5.393
33.22000 2.809
33.24000 3.543
33.26000 1.285
33.28000 -0.462
33.30000 1.070
33.32000 0.862
33.34000 -0.166
33.36000 0.853
33.38000 1.253
33.40000 1.200
33.42000 6.016
33.44000 3.405
33.46000 -0.780
33.48000 3.993
33.50000 1.954
33.52000 1.966
33.54000 4.219
33.56000 6.140
33.58000 5.725
33.60000 -2.097
33.62000 3.425
33.64000 3.639
33.66000 -0.587
33.68000 0.689
33.70000 5.094
33.72000 3.328
33.74000 -0.749
33.76000 4.848
33.78000 5.066
33.80000 7.636
33.82000 8.998
33.84000 6.399
33.86000 8.557
33.88000 5.777
33.90000 7.860
33.92000 7.065
33.94000 2.182
33.96000 3.422
33.98000 2.773
34.00000 3.207
34.02000 1.549
34.04000 1.933
34.06000 -3.614
34.08000 0.887
34.10000 -0.581
34.12000 -1.565
34.14000 6.828
34.16000 2.497
34.18000 1.497
34.20000 -2.261
34.22000 -1.176
34.24000 0.723
34.26000 -2.250
34.28000 6.928
34.30000 7.665
34.32000 8.774
34.34000 3.240
34.36000 2.011
34.38000 -3.604
34.40000 -3.423
34.42000 3.056
34.44000 4.484
34.46000 2.828
34.48000 4.198
34.50000 5.604
34.52000 1.659
34.54000 3.171
34.56000 3.119
34.58000 5.218
34.60000 4.976
34.62000 4.516
34.64000 1.157
34.66000 -0.453
34.68000 1.059
34.70000 -3.457
34.72000 0.240
34.74000 6.902
34.76000 7.132
34.78000 2.291
34.80000 4.235
34.82000 -1.110
34.84000 2.703
34.86000 3.053
34.88000 -1.052
34.90000 2.300
34.92000 5.752
34.94000 1.470
34.96000 0.936
34.98000 -3.599
35.00000 -0.708
35.02000 -0.423
35.04000 -0.830
35.06000 0.578
35.08000 -1.942
35.10000 2.945
35.12000 5.463
35.14000 1.672
35.16000 2.861
35.18000 5.532
35.20000 1.470
35.22000 0.550
35.24000 -1.343
35.26000 0.288
35.28000 3.979
35.30000 2.170
35.32000 1.092
35.34000 4.124
35.36000 6.026
35.38000 -0.404
35.40000 -3.046
35.42000 -3.585
35.44000 -0.758
35.46000 4.413
35.48000 8.157
35.50000 -0.762
35.52000 -3.514
35.54000 3.154
35.56000 1.373
35.58000 -0.465
35.60000 6.641
35.62000 7.003
35.64000 2.478
35.66000 -0.940
35.68000 -3.580
35.70000 -0.155
35.72000 2.151
35.74000 1.363
35.76000 0.228
35.78000 4.483
35.80000 7.570
35.82000 5.909
35.84000 8.326
35.86000 6.252
35.88000 2.366
35.90000 4.472
35.92000 2.324
35.94000 1.810
35.96000 2.193
35.98000 7.918
36.00000 5.195
36.02000 -2.578
36.04000 -0.614
36.06000 5.446
36.08000 1.773
36.10000 2.419
36.12000 1.408
36.14000 5.642
36.16000 4.252
36.18000 -2.008
36.20000 -2.607
36.22000 -3.588
36.24000 4.103
36.26000 6.948
36.28000 7.300
36.30000 2.761
36.32000 5.307
36.34000 4.206
36.36000 1.909
36.38000 2.457
36.40000 2.640
36.42000 3.230
36.44000 6.534
36.46000 8.142
36.48000 2.738
36.50000 0.849
36.52000 3.243
36.54000 -0.451
36.56000 1.350
36.58000 6.939
36.60000 4.422
36.62000 -1.288
36.64000 -0.950
36.66000 2.613
36.68000 -1.567
36.70000 1.666
36.72000 0.674
36.74000 4.509
36.76000 -0.312
36.78000 -0.281
36.80000 1.219
36.82000 3.488
36.84000 5.868
36.86000 5.022
36.88000 3.602
36.90000 3.773
36.92000 3.760
36.94000 5.187
36.96000 5.248
36.98000 2.750
37.00000 3.250
37.02000 6.113
37.04000 1.664
37.06000 3.775
37.08000 3.418
37.10000 -0.482
37.12000 2.399
37.14000 1.384
37.16000 -1.419
37.18000 6.653
37.20000 4.601
37.22000 -2.129
37.24000 1.451
37.26000 6.227
37.28000 3.771
37.30000 -3.396
37.32000 -2.027
37.34000 -3.671
37.36000 1.426
37.38000 1.854
37.40000 6.333
37.42000 8.965
37.44000 5.611
37.46000 1.332
37.48000 6.227
37.50000 3.122
37.52000 2.769
37.54000 3.230
37.56000 4.779
37.58000 6.642
37.60000 8.754
37.62000 3.823
37.64000 0.101
37.66000 2.280
37.68000 5.254
37.70000 9.119
37.72000 5.531
37.74000 4.753
37.76000 6.581
37.78000 1.922
37.80000 7.970
37.82000 8.779
37.84000 7.709
37.86000 7.295
37.88000 8.618
37.90000 8.668
37.92000 7.654
37.94000 8.011
37.96000 8.878
37.98000 8.988
38.00000 7.366
38.02000 6.414
38.04000 6.887
38.06000 12.748
38.08000 12.110
38.10000 15.810
38.12000 20.673
38.14000 16.839
38.16000 17.024
38.18000 20.991
38.20000 13.488
38.22000 15.115
38.24000 19.452
38.26000 18.965
38.28000 20.419
38.30000 18.888
38.32000 19.504
38.34000 18.896
38.36000 17.996
38.38000 18.394
38.40000 19.884
38.42000 20.947
38.44000 21.022
38.46000 15.794
38.48000 23.045
38.50000 23.374
38.52000 26.151
38.54000 24.631
38.56000 28.550
38.58000 30.124
38.60000 31.971
38.62000 29.781
38.64000 26.741
38.66000 31.158
38.68000 34.049
38.70000 29.311
38.72000 34.938
38.74000 36.039
38.76000 35.394
38.78000 36.058
38.80000 44.377
38.82000 42.197
38.84000 41.187
38.86000 44.572
38.88000 45.387
38.90000 44.510
38.92000 47.482
38.94000 46.473
38.96000 48.277
38.98000 54.671
39.00000 58.470
39.02000 62.363
39.04000 61.302
39.06000 62.616
39.08000 62.500
39.10000 64.744
39.12000 78.656
39.14000 81.244
39.16000 80.456
39.18000 82.748
39.20000 91.325
39.22000 91.757
39.24000 91.370
39.26000 92.344
39.28000 100.327
39.30000 107.138
39.32000 106.300
39.34000 107.065
39.36000 116.931
39.38000 129.407
39.40000 132.053
39.42000 137.857
39.44000 140.299
39.46000 148.473
39.48000 157.481
39.50000 163.043
39.52000 165.937
39.54000 176.011
39.56000 182.348
39.58000 190.932
39.60000 208.561
39.62000 211.218
39.64000 219.410
39.66000 234.000
39.68000 244.687
39.70000 258.012
39.72000 279.341
39.74000 285.001
39.76000 291.887
39.78000 304.169
39.80000 327.404
39.82000 340.036
39.84000 350.214
39.86000 367.102
39.88000 386.826
39.90000 404.444
39.92000 419.947
39.94000 436.128
39.96000 450.478
39.98000 462.713
40.00000 483.749
40.02000 502.170
40.04000 522.568
40.06000 528.929
40.08000 545.977
40.10000 571.342
40.12000 590.569
40.14000 606.710
40.16000 614.413
40.18000 614.042
40.20000 618.689
40.22000 631.058
40.24000 640.662
40.26000 661.806
40.28000 671.220
40.30000 658.367
40.32000 648.754
40.34000 650.519
40.36000 656.094
40.38000 652.341
40.40000 663.202
40.42000 644.310
40.44000 638.775
40.46000 630.509
40.48000 615.191
40.50000 605.916
40.52000 592.660
40.54000 575.038
40.56000 551.392
40.58000 523.833
40.60000 506.266
40.62000 498.920
40.64000 489.760
40.66000 466.091
40.68000 448.258
40.70000 427.583
40.72000 405.933
40.74000 392.512
40.76000 373.381
40.78000 358.108
40.80000 338.764
40.82000 323.975
40.84000 303.104
40.86000 289.350
40.88000 280.296
40.90000 271.895
40.92000 256.726
40.94000 242.980
40.96000 230.679
40.98000 219.545
41.00000 206.907
41.02000 194.908
41.04000 175.120
41.06000 167.427
41.08000 161.564
41.10000 155.045
41.12000 149.465
41.14000 143.730
41.16000 135.439
41.18000 126.019
41.20000 115.287
41.22000 109.981
41.24000 111.049
41.26000 104.358
41.28000 94.828
41.30000 90.499
41.32000 88.951
41.34000 82.692
41.36000 75.901
41.38000 71.603
41.40000 65.373
41.42000 59.438
41.44000 60.758
41.46000 58.821
41.48000 52.789
41.50000 52.714
41.52000 49.285
41.54000 48.132
41.56000 49.131
41.58000 45.627
41.60000 38.913
41.62000 36.959
41.64000 39.918
41.66000 33.382
41.68000 26.316
41.70000 28.077
41.72000 26.788
41.74000 25.333
41.76000 23.274
41.78000 20.528
41.80000 23.139
41.82000 23.693
41.84000 19.692
41.86000 17.818
41.88000 11.523
41.90000 15.401
41.92000 12.711
41.94000 12.331
41.96000 17.271
41.98000 11.796
42.00000 13.734
42.02000 15.212
42.04000 12.666
42.06000 12.394
42.08000 11.958
42.10000 11.371
42.12000 11.209
42.14000 8.276
42.16000 9.267
42.18000 4.368
42.20000 4.335
42.22000 9.643
42.24000 8.768
42.26000 9.906
42.28000 4.369
42.30000 8.777
42.32000 10.580
42.34000 7.803
42.36000 9.344
42.38000 7.947
42.40000 3.598
42.42000 10.290
42.44000 7.598
42.46000 3.717
42.48000 4.558
42.50000 5.301
42.52000 5.620
42.54000 4.058
42.56000 5.143
42.58000 9.345
42.60000 6.865
42.62000 4.884
42.64000 4.107
42.66000 3.689
42.68000 4.766
42.70000 -0.316
42.72000 -0.691
42.74000 1.843
42.76000 1.955
42.78000 -1.594
42.80000 -3.627
42.82000 1.181
42.84000 2.660
42.86000 3.869
42.88000 4.294
42.90000 -0.529
42.92000 2.041
42.94000 3.916
42.96000 3.459
42.98000 0.357
43.00000 -2.262
43.02000 1.247
43.04000 1.926
43.06000 2.290
43.08000 1.573
43.10000 -1.543
43.12000 -2.200
43.14000 -3.025
43.16000 -0.068
43.18000 -3.301
43.20000 -0.871
43.22000 2.054
43.24000 2.292
43.26000 1.646
43.28000 -1.315
43.30000 1.613
43.32000 -1.175
43.34000 1.772
43.36000 -3.572
43.38000 -0.642
43.40000 5.250
43.42000 5.762
43.44000 4.996
43.46000 2.227
43.48000 4.131
43.50000 2.064
43.52000 -3.278
43.54000 -2.455
43.56000 1.267
43.58000 0.749
43.60000 2.137
43.62000 -2.807
43.64000 -3.544
43.66000 -0.897
43.68000 -1.556
43.70000 -2.107
43.72000 -1.306
43.74000 0.291
43.76000 -0.135
43.78000 -0.582
43.80000 -0.779
43.82000 0.801
43.84000 -0.311
43.86000 1.196
43.88000 1.396
43.90000 3.255
43.92000 1.759
43.94000 -1.348
43.96000 -0.236
43.98000 -0.812
44.00000 -0.778
44.02000 0.651
44.04000 0.431
44.06000 1.431
44.08000 0.615
44.10000 3.408
44.12000 1.820
44.14000 3.200
44.16000 3.025
44.18000 2.537
44.20000 -2.076
44.22000 -3.522
44.24000 2.094
44.26000 3.918
44.28000 2.548
44.30000 4.196
44.32000 5.215
44.34000 5.437
44.36000 2.672
44.38000 -2.726
44.40000 -3.297
44.42000 4.605
44.44000 1.706
44.46000 -1.533
44.48000 0.681
44.50000 0.261
44.52000 -3.518
44.54000 -1.447
44.56000 2.306
44.58000 2.600
44.60000 4.634
44.62000 5.022
44.64000 6.247
44.66000 4.472
44.68000 1.683
44.70000 1.239
44.72000 -0.727
44.74000 1.967
44.76000 9.849
44.78000 8.630
44.80000 1.154
44.82000 3.043
44.84000 4.641
44.86000 1.147
44.88000 2.398
44.90000 1.800
44.92000 6.966
44.94000 7.376
44.96000 6.861
44.98000 8.498
45.00000 5.935
45.02000 6.091
45.04000 3.975
45.06000 3.690
45.08000 7.896
45.10000 8.434
45.12000 7.574
45.14000 3.173
45.16000 6.915
45.18000 16.721
45.20000 17.348
45.22000 12.734
45.24000 10.734
45.26000 5.220
45.28000 11.509
45.30000 16.182
45.32000 14.400
45.34000 15.003
45.36000 11.884
45.38000 11.762
45.40000 6.923
45.42000 11.951
45.44000 18.062
45.46000 21.068
45.48000 19.151
45.50000 15.532
45.52000 13.544
45.54000 14.729
45.56000 21.810
45.58000 24.096
45.60000 16.464
45.62000 14.210
45.64000 21.123
45.66000 21.728
45.68000 21.265
45.70000 26.028
45.72000 28.061
45.74000 28.618
45.76000 26.552
45.78000 24.208
45.80000 28.702
45.82000 28.532
45.84000 25.538
45.86000 33.642
45.88000 30.089
45.90000 27.873
45.92000 33.300
45.94000 32.655
45.96000 33.416
45.98000 32.087
46.00000 38.488
46.02000 40.338
46.04000 38.601
46.06000 38.422
46.08000 42.767
46.10000 46.528
46.12000 44.220
46.14000 42.767
46.16000 53.213
46.18000 50.910
46.20000 49.661
46.22000 52.492
46.24000 50.490
46.26000 56.217
46.28000 61.371
46.30000 62.112
46.32000 55.396
46.34000 53.998
46.36000 53.749
46.38000 56.389
46.40000 56.748
46.42000 58.734
46.44000 63.406
46.46000 70.422
46.48000 71.426
46.50000 62.109
46.52000 64.049
46.54000 67.224
46.56000 74.358
46.58000 75.659
46.60000 71.999
46.62000 68.153
46.64000 72.441
46.66000 76.615
46.68000 74.452
46.70000 80.461
46.72000 79.795
46.74000 82.914
46.76000 81.789
46.78000 75.470
46.80000 81.507
46.82000 81.966
46.84000 82.812
46.86000 79.156
46.88000 79.267
46.90000 71.138
46.92000 77.923
46.94000 82.726
46.96000 83.287
46.98000 82.979
47.00000 85.048
47.02000 75.096
47.04000 76.941
47.06000 87.211
47.08000 80.849
47.10000 74.948
47.12000 69.383
47.14000 77.306
47.16000 82.057
47.18000 75.430
47.20000 71.212
47.22000 72.221
47.24000 71.504
47.26000 67.135
47.28000 67.877
47.30000 68.104
47.32000 62.095
47.34000 55.964
47.36000 55.794
47.38000 58.039
47.40000 53.001
47.42000 50.684
47.44000 47.535
47.46000 57.109
47.48000 57.457
47.50000 51.683
47.52000 53.312
47.54000 53.900
47.56000 45.732
47.58000 41.868
47.60000 46.469
47.62000 42.990
47.64000 44.493
47.66000 36.560
47.68000 37.605
47.70000 37.271
47.72000 37.511
47.74000 32.069
47.76000 33.660
47.78000 32.890
47.80000 31.103
47.82000 30.185
47.84000 29.787
47.86000 24.608
47.88000 18.471
47.90000 20.611
47.92000 22.697
47.94000 25.919
47.96000 25.664
47.98000 21.915
48.00000 24.182
48.02000 19.197
48.04000 19.862
48.06000 19.912
48.08000 16.064
48.10000 16.028
48.12000 12.213
48.14000 15.452
48.16000 14.310
48.18000 13.607
48.20000 12.133
48.22000 11.326
48.24000 10.568
48.26000 8.950
48.28000 8.173
48.30000 10.349
48.32000 10.826
48.34000 6.822
48.36000 7.121
48.38000 10.613
48.40000 13.687
48.42000 13.841
48.44000 9.506
48.46000 7.995
48.48000 4.765
48.50000 10.283
48.52000 8.081
48.54000 6.711
48.56000 3.571
48.58000 3.513
48.60000 -3.265
48.62000 4.672
48.64000 7.203
48.66000 9.612
48.68000 3.965
48.70000 2.104
48.72000 2.070
48.74000 -1.439
48.76000 -2.233
48.78000 -1.609
48.80000 0.895
48.82000 4.499
48.84000 4.087
48.86000 3.014
48.88000 1.148
48.90000 1.211
48.92000 3.475
48.94000 3.864
48.96000 6.366
48.98000 7.139
49.00000 9.360
49.02000 4.127
49.04000 -0.133
49.06000 -1.858
49.08000 -1.488
49.10000 1.371
49.12000 1.958
49.14000 2.118
49.16000 1.517
49.18000 -0.403
49.20000 4.079
49.22000 9.452
49.24000 2.468
49.26000 0.790
49.28000 -1.941
49.30000 -2.610
49.32000 -3.139
49.34000 -2.207
49.36000 5.671
49.38000 3.465
49.40000 3.580
49.42000 2.602
49.44000 2.067
49.46000 5.405
49.48000 0.826
49.50000 1.593
49.52000 2.333
49.54000 6.671
49.56000 9.178
49.58000 9.747
49.60000 9.560
49.62000 5.129
49.64000 9.371
49.66000 8.159
49.68000 6.559
49.70000 11.441
49.72000 9.356
49.74000 6.867
49.76000 6.191
49.78000 3.328
49.80000 8.975
49.82000 4.755
49.84000 3.525
49.86000 3.886
49.88000 5.305
49.90000 3.193
49.92000 -3.086
49.94000 -1.009
49.96000 0.166
49.98000 4.591
50.00000 3.966
50.02000 2.028
50.04000 0.251
50.06000 0.850
50.08000 4.229
50.10000 2.402
50.12000 2.172
50.14000 1.704
50.16000 7.365
50.18000 7.554
50.20000 6.859
50.22000 0.930
50.24000 2.170
50.26000 4.358
50.28000 2.152
50.30000 -0.998
50.32000 4.535
50.34000 3.205
50.36000 0.654
50.38000 4.722
50.40000 2.501
50.42000 -0.568
50.44000 0.345
50.46000 6.981
50.48000 3.572
50.50000 0.751
50.52000 2.853
50.54000 3.830
50.56000 3.888
50.58000 7.504
50.60000 6.826
50.62000 -0.801
50.64000 -3.029
50.66000 2.180
50.68000 4.373
50.70000 3.851
50.72000 7.096
50.74000 4.407
50.76000 2.274
50.78000 1.882
50.80000 4.698
50.82000 5.530
50.84000 2.894
50.86000 0.554
50.88000 1.059
50.90000 2.697
50.92000 5.400
50.94000 8.166
50.96000 7.753
50.98000 9.197
51.00000 1.485
51.02000 -0.294
51.04000 2.033
51.06000 -1.214
51.08000 5.752
51.10000 6.007
51.12000 3.456
51.14000 0.689
51.16000 1.404
51.18000 1.598
51.20000 7.292
51.22000 4.973
51.24000 0.641
51.26000 -2.285
51.28000 -2.993
51.30000 4.307
51.32000 4.469
51.34000 -1.324
51.36000 -1.015
51.38000 -0.161
51.40000 2.401
51.42000 5.478
51.44000 2.957
51.46000 5.342
51.48000 6.287
51.50000 7.966
51.52000 12.398
51.54000 10.661
51.56000 6.484
51.58000 4.486
51.60000 4.153
51.62000 3.371
51.64000 3.008
51.66000 3.532
51.68000 8.577
51.70000 7.570
51.72000 3.748
51.74000 4.754
51.76000 5.438
51.78000 4.318
51.80000 7.549
51.82000 9.584
51.84000 3.870
51.86000 3.444
51.88000 3.829
51.90000 3.270
51.92000 0.260
51.94000 -2.970
51.96000 2.008
51.98000 1.285
52.00000 0.658
52.02000 6.595
52.04000 9.771
52.06000 7.987
52.08000 -1.879
52.10000 1.542
52.12000 -1.002
52.14000 1.630
52.16000 3.577
52.18000 2.314
52.20000 0.777
52.22000 2.394
52.24000 6.634
52.26000 3.024
52.28000 3.433
52.30000 4.621
52.32000 0.858
52.34000 1.497
52.36000 4.721
52.38000 6.387
52.40000 6.032
52.42000 6.334
52.44000 3.298
52.46000 2.241
52.48000 4.945
52.50000 2.477
52.52000 2.194
52.54000 6.370
52.56000 6.226
52.58000 2.168
52.60000 2.438
52.62000 0.873
52.64000 0.608
52.66000 -0.051
52.68000 0.604
52.70000 3.776
52.72000 3.316
52.74000 0.585
52.76000 1.479
52.78000 3.951
52.80000 4.379
52.82000 4.306
52.84000 3.551
52.86000 2.821
52.88000 7.629
52.90000 4.530
52.92000 0.092
52.94000 -1.520
52.96000 -2.954
52.98000 3.757
53.00000 0.846
53.02000 1.406
53.04000 2.096
53.06000 1.662
53.08000 8.035
53.10000 7.575
53.12000 9.749
53.14000 4.431
53.16000 2.538
53.18000 3.031
53.20000 0.639
53.22000 0.109
53.24000 5.362
53.26000 5.568
53.28000 2.074
53.30000 2.742
53.32000 3.618
53.34000 2.182
53.36000 -2.252
53.38000 -1.016
53.40000 1.063
53.42000 0.229
53.44000 5.948
53.46000 2.484
53.48000 3.980
53.50000 2.740
53.52000 5.122
53.54000 6.212
53.56000 6.630
53.58000 6.527
53.60000 4.127
53.62000 3.618
53.64000 5.737
53.66000 -0.188
53.68000 3.610
53.70000 1.833
53.72000 0.539
53.74000 1.442
53.76000 8.342
53.78000 10.744
53.80000 4.898
53.82000 -1.280
53.84000 1.796
53.86000 7.043
53.88000 7.310
53.90000 1.737
53.92000 2.828
53.94000 3.182
53.96000 1.527
53.98000 -0.698
54.00000 3.234
54.02000 3.022
54.04000 3.017
54.06000 5.353
54.08000 1.116
54.10000 1.603
54.12000 -1.065
54.14000 0.199
54.16000 2.515
54.18000 5.398
54.20000 2.502
54.22000 2.061
54.24000 -0.476
54.26000 2.433
54.28000 4.626
54.30000 0.560
54.32000 4.411
54.34000 1.351
54.36000 0.735
54.38000 -0.153
54.40000 2.633
54.42000 3.173
54.44000 6.203
54.46000 6.585
54.48000 4.098
54.50000 2.314
54.52000 2.726
54.54000 3.801
54.56000 2.533
54.58000 5.880
54.60000 5.281
54.62000 5.168
54.64000 7.482
54.66000 4.648
54.68000 4.423
54.70000 9.655
54.72000 8.126
54.74000 -0.733
54.76000 -2.850
54.78000 -1.350
54.80000 -1.309
54.82000 1.778
54.84000 8.211
54.86000 6.870
54.88000 5.021
54.90000 1.703
54.92000 -0.100
54.94000 2.573
54.96000 7.057
54.98000 10.291
55.00000 11.694
55.02000 7.364
55.04000 5.456
55.06000 8.397
55.08000 7.562
55.10000 11.445
55.12000 10.936
55.14000 13.326
55.16000 10.968
55.18000 8.422
55.20000 2.793
55.22000 -2.840
55.24000 2.918
55.26000 7.559
55.28000 5.096
55.30000 5.919
55.32000 6.052
55.34000 6.016
55.36000 4.029
55.38000 3.480
55.40000 7.014
55.42000 5.162
55.44000 -1.267
55.46000 1.188
55.48000 1.527
55.50000 4.190
55.52000 5.983
55.54000 3.450
55.56000 6.772
55.58000 7.876
55.60000 0.229
55.62000 4.503
55.64000 6.292
55.66000 4.722
55.68000 2.315
55.70000 5.487
55.72000 6.320
55.74000 2.238
55.76000 5.338
55.78000 7.233
55.80000 8.343
55.82000 5.783
55.84000 9.144
55.86000 6.699
55.88000 0.544
55.90000 3.672
55.92000 5.549
55.94000 4.186
55.96000 4.063
55.98000 7.707
56.00000 2.049
56.02000 -1.167
56.04000 -0.403
56.06000 0.491
56.08000 1.462
56.10000 5.607
56.12000 1.795
56.14000 2.734
56.16000 5.916
56.18000 9.616
56.20000 10.270
56.22000 4.357
56.24000 3.820
56.26000 3.245
56.28000 4.136
56.30000 2.364
56.32000 2.363
56.34000 3.555
56.36000 1.355
56.38000 -0.329
56.40000 -2.837
56.42000 -2.837
56.44000 0.371
56.46000 1.278
56.48000 3.406
56.50000 2.933
56.52000 7.454
56.54000 0.522
56.56000 4.208
56.58000 2.353
56.60000 -2.059
56.62000 2.024
56.64000 2.916
56.66000 5.190
56.68000 1.942
56.70000 -2.531
56.72000 -2.608
56.74000 -0.569
56.76000 6.884
56.78000 5.873
56.80000 0.797
56.82000 -0.586
56.84000 4.592
56.86000 6.536
56.88000 5.193
56.90000 3.580
56.92000 5.578
56.94000 3.457
56.96000 1.486
56.98000 6.692
57.00000 1.337
57.02000 1.378
57.04000 4.631
57.06000 6.865
57.08000 6.776
57.10000 5.262
57.12000 7.887
57.14000 7.945
57.16000 6.834
57.18000 2.802
57.20000 7.348
57.22000 3.800
57.24000 1.804
57.26000 4.396
57.28000 3.867
57.30000 2.329
57.32000 0.469
57.34000 2.935
57.36000 3.462
57.38000 2.805
57.40000 5.607
57.42000 4.676
57.44000 4.431
57.46000 -0.111
57.48000 6.811
57.50000 7.176
57.52000 7.186
57.54000 4.928
57.56000 5.224
57.58000 5.263
57.60000 5.633
57.62000 2.851
57.64000 4.155
57.66000 2.311
57.68000 2.753
57.70000 3.791
57.72000 3.393
57.74000 3.842
57.76000 4.338
57.78000 2.198
57.80000 7.209
57.82000 5.311
57.84000 1.899
57.86000 1.982
57.88000 5.831
57.90000 7.122
57.92000 4.440
57.94000 2.334
57.96000 8.508
57.98000 9.634
58.00000 4.754
58.02000 2.557
58.04000 5.034
58.06000 7.147
58.08000 4.932
58.10000 6.514
58.12000 5.186
58.14000 3.532
58.16000 4.146
58.18000 8.867
58.20000 8.786
58.22000 2.517
58.24000 -2.721
58.26000 0.023
58.28000 3.027
58.30000 7.579
58.32000 6.138
58.34000 6.348
58.36000 6.828
58.38000 7.571
58.40000 10.272
58.42000 11.955
58.44000 8.069
58.46000 7.986
58.48000 10.819
58.50000 6.276
58.52000 5.014
58.54000 9.680
58.56000 7.436
58.58000 9.173
58.60000 7.016
58.62000 6.326
58.64000 5.790
58.66000 6.131
58.68000 4.871
58.70000 0.872
58.72000 -0.584
58.74000 -1.360
58.76000 3.256
58.78000 3.584
58.80000 5.153
58.82000 4.287
58.84000 8.094
58.86000 5.957
58.88000 7.405
58.90000 7.985
58.92000 6.512
58.94000 6.754
58.96000 0.399
58.98000 -2.431
59.00000 0.784
59.02000 5.621
59.04000 3.314
59.06000 4.703
59.08000 8.435
59.10000 4.006
59.12000 0.386
59.14000 1.873
59.16000 2.637
59.18000 1.786
59.20000 0.941
59.22000 -0.165
59.24000 3.520
59.26000 3.305
59.28000 5.862
59.30000 9.661
59.32000 2.913
59.34000 -0.857
59.36000 -2.743
59.38000 2.175
59.40000 1.955
59.42000 0.882
59.44000 0.125
59.46000 4.113
59.48000 3.425
59.50000 0.620
59.52000 3.020
59.54000 4.809
59.56000 -1.003
59.58000 -0.016
59.60000 -0.908
59.62000 3.822
59.64000 4.103
59.66000 2.316
59.68000 -0.316
59.70000 0.653
59.72000 0.437
59.74000 -1.219
59.76000 2.505
59.78000 3.545
59.80000 4.872
59.82000 2.049
59.84000 0.752
59.86000 6.261
59.88000 2.761
59.90000 -0.283
59.92000 -0.479
59.94000 0.324
59.96000 4.618
59.98000 4.815
60.00000 4.398
60.02000 0.957
60.04000 1.557
60.06000 0.435
60.08000 1.803
60.10000 7.325
60.12000 9.769
60.14000 5.424
60.16000 2.927
60.18000 1.184
60.20000 2.571
60.22000 0.279
60.24000 1.920
60.26000 1.715
60.28000 1.788
60.30000 4.522
60.32000 2.327
60.34000 -0.952
60.36000 3.529
60.38000 4.540
60.40000 5.139
60.42000 2.318
60.44000 -2.347
60.46000 2.587
60.48000 6.549
60.50000 4.027
60.52000 1.439
60.54000 2.140
60.56000 -1.729
60.58000 1.270
60.60000 8.878
60.62000 4.956
60.64000 -0.349
60.66000 -0.877
60.68000 -0.655
60.70000 -0.353
60.72000 -0.821
60.74000 -2.703
60.76000 -2.354
60.78000 2.841
60.80000 5.508
60.82000 4.573
60.84000 9.009
60.86000 5.105
60.88000 -0.098
60.90000 1.922
60.92000 2.401
60.94000 3.234
60.96000 7.305
60.98000 3.686
61.00000 -2.682
61.02000 0.544
61.04000 4.682
61.06000 3.986
61.08000 2.943
61.10000 7.773
61.12000 8.728
61.14000 6.978
61.16000 7.270
61.18000 4.627
61.20000 -0.165
61.22000 1.428
61.24000 1.044
61.26000 0.857
61.28000 5.501
61.30000 3.850
61.32000 -0.349
61.34000 1.534
61.36000 -0.566
61.38000 -1.482
61.40000 2.176
61.42000 5.383
61.44000 3.995
61.46000 2.864
61.48000 1.681
61.50000 1.543
61.52000 4.210
61.54000 2.276
61.56000 -1.174
61.58000 0.763
61.60000 1.054
61.62000 3.486
61.64000 -1.729
61.66000 -2.670
61.68000 3.415
61.70000 3.401
61.72000 1.408
61.74000 7.040
61.76000 0.632
61.78000 3.936
61.80000 1.978
61.82000 1.512
61.84000 0.542
61.86000 4.422
61.88000 5.710
61.90000 6.665
61.92000 5.944
61.94000 4.153
61.96000 4.203
61.98000 4.176
62.00000 3.150
62.02000 3.080
62.04000 2.073
62.06000 5.885
62.08000 2.188
62.10000 2.930
62.12000 3.099
62.14000 6.308
62.16000 4.323
62.18000 6.825
62.20000 4.804
62.22000 0.782
62.24000 1.483
62.26000 1.648
62.28000 4.768
62.30000 -2.257
62.32000 2.848
62.34000 2.925
62.36000 3.064
62.38000 0.293
62.40000 -2.661
62.42000 4.540
62.44000 5.862
62.46000 6.368
62.48000 6.441
62.50000 -0.318
62.52000 0.410
62.54000 2.899
62.56000 4.436
62.58000 0.520
62.60000 -0.507
62.62000 0.880
62.64000 1.634
62.66000 -1.162
62.68000 -0.312
62.70000 -0.386
62.72000 0.497
62.74000 1.778
62.76000 2.898
62.78000 2.205
62.80000 -2.649
62.82000 2.353
62.84000 2.665
62.86000 -1.114
62.88000 0.937
62.90000 4.627
62.92000 1.700
62.94000 5.518
62.96000 5.970
62.98000 7.137
63.00000 5.974
63.02000 2.350
63.04000 4.998
63.06000 5.130
63.08000 1.660
63.10000 -0.089
63.12000 3.681
63.14000 6.184
63.16000 2.979
63.18000 5.722
63.20000 -0.322
63.22000 0.155
63.24000 -0.419
63.26000 6.791
63.28000 9.174
63.30000 5.656
63.32000 5.465
63.34000 2.152
63.36000 1.043
63.38000 3.444
63.40000 4.933
63.42000 5.388
63.44000 2.382
63.46000 6.079
63.48000 7.033
63.50000 2.551
63.52000 1.511
63.54000 6.315
63.56000 6.190
63.58000 3.623
63.60000 3.009
63.62000 -0.696
63.64000 0.192
63.66000 0.079
63.68000 4.365
63.70000 4.659
63.72000 3.054
63.74000 2.342
63.76000 5.276
63.78000 7.219
63.80000 0.804
63.82000 3.367
63.84000 3.665
63.86000 4.198
63.88000 3.669
63.90000 -2.633
63.92000 -1.257
63.94000 7.637
63.96000 5.759
63.98000 -0.916
64.00000 2.254
64.02000 1.833
64.04000 1.730
64.06000 5.961
64.08000 4.988
64.10000 5.321
64.12000 7.024
64.14000 4.474
64.16000 5.393
64.18000 4.572
64.20000 0.384
64.22000 2.783
64.24000 2.922
64.26000 5.446
64.28000 3.918
64.30000 0.312
64.32000 -2.021
64.34000 1.958
64.36000 2.936
64.38000 1.256
64.40000 -2.659
64.42000 2.601
64.44000 6.679
64.46000 1.620
64.48000 2.948
64.50000 4.856
64.52000 2.656
64.54000 -1.302
64.56000 -1.570
64.58000 0.368
64.60000 1.168
64.62000 4.472
64.64000 3.510
64.66000 5.916
64.68000 6.899
64.70000 1.729
64.72000 -0.368
64.74000 3.646
64.76000 4.521
64.78000 -0.342
64.80000 0.162
64.82000 2.588
64.84000 0.744
64.86000 0.123
64.88000 2.594
64.90000 3.110
64.92000 4.282
64.94000 2.201
64.96000 -1.568
64.98000 -0.495
65.00000 3.132
65.02000 4.971
65.04000 2.847
65.06000 3.235
65.08000 2.755
65.10000 0.593
65.12000 1.814
65.14000 3.694
65.16000 6.342
65.18000 6.563
65.20000 6.508
65.22000 1.657
65.24000 0.028
65.26000 -1.139
65.28000 -1.176
65.30000 -2.684
65.32000 2.275
65.34000 2.052
65.36000 0.621
65.38000 1.796
65.40000 0.976
65.42000 -2.250
65.44000 -1.539
65.46000 -0.140
65.48000 3.148
65.50000 -0.088
65.52000 3.706
65.54000 3.157
65.56000 1.820
65.58000 -0.946
65.60000 -2.466
65.62000 0.447
65.64000 3.150
65.66000 -0.335
65.68000 4.341
65.70000 1.201
65.72000 1.897
65.74000 5.457
65.76000 1.806
65.78000 0.934
65.80000 -0.508
65.82000 -0.564
65.84000 -1.733
65.86000 1.630
65.88000 0.666
65.90000 -2.706
65.92000 -2.017
65.94000 -0.880
65.96000 3.335
65.98000 2.233
66.00000 -1.050
66.02000 -1.338
66.04000 1.941
66.06000 -0.365
66.08000 -1.285
66.10000 0.512
66.12000 3.620
66.14000 -0.015
66.16000 -1.579
66.18000 2.887
66.20000 2.616
66.22000 3.346
66.24000 0.901
66.26000 1.241
66.28000 0.998
66.30000 0.870
66.32000 -1.200
66.34000 -0.465
66.36000 -0.634
66.38000 1.024
66.40000 -2.763
66.42000 -1.833
66.44000 3.314
66.46000 -1.397
66.48000 0.629
66.50000 3.732
66.52000 3.590
66.54000 2.444
66.56000 0.892
66.58000 -1.379
66.60000 0.876
66.62000 0.700
66.64000 -0.378
66.66000 0.241
66.68000 -2.786
66.70000 -1.326
66.72000 3.551
66.74000 2.773
66.76000 0.911
66.78000 -0.937
66.80000 -0.958
66.82000 -0.533
66.84000 3.706
66.86000 4.813
66.88000 3.291
66.90000 7.119
66.92000 3.207
66.94000 -1.220
66.96000 1.136
66.98000 3.981
67.00000 7.112
67.02000 10.134
67.04000 10.693
67.06000 3.603
67.08000 2.130
67.10000 -0.391
67.12000 1.869
67.14000 2.931
67.16000 1.804
67.18000 5.242
67.20000 4.909
67.22000 6.997
67.24000 4.391
67.26000 10.395
67.28000 11.124
67.30000 7.305
67.32000 6.379
67.34000 4.236
67.36000 8.873
67.38000 9.039
67.40000 6.530
67.42000 5.979
67.44000 9.438
67.46000 7.753
67.48000 6.293
67.50000 2.103
67.52000 5.071
67.54000 8.851
67.56000 8.458
67.58000 7.951
67.60000 12.546
67.62000 9.445
67.64000 8.376
67.66000 8.388
67.68000 10.722
67.70000 11.682
67.72000 10.153
67.74000 12.603
67.76000 11.832
67.78000 13.091
67.80000 15.418
67.82000 14.185
67.84000 15.723
67.86000 18.674
67.88000 18.408
67.90000 15.990
67.92000 13.767
67.94000 11.212
67.96000 18.210
67.98000 18.584
68.00000 17.809
68.02000 14.586
68.04000 13.200
68.06000 18.191
68.08000 19.784
68.10000 19.940
68.12000 24.072
68.14000 25.953
68.16000 22.573
68.18000 21.165
68.20000 20.824
68.22000 24.389
68.24000 20.867
68.26000 18.229
68.28000 19.611
68.30000 23.996
68.32000 24.658
68.34000 24.000
68.36000 23.716
68.38000 24.493
68.40000 28.119
68.42000 28.633
68.44000 23.854
68.46000 22.607
68.48000 24.111
68.50000 24.234
68.52000 28.872
68.54000 28.196
68.56000 24.639
68.58000 25.372
68.60000 22.710
68.62000 24.392
68.64000 23.216
68.66000 19.669
68.68000 21.386
68.70000 28.876
68.72000 23.809
68.74000 17.666
68.76000 15.574
68.78000 18.017
68.80000 21.803
68.82000 23.207
68.84000 21.023
68.86000 20.592
68.88000 19.370
68.90000 22.048
68.92000 21.920
68.94000 20.401
68.96000 18.514
68.98000 16.049
69.00000 19.064
69.02000 14.125
69.04000 16.467
69.06000 15.626
69.08000 16.818
69.10000 15.900
69.12000 14.583
69.14000 13.663
69.16000 10.639
69.18000 11.866
69.20000 8.950
69.22000 9.022
69.24000 8.048
69.26000 8.298
69.28000 14.198
69.30000 12.546
69.32000 11.515
69.34000 10.602
69.36000 7.891
69.38000 8.337
69.40000 8.197
69.42000 10.024
69.44000 13.010
69.46000 14.550
69.48000 9.181
69.50000 8.619
69.52000 5.686
69.54000 6.168
69.56000 7.095
69.58000 5.085
69.60000 2.984
69.62000 1.954
69.64000 3.801
69.66000 3.054
69.68000 2.210
69.70000 3.872
69.72000 4.766
69.74000 2.214
69.76000 1.269
69.78000 -1.872
69.80000 -1.595
69.82000 -1.495
69.84000 0.934
69.86000 3.140
69.88000 0.820
69.90000 3.245
69.92000 0.874
69.94000 1.719
69.96000 5.557
69.98000 6.601
70.00000 2.058
70.02000 -1.577
70.04000 -1.325
70.06000 0.763
70.08000 3.056
70.10000 1.844
70.12000 -2.465
70.14000 0.075
70.16000 1.431
70.18000 6.691
70.20000 1.867
70.22000 -2.374
70.24000 -2.149
70.26000 1.628
70.28000 1.816
70.30000 0.049
70.32000 -2.303
70.34000 1.664
70.36000 -1.316
70.38000 -2.039
70.40000 0.661
70.42000 -0.741
70.44000 -1.718
70.46000 0.908
70.48000 -0.866
70.50000 1.501
70.52000 0.705
70.54000 1.538
70.56000 -0.642
70.58000 2.478
70.60000 3.632
70.62000 2.045
70.64000 0.779
70.66000 0.839
70.68000 1.614
70.70000 0.211
70.72000 2.025
70.74000 5.153
70.76000 3.167
70.78000 -2.589
70.80000 -0.264
70.82000 0.037
70.84000 1.690
70.86000 -0.188
70.88000 -0.120
70.90000 1.021
70.92000 6.780
70.94000 4.109
70.96000 1.230
70.98000 0.545
71.00000 1.755
71.02000 0.609
71.04000 3.059
71.06000 2.180
71.08000 3.729
71.10000 4.714
71.12000 6.600
71.14000 6.373
71.16000 3.539
71.18000 2.454
71.20000 5.063
71.22000 3.812
71.24000 5.646
71.26000 0.242
71.28000 -1.515
71.30000 7.223
71.32000 6.754
71.34000 1.006
71.36000 6.266
71.38000 7.383
71.40000 2.615
71.42000 0.199
71.44000 0.666
71.46000 4.610
71.48000 3.197
71.50000 3.185
71.52000 3.756
71.54000 5.010
71.56000 0.725
71.58000 1.904
71.60000 5.959
71.62000 6.962
71.64000 2.405
71.66000 0.401
71.68000 -2.508
71.70000 2.974
71.72000 5.328
71.74000 3.660
71.76000 2.928
71.78000 2.476
71.80000 1.532
71.82000 1.785
71.84000 -0.700
71.86000 -0.252
71.88000 1.654
71.90000 -1.529
71.92000 -1.812
71.94000 4.795
71.96000 5.327
71.98000 7.318
72.00000 9.097
72.02000 3.748
72.04000 3.873
72.06000 2.886
72.08000 1.867
72.10000 -0.008
72.12000 3.178
72.14000 8.848
72.16000 6.650
72.18000 2.765
72.20000 4.175
72.22000 1.924
72.24000 -0.616
72.26000 -1.095
72.28000 2.531
72.30000 3.175
72.32000 -1.555
72.34000 0.894
72.36000 0.787
72.38000 2.747
72.40000 1.705
72.42000 -1.581
72.44000 3.087
72.46000 4.752
72.48000 7.435
72.50000 4.035
72.52000 -1.213
72.54000 0.949
72.56000 0.752
72.58000 4.946
72.60000 5.274
72.62000 0.983
72.64000 -1.664
72.66000 1.303
72.68000 -0.116
72.70000 0.898
72.72000 7.738
72.74000 5.304
72.76000 2.875
72.78000 3.685
72.80000 2.605
72.82000 4.307
72.84000 5.869
72.86000 9.407
72.88000 7.144
72.90000 2.745
72.92000 0.636
72.94000 3.752
72.96000 1.583
72.98000 1.808
73.00000 -2.472
73.02000 -0.321
73.04000 2.591
73.06000 2.832
73.08000 3.094
73.10000 1.782
73.12000 0.524
73.14000 1.724
73.16000 2.582
73.18000 0.864
73.20000 1.812
73.22000 7.563
73.24000 6.106
73.26000 5.228
73.28000 4.327
73.30000 7.505
73.32000 3.095
73.34000 4.232
73.36000 7.663
73.38000 1.356
73.40000 0.803
73.42000 4.837
73.44000 4.089
73.46000 0.310
73.48000 3.361
73.50000 2.055
73.52000 0.755
73.54000 1.113
73.56000 4.287
73.58000 4.107
73.60000 4.598
73.62000 4.202
73.64000 6.514
73.66000 6.981
73.68000 2.641
73.70000 2.388
73.72000 2.952
73.74000 6.328
73.76000 3.839
73.78000 5.645
73.80000 7.579
73.82000 2.505
73.84000 -2.430
73.86000 2.082
73.88000 5.842
73.90000 4.090
73.92000 3.801
73.94000 9.317
73.96000 6.412
73.98000 5.908
74.00000 4.012
74.02000 0.538
74.04000 1.442
74.06000 3.196
74.08000 3.295
74.10000 1.211
74.12000 6.526
74.14000 7.316
74.16000 8.022
74.18000 6.744
74.20000 7.235
74.22000 2.826
74.24000 -2.440
74.26000 -1.396
74.28000 1.709
74.30000 1.119
74.32000 5.014
74.34000 4.366
74.36000 2.185
74.38000 -0.102
74.40000 3.202
74.42000 0.568
74.44000 3.891
74.46000 6.075
74.48000 6.615
74.50000 5.564
74.52000 5.620
74.54000 4.204
74.56000 3.036
74.58000 3.977
74.60000 -0.269
74.62000 3.317
74.64000 -0.045
74.66000 -2.009
74.68000 2.162
74.70000 -0.400
74.72000 -1.073
74.74000 1.473
74.76000 1.986
74.78000 6.741
74.80000 9.833
74.82000 2.923
74.84000 4.227
74.86000 2.956
74.88000 3.304
74.90000 3.553
74.92000 0.231
74.94000 6.180
74.96000 4.751
74.98000 3.869
75.00000 4.828
75.02000 3.167
75.04000 4.239
75.06000 3.392
75.08000 3.134
75.10000 3.772
75.12000 -2.467
75.14000 -1.177
75.16000 3.809
75.18000 2.785
75.20000 0.020
75.22000 4.599
75.24000 10.000
75.26000 9.340
75.28000 6.634
75.30000 5.324
75.32000 5.441
75.34000 2.205
75.36000 5.701
75.38000 5.254
75.40000 6.522
75.42000 6.788
75.44000 2.095
75.46000 6.429
75.48000 1.390
75.50000 2.592
75.52000 -1.821
75.54000 -1.178
75.56000 0.816
75.58000 5.871
75.60000 7.079
75.62000 2.785
75.64000 4.454
75.66000 0.223
75.68000 0.415
75.70000 2.671
75.72000 2.903
75.74000 1.900
75.76000 5.041
75.78000 1.600
75.80000 1.135
75.82000 -1.391
75.84000 -1.705
75.86000 -0.562
75.88000 1.152
75.90000 -1.075
75.92000 -2.122
75.94000 -1.477
75.96000 0.306
75.98000 2.433
76.00000 -0.625
76.02000 -0.161
76.04000 1.086
76.06000 1.989
76.08000 2.013
76.10000 1.853
76.12000 3.113
76.14000 1.944
76.16000 1.077
76.18000 3.445
76.20000 -0.102
76.22000 2.221
76.24000 5.664
76.26000 8.377
76.28000 4.460
76.30000 3.246
76.32000 6.083
76.34000 2.312
76.36000 3.282
76.38000 6.428
76.40000 7.392
76.42000 5.432
76.44000 3.567
76.46000 5.266
76.48000 7.553
76.50000 9.215
76.52000 0.425
76.54000 -2.497
76.56000 -0.612
76.58000 2.362
76.60000 4.797
76.62000 4.615
76.64000 4.646
76.66000 3.082
76.68000 4.003
76.70000 3.279
76.72000 4.292
76.74000 1.132
76.76000 2.707
76.78000 4.681
76.80000 3.415
76.82000 8.209
76.84000 5.868
76.86000 7.108
76.88000 1.418
76.90000 3.359
76.92000 -2.013
76.94000 -2.488
76.96000 -2.488
76.98000 2.596
77.00000 0.541
77.02000 5.114
77.04000 6.738
77.06000 5.265
77.08000 4.516
77.10000 2.753
77.12000 3.477
77.14000 6.695
77.16000 6.604
77.18000 4.148
77.20000 3.453
77.22000 7.282
77.24000 5.756
77.26000 4.198
77.28000 6.317
77.30000 6.612
77.32000 8.823
77.34000 5.104
77.36000 5.677
77.38000 4.802
77.40000 6.590
77.42000 7.214
77.44000 -0.059
77.46000 3.323
77.48000 1.054
77.50000 4.220
77.52000 6.085
77.54000 0.155
77.56000 1.697
77.58000 0.331
77.60000 6.590
77.62000 3.172
77.64000 5.897
77.66000 8.198
77.68000 5.435
77.70000 -1.552
77.72000 -1.444
77.74000 3.515
77.76000 2.735
77.78000 0.954
77.80000 0.853
77.82000 -0.305
77.84000 2.080
77.86000 3.608
77.88000 0.660
77.90000 5.830
77.92000 3.043
77.94000 -1.065
77.96000 0.281
77.98000 2.152
78.00000 -2.511
78.02000 -0.321
78.04000 4.500
78.06000 2.121
78.08000 4.326
78.10000 2.405
78.12000 2.978
78.14000 10.315
78.16000 6.924
78.18000 8.641
78.20000 6.939
78.22000 6.971
78.24000 4.346
78.26000 4.185
78.28000 0.283
78.30000 -2.520
78.32000 0.451
78.34000 4.049
78.36000 4.794
78.38000 0.881
78.40000 3.401
78.42000 4.875
78.44000 6.757
78.46000 0.492
78.48000 -2.484
78.50000 -1.091
78.52000 1.984
78.54000 1.300
78.56000 3.753
78.58000 4.116
78.60000 6.317
78.62000 3.232
78.64000 -1.377
78.66000 -1.077
78.68000 1.827
78.70000 3.407
78.72000 0.232
78.74000 5.976
78.76000 2.048
78.78000 2.720
78.80000 -2.307
78.82000 -0.916
78.84000 -2.486
78.86000 -0.797
78.88000 4.485
78.90000 4.144
78.92000 -2.413
78.94000 -0.512
78.96000 4.961
78.98000 4.681
79.00000 2.692
79.02000 1.998
79.04000 6.885
79.06000 6.908
79.08000 7.583
79.10000 1.193
79.12000 1.904
79.14000 0.399
79.16000 1.691
79.18000 5.456
79.20000 3.904
79.22000 3.231
79.24000 5.227
79.26000 1.906
79.28000 3.303
79.30000 2.131
79.32000 3.178
79.34000 4.653
79.36000 9.229
79.38000 3.907
79.40000 5.050
79.42000 6.381
79.44000 6.466
79.46000 2.688
79.48000 3.456
79.50000 3.156
79.52000 0.753
79.54000 -0.386
79.56000 2.824
79.58000 0.550
79.60000 3.177
79.62000 5.981
79.64000 2.409
79.66000 3.940
79.68000 2.131
79.70000 0.625
79.72000 -0.023
79.74000 1.398
79.76000 10.576
79.78000 3.386
79.80000 0.456
79.82000 1.774
79.84000 1.071
79.86000 6.719
79.88000 -0.674
79.90000 4.228
79.92000 5.623
79.94000 3.535
79.96000 3.645
79.98000 -0.007
80.00000 3.533
80.02000 6.062
80.04000 7.675
80.06000 7.122
80.08000 8.918
80.10000 6.111
80.12000 4.349
80.14000 11.738
80.16000 8.318
80.18000 6.893
80.20000 4.189
80.22000 8.383
80.24000 7.409
80.26000 3.158
80.28000 8.327
80.30000 9.298
80.32000 7.885
80.34000 8.355
80.36000 10.706
80.38000 9.893
80.40000 5.308
80.42000 -2.548
80.44000 -0.493
80.46000 9.290
80.48000 5.929
80.50000 7.722
80.52000 6.456
80.54000 9.136
80.56000 9.762
80.58000 4.636
80.60000 6.632
80.62000 8.442
80.64000 4.722
80.66000 5.360
80.68000 6.025
80.70000 8.097
80.72000 7.696
80.74000 12.967
80.76000 15.004
80.78000 13.187
80.80000 9.482
80.82000 8.334
80.84000 7.155
80.86000 13.084
80.88000 9.727
80.90000 10.411
80.92000 10.457
80.94000 4.226
80.96000 4.902
80.98000 14.020
81.00000 15.199
81.02000 9.785
81.04000 4.547
81.06000 7.070
81.08000 8.135
81.10000 13.267
81.12000 16.217
81.14000 11.969
81.16000 9.414
81.18000 11.642
81.20000 13.911
81.22000 9.509
81.24000 8.297
81.26000 16.465
81.28000 11.595
81.30000 15.977
81.32000 18.259
81.34000 15.697
81.36000 11.955
81.38000 7.391
81.40000 11.088
81.42000 14.473
81.44000 7.876
81.46000 5.356
81.48000 6.235
81.50000 11.180
81.52000 15.028
81.54000 14.130
81.56000 12.348
81.58000 11.471
81.60000 9.638
81.62000 14.528
81.64000 19.927
81.66000 15.204
81.68000 15.877
81.70000 16.539
81.72000 14.094
81.74000 14.434
81.76000 16.735
81.78000 15.307
81.80000 14.917
81.82000 19.379
81.84000 17.294
81.86000 16.553
81.88000 16.502
81.90000 15.797
81.92000 19.327
81.94000 19.962
81.96000 21.254
81.98000 21.727
82.00000 23.561
82.02000 19.857
82.04000 20.069
82.06000 20.706
82.08000 14.894
82.10000 15.003
82.12000 18.879
82.14000 23.102
82.16000 18.564
82.18000 19.092
82.20000 22.327
82.22000 20.610
82.24000 25.427
82.26000 25.139
82.28000 24.740
82.30000 25.162
82.32000 25.523
82.34000 27.099
82.36000 23.870
82.38000 23.349
82.40000 31.693
82.42000 25.594
82.44000 23.835
82.46000 21.432
82.48000 24.538
82.50000 26.740
82.52000 26.418
82.54000 33.384
82.56000 30.322
82.58000 36.554
82.60000 35.789
82.62000 32.561
82.64000 30.213
82.66000 26.559
82.68000 27.172
82.70000 31.126
82.72000 27.921
82.74000 26.626
82.76000 31.643
82.78000 27.057
82.80000 21.863
82.82000 28.527
82.84000 30.521
82.86000 29.282
82.88000 29.393
82.90000 29.431
82.92000 30.127
82.94000 31.389
82.96000 29.209
82.98000 23.968
83.00000 26.318
83.02000 28.234
83.04000 27.786
83.06000 33.809
83.08000 26.134
83.10000 18.122
83.12000 23.213
83.14000 29.488
83.16000 23.420
83.18000 24.083
83.20000 19.105
83.22000 21.478
83.24000 26.565
83.26000 29.846
83.28000 22.852
83.30000 23.237
83.32000 20.583
83.34000 26.505
83.36000 17.886
83.38000 16.310
83.40000 18.898
83.42000 20.818
83.44000 18.597
83.46000 19.168
83.48000 24.402
83.50000 24.691
83.52000 19.000
83.54000 21.132
83.56000 14.355
83.58000 11.220
83.60000 12.115
83.62000 16.882
83.64000 18.398
83.66000 16.252
83.68000 12.076
83.70000 13.098
83.72000 19.236
83.74000 20.422
83.76000 16.986
83.78000 14.076
83.80000 17.103
83.82000 17.557
83.84000 15.536
83.86000 10.546
83.88000 10.783
83.90000 13.847
83.92000 16.572
83.94000 14.137
83.96000 7.152
83.98000 7.857
84.00000 6.337
84.02000 8.322
84.04000 8.355
84.06000 6.316
84.08000 11.224
84.10000 8.385
84.12000 6.811
84.14000 4.185
84.16000 7.253
84.18000 8.943
84.20000 8.388
84.22000 6.447
84.24000 8.064
84.26000 6.194
84.28000 5.754
84.30000 7.377
84.32000 4.965
84.34000 3.863
84.36000 9.314
84.38000 10.517
84.40000 9.865
84.42000 6.310
84.44000 5.975
84.46000 4.671
84.48000 5.518
84.50000 3.803
84.52000 3.190
84.54000 3.560
84.56000 6.989
84.58000 6.202
84.60000 4.469
84.62000 3.426
84.64000 5.484
84.66000 2.634
84.68000 2.374
84.70000 3.549
84.72000 3.064
84.74000 5.251
84.76000 2.973
84.78000 5.259
84.80000 0.425
84.82000 -2.565
84.84000 -0.038
84.86000 3.898
84.88000 4.815
84.90000 8.841
84.92000 9.217
84.94000 6.108
84.96000 4.444
84.98000 -0.096
85.00000 0.907
85.02000 3.874
85.04000 2.180
85.06000 1.709
85.08000 1.209
85.10000 7.427
85.12000 3.115
85.14000 0.551
85.16000 -1.815
85.18000 8.681
85.20000 8.025
85.22000 4.126
85.24000 2.697
85.26000 4.582
85.28000 1.414
85.30000 4.596
85.32000 2.876
85.34000 -0.805
85.36000 6.481
85.38000 8.422
85.40000 4.751
85.42000 8.574
85.44000 4.795
85.46000 2.804
85.48000 0.698
85.50000 -2.565
85.52000 2.446
85.54000 3.449
85.56000 9.160
85.58000 5.934
85.60000 3.615
85.62000 3.956
85.64000 7.687
85.66000 5.360
85.68000 3.474
85.70000 6.567
85.72000 8.030
85.74000 2.684
85.76000 2.421
85.78000 4.081
85.80000 0.344
85.82000 4.007
85.84000 5.222
85.86000 4.997
85.88000 5.979
85.90000 0.571
85.92000 2.182
85.94000 4.939
85.96000 7.276
85.98000 4.157
86.00000 8.420
86.02000 9.352
86.04000 8.785
86.06000 5.146
86.08000 5.144
86.10000 4.732
86.12000 9.098
86.14000 8.310
86.16000 4.715
86.18000 6.329
86.20000 11.650
86.22000 13.827
86.24000 13.394
86.26000 9.137
86.28000 8.452
86.30000 8.402
86.32000 10.168
86.34000 11.667
86.36000 12.618
86.38000 15.098
86.40000 15.092
86.42000 16.947
86.44000 15.753
86.46000 15.658
86.48000 18.343
86.50000 17.329
86.52000 15.980
86.54000 17.268
86.56000 19.731
86.58000 15.563
86.60000 11.786
86.62000 13.467
86.64000 15.158
86.66000 17.486
86.68000 24.509
86.70000 24.911
86.72000 23.480
86.74000 18.849
86.76000 18.676
86.78000 26.667
86.80000 29.053
86.82000 24.494
86.84000 24.450
86.86000 22.909
86.88000 25.753
86.90000 28.929
86.92000 28.990
86.94000 26.615
86.96000 26.552
86.98000 22.530
87.00000 21.085
87.02000 25.825
87.04000 30.860
87.06000 33.373
87.08000 26.081
87.10000 25.791
87.12000 23.144
87.14000 24.045
87.16000 22.017
87.18000 24.756
87.20000 30.600
87.22000 29.259
87.24000 27.254
87.26000 24.012
87.28000 25.000
87.30000 31.636
87.32000 34.147
87.34000 33.784
87.36000 27.272
87.38000 25.838
87.40000 24.766
87.42000 26.609
87.44000 20.539
87.46000 19.548
87.48000 22.541
87.50000 21.625
87.52000 22.604
87.54000 18.937
87.56000 23.239
87.58000 19.859
87.60000 18.276
87.62000 21.918
87.64000 18.801
87.66000 19.446
87.68000 21.720
87.70000 20.004
87.72000 13.303
87.74000 14.779
87.76000 15.112
87.78000 16.151
87.80000 15.584
87.82000 21.178
87.84000 17.959
87.86000 17.585
87.88000 16.521
87.90000 18.614
87.92000 20.700
87.94000 21.236
87.96000 16.445
87.98000 10.263
88.00000 10.962
88.02000 9.624
88.04000 9.124
88.06000 10.787
88.08000 10.218
88.10000 6.014
88.12000 5.078
88.14000 9.224
88.16000 11.276
88.18000 17.486
88.20000 18.376
88.22000 13.350
88.24000 8.025
88.26000 6.552
88.28000 4.519
88.30000 6.498
88.32000 11.592
88.34000 8.167
88.36000 6.134
88.38000 5.424
88.40000 4.143
88.42000 7.849
88.44000 4.765
88.46000 3.811
88.48000 3.333
88.50000 5.595
88.52000 7.346
88.54000 1.728
88.56000 -0.841
88.58000 4.741
88.60000 5.856
88.62000 3.597
88.64000 2.229
88.66000 4.641
88.68000 5.467
88.70000 2.389
88.72000 5.950
88.74000 2.294
88.76000 0.324
88.78000 1.332
88.80000 3.766
88.82000 2.761
88.84000 5.588
88.86000 11.975
88.88000 5.307
88.90000 1.837
88.92000 1.495
88.94000 5.016
88.96000 3.220
88.98000 6.037
89.00000 7.878
89.02000 6.600
89.04000 7.791
89.06000 6.380
89.08000 1.368
89.10000 4.475
89.12000 1.497
89.14000 -2.388
89.16000 -0.507
89.18000 5.953
89.20000 5.844
89.22000 4.869
89.24000 4.667
89.26000 1.572
89.28000 5.837
89.30000 6.589
89.32000 3.939
89.34000 6.991
89.36000 7.949
89.38000 3.805
89.40000 -2.343
89.42000 1.666
89.44000 6.250
89.46000 5.616
89.48000 5.378
89.50000 5.580
89.52000 0.175
89.54000 4.707
89.56000 7.730
89.58000 9.556
89.60000 10.292
89.62000 6.344
89.64000 4.238
89.66000 2.514
89.68000 5.172
89.70000 8.013
89.72000 5.590
89.74000 4.055
89.76000 1.964
89.78000 1.093
89.80000 4.652
89.82000 4.394
89.84000 8.401
89.86000 3.309
89.88000 3.746
89.90000 -0.675
89.92000 5.671
89.94000 2.736
89.96000 2.587
89.98000 0.105
90.00000 -0.852
90.02000 4.368
90.04000 5.061
90.06000 4.275
90.08000 6.401
90.10000 3.548
90.12000 1.791
90.14000 6.838
90.16000 8.493
90.18000 6.634
90.20000 -0.315
90.22000 4.556
90.24000 2.491
90.26000 -2.348
90.28000 3.715
90.30000 3.915
90.32000 1.472
90.34000 0.866
90.36000 2.484
90.38000 -0.230
90.40000 1.673
90.42000 3.988
90.44000 2.378
90.46000 -0.475
90.48000 0.097
90.50000 -1.293
90.52000 0.900
90.54000 4.490
90.56000 3.014
90.58000 -0.465
90.60000 2.130
90.62000 1.413
90.64000 7.683
90.66000 7.374
90.68000 5.472
90.70000 -1.300
90.72000 -2.343
90.74000 3.581
90.76000 -2.049
90.78000 -2.261
90.80000 1.411
90.82000 3.479
90.84000 1.119
90.86000 0.337
90.88000 -0.951
90.90000 0.890
90.92000 4.366
90.94000 5.596
90.96000 7.288
90.98000 5.579
91.00000 5.884
91.02000 2.097
91.04000 7.661
91.06000 5.204
91.08000 6.702
91.10000 2.727
91.12000 0.112
91.14000 5.102
91.16000 4.029
91.18000 2.244
91.20000 0.495
91.22000 6.466
91.24000 8.941
91.26000 3.925
91.28000 2.585
91.30000 2.763
91.32000 3.336
91.34000 3.411
91.36000 5.240
91.38000 6.581
91.40000 8.068
91.42000 4.292
91.44000 -0.268
91.46000 -2.343
91.48000 2.122
91.50000 6.688
91.52000 1.371
91.54000 1.732
91.56000 -1.236
91.58000 -0.242
91.60000 -0.396
91.62000 1.171
91.64000 4.259
91.66000 4.203
91.68000 3.304
91.70000 4.263
91.72000 6.161
91.74000 7.106
91.76000 2.899
91.78000 5.982
91.80000 7.303
91.82000 7.650
91.84000 5.339
91.86000 5.352
91.88000 0.947
91.90000 0.893
91.92000 4.851
91.94000 -0.579
91.96000 -1.283
91.98000 2.403
92.00000 4.740
92.02000 3.001
92.04000 2.057
92.06000 3.308
92.08000 -0.316
92.10000 1.640
92.12000 2.433
92.14000 5.293
92.16000 7.833
92.18000 7.530
92.20000 6.846
92.22000 5.671
92.24000 3.895
92.26000 0.785
92.28000 -2.016
92.30000 -2.336
92.32000 0.843
92.34000 4.242
92.36000 5.706
92.38000 7.368
92.40000 -0.353
92.42000 0.897
92.44000 6.902
92.46000 4.622
92.48000 7.153
92.50000 7.013
92.52000 5.283
92.54000 3.893
92.56000 4.080
92.58000 2.665
92.60000 2.088
92.62000 3.471
92.64000 0.809
92.66000 -1.271
92.68000 -2.215
92.70000 -0.887
92.72000 -0.190
92.74000 0.911
92.76000 3.856
92.78000 2.441
92.80000 0.841
92.82000 -0.421
92.84000 -2.051
92.86000 0.243
92.88000 0.118
92.90000 2.649
92.92000 2.438
92.94000 4.053
92.96000 11.050
92.98000 5.493
93.00000 2.736
93.02000 1.002
93.04000 3.127
93.06000 6.016
93.08000 7.467
93.10000 5.813
93.12000 5.345
93.14000 -1.017
93.16000 1.410
93.18000 6.450
93.20000 1.558
93.22000 0.609
93.24000 1.292
93.26000 2.901
93.28000 2.485
93.30000 4.708
93.32000 1.466
93.34000 0.695
93.36000 1.271
93.38000 4.493
93.40000 0.434
93.42000 -1.204
93.44000 1.121
93.46000 5.913
93.48000 5.823
93.50000 4.122
93.52000 7.353
93.54000 8.583
93.56000 9.014
93.58000 5.054
93.60000 7.144
93.62000 2.933
93.64000 -0.281
93.66000 0.156
93.68000 1.922
93.70000 4.861
93.72000 4.717
93.74000 5.510
93.76000 3.069
93.78000 1.762
93.80000 7.514
93.82000 -0.447
93.84000 7.898
93.86000 10.045
93.88000 8.445
93.90000 4.775
93.92000 0.214
93.94000 -1.227
93.96000 -2.349
93.98000 6.343
94.00000 7.916
94.02000 11.272
94.04000 8.489
94.06000 4.589
94.08000 1.230
94.10000 3.986
94.12000 2.675
94.14000 3.701
94.16000 5.958
94.18000 11.736
94.20000 11.849
94.22000 13.023
94.24000 10.942
94.26000 8.042
94.28000 7.024
94.30000 3.767
94.32000 6.368
94.34000 3.038
94.36000 -0.672
94.38000 4.924
94.40000 6.403
94.42000 1.577
94.44000 3.107
94.46000 4.231
94.48000 0.970
94.50000 0.309
94.52000 1.226
94.54000 2.704
94.56000 5.210
94.58000 4.593
94.60000 3.540
94.62000 0.175
94.64000 2.135
94.66000 5.631
94.68000 7.289
94.70000 7.430
94.72000 7.701
94.74000 8.630
94.76000 13.323
94.78000 10.879
94.80000 5.407
94.82000 7.914
94.84000 2.418
94.86000 5.128
94.88000 4.616
94.90000 10.009
94.92000 9.367
94.94000 3.641
94.96000 -2.340
94.98000 1.667
95.00000 1.325
95.02000 3.655
95.04000 5.109
95.06000 4.607
95.08000 4.197
95.10000 2.275
95.12000 6.698
95.14000 9.685
95.16000 8.479
95.18000 15.046
95.20000 13.944
95.22000 10.723
95.24000 7.790
95.26000 8.333
95.28000 8.748
95.30000 4.476
95.32000 -0.037
95.34000 4.427
95.36000 6.368
95.38000 4.853
95.40000 5.313
95.42000 4.241
95.44000 2.330
95.46000 2.024
95.48000 10.125
95.50000 7.563
95.52000 5.606
95.54000 6.728
95.56000 3.135
95.58000 8.927
95.60000 10.566
95.62000 3.608
95.64000 1.364
95.66000 1.760
95.68000 7.704
95.70000 8.031
95.72000 4.201
95.74000 -2.346
95.76000 7.502
95.78000 10.140
95.80000 7.181
95.82000 5.080
95.84000 11.770
95.86000 14.618
95.88000 5.696
95.90000 4.569
95.92000 6.535
95.94000 2.646
95.96000 -2.112
95.98000 4.387
96.00000 7.209
96.02000 6.382
96.04000 7.394
96.06000 -0.612
96.08000 -0.260
96.10000 0.230
96.12000 3.474
96.14000 7.635
96.16000 2.075
96.18000 7.900
96.20000 4.227
96.22000 0.991
96.24000 3.025
96.26000 11.210
96.28000 4.321
96.30000 3.399
96.32000 2.644
96.34000 2.928
96.36000 11.895
96.38000 3.797
96.40000 5.308
96.42000 10.621
96.44000 7.549
96.46000 6.802
96.48000 11.435
96.50000 3.353
96.52000 3.149
96.54000 -1.219
96.56000 2.114
96.58000 7.107
96.60000 6.757
96.62000 -0.838
96.64000 1.908
96.66000 -0.123
96.68000 1.668
96.70000 3.589
96.72000 6.055
96.74000 6.994
96.76000 7.161
96.78000 12.608
96.80000 8.504
96.82000 -0.804
96.84000 -1.539
96.86000 1.962
96.88000 4.443
96.90000 13.104
96.92000 13.239
96.94000 5.261
96.96000 1.678
96.98000 2.081
97.00000 -2.010
97.02000 8.711
97.04000 12.813
97.06000 8.337
97.08000 4.782
97.10000 10.430
97.12000 -1.329
97.14000 1.409
97.16000 7.161
97.18000 6.143
97.20000 2.092
97.22000 3.529
97.24000 10.701
97.26000 7.584
97.28000 6.793
97.30000 4.291
97.32000 5.292
97.34000 1.981
97.36000 5.856
97.38000 6.007
97.40000 -1.981
97.42000 1.921
97.44000 0.465
97.46000 -0.997
97.48000 5.633
97.50000 1.185
97.52000 -0.437
97.54000 4.049
97.56000 6.549
97.58000 5.405
97.60000 1.836
97.62000 -0.610
97.64000 5.142
97.66000 8.838
97.68000 9.584
97.70000 -2.045
97.72000 4.688
97.74000 5.463
97.76000 3.752
97.78000 3.718
97.80000 4.284
97.82000 1.605
97.84000 7.769
97.86000 10.975
97.88000 8.808
97.90000 6.780
97.92000 6.463
97.94000 -0.175
97.96000 5.815
97.98000 6.285
98.00000 14.274
98.02000 12.316
98.04000 11.861
98.06000 4.353
98.08000 1.262
98.10000 -2.266
98.12000 2.947
98.14000 7.206
98.16000 4.913
98.18000 6.339
98.20000 5.957
98.22000 2.746
98.24000 1.712
98.26000 -2.207
98.28000 1.581
98.30000 4.456
98.32000 7.144
98.34000 7.118
98.36000 0.708
98.38000 5.720
98.40000 -1.834
98.42000 -2.261
98.44000 -1.202
98.46000 4.963
98.48000 3.907
98.50000 7.627
98.52000 9.926
98.54000 12.022
98.56000 17.040
98.58000 18.861
98.60000 5.950
98.62000 2.284
98.64000 -2.264
98.66000 6.918
98.68000 4.065
98.70000 8.261
98.72000 13.306
98.74000 12.302
98.76000 0.943
98.78000 11.080
98.80000 15.501
98.82000 9.749
98.84000 7.600
98.86000 7.302
98.88000 10.010
98.90000 8.864
98.92000 10.444
98.94000 9.915
98.96000 10.788
98.98000 4.391
99.00000 5.708
99.02000 3.746
99.04000 -0.532
99.06000 18.085
99.08000 6.560
99.10000 5.111
99.12000 3.479
99.14000 4.001
99.16000 -5.483
99.18000 7.482
99.20000 16.210
99.22000 3.969
99.24000 7.421
99.26000 14.731
99.28000 8.786
99.30000 8.405
99.32000 9.753
99.34000 14.219
99.36000 12.799
99.38000 8.603
99.40000 11.117
99.42000 18.270
99.44000 8.013
99.46000 2.785
99.48000 12.676
99.50000 8.884
99.52000 5.740
99.54000 4.301
99.56000 -0.347
99.58000 11.416
99.60000 16.379
99.62000 11.377
99.64000 10.855
99.66000 6.285
99.68000 7.700
99.70000 4.554
99.72000 5.528
99.74000 -2.056
99.76000 3.725
99.78000 5.759
99.80000 9.179
99.82000 7.132
99.84000 4.291
99.86000 -2.295
99.88000 -1.211
99.90000 15.607
99.92000 20.618
99.94000 3.390
99.96000 -2.417
99.98000 0.000
