'Id: "0011388" Comment: "Integrate frame 0011388_Au-Ir-Rh_Rh-rich_XRD-Mapping-024-0000.gfrmwith cursor Wedge Cursor #5" Operator: "B?rgel" Anode: "Cu" Wavelength: "1.5406" Scantype: "2Theta (TwoTheta)" TimePerStep: "1" X: "-31.5" Y: "-31.5" Z: "5.95" 
10.00000 0.000
10.02000 -1.741
10.04000 -4.629
10.06000 -0.395
10.08000 29.483
10.10000 32.651
10.12000 23.234
10.14000 15.273
10.16000 4.447
10.18000 14.530
10.20000 20.833
10.22000 21.408
10.24000 5.066
10.26000 16.733
10.28000 10.593
10.30000 -4.489
10.32000 -2.908
10.34000 15.219
10.36000 28.713
10.38000 22.917
10.40000 24.871
10.42000 16.007
10.44000 14.949
10.46000 31.568
10.48000 18.466
10.50000 22.416
10.52000 17.602
10.54000 9.637
10.56000 15.781
10.58000 17.821
10.60000 8.916
10.62000 2.502
10.64000 4.970
10.66000 8.354
10.68000 3.851
10.70000 7.079
10.72000 8.085
10.74000 15.672
10.76000 11.287
10.78000 12.933
10.80000 8.072
10.82000 10.266
10.84000 5.272
10.86000 4.373
10.88000 24.373
10.90000 20.088
10.92000 9.931
10.94000 10.242
10.96000 -2.254
10.98000 4.402
11.00000 10.455
11.02000 10.897
11.04000 16.911
11.06000 15.502
11.08000 -6.690
11.10000 9.951
11.12000 21.850
11.14000 28.911
11.16000 13.749
11.18000 3.426
11.20000 6.422
11.22000 19.538
11.24000 17.637
11.26000 9.399
11.28000 17.142
11.30000 14.351
11.32000 1.372
11.34000 20.620
11.36000 20.982
11.38000 13.701
11.40000 10.442
11.42000 10.431
11.44000 9.971
11.46000 13.482
11.48000 6.664
11.50000 -3.087
11.52000 -4.521
11.54000 3.587
11.56000 15.450
11.58000 13.594
11.60000 10.232
11.62000 18.468
11.64000 21.969
11.66000 8.241
11.68000 -3.857
11.70000 0.530
11.72000 3.636
11.74000 14.186
11.76000 13.758
11.78000 3.092
11.80000 1.781
11.82000 4.305
11.84000 5.893
11.86000 8.689
11.88000 14.979
11.90000 4.873
11.92000 11.345
11.94000 11.166
11.96000 9.680
11.98000 11.983
12.00000 10.050
12.02000 13.712
12.04000 4.432
12.06000 10.888
12.08000 10.883
12.10000 11.506
12.12000 19.257
12.14000 18.261
12.16000 10.535
12.18000 1.041
12.20000 12.053
12.22000 12.038
12.24000 7.022
12.26000 2.571
12.28000 10.444
12.30000 14.493
12.32000 12.329
12.34000 6.978
12.36000 5.690
12.38000 13.490
12.40000 9.399
12.42000 9.804
12.44000 8.961
12.46000 19.784
12.48000 20.565
12.50000 16.426
12.52000 7.920
12.54000 18.872
12.56000 15.701
12.58000 6.423
12.60000 8.717
12.62000 20.241
12.64000 21.181
12.66000 18.812
12.68000 8.266
12.70000 -1.365
12.72000 7.565
12.74000 8.964
12.76000 8.832
12.78000 9.449
12.80000 14.913
12.82000 13.976
12.84000 10.986
12.86000 14.328
12.88000 11.199
12.90000 8.685
12.92000 12.797
12.94000 15.392
12.96000 14.533
12.98000 13.271
13.00000 6.206
13.02000 16.553
13.04000 8.374
13.06000 -3.757
13.08000 -4.482
13.10000 6.417
13.12000 24.375
13.14000 32.570
13.16000 15.486
13.18000 12.214
13.20000 11.360
13.22000 19.253
13.24000 21.017
13.26000 11.182
13.28000 4.299
13.30000 2.936
13.32000 9.212
13.34000 17.967
13.36000 10.528
13.38000 9.488
13.40000 11.577
13.42000 6.967
13.44000 6.350
13.46000 20.116
13.48000 25.557
13.50000 14.196
13.52000 6.014
13.54000 13.187
13.56000 7.685
13.58000 4.920
13.60000 9.548
13.62000 7.045
13.64000 4.153
13.66000 9.393
13.68000 11.819
13.70000 8.028
13.72000 11.382
13.74000 15.176
13.76000 21.561
13.78000 16.248
13.80000 5.704
13.82000 2.883
13.84000 5.577
13.86000 6.436
13.88000 2.634
13.90000 4.637
13.92000 10.490
13.94000 8.771
13.96000 11.190
13.98000 15.926
14.00000 4.813
14.02000 4.363
14.04000 9.759
14.06000 7.889
14.08000 7.117
14.10000 11.925
14.12000 11.360
14.14000 5.223
14.16000 7.941
14.18000 4.444
14.20000 1.994
14.22000 2.666
14.24000 -2.462
14.26000 19.118
14.28000 20.975
14.30000 13.109
14.32000 3.158
14.34000 8.894
14.36000 10.102
14.38000 10.805
14.40000 6.266
14.42000 7.524
14.44000 13.354
14.46000 9.994
14.48000 6.129
14.50000 7.890
14.52000 8.364
14.54000 3.821
14.56000 0.551
14.58000 15.411
14.60000 18.199
14.62000 10.548
14.64000 13.641
14.66000 19.033
14.68000 11.959
14.70000 2.972
14.72000 5.326
14.74000 8.357
14.76000 4.888
14.78000 14.398
14.80000 14.936
14.82000 12.163
14.84000 9.745
14.86000 10.666
14.88000 -0.523
14.90000 7.136
14.92000 18.221
14.94000 11.196
14.96000 6.145
14.98000 1.514
15.00000 7.376
15.02000 10.368
15.04000 10.006
15.06000 12.814
15.08000 9.402
15.10000 5.259
15.12000 7.496
15.14000 11.545
15.16000 12.131
15.18000 17.043
15.20000 10.756
15.22000 7.809
15.24000 5.978
15.26000 2.929
15.28000 1.995
15.30000 3.198
15.32000 3.935
15.34000 -0.249
15.36000 -4.433
15.38000 1.966
15.40000 2.448
15.42000 -0.711
15.44000 9.442
15.46000 6.174
15.48000 2.259
15.50000 0.677
15.52000 7.551
15.54000 2.294
15.56000 9.938
15.58000 6.266
15.60000 6.851
15.62000 1.269
15.64000 5.098
15.66000 3.496
15.68000 12.120
15.70000 17.618
15.72000 11.506
15.74000 6.360
15.76000 10.164
15.78000 10.481
15.80000 5.023
15.82000 6.378
15.84000 0.011
15.86000 10.772
15.88000 11.793
15.90000 13.717
15.92000 9.636
15.94000 4.942
15.96000 8.631
15.98000 2.736
16.00000 6.427
16.02000 16.429
16.04000 14.167
16.06000 9.627
16.08000 0.705
16.10000 7.571
16.12000 6.690
16.14000 4.084
16.16000 12.163
16.18000 13.840
16.20000 3.987
16.22000 6.462
16.24000 12.341
16.26000 9.097
16.28000 14.397
16.30000 18.395
16.32000 18.279
16.34000 15.808
16.36000 3.774
16.38000 1.043
16.40000 5.273
16.42000 10.003
16.44000 4.652
16.46000 4.342
16.48000 9.744
16.50000 8.544
16.52000 10.193
16.54000 13.219
16.56000 6.269
16.58000 2.274
16.60000 0.930
16.62000 3.933
16.64000 7.690
16.66000 2.959
16.68000 -4.359
16.70000 4.056
16.72000 4.155
16.74000 8.246
16.76000 9.524
16.78000 10.744
16.80000 11.601
16.82000 9.025
16.84000 10.425
16.86000 9.491
16.88000 16.495
16.90000 10.891
16.92000 8.219
16.94000 5.081
16.96000 15.023
16.98000 12.996
17.00000 6.102
17.02000 4.865
17.04000 10.533
17.06000 5.080
17.08000 11.378
17.10000 10.024
17.12000 0.253
17.14000 9.368
17.16000 7.150
17.18000 -1.873
17.20000 9.403
17.22000 9.405
17.24000 -1.889
17.26000 0.325
17.28000 2.084
17.30000 4.570
17.32000 4.117
17.34000 10.823
17.36000 12.107
17.38000 10.870
17.40000 16.645
17.42000 12.860
17.44000 6.812
17.46000 0.586
17.48000 5.127
17.50000 6.689
17.52000 5.266
17.54000 10.127
17.56000 9.910
17.58000 6.059
17.60000 10.006
17.62000 10.556
17.64000 5.504
17.66000 -1.955
17.68000 1.263
17.70000 8.944
17.72000 10.311
17.74000 13.404
17.76000 12.786
17.78000 11.994
17.80000 8.723
17.82000 1.140
17.84000 -0.232
17.86000 2.018
17.88000 1.997
17.90000 -0.570
17.92000 -4.295
17.94000 0.872
17.96000 6.051
17.98000 8.041
18.00000 4.288
18.02000 3.769
18.04000 -0.965
18.06000 3.918
18.08000 6.637
18.10000 4.522
18.12000 -1.191
18.14000 0.723
18.16000 4.065
18.18000 3.750
18.20000 6.274
18.22000 14.937
18.24000 12.464
18.26000 5.617
18.28000 -0.258
18.30000 5.068
18.32000 11.392
18.34000 6.804
18.36000 9.445
18.38000 14.153
18.40000 14.003
18.42000 6.635
18.44000 4.650
18.46000 9.399
18.48000 8.727
18.50000 1.082
18.52000 0.293
18.54000 3.439
18.56000 11.753
18.58000 9.493
18.60000 9.817
18.62000 8.945
18.64000 5.109
18.66000 7.217
18.68000 8.348
18.70000 8.264
18.72000 5.241
18.74000 0.458
18.76000 -0.956
18.78000 -2.225
18.80000 2.006
18.82000 5.022
18.84000 0.934
18.86000 3.711
18.88000 1.991
18.90000 -2.921
18.92000 -2.004
18.94000 0.939
18.96000 0.759
18.98000 -1.550
19.00000 0.731
19.02000 1.042
19.04000 0.430
19.06000 1.560
19.08000 3.177
19.10000 2.755
19.12000 2.099
19.14000 2.015
19.16000 2.069
19.18000 3.917
19.20000 5.811
19.22000 4.908
19.24000 11.407
19.26000 10.018
19.28000 2.853
19.30000 -1.456
19.32000 5.574
19.34000 4.701
19.36000 4.332
19.38000 14.643
19.40000 10.968
19.42000 2.130
19.44000 0.668
19.46000 -3.158
19.48000 -4.213
19.50000 2.314
19.52000 8.333
19.54000 6.738
19.56000 0.892
19.58000 -0.067
19.60000 -2.006
19.62000 4.684
19.64000 7.967
19.66000 8.080
19.68000 1.158
19.70000 2.705
19.72000 5.361
19.74000 1.197
19.76000 -3.568
19.78000 6.486
19.80000 10.559
19.82000 2.818
19.84000 0.082
19.86000 1.165
19.88000 4.084
19.90000 9.020
19.92000 -1.378
19.94000 -0.660
19.96000 5.463
19.98000 5.686
20.00000 1.446
20.02000 0.746
20.04000 3.987
20.06000 5.457
20.08000 6.274
20.10000 5.770
20.12000 -0.297
20.14000 -2.163
20.16000 -1.950
20.18000 1.004
20.20000 4.246
20.22000 -0.849
20.24000 -2.567
20.26000 1.862
20.28000 5.655
20.30000 7.850
20.32000 10.445
20.34000 2.349
20.36000 -1.506
20.38000 3.011
20.40000 -2.150
20.42000 -4.154
20.44000 2.021
20.46000 4.484
20.48000 5.835
20.50000 2.309
20.52000 7.939
20.54000 13.127
20.56000 7.332
20.58000 6.429
20.60000 0.220
20.62000 4.144
20.64000 10.242
20.66000 8.170
20.68000 0.493
20.70000 -2.033
20.72000 -0.144
20.74000 3.611
20.76000 3.584
20.78000 2.436
20.80000 3.810
20.82000 8.868
20.84000 9.360
20.86000 6.222
20.88000 3.967
20.90000 2.103
20.92000 2.987
20.94000 1.646
20.96000 -2.689
20.98000 -0.604
21.00000 3.957
21.02000 8.916
21.04000 8.151
21.06000 5.313
21.08000 7.079
21.10000 8.262
21.12000 11.281
21.14000 2.585
21.16000 -0.918
21.18000 0.962
21.20000 5.057
21.22000 0.637
21.24000 8.084
21.26000 6.229
21.28000 2.462
21.30000 8.302
21.32000 5.495
21.34000 -0.726
21.36000 3.328
21.38000 -0.629
21.40000 1.322
21.42000 3.441
21.44000 5.223
21.46000 5.016
21.48000 7.446
21.50000 9.124
21.52000 10.787
21.54000 5.038
21.56000 4.931
21.58000 -1.263
21.60000 -0.377
21.62000 4.356
21.64000 7.155
21.66000 8.534
21.68000 1.060
21.70000 6.581
21.72000 6.184
21.74000 5.634
21.76000 6.845
21.78000 2.453
21.80000 2.905
21.82000 -0.186
21.84000 0.728
21.86000 1.351
21.88000 6.967
21.90000 5.554
21.92000 0.715
21.94000 5.325
21.96000 7.833
21.98000 0.883
22.00000 -3.782
22.02000 3.482
22.04000 6.275
22.06000 7.237
22.08000 5.392
22.10000 6.854
22.12000 8.881
22.14000 8.782
22.16000 3.200
22.18000 -4.056
22.20000 1.147
22.22000 3.144
22.24000 2.533
22.26000 0.108
22.28000 1.669
22.30000 2.513
22.32000 8.258
22.34000 5.660
22.36000 4.985
22.38000 5.077
22.40000 8.510
22.42000 2.041
22.44000 4.386
22.46000 7.146
22.48000 3.779
22.50000 7.543
22.52000 9.313
22.54000 11.354
22.56000 9.945
22.58000 9.365
22.60000 10.462
22.62000 8.137
22.64000 1.734
22.66000 6.178
22.68000 6.264
22.70000 7.448
22.72000 2.619
22.74000 2.421
22.76000 4.319
22.78000 0.359
22.80000 4.422
22.82000 1.998
22.84000 2.309
22.86000 -4.030
22.88000 0.316
22.90000 4.155
22.92000 0.716
22.94000 -2.940
22.96000 -0.554
22.98000 -2.543
23.00000 -2.391
23.02000 1.688
23.04000 7.922
23.06000 6.578
23.08000 6.411
23.10000 4.262
23.12000 -0.458
23.14000 0.766
23.16000 4.669
23.18000 9.085
23.20000 10.580
23.22000 8.127
23.24000 8.503
23.26000 11.353
23.28000 1.733
23.30000 2.862
23.32000 0.758
23.34000 0.604
23.36000 5.005
23.38000 6.231
23.40000 5.209
23.42000 1.516
23.44000 4.277
23.46000 2.580
23.48000 2.786
23.50000 8.849
23.52000 7.575
23.54000 5.113
23.56000 5.350
23.58000 7.755
23.60000 5.912
23.62000 3.398
23.64000 1.993
23.66000 -3.974
23.68000 -3.401
23.70000 1.021
23.72000 -1.349
23.74000 5.102
23.76000 4.247
23.78000 5.696
23.80000 0.515
23.82000 0.176
23.84000 6.261
23.86000 5.425
23.88000 8.715
23.90000 9.685
23.92000 3.570
23.94000 3.125
23.96000 2.627
23.98000 0.973
24.00000 -0.617
24.02000 5.157
24.04000 8.535
24.06000 7.545
24.08000 3.302
24.10000 2.240
24.12000 3.533
24.14000 0.727
24.16000 -0.647
24.18000 2.973
24.20000 6.457
24.22000 4.028
24.24000 -2.403
24.26000 -3.937
24.28000 3.679
24.30000 7.191
24.32000 1.998
24.34000 1.191
24.36000 5.541
24.38000 9.074
24.40000 3.088
24.42000 0.033
24.44000 0.480
24.46000 3.002
24.48000 5.112
24.50000 8.327
24.52000 9.449
24.54000 2.968
24.56000 0.751
24.58000 -1.055
24.60000 2.787
24.62000 6.604
24.64000 4.781
24.66000 -1.443
24.68000 -0.931
24.70000 1.179
24.72000 -1.385
24.74000 0.247
24.76000 4.891
24.78000 8.800
24.80000 3.718
24.82000 10.418
24.84000 5.014
24.86000 3.482
24.88000 -3.121
24.90000 -3.910
24.92000 3.469
24.94000 0.141
24.96000 -1.926
24.98000 3.033
25.00000 1.620
25.02000 0.180
25.04000 1.211
25.06000 7.976
25.08000 2.689
25.10000 2.249
25.12000 3.314
25.14000 0.517
25.16000 2.525
25.18000 5.494
25.20000 8.703
25.22000 5.106
25.24000 5.182
25.26000 4.230
25.28000 4.088
25.30000 5.344
25.32000 2.547
25.34000 -0.705
25.36000 3.781
25.38000 4.547
25.40000 6.223
25.42000 3.704
25.44000 -0.033
25.46000 -1.428
25.48000 1.485
25.50000 0.660
25.52000 3.404
25.54000 3.294
25.56000 1.508
25.58000 0.092
25.60000 3.484
25.62000 3.606
25.64000 4.760
25.66000 3.908
25.68000 0.297
25.70000 8.015
25.72000 9.372
25.74000 7.146
25.76000 1.835
25.78000 1.138
25.80000 7.864
25.82000 9.545
25.84000 -0.211
25.86000 -3.672
25.88000 3.325
25.90000 2.764
25.92000 -0.234
25.94000 6.261
25.96000 5.277
25.98000 5.622
26.00000 5.331
26.02000 9.649
26.04000 4.588
26.06000 2.547
26.08000 5.147
26.10000 7.221
26.12000 3.164
26.14000 2.168
26.16000 1.319
26.18000 3.772
26.20000 3.822
26.22000 2.119
26.24000 4.923
26.26000 7.772
26.28000 -3.852
26.30000 3.784
26.32000 7.670
26.34000 3.379
26.36000 0.152
26.38000 -0.556
26.40000 5.074
26.42000 6.498
26.44000 1.153
26.46000 1.686
26.48000 0.884
26.50000 0.888
26.52000 2.343
26.54000 1.140
26.56000 1.200
26.58000 1.670
26.60000 -3.837
26.62000 -2.543
26.64000 0.994
26.66000 7.310
26.68000 5.930
26.70000 3.416
26.72000 2.824
26.74000 -0.199
26.76000 3.036
26.78000 6.093
26.80000 7.576
26.82000 6.366
26.84000 3.101
26.86000 3.723
26.88000 4.358
26.90000 1.462
26.92000 -1.703
26.94000 4.622
26.96000 4.571
26.98000 6.850
27.00000 5.821
27.02000 -1.058
27.04000 -2.624
27.06000 3.005
27.08000 2.421
27.10000 2.800
27.12000 3.000
27.14000 1.108
27.16000 7.171
27.18000 7.452
27.20000 2.908
27.22000 1.504
27.24000 0.398
27.26000 0.956
27.28000 5.606
27.30000 1.578
27.32000 1.792
27.34000 3.133
27.36000 7.397
27.38000 7.185
27.40000 4.955
27.42000 6.876
27.44000 5.583
27.46000 3.371
27.48000 6.418
27.50000 6.701
27.52000 2.834
27.54000 0.007
27.56000 -0.970
27.58000 -3.769
27.60000 -2.913
27.62000 -3.662
27.64000 1.565
27.66000 2.159
27.68000 2.152
27.70000 2.988
27.72000 5.163
27.74000 7.646
27.76000 3.368
27.78000 0.709
27.80000 1.338
27.82000 2.784
27.84000 -1.381
27.86000 4.090
27.88000 6.822
27.90000 8.736
27.92000 6.029
27.94000 1.662
27.96000 3.864
27.98000 7.497
28.00000 7.256
28.02000 7.259
28.04000 4.459
28.06000 8.721
28.08000 10.619
28.10000 7.281
28.12000 6.070
28.14000 8.402
28.16000 3.829
28.18000 -2.335
28.20000 1.112
28.22000 3.725
28.24000 4.739
28.26000 2.058
28.28000 -1.656
28.30000 0.649
28.32000 9.146
28.34000 12.404
28.36000 6.163
28.38000 5.586
28.40000 8.823
28.42000 5.217
28.44000 6.115
28.46000 4.686
28.48000 6.763
28.50000 2.764
28.52000 3.057
28.54000 1.767
28.56000 2.083
28.58000 2.219
28.60000 3.346
28.62000 4.667
28.64000 5.791
28.66000 0.263
28.68000 -0.795
28.70000 3.494
28.72000 4.379
28.74000 5.276
28.76000 4.560
28.78000 3.189
28.80000 5.364
28.82000 3.979
28.84000 4.800
28.86000 4.151
28.88000 3.607
28.90000 1.398
28.92000 -3.695
28.94000 0.923
28.96000 6.279
28.98000 5.807
29.00000 5.888
29.02000 6.946
29.04000 5.851
29.06000 2.278
29.08000 -0.625
29.10000 3.518
29.12000 1.658
29.14000 0.964
29.16000 3.627
29.18000 0.234
29.20000 2.240
29.22000 3.692
29.24000 -0.114
29.26000 -1.638
29.28000 1.720
29.30000 3.109
29.32000 4.483
29.34000 4.535
29.36000 3.875
29.38000 6.781
29.40000 3.645
29.42000 0.679
29.44000 3.933
29.46000 3.191
29.48000 -0.625
29.50000 0.364
29.52000 3.898
29.54000 1.316
29.56000 10.031
29.58000 9.687
29.60000 4.484
29.62000 0.586
29.64000 1.069
29.66000 1.588
29.68000 -1.692
29.70000 -0.948
29.72000 0.591
29.74000 -1.400
29.76000 -2.309
29.78000 1.851
29.80000 0.260
29.82000 -3.004
29.84000 0.896
29.86000 6.142
29.88000 8.408
29.90000 6.481
29.92000 3.194
29.94000 5.472
29.96000 5.855
29.98000 2.920
30.00000 2.877
30.02000 4.913
30.04000 1.462
30.06000 4.050
30.08000 -0.199
30.10000 -0.366
30.12000 2.138
30.14000 5.946
30.16000 5.579
30.18000 4.686
30.20000 3.090
30.22000 4.646
30.24000 3.331
30.26000 -2.707
30.28000 -0.859
30.30000 4.097
30.32000 4.152
30.34000 2.643
30.36000 1.874
30.38000 2.794
30.40000 1.101
30.42000 3.412
30.44000 3.263
30.46000 -0.858
30.48000 3.354
30.50000 3.062
30.52000 -1.639
30.54000 5.679
30.56000 4.241
30.58000 6.202
30.60000 4.889
30.62000 6.190
30.64000 6.909
30.66000 2.479
30.68000 1.513
30.70000 4.490
30.72000 7.859
30.74000 4.089
30.76000 3.459
30.78000 2.998
30.80000 5.090
30.82000 9.233
30.84000 4.728
30.86000 3.033
30.88000 1.306
30.90000 1.830
30.92000 1.409
30.94000 4.160
30.96000 5.826
30.98000 12.405
31.00000 10.163
31.02000 7.531
31.04000 2.426
31.06000 -0.211
31.08000 -3.575
31.10000 -0.858
31.12000 4.020
31.14000 4.375
31.16000 1.966
31.18000 1.086
31.20000 0.462
31.22000 4.783
31.24000 7.321
31.26000 8.995
31.28000 6.279
31.30000 2.276
31.32000 4.891
31.34000 5.695
31.36000 6.334
31.38000 2.040
31.40000 2.353
31.42000 8.020
31.44000 6.170
31.46000 4.949
31.48000 1.373
31.50000 3.847
31.52000 5.995
31.54000 7.318
31.56000 9.009
31.58000 11.365
31.60000 10.554
31.62000 2.755
31.64000 0.954
31.66000 4.407
31.68000 5.518
31.70000 6.231
31.72000 2.091
31.74000 2.579
31.76000 1.175
31.78000 -3.382
31.80000 -3.538
31.82000 -2.377
31.84000 -1.739
31.86000 2.009
31.88000 8.051
31.90000 14.899
31.92000 8.574
31.94000 3.296
31.96000 1.370
31.98000 5.115
32.00000 8.802
32.02000 6.855
32.04000 6.392
32.06000 3.761
32.08000 2.082
32.10000 3.821
32.12000 5.745
32.14000 5.133
32.16000 3.439
32.18000 4.252
32.20000 0.322
32.22000 7.198
32.24000 13.807
32.26000 11.272
32.28000 2.397
32.30000 0.206
32.32000 -0.234
32.34000 2.626
32.36000 5.914
32.38000 7.131
32.40000 5.578
32.42000 3.231
32.44000 2.831
32.46000 -1.468
32.48000 4.464
32.50000 8.166
32.52000 8.208
32.54000 8.165
32.56000 1.290
32.58000 0.526
32.60000 -3.526
32.62000 0.495
32.64000 2.512
32.66000 -1.742
32.68000 2.033
32.70000 6.112
32.72000 8.370
32.74000 4.259
32.76000 3.720
32.78000 -1.538
32.80000 -0.230
32.82000 0.473
32.84000 4.704
32.86000 4.844
32.88000 9.258
32.90000 6.549
32.92000 4.894
32.94000 4.935
32.96000 5.105
32.98000 4.530
33.00000 3.471
33.02000 5.432
33.04000 5.353
33.06000 6.791
33.08000 3.020
33.10000 1.411
33.12000 4.133
33.14000 4.221
33.16000 5.898
33.18000 7.372
33.20000 7.640
33.22000 6.280
33.24000 9.221
33.26000 7.661
33.28000 3.652
33.30000 5.600
33.32000 1.975
33.34000 6.565
33.36000 6.003
33.38000 3.078
33.40000 -0.659
33.42000 -2.542
33.44000 -3.521
33.46000 -0.570
33.48000 2.397
33.50000 1.260
33.52000 4.751
33.54000 6.444
33.56000 4.969
33.58000 1.658
33.60000 -1.856
33.62000 3.390
33.64000 7.659
33.66000 1.422
33.68000 1.490
33.70000 5.233
33.72000 6.311
33.74000 6.297
33.76000 8.574
33.78000 5.862
33.80000 3.509
33.82000 3.472
33.84000 4.070
33.86000 4.119
33.88000 2.501
33.90000 -0.432
33.92000 1.851
33.94000 6.231
33.96000 5.082
33.98000 1.663
34.00000 0.821
34.02000 4.889
34.04000 7.345
34.06000 3.869
34.08000 -2.306
34.10000 -1.049
34.12000 2.356
34.14000 3.358
34.16000 7.109
34.18000 3.273
34.20000 2.235
34.22000 3.897
34.24000 2.768
34.26000 4.933
34.28000 4.748
34.30000 4.729
34.32000 4.075
34.34000 3.654
34.36000 -0.873
34.38000 0.923
34.40000 1.252
34.42000 -1.283
34.44000 5.139
34.46000 5.486
34.48000 -2.066
34.50000 -1.040
34.52000 0.229
34.54000 2.685
34.56000 5.527
34.58000 3.750
34.60000 3.093
34.62000 2.972
34.64000 3.349
34.66000 3.839
34.68000 1.323
34.70000 -0.877
34.72000 2.365
34.74000 4.635
34.76000 2.191
34.78000 2.067
34.80000 -1.903
34.82000 -3.484
34.84000 4.942
34.86000 7.840
34.88000 1.697
34.90000 -2.513
34.92000 4.387
34.94000 7.661
34.96000 4.751
34.98000 4.160
35.00000 3.656
35.02000 5.040
35.04000 -2.988
35.06000 -0.488
35.08000 -3.466
35.10000 -2.749
35.12000 0.461
35.14000 0.175
35.16000 1.347
35.18000 -0.999
35.20000 1.926
35.22000 3.934
35.24000 4.705
35.26000 7.070
35.28000 3.806
35.30000 6.742
35.32000 7.930
35.34000 3.070
35.36000 2.504
35.38000 -0.376
35.40000 3.058
35.42000 4.047
35.44000 3.301
35.46000 5.146
35.48000 9.303
35.50000 5.546
35.52000 2.079
35.54000 2.672
35.56000 -0.380
35.58000 2.003
35.60000 2.072
35.62000 4.334
35.64000 2.218
35.66000 3.960
35.68000 4.415
35.70000 -1.453
35.72000 -2.738
35.74000 2.861
35.76000 3.282
35.78000 1.950
35.80000 0.994
35.82000 2.484
35.84000 2.120
35.86000 1.843
35.88000 6.990
35.90000 10.548
35.92000 3.316
35.94000 -0.424
35.96000 -0.132
35.98000 8.566
36.00000 12.732
36.02000 7.338
36.04000 8.245
36.06000 10.561
36.08000 5.114
36.10000 7.430
36.12000 11.473
36.14000 8.534
36.16000 6.246
36.18000 6.962
36.20000 6.522
36.22000 -3.414
36.24000 0.164
36.26000 1.925
36.28000 0.992
36.30000 5.469
36.32000 4.198
36.34000 10.428
36.36000 10.207
36.38000 4.773
36.40000 3.295
36.42000 1.682
36.44000 2.842
36.46000 3.624
36.48000 3.616
36.50000 -0.451
36.52000 -0.176
36.54000 4.606
36.56000 6.043
36.58000 2.913
36.60000 5.293
36.62000 7.243
36.64000 11.650
36.66000 5.885
36.68000 1.464
36.70000 3.224
36.72000 3.473
36.74000 1.584
36.76000 1.166
36.78000 -2.243
36.80000 0.098
36.82000 2.153
36.84000 2.152
36.86000 5.461
36.88000 3.798
36.90000 5.374
36.92000 4.927
36.94000 0.511
36.96000 4.134
36.98000 2.463
37.00000 1.363
37.02000 1.151
37.04000 1.770
37.06000 2.082
37.08000 -3.472
37.10000 -1.947
37.12000 6.807
37.14000 4.145
37.16000 0.589
37.18000 3.821
37.20000 6.823
37.22000 9.600
37.24000 4.685
37.26000 2.536
37.28000 -2.463
37.30000 2.283
37.32000 4.108
37.34000 1.119
37.36000 -0.704
37.38000 0.298
37.40000 0.286
37.42000 -0.877
37.44000 0.675
37.46000 0.786
37.48000 -3.074
37.50000 -0.255
37.52000 -1.711
37.54000 1.566
37.56000 -0.457
37.58000 -2.678
37.60000 -3.231
37.62000 -2.174
37.64000 3.246
37.66000 -1.221
37.68000 -1.248
37.70000 1.155
37.72000 -0.546
37.74000 2.487
37.76000 -2.910
37.78000 -3.042
37.80000 0.288
37.82000 -0.560
37.84000 -1.247
37.86000 -1.795
37.88000 -2.743
37.90000 1.311
37.92000 0.894
37.94000 -0.126
37.96000 4.844
37.98000 4.851
38.00000 -0.026
38.02000 3.917
38.04000 6.058
38.06000 5.174
38.08000 4.227
38.10000 3.920
38.12000 6.163
38.14000 1.190
38.16000 3.877
38.18000 6.061
38.20000 8.668
38.22000 12.321
38.24000 9.443
38.26000 8.822
38.28000 6.301
38.30000 5.935
38.32000 8.782
38.34000 7.151
38.36000 5.653
38.38000 7.392
38.40000 9.110
38.42000 5.157
38.44000 2.121
38.46000 6.910
38.48000 13.293
38.50000 10.784
38.52000 10.247
38.54000 14.320
38.56000 16.874
38.58000 13.464
38.60000 12.906
38.62000 12.086
38.64000 13.619
38.66000 13.281
38.68000 15.486
38.70000 12.309
38.72000 15.026
38.74000 19.734
38.76000 16.747
38.78000 10.827
38.80000 13.342
38.82000 20.207
38.84000 17.925
38.86000 11.680
38.88000 19.295
38.90000 23.916
38.92000 19.836
38.94000 19.891
38.96000 22.175
38.98000 22.016
39.00000 22.718
39.02000 25.512
39.04000 23.022
39.06000 23.593
39.08000 26.159
39.10000 29.532
39.12000 35.977
39.14000 31.071
39.16000 24.201
39.18000 26.370
39.20000 30.072
39.22000 29.913
39.24000 34.421
39.26000 34.090
39.28000 36.549
39.30000 35.154
39.32000 37.315
39.34000 41.312
39.36000 45.998
39.38000 48.206
39.40000 46.656
39.42000 48.941
39.44000 51.017
39.46000 52.447
39.48000 54.402
39.50000 60.934
39.52000 61.902
39.54000 57.316
39.56000 56.703
39.58000 69.193
39.60000 77.923
39.62000 76.198
39.64000 81.930
39.66000 87.081
39.68000 92.653
39.70000 94.090
39.72000 100.503
39.74000 107.579
39.76000 108.483
39.78000 111.793
39.80000 124.942
39.82000 126.778
39.84000 127.993
39.86000 140.079
39.88000 143.347
39.90000 154.870
39.92000 164.940
39.94000 169.705
39.96000 180.342
39.98000 196.287
40.00000 210.466
40.02000 226.368
40.04000 234.426
40.06000 241.525
40.08000 258.944
40.10000 275.995
40.12000 292.310
40.14000 311.229
40.16000 324.756
40.18000 340.237
40.20000 360.581
40.22000 379.217
40.24000 396.734
40.26000 419.602
40.28000 436.892
40.30000 449.736
40.32000 466.209
40.34000 492.656
40.36000 511.542
40.38000 526.182
40.40000 538.299
40.42000 564.143
40.44000 592.576
40.46000 602.102
40.48000 613.814
40.50000 624.676
40.52000 633.757
40.54000 645.164
40.56000 642.084
40.58000 654.191
40.60000 648.846
40.62000 653.131
40.64000 652.376
40.66000 651.658
40.68000 638.669
40.70000 621.575
40.72000 610.025
40.74000 599.446
40.76000 594.131
40.78000 569.861
40.80000 554.178
40.82000 531.770
40.84000 519.598
40.86000 493.430
40.88000 478.036
40.90000 458.790
40.92000 433.377
40.94000 421.505
40.96000 400.373
40.98000 377.315
41.00000 355.603
41.02000 338.175
41.04000 313.003
41.06000 302.046
41.08000 296.214
41.10000 281.360
41.12000 258.502
41.14000 248.970
41.16000 235.736
41.18000 225.643
41.20000 210.984
41.22000 194.840
41.24000 183.887
41.26000 175.665
41.28000 167.328
41.30000 155.565
41.32000 152.291
41.34000 145.192
41.36000 132.836
41.38000 120.390
41.40000 117.483
41.42000 116.151
41.44000 107.211
41.46000 94.922
41.48000 95.572
41.50000 90.185
41.52000 81.023
41.54000 75.244
41.56000 75.341
41.58000 77.317
41.60000 75.184
41.62000 68.369
41.64000 62.192
41.66000 57.207
41.68000 58.744
41.70000 59.424
41.72000 55.240
41.74000 53.145
41.76000 50.427
41.78000 46.274
41.80000 40.715
41.82000 42.987
41.84000 37.736
41.86000 39.422
41.88000 39.738
41.90000 35.362
41.92000 37.938
41.94000 32.524
41.96000 31.704
41.98000 30.490
42.00000 30.802
42.02000 28.076
42.04000 24.859
42.06000 19.575
42.08000 22.065
42.10000 20.514
42.12000 17.232
42.14000 20.985
42.16000 20.833
42.18000 16.433
42.20000 15.396
42.22000 18.278
42.24000 14.251
42.26000 12.360
42.28000 14.542
42.30000 14.701
42.32000 13.516
42.34000 18.982
42.36000 21.161
42.38000 13.506
42.40000 11.842
42.42000 9.573
42.44000 12.355
42.46000 9.822
42.48000 9.108
42.50000 11.608
42.52000 9.105
42.54000 8.188
42.56000 7.902
42.58000 7.586
42.60000 7.980
42.62000 7.195
42.64000 3.280
42.66000 8.040
42.68000 6.168
42.70000 3.726
42.72000 6.777
42.74000 4.747
42.76000 3.776
42.78000 5.756
42.80000 6.653
42.82000 3.464
42.84000 5.313
42.86000 8.569
42.88000 6.117
42.90000 2.269
42.92000 -1.133
42.94000 -1.650
42.96000 2.383
42.98000 4.485
43.00000 7.293
43.02000 4.760
43.04000 4.711
43.06000 7.409
43.08000 5.539
43.10000 3.093
43.12000 7.516
43.14000 5.696
43.16000 0.886
43.18000 -3.474
43.20000 3.188
43.22000 5.920
43.24000 5.031
43.26000 3.114
43.28000 2.857
43.30000 2.146
43.32000 -1.035
43.34000 0.993
43.36000 1.033
43.38000 0.113
43.40000 -0.565
43.42000 1.171
43.44000 3.297
43.46000 3.746
43.48000 0.261
43.50000 0.168
43.52000 2.527
43.54000 1.842
43.56000 -0.113
43.58000 1.227
43.60000 -0.167
43.62000 1.169
43.64000 2.302
43.66000 -0.925
43.68000 -2.098
43.70000 -0.440
43.72000 1.297
43.74000 5.032
43.76000 2.181
43.78000 1.027
43.80000 1.726
43.82000 2.036
43.84000 4.986
43.86000 1.836
43.88000 6.950
43.90000 5.628
43.92000 3.356
43.94000 2.582
43.96000 9.031
43.98000 3.995
44.00000 -1.595
44.02000 -3.393
44.04000 2.566
44.06000 6.520
44.08000 3.303
44.10000 -0.766
44.12000 3.588
44.14000 3.650
44.16000 2.598
44.18000 5.680
44.20000 0.659
44.22000 -1.161
44.24000 0.302
44.26000 4.391
44.28000 3.952
44.30000 1.649
44.32000 1.474
44.34000 -0.747
44.36000 0.680
44.38000 -1.038
44.40000 -1.927
44.42000 1.539
44.44000 5.410
44.46000 2.887
44.48000 0.062
44.50000 2.697
44.52000 3.614
44.54000 3.947
44.56000 -1.475
44.58000 -3.362
44.60000 -3.025
44.62000 2.140
44.64000 6.306
44.66000 2.996
44.68000 3.996
44.70000 -0.600
44.72000 5.337
44.74000 3.319
44.76000 3.116
44.78000 0.292
44.80000 5.208
44.82000 4.317
44.84000 7.011
44.86000 1.387
44.88000 2.162
44.90000 1.000
44.92000 2.876
44.94000 7.265
44.96000 4.803
44.98000 0.105
45.00000 -2.698
45.02000 -3.353
45.04000 0.105
45.06000 1.315
45.08000 -3.069
45.10000 -1.438
45.12000 4.160
45.14000 3.159
45.16000 4.834
45.18000 -0.116
45.20000 -1.186
45.22000 5.856
45.24000 1.399
45.26000 6.957
45.28000 -1.103
45.30000 0.139
45.32000 0.195
45.34000 -0.449
45.36000 3.270
45.38000 8.062
45.40000 5.327
45.42000 4.243
45.44000 4.863
45.46000 4.909
45.48000 7.226
45.50000 6.990
45.52000 7.105
45.54000 4.856
45.56000 9.234
45.58000 10.147
45.60000 5.812
45.62000 9.266
45.64000 13.145
45.66000 12.490
45.68000 10.603
45.70000 7.906
45.72000 11.149
45.74000 13.056
45.76000 12.175
45.78000 15.606
45.80000 12.521
45.82000 11.852
45.84000 9.202
45.86000 7.589
45.88000 9.607
45.90000 17.815
45.92000 20.436
45.94000 15.278
45.96000 12.182
45.98000 14.258
46.00000 15.119
46.02000 16.718
46.04000 15.549
46.06000 14.792
46.08000 22.205
46.10000 25.560
46.12000 19.737
46.14000 15.588
46.16000 18.283
46.18000 19.757
46.20000 25.113
46.22000 23.094
46.24000 24.962
46.26000 27.184
46.28000 29.434
46.30000 27.095
46.32000 32.563
46.34000 34.595
46.36000 31.944
46.38000 33.111
46.40000 32.325
46.42000 35.961
46.44000 42.894
46.46000 42.481
46.48000 40.066
46.50000 42.883
46.52000 43.641
46.54000 42.484
46.56000 45.311
46.58000 50.823
46.60000 52.172
46.62000 48.879
46.64000 48.484
46.66000 55.638
46.68000 56.723
46.70000 58.566
46.72000 59.635
46.74000 62.475
46.76000 62.377
46.78000 70.838
46.80000 67.995
46.82000 63.849
46.84000 69.655
46.86000 69.251
46.88000 70.115
46.90000 74.992
46.92000 77.974
46.94000 83.152
46.96000 82.921
46.98000 75.706
47.00000 80.633
47.02000 84.424
47.04000 80.564
47.06000 81.077
47.08000 81.730
47.10000 78.146
47.12000 82.817
47.14000 83.925
47.16000 81.218
47.18000 90.499
47.20000 89.830
47.22000 89.195
47.24000 85.976
47.26000 94.148
47.28000 90.902
47.30000 86.073
47.32000 83.817
47.34000 85.271
47.36000 85.735
47.38000 84.457
47.40000 84.992
47.42000 83.110
47.44000 77.260
47.46000 76.934
47.48000 74.023
47.50000 73.413
47.52000 74.013
47.54000 75.640
47.56000 70.003
47.58000 66.636
47.60000 66.144
47.62000 67.719
47.64000 66.285
47.66000 61.743
47.68000 56.495
47.70000 56.966
47.72000 59.782
47.74000 57.768
47.76000 48.127
47.78000 47.832
47.80000 49.458
47.82000 47.854
47.84000 40.601
47.86000 46.193
47.88000 44.717
47.90000 38.346
47.92000 36.040
47.94000 32.257
47.96000 32.995
47.98000 37.348
48.00000 34.899
48.02000 29.739
48.04000 32.899
48.06000 35.045
48.08000 29.165
48.10000 27.810
48.12000 26.861
48.14000 21.117
48.16000 17.967
48.18000 16.625
48.20000 16.456
48.22000 14.808
48.24000 15.373
48.26000 19.658
48.28000 22.520
48.30000 21.307
48.32000 18.726
48.34000 18.220
48.36000 9.543
48.38000 8.628
48.40000 8.960
48.42000 11.783
48.44000 12.582
48.46000 14.220
48.48000 10.242
48.50000 4.797
48.52000 4.439
48.54000 10.777
48.56000 7.872
48.58000 4.523
48.60000 8.649
48.62000 8.939
48.64000 5.450
48.66000 6.201
48.68000 8.617
48.70000 8.905
48.72000 2.761
48.74000 -1.201
48.76000 0.972
48.78000 3.120
48.80000 3.532
48.82000 3.027
48.84000 2.530
48.86000 1.295
48.88000 1.747
48.90000 2.888
48.92000 4.173
48.94000 3.702
48.96000 3.636
48.98000 0.541
49.00000 1.871
49.02000 6.223
49.04000 4.431
49.06000 4.517
49.08000 5.465
49.10000 9.859
49.12000 4.409
49.14000 4.251
49.16000 2.877
49.18000 4.122
49.20000 6.023
49.22000 3.946
49.24000 3.784
49.26000 2.701
49.28000 5.446
49.30000 6.810
49.32000 -1.974
49.34000 4.504
49.36000 1.697
49.38000 -2.911
49.40000 5.706
49.42000 8.511
49.44000 7.285
49.46000 9.897
49.48000 6.119
49.50000 4.207
49.52000 5.875
49.54000 2.369
49.56000 4.130
49.58000 2.286
49.60000 2.756
49.62000 5.259
49.64000 0.333
49.66000 -0.420
49.68000 1.089
49.70000 4.530
49.72000 7.285
49.74000 4.765
49.76000 3.357
49.78000 1.906
49.80000 4.107
49.82000 3.916
49.84000 8.984
49.86000 9.558
49.88000 4.135
49.90000 2.260
49.92000 3.007
49.94000 5.387
49.96000 4.702
49.98000 4.472
50.00000 3.248
50.02000 -0.317
50.04000 0.555
50.06000 4.227
50.08000 2.686
50.10000 0.989
50.12000 1.100
50.14000 1.008
50.16000 0.927
50.18000 3.909
50.20000 2.856
50.22000 2.436
50.24000 1.261
50.26000 0.974
50.28000 4.985
50.30000 3.962
50.32000 2.512
50.34000 2.740
50.36000 5.211
50.38000 6.745
50.40000 3.943
50.42000 3.269
50.44000 3.474
50.46000 -0.391
50.48000 -2.801
50.50000 0.729
50.52000 5.647
50.54000 8.104
50.56000 5.758
50.58000 4.324
50.60000 1.438
50.62000 2.943
50.64000 1.702
50.66000 4.265
50.68000 5.634
50.70000 2.938
50.72000 2.779
50.74000 1.408
50.76000 4.056
50.78000 5.709
50.80000 2.218
50.82000 2.014
50.84000 1.770
50.86000 2.589
50.88000 1.261
50.90000 0.363
50.92000 3.360
50.94000 5.117
50.96000 9.026
50.98000 6.809
51.00000 5.528
51.02000 6.717
51.04000 0.221
51.06000 -1.650
51.08000 -2.712
51.10000 1.908
51.12000 4.882
51.14000 6.171
51.16000 1.324
51.18000 0.429
51.20000 3.687
51.22000 3.450
51.24000 6.751
51.26000 4.646
51.28000 3.631
51.30000 2.067
51.32000 -0.687
51.34000 -0.209
51.36000 3.047
51.38000 0.702
51.40000 2.125
51.42000 -0.218
51.44000 -1.793
51.46000 5.558
51.48000 6.267
51.50000 7.563
51.52000 3.448
51.54000 -0.075
51.56000 1.066
51.58000 2.564
51.60000 -1.836
51.62000 -2.098
51.64000 -0.196
51.66000 -0.068
51.68000 2.760
51.70000 0.432
51.72000 2.061
51.74000 -1.199
51.76000 -0.036
51.78000 -0.678
51.80000 3.132
51.82000 2.280
51.84000 -1.431
51.86000 -0.766
51.88000 -0.471
51.90000 1.919
51.92000 2.245
51.94000 -1.157
51.96000 5.955
51.98000 2.776
52.00000 0.403
52.02000 2.905
52.04000 1.614
52.06000 1.921
52.08000 2.710
52.10000 6.041
52.12000 3.291
52.14000 2.168
52.16000 -0.332
52.18000 -2.766
52.20000 7.663
52.22000 6.228
52.24000 5.894
52.26000 6.635
52.28000 6.970
52.30000 0.473
52.32000 0.715
52.34000 3.184
52.36000 2.365
52.38000 4.879
52.40000 0.504
52.42000 2.689
52.44000 -1.940
52.46000 1.936
52.48000 2.852
52.50000 -0.740
52.52000 0.244
52.54000 3.666
52.56000 3.664
52.58000 3.568
52.60000 4.123
52.62000 5.192
52.64000 5.316
52.66000 5.281
52.68000 5.421
52.70000 2.625
52.72000 6.547
52.74000 5.324
52.76000 3.297
52.78000 1.612
52.80000 0.909
52.82000 2.755
52.84000 5.235
52.86000 6.611
52.88000 2.836
52.90000 2.264
52.92000 2.899
52.94000 7.858
52.96000 9.045
52.98000 6.785
53.00000 5.886
53.02000 4.816
53.04000 3.308
53.06000 2.343
53.08000 0.726
53.10000 -2.705
53.12000 -1.260
53.14000 3.010
53.16000 1.211
53.18000 2.484
53.20000 2.802
53.22000 3.846
53.24000 -2.660
53.26000 1.483
53.28000 1.581
53.30000 4.193
53.32000 5.282
53.34000 6.043
53.36000 4.668
53.38000 8.406
53.40000 7.238
53.42000 3.653
53.44000 0.570
53.46000 0.600
53.48000 2.520
53.50000 2.123
53.52000 0.646
53.54000 2.210
53.56000 1.951
53.58000 -0.105
53.60000 2.778
53.62000 0.252
53.64000 4.000
53.66000 3.586
53.68000 1.671
53.70000 2.236
53.72000 4.723
53.74000 3.176
53.76000 4.824
53.78000 5.732
53.80000 5.680
53.82000 3.061
53.84000 3.193
53.86000 4.983
53.88000 6.501
53.90000 7.119
53.92000 5.884
53.94000 8.251
53.96000 7.703
53.98000 4.180
54.00000 2.830
54.02000 4.598
54.04000 2.177
54.06000 -2.694
54.08000 0.215
54.10000 -1.516
54.12000 1.610
54.14000 2.466
54.16000 5.400
54.18000 6.501
54.20000 4.084
54.22000 5.247
54.24000 5.843
54.26000 7.052
54.28000 4.410
54.30000 5.005
54.32000 1.302
54.34000 0.979
54.36000 4.170
54.38000 2.065
54.40000 0.859
54.42000 5.960
54.44000 5.556
54.46000 -0.609
54.48000 -1.113
54.50000 3.476
54.52000 3.935
54.54000 4.138
54.56000 1.589
54.58000 1.859
54.60000 3.881
54.62000 3.704
54.64000 4.059
54.66000 3.032
54.68000 2.641
54.70000 4.751
54.72000 7.409
54.74000 6.765
54.76000 5.497
54.78000 5.290
54.80000 7.975
54.82000 5.388
54.84000 10.918
54.86000 9.841
54.88000 4.568
54.90000 -1.329
54.92000 -2.632
54.94000 0.719
54.96000 3.007
54.98000 3.734
55.00000 6.286
55.02000 4.878
55.04000 6.461
55.06000 7.717
55.08000 8.483
55.10000 7.454
55.12000 8.407
55.14000 3.728
55.16000 3.406
55.18000 5.004
55.20000 7.187
55.22000 6.659
55.24000 3.119
55.26000 3.327
55.28000 4.785
55.30000 4.648
55.32000 -0.257
55.34000 -2.624
55.36000 2.565
55.38000 2.756
55.40000 0.198
55.42000 0.863
55.44000 4.963
55.46000 6.557
55.48000 2.707
55.50000 2.563
55.52000 2.785
55.54000 4.368
55.56000 6.678
55.58000 1.303
55.60000 1.186
55.62000 -2.290
55.64000 2.235
55.66000 3.411
55.68000 2.419
55.70000 3.660
55.72000 3.594
55.74000 3.863
55.76000 4.170
55.78000 2.840
55.80000 3.672
55.82000 3.804
55.84000 2.745
55.86000 4.896
55.88000 4.298
55.90000 6.093
55.92000 4.231
55.94000 0.744
55.96000 -1.850
55.98000 2.058
56.00000 0.308
56.02000 3.111
56.04000 8.300
56.06000 2.949
56.08000 2.390
56.10000 1.407
56.12000 5.602
56.14000 2.676
56.16000 1.555
56.18000 3.714
56.20000 5.736
56.22000 4.501
56.24000 4.450
56.26000 4.409
56.28000 3.987
56.30000 3.681
56.32000 2.988
56.34000 2.960
56.36000 3.689
56.38000 0.446
56.40000 -2.450
56.42000 -2.621
56.44000 1.359
56.46000 7.654
56.48000 5.451
56.50000 0.036
56.52000 3.137
56.54000 0.762
56.56000 0.137
56.58000 -0.225
56.60000 -0.012
56.62000 0.869
56.64000 2.998
56.66000 7.873
56.68000 5.623
56.70000 1.897
56.72000 1.383
56.74000 0.388
56.76000 -1.091
56.78000 3.671
56.80000 7.992
56.82000 5.346
56.84000 2.622
56.86000 -1.220
56.88000 2.407
56.90000 1.319
56.92000 5.036
56.94000 5.597
56.96000 6.492
56.98000 2.218
57.00000 2.456
57.02000 4.533
57.04000 4.553
57.06000 4.316
57.08000 4.515
57.10000 5.012
57.12000 -0.645
57.14000 2.956
57.16000 4.098
57.18000 1.392
57.20000 3.389
57.22000 8.509
57.24000 4.735
57.26000 -0.943
57.28000 -1.743
57.30000 3.624
57.32000 4.474
57.34000 7.782
57.36000 7.493
57.38000 5.636
57.40000 4.268
57.42000 -1.068
57.44000 0.251
57.46000 2.145
57.48000 4.521
57.50000 2.767
57.52000 4.353
57.54000 5.131
57.56000 7.410
57.58000 9.144
57.60000 5.499
57.62000 4.324
57.64000 2.879
57.66000 5.357
57.68000 7.597
57.70000 4.889
57.72000 2.890
57.74000 10.315
57.76000 6.480
57.78000 4.296
57.80000 0.608
57.82000 0.995
57.84000 3.921
57.86000 6.149
57.88000 7.379
57.90000 7.057
57.92000 6.253
57.94000 5.064
57.96000 9.358
57.98000 7.124
58.00000 1.948
58.02000 4.022
58.04000 5.599
58.06000 7.924
58.08000 3.853
58.10000 2.040
58.12000 -2.490
58.14000 1.397
58.16000 11.442
58.18000 8.605
58.20000 9.295
58.22000 3.683
58.24000 2.388
58.26000 5.802
58.28000 6.144
58.30000 3.464
58.32000 3.650
58.34000 4.704
58.36000 7.045
58.38000 7.059
58.40000 2.069
58.42000 2.147
58.44000 7.533
58.46000 5.234
58.48000 2.849
58.50000 0.840
58.52000 3.666
58.54000 4.810
58.56000 5.048
58.58000 1.642
58.60000 3.129
58.62000 1.688
58.64000 4.208
58.66000 4.200
58.68000 3.711
58.70000 4.467
58.72000 2.403
58.74000 4.511
58.76000 7.579
58.78000 5.206
58.80000 3.939
58.82000 3.251
58.84000 8.351
58.86000 5.353
58.88000 3.786
58.90000 4.936
58.92000 4.489
58.94000 8.245
58.96000 5.529
58.98000 4.066
59.00000 2.373
59.02000 -2.515
59.04000 1.006
59.06000 7.028
59.08000 6.614
59.10000 3.151
59.12000 2.546
59.14000 7.122
59.16000 6.227
59.18000 4.941
59.20000 6.144
59.22000 6.494
59.24000 4.109
59.26000 -0.071
59.28000 1.896
59.30000 0.756
59.32000 3.511
59.34000 4.810
59.36000 5.276
59.38000 -0.286
59.40000 0.380
59.42000 0.959
59.44000 -2.507
59.46000 -0.028
59.48000 -0.557
59.50000 3.628
59.52000 6.046
59.54000 3.210
59.56000 2.814
59.58000 0.687
59.60000 1.403
59.62000 0.121
59.64000 -1.258
59.66000 0.839
59.68000 -1.622
59.70000 1.021
59.72000 0.061
59.74000 5.118
59.76000 7.479
59.78000 5.297
59.80000 4.221
59.82000 3.070
59.84000 0.064
59.86000 0.414
59.88000 -0.356
59.90000 -1.345
59.92000 -0.928
59.94000 2.198
59.96000 3.482
59.98000 1.423
60.00000 6.670
60.02000 6.599
60.04000 5.136
60.06000 3.544
60.08000 1.856
60.10000 4.604
60.12000 4.352
60.14000 4.789
60.16000 3.988
60.18000 2.353
60.20000 -0.652
60.22000 -1.441
60.24000 0.627
60.26000 3.825
60.28000 2.062
60.30000 4.314
60.32000 1.359
60.34000 -2.489
60.36000 -1.068
60.38000 1.841
60.40000 -1.631
60.42000 3.081
60.44000 2.371
60.46000 3.171
60.48000 5.860
60.50000 1.837
60.52000 0.132
60.54000 4.621
60.56000 5.990
60.58000 5.819
60.60000 -2.142
60.62000 -0.891
60.64000 2.871
60.66000 1.097
60.68000 2.803
60.70000 3.726
60.72000 3.959
60.74000 0.726
60.76000 0.800
60.78000 2.130
60.80000 -2.465
60.82000 1.397
60.84000 0.249
60.86000 3.316
60.88000 5.126
60.90000 4.758
60.92000 6.913
60.94000 6.544
60.96000 6.016
60.98000 3.280
61.00000 2.871
61.02000 -0.490
61.04000 -0.560
61.06000 -0.504
61.08000 -1.353
61.10000 0.266
61.12000 -2.472
61.14000 0.308
61.16000 4.912
61.18000 7.397
61.20000 1.569
61.22000 -0.181
61.24000 2.506
61.26000 5.964
61.28000 2.200
61.30000 0.192
61.32000 5.739
61.34000 4.211
61.36000 1.970
61.38000 1.683
61.40000 5.607
61.42000 2.070
61.44000 1.129
61.46000 0.438
61.48000 1.901
61.50000 0.448
61.52000 -2.460
61.54000 -2.122
61.56000 4.146
61.58000 5.367
61.60000 2.093
61.62000 3.530
61.64000 5.082
61.66000 7.453
61.68000 5.570
61.70000 2.472
61.72000 -1.346
61.74000 1.533
61.76000 1.244
61.78000 1.958
61.80000 4.436
61.82000 4.804
61.84000 2.432
61.86000 0.925
61.88000 2.207
61.90000 5.205
61.92000 1.695
61.94000 1.760
61.96000 5.726
61.98000 5.256
62.00000 2.261
62.02000 4.428
62.04000 5.541
62.06000 1.519
62.08000 2.586
62.10000 1.932
62.12000 1.877
62.14000 -1.327
62.16000 0.544
62.18000 1.166
62.20000 6.891
62.22000 6.451
62.24000 6.005
62.26000 2.081
62.28000 2.508
62.30000 1.753
62.32000 3.546
62.34000 2.438
62.36000 4.824
62.38000 1.880
62.40000 -2.430
62.42000 -0.946
62.44000 3.588
62.46000 6.197
62.48000 5.742
62.50000 3.605
62.52000 4.127
62.54000 4.145
62.56000 2.614
62.58000 1.370
62.60000 5.821
62.62000 6.018
62.64000 1.659
62.66000 0.694
62.68000 1.554
62.70000 1.086
62.72000 3.187
62.74000 2.768
62.76000 4.043
62.78000 2.001
62.80000 2.281
62.82000 2.652
62.84000 -0.422
62.86000 -2.433
62.88000 -0.314
62.90000 -0.035
62.92000 1.318
62.94000 -0.917
62.96000 -2.432
62.98000 -1.446
63.00000 -1.056
63.02000 1.962
63.04000 3.145
63.06000 3.092
63.08000 0.867
63.10000 2.780
63.12000 0.603
63.14000 2.941
63.16000 0.789
63.18000 1.805
63.20000 -1.986
63.22000 -0.436
63.24000 1.465
63.26000 2.967
63.28000 3.244
63.30000 1.289
63.32000 1.564
63.34000 2.327
63.36000 2.484
63.38000 0.976
63.40000 -1.623
63.42000 1.859
63.44000 0.434
63.46000 -0.744
63.48000 -2.008
63.50000 2.005
63.52000 -0.898
63.54000 -0.438
63.56000 2.863
63.58000 0.756
63.60000 -2.423
63.62000 -1.941
63.64000 0.848
63.66000 -1.924
63.68000 -0.015
63.70000 1.353
63.72000 0.933
63.74000 -0.165
63.76000 -0.140
63.78000 1.339
63.80000 3.276
63.82000 1.536
63.84000 0.762
63.86000 0.568
63.88000 2.577
63.90000 1.799
63.92000 -1.230
63.94000 0.727
63.96000 1.427
63.98000 1.898
64.00000 -0.351
64.02000 -1.805
64.04000 -1.526
64.06000 -0.221
64.08000 6.043
64.10000 3.866
64.12000 2.988
64.14000 -1.451
64.16000 1.882
64.18000 -0.117
64.20000 2.043
64.22000 -0.376
64.24000 -0.390
64.26000 -0.186
64.28000 -0.101
64.30000 1.737
64.32000 4.264
64.34000 -1.277
64.36000 2.458
64.38000 3.797
64.40000 2.405
64.42000 1.381
64.44000 2.764
64.46000 2.260
64.48000 0.998
64.50000 1.706
64.52000 -0.910
64.54000 2.905
64.56000 0.521
64.58000 -0.587
64.60000 -1.994
64.62000 0.331
64.64000 3.225
64.66000 3.111
64.68000 -1.875
64.70000 3.736
64.72000 1.374
64.74000 -2.096
64.76000 -1.805
64.78000 -2.209
64.80000 1.115
64.82000 1.689
64.84000 2.357
64.86000 0.859
64.88000 -0.935
64.90000 -0.900
64.92000 0.566
64.94000 -0.052
64.96000 1.622
64.98000 1.994
65.00000 3.048
65.02000 -2.442
65.04000 2.192
65.06000 4.152
65.08000 0.926
65.10000 0.743
65.12000 1.167
65.14000 -0.854
65.16000 1.347
65.18000 -0.120
65.20000 2.086
65.22000 3.757
65.24000 0.889
65.26000 0.730
65.28000 5.062
65.30000 2.229
65.32000 -0.602
65.34000 -1.103
65.36000 -0.129
65.38000 -0.733
65.40000 -0.034
65.42000 0.935
65.44000 1.480
65.46000 4.123
65.48000 4.141
65.50000 2.571
65.52000 -1.237
65.54000 1.720
65.56000 3.990
65.58000 -1.006
65.60000 0.816
65.62000 1.829
65.64000 1.003
65.66000 2.644
65.68000 -0.088
65.70000 1.083
65.72000 0.415
65.74000 1.759
65.76000 1.301
65.78000 -0.626
65.80000 1.257
65.82000 3.644
65.84000 1.535
65.86000 1.818
65.88000 -1.147
65.90000 -0.299
65.92000 -0.851
65.94000 -0.523
65.96000 -0.052
65.98000 0.124
66.00000 2.767
66.02000 3.471
66.04000 2.394
66.06000 2.853
66.08000 4.458
66.10000 2.663
66.12000 3.336
66.14000 2.933
66.16000 1.356
66.18000 0.977
66.20000 -0.533
66.22000 -0.447
66.24000 -2.434
66.26000 1.771
66.28000 3.009
66.30000 4.801
66.32000 5.649
66.34000 0.042
66.36000 -1.396
66.38000 2.865
66.40000 1.304
66.42000 0.391
66.44000 3.147
66.46000 2.602
66.48000 1.533
66.50000 0.910
66.52000 2.146
66.54000 3.455
66.56000 2.090
66.58000 1.267
66.60000 1.405
66.62000 0.506
66.64000 0.603
66.66000 0.036
66.68000 -0.286
66.70000 -0.455
66.72000 1.539
66.74000 3.959
66.76000 -0.084
66.78000 -0.313
66.80000 0.452
66.82000 -0.078
66.84000 -1.647
66.86000 0.606
66.88000 2.837
66.90000 5.269
66.92000 6.031
66.94000 2.383
66.96000 2.167
66.98000 1.997
67.00000 1.798
67.02000 0.189
67.04000 0.881
67.06000 0.857
67.08000 2.369
67.10000 0.421
67.12000 1.445
67.14000 5.040
67.16000 0.478
67.18000 1.896
67.20000 1.113
67.22000 -0.562
67.24000 1.880
67.26000 4.527
67.28000 6.734
67.30000 2.656
67.32000 -1.121
67.34000 -1.727
67.36000 -0.263
67.38000 5.683
67.40000 4.779
67.42000 0.112
67.44000 -2.077
67.46000 -2.478
67.48000 2.230
67.50000 3.256
67.52000 2.379
67.54000 3.324
67.56000 1.972
67.58000 1.824
67.60000 3.749
67.62000 0.432
67.64000 2.550
67.66000 4.173
67.68000 5.441
67.70000 4.841
67.72000 2.473
67.74000 6.034
67.76000 3.642
67.78000 6.686
67.80000 7.107
67.82000 5.638
67.84000 5.747
67.86000 3.082
67.88000 3.397
67.90000 3.161
67.92000 1.496
67.94000 4.613
67.96000 2.903
67.98000 5.494
68.00000 6.637
68.02000 2.457
68.04000 1.906
68.06000 3.885
68.08000 5.775
68.10000 6.714
68.12000 8.788
68.14000 4.846
68.16000 9.128
68.18000 10.364
68.20000 9.883
68.22000 7.609
68.24000 7.250
68.26000 7.067
68.28000 6.876
68.30000 7.362
68.32000 10.597
68.34000 13.528
68.36000 11.924
68.38000 16.109
68.40000 11.698
68.42000 8.877
68.44000 9.271
68.46000 11.651
68.48000 13.294
68.50000 15.121
68.52000 9.330
68.54000 9.128
68.56000 11.510
68.58000 17.352
68.60000 16.390
68.62000 16.654
68.64000 16.727
68.66000 16.381
68.68000 17.799
68.70000 15.587
68.72000 17.445
68.74000 19.461
68.76000 20.481
68.78000 20.390
68.80000 24.552
68.82000 21.258
68.84000 19.100
68.86000 16.094
68.88000 19.300
68.90000 18.613
68.92000 23.748
68.94000 26.320
68.96000 25.726
68.98000 24.632
69.00000 22.868
69.02000 23.106
69.04000 23.985
69.06000 22.588
69.08000 19.755
69.10000 17.047
69.12000 16.806
69.14000 13.485
69.16000 17.275
69.18000 17.364
69.20000 18.988
69.22000 16.502
69.24000 14.427
69.26000 13.943
69.28000 15.949
69.30000 16.089
69.32000 13.332
69.34000 13.809
69.36000 11.706
69.38000 12.175
69.40000 11.516
69.42000 11.993
69.44000 11.743
69.46000 10.190
69.48000 12.681
69.50000 11.822
69.52000 9.689
69.54000 8.845
69.56000 4.803
69.58000 4.363
69.60000 6.213
69.62000 8.767
69.64000 10.308
69.66000 6.592
69.68000 4.506
69.70000 4.371
69.72000 3.975
69.74000 5.157
69.76000 8.257
69.78000 10.444
69.80000 11.342
69.82000 7.173
69.84000 3.473
69.86000 4.770
69.88000 5.418
69.90000 2.264
69.92000 0.292
69.94000 4.261
69.96000 2.231
69.98000 -1.080
70.00000 2.628
70.02000 -0.437
70.04000 2.270
70.06000 -0.459
70.08000 1.294
70.10000 2.202
70.12000 0.014
70.14000 3.024
70.16000 4.241
70.18000 1.878
70.20000 4.266
70.22000 -0.358
70.24000 1.355
70.26000 3.468
70.28000 -0.644
70.30000 0.451
70.32000 4.577
70.34000 1.910
70.36000 6.700
70.38000 8.272
70.40000 1.888
70.42000 0.352
70.44000 -2.401
70.46000 2.919
70.48000 1.575
70.50000 -0.430
70.52000 5.397
70.54000 5.445
70.56000 1.662
70.58000 0.038
70.60000 0.188
70.62000 2.872
70.64000 2.054
70.66000 4.010
70.68000 3.976
70.70000 4.088
70.72000 2.819
70.74000 7.686
70.76000 4.824
70.78000 0.703
70.80000 2.716
70.82000 0.518
70.84000 4.727
70.86000 3.537
70.88000 1.149
70.90000 -1.633
70.92000 -0.779
70.94000 -1.202
70.96000 -2.358
70.98000 -0.951
71.00000 4.120
71.02000 6.961
71.04000 5.401
71.06000 0.039
71.08000 1.060
71.10000 3.551
71.12000 5.243
71.14000 4.894
71.16000 5.524
71.18000 0.630
71.20000 2.926
71.22000 2.020
71.24000 -2.333
71.26000 3.511
71.28000 4.639
71.30000 4.384
71.32000 3.199
71.34000 0.272
71.36000 3.571
71.38000 3.060
71.40000 3.430
71.42000 4.546
71.44000 4.387
71.46000 1.369
71.48000 0.778
71.50000 1.824
71.52000 1.198
71.54000 3.725
71.56000 7.106
71.58000 3.627
71.60000 3.599
71.62000 2.749
71.64000 3.151
71.66000 2.036
71.68000 0.449
71.70000 -2.292
71.72000 5.732
71.74000 3.899
71.76000 2.638
71.78000 6.169
71.80000 6.846
71.82000 2.974
71.84000 -0.030
71.86000 4.222
71.88000 3.846
71.90000 2.068
71.92000 1.224
71.94000 4.270
71.96000 1.897
71.98000 2.017
72.00000 3.511
72.02000 2.077
72.04000 4.579
72.06000 4.442
72.08000 1.192
72.10000 6.354
72.12000 4.542
72.14000 0.550
72.16000 0.799
72.18000 1.348
72.20000 3.699
72.22000 6.378
72.24000 5.168
72.26000 0.738
72.28000 0.106
72.30000 2.119
72.32000 -0.083
72.34000 5.401
72.36000 3.845
72.38000 0.381
72.40000 -1.399
72.42000 -0.178
72.44000 0.832
72.46000 1.405
72.48000 3.616
72.50000 5.569
72.52000 4.006
72.54000 1.846
72.56000 1.186
72.58000 -1.021
72.60000 1.179
72.62000 1.964
72.64000 -0.483
72.66000 0.390
72.68000 3.203
72.70000 3.165
72.72000 1.224
72.74000 4.213
72.76000 8.191
72.78000 8.055
72.80000 2.151
72.82000 3.096
72.84000 2.005
72.86000 6.145
72.88000 3.297
72.90000 0.073
72.92000 -0.374
72.94000 -0.089
72.96000 2.474
72.98000 3.319
73.00000 0.698
73.02000 3.196
73.04000 5.845
73.06000 2.848
73.08000 2.154
73.10000 -2.255
73.12000 -0.999
73.14000 -0.921
73.16000 2.619
73.18000 1.185
73.20000 2.176
73.22000 1.557
73.24000 5.171
73.26000 0.516
73.28000 0.134
73.30000 2.840
73.32000 1.675
73.34000 0.512
73.36000 4.307
73.38000 4.821
73.40000 7.654
73.42000 3.753
73.44000 2.237
73.46000 -0.020
73.48000 1.384
73.50000 5.559
73.52000 6.418
73.54000 5.084
73.56000 3.888
73.58000 -1.954
73.60000 -2.219
73.62000 0.841
73.64000 6.410
73.66000 7.023
73.68000 3.595
73.70000 4.950
73.72000 4.384
73.74000 2.500
73.76000 0.464
73.78000 2.761
73.80000 1.420
73.82000 5.345
73.84000 5.906
73.86000 8.611
73.88000 7.577
73.90000 6.485
73.92000 7.245
73.94000 2.524
73.96000 -0.321
73.98000 5.202
74.00000 1.531
74.02000 -0.153
74.04000 4.444
74.06000 1.971
74.08000 0.244
74.10000 -1.022
74.12000 3.157
74.14000 5.161
74.16000 3.895
74.18000 4.339
74.20000 8.326
74.22000 4.172
74.24000 3.045
74.26000 -0.456
74.28000 -0.229
74.30000 2.073
74.32000 0.925
74.34000 3.661
74.36000 5.180
74.38000 7.469
74.40000 4.542
74.42000 0.794
74.44000 3.093
74.46000 3.868
74.48000 5.670
74.50000 10.064
74.52000 1.926
74.54000 5.979
74.56000 9.975
74.58000 7.304
74.60000 6.124
74.62000 4.860
74.64000 6.130
74.66000 3.209
74.68000 6.136
74.70000 3.977
74.72000 -2.201
74.74000 -1.859
74.76000 6.843
74.78000 7.896
74.80000 4.638
74.82000 2.901
74.84000 4.046
74.86000 2.743
74.88000 3.973
74.90000 6.000
74.92000 4.091
74.94000 2.708
74.96000 4.856
74.98000 5.825
75.00000 2.945
75.02000 3.538
75.04000 5.382
75.06000 5.630
75.08000 1.885
75.10000 1.854
75.12000 4.416
75.14000 2.613
75.16000 4.629
75.18000 4.761
75.20000 4.609
75.22000 8.679
75.24000 11.490
75.26000 3.748
75.28000 1.177
75.30000 2.031
75.32000 -1.536
75.34000 -1.926
75.36000 -0.767
75.38000 -1.699
75.40000 4.956
75.42000 5.180
75.44000 1.740
75.46000 0.485
75.48000 2.325
75.50000 0.323
75.52000 -2.007
75.54000 4.369
75.56000 1.525
75.58000 1.705
75.60000 1.240
75.62000 9.002
75.64000 4.364
75.66000 -0.626
75.68000 0.274
75.70000 -0.223
75.72000 -0.287
75.74000 7.077
75.76000 8.470
75.78000 5.210
75.80000 0.546
75.82000 -1.699
75.84000 1.963
75.86000 7.459
75.88000 5.875
75.90000 6.753
75.92000 3.651
75.94000 0.049
75.96000 -1.316
75.98000 4.471
76.00000 5.718
76.02000 3.577
76.04000 2.823
76.06000 3.366
76.08000 1.737
76.10000 0.182
76.12000 0.533
76.14000 7.639
76.16000 4.663
76.18000 4.794
76.20000 1.352
76.22000 -0.163
76.24000 1.831
76.26000 3.153
76.28000 6.215
76.30000 10.883
76.32000 6.479
76.34000 -2.275
76.36000 0.923
76.38000 3.994
76.40000 1.943
76.42000 1.679
76.44000 0.675
76.46000 5.310
76.48000 4.731
76.50000 3.661
76.52000 0.211
76.54000 2.084
76.56000 -2.279
76.58000 -1.595
76.60000 4.679
76.62000 3.808
76.64000 3.170
76.66000 2.424
76.68000 1.786
76.70000 0.187
76.72000 -1.035
76.74000 -0.446
76.76000 0.720
76.78000 -0.867
76.80000 -1.766
76.82000 3.734
76.84000 8.137
76.86000 6.652
76.88000 -0.929
76.90000 -0.802
76.92000 -1.035
76.94000 1.387
76.96000 2.871
76.98000 -1.568
77.00000 1.454
77.02000 0.530
77.04000 -0.304
77.06000 0.434
77.08000 1.760
77.10000 5.007
77.12000 5.575
77.14000 1.157
77.16000 -1.189
77.18000 1.690
77.20000 2.005
77.22000 -1.814
77.24000 1.141
77.26000 3.744
77.28000 0.447
77.30000 3.068
77.32000 1.550
77.34000 0.262
77.36000 5.059
77.38000 9.165
77.40000 6.828
77.42000 3.302
77.44000 -2.265
77.46000 1.037
77.48000 3.001
77.50000 1.034
77.52000 4.187
77.54000 4.856
77.56000 7.801
77.58000 7.626
77.60000 3.657
77.62000 5.300
77.64000 4.427
77.66000 3.432
77.68000 3.708
77.70000 3.147
77.72000 3.812
77.74000 4.760
77.76000 3.028
77.78000 3.276
77.80000 6.737
77.82000 3.219
77.84000 -2.278
77.86000 -2.020
77.88000 1.372
77.90000 7.017
77.92000 1.382
77.94000 2.321
77.96000 -0.288
77.98000 -0.129
78.00000 -1.306
78.02000 1.464
78.04000 3.548
78.06000 3.631
78.08000 2.340
78.10000 0.284
78.12000 3.402
78.14000 -0.119
78.16000 5.012
78.18000 3.471
78.20000 1.422
78.22000 -2.283
78.24000 -0.070
78.26000 1.939
78.28000 4.161
78.30000 2.940
78.32000 3.766
78.34000 2.385
78.36000 2.936
78.38000 0.819
78.40000 -0.369
78.42000 3.590
78.44000 -0.330
78.46000 -0.666
78.48000 1.212
78.50000 4.676
78.52000 0.840
78.54000 0.963
78.56000 3.219
78.58000 1.417
78.60000 0.519
78.62000 3.798
78.64000 5.807
78.66000 9.543
78.68000 5.488
78.70000 -2.295
78.72000 -0.235
78.74000 0.254
78.76000 4.233
78.78000 4.647
78.80000 3.972
78.82000 0.805
78.84000 -1.476
78.86000 3.247
78.88000 4.340
78.90000 3.105
78.92000 2.958
78.94000 4.645
78.96000 7.250
78.98000 4.324
79.00000 2.892
79.02000 3.527
79.04000 3.811
79.06000 4.320
79.08000 5.843
79.10000 3.990
79.12000 4.480
79.14000 3.171
79.16000 3.658
79.18000 8.464
79.20000 5.137
79.22000 2.595
79.24000 -1.368
79.26000 3.294
79.28000 8.287
79.30000 3.664
79.32000 -2.287
79.34000 1.523
79.36000 0.589
79.38000 0.661
79.40000 1.775
79.42000 1.617
79.44000 7.750
79.46000 8.112
79.48000 0.667
79.50000 -0.268
79.52000 0.606
79.54000 5.606
79.56000 3.657
79.58000 4.126
79.60000 3.380
79.62000 7.149
79.64000 3.185
79.66000 7.709
79.68000 5.696
79.70000 5.246
79.72000 5.537
79.74000 4.446
79.76000 5.632
79.78000 6.210
79.80000 3.574
79.82000 -0.117
79.84000 3.363
79.86000 -0.969
79.88000 0.137
79.90000 7.676
79.92000 5.925
79.94000 6.558
79.96000 1.658
79.98000 -2.275
80.00000 1.931
80.02000 4.368
80.04000 4.000
80.06000 2.553
80.08000 -1.530
80.10000 -1.112
80.12000 1.745
80.14000 3.603
80.16000 1.425
80.18000 2.275
80.20000 7.879
80.22000 7.133
80.24000 7.008
80.26000 3.233
80.28000 4.155
80.30000 3.671
80.32000 0.673
80.34000 2.983
80.36000 3.933
80.38000 5.302
80.40000 3.565
80.42000 -1.321
80.44000 3.822
80.46000 3.281
80.48000 3.920
80.50000 6.543
80.52000 4.378
80.54000 7.667
80.56000 4.208
80.58000 4.228
80.60000 4.100
80.62000 3.758
80.64000 2.944
80.66000 6.701
80.68000 3.769
80.70000 3.866
80.72000 4.811
80.74000 3.902
80.76000 4.665
80.78000 5.397
80.80000 5.763
80.82000 10.062
80.84000 4.520
80.86000 4.763
80.88000 3.697
80.90000 1.450
80.92000 0.306
80.94000 2.872
80.96000 1.801
80.98000 -0.561
81.00000 0.707
81.02000 2.289
81.04000 1.959
81.06000 5.986
81.08000 1.540
81.10000 1.009
81.12000 4.668
81.14000 2.347
81.16000 2.157
81.18000 4.877
81.20000 3.254
81.22000 1.635
81.24000 4.215
81.26000 6.181
81.28000 3.876
81.30000 -1.940
81.32000 -2.359
81.34000 2.255
81.36000 8.196
81.38000 4.778
81.40000 7.291
81.42000 6.181
81.44000 4.355
81.46000 4.618
81.48000 2.902
81.50000 5.413
81.52000 7.008
81.54000 9.954
81.56000 9.222
81.58000 8.562
81.60000 4.486
81.62000 2.738
81.64000 2.238
81.66000 7.982
81.68000 5.476
81.70000 4.685
81.72000 8.001
81.74000 8.061
81.76000 8.326
81.78000 4.815
81.80000 4.994
81.82000 6.771
81.84000 4.911
81.86000 4.159
81.88000 5.824
81.90000 4.894
81.92000 4.137
81.94000 1.730
81.96000 6.524
81.98000 6.752
82.00000 9.721
82.02000 6.919
82.04000 5.534
82.06000 8.153
82.08000 7.238
82.10000 8.164
82.12000 9.883
82.14000 9.333
82.16000 5.462
82.18000 5.611
82.20000 11.772
82.22000 15.325
82.24000 14.305
82.26000 16.616
82.28000 13.590
82.30000 14.851
82.32000 14.641
82.34000 13.737
82.36000 14.066
82.38000 12.624
82.40000 14.575
82.42000 15.634
82.44000 18.426
82.46000 16.931
82.48000 12.953
82.50000 17.424
82.52000 20.294
82.54000 20.664
82.56000 17.717
82.58000 18.074
82.60000 18.692
82.62000 21.107
82.64000 22.863
82.66000 24.772
82.68000 25.538
82.70000 27.151
82.72000 24.886
82.74000 25.681
82.76000 24.612
82.78000 25.079
82.80000 20.176
82.82000 25.180
82.84000 30.530
82.86000 30.926
82.88000 30.520
82.90000 28.483
82.92000 28.374
82.94000 26.443
82.96000 29.972
82.98000 30.486
83.00000 32.361
83.02000 33.721
83.04000 34.801
83.06000 29.270
83.08000 32.269
83.10000 37.125
83.12000 36.819
83.14000 34.862
83.16000 33.830
83.18000 33.333
83.20000 27.802
83.22000 26.099
83.24000 31.108
83.26000 35.754
83.28000 33.928
83.30000 35.973
83.32000 38.204
83.34000 44.126
83.36000 41.853
83.38000 33.277
83.40000 29.891
83.42000 30.954
83.44000 38.084
83.46000 28.706
83.48000 28.790
83.50000 27.505
83.52000 24.268
83.54000 34.125
83.56000 33.112
83.58000 29.745
83.60000 27.551
83.62000 26.742
83.64000 25.516
83.66000 23.603
83.68000 25.934
83.70000 27.092
83.72000 25.484
83.74000 25.495
83.76000 22.037
83.78000 22.237
83.80000 24.680
83.82000 24.107
83.84000 24.500
83.86000 18.392
83.88000 16.766
83.90000 18.736
83.92000 21.429
83.94000 19.140
83.96000 12.590
83.98000 10.437
84.00000 16.542
84.02000 9.377
84.04000 10.546
84.06000 14.680
84.08000 16.290
84.10000 13.974
84.12000 12.318
84.14000 14.422
84.16000 9.041
84.18000 15.215
84.20000 13.780
84.22000 11.349
84.24000 6.644
84.26000 6.390
84.28000 5.416
84.30000 7.241
84.32000 7.802
84.34000 10.214
84.36000 13.050
84.38000 7.302
84.40000 6.831
84.42000 9.046
84.44000 6.007
84.46000 2.765
84.48000 3.337
84.50000 5.837
84.52000 4.482
84.54000 3.770
84.56000 1.434
84.58000 0.508
84.60000 4.254
84.62000 2.422
84.64000 0.746
84.66000 0.089
84.68000 5.177
84.70000 6.891
84.72000 3.961
84.74000 2.911
84.76000 1.147
84.78000 3.822
84.80000 2.115
84.82000 0.789
84.84000 4.286
84.86000 7.286
84.88000 5.308
84.90000 9.140
84.92000 11.692
84.94000 9.215
84.96000 7.539
84.98000 2.228
85.00000 2.282
85.02000 4.526
85.04000 3.895
85.06000 -2.335
85.08000 4.622
85.10000 4.318
85.12000 7.969
85.14000 12.963
85.16000 9.847
85.18000 2.071
85.20000 4.488
85.22000 2.591
85.24000 0.670
85.26000 1.090
85.28000 2.897
85.30000 2.218
85.32000 1.906
85.34000 4.258
85.36000 1.036
85.38000 -0.302
85.40000 -0.582
85.42000 1.857
85.44000 6.082
85.46000 6.383
85.48000 3.546
85.50000 1.529
85.52000 1.959
85.54000 3.546
85.56000 4.358
85.58000 -0.515
85.60000 0.447
85.62000 2.189
85.64000 4.788
85.66000 0.813
85.68000 -0.550
85.70000 0.136
85.72000 2.295
85.74000 4.278
85.76000 4.748
85.78000 2.923
85.80000 0.008
85.82000 0.571
85.84000 2.569
85.86000 0.194
85.88000 -0.828
85.90000 -0.705
85.92000 -2.324
85.94000 -0.472
85.96000 2.847
85.98000 7.236
86.00000 9.842
86.02000 9.486
86.04000 8.692
86.06000 5.223
86.08000 3.462
86.10000 6.446
86.12000 4.559
86.14000 4.666
86.16000 5.219
86.18000 4.805
86.20000 -1.145
86.22000 -0.408
86.24000 3.558
86.26000 6.046
86.28000 4.726
86.30000 4.816
86.32000 5.060
86.34000 6.416
86.36000 5.815
86.38000 3.967
86.40000 2.911
86.42000 3.360
86.44000 4.879
86.46000 8.257
86.48000 6.090
86.50000 3.807
86.52000 7.948
86.54000 3.903
86.56000 3.420
86.58000 5.009
86.60000 6.785
86.62000 8.305
86.64000 5.868
86.66000 7.617
86.68000 7.981
86.70000 9.756
86.72000 9.573
86.74000 7.904
86.76000 10.041
86.78000 10.653
86.80000 11.617
86.82000 10.118
86.84000 8.515
86.86000 12.269
86.88000 6.852
86.90000 9.510
86.92000 9.278
86.94000 12.071
86.96000 17.972
86.98000 16.558
87.00000 10.832
87.02000 12.388
87.04000 15.385
87.06000 14.075
87.08000 13.971
87.10000 17.339
87.12000 23.280
87.14000 23.604
87.16000 22.630
87.18000 18.443
87.20000 17.557
87.22000 18.746
87.24000 20.264
87.26000 22.064
87.28000 24.648
87.30000 25.994
87.32000 25.906
87.34000 33.787
87.36000 32.141
87.38000 28.099
87.40000 26.751
87.42000 31.329
87.44000 35.458
87.46000 35.058
87.48000 31.447
87.50000 29.375
87.52000 26.803
87.54000 27.523
87.56000 28.819
87.58000 28.594
87.60000 30.936
87.62000 30.489
87.64000 35.943
87.66000 38.045
87.68000 33.902
87.70000 30.068
87.72000 31.178
87.74000 38.268
87.76000 36.863
87.78000 30.421
87.80000 30.036
87.82000 30.515
87.84000 29.664
87.86000 31.117
87.88000 27.172
87.90000 25.090
87.92000 26.860
87.94000 28.659
87.96000 28.473
87.98000 33.919
88.00000 33.941
88.02000 30.974
88.04000 27.018
88.06000 27.930
88.08000 29.053
88.10000 22.825
88.12000 21.978
88.14000 23.581
88.16000 22.204
88.18000 20.005
88.20000 23.410
88.22000 19.598
88.24000 21.177
88.26000 18.230
88.28000 16.610
88.30000 15.257
88.32000 17.773
88.34000 17.848
88.36000 21.746
88.38000 12.737
88.40000 12.063
88.42000 12.234
88.44000 12.489
88.46000 11.786
88.48000 15.115
88.50000 14.116
88.52000 12.110
88.54000 8.562
88.56000 10.478
88.58000 11.335
88.60000 11.304
88.62000 8.277
88.64000 9.884
88.66000 6.956
88.68000 7.515
88.70000 1.349
88.72000 2.580
88.74000 4.207
88.76000 6.673
88.78000 6.816
88.80000 6.226
88.82000 6.572
88.84000 0.995
88.86000 2.716
88.88000 2.440
88.90000 4.947
88.92000 6.497
88.94000 5.194
88.96000 6.349
88.98000 1.736
89.00000 -0.351
89.02000 1.380
89.04000 1.573
89.06000 2.286
89.08000 -2.231
89.10000 4.009
89.12000 2.543
89.14000 3.108
89.16000 3.448
89.18000 6.744
89.20000 4.985
89.22000 2.329
89.24000 -1.528
89.26000 3.504
89.28000 5.988
89.30000 8.319
89.32000 3.843
89.34000 3.787
89.36000 6.486
89.38000 6.035
89.40000 4.406
89.42000 1.931
89.44000 5.643
89.46000 3.587
89.48000 0.523
89.50000 2.377
89.52000 0.485
89.54000 -2.198
89.56000 2.568
89.58000 1.171
89.60000 3.992
89.62000 2.276
89.64000 2.795
89.66000 4.703
89.68000 1.763
89.70000 -1.400
89.72000 4.629
89.74000 2.676
89.76000 3.465
89.78000 4.671
89.80000 2.585
89.82000 1.830
89.84000 1.530
89.86000 -1.470
89.88000 -1.139
89.90000 2.090
89.92000 1.433
89.94000 0.947
89.96000 6.708
89.98000 9.625
90.00000 7.797
90.02000 6.244
90.04000 3.753
90.06000 0.306
90.08000 -1.026
90.10000 0.732
90.12000 2.620
90.14000 1.588
90.16000 -1.752
90.18000 -1.693
90.20000 -0.464
90.22000 6.644
90.24000 3.706
90.26000 1.755
90.28000 -0.497
90.30000 0.379
90.32000 4.378
90.34000 4.389
90.36000 5.382
90.38000 4.590
90.40000 7.194
90.42000 4.422
90.44000 4.112
90.46000 0.421
90.48000 -2.111
90.50000 1.074
90.52000 3.455
90.54000 5.253
90.56000 3.088
90.58000 7.353
90.60000 5.922
90.62000 8.047
90.64000 8.342
90.66000 5.765
90.68000 2.264
90.70000 8.106
90.72000 -1.457
90.74000 2.953
90.76000 9.251
90.78000 9.382
90.80000 5.540
90.82000 4.245
90.84000 1.400
90.86000 -1.138
90.88000 -0.754
90.90000 -0.611
90.92000 -0.482
90.94000 3.711
90.96000 1.313
90.98000 4.195
91.00000 2.572
91.02000 1.834
91.04000 1.643
91.06000 4.890
91.08000 3.495
91.10000 2.620
91.12000 0.793
91.14000 -1.055
91.16000 -0.148
91.18000 -0.044
91.20000 5.126
91.22000 8.752
91.24000 2.682
91.26000 0.758
91.28000 -1.148
91.30000 -0.555
91.32000 1.438
91.34000 2.804
91.36000 1.781
91.38000 -1.048
91.40000 1.117
91.42000 2.393
91.44000 3.431
91.46000 1.767
91.48000 3.301
91.50000 -0.356
91.52000 -1.216
91.54000 0.929
91.56000 -1.035
91.58000 3.252
91.60000 5.021
91.62000 6.148
91.64000 3.853
91.66000 2.097
91.68000 4.067
91.70000 6.600
91.72000 1.409
91.74000 2.071
91.76000 4.417
91.78000 0.302
91.80000 1.116
91.82000 6.807
91.84000 5.595
91.86000 3.514
91.88000 2.569
91.90000 3.070
91.92000 5.665
91.94000 -0.820
91.96000 -0.385
91.98000 4.081
92.00000 0.654
92.02000 1.866
92.04000 -0.967
92.06000 3.792
92.08000 8.009
92.10000 5.290
92.12000 2.379
92.14000 1.655
92.16000 -0.822
92.18000 0.686
92.20000 -0.177
92.22000 -1.318
92.24000 6.101
92.26000 2.488
92.28000 0.960
92.30000 1.364
92.32000 2.696
92.34000 3.522
92.36000 4.611
92.38000 3.765
92.40000 2.419
92.42000 5.351
92.44000 -0.202
92.46000 0.973
92.48000 2.994
92.50000 3.006
92.52000 5.539
92.54000 6.204
92.56000 -0.768
92.58000 4.737
92.60000 3.220
92.62000 -0.680
92.64000 1.791
92.66000 5.892
92.68000 3.359
92.70000 2.116
92.72000 1.049
92.74000 -2.111
92.76000 3.327
92.78000 2.453
92.80000 -0.389
92.82000 2.242
92.84000 8.231
92.86000 4.452
92.88000 3.666
92.90000 5.781
92.92000 1.913
92.94000 -1.432
92.96000 1.870
92.98000 3.627
93.00000 1.497
93.02000 0.292
93.04000 1.101
93.06000 2.217
93.08000 1.410
93.10000 2.150
93.12000 3.368
93.14000 4.251
93.16000 3.348
93.18000 2.311
93.20000 2.090
93.22000 6.755
93.24000 7.280
93.26000 7.083
93.28000 7.220
93.30000 4.254
93.32000 3.646
93.34000 1.779
93.36000 2.646
93.38000 3.409
93.40000 2.594
93.42000 5.612
93.44000 4.323
93.46000 2.484
93.48000 5.473
93.50000 5.117
93.52000 3.582
93.54000 6.189
93.56000 5.024
93.58000 5.793
93.60000 4.674
93.62000 6.225
93.64000 6.631
93.66000 2.600
93.68000 -0.073
93.70000 -2.132
93.72000 1.785
93.74000 4.285
93.76000 7.107
93.78000 2.530
93.80000 -1.895
93.82000 4.383
93.84000 5.285
93.86000 1.899
93.88000 -0.487
93.90000 0.993
93.92000 5.541
93.94000 2.096
93.96000 3.820
93.98000 6.826
94.00000 4.251
94.02000 3.172
94.04000 -1.346
94.06000 -1.208
94.08000 1.589
94.10000 5.508
94.12000 4.566
94.14000 -0.062
94.16000 1.735
94.18000 8.269
94.20000 7.091
94.22000 3.083
94.24000 2.540
94.26000 6.672
94.28000 5.769
94.30000 3.748
94.32000 2.161
94.34000 0.262
94.36000 -1.782
94.38000 1.217
94.40000 4.482
94.42000 3.405
94.44000 2.303
94.46000 -0.406
94.48000 -2.177
94.50000 -0.580
94.52000 3.806
94.54000 4.028
94.56000 5.724
94.58000 5.828
94.60000 2.688
94.62000 0.201
94.64000 1.720
94.66000 1.729
94.68000 2.007
94.70000 3.376
94.72000 5.426
94.74000 2.287
94.76000 4.146
94.78000 4.847
94.80000 6.766
94.82000 4.959
94.84000 7.991
94.86000 0.678
94.88000 -2.181
94.90000 1.680
94.92000 3.383
94.94000 3.903
94.96000 4.906
94.98000 9.459
95.00000 4.972
95.02000 4.420
95.04000 5.072
95.06000 7.198
95.08000 6.029
95.10000 5.223
95.12000 1.510
95.14000 3.994
95.16000 5.704
95.18000 8.107
95.20000 2.796
95.22000 4.093
95.24000 0.322
95.26000 -0.096
95.28000 4.528
95.30000 9.367
95.32000 8.584
95.34000 7.877
95.36000 7.268
95.38000 8.635
95.40000 4.985
95.42000 0.903
95.44000 1.402
95.46000 3.068
95.48000 2.674
95.50000 0.322
95.52000 3.220
95.54000 4.406
95.56000 6.612
95.58000 3.620
95.60000 -0.507
95.62000 2.519
95.64000 -2.087
95.66000 2.801
95.68000 5.444
95.70000 4.834
95.72000 2.736
95.74000 1.818
95.76000 4.518
95.78000 2.972
95.80000 2.052
95.82000 7.661
95.84000 1.270
95.86000 0.010
95.88000 -2.175
95.90000 -2.048
95.92000 0.030
95.94000 0.169
95.96000 4.195
95.98000 1.160
96.00000 2.395
96.02000 1.426
96.04000 2.091
96.06000 3.032
96.08000 4.573
96.10000 3.106
96.12000 7.762
96.14000 7.925
96.16000 3.090
96.18000 -0.103
96.20000 0.381
96.22000 0.259
96.24000 4.343
96.26000 4.189
96.28000 2.086
96.30000 3.714
96.32000 6.643
96.34000 9.186
96.36000 -0.399
96.38000 0.389
96.40000 3.625
96.42000 7.336
96.44000 10.506
96.46000 7.590
96.48000 3.963
96.50000 9.754
96.52000 7.888
96.54000 2.971
96.56000 6.091
96.58000 5.304
96.60000 4.360
96.62000 1.085
96.64000 0.801
96.66000 0.726
96.68000 8.132
96.70000 8.589
96.72000 5.094
96.74000 -2.144
96.76000 -2.130
96.78000 1.925
96.80000 7.632
96.82000 4.215
96.84000 3.791
96.86000 4.033
96.88000 3.601
96.90000 5.124
96.92000 7.156
96.94000 2.180
96.96000 4.450
96.98000 2.953
97.00000 8.323
97.02000 2.253
97.04000 -0.293
97.06000 -2.145
97.08000 2.347
97.10000 5.615
97.12000 3.562
97.14000 7.859
97.16000 8.959
97.18000 4.840
97.20000 1.402
97.22000 7.630
97.24000 8.853
97.26000 8.167
97.28000 4.418
97.30000 1.266
97.32000 0.603
97.34000 7.990
97.36000 0.928
97.38000 1.889
97.40000 5.692
97.42000 14.100
97.44000 9.127
97.46000 1.894
97.48000 -1.145
97.50000 0.792
97.52000 6.338
97.54000 0.705
97.56000 -0.577
97.58000 3.694
97.60000 3.053
97.62000 0.032
97.64000 -2.140
97.66000 0.925
97.68000 -2.198
97.70000 10.276
97.72000 7.465
97.74000 0.769
97.76000 0.972
97.78000 2.572
97.80000 1.407
97.82000 5.758
97.84000 0.464
97.86000 3.848
97.88000 0.851
97.90000 2.759
97.92000 3.343
97.94000 1.664
97.96000 -1.586
97.98000 7.421
98.00000 7.348
98.02000 5.978
98.04000 9.502
98.06000 8.789
98.08000 3.295
98.10000 3.580
98.12000 5.988
98.14000 7.265
98.16000 1.502
98.18000 4.120
98.20000 7.779
98.22000 5.820
98.24000 7.084
98.26000 1.225
98.28000 4.811
98.30000 4.121
98.32000 7.116
98.34000 9.938
98.36000 4.777
98.38000 6.531
98.40000 1.453
98.42000 3.803
98.44000 12.209
98.46000 10.600
98.48000 1.497
98.50000 2.257
98.52000 4.398
98.54000 4.447
98.56000 2.278
98.58000 1.928
98.60000 1.373
98.62000 3.373
98.64000 5.193
98.66000 14.993
98.68000 15.680
98.70000 9.894
98.72000 10.059
98.74000 6.722
98.76000 1.341
98.78000 -0.275
98.80000 7.068
98.82000 14.132
98.84000 9.199
98.86000 14.691
98.88000 6.197
98.90000 3.621
98.92000 10.994
98.94000 8.657
98.96000 9.384
98.98000 4.251
99.00000 -2.048
99.02000 -1.484
99.04000 11.542
99.06000 7.165
99.08000 11.887
99.10000 11.286
99.12000 -1.422
99.14000 4.580
99.16000 16.700
99.18000 14.193
99.20000 6.646
99.22000 11.148
99.24000 8.731
99.26000 7.590
99.28000 5.901
99.30000 10.505
99.32000 5.670
99.34000 13.957
99.36000 12.207
99.38000 15.502
99.40000 19.183
99.42000 11.468
99.44000 10.215
99.46000 6.952
99.48000 9.801
99.50000 4.571
99.52000 0.053
99.54000 5.577
99.56000 14.166
99.58000 4.953
99.60000 14.130
99.62000 5.550
99.64000 5.903
99.66000 5.423
99.68000 -2.499
99.70000 5.190
99.72000 0.760
99.74000 6.907
99.76000 2.623
99.78000 3.757
99.80000 7.916
99.82000 11.318
99.84000 4.876
99.86000 0.998
99.88000 3.804
99.90000 -2.117
99.92000 3.184
99.94000 4.925
99.96000 -2.339
99.98000 0.000
