'Id: "0011388" Comment: "Integrate frame 0011388_Au-Ir-Rh_Rh-rich_XRD-Mapping-217-0000.gfrmwith cursor Wedge Cursor #5" Operator: "B?rgel" Anode: "Cu" Wavelength: "1.5406" Scantype: "2Theta (TwoTheta)" TimePerStep: "1" X: "36" Y: "9" Z: "5.95" 
10.00000 0.000
10.02000 6.561
10.04000 9.326
10.06000 -3.183
10.08000 -3.182
10.10000 6.099
10.12000 5.623
10.14000 3.025
10.16000 -2.540
10.18000 6.363
10.20000 7.775
10.22000 8.668
10.24000 9.397
10.26000 11.731
10.28000 4.306
10.30000 17.160
10.32000 18.491
10.34000 18.999
10.36000 11.978
10.38000 8.594
10.40000 13.143
10.42000 14.590
10.44000 26.213
10.46000 20.498
10.48000 17.573
10.50000 20.944
10.52000 22.121
10.54000 10.094
10.56000 13.200
10.58000 23.322
10.60000 29.668
10.62000 16.450
10.64000 14.680
10.66000 20.735
10.68000 18.890
10.70000 26.773
10.72000 20.747
10.74000 22.608
10.76000 16.266
10.78000 16.248
10.80000 25.254
10.82000 12.974
10.84000 13.253
10.86000 12.308
10.88000 13.382
10.90000 20.284
10.92000 33.892
10.94000 32.399
10.96000 20.739
10.98000 21.667
11.00000 25.657
11.02000 22.139
11.04000 19.428
11.06000 21.166
11.08000 26.864
11.10000 26.755
11.12000 30.029
11.14000 28.759
11.16000 24.009
11.18000 28.586
11.20000 33.742
11.22000 29.699
11.24000 30.893
11.26000 42.917
11.28000 35.020
11.30000 36.603
11.32000 30.809
11.34000 20.649
11.36000 23.164
11.38000 30.893
11.40000 27.776
11.42000 30.764
11.44000 32.177
11.46000 40.248
11.48000 35.779
11.50000 37.789
11.52000 43.712
11.54000 38.170
11.56000 31.489
11.58000 36.942
11.60000 40.348
11.62000 36.076
11.64000 35.875
11.66000 45.270
11.68000 43.736
11.70000 40.031
11.72000 30.798
11.74000 28.906
11.76000 29.455
11.78000 25.012
11.80000 37.889
11.82000 33.141
11.84000 33.566
11.86000 29.829
11.88000 37.243
11.90000 39.139
11.92000 30.654
11.94000 35.418
11.96000 32.285
11.98000 38.961
12.00000 46.760
12.02000 34.148
12.04000 33.426
12.06000 39.694
12.08000 42.832
12.10000 44.493
12.12000 39.381
12.14000 45.032
12.16000 40.177
12.18000 29.923
12.20000 28.078
12.22000 36.283
12.24000 36.816
12.26000 32.520
12.28000 42.049
12.30000 47.399
12.32000 49.920
12.34000 53.867
12.36000 44.914
12.38000 43.276
12.40000 31.131
12.42000 43.522
12.44000 43.366
12.46000 40.066
12.48000 46.304
12.50000 39.607
12.52000 44.089
12.54000 40.439
12.56000 35.416
12.58000 41.439
12.60000 35.549
12.62000 41.270
12.64000 45.571
12.66000 43.940
12.68000 35.773
12.70000 36.887
12.72000 43.000
12.74000 42.352
12.76000 43.366
12.78000 41.647
12.80000 39.430
12.82000 36.057
12.84000 38.938
12.86000 43.689
12.88000 50.896
12.90000 44.582
12.92000 47.641
12.94000 51.096
12.96000 44.484
12.98000 51.550
13.00000 45.366
13.02000 40.476
13.04000 39.525
13.06000 42.619
13.08000 34.340
13.10000 35.960
13.12000 42.296
13.14000 44.526
13.16000 41.607
13.18000 37.582
13.20000 45.018
13.22000 43.980
13.24000 44.875
13.26000 45.489
13.28000 52.580
13.30000 55.183
13.32000 46.820
13.34000 42.104
13.36000 44.845
13.38000 42.086
13.40000 31.942
13.42000 45.297
13.44000 42.231
13.46000 44.951
13.48000 51.822
13.50000 54.508
13.52000 48.657
13.54000 37.131
13.56000 34.346
13.58000 35.685
13.60000 34.797
13.62000 37.560
13.64000 31.879
13.66000 38.729
13.68000 29.375
13.70000 30.784
13.72000 35.990
13.74000 38.460
13.76000 34.438
13.78000 36.993
13.80000 41.334
13.82000 42.165
13.84000 33.354
13.86000 35.687
13.88000 36.181
13.90000 36.834
13.92000 28.782
13.94000 30.071
13.96000 27.998
13.98000 30.999
14.00000 28.848
14.02000 31.239
14.04000 35.249
14.06000 30.289
14.08000 33.249
14.10000 32.092
14.12000 25.291
14.14000 33.195
14.16000 34.429
14.18000 35.155
14.20000 36.211
14.22000 42.018
14.24000 36.698
14.26000 35.743
14.28000 34.624
14.30000 33.058
14.32000 33.248
14.34000 34.896
14.36000 29.984
14.38000 35.911
14.40000 37.045
14.42000 38.776
14.44000 33.795
14.46000 12.980
14.48000 16.469
14.50000 26.202
14.52000 27.716
14.54000 25.006
14.56000 23.069
14.58000 24.776
14.60000 22.922
14.62000 24.287
14.64000 21.932
14.66000 21.559
14.68000 16.561
14.70000 17.987
14.72000 16.471
14.74000 8.531
14.76000 12.586
14.78000 23.711
14.80000 24.832
14.82000 26.560
14.84000 25.496
14.86000 21.625
14.88000 14.039
14.90000 21.440
14.92000 36.491
14.94000 29.941
14.96000 30.681
14.98000 16.234
15.00000 17.750
15.02000 26.671
15.04000 23.999
15.06000 22.191
15.08000 21.902
15.10000 23.511
15.12000 21.431
15.14000 20.979
15.16000 21.001
15.18000 21.586
15.20000 25.388
15.22000 24.533
15.24000 29.151
15.26000 27.310
15.28000 28.545
15.30000 23.646
15.32000 23.081
15.34000 23.858
15.36000 25.711
15.38000 32.104
15.40000 25.677
15.42000 23.959
15.44000 19.542
15.46000 28.340
15.48000 25.345
15.50000 16.449
15.52000 15.347
15.54000 21.016
15.56000 13.041
15.58000 18.736
15.60000 17.359
15.62000 20.718
15.64000 19.587
15.66000 15.793
15.68000 15.349
15.70000 20.561
15.72000 22.004
15.74000 22.217
15.76000 14.937
15.78000 12.743
15.80000 15.421
15.82000 8.468
15.84000 -1.905
15.86000 5.727
15.88000 18.716
15.90000 20.504
15.92000 18.131
15.94000 19.606
15.96000 23.257
15.98000 26.190
16.00000 22.180
16.02000 17.896
16.04000 12.200
16.06000 18.520
16.08000 12.790
16.10000 6.817
16.12000 12.663
16.14000 24.579
16.16000 23.583
16.18000 20.652
16.20000 21.268
16.22000 23.691
16.24000 23.264
16.26000 17.874
16.28000 11.795
16.30000 7.481
16.32000 3.400
16.34000 5.874
16.36000 18.845
16.38000 16.778
16.40000 18.761
16.42000 11.306
16.44000 8.680
16.46000 8.512
16.48000 14.731
16.50000 17.965
16.52000 15.438
16.54000 9.990
16.56000 18.885
16.58000 25.999
16.60000 19.757
16.62000 17.327
16.64000 9.538
16.66000 6.349
16.68000 9.569
16.70000 11.636
16.72000 8.069
16.74000 8.388
16.76000 6.478
16.78000 12.437
16.80000 12.775
16.82000 13.275
16.84000 9.921
16.86000 8.465
16.88000 6.254
16.90000 4.503
16.92000 7.010
16.94000 13.283
16.96000 16.519
16.98000 14.349
17.00000 16.812
17.02000 7.131
17.04000 10.583
17.06000 10.549
17.08000 7.413
17.10000 -0.301
17.12000 -0.547
17.14000 4.059
17.16000 7.745
17.18000 12.999
17.20000 8.901
17.22000 5.781
17.24000 4.446
17.26000 2.598
17.28000 7.931
17.30000 6.826
17.32000 6.380
17.34000 8.966
17.36000 9.914
17.38000 6.870
17.40000 -0.107
17.42000 0.289
17.44000 3.899
17.46000 1.403
17.48000 -2.633
17.50000 5.618
17.52000 11.432
17.54000 9.166
17.56000 1.317
17.58000 0.972
17.60000 9.385
17.62000 10.147
17.64000 0.331
17.66000 2.562
17.68000 7.648
17.70000 13.832
17.72000 8.367
17.74000 2.860
17.76000 5.634
17.78000 6.618
17.80000 11.002
17.82000 7.875
17.84000 7.248
17.86000 1.225
17.88000 -0.192
17.90000 7.524
17.92000 10.326
17.94000 14.630
17.96000 9.798
17.98000 -4.350
18.00000 2.455
18.02000 6.127
18.04000 4.837
18.06000 0.747
18.08000 0.423
18.10000 6.674
18.12000 6.572
18.14000 6.465
18.16000 -0.490
18.18000 3.274
18.20000 5.112
18.22000 1.697
18.24000 -1.233
18.26000 6.008
18.28000 6.450
18.30000 2.748
18.32000 7.556
18.34000 8.881
18.36000 7.803
18.38000 10.323
18.40000 2.389
18.42000 7.271
18.44000 6.432
18.46000 2.274
18.48000 3.285
18.50000 9.105
18.52000 15.763
18.54000 6.379
18.56000 -0.168
18.58000 6.930
18.60000 12.257
18.62000 13.428
18.64000 2.587
18.66000 4.844
18.68000 6.837
18.70000 6.606
18.72000 3.153
18.74000 -1.699
18.76000 -4.316
18.78000 -3.911
18.80000 1.210
18.82000 2.793
18.84000 3.769
18.86000 6.094
18.88000 6.194
18.90000 1.612
18.92000 8.448
18.94000 9.089
18.96000 7.054
18.98000 6.048
19.00000 6.557
19.02000 5.228
19.04000 1.993
19.06000 -2.797
19.08000 5.220
19.10000 8.303
19.12000 1.099
19.14000 0.827
19.16000 -2.217
19.18000 -2.896
19.20000 4.262
19.22000 2.912
19.24000 -1.128
19.26000 9.999
19.28000 7.805
19.30000 -1.967
19.32000 3.654
19.34000 5.499
19.36000 6.657
19.38000 5.392
19.40000 2.766
19.42000 -2.955
19.44000 -3.701
19.46000 -0.743
19.48000 3.716
19.50000 5.968
19.52000 10.602
19.54000 8.051
19.56000 10.442
19.58000 9.976
19.60000 5.130
19.62000 2.604
19.64000 5.203
19.66000 5.142
19.68000 4.221
19.70000 7.641
19.72000 12.066
19.74000 5.743
19.76000 1.951
19.78000 8.774
19.80000 10.283
19.82000 2.772
19.84000 9.500
19.86000 13.499
19.88000 14.203
19.90000 9.861
19.92000 12.110
19.94000 12.010
19.96000 10.921
19.98000 14.132
20.00000 11.556
20.02000 -0.557
20.04000 -0.907
20.06000 -1.568
20.08000 2.627
20.10000 4.176
20.12000 2.637
20.14000 0.407
20.16000 0.555
20.18000 2.786
20.20000 10.369
20.22000 9.080
20.24000 6.844
20.26000 6.980
20.28000 -0.786
20.30000 -4.184
20.32000 -0.067
20.34000 -3.124
20.36000 3.977
20.38000 4.528
20.40000 7.968
20.42000 5.625
20.44000 8.372
20.46000 8.167
20.48000 11.210
20.50000 4.400
20.52000 5.149
20.54000 1.880
20.56000 7.403
20.58000 13.800
20.60000 16.595
20.62000 10.359
20.64000 3.345
20.66000 3.623
20.68000 7.197
20.70000 10.659
20.72000 6.120
20.74000 5.537
20.76000 10.831
20.78000 6.260
20.80000 2.790
20.82000 6.900
20.84000 1.442
20.86000 3.628
20.88000 11.306
20.90000 17.642
20.92000 16.563
20.94000 13.203
20.96000 5.891
20.98000 -4.147
21.00000 -3.470
21.02000 5.092
21.04000 1.718
21.06000 1.922
21.08000 3.910
21.10000 1.624
21.12000 8.225
21.14000 14.677
21.16000 6.546
21.18000 3.629
21.20000 2.706
21.22000 7.024
21.24000 8.487
21.26000 11.608
21.28000 8.044
21.30000 5.472
21.32000 4.884
21.34000 3.410
21.36000 8.832
21.38000 12.158
21.40000 5.820
21.42000 0.628
21.44000 4.898
21.46000 4.622
21.48000 0.578
21.50000 6.919
21.52000 11.633
21.54000 4.670
21.56000 3.729
21.58000 10.219
21.60000 7.714
21.62000 4.696
21.64000 11.191
21.66000 13.169
21.68000 14.163
21.70000 4.421
21.72000 1.232
21.74000 8.260
21.76000 7.194
21.78000 5.538
21.80000 4.016
21.82000 6.569
21.84000 -0.183
21.86000 5.963
21.88000 6.752
21.90000 7.819
21.92000 9.014
21.94000 6.414
21.96000 3.844
21.98000 6.394
22.00000 5.596
22.02000 4.147
22.04000 7.933
22.06000 9.323
22.08000 7.654
22.10000 4.297
22.12000 3.648
22.14000 7.488
22.16000 10.695
22.18000 5.836
22.20000 0.127
22.22000 0.448
22.24000 3.470
22.26000 4.921
22.28000 2.362
22.30000 4.021
22.32000 1.007
22.34000 5.159
22.36000 5.686
22.38000 5.554
22.40000 10.466
22.42000 4.800
22.44000 5.897
22.46000 7.297
22.48000 6.215
22.50000 10.373
22.52000 10.345
22.54000 12.670
22.56000 9.769
22.58000 8.694
22.60000 8.753
22.62000 3.111
22.64000 1.610
22.66000 -4.083
22.68000 9.351
22.70000 11.088
22.72000 8.925
22.74000 9.076
22.76000 1.627
22.78000 -4.075
22.80000 5.627
22.82000 10.786
22.84000 5.009
22.86000 2.842
22.88000 4.854
22.90000 7.849
22.92000 10.964
22.94000 12.542
22.96000 5.178
22.98000 1.152
23.00000 2.546
23.02000 3.907
23.04000 4.108
23.06000 8.196
23.08000 9.926
23.10000 2.263
23.12000 -0.518
23.14000 -1.067
23.16000 1.151
23.18000 -2.365
23.20000 -3.250
23.22000 0.715
23.24000 3.592
23.26000 8.208
23.28000 4.061
23.30000 2.027
23.32000 3.911
23.34000 4.427
23.36000 1.690
23.38000 5.907
23.40000 5.314
23.42000 -0.804
23.44000 -0.815
23.46000 6.364
23.48000 7.393
23.50000 8.181
23.52000 3.414
23.54000 -0.714
23.56000 1.949
23.58000 3.872
23.60000 7.417
23.62000 9.569
23.64000 7.776
23.66000 6.114
23.68000 5.283
23.70000 1.766
23.72000 1.753
23.74000 8.127
23.76000 4.541
23.78000 0.952
23.80000 8.047
23.82000 4.756
23.84000 0.389
23.86000 -4.043
23.88000 1.153
23.90000 4.981
23.92000 2.703
23.94000 4.063
23.96000 6.626
23.98000 3.150
24.00000 -1.861
24.02000 1.723
24.04000 -0.492
24.06000 -0.569
24.08000 -2.636
24.10000 1.340
24.12000 1.212
24.14000 5.742
24.16000 0.660
24.18000 -2.807
24.20000 -4.025
24.22000 2.040
24.24000 0.791
24.26000 4.422
24.28000 -1.541
24.30000 -2.274
24.32000 -1.628
24.34000 -2.925
24.36000 0.328
24.38000 -0.888
24.40000 0.918
24.42000 4.800
24.44000 -3.004
24.46000 -3.448
24.48000 1.301
24.50000 8.034
24.52000 6.913
24.54000 -3.680
24.56000 -1.321
24.58000 0.234
24.60000 -0.578
24.62000 0.242
24.64000 4.176
24.66000 7.852
24.68000 1.770
24.70000 1.442
24.72000 0.892
24.74000 -2.053
24.76000 3.687
24.78000 5.121
24.80000 7.448
24.82000 6.309
24.84000 7.461
24.86000 3.186
24.88000 3.333
24.90000 3.236
24.92000 -0.356
24.94000 4.341
24.96000 6.416
24.98000 4.271
25.00000 0.461
25.02000 -0.459
25.04000 1.680
25.06000 3.074
25.08000 4.219
25.10000 -3.132
25.12000 1.733
25.14000 5.821
25.16000 3.602
25.18000 3.471
25.20000 5.731
25.22000 2.715
25.24000 -0.578
25.26000 -0.279
25.28000 8.129
25.30000 7.965
25.32000 5.875
25.34000 -0.300
25.36000 -2.370
25.38000 3.331
25.40000 1.612
25.42000 1.458
25.44000 7.290
25.46000 5.046
25.48000 4.123
25.50000 0.672
25.52000 -2.683
25.54000 8.036
25.56000 5.606
25.58000 1.057
25.60000 -0.757
25.62000 1.864
25.64000 4.303
25.66000 -3.914
25.68000 4.727
25.70000 10.111
25.72000 4.896
25.74000 11.939
25.76000 12.813
25.78000 12.537
25.80000 9.204
25.82000 4.829
25.84000 7.808
25.86000 4.936
25.88000 2.654
25.90000 1.145
25.92000 3.036
25.94000 3.166
25.96000 3.868
25.98000 8.885
26.00000 2.733
26.02000 -3.906
26.04000 1.820
26.06000 -3.343
26.08000 -1.236
26.10000 2.067
26.12000 2.848
26.14000 2.501
26.16000 2.821
26.18000 4.818
26.20000 9.077
26.22000 6.556
26.24000 -0.914
26.26000 1.358
26.28000 5.213
26.30000 2.965
26.32000 5.463
26.34000 7.482
26.36000 8.752
26.38000 6.937
26.40000 5.546
26.42000 3.061
26.44000 1.189
26.46000 2.859
26.48000 3.191
26.50000 2.697
26.52000 7.038
26.54000 5.970
26.56000 7.874
26.58000 7.083
26.60000 6.987
26.62000 4.740
26.64000 5.649
26.66000 3.390
26.68000 -1.297
26.70000 -1.377
26.72000 1.975
26.74000 -2.970
26.76000 0.897
26.78000 6.404
26.80000 8.132
26.82000 4.781
26.84000 9.587
26.86000 1.981
26.88000 -0.085
26.90000 5.897
26.92000 4.181
26.94000 3.255
26.96000 1.183
26.98000 -0.296
27.00000 -0.376
27.02000 -0.237
27.04000 4.055
27.06000 -0.794
27.08000 -1.713
27.10000 -2.022
27.12000 -0.796
27.14000 1.458
27.16000 2.100
27.18000 -2.813
27.20000 -0.106
27.22000 -0.756
27.24000 2.481
27.26000 0.803
27.28000 4.961
27.30000 4.967
27.32000 4.015
27.34000 1.347
27.36000 -2.509
27.38000 -3.467
27.40000 5.188
27.42000 0.083
27.44000 -0.550
27.46000 0.243
27.48000 2.509
27.50000 2.893
27.52000 2.062
27.54000 2.199
27.56000 3.722
27.58000 4.356
27.60000 4.963
27.62000 7.561
27.64000 4.427
27.66000 4.137
27.68000 6.948
27.70000 7.186
27.72000 -2.909
27.74000 -3.250
27.76000 0.157
27.78000 6.079
27.80000 1.235
27.82000 -0.446
27.84000 5.890
27.86000 4.851
27.88000 0.268
27.90000 -0.481
27.92000 2.169
27.94000 0.105
27.96000 5.549
27.98000 1.854
28.00000 2.678
28.02000 4.607
28.04000 6.159
28.06000 4.365
28.08000 2.284
28.10000 1.554
28.12000 1.038
28.14000 0.556
28.16000 3.576
28.18000 5.404
28.20000 3.671
28.22000 1.659
28.24000 -3.784
28.26000 -3.304
28.28000 1.192
28.30000 4.716
28.32000 2.421
28.34000 5.047
28.36000 5.338
28.38000 1.809
28.40000 3.550
28.42000 4.636
28.44000 2.695
28.46000 -2.691
28.48000 -3.768
28.50000 -2.979
28.52000 -0.275
28.54000 1.388
28.56000 3.892
28.58000 7.608
28.60000 4.059
28.62000 2.328
28.64000 3.509
28.66000 3.700
28.68000 0.018
28.70000 5.727
28.72000 2.411
28.74000 0.891
28.76000 4.397
28.78000 6.423
28.80000 4.065
28.82000 -1.525
28.84000 -3.195
28.86000 0.080
28.88000 6.209
28.90000 2.501
28.92000 -2.098
28.94000 -2.115
28.96000 -1.132
28.98000 1.021
29.00000 4.349
29.02000 5.897
29.04000 2.926
29.06000 1.275
29.08000 4.082
29.10000 9.371
29.12000 9.079
29.14000 3.225
29.16000 -1.676
29.18000 0.572
29.20000 0.150
29.22000 3.974
29.24000 2.476
29.26000 -3.065
29.28000 -3.106
29.30000 2.585
29.32000 3.613
29.34000 1.048
29.36000 6.112
29.38000 3.575
29.40000 1.617
29.42000 1.820
29.44000 3.660
29.46000 0.333
29.48000 -3.733
29.50000 1.085
29.52000 3.861
29.54000 8.055
29.56000 1.890
29.58000 5.254
29.60000 8.093
29.62000 3.664
29.64000 4.328
29.66000 9.387
29.68000 7.962
29.70000 0.180
29.72000 2.539
29.74000 1.381
29.76000 1.083
29.78000 3.279
29.80000 3.048
29.82000 4.564
29.84000 3.036
29.86000 3.783
29.88000 3.011
29.90000 -0.225
29.92000 1.127
29.94000 3.781
29.96000 6.475
29.98000 5.586
30.00000 -2.149
30.02000 -2.384
30.04000 7.765
30.06000 10.387
30.08000 8.393
30.10000 4.647
30.12000 2.035
30.14000 3.088
30.16000 6.417
30.18000 3.588
30.20000 4.883
30.22000 0.819
30.24000 1.339
30.26000 4.126
30.28000 0.962
30.30000 1.058
30.32000 -1.167
30.34000 2.771
30.36000 3.102
30.38000 3.134
30.40000 4.120
30.42000 0.227
30.44000 0.543
30.46000 5.737
30.48000 4.633
30.50000 6.116
30.52000 -0.264
30.54000 1.656
30.56000 3.236
30.58000 0.226
30.60000 0.494
30.62000 5.475
30.64000 3.553
30.66000 -2.269
30.68000 -3.674
30.70000 -1.494
30.72000 -1.689
30.74000 -1.284
30.76000 -3.563
30.78000 2.238
30.80000 4.897
30.82000 4.741
30.84000 -1.041
30.86000 0.568
30.88000 0.726
30.90000 0.347
30.92000 0.258
30.94000 -0.585
30.96000 0.861
30.98000 2.355
31.00000 2.727
31.02000 5.321
31.04000 5.130
31.06000 3.818
31.08000 3.949
31.10000 4.246
31.12000 1.002
31.14000 1.134
31.16000 -3.651
31.18000 -3.288
31.20000 0.519
31.22000 -0.113
31.24000 -0.019
31.26000 3.082
31.28000 0.545
31.30000 0.492
31.32000 1.245
31.34000 0.812
31.36000 4.685
31.38000 1.972
31.40000 2.336
31.42000 3.107
31.44000 4.207
31.46000 7.251
31.48000 3.570
31.50000 -2.536
31.52000 3.134
31.54000 10.456
31.56000 8.219
31.58000 1.974
31.60000 2.419
31.62000 0.049
31.64000 2.319
31.66000 -0.647
31.68000 -3.204
31.70000 -1.663
31.72000 0.193
31.74000 3.176
31.76000 3.817
31.78000 -3.282
31.80000 -1.488
31.82000 4.930
31.84000 5.007
31.86000 4.896
31.88000 6.778
31.90000 8.346
31.92000 8.692
31.94000 3.864
31.96000 5.715
31.98000 6.929
32.00000 5.995
32.02000 4.765
32.04000 4.362
32.06000 0.379
32.08000 1.323
32.10000 2.926
32.12000 3.103
32.14000 -0.180
32.16000 1.871
32.18000 0.553
32.20000 1.906
32.22000 4.389
32.24000 4.083
32.26000 -3.265
32.28000 -3.628
32.30000 -3.526
32.32000 -2.634
32.34000 0.413
32.36000 2.376
32.38000 6.614
32.40000 5.307
32.42000 3.363
32.44000 5.749
32.46000 2.788
32.48000 4.871
32.50000 1.824
32.52000 3.662
32.54000 4.014
32.56000 0.652
32.58000 0.893
32.60000 -0.892
32.62000 -0.088
32.64000 2.548
32.66000 4.809
32.68000 3.921
32.70000 0.310
32.72000 2.004
32.74000 7.938
32.76000 4.904
32.78000 3.854
32.80000 4.100
32.82000 1.601
32.84000 -1.739
32.86000 -3.620
32.88000 -2.577
32.90000 -2.327
32.92000 -2.433
32.94000 0.671
32.96000 5.064
32.98000 1.840
33.00000 -2.600
33.02000 3.310
33.04000 -3.616
33.06000 -1.993
33.08000 0.714
33.10000 -2.097
33.12000 1.033
33.14000 3.195
33.16000 -0.004
33.18000 -3.214
33.20000 -2.930
33.22000 -0.112
33.24000 3.803
33.26000 -1.608
33.28000 -3.608
33.30000 0.873
33.32000 2.056
33.34000 1.445
33.36000 -1.319
33.38000 3.497
33.40000 4.681
33.42000 4.651
33.44000 1.633
33.46000 -0.279
33.48000 3.871
33.50000 8.255
33.52000 3.741
33.54000 1.297
33.56000 -0.598
33.58000 0.727
33.60000 6.829
33.62000 3.372
33.64000 5.145
33.66000 -0.879
33.68000 2.150
33.70000 8.551
33.72000 4.658
33.74000 2.885
33.76000 2.886
33.78000 4.255
33.80000 -0.081
33.82000 -1.230
33.84000 4.594
33.86000 5.099
33.88000 4.850
33.90000 0.030
33.92000 3.388
33.94000 7.364
33.96000 2.120
33.98000 0.067
34.00000 1.723
34.02000 -1.294
34.04000 0.298
34.06000 -0.691
34.08000 1.224
34.10000 4.037
34.12000 3.366
34.14000 1.049
34.16000 3.208
34.18000 6.291
34.20000 6.274
34.22000 5.251
34.24000 7.874
34.26000 3.903
34.28000 -1.058
34.30000 3.975
34.32000 6.266
34.34000 3.965
34.36000 8.317
34.38000 6.455
34.40000 4.498
34.42000 0.783
34.44000 8.117
34.46000 4.789
34.48000 0.897
34.50000 -1.567
34.52000 2.468
34.54000 3.421
34.56000 2.286
34.58000 2.632
34.60000 0.083
34.62000 0.788
34.64000 1.635
34.66000 4.505
34.68000 6.335
34.70000 7.407
34.72000 7.773
34.74000 -1.403
34.76000 3.916
34.78000 -0.951
34.80000 -0.698
34.82000 2.205
34.84000 2.146
34.86000 0.455
34.88000 3.191
34.90000 0.308
34.92000 -0.878
34.94000 -1.276
34.96000 -1.253
34.98000 1.217
35.00000 3.365
35.02000 3.921
35.04000 2.396
35.06000 6.358
35.08000 4.442
35.10000 1.014
35.12000 -0.519
35.14000 -3.525
35.16000 -3.526
35.18000 2.462
35.20000 2.771
35.22000 2.578
35.24000 5.524
35.26000 7.675
35.28000 9.297
35.30000 8.403
35.32000 -0.254
35.34000 1.676
35.36000 3.773
35.38000 1.707
35.40000 4.061
35.42000 7.769
35.44000 5.632
35.46000 0.053
35.48000 1.110
35.50000 0.489
35.52000 -1.145
35.54000 -1.861
35.56000 3.823
35.58000 7.852
35.60000 5.800
35.62000 2.606
35.64000 6.524
35.66000 5.970
35.68000 1.742
35.70000 -0.235
35.72000 2.477
35.74000 4.871
35.76000 4.403
35.78000 0.271
35.80000 0.259
35.82000 2.746
35.84000 3.341
35.86000 2.741
35.88000 3.953
35.90000 6.465
35.92000 7.319
35.94000 0.316
35.96000 -0.626
35.98000 -1.603
36.00000 0.495
36.02000 0.380
36.04000 -2.538
36.06000 2.498
36.08000 -0.600
36.10000 0.257
36.12000 1.313
36.14000 4.569
36.16000 3.146
36.18000 0.888
36.20000 1.249
36.22000 5.813
36.24000 5.553
36.26000 -0.012
36.28000 0.749
36.30000 2.267
36.32000 -1.497
36.34000 -1.595
36.36000 0.698
36.38000 2.437
36.40000 4.293
36.42000 3.120
36.44000 1.916
36.46000 -0.569
36.48000 -3.554
36.50000 2.440
36.52000 -0.520
36.54000 -0.750
36.56000 -1.921
36.58000 1.527
36.60000 0.830
36.62000 0.074
36.64000 3.250
36.66000 2.392
36.68000 -1.374
36.70000 3.002
36.72000 5.253
36.74000 3.692
36.76000 6.096
36.78000 5.098
36.80000 6.371
36.82000 3.128
36.84000 1.713
36.86000 0.501
36.88000 -0.430
36.90000 2.534
36.92000 7.323
36.94000 5.313
36.96000 3.463
36.98000 0.335
37.00000 2.631
37.02000 1.887
37.04000 0.715
37.06000 3.285
37.08000 1.129
37.10000 -3.579
37.12000 -1.366
37.14000 0.940
37.16000 4.320
37.18000 3.631
37.20000 3.592
37.22000 -2.695
37.24000 -1.954
37.26000 3.785
37.28000 4.692
37.30000 -1.952
37.32000 -2.876
37.34000 -1.222
37.36000 0.237
37.38000 0.045
37.40000 4.041
37.42000 6.921
37.44000 7.187
37.46000 2.939
37.48000 2.266
37.50000 2.894
37.52000 -0.756
37.54000 -0.862
37.56000 -3.067
37.58000 -3.620
37.60000 -1.135
37.62000 -2.953
37.64000 -0.224
37.66000 1.874
37.68000 -0.212
37.70000 2.777
37.72000 4.665
37.74000 2.104
37.76000 -1.104
37.78000 1.777
37.80000 0.925
37.82000 -1.423
37.84000 -1.461
37.86000 2.880
37.88000 3.497
37.90000 4.334
37.92000 6.510
37.94000 3.982
37.96000 3.445
37.98000 1.747
38.00000 2.995
38.02000 3.962
38.04000 6.208
38.06000 10.144
38.08000 8.004
38.10000 7.030
38.12000 8.765
38.14000 7.798
38.16000 9.072
38.18000 6.678
38.20000 7.000
38.22000 6.026
38.24000 6.714
38.26000 7.375
38.28000 5.613
38.30000 11.789
38.32000 12.133
38.34000 8.637
38.36000 13.293
38.38000 9.033
38.40000 11.166
38.42000 12.498
38.44000 20.214
38.46000 18.029
38.48000 15.438
38.50000 19.527
38.52000 19.642
38.54000 17.264
38.56000 16.209
38.58000 11.447
38.60000 15.858
38.62000 17.160
38.64000 18.256
38.66000 21.953
38.68000 20.142
38.70000 19.973
38.72000 17.201
38.74000 17.251
38.76000 19.746
38.78000 20.888
38.80000 26.155
38.82000 29.291
38.84000 20.039
38.86000 19.276
38.88000 23.537
38.90000 27.472
38.92000 23.841
38.94000 25.416
38.96000 26.292
38.98000 27.850
39.00000 30.026
39.02000 36.687
39.04000 29.938
39.06000 34.885
39.08000 32.333
39.10000 33.379
39.12000 33.577
39.14000 34.519
39.16000 35.492
39.18000 31.899
39.20000 34.832
39.22000 41.279
39.24000 42.084
39.26000 44.096
39.28000 51.810
39.30000 53.231
39.32000 51.669
39.34000 52.463
39.36000 53.128
39.38000 58.908
39.40000 56.415
39.42000 62.371
39.44000 59.997
39.46000 60.014
39.48000 66.214
39.50000 65.747
39.52000 68.051
39.54000 73.671
39.56000 82.359
39.58000 88.133
39.60000 82.087
39.62000 83.553
39.64000 90.591
39.66000 94.274
39.68000 101.130
39.70000 102.855
39.72000 107.456
39.74000 113.772
39.76000 118.794
39.78000 127.492
39.80000 131.446
39.82000 136.795
39.84000 141.610
39.86000 150.289
39.88000 158.705
39.90000 156.898
39.92000 168.726
39.94000 184.007
39.96000 193.911
39.98000 200.883
40.00000 199.463
40.02000 209.429
40.04000 225.366
40.06000 237.685
40.08000 245.308
40.10000 264.119
40.12000 276.959
40.14000 293.116
40.16000 305.119
40.18000 311.561
40.20000 326.899
40.22000 353.091
40.24000 362.029
40.26000 379.123
40.28000 398.669
40.30000 414.671
40.32000 432.828
40.34000 446.993
40.36000 458.508
40.38000 475.265
40.40000 497.484
40.42000 515.758
40.44000 526.640
40.46000 552.688
40.48000 573.355
40.50000 592.082
40.52000 599.832
40.54000 616.980
40.56000 624.647
40.58000 639.992
40.60000 665.622
40.62000 689.027
40.64000 685.424
40.66000 686.740
40.68000 687.883
40.70000 687.594
40.72000 686.531
40.74000 688.244
40.76000 688.748
40.78000 674.537
40.80000 682.085
40.82000 672.195
40.84000 646.336
40.86000 638.243
40.88000 629.968
40.90000 624.861
40.92000 611.948
40.94000 587.477
40.96000 576.575
40.98000 564.111
41.00000 546.327
41.02000 521.150
41.04000 508.679
41.06000 487.494
41.08000 467.399
41.10000 449.670
41.12000 426.757
41.14000 405.930
41.16000 393.059
41.18000 373.606
41.20000 354.754
41.22000 343.369
41.24000 326.829
41.26000 301.950
41.28000 289.134
41.30000 277.179
41.32000 264.204
41.34000 251.068
41.36000 239.655
41.38000 218.834
41.40000 209.565
41.42000 200.305
41.44000 190.997
41.46000 173.278
41.48000 166.230
41.50000 164.384
41.52000 154.497
41.54000 141.840
41.56000 134.260
41.58000 124.225
41.60000 120.164
41.62000 117.221
41.64000 107.220
41.66000 105.521
41.68000 109.703
41.70000 95.168
41.72000 95.737
41.74000 92.052
41.76000 84.914
41.78000 76.191
41.80000 75.378
41.82000 65.995
41.84000 63.588
41.86000 63.872
41.88000 56.531
41.90000 53.240
41.92000 56.492
41.94000 56.511
41.96000 52.101
41.98000 42.470
42.00000 37.385
42.02000 41.318
42.04000 35.907
42.06000 33.590
42.08000 31.820
42.10000 31.692
42.12000 25.111
42.14000 24.183
42.16000 23.387
42.18000 28.132
42.20000 30.301
42.22000 27.716
42.24000 24.128
42.26000 23.328
42.28000 21.000
42.30000 22.738
42.32000 18.951
42.34000 16.195
42.36000 14.578
42.38000 21.220
42.40000 18.405
42.42000 16.100
42.44000 18.866
42.46000 18.559
42.48000 8.751
42.50000 10.953
42.52000 11.911
42.54000 9.905
42.56000 13.142
42.58000 8.325
42.60000 9.517
42.62000 9.990
42.64000 7.956
42.66000 10.446
42.68000 11.522
42.70000 11.645
42.72000 7.453
42.74000 4.526
42.76000 4.266
42.78000 3.779
42.80000 6.797
42.82000 3.243
42.84000 3.136
42.86000 -0.869
42.88000 2.264
42.90000 9.002
42.92000 8.720
42.94000 5.395
42.96000 1.677
42.98000 1.086
43.00000 2.139
43.02000 -2.581
43.04000 -3.694
43.06000 2.925
43.08000 1.105
43.10000 4.115
43.12000 6.129
43.14000 2.354
43.16000 1.245
43.18000 2.073
43.20000 2.493
43.22000 6.368
43.24000 -0.265
43.26000 -1.336
43.28000 3.060
43.30000 2.151
43.32000 1.994
43.34000 -0.530
43.36000 -1.444
43.38000 -0.509
43.40000 0.642
43.42000 1.340
43.44000 3.937
43.46000 1.762
43.48000 0.424
43.50000 5.709
43.52000 0.838
43.54000 -2.425
43.56000 -1.760
43.58000 -1.271
43.60000 2.409
43.62000 2.400
43.64000 1.968
43.66000 -1.632
43.68000 4.500
43.70000 4.803
43.72000 1.787
43.74000 4.426
43.76000 4.954
43.78000 -0.363
43.80000 -1.045
43.82000 -0.015
43.84000 0.359
43.86000 -0.087
43.88000 2.768
43.90000 -1.657
43.92000 0.162
43.94000 5.986
43.96000 1.528
43.98000 -2.462
44.00000 1.641
44.02000 1.722
44.04000 1.434
44.06000 3.709
44.08000 -0.109
44.10000 -3.552
44.12000 1.605
44.14000 -2.830
44.16000 -0.149
44.18000 1.836
44.20000 0.857
44.22000 -0.960
44.24000 1.927
44.26000 6.313
44.28000 7.306
44.30000 5.894
44.32000 3.542
44.34000 5.163
44.36000 4.565
44.38000 2.302
44.40000 1.551
44.42000 3.100
44.44000 -0.338
44.46000 -0.091
44.48000 -0.122
44.50000 1.976
44.52000 5.535
44.54000 4.685
44.56000 0.508
44.58000 2.291
44.60000 0.010
44.62000 -3.518
44.64000 -3.544
44.66000 0.374
44.68000 3.251
44.70000 4.480
44.72000 3.204
44.74000 4.362
44.76000 -1.232
44.78000 -0.451
44.80000 1.550
44.82000 2.442
44.84000 3.214
44.86000 5.583
44.88000 4.252
44.90000 2.850
44.92000 0.762
44.94000 1.270
44.96000 2.549
44.98000 -1.206
45.00000 0.498
45.02000 1.547
45.04000 -1.590
45.06000 3.309
45.08000 6.745
45.10000 2.524
45.12000 -3.528
45.14000 1.054
45.16000 0.868
45.18000 0.896
45.20000 2.902
45.22000 2.229
45.24000 2.825
45.26000 4.999
45.28000 -0.107
45.30000 8.521
45.32000 6.801
45.34000 7.052
45.36000 8.179
45.38000 8.709
45.40000 7.783
45.42000 1.257
45.44000 2.192
45.46000 0.151
45.48000 5.869
45.50000 5.508
45.52000 5.744
45.54000 5.412
45.56000 9.510
45.58000 8.690
45.60000 10.817
45.62000 11.726
45.64000 11.462
45.66000 12.756
45.68000 7.976
45.70000 5.271
45.72000 12.284
45.74000 16.051
45.76000 13.430
45.78000 14.966
45.80000 16.028
45.82000 15.728
45.84000 12.949
45.86000 10.516
45.88000 13.268
45.90000 13.152
45.92000 14.027
45.94000 17.116
45.96000 22.085
45.98000 22.228
46.00000 14.137
46.02000 10.923
46.04000 18.063
46.06000 24.756
46.08000 20.931
46.10000 17.750
46.12000 21.195
46.14000 28.448
46.16000 30.119
46.18000 27.326
46.20000 20.898
46.22000 25.306
46.24000 26.394
46.26000 23.703
46.28000 25.338
46.30000 30.544
46.32000 32.549
46.34000 30.509
46.36000 29.780
46.38000 31.454
46.40000 28.877
46.42000 30.357
46.44000 34.760
46.46000 35.125
46.48000 35.556
46.50000 38.306
46.52000 40.535
46.54000 41.211
46.56000 39.290
46.58000 40.994
46.60000 46.667
46.62000 51.121
46.64000 54.879
46.66000 48.860
46.68000 42.411
46.70000 44.352
46.72000 49.320
46.74000 55.263
46.76000 52.062
46.78000 54.434
46.80000 59.168
46.82000 59.817
46.84000 55.954
46.86000 51.088
46.88000 55.688
46.90000 58.185
46.92000 55.741
46.94000 60.845
46.96000 66.409
46.98000 69.951
47.00000 72.765
47.02000 69.310
47.04000 73.846
47.06000 66.339
47.08000 65.650
47.10000 67.783
47.12000 66.811
47.14000 68.652
47.16000 67.904
47.18000 68.734
47.20000 69.887
47.22000 73.445
47.24000 82.128
47.26000 80.871
47.28000 69.975
47.30000 71.337
47.32000 74.118
47.34000 76.167
47.36000 75.749
47.38000 74.989
47.40000 70.701
47.42000 72.397
47.44000 74.089
47.46000 70.622
47.48000 68.865
47.50000 70.473
47.52000 74.751
47.54000 71.201
47.56000 68.568
47.58000 62.660
47.60000 62.779
47.62000 64.016
47.64000 64.710
47.66000 64.300
47.68000 58.727
47.70000 63.285
47.72000 62.524
47.74000 66.007
47.76000 60.071
47.78000 53.212
47.80000 55.417
47.82000 53.140
47.84000 56.376
47.86000 56.715
47.88000 51.564
47.90000 41.478
47.92000 41.830
47.94000 44.943
47.96000 41.869
47.98000 31.071
48.00000 33.740
48.02000 37.445
48.04000 36.325
48.06000 32.089
48.08000 27.564
48.10000 30.206
48.12000 30.148
48.14000 27.594
48.16000 24.070
48.18000 29.279
48.20000 22.869
48.22000 23.339
48.24000 29.178
48.26000 21.274
48.28000 16.201
48.30000 16.550
48.32000 10.808
48.34000 14.958
48.36000 14.367
48.38000 16.966
48.40000 13.667
48.42000 12.063
48.44000 13.279
48.46000 18.782
48.48000 18.450
48.50000 12.501
48.52000 15.395
48.54000 11.908
48.56000 10.636
48.58000 7.607
48.60000 8.920
48.62000 10.595
48.64000 4.323
48.66000 5.037
48.68000 6.737
48.70000 6.288
48.72000 6.336
48.74000 3.959
48.76000 -0.198
48.78000 3.559
48.80000 5.207
48.82000 6.221
48.84000 0.912
48.86000 0.807
48.88000 5.538
48.90000 4.451
48.92000 4.110
48.94000 3.337
48.96000 4.824
48.98000 7.177
49.00000 1.306
49.02000 -2.715
49.04000 -1.783
49.06000 4.817
49.08000 5.530
49.10000 -0.141
49.12000 3.128
49.14000 5.739
49.16000 0.184
49.18000 -3.227
49.20000 4.064
49.22000 4.721
49.24000 -1.821
49.26000 2.138
49.28000 3.137
49.30000 0.354
49.32000 1.835
49.34000 5.400
49.36000 6.867
49.38000 2.384
49.40000 5.269
49.42000 4.176
49.44000 3.757
49.46000 -1.823
49.48000 -3.172
49.50000 2.948
49.52000 2.987
49.54000 5.561
49.56000 1.440
49.58000 0.007
49.60000 0.148
49.62000 -2.945
49.64000 3.237
49.66000 6.715
49.68000 -0.376
49.70000 2.065
49.72000 7.285
49.74000 2.333
49.76000 4.442
49.78000 3.194
49.80000 7.310
49.82000 7.309
49.84000 3.420
49.86000 3.202
49.88000 8.720
49.90000 10.121
49.92000 5.151
49.94000 3.416
49.96000 0.398
49.98000 -0.876
50.00000 -1.365
50.02000 0.057
50.04000 1.283
50.06000 0.083
50.08000 -1.657
50.10000 -2.272
50.12000 1.872
50.14000 -0.017
50.16000 4.664
50.18000 1.383
50.20000 2.543
50.22000 3.032
50.24000 7.305
50.26000 5.764
50.28000 0.914
50.30000 4.379
50.32000 3.023
50.34000 4.718
50.36000 1.677
50.38000 1.397
50.40000 4.211
50.42000 5.078
50.44000 7.710
50.46000 10.651
50.48000 4.233
50.50000 5.480
50.52000 5.130
50.54000 6.672
50.56000 3.285
50.58000 3.813
50.60000 3.155
50.62000 2.420
50.64000 -0.122
50.66000 2.004
50.68000 -3.035
50.70000 2.783
50.72000 5.581
50.74000 2.311
50.76000 5.545
50.78000 3.398
50.80000 2.467
50.82000 1.831
50.84000 3.538
50.86000 5.633
50.88000 7.316
50.90000 6.932
50.92000 7.975
50.94000 5.582
50.96000 6.368
50.98000 4.174
51.00000 6.355
51.02000 4.434
51.04000 9.771
51.06000 5.002
51.08000 5.514
51.10000 3.055
51.12000 10.923
51.14000 10.538
51.16000 11.806
51.18000 6.979
51.20000 5.460
51.22000 3.328
51.24000 5.613
51.26000 1.713
51.28000 9.082
51.30000 13.781
51.32000 5.745
51.34000 2.087
51.36000 0.423
51.38000 0.554
51.40000 4.139
51.42000 3.101
51.44000 -0.492
51.46000 -2.490
51.48000 4.959
51.50000 3.944
51.52000 -1.290
51.54000 0.803
51.56000 3.984
51.58000 -1.610
51.60000 -3.024
51.62000 5.434
51.64000 6.814
51.66000 9.499
51.68000 2.544
51.70000 0.867
51.72000 -1.540
51.74000 0.795
51.76000 2.592
51.78000 7.772
51.80000 6.287
51.82000 5.211
51.84000 2.236
51.86000 -0.304
51.88000 -0.999
51.90000 2.398
51.92000 -1.630
51.94000 -1.236
51.96000 2.378
51.98000 1.647
52.00000 -2.143
52.02000 3.686
52.04000 5.608
52.06000 1.403
52.08000 0.009
52.10000 -0.531
52.12000 -0.986
52.14000 -0.253
52.16000 1.040
52.18000 2.651
52.20000 3.195
52.22000 4.541
52.24000 -3.003
52.26000 -0.163
52.28000 3.637
52.30000 2.651
52.32000 -0.277
52.34000 -0.344
52.36000 7.514
52.38000 5.437
52.40000 0.981
52.42000 0.940
52.44000 2.599
52.46000 -0.008
52.48000 5.142
52.50000 10.411
52.52000 2.655
52.54000 1.307
52.56000 2.047
52.58000 -1.856
52.60000 1.071
52.62000 1.304
52.64000 0.602
52.66000 1.396
52.68000 2.951
52.70000 4.571
52.72000 1.567
52.74000 5.115
52.76000 4.766
52.78000 0.577
52.80000 -2.191
52.82000 2.081
52.84000 2.484
52.86000 1.808
52.88000 -0.514
52.90000 -0.481
52.92000 5.182
52.94000 6.961
52.96000 4.613
52.98000 7.370
53.00000 2.383
53.02000 1.599
53.04000 -2.517
53.06000 -0.614
53.08000 -0.252
53.10000 5.292
53.12000 1.697
53.14000 4.230
53.16000 2.891
53.18000 6.174
53.20000 8.178
53.22000 5.053
53.24000 1.527
53.26000 6.497
53.28000 3.028
53.30000 4.384
53.32000 -2.723
53.34000 -2.935
53.36000 2.425
53.38000 1.560
53.40000 4.362
53.42000 4.466
53.44000 4.317
53.46000 0.536
53.48000 5.347
53.50000 9.577
53.52000 1.206
53.54000 2.753
53.56000 1.741
53.58000 5.169
53.60000 5.792
53.62000 -0.048
53.64000 5.633
53.66000 10.208
53.68000 6.462
53.70000 2.163
53.72000 6.155
53.74000 4.733
53.76000 4.014
53.78000 6.508
53.80000 8.352
53.82000 3.722
53.84000 7.129
53.86000 7.839
53.88000 5.011
53.90000 3.853
53.92000 2.737
53.94000 6.954
53.96000 5.177
53.98000 2.787
54.00000 5.822
54.02000 4.433
54.04000 1.027
54.06000 2.139
54.08000 2.779
54.10000 0.028
54.12000 0.640
54.14000 1.024
54.16000 -2.919
54.18000 1.156
54.20000 2.867
54.22000 -1.022
54.24000 0.609
54.26000 1.444
54.28000 5.987
54.30000 2.549
54.32000 -0.759
54.34000 3.699
54.36000 3.190
54.38000 1.309
54.40000 6.459
54.42000 6.749
54.44000 6.535
54.46000 8.494
54.48000 7.600
54.50000 6.466
54.52000 1.546
54.54000 -2.524
54.56000 0.890
54.58000 8.291
54.60000 8.883
54.62000 4.045
54.64000 -2.901
54.66000 -1.781
54.68000 2.029
54.70000 1.452
54.72000 0.942
54.74000 1.244
54.76000 8.550
54.78000 5.489
54.80000 5.405
54.82000 5.044
54.84000 3.887
54.86000 1.439
54.88000 2.616
54.90000 0.990
54.92000 -1.313
54.94000 -0.609
54.96000 1.750
54.98000 1.634
55.00000 2.385
55.02000 1.638
55.04000 6.780
55.06000 10.087
55.08000 2.647
55.10000 3.460
55.12000 7.648
55.14000 8.781
55.16000 5.329
55.18000 6.701
55.20000 5.110
55.22000 1.548
55.24000 3.260
55.26000 0.946
55.28000 1.693
55.30000 4.950
55.32000 2.379
55.34000 0.139
55.36000 2.204
55.38000 6.597
55.40000 3.175
55.42000 -2.892
55.44000 0.637
55.46000 4.442
55.48000 2.597
55.50000 3.937
55.52000 1.897
55.54000 -0.590
55.56000 3.783
55.58000 2.728
55.60000 1.237
55.62000 1.882
55.64000 2.171
55.66000 4.377
55.68000 3.497
55.70000 5.470
55.72000 1.742
55.74000 -2.201
55.76000 3.630
55.78000 2.123
55.80000 4.040
55.82000 0.965
55.84000 1.906
55.86000 0.508
55.88000 2.308
55.90000 4.685
55.92000 6.427
55.94000 6.717
55.96000 9.646
55.98000 3.219
56.00000 5.088
56.02000 5.074
56.04000 -0.571
56.06000 1.950
56.08000 6.542
56.10000 3.122
56.12000 -1.533
56.14000 1.805
56.16000 2.473
56.18000 9.539
56.20000 7.411
56.22000 5.311
56.24000 -1.815
56.26000 -2.184
56.28000 1.795
56.30000 -2.105
56.32000 -2.858
56.34000 3.123
56.36000 4.046
56.38000 3.473
56.40000 5.322
56.42000 4.277
56.44000 2.458
56.46000 4.344
56.48000 4.802
56.50000 5.151
56.52000 4.223
56.54000 5.307
56.56000 3.323
56.58000 2.683
56.60000 1.635
56.62000 3.900
56.64000 5.380
56.66000 4.907
56.68000 4.781
56.70000 5.312
56.72000 5.432
56.74000 4.808
56.76000 4.951
56.78000 8.794
56.80000 4.245
56.82000 0.686
56.84000 -1.523
56.86000 7.124
56.88000 7.634
56.90000 0.778
56.92000 1.361
56.94000 1.902
56.96000 2.091
56.98000 4.149
57.00000 0.893
57.02000 3.859
57.04000 4.945
57.06000 3.360
57.08000 4.256
57.10000 8.226
57.12000 6.139
57.14000 0.751
57.16000 2.003
57.18000 2.954
57.20000 -2.812
57.22000 -0.021
57.24000 4.930
57.26000 4.249
57.28000 3.151
57.30000 1.825
57.32000 2.701
57.34000 1.880
57.36000 -0.823
57.38000 2.136
57.40000 6.421
57.42000 5.424
57.44000 5.874
57.46000 4.479
57.48000 2.968
57.50000 3.022
57.52000 4.083
57.54000 7.243
57.56000 3.432
57.58000 4.893
57.60000 5.714
57.62000 0.761
57.64000 0.217
57.66000 0.826
57.68000 3.712
57.70000 4.686
57.72000 0.261
57.74000 2.864
57.76000 4.309
57.78000 4.287
57.80000 10.745
57.82000 10.312
57.84000 3.181
57.86000 -0.836
57.88000 -2.785
57.90000 4.145
57.92000 6.669
57.94000 7.347
57.96000 5.120
57.98000 1.329
58.00000 5.977
58.02000 5.825
58.04000 2.711
58.06000 3.726
58.08000 2.316
58.10000 1.712
58.12000 2.584
58.14000 7.033
58.16000 2.857
58.18000 0.005
58.20000 6.309
58.22000 8.028
58.24000 7.384
58.26000 5.063
58.28000 1.683
58.30000 2.461
58.32000 3.467
58.34000 7.998
58.36000 6.050
58.38000 8.520
58.40000 7.970
58.42000 4.546
58.44000 3.335
58.46000 4.816
58.48000 6.542
58.50000 4.366
58.52000 6.489
58.54000 6.974
58.56000 5.291
58.58000 -0.666
58.60000 4.864
58.62000 4.404
58.64000 -0.437
58.66000 -1.644
58.68000 -2.703
58.70000 2.960
58.72000 0.869
58.74000 2.019
58.76000 8.463
58.78000 9.728
58.80000 4.619
58.82000 6.145
58.84000 3.378
58.86000 1.112
58.88000 -0.551
58.90000 -2.754
58.92000 1.945
58.94000 5.899
58.96000 6.969
58.98000 3.686
59.00000 3.510
59.02000 4.270
59.04000 4.874
59.06000 2.060
59.08000 3.157
59.10000 1.880
59.12000 5.975
59.14000 7.909
59.16000 6.120
59.18000 5.915
59.20000 1.079
59.22000 2.481
59.24000 5.851
59.26000 2.787
59.28000 1.319
59.30000 -2.744
59.32000 1.851
59.34000 9.299
59.36000 4.838
59.38000 3.763
59.40000 8.111
59.42000 4.207
59.44000 0.998
59.46000 1.378
59.48000 2.182
59.50000 -0.238
59.52000 -2.365
59.54000 -2.133
59.56000 -2.747
59.58000 0.382
59.60000 3.284
59.62000 2.215
59.64000 1.310
59.66000 1.403
59.68000 1.538
59.70000 1.915
59.72000 3.818
59.74000 1.929
59.76000 3.602
59.78000 1.421
59.80000 2.752
59.82000 2.515
59.84000 4.168
59.86000 -0.796
59.88000 -1.521
59.90000 1.508
59.92000 -2.185
59.94000 -2.746
59.96000 7.640
59.98000 6.587
60.00000 1.945
60.02000 0.518
60.04000 0.004
60.06000 4.046
60.08000 4.196
60.10000 -2.220
60.12000 -2.099
60.14000 1.620
60.16000 3.321
60.18000 5.217
60.20000 7.050
60.22000 3.801
60.24000 2.760
60.26000 2.999
60.28000 0.805
60.30000 4.035
60.32000 7.254
60.34000 -1.771
60.36000 1.048
60.38000 0.062
60.40000 -0.841
60.42000 3.266
60.44000 7.414
60.46000 1.395
60.48000 -2.740
60.50000 -1.102
60.52000 0.662
60.54000 0.978
60.56000 -2.117
60.58000 -1.171
60.60000 -0.490
60.62000 3.821
60.64000 3.803
60.66000 2.158
60.68000 1.038
60.70000 3.153
60.72000 6.182
60.74000 0.923
60.76000 1.922
60.78000 6.021
60.80000 7.206
60.82000 3.812
60.84000 0.554
60.86000 0.508
60.88000 3.762
60.90000 2.746
60.92000 1.465
60.94000 -0.533
60.96000 -1.267
60.98000 -0.577
61.00000 -1.447
61.02000 -2.724
61.04000 0.970
61.06000 5.472
61.08000 4.536
61.10000 4.581
61.12000 1.622
61.14000 2.542
61.16000 5.619
61.18000 3.597
61.20000 3.457
61.22000 3.507
61.24000 2.749
61.26000 7.385
61.28000 5.367
61.30000 2.731
61.32000 1.824
61.34000 -0.550
61.36000 -0.470
61.38000 3.219
61.40000 3.926
61.42000 1.688
61.44000 -2.493
61.46000 1.493
61.48000 4.841
61.50000 4.739
61.52000 2.799
61.54000 2.460
61.56000 10.862
61.58000 8.141
61.60000 3.988
61.62000 5.796
61.64000 7.422
61.66000 6.254
61.68000 5.989
61.70000 8.807
61.72000 9.140
61.74000 4.837
61.76000 -0.197
61.78000 2.981
61.80000 6.493
61.82000 6.183
61.84000 0.611
61.86000 -0.064
61.88000 1.620
61.90000 5.722
61.92000 5.617
61.94000 7.627
61.96000 0.270
61.98000 -2.474
62.00000 0.040
62.02000 3.994
62.04000 3.511
62.06000 4.649
62.08000 4.530
62.10000 8.394
62.12000 6.838
62.14000 2.220
62.16000 3.816
62.18000 7.443
62.20000 10.393
62.22000 7.625
62.24000 2.907
62.26000 1.667
62.28000 1.258
62.30000 5.363
62.32000 8.022
62.34000 6.691
62.36000 4.038
62.38000 0.612
62.40000 0.992
62.42000 3.298
62.44000 4.453
62.46000 4.904
62.48000 5.265
62.50000 -0.657
62.52000 -2.610
62.54000 1.396
62.56000 3.570
62.58000 3.990
62.60000 5.701
62.62000 6.033
62.64000 6.594
62.66000 3.455
62.68000 2.213
62.70000 7.470
62.72000 4.818
62.74000 4.175
62.76000 11.398
62.78000 10.046
62.80000 6.182
62.82000 1.986
62.84000 0.155
62.86000 4.311
62.88000 11.048
62.90000 9.703
62.92000 3.691
62.94000 4.844
62.96000 5.143
62.98000 6.409
63.00000 4.993
63.02000 6.708
63.04000 4.713
63.06000 4.829
63.08000 6.242
63.10000 8.190
63.12000 3.653
63.14000 1.456
63.16000 -2.205
63.18000 5.539
63.20000 4.661
63.22000 -2.619
63.24000 -2.308
63.26000 0.819
63.28000 3.521
63.30000 5.137
63.32000 3.097
63.34000 2.969
63.36000 1.606
63.38000 1.955
63.40000 8.588
63.42000 8.887
63.44000 0.336
63.46000 0.134
63.48000 3.509
63.50000 5.698
63.52000 10.311
63.54000 6.330
63.56000 0.383
63.58000 1.602
63.60000 4.158
63.62000 2.621
63.64000 0.046
63.66000 3.252
63.68000 0.926
63.70000 -2.049
63.72000 -0.974
63.74000 -2.649
63.76000 -0.652
63.78000 -1.151
63.80000 -1.983
63.82000 1.230
63.84000 3.961
63.86000 3.341
63.88000 4.741
63.90000 0.396
63.92000 -1.547
63.94000 3.732
63.96000 4.112
63.98000 5.485
64.00000 12.031
64.02000 3.780
64.04000 4.894
64.06000 4.304
64.08000 4.738
64.10000 -0.821
64.12000 6.040
64.14000 9.887
64.16000 6.636
64.18000 3.084
64.20000 0.978
64.22000 5.888
64.24000 7.589
64.26000 2.300
64.28000 -0.204
64.30000 3.023
64.32000 7.964
64.34000 5.409
64.36000 1.362
64.38000 3.766
64.40000 1.648
64.42000 -0.647
64.44000 0.690
64.46000 -1.126
64.48000 0.124
64.50000 -1.696
64.52000 -2.668
64.54000 -0.593
64.56000 0.453
64.58000 -0.978
64.60000 3.212
64.62000 5.212
64.64000 5.035
64.66000 -0.114
64.68000 0.703
64.70000 2.539
64.72000 2.333
64.74000 0.314
64.76000 0.867
64.78000 3.552
64.80000 3.132
64.82000 3.935
64.84000 -0.871
64.86000 0.301
64.88000 1.272
64.90000 3.260
64.92000 3.605
64.94000 3.583
64.96000 1.805
64.98000 -2.685
65.00000 -1.756
65.02000 -0.544
65.04000 4.629
65.06000 1.877
65.08000 3.886
65.10000 3.276
65.12000 -2.077
65.14000 0.986
65.16000 -0.420
65.18000 -2.599
65.20000 0.791
65.22000 3.294
65.24000 0.977
65.26000 2.220
65.28000 2.369
65.30000 2.347
65.32000 2.326
65.34000 2.457
65.36000 -1.561
65.38000 2.543
65.40000 5.733
65.42000 4.303
65.44000 3.739
65.46000 3.972
65.48000 2.921
65.50000 0.692
65.52000 2.326
65.54000 2.072
65.56000 -1.488
65.58000 -1.463
65.60000 0.112
65.62000 -0.845
65.64000 1.723
65.66000 5.545
65.68000 3.381
65.70000 -0.648
65.72000 -2.690
65.74000 0.500
65.76000 1.916
65.78000 3.885
65.80000 6.113
65.82000 2.550
65.84000 2.797
65.86000 0.303
65.88000 -1.945
65.90000 -1.372
65.92000 -1.326
65.94000 0.132
65.96000 -1.262
65.98000 3.911
66.00000 2.157
66.02000 0.107
66.04000 0.934
66.06000 2.441
66.08000 1.296
66.10000 3.579
66.12000 3.245
66.14000 4.212
66.16000 2.985
66.18000 4.723
66.20000 6.952
66.22000 5.388
66.24000 6.303
66.26000 6.907
66.28000 2.652
66.30000 1.810
66.32000 0.259
66.34000 4.474
66.36000 5.433
66.38000 4.622
66.40000 4.357
66.42000 1.670
66.44000 2.613
66.46000 1.625
66.48000 2.800
66.50000 2.514
66.52000 -2.667
66.54000 0.372
66.56000 3.918
66.58000 3.636
66.60000 4.255
66.62000 1.443
66.64000 5.181
66.66000 3.997
66.68000 3.442
66.70000 4.839
66.72000 4.903
66.74000 2.251
66.76000 3.946
66.78000 4.707
66.80000 4.512
66.82000 2.597
66.84000 4.333
66.86000 4.973
66.88000 4.549
66.90000 5.595
66.92000 1.467
66.94000 -2.126
66.96000 -2.675
66.98000 -1.507
67.00000 6.284
67.02000 6.106
67.04000 5.530
67.06000 3.894
67.08000 2.765
67.10000 2.374
67.12000 2.538
67.14000 4.919
67.16000 4.185
67.18000 4.822
67.20000 2.657
67.22000 2.684
67.24000 5.348
67.26000 -2.170
67.28000 1.458
67.30000 0.953
67.32000 1.722
67.34000 1.765
67.36000 0.277
67.38000 -0.083
67.40000 4.654
67.42000 4.176
67.44000 5.400
67.46000 1.517
67.48000 -1.324
67.50000 3.534
67.52000 1.323
67.54000 3.987
67.56000 3.149
67.58000 4.188
67.60000 7.169
67.62000 3.487
67.64000 1.562
67.66000 1.365
67.68000 0.240
67.70000 4.044
67.72000 4.220
67.74000 0.043
67.76000 5.053
67.78000 4.295
67.80000 1.417
67.82000 3.131
67.84000 0.326
67.86000 2.864
67.88000 7.677
67.90000 7.647
67.92000 8.561
67.94000 4.456
67.96000 5.605
67.98000 -0.438
68.00000 2.219
68.02000 6.767
68.04000 5.795
68.06000 5.050
68.08000 1.324
68.10000 5.900
68.12000 8.423
68.14000 8.482
68.16000 9.386
68.18000 5.543
68.20000 5.351
68.22000 5.546
68.24000 6.584
68.26000 10.275
68.28000 11.609
68.30000 9.778
68.32000 10.744
68.34000 12.409
68.36000 10.967
68.38000 12.147
68.40000 12.291
68.42000 15.111
68.44000 9.936
68.46000 12.388
68.48000 13.798
68.50000 17.771
68.52000 13.549
68.54000 16.370
68.56000 16.486
68.58000 16.457
68.60000 17.582
68.62000 20.350
68.64000 16.103
68.66000 22.550
68.68000 20.360
68.70000 22.488
68.72000 23.822
68.74000 20.738
68.76000 21.576
68.78000 24.627
68.80000 22.794
68.82000 27.568
68.84000 26.013
68.86000 28.835
68.88000 31.045
68.90000 33.119
68.92000 32.043
68.94000 30.873
68.96000 30.411
68.98000 28.017
69.00000 28.355
69.02000 34.130
69.04000 38.737
69.06000 34.544
69.08000 33.264
69.10000 31.573
69.12000 29.111
69.14000 34.038
69.16000 31.880
69.18000 27.866
69.20000 31.225
69.22000 36.071
69.24000 41.472
69.26000 37.116
69.28000 33.747
69.30000 31.521
69.32000 31.328
69.34000 30.342
69.36000 32.227
69.38000 27.502
69.40000 28.869
69.42000 32.618
69.44000 29.125
69.46000 30.707
69.48000 32.708
69.50000 30.545
69.52000 29.208
69.54000 26.385
69.56000 24.840
69.58000 24.583
69.60000 23.087
69.62000 22.795
69.64000 26.453
69.66000 20.920
69.68000 17.619
69.70000 23.020
69.72000 23.906
69.74000 20.619
69.76000 20.269
69.78000 20.496
69.80000 19.773
69.82000 16.502
69.84000 14.009
69.86000 15.942
69.88000 15.270
69.90000 15.056
69.92000 10.073
69.94000 6.418
69.96000 10.141
69.98000 8.382
70.00000 11.612
70.02000 12.047
70.04000 12.661
70.06000 11.353
70.08000 11.083
70.10000 14.008
70.12000 8.944
70.14000 7.458
70.16000 5.413
70.18000 6.443
70.20000 6.022
70.22000 7.687
70.24000 9.806
70.26000 11.288
70.28000 7.595
70.30000 6.299
70.32000 5.698
70.34000 5.111
70.36000 4.440
70.38000 9.156
70.40000 6.301
70.42000 4.754
70.44000 3.004
70.46000 1.622
70.48000 1.301
70.50000 2.163
70.52000 6.479
70.54000 5.145
70.56000 7.683
70.58000 3.519
70.60000 3.276
70.62000 -0.177
70.64000 -0.725
70.66000 0.561
70.68000 -0.092
70.70000 -2.648
70.72000 0.952
70.74000 -0.657
70.76000 0.107
70.78000 2.081
70.80000 3.597
70.82000 -1.653
70.84000 3.171
70.86000 7.010
70.88000 4.444
70.90000 3.325
70.92000 3.692
70.94000 4.769
70.96000 6.391
70.98000 4.739
71.00000 4.586
71.02000 4.135
71.04000 7.853
71.06000 1.878
71.08000 -0.719
71.10000 2.815
71.12000 1.556
71.14000 -1.520
71.16000 -0.279
71.18000 -1.175
71.20000 3.960
71.22000 0.819
71.24000 -0.410
71.26000 0.877
71.28000 1.262
71.30000 2.877
71.32000 4.083
71.34000 4.841
71.36000 7.207
71.38000 6.244
71.40000 2.676
71.42000 -1.803
71.44000 3.636
71.46000 -0.386
71.48000 -0.326
71.50000 4.119
71.52000 2.441
71.54000 1.480
71.56000 -2.551
71.58000 -2.216
71.60000 0.625
71.62000 -0.320
71.64000 3.089
71.66000 2.929
71.68000 7.552
71.70000 5.576
71.72000 8.916
71.74000 4.414
71.76000 5.600
71.78000 7.200
71.80000 5.124
71.82000 2.891
71.84000 4.053
71.86000 3.609
71.88000 1.468
71.90000 1.109
71.92000 -2.521
71.94000 -0.846
71.96000 -2.076
71.98000 0.693
72.00000 2.552
72.02000 3.504
72.04000 3.048
72.06000 -1.049
72.08000 -1.574
72.10000 2.203
72.12000 1.639
72.14000 3.385
72.16000 2.432
72.18000 2.702
72.20000 -0.057
72.22000 2.655
72.24000 0.774
72.26000 3.199
72.28000 3.105
72.30000 4.055
72.32000 -0.827
72.34000 0.135
72.36000 0.727
72.38000 2.645
72.40000 0.840
72.42000 4.220
72.44000 1.847
72.46000 2.671
72.48000 8.059
72.50000 0.801
72.52000 -0.530
72.54000 4.450
72.56000 4.222
72.58000 0.588
72.60000 2.538
72.62000 2.919
72.64000 2.919
72.66000 2.517
72.68000 1.010
72.70000 0.431
72.72000 6.739
72.74000 3.139
72.76000 -0.772
72.78000 -2.473
72.80000 -0.992
72.82000 -0.355
72.84000 1.791
72.86000 4.640
72.88000 8.869
72.90000 5.711
72.92000 0.389
72.94000 -0.991
72.96000 -1.632
72.98000 -0.516
73.00000 4.206
73.02000 1.284
73.04000 -0.040
73.06000 -1.307
73.08000 -0.362
73.10000 5.242
73.12000 5.467
73.14000 3.006
73.16000 1.854
73.18000 6.095
73.20000 3.383
73.22000 1.502
73.24000 0.109
73.26000 2.003
73.28000 3.960
73.30000 4.356
73.32000 7.450
73.34000 7.442
73.36000 3.014
73.38000 2.029
73.40000 -1.101
73.42000 -2.479
73.44000 2.147
73.46000 1.724
73.48000 3.427
73.50000 3.644
73.52000 4.829
73.54000 5.012
73.56000 2.553
73.58000 5.086
73.60000 9.538
73.62000 2.306
73.64000 3.798
73.66000 4.257
73.68000 5.512
73.70000 3.403
73.72000 0.297
73.74000 -1.637
73.76000 2.410
73.78000 2.734
73.80000 -1.498
73.82000 1.679
73.84000 -1.128
73.86000 3.070
73.88000 2.120
73.90000 1.265
73.92000 -0.660
73.94000 -0.418
73.96000 1.176
73.98000 4.309
74.00000 3.242
74.02000 6.901
74.04000 2.141
74.06000 0.500
74.08000 3.349
74.10000 0.254
74.12000 0.971
74.14000 3.531
74.16000 2.903
74.18000 -2.463
74.20000 1.705
74.22000 1.369
74.24000 2.090
74.26000 1.779
74.28000 2.860
74.30000 3.913
74.32000 3.856
74.34000 3.848
74.36000 4.823
74.38000 1.465
74.40000 2.339
74.42000 3.028
74.44000 1.570
74.46000 0.067
74.48000 1.131
74.50000 3.371
74.52000 2.713
74.54000 -0.454
74.56000 3.227
74.58000 1.414
74.60000 0.313
74.62000 5.466
74.64000 0.076
74.66000 -1.912
74.68000 -0.218
74.70000 1.778
74.72000 3.300
74.74000 2.016
74.76000 -1.630
74.78000 2.638
74.80000 7.831
74.82000 5.204
74.84000 5.631
74.86000 2.328
74.88000 5.158
74.90000 -0.259
74.92000 -1.223
74.94000 1.075
74.96000 4.074
74.98000 3.757
75.00000 0.069
75.02000 2.444
75.04000 2.147
75.06000 4.046
75.08000 0.908
75.10000 -1.639
75.12000 -2.464
75.14000 0.650
75.16000 -0.635
75.18000 2.779
75.20000 7.678
75.22000 9.463
75.24000 9.085
75.26000 5.335
75.28000 1.519
75.30000 1.066
75.32000 2.542
75.34000 1.996
75.36000 2.456
75.38000 0.217
75.40000 4.997
75.42000 11.884
75.44000 6.833
75.46000 3.953
75.48000 1.107
75.50000 0.701
75.52000 3.304
75.54000 -0.596
75.56000 2.948
75.58000 8.535
75.60000 3.070
75.62000 1.934
75.64000 3.761
75.66000 4.873
75.68000 2.805
75.70000 2.610
75.72000 6.324
75.74000 6.215
75.76000 9.223
75.78000 6.342
75.80000 6.914
75.82000 3.985
75.84000 6.261
75.86000 8.943
75.88000 4.646
75.90000 6.091
75.92000 1.912
75.94000 8.519
75.96000 6.310
75.98000 2.217
76.00000 2.051
76.02000 5.879
76.04000 9.034
76.06000 6.180
76.08000 4.674
76.10000 -2.405
76.12000 -0.403
76.14000 5.878
76.16000 5.001
76.18000 5.109
76.20000 4.152
76.22000 7.899
76.24000 7.249
76.26000 -0.023
76.28000 3.264
76.30000 12.157
76.32000 9.011
76.34000 7.771
76.36000 8.990
76.38000 5.817
76.40000 5.691
76.42000 9.449
76.44000 8.137
76.46000 4.616
76.48000 3.746
76.50000 2.854
76.52000 4.011
76.54000 2.845
76.56000 0.227
76.58000 2.120
76.60000 2.711
76.62000 2.341
76.64000 3.764
76.66000 8.320
76.68000 5.015
76.70000 3.928
76.72000 8.333
76.74000 10.147
76.76000 8.211
76.78000 5.096
76.80000 5.959
76.82000 10.255
76.84000 5.550
76.86000 1.181
76.88000 4.298
76.90000 6.320
76.92000 10.621
76.94000 7.496
76.96000 5.921
76.98000 5.009
77.00000 4.679
77.02000 5.710
77.04000 4.958
77.06000 5.799
77.08000 7.598
77.10000 1.577
77.12000 4.947
77.14000 8.744
77.16000 6.743
77.18000 3.095
77.20000 2.852
77.22000 5.764
77.24000 5.229
77.26000 6.831
77.28000 3.051
77.30000 1.778
77.32000 6.157
77.34000 3.701
77.36000 -0.720
77.38000 -1.241
77.40000 -1.132
77.42000 -2.458
77.44000 -0.126
77.46000 2.678
77.48000 2.672
77.50000 3.022
77.52000 2.787
77.54000 1.277
77.56000 5.056
77.58000 4.809
77.60000 1.579
77.62000 -1.214
77.64000 -2.464
77.66000 4.194
77.68000 5.314
77.70000 5.908
77.72000 8.371
77.74000 5.614
77.76000 4.546
77.78000 8.748
77.80000 4.471
77.82000 5.222
77.84000 10.052
77.86000 8.796
77.88000 7.639
77.90000 6.834
77.92000 2.038
77.94000 0.100
77.96000 0.144
77.98000 6.716
78.00000 7.626
78.02000 3.792
78.04000 1.692
78.06000 6.615
78.08000 5.426
78.10000 5.514
78.12000 3.197
78.14000 -2.472
78.16000 -0.667
78.18000 3.277
78.20000 5.200
78.22000 6.207
78.24000 5.566
78.26000 2.261
78.28000 4.892
78.30000 5.234
78.32000 1.517
78.34000 2.996
78.36000 3.861
78.38000 -1.181
78.40000 -0.036
78.42000 3.198
78.44000 0.141
78.46000 5.864
78.48000 5.144
78.50000 5.378
78.52000 6.757
78.54000 6.364
78.56000 3.838
78.58000 3.268
78.60000 3.574
78.62000 2.227
78.64000 2.061
78.66000 4.468
78.68000 -0.457
78.70000 -0.073
78.72000 4.663
78.74000 3.289
78.76000 3.305
78.78000 3.433
78.80000 4.661
78.82000 -2.357
78.84000 3.707
78.86000 1.321
78.88000 3.179
78.90000 3.147
78.92000 1.502
78.94000 2.905
78.96000 3.514
78.98000 4.568
79.00000 0.653
79.02000 -2.489
79.04000 0.878
79.06000 3.941
79.08000 1.184
79.10000 1.762
79.12000 3.599
79.14000 2.239
79.16000 -0.321
79.18000 0.877
79.20000 2.967
79.22000 6.571
79.24000 3.747
79.26000 2.044
79.28000 4.923
79.30000 3.472
79.32000 5.790
79.34000 7.953
79.36000 8.534
79.38000 8.340
79.40000 9.631
79.42000 9.490
79.44000 7.617
79.46000 4.698
79.48000 0.231
79.50000 -2.505
79.52000 3.738
79.54000 5.257
79.56000 6.835
79.58000 5.058
79.60000 3.243
79.62000 1.970
79.64000 1.295
79.66000 0.180
79.68000 4.847
79.70000 0.661
79.72000 3.696
79.74000 4.587
79.76000 -0.469
79.78000 3.331
79.80000 4.870
79.82000 3.982
79.84000 1.589
79.86000 4.198
79.88000 0.968
79.90000 -0.012
79.92000 2.230
79.94000 4.261
79.96000 4.447
79.98000 1.749
80.00000 4.319
80.02000 3.623
80.04000 2.726
80.06000 2.876
80.08000 2.197
80.10000 3.869
80.12000 6.730
80.14000 1.648
80.16000 -2.517
80.18000 1.472
80.20000 4.243
80.22000 8.033
80.24000 6.075
80.26000 1.093
80.28000 -1.859
80.30000 1.499
80.32000 1.912
80.34000 3.583
80.36000 0.070
80.38000 4.340
80.40000 3.588
80.42000 3.205
80.44000 4.348
80.46000 2.004
80.48000 0.398
80.50000 5.429
80.52000 4.450
80.54000 2.945
80.56000 4.049
80.58000 5.083
80.60000 1.764
80.62000 -0.786
80.64000 4.480
80.66000 0.016
80.68000 -1.623
80.70000 0.609
80.72000 7.886
80.74000 3.764
80.76000 4.152
80.78000 1.378
80.80000 -2.551
80.82000 0.004
80.84000 4.815
80.86000 5.212
80.88000 4.467
80.90000 0.945
80.92000 2.077
80.94000 1.971
80.96000 4.668
80.98000 -0.731
81.00000 -0.435
81.02000 4.839
81.04000 6.024
81.06000 4.379
81.08000 1.314
81.10000 -2.563
81.12000 -2.469
81.14000 -1.159
81.16000 0.168
81.18000 1.823
81.20000 -0.952
81.22000 4.172
81.24000 1.343
81.26000 -0.147
81.28000 5.281
81.30000 3.181
81.32000 6.808
81.34000 7.163
81.36000 3.604
81.38000 1.162
81.40000 -1.692
81.42000 -0.990
81.44000 3.452
81.46000 7.495
81.48000 4.959
81.50000 -0.478
81.52000 1.145
81.54000 3.207
81.56000 3.929
81.58000 6.025
81.60000 2.354
81.62000 -0.653
81.64000 5.190
81.66000 9.955
81.68000 4.281
81.70000 -0.638
81.72000 -0.703
81.74000 3.926
81.76000 1.415
81.78000 4.985
81.80000 1.374
81.82000 2.206
81.84000 -2.073
81.86000 5.009
81.88000 11.591
81.90000 7.388
81.92000 -1.015
81.94000 5.854
81.96000 1.504
81.98000 1.627
82.00000 4.920
82.02000 8.522
82.04000 11.086
82.06000 5.715
82.08000 4.742
82.10000 4.795
82.12000 5.454
82.14000 7.084
82.16000 3.319
82.18000 6.436
82.20000 5.350
82.22000 4.457
82.24000 7.812
82.26000 8.304
82.28000 13.196
82.30000 8.857
82.32000 11.009
82.34000 15.313
82.36000 9.554
82.38000 5.955
82.40000 10.744
82.42000 8.190
82.44000 10.092
82.46000 15.713
82.48000 7.605
82.50000 5.252
82.52000 11.162
82.54000 8.800
82.56000 8.253
82.58000 11.659
82.60000 15.604
82.62000 10.622
82.64000 7.279
82.66000 8.821
82.68000 12.204
82.70000 14.158
82.72000 10.980
82.74000 11.013
82.76000 8.617
82.78000 13.180
82.80000 18.803
82.82000 15.479
82.84000 21.392
82.86000 18.589
82.88000 12.475
82.90000 16.266
82.92000 16.218
82.94000 11.434
82.96000 10.835
82.98000 16.392
83.00000 21.115
83.02000 20.543
83.04000 16.309
83.06000 15.186
83.08000 10.209
83.10000 21.061
83.12000 26.523
83.14000 24.601
83.16000 28.116
83.18000 28.127
83.20000 22.894
83.22000 25.524
83.24000 26.491
83.26000 27.294
83.28000 29.912
83.30000 24.773
83.32000 22.214
83.34000 33.605
83.36000 32.242
83.38000 28.240
83.40000 25.927
83.42000 23.997
83.44000 22.983
83.46000 26.085
83.48000 30.634
83.50000 36.325
83.52000 29.625
83.54000 21.360
83.56000 24.548
83.58000 34.071
83.60000 31.305
83.62000 24.942
83.64000 22.763
83.66000 31.007
83.68000 39.550
83.70000 38.256
83.72000 39.272
83.74000 39.528
83.76000 29.246
83.78000 30.467
83.80000 35.800
83.82000 39.478
83.84000 32.562
83.86000 31.774
83.88000 29.102
83.90000 30.245
83.92000 31.604
83.94000 31.575
83.96000 32.805
83.98000 27.902
84.00000 32.149
84.02000 30.684
84.04000 29.344
84.06000 29.359
84.08000 25.155
84.10000 29.324
84.12000 23.404
84.14000 19.520
84.16000 23.947
84.18000 27.862
84.20000 24.968
84.22000 20.895
84.24000 25.538
84.26000 23.009
84.28000 26.423
84.30000 20.691
84.32000 18.224
84.34000 18.891
84.36000 18.801
84.38000 15.513
84.40000 13.570
84.42000 14.191
84.44000 12.972
84.46000 12.513
84.48000 12.296
84.50000 10.987
84.52000 16.377
84.54000 10.876
84.56000 13.367
84.58000 13.237
84.60000 15.011
84.62000 17.227
84.64000 13.185
84.66000 10.581
84.68000 10.801
84.70000 18.015
84.72000 17.680
84.74000 11.679
84.76000 14.699
84.78000 14.754
84.80000 12.572
84.82000 6.416
84.84000 5.830
84.86000 2.347
84.88000 5.951
84.90000 6.975
84.92000 12.645
84.94000 9.453
84.96000 3.942
84.98000 3.296
85.00000 2.331
85.02000 7.437
85.04000 8.664
85.06000 8.463
85.08000 6.722
85.10000 1.166
85.12000 2.556
85.14000 8.285
85.16000 6.859
85.18000 -2.600
85.20000 4.968
85.22000 5.644
85.24000 5.281
85.26000 10.260
85.28000 4.699
85.30000 1.374
85.32000 3.672
85.34000 7.376
85.36000 9.533
85.38000 5.480
85.40000 4.290
85.42000 5.698
85.44000 4.551
85.46000 2.578
85.48000 3.730
85.50000 6.826
85.52000 12.481
85.54000 4.656
85.56000 5.553
85.58000 5.302
85.60000 8.050
85.62000 5.244
85.64000 5.900
85.66000 10.058
85.68000 5.640
85.70000 1.934
85.72000 5.337
85.74000 6.490
85.76000 7.410
85.78000 1.855
85.80000 0.354
85.82000 3.919
85.84000 8.728
85.86000 8.945
85.88000 4.846
85.90000 -2.493
85.92000 1.868
85.94000 4.619
85.96000 5.439
85.98000 7.930
86.00000 9.195
86.02000 3.229
86.04000 2.726
86.06000 0.465
86.08000 3.947
86.10000 6.227
86.12000 4.297
86.14000 3.405
86.16000 3.258
86.18000 5.303
86.20000 7.310
86.22000 8.576
86.24000 9.826
86.26000 5.160
86.28000 3.905
86.30000 8.973
86.32000 10.389
86.34000 5.514
86.36000 1.517
86.38000 1.492
86.40000 9.094
86.42000 4.753
86.44000 2.318
86.46000 3.967
86.48000 4.849
86.50000 1.562
86.52000 -2.303
86.54000 0.805
86.56000 0.653
86.58000 2.664
86.60000 0.484
86.62000 -0.662
86.64000 4.462
86.66000 4.718
86.68000 2.500
86.70000 -2.566
86.72000 1.351
86.74000 12.837
86.76000 12.069
86.78000 6.902
86.80000 6.522
86.82000 6.845
86.84000 5.912
86.86000 3.614
86.88000 9.411
86.90000 10.233
86.92000 7.832
86.94000 8.265
86.96000 7.576
86.98000 9.274
87.00000 6.784
87.02000 5.938
87.04000 8.325
87.06000 9.272
87.08000 10.707
87.10000 17.128
87.12000 13.335
87.14000 14.852
87.16000 13.040
87.18000 10.691
87.20000 10.689
87.22000 8.217
87.24000 10.933
87.26000 8.449
87.28000 11.086
87.30000 12.239
87.32000 13.030
87.34000 12.811
87.36000 12.391
87.38000 14.311
87.40000 15.050
87.42000 14.790
87.44000 13.987
87.46000 20.398
87.48000 21.568
87.50000 21.866
87.52000 22.513
87.54000 19.974
87.56000 22.483
87.58000 21.525
87.60000 19.254
87.62000 17.582
87.64000 17.648
87.66000 19.486
87.68000 19.075
87.70000 19.271
87.72000 23.630
87.74000 26.186
87.76000 21.620
87.78000 23.854
87.80000 23.984
87.82000 22.506
87.84000 24.050
87.86000 24.623
87.88000 27.762
87.90000 29.496
87.92000 30.857
87.94000 25.650
87.96000 24.177
87.98000 29.283
88.00000 26.240
88.02000 22.523
88.04000 20.472
88.06000 17.357
88.08000 21.421
88.10000 28.315
88.12000 28.824
88.14000 28.339
88.16000 27.798
88.18000 26.479
88.20000 34.038
88.22000 28.213
88.24000 25.322
88.26000 28.220
88.28000 25.583
88.30000 28.198
88.32000 30.176
88.34000 29.353
88.36000 33.287
88.38000 31.594
88.40000 26.208
88.42000 21.958
88.44000 18.088
88.46000 27.366
88.48000 26.673
88.50000 25.156
88.52000 29.458
88.54000 34.576
88.56000 32.643
88.58000 27.398
88.60000 23.150
88.62000 19.178
88.64000 20.685
88.66000 24.001
88.68000 22.329
88.70000 26.374
88.72000 25.354
88.74000 22.073
88.76000 18.570
88.78000 15.853
88.80000 18.262
88.82000 17.281
88.84000 21.789
88.86000 15.471
88.88000 18.984
88.90000 20.350
88.92000 16.210
88.94000 20.307
88.96000 21.706
88.98000 14.171
89.00000 11.371
89.02000 15.338
89.04000 19.037
89.06000 14.806
89.08000 14.871
89.10000 10.502
89.12000 13.189
89.14000 12.705
89.16000 11.765
89.18000 10.567
89.20000 12.271
89.22000 5.751
89.24000 5.277
89.26000 5.810
89.28000 6.107
89.30000 5.257
89.32000 3.681
89.34000 6.037
89.36000 1.600
89.38000 5.729
89.40000 5.904
89.42000 7.795
89.44000 7.408
89.46000 8.929
89.48000 6.187
89.50000 7.520
89.52000 1.923
89.54000 6.778
89.56000 2.881
89.58000 -0.230
89.60000 5.543
89.62000 7.758
89.64000 6.726
89.66000 6.217
89.68000 7.216
89.70000 7.915
89.72000 4.714
89.74000 -2.266
89.76000 -0.772
89.78000 4.990
89.80000 5.045
89.82000 0.756
89.84000 -0.175
89.86000 4.937
89.88000 1.187
89.90000 1.625
89.92000 3.140
89.94000 5.314
89.96000 3.671
89.98000 1.831
90.00000 -0.943
90.02000 -1.903
90.04000 2.417
90.06000 3.300
90.08000 -0.482
90.10000 -0.432
90.12000 -0.738
90.14000 0.021
90.16000 -2.398
90.18000 0.587
90.20000 1.922
90.22000 6.025
90.24000 -0.693
90.26000 1.897
90.28000 4.722
90.30000 0.206
90.32000 0.904
90.34000 2.546
90.36000 2.862
90.38000 3.981
90.40000 7.256
90.42000 6.031
90.44000 4.514
90.46000 4.284
90.48000 -0.728
90.50000 3.967
90.52000 6.661
90.54000 -1.646
90.56000 -2.351
90.58000 2.076
90.60000 2.012
90.62000 9.764
90.64000 9.475
90.66000 5.048
90.68000 -2.096
90.70000 -1.042
90.72000 3.309
90.74000 5.208
90.76000 0.862
90.78000 3.462
90.80000 4.150
90.82000 3.216
90.84000 3.992
90.86000 6.463
90.88000 2.077
90.90000 -1.156
90.92000 1.961
90.94000 0.952
90.96000 1.408
90.98000 4.615
91.00000 2.306
91.02000 1.596
91.04000 1.759
91.06000 3.022
91.08000 1.998
91.10000 1.679
91.12000 1.569
91.14000 3.057
91.16000 5.899
91.18000 3.071
91.20000 4.114
91.22000 3.021
91.24000 -1.617
91.26000 -0.456
91.28000 2.191
91.30000 3.448
91.32000 3.948
91.34000 5.761
91.36000 0.840
91.38000 0.134
91.40000 3.115
91.42000 0.784
91.44000 1.288
91.46000 7.910
91.48000 9.292
91.50000 8.061
91.52000 8.042
91.54000 7.675
91.56000 4.184
91.58000 2.219
91.60000 5.299
91.62000 2.725
91.64000 7.448
91.66000 7.340
91.68000 10.557
91.70000 8.173
91.72000 8.939
91.74000 6.524
91.76000 2.492
91.78000 5.786
91.80000 6.892
91.82000 3.176
91.84000 2.403
91.86000 -0.572
91.88000 -2.317
91.90000 4.802
91.92000 4.192
91.94000 4.531
91.96000 1.753
91.98000 6.097
92.00000 4.760
92.02000 5.043
92.04000 2.217
92.06000 2.314
92.08000 0.389
92.10000 2.689
92.12000 -2.327
92.14000 2.437
92.16000 9.611
92.18000 9.283
92.20000 3.965
92.22000 7.942
92.24000 3.779
92.26000 3.707
92.28000 2.533
92.30000 5.806
92.32000 6.191
92.34000 8.827
92.36000 3.964
92.38000 3.701
92.40000 3.838
92.42000 3.769
92.44000 -1.229
92.46000 -0.799
92.48000 0.374
92.50000 0.602
92.52000 3.195
92.54000 6.727
92.56000 6.101
92.58000 7.463
92.60000 6.730
92.62000 5.652
92.64000 2.318
92.66000 6.015
92.68000 10.319
92.70000 4.562
92.72000 3.502
92.74000 -0.293
92.76000 -1.858
92.78000 3.858
92.80000 6.602
92.82000 3.793
92.84000 -0.140
92.86000 5.899
92.88000 4.727
92.90000 1.239
92.92000 1.539
92.94000 5.417
92.96000 5.468
92.98000 3.821
93.00000 4.984
93.02000 5.414
93.04000 5.755
93.06000 7.595
93.08000 9.482
93.10000 8.203
93.12000 10.400
93.14000 6.236
93.16000 0.573
93.18000 6.541
93.20000 4.909
93.22000 6.239
93.24000 2.908
93.26000 3.721
93.28000 5.074
93.30000 4.800
93.32000 1.640
93.34000 5.870
93.36000 1.707
93.38000 1.902
93.40000 2.506
93.42000 -2.334
93.44000 0.657
93.46000 8.774
93.48000 9.633
93.50000 7.594
93.52000 5.458
93.54000 1.975
93.56000 3.948
93.58000 6.410
93.60000 -0.308
93.62000 3.727
93.64000 1.922
93.66000 1.057
93.68000 1.191
93.70000 1.481
93.72000 0.636
93.74000 2.443
93.76000 5.478
93.78000 -0.924
93.80000 0.146
93.82000 2.585
93.84000 -1.029
93.86000 4.106
93.88000 3.175
93.90000 2.356
93.92000 6.006
93.94000 8.266
93.96000 12.448
93.98000 12.755
94.00000 4.010
94.02000 1.966
94.04000 5.511
94.06000 4.585
94.08000 7.563
94.10000 7.280
94.12000 8.271
94.14000 9.070
94.16000 3.234
94.18000 5.830
94.20000 2.269
94.22000 -1.443
94.24000 1.054
94.26000 5.425
94.28000 4.821
94.30000 0.679
94.32000 3.427
94.34000 0.701
94.36000 3.285
94.38000 5.101
94.40000 4.265
94.42000 5.119
94.44000 3.161
94.46000 2.516
94.48000 2.164
94.50000 -1.958
94.52000 2.892
94.54000 7.572
94.56000 10.354
94.58000 6.705
94.60000 -1.609
94.62000 -1.340
94.64000 3.091
94.66000 6.636
94.68000 7.511
94.70000 -0.050
94.72000 0.487
94.74000 3.779
94.76000 4.012
94.78000 6.510
94.80000 9.996
94.82000 5.621
94.84000 -2.349
94.86000 2.945
94.88000 5.491
94.90000 5.247
94.92000 7.891
94.94000 7.418
94.96000 5.940
94.98000 4.249
95.00000 3.361
95.02000 4.084
95.04000 4.630
95.06000 7.770
95.08000 2.710
95.10000 6.806
95.12000 6.376
95.14000 7.781
95.16000 7.084
95.18000 3.484
95.20000 0.359
95.22000 9.311
95.24000 6.881
95.26000 -2.324
95.28000 3.499
95.30000 3.128
95.32000 5.132
95.34000 5.721
95.36000 3.458
95.38000 4.937
95.40000 9.035
95.42000 6.731
95.44000 4.655
95.46000 7.213
95.48000 7.105
95.50000 4.779
95.52000 3.068
95.54000 3.258
95.56000 5.373
95.58000 7.694
95.60000 13.451
95.62000 10.116
95.64000 3.204
95.66000 1.864
95.68000 4.444
95.70000 8.165
95.72000 6.876
95.74000 7.753
95.76000 6.559
95.78000 6.793
95.80000 4.096
95.82000 3.276
95.84000 2.521
95.86000 2.890
95.88000 -0.003
95.90000 5.365
95.92000 6.249
95.94000 9.382
95.96000 1.385
95.98000 0.559
96.00000 1.278
96.02000 2.170
96.04000 0.121
96.06000 -1.551
96.08000 -0.242
96.10000 0.153
96.12000 5.085
96.14000 10.318
96.16000 1.129
96.18000 0.527
96.20000 0.718
96.22000 2.302
96.24000 5.562
96.26000 6.150
96.28000 0.438
96.30000 1.564
96.32000 3.818
96.34000 2.696
96.36000 2.971
96.38000 13.108
96.40000 15.550
96.42000 4.401
96.44000 1.663
96.46000 9.397
96.48000 9.041
96.50000 5.719
96.52000 2.392
96.54000 4.810
96.56000 5.491
96.58000 8.292
96.60000 9.065
96.62000 4.712
96.64000 6.128
96.66000 8.643
96.68000 8.188
96.70000 6.825
96.72000 9.863
96.74000 8.026
96.76000 2.767
96.78000 3.825
96.80000 4.675
96.82000 5.297
96.84000 4.711
96.86000 4.887
96.88000 4.539
96.90000 -2.335
96.92000 5.989
96.94000 5.267
96.96000 5.346
96.98000 5.335
97.00000 1.730
97.02000 0.665
97.04000 15.573
97.06000 12.090
97.08000 8.233
97.10000 6.007
97.12000 5.791
97.14000 8.068
97.16000 10.328
97.18000 9.204
97.20000 7.004
97.22000 8.700
97.24000 3.832
97.26000 4.757
97.28000 4.554
97.30000 11.138
97.32000 9.023
97.34000 0.365
97.36000 2.594
97.38000 13.860
97.40000 11.236
97.42000 11.501
97.44000 6.240
97.46000 2.765
97.48000 2.385
97.50000 10.547
97.52000 16.554
97.54000 7.782
97.56000 8.450
97.58000 5.860
97.60000 5.335
97.62000 5.230
97.64000 10.873
97.66000 1.632
97.68000 2.635
97.70000 11.959
97.72000 10.708
97.74000 3.496
97.76000 2.379
97.78000 4.434
97.80000 5.699
97.82000 14.357
97.84000 11.702
97.86000 9.429
97.88000 14.162
97.90000 10.924
97.92000 3.303
97.94000 -2.748
97.96000 8.028
97.98000 10.157
98.00000 9.045
98.02000 12.266
98.04000 7.273
98.06000 7.951
98.08000 3.457
98.10000 2.625
98.12000 6.817
98.14000 3.904
98.16000 6.595
98.18000 11.266
98.20000 11.682
98.22000 11.114
98.24000 1.855
98.26000 9.803
98.28000 5.612
98.30000 12.417
98.32000 14.670
98.34000 7.578
98.36000 9.952
98.38000 9.749
98.40000 5.108
98.42000 -0.780
98.44000 -1.892
98.46000 -0.212
98.48000 4.679
98.50000 17.510
98.52000 9.706
98.54000 3.962
98.56000 2.975
98.58000 -0.562
98.60000 4.249
98.62000 13.984
98.64000 20.030
98.66000 25.351
98.68000 15.077
98.70000 9.912
98.72000 1.613
98.74000 -1.774
98.76000 6.432
98.78000 3.023
98.80000 11.031
98.82000 13.323
98.84000 6.243
98.86000 1.236
98.88000 4.246
98.90000 0.551
98.92000 5.828
98.94000 6.940
98.96000 8.858
98.98000 3.918
99.00000 9.547
99.02000 4.333
99.04000 14.408
99.06000 6.392
99.08000 5.956
99.10000 4.958
99.12000 7.508
99.14000 7.791
99.16000 16.004
99.18000 3.691
99.20000 -2.277
99.22000 1.252
99.24000 3.791
99.26000 6.335
99.28000 6.502
99.30000 6.208
99.32000 9.357
99.34000 5.619
99.36000 -0.461
99.38000 -1.644
99.40000 0.678
99.42000 -1.474
99.44000 -1.286
99.46000 6.136
99.48000 2.915
99.50000 8.213
99.52000 2.683
99.54000 -3.914
99.56000 8.441
99.58000 -0.185
99.60000 -0.062
99.62000 9.861
99.64000 4.025
99.66000 0.576
99.68000 -1.939
99.70000 7.371
99.72000 2.404
99.74000 8.913
99.76000 6.390
99.78000 9.252
99.80000 6.652
99.82000 4.344
99.84000 0.342
99.86000 -2.258
99.88000 -2.400
99.90000 -2.428
99.92000 0.872
99.94000 -2.518
99.96000 -2.632
99.98000 0.000
