'Id: "0011389" Comment: "Integrate frame 0011389_Au-Ir-Rh_Au-Rich_XRD_Mapping-236-0000.gfrmwith cursor Wedge Cursor #5" Operator: "B?rgel" Anode: "Cu" Wavelength: "1.5406" Scantype: "2Theta (TwoTheta)" TimePerStep: "1" X: "27" Y: "13.5" Z: "5.95" 
10.00000 0.000
10.02000 3.560
10.04000 6.739
10.06000 0.556
10.08000 12.238
10.10000 14.013
10.12000 0.000
10.14000 9.674
10.16000 17.528
10.18000 7.507
10.20000 0.952
10.22000 16.379
10.24000 4.970
10.26000 8.637
10.28000 16.520
10.30000 14.671
10.32000 10.541
10.34000 8.675
10.36000 11.819
10.38000 16.559
10.40000 10.639
10.42000 11.150
10.44000 5.581
10.46000 -0.717
10.48000 6.756
10.50000 -3.737
10.52000 6.631
10.54000 17.044
10.56000 23.497
10.58000 15.446
10.60000 6.677
10.62000 17.866
10.64000 11.370
10.66000 12.436
10.68000 10.261
10.70000 5.559
10.72000 8.145
10.74000 17.502
10.76000 26.648
10.78000 29.007
10.80000 11.684
10.82000 6.579
10.84000 11.942
10.86000 13.401
10.88000 -1.128
10.90000 5.972
10.92000 15.389
10.94000 20.716
10.96000 18.572
10.98000 15.901
11.00000 12.061
11.02000 10.282
11.04000 1.837
11.06000 13.299
11.08000 17.559
11.10000 27.988
11.12000 16.027
11.14000 8.808
11.16000 12.901
11.18000 22.054
11.20000 24.093
11.22000 27.443
11.24000 22.426
11.26000 13.217
11.28000 21.917
11.30000 27.687
11.32000 17.219
11.34000 24.083
11.36000 26.065
11.38000 33.139
11.40000 24.422
11.42000 39.192
11.44000 30.072
11.46000 35.921
11.48000 29.194
11.50000 25.894
11.52000 24.998
11.54000 30.656
11.56000 19.862
11.58000 21.813
11.60000 26.862
11.62000 24.824
11.64000 13.272
11.66000 18.610
11.68000 25.190
11.70000 29.021
11.72000 30.824
11.74000 29.376
11.76000 21.080
11.78000 22.589
11.80000 28.109
11.82000 21.830
11.84000 25.633
11.86000 34.040
11.88000 36.174
11.90000 21.544
11.92000 13.641
11.94000 14.115
11.96000 11.398
11.98000 17.816
12.00000 25.980
12.02000 23.936
12.04000 25.364
12.06000 27.500
12.08000 23.966
12.10000 28.604
12.12000 24.199
12.14000 22.961
12.16000 22.984
12.18000 21.976
12.20000 26.088
12.22000 22.109
12.24000 25.591
12.26000 31.877
12.28000 26.922
12.30000 27.833
12.32000 31.668
12.34000 21.036
12.36000 24.440
12.38000 36.054
12.40000 28.370
12.42000 30.141
12.44000 33.590
12.46000 37.662
12.48000 25.144
12.50000 30.989
12.52000 29.706
12.54000 24.799
12.56000 24.495
12.58000 25.811
12.60000 32.699
12.62000 32.964
12.64000 29.829
12.66000 24.750
12.68000 26.625
12.70000 28.534
12.72000 36.102
12.74000 41.575
12.76000 40.517
12.78000 28.057
12.80000 25.458
12.82000 33.331
12.84000 37.088
12.86000 34.186
12.88000 34.889
12.90000 35.758
12.92000 27.743
12.94000 28.640
12.96000 33.526
12.98000 29.626
13.00000 30.039
13.02000 23.669
13.04000 28.734
13.06000 23.124
13.08000 13.477
13.10000 15.282
13.12000 29.646
13.14000 40.567
13.16000 41.663
13.18000 33.122
13.20000 36.718
13.22000 42.285
13.24000 39.558
13.26000 34.303
13.28000 31.347
13.30000 32.979
13.32000 32.869
13.34000 33.403
13.36000 29.142
13.38000 21.356
13.40000 23.080
13.42000 26.150
13.44000 40.679
13.46000 22.156
13.48000 14.361
13.50000 25.969
13.52000 31.315
13.54000 32.242
13.56000 34.319
13.58000 45.857
13.60000 30.412
13.62000 17.670
13.64000 22.727
13.66000 24.325
13.68000 24.900
13.70000 25.152
13.72000 28.640
13.74000 34.714
13.76000 26.117
13.78000 25.954
13.80000 23.255
13.82000 14.567
13.84000 18.486
13.86000 24.304
13.88000 22.461
13.90000 24.874
13.92000 26.548
13.94000 23.510
13.96000 21.108
13.98000 17.094
14.00000 18.126
14.02000 21.118
14.04000 32.626
14.06000 31.331
14.08000 31.184
14.10000 20.773
14.12000 20.986
14.14000 19.540
14.16000 25.699
14.18000 21.960
14.20000 11.447
14.22000 19.938
14.24000 30.647
14.26000 34.892
14.28000 27.628
14.30000 22.390
14.32000 31.575
14.34000 28.314
14.36000 23.386
14.38000 26.803
14.40000 28.770
14.42000 27.711
14.44000 20.797
14.46000 18.074
14.48000 17.764
14.50000 10.855
14.52000 10.492
14.54000 15.607
14.56000 24.511
14.58000 24.101
14.60000 21.020
14.62000 14.204
14.64000 11.267
14.66000 11.585
14.68000 13.472
14.70000 23.925
14.72000 23.229
14.74000 22.681
14.76000 28.467
14.78000 24.124
14.80000 18.267
14.82000 18.129
14.84000 26.005
14.86000 19.333
14.88000 11.314
14.90000 10.150
14.92000 14.014
14.94000 24.871
14.96000 20.113
14.98000 13.621
15.00000 23.016
15.02000 23.073
15.04000 12.982
15.06000 23.840
15.08000 17.003
15.10000 10.479
15.12000 10.769
15.14000 8.300
15.16000 13.389
15.18000 19.024
15.20000 21.311
15.22000 20.740
15.24000 21.749
15.26000 7.449
15.28000 6.877
15.30000 16.261
15.32000 14.421
15.34000 12.501
15.36000 16.240
15.38000 13.296
15.40000 13.597
15.42000 16.203
15.44000 13.831
15.46000 21.462
15.48000 28.734
15.50000 20.344
15.52000 11.053
15.54000 7.929
15.56000 14.115
15.58000 11.389
15.60000 12.211
15.62000 11.828
15.64000 8.020
15.66000 15.987
15.68000 11.249
15.70000 8.654
15.72000 14.475
15.74000 10.503
15.76000 5.098
15.78000 8.376
15.80000 10.883
15.82000 8.836
15.84000 15.219
15.86000 15.538
15.88000 12.178
15.90000 19.813
15.92000 19.743
15.94000 15.205
15.96000 12.272
15.98000 11.317
16.00000 4.064
16.02000 5.041
16.04000 13.207
16.06000 5.011
16.08000 9.223
16.10000 20.205
16.12000 14.830
16.14000 13.304
16.16000 10.776
16.18000 5.911
16.20000 3.966
16.22000 8.592
16.24000 10.013
16.26000 16.431
16.28000 5.639
16.30000 10.020
16.32000 17.150
16.34000 8.290
16.36000 4.601
16.38000 2.826
16.40000 5.764
16.42000 3.651
16.44000 0.307
16.46000 1.202
16.48000 6.976
16.50000 4.514
16.52000 12.503
16.54000 20.525
16.56000 11.546
16.58000 2.597
16.60000 6.752
16.62000 10.837
16.64000 7.645
16.66000 9.016
16.68000 11.300
16.70000 16.180
16.72000 13.050
16.74000 16.006
16.76000 11.965
16.78000 11.018
16.80000 12.100
16.82000 10.328
16.84000 11.765
16.86000 8.999
16.88000 12.911
16.90000 9.721
16.92000 4.125
16.94000 1.629
16.96000 7.305
16.98000 5.047
17.00000 2.644
17.02000 11.954
17.04000 10.105
17.06000 7.893
17.08000 11.132
17.10000 5.392
17.12000 7.174
17.14000 11.071
17.16000 16.641
17.18000 15.332
17.20000 8.729
17.22000 8.256
17.24000 1.899
17.26000 3.677
17.28000 10.519
17.30000 7.724
17.32000 6.769
17.34000 0.337
17.36000 8.453
17.38000 10.054
17.40000 3.887
17.42000 8.210
17.44000 11.524
17.46000 14.049
17.48000 14.887
17.50000 -0.408
17.52000 1.215
17.54000 3.647
17.56000 14.331
17.58000 13.283
17.60000 1.846
17.62000 -1.223
17.64000 12.115
17.66000 18.597
17.68000 10.800
17.70000 4.166
17.72000 7.632
17.74000 9.561
17.76000 3.270
17.78000 1.644
17.80000 6.776
17.82000 4.693
17.84000 2.796
17.86000 3.032
17.88000 6.875
17.90000 14.810
17.92000 15.342
17.94000 3.283
17.96000 6.618
17.98000 6.456
18.00000 6.937
18.02000 3.038
18.04000 8.869
18.06000 9.209
18.08000 6.958
18.10000 7.009
18.12000 2.839
18.14000 13.598
18.16000 19.063
18.18000 12.257
18.20000 13.454
18.22000 14.377
18.24000 5.622
18.26000 4.650
18.28000 2.755
18.30000 5.853
18.32000 -4.346
18.34000 -4.144
18.36000 0.084
18.38000 5.595
18.40000 3.282
18.42000 3.416
18.44000 9.041
18.46000 10.642
18.48000 8.656
18.50000 5.048
18.52000 2.530
18.54000 3.486
18.56000 -0.340
18.58000 -1.849
18.60000 -2.379
18.62000 3.087
18.64000 9.549
18.66000 1.377
18.68000 8.754
18.70000 11.259
18.72000 11.074
18.74000 9.698
18.76000 1.189
18.78000 -1.206
18.80000 -1.325
18.82000 -4.330
18.84000 1.565
18.86000 8.073
18.88000 4.462
18.90000 -2.846
18.92000 0.377
18.94000 1.010
18.96000 7.233
18.98000 6.787
19.00000 8.394
19.02000 3.556
19.04000 0.228
19.06000 -2.024
19.08000 3.018
19.10000 5.668
19.12000 9.988
19.14000 9.464
19.16000 6.800
19.18000 8.016
19.20000 8.180
19.22000 8.481
19.24000 2.288
19.26000 -3.914
19.28000 2.848
19.30000 1.839
19.32000 6.159
19.34000 9.181
19.36000 10.596
19.38000 6.198
19.40000 2.663
19.42000 4.607
19.44000 3.121
19.46000 5.398
19.48000 5.417
19.50000 3.779
19.52000 1.170
19.54000 3.285
19.56000 4.639
19.58000 -1.343
19.60000 -4.295
19.62000 2.455
19.64000 4.854
19.66000 12.476
19.68000 7.543
19.70000 1.182
19.72000 0.976
19.74000 3.848
19.76000 4.194
19.78000 4.659
19.80000 8.087
19.82000 8.519
19.84000 8.263
19.86000 1.684
19.88000 1.602
19.90000 9.500
19.92000 13.125
19.94000 7.098
19.96000 1.823
19.98000 0.650
20.00000 5.255
20.02000 3.055
20.04000 5.781
20.06000 3.317
20.08000 -1.775
20.10000 1.510
20.12000 9.192
20.14000 6.026
20.16000 0.851
20.18000 8.214
20.20000 12.446
20.22000 10.828
20.24000 9.766
20.26000 -0.061
20.28000 -1.904
20.30000 4.464
20.32000 6.865
20.34000 7.877
20.36000 1.853
20.38000 1.845
20.40000 2.180
20.42000 2.249
20.44000 2.453
20.46000 4.240
20.48000 1.826
20.50000 3.542
20.52000 6.743
20.54000 7.694
20.56000 3.006
20.58000 2.274
20.60000 9.060
20.62000 4.491
20.64000 4.282
20.66000 4.475
20.68000 1.413
20.70000 -4.214
20.72000 -1.917
20.74000 8.799
20.76000 4.042
20.78000 0.641
20.80000 5.087
20.82000 5.297
20.84000 8.652
20.86000 4.063
20.88000 0.919
20.90000 -0.778
20.92000 5.550
20.94000 6.161
20.96000 3.793
20.98000 8.425
21.00000 7.512
21.02000 3.887
21.04000 5.569
21.06000 10.250
21.08000 13.268
21.10000 9.401
21.12000 -0.057
21.14000 -1.296
21.16000 2.743
21.18000 5.737
21.20000 2.356
21.22000 -1.259
21.24000 6.073
21.26000 5.172
21.28000 4.767
21.30000 10.139
21.32000 10.214
21.34000 5.731
21.36000 2.421
21.38000 -0.481
21.40000 0.044
21.42000 -1.918
21.44000 0.614
21.46000 2.566
21.48000 5.346
21.50000 6.031
21.52000 2.430
21.54000 0.803
21.56000 5.153
21.58000 5.539
21.60000 4.676
21.62000 2.924
21.64000 9.434
21.66000 12.081
21.68000 8.359
21.70000 3.410
21.72000 4.246
21.74000 4.038
21.76000 5.682
21.78000 3.899
21.80000 7.626
21.82000 4.249
21.84000 8.100
21.86000 9.533
21.88000 -3.392
21.90000 -3.654
21.92000 1.861
21.94000 4.366
21.96000 -2.782
21.98000 2.621
22.00000 4.043
22.02000 0.947
22.04000 -1.127
22.06000 0.877
22.08000 -4.153
22.10000 1.345
22.12000 4.762
22.14000 4.507
22.16000 6.581
22.18000 -0.021
22.20000 1.060
22.22000 3.109
22.24000 5.933
22.26000 0.084
22.28000 0.156
22.30000 5.135
22.32000 1.279
22.34000 1.635
22.36000 2.261
22.38000 4.206
22.40000 1.545
22.42000 3.929
22.44000 -1.424
22.46000 0.374
22.48000 7.777
22.50000 5.159
22.52000 7.422
22.54000 11.181
22.56000 3.328
22.58000 -2.024
22.60000 6.087
22.62000 2.631
22.64000 -0.792
22.66000 4.021
22.68000 0.043
22.70000 4.408
22.72000 6.977
22.74000 2.856
22.76000 0.887
22.78000 4.913
22.80000 4.430
22.82000 2.053
22.84000 1.481
22.86000 4.372
22.88000 5.696
22.90000 3.338
22.92000 10.878
22.94000 10.822
22.96000 3.803
22.98000 4.002
23.00000 4.408
23.02000 5.894
23.04000 5.666
23.06000 7.621
23.08000 10.644
23.10000 8.522
23.12000 4.193
23.14000 1.149
23.16000 2.076
23.18000 2.868
23.20000 10.467
23.22000 6.242
23.24000 11.755
23.26000 9.736
23.28000 1.785
23.30000 -4.059
23.32000 -1.972
23.34000 1.298
23.36000 0.557
23.38000 9.194
23.40000 4.861
23.42000 1.988
23.44000 6.804
23.46000 7.869
23.48000 8.253
23.50000 8.797
23.52000 2.710
23.54000 0.226
23.56000 3.963
23.58000 0.375
23.60000 2.756
23.62000 5.333
23.64000 1.067
23.66000 0.795
23.68000 3.028
23.70000 9.377
23.72000 3.769
23.74000 7.277
23.76000 5.964
23.78000 1.214
23.80000 -0.662
23.82000 -0.492
23.84000 2.120
23.86000 1.398
23.88000 5.561
23.90000 2.913
23.92000 2.019
23.94000 4.706
23.96000 8.730
23.98000 4.909
24.00000 5.065
24.02000 1.942
24.04000 0.770
24.06000 1.442
24.08000 4.834
24.10000 10.082
24.12000 5.298
24.14000 8.724
24.16000 3.111
24.18000 0.658
24.20000 5.919
24.22000 3.504
24.24000 2.377
24.26000 6.607
24.28000 5.061
24.30000 3.745
24.32000 -0.302
24.34000 1.404
24.36000 4.770
24.38000 7.258
24.40000 14.176
24.42000 12.956
24.44000 -1.098
24.46000 -0.323
24.48000 -1.434
24.50000 -0.826
24.52000 3.312
24.54000 6.487
24.56000 4.618
24.58000 3.173
24.60000 4.739
24.62000 1.232
24.64000 2.120
24.66000 3.738
24.68000 -2.149
24.70000 -2.847
24.72000 8.254
24.74000 8.146
24.76000 11.991
24.78000 4.086
24.80000 -0.990
24.82000 1.410
24.84000 1.451
24.86000 2.534
24.88000 6.203
24.90000 0.597
24.92000 -0.979
24.94000 -2.448
24.96000 -0.987
24.98000 -0.480
25.00000 3.419
25.02000 9.408
25.04000 6.670
25.06000 3.626
25.08000 -0.722
25.10000 5.876
25.12000 3.810
25.14000 0.061
25.16000 1.333
25.18000 9.340
25.20000 3.310
25.22000 2.587
25.24000 5.790
25.26000 6.202
25.28000 -3.992
25.30000 -2.669
25.32000 -2.283
25.34000 0.279
25.36000 -0.334
25.38000 0.075
25.40000 1.981
25.42000 2.258
25.44000 4.982
25.46000 2.781
25.48000 -0.158
25.50000 6.663
25.52000 10.190
25.54000 -1.606
25.56000 -3.391
25.58000 -0.083
25.60000 0.048
25.62000 2.856
25.64000 3.797
25.66000 5.730
25.68000 1.202
25.70000 -0.268
25.72000 3.601
25.74000 0.852
25.76000 -0.543
25.78000 4.270
25.80000 8.704
25.82000 8.584
25.84000 4.367
25.86000 -1.229
25.88000 -2.954
25.90000 0.318
25.92000 6.466
25.94000 7.108
25.96000 6.511
25.98000 5.143
26.00000 5.961
26.02000 6.022
26.04000 3.416
26.06000 9.366
26.08000 10.948
26.10000 4.358
26.12000 0.025
26.14000 1.540
26.16000 1.451
26.18000 -3.927
26.20000 -1.755
26.22000 3.767
26.24000 1.383
26.26000 0.116
26.28000 0.729
26.30000 2.427
26.32000 4.457
26.34000 4.679
26.36000 -3.153
26.38000 -1.967
26.40000 -0.302
26.42000 3.622
26.44000 7.775
26.46000 5.527
26.48000 3.338
26.50000 -0.953
26.52000 -1.763
26.54000 5.524
26.56000 6.063
26.58000 -0.596
26.60000 -2.061
26.62000 1.232
26.64000 -0.061
26.66000 -3.919
26.68000 2.058
26.70000 3.461
26.72000 7.198
26.74000 4.186
26.76000 3.686
26.78000 1.821
26.80000 2.129
26.82000 5.564
26.84000 3.047
26.86000 1.224
26.88000 -1.174
26.90000 -0.814
26.92000 0.489
26.94000 1.939
26.96000 -0.858
26.98000 1.614
27.00000 4.619
27.02000 3.610
27.04000 -1.115
27.06000 -3.769
27.08000 -0.041
27.10000 3.237
27.12000 4.135
27.14000 3.961
27.16000 0.997
27.18000 -2.644
27.20000 -1.517
27.22000 2.514
27.24000 1.642
27.26000 -0.806
27.28000 -2.634
27.30000 -0.525
27.32000 -0.641
27.34000 -3.891
27.36000 -0.179
27.38000 2.542
27.40000 2.269
27.42000 1.302
27.44000 6.563
27.46000 3.181
27.48000 -0.041
27.50000 2.096
27.52000 -1.704
27.54000 -3.393
27.56000 2.509
27.58000 -2.900
27.60000 2.609
27.62000 1.339
27.64000 -0.162
27.66000 3.545
27.68000 3.968
27.70000 -0.161
27.72000 -0.970
27.74000 -1.584
27.76000 -3.877
27.78000 4.558
27.80000 4.093
27.82000 3.137
27.84000 1.022
27.86000 7.046
27.88000 8.141
27.90000 4.349
27.92000 0.935
27.94000 -2.145
27.96000 -1.915
27.98000 -2.775
28.00000 -0.474
28.02000 2.138
28.04000 -0.170
28.06000 -0.605
28.08000 2.750
28.10000 4.382
28.12000 -0.198
28.14000 5.380
28.16000 6.075
28.18000 1.615
28.20000 0.780
28.22000 0.202
28.24000 1.226
28.26000 1.209
28.28000 1.788
28.30000 4.407
28.32000 2.467
28.34000 3.358
28.36000 4.931
28.38000 3.811
28.40000 -0.119
28.42000 0.943
28.44000 -0.630
28.46000 -0.398
28.48000 -3.702
28.50000 -0.778
28.52000 -2.266
28.54000 2.172
28.56000 4.715
28.58000 6.278
28.60000 4.122
28.62000 4.813
28.64000 2.562
28.66000 4.905
28.68000 0.017
28.70000 -1.617
28.72000 -1.521
28.74000 3.286
28.76000 10.105
28.78000 9.557
28.80000 7.326
28.82000 8.884
28.84000 4.213
28.86000 -1.145
28.88000 -1.221
28.90000 -1.247
28.92000 0.677
28.94000 3.412
28.96000 6.445
28.98000 1.657
29.00000 -2.166
29.02000 -3.793
29.04000 -1.158
29.06000 2.300
29.08000 2.343
29.10000 6.953
29.12000 6.127
29.14000 2.742
29.16000 4.699
29.18000 11.168
29.20000 7.468
29.22000 5.800
29.24000 2.665
29.26000 4.576
29.28000 3.021
29.30000 1.912
29.32000 2.541
29.34000 5.981
29.36000 4.906
29.38000 -0.442
29.40000 1.385
29.42000 4.287
29.44000 3.436
29.46000 2.340
29.48000 -0.399
29.50000 -3.753
29.52000 -0.848
29.54000 6.106
29.56000 8.882
29.58000 1.875
29.60000 -2.525
29.62000 4.012
29.64000 7.914
29.66000 7.225
29.68000 2.806
29.70000 3.395
29.72000 3.289
29.74000 -2.349
29.76000 -3.752
29.78000 -0.160
29.80000 -1.765
29.82000 1.108
29.84000 1.923
29.86000 2.222
29.88000 2.183
29.90000 0.723
29.92000 -3.753
29.94000 0.121
29.96000 4.874
29.98000 -0.725
30.00000 2.392
30.02000 6.972
30.04000 6.721
30.06000 1.993
30.08000 -0.305
30.10000 -0.915
30.12000 -3.373
30.14000 -3.720
30.16000 0.207
30.18000 3.007
30.20000 5.153
30.22000 0.455
30.24000 2.238
30.26000 5.922
30.28000 4.793
30.30000 3.816
30.32000 0.762
30.34000 -0.998
30.36000 0.473
30.38000 1.591
30.40000 7.482
30.42000 6.013
30.44000 2.561
30.46000 0.074
30.48000 0.720
30.50000 5.242
30.52000 7.376
30.54000 2.771
30.56000 5.575
30.58000 7.229
30.60000 6.983
30.62000 7.450
30.64000 2.145
30.66000 -2.550
30.68000 -0.925
30.70000 1.345
30.72000 -0.514
30.74000 1.031
30.76000 4.338
30.78000 3.738
30.80000 0.186
30.82000 0.406
30.84000 -1.756
30.86000 -0.893
30.88000 -1.415
30.90000 0.265
30.92000 1.350
30.94000 5.163
30.96000 4.245
30.98000 3.908
31.00000 2.618
31.02000 0.961
31.04000 -1.038
31.06000 3.014
31.08000 -2.742
31.10000 -3.726
31.12000 -2.260
31.14000 -1.042
31.16000 3.384
31.18000 5.973
31.20000 0.170
31.22000 0.335
31.24000 -3.426
31.26000 -0.708
31.28000 0.140
31.30000 1.087
31.32000 0.207
31.34000 -3.630
31.36000 -3.203
31.38000 3.591
31.40000 3.777
31.42000 2.979
31.44000 0.508
31.46000 -0.132
31.48000 -2.335
31.50000 1.565
31.52000 5.060
31.54000 0.664
31.56000 -3.701
31.58000 -0.849
31.60000 -1.959
31.62000 -2.554
31.64000 -0.859
31.66000 0.067
31.68000 -2.292
31.70000 1.557
31.72000 4.858
31.74000 0.356
31.76000 2.944
31.78000 1.456
31.80000 -2.538
31.82000 -0.826
31.84000 5.680
31.86000 9.007
31.88000 4.229
31.90000 -3.687
31.92000 -3.621
31.94000 -1.736
31.96000 -3.296
31.98000 -2.910
32.00000 -1.539
32.02000 4.266
32.04000 10.883
32.06000 8.947
32.08000 8.286
32.10000 -0.857
32.12000 -3.391
32.14000 -0.060
32.16000 1.394
32.18000 -2.898
32.20000 0.860
32.22000 2.118
32.24000 0.971
32.26000 5.957
32.28000 5.689
32.30000 3.891
32.32000 3.680
32.34000 1.437
32.36000 2.637
32.38000 5.126
32.40000 1.832
32.42000 4.126
32.44000 5.925
32.46000 4.418
32.48000 3.722
32.50000 0.219
32.52000 -0.029
32.54000 5.838
32.56000 2.452
32.58000 -1.788
32.60000 0.846
32.62000 5.510
32.64000 2.475
32.66000 -3.637
32.68000 -1.282
32.70000 0.878
32.72000 1.896
32.74000 3.325
32.76000 0.379
32.78000 3.972
32.80000 5.598
32.82000 1.826
32.84000 -0.909
32.86000 6.050
32.88000 3.914
32.90000 3.979
32.92000 2.020
32.94000 5.231
32.96000 2.836
32.98000 9.068
33.00000 8.377
33.02000 2.303
33.04000 -2.078
33.06000 3.717
33.08000 1.956
33.10000 1.934
33.12000 1.604
33.14000 2.276
33.16000 -0.333
33.18000 -0.233
33.20000 -0.421
33.22000 -2.089
33.24000 2.994
33.26000 7.722
33.28000 5.960
33.30000 3.969
33.32000 8.072
33.34000 7.768
33.36000 8.151
33.38000 5.396
33.40000 7.900
33.42000 6.311
33.44000 2.643
33.46000 1.006
33.48000 3.323
33.50000 9.485
33.52000 14.060
33.54000 8.002
33.56000 5.409
33.58000 2.443
33.60000 -3.634
33.62000 3.839
33.64000 -0.704
33.66000 0.427
33.68000 3.083
33.70000 1.591
33.72000 -1.399
33.74000 2.767
33.76000 2.502
33.78000 2.576
33.80000 8.696
33.82000 8.806
33.84000 3.405
33.86000 0.561
33.88000 4.990
33.90000 0.583
33.92000 0.755
33.94000 2.275
33.96000 4.522
33.98000 3.046
34.00000 5.544
34.02000 3.517
34.04000 -0.400
34.06000 1.663
34.08000 -1.061
34.10000 0.426
34.12000 3.777
34.14000 10.517
34.16000 7.427
34.18000 7.154
34.20000 9.481
34.22000 5.674
34.24000 6.044
34.26000 2.088
34.28000 -0.055
34.30000 -0.682
34.32000 3.031
34.34000 2.086
34.36000 2.938
34.38000 3.347
34.40000 -1.077
34.42000 4.594
34.44000 7.593
34.46000 7.329
34.48000 5.777
34.50000 2.222
34.52000 0.302
34.54000 1.590
34.56000 6.308
34.58000 1.642
34.60000 0.892
34.62000 3.080
34.64000 1.677
34.66000 1.924
34.68000 0.132
34.70000 3.795
34.72000 1.705
34.74000 2.781
34.76000 -1.385
34.78000 2.912
34.80000 -1.122
34.82000 -1.970
34.84000 -0.204
34.86000 1.177
34.88000 5.941
34.90000 2.778
34.92000 2.829
34.94000 5.407
34.96000 0.517
34.98000 -1.625
35.00000 -1.515
35.02000 -1.992
35.04000 2.350
35.06000 0.919
35.08000 1.094
35.10000 1.351
35.12000 2.350
35.14000 -1.549
35.16000 -1.399
35.18000 -2.491
35.20000 1.331
35.22000 -0.178
35.24000 1.750
35.26000 3.258
35.28000 6.338
35.30000 2.688
35.32000 5.051
35.34000 5.294
35.36000 3.505
35.38000 2.133
35.40000 2.149
35.42000 2.350
35.44000 8.222
35.46000 8.874
35.48000 0.574
35.50000 1.052
35.52000 -0.940
35.54000 -3.615
35.56000 3.514
35.58000 2.025
35.60000 -3.612
35.62000 -2.239
35.64000 -0.470
35.66000 3.572
35.68000 5.109
35.70000 2.630
35.72000 5.310
35.74000 2.770
35.76000 3.955
35.78000 2.509
35.80000 0.246
35.82000 -0.350
35.84000 3.614
35.86000 1.959
35.88000 5.779
35.90000 9.307
35.92000 3.403
35.94000 4.850
35.96000 6.846
35.98000 7.967
36.00000 7.426
36.02000 4.455
36.04000 8.654
36.06000 5.545
36.08000 5.824
36.10000 6.027
36.12000 8.609
36.14000 7.001
36.16000 7.833
36.18000 6.925
36.20000 6.427
36.22000 4.437
36.24000 7.311
36.26000 5.965
36.28000 5.494
36.30000 6.640
36.32000 0.790
36.34000 1.565
36.36000 4.201
36.38000 1.833
36.40000 3.265
36.42000 4.124
36.44000 0.831
36.46000 2.528
36.48000 3.991
36.50000 5.209
36.52000 3.834
36.54000 -3.589
36.56000 1.866
36.58000 9.430
36.60000 15.684
36.62000 11.818
36.64000 11.235
36.66000 7.454
36.68000 7.214
36.70000 3.337
36.72000 10.892
36.74000 10.885
36.76000 11.191
36.78000 15.512
36.80000 10.439
36.82000 10.171
36.84000 9.077
36.86000 8.936
36.88000 9.832
36.90000 9.866
36.92000 10.115
36.94000 11.919
36.96000 14.375
36.98000 12.814
37.00000 9.613
37.02000 5.766
37.04000 8.471
37.06000 13.185
37.08000 11.673
37.10000 9.764
37.12000 14.088
37.14000 11.353
37.16000 8.124
37.18000 13.628
37.20000 13.648
37.22000 11.756
37.24000 10.832
37.26000 14.841
37.28000 15.519
37.30000 16.269
37.32000 16.032
37.34000 14.093
37.36000 8.926
37.38000 15.693
37.40000 20.454
37.42000 17.626
37.44000 12.871
37.46000 16.383
37.48000 13.611
37.50000 12.626
37.52000 15.450
37.54000 14.461
37.56000 15.781
37.58000 14.702
37.60000 21.065
37.62000 18.341
37.64000 17.594
37.66000 18.787
37.68000 23.009
37.70000 22.283
37.72000 27.250
37.74000 21.997
37.76000 22.228
37.78000 23.477
37.80000 23.191
37.82000 24.593
37.84000 26.566
37.86000 21.358
37.88000 25.151
37.90000 23.660
37.92000 25.354
37.94000 27.426
37.96000 26.323
37.98000 27.407
38.00000 30.614
38.02000 36.349
38.04000 34.859
38.06000 36.367
38.08000 36.459
38.10000 38.455
38.12000 40.086
38.14000 39.864
38.16000 41.705
38.18000 40.577
38.20000 39.671
38.22000 45.164
38.24000 43.704
38.26000 41.399
38.28000 45.557
38.30000 45.952
38.32000 51.855
38.34000 51.244
38.36000 51.829
38.38000 55.092
38.40000 55.217
38.42000 60.781
38.44000 57.739
38.46000 63.079
38.48000 71.679
38.50000 71.680
38.52000 76.545
38.54000 79.349
38.56000 78.296
38.58000 80.185
38.60000 82.991
38.62000 88.402
38.64000 91.972
38.66000 96.827
38.68000 104.303
38.70000 104.381
38.72000 107.163
38.74000 115.769
38.76000 122.962
38.78000 128.552
38.80000 136.372
38.82000 140.261
38.84000 152.140
38.86000 157.908
38.88000 167.663
38.90000 167.926
38.92000 174.754
38.94000 184.662
38.96000 197.318
38.98000 212.778
39.00000 226.639
39.02000 239.311
39.04000 257.151
39.06000 267.744
39.08000 285.259
39.10000 303.324
39.12000 318.555
39.14000 337.486
39.16000 358.586
39.18000 376.389
39.20000 399.524
39.22000 413.641
39.24000 432.181
39.26000 447.896
39.28000 473.631
39.30000 485.119
39.32000 502.170
39.34000 521.282
39.36000 539.731
39.38000 561.258
39.40000 572.795
39.42000 581.541
39.44000 594.332
39.46000 604.123
39.48000 605.312
39.50000 605.653
39.52000 603.008
39.54000 601.576
39.56000 598.628
39.58000 588.557
39.60000 581.197
39.62000 569.449
39.64000 553.439
39.66000 531.672
39.68000 512.179
39.70000 492.832
39.72000 478.957
39.74000 460.856
39.76000 444.966
39.78000 420.411
39.80000 393.355
39.82000 380.892
39.84000 370.903
39.86000 348.492
39.88000 323.356
39.90000 298.752
39.92000 280.668
39.94000 262.050
39.96000 249.935
39.98000 232.138
40.00000 219.942
40.02000 212.298
40.04000 194.120
40.06000 185.904
40.08000 171.342
40.10000 163.801
40.12000 151.848
40.14000 142.370
40.16000 129.139
40.18000 121.034
40.20000 117.231
40.22000 111.117
40.24000 100.860
40.26000 91.291
40.28000 91.801
40.30000 87.902
40.32000 83.786
40.34000 76.364
40.36000 72.403
40.38000 72.328
40.40000 69.001
40.42000 63.147
40.44000 59.530
40.46000 54.911
40.48000 51.762
40.50000 50.448
40.52000 44.819
40.54000 45.055
40.56000 43.596
40.58000 41.833
40.60000 42.306
40.62000 36.375
40.64000 35.518
40.66000 38.108
40.68000 30.799
40.70000 27.522
40.72000 29.395
40.74000 28.456
40.76000 28.094
40.78000 29.305
40.80000 28.521
40.82000 24.763
40.84000 21.989
40.86000 23.320
40.88000 23.180
40.90000 18.318
40.92000 17.219
40.94000 16.341
40.96000 14.360
40.98000 18.157
41.00000 18.234
41.02000 16.815
41.04000 11.674
41.06000 10.425
41.08000 10.579
41.10000 11.594
41.12000 14.610
41.14000 12.020
41.16000 9.967
41.18000 9.653
41.20000 11.774
41.22000 10.218
41.24000 6.964
41.26000 9.450
41.28000 4.455
41.30000 7.866
41.32000 11.706
41.34000 9.723
41.36000 8.350
41.38000 4.537
41.40000 0.538
41.42000 2.720
41.44000 7.823
41.46000 6.511
41.48000 6.603
41.50000 6.065
41.52000 3.925
41.54000 2.899
41.56000 4.594
41.58000 6.706
41.60000 6.272
41.62000 6.110
41.64000 0.846
41.66000 1.813
41.68000 2.423
41.70000 4.909
41.72000 7.781
41.74000 6.385
41.76000 2.258
41.78000 2.408
41.80000 3.170
41.82000 3.807
41.84000 -0.104
41.86000 -0.314
41.88000 2.431
41.90000 0.632
41.92000 4.231
41.94000 0.050
41.96000 -1.294
41.98000 -0.284
42.00000 0.317
42.02000 3.423
42.04000 -1.179
42.06000 -0.580
42.08000 5.007
42.10000 5.505
42.12000 4.242
42.14000 1.482
42.16000 5.207
42.18000 5.130
42.20000 2.224
42.22000 -3.293
42.24000 -2.545
42.26000 2.678
42.28000 3.196
42.30000 2.961
42.32000 3.617
42.34000 1.640
42.36000 0.960
42.38000 4.210
42.40000 5.856
42.42000 3.123
42.44000 3.108
42.46000 3.567
42.48000 3.125
42.50000 -2.028
42.52000 -3.251
42.54000 -1.084
42.56000 5.512
42.58000 2.792
42.60000 1.176
42.62000 2.580
42.64000 -0.145
42.66000 -0.610
42.68000 2.488
42.70000 2.870
42.72000 2.503
42.74000 3.672
42.76000 3.285
42.78000 0.464
42.80000 -0.346
42.82000 1.541
42.84000 0.151
42.86000 0.089
42.88000 -0.515
42.90000 3.233
42.92000 4.282
42.94000 4.085
42.96000 3.626
42.98000 3.596
43.00000 5.753
43.02000 3.760
43.04000 1.148
43.06000 0.245
43.08000 2.024
43.10000 0.672
43.12000 -0.066
43.14000 3.971
43.16000 3.808
43.18000 2.953
43.20000 0.384
43.22000 -0.209
43.24000 1.123
43.26000 0.109
43.28000 0.980
43.30000 2.197
43.32000 0.743
43.34000 -0.537
43.36000 -1.168
43.38000 2.319
43.40000 3.169
43.42000 0.824
43.44000 -2.911
43.46000 0.617
43.48000 4.913
43.50000 3.155
43.52000 4.162
43.54000 4.061
43.56000 5.510
43.58000 4.567
43.60000 4.706
43.62000 3.633
43.64000 1.511
43.66000 -1.329
43.68000 -3.103
43.70000 -0.743
43.72000 0.089
43.74000 1.922
43.76000 2.742
43.78000 4.507
43.80000 3.887
43.82000 0.862
43.84000 3.637
43.86000 7.244
43.88000 4.943
43.90000 2.871
43.92000 4.048
43.94000 6.100
43.96000 1.977
43.98000 2.013
44.00000 1.163
44.02000 2.366
44.04000 0.120
44.06000 0.770
44.08000 3.634
44.10000 4.734
44.12000 2.117
44.14000 2.284
44.16000 3.841
44.18000 4.928
44.20000 0.792
44.22000 0.133
44.24000 -0.228
44.26000 0.672
44.28000 1.091
44.30000 3.848
44.32000 5.865
44.34000 3.877
44.36000 3.523
44.38000 0.222
44.40000 -0.165
44.42000 2.662
44.44000 6.401
44.46000 3.632
44.48000 -0.263
44.50000 4.872
44.52000 3.997
44.54000 4.170
44.56000 6.275
44.58000 5.275
44.60000 4.103
44.62000 0.647
44.64000 0.173
44.66000 3.922
44.68000 4.399
44.70000 5.193
44.72000 2.233
44.74000 3.432
44.76000 4.003
44.78000 5.802
44.80000 5.403
44.82000 5.406
44.84000 3.398
44.86000 1.563
44.88000 1.801
44.90000 2.548
44.92000 8.974
44.94000 5.353
44.96000 7.203
44.98000 8.633
45.00000 8.671
45.02000 11.642
45.04000 12.275
45.06000 9.998
45.08000 12.044
45.10000 12.754
45.12000 9.242
45.14000 9.969
45.16000 15.418
45.18000 15.674
45.20000 15.228
45.22000 16.077
45.24000 14.298
45.26000 14.019
45.28000 16.331
45.30000 17.657
45.32000 19.012
45.34000 17.001
45.36000 17.126
45.38000 19.472
45.40000 22.223
45.42000 14.850
45.44000 19.965
45.46000 25.379
45.48000 24.526
45.50000 23.211
45.52000 25.784
45.54000 28.528
45.56000 27.630
45.58000 27.119
45.60000 29.020
45.62000 38.838
45.64000 39.488
45.66000 37.244
45.68000 35.020
45.70000 41.101
45.72000 40.034
45.74000 39.221
45.76000 43.839
45.78000 45.471
45.80000 45.864
45.82000 44.798
45.84000 49.098
45.86000 47.902
45.88000 48.526
45.90000 52.442
45.92000 56.021
45.94000 56.736
45.96000 57.002
45.98000 60.843
46.00000 60.288
46.02000 59.767
46.04000 56.361
46.06000 57.426
46.08000 59.851
46.10000 58.536
46.12000 61.680
46.14000 64.749
46.16000 61.297
46.18000 63.461
46.20000 60.886
46.22000 66.344
46.24000 62.682
46.26000 60.720
46.28000 62.189
46.30000 63.020
46.32000 61.620
46.34000 59.675
46.36000 56.827
46.38000 55.289
46.40000 57.857
46.42000 56.331
46.44000 52.044
46.46000 52.576
46.48000 51.529
46.50000 53.514
46.52000 52.311
46.54000 46.492
46.56000 48.496
46.58000 47.793
46.60000 45.091
46.62000 41.925
46.64000 41.572
46.66000 40.180
46.68000 38.050
46.70000 34.790
46.72000 33.693
46.74000 33.459
46.76000 34.918
46.78000 31.683
46.80000 28.029
46.82000 28.772
46.84000 27.479
46.86000 23.697
46.88000 19.233
46.90000 17.488
46.92000 23.877
46.94000 20.513
46.96000 19.461
46.98000 20.651
47.00000 19.754
47.02000 17.646
47.04000 15.790
47.06000 13.673
47.08000 13.583
47.10000 9.198
47.12000 11.087
47.14000 8.722
47.16000 6.717
47.18000 8.573
47.20000 5.213
47.22000 5.516
47.24000 6.313
47.26000 1.918
47.28000 5.228
47.30000 5.330
47.32000 6.868
47.34000 2.907
47.36000 2.007
47.38000 2.246
47.40000 8.823
47.42000 7.012
47.44000 4.133
47.46000 1.585
47.48000 -2.319
47.50000 -2.068
47.52000 2.290
47.54000 5.091
47.56000 4.946
47.58000 1.751
47.60000 1.603
47.62000 1.809
47.64000 1.603
47.66000 -1.790
47.68000 -0.723
47.70000 0.214
47.72000 -1.129
47.74000 2.458
47.76000 -0.211
47.78000 -1.085
47.80000 -2.707
47.82000 1.434
47.84000 -0.107
47.86000 1.323
47.88000 0.608
47.90000 0.656
47.92000 1.142
47.94000 3.587
47.96000 0.762
47.98000 0.406
48.00000 -0.527
48.02000 -0.703
48.04000 1.814
48.06000 3.847
48.08000 1.935
48.10000 -0.129
48.12000 -1.524
48.14000 2.653
48.16000 3.370
48.18000 -0.641
48.20000 -0.551
48.22000 1.819
48.24000 6.380
48.26000 2.850
48.28000 4.126
48.30000 3.855
48.32000 -2.637
48.34000 -0.487
48.36000 -2.152
48.38000 -1.612
48.40000 1.567
48.42000 0.478
48.44000 -0.778
48.46000 -0.721
48.48000 -0.081
48.50000 1.068
48.52000 2.555
48.54000 -1.061
48.56000 -1.589
48.58000 -0.186
48.60000 -2.613
48.62000 -0.825
48.64000 1.428
48.66000 2.541
48.68000 2.999
48.70000 1.434
48.72000 2.673
48.74000 2.639
48.76000 0.662
48.78000 2.086
48.80000 1.405
48.82000 4.359
48.84000 2.543
48.86000 -2.329
48.88000 -0.184
48.90000 2.276
48.92000 3.172
48.94000 4.366
48.96000 0.061
48.98000 -2.583
49.00000 -1.950
49.02000 0.829
49.04000 3.090
49.06000 2.596
49.08000 3.652
49.10000 1.833
49.12000 1.995
49.14000 3.296
49.16000 -0.270
49.18000 -0.828
49.20000 0.403
49.22000 0.191
49.24000 4.273
49.26000 3.118
49.28000 2.632
49.30000 0.170
49.32000 1.768
49.34000 0.741
49.36000 1.245
49.38000 2.411
49.40000 1.858
49.42000 4.452
49.44000 5.242
49.46000 6.913
49.48000 5.388
49.50000 2.068
49.52000 3.229
49.54000 0.223
49.56000 -1.388
49.58000 -2.530
49.60000 -2.366
49.62000 1.121
49.64000 2.368
49.66000 4.544
49.68000 2.095
49.70000 0.222
49.72000 -2.158
49.74000 -0.290
49.76000 0.779
49.78000 2.553
49.80000 3.481
49.82000 -0.260
49.84000 0.913
49.86000 5.376
49.88000 2.872
49.90000 1.735
49.92000 3.263
49.94000 1.943
49.96000 -0.839
49.98000 -0.404
50.00000 1.530
50.02000 1.762
50.04000 0.177
50.06000 1.999
50.08000 3.325
50.10000 5.145
50.12000 6.420
50.14000 5.763
50.16000 2.051
50.18000 -0.481
50.20000 2.878
50.22000 3.967
50.24000 0.254
50.26000 -0.670
50.28000 1.435
50.30000 4.357
50.32000 5.061
50.34000 1.762
50.36000 2.552
50.38000 4.401
50.40000 1.191
50.42000 5.812
50.44000 5.881
50.46000 7.781
50.48000 6.596
50.50000 5.281
50.52000 1.133
50.54000 -0.142
50.56000 2.490
50.58000 1.964
50.60000 2.468
50.62000 0.278
50.64000 -2.470
50.66000 0.294
50.68000 3.933
50.70000 4.565
50.72000 3.357
50.74000 4.462
50.76000 4.596
50.78000 6.609
50.80000 5.976
50.82000 5.090
50.84000 6.247
50.86000 4.300
50.88000 2.061
50.90000 1.404
50.92000 4.112
50.94000 4.850
50.96000 3.216
50.98000 3.089
51.00000 2.389
51.02000 4.468
51.04000 3.022
51.06000 2.319
51.08000 2.339
51.10000 5.190
51.12000 3.167
51.14000 -2.002
51.16000 1.258
51.18000 3.746
51.20000 4.845
51.22000 1.991
51.24000 0.453
51.26000 0.276
51.28000 -0.911
51.30000 -2.455
51.32000 1.521
51.34000 4.244
51.36000 -1.160
51.38000 -0.800
51.40000 4.174
51.42000 5.076
51.44000 5.964
51.46000 5.423
51.48000 3.096
51.50000 5.799
51.52000 4.689
51.54000 1.733
51.56000 1.809
51.58000 -0.012
51.60000 -1.971
51.62000 1.551
51.64000 5.733
51.66000 -0.650
51.68000 1.400
51.70000 1.287
51.72000 0.982
51.74000 1.139
51.76000 1.645
51.78000 2.842
51.80000 -0.313
51.82000 -0.812
51.84000 -0.076
51.86000 0.251
51.88000 -0.842
51.90000 -1.960
51.92000 0.091
51.94000 -0.763
51.96000 0.257
51.98000 3.340
52.00000 3.211
52.02000 -1.352
52.04000 -1.811
52.06000 0.303
52.08000 -1.655
52.10000 -1.113
52.12000 0.076
52.14000 1.977
52.16000 2.070
52.18000 2.259
52.20000 -1.813
52.22000 -1.664
52.24000 1.512
52.26000 2.836
52.28000 2.998
52.30000 1.727
52.32000 2.162
52.34000 5.330
52.36000 2.223
52.38000 1.547
52.40000 2.986
52.42000 0.343
52.44000 1.036
52.46000 1.620
52.48000 2.220
52.50000 -2.462
52.52000 -1.545
52.54000 -0.781
52.56000 1.155
52.58000 1.016
52.60000 0.917
52.62000 0.422
52.64000 0.341
52.66000 1.116
52.68000 0.634
52.70000 5.113
52.72000 4.658
52.74000 3.829
52.76000 4.041
52.78000 0.316
52.80000 -1.396
52.82000 1.769
52.84000 3.204
52.86000 3.099
52.88000 1.775
52.90000 2.139
52.92000 3.047
52.94000 2.091
52.96000 -1.644
52.98000 -0.204
53.00000 -0.885
53.02000 1.579
53.04000 1.327
53.06000 1.268
53.08000 -0.610
53.10000 4.308
53.12000 2.357
53.14000 0.087
53.16000 -0.909
53.18000 0.852
53.20000 -0.003
53.22000 1.052
53.24000 -1.176
53.26000 1.347
53.28000 3.873
53.30000 5.945
53.32000 0.703
53.34000 2.354
53.36000 2.340
53.38000 5.633
53.40000 6.975
53.42000 4.061
53.44000 2.309
53.46000 1.239
53.48000 -1.127
53.50000 -0.907
53.52000 -2.402
53.54000 -0.145
53.56000 1.324
53.58000 1.351
53.60000 3.394
53.62000 -1.909
53.64000 3.513
53.66000 3.292
53.68000 1.417
53.70000 1.071
53.72000 3.092
53.74000 1.005
53.76000 1.051
53.78000 0.822
53.80000 2.997
53.82000 1.653
53.84000 2.582
53.86000 0.337
53.88000 1.204
53.90000 3.420
53.92000 2.619
53.94000 -1.064
53.96000 -2.391
53.98000 2.660
54.00000 6.150
54.02000 0.943
54.04000 2.899
54.06000 0.942
54.08000 -1.835
54.10000 0.494
54.12000 1.725
54.14000 0.034
54.16000 -0.679
54.18000 2.640
54.20000 5.998
54.22000 5.017
54.24000 1.292
54.26000 0.799
54.28000 0.201
54.30000 0.007
54.32000 -1.632
54.34000 1.151
54.36000 3.463
54.38000 3.254
54.40000 0.011
54.42000 -2.183
54.44000 0.729
54.46000 -0.674
54.48000 -0.379
54.50000 -0.857
54.52000 -0.887
54.54000 2.304
54.56000 -0.220
54.58000 -0.701
54.60000 1.050
54.62000 -0.237
54.64000 -1.266
54.66000 1.784
54.68000 -1.139
54.70000 -0.990
54.72000 1.463
54.74000 1.796
54.76000 2.926
54.78000 2.051
54.80000 0.997
54.82000 1.645
54.84000 -0.739
54.86000 -1.353
54.88000 -1.733
54.90000 1.921
54.92000 2.260
54.94000 1.180
54.96000 1.830
54.98000 2.941
55.00000 2.944
55.02000 3.248
55.04000 2.937
55.06000 2.634
55.08000 1.262
55.10000 0.519
55.12000 -2.390
55.14000 -1.271
55.16000 1.276
55.18000 0.554
55.20000 -1.431
55.22000 -0.601
55.24000 -2.385
55.26000 -1.433
55.28000 -0.346
55.30000 -0.433
55.32000 1.920
55.34000 3.099
55.36000 3.379
55.38000 0.958
55.40000 -0.907
55.42000 -0.908
55.44000 0.890
55.46000 3.760
55.48000 2.212
55.50000 0.240
55.52000 1.308
55.54000 2.297
55.56000 2.973
55.58000 1.594
55.60000 0.067
55.62000 1.164
55.64000 2.370
55.66000 3.505
55.68000 3.970
55.70000 5.706
55.72000 3.106
55.74000 0.620
55.76000 1.192
55.78000 2.519
55.80000 2.134
55.82000 1.712
55.84000 1.666
55.86000 2.016
55.88000 5.992
55.90000 3.709
55.92000 6.914
55.94000 1.450
55.96000 1.720
55.98000 3.570
56.00000 0.462
56.02000 -0.626
56.04000 1.260
56.06000 -0.336
56.08000 0.380
56.10000 2.225
56.12000 1.034
56.14000 2.749
56.16000 3.511
56.18000 5.478
56.20000 4.106
56.22000 5.613
56.24000 4.725
56.26000 1.818
56.28000 2.390
56.30000 5.104
56.32000 4.140
56.34000 1.728
56.36000 1.085
56.38000 3.253
56.40000 2.738
56.42000 2.477
56.44000 4.789
56.46000 3.248
56.48000 -0.469
56.50000 -2.323
56.52000 1.343
56.54000 3.880
56.56000 3.238
56.58000 3.858
56.60000 5.137
56.62000 1.699
56.64000 1.140
56.66000 1.173
56.68000 3.343
56.70000 2.979
56.72000 2.878
56.74000 1.951
56.76000 2.469
56.78000 3.514
56.80000 6.485
56.82000 4.612
56.84000 7.172
56.86000 4.782
56.88000 3.314
56.90000 2.130
56.92000 1.941
56.94000 2.823
56.96000 0.837
56.98000 1.987
57.00000 2.750
57.02000 3.870
57.04000 2.430
57.06000 2.802
57.08000 3.208
57.10000 2.306
57.12000 0.919
57.14000 1.310
57.16000 -1.147
57.18000 -0.845
57.20000 1.926
57.22000 0.318
57.24000 4.117
57.26000 1.649
57.28000 -0.222
57.30000 1.561
57.32000 4.123
57.34000 3.993
57.36000 6.663
57.38000 1.882
57.40000 2.697
57.42000 3.664
57.44000 0.224
57.46000 -0.861
57.48000 -1.911
57.50000 1.836
57.52000 4.747
57.54000 5.323
57.56000 4.822
57.58000 0.425
57.60000 2.241
57.62000 3.973
57.64000 0.786
57.66000 -0.687
57.68000 3.171
57.70000 4.074
57.72000 0.301
57.74000 -0.628
57.76000 2.031
57.78000 0.765
57.80000 0.352
57.82000 3.868
57.84000 2.016
57.86000 2.497
57.88000 2.608
57.90000 0.806
57.92000 4.420
57.94000 2.614
57.96000 0.090
57.98000 -1.495
58.00000 -2.284
58.02000 1.691
58.04000 4.145
58.06000 4.956
58.08000 3.727
58.10000 1.822
58.12000 1.212
58.14000 2.267
58.16000 0.258
58.18000 3.263
58.20000 2.998
58.22000 1.178
58.24000 2.931
58.26000 -1.445
58.28000 -2.002
58.30000 1.582
58.32000 4.982
58.34000 0.423
58.36000 -0.508
58.38000 0.246
58.40000 4.353
58.42000 2.450
58.44000 -0.373
58.46000 3.715
58.48000 2.476
58.50000 1.029
58.52000 4.213
58.54000 6.646
58.56000 4.672
58.58000 1.122
58.60000 -2.201
58.62000 -1.395
58.64000 1.099
58.66000 3.097
58.68000 2.114
58.70000 6.180
58.72000 3.716
58.74000 1.612
58.76000 -0.105
58.78000 3.435
58.80000 4.732
58.82000 2.867
58.84000 3.894
58.86000 4.088
58.88000 1.951
58.90000 0.607
58.92000 2.155
58.94000 4.682
58.96000 2.324
58.98000 3.180
59.00000 3.870
59.02000 2.386
59.04000 3.005
59.06000 1.263
59.08000 4.909
59.10000 2.987
59.12000 1.496
59.14000 4.192
59.16000 5.521
59.18000 4.818
59.20000 2.499
59.22000 2.433
59.24000 2.552
59.26000 0.011
59.28000 3.704
59.30000 5.015
59.32000 6.267
59.34000 8.694
59.36000 5.254
59.38000 1.833
59.40000 4.606
59.42000 4.904
59.44000 7.570
59.46000 7.476
59.48000 2.080
59.50000 0.297
59.52000 -2.222
59.54000 1.053
59.56000 5.057
59.58000 4.049
59.60000 2.170
59.62000 2.721
59.64000 2.612
59.66000 1.713
59.68000 3.200
59.70000 3.484
59.72000 5.078
59.74000 2.395
59.76000 1.235
59.78000 0.313
59.80000 3.621
59.82000 7.442
59.84000 3.581
59.86000 2.019
59.88000 2.490
59.90000 2.100
59.92000 4.334
59.94000 4.997
59.96000 3.493
59.98000 1.709
60.00000 4.645
60.02000 1.649
60.04000 -1.733
60.06000 -0.083
60.08000 1.462
60.10000 1.982
60.12000 1.343
60.14000 -1.182
60.16000 -1.814
60.18000 0.611
60.20000 1.496
60.22000 0.723
60.24000 0.180
60.26000 -1.612
60.28000 1.604
60.30000 0.678
60.32000 -0.169
60.34000 -2.244
60.36000 -0.454
60.38000 1.821
60.40000 1.491
60.42000 2.015
60.44000 0.475
60.46000 0.884
60.48000 0.827
60.50000 2.083
60.52000 0.543
60.54000 -1.602
60.56000 -2.068
60.58000 -0.369
60.60000 0.793
60.62000 1.827
60.64000 2.117
60.66000 3.778
60.68000 4.005
60.70000 2.110
60.72000 0.349
60.74000 -2.239
60.76000 -1.003
60.78000 -1.028
60.80000 0.070
60.82000 2.080
60.84000 1.508
60.86000 2.073
60.88000 2.432
60.90000 4.165
60.92000 4.273
60.94000 -0.270
60.96000 1.721
60.98000 3.783
61.00000 4.492
61.02000 -0.244
61.04000 -0.791
61.06000 -1.492
61.08000 -1.634
61.10000 -0.069
61.12000 3.857
61.14000 3.840
61.16000 -0.756
61.18000 -2.223
61.20000 -0.661
61.22000 -0.948
61.24000 1.079
61.26000 -0.318
61.28000 -0.247
61.30000 2.136
61.32000 2.474
61.34000 0.188
61.36000 0.787
61.38000 1.348
61.40000 0.065
61.42000 0.695
61.44000 -0.621
61.46000 1.786
61.48000 2.584
61.50000 2.956
61.52000 4.540
61.54000 -1.519
61.56000 -2.210
61.58000 -1.055
61.60000 1.736
61.62000 0.693
61.64000 0.592
61.66000 -0.037
61.68000 1.538
61.70000 0.042
61.72000 -0.829
61.74000 1.581
61.76000 2.585
61.78000 2.299
61.80000 3.371
61.82000 0.519
61.84000 2.864
61.86000 2.743
61.88000 0.699
61.90000 -2.207
61.92000 0.762
61.94000 0.845
61.96000 1.570
61.98000 2.493
62.00000 -1.902
62.02000 -0.258
62.04000 0.752
62.06000 3.936
62.08000 3.519
62.10000 2.366
62.12000 2.431
62.14000 0.974
62.16000 -0.744
62.18000 2.502
62.20000 1.616
62.22000 0.839
62.24000 1.963
62.26000 1.410
62.28000 2.271
62.30000 0.455
62.32000 -1.239
62.34000 0.199
62.36000 0.635
62.38000 0.247
62.40000 0.505
62.42000 1.527
62.44000 2.082
62.46000 -0.761
62.48000 -1.588
62.50000 0.268
62.52000 -1.621
62.54000 -0.312
62.56000 -0.586
62.58000 0.026
62.60000 0.812
62.62000 3.015
62.64000 -0.338
62.66000 0.528
62.68000 0.057
62.70000 -1.271
62.72000 2.939
62.74000 1.971
62.76000 -0.323
62.78000 -2.183
62.80000 -0.890
62.82000 5.189
62.84000 2.706
62.86000 2.301
62.88000 3.010
62.90000 3.290
62.92000 2.257
62.94000 -1.104
62.96000 -1.253
62.98000 0.752
63.00000 2.895
63.02000 -0.229
63.04000 -2.179
63.06000 -0.929
63.08000 -0.367
63.10000 -0.165
63.12000 -0.227
63.14000 1.416
63.16000 0.233
63.18000 2.502
63.20000 2.528
63.22000 0.386
63.24000 0.796
63.26000 4.139
63.28000 1.152
63.30000 -0.884
63.32000 -0.786
63.34000 0.409
63.36000 2.583
63.38000 0.277
63.40000 -1.624
63.42000 -2.188
63.44000 0.947
63.46000 0.676
63.48000 2.661
63.50000 1.899
63.52000 -0.797
63.54000 0.432
63.56000 2.728
63.58000 0.661
63.60000 -0.722
63.62000 0.024
63.64000 0.748
63.66000 0.906
63.68000 -1.926
63.70000 -1.749
63.72000 -0.226
63.74000 2.467
63.76000 3.613
63.78000 2.279
63.80000 -0.527
63.82000 1.986
63.84000 3.258
63.86000 0.475
63.88000 3.213
63.90000 0.808
63.92000 -0.028
63.94000 -0.029
63.96000 -0.332
63.98000 0.561
64.00000 1.441
64.02000 -0.298
64.04000 0.403
64.06000 1.995
64.08000 0.989
64.10000 0.081
64.12000 2.899
64.14000 1.897
64.16000 3.194
64.18000 2.708
64.20000 1.663
64.22000 0.938
64.24000 0.234
64.26000 0.006
64.28000 2.698
64.30000 1.928
64.32000 2.020
64.34000 0.754
64.36000 0.945
64.38000 1.515
64.40000 -1.495
64.42000 -2.166
64.44000 0.680
64.46000 2.371
64.48000 1.656
64.50000 2.245
64.52000 1.450
64.54000 -0.176
64.56000 2.519
64.58000 1.303
64.60000 0.556
64.62000 0.382
64.64000 2.452
64.66000 4.144
64.68000 0.292
64.70000 0.136
64.72000 2.114
64.74000 4.344
64.76000 2.168
64.78000 3.554
64.80000 0.447
64.82000 0.741
64.84000 -0.129
64.86000 -1.207
64.88000 2.460
64.90000 1.376
64.92000 0.480
64.94000 0.354
64.96000 -0.503
64.98000 -1.434
65.00000 -2.173
65.02000 -1.260
65.04000 1.744
65.06000 0.885
65.08000 -0.035
65.10000 4.184
65.12000 3.056
65.14000 2.810
65.16000 3.983
65.18000 0.985
65.20000 -1.835
65.22000 -1.111
65.24000 0.018
65.26000 1.455
65.28000 1.082
65.30000 -0.429
65.32000 1.931
65.34000 -0.963
65.36000 -0.180
65.38000 0.715
65.40000 -0.513
65.42000 -2.178
65.44000 2.226
65.46000 1.967
65.48000 -0.896
65.50000 0.812
65.52000 1.376
65.54000 0.630
65.56000 -2.187
65.58000 0.475
65.60000 0.481
65.62000 2.259
65.64000 2.212
65.66000 0.270
65.68000 1.310
65.70000 0.408
65.72000 -1.071
65.74000 -1.347
65.76000 1.608
65.78000 1.204
65.80000 1.642
65.82000 -1.527
65.84000 -1.069
65.86000 1.878
65.88000 0.057
65.90000 0.653
65.92000 -0.462
65.94000 1.571
65.96000 1.391
65.98000 1.729
66.00000 -0.204
66.02000 1.616
66.04000 0.393
66.06000 -1.733
66.08000 0.853
66.10000 3.009
66.12000 -1.694
66.14000 -0.756
66.16000 -0.711
66.18000 1.219
66.20000 1.345
66.22000 2.307
66.24000 0.872
66.26000 1.883
66.28000 1.713
66.30000 0.402
66.32000 1.421
66.34000 0.981
66.36000 2.067
66.38000 2.083
66.40000 3.452
66.42000 3.143
66.44000 2.064
66.46000 1.707
66.48000 1.250
66.50000 2.877
66.52000 1.235
66.54000 2.206
66.56000 2.938
66.58000 2.602
66.60000 2.726
66.62000 3.271
66.64000 4.620
66.66000 6.159
66.68000 6.406
66.70000 5.066
66.72000 5.838
66.74000 3.245
66.76000 4.688
66.78000 6.075
66.80000 8.102
66.82000 6.122
66.84000 5.312
66.86000 7.044
66.88000 6.833
66.90000 6.134
66.92000 4.722
66.94000 5.832
66.96000 9.151
66.98000 10.110
67.00000 7.946
67.02000 9.372
67.04000 8.598
67.06000 9.681
67.08000 8.718
67.10000 5.983
67.12000 9.166
67.14000 8.948
67.16000 10.462
67.18000 9.280
67.20000 9.328
67.22000 11.032
67.24000 8.551
67.26000 8.009
67.28000 10.508
67.30000 8.004
67.32000 7.941
67.34000 8.451
67.36000 9.224
67.38000 11.247
67.40000 10.395
67.42000 7.980
67.44000 7.789
67.46000 7.622
67.48000 5.518
67.50000 7.735
67.52000 9.268
67.54000 6.708
67.56000 6.204
67.58000 7.388
67.60000 8.368
67.62000 6.358
67.64000 4.581
67.66000 5.062
67.68000 5.754
67.70000 4.564
67.72000 4.385
67.74000 4.912
67.76000 5.901
67.78000 3.885
67.80000 3.195
67.82000 2.457
67.84000 5.442
67.86000 5.551
67.88000 2.425
67.90000 2.634
67.92000 2.607
67.94000 3.323
67.96000 4.045
67.98000 3.933
68.00000 5.365
68.02000 3.995
68.04000 1.292
68.06000 1.413
68.08000 3.064
68.10000 1.758
68.12000 3.400
68.14000 2.252
68.16000 1.410
68.18000 0.256
68.20000 -0.094
68.22000 0.163
68.24000 -1.256
68.26000 -0.152
68.28000 1.574
68.30000 2.998
68.32000 1.997
68.34000 2.659
68.36000 2.248
68.38000 1.969
68.40000 0.681
68.42000 -1.837
68.44000 -1.753
68.46000 -0.531
68.48000 1.896
68.50000 1.885
68.52000 1.103
68.54000 -0.439
68.56000 -2.067
68.58000 -0.015
68.60000 1.476
68.62000 1.926
68.64000 2.473
68.66000 2.226
68.68000 0.550
68.70000 1.071
68.72000 2.245
68.74000 0.068
68.76000 -2.044
68.78000 -1.291
68.80000 2.670
68.82000 0.645
68.84000 -0.962
68.86000 1.165
68.88000 0.552
68.90000 0.610
68.92000 1.139
68.94000 -0.915
68.96000 -0.088
68.98000 0.862
69.00000 2.005
69.02000 1.921
69.04000 4.283
69.06000 2.558
69.08000 2.611
69.10000 0.659
69.12000 1.613
69.14000 1.567
69.16000 1.780
69.18000 0.308
69.20000 -0.698
69.22000 1.651
69.24000 2.599
69.26000 3.430
69.28000 1.442
69.30000 1.737
69.32000 -0.006
69.34000 2.200
69.36000 1.563
69.38000 0.665
69.40000 1.280
69.42000 1.980
69.44000 -0.218
69.46000 -1.984
69.48000 1.264
69.50000 2.922
69.52000 5.428
69.54000 5.680
69.56000 2.805
69.58000 4.519
69.60000 4.801
69.62000 0.415
69.64000 1.452
69.66000 2.051
69.68000 -1.112
69.70000 -1.973
69.72000 1.085
69.74000 1.872
69.76000 2.985
69.78000 3.455
69.80000 3.125
69.82000 3.224
69.84000 4.666
69.86000 0.799
69.88000 0.054
69.90000 -0.101
69.92000 0.562
69.94000 2.507
69.96000 3.164
69.98000 4.397
70.00000 1.732
70.02000 2.834
70.04000 1.165
70.06000 2.426
70.08000 2.292
70.10000 1.562
70.12000 2.003
70.14000 1.284
70.16000 1.693
70.18000 0.433
70.20000 0.843
70.22000 0.713
70.24000 -1.961
70.26000 1.620
70.28000 2.662
70.30000 3.852
70.32000 3.249
70.34000 -0.237
70.36000 2.994
70.38000 2.588
70.40000 0.348
70.42000 1.303
70.44000 1.444
70.46000 -1.093
70.48000 0.464
70.50000 3.405
70.52000 1.397
70.54000 3.430
70.56000 4.728
70.58000 0.768
70.60000 0.957
70.62000 -0.187
70.64000 1.934
70.66000 4.846
70.68000 4.476
70.70000 1.494
70.72000 4.293
70.74000 2.427
70.76000 1.565
70.78000 2.309
70.80000 2.790
70.82000 4.336
70.84000 5.029
70.86000 4.859
70.88000 4.365
70.90000 4.569
70.92000 3.526
70.94000 3.563
70.96000 1.159
70.98000 2.500
71.00000 4.673
71.02000 6.045
71.04000 5.158
71.06000 3.911
71.08000 2.259
71.10000 2.012
71.12000 -1.414
71.14000 -0.326
71.16000 1.713
71.18000 3.179
71.20000 3.317
71.22000 2.549
71.24000 4.135
71.26000 4.035
71.28000 1.735
71.30000 1.099
71.32000 2.067
71.34000 1.840
71.36000 -1.900
71.38000 1.233
71.40000 1.731
71.42000 2.308
71.44000 2.413
71.46000 3.319
71.48000 2.042
71.50000 2.992
71.52000 4.479
71.54000 3.918
71.56000 3.784
71.58000 3.200
71.60000 1.642
71.62000 2.335
71.64000 2.641
71.66000 1.408
71.68000 -0.219
71.70000 -0.612
71.72000 1.880
71.74000 0.706
71.76000 0.506
71.78000 2.185
71.80000 3.131
71.82000 2.211
71.84000 0.459
71.86000 -1.132
71.88000 1.561
71.90000 2.256
71.92000 2.209
71.94000 2.674
71.96000 3.085
71.98000 3.298
72.00000 1.861
72.02000 2.604
72.04000 3.882
72.06000 2.126
72.08000 2.306
72.10000 3.124
72.12000 3.877
72.14000 1.777
72.16000 1.332
72.18000 3.668
72.20000 3.534
72.22000 1.226
72.24000 0.564
72.26000 0.791
72.28000 -0.128
72.30000 1.002
72.32000 1.567
72.34000 2.261
72.36000 2.804
72.38000 1.228
72.40000 -1.894
72.42000 0.432
72.44000 0.517
72.46000 1.414
72.48000 2.046
72.50000 1.208
72.52000 2.411
72.54000 6.116
72.56000 4.682
72.58000 3.439
72.60000 3.524
72.62000 2.360
72.64000 1.923
72.66000 -0.078
72.68000 -0.937
72.70000 1.979
72.72000 3.356
72.74000 1.785
72.76000 2.514
72.78000 2.648
72.80000 3.481
72.82000 3.565
72.84000 3.034
72.86000 0.520
72.88000 -0.080
72.90000 0.197
72.92000 1.943
72.94000 0.898
72.96000 -1.319
72.98000 -1.856
73.00000 0.340
73.02000 -0.848
73.04000 0.114
73.06000 1.813
73.08000 2.828
73.10000 2.821
73.12000 3.458
73.14000 0.890
73.16000 -1.855
73.18000 -1.604
73.20000 0.910
73.22000 3.552
73.24000 3.168
73.26000 4.499
73.28000 4.915
73.30000 6.068
73.32000 4.697
73.34000 2.083
73.36000 2.443
73.38000 -0.437
73.40000 2.201
73.42000 4.912
73.44000 5.114
73.46000 1.852
73.48000 0.512
73.50000 1.632
73.52000 2.598
73.54000 2.012
73.56000 2.758
73.58000 0.023
73.60000 -0.515
73.62000 2.256
73.64000 3.010
73.66000 3.769
73.68000 3.442
73.70000 -0.755
73.72000 0.872
73.74000 1.977
73.76000 3.847
73.78000 3.607
73.80000 0.936
73.82000 1.321
73.84000 2.916
73.86000 3.187
73.88000 0.548
73.90000 1.872
73.92000 3.130
73.94000 1.617
73.96000 -0.392
73.98000 0.009
74.00000 2.874
74.02000 4.082
74.04000 3.165
74.06000 1.352
74.08000 0.675
74.10000 1.052
74.12000 1.586
74.14000 1.344
74.16000 1.211
74.18000 -0.084
74.20000 0.475
74.22000 3.509
74.24000 0.257
74.26000 -1.848
74.28000 2.261
74.30000 1.639
74.32000 1.215
74.34000 1.175
74.36000 4.080
74.38000 2.695
74.40000 1.339
74.42000 0.837
74.44000 0.109
74.46000 -1.541
74.48000 -1.152
74.50000 1.983
74.52000 -0.849
74.54000 -0.887
74.56000 0.382
74.58000 -0.194
74.60000 0.474
74.62000 1.676
74.64000 2.831
74.66000 3.399
74.68000 5.957
74.70000 4.728
74.72000 2.139
74.74000 1.315
74.76000 1.515
74.78000 2.224
74.80000 2.171
74.82000 2.527
74.84000 3.778
74.86000 3.956
74.88000 6.134
74.90000 0.832
74.92000 0.109
74.94000 2.472
74.96000 3.501
74.98000 2.358
75.00000 1.731
75.02000 -0.063
75.04000 -0.701
75.06000 1.809
75.08000 2.586
75.10000 1.168
75.12000 1.705
75.14000 1.586
75.16000 1.732
75.18000 3.618
75.20000 3.396
75.22000 1.264
75.24000 1.236
75.26000 4.080
75.28000 1.324
75.30000 0.785
75.32000 -1.131
75.34000 -0.903
75.36000 0.524
75.38000 -0.580
75.40000 0.897
75.42000 2.593
75.44000 1.914
75.46000 2.207
75.48000 -0.024
75.50000 -1.883
75.52000 -1.445
75.54000 -1.615
75.56000 -1.609
75.58000 0.020
75.60000 2.219
75.62000 2.720
75.64000 1.099
75.66000 1.839
75.68000 0.388
75.70000 -0.279
75.72000 -0.429
75.74000 0.447
75.76000 -0.518
75.78000 0.645
75.80000 2.250
75.82000 0.254
75.84000 -1.016
75.86000 0.966
75.88000 1.946
75.90000 1.101
75.92000 2.111
75.94000 -1.337
75.96000 -1.755
75.98000 -1.871
76.00000 -1.295
76.02000 1.434
76.04000 2.050
76.06000 3.110
76.08000 1.588
76.10000 3.657
76.12000 3.353
76.14000 1.327
76.16000 1.577
76.18000 2.016
76.20000 1.573
76.22000 1.924
76.24000 2.325
76.26000 4.066
76.28000 3.939
76.30000 3.072
76.32000 -0.425
76.34000 -1.873
76.36000 0.609
76.38000 0.319
76.40000 2.746
76.42000 2.226
76.44000 2.178
76.46000 1.724
76.48000 -0.045
76.50000 -1.197
76.52000 0.568
76.54000 0.663
76.56000 1.835
76.58000 2.221
76.60000 3.200
76.62000 3.577
76.64000 1.211
76.66000 2.177
76.68000 2.828
76.70000 0.470
76.72000 0.826
76.74000 2.294
76.76000 0.039
76.78000 -0.662
76.80000 1.221
76.82000 1.914
76.84000 3.008
76.86000 2.165
76.88000 0.404
76.90000 -1.911
76.92000 -0.845
76.94000 -0.187
76.96000 0.101
76.98000 1.766
77.00000 4.735
77.02000 1.561
77.04000 -0.272
77.06000 -0.712
77.08000 0.970
77.10000 2.405
77.12000 1.338
77.14000 2.725
77.16000 2.603
77.18000 -0.545
77.20000 -1.360
77.22000 3.589
77.24000 5.472
77.26000 2.628
77.28000 1.472
77.30000 1.616
77.32000 -0.234
77.34000 -1.372
77.36000 -0.916
77.38000 0.774
77.40000 0.005
77.42000 -1.924
77.44000 -1.549
77.46000 3.096
77.48000 3.336
77.50000 2.038
77.52000 -0.199
77.54000 1.288
77.56000 1.554
77.58000 0.230
77.60000 1.179
77.62000 0.800
77.64000 -0.192
77.66000 -0.072
77.68000 -0.621
77.70000 -0.780
77.72000 0.490
77.74000 1.412
77.76000 5.168
77.78000 3.138
77.80000 2.985
77.82000 -0.394
77.84000 -0.299
77.86000 -1.936
77.88000 -0.899
77.90000 0.842
77.92000 0.332
77.94000 0.485
77.96000 0.164
77.98000 -1.936
78.00000 -1.055
78.02000 4.402
78.04000 5.007
78.06000 1.328
78.08000 -0.590
78.10000 -1.936
78.12000 1.366
78.14000 3.422
78.16000 2.120
78.18000 3.650
78.20000 2.121
78.22000 0.276
78.24000 1.539
78.26000 1.554
78.28000 0.506
78.30000 1.061
78.32000 1.427
78.34000 -1.426
78.36000 -1.022
78.38000 1.397
78.40000 1.437
78.42000 3.223
78.44000 2.095
78.46000 2.758
78.48000 2.474
78.50000 3.780
78.52000 6.473
78.54000 7.143
78.56000 5.124
78.58000 2.118
78.60000 1.299
78.62000 2.528
78.64000 -0.057
78.66000 0.890
78.68000 3.444
78.70000 -0.189
78.72000 -0.805
78.74000 1.007
78.76000 1.966
78.78000 0.672
78.80000 -1.973
78.82000 -0.177
78.84000 2.961
78.86000 1.200
78.88000 0.987
78.90000 2.960
78.92000 2.528
78.94000 1.137
78.96000 1.730
78.98000 1.809
79.00000 2.299
79.02000 4.306
79.04000 5.719
79.06000 2.161
79.08000 -1.139
79.10000 -0.967
79.12000 2.203
79.14000 2.202
79.16000 3.678
79.18000 3.292
79.20000 2.164
79.22000 2.172
79.24000 1.416
79.26000 2.729
79.28000 2.054
79.30000 0.809
79.32000 -2.008
79.34000 -0.140
79.36000 -1.593
79.38000 2.580
79.40000 2.117
79.42000 0.861
79.44000 0.475
79.46000 0.982
79.48000 0.577
79.50000 -0.527
79.52000 2.463
79.54000 1.382
79.56000 -0.940
79.58000 0.204
79.60000 1.578
79.62000 3.444
79.64000 3.197
79.66000 -1.140
79.68000 1.631
79.70000 1.972
79.72000 1.960
79.74000 1.662
79.76000 1.096
79.78000 0.683
79.80000 1.318
79.82000 -0.187
79.84000 2.278
79.86000 4.110
79.88000 3.337
79.90000 4.035
79.92000 5.891
79.94000 4.704
79.96000 3.281
79.98000 6.517
80.00000 3.989
80.02000 3.616
80.04000 3.510
80.06000 4.361
80.08000 5.461
80.10000 4.982
80.12000 3.128
80.14000 2.842
80.16000 5.873
80.18000 7.487
80.20000 5.311
80.22000 4.645
80.24000 5.487
80.26000 11.266
80.28000 10.655
80.30000 9.557
80.32000 8.623
80.34000 4.957
80.36000 6.435
80.38000 7.866
80.40000 8.889
80.42000 7.616
80.44000 5.208
80.46000 7.308
80.48000 8.280
80.50000 11.303
80.52000 10.450
80.54000 11.582
80.56000 14.075
80.58000 12.532
80.60000 15.345
80.62000 16.408
80.64000 10.308
80.66000 10.632
80.68000 13.418
80.70000 15.545
80.72000 14.453
80.74000 16.729
80.76000 14.277
80.78000 16.143
80.80000 16.957
80.82000 18.508
80.84000 20.823
80.86000 19.298
80.88000 21.836
80.90000 24.715
80.92000 20.714
80.94000 15.531
80.96000 13.412
80.98000 15.714
81.00000 15.898
81.02000 18.064
81.04000 18.062
81.06000 17.582
81.08000 19.910
81.10000 20.478
81.12000 21.796
81.14000 21.277
81.16000 19.929
81.18000 18.353
81.20000 17.894
81.22000 18.419
81.24000 16.245
81.26000 18.696
81.28000 16.644
81.30000 15.510
81.32000 17.269
81.34000 18.230
81.36000 15.988
81.38000 15.327
81.40000 16.595
81.42000 14.983
81.44000 12.559
81.46000 13.969
81.48000 13.812
81.50000 12.410
81.52000 12.232
81.54000 14.907
81.56000 15.177
81.58000 14.784
81.60000 13.150
81.62000 13.232
81.64000 11.732
81.66000 13.559
81.68000 12.798
81.70000 13.653
81.72000 11.449
81.74000 7.009
81.76000 10.299
81.78000 10.034
81.80000 13.137
81.82000 9.974
81.84000 7.372
81.86000 5.917
81.88000 9.492
81.90000 9.169
81.92000 5.211
81.94000 6.507
81.96000 4.035
81.98000 4.432
82.00000 4.613
82.02000 4.700
82.04000 6.535
82.06000 4.451
82.08000 4.419
82.10000 6.409
82.12000 3.924
82.14000 6.703
82.16000 3.177
82.18000 3.332
82.20000 3.688
82.22000 3.567
82.24000 2.028
82.26000 4.489
82.28000 4.797
82.30000 4.325
82.32000 5.815
82.34000 4.364
82.36000 0.263
82.38000 -1.148
82.40000 2.463
82.42000 2.086
82.44000 2.762
82.46000 2.384
82.48000 5.331
82.50000 3.490
82.52000 3.090
82.54000 2.225
82.56000 2.830
82.58000 1.937
82.60000 1.481
82.62000 2.376
82.64000 0.885
82.66000 2.501
82.68000 2.756
82.70000 -0.050
82.72000 -2.041
82.74000 -0.831
82.76000 0.938
82.78000 1.673
82.80000 1.595
82.82000 1.936
82.84000 -0.078
82.86000 -0.183
82.88000 2.658
82.90000 4.197
82.92000 2.650
82.94000 2.324
82.96000 3.336
82.98000 3.960
83.00000 3.845
83.02000 -0.072
83.04000 1.270
83.06000 4.233
83.08000 2.039
83.10000 0.694
83.12000 2.442
83.14000 1.052
83.16000 -0.425
83.18000 0.789
83.20000 0.765
83.22000 -0.367
83.24000 -0.570
83.26000 0.549
83.28000 0.766
83.30000 0.106
83.32000 -1.163
83.34000 -0.673
83.36000 -2.059
83.38000 -2.022
83.40000 -0.924
83.42000 -1.500
83.44000 -0.202
83.46000 -0.573
83.48000 0.652
83.50000 0.461
83.52000 -0.078
83.54000 0.673
83.56000 1.467
83.58000 -0.596
83.60000 -0.732
83.62000 0.915
83.64000 2.457
83.66000 4.216
83.68000 4.349
83.70000 4.579
83.72000 3.159
83.74000 2.242
83.76000 2.063
83.78000 3.070
83.80000 3.757
83.82000 1.976
83.84000 3.367
83.86000 1.917
83.88000 3.680
83.90000 3.489
83.92000 5.422
83.94000 3.219
83.96000 1.863
83.98000 1.478
84.00000 2.584
84.02000 2.167
84.04000 2.417
84.06000 2.707
84.08000 3.479
84.10000 3.236
84.12000 3.588
84.14000 4.039
84.16000 4.105
84.18000 2.347
84.20000 6.924
84.22000 7.339
84.24000 5.709
84.26000 6.150
84.28000 7.665
84.30000 9.794
84.32000 6.658
84.34000 9.063
84.36000 7.517
84.38000 5.393
84.40000 7.861
84.42000 8.917
84.44000 7.982
84.46000 7.342
84.48000 8.458
84.50000 10.461
84.52000 14.866
84.54000 12.429
84.56000 13.385
84.58000 15.994
84.60000 15.395
84.62000 15.978
84.64000 11.631
84.66000 11.687
84.68000 15.599
84.70000 19.223
84.72000 15.109
84.74000 15.937
84.76000 14.309
84.78000 14.120
84.80000 15.498
84.82000 15.763
84.84000 17.706
84.86000 14.571
84.88000 13.005
84.90000 15.171
84.92000 16.292
84.94000 15.582
84.96000 17.365
84.98000 18.107
85.00000 17.915
85.02000 16.546
85.04000 16.247
85.06000 14.777
85.08000 14.055
85.10000 15.187
85.12000 18.843
85.14000 16.615
85.16000 15.850
85.18000 17.395
85.20000 17.489
85.22000 15.080
85.24000 16.796
85.26000 17.049
85.28000 15.916
85.30000 14.560
85.32000 16.252
85.34000 15.923
85.36000 13.732
85.38000 11.855
85.40000 14.872
85.42000 12.652
85.44000 11.482
85.46000 9.464
85.48000 13.490
85.50000 12.085
85.52000 5.775
85.54000 8.076
85.56000 8.005
85.58000 10.554
85.60000 6.771
85.62000 5.204
85.64000 6.570
85.66000 7.277
85.68000 7.092
85.70000 8.022
85.72000 4.587
85.74000 6.098
85.76000 3.707
85.78000 4.848
85.80000 7.198
85.82000 4.790
85.84000 3.906
85.86000 5.008
85.88000 5.484
85.90000 4.515
85.92000 2.591
85.94000 2.999
85.96000 2.733
85.98000 3.310
86.00000 3.963
86.02000 3.418
86.04000 1.757
86.06000 1.963
86.08000 5.999
86.10000 4.130
86.12000 5.444
86.14000 2.404
86.16000 1.728
86.18000 4.403
86.20000 4.100
86.22000 1.139
86.24000 -0.680
86.26000 -0.843
86.28000 0.996
86.30000 0.881
86.32000 0.181
86.34000 1.528
86.36000 3.180
86.38000 4.287
86.40000 7.574
86.42000 2.717
86.44000 1.132
86.46000 0.610
86.48000 -1.007
86.50000 -0.141
86.52000 3.255
86.54000 3.647
86.56000 1.745
86.58000 1.300
86.60000 3.386
86.62000 4.265
86.64000 3.605
86.66000 6.726
86.68000 4.493
86.70000 0.896
86.72000 0.303
86.74000 2.685
86.76000 3.752
86.78000 1.981
86.80000 0.662
86.82000 -1.791
86.84000 2.514
86.86000 4.038
86.88000 1.444
86.90000 1.613
86.92000 3.152
86.94000 2.311
86.96000 1.634
86.98000 -1.020
87.00000 1.017
87.02000 2.913
87.04000 1.060
87.06000 -0.323
87.08000 0.623
87.10000 1.242
87.12000 1.490
87.14000 3.911
87.16000 4.392
87.18000 6.340
87.20000 2.208
87.22000 -0.528
87.24000 -0.220
87.26000 3.780
87.28000 2.574
87.30000 2.709
87.32000 4.245
87.34000 2.832
87.36000 2.583
87.38000 1.809
87.40000 3.448
87.42000 3.119
87.44000 2.010
87.46000 2.700
87.48000 4.417
87.50000 3.564
87.52000 1.814
87.54000 0.080
87.56000 -0.464
87.58000 -0.181
87.60000 0.655
87.62000 0.681
87.64000 0.793
87.66000 2.116
87.68000 0.979
87.70000 -1.771
87.72000 -0.343
87.74000 2.601
87.76000 3.322
87.78000 2.354
87.80000 0.970
87.82000 1.699
87.84000 3.105
87.86000 4.137
87.88000 3.332
87.90000 2.357
87.92000 0.838
87.94000 1.035
87.96000 2.045
87.98000 0.563
88.00000 2.532
88.02000 0.530
88.04000 -1.348
88.06000 -0.223
88.08000 0.949
88.10000 0.286
88.12000 0.950
88.14000 -1.021
88.16000 1.329
88.18000 4.018
88.20000 4.958
88.22000 -0.105
88.24000 1.874
88.26000 2.407
88.28000 2.171
88.30000 -0.129
88.32000 1.130
88.34000 0.367
88.36000 3.731
88.38000 4.321
88.40000 2.856
88.42000 0.407
88.44000 0.586
88.46000 3.361
88.48000 2.712
88.50000 1.156
88.52000 -0.394
88.54000 -0.179
88.56000 -0.443
88.58000 -0.145
88.60000 1.449
88.62000 0.632
88.64000 3.342
88.66000 2.193
88.68000 2.461
88.70000 1.618
88.72000 0.271
88.74000 0.716
88.76000 2.117
88.78000 -0.059
88.80000 -0.195
88.82000 0.437
88.84000 0.832
88.86000 0.274
88.88000 3.395
88.90000 0.004
88.92000 -1.733
88.94000 0.519
88.96000 0.534
88.98000 2.026
89.00000 1.883
89.02000 1.707
89.04000 0.482
89.06000 2.280
89.08000 1.927
89.10000 2.773
89.12000 0.899
89.14000 1.319
89.16000 -0.475
89.18000 -1.215
89.20000 0.651
89.22000 1.023
89.24000 1.329
89.26000 1.217
89.28000 1.908
89.30000 0.931
89.32000 2.021
89.34000 0.142
89.36000 1.083
89.38000 0.723
89.40000 -0.202
89.42000 1.786
89.44000 2.786
89.46000 3.394
89.48000 1.129
89.50000 -0.404
89.52000 2.935
89.54000 4.528
89.56000 1.367
89.58000 -0.083
89.60000 -0.203
89.62000 3.017
89.64000 0.824
89.66000 -0.797
89.68000 -0.591
89.70000 -1.270
89.72000 -0.428
89.74000 2.746
89.76000 1.531
89.78000 2.501
89.80000 2.749
89.82000 3.448
89.84000 1.802
89.86000 0.442
89.88000 2.491
89.90000 1.442
89.92000 1.443
89.94000 0.914
89.96000 1.006
89.98000 0.323
90.00000 -0.962
90.02000 -1.742
90.04000 0.544
90.06000 3.663
90.08000 0.182
90.10000 0.178
90.12000 -1.006
90.14000 0.930
90.16000 2.577
90.18000 2.926
90.20000 2.803
90.22000 3.437
90.24000 1.108
90.26000 2.363
90.28000 2.094
90.30000 0.861
90.32000 -0.803
90.34000 1.945
90.36000 3.990
90.38000 -0.630
90.40000 0.628
90.42000 2.270
90.44000 -0.598
90.46000 2.784
90.48000 -0.469
90.50000 1.016
90.52000 1.703
90.54000 0.430
90.56000 0.618
90.58000 2.312
90.60000 1.399
90.62000 -0.702
90.64000 3.234
90.66000 2.307
90.68000 0.406
90.70000 1.034
90.72000 0.098
90.74000 -0.212
90.76000 0.753
90.78000 0.838
90.80000 1.124
90.82000 2.243
90.84000 -1.013
90.86000 -0.018
90.88000 2.345
90.90000 3.179
90.92000 -0.297
90.94000 -1.779
90.96000 0.243
90.98000 -0.017
91.00000 -0.884
91.02000 -0.693
91.04000 -0.400
91.06000 -0.602
91.08000 -0.224
91.10000 -0.208
91.12000 0.621
91.14000 2.241
91.16000 4.585
91.18000 0.799
91.20000 0.451
91.22000 2.426
91.24000 2.229
91.26000 2.074
91.28000 -0.089
91.30000 1.158
91.32000 -0.880
91.34000 -1.064
91.36000 -0.010
91.38000 2.090
91.40000 1.291
91.42000 0.083
91.44000 -0.768
91.46000 -0.191
91.48000 2.908
91.50000 3.628
91.52000 -1.545
91.54000 3.704
91.56000 1.168
91.58000 -0.743
91.60000 0.206
91.62000 -1.670
91.64000 0.550
91.66000 0.883
91.68000 -0.257
91.70000 -0.451
91.72000 1.484
91.74000 1.076
91.76000 0.873
91.78000 1.662
91.80000 1.988
91.82000 3.362
91.84000 0.930
91.86000 -0.875
91.88000 2.270
91.90000 2.346
91.92000 1.332
91.94000 2.568
91.96000 0.285
91.98000 -0.444
92.00000 1.706
92.02000 0.599
92.04000 1.881
92.06000 1.652
92.08000 4.618
92.10000 1.752
92.12000 3.116
92.14000 6.333
92.16000 2.669
92.18000 4.399
92.20000 4.760
92.22000 3.688
92.24000 1.478
92.26000 2.811
92.28000 1.869
92.30000 4.696
92.32000 4.492
92.34000 3.212
92.36000 2.678
92.38000 2.522
92.40000 1.626
92.42000 3.377
92.44000 1.913
92.46000 -1.702
92.48000 3.716
92.50000 5.332
92.52000 4.029
92.54000 3.483
92.56000 3.323
92.58000 4.554
92.60000 5.656
92.62000 5.212
92.64000 3.312
92.66000 4.533
92.68000 2.912
92.70000 2.949
92.72000 4.630
92.74000 4.373
92.76000 2.065
92.78000 0.743
92.80000 -1.120
92.82000 -0.042
92.84000 1.607
92.86000 3.266
92.88000 2.147
92.90000 3.452
92.92000 6.289
92.94000 6.032
92.96000 3.232
92.98000 3.836
93.00000 4.188
93.02000 2.957
93.04000 0.845
93.06000 0.887
93.08000 0.470
93.10000 1.483
93.12000 0.925
93.14000 1.022
93.16000 3.581
93.18000 2.109
93.20000 2.165
93.22000 2.592
93.24000 6.289
93.26000 5.721
93.28000 3.058
93.30000 1.549
93.32000 0.053
93.34000 1.810
93.36000 0.743
93.38000 2.195
93.40000 3.521
93.42000 1.814
93.44000 4.530
93.46000 3.988
93.48000 4.225
93.50000 4.004
93.52000 3.981
93.54000 1.522
93.56000 -0.908
93.58000 -1.764
93.60000 1.237
93.62000 1.899
93.64000 1.090
93.66000 0.735
93.68000 2.337
93.70000 2.368
93.72000 0.960
93.74000 -1.573
93.76000 0.246
93.78000 1.655
93.80000 3.852
93.82000 1.185
93.84000 4.605
93.86000 4.747
93.88000 0.643
93.90000 1.576
93.92000 -0.367
93.94000 -1.001
93.96000 1.834
93.98000 3.648
94.00000 2.442
94.02000 4.392
94.04000 2.580
94.06000 0.642
94.08000 0.918
94.10000 0.933
94.12000 1.634
94.14000 2.596
94.16000 2.582
94.18000 0.333
94.20000 2.510
94.22000 3.606
94.24000 1.564
94.26000 -1.777
94.28000 -0.090
94.30000 2.237
94.32000 3.741
94.34000 1.791
94.36000 1.998
94.38000 -0.037
94.40000 0.406
94.42000 -1.098
94.44000 2.481
94.46000 1.587
94.48000 0.274
94.50000 1.837
94.52000 2.624
94.54000 1.180
94.56000 0.372
94.58000 -1.117
94.60000 2.214
94.62000 4.437
94.64000 0.933
94.66000 2.541
94.68000 1.114
94.70000 -1.327
94.72000 -0.473
94.74000 1.155
94.76000 1.984
94.78000 3.694
94.80000 3.966
94.82000 3.102
94.84000 4.355
94.86000 2.717
94.88000 6.135
94.90000 4.426
94.92000 1.163
94.94000 5.042
94.96000 6.368
94.98000 5.537
95.00000 3.123
95.02000 0.984
95.04000 1.039
95.06000 1.129
95.08000 0.922
95.10000 0.512
95.12000 5.058
95.14000 7.307
95.16000 0.902
95.18000 -1.780
95.20000 1.714
95.22000 1.988
95.24000 1.002
95.26000 0.410
95.28000 -0.785
95.30000 -0.370
95.32000 0.171
95.34000 3.415
95.36000 3.175
95.38000 0.866
95.40000 -0.681
95.42000 -0.824
95.44000 1.236
95.46000 1.447
95.48000 4.617
95.50000 4.991
95.52000 5.243
95.54000 4.391
95.56000 1.782
95.58000 3.922
95.60000 2.483
95.62000 2.681
95.64000 2.525
95.66000 0.436
95.68000 -1.071
95.70000 2.608
95.72000 1.860
95.74000 1.729
95.76000 1.620
95.78000 4.502
95.80000 5.360
95.82000 1.973
95.84000 -0.020
95.86000 -0.584
95.88000 0.925
95.90000 0.023
95.92000 1.514
95.94000 3.019
95.96000 2.584
95.98000 3.269
96.00000 3.281
96.02000 2.498
96.04000 1.944
96.06000 1.164
96.08000 -0.300
96.10000 -0.795
96.12000 -0.157
96.14000 -0.872
96.16000 2.173
96.18000 -0.305
96.20000 -1.091
96.22000 -1.220
96.24000 0.153
96.26000 1.282
96.28000 1.769
96.30000 1.391
96.32000 -0.321
96.34000 -1.818
96.36000 -0.387
96.38000 -0.258
96.40000 1.282
96.42000 0.118
96.44000 -0.025
96.46000 1.267
96.48000 -1.558
96.50000 -1.187
96.52000 2.944
96.54000 -0.240
96.56000 -1.234
96.58000 -0.078
96.60000 0.055
96.62000 2.401
96.64000 2.400
96.66000 6.372
96.68000 3.711
96.70000 -0.375
96.72000 -0.477
96.74000 -0.935
96.76000 1.614
96.78000 2.265
96.80000 0.276
96.82000 2.426
96.84000 3.995
96.86000 -0.823
96.88000 -1.203
96.90000 7.001
96.92000 0.822
96.94000 0.718
96.96000 2.739
96.98000 0.588
97.00000 0.594
97.02000 4.029
97.04000 6.154
97.06000 1.888
97.08000 1.548
97.10000 1.723
97.12000 3.546
97.14000 1.349
97.16000 0.928
97.18000 2.784
97.20000 1.888
97.22000 4.122
97.24000 4.227
97.26000 0.666
97.28000 0.154
97.30000 2.080
97.32000 6.479
97.34000 1.445
97.36000 2.929
97.38000 3.711
97.40000 5.659
97.42000 3.351
97.44000 3.039
97.46000 3.582
97.48000 1.155
97.50000 3.108
97.52000 0.888
97.54000 -0.155
97.56000 1.727
97.58000 1.433
97.60000 3.541
97.62000 7.347
97.64000 9.396
97.66000 4.753
97.68000 1.403
97.70000 2.488
97.72000 2.900
97.74000 3.054
97.76000 5.987
97.78000 3.598
97.80000 2.695
97.82000 0.551
97.84000 0.697
97.86000 3.427
97.88000 3.641
97.90000 3.029
97.92000 0.079
97.94000 2.172
97.96000 5.340
97.98000 3.368
98.00000 1.772
98.02000 9.622
98.04000 9.321
98.06000 4.307
98.08000 6.712
98.10000 6.448
98.12000 3.984
98.14000 1.431
98.16000 5.843
98.18000 6.407
98.20000 3.384
98.22000 3.920
98.24000 -1.679
98.26000 4.630
98.28000 7.092
98.30000 8.040
98.32000 7.063
98.34000 9.312
98.36000 0.121
98.38000 1.995
98.40000 6.459
98.42000 6.220
98.44000 0.829
98.46000 7.693
98.48000 9.515
98.50000 10.602
98.52000 6.092
98.54000 4.991
98.56000 1.468
98.58000 1.463
98.60000 7.346
98.62000 7.165
98.64000 4.565
98.66000 4.605
98.68000 4.244
98.70000 0.680
98.72000 1.470
98.74000 -1.705
98.76000 0.717
98.78000 2.252
98.80000 4.522
98.82000 5.702
98.84000 7.730
98.86000 6.241
98.88000 2.285
98.90000 3.915
98.92000 7.989
98.94000 7.146
98.96000 2.412
98.98000 3.675
99.00000 9.937
99.02000 7.402
99.04000 3.018
99.06000 4.701
99.08000 4.201
99.10000 2.861
99.12000 4.407
99.14000 5.231
99.16000 6.332
99.18000 7.787
99.20000 3.211
99.22000 -1.451
99.24000 4.894
99.26000 4.932
99.28000 6.971
99.30000 9.402
99.32000 12.192
99.34000 4.670
99.36000 2.660
99.38000 0.632
99.40000 4.678
99.42000 3.307
99.44000 5.531
99.46000 1.921
99.48000 7.774
99.50000 9.534
99.52000 5.824
99.54000 3.643
99.56000 -1.698
99.58000 -0.225
99.60000 6.525
99.62000 7.206
99.64000 7.989
99.66000 5.135
99.68000 -0.476
99.70000 4.059
99.72000 4.674
99.74000 8.476
99.76000 10.009
99.78000 4.544
99.80000 -1.807
99.82000 6.624
99.84000 4.523
99.86000 -0.910
99.88000 -1.774
99.90000 6.421
99.92000 5.608
99.94000 4.528
99.96000 2.314
99.98000 0.000
