'Id: "0011387" Comment: "Integrate frame 0011387_Au-Ir-Rh_Rh-rich_XRD-Mapping-273-0000.gfrmwith cursor Wedge Cursor #5" Operator: "B?rgel" Anode: "Cu" Wavelength: "1.5406" Scantype: "2Theta (TwoTheta)" TimePerStep: "1" X: "18" Y: "22.5" Z: "5.95" 
10.00000 0.000
10.02000 4.915
10.04000 -7.728
10.06000 7.301
10.08000 1.517
10.10000 9.576
10.12000 16.000
10.14000 19.726
10.16000 12.896
10.18000 20.139
10.20000 16.036
10.22000 25.444
10.24000 20.517
10.26000 34.925
10.28000 42.327
10.30000 22.364
10.32000 33.604
10.34000 21.803
10.36000 19.359
10.38000 6.497
10.40000 6.540
10.42000 28.904
10.44000 31.290
10.46000 33.957
10.48000 14.178
10.50000 3.915
10.52000 7.317
10.54000 3.982
10.56000 6.293
10.58000 10.395
10.60000 27.147
10.62000 12.823
10.64000 15.927
10.66000 17.264
10.68000 14.811
10.70000 18.786
10.72000 18.168
10.74000 17.859
10.76000 18.911
10.78000 17.097
10.80000 17.725
10.82000 14.745
10.84000 11.914
10.86000 8.009
10.88000 10.675
10.90000 19.165
10.92000 23.965
10.94000 16.955
10.96000 18.102
10.98000 15.356
11.00000 17.718
11.02000 23.242
11.04000 27.796
11.06000 28.905
11.08000 31.163
11.10000 18.367
11.12000 11.616
11.14000 11.165
11.16000 15.923
11.18000 13.779
11.20000 18.628
11.22000 27.219
11.24000 27.425
11.26000 24.523
11.28000 18.539
11.30000 11.616
11.32000 6.457
11.34000 11.439
11.36000 16.345
11.38000 20.703
11.40000 23.626
11.42000 32.068
11.44000 34.257
11.46000 24.013
11.48000 17.456
11.50000 7.926
11.52000 10.199
11.54000 9.870
11.56000 14.401
11.58000 14.593
11.60000 13.807
11.62000 15.238
11.64000 17.082
11.66000 16.729
11.68000 27.313
11.70000 23.909
11.72000 21.859
11.74000 18.605
11.76000 21.019
11.78000 23.419
11.80000 17.600
11.82000 15.284
11.84000 20.033
11.86000 23.438
11.88000 22.900
11.90000 26.503
11.92000 25.629
11.94000 23.116
11.96000 27.150
11.98000 23.484
12.00000 29.969
12.02000 32.220
12.04000 36.315
12.06000 27.103
12.08000 23.947
12.10000 23.209
12.12000 19.908
12.14000 21.937
12.16000 24.702
12.18000 28.229
12.20000 24.105
12.22000 22.810
12.24000 30.236
12.26000 39.652
12.28000 29.859
12.30000 27.878
12.32000 24.296
12.34000 33.162
12.36000 20.151
12.38000 20.500
12.40000 23.805
12.42000 23.610
12.44000 20.144
12.46000 21.473
12.48000 23.683
12.50000 14.303
12.52000 22.080
12.54000 15.883
12.56000 25.149
12.58000 24.249
12.60000 29.673
12.62000 26.354
12.64000 24.097
12.66000 19.164
12.68000 23.250
12.70000 21.167
12.72000 25.572
12.74000 22.978
12.76000 21.089
12.78000 27.466
12.80000 23.690
12.82000 23.636
12.84000 29.104
12.86000 22.700
12.88000 17.120
12.90000 21.198
12.92000 23.362
12.94000 23.896
12.96000 18.018
12.98000 21.603
13.00000 24.125
13.02000 26.690
13.04000 27.896
13.06000 23.999
13.08000 23.452
13.10000 24.353
13.12000 11.086
13.14000 14.402
13.16000 18.917
13.18000 23.600
13.20000 20.835
13.22000 18.804
13.24000 17.345
13.26000 21.807
13.28000 20.247
13.30000 20.338
13.32000 22.669
13.34000 10.391
13.36000 9.721
13.38000 17.377
13.40000 21.431
13.42000 23.799
13.44000 23.914
13.46000 8.317
13.48000 6.498
13.50000 14.121
13.52000 17.155
13.54000 17.115
13.56000 20.931
13.58000 18.496
13.60000 12.381
13.62000 18.599
13.64000 16.287
13.66000 15.776
13.68000 16.139
13.70000 17.981
13.72000 16.109
13.74000 11.093
13.76000 11.162
13.78000 11.765
13.80000 10.469
13.82000 16.742
13.84000 17.035
13.86000 14.420
13.88000 17.139
13.90000 24.826
13.92000 14.799
13.94000 14.895
13.96000 18.608
13.98000 9.844
14.00000 8.563
14.02000 15.448
14.04000 16.280
14.06000 19.086
14.08000 21.659
14.10000 11.858
14.12000 17.214
14.14000 16.287
14.16000 20.728
14.18000 9.406
14.20000 8.112
14.22000 12.528
14.24000 12.194
14.26000 12.852
14.28000 15.577
14.30000 15.342
14.32000 13.706
14.34000 24.420
14.36000 6.877
14.38000 6.636
14.40000 3.416
14.42000 13.361
14.44000 12.656
14.46000 17.859
14.48000 15.790
14.50000 14.100
14.52000 11.977
14.54000 15.602
14.56000 15.919
14.58000 8.662
14.60000 9.151
14.62000 10.503
14.64000 19.101
14.66000 19.286
14.68000 12.385
14.70000 17.478
14.72000 11.109
14.74000 14.590
14.76000 9.664
14.78000 16.428
14.80000 19.873
14.82000 14.409
14.84000 9.928
14.86000 10.128
14.88000 4.719
14.90000 -2.483
14.92000 8.502
14.94000 14.339
14.96000 14.934
14.98000 6.310
15.00000 11.852
15.02000 16.943
15.04000 21.422
15.06000 9.316
15.08000 3.080
15.10000 4.869
15.12000 8.362
15.14000 5.584
15.16000 7.279
15.18000 10.901
15.20000 9.006
15.22000 11.822
15.24000 5.793
15.26000 5.129
15.28000 11.803
15.30000 7.793
15.32000 18.418
15.34000 15.996
15.36000 11.454
15.38000 17.802
15.40000 13.951
15.42000 2.181
15.44000 0.557
15.46000 9.624
15.48000 11.013
15.50000 11.097
15.52000 16.304
15.54000 14.049
15.56000 15.478
15.58000 12.282
15.60000 15.889
15.62000 19.642
15.64000 16.085
15.66000 8.003
15.68000 7.315
15.70000 7.218
15.72000 7.255
15.74000 10.140
15.76000 6.206
15.78000 10.190
15.80000 16.527
15.82000 13.183
15.84000 8.255
15.86000 3.998
15.88000 0.196
15.90000 6.781
15.92000 8.713
15.94000 1.277
15.96000 4.775
15.98000 12.730
16.00000 8.648
16.02000 7.742
16.04000 14.221
16.06000 13.917
16.08000 13.598
16.10000 12.537
16.12000 17.609
16.14000 7.988
16.16000 6.611
16.18000 9.265
16.20000 3.180
16.22000 11.208
16.24000 14.955
16.26000 10.979
16.28000 7.037
16.30000 10.997
16.32000 5.358
16.34000 6.949
16.36000 1.658
16.38000 7.618
16.40000 8.350
16.42000 1.592
16.44000 4.617
16.46000 5.258
16.48000 4.594
16.50000 12.094
16.52000 12.813
16.54000 9.020
16.56000 3.125
16.58000 4.191
16.60000 6.519
16.62000 7.199
16.64000 17.365
16.66000 4.183
16.68000 1.839
16.70000 9.310
16.72000 8.117
16.74000 2.473
16.76000 7.153
16.78000 5.440
16.80000 5.726
16.82000 11.350
16.84000 13.207
16.86000 17.093
16.88000 6.473
16.90000 -3.286
16.92000 7.157
16.94000 5.184
16.96000 9.039
16.98000 9.455
17.00000 15.547
17.02000 12.483
17.04000 2.514
17.06000 4.252
17.08000 13.634
17.10000 10.109
17.12000 10.377
17.14000 5.536
17.16000 4.034
17.18000 9.362
17.20000 10.257
17.22000 13.091
17.24000 10.822
17.26000 11.842
17.28000 9.110
17.30000 7.523
17.32000 14.307
17.34000 8.948
17.36000 5.434
17.38000 6.691
17.40000 5.676
17.42000 7.757
17.44000 9.164
17.46000 17.229
17.48000 11.946
17.50000 7.981
17.52000 8.683
17.54000 8.953
17.56000 11.688
17.58000 13.580
17.60000 13.366
17.62000 15.110
17.64000 7.511
17.66000 9.446
17.68000 9.441
17.70000 5.232
17.72000 9.673
17.74000 1.683
17.76000 6.936
17.78000 13.941
17.80000 9.995
17.82000 8.287
17.84000 8.427
17.86000 10.407
17.88000 8.139
17.90000 2.294
17.92000 -4.334
17.94000 4.231
17.96000 5.973
17.98000 2.732
18.00000 -1.340
18.02000 2.262
18.04000 3.556
18.06000 6.842
18.08000 5.664
18.10000 4.200
18.12000 0.539
18.14000 0.440
18.16000 1.731
18.18000 5.718
18.20000 13.517
18.22000 19.726
18.24000 10.016
18.26000 7.859
18.28000 7.894
18.30000 8.631
18.32000 10.056
18.34000 9.263
18.36000 8.569
18.38000 1.000
18.40000 5.611
18.42000 7.139
18.44000 9.427
18.46000 2.897
18.48000 0.554
18.50000 2.337
18.52000 1.948
18.54000 2.300
18.56000 13.189
18.58000 12.416
18.60000 3.882
18.62000 5.548
18.64000 5.016
18.66000 7.290
18.68000 4.081
18.70000 4.001
18.72000 7.184
18.74000 6.107
18.76000 2.645
18.78000 8.216
18.80000 5.649
18.82000 -0.253
18.84000 -2.165
18.86000 1.886
18.88000 -0.750
18.90000 -4.303
18.92000 -1.425
18.94000 12.322
18.96000 17.367
18.98000 8.889
19.00000 6.911
19.02000 11.442
19.04000 9.518
19.06000 4.801
19.08000 5.945
19.10000 8.535
19.12000 2.649
19.14000 3.173
19.16000 2.726
19.18000 3.978
19.20000 7.119
19.22000 10.464
19.24000 6.620
19.26000 2.612
19.28000 -0.740
19.30000 4.739
19.32000 5.907
19.34000 2.531
19.36000 0.609
19.38000 1.028
19.40000 4.113
19.42000 -0.542
19.44000 0.896
19.46000 1.664
19.48000 6.315
19.50000 7.763
19.52000 9.144
19.54000 6.911
19.56000 0.205
19.58000 -0.154
19.60000 -2.372
19.62000 -3.760
19.64000 -1.901
19.66000 9.423
19.68000 2.144
19.70000 -2.375
19.72000 8.757
19.74000 4.641
19.76000 -0.213
19.78000 -3.178
19.80000 -2.561
19.82000 2.596
19.84000 5.222
19.86000 4.159
19.88000 3.921
19.90000 5.388
19.92000 2.946
19.94000 -2.388
19.96000 -4.095
19.98000 -0.633
20.00000 2.877
20.02000 -0.947
20.04000 -2.141
20.06000 6.247
20.08000 3.471
20.10000 6.350
20.12000 7.382
20.14000 3.178
20.16000 -2.633
20.18000 2.220
20.20000 4.433
20.22000 4.996
20.24000 -0.911
20.26000 0.574
20.28000 0.286
20.30000 -1.329
20.32000 0.796
20.34000 -1.818
20.36000 -0.420
20.38000 5.529
20.40000 7.250
20.42000 6.078
20.44000 8.165
20.46000 6.555
20.48000 1.543
20.50000 -2.186
20.52000 0.857
20.54000 2.568
20.56000 2.227
20.58000 6.733
20.60000 4.451
20.62000 -3.273
20.64000 -4.200
20.66000 0.883
20.68000 6.829
20.70000 5.099
20.72000 12.699
20.74000 18.763
20.76000 8.543
20.78000 10.645
20.80000 4.733
20.82000 9.713
20.84000 7.287
20.86000 2.309
20.88000 2.022
20.90000 0.942
20.92000 -0.779
20.94000 1.849
20.96000 5.731
20.98000 4.018
21.00000 4.471
21.02000 3.341
21.04000 0.929
21.06000 -0.281
21.08000 0.732
21.10000 2.241
21.12000 4.627
21.14000 5.773
21.16000 7.106
21.18000 1.820
21.20000 2.705
21.22000 6.305
21.24000 7.221
21.26000 0.942
21.28000 -0.257
21.30000 4.630
21.32000 8.381
21.34000 5.537
21.36000 4.802
21.38000 1.267
21.40000 6.312
21.42000 10.313
21.44000 5.474
21.46000 12.876
21.48000 6.914
21.50000 1.262
21.52000 1.102
21.54000 6.925
21.56000 6.214
21.58000 5.163
21.60000 1.913
21.62000 0.241
21.64000 10.733
21.66000 7.694
21.68000 -1.256
21.70000 -3.889
21.72000 -0.973
21.74000 -0.600
21.76000 2.572
21.78000 -1.901
21.80000 -4.159
21.82000 5.224
21.84000 9.531
21.86000 7.592
21.88000 3.738
21.90000 3.117
21.92000 2.453
21.94000 2.943
21.96000 5.767
21.98000 2.303
22.00000 3.227
22.02000 8.122
22.04000 7.903
22.06000 0.920
22.08000 0.033
22.10000 4.015
22.12000 5.624
22.14000 2.836
22.16000 5.860
22.18000 0.495
22.20000 -1.699
22.22000 -0.666
22.24000 2.073
22.26000 1.243
22.28000 -1.741
22.30000 0.226
22.32000 0.347
22.34000 3.545
22.36000 4.726
22.38000 8.243
22.40000 10.156
22.42000 10.807
22.44000 1.835
22.46000 2.531
22.48000 -0.342
22.50000 0.472
22.52000 6.174
22.54000 0.606
22.56000 5.153
22.58000 8.787
22.60000 7.057
22.62000 0.102
22.64000 -1.831
22.66000 -3.325
22.68000 3.504
22.70000 2.800
22.72000 6.147
22.74000 11.723
22.76000 10.014
22.78000 4.645
22.80000 6.855
22.82000 0.629
22.84000 -1.607
22.86000 5.238
22.88000 4.018
22.90000 0.154
22.92000 -3.181
22.94000 -4.105
22.96000 -2.727
22.98000 2.209
23.00000 3.067
23.02000 5.290
23.04000 5.184
23.06000 5.904
23.08000 3.764
23.10000 4.946
23.12000 7.046
23.14000 0.742
23.16000 -3.762
23.18000 -2.733
23.20000 -1.296
23.22000 4.534
23.24000 8.042
23.26000 8.115
23.28000 7.882
23.30000 -1.792
23.32000 1.515
23.34000 -2.811
23.36000 0.047
23.38000 4.828
23.40000 8.233
23.42000 2.097
23.44000 -2.508
23.46000 -0.044
23.48000 2.223
23.50000 2.427
23.52000 1.586
23.54000 3.840
23.56000 5.602
23.58000 4.007
23.60000 3.007
23.62000 2.842
23.64000 2.882
23.66000 2.837
23.68000 4.805
23.70000 8.067
23.72000 8.021
23.74000 3.308
23.76000 0.420
23.78000 6.753
23.80000 8.680
23.82000 0.819
23.84000 0.816
23.86000 0.155
23.88000 2.817
23.90000 0.878
23.92000 0.818
23.94000 0.727
23.96000 1.565
23.98000 4.187
24.00000 2.914
24.02000 -4.026
24.04000 1.880
24.06000 10.805
24.08000 0.890
24.10000 -3.341
24.12000 0.314
24.14000 5.435
24.16000 5.037
24.18000 5.583
24.20000 6.246
24.22000 0.360
24.24000 -2.355
24.26000 4.721
24.28000 6.358
24.30000 -0.818
24.32000 1.615
24.34000 6.408
24.36000 5.391
24.38000 -0.279
24.40000 -0.693
24.42000 0.758
24.44000 7.163
24.46000 8.671
24.48000 8.625
24.50000 7.486
24.52000 1.141
24.54000 0.814
24.56000 2.071
24.58000 -3.399
24.60000 -0.423
24.62000 -0.394
24.64000 3.065
24.66000 2.607
24.68000 3.094
24.70000 5.889
24.72000 7.463
24.74000 9.341
24.76000 5.797
24.78000 5.622
24.80000 4.945
24.82000 3.577
24.84000 1.937
24.86000 0.454
24.88000 1.913
24.90000 7.577
24.92000 5.726
24.94000 3.275
24.96000 3.882
24.98000 1.726
25.00000 5.602
25.02000 5.746
25.04000 -1.573
25.06000 0.798
25.08000 1.563
25.10000 1.522
25.12000 3.172
25.14000 1.670
25.16000 1.697
25.18000 -0.516
25.20000 -1.082
25.22000 2.530
25.24000 -0.670
25.26000 0.257
25.28000 5.191
25.30000 9.281
25.32000 8.685
25.34000 0.349
25.36000 1.675
25.38000 3.916
25.40000 2.928
25.42000 5.897
25.44000 2.382
25.46000 0.440
25.48000 7.987
25.50000 9.629
25.52000 2.180
25.54000 0.548
25.56000 -3.916
25.58000 0.008
25.60000 3.755
25.62000 4.449
25.64000 6.648
25.66000 3.495
25.68000 5.341
25.70000 4.337
25.72000 0.551
25.74000 3.338
25.76000 3.398
25.78000 5.080
25.80000 6.801
25.82000 4.880
25.84000 -0.273
25.86000 5.851
25.88000 12.292
25.90000 7.170
25.92000 4.232
25.94000 2.379
25.96000 2.390
25.98000 -0.743
26.00000 4.372
26.02000 9.066
26.04000 11.148
26.06000 3.648
26.08000 4.172
26.10000 5.427
26.12000 2.613
26.14000 8.686
26.16000 9.815
26.18000 6.813
26.20000 8.155
26.22000 0.527
26.24000 -0.537
26.26000 5.408
26.28000 10.232
26.30000 9.576
26.32000 8.544
26.34000 12.058
26.36000 6.448
26.38000 4.507
26.40000 0.076
26.42000 -3.135
26.44000 -0.432
26.46000 5.587
26.48000 0.744
26.50000 2.525
26.52000 1.783
26.54000 -0.047
26.56000 0.083
26.58000 2.005
26.60000 6.024
26.62000 3.987
26.64000 5.302
26.66000 6.121
26.68000 2.987
26.70000 2.756
26.72000 2.909
26.74000 3.738
26.76000 0.752
26.78000 2.518
26.80000 3.842
26.82000 -0.965
26.84000 -2.876
26.86000 -3.082
26.88000 1.648
26.90000 7.300
26.92000 6.893
26.94000 -1.346
26.96000 2.465
26.98000 -1.235
27.00000 1.347
27.02000 2.704
27.04000 3.079
27.06000 8.688
27.08000 4.579
27.10000 5.171
27.12000 3.338
27.14000 0.288
27.16000 -1.050
27.18000 1.628
27.20000 8.020
27.22000 4.527
27.24000 1.821
27.26000 1.729
27.28000 4.996
27.30000 5.814
27.32000 6.663
27.34000 7.223
27.36000 8.250
27.38000 9.066
27.40000 8.894
27.42000 7.331
27.44000 5.914
27.46000 6.360
27.48000 2.713
27.50000 0.960
27.52000 -2.033
27.54000 0.526
27.56000 4.652
27.58000 3.066
27.60000 3.800
27.62000 4.421
27.64000 7.482
27.66000 5.104
27.68000 6.907
27.70000 4.614
27.72000 2.158
27.74000 7.283
27.76000 6.704
27.78000 7.603
27.80000 5.193
27.82000 6.690
27.84000 7.980
27.86000 4.027
27.88000 4.358
27.90000 2.061
27.92000 1.987
27.94000 2.219
27.96000 4.813
27.98000 4.730
28.00000 -0.001
28.02000 -2.953
28.04000 -3.777
28.06000 0.301
28.08000 8.634
28.10000 7.275
28.12000 12.025
28.14000 10.016
28.16000 12.607
28.18000 8.332
28.20000 7.217
28.22000 5.522
28.24000 6.959
28.26000 5.700
28.28000 1.091
28.30000 5.831
28.32000 4.792
28.34000 9.367
28.36000 5.625
28.38000 6.963
28.40000 7.029
28.42000 9.034
28.44000 3.106
28.46000 -3.755
28.48000 -1.344
28.50000 3.997
28.52000 6.978
28.54000 7.519
28.56000 6.500
28.58000 6.800
28.60000 7.928
28.62000 6.675
28.64000 2.031
28.66000 4.599
28.68000 6.655
28.70000 5.177
28.72000 0.183
28.74000 4.218
28.76000 0.227
28.78000 4.971
28.80000 6.724
28.82000 2.373
28.84000 3.526
28.86000 7.516
28.88000 3.821
28.90000 -1.021
28.92000 1.120
28.94000 4.953
28.96000 3.009
28.98000 4.321
29.00000 6.420
29.02000 6.035
29.04000 3.939
29.06000 6.677
29.08000 2.784
29.10000 3.601
29.12000 2.439
29.14000 -1.418
29.16000 1.373
29.18000 6.275
29.20000 9.265
29.22000 2.318
29.24000 -3.747
29.26000 0.147
29.28000 1.865
29.30000 1.034
29.32000 2.180
29.34000 2.615
29.36000 5.534
29.38000 4.153
29.40000 0.738
29.42000 -0.485
29.44000 0.065
29.46000 -3.463
29.48000 -2.316
29.50000 3.237
29.52000 2.660
29.54000 0.215
29.56000 2.894
29.58000 2.269
29.60000 3.748
29.62000 0.298
29.64000 -3.435
29.66000 0.871
29.68000 4.107
29.70000 1.864
29.72000 3.490
29.74000 6.209
29.76000 2.979
29.78000 -2.206
29.80000 1.743
29.82000 7.444
29.84000 4.854
29.86000 3.470
29.88000 0.940
29.90000 0.262
29.92000 3.656
29.94000 -0.033
29.96000 -0.542
29.98000 5.137
30.00000 10.679
30.02000 6.983
30.04000 3.014
30.06000 2.133
30.08000 2.376
30.10000 -1.808
30.12000 4.508
30.14000 4.517
30.16000 3.899
30.18000 3.826
30.20000 4.790
30.22000 2.016
30.24000 4.027
30.26000 2.261
30.28000 4.480
30.30000 2.261
30.32000 0.034
30.34000 2.888
30.36000 4.368
30.38000 3.967
30.40000 0.280
30.42000 3.513
30.44000 0.707
30.46000 -1.396
30.48000 -0.814
30.50000 -1.204
30.52000 0.773
30.54000 5.814
30.56000 6.180
30.58000 8.879
30.60000 5.127
30.62000 5.965
30.64000 5.974
30.66000 -1.522
30.68000 -1.430
30.70000 -1.214
30.72000 4.931
30.74000 6.368
30.76000 4.047
30.78000 0.258
30.80000 4.073
30.82000 -1.728
30.84000 3.880
30.86000 7.237
30.88000 6.084
30.90000 9.196
30.92000 9.881
30.94000 10.126
30.96000 4.517
30.98000 -0.309
31.00000 3.424
31.02000 3.845
31.04000 4.208
31.06000 7.152
31.08000 6.502
31.10000 10.458
31.12000 3.455
31.14000 0.008
31.16000 -3.623
31.18000 -0.086
31.20000 3.876
31.22000 7.689
31.24000 7.697
31.26000 9.432
31.28000 4.163
31.30000 3.032
31.32000 4.024
31.34000 3.903
31.36000 3.218
31.38000 4.153
31.40000 4.997
31.42000 4.150
31.44000 2.686
31.46000 4.787
31.48000 3.912
31.50000 5.604
31.52000 7.143
31.54000 6.066
31.56000 3.464
31.58000 1.726
31.60000 2.534
31.62000 5.132
31.64000 3.530
31.66000 3.952
31.68000 5.398
31.70000 6.444
31.72000 3.590
31.74000 6.616
31.76000 2.805
31.78000 4.048
31.80000 0.530
31.82000 -0.090
31.84000 -0.818
31.86000 2.850
31.88000 4.754
31.90000 5.121
31.92000 5.703
31.94000 6.397
31.96000 2.583
31.98000 2.818
32.00000 0.792
32.02000 0.568
32.04000 -1.937
32.06000 1.766
32.08000 4.958
32.10000 7.279
32.12000 4.592
32.14000 -1.421
32.16000 -3.393
32.18000 -2.035
32.20000 -0.579
32.22000 3.077
32.24000 2.230
32.26000 5.939
32.28000 1.858
32.30000 -1.134
32.32000 2.147
32.34000 -0.399
32.36000 -0.569
32.38000 -0.150
32.40000 4.938
32.42000 11.522
32.44000 8.608
32.46000 -0.148
32.48000 -1.276
32.50000 1.710
32.52000 1.562
32.54000 3.367
32.56000 -3.144
32.58000 -3.611
32.60000 -0.836
32.62000 -0.690
32.64000 2.300
32.66000 3.432
32.68000 3.721
32.70000 2.066
32.72000 1.889
32.74000 2.213
32.76000 0.411
32.78000 -0.232
32.80000 1.140
32.82000 4.140
32.84000 4.099
32.86000 0.872
32.88000 1.565
32.90000 3.868
32.92000 6.422
32.94000 -1.158
32.96000 -1.714
32.98000 0.720
33.00000 1.105
33.02000 1.506
33.04000 2.539
33.06000 1.626
33.08000 2.097
33.10000 5.903
33.12000 8.667
33.14000 3.016
33.16000 2.455
33.18000 1.724
33.20000 3.414
33.22000 6.060
33.24000 3.429
33.26000 5.050
33.28000 2.435
33.30000 -0.756
33.32000 0.231
33.34000 -3.575
33.36000 1.420
33.38000 1.209
33.40000 2.116
33.42000 4.907
33.44000 8.575
33.46000 2.772
33.48000 3.165
33.50000 6.131
33.52000 1.802
33.54000 -0.248
33.56000 3.806
33.58000 6.948
33.60000 5.077
33.62000 3.667
33.64000 1.919
33.66000 4.708
33.68000 7.550
33.70000 3.450
33.72000 -0.513
33.74000 4.329
33.76000 7.154
33.78000 4.916
33.80000 5.812
33.82000 5.887
33.84000 6.634
33.86000 8.921
33.88000 7.330
33.90000 4.315
33.92000 1.898
33.94000 6.048
33.96000 4.357
33.98000 3.559
34.00000 0.537
34.02000 -1.090
34.04000 -0.373
34.06000 5.277
34.08000 2.627
34.10000 0.815
34.12000 1.242
34.14000 -0.775
34.16000 -0.031
34.18000 0.495
34.20000 1.492
34.22000 0.716
34.24000 1.633
34.26000 1.091
34.28000 -1.304
34.30000 2.554
34.32000 3.067
34.34000 1.578
34.36000 5.019
34.38000 -0.392
34.40000 1.167
34.42000 5.493
34.44000 6.434
34.46000 6.585
34.48000 3.473
34.50000 -2.701
34.52000 0.362
34.54000 3.071
34.56000 6.764
34.58000 4.751
34.60000 -1.840
34.62000 3.614
34.64000 12.166
34.66000 8.117
34.68000 4.468
34.70000 4.194
34.72000 2.391
34.74000 1.179
34.76000 0.767
34.78000 -0.064
34.80000 2.881
34.82000 6.701
34.84000 7.538
34.86000 4.216
34.88000 0.968
34.90000 -0.491
34.92000 2.956
34.94000 -1.217
34.96000 0.600
34.98000 -3.530
35.00000 -1.686
35.02000 3.954
35.04000 5.287
35.06000 4.611
35.08000 3.161
35.10000 0.175
35.12000 1.711
35.14000 0.924
35.16000 5.154
35.18000 3.949
35.20000 1.872
35.22000 2.482
35.24000 6.052
35.26000 6.412
35.28000 5.841
35.30000 9.908
35.32000 8.492
35.34000 5.457
35.36000 4.582
35.38000 0.497
35.40000 1.786
35.42000 1.328
35.44000 2.555
35.46000 4.166
35.48000 5.054
35.50000 4.253
35.52000 4.232
35.54000 2.917
35.56000 5.154
35.58000 2.845
35.60000 3.548
35.62000 4.053
35.64000 -1.574
35.66000 -3.533
35.68000 -0.511
35.70000 3.198
35.72000 2.824
35.74000 6.482
35.76000 2.144
35.78000 2.018
35.80000 0.791
35.82000 3.000
35.84000 2.623
35.86000 3.378
35.88000 3.077
35.90000 2.027
35.92000 -1.937
35.94000 1.636
35.96000 3.388
35.98000 1.333
36.00000 4.125
36.02000 4.045
36.04000 0.155
36.06000 -1.226
36.08000 -1.179
36.10000 0.876
36.12000 -1.777
36.14000 -0.554
36.16000 2.584
36.18000 3.249
36.20000 4.255
36.22000 5.109
36.24000 4.177
36.26000 -0.085
36.28000 -0.888
36.30000 4.251
36.32000 1.783
36.34000 -0.096
36.36000 5.095
36.38000 0.495
36.40000 -0.555
36.42000 -2.174
36.44000 1.751
36.46000 3.950
36.48000 -0.011
36.50000 -2.081
36.52000 -0.664
36.54000 -3.572
36.56000 -2.866
36.58000 -2.558
36.60000 -3.271
36.62000 0.401
36.64000 -0.367
36.66000 2.454
36.68000 2.130
36.70000 2.223
36.72000 -0.775
36.74000 1.389
36.76000 6.128
36.78000 2.672
36.80000 -1.692
36.82000 -0.997
36.84000 1.543
36.86000 4.692
36.88000 -0.154
36.90000 -0.348
36.92000 0.368
36.94000 -0.714
36.96000 2.626
36.98000 -3.358
37.00000 -1.803
37.02000 1.687
37.04000 -2.658
37.06000 -3.579
37.08000 0.769
37.10000 -2.296
37.12000 -0.458
37.14000 1.031
37.16000 -0.749
37.18000 1.779
37.20000 1.584
37.22000 -0.401
37.24000 -1.950
37.26000 -1.234
37.28000 4.920
37.30000 -0.862
37.32000 -2.028
37.34000 2.522
37.36000 1.201
37.38000 -0.220
37.40000 0.895
37.42000 0.428
37.44000 -3.621
37.46000 -1.587
37.48000 0.257
37.50000 0.937
37.52000 0.801
37.54000 -2.060
37.56000 -2.707
37.58000 0.926
37.60000 -0.939
37.62000 -1.465
37.64000 5.665
37.66000 3.149
37.68000 0.504
37.70000 5.167
37.72000 9.405
37.74000 6.648
37.76000 4.208
37.78000 3.691
37.80000 4.673
37.82000 4.272
37.84000 3.017
37.86000 4.844
37.88000 10.585
37.90000 8.300
37.92000 5.941
37.94000 8.738
37.96000 7.814
37.98000 6.030
38.00000 5.788
38.02000 4.241
38.04000 4.732
38.06000 11.713
38.08000 11.195
38.10000 9.784
38.12000 5.591
38.14000 8.955
38.16000 13.440
38.18000 14.517
38.20000 13.403
38.22000 15.733
38.24000 12.359
38.26000 12.239
38.28000 18.025
38.30000 17.865
38.32000 18.590
38.34000 20.143
38.36000 18.596
38.38000 16.419
38.40000 16.101
38.42000 16.285
38.44000 17.022
38.46000 19.033
38.48000 22.847
38.50000 22.948
38.52000 26.471
38.54000 29.771
38.56000 22.568
38.58000 25.080
38.60000 27.160
38.62000 28.759
38.64000 27.738
38.66000 28.151
38.68000 32.073
38.70000 28.558
38.72000 28.958
38.74000 32.125
38.76000 28.515
38.78000 33.071
38.80000 35.142
38.82000 39.194
38.84000 43.260
38.86000 40.028
38.88000 36.857
38.90000 38.828
38.92000 40.610
38.94000 42.907
38.96000 49.088
38.98000 49.446
39.00000 51.789
39.02000 51.472
39.04000 53.522
39.06000 58.713
39.08000 59.067
39.10000 58.460
39.12000 65.963
39.14000 71.359
39.16000 72.654
39.18000 71.547
39.20000 78.555
39.22000 83.564
39.24000 88.548
39.26000 92.114
39.28000 92.213
39.30000 94.834
39.32000 97.086
39.34000 104.626
39.36000 110.581
39.38000 118.808
39.40000 121.118
39.42000 128.369
39.44000 136.074
39.46000 137.643
39.48000 145.932
39.50000 152.426
39.52000 163.350
39.54000 165.429
39.56000 169.627
39.58000 182.838
39.60000 197.151
39.62000 206.456
39.64000 216.884
39.66000 224.089
39.68000 236.425
39.70000 248.087
39.72000 263.697
39.74000 281.012
39.76000 292.118
39.78000 305.061
39.80000 325.063
39.82000 335.079
39.84000 359.090
39.86000 379.381
39.88000 382.747
39.90000 393.250
39.92000 417.914
39.94000 437.474
39.96000 453.449
39.98000 462.699
40.00000 476.633
40.02000 498.479
40.04000 512.181
40.06000 518.052
40.08000 542.262
40.10000 555.928
40.12000 558.896
40.14000 572.211
40.16000 576.121
40.18000 576.932
40.20000 572.326
40.22000 575.630
40.24000 592.402
40.26000 585.114
40.28000 575.687
40.30000 573.148
40.32000 561.130
40.34000 548.078
40.36000 544.093
40.38000 550.403
40.40000 537.196
40.42000 514.463
40.44000 497.933
40.46000 482.169
40.48000 468.746
40.50000 456.161
40.52000 447.632
40.54000 424.313
40.56000 401.554
40.58000 383.030
40.60000 372.999
40.62000 362.188
40.64000 348.200
40.66000 332.054
40.68000 313.554
40.70000 299.135
40.72000 280.505
40.74000 267.037
40.76000 263.380
40.78000 243.947
40.80000 229.600
40.82000 219.827
40.84000 211.048
40.86000 203.824
40.88000 187.150
40.90000 180.889
40.92000 169.695
40.94000 160.104
40.96000 144.989
40.98000 141.102
41.00000 139.121
41.02000 129.893
41.04000 119.576
41.06000 114.663
41.08000 111.392
41.10000 103.261
41.12000 96.132
41.14000 88.024
41.16000 87.019
41.18000 84.348
41.20000 76.187
41.22000 69.472
41.24000 67.938
41.26000 65.175
41.28000 62.274
41.30000 60.546
41.32000 54.801
41.34000 52.709
41.36000 55.763
41.38000 48.170
41.40000 43.135
41.42000 45.081
41.44000 43.108
41.46000 38.938
41.48000 35.196
41.50000 33.279
41.52000 31.934
41.54000 30.258
41.56000 30.914
41.58000 30.417
41.60000 26.638
41.62000 23.529
41.64000 26.875
41.66000 25.426
41.68000 18.586
41.70000 18.693
41.72000 23.562
41.74000 17.991
41.76000 18.750
41.78000 16.100
41.80000 18.017
41.82000 15.548
41.84000 13.572
41.86000 15.252
41.88000 15.856
41.90000 16.696
41.92000 14.771
41.94000 12.321
41.96000 8.014
41.98000 6.892
42.00000 9.632
42.02000 8.547
42.04000 9.828
42.06000 10.610
42.08000 12.200
42.10000 9.434
42.12000 3.918
42.14000 4.989
42.16000 6.740
42.18000 9.138
42.20000 9.904
42.22000 3.617
42.24000 0.077
42.26000 2.726
42.28000 4.367
42.30000 1.851
42.32000 3.023
42.34000 4.217
42.36000 0.538
42.38000 2.723
42.40000 1.119
42.42000 1.305
42.44000 -3.140
42.46000 -0.458
42.48000 4.672
42.50000 4.719
42.52000 3.249
42.54000 2.723
42.56000 1.221
42.58000 1.467
42.60000 -0.195
42.62000 -3.519
42.64000 -1.826
42.66000 2.088
42.68000 6.082
42.70000 7.650
42.72000 4.256
42.74000 2.825
42.76000 4.258
42.78000 1.707
42.80000 4.448
42.82000 3.055
42.84000 -1.712
42.86000 -3.487
42.88000 -3.086
42.90000 -0.422
42.92000 1.788
42.94000 2.896
42.96000 0.121
42.98000 -0.221
43.00000 -0.693
43.02000 0.725
43.04000 -0.453
43.06000 1.303
43.08000 3.680
43.10000 0.589
43.12000 -1.489
43.14000 1.788
43.16000 -0.108
43.18000 0.214
43.20000 -0.783
43.22000 -1.936
43.24000 -2.598
43.26000 1.392
43.28000 -1.218
43.30000 -1.577
43.32000 -0.541
43.34000 -2.006
43.36000 -0.495
43.38000 1.159
43.40000 -2.038
43.42000 -1.747
43.44000 2.465
43.46000 1.798
43.48000 -2.264
43.50000 -0.641
43.52000 -3.413
43.54000 -0.978
43.56000 -1.015
43.58000 -0.465
43.60000 -1.987
43.62000 -0.788
43.64000 0.189
43.66000 -1.394
43.68000 -1.749
43.70000 -2.062
43.72000 -0.659
43.74000 -0.781
43.76000 0.787
43.78000 5.410
43.80000 5.611
43.82000 3.003
43.84000 2.851
43.86000 0.281
43.88000 0.904
43.90000 2.299
43.92000 2.456
43.94000 3.293
43.96000 2.467
43.98000 -0.389
44.00000 -1.736
44.02000 -3.360
44.04000 0.069
44.06000 3.508
44.08000 5.496
44.10000 3.024
44.12000 2.908
44.14000 4.845
44.16000 2.517
44.18000 -0.495
44.20000 2.632
44.22000 4.943
44.24000 2.616
44.26000 -2.398
44.28000 -0.641
44.30000 2.746
44.32000 3.234
44.34000 -3.361
44.36000 4.117
44.38000 5.634
44.40000 1.139
44.42000 -1.870
44.44000 -2.733
44.46000 0.851
44.48000 1.149
44.50000 2.570
44.52000 -1.343
44.54000 -1.730
44.56000 -0.541
44.58000 3.927
44.60000 3.856
44.62000 2.486
44.64000 0.206
44.66000 -3.369
44.68000 -1.969
44.70000 -1.351
44.72000 0.408
44.74000 -1.331
44.76000 4.780
44.78000 6.541
44.80000 1.242
44.82000 -0.192
44.84000 -2.002
44.86000 -0.953
44.88000 2.527
44.90000 1.644
44.92000 0.005
44.94000 0.653
44.96000 4.332
44.98000 10.094
45.00000 9.630
45.02000 6.835
45.04000 5.906
45.06000 10.054
45.08000 10.766
45.10000 9.477
45.12000 3.176
45.14000 -0.281
45.16000 4.165
45.18000 7.076
45.20000 4.098
45.22000 9.149
45.24000 8.861
45.26000 4.819
45.28000 1.874
45.30000 6.767
45.32000 10.087
45.34000 13.188
45.36000 13.437
45.38000 11.710
45.40000 15.214
45.42000 14.490
45.44000 13.657
45.46000 16.317
45.48000 15.167
45.50000 13.316
45.52000 15.326
45.54000 21.004
45.56000 18.718
45.58000 15.699
45.60000 18.086
45.62000 17.198
45.64000 22.338
45.66000 24.640
45.68000 21.943
45.70000 19.443
45.72000 22.356
45.74000 25.018
45.76000 25.079
45.78000 25.325
45.80000 28.796
45.82000 32.713
45.84000 33.465
45.86000 30.832
45.88000 32.368
45.90000 35.134
45.92000 35.546
45.94000 36.169
45.96000 37.824
45.98000 38.694
46.00000 41.554
46.02000 40.300
46.04000 42.835
46.06000 45.972
46.08000 45.800
46.10000 46.124
46.12000 49.574
46.14000 50.428
46.16000 51.954
46.18000 52.216
46.20000 55.374
46.22000 53.814
46.24000 63.569
46.26000 60.360
46.28000 64.081
46.30000 62.726
46.32000 59.039
46.34000 63.068
46.36000 72.542
46.38000 73.203
46.40000 61.888
46.42000 71.788
46.44000 75.794
46.46000 79.188
46.48000 85.874
46.50000 90.019
46.52000 89.394
46.54000 81.282
46.56000 88.442
46.58000 91.952
46.60000 96.699
46.62000 92.304
46.64000 89.573
46.66000 92.358
46.68000 100.006
46.70000 97.868
46.72000 95.533
46.74000 99.572
46.76000 103.277
46.78000 100.484
46.80000 102.082
46.82000 102.591
46.84000 100.544
46.86000 103.859
46.88000 103.548
46.90000 99.810
46.92000 101.821
46.94000 103.467
46.96000 98.616
46.98000 97.504
47.00000 104.700
47.02000 107.135
47.04000 102.315
47.06000 100.692
47.08000 103.026
47.10000 99.551
47.12000 90.886
47.14000 91.480
47.16000 92.412
47.18000 96.108
47.20000 94.418
47.22000 86.868
47.24000 79.751
47.26000 78.798
47.28000 78.824
47.30000 77.701
47.32000 76.913
47.34000 65.077
47.36000 66.417
47.38000 71.881
47.40000 71.723
47.42000 68.365
47.44000 68.437
47.46000 65.711
47.48000 59.413
47.50000 57.306
47.52000 55.889
47.54000 50.391
47.56000 47.506
47.58000 46.104
47.60000 51.996
47.62000 47.642
47.64000 42.994
47.66000 41.337
47.68000 37.074
47.70000 36.489
47.72000 37.533
47.74000 37.254
47.76000 35.915
47.78000 28.067
47.80000 30.766
47.82000 29.445
47.84000 24.311
47.86000 24.166
47.88000 26.929
47.90000 26.678
47.92000 20.866
47.94000 20.109
47.96000 18.784
47.98000 19.031
48.00000 22.700
48.02000 22.344
48.04000 20.097
48.06000 13.347
48.08000 10.436
48.10000 15.354
48.12000 13.387
48.14000 9.822
48.16000 14.070
48.18000 16.047
48.20000 12.634
48.22000 8.848
48.24000 5.497
48.26000 7.053
48.28000 5.650
48.30000 6.511
48.32000 4.983
48.34000 4.175
48.36000 9.564
48.38000 7.491
48.40000 9.110
48.42000 5.779
48.44000 4.894
48.46000 4.867
48.48000 7.190
48.50000 4.607
48.52000 5.076
48.54000 2.469
48.56000 1.808
48.58000 3.652
48.60000 8.767
48.62000 10.949
48.64000 5.633
48.66000 5.473
48.68000 5.921
48.70000 6.076
48.72000 3.847
48.74000 0.961
48.76000 1.097
48.78000 -1.126
48.80000 -2.954
48.82000 7.375
48.84000 4.401
48.86000 0.810
48.88000 -0.074
48.90000 3.836
48.92000 5.167
48.94000 2.351
48.96000 2.696
48.98000 3.390
49.00000 3.241
49.02000 7.666
49.04000 11.599
49.06000 6.329
49.08000 4.558
49.10000 6.226
49.12000 5.067
49.14000 4.074
49.16000 3.322
49.18000 -2.863
49.20000 2.782
49.22000 9.647
49.24000 6.712
49.26000 5.416
49.28000 4.879
49.30000 6.695
49.32000 1.214
49.34000 2.044
49.36000 -0.915
49.38000 -0.120
49.40000 0.761
49.42000 2.492
49.44000 2.581
49.46000 3.904
49.48000 7.203
49.50000 5.118
49.52000 3.280
49.54000 4.818
49.56000 8.813
49.58000 4.104
49.60000 3.764
49.62000 5.245
49.64000 5.849
49.66000 0.136
49.68000 4.337
49.70000 2.374
49.72000 0.633
49.74000 1.353
49.76000 5.768
49.78000 7.597
49.80000 4.520
49.82000 5.551
49.84000 4.504
49.86000 7.005
49.88000 5.299
49.90000 3.397
49.92000 1.205
49.94000 0.249
49.96000 -1.973
49.98000 1.376
50.00000 2.046
50.02000 8.192
50.04000 7.761
50.06000 2.225
50.08000 0.983
50.10000 6.286
50.12000 4.277
50.14000 3.766
50.16000 3.683
50.18000 3.875
50.20000 1.261
50.22000 -2.756
50.24000 -1.337
50.26000 1.297
50.28000 4.561
50.30000 1.919
50.32000 1.216
50.34000 4.772
50.36000 1.823
50.38000 0.221
50.40000 3.504
50.42000 6.514
50.44000 6.840
50.46000 6.431
50.48000 5.363
50.50000 3.390
50.52000 1.340
50.54000 1.614
50.56000 5.336
50.58000 4.262
50.60000 -0.450
50.62000 2.940
50.64000 5.523
50.66000 0.780
50.68000 1.018
50.70000 4.728
50.72000 3.307
50.74000 2.141
50.76000 4.795
50.78000 3.642
50.80000 1.746
50.82000 1.562
50.84000 4.694
50.86000 7.219
50.88000 3.667
50.90000 2.571
50.92000 5.611
50.94000 6.716
50.96000 7.450
50.98000 4.107
51.00000 -2.746
51.02000 -2.566
51.04000 1.394
51.06000 5.800
51.08000 7.267
51.10000 6.573
51.12000 4.218
51.14000 1.231
51.16000 1.610
51.18000 4.747
51.20000 5.726
51.22000 4.048
51.24000 3.373
51.26000 5.158
51.28000 5.273
51.30000 4.929
51.32000 1.009
51.34000 2.575
51.36000 2.057
51.38000 2.756
51.40000 -0.038
51.42000 0.852
51.44000 4.326
51.46000 2.065
51.48000 4.100
51.50000 4.470
51.52000 0.605
51.54000 -0.654
51.56000 2.502
51.58000 1.565
51.60000 1.645
51.62000 2.218
51.64000 3.925
51.66000 -0.965
51.68000 -0.618
51.70000 4.356
51.72000 7.888
51.74000 5.816
51.76000 7.925
51.78000 4.994
51.80000 2.285
51.82000 2.551
51.84000 3.941
51.86000 2.830
51.88000 0.954
51.90000 -0.421
51.92000 -2.716
51.94000 -1.230
51.96000 3.979
51.98000 6.719
52.00000 7.172
52.02000 4.839
52.04000 1.862
52.06000 0.077
52.08000 1.257
52.10000 0.203
52.12000 -1.300
52.14000 -2.380
52.16000 -0.162
52.18000 0.234
52.20000 -0.102
52.22000 0.306
52.24000 2.350
52.26000 5.373
52.28000 0.846
52.30000 -0.624
52.32000 -0.077
52.34000 -2.002
52.36000 3.530
52.38000 5.279
52.40000 2.727
52.42000 2.976
52.44000 0.899
52.46000 1.420
52.48000 -1.642
52.50000 -2.609
52.52000 1.261
52.54000 2.596
52.56000 4.865
52.58000 2.367
52.60000 4.777
52.62000 4.200
52.64000 -2.430
52.66000 -1.309
52.68000 -2.331
52.70000 -0.245
52.72000 1.204
52.74000 0.936
52.76000 -1.026
52.78000 -2.715
52.80000 0.108
52.82000 0.209
52.84000 3.881
52.86000 2.551
52.88000 -0.757
52.90000 4.082
52.92000 6.424
52.94000 1.392
52.96000 -2.150
52.98000 -0.567
53.00000 -1.396
53.02000 0.734
53.04000 -1.693
53.06000 -0.207
53.08000 4.781
53.10000 4.370
53.12000 -0.533
53.14000 0.776
53.16000 -0.367
53.18000 1.162
53.20000 4.214
53.22000 4.101
53.24000 3.190
53.26000 1.257
53.28000 3.646
53.30000 1.866
53.32000 2.564
53.34000 1.712
53.36000 0.714
53.38000 1.312
53.40000 0.360
53.42000 2.901
53.44000 4.121
53.46000 4.488
53.48000 -0.539
53.50000 -2.683
53.52000 -0.455
53.54000 3.439
53.56000 0.277
53.58000 0.330
53.60000 0.942
53.62000 0.368
53.64000 -1.738
53.66000 0.765
53.68000 0.721
53.70000 4.252
53.72000 2.533
53.74000 0.214
53.76000 -2.210
53.78000 4.387
53.80000 2.280
53.82000 1.016
53.84000 -0.518
53.86000 3.561
53.88000 2.628
53.90000 1.411
53.92000 2.923
53.94000 2.965
53.96000 3.670
53.98000 0.868
54.00000 -2.532
54.02000 -0.580
54.04000 -0.268
54.06000 1.597
54.08000 -0.392
54.10000 -0.226
54.12000 -0.174
54.14000 3.495
54.16000 4.366
54.18000 2.249
54.20000 0.327
54.22000 0.209
54.24000 3.167
54.26000 1.803
54.28000 2.731
54.30000 -0.442
54.32000 -2.581
54.34000 2.475
54.36000 1.549
54.38000 1.469
54.40000 1.265
54.42000 5.125
54.44000 3.960
54.46000 1.115
54.48000 0.590
54.50000 -0.927
54.52000 2.620
54.54000 6.092
54.56000 4.818
54.58000 3.827
54.60000 3.509
54.62000 4.384
54.64000 4.326
54.66000 2.345
54.68000 -2.633
54.70000 -0.080
54.72000 0.875
54.74000 1.633
54.76000 2.150
54.78000 3.445
54.80000 1.565
54.82000 -2.627
54.84000 3.105
54.86000 7.061
54.88000 5.676
54.90000 5.786
54.92000 2.272
54.94000 3.199
54.96000 5.674
54.98000 4.327
55.00000 4.057
55.02000 4.641
55.04000 2.628
55.06000 -1.499
55.08000 -1.681
55.10000 -1.963
55.12000 -2.622
55.14000 1.261
55.16000 3.160
55.18000 0.916
55.20000 1.243
55.22000 4.988
55.24000 4.957
55.26000 4.626
55.28000 4.992
55.30000 6.687
55.32000 5.211
55.34000 1.799
55.36000 -0.006
55.38000 4.080
55.40000 7.405
55.42000 5.406
55.44000 2.943
55.46000 3.135
55.48000 6.066
55.50000 6.366
55.52000 7.969
55.54000 6.786
55.56000 8.448
55.58000 4.613
55.60000 2.186
55.62000 -2.494
55.64000 -2.601
55.66000 2.820
55.68000 5.422
55.70000 5.637
55.72000 5.230
55.74000 1.989
55.76000 4.193
55.78000 4.846
55.80000 2.121
55.82000 4.980
55.84000 5.821
55.86000 7.577
55.88000 3.005
55.90000 7.661
55.92000 4.014
55.94000 3.437
55.96000 2.935
55.98000 -0.026
56.00000 3.688
56.02000 3.065
56.04000 2.762
56.06000 4.966
56.08000 6.845
56.10000 4.011
56.12000 4.538
56.14000 5.384
56.16000 1.907
56.18000 3.687
56.20000 5.720
56.22000 2.943
56.24000 2.551
56.26000 4.571
56.28000 6.149
56.30000 6.925
56.32000 2.721
56.34000 3.342
56.36000 5.691
56.38000 4.581
56.40000 4.128
56.42000 3.516
56.44000 5.504
56.46000 2.304
56.48000 -0.784
56.50000 2.090
56.52000 5.983
56.54000 3.054
56.56000 4.729
56.58000 4.226
56.60000 -0.146
56.62000 -1.697
56.64000 -0.827
56.66000 -0.794
56.68000 -2.560
56.70000 -0.653
56.72000 -1.029
56.74000 3.124
56.76000 1.323
56.78000 1.917
56.80000 4.469
56.82000 5.965
56.84000 6.994
56.86000 5.172
56.88000 1.627
56.90000 4.162
56.92000 0.591
56.94000 1.408
56.96000 3.677
56.98000 0.877
57.00000 2.118
57.02000 2.421
57.04000 2.491
57.06000 5.254
57.08000 9.460
57.10000 6.747
57.12000 3.843
57.14000 2.644
57.16000 3.484
57.18000 3.745
57.20000 5.349
57.22000 1.648
57.24000 2.518
57.26000 5.051
57.28000 5.322
57.30000 6.191
57.32000 3.609
57.34000 1.490
57.36000 2.701
57.38000 1.828
57.40000 1.413
57.42000 0.931
57.44000 0.754
57.46000 2.402
57.48000 4.786
57.50000 5.078
57.52000 1.722
57.54000 -1.536
57.56000 -0.451
57.58000 -0.841
57.60000 -0.971
57.62000 0.077
57.64000 -0.362
57.66000 1.123
57.68000 0.989
57.70000 0.725
57.72000 0.108
57.74000 1.535
57.76000 3.696
57.78000 4.614
57.80000 3.005
57.82000 -0.537
57.84000 -2.573
57.86000 0.894
57.88000 1.745
57.90000 -1.128
57.92000 -0.683
57.94000 3.633
57.96000 0.235
57.98000 -1.202
58.00000 0.797
58.02000 0.023
58.04000 2.129
58.06000 2.001
58.08000 -0.807
58.10000 2.367
58.12000 1.393
58.14000 0.579
58.16000 1.758
58.18000 2.579
58.20000 2.777
58.22000 -0.300
58.24000 2.181
58.26000 3.673
58.28000 0.324
58.30000 1.527
58.32000 2.776
58.34000 0.592
58.36000 0.537
58.38000 1.415
58.40000 0.035
58.42000 1.247
58.44000 2.511
58.46000 4.004
58.48000 0.632
58.50000 0.787
58.52000 3.330
58.54000 2.190
58.56000 1.741
58.58000 1.725
58.60000 1.310
58.62000 1.103
58.64000 -0.254
58.66000 1.315
58.68000 3.841
58.70000 3.808
58.72000 1.307
58.74000 4.475
58.76000 3.420
58.78000 5.171
58.80000 0.368
58.82000 0.724
58.84000 6.012
58.86000 6.503
58.88000 2.657
58.90000 -0.610
58.92000 -1.597
58.94000 2.635
58.96000 5.268
58.98000 4.548
59.00000 2.136
59.02000 4.848
59.04000 2.892
59.06000 -0.406
59.08000 -1.140
59.10000 0.133
59.12000 1.774
59.14000 0.742
59.16000 4.404
59.18000 1.697
59.20000 -1.477
59.22000 -0.484
59.24000 0.891
59.26000 -2.505
59.28000 -1.747
59.30000 4.066
59.32000 4.125
59.34000 3.404
59.36000 4.561
59.38000 1.637
59.40000 1.577
59.42000 2.894
59.44000 2.678
59.46000 3.115
59.48000 3.986
59.50000 3.754
59.52000 3.483
59.54000 4.063
59.56000 1.169
59.58000 -0.238
59.60000 3.170
59.62000 4.172
59.64000 -0.336
59.66000 0.442
59.68000 2.505
59.70000 -0.426
59.72000 -2.418
59.74000 0.185
59.76000 4.057
59.78000 1.593
59.80000 1.398
59.82000 -0.486
59.84000 1.221
59.86000 6.318
59.88000 9.066
59.90000 4.735
59.92000 2.710
59.94000 2.874
59.96000 3.973
59.98000 3.826
60.00000 7.699
60.02000 6.103
60.04000 5.963
60.06000 4.624
60.08000 2.302
60.10000 0.740
60.12000 -1.616
60.14000 -2.455
60.16000 2.492
60.18000 4.804
60.20000 4.779
60.22000 3.950
60.24000 4.443
60.26000 3.075
60.28000 1.614
60.30000 0.780
60.32000 5.115
60.34000 6.944
60.36000 7.088
60.38000 4.265
60.40000 3.688
60.42000 3.813
60.44000 1.972
60.46000 1.563
60.48000 0.254
60.50000 -0.430
60.52000 -0.092
60.54000 3.917
60.56000 4.770
60.58000 6.104
60.60000 5.324
60.62000 9.275
60.64000 6.724
60.66000 1.069
60.68000 1.502
60.70000 5.928
60.72000 3.223
60.74000 0.831
60.76000 3.837
60.78000 3.491
60.80000 1.383
60.82000 1.869
60.84000 3.103
60.86000 -0.821
60.88000 -0.329
60.90000 0.912
60.92000 1.670
60.94000 1.328
60.96000 1.514
60.98000 0.570
61.00000 1.932
61.02000 -0.468
61.04000 -0.631
61.06000 2.886
61.08000 2.518
61.10000 -1.087
61.12000 -2.450
61.14000 0.859
61.16000 2.698
61.18000 2.231
61.20000 2.532
61.22000 -1.505
61.24000 1.192
61.26000 2.731
61.28000 5.214
61.30000 1.520
61.32000 -1.126
61.34000 0.455
61.36000 0.746
61.38000 -0.836
61.40000 0.314
61.42000 1.582
61.44000 -1.839
61.46000 0.184
61.48000 1.784
61.50000 0.935
61.52000 0.720
61.54000 -0.117
61.56000 2.030
61.58000 1.499
61.60000 2.813
61.62000 2.542
61.64000 0.341
61.66000 2.423
61.68000 -0.719
61.70000 0.985
61.72000 -0.150
61.74000 1.448
61.76000 1.065
61.78000 1.529
61.80000 0.222
61.82000 4.305
61.84000 2.496
61.86000 2.465
61.88000 3.878
61.90000 2.989
61.92000 2.848
61.94000 2.006
61.96000 -2.426
61.98000 2.839
62.00000 2.473
62.02000 1.255
62.04000 1.566
62.06000 0.823
62.08000 0.848
62.10000 -0.668
62.12000 -0.438
62.14000 -0.561
62.16000 -0.181
62.18000 -0.567
62.20000 0.196
62.22000 -0.371
62.24000 -0.295
62.26000 2.362
62.28000 -0.102
62.30000 -1.910
62.32000 1.634
62.34000 0.175
62.36000 -0.071
62.38000 4.200
62.40000 2.023
62.42000 -0.150
62.44000 -1.428
62.46000 1.687
62.48000 2.750
62.50000 5.508
62.52000 3.868
62.54000 4.722
62.56000 6.044
62.58000 2.083
62.60000 2.255
62.62000 7.095
62.64000 3.641
62.66000 2.913
62.68000 1.566
62.70000 1.232
62.72000 2.164
62.74000 -0.708
62.76000 -1.066
62.78000 0.181
62.80000 0.345
62.82000 0.531
62.84000 1.428
62.86000 -0.830
62.88000 1.332
62.90000 2.210
62.92000 1.987
62.94000 -0.741
62.96000 1.021
62.98000 1.856
63.00000 2.385
63.02000 -2.129
63.04000 -1.645
63.06000 0.612
63.08000 3.177
63.10000 0.451
63.12000 -1.943
63.14000 -0.196
63.16000 -1.695
63.18000 0.487
63.20000 0.459
63.22000 4.039
63.24000 2.627
63.26000 -1.798
63.28000 -0.288
63.30000 1.604
63.32000 1.909
63.34000 0.683
63.36000 -0.642
63.38000 -2.409
63.40000 -0.560
63.42000 -0.529
63.44000 0.328
63.46000 4.067
63.48000 1.516
63.50000 5.558
63.52000 1.953
63.54000 -1.331
63.56000 1.235
63.58000 0.450
63.60000 0.023
63.62000 0.018
63.64000 1.052
63.66000 -2.424
63.68000 1.783
63.70000 4.666
63.72000 2.953
63.74000 3.703
63.76000 0.848
63.78000 -0.988
63.80000 -1.828
63.82000 2.521
63.84000 1.009
63.86000 0.097
63.88000 1.430
63.90000 -1.232
63.92000 1.166
63.94000 -1.410
63.96000 -0.721
63.98000 0.409
64.00000 0.434
64.02000 2.235
64.04000 2.454
64.06000 5.370
64.08000 1.559
64.10000 0.177
64.12000 0.044
64.14000 1.821
64.16000 0.848
64.18000 1.722
64.20000 5.701
64.22000 7.211
64.24000 2.339
64.26000 3.640
64.28000 4.803
64.30000 3.834
64.32000 0.704
64.34000 -2.443
64.36000 -0.456
64.38000 -0.019
64.40000 0.398
64.42000 -0.982
64.44000 -1.119
64.46000 3.171
64.48000 2.070
64.50000 -1.759
64.52000 -0.853
64.54000 0.285
64.56000 -0.690
64.58000 -2.223
64.60000 -1.292
64.62000 1.950
64.64000 1.857
64.66000 0.080
64.68000 -1.409
64.70000 1.229
64.72000 1.206
64.74000 1.664
64.76000 -0.581
64.78000 -0.122
64.80000 -1.229
64.82000 -0.395
64.84000 1.671
64.86000 2.250
64.88000 -1.616
64.90000 -0.212
64.92000 1.569
64.94000 0.423
64.96000 -0.597
64.98000 2.744
65.00000 0.415
65.02000 -1.198
65.04000 1.959
65.06000 0.280
65.08000 -2.475
65.10000 -1.386
65.12000 -2.036
65.14000 1.501
65.16000 1.574
65.18000 1.767
65.20000 -1.290
65.22000 0.954
65.24000 1.402
65.26000 -1.638
65.28000 -2.478
65.30000 -0.579
65.32000 2.557
65.34000 0.824
65.36000 2.380
65.38000 0.838
65.40000 -0.609
65.42000 1.513
65.44000 0.372
65.46000 -0.385
65.48000 1.828
65.50000 0.211
65.52000 -2.003
65.54000 -1.321
65.56000 0.750
65.58000 1.677
65.60000 0.472
65.62000 -1.181
65.64000 -1.712
65.66000 2.337
65.68000 3.527
65.70000 0.274
65.72000 -0.721
65.74000 -1.917
65.76000 0.293
65.78000 0.523
65.80000 -1.864
65.82000 -1.197
65.84000 -2.318
65.86000 -2.360
65.88000 -1.142
65.90000 -2.486
65.92000 -1.468
65.94000 -1.218
65.96000 2.390
65.98000 2.543
66.00000 3.412
66.02000 3.310
66.04000 -1.434
66.06000 -0.863
66.08000 -0.199
66.10000 1.017
66.12000 1.334
66.14000 1.887
66.16000 0.924
66.18000 -1.042
66.20000 -0.209
66.22000 1.771
66.24000 1.127
66.26000 4.471
66.28000 4.121
66.30000 1.078
66.32000 -0.960
66.34000 -0.536
66.36000 0.414
66.38000 2.529
66.40000 -0.043
66.42000 0.949
66.44000 2.691
66.46000 4.706
66.48000 1.829
66.50000 2.247
66.52000 4.528
66.54000 1.313
66.56000 4.127
66.58000 3.971
66.60000 2.771
66.62000 2.759
66.64000 0.163
66.66000 -2.491
66.68000 -1.017
66.70000 3.265
66.72000 3.157
66.74000 3.439
66.76000 2.593
66.78000 1.907
66.80000 2.276
66.82000 4.731
66.84000 3.628
66.86000 6.121
66.88000 3.967
66.90000 2.751
66.92000 5.598
66.94000 3.644
66.96000 4.145
66.98000 4.411
67.00000 6.461
67.02000 5.052
67.04000 6.476
67.06000 6.517
67.08000 4.269
67.10000 1.519
67.12000 2.563
67.14000 4.592
67.16000 5.457
67.18000 6.965
67.20000 9.721
67.22000 5.675
67.24000 3.582
67.26000 7.038
67.28000 8.794
67.30000 8.154
67.32000 7.949
67.34000 7.755
67.36000 8.983
67.38000 8.761
67.40000 10.689
67.42000 6.514
67.44000 3.858
67.46000 6.212
67.48000 5.851
67.50000 8.128
67.52000 8.229
67.54000 5.640
67.56000 10.311
67.58000 13.319
67.60000 10.758
67.62000 7.355
67.64000 9.094
67.66000 8.812
67.68000 8.968
67.70000 10.036
67.72000 9.442
67.74000 12.745
67.76000 14.291
67.78000 14.981
67.80000 11.454
67.82000 7.120
67.84000 12.348
67.86000 13.924
67.88000 16.220
67.90000 16.986
67.92000 14.619
67.94000 14.840
67.96000 16.644
67.98000 17.384
68.00000 19.225
68.02000 20.851
68.04000 23.189
68.06000 19.189
68.08000 17.509
68.10000 17.489
68.12000 20.142
68.14000 22.913
68.16000 24.230
68.18000 21.025
68.20000 19.093
68.22000 20.482
68.24000 24.752
68.26000 28.730
68.28000 27.421
68.30000 24.685
68.32000 21.359
68.34000 22.444
68.36000 25.045
68.38000 24.317
68.40000 23.814
68.42000 24.871
68.44000 25.269
68.46000 27.330
68.48000 28.815
68.50000 26.221
68.52000 23.297
68.54000 25.715
68.56000 25.768
68.58000 22.396
68.60000 22.686
68.62000 22.689
68.64000 22.541
68.66000 24.742
68.68000 25.689
68.70000 18.822
68.72000 20.055
68.74000 24.980
68.76000 22.681
68.78000 20.691
68.80000 20.955
68.82000 20.668
68.84000 18.970
68.86000 19.199
68.88000 17.279
68.90000 13.204
68.92000 16.406
68.94000 18.984
68.96000 15.925
68.98000 14.366
69.00000 16.615
69.02000 14.884
69.04000 12.951
69.06000 12.045
69.08000 10.540
69.10000 10.166
69.12000 13.006
69.14000 13.539
69.16000 12.063
69.18000 10.845
69.20000 4.682
69.22000 6.263
69.24000 5.281
69.26000 11.435
69.28000 9.305
69.30000 4.236
69.32000 2.807
69.34000 2.480
69.36000 5.345
69.38000 6.975
69.40000 2.316
69.42000 3.652
69.44000 5.445
69.46000 4.678
69.48000 4.303
69.50000 3.710
69.52000 2.518
69.54000 2.975
69.56000 3.033
69.58000 4.396
69.60000 6.267
69.62000 4.843
69.64000 3.687
69.66000 5.766
69.68000 6.131
69.70000 4.251
69.72000 3.855
69.74000 5.620
69.76000 3.350
69.78000 2.639
69.80000 1.670
69.82000 0.674
69.84000 3.007
69.86000 2.447
69.88000 -0.421
69.90000 -2.338
69.92000 -0.067
69.94000 -2.120
69.96000 0.517
69.98000 1.618
70.00000 -1.442
70.02000 0.629
70.04000 -0.041
70.06000 -1.628
70.08000 -2.424
70.10000 0.351
70.12000 -2.175
70.14000 -0.497
70.16000 -1.058
70.18000 2.885
70.20000 3.339
70.22000 1.723
70.24000 0.696
70.26000 0.541
70.28000 -0.782
70.30000 1.182
70.32000 2.294
70.34000 0.458
70.36000 -0.791
70.38000 0.360
70.40000 -0.680
70.42000 2.010
70.44000 1.522
70.46000 2.285
70.48000 1.116
70.50000 0.565
70.52000 3.117
70.54000 3.082
70.56000 4.429
70.58000 3.915
70.60000 2.731
70.62000 4.236
70.64000 2.016
70.66000 -0.226
70.68000 -2.380
70.70000 -2.357
70.72000 1.655
70.74000 3.393
70.76000 -0.457
70.78000 5.225
70.80000 3.470
70.82000 -1.887
70.84000 0.195
70.86000 3.082
70.88000 3.800
70.90000 -0.664
70.92000 -2.081
70.94000 0.408
70.96000 3.025
70.98000 3.606
71.00000 3.003
71.02000 3.429
71.04000 7.030
71.06000 6.949
71.08000 2.271
71.10000 3.608
71.12000 3.290
71.14000 2.304
71.16000 0.556
71.18000 0.514
71.20000 1.096
71.22000 -0.237
71.24000 0.511
71.26000 1.979
71.28000 2.514
71.30000 0.220
71.32000 0.755
71.34000 1.697
71.36000 1.023
71.38000 1.076
71.40000 -2.317
71.42000 1.213
71.44000 2.873
71.46000 2.965
71.48000 3.072
71.50000 -0.546
71.52000 1.368
71.54000 1.711
71.56000 4.446
71.58000 1.361
71.60000 -2.136
71.62000 -1.087
71.64000 5.567
71.66000 5.175
71.68000 4.524
71.70000 5.541
71.72000 8.322
71.74000 7.044
71.76000 4.004
71.78000 3.827
71.80000 3.638
71.82000 3.221
71.84000 3.912
71.86000 3.075
71.88000 -0.425
71.90000 0.399
71.92000 1.580
71.94000 -1.166
71.96000 0.649
71.98000 0.159
72.00000 1.709
72.02000 -2.281
72.04000 0.068
72.06000 3.869
72.08000 2.538
72.10000 2.257
72.12000 2.742
72.14000 3.135
72.16000 5.474
72.18000 4.621
72.20000 4.853
72.22000 3.129
72.24000 2.351
72.26000 -2.280
72.28000 -1.072
72.30000 1.347
72.32000 3.357
72.34000 1.129
72.36000 -0.588
72.38000 6.284
72.40000 5.969
72.42000 5.099
72.44000 2.807
72.46000 0.906
72.48000 3.233
72.50000 4.187
72.52000 -2.225
72.54000 -2.225
72.56000 3.182
72.58000 8.764
72.60000 6.273
72.62000 1.273
72.64000 1.964
72.66000 0.279
72.68000 0.097
72.70000 4.619
72.72000 4.973
72.74000 3.674
72.76000 5.288
72.78000 5.560
72.80000 1.474
72.82000 -0.522
72.84000 -2.088
72.86000 -0.488
72.88000 1.936
72.90000 2.486
72.92000 2.922
72.94000 2.050
72.96000 1.071
72.98000 4.143
73.00000 4.410
73.02000 3.392
73.04000 1.769
73.06000 1.082
73.08000 5.408
73.10000 3.633
73.12000 5.544
73.14000 5.933
73.16000 3.624
73.18000 2.043
73.20000 -2.241
73.22000 -1.014
73.24000 3.701
73.26000 0.995
73.28000 4.139
73.30000 7.352
73.32000 5.868
73.34000 1.905
73.36000 3.426
73.38000 3.514
73.40000 4.385
73.42000 7.379
73.44000 4.701
73.46000 1.792
73.48000 5.064
73.50000 5.127
73.52000 3.221
73.54000 2.318
73.56000 2.042
73.58000 1.625
73.60000 4.998
73.62000 5.884
73.64000 5.706
73.66000 1.801
73.68000 4.245
73.70000 2.674
73.72000 -0.380
73.74000 2.954
73.76000 6.508
73.78000 3.179
73.80000 2.045
73.82000 1.837
73.84000 -1.653
73.86000 -1.286
73.88000 1.914
73.90000 -0.037
73.92000 4.037
73.94000 6.444
73.96000 8.470
73.98000 4.803
74.00000 0.176
74.02000 -1.299
74.04000 -2.240
74.06000 4.213
74.08000 1.485
74.10000 2.089
74.12000 2.873
74.14000 3.368
74.16000 -1.140
74.18000 -2.242
74.20000 -2.210
74.22000 1.889
74.24000 0.964
74.26000 1.721
74.28000 1.048
74.30000 2.079
74.32000 3.343
74.34000 0.449
74.36000 -0.292
74.38000 0.753
74.40000 3.561
74.42000 7.246
74.44000 2.600
74.46000 0.698
74.48000 -2.251
74.50000 0.360
74.52000 3.709
74.54000 2.349
74.56000 2.665
74.58000 -0.416
74.60000 -1.169
74.62000 2.331
74.64000 2.625
74.66000 -0.989
74.68000 1.074
74.70000 4.036
74.72000 4.955
74.74000 3.877
74.76000 2.070
74.78000 4.298
74.80000 3.739
74.82000 -1.227
74.84000 -1.146
74.86000 4.421
74.88000 2.297
74.90000 0.943
74.92000 1.271
74.94000 0.848
74.96000 0.875
74.98000 1.916
75.00000 3.563
75.02000 1.541
75.04000 -2.254
75.06000 1.720
75.08000 2.120
75.10000 3.737
75.12000 4.451
75.14000 1.606
75.16000 1.453
75.18000 2.682
75.20000 3.160
75.22000 1.621
75.24000 2.778
75.26000 0.228
75.28000 1.843
75.30000 5.358
75.32000 1.396
75.34000 2.851
75.36000 3.249
75.38000 5.513
75.40000 7.020
75.42000 4.143
75.44000 3.587
75.46000 5.165
75.48000 0.753
75.50000 0.270
75.52000 6.171
75.54000 8.662
75.56000 10.838
75.58000 6.469
75.60000 2.922
75.62000 0.225
75.64000 1.492
75.66000 3.758
75.68000 6.239
75.70000 7.684
75.72000 5.154
75.74000 4.257
75.76000 3.273
75.78000 4.394
75.80000 0.775
75.82000 0.346
75.84000 -2.220
75.86000 0.095
75.88000 4.260
75.90000 8.802
75.92000 6.421
75.94000 5.719
75.96000 5.021
75.98000 4.164
76.00000 3.741
76.02000 7.166
76.04000 5.172
76.06000 1.307
76.08000 2.422
76.10000 4.341
76.12000 5.615
76.14000 2.054
76.16000 6.249
76.18000 5.815
76.20000 2.671
76.22000 4.783
76.24000 2.714
76.26000 5.227
76.28000 2.395
76.30000 1.659
76.32000 5.021
76.34000 3.068
76.36000 3.716
76.38000 0.646
76.40000 0.584
76.42000 7.253
76.44000 5.203
76.46000 1.658
76.48000 2.609
76.50000 4.756
76.52000 6.147
76.54000 6.996
76.56000 4.801
76.58000 3.624
76.60000 1.156
76.62000 1.640
76.64000 4.418
76.66000 6.682
76.68000 5.425
76.70000 5.897
76.72000 2.533
76.74000 1.120
76.76000 -0.178
76.78000 1.620
76.80000 4.121
76.82000 6.826
76.84000 8.899
76.86000 8.070
76.88000 9.327
76.90000 9.472
76.92000 6.327
76.94000 6.476
76.96000 3.734
76.98000 4.878
77.00000 3.411
77.02000 6.421
77.04000 9.080
77.06000 4.106
77.08000 1.859
77.10000 4.276
77.12000 7.040
77.14000 7.775
77.16000 6.406
77.18000 5.655
77.20000 7.501
77.22000 5.019
77.24000 -2.218
77.26000 -0.222
77.28000 6.579
77.30000 10.736
77.32000 6.027
77.34000 7.046
77.36000 4.936
77.38000 3.657
77.40000 3.302
77.42000 2.317
77.44000 3.013
77.46000 6.386
77.48000 3.452
77.50000 2.938
77.52000 5.171
77.54000 4.133
77.56000 0.759
77.58000 1.426
77.60000 3.228
77.62000 2.793
77.64000 0.983
77.66000 2.955
77.68000 6.629
77.70000 3.011
77.72000 1.881
77.74000 2.497
77.76000 0.234
77.78000 -0.850
77.80000 -0.348
77.82000 4.302
77.84000 5.963
77.86000 3.451
77.88000 2.584
77.90000 3.285
77.92000 2.632
77.94000 3.231
77.96000 6.733
77.98000 6.095
78.00000 3.765
78.02000 2.443
78.04000 1.606
78.06000 -0.131
78.08000 -0.928
78.10000 -1.607
78.12000 -0.347
78.14000 0.136
78.16000 1.432
78.18000 3.692
78.20000 1.856
78.22000 -1.072
78.24000 1.561
78.26000 2.519
78.28000 3.085
78.30000 4.560
78.32000 3.730
78.34000 3.348
78.36000 4.557
78.38000 6.142
78.40000 1.707
78.42000 0.941
78.44000 2.766
78.46000 1.542
78.48000 4.883
78.50000 0.850
78.52000 1.271
78.54000 2.603
78.56000 0.679
78.58000 2.214
78.60000 0.609
78.62000 -2.312
78.64000 -0.357
78.66000 -0.082
78.68000 1.037
78.70000 3.926
78.72000 4.935
78.74000 0.367
78.76000 0.096
78.78000 1.031
78.80000 1.716
78.82000 1.597
78.84000 6.403
78.86000 2.924
78.88000 2.436
78.90000 2.975
78.92000 2.527
78.94000 5.391
78.96000 4.288
78.98000 0.454
79.00000 4.308
79.02000 -0.026
79.04000 1.140
79.06000 1.597
79.08000 1.816
79.10000 3.805
79.12000 3.261
79.14000 2.770
79.16000 4.019
79.18000 2.202
79.20000 2.809
79.22000 6.343
79.24000 5.339
79.26000 3.491
79.28000 5.871
79.30000 6.104
79.32000 5.133
79.34000 2.325
79.36000 0.984
79.38000 1.556
79.40000 3.563
79.42000 4.626
79.44000 4.828
79.46000 6.288
79.48000 2.879
79.50000 1.189
79.52000 5.561
79.54000 4.202
79.56000 4.352
79.58000 7.810
79.60000 3.309
79.62000 4.648
79.64000 3.605
79.66000 0.467
79.68000 2.979
79.70000 4.979
79.72000 5.137
79.74000 8.551
79.76000 3.308
79.78000 0.248
79.80000 -2.306
79.82000 1.696
79.84000 4.881
79.86000 1.983
79.88000 2.956
79.90000 3.235
79.92000 1.917
79.94000 2.755
79.96000 4.248
79.98000 6.503
80.00000 5.188
80.02000 0.875
80.04000 -1.132
80.06000 1.275
80.08000 5.001
80.10000 5.319
80.12000 4.590
80.14000 3.715
80.16000 3.688
80.18000 7.733
80.20000 8.784
80.22000 2.644
80.24000 -0.060
80.26000 6.217
80.28000 6.994
80.30000 4.019
80.32000 2.075
80.34000 -2.003
80.36000 1.029
80.38000 3.671
80.40000 2.513
80.42000 0.303
80.44000 3.811
80.46000 3.588
80.48000 2.637
80.50000 2.884
80.52000 4.328
80.54000 -0.110
80.56000 0.630
80.58000 -0.144
80.60000 3.623
80.62000 7.798
80.64000 6.711
80.66000 1.186
80.68000 4.542
80.70000 6.029
80.72000 4.162
80.74000 1.488
80.76000 0.756
80.78000 0.549
80.80000 3.269
80.82000 6.319
80.84000 7.292
80.86000 4.594
80.88000 1.882
80.90000 0.757
80.92000 3.666
80.94000 2.175
80.96000 7.357
80.98000 6.051
81.00000 3.386
81.02000 2.054
81.04000 1.192
81.06000 2.989
81.08000 7.144
81.10000 7.928
81.12000 4.589
81.14000 2.483
81.16000 1.910
81.18000 1.287
81.20000 8.131
81.22000 9.847
81.24000 6.741
81.26000 4.595
81.28000 6.282
81.30000 8.983
81.32000 9.263
81.34000 9.516
81.36000 8.377
81.38000 6.314
81.40000 5.132
81.42000 8.345
81.44000 6.931
81.46000 7.687
81.48000 7.659
81.50000 9.888
81.52000 14.075
81.54000 11.930
81.56000 8.749
81.58000 7.974
81.60000 12.226
81.62000 10.194
81.64000 7.691
81.66000 14.481
81.68000 16.116
81.70000 12.662
81.72000 7.412
81.74000 10.804
81.76000 11.656
81.78000 13.629
81.80000 18.355
81.82000 14.976
81.84000 16.433
81.86000 19.122
81.88000 15.697
81.90000 15.596
81.92000 14.532
81.94000 18.169
81.96000 18.428
81.98000 16.766
82.00000 15.797
82.02000 23.634
82.04000 23.824
82.06000 21.612
82.08000 18.958
82.10000 22.734
82.12000 21.113
82.14000 25.745
82.16000 27.719
82.18000 25.765
82.20000 24.183
82.22000 24.052
82.24000 24.557
82.26000 26.147
82.28000 24.421
82.30000 23.029
82.32000 20.864
82.34000 27.848
82.36000 28.066
82.38000 22.393
82.40000 23.983
82.42000 29.079
82.44000 28.583
82.46000 32.696
82.48000 33.350
82.50000 35.325
82.52000 39.222
82.54000 33.140
82.56000 28.684
82.58000 31.171
82.60000 30.033
82.62000 28.407
82.64000 31.465
82.66000 30.153
82.68000 28.081
82.70000 31.442
82.72000 30.347
82.74000 26.204
82.76000 26.407
82.78000 30.789
82.80000 35.244
82.82000 37.830
82.84000 36.328
82.86000 31.077
82.88000 25.854
82.90000 29.670
82.92000 24.482
82.94000 25.158
82.96000 28.285
82.98000 26.773
83.00000 32.842
83.02000 33.833
83.04000 28.695
83.06000 27.895
83.08000 23.965
83.10000 22.270
83.12000 25.010
83.14000 24.072
83.16000 19.089
83.18000 18.052
83.20000 18.154
83.22000 21.782
83.24000 22.149
83.26000 19.751
83.28000 26.569
83.30000 23.632
83.32000 18.498
83.34000 17.485
83.36000 21.743
83.38000 18.226
83.40000 17.176
83.42000 13.503
83.44000 13.978
83.46000 12.411
83.48000 11.929
83.50000 13.556
83.52000 14.596
83.54000 14.575
83.56000 8.858
83.58000 10.031
83.60000 9.747
83.62000 10.702
83.64000 7.390
83.66000 8.181
83.68000 9.805
83.70000 5.766
83.72000 9.133
83.74000 8.303
83.76000 9.456
83.78000 9.183
83.80000 8.003
83.82000 10.754
83.84000 8.868
83.86000 9.480
83.88000 6.872
83.90000 5.399
83.92000 6.776
83.94000 7.533
83.96000 7.095
83.98000 4.055
84.00000 2.920
84.02000 3.364
84.04000 3.828
84.06000 6.023
84.08000 3.001
84.10000 2.639
84.12000 0.505
84.14000 -1.460
84.16000 1.564
84.18000 5.428
84.20000 6.219
84.22000 4.732
84.24000 3.322
84.26000 5.916
84.28000 4.199
84.30000 5.342
84.32000 2.615
84.34000 3.535
84.36000 1.051
84.38000 -0.348
84.40000 4.637
84.42000 7.338
84.44000 4.640
84.46000 2.826
84.48000 4.395
84.50000 2.279
84.52000 4.995
84.54000 2.947
84.56000 2.868
84.58000 6.198
84.60000 4.583
84.62000 3.978
84.64000 5.700
84.66000 3.340
84.68000 3.140
84.70000 2.726
84.72000 5.296
84.74000 6.217
84.76000 1.157
84.78000 0.964
84.80000 0.991
84.82000 2.021
84.84000 3.668
84.86000 2.914
84.88000 5.221
84.90000 9.463
84.92000 3.019
84.94000 2.634
84.96000 5.254
84.98000 6.020
85.00000 6.593
85.02000 1.399
85.04000 -2.278
85.06000 4.802
85.08000 8.798
85.10000 1.724
85.12000 5.326
85.14000 8.665
85.16000 7.429
85.18000 8.138
85.20000 5.481
85.22000 1.956
85.24000 0.467
85.26000 -0.279
85.28000 5.634
85.30000 7.082
85.32000 4.382
85.34000 4.226
85.36000 1.862
85.38000 -0.006
85.40000 -0.427
85.42000 1.011
85.44000 3.007
85.46000 6.107
85.48000 3.023
85.50000 2.351
85.52000 4.358
85.54000 3.033
85.56000 4.536
85.58000 0.976
85.60000 1.960
85.62000 2.687
85.64000 0.774
85.66000 5.024
85.68000 6.612
85.70000 4.139
85.72000 5.799
85.74000 5.199
85.76000 -1.718
85.78000 1.370
85.80000 0.574
85.82000 3.768
85.84000 6.917
85.86000 6.183
85.88000 5.561
85.90000 6.200
85.92000 3.363
85.94000 3.051
85.96000 9.429
85.98000 8.200
86.00000 3.858
86.02000 7.970
86.04000 10.088
86.06000 8.587
86.08000 5.387
86.10000 5.767
86.12000 5.909
86.14000 5.748
86.16000 7.900
86.18000 8.488
86.20000 11.098
86.22000 7.807
86.24000 9.468
86.26000 11.464
86.28000 13.272
86.30000 13.314
86.32000 14.605
86.34000 12.665
86.36000 9.946
86.38000 5.203
86.40000 10.069
86.42000 12.873
86.44000 12.513
86.46000 14.069
86.48000 12.318
86.50000 13.236
86.52000 18.890
86.54000 18.464
86.56000 13.047
86.58000 10.882
86.60000 12.710
86.62000 7.159
86.64000 13.953
86.66000 17.722
86.68000 18.330
86.70000 16.986
86.72000 15.483
86.74000 14.621
86.76000 16.334
86.78000 12.656
86.80000 17.291
86.82000 16.225
86.84000 15.937
86.86000 20.607
86.88000 19.951
86.90000 21.682
86.92000 21.420
86.94000 16.135
86.96000 18.131
86.98000 20.149
87.00000 21.771
87.02000 18.150
87.04000 15.459
87.06000 14.812
87.08000 16.465
87.10000 18.406
87.12000 19.997
87.14000 13.271
87.16000 9.914
87.18000 16.079
87.20000 15.127
87.22000 12.507
87.24000 16.892
87.26000 17.987
87.28000 18.947
87.30000 18.171
87.32000 17.802
87.34000 16.315
87.36000 15.259
87.38000 15.180
87.40000 12.701
87.42000 14.072
87.44000 11.876
87.46000 11.821
87.48000 12.873
87.50000 12.916
87.52000 13.284
87.54000 14.868
87.56000 14.759
87.58000 10.273
87.60000 5.752
87.62000 5.413
87.64000 8.891
87.66000 6.969
87.68000 8.891
87.70000 3.713
87.72000 6.946
87.74000 8.038
87.76000 6.791
87.78000 7.146
87.80000 5.419
87.82000 6.051
87.84000 6.489
87.86000 2.450
87.88000 5.844
87.90000 6.556
87.92000 5.259
87.94000 4.217
87.96000 1.402
87.98000 2.797
88.00000 3.894
88.02000 3.495
88.04000 4.145
88.06000 2.514
88.08000 2.245
88.10000 1.947
88.12000 1.987
88.14000 2.515
88.16000 3.272
88.18000 0.960
88.20000 -2.257
88.22000 4.997
88.24000 2.092
88.26000 0.501
88.28000 -0.380
88.30000 1.122
88.32000 -0.054
88.34000 -2.223
88.36000 1.702
88.38000 -0.742
88.40000 0.830
88.42000 -1.918
88.44000 1.380
88.46000 0.570
88.48000 1.075
88.50000 2.372
88.52000 2.120
88.54000 0.107
88.56000 -2.148
88.58000 -0.125
88.60000 1.860
88.62000 2.998
88.64000 4.082
88.66000 2.244
88.68000 2.683
88.70000 3.934
88.72000 2.607
88.74000 5.565
88.76000 2.584
88.78000 0.925
88.80000 3.307
88.82000 1.206
88.84000 6.083
88.86000 5.762
88.88000 1.411
88.90000 0.959
88.92000 5.706
88.94000 4.319
88.96000 -1.002
88.98000 -2.190
89.00000 1.998
89.02000 0.619
89.04000 2.601
89.06000 3.223
89.08000 1.235
89.10000 1.138
89.12000 2.304
89.14000 1.581
89.16000 2.704
89.18000 2.845
89.20000 2.238
89.22000 2.323
89.24000 3.478
89.26000 3.190
89.28000 1.509
89.30000 1.307
89.32000 1.401
89.34000 1.940
89.36000 -0.377
89.38000 -1.179
89.40000 -0.586
89.42000 -2.152
89.44000 -2.067
89.46000 3.612
89.48000 0.199
89.50000 0.205
89.52000 -0.641
89.54000 1.115
89.56000 4.140
89.58000 4.792
89.60000 5.212
89.62000 2.637
89.64000 0.961
89.66000 0.162
89.68000 5.264
89.70000 4.983
89.72000 6.204
89.74000 10.219
89.76000 7.792
89.78000 4.364
89.80000 4.551
89.82000 2.641
89.84000 2.411
89.86000 4.103
89.88000 4.910
89.90000 1.193
89.92000 -0.252
89.94000 0.641
89.96000 2.232
89.98000 3.079
90.00000 0.517
90.02000 -1.398
90.04000 0.989
90.06000 3.869
90.08000 3.147
90.10000 4.527
90.12000 6.819
90.14000 3.250
90.16000 4.633
90.18000 0.319
90.20000 2.124
90.22000 -2.124
90.24000 -1.417
90.26000 -2.056
90.28000 -0.686
90.30000 1.873
90.32000 0.243
90.34000 0.704
90.36000 3.396
90.38000 5.581
90.40000 3.346
90.42000 0.556
90.44000 2.082
90.46000 8.446
90.48000 4.627
90.50000 1.575
90.52000 -1.208
90.54000 -1.681
90.56000 -0.176
90.58000 5.280
90.60000 8.110
90.62000 4.001
90.64000 4.765
90.66000 2.104
90.68000 -2.141
90.70000 0.295
90.72000 -1.155
90.74000 -0.585
90.76000 2.403
90.78000 4.594
90.80000 1.668
90.82000 3.230
90.84000 2.703
90.86000 4.886
90.88000 1.280
90.90000 3.557
90.92000 3.065
90.94000 4.396
90.96000 1.798
90.98000 3.618
91.00000 3.421
91.02000 -1.723
91.04000 2.314
91.06000 2.939
91.08000 2.044
91.10000 1.496
91.12000 -0.441
91.14000 1.904
91.16000 0.937
91.18000 0.669
91.20000 0.972
91.22000 2.687
91.24000 -2.155
91.26000 1.024
91.28000 6.232
91.30000 5.746
91.32000 5.460
91.34000 3.782
91.36000 0.134
91.38000 -0.425
91.40000 0.289
91.42000 2.867
91.44000 4.135
91.46000 3.668
91.48000 7.112
91.50000 9.092
91.52000 6.203
91.54000 0.904
91.56000 0.501
91.58000 3.349
91.60000 1.035
91.62000 0.243
91.64000 -1.943
91.66000 0.165
91.68000 0.822
91.70000 2.763
91.72000 0.343
91.74000 1.302
91.76000 -0.472
91.78000 2.273
91.80000 2.136
91.82000 3.847
91.84000 2.005
91.86000 0.610
91.88000 1.704
91.90000 0.365
91.92000 3.027
91.94000 -0.351
91.96000 -0.568
91.98000 0.473
92.00000 -0.954
92.02000 6.714
92.04000 10.345
92.06000 6.247
92.08000 2.113
92.10000 -0.827
92.12000 0.414
92.14000 5.133
92.16000 4.922
92.18000 1.181
92.20000 -0.197
92.22000 7.259
92.24000 5.458
92.26000 5.147
92.28000 1.466
92.30000 -0.778
92.32000 1.697
92.34000 3.811
92.36000 3.598
92.38000 0.764
92.40000 0.473
92.42000 3.091
92.44000 11.684
92.46000 6.947
92.48000 8.265
92.50000 6.603
92.52000 3.292
92.54000 6.658
92.56000 1.842
92.58000 1.478
92.60000 4.301
92.62000 2.164
92.64000 2.261
92.66000 -0.112
92.68000 4.076
92.70000 5.004
92.72000 3.303
92.74000 4.958
92.76000 2.873
92.78000 3.987
92.80000 2.413
92.82000 2.414
92.84000 1.075
92.86000 4.036
92.88000 1.656
92.90000 3.963
92.92000 2.850
92.94000 -2.060
92.96000 -0.909
92.98000 2.966
93.00000 8.294
93.02000 9.659
93.04000 10.843
93.06000 7.633
93.08000 4.999
93.10000 4.466
93.12000 4.943
93.14000 3.330
93.16000 3.474
93.18000 5.305
93.20000 3.936
93.22000 4.962
93.24000 5.262
93.26000 4.391
93.28000 7.079
93.30000 9.605
93.32000 7.062
93.34000 7.421
93.36000 4.614
93.38000 6.960
93.40000 6.100
93.42000 5.356
93.44000 7.751
93.46000 5.991
93.48000 1.987
93.50000 -2.112
93.52000 0.135
93.54000 2.917
93.56000 5.388
93.58000 6.909
93.60000 5.821
93.62000 0.288
93.64000 1.015
93.66000 2.323
93.68000 6.129
93.70000 9.118
93.72000 4.802
93.74000 3.614
93.76000 9.278
93.78000 4.889
93.80000 2.432
93.82000 -1.080
93.84000 1.068
93.86000 4.584
93.88000 1.871
93.90000 0.525
93.92000 3.413
93.94000 -1.486
93.96000 2.258
93.98000 4.957
94.00000 4.266
94.02000 3.798
94.04000 4.586
94.06000 -1.863
94.08000 -0.652
94.10000 4.836
94.12000 6.728
94.14000 0.394
94.16000 1.074
94.18000 4.965
94.20000 4.119
94.22000 2.437
94.24000 3.189
94.26000 5.576
94.28000 6.888
94.30000 6.001
94.32000 0.727
94.34000 1.279
94.36000 2.921
94.38000 3.967
94.40000 2.956
94.42000 2.222
94.44000 4.998
94.46000 4.623
94.48000 3.318
94.50000 1.491
94.52000 -0.814
94.54000 0.322
94.56000 3.542
94.58000 3.123
94.60000 0.155
94.62000 1.576
94.64000 3.384
94.66000 -2.165
94.68000 2.796
94.70000 5.613
94.72000 4.193
94.74000 2.636
94.76000 4.585
94.78000 5.673
94.80000 4.169
94.82000 2.771
94.84000 1.364
94.86000 3.841
94.88000 8.257
94.90000 6.460
94.92000 4.019
94.94000 1.921
94.96000 3.882
94.98000 -1.581
95.00000 2.247
95.02000 4.112
95.04000 0.873
95.06000 2.313
95.08000 2.260
95.10000 0.655
95.12000 4.009
95.14000 1.019
95.16000 4.925
95.18000 6.236
95.20000 2.287
95.22000 1.000
95.24000 1.827
95.26000 1.139
95.28000 2.273
95.30000 4.246
95.32000 2.086
95.34000 8.652
95.36000 11.938
95.38000 10.653
95.40000 5.263
95.42000 2.322
95.44000 -0.162
95.46000 4.403
95.48000 9.694
95.50000 5.570
95.52000 4.860
95.54000 6.578
95.56000 3.783
95.58000 1.667
95.60000 2.987
95.62000 2.590
95.64000 2.334
95.66000 3.280
95.68000 7.043
95.70000 3.387
95.72000 0.098
95.74000 -0.435
95.76000 1.883
95.78000 5.320
95.80000 7.161
95.82000 3.296
95.84000 0.409
95.86000 2.623
95.88000 3.865
95.90000 4.753
95.92000 3.532
95.94000 1.526
95.96000 -2.139
95.98000 -1.695
96.00000 2.818
96.02000 3.431
96.04000 7.076
96.06000 5.868
96.08000 1.151
96.10000 4.985
96.12000 7.667
96.14000 3.619
96.16000 2.340
96.18000 5.361
96.20000 4.144
96.22000 4.300
96.24000 4.548
96.26000 6.602
96.28000 6.324
96.30000 5.335
96.32000 -0.406
96.34000 5.485
96.36000 1.974
96.38000 3.278
96.40000 4.237
96.42000 1.529
96.44000 3.564
96.46000 9.471
96.48000 6.005
96.50000 9.198
96.52000 9.583
96.54000 6.005
96.56000 7.936
96.58000 9.878
96.60000 13.189
96.62000 7.709
96.64000 4.300
96.66000 1.962
96.68000 6.821
96.70000 5.698
96.72000 6.955
96.74000 2.711
96.76000 2.529
96.78000 5.238
96.80000 5.851
96.82000 5.568
96.84000 -1.109
96.86000 -0.391
96.88000 1.179
96.90000 2.034
96.92000 6.857
96.94000 2.576
96.96000 0.093
96.98000 6.288
97.00000 2.173
97.02000 2.597
97.04000 7.346
97.06000 3.202
97.08000 3.076
97.10000 2.777
97.12000 -0.201
97.14000 2.097
97.16000 2.924
97.18000 2.571
97.20000 5.004
97.22000 8.304
97.24000 7.540
97.26000 10.981
97.28000 6.010
97.30000 5.583
97.32000 8.184
97.34000 2.515
97.36000 3.363
97.38000 4.880
97.40000 2.384
97.42000 5.797
97.44000 8.160
97.46000 7.655
97.48000 9.745
97.50000 9.449
97.52000 11.727
97.54000 15.137
97.56000 9.891
97.58000 8.560
97.60000 0.522
97.62000 -1.813
97.64000 -2.091
97.66000 1.491
97.68000 1.091
97.70000 4.381
97.72000 2.867
97.74000 5.870
97.76000 11.006
97.78000 8.177
97.80000 3.664
97.82000 3.454
97.84000 2.324
97.86000 9.014
97.88000 7.387
97.90000 3.401
97.92000 6.015
97.94000 8.576
97.96000 7.000
97.98000 3.931
98.00000 3.302
98.02000 6.744
98.04000 12.483
98.06000 19.091
98.08000 12.763
98.10000 5.388
98.12000 6.840
98.14000 9.469
98.16000 9.724
98.18000 9.980
98.20000 4.471
98.22000 -2.046
98.24000 3.879
98.26000 6.356
98.28000 5.774
98.30000 9.674
98.32000 12.650
98.34000 13.044
98.36000 8.868
98.38000 5.379
98.40000 9.932
98.42000 8.192
98.44000 5.613
98.46000 5.088
98.48000 5.974
98.50000 11.201
98.52000 11.079
98.54000 7.272
98.56000 5.016
98.58000 10.252
98.60000 5.632
98.62000 6.343
98.64000 13.618
98.66000 12.585
98.68000 6.888
98.70000 0.025
98.72000 4.622
98.74000 11.604
98.76000 10.010
98.78000 5.319
98.80000 11.264
98.82000 13.304
98.84000 5.664
98.86000 9.984
98.88000 15.761
98.90000 9.469
98.92000 12.112
98.94000 8.878
98.96000 11.748
98.98000 13.986
99.00000 12.654
99.02000 11.912
99.04000 17.750
99.06000 4.438
99.08000 11.573
99.10000 8.676
99.12000 9.337
99.14000 12.786
99.16000 18.309
99.18000 8.863
99.20000 1.805
99.22000 2.834
99.24000 0.982
99.26000 5.589
99.28000 6.436
99.30000 8.436
99.32000 1.388
99.34000 4.164
99.36000 -2.041
99.38000 2.482
99.40000 5.882
99.42000 2.111
99.44000 5.051
99.46000 3.297
99.48000 11.091
99.50000 11.148
99.52000 5.747
99.54000 8.452
99.56000 3.894
99.58000 -2.391
99.60000 6.660
99.62000 11.126
99.64000 7.294
99.66000 7.339
99.68000 10.383
99.70000 15.037
99.72000 3.991
99.74000 -2.317
99.76000 6.959
99.78000 5.033
99.80000 -0.338
99.82000 1.172
99.84000 -2.215
99.86000 -1.606
99.88000 -1.820
99.90000 9.467
99.92000 14.408
99.94000 6.821
99.96000 -7.056
99.98000 0.000
