'Id: "0011387" Comment: "Integrate frame 0011387_Au-Ir-Rh_Rh-rich_XRD-Mapping-232-0000.gfrmwith cursor Wedge Cursor #5" Operator: "B?rgel" Anode: "Cu" Wavelength: "1.5406" Scantype: "2Theta (TwoTheta)" TimePerStep: "1" X: "9" Y: "13.5" Z: "5.95" 
10.00000 0.000
10.02000 0.760
10.04000 5.047
10.06000 4.698
10.08000 -4.000
10.10000 0.256
10.12000 17.435
10.14000 12.767
10.16000 12.960
10.18000 22.996
10.20000 25.528
10.22000 5.797
10.24000 4.094
10.26000 9.377
10.28000 22.506
10.30000 4.167
10.32000 -0.434
10.34000 4.439
10.36000 7.024
10.38000 10.277
10.40000 -1.152
10.42000 13.531
10.44000 31.130
10.46000 18.480
10.48000 5.172
10.50000 10.994
10.52000 7.875
10.54000 9.202
10.56000 20.699
10.58000 15.690
10.60000 25.260
10.62000 15.581
10.64000 11.774
10.66000 11.672
10.68000 -4.095
10.70000 3.057
10.72000 12.852
10.74000 9.998
10.76000 3.178
10.78000 3.120
10.80000 13.978
10.82000 15.233
10.84000 -2.119
10.86000 12.732
10.88000 17.523
10.90000 18.007
10.92000 26.659
10.94000 28.611
10.96000 18.059
10.98000 22.757
11.00000 15.538
11.02000 15.772
11.04000 12.986
11.06000 24.386
11.08000 16.597
11.10000 8.254
11.12000 -0.718
11.14000 -3.036
11.16000 9.766
11.18000 11.153
11.20000 16.339
11.22000 6.593
11.24000 1.814
11.26000 8.631
11.28000 27.695
11.30000 11.634
11.32000 6.145
11.34000 6.625
11.36000 9.761
11.38000 17.442
11.40000 1.635
11.42000 2.897
11.44000 12.540
11.46000 21.931
11.48000 10.843
11.50000 13.341
11.52000 25.965
11.54000 26.345
11.56000 20.349
11.58000 16.761
11.60000 21.935
11.62000 17.984
11.64000 18.043
11.66000 12.710
11.68000 13.209
11.70000 13.522
11.72000 18.679
11.74000 19.867
11.76000 20.125
11.78000 18.096
11.80000 9.403
11.82000 -0.948
11.84000 -0.620
11.86000 7.034
11.88000 11.968
11.90000 13.814
11.92000 20.122
11.94000 24.200
11.96000 11.287
11.98000 8.172
12.00000 11.388
12.02000 8.113
12.04000 2.355
12.06000 10.493
12.08000 4.165
12.10000 0.728
12.12000 10.642
12.14000 4.853
12.16000 10.585
12.18000 19.580
12.20000 17.697
12.22000 15.522
12.24000 18.552
12.26000 13.296
12.28000 11.089
12.30000 7.724
12.32000 14.397
12.34000 17.670
12.36000 0.108
12.38000 11.975
12.40000 18.682
12.42000 16.990
12.44000 10.466
12.46000 15.839
12.48000 17.908
12.50000 26.513
12.52000 23.410
12.54000 19.311
12.56000 17.617
12.58000 9.496
12.60000 14.496
12.62000 18.910
12.64000 17.237
12.66000 13.811
12.68000 18.345
12.70000 22.365
12.72000 24.576
12.74000 12.391
12.76000 8.712
12.78000 12.837
12.80000 7.164
12.82000 14.774
12.84000 19.503
12.86000 26.211
12.88000 21.560
12.90000 10.052
12.92000 11.136
12.94000 6.176
12.96000 13.936
12.98000 26.977
13.00000 19.565
13.02000 11.196
13.04000 11.785
13.06000 10.518
13.08000 15.347
13.10000 10.313
13.12000 8.855
13.14000 17.838
13.16000 19.805
13.18000 6.200
13.20000 1.358
13.22000 20.907
13.24000 25.939
13.26000 18.442
13.28000 19.842
13.30000 13.003
13.32000 20.484
13.34000 17.545
13.36000 7.243
13.38000 12.590
13.40000 13.112
13.42000 16.305
13.44000 10.794
13.46000 4.628
13.48000 7.420
13.50000 9.687
13.52000 18.984
13.54000 20.690
13.56000 17.509
13.58000 15.471
13.60000 16.447
13.62000 12.044
13.64000 10.340
13.66000 11.599
13.68000 9.203
13.70000 5.981
13.72000 14.540
13.74000 18.102
13.76000 15.921
13.78000 10.184
13.80000 15.206
13.82000 14.514
13.84000 7.609
13.86000 1.771
13.88000 5.332
13.90000 8.157
13.92000 11.510
13.94000 11.664
13.96000 8.697
13.98000 12.742
14.00000 7.855
14.02000 8.049
14.04000 5.966
14.06000 7.019
14.08000 14.009
14.10000 14.543
14.12000 13.766
14.14000 11.862
14.16000 13.603
14.18000 12.795
14.20000 11.129
14.22000 12.135
14.24000 6.238
14.26000 13.609
14.28000 17.859
14.30000 15.979
14.32000 15.510
14.34000 3.600
14.36000 10.594
14.38000 13.952
14.40000 11.282
14.42000 12.401
14.44000 16.779
14.46000 9.898
14.48000 0.591
14.50000 3.472
14.52000 14.265
14.54000 21.094
14.56000 13.499
14.58000 8.332
14.60000 6.784
14.62000 5.875
14.64000 11.187
14.66000 6.155
14.68000 10.114
14.70000 13.032
14.72000 11.561
14.74000 11.358
14.76000 17.002
14.78000 5.515
14.80000 3.487
14.82000 9.748
14.84000 19.176
14.86000 19.872
14.88000 9.424
14.90000 -4.232
14.92000 -0.731
14.94000 1.218
14.96000 7.192
14.98000 6.070
15.00000 5.332
15.02000 5.443
15.04000 4.348
15.06000 13.169
15.08000 9.722
15.10000 5.141
15.12000 12.654
15.14000 8.477
15.16000 3.991
15.18000 12.353
15.20000 14.109
15.22000 15.277
15.24000 5.504
15.26000 9.777
15.28000 8.665
15.30000 8.407
15.32000 15.257
15.34000 12.999
15.36000 4.056
15.38000 7.298
15.40000 0.779
15.42000 8.429
15.44000 6.384
15.46000 8.284
15.48000 15.155
15.50000 15.751
15.52000 -1.825
15.54000 4.772
15.56000 3.743
15.58000 4.855
15.60000 7.149
15.62000 12.855
15.64000 3.290
15.66000 8.943
15.68000 7.349
15.70000 3.704
15.72000 7.604
15.74000 1.603
15.76000 -0.642
15.78000 -2.034
15.80000 6.517
15.82000 8.428
15.84000 -4.447
15.86000 -0.089
15.88000 10.873
15.90000 15.859
15.92000 11.392
15.94000 4.988
15.96000 1.224
15.98000 2.453
16.00000 13.403
16.02000 17.312
16.04000 4.269
16.06000 0.487
16.08000 4.651
16.10000 14.385
16.12000 12.847
16.14000 7.450
16.16000 8.703
16.18000 13.237
16.20000 3.122
16.22000 5.354
16.24000 7.398
16.26000 8.113
16.28000 9.710
16.30000 6.724
16.32000 -2.447
16.34000 0.605
16.36000 2.788
16.38000 4.197
16.40000 2.074
16.42000 12.346
16.44000 10.274
16.46000 8.767
16.48000 6.382
16.50000 3.248
16.52000 -2.812
16.54000 12.081
16.56000 15.363
16.58000 11.443
16.60000 0.063
16.62000 1.514
16.64000 4.946
16.66000 7.290
16.68000 4.693
16.70000 7.542
16.72000 7.857
16.74000 11.066
16.76000 5.998
16.78000 -0.275
16.80000 -0.371
16.82000 8.280
16.84000 7.865
16.86000 4.649
16.88000 1.947
16.90000 4.358
16.92000 8.068
16.94000 15.197
16.96000 12.075
16.98000 10.817
17.00000 9.427
17.02000 1.847
17.04000 0.431
17.06000 9.801
17.08000 5.575
17.10000 -0.304
17.12000 6.802
17.14000 5.107
17.16000 6.927
17.18000 6.109
17.20000 1.917
17.22000 6.949
17.24000 -2.629
17.26000 3.513
17.28000 3.711
17.30000 1.183
17.32000 0.521
17.34000 3.810
17.36000 6.750
17.38000 16.632
17.40000 10.159
17.42000 2.292
17.44000 10.218
17.46000 13.590
17.48000 13.512
17.50000 9.990
17.52000 7.011
17.54000 1.132
17.56000 -3.271
17.58000 -4.361
17.60000 3.462
17.62000 2.451
17.64000 3.523
17.66000 4.918
17.68000 3.823
17.70000 7.808
17.72000 2.376
17.74000 8.998
17.76000 10.282
17.78000 1.213
17.80000 -0.323
17.82000 1.570
17.84000 -2.335
17.86000 2.810
17.88000 3.926
17.90000 -0.738
17.92000 3.016
17.94000 4.275
17.96000 4.679
17.98000 10.480
18.00000 11.196
18.02000 6.196
18.04000 3.720
18.06000 7.038
18.08000 11.511
18.10000 8.091
18.12000 -0.075
18.14000 6.901
18.16000 12.244
18.18000 9.907
18.20000 5.242
18.22000 5.714
18.24000 5.505
18.26000 5.598
18.28000 7.976
18.30000 5.350
18.32000 1.061
18.34000 2.194
18.36000 3.201
18.38000 3.085
18.40000 5.411
18.42000 5.116
18.44000 5.618
18.46000 5.997
18.48000 11.289
18.50000 10.468
18.52000 5.693
18.54000 4.057
18.56000 3.779
18.58000 1.187
18.60000 0.608
18.62000 2.187
18.64000 0.494
18.66000 3.815
18.68000 -0.537
18.70000 -1.013
18.72000 -0.389
18.74000 2.094
18.76000 -3.106
18.78000 -4.298
18.80000 1.840
18.82000 2.768
18.84000 -0.161
18.86000 4.134
18.88000 17.935
18.90000 5.808
18.92000 -3.685
18.94000 0.540
18.96000 -1.192
18.98000 3.166
19.00000 5.505
19.02000 12.062
19.04000 6.478
19.06000 0.517
19.08000 0.290
19.10000 0.819
19.12000 4.412
19.14000 8.057
19.16000 7.964
19.18000 7.398
19.20000 14.000
19.22000 9.688
19.24000 8.402
19.26000 8.643
19.28000 14.269
19.30000 16.564
19.32000 15.021
19.34000 8.156
19.36000 4.942
19.38000 10.323
19.40000 9.511
19.42000 -2.394
19.44000 -2.004
19.46000 -0.317
19.48000 2.994
19.50000 5.673
19.52000 3.597
19.54000 5.322
19.56000 8.977
19.58000 4.584
19.60000 -4.226
19.62000 2.523
19.64000 8.059
19.66000 13.011
19.68000 11.561
19.70000 8.628
19.72000 6.542
19.74000 5.084
19.76000 6.353
19.78000 10.662
19.80000 15.832
19.82000 16.040
19.84000 11.484
19.86000 6.267
19.88000 6.319
19.90000 4.012
19.92000 9.061
19.94000 6.334
19.96000 1.490
19.98000 1.479
20.00000 5.729
20.02000 10.317
20.04000 7.563
20.06000 7.981
20.08000 3.687
20.10000 10.130
20.12000 11.009
20.14000 4.779
20.16000 -2.409
20.18000 -2.230
20.20000 -0.136
20.22000 1.078
20.24000 7.309
20.26000 1.322
20.28000 -0.459
20.30000 6.209
20.32000 8.549
20.34000 2.581
20.36000 4.124
20.38000 4.844
20.40000 4.971
20.42000 7.381
20.44000 8.314
20.46000 4.912
20.48000 6.231
20.50000 5.595
20.52000 11.331
20.54000 7.130
20.56000 8.085
20.58000 6.899
20.60000 2.351
20.62000 -1.891
20.64000 -0.565
20.66000 -1.909
20.68000 6.838
20.70000 11.186
20.72000 7.145
20.74000 5.871
20.76000 5.126
20.78000 2.262
20.80000 -1.548
20.82000 4.643
20.84000 6.591
20.86000 9.255
20.88000 8.133
20.90000 8.315
20.92000 7.415
20.94000 3.370
20.96000 1.398
20.98000 -4.167
21.00000 -4.166
21.02000 5.161
21.04000 12.366
21.06000 9.271
21.08000 10.024
21.10000 7.811
21.12000 0.366
21.14000 1.010
21.16000 6.783
21.18000 5.785
21.20000 14.852
21.22000 14.541
21.24000 12.020
21.26000 5.981
21.28000 2.459
21.30000 2.182
21.32000 -0.180
21.34000 2.231
21.36000 3.301
21.38000 9.171
21.40000 5.644
21.42000 1.604
21.44000 3.877
21.46000 5.188
21.48000 5.487
21.50000 11.134
21.52000 15.285
21.54000 1.709
21.56000 1.551
21.58000 -2.079
21.60000 -1.653
21.62000 1.427
21.64000 3.633
21.66000 4.977
21.68000 8.312
21.70000 10.665
21.72000 10.284
21.74000 4.848
21.76000 7.706
21.78000 7.393
21.80000 6.857
21.82000 3.705
21.84000 7.705
21.86000 8.509
21.88000 8.464
21.90000 7.021
21.92000 7.545
21.94000 8.958
21.96000 8.841
21.98000 11.993
22.00000 11.337
22.02000 8.237
22.04000 7.705
22.06000 7.385
22.08000 6.556
22.10000 0.668
22.12000 1.187
22.14000 7.413
22.16000 10.732
22.18000 4.912
22.20000 3.689
22.22000 5.359
22.24000 1.432
22.26000 -3.944
22.28000 -4.073
22.30000 0.032
22.32000 3.740
22.34000 8.672
22.36000 6.579
22.38000 7.761
22.40000 9.140
22.42000 4.445
22.44000 -0.635
22.46000 7.218
22.48000 9.166
22.50000 8.244
22.52000 5.191
22.54000 4.325
22.56000 2.277
22.58000 3.546
22.60000 5.585
22.62000 6.699
22.64000 8.176
22.66000 7.416
22.68000 6.061
22.70000 5.849
22.72000 6.406
22.74000 4.593
22.76000 4.954
22.78000 6.855
22.80000 4.828
22.82000 4.672
22.84000 5.560
22.86000 5.174
22.88000 9.647
22.90000 15.301
22.92000 12.887
22.94000 15.370
22.96000 10.928
22.98000 5.853
23.00000 0.141
23.02000 4.758
23.04000 4.004
23.06000 0.895
23.08000 4.955
23.10000 0.726
23.12000 2.347
23.14000 3.384
23.16000 4.564
23.18000 9.587
23.20000 6.956
23.22000 3.834
23.24000 8.679
23.26000 2.184
23.28000 7.614
23.30000 6.026
23.32000 2.480
23.34000 3.916
23.36000 1.399
23.38000 2.706
23.40000 2.279
23.42000 6.762
23.44000 8.868
23.46000 -3.240
23.48000 0.255
23.50000 4.069
23.52000 6.501
23.54000 8.460
23.56000 6.612
23.58000 9.891
23.60000 7.658
23.62000 9.851
23.64000 7.127
23.66000 5.548
23.68000 13.112
23.70000 13.670
23.72000 7.695
23.74000 4.302
23.76000 3.670
23.78000 6.226
23.80000 6.208
23.82000 7.276
23.84000 5.042
23.86000 1.734
23.88000 1.270
23.90000 10.759
23.92000 14.332
23.94000 10.625
23.96000 10.252
23.98000 8.452
24.00000 8.403
24.02000 7.018
24.04000 5.638
24.06000 -2.764
24.08000 -3.992
24.10000 -0.687
24.12000 -0.115
24.14000 -1.565
24.16000 -1.790
24.18000 6.250
24.20000 5.221
24.22000 5.424
24.24000 6.818
24.26000 2.836
24.28000 1.770
24.30000 1.490
24.32000 -0.428
24.34000 2.877
24.36000 3.359
24.38000 -0.908
24.40000 0.019
24.42000 8.499
24.44000 10.333
24.46000 3.385
24.48000 -0.081
24.50000 3.990
24.52000 7.188
24.54000 3.802
24.56000 3.951
24.58000 11.511
24.60000 8.004
24.62000 2.006
24.64000 1.999
24.66000 7.802
24.68000 2.789
24.70000 5.521
24.72000 4.571
24.74000 7.996
24.76000 6.132
24.78000 1.649
24.80000 0.578
24.82000 1.723
24.84000 4.383
24.86000 -3.338
24.88000 3.671
24.90000 3.770
24.92000 3.824
24.94000 8.715
24.96000 6.441
24.98000 6.175
25.00000 1.364
25.02000 -2.155
25.04000 2.214
25.06000 4.738
25.08000 -3.955
25.10000 -2.808
25.12000 1.767
25.14000 -0.432
25.16000 -2.723
25.18000 -0.042
25.20000 0.381
25.22000 1.301
25.24000 4.008
25.26000 5.394
25.28000 8.078
25.30000 9.020
25.32000 5.589
25.34000 -0.702
25.36000 -2.732
25.38000 -1.027
25.40000 0.701
25.42000 -0.193
25.44000 0.855
25.46000 4.407
25.48000 3.263
25.50000 0.313
25.52000 1.839
25.54000 2.465
25.56000 0.862
25.58000 1.091
25.60000 3.226
25.62000 1.069
25.64000 -1.412
25.66000 3.967
25.68000 1.896
25.70000 0.410
25.72000 -1.208
25.74000 0.847
25.76000 1.252
25.78000 0.666
25.80000 -0.197
25.82000 4.561
25.84000 4.595
25.86000 3.756
25.88000 5.044
25.90000 -2.287
25.92000 -0.719
25.94000 5.548
25.96000 2.585
25.98000 -0.762
26.00000 -3.206
26.02000 -3.345
26.04000 -3.408
26.06000 4.899
26.08000 6.570
26.10000 6.255
26.12000 7.152
26.14000 -0.672
26.16000 1.688
26.18000 5.751
26.20000 2.042
26.22000 -3.504
26.24000 0.345
26.26000 4.884
26.28000 4.202
26.30000 4.019
26.32000 4.910
26.34000 4.767
26.36000 2.057
26.38000 -1.091
26.40000 2.204
26.42000 4.767
26.44000 3.845
26.46000 6.199
26.48000 2.942
26.50000 -3.883
26.52000 -0.226
26.54000 5.776
26.56000 7.108
26.58000 1.724
26.60000 0.833
26.62000 -0.668
26.64000 0.564
26.66000 -0.168
26.68000 3.885
26.70000 -1.058
26.72000 0.048
26.74000 4.090
26.76000 2.409
26.78000 -3.874
26.80000 0.534
26.82000 2.879
26.84000 2.844
26.86000 5.153
26.88000 0.628
26.90000 -0.493
26.92000 3.100
26.94000 -1.252
26.96000 2.903
26.98000 3.612
27.00000 8.346
27.02000 4.969
27.04000 5.093
27.06000 6.269
27.08000 5.457
27.10000 3.960
27.12000 7.247
27.14000 2.472
27.16000 3.150
27.18000 9.037
27.20000 7.375
27.22000 3.956
27.24000 5.030
27.26000 1.753
27.28000 2.457
27.30000 1.197
27.32000 0.280
27.34000 4.736
27.36000 1.715
27.38000 1.327
27.40000 -1.735
27.42000 4.751
27.44000 3.830
27.46000 3.131
27.48000 7.515
27.50000 6.677
27.52000 7.863
27.54000 5.813
27.56000 1.946
27.58000 5.837
27.60000 7.218
27.62000 7.551
27.64000 8.920
27.66000 6.362
27.68000 3.082
27.70000 -1.341
27.72000 5.147
27.74000 9.462
27.76000 0.102
27.78000 5.922
27.80000 7.783
27.82000 6.021
27.84000 6.365
27.86000 7.298
27.88000 3.718
27.90000 -2.602
27.92000 5.179
27.94000 5.187
27.96000 2.507
27.98000 4.773
28.00000 8.720
28.02000 5.186
28.04000 1.777
28.06000 2.834
28.08000 -0.810
28.10000 -3.789
28.12000 2.804
28.14000 1.408
28.16000 2.375
28.18000 7.576
28.20000 3.936
28.22000 4.530
28.24000 6.782
28.26000 3.435
28.28000 3.546
28.30000 4.051
28.32000 10.527
28.34000 7.789
28.36000 1.350
28.38000 4.852
28.40000 0.863
28.42000 2.228
28.44000 0.853
28.46000 0.189
28.48000 4.795
28.50000 3.360
28.52000 2.074
28.54000 -3.752
28.56000 -1.309
28.58000 -1.070
28.60000 0.221
28.62000 3.433
28.64000 4.366
28.66000 6.370
28.68000 5.252
28.70000 3.063
28.72000 3.213
28.74000 3.066
28.76000 2.081
28.78000 0.387
28.80000 0.042
28.82000 4.687
28.84000 -0.889
28.86000 -1.170
28.88000 4.604
28.90000 0.192
28.92000 -0.621
28.94000 4.189
28.96000 1.183
28.98000 3.280
29.00000 -3.738
29.02000 3.586
29.04000 9.165
29.06000 7.411
29.08000 4.938
29.10000 5.312
29.12000 7.266
29.14000 4.011
29.16000 2.816
29.18000 3.825
29.20000 5.228
29.22000 6.038
29.24000 1.928
29.26000 -0.159
29.28000 -0.305
29.30000 4.550
29.32000 4.367
29.34000 4.448
29.36000 5.868
29.38000 6.566
29.40000 2.272
29.42000 1.882
29.44000 0.005
29.46000 -3.725
29.48000 -2.289
29.50000 6.695
29.52000 7.884
29.54000 5.472
29.56000 3.568
29.58000 1.679
29.60000 3.408
29.62000 5.957
29.64000 5.315
29.66000 3.209
29.68000 2.413
29.70000 4.751
29.72000 1.015
29.74000 0.112
29.76000 -0.297
29.78000 -2.832
29.80000 0.714
29.82000 3.521
29.84000 3.208
29.86000 2.304
29.88000 4.163
29.90000 4.031
29.92000 2.631
29.94000 0.131
29.96000 3.031
29.98000 2.069
30.00000 -2.599
30.02000 1.336
30.04000 1.610
30.06000 1.547
30.08000 4.320
30.10000 4.640
30.12000 1.842
30.14000 4.940
30.16000 4.112
30.18000 2.551
30.20000 -3.102
30.22000 -1.893
30.24000 2.495
30.26000 7.377
30.28000 1.666
30.30000 -2.883
30.32000 5.397
30.34000 4.112
30.36000 -1.569
30.38000 -0.160
30.40000 0.699
30.42000 -0.686
30.44000 -0.739
30.46000 -1.598
30.48000 0.490
30.50000 3.674
30.52000 4.100
30.54000 0.384
30.56000 -0.106
30.58000 2.069
30.60000 10.473
30.62000 12.648
30.64000 5.113
30.66000 3.254
30.68000 -3.663
30.70000 -0.682
30.72000 6.978
30.74000 7.097
30.76000 5.562
30.78000 1.721
30.80000 -0.765
30.82000 -0.218
30.84000 -2.073
30.86000 -2.536
30.88000 0.984
30.90000 -3.648
30.92000 -0.505
30.94000 6.489
30.96000 5.647
30.98000 3.881
31.00000 5.662
31.02000 5.075
31.04000 7.894
31.06000 3.271
31.08000 2.326
31.10000 -0.820
31.12000 -0.503
31.14000 2.615
31.16000 -2.526
31.18000 -0.252
31.20000 3.196
31.22000 3.795
31.24000 1.894
31.26000 5.938
31.28000 4.413
31.30000 1.974
31.32000 1.610
31.34000 3.898
31.36000 2.679
31.38000 0.998
31.40000 3.757
31.42000 6.933
31.44000 9.304
31.46000 1.121
31.48000 3.129
31.50000 6.301
31.52000 6.256
31.54000 4.237
31.56000 5.478
31.58000 3.100
31.60000 1.646
31.62000 6.969
31.64000 8.730
31.66000 9.908
31.68000 8.630
31.70000 4.047
31.72000 2.372
31.74000 6.135
31.76000 9.398
31.78000 6.556
31.80000 2.318
31.82000 7.055
31.84000 9.989
31.86000 9.110
31.88000 4.379
31.90000 5.253
31.92000 3.396
31.94000 6.739
31.96000 2.284
31.98000 -0.621
32.00000 -1.682
32.02000 1.102
32.04000 3.776
32.06000 2.517
32.08000 6.005
32.10000 4.444
32.12000 4.831
32.14000 5.784
32.16000 0.239
32.18000 4.837
32.20000 5.584
32.22000 9.373
32.24000 8.372
32.26000 13.191
32.28000 15.169
32.30000 12.082
32.32000 8.121
32.34000 2.842
32.36000 2.649
32.38000 4.323
32.40000 -3.547
32.42000 1.287
32.44000 6.153
32.46000 7.627
32.48000 10.308
32.50000 7.683
32.52000 7.003
32.54000 8.305
32.56000 6.417
32.58000 7.413
32.60000 7.269
32.62000 8.377
32.64000 10.218
32.66000 3.714
32.68000 2.562
32.70000 7.829
32.72000 7.472
32.74000 7.615
32.76000 4.792
32.78000 2.043
32.80000 5.660
32.82000 4.669
32.84000 2.824
32.86000 -3.085
32.88000 6.806
32.90000 8.278
32.92000 9.297
32.94000 5.830
32.96000 3.344
32.98000 5.029
33.00000 2.431
33.02000 -0.905
33.04000 4.255
33.06000 2.361
33.08000 2.654
33.10000 9.763
33.12000 16.008
33.14000 8.331
33.16000 3.315
33.18000 4.027
33.20000 3.842
33.22000 -0.766
33.24000 3.058
33.26000 9.669
33.28000 5.978
33.30000 1.089
33.32000 4.859
33.34000 4.818
33.36000 4.778
33.38000 9.490
33.40000 2.708
33.42000 3.160
33.44000 -0.011
33.46000 0.219
33.48000 1.880
33.50000 4.436
33.52000 3.435
33.54000 6.292
33.56000 1.759
33.58000 0.474
33.60000 0.372
33.62000 2.058
33.64000 2.137
33.66000 2.072
33.68000 1.836
33.70000 2.871
33.72000 2.683
33.74000 2.615
33.76000 1.208
33.78000 3.596
33.80000 4.130
33.82000 1.997
33.84000 4.261
33.86000 6.429
33.88000 5.370
33.90000 2.968
33.92000 4.541
33.94000 6.764
33.96000 5.756
33.98000 4.870
34.00000 3.041
34.02000 2.266
34.04000 -0.975
34.06000 -0.489
34.08000 2.875
34.10000 8.789
34.12000 11.679
34.14000 9.942
34.16000 4.839
34.18000 4.761
34.20000 6.874
34.22000 5.687
34.24000 1.834
34.26000 7.017
34.28000 9.305
34.30000 10.686
34.32000 7.660
34.34000 4.812
34.36000 3.416
34.38000 2.258
34.40000 -1.500
34.42000 3.164
34.44000 4.010
34.46000 2.186
34.48000 4.278
34.50000 4.805
34.52000 11.958
34.54000 7.182
34.56000 6.159
34.58000 1.568
34.60000 0.058
34.62000 1.040
34.64000 -0.229
34.66000 3.812
34.68000 1.695
34.70000 3.154
34.72000 1.087
34.74000 -2.575
34.76000 -0.195
34.78000 0.801
34.80000 -1.916
34.82000 -3.511
34.84000 1.781
34.86000 7.668
34.88000 7.044
34.90000 6.424
34.92000 4.130
34.94000 7.016
34.96000 3.073
34.98000 -0.145
35.00000 2.313
35.02000 1.287
35.04000 -1.087
35.06000 3.051
35.08000 4.979
35.10000 5.646
35.12000 1.687
35.14000 -2.999
35.16000 0.618
35.18000 1.222
35.20000 -1.365
35.22000 0.614
35.24000 -0.701
35.26000 -0.417
35.28000 0.779
35.30000 4.228
35.32000 0.190
35.34000 0.714
35.36000 3.744
35.38000 4.250
35.40000 7.127
35.42000 4.182
35.44000 3.220
35.46000 6.659
35.48000 0.544
35.50000 -2.232
35.52000 -1.184
35.54000 1.044
35.56000 2.733
35.58000 3.058
35.60000 3.570
35.62000 3.909
35.64000 0.731
35.66000 2.687
35.68000 4.822
35.70000 3.244
35.72000 4.185
35.74000 -3.343
35.76000 -3.529
35.78000 -2.357
35.80000 3.787
35.82000 0.775
35.84000 2.166
35.86000 3.525
35.88000 3.703
35.90000 5.845
35.92000 1.391
35.94000 1.434
35.96000 0.631
35.98000 4.346
36.00000 1.001
36.02000 -0.561
36.04000 1.893
36.06000 7.276
36.08000 1.958
36.10000 -1.212
36.12000 1.406
36.14000 3.155
36.16000 3.094
36.18000 1.350
36.20000 4.849
36.22000 3.996
36.24000 5.110
36.26000 3.454
36.28000 3.810
36.30000 1.487
36.32000 -0.674
36.34000 0.195
36.36000 0.472
36.38000 5.324
36.40000 3.444
36.42000 2.919
36.44000 -1.765
36.46000 1.549
36.48000 3.483
36.50000 5.763
36.52000 5.387
36.54000 6.773
36.56000 2.207
36.58000 -3.525
36.60000 -0.245
36.62000 2.636
36.64000 2.475
36.66000 2.412
36.68000 1.650
36.70000 1.156
36.72000 3.196
36.74000 3.834
36.76000 1.554
36.78000 3.436
36.80000 3.281
36.82000 2.324
36.84000 -3.546
36.86000 -2.616
36.88000 0.978
36.90000 0.895
36.92000 -0.084
36.94000 2.129
36.96000 5.975
36.98000 5.439
37.00000 4.095
37.02000 3.420
37.04000 5.761
37.06000 7.927
37.08000 5.688
37.10000 4.841
37.12000 7.583
37.14000 6.250
37.16000 0.485
37.18000 2.831
37.20000 4.577
37.22000 -3.571
37.24000 -2.302
37.26000 3.256
37.28000 2.246
37.30000 6.716
37.32000 7.199
37.34000 1.341
37.36000 1.219
37.38000 -0.539
37.40000 -0.182
37.42000 3.051
37.44000 2.852
37.46000 2.062
37.48000 3.337
37.50000 -1.265
37.52000 3.519
37.54000 2.741
37.56000 7.824
37.58000 5.537
37.60000 4.460
37.62000 5.221
37.64000 5.244
37.66000 3.816
37.68000 -0.373
37.70000 0.936
37.72000 -0.451
37.74000 6.133
37.76000 4.872
37.78000 5.306
37.80000 6.674
37.82000 8.473
37.84000 6.489
37.86000 2.723
37.88000 7.646
37.90000 10.047
37.92000 10.569
37.94000 7.171
37.96000 2.474
37.98000 7.061
38.00000 3.547
38.02000 5.522
38.04000 8.704
38.06000 10.253
38.08000 12.439
38.10000 11.909
38.12000 9.154
38.14000 13.863
38.16000 19.079
38.18000 17.782
38.20000 17.026
38.22000 17.806
38.24000 11.867
38.26000 11.099
38.28000 9.857
38.30000 15.769
38.32000 20.141
38.34000 15.903
38.36000 21.342
38.38000 22.641
38.40000 16.866
38.42000 18.125
38.44000 16.538
38.46000 20.022
38.48000 23.756
38.50000 22.202
38.52000 16.051
38.54000 22.808
38.56000 27.402
38.58000 27.618
38.60000 21.861
38.62000 21.063
38.64000 24.849
38.66000 21.906
38.68000 22.646
38.70000 23.018
38.72000 23.113
38.74000 28.603
38.76000 28.307
38.78000 27.584
38.80000 36.167
38.82000 39.190
38.84000 38.483
38.86000 35.039
38.88000 36.020
38.90000 39.659
38.92000 39.722
38.94000 40.654
38.96000 35.510
38.98000 43.440
39.00000 50.681
39.02000 54.482
39.04000 54.096
39.06000 51.412
39.08000 52.436
39.10000 58.806
39.12000 66.354
39.14000 64.550
39.16000 64.818
39.18000 70.518
39.20000 68.714
39.22000 70.566
39.24000 72.978
39.26000 74.276
39.28000 82.767
39.30000 87.784
39.32000 90.626
39.34000 91.820
39.36000 95.810
39.38000 106.490
39.40000 109.760
39.42000 115.706
39.44000 118.409
39.46000 123.912
39.48000 127.601
39.50000 139.448
39.52000 148.011
39.54000 150.106
39.56000 159.957
39.58000 162.158
39.60000 174.298
39.62000 190.338
39.64000 200.610
39.66000 204.922
39.68000 218.537
39.70000 234.681
39.72000 242.200
39.74000 252.657
39.76000 272.151
39.78000 290.875
39.80000 297.625
39.82000 309.183
39.84000 333.147
39.86000 344.938
39.88000 360.474
39.90000 383.110
39.92000 403.970
39.94000 415.430
39.96000 429.956
39.98000 449.420
40.00000 459.445
40.02000 477.676
40.04000 502.910
40.06000 526.172
40.08000 554.354
40.10000 575.863
40.12000 590.364
40.14000 594.395
40.16000 597.012
40.18000 607.924
40.20000 629.052
40.22000 626.128
40.24000 647.181
40.26000 640.593
40.28000 630.516
40.30000 630.646
40.32000 633.919
40.34000 626.810
40.36000 620.885
40.38000 614.779
40.40000 613.519
40.42000 601.446
40.44000 592.866
40.46000 579.473
40.48000 567.660
40.50000 554.936
40.52000 529.890
40.54000 516.211
40.56000 501.626
40.58000 484.341
40.60000 468.234
40.62000 450.271
40.64000 427.255
40.66000 408.522
40.68000 384.740
40.70000 364.059
40.72000 354.660
40.74000 338.067
40.76000 320.564
40.78000 311.152
40.80000 298.701
40.82000 278.035
40.84000 256.576
40.86000 241.166
40.88000 230.675
40.90000 220.318
40.92000 209.151
40.94000 197.022
40.96000 187.310
40.98000 178.113
41.00000 175.120
41.02000 164.348
41.04000 150.997
41.06000 138.466
41.08000 134.417
41.10000 128.371
41.12000 121.455
41.14000 123.462
41.16000 118.495
41.18000 116.266
41.20000 105.234
41.22000 93.422
41.24000 87.312
41.26000 87.001
41.28000 81.697
41.30000 73.936
41.32000 70.351
41.34000 67.709
41.36000 69.836
41.38000 64.336
41.40000 55.797
41.42000 60.308
41.44000 57.116
41.46000 49.365
41.48000 50.284
41.50000 50.547
41.52000 43.999
41.54000 41.986
41.56000 40.045
41.58000 37.971
41.60000 37.846
41.62000 37.529
41.64000 32.477
41.66000 32.164
41.68000 31.959
41.70000 29.064
41.72000 25.995
41.74000 26.355
41.76000 25.253
41.78000 25.866
41.80000 26.156
41.82000 25.125
41.84000 23.120
41.86000 23.034
41.88000 19.497
41.90000 19.379
41.92000 20.313
41.94000 12.070
41.96000 13.329
41.98000 14.633
42.00000 18.398
42.02000 14.140
42.04000 14.131
42.06000 13.515
42.08000 11.292
42.10000 11.710
42.12000 8.611
42.14000 8.724
42.16000 8.279
42.18000 9.643
42.20000 9.805
42.22000 11.221
42.24000 12.735
42.26000 8.980
42.28000 6.290
42.30000 4.373
42.32000 5.708
42.34000 5.642
42.36000 8.707
42.38000 7.339
42.40000 3.436
42.42000 4.688
42.44000 8.295
42.46000 5.383
42.48000 4.329
42.50000 1.444
42.52000 -1.116
42.54000 1.369
42.56000 -0.942
42.58000 2.608
42.60000 5.318
42.62000 2.961
42.64000 -0.357
42.66000 1.150
42.68000 1.476
42.70000 1.921
42.72000 3.200
42.74000 1.774
42.76000 1.744
42.78000 2.991
42.80000 1.480
42.82000 -2.600
42.84000 2.620
42.86000 0.654
42.88000 1.095
42.90000 2.827
42.92000 8.957
42.94000 6.479
42.96000 -0.713
42.98000 -0.314
43.00000 -1.583
43.02000 0.918
43.04000 3.495
43.06000 2.916
43.08000 2.037
43.10000 -0.441
43.12000 -1.813
43.14000 -2.272
43.16000 -0.886
43.18000 0.876
43.20000 7.415
43.22000 2.422
43.24000 -3.419
43.26000 -1.587
43.28000 4.026
43.30000 -0.139
43.32000 2.446
43.34000 3.928
43.36000 3.583
43.38000 6.158
43.40000 7.353
43.42000 4.407
43.44000 5.053
43.46000 5.085
43.48000 1.220
43.50000 -2.471
43.52000 -2.549
43.54000 -0.644
43.56000 0.904
43.58000 1.411
43.60000 -1.398
43.62000 1.940
43.64000 1.137
43.66000 5.031
43.68000 4.107
43.70000 3.104
43.72000 1.927
43.74000 1.412
43.76000 1.477
43.78000 2.326
43.80000 2.034
43.82000 3.997
43.84000 1.174
43.86000 4.327
43.88000 -2.032
43.90000 -3.358
43.92000 -2.584
43.94000 1.012
43.96000 1.713
43.98000 1.831
44.00000 0.480
44.02000 -1.173
44.04000 -1.006
44.06000 -0.360
44.08000 3.121
44.10000 3.589
44.12000 0.097
44.14000 -0.920
44.16000 2.508
44.18000 5.544
44.20000 2.640
44.22000 3.031
44.24000 0.027
44.26000 -0.130
44.28000 0.235
44.30000 -1.012
44.32000 4.648
44.34000 3.644
44.36000 2.689
44.38000 1.360
44.40000 -0.007
44.42000 -2.103
44.44000 2.707
44.46000 2.132
44.48000 -1.362
44.50000 3.552
44.52000 2.702
44.54000 1.425
44.56000 0.501
44.58000 0.276
44.60000 1.080
44.62000 2.031
44.64000 1.355
44.66000 5.487
44.68000 1.193
44.70000 2.330
44.72000 3.403
44.74000 6.719
44.76000 5.544
44.78000 4.888
44.80000 -2.656
44.82000 0.643
44.84000 2.071
44.86000 0.239
44.88000 -3.374
44.90000 -0.944
44.92000 2.558
44.94000 3.139
44.96000 2.030
44.98000 5.218
45.00000 5.548
45.02000 3.225
45.04000 2.424
45.06000 5.756
45.08000 6.674
45.10000 3.553
45.12000 3.765
45.14000 7.703
45.16000 3.538
45.18000 7.214
45.20000 5.715
45.22000 6.750
45.24000 6.712
45.26000 8.736
45.28000 6.643
45.30000 2.274
45.32000 2.098
45.34000 6.622
45.36000 10.420
45.38000 10.163
45.40000 11.529
45.42000 8.784
45.44000 7.363
45.46000 5.891
45.48000 6.950
45.50000 11.615
45.52000 14.170
45.54000 9.773
45.56000 12.021
45.58000 17.180
45.60000 17.858
45.62000 19.474
45.64000 22.498
45.66000 17.583
45.68000 18.582
45.70000 19.278
45.72000 26.085
45.74000 22.443
45.76000 22.852
45.78000 26.815
45.80000 30.508
45.82000 32.746
45.84000 32.321
45.86000 29.854
45.88000 28.571
45.90000 27.608
45.92000 30.844
45.94000 36.170
45.96000 38.036
45.98000 36.824
46.00000 35.715
46.02000 41.588
46.04000 46.253
46.06000 47.376
46.08000 46.316
46.10000 42.786
46.12000 42.571
46.14000 48.441
46.16000 53.724
46.18000 53.561
46.20000 57.859
46.22000 59.355
46.24000 55.588
46.26000 61.819
46.28000 58.382
46.30000 60.546
46.32000 64.749
46.34000 66.455
46.36000 67.959
46.38000 71.033
46.40000 77.045
46.42000 84.649
46.44000 82.108
46.46000 87.587
46.48000 90.924
46.50000 87.171
46.52000 92.210
46.54000 95.323
46.56000 92.548
46.58000 92.048
46.60000 93.362
46.62000 104.625
46.64000 107.566
46.66000 105.175
46.68000 107.805
46.70000 110.281
46.72000 113.564
46.74000 114.484
46.76000 113.705
46.78000 118.001
46.80000 119.411
46.82000 115.653
46.84000 113.908
46.86000 117.084
46.88000 117.569
46.90000 115.278
46.92000 118.302
46.94000 116.589
46.96000 121.558
46.98000 120.574
47.00000 118.496
47.02000 112.721
47.04000 116.276
47.06000 115.845
47.08000 116.393
47.10000 112.926
47.12000 117.759
47.14000 113.337
47.16000 109.812
47.18000 111.613
47.20000 106.563
47.22000 106.676
47.24000 96.820
47.26000 94.212
47.28000 96.463
47.30000 96.879
47.32000 92.674
47.34000 87.699
47.36000 82.934
47.38000 78.418
47.40000 79.984
47.42000 76.384
47.44000 76.377
47.46000 77.173
47.48000 66.802
47.50000 60.591
47.52000 70.183
47.54000 66.613
47.56000 59.190
47.58000 56.430
47.60000 56.658
47.62000 51.035
47.64000 48.444
47.66000 43.102
47.68000 47.877
47.70000 46.498
47.72000 41.831
47.74000 39.886
47.76000 39.419
47.78000 36.478
47.80000 34.512
47.82000 39.756
47.84000 30.530
47.86000 27.448
47.88000 31.650
47.90000 28.841
47.92000 27.133
47.94000 26.239
47.96000 25.561
47.98000 22.719
48.00000 21.649
48.02000 22.633
48.04000 23.456
48.06000 19.438
48.08000 17.830
48.10000 15.502
48.12000 12.390
48.14000 13.574
48.16000 11.239
48.18000 10.779
48.20000 13.647
48.22000 16.048
48.24000 14.537
48.26000 11.244
48.28000 10.055
48.30000 11.567
48.32000 10.818
48.34000 10.728
48.36000 9.591
48.38000 9.871
48.40000 9.256
48.42000 6.774
48.44000 7.455
48.46000 5.239
48.48000 10.379
48.50000 7.426
48.52000 8.618
48.54000 2.657
48.56000 5.582
48.58000 5.658
48.60000 3.766
48.62000 -0.885
48.64000 1.111
48.66000 0.879
48.68000 -1.708
48.70000 -0.174
48.72000 -0.108
48.74000 2.963
48.76000 4.408
48.78000 3.884
48.80000 0.622
48.82000 3.101
48.84000 4.547
48.86000 5.645
48.88000 4.860
48.90000 5.169
48.92000 4.107
48.94000 3.695
48.96000 6.991
48.98000 6.863
49.00000 1.679
49.02000 4.319
49.04000 5.134
49.06000 5.754
49.08000 5.005
49.10000 3.899
49.12000 0.875
49.14000 4.977
49.16000 7.664
49.18000 7.119
49.20000 11.785
49.22000 9.659
49.24000 7.950
49.26000 2.414
49.28000 -2.822
49.30000 -1.205
49.32000 2.078
49.34000 1.901
49.36000 1.781
49.38000 1.176
49.40000 6.076
49.42000 9.589
49.44000 6.526
49.46000 -0.434
49.48000 -0.710
49.50000 3.510
49.52000 4.429
49.54000 4.616
49.56000 2.425
49.58000 1.883
49.60000 2.401
49.62000 7.911
49.64000 7.513
49.66000 6.416
49.68000 7.640
49.70000 7.905
49.72000 0.173
49.74000 -1.977
49.76000 1.884
49.78000 4.744
49.80000 6.006
49.82000 5.207
49.84000 1.068
49.86000 1.482
49.88000 -1.755
49.90000 0.796
49.92000 1.676
49.94000 1.170
49.96000 0.290
49.98000 0.541
50.00000 0.261
50.02000 0.288
50.04000 0.518
50.06000 3.258
50.08000 1.409
50.10000 2.928
50.12000 -0.199
50.14000 0.699
50.16000 2.473
50.18000 3.281
50.20000 2.243
50.22000 -1.526
50.24000 -1.264
50.26000 0.230
50.28000 2.321
50.30000 0.927
50.32000 -1.452
50.34000 -1.840
50.36000 2.239
50.38000 0.798
50.40000 0.852
50.42000 1.840
50.44000 3.086
50.46000 4.893
50.48000 1.542
50.50000 0.371
50.52000 -2.796
50.54000 1.250
50.56000 -1.799
50.58000 0.156
50.60000 -0.550
50.62000 4.299
50.64000 3.385
50.66000 2.791
50.68000 2.827
50.70000 2.117
50.72000 0.628
50.74000 4.309
50.76000 1.359
50.78000 -1.262
50.80000 2.590
50.82000 1.299
50.84000 0.145
50.86000 1.055
50.88000 -0.923
50.90000 1.181
50.92000 1.760
50.94000 -1.698
50.96000 2.179
50.98000 3.666
51.00000 4.393
51.02000 5.227
51.04000 2.234
51.06000 -1.215
51.08000 1.082
51.10000 -2.751
51.12000 -2.515
51.14000 5.190
51.16000 0.549
51.18000 0.277
51.20000 1.415
51.22000 0.280
51.24000 1.141
51.26000 4.677
51.28000 3.062
51.30000 -0.127
51.32000 1.178
51.34000 -1.032
51.36000 -1.218
51.38000 3.796
51.40000 0.566
51.42000 -0.337
51.44000 -1.215
51.46000 -1.687
51.48000 5.756
51.50000 4.633
51.52000 4.362
51.54000 7.469
51.56000 6.108
51.58000 6.597
51.60000 4.537
51.62000 1.973
51.64000 1.416
51.66000 5.917
51.68000 7.233
51.70000 7.234
51.72000 10.114
51.74000 8.685
51.76000 0.041
51.78000 -2.679
51.80000 4.126
51.82000 8.052
51.84000 3.257
51.86000 -2.673
51.88000 1.993
51.90000 5.754
51.92000 6.514
51.94000 10.368
51.96000 5.858
51.98000 4.397
52.00000 2.576
52.02000 3.334
52.04000 5.104
52.06000 6.696
52.08000 5.289
52.10000 -1.258
52.12000 -1.626
52.14000 4.628
52.16000 3.410
52.18000 1.467
52.20000 1.972
52.22000 4.526
52.24000 2.879
52.26000 10.273
52.28000 8.082
52.30000 1.786
52.32000 -1.888
52.34000 2.967
52.36000 5.058
52.38000 3.702
52.40000 -0.325
52.42000 -0.338
52.44000 1.942
52.46000 3.062
52.48000 4.366
52.50000 1.528
52.52000 2.048
52.54000 -0.900
52.56000 -0.423
52.58000 -1.121
52.60000 -1.550
52.62000 3.094
52.64000 4.011
52.66000 2.477
52.68000 5.587
52.70000 6.066
52.72000 5.711
52.74000 6.518
52.76000 1.644
52.78000 -1.745
52.80000 -1.440
52.82000 2.356
52.84000 -2.681
52.86000 -1.518
52.88000 3.399
52.90000 5.005
52.92000 7.633
52.94000 4.374
52.96000 1.609
52.98000 6.507
53.00000 3.214
53.02000 -2.680
53.04000 -0.683
53.06000 3.958
53.08000 1.149
53.10000 2.257
53.12000 2.393
53.14000 3.072
53.16000 2.686
53.18000 3.936
53.20000 5.212
53.22000 1.048
53.24000 0.949
53.26000 0.242
53.28000 2.461
53.30000 0.380
53.32000 2.860
53.34000 4.442
53.36000 4.666
53.38000 3.564
53.40000 -0.109
53.42000 1.600
53.44000 2.166
53.46000 1.340
53.48000 4.332
53.50000 1.996
53.52000 -1.520
53.54000 1.298
53.56000 -0.124
53.58000 -0.205
53.60000 0.353
53.62000 1.402
53.64000 3.181
53.66000 1.605
53.68000 4.731
53.70000 0.216
53.72000 -2.077
53.74000 -1.471
53.76000 0.475
53.78000 -0.842
53.80000 -1.425
53.82000 -0.046
53.84000 -0.409
53.86000 0.435
53.88000 -2.172
53.90000 3.224
53.92000 0.657
53.94000 -0.611
53.96000 4.181
53.98000 8.013
54.00000 1.968
54.02000 -0.094
54.04000 2.968
54.06000 -0.092
54.08000 0.367
54.10000 0.713
54.12000 2.425
54.14000 4.598
54.16000 1.154
54.18000 -0.778
54.20000 0.694
54.22000 2.864
54.24000 3.349
54.26000 4.451
54.28000 4.698
54.30000 -1.106
54.32000 1.073
54.34000 2.293
54.36000 1.903
54.38000 0.832
54.40000 4.441
54.42000 4.298
54.44000 7.366
54.46000 8.488
54.48000 2.202
54.50000 2.230
54.52000 4.056
54.54000 4.113
54.56000 3.912
54.58000 3.487
54.60000 4.601
54.62000 6.662
54.64000 6.015
54.66000 4.465
54.68000 1.546
54.70000 1.607
54.72000 2.716
54.74000 2.915
54.76000 2.923
54.78000 2.046
54.80000 5.459
54.82000 -0.901
54.84000 -2.581
54.86000 1.913
54.88000 4.125
54.90000 0.844
54.92000 0.946
54.94000 2.586
54.96000 6.048
54.98000 4.813
55.00000 8.703
55.02000 8.444
55.04000 8.037
55.06000 5.944
55.08000 3.460
55.10000 5.497
55.12000 5.607
55.14000 5.245
55.16000 3.140
55.18000 4.553
55.20000 1.837
55.22000 0.386
55.24000 2.628
55.26000 2.088
55.28000 -0.433
55.30000 3.415
55.32000 4.549
55.34000 3.110
55.36000 -0.753
55.38000 0.235
55.40000 5.293
55.42000 3.585
55.44000 5.961
55.46000 7.983
55.48000 2.780
55.50000 2.319
55.52000 2.973
55.54000 -0.653
55.56000 1.501
55.58000 7.522
55.60000 3.693
55.62000 5.054
55.64000 4.554
55.66000 1.803
55.68000 -1.222
55.70000 0.026
55.72000 1.850
55.74000 0.106
55.76000 -0.539
55.78000 4.967
55.80000 4.410
55.82000 3.240
55.84000 1.407
55.86000 3.072
55.88000 1.765
55.90000 2.219
55.92000 4.157
55.94000 -0.710
55.96000 -0.385
55.98000 0.287
56.00000 1.582
56.02000 0.215
56.04000 5.068
56.06000 5.328
56.08000 4.097
56.10000 1.485
56.12000 2.317
56.14000 1.809
56.16000 -0.618
56.18000 3.096
56.20000 5.879
56.22000 1.836
56.24000 1.112
56.26000 -1.791
56.28000 3.612
56.30000 5.036
56.32000 2.701
56.34000 2.098
56.36000 1.633
56.38000 -0.795
56.40000 -0.450
56.42000 -0.381
56.44000 2.490
56.46000 2.465
56.48000 -2.158
56.50000 -2.580
56.52000 2.161
56.54000 -0.492
56.56000 -1.758
56.58000 -2.228
56.60000 4.964
56.62000 3.508
56.64000 2.945
56.66000 2.348
56.68000 4.695
56.70000 3.522
56.72000 8.033
56.74000 3.420
56.76000 0.639
56.78000 0.684
56.80000 2.144
56.82000 0.471
56.84000 0.171
56.86000 2.711
56.88000 5.705
56.90000 6.061
56.92000 5.706
56.94000 2.503
56.96000 -1.106
56.98000 -1.807
57.00000 -1.072
57.02000 1.083
57.04000 5.144
57.06000 3.718
57.08000 0.135
57.10000 0.490
57.12000 0.956
57.14000 5.833
57.16000 2.950
57.18000 5.031
57.20000 2.969
57.22000 3.623
57.24000 4.623
57.26000 2.704
57.28000 2.072
57.30000 1.176
57.32000 -0.788
57.34000 2.683
57.36000 2.788
57.38000 3.822
57.40000 5.401
57.42000 5.710
57.44000 8.357
57.46000 5.760
57.48000 6.776
57.50000 2.277
57.52000 4.068
57.54000 8.964
57.56000 7.671
57.58000 3.498
57.60000 3.471
57.62000 2.280
57.64000 3.767
57.66000 7.275
57.68000 2.281
57.70000 -0.093
57.72000 2.038
57.74000 4.161
57.76000 3.760
57.78000 6.009
57.80000 4.566
57.82000 1.144
57.84000 0.188
57.86000 3.150
57.88000 2.214
57.90000 5.342
57.92000 1.868
57.94000 -1.713
57.96000 -2.476
57.98000 3.659
58.00000 3.340
58.02000 6.848
58.04000 11.583
58.06000 7.222
58.08000 5.671
58.10000 4.892
58.12000 4.828
58.14000 4.182
58.16000 -0.413
58.18000 -0.795
58.20000 0.295
58.22000 1.411
58.24000 3.415
58.26000 6.349
58.28000 4.935
58.30000 3.416
58.32000 6.026
58.34000 4.566
58.36000 2.281
58.38000 1.685
58.40000 3.509
58.42000 2.321
58.44000 4.734
58.46000 6.638
58.48000 6.372
58.50000 5.292
58.52000 0.744
58.54000 0.389
58.56000 1.404
58.58000 3.732
58.60000 4.685
58.62000 4.166
58.64000 3.778
58.66000 1.907
58.68000 1.770
58.70000 2.331
58.72000 2.148
58.74000 1.680
58.76000 5.149
58.78000 5.933
58.80000 3.405
58.82000 1.063
58.84000 2.183
58.86000 3.295
58.88000 4.399
58.90000 3.399
58.92000 2.725
58.94000 0.778
58.96000 2.989
58.98000 7.603
59.00000 4.525
59.02000 0.289
59.04000 -2.191
59.06000 0.283
59.08000 1.486
59.10000 3.108
59.12000 3.988
59.14000 1.587
59.16000 0.966
59.18000 2.133
59.20000 -0.893
59.22000 -2.202
59.24000 0.922
59.26000 2.002
59.28000 4.883
59.30000 2.499
59.32000 -0.700
59.34000 1.124
59.36000 2.515
59.38000 0.144
59.40000 1.696
59.42000 1.267
59.44000 -0.997
59.46000 2.903
59.48000 -2.485
59.50000 -0.319
59.52000 1.602
59.54000 -0.682
59.56000 2.569
59.58000 0.904
59.60000 3.182
59.62000 2.730
59.64000 3.834
59.66000 5.492
59.68000 3.366
59.70000 1.150
59.72000 1.057
59.74000 3.154
59.76000 4.236
59.78000 3.204
59.80000 3.586
59.82000 2.262
59.84000 2.371
59.86000 4.405
59.88000 0.891
59.90000 -0.694
59.92000 0.522
59.94000 0.126
59.96000 -0.475
59.98000 1.389
60.00000 5.094
60.02000 0.954
60.04000 0.763
60.06000 0.948
60.08000 1.429
60.10000 -0.290
60.12000 1.087
60.14000 4.097
60.16000 2.945
60.18000 1.384
60.20000 -1.531
60.22000 -1.205
60.24000 1.563
60.26000 1.903
60.28000 3.347
60.30000 1.350
60.32000 0.758
60.34000 -0.769
60.36000 -0.079
60.38000 -2.447
60.40000 1.958
60.42000 5.958
60.44000 2.117
60.46000 -1.104
60.48000 -0.906
60.50000 3.634
60.52000 9.500
60.54000 4.002
60.56000 -2.099
60.58000 -1.218
60.60000 -1.077
60.62000 1.481
60.64000 2.446
60.66000 2.268
60.68000 0.973
60.70000 5.555
60.72000 7.310
60.74000 5.448
60.76000 3.270
60.78000 4.458
60.80000 5.416
60.82000 3.485
60.84000 3.618
60.86000 3.178
60.88000 8.423
60.90000 8.588
60.92000 6.531
60.94000 4.203
60.96000 6.569
60.98000 5.331
61.00000 7.732
61.02000 3.659
61.04000 3.802
61.06000 6.813
61.08000 6.631
61.10000 3.680
61.12000 -2.393
61.14000 -0.590
61.16000 4.747
61.18000 6.331
61.20000 3.550
61.22000 5.958
61.24000 5.841
61.26000 5.656
61.28000 2.992
61.30000 6.527
61.32000 6.433
61.34000 6.659
61.36000 2.994
61.38000 2.994
61.40000 3.318
61.42000 5.502
61.44000 4.923
61.46000 1.963
61.48000 4.517
61.50000 2.765
61.52000 3.121
61.54000 4.349
61.56000 4.493
61.58000 3.842
61.60000 2.805
61.62000 1.382
61.64000 1.614
61.66000 3.844
61.68000 7.033
61.70000 1.690
61.72000 1.097
61.74000 3.359
61.76000 1.176
61.78000 2.774
61.80000 3.683
61.82000 3.714
61.84000 2.126
61.86000 2.345
61.88000 0.770
61.90000 -2.385
61.92000 2.677
61.94000 3.204
61.96000 6.445
61.98000 5.992
62.00000 3.939
62.02000 5.655
62.04000 1.637
62.06000 -0.524
62.08000 2.406
62.10000 0.923
62.12000 2.254
62.14000 5.184
62.16000 5.105
62.18000 3.288
62.20000 -1.545
62.22000 -2.380
62.24000 1.372
62.26000 6.938
62.28000 8.922
62.30000 7.527
62.32000 7.653
62.34000 2.088
62.36000 1.425
62.38000 3.424
62.40000 1.257
62.42000 2.902
62.44000 3.266
62.46000 2.136
62.48000 4.816
62.50000 7.293
62.52000 4.579
62.54000 5.131
62.56000 5.685
62.58000 0.245
62.60000 0.136
62.62000 2.735
62.64000 1.937
62.66000 1.722
62.68000 1.130
62.70000 1.692
62.72000 2.387
62.74000 1.613
62.76000 1.727
62.78000 0.931
62.80000 0.226
62.82000 3.802
62.84000 2.356
62.86000 -1.904
62.88000 1.210
62.90000 1.605
62.92000 2.186
62.94000 -0.497
62.96000 3.802
62.98000 4.290
63.00000 2.054
63.02000 0.706
63.04000 3.604
63.06000 0.957
63.08000 3.527
63.10000 4.220
63.12000 4.756
63.14000 4.378
63.16000 3.772
63.18000 3.638
63.20000 6.282
63.22000 5.415
63.24000 0.241
63.26000 -0.065
63.28000 -0.833
63.30000 -0.336
63.32000 0.981
63.34000 0.378
63.36000 2.302
63.38000 1.705
63.40000 3.873
63.42000 2.215
63.44000 -0.676
63.46000 -0.778
63.48000 2.266
63.50000 2.837
63.52000 4.857
63.54000 5.305
63.56000 6.357
63.58000 4.141
63.60000 2.988
63.62000 -2.401
63.64000 0.225
63.66000 2.886
63.68000 1.732
63.70000 0.068
63.72000 -0.459
63.74000 -0.012
63.76000 0.843
63.78000 1.576
63.80000 0.370
63.82000 -0.085
63.84000 2.672
63.86000 1.682
63.88000 3.713
63.90000 3.342
63.92000 1.788
63.94000 0.538
63.96000 3.709
63.98000 2.912
64.00000 1.493
64.02000 2.196
64.04000 0.156
64.06000 -0.445
64.08000 2.469
64.10000 3.251
64.12000 2.457
64.14000 2.228
64.16000 -1.700
64.18000 -0.722
64.20000 -0.401
64.22000 -0.565
64.24000 0.033
64.26000 0.466
64.28000 0.731
64.30000 2.478
64.32000 2.029
64.34000 1.645
64.36000 0.728
64.38000 -2.413
64.40000 -1.513
64.42000 2.524
64.44000 3.141
64.46000 3.779
64.48000 -0.731
64.50000 0.176
64.52000 2.027
64.54000 1.649
64.56000 1.145
64.58000 -1.130
64.60000 2.812
64.62000 2.826
64.64000 -1.130
64.66000 -1.913
64.68000 -0.383
64.70000 1.925
64.72000 0.649
64.74000 1.820
64.76000 -1.030
64.78000 1.390
64.80000 4.259
64.82000 1.788
64.84000 4.414
64.86000 3.216
64.88000 1.250
64.90000 -0.303
64.92000 1.866
64.94000 1.427
64.96000 0.642
64.98000 0.888
65.00000 2.792
65.02000 3.324
65.04000 5.445
65.06000 6.525
65.08000 3.693
65.10000 2.597
65.12000 4.567
65.14000 4.686
65.16000 2.912
65.18000 -0.122
65.20000 -0.201
65.22000 1.992
65.24000 0.891
65.26000 -0.204
65.28000 -1.199
65.30000 2.627
65.32000 4.604
65.34000 4.973
65.36000 3.314
65.38000 5.238
65.40000 2.062
65.42000 2.790
65.44000 2.269
65.46000 3.228
65.48000 2.482
65.50000 1.932
65.52000 -2.405
65.54000 -0.697
65.56000 0.871
65.58000 1.296
65.60000 4.271
65.62000 1.681
65.64000 6.110
65.66000 6.719
65.68000 4.215
65.70000 2.809
65.72000 1.738
65.74000 2.206
65.76000 1.633
65.78000 -0.135
65.80000 2.376
65.82000 5.258
65.84000 5.637
65.86000 3.755
65.88000 5.575
65.90000 7.721
65.92000 4.399
65.94000 0.307
65.96000 0.041
65.98000 -2.363
66.00000 -1.379
66.02000 -1.098
66.04000 1.354
66.06000 2.007
66.08000 -0.428
66.10000 -2.433
66.12000 -2.196
66.14000 2.873
66.16000 2.753
66.18000 2.880
66.20000 2.435
66.22000 0.796
66.24000 -1.028
66.26000 0.718
66.28000 3.893
66.30000 3.152
66.32000 0.653
66.34000 1.158
66.36000 2.733
66.38000 -1.230
66.40000 2.593
66.42000 4.175
66.44000 1.496
66.46000 3.813
66.48000 3.958
66.50000 5.323
66.52000 5.998
66.54000 5.286
66.56000 7.450
66.58000 3.075
66.60000 2.060
66.62000 2.025
66.64000 4.016
66.66000 6.514
66.68000 3.382
66.70000 5.434
66.72000 6.774
66.74000 4.181
66.76000 4.344
66.78000 5.442
66.80000 2.380
66.82000 -2.445
66.84000 0.929
66.86000 3.944
66.88000 3.902
66.90000 5.422
66.92000 4.803
66.94000 2.416
66.96000 5.442
66.98000 5.290
67.00000 3.376
67.02000 5.758
67.04000 6.672
67.06000 6.361
67.08000 2.998
67.10000 2.776
67.12000 7.285
67.14000 7.707
67.16000 7.854
67.18000 9.694
67.20000 7.441
67.22000 7.001
67.24000 7.524
67.26000 6.628
67.28000 3.482
67.30000 6.541
67.32000 8.921
67.34000 7.867
67.36000 11.055
67.38000 9.881
67.40000 7.388
67.42000 4.556
67.44000 10.444
67.46000 9.842
67.48000 7.538
67.50000 8.776
67.52000 10.499
67.54000 9.799
67.56000 10.818
67.58000 11.670
67.60000 12.643
67.62000 12.627
67.64000 10.110
67.66000 9.664
67.68000 14.428
67.70000 12.603
67.72000 9.036
67.74000 10.486
67.76000 10.763
67.78000 14.776
67.80000 18.458
67.82000 21.331
67.84000 16.315
67.86000 14.805
67.88000 13.389
67.90000 16.426
67.92000 18.186
67.94000 20.242
67.96000 21.376
67.98000 20.568
68.00000 18.178
68.02000 20.982
68.04000 17.432
68.06000 19.766
68.08000 22.627
68.10000 21.285
68.12000 22.237
68.14000 24.867
68.16000 27.776
68.18000 28.064
68.20000 26.529
68.22000 24.331
68.24000 23.123
68.26000 27.135
68.28000 28.777
68.30000 27.854
68.32000 27.074
68.34000 31.789
68.36000 33.589
68.38000 30.273
68.40000 27.762
68.42000 30.036
68.44000 30.595
68.46000 31.205
68.48000 33.334
68.50000 32.128
68.52000 33.612
68.54000 32.479
68.56000 32.969
68.58000 34.547
68.60000 34.121
68.62000 32.086
68.64000 33.624
68.66000 34.700
68.68000 33.072
68.70000 30.279
68.72000 30.762
68.74000 28.240
68.76000 28.559
68.78000 28.309
68.80000 28.059
68.82000 28.334
68.84000 28.576
68.86000 30.757
68.88000 28.562
68.90000 28.168
68.92000 25.241
68.94000 24.010
68.96000 26.657
68.98000 26.524
69.00000 24.140
69.02000 27.854
69.04000 25.976
69.06000 21.259
69.08000 22.305
69.10000 20.644
69.12000 19.428
69.14000 16.975
69.16000 16.871
69.18000 13.739
69.20000 17.345
69.22000 18.757
69.24000 14.729
69.26000 13.739
69.28000 14.195
69.30000 14.451
69.32000 13.380
69.34000 15.464
69.36000 11.011
69.38000 9.692
69.40000 10.241
69.42000 12.688
69.44000 8.619
69.46000 8.878
69.48000 8.624
69.50000 5.763
69.52000 8.555
69.54000 10.435
69.56000 9.872
69.58000 8.770
69.60000 8.227
69.62000 7.427
69.64000 7.674
69.66000 8.828
69.68000 5.567
69.70000 1.626
69.72000 4.286
69.74000 7.549
69.76000 4.057
69.78000 3.674
69.80000 5.022
69.82000 6.652
69.84000 6.359
69.86000 4.763
69.88000 2.713
69.90000 2.340
69.92000 2.513
69.94000 2.989
69.96000 4.367
69.98000 2.167
70.00000 1.660
70.02000 4.469
70.04000 7.011
70.06000 1.361
70.08000 1.103
70.10000 9.369
70.12000 9.028
70.14000 5.828
70.16000 2.993
70.18000 3.117
70.20000 2.808
70.22000 4.115
70.24000 -2.341
70.26000 1.587
70.28000 2.697
70.30000 2.716
70.32000 4.916
70.34000 9.941
70.36000 6.766
70.38000 6.400
70.40000 3.862
70.42000 6.014
70.44000 6.461
70.46000 6.097
70.48000 4.746
70.50000 3.357
70.52000 2.481
70.54000 6.187
70.56000 2.074
70.58000 2.356
70.60000 3.191
70.62000 2.473
70.64000 3.752
70.66000 3.854
70.68000 4.063
70.70000 2.043
70.72000 1.040
70.74000 2.098
70.76000 -0.263
70.78000 -1.005
70.80000 3.634
70.82000 7.623
70.84000 5.648
70.86000 4.123
70.88000 0.968
70.90000 1.720
70.92000 4.566
70.94000 1.234
70.96000 0.607
70.98000 4.518
71.00000 7.720
71.02000 6.388
71.04000 4.458
71.06000 1.362
71.08000 4.603
71.10000 5.575
71.12000 5.769
71.14000 6.947
71.16000 6.066
71.18000 3.664
71.20000 3.788
71.22000 3.075
71.24000 7.865
71.26000 9.389
71.28000 5.465
71.30000 2.561
71.32000 5.324
71.34000 10.182
71.36000 8.137
71.38000 7.781
71.40000 8.099
71.42000 7.963
71.44000 5.043
71.46000 6.379
71.48000 5.893
71.50000 3.452
71.52000 3.026
71.54000 -2.227
71.56000 -0.749
71.58000 3.405
71.60000 7.824
71.62000 6.005
71.64000 5.531
71.66000 7.385
71.68000 4.965
71.70000 5.265
71.72000 4.175
71.74000 6.723
71.76000 8.238
71.78000 6.360
71.80000 6.227
71.82000 7.883
71.84000 4.878
71.86000 3.457
71.88000 6.192
71.90000 4.457
71.92000 3.331
71.94000 3.252
71.96000 0.013
71.98000 3.519
72.00000 5.251
72.02000 6.187
72.04000 8.638
72.06000 8.448
72.08000 5.685
72.10000 4.189
72.12000 4.273
72.14000 4.103
72.16000 4.682
72.18000 5.327
72.20000 2.138
72.22000 2.655
72.24000 6.076
72.26000 3.101
72.28000 4.277
72.30000 -0.534
72.32000 -0.028
72.34000 2.468
72.36000 2.157
72.38000 5.568
72.40000 8.913
72.42000 7.426
72.44000 0.030
72.46000 -0.366
72.48000 4.738
72.50000 4.584
72.52000 4.584
72.54000 5.011
72.56000 3.864
72.58000 4.758
72.60000 2.070
72.62000 3.107
72.64000 0.920
72.66000 3.796
72.68000 2.472
72.70000 0.144
72.72000 -1.811
72.74000 -2.267
72.76000 -2.117
72.78000 0.154
72.80000 2.435
72.82000 3.849
72.84000 3.242
72.86000 -0.356
72.88000 3.447
72.90000 3.976
72.92000 2.561
72.94000 2.344
72.96000 0.333
72.98000 -1.151
73.00000 0.692
73.02000 1.388
73.04000 4.485
73.06000 4.760
73.08000 2.442
73.10000 3.003
73.12000 4.924
73.14000 2.143
73.16000 -0.718
73.18000 1.369
73.20000 0.956
73.22000 4.122
73.24000 2.838
73.26000 1.996
73.28000 4.678
73.30000 2.293
73.32000 3.543
73.34000 2.633
73.36000 3.277
73.38000 2.803
73.40000 0.156
73.42000 6.096
73.44000 7.111
73.46000 5.077
73.48000 0.820
73.50000 -0.390
73.52000 -2.243
73.54000 -1.704
73.56000 0.922
73.58000 2.958
73.60000 4.861
73.62000 0.978
73.64000 0.392
73.66000 0.908
73.68000 4.534
73.70000 2.068
73.72000 -0.246
73.74000 1.273
73.76000 3.866
73.78000 5.422
73.80000 3.071
73.82000 2.118
73.84000 2.133
73.86000 1.105
73.88000 3.888
73.90000 2.818
73.92000 0.769
73.94000 1.808
73.96000 3.937
73.98000 1.496
74.00000 1.488
74.02000 2.611
74.04000 -0.092
74.06000 -0.235
74.08000 4.047
74.10000 1.206
74.12000 4.330
74.14000 -0.596
74.16000 4.332
74.18000 5.720
74.20000 5.824
74.22000 1.521
74.24000 0.967
74.26000 2.703
74.28000 2.757
74.30000 -2.232
74.32000 -0.359
74.34000 3.255
74.36000 0.777
74.38000 3.524
74.40000 1.905
74.42000 1.551
74.44000 2.256
74.46000 0.293
74.48000 -0.838
74.50000 0.398
74.52000 2.694
74.54000 1.611
74.56000 -0.378
74.58000 4.089
74.60000 5.515
74.62000 1.436
74.64000 0.563
74.66000 7.578
74.68000 8.182
74.70000 3.865
74.72000 2.278
74.74000 2.284
74.76000 3.383
74.78000 3.696
74.80000 0.949
74.82000 -0.505
74.84000 -1.712
74.86000 -2.228
74.88000 -0.750
74.90000 -0.962
74.92000 0.452
74.94000 2.213
74.96000 4.343
74.98000 2.338
75.00000 3.380
75.02000 4.364
75.04000 4.793
75.06000 0.891
75.08000 -0.129
75.10000 4.523
75.12000 1.347
75.14000 -2.155
75.16000 2.981
75.18000 5.602
75.20000 5.950
75.22000 2.491
75.24000 4.877
75.26000 1.251
75.28000 2.530
75.30000 4.901
75.32000 3.490
75.34000 4.900
75.36000 2.976
75.38000 1.483
75.40000 2.674
75.42000 4.748
75.44000 3.403
75.46000 3.088
75.48000 6.376
75.50000 3.893
75.52000 2.879
75.54000 2.555
75.56000 0.699
75.58000 -2.213
75.60000 0.247
75.62000 2.989
75.64000 5.826
75.66000 1.264
75.68000 -0.421
75.70000 1.498
75.72000 9.367
75.74000 10.127
75.76000 5.339
75.78000 4.877
75.80000 2.801
75.82000 6.365
75.84000 4.652
75.86000 3.772
75.88000 5.311
75.90000 9.093
75.92000 7.781
75.94000 6.133
75.96000 4.507
75.98000 1.357
76.00000 1.117
76.02000 3.823
76.04000 4.206
76.06000 3.323
76.08000 4.084
76.10000 0.440
76.12000 0.735
76.14000 6.631
76.16000 6.142
76.18000 2.259
76.20000 4.305
76.22000 4.815
76.24000 3.671
76.26000 1.620
76.28000 2.734
76.30000 2.595
76.32000 -1.469
76.34000 3.252
76.36000 5.183
76.38000 2.148
76.40000 3.439
76.42000 6.713
76.44000 7.936
76.46000 3.966
76.48000 3.462
76.50000 2.947
76.52000 -0.695
76.54000 2.337
76.56000 3.563
76.58000 2.507
76.60000 1.802
76.62000 1.683
76.64000 3.021
76.66000 4.717
76.68000 4.711
76.70000 4.857
76.72000 6.192
76.74000 4.587
76.76000 8.291
76.78000 4.302
76.80000 1.969
76.82000 3.405
76.84000 6.710
76.86000 1.792
76.88000 1.577
76.90000 4.095
76.92000 2.782
76.94000 2.217
76.96000 0.865
76.98000 1.836
77.00000 -0.154
77.02000 -2.223
77.04000 -1.169
77.06000 1.372
77.08000 0.500
77.10000 3.020
77.12000 3.132
77.14000 3.522
77.16000 1.807
77.18000 2.032
77.20000 3.276
77.22000 4.796
77.24000 5.344
77.26000 2.703
77.28000 2.559
77.30000 0.573
77.32000 -1.504
77.34000 -2.249
77.36000 -1.281
77.38000 1.718
77.40000 6.383
77.42000 4.648
77.44000 3.030
77.46000 3.819
77.48000 3.263
77.50000 4.013
77.52000 2.942
77.54000 1.718
77.56000 1.582
77.58000 2.111
77.60000 3.134
77.62000 1.628
77.64000 -0.761
77.66000 2.302
77.68000 1.030
77.70000 0.493
77.72000 1.863
77.74000 1.300
77.76000 4.290
77.78000 3.603
77.80000 4.204
77.82000 6.316
77.84000 2.040
77.86000 2.509
77.88000 5.332
77.90000 5.568
77.92000 8.468
77.94000 5.334
77.96000 1.539
77.98000 0.308
78.00000 0.936
78.02000 3.527
78.04000 0.871
78.06000 4.006
78.08000 5.514
78.10000 5.549
78.12000 2.340
78.14000 4.586
78.16000 2.028
78.18000 2.243
78.20000 3.904
78.22000 2.648
78.24000 6.545
78.26000 4.669
78.28000 3.344
78.30000 3.528
78.32000 1.404
78.34000 -0.974
78.36000 1.801
78.38000 4.671
78.40000 3.282
78.42000 1.069
78.44000 0.423
78.46000 2.801
78.48000 1.806
78.50000 3.086
78.52000 5.093
78.54000 1.010
78.56000 -1.136
78.58000 4.161
78.60000 1.484
78.62000 -2.285
78.64000 -1.857
78.66000 4.871
78.68000 5.703
78.70000 0.676
78.72000 6.430
78.74000 5.458
78.76000 0.944
78.78000 -0.508
78.80000 3.382
78.82000 6.779
78.84000 1.328
78.86000 1.655
78.88000 4.189
78.90000 1.412
78.92000 5.377
78.94000 6.900
78.96000 5.627
78.98000 3.174
79.00000 4.696
79.02000 1.940
79.04000 -0.376
79.06000 1.213
79.08000 2.229
79.10000 3.120
79.12000 4.910
79.14000 0.902
79.16000 -1.349
79.18000 0.339
79.20000 4.152
79.22000 4.624
79.24000 2.744
79.26000 3.028
79.28000 0.126
79.30000 1.202
79.32000 2.924
79.34000 1.876
79.36000 -1.627
79.38000 1.270
79.40000 -0.813
79.42000 -1.860
79.44000 -2.313
79.46000 1.146
79.48000 4.565
79.50000 2.429
79.52000 5.721
79.54000 1.556
79.56000 1.723
79.58000 2.339
79.60000 1.765
79.62000 3.580
79.64000 5.392
79.66000 3.936
79.68000 3.866
79.70000 2.882
79.72000 -0.514
79.74000 2.000
79.76000 1.355
79.78000 3.237
79.80000 4.794
79.82000 1.754
79.84000 1.778
79.86000 1.722
79.88000 2.248
79.90000 1.021
79.92000 -0.131
79.94000 2.265
79.96000 1.558
79.98000 2.069
80.00000 1.533
80.02000 2.432
80.04000 3.417
80.06000 1.316
80.08000 2.336
80.10000 4.811
80.12000 2.589
80.14000 -0.033
80.16000 1.326
80.18000 -0.761
80.20000 0.425
80.22000 -2.377
80.24000 -1.540
80.26000 1.403
80.28000 1.107
80.30000 2.678
80.32000 6.378
80.34000 6.029
80.36000 3.618
80.38000 1.534
80.40000 1.163
80.42000 -1.140
80.44000 -0.109
80.46000 1.315
80.48000 0.096
80.50000 0.158
80.52000 -0.891
80.54000 -0.024
80.56000 -1.839
80.58000 -2.368
80.60000 1.166
80.62000 1.069
80.64000 -2.438
80.66000 -0.882
80.68000 -0.171
80.70000 -0.631
80.72000 0.479
80.74000 2.890
80.76000 1.017
80.78000 0.029
80.80000 6.036
80.82000 4.600
80.84000 1.519
80.86000 3.553
80.88000 2.922
80.90000 2.138
80.92000 -0.389
80.94000 0.368
80.96000 -0.326
80.98000 0.603
81.00000 3.433
81.02000 0.920
81.04000 -1.325
81.06000 3.566
81.08000 0.839
81.10000 -1.044
81.12000 1.086
81.14000 6.230
81.16000 5.345
81.18000 0.690
81.20000 -0.018
81.22000 0.558
81.24000 0.920
81.26000 2.975
81.28000 6.762
81.30000 6.975
81.32000 3.790
81.34000 0.399
81.36000 2.839
81.38000 5.989
81.40000 3.798
81.42000 7.251
81.44000 5.324
81.46000 5.087
81.48000 5.888
81.50000 7.913
81.52000 6.705
81.54000 7.423
81.56000 10.268
81.58000 8.417
81.60000 12.413
81.62000 10.809
81.64000 8.655
81.66000 13.019
81.68000 13.905
81.70000 14.567
81.72000 11.716
81.74000 12.363
81.76000 10.213
81.78000 14.941
81.80000 10.300
81.82000 12.728
81.84000 7.020
81.86000 8.572
81.88000 9.487
81.90000 10.980
81.92000 16.186
81.94000 14.215
81.96000 12.843
81.98000 15.527
82.00000 20.972
82.02000 26.034
82.04000 21.191
82.06000 22.864
82.08000 24.343
82.10000 18.330
82.12000 17.523
82.14000 20.718
82.16000 19.436
82.18000 24.369
82.20000 19.216
82.22000 21.283
82.24000 21.877
82.26000 25.369
82.28000 28.469
82.30000 31.220
82.32000 28.918
82.34000 25.467
82.36000 27.402
82.38000 24.686
82.40000 28.260
82.42000 33.860
82.44000 34.647
82.46000 32.088
82.48000 29.024
82.50000 31.754
82.52000 38.346
82.54000 30.505
82.56000 29.523
82.58000 34.300
82.60000 34.619
82.62000 36.880
82.64000 34.256
82.66000 30.684
82.68000 32.397
82.70000 31.550
82.72000 34.917
82.74000 35.822
82.76000 35.572
82.78000 34.712
82.80000 37.836
82.82000 36.107
82.84000 34.590
82.86000 27.802
82.88000 28.386
82.90000 29.638
82.92000 26.124
82.94000 26.043
82.96000 29.016
82.98000 31.330
83.00000 25.292
83.02000 30.380
83.04000 33.321
83.06000 33.413
83.08000 27.301
83.10000 24.046
83.12000 22.700
83.14000 27.074
83.16000 29.392
83.18000 29.253
83.20000 30.813
83.22000 25.891
83.24000 24.931
83.26000 23.159
83.28000 22.658
83.30000 24.362
83.32000 22.613
83.34000 20.803
83.36000 19.681
83.38000 18.798
83.40000 15.724
83.42000 17.923
83.44000 18.180
83.46000 16.793
83.48000 13.902
83.50000 12.075
83.52000 12.802
83.54000 13.237
83.56000 12.614
83.58000 11.686
83.60000 12.743
83.62000 12.800
83.64000 10.353
83.66000 12.326
83.68000 13.843
83.70000 13.980
83.72000 13.079
83.74000 12.911
83.76000 7.293
83.78000 6.740
83.80000 6.930
83.82000 7.363
83.84000 9.281
83.86000 7.814
83.88000 6.826
83.90000 4.538
83.92000 8.985
83.94000 7.132
83.96000 5.439
83.98000 5.630
84.00000 2.566
84.02000 3.768
84.04000 2.109
84.06000 5.194
84.08000 5.745
84.10000 5.890
84.12000 6.719
84.14000 2.256
84.16000 -1.264
84.18000 -1.047
84.20000 -0.901
84.22000 -0.184
84.24000 0.543
84.26000 1.495
84.28000 2.712
84.30000 2.792
84.32000 3.130
84.34000 4.981
84.36000 1.461
84.38000 2.133
84.40000 1.578
84.42000 -0.398
84.44000 -0.602
84.46000 2.611
84.48000 3.542
84.50000 2.807
84.52000 5.231
84.54000 8.389
84.56000 4.519
84.58000 2.267
84.60000 1.253
84.62000 0.508
84.64000 -2.074
84.66000 -0.074
84.68000 1.001
84.70000 0.667
84.72000 -2.119
84.74000 0.025
84.76000 1.676
84.78000 -0.517
84.80000 -2.360
84.82000 0.144
84.84000 0.581
84.86000 3.617
84.88000 1.461
84.90000 4.204
84.92000 4.422
84.94000 4.151
84.96000 1.306
84.98000 4.293
85.00000 0.917
85.02000 0.575
85.04000 0.534
85.06000 1.719
85.08000 0.782
85.10000 2.990
85.12000 4.549
85.14000 1.725
85.16000 0.998
85.18000 0.277
85.20000 -0.330
85.22000 -2.077
85.24000 3.159
85.26000 5.080
85.28000 6.083
85.30000 11.818
85.32000 9.149
85.34000 4.089
85.36000 3.533
85.38000 0.571
85.40000 0.879
85.42000 4.925
85.44000 6.729
85.46000 -0.130
85.48000 -1.721
85.50000 -2.319
85.52000 -1.331
85.54000 0.332
85.56000 4.896
85.58000 7.292
85.60000 5.642
85.62000 5.198
85.64000 5.922
85.66000 2.689
85.68000 -0.333
85.70000 -2.320
85.72000 -0.833
85.74000 1.500
85.76000 3.425
85.78000 4.736
85.80000 1.306
85.82000 6.377
85.84000 10.966
85.86000 8.187
85.88000 4.302
85.90000 5.531
85.92000 4.104
85.94000 3.166
85.96000 3.135
85.98000 3.989
86.00000 4.872
86.02000 5.874
86.04000 6.503
86.06000 1.809
86.08000 -0.328
86.10000 0.580
86.12000 2.907
86.14000 4.012
86.16000 3.467
86.18000 6.986
86.20000 3.691
86.22000 4.444
86.24000 5.137
86.26000 3.460
86.28000 6.023
86.30000 7.417
86.32000 6.387
86.34000 7.626
86.36000 11.835
86.38000 14.509
86.40000 12.454
86.42000 12.403
86.44000 10.095
86.46000 9.023
86.48000 14.116
86.50000 12.144
86.52000 10.165
86.54000 8.783
86.56000 10.594
86.58000 16.807
86.60000 17.739
86.62000 16.523
86.64000 16.341
86.66000 10.279
86.68000 11.948
86.70000 13.969
86.72000 23.457
86.74000 28.409
86.76000 18.276
86.78000 16.808
86.80000 19.426
86.82000 17.146
86.84000 16.884
86.86000 17.422
86.88000 13.422
86.90000 14.929
86.92000 17.776
86.94000 19.380
86.96000 22.421
86.98000 25.869
87.00000 28.068
87.02000 25.876
87.04000 25.409
87.06000 21.431
87.08000 19.545
87.10000 16.379
87.12000 16.771
87.14000 17.628
87.16000 17.105
87.18000 18.744
87.20000 19.849
87.22000 22.717
87.24000 20.715
87.26000 14.127
87.28000 11.586
87.30000 17.141
87.32000 17.102
87.34000 14.342
87.36000 10.930
87.38000 11.103
87.40000 19.545
87.42000 18.950
87.44000 14.202
87.46000 18.017
87.48000 16.333
87.50000 14.581
87.52000 14.817
87.54000 12.657
87.56000 12.069
87.58000 11.819
87.60000 10.148
87.62000 12.517
87.64000 14.483
87.66000 11.995
87.68000 11.588
87.70000 12.086
87.72000 7.812
87.74000 13.496
87.76000 12.140
87.78000 11.478
87.80000 6.112
87.82000 3.444
87.84000 1.707
87.86000 3.288
87.88000 0.578
87.90000 7.876
87.92000 12.151
87.94000 8.096
87.96000 7.967
87.98000 7.615
88.00000 8.183
88.02000 3.761
88.04000 3.841
88.06000 8.309
88.08000 6.127
88.10000 -0.055
88.12000 1.417
88.14000 3.929
88.16000 2.547
88.18000 3.081
88.20000 2.165
88.22000 1.032
88.24000 -0.975
88.26000 1.320
88.28000 1.215
88.30000 4.613
88.32000 2.281
88.34000 1.560
88.36000 7.238
88.38000 4.930
88.40000 7.392
88.42000 9.479
88.44000 7.245
88.46000 4.939
88.48000 0.642
88.50000 0.755
88.52000 2.339
88.54000 7.726
88.56000 5.004
88.58000 -1.269
88.60000 -2.209
88.62000 0.421
88.64000 -0.694
88.66000 3.206
88.68000 2.503
88.70000 1.269
88.72000 1.602
88.74000 2.710
88.76000 4.005
88.78000 3.464
88.80000 4.375
88.82000 2.466
88.84000 4.234
88.86000 4.251
88.88000 6.136
88.90000 8.912
88.92000 5.001
88.94000 3.166
88.96000 0.737
88.98000 4.817
89.00000 8.554
89.02000 7.340
89.04000 6.369
89.06000 5.639
89.08000 2.114
89.10000 -2.133
89.12000 -1.634
89.14000 4.250
89.16000 7.392
89.18000 2.706
89.20000 1.571
89.22000 1.495
89.24000 0.724
89.26000 1.376
89.28000 5.098
89.30000 1.243
89.32000 3.767
89.34000 -0.321
89.36000 2.678
89.38000 5.229
89.40000 5.127
89.42000 1.855
89.44000 3.801
89.46000 7.745
89.48000 3.666
89.50000 2.885
89.52000 -0.768
89.54000 2.844
89.56000 -0.312
89.58000 0.487
89.60000 2.721
89.62000 0.662
89.64000 -1.073
89.66000 0.397
89.68000 0.515
89.70000 0.718
89.72000 4.514
89.74000 3.391
89.76000 4.562
89.78000 4.238
89.80000 3.160
89.82000 5.532
89.84000 -2.045
89.86000 -1.530
89.88000 1.788
89.90000 3.004
89.92000 4.223
89.94000 3.423
89.96000 4.676
89.98000 4.280
90.00000 2.210
90.02000 1.676
90.04000 2.146
90.06000 2.113
90.08000 2.694
90.10000 5.158
90.12000 2.523
90.14000 1.174
90.16000 2.979
90.18000 -1.717
90.20000 2.743
90.22000 2.842
90.24000 -0.551
90.26000 -0.723
90.28000 4.384
90.30000 5.229
90.32000 1.141
90.34000 1.065
90.36000 0.257
90.38000 4.217
90.40000 4.938
90.42000 3.924
90.44000 2.357
90.46000 1.947
90.48000 3.679
90.50000 3.447
90.52000 -2.093
90.54000 -2.016
90.56000 3.229
90.58000 9.037
90.60000 10.821
90.62000 -0.083
90.64000 -1.219
90.66000 1.591
90.68000 3.680
90.70000 1.408
90.72000 1.778
90.74000 6.438
90.76000 6.670
90.78000 7.499
90.80000 4.522
90.82000 4.399
90.84000 0.896
90.86000 1.651
90.88000 6.090
90.90000 4.347
90.92000 1.838
90.94000 3.691
90.96000 3.226
90.98000 4.935
91.00000 8.030
91.02000 5.721
91.04000 3.732
91.06000 3.154
91.08000 5.706
91.10000 5.111
91.12000 0.695
91.14000 4.409
91.16000 3.236
91.18000 5.109
91.20000 3.192
91.22000 3.355
91.24000 3.949
91.26000 6.411
91.28000 4.372
91.30000 6.232
91.32000 4.098
91.34000 7.162
91.36000 3.401
91.38000 6.355
91.40000 5.856
91.42000 3.572
91.44000 3.567
91.46000 1.756
91.48000 3.819
91.50000 6.870
91.52000 6.860
91.54000 4.092
91.56000 1.220
91.58000 2.790
91.60000 2.873
91.62000 2.144
91.64000 5.922
91.66000 4.478
91.68000 5.500
91.70000 8.239
91.72000 7.099
91.74000 3.865
91.76000 -2.053
91.78000 0.339
91.80000 7.842
91.82000 8.535
91.84000 6.694
91.86000 2.532
91.88000 2.573
91.90000 7.887
91.92000 3.790
91.94000 1.794
91.96000 6.111
91.98000 4.752
92.00000 7.552
92.02000 8.547
92.04000 5.760
92.06000 2.452
92.08000 5.472
92.10000 3.038
92.12000 1.784
92.14000 2.799
92.16000 2.445
92.18000 6.692
92.20000 4.417
92.22000 6.849
92.24000 7.278
92.26000 7.257
92.28000 3.398
92.30000 5.020
92.32000 5.317
92.34000 4.809
92.36000 3.218
92.38000 3.547
92.40000 4.940
92.42000 3.774
92.44000 1.473
92.46000 1.571
92.48000 0.225
92.50000 0.291
92.52000 4.457
92.54000 3.262
92.56000 2.311
92.58000 2.059
92.60000 3.470
92.62000 3.379
92.64000 0.355
92.66000 -0.028
92.68000 -0.105
92.70000 -1.366
92.72000 1.130
92.74000 1.695
92.76000 1.496
92.78000 4.884
92.80000 1.146
92.82000 1.364
92.84000 -0.359
92.86000 0.494
92.88000 3.865
92.90000 4.689
92.92000 -0.585
92.94000 -0.251
92.96000 1.570
92.98000 5.347
93.00000 2.881
93.02000 0.350
93.04000 -0.314
93.06000 1.029
93.08000 0.041
93.10000 0.509
93.12000 -0.094
93.14000 0.371
93.16000 -1.555
93.18000 -0.294
93.20000 3.787
93.22000 4.367
93.24000 2.683
93.26000 2.535
93.28000 -0.999
93.30000 0.847
93.32000 1.617
93.34000 0.598
93.36000 -2.023
93.38000 -0.940
93.40000 1.718
93.42000 5.292
93.44000 4.946
93.46000 3.576
93.48000 2.159
93.50000 1.387
93.52000 4.529
93.54000 1.629
93.56000 2.770
93.58000 1.871
93.60000 0.737
93.62000 3.420
93.64000 7.491
93.66000 2.610
93.68000 -1.005
93.70000 -1.097
93.72000 6.063
93.74000 8.710
93.76000 6.830
93.78000 1.455
93.80000 2.370
93.82000 6.635
93.84000 1.130
93.86000 2.423
93.88000 4.759
93.90000 2.733
93.92000 0.935
93.94000 0.878
93.96000 1.031
93.98000 3.516
94.00000 4.288
94.02000 3.074
94.04000 5.258
94.06000 2.667
94.08000 2.840
94.10000 4.171
94.12000 7.214
94.14000 2.029
94.16000 0.967
94.18000 1.774
94.20000 4.867
94.22000 7.238
94.24000 5.235
94.26000 5.060
94.28000 4.703
94.30000 5.669
94.32000 2.921
94.34000 3.860
94.36000 6.220
94.38000 5.157
94.40000 2.978
94.42000 0.313
94.44000 -2.096
94.46000 3.454
94.48000 6.805
94.50000 6.307
94.52000 1.415
94.54000 2.586
94.56000 4.755
94.58000 5.024
94.60000 8.614
94.62000 6.531
94.64000 5.773
94.66000 6.252
94.68000 2.457
94.70000 -0.286
94.72000 1.591
94.74000 5.558
94.76000 6.118
94.78000 5.796
94.80000 8.558
94.82000 4.420
94.84000 2.918
94.86000 3.365
94.88000 0.072
94.90000 4.201
94.92000 4.073
94.94000 3.170
94.96000 2.759
94.98000 3.468
95.00000 4.645
95.02000 3.586
95.04000 2.237
95.06000 2.181
95.08000 2.689
95.10000 3.542
95.12000 4.810
95.14000 0.379
95.16000 -1.272
95.18000 1.838
95.20000 3.966
95.22000 3.764
95.24000 3.080
95.26000 2.267
95.28000 4.172
95.30000 0.753
95.32000 -1.761
95.34000 6.136
95.36000 4.875
95.38000 2.995
95.40000 3.373
95.42000 5.495
95.44000 2.442
95.46000 4.654
95.48000 8.759
95.50000 4.246
95.52000 6.089
95.54000 6.226
95.56000 7.478
95.58000 0.080
95.60000 -1.265
95.62000 2.202
95.64000 0.486
95.66000 2.560
95.68000 2.075
95.70000 3.341
95.72000 4.110
95.74000 1.897
95.76000 4.742
95.78000 7.382
95.80000 1.671
95.82000 0.468
95.84000 5.716
95.86000 9.833
95.88000 9.644
95.90000 8.667
95.92000 3.384
95.94000 1.673
95.96000 3.837
95.98000 3.164
96.00000 5.905
96.02000 7.989
96.04000 3.369
96.06000 2.950
96.08000 4.693
96.10000 0.630
96.12000 1.676
96.14000 4.250
96.16000 2.631
96.18000 7.885
96.20000 6.269
96.22000 9.056
96.24000 7.589
96.26000 6.726
96.28000 11.038
96.30000 10.584
96.32000 7.835
96.34000 4.184
96.36000 8.861
96.38000 1.605
96.40000 2.288
96.42000 2.269
96.44000 8.740
96.46000 8.151
96.48000 9.380
96.50000 15.239
96.52000 15.163
96.54000 12.204
96.56000 7.662
96.58000 7.670
96.60000 7.253
96.62000 7.775
96.64000 4.888
96.66000 3.739
96.68000 7.707
96.70000 11.489
96.72000 15.765
96.74000 15.096
96.76000 11.136
96.78000 10.284
96.80000 12.410
96.82000 5.241
96.84000 3.692
96.86000 8.419
96.88000 0.525
96.90000 3.042
96.92000 -2.026
96.94000 2.407
96.96000 7.099
96.98000 10.205
97.00000 8.457
97.02000 10.088
97.04000 8.128
97.06000 8.294
97.08000 11.251
97.10000 12.475
97.12000 10.219
97.14000 10.264
97.16000 6.460
97.18000 11.933
97.20000 11.016
97.22000 7.221
97.24000 5.018
97.26000 9.266
97.28000 4.283
97.30000 8.188
97.32000 10.137
97.34000 10.578
97.36000 10.038
97.38000 11.387
97.40000 10.973
97.42000 9.786
97.44000 8.842
97.46000 7.680
97.48000 4.479
97.50000 5.891
97.52000 6.721
97.54000 7.908
97.56000 11.606
97.58000 14.810
97.60000 8.388
97.62000 3.192
97.64000 4.541
97.66000 5.410
97.68000 13.051
97.70000 19.392
97.72000 15.175
97.74000 7.967
97.76000 4.647
97.78000 9.136
97.80000 6.896
97.82000 4.262
97.84000 4.987
97.86000 3.649
97.88000 7.235
97.90000 9.472
97.92000 7.690
97.94000 12.508
97.96000 8.396
97.98000 2.716
98.00000 4.142
98.02000 5.830
98.04000 7.247
98.06000 5.588
98.08000 3.950
98.10000 3.721
98.12000 8.572
98.14000 6.239
98.16000 5.566
98.18000 4.252
98.20000 4.711
98.22000 -0.240
98.24000 -1.700
98.26000 2.420
98.28000 2.233
98.30000 8.423
98.32000 8.275
98.34000 10.280
98.36000 3.887
98.38000 5.776
98.40000 4.946
98.42000 9.602
98.44000 3.401
98.46000 1.822
98.48000 5.079
98.50000 6.639
98.52000 4.796
98.54000 8.559
98.56000 8.190
98.58000 8.592
98.60000 9.500
98.62000 9.316
98.64000 6.039
98.66000 6.012
98.68000 7.501
98.70000 -1.351
98.72000 0.956
98.74000 3.115
98.76000 4.794
98.78000 13.485
98.80000 13.120
98.82000 5.957
98.84000 8.486
98.86000 9.236
98.88000 13.816
98.90000 20.511
98.92000 10.323
98.94000 7.392
98.96000 15.792
98.98000 10.664
99.00000 0.145
99.02000 6.561
99.04000 8.194
99.06000 10.264
99.08000 9.628
99.10000 4.617
99.12000 -1.976
99.14000 4.030
99.16000 8.807
99.18000 7.794
99.20000 12.990
99.22000 20.110
99.24000 11.642
99.26000 8.657
99.28000 2.465
99.30000 2.001
99.32000 11.705
99.34000 13.912
99.36000 14.614
99.38000 9.300
99.40000 5.689
99.42000 6.357
99.44000 0.760
99.46000 5.696
99.48000 11.423
99.50000 13.001
99.52000 14.222
99.54000 8.039
99.56000 2.422
99.58000 1.717
99.60000 3.489
99.62000 2.069
99.64000 -2.029
99.66000 -1.234
99.68000 1.210
99.70000 1.176
99.72000 0.175
99.74000 4.654
99.76000 6.160
99.78000 9.031
99.80000 1.106
99.82000 1.014
99.84000 5.177
99.86000 -2.962
99.88000 5.288
99.90000 5.763
99.92000 6.516
99.94000 11.579
99.96000 11.771
99.98000 0.000
