'Id: "0011387" Comment: "Integrate frame 0011387_Au-Ir-Rh_Rh-rich_XRD-Mapping-224-0000.gfrmwith cursor Wedge Cursor #5" Operator: "B?rgel" Anode: "Cu" Wavelength: "1.5406" Scantype: "2Theta (TwoTheta)" TimePerStep: "1" X: "-27" Y: "13.5" Z: "5.95" 
10.00000 0.000
10.02000 5.751
10.04000 21.003
10.06000 10.899
10.08000 6.393
10.10000 26.032
10.12000 8.015
10.14000 9.893
10.16000 32.086
10.18000 14.280
10.20000 11.863
10.22000 13.015
10.24000 17.279
10.26000 21.353
10.28000 23.671
10.30000 14.523
10.32000 10.336
10.34000 -0.505
10.36000 14.791
10.38000 -3.310
10.40000 -4.458
10.42000 12.900
10.44000 19.619
10.46000 14.636
10.48000 12.822
10.50000 12.363
10.52000 -5.579
10.54000 10.646
10.56000 7.604
10.58000 28.548
10.60000 27.664
10.62000 11.366
10.64000 14.570
10.66000 22.038
10.68000 8.975
10.70000 14.029
10.72000 15.089
10.74000 3.439
10.76000 10.494
10.78000 20.187
10.80000 16.366
10.82000 16.597
10.84000 10.757
10.86000 14.132
10.88000 11.402
10.90000 22.860
10.92000 29.727
10.94000 30.783
10.96000 9.764
10.98000 8.622
11.00000 17.953
11.02000 23.724
11.04000 28.010
11.06000 25.204
11.08000 19.133
11.10000 8.262
11.12000 -4.387
11.14000 6.450
11.16000 10.609
11.18000 11.651
11.20000 18.337
11.22000 9.181
11.24000 12.837
11.26000 11.949
11.28000 8.049
11.30000 16.448
11.32000 30.199
11.34000 26.576
11.36000 11.569
11.38000 -0.758
11.40000 11.903
11.42000 17.025
11.44000 26.681
11.46000 23.978
11.48000 4.916
11.50000 8.931
11.52000 17.208
11.54000 7.700
11.56000 5.242
11.58000 15.372
11.60000 31.628
11.62000 22.358
11.64000 6.577
11.66000 8.569
11.68000 9.979
11.70000 10.156
11.72000 20.538
11.74000 12.979
11.76000 11.658
11.78000 3.819
11.80000 13.977
11.82000 19.960
11.84000 23.322
11.86000 17.545
11.88000 21.536
11.90000 21.264
11.92000 10.260
11.94000 9.174
11.96000 10.257
11.98000 13.024
12.00000 19.274
12.02000 8.080
12.04000 0.685
12.06000 -0.948
12.08000 17.113
12.10000 14.434
12.12000 14.866
12.14000 15.247
12.16000 11.742
12.18000 16.369
12.20000 6.778
12.22000 6.041
12.24000 7.497
12.26000 12.222
12.28000 25.619
12.30000 26.011
12.32000 10.518
12.34000 6.138
12.36000 -4.476
12.38000 3.147
12.40000 11.918
12.42000 4.544
12.44000 11.631
12.46000 8.246
12.48000 4.518
12.50000 5.699
12.52000 19.852
12.54000 18.561
12.56000 9.127
12.58000 11.939
12.60000 15.362
12.62000 9.125
12.64000 2.614
12.66000 14.253
12.68000 8.555
12.70000 8.881
12.72000 6.575
12.74000 1.655
12.76000 -3.987
12.78000 1.748
12.80000 8.703
12.82000 14.701
12.84000 14.052
12.86000 0.061
12.88000 3.203
12.90000 -2.686
12.92000 -1.791
12.94000 8.947
12.96000 9.651
12.98000 18.392
13.00000 17.561
13.02000 7.406
13.04000 1.095
13.06000 3.196
13.08000 21.650
13.10000 16.467
13.12000 20.816
13.14000 11.175
13.16000 10.157
13.18000 11.233
13.20000 10.999
13.22000 -0.027
13.24000 7.812
13.26000 16.047
13.28000 13.573
13.30000 7.187
13.32000 16.792
13.34000 11.469
13.36000 2.031
13.38000 8.853
13.40000 6.487
13.42000 8.779
13.44000 14.184
13.46000 7.106
13.48000 1.114
13.50000 3.598
13.52000 8.220
13.54000 9.210
13.56000 14.847
13.58000 19.297
13.60000 12.786
13.62000 12.776
13.64000 19.608
13.66000 10.626
13.68000 8.459
13.70000 9.766
13.72000 10.497
13.74000 11.431
13.76000 8.404
13.78000 9.691
13.80000 8.008
13.82000 5.961
13.84000 12.504
13.86000 3.030
13.88000 -2.033
13.90000 -2.979
13.92000 5.348
13.94000 2.928
13.96000 4.458
13.98000 5.572
14.00000 0.395
14.02000 3.443
14.04000 6.590
14.06000 4.991
14.08000 10.936
14.10000 14.754
14.12000 16.646
14.14000 20.553
14.16000 15.793
14.18000 1.550
14.20000 3.968
14.22000 6.343
14.24000 8.765
14.26000 10.340
14.28000 14.091
14.30000 12.690
14.32000 1.289
14.34000 -1.280
14.36000 -3.291
14.38000 1.566
14.40000 -2.917
14.42000 1.596
14.44000 8.749
14.46000 12.586
14.48000 -1.748
14.50000 6.337
14.52000 5.750
14.54000 5.203
14.56000 13.622
14.58000 15.017
14.60000 10.823
14.62000 4.720
14.64000 2.039
14.66000 10.648
14.68000 6.507
14.70000 3.983
14.72000 3.853
14.74000 5.371
14.76000 11.252
14.78000 6.056
14.80000 6.513
14.82000 9.218
14.84000 12.079
14.86000 11.563
14.88000 9.722
14.90000 0.612
14.92000 -1.652
14.94000 -4.445
14.96000 6.079
14.98000 3.475
15.00000 4.000
15.02000 14.709
15.04000 15.715
15.06000 16.666
15.08000 15.310
15.10000 13.010
15.12000 12.140
15.14000 11.364
15.16000 7.290
15.18000 16.620
15.20000 21.259
15.22000 15.602
15.24000 11.969
15.26000 10.814
15.28000 16.894
15.30000 11.994
15.32000 7.768
15.34000 7.927
15.36000 7.686
15.38000 13.566
15.40000 11.885
15.42000 7.932
15.44000 22.362
15.46000 14.794
15.48000 13.124
15.50000 10.635
15.52000 13.414
15.54000 10.350
15.56000 15.723
15.58000 15.286
15.60000 5.721
15.62000 5.483
15.64000 11.706
15.66000 10.285
15.68000 15.052
15.70000 14.210
15.72000 9.622
15.74000 4.272
15.76000 8.813
15.78000 16.772
15.80000 18.236
15.82000 13.826
15.84000 5.004
15.86000 2.991
15.88000 2.091
15.90000 9.262
15.92000 13.592
15.94000 9.591
15.96000 12.482
15.98000 0.992
16.00000 -4.382
16.02000 1.307
16.04000 3.138
16.06000 5.894
16.08000 8.181
16.10000 8.096
16.12000 7.702
16.14000 4.336
16.16000 14.425
16.18000 12.208
16.20000 14.413
16.22000 11.563
16.24000 12.333
16.26000 0.236
16.28000 9.133
16.30000 11.780
16.32000 5.917
16.34000 6.015
16.36000 9.080
16.38000 15.368
16.40000 10.487
16.42000 7.680
16.44000 6.222
16.46000 2.927
16.48000 7.952
16.50000 9.809
16.52000 14.337
16.54000 13.847
16.56000 6.026
16.58000 10.050
16.60000 15.709
16.62000 13.503
16.64000 5.449
16.66000 5.929
16.68000 -0.353
16.70000 -0.431
16.72000 6.043
16.74000 5.232
16.76000 4.712
16.78000 4.403
16.80000 7.518
16.82000 4.189
16.84000 1.908
16.86000 -0.120
16.88000 6.536
16.90000 1.161
16.92000 5.415
16.94000 11.119
16.96000 8.363
16.98000 7.665
17.00000 9.445
17.02000 18.375
17.04000 19.455
17.06000 10.208
17.08000 3.993
17.10000 -0.249
17.12000 11.326
17.14000 -1.239
17.16000 -4.358
17.18000 8.417
17.20000 13.450
17.22000 10.080
17.24000 4.726
17.26000 4.658
17.28000 14.792
17.30000 8.862
17.32000 8.565
17.34000 10.292
17.36000 3.062
17.38000 6.646
17.40000 4.974
17.42000 3.262
17.44000 5.395
17.46000 -0.668
17.48000 1.768
17.50000 3.489
17.52000 5.696
17.54000 6.479
17.56000 4.473
17.58000 10.270
17.60000 17.662
17.62000 16.309
17.64000 9.585
17.66000 5.236
17.68000 -2.630
17.70000 1.099
17.72000 8.628
17.74000 5.896
17.76000 -3.940
17.78000 -4.343
17.80000 3.520
17.82000 8.413
17.84000 7.278
17.86000 -1.159
17.88000 -2.712
17.90000 4.725
17.92000 6.940
17.94000 9.425
17.96000 2.878
17.98000 10.400
18.00000 8.168
18.02000 3.318
18.04000 1.564
18.06000 4.926
18.08000 8.429
18.10000 5.806
18.12000 4.858
18.14000 3.008
18.16000 10.038
18.18000 1.309
18.20000 -0.441
18.22000 10.813
18.24000 6.359
18.26000 -0.594
18.28000 2.320
18.30000 0.457
18.32000 5.779
18.34000 6.179
18.36000 3.254
18.38000 2.340
18.40000 3.523
18.42000 12.516
18.44000 7.370
18.46000 9.104
18.48000 11.500
18.50000 11.367
18.52000 5.733
18.54000 5.233
18.56000 9.686
18.58000 8.512
18.60000 6.566
18.62000 4.417
18.64000 2.727
18.66000 7.758
18.68000 7.615
18.70000 6.653
18.72000 3.134
18.74000 -3.147
18.76000 0.538
18.78000 4.708
18.80000 11.215
18.82000 6.962
18.84000 7.452
18.86000 8.073
18.88000 4.173
18.90000 3.409
18.92000 7.827
18.94000 7.129
18.96000 6.800
18.98000 4.445
19.00000 7.599
19.02000 4.267
19.04000 6.922
19.06000 8.765
19.08000 3.584
19.10000 -0.439
19.12000 6.216
19.14000 4.729
19.16000 4.653
19.18000 2.520
19.20000 5.787
19.22000 11.459
19.24000 10.324
19.26000 9.112
19.28000 8.802
19.30000 11.604
19.32000 4.823
19.34000 5.939
19.36000 11.461
19.38000 8.578
19.40000 -4.227
19.42000 7.489
19.44000 6.729
19.46000 -2.948
19.48000 2.530
19.50000 1.665
19.52000 1.694
19.54000 2.678
19.56000 0.654
19.58000 7.024
19.60000 9.226
19.62000 6.015
19.64000 10.261
19.66000 13.224
19.68000 6.472
19.70000 4.906
19.72000 4.009
19.74000 8.336
19.76000 11.647
19.78000 4.211
19.80000 5.094
19.82000 3.633
19.84000 0.462
19.86000 3.810
19.88000 2.145
19.90000 8.465
19.92000 5.776
19.94000 2.674
19.96000 2.105
19.98000 2.262
20.00000 7.754
20.02000 5.279
20.04000 -0.954
20.06000 4.668
20.08000 4.518
20.10000 3.899
20.12000 3.700
20.14000 -1.091
20.16000 1.104
20.18000 2.714
20.20000 5.400
20.22000 1.279
20.24000 1.051
20.26000 1.695
20.28000 -1.400
20.30000 3.744
20.32000 7.688
20.34000 6.291
20.36000 2.402
20.38000 7.176
20.40000 8.164
20.42000 2.853
20.44000 -4.196
20.46000 0.818
20.48000 6.600
20.50000 4.797
20.52000 10.123
20.54000 11.291
20.56000 11.163
20.58000 9.185
20.60000 5.983
20.62000 7.348
20.64000 1.928
20.66000 -2.093
20.68000 -1.019
20.70000 8.581
20.72000 7.921
20.74000 3.795
20.76000 4.471
20.78000 -0.661
20.80000 -0.133
20.82000 2.915
20.84000 2.105
20.86000 0.338
20.88000 1.060
20.90000 5.838
20.92000 3.964
20.94000 -4.167
20.96000 -2.336
20.98000 5.357
21.00000 5.545
21.02000 6.227
21.04000 1.537
21.06000 5.368
21.08000 3.330
21.10000 1.611
21.12000 5.772
21.14000 8.003
21.16000 2.090
21.18000 1.970
21.20000 5.380
21.22000 5.986
21.24000 1.304
21.26000 -4.033
21.28000 2.604
21.30000 5.184
21.32000 6.939
21.34000 5.630
21.36000 6.683
21.38000 0.436
21.40000 -3.344
21.42000 0.564
21.44000 7.350
21.46000 2.303
21.48000 -2.271
21.50000 -1.667
21.52000 1.416
21.54000 5.400
21.56000 1.049
21.58000 2.893
21.60000 1.030
21.62000 1.172
21.64000 2.676
21.66000 7.346
21.68000 4.883
21.70000 0.950
21.72000 2.836
21.74000 6.062
21.76000 8.552
21.78000 5.872
21.80000 6.098
21.82000 -0.128
21.84000 6.939
21.86000 5.873
21.88000 0.911
21.90000 -0.670
21.92000 2.097
21.94000 2.767
21.96000 2.298
21.98000 2.672
22.00000 4.324
22.02000 0.126
22.04000 7.281
22.06000 6.692
22.08000 9.155
22.10000 9.452
22.12000 9.419
22.14000 11.996
22.16000 14.791
22.18000 0.752
22.20000 0.597
22.22000 -4.124
22.24000 5.388
22.26000 9.824
22.28000 5.390
22.30000 2.068
22.32000 -2.226
22.34000 2.032
22.36000 3.265
22.38000 4.021
22.40000 2.047
22.42000 0.484
22.44000 -2.785
22.46000 -4.108
22.48000 -1.698
22.50000 -3.082
22.52000 -0.543
22.54000 3.296
22.56000 4.758
22.58000 1.633
22.60000 -0.461
22.62000 1.521
22.64000 6.690
22.66000 5.394
22.68000 5.228
22.70000 7.232
22.72000 2.945
22.74000 1.218
22.76000 2.394
22.78000 1.705
22.80000 2.996
22.82000 -3.505
22.84000 -3.898
22.86000 1.117
22.88000 1.788
22.90000 -0.868
22.92000 1.837
22.94000 -4.069
22.96000 3.402
22.98000 0.751
23.00000 6.699
23.02000 0.969
23.04000 2.513
23.06000 8.089
23.08000 6.818
23.10000 1.195
23.12000 -0.129
23.14000 -1.959
23.16000 -0.814
23.18000 1.618
23.20000 2.664
23.22000 -0.227
23.24000 1.325
23.26000 3.687
23.28000 5.752
23.30000 5.117
23.32000 2.914
23.34000 1.873
23.36000 5.476
23.38000 11.672
23.40000 12.073
23.42000 7.735
23.44000 5.162
23.46000 7.039
23.48000 10.020
23.50000 7.843
23.52000 6.688
23.54000 8.378
23.56000 12.838
23.58000 5.307
23.60000 1.556
23.62000 2.201
23.64000 -0.385
23.66000 4.697
23.68000 3.183
23.70000 1.502
23.72000 1.930
23.74000 4.733
23.76000 12.254
23.78000 12.818
23.80000 6.306
23.82000 5.994
23.84000 7.102
23.86000 5.066
23.88000 4.102
23.90000 7.774
23.92000 9.725
23.94000 8.451
23.96000 -2.708
23.98000 -3.985
24.00000 -1.301
24.02000 -2.125
24.04000 6.147
24.06000 8.244
24.08000 7.896
24.10000 9.936
24.12000 7.366
24.14000 2.473
24.16000 1.505
24.18000 -1.364
24.20000 1.880
24.22000 -2.721
24.24000 3.585
24.26000 5.109
24.28000 2.475
24.30000 4.230
24.32000 -0.310
24.34000 0.350
24.36000 5.839
24.38000 5.401
24.40000 10.150
24.42000 7.923
24.44000 3.069
24.46000 4.853
24.48000 5.963
24.50000 2.957
24.52000 3.067
24.54000 1.899
24.56000 2.497
24.58000 0.458
24.60000 1.276
24.62000 1.129
24.64000 4.320
24.66000 1.980
24.68000 3.470
24.70000 0.737
24.72000 4.950
24.74000 7.435
24.76000 3.871
24.78000 3.236
24.80000 6.928
24.82000 1.095
24.84000 -0.588
24.86000 5.739
24.88000 1.359
24.90000 6.307
24.92000 1.030
24.94000 2.326
24.96000 1.287
24.98000 -1.921
25.00000 0.721
25.02000 -0.876
25.04000 -0.621
25.06000 8.454
25.08000 7.103
25.10000 1.398
25.12000 -0.740
25.14000 -0.865
25.16000 6.268
25.18000 6.172
25.20000 6.526
25.22000 5.890
25.24000 6.345
25.26000 7.147
25.28000 5.469
25.30000 2.428
25.32000 4.970
25.34000 12.928
25.36000 8.451
25.38000 3.676
25.40000 9.584
25.42000 6.640
25.44000 4.772
25.46000 8.617
25.48000 9.035
25.50000 2.392
25.52000 3.615
25.54000 10.110
25.56000 1.250
25.58000 -3.882
25.60000 0.504
25.62000 3.258
25.64000 1.696
25.66000 4.685
25.68000 5.894
25.70000 9.114
25.72000 7.016
25.74000 7.366
25.76000 6.143
25.78000 4.791
25.80000 6.064
25.82000 7.672
25.84000 3.377
25.86000 -0.584
25.88000 0.624
25.90000 3.822
25.92000 3.963
25.94000 6.471
25.96000 8.056
25.98000 5.468
26.00000 4.548
26.02000 9.291
26.04000 5.794
26.06000 5.234
26.08000 5.097
26.10000 7.219
26.12000 7.826
26.14000 5.253
26.16000 1.215
26.18000 1.128
26.20000 0.869
26.22000 2.044
26.24000 2.031
26.26000 2.976
26.28000 -0.893
26.30000 5.745
26.32000 8.682
26.34000 -0.844
26.36000 3.728
26.38000 8.166
26.40000 5.239
26.42000 2.506
26.44000 5.017
26.46000 8.413
26.48000 5.720
26.50000 8.360
26.52000 9.257
26.54000 5.263
26.56000 6.919
26.58000 6.830
26.60000 10.167
26.62000 8.170
26.64000 3.187
26.66000 6.759
26.68000 4.004
26.70000 5.352
26.72000 4.327
26.74000 4.812
26.76000 1.190
26.78000 0.518
26.80000 3.789
26.82000 0.528
26.84000 0.242
26.86000 -2.593
26.88000 -3.834
26.90000 -1.346
26.92000 2.228
26.94000 0.724
26.96000 2.148
26.98000 1.070
27.00000 6.390
27.02000 7.648
27.04000 1.486
27.06000 1.666
27.08000 3.086
27.10000 6.407
27.12000 5.074
27.14000 4.480
27.16000 -0.392
27.18000 2.383
27.20000 3.977
27.22000 0.739
27.24000 -3.578
27.26000 0.916
27.28000 7.226
27.30000 0.555
27.32000 0.805
27.34000 2.038
27.36000 -0.197
27.38000 -0.537
27.40000 4.167
27.42000 7.027
27.44000 4.706
27.46000 5.590
27.48000 6.241
27.50000 5.016
27.52000 6.372
27.54000 0.152
27.56000 -3.002
27.58000 3.889
27.60000 4.730
27.62000 5.235
27.64000 4.885
27.66000 5.761
27.68000 2.444
27.70000 9.474
27.72000 10.640
27.74000 5.338
27.76000 5.338
27.78000 2.914
27.80000 1.720
27.82000 1.810
27.84000 -2.515
27.86000 -2.204
27.88000 2.075
27.90000 1.289
27.92000 3.262
27.94000 0.738
27.96000 1.911
27.98000 1.953
28.00000 10.974
28.02000 11.553
28.04000 6.008
28.06000 -1.065
28.08000 -3.776
28.10000 0.386
28.12000 3.243
28.14000 3.311
28.16000 4.303
28.18000 7.750
28.20000 7.697
28.22000 7.932
28.24000 3.837
28.26000 2.859
28.28000 1.627
28.30000 3.902
28.32000 9.128
28.34000 9.581
28.36000 4.130
28.38000 1.119
28.40000 0.844
28.42000 -2.000
28.44000 2.828
28.46000 4.954
28.48000 -0.075
28.50000 4.039
28.52000 9.665
28.54000 5.447
28.56000 1.153
28.58000 -0.177
28.60000 0.753
28.62000 4.078
28.64000 7.583
28.66000 7.488
28.68000 0.392
28.70000 -0.011
28.72000 0.578
28.74000 0.459
28.76000 3.730
28.78000 2.724
28.80000 1.719
28.82000 0.228
28.84000 1.668
28.86000 1.778
28.88000 6.347
28.90000 1.773
28.92000 -2.094
28.94000 -1.555
28.96000 2.133
28.98000 3.636
29.00000 2.656
29.02000 4.776
29.04000 3.863
29.06000 2.862
29.08000 6.948
29.10000 7.539
29.12000 6.187
29.14000 7.547
29.16000 6.555
29.18000 5.816
29.20000 3.303
29.22000 1.993
29.24000 2.321
29.26000 5.997
29.28000 4.479
29.30000 2.800
29.32000 3.684
29.34000 3.666
29.36000 8.943
29.38000 2.120
29.40000 -3.699
29.42000 -0.928
29.44000 3.375
29.46000 1.721
29.48000 4.470
29.50000 4.906
29.52000 3.911
29.54000 0.576
29.56000 3.695
29.58000 6.703
29.60000 2.300
29.62000 2.490
29.64000 5.659
29.66000 5.407
29.68000 3.138
29.70000 1.843
29.72000 4.823
29.74000 4.264
29.76000 3.635
29.78000 2.431
29.80000 0.887
29.82000 3.766
29.84000 5.109
29.86000 3.467
29.88000 1.679
29.90000 -1.871
29.92000 0.704
29.94000 1.651
29.96000 -1.320
29.98000 -0.810
30.00000 -1.081
30.02000 -1.393
30.04000 0.493
30.06000 2.296
30.08000 4.047
30.10000 3.657
30.12000 1.676
30.14000 -2.312
30.16000 3.880
30.18000 5.975
30.20000 1.797
30.22000 2.964
30.24000 3.745
30.26000 2.588
30.28000 2.781
30.30000 8.364
30.32000 2.257
30.34000 0.493
30.36000 1.053
30.38000 1.928
30.40000 2.845
30.42000 -0.034
30.44000 1.519
30.46000 -0.542
30.48000 0.121
30.50000 4.954
30.52000 7.411
30.54000 3.957
30.56000 0.147
30.58000 3.166
30.60000 3.201
30.62000 1.789
30.64000 3.689
30.66000 6.516
30.68000 -0.555
30.70000 -0.796
30.72000 2.756
30.74000 1.690
30.76000 6.180
30.78000 2.909
30.80000 -1.633
30.82000 3.208
30.84000 6.662
30.86000 8.099
30.88000 4.993
30.90000 5.088
30.92000 7.377
30.94000 4.137
30.96000 1.706
30.98000 2.946
31.00000 3.963
31.02000 2.599
31.04000 4.662
31.06000 4.326
31.08000 5.813
31.10000 1.324
31.12000 0.513
31.14000 6.354
31.16000 7.043
31.18000 10.477
31.20000 6.795
31.22000 -0.281
31.24000 -0.198
31.26000 5.870
31.28000 6.848
31.30000 -3.604
31.32000 -1.741
31.34000 -0.023
31.36000 -0.936
31.38000 5.247
31.40000 4.896
31.42000 1.058
31.44000 1.307
31.46000 2.288
31.48000 7.290
31.50000 6.710
31.52000 5.164
31.54000 9.020
31.56000 6.213
31.58000 4.428
31.60000 1.693
31.62000 3.929
31.64000 5.942
31.66000 4.348
31.68000 4.182
31.70000 1.614
31.72000 -3.373
31.74000 -2.356
31.76000 0.018
31.78000 3.232
31.80000 1.075
31.82000 1.482
31.84000 -0.527
31.86000 0.056
31.88000 -1.413
31.90000 3.599
31.92000 4.908
31.94000 1.713
31.96000 -2.817
31.98000 -1.314
32.00000 -1.873
32.02000 2.447
32.04000 0.195
32.06000 0.027
32.08000 1.861
32.10000 -1.141
32.12000 -1.613
32.14000 3.346
32.16000 10.250
32.18000 6.930
32.20000 3.036
32.22000 0.124
32.24000 0.934
32.26000 -0.325
32.28000 0.633
32.30000 3.996
32.32000 4.335
32.34000 4.161
32.36000 7.540
32.38000 5.695
32.40000 -0.448
32.42000 -1.795
32.44000 -2.439
32.46000 -1.370
32.48000 1.997
32.50000 -2.613
32.52000 -3.582
32.54000 1.319
32.56000 2.367
32.58000 4.967
32.60000 5.141
32.62000 3.579
32.64000 2.294
32.66000 -0.886
32.68000 -0.524
32.70000 -1.057
32.72000 -0.205
32.74000 4.508
32.76000 1.168
32.78000 4.781
32.80000 9.152
32.82000 6.941
32.84000 3.636
32.86000 -1.441
32.88000 2.872
32.90000 1.643
32.92000 4.374
32.94000 4.293
32.96000 3.759
32.98000 2.423
33.00000 -0.273
33.02000 2.186
33.04000 6.960
33.06000 4.380
33.08000 5.290
33.10000 2.767
33.12000 3.684
33.14000 2.546
33.16000 -2.668
33.18000 1.325
33.20000 2.701
33.22000 2.212
33.24000 -0.841
33.26000 2.380
33.28000 6.820
33.30000 2.310
33.32000 2.179
33.34000 2.618
33.36000 4.649
33.38000 2.345
33.40000 2.841
33.42000 -3.330
33.44000 0.583
33.46000 3.401
33.48000 4.864
33.50000 5.694
33.52000 7.694
33.54000 7.369
33.56000 6.018
33.58000 4.502
33.60000 3.050
33.62000 5.111
33.64000 9.749
33.66000 10.430
33.68000 3.757
33.70000 2.161
33.72000 8.422
33.74000 11.430
33.76000 7.369
33.78000 7.701
33.80000 4.100
33.82000 4.626
33.84000 9.022
33.86000 6.302
33.88000 7.587
33.90000 10.784
33.92000 5.969
33.94000 2.494
33.96000 6.024
33.98000 7.855
34.00000 5.120
34.02000 1.291
34.04000 -3.505
34.06000 8.192
34.08000 9.316
34.10000 5.081
34.12000 6.351
34.14000 7.759
34.16000 4.164
34.18000 4.782
34.20000 7.426
34.22000 9.234
34.24000 6.430
34.26000 6.539
34.28000 9.647
34.30000 7.501
34.32000 7.279
34.34000 5.928
34.36000 5.958
34.38000 1.533
34.40000 0.156
34.42000 5.780
34.44000 8.793
34.46000 5.892
34.48000 7.322
34.50000 4.069
34.52000 1.762
34.54000 3.146
34.56000 2.320
34.58000 2.172
34.60000 5.497
34.62000 10.394
34.64000 9.143
34.66000 3.031
34.68000 4.368
34.70000 10.532
34.72000 6.980
34.74000 2.794
34.76000 0.523
34.78000 3.390
34.80000 2.055
34.82000 5.413
34.84000 5.397
34.86000 4.211
34.88000 2.149
34.90000 3.112
34.92000 4.587
34.94000 1.366
34.96000 4.408
34.98000 3.190
35.00000 1.103
35.02000 2.652
35.04000 -1.114
35.06000 0.125
35.08000 5.163
35.10000 6.757
35.12000 7.501
35.14000 6.536
35.16000 -0.070
35.18000 3.307
35.20000 6.190
35.22000 8.645
35.24000 10.294
35.26000 6.419
35.28000 0.763
35.30000 -0.001
35.32000 4.922
35.34000 6.793
35.36000 7.989
35.38000 10.593
35.40000 11.502
35.42000 7.846
35.44000 7.683
35.46000 1.383
35.48000 -3.486
35.50000 2.335
35.52000 7.194
35.54000 1.514
35.56000 3.186
35.58000 1.212
35.60000 4.325
35.62000 7.690
35.64000 5.472
35.66000 6.271
35.68000 6.150
35.70000 1.929
35.72000 1.679
35.74000 4.438
35.76000 2.180
35.78000 2.492
35.80000 1.056
35.82000 3.506
35.84000 2.523
35.86000 -0.917
35.88000 -1.308
35.90000 2.663
35.92000 6.495
35.94000 1.929
35.96000 0.179
35.98000 2.540
36.00000 2.786
36.02000 5.466
36.04000 0.219
36.06000 0.256
36.08000 1.935
36.10000 2.542
36.12000 5.143
36.14000 5.605
36.16000 0.072
36.18000 5.524
36.20000 3.119
36.22000 -1.423
36.24000 -3.536
36.26000 -1.064
36.28000 3.758
36.30000 1.517
36.32000 0.465
36.34000 1.137
36.36000 4.082
36.38000 4.715
36.40000 2.196
36.42000 -0.421
36.44000 -1.252
36.46000 -0.540
36.48000 1.957
36.50000 -0.334
36.52000 0.878
36.54000 0.541
36.56000 1.931
36.58000 5.020
36.60000 8.219
36.62000 3.298
36.64000 4.101
36.66000 0.421
36.68000 2.653
36.70000 8.355
36.72000 5.164
36.74000 -0.223
36.76000 -1.440
36.78000 -0.452
36.80000 3.019
36.82000 3.222
36.84000 0.827
36.86000 5.359
36.88000 3.520
36.90000 3.028
36.92000 4.572
36.94000 1.244
36.96000 -0.468
36.98000 2.336
37.00000 1.670
37.02000 -0.957
37.04000 -1.360
37.06000 2.703
37.08000 5.055
37.10000 4.882
37.12000 3.605
37.14000 7.399
37.16000 4.958
37.18000 5.519
37.20000 1.586
37.22000 2.882
37.24000 5.647
37.26000 2.855
37.28000 2.063
37.30000 1.643
37.32000 -1.378
37.34000 -3.575
37.36000 -1.019
37.38000 -3.133
37.40000 -2.612
37.42000 5.667
37.44000 7.233
37.46000 3.257
37.48000 2.376
37.50000 8.419
37.52000 2.621
37.54000 6.377
37.56000 4.624
37.58000 3.438
37.60000 4.946
37.62000 5.374
37.64000 7.081
37.66000 11.985
37.68000 11.978
37.70000 1.396
37.72000 2.555
37.74000 9.535
37.76000 10.834
37.78000 10.280
37.80000 10.199
37.82000 7.972
37.84000 8.384
37.86000 8.562
37.88000 7.361
37.90000 8.643
37.92000 10.769
37.94000 10.794
37.96000 7.896
37.98000 11.460
38.00000 12.662
38.02000 13.440
38.04000 14.779
38.06000 12.906
38.08000 12.826
38.10000 12.572
38.12000 12.529
38.14000 18.076
38.16000 17.788
38.18000 22.562
38.20000 19.965
38.22000 20.198
38.24000 18.196
38.26000 21.852
38.28000 20.513
38.30000 26.396
38.32000 23.747
38.34000 17.948
38.36000 21.194
38.38000 21.949
38.40000 23.201
38.42000 22.643
38.44000 26.395
38.46000 27.704
38.48000 30.064
38.50000 29.959
38.52000 26.099
38.54000 27.075
38.56000 31.484
38.58000 38.826
38.60000 36.936
38.62000 36.515
38.64000 36.740
38.66000 37.710
38.68000 42.884
38.70000 44.441
38.72000 38.386
38.74000 41.324
38.76000 43.158
38.78000 48.330
38.80000 48.914
38.82000 46.857
38.84000 48.707
38.86000 53.443
38.88000 52.189
38.90000 52.819
38.92000 55.018
38.94000 56.647
38.96000 58.392
38.98000 63.145
39.00000 64.850
39.02000 66.986
39.04000 75.191
39.06000 81.734
39.08000 80.177
39.10000 83.652
39.12000 90.295
39.14000 90.221
39.16000 94.418
39.18000 96.355
39.20000 95.220
39.22000 103.483
39.24000 105.728
39.26000 109.200
39.28000 115.903
39.30000 117.356
39.32000 126.374
39.34000 138.613
39.36000 146.515
39.38000 149.511
39.40000 151.760
39.42000 162.331
39.44000 172.967
39.46000 174.856
39.48000 182.332
39.50000 199.017
39.52000 208.204
39.54000 219.397
39.56000 226.582
39.58000 237.182
39.60000 249.321
39.62000 260.598
39.64000 278.606
39.66000 291.731
39.68000 308.942
39.70000 331.989
39.72000 356.948
39.74000 377.557
39.76000 387.059
39.78000 397.503
39.80000 418.890
39.82000 446.149
39.84000 471.267
39.86000 492.410
39.88000 517.607
39.90000 544.649
39.92000 569.373
39.94000 599.781
39.96000 624.539
39.98000 648.232
40.00000 672.085
40.02000 699.420
40.04000 723.718
40.06000 743.418
40.08000 756.862
40.10000 779.004
40.12000 787.663
40.14000 807.259
40.16000 811.524
40.18000 805.884
40.20000 819.704
40.22000 825.130
40.24000 829.967
40.26000 826.089
40.28000 820.810
40.30000 814.195
40.32000 801.043
40.34000 777.246
40.36000 765.343
40.38000 748.446
40.40000 728.519
40.42000 717.747
40.44000 688.011
40.46000 675.847
40.48000 655.836
40.50000 625.685
40.52000 601.682
40.54000 581.503
40.56000 555.142
40.58000 532.646
40.60000 511.387
40.62000 489.345
40.64000 461.510
40.66000 441.041
40.68000 419.503
40.70000 405.374
40.72000 377.770
40.74000 353.587
40.76000 347.111
40.78000 329.376
40.80000 300.527
40.82000 283.560
40.84000 269.850
40.86000 252.670
40.88000 234.868
40.90000 226.024
40.92000 216.015
40.94000 196.775
40.96000 185.893
40.98000 178.022
41.00000 173.744
41.02000 166.361
41.04000 153.758
41.06000 140.112
41.08000 138.521
41.10000 125.190
41.12000 113.703
41.14000 115.404
41.16000 111.736
41.18000 108.454
41.20000 99.116
41.22000 93.165
41.24000 85.101
41.26000 84.927
41.28000 81.142
41.30000 76.823
41.32000 72.242
41.34000 71.561
41.36000 66.386
41.38000 58.732
41.40000 60.363
41.42000 59.014
41.44000 55.772
41.46000 45.359
41.48000 41.715
41.50000 46.850
41.52000 45.509
41.54000 38.391
41.56000 36.908
41.58000 37.833
41.60000 41.926
41.62000 35.486
41.64000 28.267
41.66000 29.053
41.68000 30.544
41.70000 28.351
41.72000 28.708
41.74000 28.006
41.76000 25.814
41.78000 27.053
41.80000 22.990
41.82000 17.329
41.84000 15.599
41.86000 21.936
41.88000 18.564
41.90000 15.926
41.92000 13.736
41.94000 19.534
41.96000 16.488
41.98000 14.434
42.00000 15.888
42.02000 10.439
42.04000 11.305
42.06000 7.722
42.08000 6.532
42.10000 9.962
42.12000 9.623
42.14000 8.275
42.16000 10.600
42.18000 10.631
42.20000 5.987
42.22000 3.869
42.24000 5.461
42.26000 3.755
42.28000 3.299
42.30000 7.063
42.32000 7.995
42.34000 8.826
42.36000 7.377
42.38000 6.849
42.40000 3.090
42.42000 0.187
42.44000 2.336
42.46000 1.601
42.48000 2.785
42.50000 4.418
42.52000 4.027
42.54000 2.641
42.56000 2.917
42.58000 2.658
42.60000 1.445
42.62000 2.928
42.64000 -1.422
42.66000 0.479
42.68000 4.251
42.70000 4.142
42.72000 4.018
42.74000 5.864
42.76000 2.221
42.78000 2.157
42.80000 1.723
42.82000 -0.292
42.84000 0.243
42.86000 2.094
42.88000 1.264
42.90000 -1.351
42.92000 -1.125
42.94000 0.094
42.96000 -1.247
42.98000 -1.530
43.00000 2.905
43.02000 3.859
43.04000 4.455
43.06000 1.682
43.08000 -0.856
43.10000 1.857
43.12000 3.709
43.14000 2.468
43.16000 0.199
43.18000 1.123
43.20000 0.782
43.22000 0.503
43.24000 -3.417
43.26000 2.284
43.28000 3.498
43.30000 3.392
43.32000 -0.335
43.34000 -0.992
43.36000 0.961
43.38000 1.980
43.40000 0.899
43.42000 0.160
43.44000 -3.383
43.46000 0.771
43.48000 2.965
43.50000 2.266
43.52000 4.214
43.54000 2.033
43.56000 0.338
43.58000 2.042
43.60000 2.285
43.62000 1.701
43.64000 -1.205
43.66000 0.832
43.68000 2.111
43.70000 2.704
43.72000 1.874
43.74000 1.982
43.76000 -0.804
43.78000 0.937
43.80000 3.740
43.82000 5.594
43.84000 2.034
43.86000 -1.476
43.88000 2.148
43.90000 -0.713
43.92000 -2.058
43.94000 -1.338
43.96000 0.508
43.98000 2.547
44.00000 2.674
44.02000 2.327
44.04000 1.776
44.06000 -0.277
44.08000 0.694
44.10000 2.527
44.12000 0.853
44.14000 1.349
44.16000 0.765
44.18000 1.188
44.20000 1.198
44.22000 1.995
44.24000 1.473
44.26000 1.112
44.28000 -1.801
44.30000 -0.121
44.32000 3.431
44.34000 3.505
44.36000 -0.003
44.38000 -1.983
44.40000 -3.138
44.42000 -2.537
44.44000 -3.153
44.46000 -0.080
44.48000 -2.985
44.50000 -1.195
44.52000 -3.357
44.54000 1.986
44.56000 3.806
44.58000 -0.833
44.60000 -3.353
44.62000 -0.315
44.64000 -2.115
44.66000 -0.107
44.68000 3.112
44.70000 2.403
44.72000 -2.355
44.74000 -2.534
44.76000 1.942
44.78000 4.030
44.80000 3.894
44.82000 0.132
44.84000 2.532
44.86000 6.220
44.88000 7.033
44.90000 6.809
44.92000 4.880
44.94000 4.655
44.96000 6.292
44.98000 8.596
45.00000 5.208
45.02000 3.590
45.04000 4.687
45.06000 2.356
45.08000 5.697
45.10000 7.951
45.12000 4.597
45.14000 5.165
45.16000 5.882
45.18000 5.318
45.20000 7.476
45.22000 7.909
45.24000 8.446
45.26000 6.828
45.28000 4.948
45.30000 11.802
45.32000 10.707
45.34000 12.610
45.36000 11.448
45.38000 12.858
45.40000 8.849
45.42000 15.523
45.44000 15.219
45.46000 17.820
45.48000 16.093
45.50000 13.747
45.52000 14.112
45.54000 14.940
45.56000 16.128
45.58000 17.049
45.60000 15.131
45.62000 14.352
45.64000 21.868
45.66000 25.389
45.68000 18.515
45.70000 22.295
45.72000 20.685
45.74000 26.156
45.76000 30.712
45.78000 30.949
45.80000 39.142
45.82000 34.511
45.84000 36.615
45.86000 36.126
45.88000 35.940
45.90000 37.363
45.92000 38.146
45.94000 41.027
45.96000 38.508
45.98000 44.112
46.00000 47.240
46.02000 52.464
46.04000 51.450
46.06000 50.429
46.08000 49.624
46.10000 55.892
46.12000 61.085
46.14000 56.881
46.16000 62.482
46.18000 64.505
46.20000 67.005
46.22000 69.322
46.24000 75.601
46.26000 77.542
46.28000 78.971
46.30000 81.563
46.32000 80.589
46.34000 82.992
46.36000 83.767
46.38000 82.159
46.40000 89.854
46.42000 94.419
46.44000 101.658
46.46000 107.932
46.48000 111.003
46.50000 110.165
46.52000 116.061
46.54000 116.807
46.56000 124.391
46.58000 127.573
46.60000 134.463
46.62000 134.099
46.64000 133.948
46.66000 139.640
46.68000 135.775
46.70000 137.064
46.72000 139.315
46.74000 141.112
46.76000 146.517
46.78000 142.727
46.80000 144.117
46.82000 148.186
46.84000 149.619
46.86000 150.485
46.88000 158.723
46.90000 160.440
46.92000 158.590
46.94000 155.150
46.96000 152.436
46.98000 145.438
47.00000 141.810
47.02000 145.216
47.04000 152.475
47.06000 146.579
47.08000 136.607
47.10000 130.576
47.12000 128.056
47.14000 128.103
47.16000 122.627
47.18000 118.353
47.20000 116.145
47.22000 113.216
47.24000 105.867
47.26000 104.549
47.28000 103.710
47.30000 101.742
47.32000 98.251
47.34000 85.961
47.36000 83.239
47.38000 78.508
47.40000 81.594
47.42000 81.075
47.44000 70.062
47.46000 65.036
47.48000 63.165
47.50000 63.335
47.52000 60.481
47.54000 58.487
47.56000 55.849
47.58000 54.206
47.60000 55.577
47.62000 50.689
47.64000 44.546
47.66000 39.021
47.68000 38.836
47.70000 34.967
47.72000 35.978
47.74000 38.220
47.76000 33.801
47.78000 30.007
47.80000 27.461
47.82000 20.033
47.84000 20.722
47.86000 25.189
47.88000 27.115
47.90000 21.013
47.92000 23.183
47.94000 20.012
47.96000 12.562
47.98000 15.584
48.00000 20.632
48.02000 11.998
48.04000 13.597
48.06000 8.322
48.08000 7.113
48.10000 11.623
48.12000 12.858
48.14000 13.882
48.16000 10.118
48.18000 8.401
48.20000 1.666
48.22000 2.920
48.24000 8.522
48.26000 12.521
48.28000 8.677
48.30000 3.528
48.32000 0.271
48.34000 8.775
48.36000 6.524
48.38000 0.797
48.40000 6.358
48.42000 3.016
48.44000 5.249
48.46000 1.654
48.48000 -1.817
48.50000 1.913
48.52000 5.321
48.54000 4.088
48.56000 1.548
48.58000 2.687
48.60000 0.475
48.62000 3.583
48.64000 3.433
48.66000 0.147
48.68000 0.011
48.70000 0.565
48.72000 0.836
48.74000 -0.581
48.76000 3.136
48.78000 2.698
48.80000 2.084
48.82000 1.137
48.84000 0.656
48.86000 -2.884
48.88000 5.965
48.90000 2.068
48.92000 1.860
48.94000 4.679
48.96000 5.294
48.98000 2.836
49.00000 1.624
49.02000 4.433
49.04000 8.448
49.06000 5.803
49.08000 3.552
49.10000 4.088
49.12000 3.719
49.14000 1.106
49.16000 -0.383
49.18000 2.137
49.20000 3.537
49.22000 4.750
49.24000 1.915
49.26000 2.775
49.28000 -2.802
49.30000 0.616
49.32000 5.021
49.34000 2.361
49.36000 1.793
49.38000 2.700
49.40000 4.313
49.42000 2.842
49.44000 5.895
49.46000 4.569
49.48000 -2.790
49.50000 0.881
49.52000 7.314
49.54000 4.204
49.56000 6.447
49.58000 4.576
49.60000 1.984
49.62000 -1.178
49.64000 3.386
49.66000 0.589
49.68000 5.412
49.70000 1.896
49.72000 2.387
49.74000 0.719
49.76000 2.239
49.78000 8.331
49.80000 7.290
49.82000 4.950
49.84000 2.421
49.86000 6.316
49.88000 6.497
49.90000 3.386
49.92000 0.903
49.94000 -2.760
49.96000 3.153
49.98000 3.125
50.00000 3.800
50.02000 5.101
50.04000 5.100
50.06000 1.631
50.08000 1.757
50.10000 1.019
50.12000 0.790
50.14000 3.929
50.16000 4.120
50.18000 1.670
50.20000 2.928
50.22000 6.802
50.24000 5.144
50.26000 4.136
50.28000 1.628
50.30000 1.002
50.32000 -0.807
50.34000 -0.397
50.36000 1.908
50.38000 1.821
50.40000 3.085
50.42000 3.075
50.44000 3.186
50.46000 2.335
50.48000 1.776
50.50000 1.844
50.52000 4.886
50.54000 6.007
50.56000 1.036
50.58000 0.216
50.60000 -2.203
50.62000 3.495
50.64000 5.326
50.66000 5.013
50.68000 3.147
50.70000 -0.197
50.72000 0.729
50.74000 4.116
50.76000 3.520
50.78000 0.227
50.80000 0.069
50.82000 4.236
50.84000 2.571
50.86000 -2.681
50.88000 2.493
50.90000 0.894
50.92000 4.821
50.94000 3.430
50.96000 -1.551
50.98000 2.744
51.00000 6.994
51.02000 7.330
51.04000 4.291
51.06000 4.857
51.08000 5.156
51.10000 1.006
51.12000 5.175
51.14000 0.809
51.16000 0.379
51.18000 5.070
51.20000 3.654
51.22000 0.120
51.24000 4.655
51.26000 5.503
51.28000 -0.028
51.30000 -0.465
51.32000 2.078
51.34000 5.223
51.36000 3.712
51.38000 0.118
51.40000 -0.150
51.42000 4.311
51.44000 1.661
51.46000 3.854
51.48000 4.556
51.50000 1.340
51.52000 1.780
51.54000 2.132
51.56000 3.443
51.58000 4.652
51.60000 2.286
51.62000 -0.317
51.64000 -1.095
51.66000 1.822
51.68000 1.415
51.70000 2.181
51.72000 5.633
51.74000 0.858
51.76000 3.045
51.78000 2.011
51.80000 0.390
51.82000 -0.795
51.84000 -0.372
51.86000 1.298
51.88000 -0.389
51.90000 1.053
51.92000 3.065
51.94000 1.494
51.96000 -0.518
51.98000 0.391
52.00000 3.840
52.02000 1.637
52.04000 3.049
52.06000 1.228
52.08000 3.127
52.10000 4.656
52.12000 -0.984
52.14000 -0.344
52.16000 0.035
52.18000 2.454
52.20000 1.136
52.22000 1.458
52.24000 0.076
52.26000 1.915
52.28000 2.170
52.30000 1.819
52.32000 1.712
52.34000 5.150
52.36000 5.221
52.38000 3.806
52.40000 5.606
52.42000 3.739
52.44000 1.382
52.46000 4.515
52.48000 5.886
52.50000 1.915
52.52000 1.460
52.54000 -2.630
52.56000 0.685
52.58000 6.075
52.60000 -0.276
52.62000 0.581
52.64000 4.945
52.66000 3.508
52.68000 2.138
52.70000 0.249
52.72000 1.184
52.74000 3.690
52.76000 2.359
52.78000 5.347
52.80000 8.817
52.82000 2.309
52.84000 -2.612
52.86000 1.951
52.88000 4.445
52.90000 3.793
52.92000 7.983
52.94000 5.140
52.96000 4.281
52.98000 2.626
53.00000 0.985
53.02000 -2.609
53.04000 1.909
53.06000 2.893
53.08000 1.467
53.10000 2.185
53.12000 2.424
53.14000 1.989
53.16000 1.980
53.18000 1.196
53.20000 0.210
53.22000 1.201
53.24000 3.917
53.26000 1.169
53.28000 0.751
53.30000 -0.202
53.32000 2.067
53.34000 2.987
53.36000 1.535
53.38000 4.244
53.40000 0.199
53.42000 1.703
53.44000 2.225
53.46000 1.133
53.48000 0.104
53.50000 2.271
53.52000 4.434
53.54000 4.596
53.56000 4.166
53.58000 3.192
53.60000 -2.487
53.62000 2.524
53.64000 4.191
53.66000 3.528
53.68000 -1.607
53.70000 -2.604
53.72000 -1.618
53.74000 1.597
53.76000 3.576
53.78000 4.095
53.80000 5.095
53.82000 3.745
53.84000 3.864
53.86000 2.583
53.88000 2.386
53.90000 4.034
53.92000 4.693
53.94000 4.848
53.96000 2.185
53.98000 -1.250
54.00000 0.670
54.02000 2.986
54.04000 3.234
54.06000 3.383
54.08000 2.752
54.10000 4.701
54.12000 1.484
54.14000 1.962
54.16000 1.239
54.18000 1.586
54.20000 -2.151
54.22000 0.278
54.24000 3.955
54.26000 1.750
54.28000 0.015
54.30000 -1.791
54.32000 0.676
54.34000 -1.227
54.36000 -1.335
54.38000 0.798
54.40000 3.667
54.42000 0.789
54.44000 0.608
54.46000 1.501
54.48000 1.506
54.50000 1.195
54.52000 2.913
54.54000 -1.273
54.56000 -2.582
54.58000 -0.655
54.60000 -0.444
54.62000 0.321
54.64000 -1.700
54.66000 3.000
54.68000 3.087
54.70000 3.236
54.72000 7.033
54.74000 9.355
54.76000 4.765
54.78000 -0.796
54.80000 2.126
54.82000 1.699
54.84000 6.399
54.86000 3.707
54.88000 4.595
54.90000 2.515
54.92000 2.465
54.94000 4.082
54.96000 7.231
54.98000 2.885
55.00000 1.302
55.02000 0.082
55.04000 2.163
55.06000 3.138
55.08000 4.175
55.10000 1.851
55.12000 5.215
55.14000 6.560
55.16000 0.705
55.18000 -0.075
55.20000 3.457
55.22000 4.172
55.24000 0.842
55.26000 0.941
55.28000 -0.358
55.30000 0.750
55.32000 3.834
55.34000 1.978
55.36000 0.717
55.38000 1.381
55.40000 3.296
55.42000 3.138
55.44000 -2.550
55.46000 -2.461
55.48000 1.786
55.50000 0.032
55.52000 3.167
55.54000 1.336
55.56000 -0.369
55.58000 -2.378
55.60000 -1.911
55.62000 -0.308
55.64000 2.886
55.66000 -0.119
55.68000 -1.640
55.70000 0.468
55.72000 -1.967
55.74000 -1.213
55.76000 1.661
55.78000 3.683
55.80000 2.788
55.82000 -0.824
55.84000 1.070
55.86000 1.135
55.88000 1.676
55.90000 2.429
55.92000 -0.658
55.94000 0.922
55.96000 -0.391
55.98000 -0.625
56.00000 3.542
56.02000 -0.017
56.04000 2.133
56.06000 5.744
56.08000 4.572
56.10000 4.150
56.12000 4.193
56.14000 2.743
56.16000 3.937
56.18000 6.129
56.20000 7.803
56.22000 4.022
56.24000 3.001
56.26000 2.735
56.28000 0.592
56.30000 0.217
56.32000 -0.190
56.34000 1.186
56.36000 6.090
56.38000 6.631
56.40000 1.668
56.42000 0.277
56.44000 2.959
56.46000 1.904
56.48000 -0.723
56.50000 1.181
56.52000 1.890
56.54000 1.069
56.56000 -2.523
56.58000 2.858
56.60000 4.280
56.62000 3.454
56.64000 2.747
56.66000 0.329
56.68000 5.541
56.70000 7.864
56.72000 2.395
56.74000 1.671
56.76000 2.913
56.78000 4.585
56.80000 2.145
56.82000 0.541
56.84000 0.532
56.86000 2.608
56.88000 4.647
56.90000 9.567
56.92000 4.789
56.94000 4.956
56.96000 3.681
56.98000 -0.054
57.00000 1.056
57.02000 2.429
57.04000 1.035
57.06000 -0.363
57.08000 0.212
57.10000 0.431
57.12000 2.267
57.14000 1.994
57.16000 4.130
57.18000 2.248
57.20000 3.301
57.22000 6.594
57.24000 5.073
57.26000 3.486
57.28000 4.897
57.30000 6.297
57.32000 6.114
57.34000 7.468
57.36000 7.820
57.38000 2.515
57.40000 -2.467
57.42000 0.556
57.44000 3.802
57.46000 3.167
57.48000 5.482
57.50000 3.435
57.52000 4.095
57.54000 2.218
57.56000 1.910
57.58000 3.942
57.60000 8.036
57.62000 6.280
57.64000 0.891
57.66000 4.797
57.68000 3.605
57.70000 1.993
57.72000 2.868
57.74000 5.541
57.76000 4.800
57.78000 3.129
57.80000 -1.955
57.82000 -2.211
57.84000 0.016
57.86000 0.931
57.88000 0.219
57.90000 -2.465
57.92000 1.187
57.94000 2.631
57.96000 3.137
57.98000 1.914
58.00000 4.702
58.02000 2.806
58.04000 4.256
58.06000 0.525
58.08000 0.089
58.10000 -1.769
58.12000 -1.500
58.14000 0.937
58.16000 2.126
58.18000 4.088
58.20000 1.832
58.22000 2.396
58.24000 0.606
58.26000 -0.739
58.28000 -0.499
58.30000 1.965
58.32000 0.535
58.34000 2.063
58.36000 2.508
58.38000 3.073
58.40000 5.414
58.42000 4.474
58.44000 1.449
58.46000 -0.214
58.48000 1.253
58.50000 3.536
58.52000 4.946
58.54000 4.335
58.56000 4.109
58.58000 4.735
58.60000 1.655
58.62000 -1.256
58.64000 -2.443
58.66000 -1.990
58.68000 3.344
58.70000 3.659
58.72000 4.020
58.74000 0.488
58.76000 -0.171
58.78000 0.938
58.80000 3.428
58.82000 6.581
58.84000 2.365
58.86000 0.324
58.88000 -2.404
58.90000 -1.920
58.92000 -0.063
58.94000 0.324
58.96000 1.317
58.98000 0.791
59.00000 1.247
59.02000 1.272
59.04000 3.245
59.06000 4.740
59.08000 5.401
59.10000 3.357
59.12000 5.191
59.14000 2.118
59.16000 3.405
59.18000 3.901
59.20000 4.895
59.22000 3.380
59.24000 3.772
59.26000 -0.043
59.28000 -2.121
59.30000 -2.432
59.32000 -1.999
59.34000 4.005
59.36000 4.679
59.38000 0.215
59.40000 -0.783
59.42000 4.781
59.44000 1.666
59.46000 0.050
59.48000 5.587
59.50000 6.052
59.52000 4.137
59.54000 2.250
59.56000 0.987
59.58000 -2.423
59.60000 1.872
59.62000 3.812
59.64000 4.287
59.66000 6.272
59.68000 6.102
59.70000 4.131
59.72000 3.385
59.74000 4.492
59.76000 2.386
59.78000 5.486
59.80000 5.569
59.82000 0.490
59.84000 1.525
59.86000 0.695
59.88000 -0.759
59.90000 0.885
59.92000 4.426
59.94000 4.106
59.96000 2.613
59.98000 3.474
60.00000 -0.311
60.02000 0.936
60.04000 -1.488
60.06000 -2.405
60.08000 0.502
60.10000 3.157
60.12000 0.219
60.14000 0.532
60.16000 1.760
60.18000 3.086
60.20000 3.705
60.22000 1.386
60.24000 -1.532
60.26000 3.959
60.28000 6.671
60.30000 5.839
60.32000 5.470
60.34000 3.679
60.36000 4.200
60.38000 0.241
60.40000 -2.407
60.42000 -0.152
60.44000 3.445
60.46000 -1.271
60.48000 -1.423
60.50000 2.288
60.52000 1.028
60.54000 2.667
60.56000 -1.643
60.58000 -0.674
60.60000 -0.775
60.62000 -0.450
60.64000 0.322
60.66000 2.080
60.68000 -0.627
60.70000 0.326
60.72000 1.836
60.74000 1.971
60.76000 1.129
60.78000 -2.139
60.80000 -1.652
60.82000 3.163
60.84000 2.669
60.86000 -1.523
60.88000 -1.518
60.90000 -0.852
60.92000 3.820
60.94000 1.200
60.96000 0.838
60.98000 0.340
61.00000 3.925
61.02000 3.250
61.04000 3.941
61.06000 1.474
61.08000 0.998
61.10000 1.912
61.12000 3.302
61.14000 1.559
61.16000 -0.589
61.18000 3.441
61.20000 2.999
61.22000 0.009
61.24000 1.752
61.26000 2.140
61.28000 5.289
61.30000 3.884
61.32000 1.128
61.34000 1.770
61.36000 1.936
61.38000 -0.912
61.40000 -0.321
61.42000 -0.804
61.44000 4.422
61.46000 2.702
61.48000 1.829
61.50000 -0.675
61.52000 -0.941
61.54000 2.461
61.56000 1.614
61.58000 1.576
61.60000 0.134
61.62000 3.801
61.64000 3.450
61.66000 0.508
61.68000 0.295
61.70000 2.255
61.72000 1.276
61.74000 -0.336
61.76000 1.667
61.78000 -2.365
61.80000 -0.916
61.82000 3.839
61.84000 2.424
61.86000 2.248
61.88000 2.887
61.90000 3.127
61.92000 1.579
61.94000 4.255
61.96000 3.713
61.98000 -0.193
62.00000 0.369
62.02000 2.036
62.04000 1.849
62.06000 0.455
62.08000 2.292
62.10000 1.313
62.12000 -0.209
62.14000 0.140
62.16000 -1.094
62.18000 0.622
62.20000 2.259
62.22000 1.447
62.24000 0.160
62.26000 2.784
62.28000 0.799
62.30000 1.000
62.32000 2.387
62.34000 0.899
62.36000 -0.237
62.38000 -2.381
62.40000 -0.758
62.42000 -1.046
62.44000 -1.345
62.46000 0.766
62.48000 2.266
62.50000 1.597
62.52000 -1.240
62.54000 0.262
62.56000 0.030
62.58000 -0.624
62.60000 -1.167
62.62000 0.420
62.64000 -0.414
62.66000 -1.028
62.68000 0.412
62.70000 2.976
62.72000 2.206
62.74000 1.286
62.76000 -0.536
62.78000 2.067
62.80000 -1.669
62.82000 -0.871
62.84000 1.726
62.86000 -0.182
62.88000 0.294
62.90000 1.624
62.92000 1.113
62.94000 3.400
62.96000 3.679
62.98000 -2.183
63.00000 -1.227
63.02000 1.545
63.04000 2.529
63.06000 -2.381
63.08000 -0.757
63.10000 1.403
63.12000 2.197
63.14000 0.787
63.16000 -1.874
63.18000 -0.977
63.20000 -2.024
63.22000 -0.720
63.24000 -1.478
63.26000 0.608
63.28000 0.405
63.30000 0.186
63.32000 2.770
63.34000 1.170
63.36000 2.437
63.38000 3.777
63.40000 1.500
63.42000 0.776
63.44000 5.569
63.46000 7.171
63.48000 3.769
63.50000 2.078
63.52000 -1.068
63.54000 -1.485
63.56000 -0.410
63.58000 4.030
63.60000 2.358
63.62000 0.949
63.64000 1.177
63.66000 2.404
63.68000 1.522
63.70000 -0.451
63.72000 -2.355
63.74000 -0.046
63.76000 -0.230
63.78000 0.344
63.80000 -0.192
63.82000 -1.843
63.84000 0.172
63.86000 1.054
63.88000 0.049
63.90000 1.271
63.92000 0.686
63.94000 1.746
63.96000 1.307
63.98000 1.606
64.00000 2.316
64.02000 4.670
64.04000 3.282
64.06000 0.714
64.08000 3.287
64.10000 0.823
64.12000 1.520
64.14000 0.352
64.16000 0.611
64.18000 0.216
64.20000 1.158
64.22000 1.784
64.24000 1.889
64.26000 3.106
64.28000 3.326
64.30000 4.518
64.32000 3.332
64.34000 1.555
64.36000 -0.918
64.38000 -2.361
64.40000 -0.781
64.42000 1.732
64.44000 2.623
64.46000 2.760
64.48000 2.293
64.50000 1.154
64.52000 2.161
64.54000 1.306
64.56000 2.602
64.58000 3.633
64.60000 -1.845
64.62000 -2.367
64.64000 3.529
64.66000 4.345
64.68000 3.589
64.70000 2.615
64.72000 1.374
64.74000 1.793
64.76000 -1.061
64.78000 1.449
64.80000 4.646
64.82000 2.121
64.84000 0.722
64.86000 -1.059
64.88000 -0.510
64.90000 2.665
64.92000 0.915
64.94000 0.726
64.96000 1.759
64.98000 2.428
65.00000 2.798
65.02000 2.464
65.04000 0.944
65.06000 0.796
65.08000 1.166
65.10000 -0.861
65.12000 0.490
65.14000 -0.953
65.16000 -0.801
65.18000 3.539
65.20000 3.705
65.22000 -0.346
65.24000 -0.070
65.26000 0.020
65.28000 0.617
65.30000 1.105
65.32000 1.008
65.34000 3.445
65.36000 2.463
65.38000 1.538
65.40000 3.262
65.42000 3.774
65.44000 3.670
65.46000 4.353
65.48000 5.249
65.50000 0.982
65.52000 -1.036
65.54000 -0.679
65.56000 -1.128
65.58000 2.348
65.60000 3.223
65.62000 2.369
65.64000 2.691
65.66000 0.503
65.68000 3.768
65.70000 1.435
65.72000 -2.372
65.74000 4.665
65.76000 5.109
65.78000 7.361
65.80000 5.502
65.82000 6.561
65.84000 3.594
65.86000 2.197
65.88000 2.531
65.90000 -1.134
65.92000 -0.643
65.94000 -0.758
65.96000 0.411
65.98000 2.367
66.00000 4.579
66.02000 3.109
66.04000 -1.126
66.06000 0.042
66.08000 0.366
66.10000 3.283
66.12000 2.315
66.14000 2.505
66.16000 3.347
66.18000 3.485
66.20000 0.999
66.22000 -1.841
66.24000 -1.390
66.26000 0.294
66.28000 0.887
66.30000 -2.225
66.32000 0.485
66.34000 1.290
66.36000 2.549
66.38000 1.384
66.40000 -2.435
66.42000 -0.544
66.44000 0.846
66.46000 3.272
66.48000 0.037
66.50000 -2.378
66.52000 1.669
66.54000 4.980
66.56000 4.632
66.58000 2.354
66.60000 -1.887
66.62000 0.724
66.64000 2.049
66.66000 1.593
66.68000 1.007
66.70000 2.582
66.72000 1.054
66.74000 -2.049
66.76000 0.194
66.78000 1.796
66.80000 0.330
66.82000 0.884
66.84000 0.352
66.86000 -1.296
66.88000 0.661
66.90000 0.366
66.92000 0.950
66.94000 2.035
66.96000 2.917
66.98000 4.072
67.00000 4.504
67.02000 0.299
67.04000 0.257
67.06000 0.738
67.08000 3.119
67.10000 5.660
67.12000 1.635
67.14000 5.368
67.16000 4.826
67.18000 2.861
67.20000 7.056
67.22000 3.500
67.24000 0.367
67.26000 -0.310
67.28000 1.188
67.30000 3.798
67.32000 8.972
67.34000 7.084
67.36000 3.343
67.38000 4.575
67.40000 2.168
67.42000 4.212
67.44000 5.782
67.46000 6.049
67.48000 5.021
67.50000 6.274
67.52000 5.468
67.54000 7.849
67.56000 11.287
67.58000 9.019
67.60000 10.822
67.62000 14.962
67.64000 13.220
67.66000 11.800
67.68000 11.991
67.70000 12.578
67.72000 13.225
67.74000 11.819
67.76000 14.086
67.78000 15.651
67.80000 16.707
67.82000 16.573
67.84000 17.831
67.86000 17.664
67.88000 19.296
67.90000 17.959
67.92000 12.197
67.94000 14.383
67.96000 19.079
67.98000 21.849
68.00000 23.132
68.02000 25.716
68.04000 22.182
68.06000 21.226
68.08000 23.176
68.10000 25.208
68.12000 23.187
68.14000 25.065
68.16000 25.181
68.18000 27.034
68.20000 30.202
68.22000 32.585
68.24000 30.073
68.26000 27.769
68.28000 29.684
68.30000 31.533
68.32000 36.391
68.34000 35.102
68.36000 33.840
68.38000 35.131
68.40000 31.656
68.42000 29.944
68.44000 31.266
68.46000 31.531
68.48000 32.373
68.50000 38.252
68.52000 36.508
68.54000 33.854
68.56000 30.418
68.58000 33.628
68.60000 35.711
68.62000 35.759
68.64000 32.937
68.66000 29.101
68.68000 31.637
68.70000 31.199
68.72000 33.695
68.74000 29.462
68.76000 26.028
68.78000 23.843
68.80000 28.370
68.82000 29.182
68.84000 26.398
68.86000 23.579
68.88000 27.060
68.90000 23.068
68.92000 23.419
68.94000 24.435
68.96000 24.781
68.98000 22.162
69.00000 20.982
69.02000 19.008
69.04000 17.262
69.06000 17.091
69.08000 21.266
69.10000 16.985
69.12000 10.832
69.14000 11.199
69.16000 10.407
69.18000 12.016
69.20000 13.137
69.22000 13.306
69.24000 13.558
69.26000 12.037
69.28000 10.683
69.30000 8.959
69.32000 6.859
69.34000 5.706
69.36000 1.419
69.38000 4.493
69.40000 5.191
69.42000 6.534
69.44000 7.982
69.46000 10.587
69.48000 7.996
69.50000 2.455
69.52000 1.513
69.54000 4.921
69.56000 4.558
69.58000 6.622
69.60000 4.233
69.62000 0.146
69.64000 1.365
69.66000 1.399
69.68000 1.497
69.70000 0.115
69.72000 -2.402
69.74000 0.421
69.76000 1.023
69.78000 1.923
69.80000 3.654
69.82000 3.748
69.84000 3.984
69.86000 0.015
69.88000 -0.243
69.90000 2.457
69.92000 2.211
69.94000 2.990
69.96000 3.304
69.98000 -0.251
70.00000 0.058
70.02000 0.734
70.04000 3.016
70.06000 3.936
70.08000 5.076
70.10000 2.425
70.12000 2.795
70.14000 1.285
70.16000 -2.347
70.18000 -2.345
70.20000 -2.166
70.22000 2.169
70.24000 2.878
70.26000 1.821
70.28000 2.816
70.30000 4.138
70.32000 1.266
70.34000 3.348
70.36000 5.217
70.38000 0.947
70.40000 -2.323
70.42000 -1.127
70.44000 2.488
70.46000 6.434
70.48000 2.036
70.50000 2.119
70.52000 3.010
70.54000 3.863
70.56000 5.447
70.58000 3.038
70.60000 -0.114
70.62000 -2.299
70.64000 1.678
70.66000 2.269
70.68000 -1.099
70.70000 3.034
70.72000 2.721
70.74000 3.265
70.76000 4.095
70.78000 2.099
70.80000 -0.781
70.82000 3.285
70.84000 1.847
70.86000 4.157
70.88000 2.397
70.90000 4.575
70.92000 2.990
70.94000 2.979
70.96000 1.022
70.98000 3.105
71.00000 4.546
71.02000 5.080
71.04000 4.557
71.06000 1.285
71.08000 -0.394
71.10000 1.003
71.12000 -2.269
71.14000 -0.341
71.16000 -0.392
71.18000 0.166
71.20000 3.289
71.22000 4.244
71.24000 5.189
71.26000 6.775
71.28000 5.977
71.30000 4.514
71.32000 6.746
71.34000 1.842
71.36000 4.241
71.38000 0.611
71.40000 -0.611
71.42000 0.002
71.44000 3.431
71.46000 3.235
71.48000 4.280
71.50000 3.456
71.52000 5.864
71.54000 4.699
71.56000 3.975
71.58000 -2.235
71.60000 0.799
71.62000 2.666
71.64000 2.830
71.66000 2.598
71.68000 4.559
71.70000 3.939
71.72000 5.141
71.74000 4.890
71.76000 0.801
71.78000 2.015
71.80000 2.271
71.82000 4.222
71.84000 3.774
71.86000 3.159
71.88000 2.977
71.90000 0.121
71.92000 0.735
71.94000 2.799
71.96000 4.778
71.98000 4.804
72.00000 3.498
72.02000 1.420
72.04000 2.300
72.06000 5.604
72.08000 3.712
72.10000 0.031
72.12000 0.204
72.14000 2.077
72.16000 0.136
72.18000 3.256
72.20000 5.911
72.22000 4.071
72.24000 4.547
72.26000 3.851
72.28000 3.603
72.30000 4.575
72.32000 7.653
72.34000 5.173
72.36000 1.891
72.38000 -1.225
72.40000 -2.171
72.42000 0.729
72.44000 3.468
72.46000 2.784
72.48000 3.418
72.50000 5.081
72.52000 4.531
72.54000 7.458
72.56000 7.123
72.58000 4.990
72.60000 4.459
72.62000 4.014
72.64000 4.049
72.66000 4.362
72.68000 4.249
72.70000 5.652
72.72000 3.805
72.74000 6.244
72.76000 3.531
72.78000 2.037
72.80000 2.603
72.82000 2.005
72.84000 3.191
72.86000 1.605
72.88000 2.635
72.90000 2.619
72.92000 1.944
72.94000 6.756
72.96000 5.226
72.98000 5.372
73.00000 2.955
73.02000 1.436
73.04000 3.030
73.06000 3.552
73.08000 2.934
73.10000 1.514
73.12000 -0.268
73.14000 3.643
73.16000 3.926
73.18000 4.365
73.20000 3.173
73.22000 5.453
73.24000 5.302
73.26000 5.260
73.28000 0.561
73.30000 0.822
73.32000 0.820
73.34000 0.552
73.36000 -0.723
73.38000 1.701
73.40000 0.860
73.42000 3.844
73.44000 2.132
73.46000 0.900
73.48000 -0.500
73.50000 -0.794
73.52000 2.344
73.54000 5.056
73.56000 2.999
73.58000 4.100
73.60000 1.596
73.62000 2.686
73.64000 5.251
73.66000 6.487
73.68000 6.322
73.70000 3.054
73.72000 3.696
73.74000 4.626
73.76000 5.481
73.78000 6.559
73.80000 7.586
73.82000 3.138
73.84000 0.857
73.86000 -2.140
73.88000 2.244
73.90000 3.673
73.92000 4.720
73.94000 2.939
73.96000 0.033
73.98000 2.790
74.00000 3.988
74.02000 7.058
74.04000 8.521
74.06000 5.604
74.08000 3.638
74.10000 1.990
74.12000 3.575
74.14000 2.414
74.16000 2.840
74.18000 5.484
74.20000 5.175
74.22000 4.209
74.24000 -2.146
74.26000 0.314
74.28000 1.877
74.30000 2.687
74.32000 3.586
74.34000 2.970
74.36000 1.778
74.38000 3.793
74.40000 4.698
74.42000 4.564
74.44000 3.960
74.46000 2.046
74.48000 1.488
74.50000 -0.048
74.52000 1.228
74.54000 1.388
74.56000 0.724
74.58000 4.929
74.60000 6.756
74.62000 7.360
74.64000 2.013
74.66000 0.680
74.68000 2.745
74.70000 2.509
74.72000 1.627
74.74000 -1.469
74.76000 -1.828
74.78000 3.007
74.80000 4.030
74.82000 5.781
74.84000 5.431
74.86000 2.438
74.88000 3.210
74.90000 1.058
74.92000 1.599
74.94000 1.335
74.96000 1.328
74.98000 0.096
75.00000 -0.657
75.02000 3.025
75.04000 3.580
75.06000 3.564
75.08000 3.574
75.10000 2.166
75.12000 2.792
75.14000 1.185
75.16000 4.027
75.18000 6.531
75.20000 4.106
75.22000 1.659
75.24000 2.974
75.26000 1.608
75.28000 0.368
75.30000 -0.406
75.32000 3.688
75.34000 0.991
75.36000 2.380
75.38000 2.211
75.40000 1.316
75.42000 3.997
75.44000 6.323
75.46000 5.063
75.48000 2.702
75.50000 -1.596
75.52000 -2.160
75.54000 1.378
75.56000 6.061
75.58000 7.088
75.60000 6.301
75.62000 5.103
75.64000 2.440
75.66000 0.378
75.68000 -0.198
75.70000 0.337
75.72000 3.073
75.74000 3.067
75.76000 5.010
75.78000 10.387
75.80000 10.153
75.82000 5.930
75.84000 7.632
75.86000 6.025
75.88000 5.975
75.90000 5.724
75.92000 2.820
75.94000 -0.895
75.96000 2.121
75.98000 2.731
76.00000 2.737
76.02000 3.422
76.04000 3.623
76.06000 4.796
76.08000 4.864
76.10000 3.825
76.12000 0.512
76.14000 0.851
76.16000 4.233
76.18000 2.943
76.20000 2.619
76.22000 3.162
76.24000 4.255
76.26000 2.380
76.28000 2.214
76.30000 5.461
76.32000 9.582
76.34000 6.395
76.36000 4.282
76.38000 2.721
76.40000 -0.184
76.42000 4.538
76.44000 4.565
76.46000 3.877
76.48000 6.787
76.50000 3.653
76.52000 2.833
76.54000 5.030
76.56000 3.261
76.58000 6.256
76.60000 6.359
76.62000 4.903
76.64000 7.245
76.66000 5.117
76.68000 3.569
76.70000 2.631
76.72000 -2.172
76.74000 -0.773
76.76000 -1.276
76.78000 1.247
76.80000 5.544
76.82000 5.941
76.84000 5.990
76.86000 4.779
76.88000 6.886
76.90000 6.665
76.92000 5.938
76.94000 2.576
76.96000 2.396
76.98000 4.471
77.00000 4.560
77.02000 4.645
77.04000 3.952
77.06000 6.784
77.08000 3.423
77.10000 3.352
77.12000 3.306
77.14000 3.566
77.16000 6.319
77.18000 4.454
77.20000 0.820
77.22000 2.450
77.24000 3.598
77.26000 4.722
77.28000 2.992
77.30000 -0.426
77.32000 3.520
77.34000 5.824
77.36000 3.403
77.38000 1.271
77.40000 -0.830
77.42000 -1.680
77.44000 1.990
77.46000 2.157
77.48000 0.981
77.50000 1.789
77.52000 8.053
77.54000 8.575
77.56000 1.399
77.58000 -0.948
77.60000 0.429
77.62000 2.377
77.64000 -1.076
77.66000 2.657
77.68000 7.118
77.70000 3.328
77.72000 5.097
77.74000 5.621
77.76000 0.661
77.78000 1.011
77.80000 2.302
77.82000 3.300
77.84000 -0.590
77.86000 -2.197
77.88000 2.482
77.90000 4.711
77.92000 4.212
77.94000 2.495
77.96000 -0.986
77.98000 -0.904
78.00000 3.240
78.02000 1.783
78.04000 1.964
78.06000 3.474
78.08000 2.647
78.10000 -0.394
78.12000 -2.187
78.14000 4.987
78.16000 8.583
78.18000 3.159
78.20000 2.360
78.22000 4.079
78.24000 8.095
78.26000 4.887
78.28000 3.253
78.30000 3.778
78.32000 4.148
78.34000 4.224
78.36000 4.275
78.38000 7.802
78.40000 3.559
78.42000 2.800
78.44000 1.807
78.46000 2.701
78.48000 4.581
78.50000 4.234
78.52000 2.682
78.54000 -0.311
78.56000 1.299
78.58000 1.194
78.60000 -0.713
78.62000 2.817
78.64000 5.406
78.66000 5.063
78.68000 -1.809
78.70000 1.328
78.72000 4.097
78.74000 6.828
78.76000 5.242
78.78000 3.382
78.80000 3.548
78.82000 6.619
78.84000 3.202
78.86000 4.267
78.88000 2.417
78.90000 2.791
78.92000 3.531
78.94000 2.407
78.96000 3.330
78.98000 3.938
79.00000 0.540
79.02000 1.171
79.04000 1.052
79.06000 -2.248
79.08000 1.193
79.10000 3.699
79.12000 4.511
79.14000 5.726
79.16000 4.284
79.18000 -1.475
79.20000 -1.054
79.22000 0.834
79.24000 2.681
79.26000 1.794
79.28000 2.075
79.30000 3.126
79.32000 2.637
79.34000 2.167
79.36000 3.690
79.38000 3.532
79.40000 2.122
79.42000 1.908
79.44000 -1.948
79.46000 -0.624
79.48000 3.488
79.50000 2.830
79.52000 2.015
79.54000 0.408
79.56000 -2.261
79.58000 2.472
79.60000 3.266
79.62000 6.126
79.64000 2.485
79.66000 -0.874
79.68000 -1.016
79.70000 2.246
79.72000 2.676
79.74000 0.139
79.76000 5.454
79.78000 4.277
79.80000 2.196
79.82000 4.144
79.84000 1.143
79.86000 0.492
79.88000 -0.718
79.90000 -1.415
79.92000 2.071
79.94000 8.162
79.96000 2.019
79.98000 0.740
80.00000 4.547
80.02000 2.610
80.04000 0.857
80.06000 6.101
80.08000 0.543
80.10000 0.984
80.12000 2.841
80.14000 3.161
80.16000 4.041
80.18000 5.167
80.20000 2.825
80.22000 3.874
80.24000 1.956
80.26000 -0.130
80.28000 1.391
80.30000 5.459
80.32000 8.829
80.34000 5.489
80.36000 0.514
80.38000 -0.314
80.40000 1.545
80.42000 0.780
80.44000 -2.358
80.46000 2.111
80.48000 -0.789
80.50000 0.558
80.52000 2.210
80.54000 5.909
80.56000 2.308
80.58000 3.695
80.60000 5.225
80.62000 3.998
80.64000 2.710
80.66000 -1.471
80.68000 0.043
80.70000 3.663
80.72000 2.035
80.74000 1.654
80.76000 0.340
80.78000 3.730
80.80000 4.055
80.82000 2.016
80.84000 2.792
80.86000 4.990
80.88000 6.693
80.90000 6.775
80.92000 8.093
80.94000 1.297
80.96000 1.684
80.98000 2.161
81.00000 2.638
81.02000 1.696
81.04000 2.569
81.06000 10.591
81.08000 4.942
81.10000 4.178
81.12000 1.339
81.14000 7.247
81.16000 9.804
81.18000 9.963
81.20000 6.185
81.22000 8.698
81.24000 4.337
81.26000 1.183
81.28000 3.344
81.30000 8.807
81.32000 8.125
81.34000 12.035
81.36000 13.707
81.38000 11.431
81.40000 12.282
81.42000 16.561
81.44000 8.021
81.46000 4.820
81.48000 8.073
81.50000 9.429
81.52000 12.289
81.54000 12.749
81.56000 14.037
81.58000 14.919
81.60000 13.547
81.62000 11.838
81.64000 14.793
81.66000 15.623
81.68000 17.038
81.70000 21.341
81.72000 19.316
81.74000 17.226
81.76000 17.415
81.78000 16.743
81.80000 19.626
81.82000 18.774
81.84000 22.031
81.86000 21.542
81.88000 23.060
81.90000 24.828
81.92000 26.090
81.94000 27.897
81.96000 22.617
81.98000 22.234
82.00000 22.793
82.02000 23.815
82.04000 24.690
82.06000 25.215
82.08000 24.515
82.10000 27.442
82.12000 26.283
82.14000 25.705
82.16000 26.291
82.18000 29.153
82.20000 30.697
82.22000 30.675
82.24000 37.315
82.26000 33.788
82.28000 31.010
82.30000 34.710
82.32000 30.697
82.34000 31.997
82.36000 31.468
82.38000 33.078
82.40000 35.747
82.42000 34.772
82.44000 34.589
82.46000 43.169
82.48000 39.035
82.50000 40.797
82.52000 38.780
82.54000 36.547
82.56000 33.722
82.58000 41.509
82.60000 44.485
82.62000 43.888
82.64000 42.756
82.66000 49.096
82.68000 45.752
82.70000 40.883
82.72000 41.996
82.74000 40.927
82.76000 39.352
82.78000 37.747
82.80000 42.736
82.82000 42.694
82.84000 42.106
82.86000 38.838
82.88000 37.949
82.90000 34.880
82.92000 37.335
82.94000 39.043
82.96000 37.200
82.98000 32.973
83.00000 31.099
83.02000 38.191
83.04000 35.863
83.06000 32.261
83.08000 28.294
83.10000 32.029
83.12000 26.478
83.14000 30.945
83.16000 28.591
83.18000 27.734
83.20000 28.396
83.22000 25.800
83.24000 27.207
83.26000 24.900
83.28000 18.621
83.30000 22.224
83.32000 25.433
83.34000 21.860
83.36000 18.909
83.38000 21.134
83.40000 14.639
83.42000 10.803
83.44000 10.762
83.46000 17.054
83.48000 22.091
83.50000 16.821
83.52000 11.650
83.54000 9.630
83.56000 8.798
83.58000 10.188
83.60000 11.199
83.62000 8.279
83.64000 7.733
83.66000 6.430
83.68000 9.047
83.70000 7.234
83.72000 9.117
83.74000 10.229
83.76000 5.277
83.78000 5.622
83.80000 8.867
83.82000 9.641
83.84000 4.552
83.86000 5.512
83.88000 6.349
83.90000 6.305
83.92000 3.598
83.94000 0.912
83.96000 1.533
83.98000 3.933
84.00000 4.709
84.02000 3.652
84.04000 2.260
84.06000 3.680
84.08000 3.417
84.10000 2.775
84.12000 -1.046
84.14000 3.047
84.16000 4.456
84.18000 2.512
84.20000 -2.385
84.22000 2.891
84.24000 4.447
84.26000 1.612
84.28000 1.820
84.30000 4.864
84.32000 4.826
84.34000 3.225
84.36000 4.246
84.38000 0.558
84.40000 1.231
84.42000 0.828
84.44000 -0.130
84.46000 4.184
84.48000 5.381
84.50000 3.526
84.52000 4.238
84.54000 3.530
84.56000 3.360
84.58000 0.694
84.60000 -0.262
84.62000 3.186
84.64000 0.045
84.66000 2.169
84.68000 -0.226
84.70000 -0.771
84.72000 -2.331
84.74000 0.562
84.76000 3.094
84.78000 4.927
84.80000 4.531
84.82000 3.804
84.84000 3.429
84.86000 6.407
84.88000 3.218
84.90000 1.312
84.92000 -0.309
84.94000 3.807
84.96000 1.844
84.98000 0.152
85.00000 1.645
85.02000 2.050
85.04000 3.430
85.06000 4.470
85.08000 1.927
85.10000 0.276
85.12000 3.614
85.14000 5.398
85.16000 4.629
85.18000 1.818
85.20000 2.660
85.22000 2.582
85.24000 -0.932
85.26000 -1.854
85.28000 1.825
85.30000 6.489
85.32000 -1.679
85.34000 -2.327
85.36000 -0.287
85.38000 2.002
85.40000 1.662
85.42000 -2.290
85.44000 -0.541
85.46000 2.132
85.48000 1.136
85.50000 0.301
85.52000 2.191
85.54000 8.132
85.56000 6.262
85.58000 4.252
85.60000 8.031
85.62000 7.707
85.64000 2.364
85.66000 4.139
85.68000 3.802
85.70000 1.809
85.72000 0.803
85.74000 3.442
85.76000 1.579
85.78000 -0.552
85.80000 4.991
85.82000 1.347
85.84000 0.444
85.86000 6.499
85.88000 6.158
85.90000 4.650
85.92000 2.068
85.94000 2.688
85.96000 6.002
85.98000 6.078
86.00000 5.126
86.02000 7.261
86.04000 4.631
86.06000 7.752
86.08000 10.987
86.10000 7.467
86.12000 9.211
86.14000 11.143
86.16000 10.165
86.18000 7.161
86.20000 7.132
86.22000 11.125
86.24000 10.675
86.26000 13.607
86.28000 12.384
86.30000 14.036
86.32000 15.338
86.34000 19.751
86.36000 16.406
86.38000 16.667
86.40000 17.640
86.42000 16.376
86.44000 12.218
86.46000 12.874
86.48000 12.027
86.50000 9.930
86.52000 12.855
86.54000 16.527
86.56000 19.797
86.58000 19.685
86.60000 21.840
86.62000 22.229
86.64000 24.842
86.66000 23.982
86.68000 26.876
86.70000 23.652
86.72000 20.236
86.74000 24.697
86.76000 28.326
86.78000 25.584
86.80000 23.739
86.82000 23.938
86.84000 31.187
86.86000 28.501
86.88000 27.908
86.90000 25.567
86.92000 21.922
86.94000 22.677
86.96000 20.148
86.98000 22.960
87.00000 23.454
87.02000 24.676
87.04000 25.429
87.06000 23.338
87.08000 23.556
87.10000 28.016
87.12000 28.751
87.14000 24.502
87.16000 23.191
87.18000 20.131
87.20000 19.616
87.22000 22.253
87.24000 27.170
87.26000 23.525
87.28000 19.051
87.30000 18.703
87.32000 19.842
87.34000 20.369
87.36000 17.903
87.38000 14.269
87.40000 18.499
87.42000 16.634
87.44000 22.169
87.46000 14.934
87.48000 10.317
87.50000 12.426
87.52000 16.092
87.54000 14.649
87.56000 11.801
87.58000 8.305
87.60000 11.059
87.62000 16.636
87.64000 16.884
87.66000 9.600
87.68000 6.626
87.70000 4.817
87.72000 7.403
87.74000 8.071
87.76000 7.078
87.78000 7.841
87.80000 10.525
87.82000 6.981
87.84000 6.736
87.86000 8.000
87.88000 6.856
87.90000 6.734
87.92000 5.740
87.94000 5.515
87.96000 7.293
87.98000 5.453
88.00000 -0.084
88.02000 5.233
88.04000 6.610
88.06000 5.448
88.08000 5.000
88.10000 7.435
88.12000 4.791
88.14000 2.253
88.16000 1.543
88.18000 2.029
88.20000 4.474
88.22000 3.645
88.24000 0.305
88.26000 4.341
88.28000 4.922
88.30000 3.073
88.32000 -0.277
88.34000 -2.210
88.36000 1.925
88.38000 3.816
88.40000 -0.676
88.42000 2.554
88.44000 4.505
88.46000 -0.260
88.48000 0.191
88.50000 1.858
88.52000 1.504
88.54000 2.797
88.56000 0.168
88.58000 -0.926
88.60000 -2.176
88.62000 0.233
88.64000 2.882
88.66000 4.042
88.68000 1.644
88.70000 2.004
88.72000 -0.788
88.74000 0.573
88.76000 4.958
88.78000 3.466
88.80000 1.990
88.82000 3.202
88.84000 2.095
88.86000 -0.048
88.88000 6.763
88.90000 9.092
88.92000 3.122
88.94000 1.834
88.96000 1.780
88.98000 4.033
89.00000 2.584
89.02000 2.102
89.04000 0.045
89.06000 1.561
89.08000 4.072
89.10000 0.674
89.12000 0.324
89.14000 0.184
89.16000 2.673
89.18000 1.741
89.20000 3.819
89.22000 3.654
89.24000 4.111
89.26000 4.973
89.28000 5.423
89.30000 8.288
89.32000 5.696
89.34000 6.304
89.36000 3.994
89.38000 1.448
89.40000 2.009
89.42000 3.546
89.44000 5.468
89.46000 5.774
89.48000 5.860
89.50000 3.545
89.52000 7.091
89.54000 4.568
89.56000 1.450
89.58000 3.064
89.60000 4.408
89.62000 -2.026
89.64000 1.403
89.66000 1.640
89.68000 2.075
89.70000 5.100
89.72000 5.749
89.74000 5.670
89.76000 6.812
89.78000 0.452
89.80000 1.475
89.82000 2.104
89.84000 2.871
89.86000 0.165
89.88000 0.411
89.90000 -1.500
89.92000 -1.178
89.94000 2.056
89.96000 4.865
89.98000 5.429
90.00000 2.650
90.02000 1.852
90.04000 3.944
90.06000 2.682
90.08000 4.246
90.10000 7.236
90.12000 5.045
90.14000 1.454
90.16000 -0.521
90.18000 -0.061
90.20000 1.879
90.22000 4.726
90.24000 1.888
90.26000 3.276
90.28000 6.377
90.30000 6.905
90.32000 2.428
90.34000 0.113
90.36000 0.907
90.38000 -1.325
90.40000 1.559
90.42000 -2.085
90.44000 0.095
90.46000 3.559
90.48000 2.624
90.50000 -1.817
90.52000 -0.628
90.54000 0.746
90.56000 0.826
90.58000 1.376
90.60000 0.248
90.62000 2.226
90.64000 2.562
90.66000 3.268
90.68000 1.854
90.70000 1.514
90.72000 2.169
90.74000 2.901
90.76000 3.114
90.78000 1.985
90.80000 3.062
90.82000 5.378
90.84000 4.657
90.86000 -0.089
90.88000 -0.549
90.90000 0.265
90.92000 -0.194
90.94000 1.962
90.96000 0.864
90.98000 -0.520
91.00000 -0.388
91.02000 3.110
91.04000 3.468
91.06000 2.516
91.08000 2.887
91.10000 4.741
91.12000 3.593
91.14000 1.937
91.16000 0.984
91.18000 4.526
91.20000 5.855
91.22000 -0.966
91.24000 -2.091
91.26000 -0.455
91.28000 0.524
91.30000 3.571
91.32000 3.418
91.34000 0.812
91.36000 2.711
91.38000 1.051
91.40000 1.931
91.42000 0.145
91.44000 1.628
91.46000 -0.286
91.48000 -1.710
91.50000 5.443
91.52000 6.037
91.54000 -0.275
91.56000 -1.836
91.58000 2.071
91.60000 0.373
91.62000 2.970
91.64000 5.674
91.66000 3.168
91.68000 2.079
91.70000 3.593
91.72000 3.268
91.74000 -0.102
91.76000 2.941
91.78000 0.195
91.80000 -1.718
91.82000 -1.202
91.84000 -1.521
91.86000 3.845
91.88000 4.788
91.90000 -0.585
91.92000 1.509
91.94000 0.655
91.96000 -1.355
91.98000 -1.310
92.00000 -1.221
92.02000 1.887
92.04000 0.679
92.06000 3.456
92.08000 3.665
92.10000 0.547
92.12000 2.251
92.14000 0.914
92.16000 1.068
92.18000 4.314
92.20000 1.817
92.22000 -1.182
92.24000 -2.084
92.26000 2.121
92.28000 1.176
92.30000 2.376
92.32000 4.031
92.34000 2.622
92.36000 4.810
92.38000 6.451
92.40000 6.763
92.42000 7.607
92.44000 1.166
92.46000 0.527
92.48000 -1.233
92.50000 0.238
92.52000 2.039
92.54000 5.879
92.56000 8.449
92.58000 9.412
92.60000 8.985
92.62000 4.547
92.64000 1.100
92.66000 -0.588
92.68000 1.151
92.70000 4.317
92.72000 5.729
92.74000 6.698
92.76000 3.451
92.78000 3.259
92.80000 0.440
92.82000 0.175
92.84000 -0.843
92.86000 -0.656
92.88000 1.091
92.90000 3.214
92.92000 5.029
92.94000 1.327
92.96000 4.727
92.98000 4.638
93.00000 5.839
93.02000 3.374
93.04000 3.006
93.06000 4.756
93.08000 5.126
93.10000 6.764
93.12000 3.591
93.14000 2.525
93.16000 -2.068
93.18000 0.609
93.20000 5.671
93.22000 3.179
93.24000 -0.748
93.26000 0.841
93.28000 1.654
93.30000 -0.936
93.32000 2.395
93.34000 5.327
93.36000 2.435
93.38000 2.525
93.40000 3.330
93.42000 7.156
93.44000 5.392
93.46000 5.171
93.48000 5.847
93.50000 5.723
93.52000 1.336
93.54000 3.579
93.56000 2.700
93.58000 3.180
93.60000 2.771
93.62000 -0.394
93.64000 1.783
93.66000 0.922
93.68000 -0.137
93.70000 2.268
93.72000 2.597
93.74000 -2.089
93.76000 1.923
93.78000 4.472
93.80000 3.347
93.82000 2.399
93.84000 3.107
93.86000 1.430
93.88000 -0.366
93.90000 5.123
93.92000 1.887
93.94000 3.942
93.96000 4.236
93.98000 5.932
94.00000 1.214
94.02000 2.638
94.04000 7.226
94.06000 5.419
94.08000 3.259
94.10000 3.521
94.12000 7.699
94.14000 5.488
94.16000 4.098
94.18000 4.818
94.20000 2.906
94.22000 -0.800
94.24000 -2.097
94.26000 1.486
94.28000 2.965
94.30000 2.469
94.32000 1.768
94.34000 1.926
94.36000 2.166
94.38000 -1.875
94.40000 0.420
94.42000 2.161
94.44000 3.050
94.46000 3.269
94.48000 5.792
94.50000 3.493
94.52000 2.179
94.54000 6.810
94.56000 2.949
94.58000 -1.694
94.60000 2.784
94.62000 0.635
94.64000 2.714
94.66000 4.131
94.68000 4.740
94.70000 0.564
94.72000 -1.497
94.74000 -1.405
94.76000 -0.139
94.78000 3.810
94.80000 6.116
94.82000 3.666
94.84000 6.135
94.86000 5.388
94.88000 3.024
94.90000 5.159
94.92000 1.582
94.94000 -0.831
94.96000 -1.376
94.98000 1.737
95.00000 6.571
95.02000 4.187
95.04000 7.552
95.06000 4.862
95.08000 2.924
95.10000 -2.109
95.12000 0.702
95.14000 4.640
95.16000 3.199
95.18000 -1.702
95.20000 0.595
95.22000 -0.309
95.24000 1.234
95.26000 4.582
95.28000 3.359
95.30000 2.886
95.32000 9.754
95.34000 2.464
95.36000 2.453
95.38000 3.408
95.40000 4.962
95.42000 3.921
95.44000 3.590
95.46000 6.363
95.48000 8.828
95.50000 5.118
95.52000 0.810
95.54000 3.082
95.56000 2.611
95.58000 1.519
95.60000 2.951
95.62000 -0.108
95.64000 3.207
95.66000 3.803
95.68000 4.669
95.70000 3.958
95.72000 2.502
95.74000 4.000
95.76000 3.178
95.78000 2.762
95.80000 3.613
95.82000 6.982
95.84000 7.850
95.86000 0.880
95.88000 1.909
95.90000 5.494
95.92000 3.787
95.94000 4.245
95.96000 1.588
95.98000 -2.066
96.00000 -0.243
96.02000 1.535
96.04000 7.386
96.06000 6.110
96.08000 0.218
96.10000 0.380
96.12000 3.018
96.14000 3.871
96.16000 9.924
96.18000 8.823
96.20000 7.970
96.22000 5.828
96.24000 3.200
96.26000 4.251
96.28000 1.141
96.30000 3.928
96.32000 2.979
96.34000 0.141
96.36000 -1.254
96.38000 -0.787
96.40000 0.451
96.42000 0.650
96.44000 3.714
96.46000 0.169
96.48000 1.968
96.50000 6.368
96.52000 1.029
96.54000 -0.748
96.56000 2.874
96.58000 5.390
96.60000 7.421
96.62000 2.595
96.64000 0.592
96.66000 1.950
96.68000 -1.479
96.70000 -0.125
96.72000 1.249
96.74000 6.016
96.76000 5.208
96.78000 1.835
96.80000 1.321
96.82000 0.607
96.84000 0.149
96.86000 1.667
96.88000 4.359
96.90000 7.327
96.92000 6.028
96.94000 0.637
96.96000 2.202
96.98000 7.818
97.00000 6.089
97.02000 4.011
97.04000 5.130
97.06000 4.571
97.08000 1.532
97.10000 2.955
97.12000 1.064
97.14000 1.073
97.16000 -2.048
97.18000 0.573
97.20000 7.293
97.22000 10.513
97.24000 6.389
97.26000 5.536
97.28000 -0.051
97.30000 1.868
97.32000 1.686
97.34000 6.789
97.36000 8.521
97.38000 9.136
97.40000 10.913
97.42000 9.653
97.44000 6.208
97.46000 5.139
97.48000 4.391
97.50000 6.750
97.52000 -2.046
97.54000 0.449
97.56000 9.213
97.58000 10.725
97.60000 6.498
97.62000 1.587
97.64000 0.907
97.66000 2.414
97.68000 7.235
97.70000 11.137
97.72000 8.421
97.74000 5.935
97.76000 4.136
97.78000 -0.898
97.80000 2.652
97.82000 3.341
97.84000 4.394
97.86000 0.309
97.88000 5.871
97.90000 3.148
97.92000 9.101
97.94000 6.189
97.96000 7.286
97.98000 4.084
98.00000 6.477
98.02000 2.652
98.04000 8.972
98.06000 7.468
98.08000 6.595
98.10000 8.192
98.12000 5.974
98.14000 4.308
98.16000 5.681
98.18000 11.182
98.20000 10.657
98.22000 4.041
98.24000 4.858
98.26000 3.095
98.28000 4.023
98.30000 4.590
98.32000 4.898
98.34000 -0.047
98.36000 3.857
98.38000 -1.994
98.40000 -0.897
98.42000 1.539
98.44000 12.191
98.46000 6.246
98.48000 4.242
98.50000 12.059
98.52000 13.873
98.54000 8.608
98.56000 3.568
98.58000 -0.929
98.60000 4.079
98.62000 7.617
98.64000 3.458
98.66000 6.973
98.68000 7.642
98.70000 7.496
98.72000 9.066
98.74000 6.463
98.76000 5.208
98.78000 4.665
98.80000 9.657
98.82000 5.278
98.84000 3.346
98.86000 7.948
98.88000 6.430
98.90000 1.465
98.92000 3.531
98.94000 6.283
98.96000 11.153
98.98000 3.235
99.00000 1.466
99.02000 2.710
99.04000 0.689
99.06000 8.599
99.08000 10.948
99.10000 10.817
99.12000 8.774
99.14000 8.464
99.16000 -1.569
99.18000 4.200
99.20000 8.356
99.22000 5.953
99.24000 6.490
99.26000 5.614
99.28000 10.600
99.30000 10.460
99.32000 8.018
99.34000 5.095
99.36000 6.662
99.38000 10.123
99.40000 7.206
99.42000 5.481
99.44000 -1.366
99.46000 -0.835
99.48000 -2.000
99.50000 3.793
99.52000 7.231
99.54000 5.111
99.56000 8.276
99.58000 1.901
99.60000 -0.758
99.62000 1.020
99.64000 9.551
99.66000 3.541
99.68000 -1.978
99.70000 -0.500
99.72000 2.690
99.74000 11.925
99.76000 13.367
99.78000 6.933
99.80000 -2.082
99.82000 2.653
99.84000 1.035
99.86000 9.383
99.88000 -0.949
99.90000 7.748
99.92000 -2.207
99.94000 0.304
99.96000 7.297
99.98000 0.000
