'Id: "0011388" Comment: "Integrate frame 0011388_Au-Ir-Rh_Rh-rich_XRD-Mapping-048-0000.gfrmwith cursor Wedge Cursor #5" Operator: "B?rgel" Anode: "Cu" Wavelength: "1.5406" Scantype: "2Theta (TwoTheta)" TimePerStep: "1" X: "4.5" Y: "-27" Z: "5.95" 
10.00000 0.000
10.02000 -4.118
10.04000 -3.687
10.06000 7.042
10.08000 18.694
10.10000 5.241
10.12000 14.573
10.14000 20.489
10.16000 25.088
10.18000 18.846
10.20000 15.287
10.22000 12.166
10.24000 17.159
10.26000 21.922
10.28000 21.016
10.30000 26.550
10.32000 18.744
10.34000 21.414
10.36000 19.689
10.38000 3.487
10.40000 19.183
10.42000 29.482
10.44000 25.040
10.46000 22.176
10.48000 36.261
10.50000 17.930
10.52000 4.749
10.54000 -1.826
10.56000 -4.118
10.58000 14.038
10.60000 12.934
10.62000 15.636
10.64000 20.376
10.66000 18.515
10.68000 11.844
10.70000 14.520
10.72000 16.975
10.74000 23.118
10.76000 19.709
10.78000 12.088
10.80000 3.396
10.82000 8.163
10.84000 12.653
10.86000 20.117
10.88000 26.796
10.90000 23.520
10.92000 17.149
10.94000 13.730
10.96000 15.983
10.98000 -3.833
11.00000 12.202
11.02000 14.222
11.04000 21.652
11.06000 30.741
11.08000 18.631
11.10000 15.927
11.12000 15.532
11.14000 15.985
11.16000 15.198
11.18000 14.633
11.20000 19.822
11.22000 23.747
11.24000 27.507
11.26000 29.308
11.28000 13.719
11.30000 4.327
11.32000 11.336
11.34000 17.585
11.36000 10.140
11.38000 15.766
11.40000 15.741
11.42000 19.795
11.44000 26.460
11.46000 10.375
11.48000 7.536
11.50000 11.180
11.52000 22.186
11.54000 22.587
11.56000 14.639
11.58000 18.886
11.60000 15.083
11.62000 10.657
11.64000 18.342
11.66000 20.085
11.68000 15.368
11.70000 4.047
11.72000 -0.692
11.74000 8.134
11.76000 8.888
11.78000 10.290
11.80000 8.481
11.82000 16.594
11.84000 10.329
11.86000 12.229
11.88000 15.244
11.90000 18.947
11.92000 15.396
11.94000 15.355
11.96000 11.502
11.98000 8.822
12.00000 17.593
12.02000 23.714
12.04000 14.814
12.06000 13.359
12.08000 6.138
12.10000 15.566
12.12000 16.208
12.14000 13.745
12.16000 19.658
12.18000 19.097
12.20000 14.085
12.22000 8.079
12.24000 18.174
12.26000 32.588
12.28000 19.761
12.30000 13.488
12.32000 10.375
12.34000 18.809
12.36000 13.787
12.38000 2.696
12.40000 3.168
12.42000 12.052
12.44000 21.052
12.46000 26.681
12.48000 29.268
12.50000 22.318
12.52000 10.380
12.54000 12.280
12.56000 15.828
12.58000 21.795
12.60000 27.256
12.62000 22.540
12.64000 15.884
12.66000 19.514
12.68000 18.736
12.70000 13.497
12.72000 7.527
12.74000 17.756
12.76000 9.728
12.78000 13.877
12.80000 17.979
12.82000 20.287
12.84000 28.137
12.86000 14.392
12.88000 8.986
12.90000 15.866
12.92000 12.245
12.94000 17.888
12.96000 21.577
12.98000 18.935
13.00000 20.249
13.02000 20.858
13.04000 8.262
13.06000 6.575
13.08000 9.017
13.10000 7.252
13.12000 16.733
13.14000 27.135
13.16000 26.297
13.18000 21.544
13.20000 21.001
13.22000 10.432
13.24000 11.273
13.26000 12.927
13.28000 16.666
13.30000 14.447
13.32000 6.544
13.34000 13.289
13.36000 18.353
13.38000 14.335
13.40000 15.216
13.42000 17.055
13.44000 10.853
13.46000 10.898
13.48000 8.366
13.50000 10.081
13.52000 14.026
13.54000 16.471
13.56000 17.694
13.58000 18.347
13.60000 24.626
13.62000 17.069
13.64000 18.442
13.66000 7.842
13.68000 14.237
13.70000 16.376
13.72000 21.114
13.74000 21.793
13.76000 17.181
13.78000 10.210
13.80000 9.025
13.82000 5.539
13.84000 4.237
13.86000 4.366
13.88000 7.976
13.90000 14.927
13.92000 11.826
13.94000 11.063
13.96000 13.051
13.98000 11.187
14.00000 6.168
14.02000 5.560
14.04000 9.341
14.06000 5.831
14.08000 5.687
14.10000 10.423
14.12000 23.079
14.14000 18.515
14.16000 15.675
14.18000 2.158
14.20000 2.127
14.22000 11.068
14.24000 9.242
14.26000 17.053
14.28000 18.881
14.30000 17.635
14.32000 20.784
14.34000 9.279
14.36000 14.756
14.38000 14.504
14.40000 12.317
14.42000 13.073
14.44000 9.441
14.46000 5.438
14.48000 14.460
14.50000 8.172
14.52000 9.533
14.54000 1.974
14.56000 -3.402
14.58000 7.732
14.60000 10.108
14.62000 9.112
14.64000 10.781
14.66000 21.497
14.68000 17.751
14.70000 22.037
14.72000 13.264
14.74000 13.509
14.76000 9.391
14.78000 4.966
14.80000 6.630
14.82000 13.142
14.84000 16.039
14.86000 4.141
14.88000 -4.418
14.90000 3.302
14.92000 13.340
14.94000 16.992
14.96000 7.815
14.98000 6.382
15.00000 14.106
15.02000 9.884
15.04000 11.002
15.06000 10.913
15.08000 17.178
15.10000 2.443
15.12000 0.036
15.14000 5.116
15.16000 9.812
15.18000 15.425
15.20000 11.134
15.22000 12.518
15.24000 5.190
15.26000 2.011
15.28000 -1.255
15.30000 8.532
15.32000 20.691
15.34000 10.377
15.36000 15.164
15.38000 16.676
15.40000 14.501
15.42000 18.666
15.44000 20.532
15.46000 11.624
15.48000 9.433
15.50000 7.870
15.52000 11.565
15.54000 1.266
15.56000 4.006
15.58000 2.967
15.60000 2.284
15.62000 18.182
15.64000 9.282
15.66000 8.017
15.68000 5.205
15.70000 9.372
15.72000 8.376
15.74000 6.037
15.76000 11.212
15.78000 12.407
15.80000 11.186
15.82000 14.537
15.84000 15.064
15.86000 7.087
15.88000 -4.395
15.90000 1.292
15.92000 0.523
15.94000 2.958
15.96000 12.187
15.98000 16.057
16.00000 13.322
16.02000 8.682
16.04000 4.690
16.06000 1.618
16.08000 8.944
16.10000 2.435
16.12000 1.789
16.14000 2.379
16.16000 -1.554
16.18000 5.339
16.20000 11.610
16.22000 1.396
16.24000 -1.685
16.26000 2.840
16.28000 12.398
16.30000 13.218
16.32000 14.488
16.34000 8.827
16.36000 4.220
16.38000 2.540
16.40000 4.991
16.42000 9.751
16.44000 15.714
16.46000 8.147
16.48000 19.390
16.50000 21.484
16.52000 22.119
16.54000 9.690
16.56000 4.885
16.58000 3.820
16.60000 10.996
16.62000 14.912
16.64000 18.950
16.66000 15.721
16.68000 9.916
16.70000 10.403
16.72000 6.255
16.74000 9.338
16.76000 5.513
16.78000 9.850
16.80000 3.062
16.82000 2.527
16.84000 6.215
16.86000 9.068
16.88000 6.649
16.90000 1.513
16.92000 0.438
16.94000 4.804
16.96000 0.295
16.98000 -4.359
17.00000 5.531
17.02000 2.471
17.04000 4.251
17.06000 5.092
17.08000 4.215
17.10000 9.922
17.12000 16.704
17.14000 3.614
17.16000 6.432
17.18000 10.819
17.20000 12.566
17.22000 16.483
17.24000 14.510
17.26000 6.882
17.28000 4.172
17.30000 7.372
17.32000 3.651
17.34000 1.754
17.36000 -1.771
17.38000 3.577
17.40000 9.030
17.42000 8.455
17.44000 9.840
17.46000 -1.920
17.48000 5.441
17.50000 7.635
17.52000 8.464
17.54000 16.483
17.56000 12.217
17.58000 9.348
17.60000 12.359
17.62000 16.928
17.64000 14.361
17.66000 13.255
17.68000 10.363
17.70000 7.356
17.72000 10.368
17.74000 10.828
17.76000 13.561
17.78000 11.658
17.80000 3.916
17.82000 -3.196
17.84000 -2.068
17.86000 1.616
17.88000 6.850
17.90000 15.255
17.92000 10.934
17.94000 3.551
17.96000 -3.382
17.98000 -2.842
18.00000 2.552
18.02000 7.304
18.04000 9.994
18.06000 7.571
18.08000 11.089
18.10000 14.919
18.12000 9.792
18.14000 5.482
18.16000 2.840
18.18000 0.206
18.20000 3.135
18.22000 4.316
18.24000 0.233
18.26000 -0.944
18.28000 1.291
18.30000 3.016
18.32000 3.005
18.34000 5.793
18.36000 7.643
18.38000 3.485
18.40000 3.886
18.42000 1.782
18.44000 -3.789
18.46000 5.300
18.48000 10.252
18.50000 11.961
18.52000 9.031
18.54000 2.714
18.56000 6.824
18.58000 9.086
18.60000 10.789
18.62000 11.037
18.64000 7.212
18.66000 8.097
18.68000 6.449
18.70000 7.446
18.72000 6.598
18.74000 3.403
18.76000 4.309
18.78000 2.184
18.80000 6.324
18.82000 9.684
18.84000 8.433
18.86000 5.564
18.88000 4.537
18.90000 4.449
18.92000 7.060
18.94000 -2.836
18.96000 -4.253
18.98000 0.285
19.00000 3.504
19.02000 3.500
19.04000 3.658
19.06000 6.861
19.08000 6.603
19.10000 5.226
19.12000 0.408
19.14000 5.544
19.16000 6.099
19.18000 2.164
19.20000 1.060
19.22000 2.999
19.24000 6.588
19.26000 0.911
19.28000 3.514
19.30000 6.806
19.32000 12.944
19.34000 8.292
19.36000 6.293
19.38000 6.344
19.40000 7.343
19.42000 10.470
19.44000 11.333
19.46000 14.645
19.48000 15.412
19.50000 12.847
19.52000 10.272
19.54000 12.555
19.56000 7.875
19.58000 4.701
19.60000 9.329
19.62000 6.988
19.64000 8.877
19.66000 12.143
19.68000 5.847
19.70000 5.816
19.72000 1.584
19.74000 3.123
19.76000 5.534
19.78000 8.859
19.80000 14.027
19.82000 10.200
19.84000 7.219
19.86000 5.058
19.88000 1.548
19.90000 4.843
19.92000 9.084
19.94000 5.641
19.96000 9.317
19.98000 10.282
20.00000 6.346
20.02000 2.740
20.04000 1.534
20.06000 -4.169
20.08000 1.320
20.10000 7.878
20.12000 10.049
20.14000 8.661
20.16000 9.800
20.18000 4.195
20.20000 4.326
20.22000 3.360
20.24000 6.891
20.26000 7.137
20.28000 13.445
20.30000 13.734
20.32000 3.699
20.34000 7.648
20.36000 11.811
20.38000 6.782
20.40000 4.223
20.42000 0.010
20.44000 0.213
20.46000 3.322
20.48000 2.372
20.50000 4.831
20.52000 11.810
20.54000 14.506
20.56000 13.945
20.58000 7.460
20.60000 8.469
20.62000 4.962
20.64000 3.435
20.66000 4.480
20.68000 9.736
20.70000 7.370
20.72000 5.802
20.74000 8.705
20.76000 10.781
20.78000 12.797
20.80000 15.819
20.82000 9.564
20.84000 1.483
20.86000 1.875
20.88000 7.217
20.90000 7.667
20.92000 7.237
20.94000 11.750
20.96000 3.883
20.98000 3.762
21.00000 6.250
21.02000 11.389
21.04000 10.021
21.06000 0.988
21.08000 4.613
21.10000 3.102
21.12000 1.505
21.14000 5.512
21.16000 8.998
21.18000 3.553
21.20000 2.769
21.22000 7.288
21.24000 5.149
21.26000 8.947
21.28000 6.282
21.30000 6.637
21.32000 8.084
21.34000 12.112
21.36000 2.354
21.38000 -4.130
21.40000 5.324
21.42000 8.921
21.44000 6.928
21.46000 6.696
21.48000 6.456
21.50000 7.436
21.52000 7.694
21.54000 2.796
21.56000 10.395
21.58000 11.578
21.60000 5.323
21.62000 6.459
21.64000 9.739
21.66000 7.659
21.68000 7.505
21.70000 7.309
21.72000 3.891
21.74000 3.166
21.76000 2.341
21.78000 2.627
21.80000 2.660
21.82000 -4.105
21.84000 -0.798
21.86000 6.751
21.88000 7.212
21.90000 5.462
21.92000 1.494
21.94000 5.641
21.96000 4.511
21.98000 1.147
22.00000 0.664
22.02000 0.179
22.04000 0.527
22.06000 7.761
22.08000 5.151
22.10000 2.644
22.12000 2.400
22.14000 -0.224
22.16000 3.841
22.18000 6.281
22.20000 2.222
22.22000 6.871
22.24000 8.196
22.26000 8.987
22.28000 4.277
22.30000 0.466
22.32000 2.484
22.34000 4.391
22.36000 0.020
22.38000 -0.604
22.40000 2.634
22.42000 1.065
22.44000 2.713
22.46000 10.171
22.48000 9.250
22.50000 4.509
22.52000 0.616
22.54000 6.740
22.56000 1.420
22.58000 3.947
22.60000 2.415
22.62000 5.856
22.64000 7.604
22.66000 7.248
22.68000 10.368
22.70000 9.080
22.72000 12.096
22.74000 8.871
22.76000 -2.072
22.78000 -4.051
22.80000 2.730
22.82000 7.239
22.84000 0.399
22.86000 1.287
22.88000 8.390
22.90000 4.154
22.92000 1.684
22.94000 1.870
22.96000 7.707
22.98000 6.711
23.00000 0.882
23.02000 -3.188
23.04000 3.316
23.06000 -0.733
23.08000 4.579
23.10000 7.802
23.12000 3.203
23.14000 11.155
23.16000 9.700
23.18000 1.299
23.20000 -1.513
23.22000 -0.037
23.24000 4.394
23.26000 2.062
23.28000 0.124
23.30000 2.112
23.32000 6.895
23.34000 6.455
23.36000 8.243
23.38000 6.829
23.40000 1.823
23.42000 -0.498
23.44000 3.548
23.46000 4.340
23.48000 -0.585
23.50000 -1.784
23.52000 5.239
23.54000 10.120
23.56000 10.518
23.58000 7.167
23.60000 6.384
23.62000 4.170
23.64000 0.773
23.66000 4.945
23.68000 4.640
23.70000 3.648
23.72000 0.075
23.74000 -2.735
23.76000 -0.881
23.78000 2.343
23.80000 3.539
23.82000 3.082
23.84000 -2.630
23.86000 -0.779
23.88000 2.603
23.90000 0.672
23.92000 3.250
23.94000 5.091
23.96000 6.550
23.98000 8.850
24.00000 2.182
24.02000 -4.002
24.04000 1.256
24.06000 -2.409
24.08000 -0.384
24.10000 -1.062
24.12000 0.050
24.14000 7.398
24.16000 10.090
24.18000 7.888
24.20000 3.682
24.22000 1.716
24.24000 3.376
24.26000 2.376
24.28000 2.159
24.30000 1.261
24.32000 -1.039
24.34000 4.278
24.36000 1.555
24.38000 -0.348
24.40000 7.102
24.42000 5.717
24.44000 4.330
24.46000 11.950
24.48000 17.555
24.50000 7.723
24.52000 -1.354
24.54000 0.260
24.56000 1.457
24.58000 3.032
24.60000 2.409
24.62000 1.702
24.64000 -1.880
24.66000 -0.499
24.68000 -3.030
24.70000 4.666
24.72000 1.130
24.74000 -0.289
24.76000 -2.463
24.78000 1.190
24.80000 1.771
24.82000 1.981
24.84000 4.661
24.86000 4.592
24.88000 1.432
24.90000 3.697
24.92000 7.409
24.94000 3.893
24.96000 1.466
24.98000 1.176
25.00000 -1.912
25.02000 -2.459
25.04000 1.942
25.06000 1.611
25.08000 6.589
25.10000 7.344
25.12000 2.892
25.14000 -2.392
25.16000 2.777
25.18000 -3.925
25.20000 1.721
25.22000 2.852
25.24000 1.638
25.26000 0.489
25.28000 2.242
25.30000 3.380
25.32000 1.856
25.34000 1.682
25.36000 4.151
25.38000 6.571
25.40000 6.614
25.42000 2.763
25.44000 -1.081
25.46000 2.964
25.48000 1.756
25.50000 1.184
25.52000 5.286
25.54000 2.969
25.56000 1.625
25.58000 -2.005
25.60000 0.791
25.62000 0.497
25.64000 4.832
25.66000 3.493
25.68000 2.575
25.70000 3.231
25.72000 7.715
25.74000 6.252
25.76000 3.302
25.78000 1.415
25.80000 0.970
25.82000 3.066
25.84000 3.847
25.86000 -0.203
25.88000 2.408
25.90000 5.845
25.92000 4.414
25.94000 0.209
25.96000 1.183
25.98000 -0.297
26.00000 2.464
26.02000 2.942
26.04000 0.661
26.06000 -3.820
26.08000 5.364
26.10000 7.971
26.12000 5.581
26.14000 3.578
26.16000 6.436
26.18000 3.063
26.20000 7.264
26.22000 6.531
26.24000 4.013
26.26000 -0.236
26.28000 -1.019
26.30000 2.107
26.32000 3.586
26.34000 3.425
26.36000 5.775
26.38000 5.763
26.40000 6.506
26.42000 3.122
26.44000 -1.318
26.46000 0.357
26.48000 7.688
26.50000 7.794
26.52000 3.874
26.54000 5.645
26.56000 1.815
26.58000 0.337
26.60000 -0.378
26.62000 5.280
26.64000 7.775
26.66000 4.056
26.68000 0.624
26.70000 3.948
26.72000 2.097
26.74000 3.043
26.76000 3.018
26.78000 8.429
26.80000 6.459
26.82000 1.845
26.84000 4.575
26.86000 1.669
26.88000 3.335
26.90000 7.157
26.92000 2.571
26.94000 -0.750
26.96000 -3.810
26.98000 2.360
27.00000 3.603
27.02000 2.535
27.04000 2.203
27.06000 2.828
27.08000 5.229
27.10000 5.555
27.12000 4.452
27.14000 1.894
27.16000 3.233
27.18000 4.983
27.20000 8.838
27.22000 9.400
27.24000 4.723
27.26000 2.008
27.28000 1.569
27.30000 -2.595
27.32000 0.160
27.34000 5.973
27.36000 7.452
27.38000 9.372
27.40000 9.153
27.42000 4.793
27.44000 1.690
27.46000 5.066
27.48000 7.203
27.50000 12.692
27.52000 7.240
27.54000 6.121
27.56000 5.957
27.58000 0.088
27.60000 3.516
27.62000 4.218
27.64000 5.588
27.66000 0.955
27.68000 2.526
27.70000 2.896
27.72000 6.512
27.74000 5.645
27.76000 3.277
27.78000 6.709
27.80000 4.068
27.82000 0.394
27.84000 0.714
27.86000 7.474
27.88000 6.329
27.90000 4.894
27.92000 3.707
27.94000 1.480
27.96000 2.702
27.98000 8.324
28.00000 7.663
28.02000 2.753
28.04000 -1.341
28.06000 0.732
28.08000 -0.906
28.10000 -2.734
28.12000 -0.018
28.14000 -2.189
28.16000 0.394
28.18000 1.617
28.20000 3.716
28.22000 8.010
28.24000 1.510
28.26000 -1.319
28.28000 -0.488
28.30000 -2.844
28.32000 -0.616
28.34000 2.181
28.36000 0.806
28.38000 4.500
28.40000 3.020
28.42000 5.654
28.44000 3.095
28.46000 -3.061
28.48000 -1.183
28.50000 0.320
28.52000 5.006
28.54000 0.952
28.56000 -1.278
28.58000 -0.288
28.60000 2.794
28.62000 2.615
28.64000 5.391
28.66000 5.404
28.68000 1.917
28.70000 3.360
28.72000 3.239
28.74000 2.909
28.76000 4.042
28.78000 3.892
28.80000 7.711
28.82000 3.853
28.84000 3.080
28.86000 3.605
28.88000 -0.282
28.90000 2.864
28.92000 8.313
28.94000 10.477
28.96000 4.729
28.98000 4.855
29.00000 4.463
29.02000 -3.703
29.04000 -1.502
29.06000 1.908
29.08000 4.196
29.10000 8.322
29.12000 7.006
29.14000 9.086
29.16000 2.638
29.18000 3.436
29.20000 0.675
29.22000 2.064
29.24000 4.869
29.26000 2.055
29.28000 -2.164
29.30000 -3.682
29.32000 -1.994
29.34000 2.873
29.36000 2.417
29.38000 1.987
29.40000 2.565
29.42000 0.008
29.44000 0.700
29.46000 5.781
29.48000 9.037
29.50000 7.850
29.52000 8.129
29.54000 6.265
29.56000 4.640
29.58000 6.840
29.60000 11.576
29.62000 10.241
29.64000 6.380
29.66000 4.640
29.68000 10.668
29.70000 10.708
29.72000 4.053
29.74000 3.133
29.76000 8.311
29.78000 8.703
29.80000 4.090
29.82000 3.668
29.84000 0.244
29.86000 4.081
29.88000 5.329
29.90000 5.576
29.92000 -0.564
29.94000 4.667
29.96000 0.807
29.98000 1.981
30.00000 0.840
30.02000 -0.361
30.04000 3.789
30.06000 6.544
30.08000 1.467
30.10000 -1.286
30.12000 -3.665
30.14000 -1.032
30.16000 6.861
30.18000 0.536
30.20000 -2.720
30.22000 0.589
30.24000 1.659
30.26000 0.694
30.28000 2.735
30.30000 3.081
30.32000 3.128
30.34000 1.121
30.36000 6.891
30.38000 4.236
30.40000 -3.656
30.42000 -0.838
30.44000 2.104
30.46000 5.445
30.48000 6.392
30.50000 3.955
30.52000 7.885
30.54000 2.479
30.56000 1.929
30.58000 6.539
30.60000 1.066
30.62000 0.023
30.64000 1.974
30.66000 7.471
30.68000 9.804
30.70000 5.101
30.72000 0.598
30.74000 -1.341
30.76000 1.849
30.78000 -0.133
30.80000 3.629
30.82000 3.775
30.84000 0.195
30.86000 1.960
30.88000 3.346
30.90000 2.921
30.92000 5.285
30.94000 1.863
30.96000 0.189
30.98000 2.700
31.00000 1.647
31.02000 -0.680
31.04000 -0.834
31.06000 2.753
31.08000 5.886
31.10000 -0.291
31.12000 -3.618
31.14000 -0.492
31.16000 2.683
31.18000 2.435
31.20000 2.840
31.22000 9.002
31.24000 6.470
31.26000 9.267
31.28000 7.156
31.30000 4.263
31.32000 2.399
31.34000 0.483
31.36000 0.534
31.38000 4.004
31.40000 5.070
31.42000 2.722
31.44000 1.925
31.46000 6.565
31.48000 10.281
31.50000 11.833
31.52000 6.674
31.54000 8.103
31.56000 2.666
31.58000 0.972
31.60000 2.495
31.62000 1.202
31.64000 2.193
31.66000 2.580
31.68000 6.453
31.70000 6.452
31.72000 4.650
31.74000 3.748
31.76000 0.599
31.78000 2.839
31.80000 2.333
31.82000 0.373
31.84000 -0.015
31.86000 3.866
31.88000 2.372
31.90000 5.169
31.92000 4.306
31.94000 5.796
31.96000 4.128
31.98000 2.408
32.00000 1.484
32.02000 0.575
32.04000 7.031
32.06000 7.179
32.08000 6.752
32.10000 1.997
32.12000 5.452
32.14000 6.424
32.16000 3.490
32.18000 5.780
32.20000 2.717
32.22000 -3.547
32.24000 5.328
32.26000 3.003
32.28000 1.229
32.30000 1.361
32.32000 5.656
32.34000 6.623
32.36000 4.238
32.38000 6.551
32.40000 4.084
32.42000 3.069
32.44000 -0.282
32.46000 -0.791
32.48000 2.641
32.50000 8.239
32.52000 3.404
32.54000 5.927
32.56000 3.632
32.58000 4.637
32.60000 9.712
32.62000 8.566
32.64000 3.658
32.66000 0.604
32.68000 2.841
32.70000 -1.170
32.72000 3.038
32.74000 4.483
32.76000 6.951
32.78000 1.930
32.80000 0.427
32.82000 1.813
32.84000 3.346
32.86000 4.497
32.88000 4.841
32.90000 -1.539
32.92000 -2.412
32.94000 -1.625
32.96000 1.892
32.98000 1.238
33.00000 -0.122
33.02000 5.591
33.04000 8.548
33.06000 7.247
33.08000 4.023
33.10000 4.277
33.12000 3.420
33.14000 2.846
33.16000 3.137
33.18000 3.647
33.20000 5.751
33.22000 4.356
33.24000 5.816
33.26000 2.938
33.28000 1.785
33.30000 -0.176
33.32000 0.291
33.34000 1.297
33.36000 0.677
33.38000 1.431
33.40000 3.578
33.42000 3.277
33.44000 2.845
33.46000 -1.209
33.48000 1.549
33.50000 4.544
33.52000 9.434
33.54000 6.249
33.56000 5.538
33.58000 0.253
33.60000 7.207
33.62000 9.312
33.64000 5.817
33.66000 1.944
33.68000 -0.328
33.70000 2.432
33.72000 2.695
33.74000 7.621
33.76000 10.537
33.78000 7.833
33.80000 6.912
33.82000 2.121
33.84000 1.123
33.86000 5.816
33.88000 7.309
33.90000 9.654
33.92000 9.750
33.94000 6.444
33.96000 2.886
33.98000 1.917
34.00000 2.840
34.02000 1.732
34.04000 4.586
34.06000 2.776
34.08000 -3.506
34.10000 -1.701
34.12000 3.424
34.14000 3.388
34.16000 -0.900
34.18000 -0.984
34.20000 -0.255
34.22000 4.163
34.24000 4.790
34.26000 8.056
34.28000 7.602
34.30000 5.301
34.32000 6.585
34.34000 8.596
34.36000 9.568
34.38000 6.758
34.40000 7.078
34.42000 8.460
34.44000 5.908
34.46000 5.338
34.48000 1.492
34.50000 5.553
34.52000 11.138
34.54000 5.496
34.56000 4.034
34.58000 5.063
34.60000 3.001
34.62000 2.182
34.64000 4.564
34.66000 0.843
34.68000 -3.462
34.70000 1.698
34.72000 6.652
34.74000 6.001
34.76000 3.973
34.78000 6.996
34.80000 8.203
34.82000 5.955
34.84000 3.554
34.86000 2.000
34.88000 5.280
34.90000 3.698
34.92000 4.597
34.94000 7.512
34.96000 8.314
34.98000 3.331
35.00000 11.870
35.02000 5.696
35.04000 2.504
35.06000 1.789
35.08000 1.249
35.10000 2.036
35.12000 0.205
35.14000 0.933
35.16000 2.929
35.18000 3.796
35.20000 0.259
35.22000 2.483
35.24000 -2.573
35.26000 -3.064
35.28000 -1.976
35.30000 -0.165
35.32000 5.353
35.34000 4.938
35.36000 4.519
35.38000 2.840
35.40000 -0.363
35.42000 -2.432
35.44000 4.356
35.46000 6.108
35.48000 2.511
35.50000 1.932
35.52000 2.553
35.54000 1.583
35.56000 3.949
35.58000 4.691
35.60000 0.751
35.62000 0.579
35.64000 1.740
35.66000 -0.910
35.68000 1.434
35.70000 1.727
35.72000 2.377
35.74000 4.678
35.76000 2.769
35.78000 7.162
35.80000 9.095
35.82000 5.779
35.84000 3.479
35.86000 3.746
35.88000 3.280
35.90000 2.175
35.92000 1.006
35.94000 3.682
35.96000 7.043
35.98000 4.129
36.00000 2.171
36.02000 3.628
36.04000 0.754
36.06000 1.464
36.08000 3.412
36.10000 1.420
36.12000 2.582
36.14000 3.043
36.16000 1.067
36.18000 -0.626
36.20000 -3.486
36.22000 2.066
36.24000 2.760
36.26000 1.080
36.28000 4.406
36.30000 3.469
36.32000 -1.113
36.34000 1.939
36.36000 1.642
36.38000 -0.336
36.40000 2.621
36.42000 -2.969
36.44000 0.080
36.46000 -1.383
36.48000 0.281
36.50000 0.525
36.52000 1.891
36.54000 -0.224
36.56000 1.316
36.58000 1.818
36.60000 -3.055
36.62000 0.384
36.64000 4.917
36.66000 3.201
36.68000 3.121
36.70000 5.063
36.72000 3.145
36.74000 -1.222
36.76000 1.911
36.78000 5.432
36.80000 -0.842
36.82000 6.116
36.84000 1.793
36.86000 0.792
36.88000 7.609
36.90000 6.879
36.92000 -1.000
36.94000 0.138
36.96000 3.301
36.98000 0.247
37.00000 1.826
37.02000 1.379
37.04000 4.313
37.06000 4.602
37.08000 2.642
37.10000 0.804
37.12000 -0.611
37.14000 -1.519
37.16000 -3.046
37.18000 -1.013
37.20000 5.059
37.22000 -0.202
37.24000 0.942
37.26000 2.424
37.28000 2.683
37.30000 0.193
37.32000 -2.169
37.34000 -3.529
37.36000 -2.500
37.38000 0.828
37.40000 4.738
37.42000 5.604
37.44000 4.397
37.46000 2.872
37.48000 4.016
37.50000 4.806
37.52000 3.215
37.54000 2.737
37.56000 4.547
37.58000 -1.779
37.60000 -3.462
37.62000 0.175
37.64000 1.380
37.66000 -1.856
37.68000 -0.280
37.70000 2.685
37.72000 -3.563
37.74000 -1.767
37.76000 2.007
37.78000 2.187
37.80000 2.339
37.82000 2.401
37.84000 0.900
37.86000 3.840
37.88000 2.710
37.90000 2.069
37.92000 3.649
37.94000 3.542
37.96000 4.555
37.98000 0.988
38.00000 3.675
38.02000 2.123
38.04000 0.730
38.06000 3.927
38.08000 2.261
38.10000 5.315
38.12000 2.477
38.14000 4.043
38.16000 7.694
38.18000 12.964
38.20000 12.101
38.22000 8.495
38.24000 7.822
38.26000 8.943
38.28000 5.739
38.30000 9.357
38.32000 12.250
38.34000 11.363
38.36000 15.423
38.38000 14.962
38.40000 10.081
38.42000 6.904
38.44000 6.546
38.46000 8.891
38.48000 9.356
38.50000 10.025
38.52000 11.019
38.54000 8.212
38.56000 9.629
38.58000 12.113
38.60000 11.790
38.62000 15.620
38.64000 18.336
38.66000 17.814
38.68000 15.593
38.70000 14.430
38.72000 15.347
38.74000 15.259
38.76000 12.476
38.78000 15.729
38.80000 16.511
38.82000 17.691
38.84000 21.577
38.86000 22.107
38.88000 18.345
38.90000 15.441
38.92000 18.974
38.94000 23.427
38.96000 21.099
38.98000 20.108
39.00000 24.021
39.02000 24.739
39.04000 25.132
39.06000 24.955
39.08000 26.601
39.10000 20.160
39.12000 23.521
39.14000 24.384
39.16000 27.641
39.18000 28.838
39.20000 34.259
39.22000 32.586
39.24000 33.304
39.26000 35.457
39.28000 35.007
39.30000 40.490
39.32000 42.914
39.34000 44.014
39.36000 43.438
39.38000 42.072
39.40000 44.348
39.42000 51.343
39.44000 53.247
39.46000 53.408
39.48000 53.863
39.50000 56.381
39.52000 61.793
39.54000 61.892
39.56000 60.953
39.58000 64.658
39.60000 72.410
39.62000 73.243
39.64000 74.285
39.66000 83.227
39.68000 82.116
39.70000 86.455
39.72000 94.035
39.74000 94.735
39.76000 100.618
39.78000 105.985
39.80000 110.702
39.82000 117.223
39.84000 127.690
39.86000 132.603
39.88000 140.784
39.90000 143.762
39.92000 149.663
39.94000 155.208
39.96000 161.876
39.98000 169.409
40.00000 177.839
40.02000 186.922
40.04000 205.584
40.06000 207.106
40.08000 213.850
40.10000 230.850
40.12000 241.323
40.14000 247.129
40.16000 255.445
40.18000 272.693
40.20000 280.867
40.22000 299.402
40.24000 316.771
40.26000 333.864
40.28000 352.296
40.30000 358.907
40.32000 378.686
40.34000 400.761
40.36000 408.955
40.38000 426.353
40.40000 438.010
40.42000 451.491
40.44000 464.807
40.46000 471.742
40.48000 487.333
40.50000 503.683
40.52000 513.134
40.54000 511.006
40.56000 519.876
40.58000 531.941
40.60000 547.473
40.62000 552.232
40.64000 542.138
40.66000 541.136
40.68000 555.307
40.70000 555.510
40.72000 541.047
40.74000 537.514
40.76000 534.005
40.78000 526.300
40.80000 505.918
40.82000 508.284
40.84000 509.735
40.86000 489.182
40.88000 469.213
40.90000 461.345
40.92000 446.898
40.94000 430.693
40.96000 421.146
40.98000 409.919
41.00000 402.017
41.02000 384.209
41.04000 368.051
41.06000 345.953
41.08000 329.643
41.10000 316.191
41.12000 306.615
41.14000 299.023
41.16000 278.364
41.18000 259.772
41.20000 249.842
41.22000 242.482
41.24000 226.454
41.26000 216.907
41.28000 203.570
41.30000 191.347
41.32000 176.404
41.34000 173.831
41.36000 168.451
41.38000 162.145
41.40000 153.692
41.42000 140.880
41.44000 129.144
41.46000 126.597
41.48000 122.006
41.50000 119.236
41.52000 113.552
41.54000 103.836
41.56000 90.298
41.58000 90.520
41.60000 86.095
41.62000 85.367
41.64000 82.041
41.66000 76.681
41.68000 75.142
41.70000 71.593
41.72000 68.083
41.74000 64.837
41.76000 58.336
41.78000 57.291
41.80000 54.521
41.82000 52.645
41.84000 48.659
41.86000 47.435
41.88000 47.865
41.90000 43.182
41.92000 38.835
41.94000 29.390
41.96000 31.254
41.98000 35.052
42.00000 28.116
42.02000 26.482
42.04000 30.221
42.06000 23.647
42.08000 22.050
42.10000 24.087
42.12000 26.206
42.14000 20.655
42.16000 18.276
42.18000 18.246
42.20000 18.316
42.22000 16.045
42.24000 17.553
42.26000 18.561
42.28000 16.409
42.30000 11.093
42.32000 16.946
42.34000 16.348
42.36000 15.768
42.38000 19.031
42.40000 13.441
42.42000 14.097
42.44000 8.356
42.46000 11.243
42.48000 14.083
42.50000 9.106
42.52000 11.018
42.54000 12.026
42.56000 8.853
42.58000 7.974
42.60000 2.171
42.62000 0.324
42.64000 -0.773
42.66000 -1.865
42.68000 3.220
42.70000 5.902
42.72000 4.679
42.74000 5.062
42.76000 5.243
42.78000 3.114
42.80000 4.031
42.82000 3.864
42.84000 4.477
42.86000 5.105
42.88000 4.037
42.90000 7.493
42.92000 0.284
42.94000 4.635
42.96000 4.941
42.98000 -0.776
43.00000 0.390
43.02000 -0.573
43.04000 1.434
43.06000 2.240
43.08000 1.820
43.10000 2.526
43.12000 3.518
43.14000 0.728
43.16000 -0.560
43.18000 1.221
43.20000 -2.294
43.22000 -2.768
43.24000 -0.375
43.26000 1.239
43.28000 1.361
43.30000 8.744
43.32000 4.844
43.34000 1.159
43.36000 1.254
43.38000 -0.788
43.40000 -2.699
43.42000 -1.095
43.44000 -0.831
43.46000 -0.107
43.48000 3.359
43.50000 7.925
43.52000 8.324
43.54000 2.807
43.56000 -1.260
43.58000 -3.490
43.60000 1.263
43.62000 5.097
43.64000 1.520
43.66000 -0.120
43.68000 -2.149
43.70000 -2.941
43.72000 -2.028
43.74000 -3.400
43.76000 -3.286
43.78000 2.344
43.80000 5.604
43.82000 4.477
43.84000 7.820
43.86000 2.825
43.88000 2.622
43.90000 2.038
43.92000 0.817
43.94000 1.063
43.96000 0.152
43.98000 4.573
44.00000 4.994
44.02000 -3.092
44.04000 1.998
44.06000 3.230
44.08000 -1.037
44.10000 -0.882
44.12000 2.335
44.14000 5.327
44.16000 6.734
44.18000 2.950
44.20000 -0.274
44.22000 1.686
44.24000 4.618
44.26000 3.858
44.28000 -3.428
44.30000 0.084
44.32000 -0.557
44.34000 1.059
44.36000 3.888
44.38000 1.139
44.40000 3.734
44.42000 1.839
44.44000 -2.398
44.46000 -2.229
44.48000 -1.760
44.50000 3.449
44.52000 2.926
44.54000 -0.760
44.56000 -0.403
44.58000 5.504
44.60000 1.248
44.62000 -0.770
44.64000 -0.846
44.66000 3.995
44.68000 6.051
44.70000 0.676
44.72000 -3.443
44.74000 -0.914
44.76000 0.384
44.78000 3.982
44.80000 7.477
44.82000 5.537
44.84000 4.956
44.86000 4.191
44.88000 1.482
44.90000 -1.332
44.92000 -2.912
44.94000 1.688
44.96000 2.540
44.98000 3.205
45.00000 0.690
45.02000 4.124
45.04000 5.166
45.06000 -0.519
45.08000 -1.489
45.10000 -2.432
45.12000 -2.133
45.14000 0.163
45.16000 0.060
45.18000 0.132
45.20000 3.664
45.22000 5.099
45.24000 3.673
45.26000 -1.562
45.28000 1.752
45.30000 2.596
45.32000 6.289
45.34000 3.164
45.36000 2.805
45.38000 6.420
45.40000 5.491
45.42000 8.856
45.44000 2.776
45.46000 3.293
45.48000 3.519
45.50000 -1.530
45.52000 4.229
45.54000 4.235
45.56000 0.213
45.58000 5.635
45.60000 7.360
45.62000 12.504
45.64000 9.639
45.66000 12.124
45.68000 10.537
45.70000 6.459
45.72000 4.613
45.74000 7.986
45.76000 3.111
45.78000 8.072
45.80000 12.788
45.82000 8.941
45.84000 9.770
45.86000 11.597
45.88000 11.052
45.90000 11.757
45.92000 9.779
45.94000 13.944
45.96000 18.119
45.98000 18.478
46.00000 14.449
46.02000 13.868
46.04000 11.948
46.06000 15.234
46.08000 20.613
46.10000 15.812
46.12000 14.200
46.14000 24.657
46.16000 31.231
46.18000 24.270
46.20000 20.853
46.22000 20.051
46.24000 21.003
46.26000 20.054
46.28000 30.338
46.30000 27.123
46.32000 25.711
46.34000 25.415
46.36000 28.727
46.38000 34.676
46.40000 29.458
46.42000 32.749
46.44000 38.170
46.46000 36.440
46.48000 35.602
46.50000 35.516
46.52000 35.236
46.54000 40.967
46.56000 45.816
46.58000 46.958
46.60000 46.024
46.62000 43.307
46.64000 40.733
46.66000 43.611
46.68000 47.995
46.70000 54.613
46.72000 50.568
46.74000 47.702
46.76000 51.713
46.78000 56.263
46.80000 55.169
46.82000 57.741
46.84000 62.385
46.86000 62.375
46.88000 56.619
46.90000 62.000
46.92000 60.628
46.94000 57.662
46.96000 62.043
46.98000 61.892
47.00000 63.957
47.02000 71.978
47.04000 72.765
47.06000 67.952
47.08000 65.268
47.10000 70.624
47.12000 68.188
47.14000 69.983
47.16000 77.607
47.18000 74.119
47.20000 69.628
47.22000 71.070
47.24000 74.438
47.26000 73.150
47.28000 74.252
47.30000 75.102
47.32000 81.612
47.34000 73.489
47.36000 63.060
47.38000 67.330
47.40000 65.303
47.42000 62.410
47.44000 67.541
47.46000 69.151
47.48000 65.630
47.50000 62.544
47.52000 63.851
47.54000 59.092
47.56000 61.499
47.58000 57.596
47.60000 54.533
47.62000 56.021
47.64000 55.632
47.66000 49.617
47.68000 52.870
47.70000 53.853
47.72000 50.590
47.74000 56.432
47.76000 49.842
47.78000 47.583
47.80000 51.292
47.82000 49.679
47.84000 39.822
47.86000 36.895
47.88000 38.854
47.90000 41.013
47.92000 36.322
47.94000 36.521
47.96000 39.000
47.98000 34.118
48.00000 30.495
48.02000 34.464
48.04000 32.101
48.06000 27.345
48.08000 28.980
48.10000 30.589
48.12000 27.079
48.14000 25.503
48.16000 24.999
48.18000 19.646
48.20000 19.167
48.22000 24.547
48.24000 21.157
48.26000 19.303
48.28000 12.623
48.30000 16.735
48.32000 19.655
48.34000 17.440
48.36000 10.466
48.38000 8.436
48.40000 12.170
48.42000 14.185
48.44000 12.338
48.46000 8.914
48.48000 10.633
48.50000 9.613
48.52000 11.060
48.54000 4.965
48.56000 6.035
48.58000 2.328
48.60000 6.850
48.62000 7.896
48.64000 6.134
48.66000 4.619
48.68000 1.987
48.70000 -0.924
48.72000 3.364
48.74000 3.632
48.76000 1.447
48.78000 5.893
48.80000 1.116
48.82000 2.539
48.84000 10.173
48.86000 9.857
48.88000 3.003
48.90000 5.606
48.92000 7.027
48.94000 -0.107
48.96000 2.985
48.98000 2.445
49.00000 1.108
49.02000 5.099
49.04000 4.301
49.06000 4.235
49.08000 0.687
49.10000 -3.108
49.12000 2.978
49.14000 4.928
49.16000 1.002
49.18000 7.444
49.20000 7.389
49.22000 2.251
49.24000 0.915
49.26000 6.507
49.28000 6.377
49.30000 2.147
49.32000 -3.066
49.34000 0.169
49.36000 3.977
49.38000 7.677
49.40000 1.338
49.42000 -2.942
49.44000 -1.034
49.46000 -0.364
49.48000 6.360
49.50000 5.916
49.52000 -3.045
49.54000 -1.619
49.56000 3.399
49.58000 1.239
49.60000 -0.552
49.62000 1.804
49.64000 8.156
49.66000 -0.094
49.68000 -1.327
49.70000 -3.030
49.72000 1.164
49.74000 2.755
49.76000 -0.846
49.78000 2.429
49.80000 8.068
49.82000 8.618
49.84000 4.376
49.86000 3.680
49.88000 4.598
49.90000 -2.804
49.92000 -2.248
49.94000 -1.362
49.96000 -1.772
49.98000 -2.795
50.00000 2.697
50.02000 -1.539
50.04000 -1.563
50.06000 1.442
50.08000 2.418
50.10000 -0.076
50.12000 0.357
50.14000 4.298
50.16000 1.454
50.18000 -2.985
50.20000 -0.969
50.22000 1.728
50.24000 4.971
50.26000 -0.581
50.28000 1.079
50.30000 1.823
50.32000 -1.407
50.34000 3.403
50.36000 0.831
50.38000 -0.547
50.40000 -2.532
50.42000 1.861
50.44000 -0.492
50.46000 1.946
50.48000 1.591
50.50000 3.430
50.52000 2.065
50.54000 -0.918
50.56000 -1.444
50.58000 0.956
50.60000 4.671
50.62000 4.704
50.64000 0.154
50.66000 -0.376
50.68000 -2.939
50.70000 3.598
50.72000 4.072
50.74000 -1.149
50.76000 -1.144
50.78000 3.346
50.80000 4.921
50.82000 5.917
50.84000 2.460
50.86000 1.725
50.88000 2.373
50.90000 4.230
50.92000 6.577
50.94000 6.170
50.96000 2.360
50.98000 4.644
51.00000 2.465
51.02000 -1.746
51.04000 -1.619
51.06000 3.287
51.08000 13.097
51.10000 11.377
51.12000 2.581
51.14000 2.370
51.16000 0.610
51.18000 4.650
51.20000 2.911
51.22000 2.919
51.24000 3.214
51.26000 -0.496
51.28000 -0.127
51.30000 2.531
51.32000 4.421
51.34000 4.816
51.36000 5.525
51.38000 4.619
51.40000 3.488
51.42000 1.186
51.44000 4.273
51.46000 4.217
51.48000 -1.047
51.50000 1.079
51.52000 6.494
51.54000 4.934
51.56000 5.918
51.58000 6.833
51.60000 7.699
51.62000 5.144
51.64000 6.976
51.66000 3.071
51.68000 -2.845
51.70000 -2.843
51.72000 2.024
51.74000 2.185
51.76000 3.208
51.78000 3.866
51.80000 7.200
51.82000 6.530
51.84000 3.293
51.86000 2.312
51.88000 0.298
51.90000 1.115
51.92000 1.402
51.94000 8.907
51.96000 5.390
51.98000 2.874
52.00000 2.353
52.02000 1.186
52.04000 0.657
52.06000 -0.334
52.08000 4.251
52.10000 3.749
52.12000 2.514
52.14000 -0.785
52.16000 0.116
52.18000 3.303
52.20000 9.931
52.22000 10.415
52.24000 8.014
52.26000 3.707
52.28000 4.101
52.30000 7.365
52.32000 6.305
52.34000 3.222
52.36000 2.655
52.38000 5.926
52.40000 6.262
52.42000 4.491
52.44000 4.540
52.46000 0.175
52.48000 0.048
52.50000 4.643
52.52000 4.376
52.54000 2.777
52.56000 -2.767
52.58000 0.509
52.60000 4.134
52.62000 5.777
52.64000 7.498
52.66000 1.229
52.68000 1.298
52.70000 3.275
52.72000 1.177
52.74000 2.589
52.76000 4.035
52.78000 3.493
52.80000 1.778
52.82000 4.063
52.84000 4.482
52.86000 2.744
52.88000 -1.047
52.90000 -2.837
52.92000 4.290
52.94000 3.472
52.96000 2.892
52.98000 3.547
53.00000 0.649
53.02000 -1.999
53.04000 -2.542
53.06000 -1.699
53.08000 5.444
53.10000 6.734
53.12000 2.531
53.14000 2.647
53.16000 2.658
53.18000 5.439
53.20000 4.333
53.22000 4.746
53.24000 2.741
53.26000 -0.662
53.28000 -0.338
53.30000 -0.033
53.32000 -2.663
53.34000 1.723
53.36000 -2.829
53.38000 1.568
53.40000 1.617
53.42000 4.079
53.44000 1.820
53.46000 0.543
53.48000 -0.795
53.50000 0.554
53.52000 1.944
53.54000 2.234
53.56000 2.250
53.58000 -1.062
53.60000 -1.502
53.62000 0.067
53.64000 3.965
53.66000 5.205
53.68000 2.439
53.70000 -2.189
53.72000 -2.130
53.74000 -1.736
53.76000 5.047
53.78000 9.105
53.80000 4.180
53.82000 0.146
53.84000 3.971
53.86000 2.676
53.88000 0.578
53.90000 2.337
53.92000 3.785
53.94000 -2.182
53.96000 -0.622
53.98000 2.326
54.00000 3.047
54.02000 3.197
54.04000 5.455
54.06000 2.592
54.08000 -0.859
54.10000 -1.667
54.12000 -0.727
54.14000 1.738
54.16000 -0.231
54.18000 1.143
54.20000 3.736
54.22000 1.874
54.24000 0.618
54.26000 -2.796
54.28000 0.230
54.30000 4.012
54.32000 1.816
54.34000 3.125
54.36000 -2.375
54.38000 0.239
54.40000 2.417
54.42000 3.996
54.44000 2.467
54.46000 4.750
54.48000 4.408
54.50000 1.527
54.52000 2.562
54.54000 5.266
54.56000 3.872
54.58000 0.435
54.60000 6.053
54.62000 3.446
54.64000 0.252
54.66000 -0.684
54.68000 1.091
54.70000 -0.108
54.72000 0.429
54.74000 -0.174
54.76000 -0.208
54.78000 0.610
54.80000 0.389
54.82000 -0.277
54.84000 3.408
54.86000 6.998
54.88000 -0.710
54.90000 -0.928
54.92000 -2.786
54.94000 -0.524
54.96000 -0.791
54.98000 -1.004
55.00000 1.902
55.02000 4.263
55.04000 3.619
55.06000 3.908
55.08000 1.635
55.10000 -1.693
55.12000 1.386
55.14000 3.799
55.16000 2.378
55.18000 0.218
55.20000 3.107
55.22000 6.132
55.24000 2.690
55.26000 1.904
55.28000 3.776
55.30000 2.818
55.32000 2.798
55.34000 2.479
55.36000 1.953
55.38000 0.818
55.40000 5.782
55.42000 3.956
55.44000 2.080
55.46000 3.853
55.48000 -2.220
55.50000 0.274
55.52000 1.516
55.54000 1.311
55.56000 2.752
55.58000 2.414
55.60000 -0.486
55.62000 1.890
55.64000 -0.937
55.66000 -2.083
55.68000 3.175
55.70000 3.162
55.72000 2.978
55.74000 -2.748
55.76000 -1.182
55.78000 -0.085
55.80000 -0.400
55.82000 1.375
55.84000 3.098
55.86000 7.676
55.88000 3.717
55.90000 4.361
55.92000 3.879
55.94000 4.639
55.96000 0.628
55.98000 4.704
56.00000 5.904
56.02000 8.516
56.04000 5.884
56.06000 4.402
56.08000 2.965
56.10000 4.474
56.12000 3.973
56.14000 4.647
56.16000 7.073
56.18000 3.553
56.20000 3.322
56.22000 4.399
56.24000 8.682
56.26000 6.590
56.28000 4.042
56.30000 2.498
56.32000 4.491
56.34000 3.749
56.36000 4.711
56.38000 7.478
56.40000 6.185
56.42000 7.759
56.44000 3.774
56.46000 6.153
56.48000 3.156
56.50000 -2.682
56.52000 1.759
56.54000 2.247
56.56000 1.841
56.58000 6.204
56.60000 1.865
56.62000 4.161
56.64000 0.918
56.66000 1.266
56.68000 1.058
56.70000 2.800
56.72000 6.320
56.74000 4.479
56.76000 7.622
56.78000 12.442
56.80000 6.945
56.82000 -0.795
56.84000 5.602
56.86000 5.563
56.88000 4.506
56.90000 -0.148
56.92000 1.008
56.94000 0.817
56.96000 1.267
56.98000 3.631
57.00000 5.259
57.02000 5.756
57.04000 9.712
57.06000 4.451
57.08000 3.251
57.10000 2.688
57.12000 4.367
57.14000 3.322
57.16000 2.220
57.18000 5.105
57.20000 8.505
57.22000 4.002
57.24000 4.496
57.26000 4.382
57.28000 2.783
57.30000 3.024
57.32000 4.249
57.34000 4.820
57.36000 3.080
57.38000 4.329
57.40000 -0.418
57.42000 0.431
57.44000 -1.666
57.46000 -2.679
57.48000 2.270
57.50000 3.603
57.52000 2.409
57.54000 -0.244
57.56000 2.243
57.58000 2.042
57.60000 -0.335
57.62000 -0.506
57.64000 1.258
57.66000 2.048
57.68000 1.686
57.70000 -0.688
57.72000 2.199
57.74000 6.244
57.76000 3.328
57.78000 3.175
57.80000 -0.085
57.82000 -0.616
57.84000 -1.306
57.86000 2.291
57.88000 3.834
57.90000 4.276
57.92000 -1.363
57.94000 -1.324
57.96000 -0.609
57.98000 1.958
58.00000 1.213
58.02000 2.070
58.04000 0.889
58.06000 1.146
58.08000 2.354
58.10000 3.582
58.12000 3.619
58.14000 -0.460
58.16000 0.310
58.18000 2.067
58.20000 5.242
58.22000 0.909
58.24000 0.918
58.26000 1.278
58.28000 4.957
58.30000 5.919
58.32000 7.246
58.34000 3.187
58.36000 0.261
58.38000 5.026
58.40000 5.079
58.42000 2.318
58.44000 0.501
58.46000 0.387
58.48000 -0.399
58.50000 2.027
58.52000 6.031
58.54000 0.376
58.56000 1.796
58.58000 2.623
58.60000 -0.920
58.62000 1.571
58.64000 0.371
58.66000 -2.660
58.68000 -0.772
58.70000 2.761
58.72000 5.574
58.74000 5.793
58.76000 0.622
58.78000 0.683
58.80000 1.278
58.82000 0.905
58.84000 4.214
58.86000 7.055
58.88000 5.131
58.90000 1.858
58.92000 0.253
58.94000 2.818
58.96000 3.946
58.98000 -0.729
59.00000 -2.240
59.02000 -2.396
59.04000 -2.643
59.06000 3.156
59.08000 6.778
59.10000 1.864
59.12000 3.006
59.14000 8.804
59.16000 6.882
59.18000 5.088
59.20000 -0.573
59.22000 -0.108
59.24000 2.936
59.26000 0.576
59.28000 0.568
59.30000 3.085
59.32000 4.493
59.34000 3.412
59.36000 5.037
59.38000 3.258
59.40000 1.504
59.42000 0.842
59.44000 -0.255
59.46000 -0.617
59.48000 5.330
59.50000 7.688
59.52000 4.273
59.54000 3.424
59.56000 3.622
59.58000 4.601
59.60000 1.325
59.62000 1.698
59.64000 -0.788
59.66000 0.441
59.68000 2.032
59.70000 2.613
59.72000 -1.303
59.74000 -1.955
59.76000 -0.353
59.78000 0.425
59.80000 4.738
59.82000 1.222
59.84000 -0.053
59.86000 3.462
59.88000 2.043
59.90000 2.115
59.92000 2.966
59.94000 5.516
59.96000 4.454
59.98000 2.168
60.00000 5.894
60.02000 8.710
60.04000 1.455
60.06000 0.293
60.08000 7.000
60.10000 8.307
60.12000 4.364
60.14000 0.323
60.16000 4.032
60.18000 2.859
60.20000 6.554
60.22000 6.504
60.24000 4.624
60.26000 6.414
60.28000 5.257
60.30000 8.334
60.32000 9.156
60.34000 6.252
60.36000 7.412
60.38000 9.448
60.40000 12.775
60.42000 12.360
60.44000 8.958
60.46000 11.465
60.48000 10.609
60.50000 13.644
60.52000 10.096
60.54000 12.842
60.56000 12.152
60.58000 12.854
60.60000 1.544
60.62000 -2.495
60.64000 2.754
60.66000 5.865
60.68000 5.072
60.70000 9.639
60.72000 9.173
60.74000 9.490
60.76000 7.839
60.78000 9.666
60.80000 8.823
60.82000 10.159
60.84000 9.014
60.86000 10.707
60.88000 9.666
60.90000 11.358
60.92000 6.644
60.94000 2.848
60.96000 5.372
60.98000 4.711
61.00000 4.062
61.02000 1.749
61.04000 3.204
61.06000 2.622
61.08000 4.185
61.10000 6.970
61.12000 7.557
61.14000 9.392
61.16000 5.961
61.18000 6.703
61.20000 3.426
61.22000 4.085
61.24000 1.432
61.26000 3.249
61.28000 4.584
61.30000 6.030
61.32000 2.272
61.34000 1.832
61.36000 0.663
61.38000 0.687
61.40000 3.529
61.42000 2.806
61.44000 1.391
61.46000 2.160
61.48000 7.964
61.50000 2.583
61.52000 6.740
61.54000 8.184
61.56000 6.444
61.58000 4.114
61.60000 5.533
61.62000 2.105
61.64000 1.072
61.66000 1.234
61.68000 2.615
61.70000 4.294
61.72000 4.480
61.74000 2.155
61.76000 3.036
61.78000 1.574
61.80000 1.571
61.82000 3.293
61.84000 2.863
61.86000 3.333
61.88000 3.021
61.90000 2.612
61.92000 3.909
61.94000 -0.138
61.96000 0.138
61.98000 1.099
62.00000 -0.694
62.02000 -0.358
62.04000 3.076
62.06000 2.740
62.08000 4.240
62.10000 2.844
62.12000 1.859
62.14000 3.592
62.16000 6.918
62.18000 4.713
62.20000 3.603
62.22000 5.676
62.24000 1.694
62.26000 4.846
62.28000 9.833
62.30000 4.468
62.32000 2.236
62.34000 -0.649
62.36000 0.026
62.38000 -0.379
62.40000 1.873
62.42000 4.745
62.44000 9.221
62.46000 6.623
62.48000 4.048
62.50000 3.169
62.52000 0.703
62.54000 -2.515
62.56000 -0.700
62.58000 2.152
62.60000 2.112
62.62000 3.054
62.64000 3.360
62.66000 2.621
62.68000 3.624
62.70000 0.624
62.72000 1.611
62.74000 2.878
62.76000 4.261
62.78000 7.197
62.80000 4.717
62.82000 2.379
62.84000 1.319
62.86000 -1.784
62.88000 0.022
62.90000 2.939
62.92000 3.056
62.94000 6.039
62.96000 2.699
62.98000 3.640
63.00000 4.410
63.02000 4.209
63.04000 1.858
63.06000 3.646
63.08000 3.288
63.10000 2.585
63.12000 2.660
63.14000 3.190
63.16000 1.079
63.18000 1.365
63.20000 2.426
63.22000 5.780
63.24000 3.477
63.26000 2.139
63.28000 3.003
63.30000 6.763
63.32000 6.889
63.34000 6.818
63.36000 7.757
63.38000 3.549
63.40000 1.948
63.42000 5.016
63.44000 4.483
63.46000 1.282
63.48000 2.985
63.50000 3.306
63.52000 1.274
63.54000 3.334
63.56000 10.132
63.58000 8.924
63.60000 7.966
63.62000 6.901
63.64000 7.712
63.66000 8.314
63.68000 5.759
63.70000 5.830
63.72000 6.098
63.74000 6.794
63.76000 5.360
63.78000 4.892
63.80000 2.237
63.82000 -2.473
63.84000 -0.181
63.86000 6.317
63.88000 8.244
63.90000 8.857
63.92000 8.303
63.94000 0.740
63.96000 4.212
63.98000 10.116
64.00000 7.045
64.02000 4.875
64.04000 1.974
64.06000 5.289
64.08000 4.398
64.10000 3.687
64.12000 3.727
64.14000 7.877
64.16000 6.547
64.18000 3.060
64.20000 1.720
64.22000 2.188
64.24000 3.776
64.26000 4.807
64.28000 8.536
64.30000 6.473
64.32000 6.741
64.34000 3.912
64.36000 2.087
64.38000 2.662
64.40000 8.098
64.42000 6.450
64.44000 1.159
64.46000 0.875
64.48000 1.316
64.50000 3.387
64.52000 1.480
64.54000 5.192
64.56000 4.655
64.58000 3.678
64.60000 4.970
64.62000 4.316
64.64000 1.348
64.66000 2.156
64.68000 1.250
64.70000 0.715
64.72000 4.402
64.74000 3.314
64.76000 -1.351
64.78000 0.382
64.80000 1.048
64.82000 3.336
64.84000 7.557
64.86000 1.903
64.88000 -1.465
64.90000 -0.645
64.92000 -1.155
64.94000 -0.544
64.96000 -1.358
64.98000 1.775
65.00000 2.574
65.02000 4.819
65.04000 3.017
65.06000 1.807
65.08000 3.494
65.10000 0.839
65.12000 0.600
65.14000 4.436
65.16000 4.865
65.18000 2.990
65.20000 2.388
65.22000 1.872
65.24000 4.134
65.26000 2.693
65.28000 3.441
65.30000 4.080
65.32000 -0.738
65.34000 -2.538
65.36000 0.059
65.38000 2.350
65.40000 -0.503
65.42000 2.820
65.44000 3.658
65.46000 -1.469
65.48000 0.626
65.50000 5.134
65.52000 5.284
65.54000 1.740
65.56000 1.586
65.58000 -2.289
65.60000 1.768
65.62000 3.139
65.64000 2.660
65.66000 2.056
65.68000 1.740
65.70000 2.479
65.72000 2.852
65.74000 1.732
65.76000 2.200
65.78000 6.364
65.80000 2.854
65.82000 3.131
65.84000 2.875
65.86000 1.643
65.88000 -1.489
65.90000 -1.896
65.92000 -1.576
65.94000 1.599
65.96000 -0.606
65.98000 0.940
66.00000 0.514
66.02000 -0.116
66.04000 1.207
66.06000 0.041
66.08000 0.836
66.10000 3.849
66.12000 4.609
66.14000 5.007
66.16000 0.290
66.18000 -2.031
66.20000 -0.374
66.22000 -0.294
66.24000 -0.576
66.26000 -0.827
66.28000 4.695
66.30000 6.554
66.32000 4.756
66.34000 4.021
66.36000 2.652
66.38000 -0.470
66.40000 0.186
66.42000 4.297
66.44000 3.005
66.46000 -1.276
66.48000 1.369
66.50000 0.604
66.52000 0.249
66.54000 3.330
66.56000 2.641
66.58000 2.569
66.60000 5.793
66.62000 3.484
66.64000 0.804
66.66000 2.629
66.68000 6.310
66.70000 0.997
66.72000 0.975
66.74000 3.129
66.76000 1.131
66.78000 4.828
66.80000 5.411
66.82000 0.590
66.84000 1.627
66.86000 1.754
66.88000 5.205
66.90000 2.061
66.92000 0.042
66.94000 -2.540
66.96000 0.616
66.98000 7.501
67.00000 3.753
67.02000 4.654
67.04000 5.512
67.06000 8.213
67.08000 6.457
67.10000 3.902
67.12000 2.982
67.14000 4.924
67.16000 5.309
67.18000 2.883
67.20000 3.542
67.22000 8.168
67.24000 3.463
67.26000 0.185
67.28000 1.117
67.30000 3.526
67.32000 4.369
67.34000 5.962
67.36000 4.689
67.38000 5.034
67.40000 5.497
67.42000 4.468
67.44000 4.239
67.46000 5.359
67.48000 9.511
67.50000 5.406
67.52000 3.491
67.54000 5.093
67.56000 4.024
67.58000 -0.614
67.60000 -1.188
67.62000 0.196
67.64000 5.428
67.66000 4.348
67.68000 4.656
67.70000 4.347
67.72000 4.205
67.74000 5.479
67.76000 7.815
67.78000 3.645
67.80000 1.285
67.82000 2.248
67.84000 2.182
67.86000 1.913
67.88000 5.488
67.90000 8.330
67.92000 4.944
67.94000 8.077
67.96000 7.395
67.98000 7.647
68.00000 6.844
68.02000 6.926
68.04000 6.345
68.06000 4.156
68.08000 4.233
68.10000 5.227
68.12000 2.922
68.14000 6.505
68.16000 9.314
68.18000 13.399
68.20000 13.111
68.22000 6.713
68.24000 5.419
68.26000 6.688
68.28000 11.504
68.30000 11.173
68.32000 13.620
68.34000 12.587
68.36000 9.299
68.38000 5.504
68.40000 7.830
68.42000 9.297
68.44000 11.764
68.46000 15.186
68.48000 14.053
68.50000 14.835
68.52000 12.381
68.54000 15.660
68.56000 17.808
68.58000 16.888
68.60000 15.805
68.62000 20.789
68.64000 20.114
68.66000 19.431
68.68000 19.143
68.70000 16.853
68.72000 14.185
68.74000 14.709
68.76000 16.985
68.78000 21.967
68.80000 25.265
68.82000 22.532
68.84000 22.172
68.86000 18.758
68.88000 18.909
68.90000 21.393
68.92000 22.144
68.94000 19.001
68.96000 19.471
68.98000 21.862
69.00000 21.901
69.02000 24.091
69.04000 23.927
69.06000 20.608
69.08000 20.311
69.10000 22.509
69.12000 22.110
69.14000 20.954
69.16000 21.451
69.18000 23.693
69.20000 27.478
69.22000 23.358
69.24000 21.015
69.26000 25.700
69.28000 25.316
69.30000 19.230
69.32000 16.934
69.34000 16.394
69.36000 15.785
69.38000 18.623
69.40000 19.772
69.42000 22.219
69.44000 21.879
69.46000 18.457
69.48000 15.746
69.50000 14.876
69.52000 14.798
69.54000 16.261
69.56000 15.877
69.58000 12.115
69.60000 14.500
69.62000 18.662
69.64000 17.958
69.66000 12.489
69.68000 10.153
69.70000 9.615
69.72000 9.716
69.74000 13.656
69.76000 12.195
69.78000 7.655
69.80000 11.611
69.82000 9.917
69.84000 8.519
69.86000 10.298
69.88000 15.153
69.90000 11.746
69.92000 8.579
69.94000 7.951
69.96000 7.503
69.98000 6.977
70.00000 5.375
70.02000 1.320
70.04000 5.115
70.06000 6.063
70.08000 4.295
70.10000 0.265
70.12000 2.039
70.14000 5.466
70.16000 9.007
70.18000 4.219
70.20000 7.847
70.22000 5.203
70.24000 3.317
70.26000 1.874
70.28000 4.448
70.30000 4.355
70.32000 4.650
70.34000 6.691
70.36000 2.463
70.38000 1.047
70.40000 1.794
70.42000 3.053
70.44000 0.511
70.46000 0.541
70.48000 4.604
70.50000 5.544
70.52000 0.778
70.54000 -1.092
70.56000 0.243
70.58000 2.827
70.60000 5.474
70.62000 5.101
70.64000 3.382
70.66000 3.284
70.68000 -0.950
70.70000 3.256
70.72000 8.801
70.74000 5.020
70.76000 3.281
70.78000 1.938
70.80000 8.742
70.82000 7.878
70.84000 6.156
70.86000 4.328
70.88000 4.164
70.90000 3.758
70.92000 4.677
70.94000 0.863
70.96000 1.550
70.98000 7.722
71.00000 9.840
71.02000 7.399
71.04000 3.075
71.06000 -2.432
71.08000 0.692
71.10000 2.360
71.12000 5.546
71.14000 5.383
71.16000 0.537
71.18000 6.538
71.20000 6.356
71.22000 4.370
71.24000 5.022
71.26000 4.995
71.28000 5.611
71.30000 6.219
71.32000 5.070
71.34000 1.473
71.36000 -0.310
71.38000 6.208
71.40000 7.925
71.42000 5.688
71.44000 -0.104
71.46000 2.137
71.48000 3.543
71.50000 2.744
71.52000 6.395
71.54000 0.464
71.56000 3.468
71.58000 3.593
71.60000 2.293
71.62000 0.413
71.64000 -0.402
71.66000 1.085
71.68000 3.228
71.70000 2.712
71.72000 1.171
71.74000 3.380
71.76000 -0.301
71.78000 3.730
71.80000 4.519
71.82000 3.592
71.84000 2.343
71.86000 0.706
71.88000 1.437
71.90000 0.075
71.92000 3.205
71.94000 1.996
71.96000 1.170
71.98000 -1.405
72.00000 1.593
72.02000 2.933
72.04000 1.485
72.06000 4.139
72.08000 0.560
72.10000 0.900
72.12000 2.106
72.14000 3.364
72.16000 3.738
72.18000 1.488
72.20000 1.965
72.22000 6.504
72.24000 4.717
72.26000 2.337
72.28000 0.179
72.30000 2.014
72.32000 5.598
72.34000 1.088
72.36000 -0.767
72.38000 -2.379
72.40000 -0.633
72.42000 1.376
72.44000 4.258
72.46000 0.140
72.48000 0.194
72.50000 5.105
72.52000 7.013
72.54000 3.850
72.56000 2.724
72.58000 3.784
72.60000 5.105
72.62000 5.861
72.64000 3.091
72.66000 -1.016
72.68000 -2.332
72.70000 3.290
72.72000 4.851
72.74000 6.712
72.76000 4.809
72.78000 2.993
72.80000 2.920
72.82000 1.916
72.84000 6.586
72.86000 4.909
72.88000 3.412
72.90000 5.722
72.92000 7.862
72.94000 5.059
72.96000 4.758
72.98000 3.684
73.00000 2.850
73.02000 3.149
73.04000 1.572
73.06000 1.502
73.08000 -2.347
73.10000 -1.767
73.12000 -0.053
73.14000 -1.459
73.16000 1.321
73.18000 2.238
73.20000 3.346
73.22000 1.450
73.24000 -1.532
73.26000 -2.347
73.28000 -1.668
73.30000 -1.492
73.32000 2.381
73.34000 2.870
73.36000 4.522
73.38000 5.222
73.40000 4.569
73.42000 8.369
73.44000 9.136
73.46000 3.604
73.48000 4.530
73.50000 7.803
73.52000 9.629
73.54000 0.533
73.56000 1.487
73.58000 4.278
73.60000 7.649
73.62000 4.246
73.64000 3.225
73.66000 4.953
73.68000 5.644
73.70000 2.726
73.72000 3.373
73.74000 1.743
73.76000 7.494
73.78000 7.310
73.80000 5.368
73.82000 6.375
73.84000 6.849
73.86000 5.719
73.88000 -0.256
73.90000 -0.170
73.92000 0.930
73.94000 2.339
73.96000 3.404
73.98000 4.458
74.00000 5.581
74.02000 2.462
74.04000 0.183
74.06000 0.255
74.08000 4.824
74.10000 4.614
74.12000 2.978
74.14000 3.379
74.16000 1.972
74.18000 2.512
74.20000 2.854
74.22000 -1.189
74.24000 0.207
74.26000 0.941
74.28000 1.751
74.30000 2.299
74.32000 1.683
74.34000 1.007
74.36000 1.410
74.38000 3.249
74.40000 4.067
74.42000 5.576
74.44000 5.285
74.46000 3.292
74.48000 4.369
74.50000 0.467
74.52000 1.855
74.54000 7.557
74.56000 4.971
74.58000 5.851
74.60000 4.562
74.62000 5.731
74.64000 3.495
74.66000 -2.284
74.68000 3.065
74.70000 5.047
74.72000 1.996
74.74000 4.239
74.76000 3.281
74.78000 0.673
74.80000 5.055
74.82000 6.336
74.84000 8.603
74.86000 6.908
74.88000 6.824
74.90000 -0.622
74.92000 2.779
74.94000 4.821
74.96000 3.909
74.98000 6.270
75.00000 6.761
75.02000 7.317
75.04000 2.605
75.06000 2.113
75.08000 1.579
75.10000 2.710
75.12000 2.281
75.14000 -0.734
75.16000 2.786
75.18000 2.997
75.20000 4.217
75.22000 2.541
75.24000 5.767
75.26000 6.691
75.28000 8.681
75.30000 8.110
75.32000 6.823
75.34000 7.138
75.36000 2.792
75.38000 4.700
75.40000 7.426
75.42000 6.842
75.44000 2.901
75.46000 2.990
75.48000 9.815
75.50000 6.257
75.52000 0.645
75.54000 0.800
75.56000 1.360
75.58000 3.233
75.60000 6.415
75.62000 5.359
75.64000 4.984
75.66000 1.638
75.68000 -1.434
75.70000 2.737
75.72000 4.226
75.74000 6.819
75.76000 7.019
75.78000 6.988
75.80000 8.342
75.82000 4.569
75.84000 2.003
75.86000 -2.352
75.88000 2.832
75.90000 6.887
75.92000 8.163
75.94000 6.768
75.96000 3.228
75.98000 3.498
76.00000 2.476
76.02000 2.299
76.04000 3.808
76.06000 6.120
76.08000 3.128
76.10000 1.231
76.12000 1.185
76.14000 3.309
76.16000 2.745
76.18000 2.011
76.20000 1.211
76.22000 3.670
76.24000 2.883
76.26000 4.537
76.28000 5.459
76.30000 5.194
76.32000 6.043
76.34000 0.641
76.36000 3.986
76.38000 2.937
76.40000 -0.131
76.42000 -1.448
76.44000 3.749
76.46000 3.637
76.48000 6.291
76.50000 6.069
76.52000 7.442
76.54000 7.388
76.56000 2.740
76.58000 2.945
76.60000 2.271
76.62000 1.775
76.64000 0.498
76.66000 -0.533
76.68000 -0.672
76.70000 3.746
76.72000 1.521
76.74000 -0.818
76.76000 2.115
76.78000 5.754
76.80000 4.764
76.82000 3.292
76.84000 1.910
76.86000 2.908
76.88000 3.246
76.90000 2.700
76.92000 5.582
76.94000 2.710
76.96000 7.172
76.98000 6.849
77.00000 5.741
77.02000 6.392
77.04000 4.818
77.06000 6.213
77.08000 5.010
77.10000 2.333
77.12000 -2.335
77.14000 2.618
77.16000 3.650
77.18000 -1.488
77.20000 -0.280
77.22000 3.752
77.24000 7.478
77.26000 7.938
77.28000 5.568
77.30000 5.305
77.32000 9.022
77.34000 11.529
77.36000 6.397
77.38000 3.251
77.40000 8.471
77.42000 9.130
77.44000 3.394
77.46000 0.311
77.48000 0.713
77.50000 2.763
77.52000 3.471
77.54000 5.521
77.56000 5.666
77.58000 2.684
77.60000 7.321
77.62000 8.747
77.64000 4.979
77.66000 8.684
77.68000 5.951
77.70000 6.047
77.72000 1.682
77.74000 -2.352
77.76000 -1.030
77.78000 -0.935
77.80000 5.729
77.82000 -0.416
77.84000 -1.315
77.86000 2.094
77.88000 5.509
77.90000 2.786
77.92000 1.024
77.94000 3.943
77.96000 2.183
77.98000 3.914
78.00000 3.512
78.02000 2.887
78.04000 3.649
78.06000 4.829
78.08000 5.631
78.10000 4.114
78.12000 5.512
78.14000 -2.105
78.16000 -2.233
78.18000 5.471
78.20000 2.167
78.22000 3.371
78.24000 4.589
78.26000 4.084
78.28000 -0.807
78.30000 0.404
78.32000 3.881
78.34000 5.683
78.36000 2.161
78.38000 0.623
78.40000 1.755
78.42000 3.603
78.44000 4.398
78.46000 10.988
78.48000 3.896
78.50000 5.171
78.52000 5.484
78.54000 3.383
78.56000 1.437
78.58000 4.019
78.60000 5.734
78.62000 1.471
78.64000 2.427
78.66000 -0.043
78.68000 3.538
78.70000 4.655
78.72000 5.910
78.74000 -0.212
78.76000 2.921
78.78000 3.853
78.80000 2.463
78.82000 -0.280
78.84000 -0.156
78.86000 1.461
78.88000 3.317
78.90000 1.627
78.92000 0.823
78.94000 4.648
78.96000 2.891
78.98000 2.317
79.00000 0.274
79.02000 -0.422
79.04000 1.629
79.06000 2.824
79.08000 3.946
79.10000 3.653
79.12000 3.057
79.14000 0.744
79.16000 -0.718
79.18000 -1.079
79.20000 -2.392
79.22000 1.074
79.24000 5.687
79.26000 6.608
79.28000 5.745
79.30000 4.927
79.32000 4.151
79.34000 0.105
79.36000 0.386
79.38000 2.388
79.40000 4.813
79.42000 2.518
79.44000 0.367
79.46000 5.395
79.48000 5.628
79.50000 0.382
79.52000 -0.971
79.54000 2.606
79.56000 3.340
79.58000 2.556
79.60000 8.158
79.62000 5.197
79.64000 1.807
79.66000 4.885
79.68000 6.700
79.70000 1.008
79.72000 1.650
79.74000 3.601
79.76000 4.640
79.78000 1.692
79.80000 0.708
79.82000 1.182
79.84000 7.739
79.86000 8.499
79.88000 6.682
79.90000 3.581
79.92000 6.214
79.94000 3.025
79.96000 -2.356
79.98000 1.399
80.00000 3.240
80.02000 7.467
80.04000 5.457
80.06000 2.298
80.08000 7.178
80.10000 5.293
80.12000 5.223
80.14000 5.698
80.16000 4.934
80.18000 6.115
80.20000 4.487
80.22000 5.265
80.24000 6.567
80.26000 5.916
80.28000 4.591
80.30000 5.147
80.32000 3.404
80.34000 3.440
80.36000 7.992
80.38000 5.627
80.40000 0.851
80.42000 4.126
80.44000 2.174
80.46000 4.503
80.48000 0.996
80.50000 4.754
80.52000 6.018
80.54000 6.917
80.56000 2.500
80.58000 3.373
80.60000 -0.911
80.62000 -0.357
80.64000 -0.996
80.66000 3.547
80.68000 5.345
80.70000 3.662
80.72000 1.950
80.74000 1.333
80.76000 1.112
80.78000 5.556
80.80000 0.333
80.82000 -2.436
80.84000 0.196
80.86000 6.485
80.88000 5.045
80.90000 3.560
80.92000 -0.189
80.94000 3.085
80.96000 8.004
80.98000 1.870
81.00000 4.199
81.02000 3.609
81.04000 3.920
81.06000 0.853
81.08000 -2.457
81.10000 0.080
81.12000 2.111
81.14000 3.661
81.16000 5.845
81.18000 7.855
81.20000 1.371
81.22000 3.445
81.24000 3.598
81.26000 7.690
81.28000 7.636
81.30000 4.481
81.32000 2.979
81.34000 6.278
81.36000 7.632
81.38000 2.445
81.40000 -1.317
81.42000 -2.329
81.44000 -1.595
81.46000 -2.109
81.48000 2.596
81.50000 0.030
81.52000 0.071
81.54000 3.743
81.56000 7.926
81.58000 7.479
81.60000 3.756
81.62000 0.276
81.64000 2.777
81.66000 2.986
81.68000 5.085
81.70000 3.409
81.72000 3.708
81.74000 6.472
81.76000 3.156
81.78000 -0.462
81.80000 1.499
81.82000 2.325
81.84000 8.428
81.86000 7.424
81.88000 3.732
81.90000 4.331
81.92000 8.938
81.94000 5.839
81.96000 8.021
81.98000 6.542
82.00000 5.546
82.02000 9.333
82.04000 3.540
82.06000 5.769
82.08000 5.459
82.10000 5.606
82.12000 3.191
82.14000 5.354
82.16000 5.826
82.18000 5.936
82.20000 6.689
82.22000 2.944
82.24000 5.553
82.26000 8.990
82.28000 9.972
82.30000 9.519
82.32000 8.563
82.34000 9.680
82.36000 12.958
82.38000 11.759
82.40000 8.436
82.42000 7.867
82.44000 6.399
82.46000 5.798
82.48000 14.229
82.50000 13.505
82.52000 12.465
82.54000 11.312
82.56000 12.341
82.58000 12.094
82.60000 14.539
82.62000 14.828
82.64000 16.955
82.66000 16.410
82.68000 16.131
82.70000 15.101
82.72000 16.372
82.74000 19.581
82.76000 19.268
82.78000 16.243
82.80000 15.104
82.82000 18.618
82.84000 18.717
82.86000 18.677
82.88000 21.759
82.90000 24.781
82.92000 23.882
82.94000 16.949
82.96000 20.993
82.98000 19.538
83.00000 18.582
83.02000 13.123
83.04000 15.754
83.06000 20.151
83.08000 24.146
83.10000 20.720
83.12000 17.701
83.14000 18.093
83.16000 22.298
83.18000 20.493
83.20000 26.639
83.22000 27.294
83.24000 26.001
83.26000 25.345
83.28000 24.810
83.30000 22.672
83.32000 25.850
83.34000 28.417
83.36000 27.210
83.38000 25.877
83.40000 22.024
83.42000 23.881
83.44000 26.696
83.46000 28.165
83.48000 25.341
83.50000 25.577
83.52000 23.596
83.54000 23.254
83.56000 24.859
83.58000 24.417
83.60000 20.948
83.62000 19.567
83.64000 22.158
83.66000 28.208
83.68000 31.627
83.70000 29.183
83.72000 27.198
83.74000 22.355
83.76000 16.958
83.78000 20.630
83.80000 21.765
83.82000 19.707
83.84000 17.604
83.86000 18.523
83.88000 22.292
83.90000 19.414
83.92000 16.361
83.94000 17.100
83.96000 23.240
83.98000 16.417
84.00000 17.315
84.02000 18.363
84.04000 19.991
84.06000 16.216
84.08000 13.069
84.10000 12.947
84.12000 19.055
84.14000 16.951
84.16000 14.343
84.18000 19.491
84.20000 12.285
84.22000 6.147
84.24000 12.818
84.26000 12.291
84.28000 11.399
84.30000 8.422
84.32000 8.868
84.34000 10.094
84.36000 9.389
84.38000 14.444
84.40000 8.394
84.42000 1.771
84.44000 2.951
84.46000 6.310
84.48000 10.163
84.50000 8.827
84.52000 8.401
84.54000 3.849
84.56000 2.357
84.58000 4.054
84.60000 4.087
84.62000 3.429
84.64000 2.605
84.66000 5.975
84.68000 6.642
84.70000 5.086
84.72000 2.512
84.74000 5.575
84.76000 7.403
84.78000 1.034
84.80000 0.284
84.82000 -0.628
84.84000 5.727
84.86000 4.032
84.88000 4.640
84.90000 3.362
84.92000 0.434
84.94000 3.023
84.96000 2.347
84.98000 6.039
85.00000 3.494
85.02000 10.566
85.04000 4.509
85.06000 1.283
85.08000 2.059
85.10000 5.258
85.12000 3.651
85.14000 4.872
85.16000 3.390
85.18000 0.315
85.20000 -2.456
85.22000 1.232
85.24000 -1.119
85.26000 -0.231
85.28000 4.802
85.30000 3.451
85.32000 4.311
85.34000 5.025
85.36000 -1.284
85.38000 2.350
85.40000 2.703
85.42000 3.846
85.44000 0.454
85.46000 -0.150
85.48000 3.733
85.50000 1.801
85.52000 -0.621
85.54000 1.872
85.56000 2.580
85.58000 0.947
85.60000 5.815
85.62000 3.507
85.64000 0.778
85.66000 2.434
85.68000 2.641
85.70000 -1.193
85.72000 -1.834
85.74000 -2.434
85.76000 1.546
85.78000 2.149
85.80000 0.803
85.82000 1.400
85.84000 -0.729
85.86000 -0.990
85.88000 -2.438
85.90000 -2.179
85.92000 2.827
85.94000 8.614
85.96000 8.929
85.98000 4.570
86.00000 1.787
86.02000 5.719
86.04000 5.531
86.06000 1.777
86.08000 -0.643
86.10000 1.048
86.12000 1.512
86.14000 -1.927
86.16000 1.379
86.18000 6.323
86.20000 6.649
86.22000 5.207
86.24000 3.677
86.26000 2.203
86.28000 6.961
86.30000 4.109
86.32000 -2.453
86.34000 2.134
86.36000 3.156
86.38000 3.854
86.40000 2.596
86.42000 6.012
86.44000 4.737
86.46000 1.770
86.48000 3.271
86.50000 5.331
86.52000 1.074
86.54000 4.690
86.56000 6.701
86.58000 3.637
86.60000 1.134
86.62000 5.942
86.64000 2.205
86.66000 2.389
86.68000 -0.028
86.70000 0.855
86.72000 2.333
86.74000 0.971
86.76000 0.499
86.78000 1.806
86.80000 -0.913
86.82000 5.177
86.84000 1.744
86.86000 1.129
86.88000 2.420
86.90000 6.169
86.92000 5.750
86.94000 4.988
86.96000 3.505
86.98000 4.222
87.00000 8.955
87.02000 12.085
87.04000 14.092
87.06000 10.614
87.08000 6.600
87.10000 8.903
87.12000 7.589
87.14000 3.787
87.16000 5.490
87.18000 7.000
87.20000 8.521
87.22000 13.992
87.24000 13.514
87.26000 12.352
87.28000 11.533
87.30000 11.815
87.32000 14.624
87.34000 11.055
87.36000 12.513
87.38000 13.493
87.40000 13.288
87.42000 12.085
87.44000 9.394
87.46000 15.833
87.48000 16.809
87.50000 20.134
87.52000 20.848
87.54000 23.246
87.56000 16.525
87.58000 12.727
87.60000 11.810
87.62000 11.884
87.64000 14.673
87.66000 17.716
87.68000 15.157
87.70000 14.337
87.72000 21.580
87.74000 17.953
87.76000 15.896
87.78000 19.732
87.80000 21.955
87.82000 21.810
87.84000 21.521
87.86000 20.705
87.88000 21.335
87.90000 24.439
87.92000 25.009
87.94000 21.556
87.96000 19.387
87.98000 14.395
88.00000 15.381
88.02000 20.353
88.04000 18.741
88.06000 18.505
88.08000 19.830
88.10000 18.756
88.12000 16.660
88.14000 18.227
88.16000 16.555
88.18000 18.174
88.20000 18.320
88.22000 14.538
88.24000 16.473
88.26000 18.257
88.28000 20.732
88.30000 20.327
88.32000 17.078
88.34000 17.592
88.36000 18.008
88.38000 20.360
88.40000 18.777
88.42000 11.020
88.44000 8.632
88.46000 14.868
88.48000 10.546
88.50000 11.832
88.52000 11.371
88.54000 12.718
88.56000 10.458
88.58000 9.215
88.60000 11.452
88.62000 16.261
88.64000 11.856
88.66000 9.473
88.68000 12.248
88.70000 9.380
88.72000 6.616
88.74000 7.663
88.76000 9.792
88.78000 9.467
88.80000 4.401
88.82000 6.976
88.84000 5.916
88.86000 7.321
88.88000 3.337
88.90000 8.860
88.92000 14.631
88.94000 11.357
88.96000 11.041
88.98000 3.942
89.00000 1.330
89.02000 0.844
89.04000 -2.394
89.06000 4.669
89.08000 11.134
89.10000 6.010
89.12000 3.474
89.14000 2.896
89.16000 -0.718
89.18000 -0.858
89.20000 6.011
89.22000 3.344
89.24000 10.075
89.26000 8.354
89.28000 2.547
89.30000 0.787
89.32000 3.092
89.34000 5.153
89.36000 -1.052
89.38000 -0.439
89.40000 6.790
89.42000 7.749
89.44000 2.390
89.46000 -1.224
89.48000 -0.005
89.50000 2.884
89.52000 5.394
89.54000 0.649
89.56000 1.247
89.58000 4.355
89.60000 4.269
89.62000 3.452
89.64000 1.231
89.66000 0.556
89.68000 3.082
89.70000 2.809
89.72000 0.579
89.74000 4.000
89.76000 4.203
89.78000 5.783
89.80000 7.582
89.82000 8.689
89.84000 6.306
89.86000 7.111
89.88000 1.724
89.90000 -0.627
89.92000 -1.393
89.94000 -2.169
89.96000 -2.266
89.98000 3.024
90.00000 6.955
90.02000 6.183
90.04000 5.038
90.06000 1.647
90.08000 5.119
90.10000 6.374
90.12000 5.275
90.14000 1.860
90.16000 6.989
90.18000 8.788
90.20000 6.075
90.22000 3.507
90.24000 1.388
90.26000 2.780
90.28000 2.959
90.30000 4.255
90.32000 -0.611
90.34000 -0.615
90.36000 6.268
90.38000 5.672
90.40000 4.494
90.42000 -0.504
90.44000 3.204
90.46000 6.702
90.48000 2.837
90.50000 3.022
90.52000 0.434
90.54000 0.126
90.56000 2.329
90.58000 4.718
90.60000 3.473
90.62000 0.177
90.64000 -0.781
90.66000 -1.718
90.68000 -0.106
90.70000 7.599
90.72000 7.141
90.74000 8.988
90.76000 6.207
90.78000 0.839
90.80000 1.308
90.82000 -0.140
90.84000 -1.383
90.86000 2.535
90.88000 1.742
90.90000 5.936
90.92000 3.755
90.94000 1.133
90.96000 2.860
90.98000 4.080
91.00000 3.288
91.02000 2.015
91.04000 -2.238
91.06000 -0.179
91.08000 1.309
91.10000 4.839
91.12000 2.301
91.14000 0.106
91.16000 0.188
91.18000 -0.540
91.20000 -2.229
91.22000 3.484
91.24000 2.085
91.26000 -1.467
91.28000 3.663
91.30000 5.263
91.32000 6.514
91.34000 3.692
91.36000 6.030
91.38000 1.632
91.40000 0.264
91.42000 2.706
91.44000 3.409
91.46000 2.262
91.48000 1.996
91.50000 -1.787
91.52000 -0.969
91.54000 -0.032
91.56000 2.670
91.58000 0.624
91.60000 3.948
91.62000 3.610
91.64000 3.715
91.66000 6.941
91.68000 5.913
91.70000 5.688
91.72000 3.727
91.74000 -2.252
91.76000 0.538
91.78000 2.535
91.80000 1.597
91.82000 3.687
91.84000 3.703
91.86000 5.197
91.88000 5.721
91.90000 4.746
91.92000 1.374
91.94000 -0.004
91.96000 -0.661
91.98000 2.909
92.00000 5.672
92.02000 10.082
92.04000 5.798
92.06000 1.880
92.08000 3.191
92.10000 4.375
92.12000 1.828
92.14000 5.215
92.16000 3.154
92.18000 1.462
92.20000 1.700
92.22000 6.575
92.24000 7.470
92.26000 6.768
92.28000 3.071
92.30000 5.672
92.32000 5.804
92.34000 3.234
92.36000 -1.184
92.38000 -0.583
92.40000 1.073
92.42000 -0.941
92.44000 -2.259
92.46000 -1.704
92.48000 0.699
92.50000 8.179
92.52000 5.290
92.54000 4.944
92.56000 5.159
92.58000 2.196
92.60000 4.014
92.62000 3.046
92.64000 -1.977
92.66000 2.482
92.68000 3.353
92.70000 -0.001
92.72000 5.070
92.74000 0.794
92.76000 0.393
92.78000 -1.171
92.80000 -1.687
92.82000 -0.031
92.84000 1.778
92.86000 3.831
92.88000 3.517
92.90000 -1.422
92.92000 -0.780
92.94000 2.242
92.96000 -1.035
92.98000 1.192
93.00000 5.416
93.02000 3.570
93.04000 3.712
93.06000 2.745
93.08000 -0.796
93.10000 2.313
93.12000 5.110
93.14000 4.096
93.16000 4.365
93.18000 1.483
93.20000 -0.164
93.22000 -1.560
93.24000 1.196
93.26000 1.078
93.28000 4.220
93.30000 -0.032
93.32000 2.449
93.34000 0.405
93.36000 2.139
93.38000 2.059
93.40000 0.307
93.42000 0.919
93.44000 6.257
93.46000 4.134
93.48000 0.497
93.50000 2.245
93.52000 2.868
93.54000 7.646
93.56000 7.052
93.58000 2.531
93.60000 2.834
93.62000 4.793
93.64000 1.064
93.66000 2.610
93.68000 -0.170
93.70000 0.936
93.72000 4.651
93.74000 6.714
93.76000 6.871
93.78000 5.835
93.80000 2.628
93.82000 5.683
93.84000 2.210
93.86000 1.317
93.88000 6.358
93.90000 8.230
93.92000 7.014
93.94000 7.523
93.96000 3.392
93.98000 10.097
94.00000 8.070
94.02000 8.384
94.04000 5.648
94.06000 2.225
94.08000 8.643
94.10000 1.768
94.12000 -2.188
94.14000 1.389
94.16000 7.343
94.18000 12.775
94.20000 9.392
94.22000 4.531
94.24000 2.764
94.26000 6.015
94.28000 6.625
94.30000 15.342
94.32000 10.195
94.34000 6.016
94.36000 4.805
94.38000 6.777
94.40000 5.804
94.42000 3.375
94.44000 5.723
94.46000 6.929
94.48000 7.127
94.50000 8.191
94.52000 11.267
94.54000 2.805
94.56000 6.298
94.58000 7.689
94.60000 4.764
94.62000 4.591
94.64000 5.321
94.66000 6.319
94.68000 2.997
94.70000 0.941
94.72000 4.741
94.74000 -0.767
94.76000 0.609
94.78000 3.953
94.80000 0.333
94.82000 1.063
94.84000 5.389
94.86000 0.578
94.88000 3.809
94.90000 9.500
94.92000 11.526
94.94000 5.394
94.96000 6.547
94.98000 9.318
95.00000 10.539
95.02000 0.483
95.04000 1.636
95.06000 0.830
95.08000 5.282
95.10000 7.051
95.12000 4.148
95.14000 2.119
95.16000 4.034
95.18000 4.711
95.20000 6.273
95.22000 5.322
95.24000 5.745
95.26000 6.759
95.28000 3.502
95.30000 1.175
95.32000 -1.543
95.34000 -2.258
95.36000 2.420
95.38000 4.005
95.40000 4.657
95.42000 3.347
95.44000 6.034
95.46000 7.978
95.48000 4.402
95.50000 5.380
95.52000 8.596
95.54000 5.813
95.56000 6.170
95.58000 4.310
95.60000 5.969
95.62000 9.365
95.64000 -2.141
95.66000 0.083
95.68000 4.926
95.70000 9.732
95.72000 3.619
95.74000 5.557
95.76000 8.404
95.78000 8.800
95.80000 8.551
95.82000 1.878
95.84000 0.072
95.86000 1.224
95.88000 1.066
95.90000 -0.192
95.92000 1.409
95.94000 6.436
95.96000 5.361
95.98000 2.843
96.00000 0.985
96.02000 3.866
96.04000 3.613
96.06000 6.447
96.08000 6.313
96.10000 2.132
96.12000 2.920
96.14000 6.321
96.16000 6.989
96.18000 7.938
96.20000 4.015
96.22000 8.608
96.24000 2.193
96.26000 -2.255
96.28000 -0.390
96.30000 1.044
96.32000 6.025
96.34000 10.609
96.36000 7.623
96.38000 5.295
96.40000 -0.443
96.42000 0.848
96.44000 -2.200
96.46000 -2.178
96.48000 -2.248
96.50000 0.978
96.52000 6.237
96.54000 7.294
96.56000 1.278
96.58000 1.420
96.60000 7.055
96.62000 9.816
96.64000 8.654
96.66000 5.072
96.68000 5.075
96.70000 -1.869
96.72000 1.468
96.74000 2.228
96.76000 7.350
96.78000 6.639
96.80000 7.314
96.82000 5.320
96.84000 7.754
96.86000 8.745
96.88000 13.269
96.90000 5.308
96.92000 2.067
96.94000 9.699
96.96000 8.422
96.98000 5.034
97.00000 5.091
97.02000 10.196
97.04000 10.487
97.06000 7.693
97.08000 13.295
97.10000 7.029
97.12000 2.035
97.14000 -0.304
97.16000 5.544
97.18000 5.445
97.20000 -2.200
97.22000 3.162
97.24000 6.830
97.26000 8.384
97.28000 7.097
97.30000 7.165
97.32000 8.184
97.34000 1.517
97.36000 7.702
97.38000 4.268
97.40000 9.543
97.42000 8.674
97.44000 9.595
97.46000 6.640
97.48000 3.784
97.50000 -0.605
97.52000 -0.236
97.54000 -1.042
97.56000 5.308
97.58000 6.174
97.60000 7.728
97.62000 9.078
97.64000 1.413
97.66000 1.574
97.68000 3.103
97.70000 1.876
97.72000 0.360
97.74000 4.039
97.76000 4.179
97.78000 4.948
97.80000 3.882
97.82000 7.214
97.84000 8.277
97.86000 7.488
97.88000 11.443
97.90000 12.465
97.92000 4.982
97.94000 -2.203
97.96000 1.114
97.98000 6.728
98.00000 6.623
98.02000 6.682
98.04000 8.998
98.06000 6.298
98.08000 6.806
98.10000 2.446
98.12000 5.356
98.14000 3.351
98.16000 10.769
98.18000 4.408
98.20000 4.616
98.22000 3.697
98.24000 2.257
98.26000 6.206
98.28000 2.118
98.30000 4.108
98.32000 2.109
98.34000 -2.192
98.36000 4.767
98.38000 5.099
98.40000 7.459
98.42000 8.226
98.44000 12.929
98.46000 6.477
98.48000 6.193
98.50000 5.314
98.52000 0.099
98.54000 1.420
98.56000 1.318
98.58000 5.310
98.60000 11.724
98.62000 3.245
98.64000 4.099
98.66000 4.345
98.68000 8.266
98.70000 4.106
98.72000 2.998
98.74000 4.404
98.76000 10.722
98.78000 3.627
98.80000 -1.350
98.82000 1.300
98.84000 4.655
98.86000 6.557
98.88000 8.645
98.90000 6.089
98.92000 8.306
98.94000 11.305
98.96000 0.404
98.98000 3.696
99.00000 3.086
99.02000 11.211
99.04000 3.915
99.06000 -0.967
99.08000 10.254
99.10000 11.281
99.12000 5.582
99.14000 3.153
99.16000 2.775
99.18000 15.235
99.20000 13.881
99.22000 6.242
99.24000 9.216
99.26000 9.443
99.28000 10.961
99.30000 4.462
99.32000 8.695
99.34000 7.175
99.36000 6.035
99.38000 -2.166
99.40000 3.913
99.42000 8.074
99.44000 14.226
99.46000 6.305
99.48000 4.077
99.50000 12.334
99.52000 12.238
99.54000 1.597
99.56000 6.458
99.58000 5.647
99.60000 8.117
99.62000 12.243
99.64000 -1.852
99.66000 7.050
99.68000 7.617
99.70000 5.846
99.72000 -1.920
99.74000 -0.608
99.76000 1.620
99.78000 13.448
99.80000 9.863
99.82000 17.557
99.84000 15.299
99.86000 7.575
99.88000 5.490
99.90000 -3.556
99.92000 6.565
99.94000 17.064
99.96000 6.000
99.98000 0.000
