'Id: "0011389" Comment: "Integrate frame 0011389_Au-Ir-Rh_Au-Rich_XRD_Mapping-182-0000.gfrmwith cursor Wedge Cursor #5" Operator: "B?rgel" Anode: "Cu" Wavelength: "1.5406" Scantype: "2Theta (TwoTheta)" TimePerStep: "1" X: "-27" Y: "4.5" Z: "5.95" 
10.00000 0.000
10.02000 -4.571
10.04000 -4.421
10.06000 7.190
10.08000 1.005
10.10000 22.347
10.12000 19.793
10.14000 17.730
10.16000 16.362
10.18000 11.859
10.20000 12.858
10.22000 16.861
10.24000 12.195
10.26000 20.349
10.28000 15.206
10.30000 22.006
10.32000 25.136
10.34000 19.583
10.36000 14.852
10.38000 10.153
10.40000 18.649
10.42000 21.729
10.44000 14.179
10.46000 29.887
10.48000 16.425
10.50000 9.650
10.52000 9.384
10.54000 16.419
10.56000 4.242
10.58000 5.127
10.60000 17.024
10.62000 20.103
10.64000 15.009
10.66000 11.902
10.68000 10.501
10.70000 20.787
10.72000 32.616
10.74000 17.054
10.76000 17.624
10.78000 4.412
10.80000 -4.425
10.82000 -4.143
10.84000 9.371
10.86000 8.292
10.88000 5.665
10.90000 13.795
10.92000 21.449
10.94000 10.588
10.96000 18.939
10.98000 18.351
11.00000 25.399
11.02000 11.392
11.04000 10.957
11.06000 14.721
11.08000 11.079
11.10000 9.341
11.12000 27.538
11.14000 26.206
11.16000 9.754
11.18000 -3.287
11.20000 -4.452
11.22000 13.264
11.24000 20.970
11.26000 15.443
11.28000 6.797
11.30000 12.716
11.32000 13.715
11.34000 15.207
11.36000 20.307
11.38000 12.584
11.40000 18.726
11.42000 6.043
11.44000 -1.869
11.46000 9.526
11.48000 5.127
11.50000 -0.161
11.52000 2.173
11.54000 9.910
11.56000 13.504
11.58000 23.254
11.60000 33.743
11.62000 10.979
11.64000 8.921
11.66000 6.250
11.68000 2.033
11.70000 19.811
11.72000 14.808
11.74000 18.775
11.76000 20.178
11.78000 17.647
11.80000 13.217
11.82000 14.885
11.84000 7.644
11.86000 0.327
11.88000 17.460
11.90000 6.131
11.92000 8.709
11.94000 19.896
11.96000 15.463
11.98000 -2.842
12.00000 11.994
12.02000 8.025
12.04000 10.199
12.06000 13.878
12.08000 19.569
12.10000 18.994
12.12000 13.176
12.14000 7.655
12.16000 4.615
12.18000 10.606
12.20000 25.755
12.22000 13.932
12.24000 2.720
12.26000 -2.274
12.28000 8.385
12.30000 18.111
12.32000 19.355
12.34000 8.975
12.36000 1.017
12.38000 -1.780
12.40000 3.792
12.42000 4.017
12.44000 8.534
12.46000 21.724
12.48000 26.767
12.50000 17.059
12.52000 0.657
12.54000 3.737
12.56000 12.448
12.58000 8.987
12.60000 7.416
12.62000 6.988
12.64000 3.141
12.66000 13.820
12.68000 8.308
12.70000 7.206
12.72000 7.696
12.74000 16.877
12.76000 6.332
12.78000 2.606
12.80000 11.060
12.82000 6.647
12.84000 7.111
12.86000 7.063
12.88000 2.201
12.90000 8.109
12.92000 16.090
12.94000 20.277
12.96000 9.931
12.98000 17.631
13.00000 14.758
13.02000 18.382
13.04000 19.795
13.06000 9.290
13.08000 18.378
13.10000 17.263
13.12000 10.446
13.14000 12.319
13.16000 18.706
13.18000 14.531
13.20000 4.132
13.22000 8.149
13.24000 5.192
13.26000 4.660
13.28000 3.952
13.30000 -0.467
13.32000 -2.929
13.34000 -0.836
13.36000 13.064
13.38000 16.633
13.40000 12.463
13.42000 12.297
13.44000 8.592
13.46000 5.223
13.48000 0.540
13.50000 -0.009
13.52000 -2.992
13.54000 1.831
13.56000 9.957
13.58000 10.295
13.60000 8.135
13.62000 14.429
13.64000 8.466
13.66000 -4.516
13.68000 11.460
13.70000 17.635
13.72000 11.379
13.74000 6.584
13.76000 8.593
13.78000 12.396
13.80000 9.269
13.82000 6.855
13.84000 7.048
13.86000 3.574
13.88000 8.491
13.90000 16.537
13.92000 11.273
13.94000 4.239
13.96000 6.471
13.98000 6.314
14.00000 9.559
14.02000 14.698
14.04000 12.187
14.06000 4.716
14.08000 4.534
14.10000 2.386
14.12000 11.449
14.14000 0.747
14.16000 8.441
14.18000 7.050
14.20000 -3.416
14.22000 0.228
14.24000 11.988
14.26000 7.639
14.28000 -3.276
14.30000 5.700
14.32000 11.754
14.34000 7.601
14.36000 4.078
14.38000 9.100
14.40000 7.779
14.42000 9.871
14.44000 8.439
14.46000 13.966
14.48000 7.707
14.50000 14.692
14.52000 5.611
14.54000 17.933
14.56000 9.603
14.58000 10.564
14.60000 4.397
14.62000 7.505
14.64000 19.298
14.66000 18.135
14.68000 22.370
14.70000 14.095
14.72000 14.655
14.74000 5.558
14.76000 17.683
14.78000 21.621
14.80000 13.599
14.82000 10.307
14.84000 10.758
14.86000 6.601
14.88000 -4.476
14.90000 4.769
14.92000 18.138
14.94000 17.938
14.96000 14.739
14.98000 11.526
15.00000 10.924
15.02000 9.243
15.04000 9.772
15.06000 9.532
15.08000 8.928
15.10000 7.970
15.12000 6.803
15.14000 2.086
15.16000 2.336
15.18000 6.199
15.20000 21.443
15.22000 12.073
15.24000 5.538
15.26000 11.824
15.28000 4.428
15.30000 7.102
15.32000 11.185
15.34000 14.212
15.36000 15.497
15.38000 11.976
15.40000 10.720
15.42000 6.566
15.44000 19.200
15.46000 14.480
15.48000 8.260
15.50000 13.581
15.52000 6.073
15.54000 5.550
15.56000 5.577
15.58000 1.461
15.60000 6.386
15.62000 15.120
15.64000 7.854
15.66000 4.897
15.68000 10.164
15.70000 11.074
15.72000 4.071
15.74000 -2.959
15.76000 -0.003
15.78000 4.422
15.80000 1.848
15.82000 4.316
15.84000 5.988
15.86000 6.903
15.88000 11.832
15.90000 11.006
15.92000 6.975
15.94000 1.647
15.96000 4.464
15.98000 5.371
16.00000 3.533
16.02000 2.255
16.04000 8.576
16.06000 9.943
16.08000 4.469
16.10000 1.805
16.12000 7.153
16.14000 2.676
16.16000 0.890
16.18000 1.515
16.20000 4.790
16.22000 5.479
16.24000 4.983
16.26000 1.798
16.28000 2.818
16.30000 3.508
16.32000 4.718
16.34000 -0.932
16.36000 0.559
16.38000 6.592
16.40000 8.184
16.42000 9.083
16.44000 6.355
16.46000 13.018
16.48000 5.958
16.50000 5.395
16.52000 5.736
16.54000 9.504
16.56000 4.863
16.58000 -2.285
16.60000 0.751
16.62000 -1.069
16.64000 -4.425
16.66000 -4.194
16.68000 2.650
16.70000 3.092
16.72000 6.632
16.74000 11.114
16.76000 10.528
16.78000 12.626
16.80000 15.214
16.82000 9.305
16.84000 12.277
16.86000 4.357
16.88000 4.602
16.90000 11.144
16.92000 15.674
16.94000 4.429
16.96000 6.975
16.98000 12.020
17.00000 13.461
17.02000 7.020
17.04000 2.187
17.06000 1.737
17.08000 -4.408
17.10000 2.973
17.12000 7.461
17.14000 -0.706
17.16000 5.291
17.18000 9.468
17.20000 6.216
17.22000 5.213
17.24000 5.015
17.26000 -0.395
17.28000 3.204
17.30000 7.994
17.32000 3.744
17.34000 4.661
17.36000 0.188
17.38000 2.581
17.40000 4.903
17.42000 1.940
17.44000 2.633
17.46000 -0.092
17.48000 0.188
17.50000 0.482
17.52000 6.802
17.54000 15.150
17.56000 10.859
17.58000 5.009
17.60000 -1.690
17.62000 5.108
17.64000 15.376
17.66000 14.141
17.68000 -1.461
17.70000 -2.256
17.72000 -1.730
17.74000 2.417
17.76000 -0.079
17.78000 1.863
17.80000 5.052
17.82000 7.704
17.84000 3.472
17.86000 4.628
17.88000 7.875
17.90000 9.311
17.92000 4.192
17.94000 2.913
17.96000 5.534
17.98000 6.438
18.00000 5.189
18.02000 1.811
18.04000 -1.533
18.06000 -2.831
18.08000 5.442
18.10000 9.309
18.12000 4.971
18.14000 8.228
18.16000 4.749
18.18000 1.034
18.20000 4.498
18.22000 1.958
18.24000 2.544
18.26000 0.628
18.28000 2.803
18.30000 8.122
18.32000 12.212
18.34000 11.296
18.36000 9.207
18.38000 -4.338
18.40000 -3.615
18.42000 7.878
18.44000 6.668
18.46000 5.462
18.48000 2.606
18.50000 0.948
18.52000 5.705
18.54000 -3.431
18.56000 0.847
18.58000 -2.965
18.60000 -2.905
18.62000 3.493
18.64000 3.671
18.66000 2.208
18.68000 5.103
18.70000 9.571
18.72000 5.072
18.74000 -0.099
18.76000 -0.476
18.78000 3.679
18.80000 -2.318
18.82000 3.647
18.84000 7.287
18.86000 8.689
18.88000 2.622
18.90000 7.894
18.92000 9.734
18.94000 6.827
18.96000 -0.129
18.98000 5.203
19.00000 7.761
19.02000 8.671
19.04000 2.404
19.06000 -2.042
19.08000 5.203
19.10000 7.098
19.12000 -4.283
19.14000 -1.970
19.16000 -2.785
19.18000 -3.560
19.20000 1.262
19.22000 -2.143
19.24000 -1.147
19.26000 -0.711
19.28000 3.799
19.30000 8.657
19.32000 8.222
19.34000 4.237
19.36000 6.502
19.38000 12.318
19.40000 4.963
19.42000 -1.244
19.44000 4.665
19.46000 2.755
19.48000 -1.593
19.50000 2.575
19.52000 0.953
19.54000 4.868
19.56000 12.465
19.58000 6.953
19.60000 2.144
19.62000 -1.845
19.64000 -0.032
19.66000 4.890
19.68000 2.045
19.70000 -1.933
19.72000 4.483
19.74000 6.984
19.76000 3.810
19.78000 2.415
19.80000 7.360
19.82000 8.118
19.84000 4.596
19.86000 8.643
19.88000 12.801
19.90000 9.419
19.92000 8.673
19.94000 6.191
19.96000 2.109
19.98000 5.203
20.00000 5.609
20.02000 3.048
20.04000 1.265
20.06000 2.508
20.08000 3.299
20.10000 1.834
20.12000 10.346
20.14000 7.912
20.16000 1.792
20.18000 -3.760
20.20000 -1.399
20.22000 1.877
20.24000 -0.342
20.26000 5.140
20.28000 4.531
20.30000 4.008
20.32000 7.922
20.34000 6.009
20.36000 6.336
20.38000 0.526
20.40000 -3.568
20.42000 1.015
20.44000 4.376
20.46000 4.589
20.48000 6.138
20.50000 -1.004
20.52000 3.120
20.54000 4.722
20.56000 1.729
20.58000 4.538
20.60000 2.854
20.62000 2.712
20.64000 8.133
20.66000 2.810
20.68000 2.326
20.70000 -0.180
20.72000 -3.470
20.74000 4.111
20.76000 12.428
20.78000 9.959
20.80000 5.871
20.82000 9.134
20.84000 14.231
20.86000 6.080
20.88000 2.534
20.90000 5.816
20.92000 5.945
20.94000 8.374
20.96000 -0.131
20.98000 1.424
21.00000 7.874
21.02000 10.562
21.04000 7.937
21.06000 0.561
21.08000 -4.155
21.10000 -3.445
21.12000 5.751
21.14000 5.015
21.16000 5.110
21.18000 2.430
21.20000 3.762
21.22000 4.689
21.24000 4.965
21.26000 -3.568
21.28000 3.601
21.30000 10.735
21.32000 7.638
21.34000 8.340
21.36000 7.656
21.38000 -0.539
21.40000 1.471
21.42000 1.310
21.44000 2.314
21.46000 5.284
21.48000 4.765
21.50000 3.265
21.52000 4.823
21.54000 2.317
21.56000 7.023
21.58000 7.783
21.60000 3.460
21.62000 7.335
21.64000 7.182
21.66000 6.836
21.68000 7.165
21.70000 7.333
21.72000 11.636
21.74000 8.069
21.76000 2.289
21.78000 4.080
21.80000 5.529
21.82000 10.027
21.84000 6.006
21.86000 5.002
21.88000 10.124
21.90000 7.600
21.92000 3.134
21.94000 3.660
21.96000 13.515
21.98000 15.501
22.00000 5.059
22.02000 11.354
22.04000 8.893
22.06000 5.955
22.08000 4.679
22.10000 2.509
22.12000 5.276
22.14000 4.488
22.16000 3.034
22.18000 5.063
22.20000 3.094
22.22000 2.853
22.24000 1.127
22.26000 3.116
22.28000 7.012
22.30000 3.801
22.32000 -4.101
22.34000 1.615
22.36000 8.371
22.38000 8.064
22.40000 7.444
22.42000 4.035
22.44000 -0.269
22.46000 4.166
22.48000 9.707
22.50000 4.349
22.52000 1.478
22.54000 3.944
22.56000 -0.012
22.58000 6.658
22.60000 7.798
22.62000 4.192
22.64000 12.432
22.66000 5.223
22.68000 2.909
22.70000 -2.123
22.72000 3.319
22.74000 0.984
22.76000 1.798
22.78000 6.601
22.80000 5.933
22.82000 -1.423
22.84000 5.044
22.86000 3.375
22.88000 4.499
22.90000 1.016
22.92000 0.441
22.94000 1.390
22.96000 6.297
22.98000 3.161
23.00000 2.973
23.02000 3.470
23.04000 3.408
23.06000 3.029
23.08000 0.789
23.10000 -2.376
23.12000 4.420
23.14000 7.567
23.16000 6.121
23.18000 3.130
23.20000 2.084
23.22000 -3.071
23.24000 7.364
23.26000 2.888
23.28000 -2.022
23.30000 3.093
23.32000 6.261
23.34000 4.870
23.36000 3.289
23.38000 3.879
23.40000 4.570
23.42000 2.914
23.44000 -3.258
23.46000 0.297
23.48000 3.126
23.50000 7.506
23.52000 7.545
23.54000 4.650
23.56000 0.658
23.58000 5.591
23.60000 9.115
23.62000 7.149
23.64000 3.654
23.66000 2.945
23.68000 -0.707
23.70000 1.454
23.72000 -0.551
23.74000 3.313
23.76000 3.557
23.78000 3.779
23.80000 3.596
23.82000 -1.412
23.84000 -2.898
23.86000 5.742
23.88000 9.427
23.90000 6.027
23.92000 2.347
23.94000 4.033
23.96000 2.074
23.98000 -1.170
24.00000 3.916
24.02000 8.136
24.04000 3.553
24.06000 -1.645
24.08000 -3.993
24.10000 -0.614
24.12000 2.535
24.14000 -1.138
24.16000 6.611
24.18000 4.640
24.20000 4.765
24.22000 8.073
24.24000 1.719
24.26000 2.141
24.28000 1.089
24.30000 1.456
24.32000 -0.271
24.34000 -0.281
24.36000 2.910
24.38000 1.078
24.40000 4.155
24.42000 1.270
24.44000 4.000
24.46000 3.890
24.48000 1.451
24.50000 -0.648
24.52000 0.492
24.54000 6.270
24.56000 5.509
24.58000 4.200
24.60000 2.260
24.62000 1.666
24.64000 1.684
24.66000 6.345
24.68000 0.783
24.70000 -1.063
24.72000 6.443
24.74000 6.087
24.76000 4.692
24.78000 9.611
24.80000 8.297
24.82000 2.692
24.84000 -1.374
24.86000 -3.960
24.88000 0.608
24.90000 5.177
24.92000 4.365
24.94000 -1.664
24.96000 1.111
24.98000 1.561
25.00000 5.565
25.02000 5.048
25.04000 6.364
25.06000 7.405
25.08000 4.875
25.10000 0.734
25.12000 1.999
25.14000 6.700
25.16000 6.372
25.18000 0.692
25.20000 0.111
25.22000 -3.940
25.24000 3.025
25.26000 -0.149
25.28000 -2.197
25.30000 2.902
25.32000 4.878
25.34000 -1.719
25.36000 0.340
25.38000 3.209
25.40000 6.313
25.42000 3.582
25.44000 2.186
25.46000 -0.476
25.48000 -1.981
25.50000 3.954
25.52000 6.834
25.54000 8.502
25.56000 2.309
25.58000 1.861
25.60000 7.151
25.62000 0.972
25.64000 0.407
25.66000 -2.046
25.68000 0.830
25.70000 6.306
25.72000 8.565
25.74000 7.341
25.76000 12.452
25.78000 7.056
25.80000 3.625
25.82000 2.427
25.84000 5.228
25.86000 4.060
25.88000 8.341
25.90000 10.592
25.92000 9.470
25.94000 6.236
25.96000 5.661
25.98000 7.375
26.00000 3.725
26.02000 4.884
26.04000 8.028
26.06000 7.385
26.08000 -0.105
26.10000 0.446
26.12000 -0.770
26.14000 -0.082
26.16000 6.067
26.18000 9.639
26.20000 5.856
26.22000 3.529
26.24000 2.773
26.26000 4.197
26.28000 6.830
26.30000 7.110
26.32000 4.132
26.34000 3.975
26.36000 1.829
26.38000 8.494
26.40000 7.948
26.42000 6.686
26.44000 5.361
26.46000 5.623
26.48000 4.424
26.50000 6.566
26.52000 4.838
26.54000 3.141
26.56000 8.589
26.58000 4.763
26.60000 11.602
26.62000 14.871
26.64000 5.139
26.66000 1.564
26.68000 -1.600
26.70000 -2.319
26.72000 -3.837
26.74000 -3.835
26.76000 0.477
26.78000 5.034
26.80000 2.463
26.82000 5.930
26.84000 4.005
26.86000 7.488
26.88000 5.671
26.90000 1.420
26.92000 1.550
26.94000 5.848
26.96000 7.165
26.98000 8.183
27.00000 10.170
27.02000 5.819
27.04000 6.241
27.06000 6.764
27.08000 5.585
27.10000 6.715
27.12000 3.626
27.14000 7.166
27.16000 8.924
27.18000 6.823
27.20000 8.075
27.22000 6.885
27.24000 8.406
27.26000 3.665
27.28000 3.738
27.30000 8.073
27.32000 8.122
27.34000 3.140
27.36000 0.863
27.38000 2.782
27.40000 9.014
27.42000 11.823
27.44000 6.614
27.46000 0.538
27.48000 -3.800
27.50000 -1.297
27.52000 3.467
27.54000 5.902
27.56000 9.155
27.58000 4.655
27.60000 8.024
27.62000 9.179
27.64000 6.862
27.66000 7.206
27.68000 2.319
27.70000 -1.071
27.72000 0.762
27.74000 4.752
27.76000 4.810
27.78000 -0.406
27.80000 2.837
27.82000 8.116
27.84000 5.218
27.86000 3.410
27.88000 3.986
27.90000 2.055
27.92000 6.827
27.94000 8.210
27.96000 7.481
27.98000 4.068
28.00000 -0.091
28.02000 1.505
28.04000 7.491
28.06000 13.285
28.08000 9.938
28.10000 6.690
28.12000 4.937
28.14000 4.840
28.16000 8.328
28.18000 6.521
28.20000 7.795
28.22000 4.332
28.24000 8.586
28.26000 7.583
28.28000 3.443
28.30000 0.221
28.32000 -1.508
28.34000 0.681
28.36000 3.680
28.38000 5.299
28.40000 4.675
28.42000 2.902
28.44000 2.891
28.46000 4.297
28.48000 2.885
28.50000 6.332
28.52000 5.805
28.54000 3.917
28.56000 5.090
28.58000 8.263
28.60000 6.570
28.62000 2.044
28.64000 -2.780
28.66000 -3.261
28.68000 9.019
28.70000 9.755
28.72000 6.866
28.74000 6.848
28.76000 7.471
28.78000 6.820
28.80000 8.710
28.82000 7.139
28.84000 6.798
28.86000 5.415
28.88000 2.851
28.90000 -1.346
28.92000 -2.624
28.94000 4.806
28.96000 7.157
28.98000 4.410
29.00000 5.214
29.02000 0.438
29.04000 0.226
29.06000 2.918
29.08000 5.632
29.10000 4.487
29.12000 6.870
29.14000 5.219
29.16000 5.815
29.18000 7.023
29.20000 7.641
29.22000 3.650
29.24000 -0.775
29.26000 2.639
29.28000 4.153
29.30000 7.421
29.32000 3.404
29.34000 5.208
29.36000 6.752
29.38000 7.123
29.40000 9.259
29.42000 4.349
29.44000 4.088
29.46000 -0.320
29.48000 -2.238
29.50000 2.979
29.52000 2.520
29.54000 4.880
29.56000 7.061
29.58000 2.379
29.60000 -3.701
29.62000 -3.579
29.64000 1.156
29.66000 -1.961
29.68000 -2.730
29.70000 4.442
29.72000 5.031
29.74000 4.517
29.76000 4.659
29.78000 4.590
29.80000 3.380
29.82000 9.215
29.84000 6.137
29.86000 2.363
29.88000 4.017
29.90000 6.042
29.92000 4.040
29.94000 1.071
29.96000 -0.701
29.98000 0.320
30.00000 0.057
30.02000 2.058
30.04000 7.716
30.06000 9.616
30.08000 8.053
30.10000 10.062
30.12000 5.476
30.14000 0.107
30.16000 0.611
30.18000 1.625
30.20000 2.918
30.22000 0.535
30.24000 1.414
30.26000 2.294
30.28000 2.109
30.30000 6.508
30.32000 6.888
30.34000 6.913
30.36000 9.047
30.38000 0.037
30.40000 3.234
30.42000 3.777
30.44000 3.965
30.46000 -0.127
30.48000 1.973
30.50000 7.349
30.52000 4.422
30.54000 3.229
30.56000 -0.805
30.58000 -0.518
30.60000 2.469
30.62000 2.349
30.64000 2.715
30.66000 6.940
30.68000 6.417
30.70000 4.278
30.72000 -0.023
30.74000 -0.802
30.76000 -1.471
30.78000 -3.172
30.80000 0.372
30.82000 1.002
30.84000 5.042
30.86000 6.955
30.88000 5.026
30.90000 2.889
30.92000 1.686
30.94000 3.190
30.96000 3.851
30.98000 3.751
31.00000 0.402
31.02000 3.563
31.04000 3.206
31.06000 5.520
31.08000 4.889
31.10000 2.780
31.12000 10.341
31.14000 5.106
31.16000 1.362
31.18000 -2.931
31.20000 1.457
31.22000 3.120
31.24000 1.147
31.26000 4.413
31.28000 5.307
31.30000 -1.022
31.32000 3.058
31.34000 1.643
31.36000 -1.129
31.38000 6.201
31.40000 7.679
31.42000 1.636
31.44000 0.661
31.46000 0.266
31.48000 2.795
31.50000 8.115
31.52000 4.341
31.54000 -1.677
31.56000 -3.615
31.58000 0.170
31.60000 2.389
31.62000 3.129
31.64000 -0.863
31.66000 0.945
31.68000 8.383
31.70000 9.250
31.72000 7.229
31.74000 5.823
31.76000 4.447
31.78000 4.283
31.80000 8.890
31.82000 5.389
31.84000 1.998
31.86000 5.827
31.88000 3.122
31.90000 -0.501
31.92000 -1.217
31.94000 2.988
31.96000 8.429
31.98000 7.893
32.00000 7.332
32.02000 3.432
32.04000 1.029
32.06000 3.098
32.08000 3.880
32.10000 2.677
32.12000 5.001
32.14000 11.193
32.16000 6.092
32.18000 8.152
32.20000 5.506
32.22000 5.064
32.24000 7.587
32.26000 4.484
32.28000 3.646
32.30000 6.825
32.32000 8.627
32.34000 5.238
32.36000 4.806
32.38000 4.192
32.40000 -1.008
32.42000 2.603
32.44000 0.426
32.46000 0.607
32.48000 -3.599
32.50000 0.195
32.52000 3.399
32.54000 7.447
32.56000 6.764
32.58000 8.057
32.60000 8.114
32.62000 8.485
32.64000 3.416
32.66000 2.062
32.68000 3.264
32.70000 2.912
32.72000 -0.101
32.74000 -0.582
32.76000 4.162
32.78000 1.440
32.80000 3.353
32.82000 4.264
32.84000 2.366
32.86000 3.496
32.88000 -0.372
32.90000 -3.284
32.92000 1.640
32.94000 3.050
32.96000 0.110
32.98000 2.399
33.00000 5.272
33.02000 4.849
33.04000 2.335
33.06000 -1.007
33.08000 3.572
33.10000 1.199
33.12000 0.763
33.14000 3.821
33.16000 4.476
33.18000 8.171
33.20000 7.842
33.22000 5.677
33.24000 3.154
33.26000 1.939
33.28000 6.820
33.30000 7.067
33.32000 7.117
33.34000 3.658
33.36000 5.012
33.38000 5.255
33.40000 2.447
33.42000 3.698
33.44000 2.592
33.46000 -1.719
33.48000 0.511
33.50000 3.951
33.52000 0.591
33.54000 1.230
33.56000 3.235
33.58000 0.771
33.60000 6.228
33.62000 -1.020
33.64000 -3.592
33.66000 1.110
33.68000 5.193
33.70000 7.754
33.72000 5.843
33.74000 2.543
33.76000 3.620
33.78000 1.352
33.80000 -0.385
33.82000 -1.175
33.84000 2.627
33.86000 7.776
33.88000 5.640
33.90000 9.028
33.92000 4.293
33.94000 6.499
33.96000 5.942
33.98000 2.575
34.00000 2.616
34.02000 3.480
34.04000 6.093
34.06000 6.844
34.08000 0.307
34.10000 1.271
34.12000 4.957
34.14000 8.179
34.16000 8.471
34.18000 8.017
34.20000 8.141
34.22000 2.435
34.24000 -2.653
34.26000 -3.596
34.28000 0.828
34.30000 0.606
34.32000 2.394
34.34000 3.081
34.36000 6.925
34.38000 4.753
34.40000 6.680
34.42000 6.537
34.44000 0.672
34.46000 2.048
34.48000 4.709
34.50000 3.621
34.52000 3.532
34.54000 8.359
34.56000 4.141
34.58000 -0.744
34.60000 -0.808
34.62000 2.205
34.64000 1.927
34.66000 0.659
34.68000 1.041
34.70000 6.703
34.72000 10.545
34.74000 4.162
34.76000 3.887
34.78000 8.112
34.80000 1.927
34.82000 1.968
34.84000 2.030
34.86000 7.859
34.88000 3.782
34.90000 3.415
34.92000 7.297
34.94000 5.599
34.96000 3.093
34.98000 0.892
35.00000 -3.385
35.02000 -2.962
35.04000 -2.595
35.06000 -1.546
35.08000 0.150
35.10000 -2.206
35.12000 0.929
35.14000 5.244
35.16000 -2.478
35.18000 -0.307
35.20000 2.640
35.22000 0.645
35.24000 7.451
35.26000 4.928
35.28000 1.698
35.30000 -0.121
35.32000 3.686
35.34000 9.219
35.36000 1.157
35.38000 -3.594
35.40000 -1.271
35.42000 2.680
35.44000 -1.532
35.46000 -0.767
35.48000 -1.867
35.50000 2.197
35.52000 4.267
35.54000 0.976
35.56000 3.131
35.58000 -2.057
35.60000 -2.894
35.62000 2.553
35.64000 6.006
35.66000 2.536
35.68000 -0.691
35.70000 4.083
35.72000 4.204
35.74000 -0.373
35.76000 -0.498
35.78000 0.822
35.80000 -3.621
35.82000 -3.622
35.84000 -0.643
35.86000 1.776
35.88000 1.219
35.90000 2.207
35.92000 -1.002
35.94000 1.095
35.96000 1.131
35.98000 -0.496
36.00000 1.183
36.02000 0.482
36.04000 -0.398
36.06000 3.396
36.08000 -1.151
36.10000 2.061
36.12000 -1.452
36.14000 -2.614
36.16000 -0.939
36.18000 0.413
36.20000 0.091
36.22000 -0.640
36.24000 -1.782
36.26000 0.102
36.28000 3.661
36.30000 1.189
36.32000 -0.127
36.34000 -0.308
36.36000 0.919
36.38000 4.337
36.40000 0.364
36.42000 -2.249
36.44000 -1.919
36.46000 0.137
36.48000 0.331
36.50000 1.916
36.52000 -1.342
36.54000 3.933
36.56000 -0.586
36.58000 -1.423
36.60000 -2.155
36.62000 3.655
36.64000 1.372
36.66000 2.817
36.68000 2.345
36.70000 3.400
36.72000 3.828
36.74000 0.966
36.76000 2.637
36.78000 2.880
36.80000 3.877
36.82000 4.863
36.84000 5.544
36.86000 -2.035
36.88000 -0.309
36.90000 -0.857
36.92000 -1.808
36.94000 0.121
36.96000 3.291
36.98000 2.857
37.00000 11.062
37.02000 11.184
37.04000 8.813
37.06000 7.200
37.08000 6.999
37.10000 8.730
37.12000 7.605
37.14000 7.262
37.16000 9.632
37.18000 9.486
37.20000 1.630
37.22000 4.375
37.24000 6.667
37.26000 8.004
37.28000 6.032
37.30000 7.428
37.32000 10.156
37.34000 12.274
37.36000 13.919
37.38000 7.338
37.40000 5.258
37.42000 11.156
37.44000 15.910
37.46000 8.352
37.48000 8.592
37.50000 13.509
37.52000 10.727
37.54000 13.122
37.56000 16.638
37.58000 18.462
37.60000 18.934
37.62000 13.345
37.64000 11.357
37.66000 16.645
37.68000 20.731
37.70000 22.646
37.72000 22.049
37.74000 18.794
37.76000 18.417
37.78000 21.738
37.80000 25.703
37.82000 25.921
37.84000 21.256
37.86000 21.122
37.88000 25.754
37.90000 31.289
37.92000 30.499
37.94000 30.395
37.96000 27.141
37.98000 24.116
38.00000 27.318
38.02000 33.144
38.04000 37.909
38.06000 35.650
38.08000 38.767
38.10000 42.872
38.12000 40.648
38.14000 40.617
38.16000 43.924
38.18000 48.136
38.20000 47.781
38.22000 50.836
38.24000 51.940
38.26000 52.615
38.28000 62.554
38.30000 61.852
38.32000 63.069
38.34000 65.713
38.36000 68.492
38.38000 68.121
38.40000 70.368
38.42000 72.330
38.44000 75.297
38.46000 80.652
38.48000 87.096
38.50000 90.287
38.52000 101.147
38.54000 105.983
38.56000 108.490
38.58000 111.168
38.60000 119.088
38.62000 132.974
38.64000 136.423
38.66000 146.881
38.68000 156.429
38.70000 164.688
38.72000 169.404
38.74000 183.611
38.76000 185.959
38.78000 196.957
38.80000 206.296
38.82000 224.575
38.84000 245.956
38.86000 255.236
38.88000 263.855
38.90000 273.807
38.92000 293.520
38.94000 299.427
38.96000 302.473
38.98000 313.548
39.00000 326.136
39.02000 341.172
39.04000 356.630
39.06000 362.610
39.08000 356.478
39.10000 353.317
39.12000 353.907
39.14000 354.615
39.16000 356.429
39.18000 359.981
39.20000 356.695
39.22000 355.072
39.24000 347.135
39.26000 330.235
39.28000 327.068
39.30000 320.288
39.32000 301.416
39.34000 294.918
39.36000 285.444
39.38000 275.045
39.40000 260.336
39.42000 242.683
39.44000 230.858
39.46000 226.838
39.48000 205.768
39.50000 189.337
39.52000 174.600
39.54000 172.059
39.56000 163.678
39.58000 152.853
39.60000 149.549
39.62000 144.499
39.64000 132.088
39.66000 120.875
39.68000 109.276
39.70000 102.865
39.72000 106.566
39.74000 98.409
39.76000 91.338
39.78000 80.666
39.80000 79.627
39.82000 76.410
39.84000 75.623
39.86000 71.289
39.88000 69.157
39.90000 63.736
39.92000 62.904
39.94000 62.674
39.96000 53.334
39.98000 51.762
40.00000 44.492
40.02000 47.905
40.04000 43.868
40.06000 40.894
40.08000 36.001
40.10000 32.948
40.12000 29.465
40.14000 32.415
40.16000 32.852
40.18000 31.388
40.20000 29.606
40.22000 31.364
40.24000 29.637
40.26000 29.795
40.28000 26.438
40.30000 23.463
40.32000 19.613
40.34000 21.283
40.36000 19.621
40.38000 16.686
40.40000 15.423
40.42000 14.754
40.44000 17.683
40.46000 21.303
40.48000 19.743
40.50000 13.882
40.52000 7.878
40.54000 14.228
40.56000 16.932
40.58000 13.513
40.60000 15.234
40.62000 17.577
40.64000 14.084
40.66000 18.418
40.68000 10.858
40.70000 7.820
40.72000 9.868
40.74000 11.376
40.76000 15.003
40.78000 12.659
40.80000 11.779
40.82000 14.472
40.84000 9.521
40.86000 8.054
40.88000 9.306
40.90000 7.029
40.92000 8.393
40.94000 9.171
40.96000 3.634
40.98000 8.762
41.00000 10.664
41.02000 4.576
41.04000 2.038
41.06000 1.624
41.08000 3.945
41.10000 2.752
41.12000 6.091
41.14000 7.062
41.16000 6.976
41.18000 5.106
41.20000 2.353
41.22000 5.717
41.24000 4.729
41.26000 2.904
41.28000 0.505
41.30000 2.625
41.32000 3.699
41.34000 5.513
41.36000 3.991
41.38000 2.345
41.40000 -0.854
41.42000 2.482
41.44000 2.521
41.46000 3.157
41.48000 2.624
41.50000 3.743
41.52000 4.136
41.54000 1.881
41.56000 3.830
41.58000 2.285
41.60000 -3.155
41.62000 -2.737
41.64000 2.673
41.66000 7.809
41.68000 2.114
41.70000 -0.577
41.72000 -1.262
41.74000 0.853
41.76000 3.666
41.78000 2.935
41.80000 -0.074
41.82000 0.228
41.84000 1.648
41.86000 1.416
41.88000 -0.603
41.90000 4.072
41.92000 1.918
41.94000 -2.933
41.96000 1.178
41.98000 -1.206
42.00000 0.156
42.02000 1.011
42.04000 0.089
42.06000 -3.402
42.08000 -0.194
42.10000 4.916
42.12000 7.230
42.14000 5.504
42.16000 3.113
42.18000 -0.439
42.20000 0.484
42.22000 0.816
42.24000 0.615
42.26000 -1.971
42.28000 -0.422
42.30000 3.108
42.32000 2.926
42.34000 0.707
42.36000 2.779
42.38000 2.161
42.40000 1.280
42.42000 0.728
42.44000 1.692
42.46000 1.776
42.48000 1.956
42.50000 -1.978
42.52000 2.207
42.54000 5.166
42.56000 1.655
42.58000 2.505
42.60000 -3.349
42.62000 -1.811
42.64000 -2.071
42.66000 3.085
42.68000 3.786
42.70000 1.545
42.72000 0.468
42.74000 -1.019
42.76000 1.649
42.78000 3.412
42.80000 -2.805
42.82000 -3.324
42.84000 -2.933
42.86000 0.511
42.88000 2.105
42.90000 2.100
42.92000 1.421
42.94000 -0.379
42.96000 1.476
42.98000 1.143
43.00000 1.374
43.02000 -0.140
43.04000 2.030
43.06000 -2.088
43.08000 -3.250
43.10000 4.004
43.12000 6.518
43.14000 3.218
43.16000 2.213
43.18000 0.441
43.20000 -1.927
43.22000 -2.380
43.24000 0.847
43.26000 -2.250
43.28000 -0.968
43.30000 -3.006
43.32000 -0.762
43.34000 -2.443
43.36000 -0.826
43.38000 -2.557
43.40000 -2.781
43.42000 1.896
43.44000 0.555
43.46000 -3.260
43.48000 -3.006
43.50000 -1.341
43.52000 -0.254
43.54000 0.979
43.56000 -1.344
43.58000 -0.742
43.60000 0.246
43.62000 -2.846
43.64000 -0.380
43.66000 0.690
43.68000 -3.248
43.70000 -3.123
43.72000 -1.215
43.74000 -0.417
43.76000 -0.937
43.78000 2.539
43.80000 1.124
43.82000 2.865
43.84000 1.649
43.86000 2.458
43.88000 3.995
43.90000 2.623
43.92000 1.450
43.94000 -2.578
43.96000 -1.269
43.98000 2.309
44.00000 0.956
44.02000 3.659
44.04000 1.917
44.06000 2.865
44.08000 2.114
44.10000 0.354
44.12000 1.441
44.14000 6.522
44.16000 4.247
44.18000 1.211
44.20000 6.710
44.22000 7.822
44.24000 5.618
44.26000 1.519
44.28000 1.765
44.30000 2.802
44.32000 -0.658
44.34000 -0.323
44.36000 -1.029
44.38000 0.801
44.40000 3.498
44.42000 7.712
44.44000 5.236
44.46000 7.448
44.48000 8.127
44.50000 6.444
44.52000 6.212
44.54000 9.078
44.56000 10.071
44.58000 8.007
44.60000 6.178
44.62000 6.305
44.64000 10.770
44.66000 8.737
44.68000 8.168
44.70000 11.147
44.72000 15.900
44.74000 15.496
44.76000 12.846
44.78000 17.127
44.80000 16.946
44.82000 18.692
44.84000 13.995
44.86000 16.852
44.88000 19.125
44.90000 21.499
44.92000 24.044
44.94000 23.066
44.96000 22.095
44.98000 25.327
45.00000 25.782
45.02000 25.205
45.04000 27.681
45.06000 31.020
45.08000 31.036
45.10000 29.666
45.12000 30.073
45.14000 33.452
45.16000 37.768
45.18000 37.682
45.20000 38.487
45.22000 39.136
45.24000 44.711
45.26000 42.685
45.28000 50.849
45.30000 49.402
45.32000 51.754
45.34000 54.155
45.36000 56.937
45.38000 60.225
45.40000 60.612
45.42000 60.170
45.44000 58.618
45.46000 58.655
45.48000 65.370
45.50000 68.639
45.52000 67.527
45.54000 72.910
45.56000 71.897
45.58000 70.442
45.60000 68.446
45.62000 70.803
45.64000 72.808
45.66000 73.466
45.68000 74.254
45.70000 81.233
45.72000 78.952
45.74000 77.430
45.76000 76.872
45.78000 69.822
45.80000 69.958
45.82000 64.577
45.84000 68.103
45.86000 73.113
45.88000 70.446
45.90000 65.087
45.92000 64.254
45.94000 59.985
45.96000 55.546
45.98000 54.969
46.00000 55.230
46.02000 49.872
46.04000 50.025
46.06000 50.932
46.08000 45.504
46.10000 41.642
46.12000 41.115
46.14000 41.111
46.16000 41.201
46.18000 36.778
46.20000 30.551
46.22000 27.272
46.24000 29.330
46.26000 25.789
46.28000 25.649
46.30000 20.999
46.32000 23.037
46.34000 21.775
46.36000 17.414
46.38000 17.150
46.40000 17.814
46.42000 18.140
46.44000 14.422
46.46000 15.433
46.48000 15.123
46.50000 14.203
46.52000 10.860
46.54000 8.937
46.56000 10.887
46.58000 7.410
46.60000 10.064
46.62000 6.954
46.64000 6.519
46.66000 3.329
46.68000 2.537
46.70000 4.109
46.72000 8.186
46.74000 5.680
46.76000 2.985
46.78000 6.936
46.80000 3.597
46.82000 -2.418
46.84000 -2.924
46.86000 -0.786
46.88000 -0.323
46.90000 2.203
46.92000 2.785
46.94000 2.204
46.96000 -1.271
46.98000 1.581
47.00000 3.357
47.02000 5.272
47.04000 3.363
47.06000 5.415
47.08000 4.616
47.10000 0.427
47.12000 0.380
47.14000 -0.770
47.16000 -1.358
47.18000 2.873
47.20000 6.447
47.22000 1.419
47.24000 -2.876
47.26000 -0.388
47.28000 4.216
47.30000 2.969
47.32000 1.981
47.34000 -0.698
47.36000 2.020
47.38000 1.201
47.40000 4.711
47.42000 4.941
47.44000 4.853
47.46000 1.607
47.48000 -1.709
47.50000 -1.915
47.52000 -0.997
47.54000 1.885
47.56000 1.333
47.58000 1.642
47.60000 -0.624
47.62000 -2.612
47.64000 -1.360
47.66000 -2.084
47.68000 -2.835
47.70000 -1.941
47.72000 -1.643
47.74000 1.726
47.76000 -0.309
47.78000 2.582
47.80000 -0.354
47.82000 -1.352
47.84000 0.701
47.86000 -0.717
47.88000 -0.735
47.90000 2.516
47.92000 2.388
47.94000 -0.972
47.96000 3.778
47.98000 -1.055
48.00000 -2.600
48.02000 -0.245
48.04000 -0.087
48.06000 -1.847
48.08000 -1.860
48.10000 -0.969
48.12000 1.963
48.14000 -1.755
48.16000 -2.779
48.18000 1.847
48.20000 0.926
48.22000 -0.182
48.24000 -1.525
48.26000 1.654
48.28000 1.480
48.30000 2.913
48.32000 1.398
48.34000 2.140
48.36000 2.624
48.38000 2.234
48.40000 -0.914
48.42000 1.446
48.44000 3.903
48.46000 2.642
48.48000 2.540
48.50000 1.086
48.52000 3.363
48.54000 5.155
48.56000 7.243
48.58000 0.674
48.60000 4.924
48.62000 6.637
48.64000 4.548
48.66000 4.857
48.68000 3.191
48.70000 2.723
48.72000 0.539
48.74000 -1.203
48.76000 -2.703
48.78000 -2.100
48.80000 1.152
48.82000 0.915
48.84000 3.971
48.86000 4.037
48.88000 5.396
48.90000 2.759
48.92000 1.575
48.94000 4.251
48.96000 5.290
48.98000 4.603
49.00000 3.270
49.02000 2.132
49.04000 6.709
49.06000 4.179
49.08000 -2.686
49.10000 2.225
49.12000 5.032
49.14000 3.019
49.16000 5.092
49.18000 5.553
49.20000 3.882
49.22000 2.566
49.24000 1.339
49.26000 1.620
49.28000 0.714
49.30000 -2.319
49.32000 0.630
49.34000 5.512
49.36000 2.685
49.38000 0.370
49.40000 -0.387
49.42000 0.759
49.44000 3.438
49.46000 5.733
49.48000 4.238
49.50000 2.240
49.52000 2.290
49.54000 -2.680
49.56000 1.185
49.58000 2.149
49.60000 3.566
49.62000 7.537
49.64000 4.620
49.66000 2.971
49.68000 4.670
49.70000 9.208
49.72000 1.719
49.74000 -2.038
49.76000 0.387
49.78000 4.203
49.80000 1.710
49.82000 -0.244
49.84000 5.406
49.86000 7.006
49.88000 4.838
49.90000 1.266
49.92000 0.074
49.94000 1.062
49.96000 1.676
49.98000 -0.710
50.00000 3.310
50.02000 0.968
50.04000 0.875
50.06000 1.322
50.08000 4.769
50.10000 2.160
50.12000 -0.769
50.14000 1.848
50.16000 1.652
50.18000 4.102
50.20000 6.001
50.22000 7.441
50.24000 4.433
50.26000 2.675
50.28000 -0.957
50.30000 -2.623
50.32000 0.887
50.34000 0.185
50.36000 4.227
50.38000 5.002
50.40000 3.361
50.42000 3.096
50.44000 -0.506
50.46000 0.411
50.48000 3.997
50.50000 4.112
50.52000 0.195
50.54000 2.222
50.56000 7.321
50.58000 5.712
50.60000 5.000
50.62000 -2.623
50.64000 -0.320
50.66000 0.663
50.68000 3.758
50.70000 4.633
50.72000 4.800
50.74000 2.571
50.76000 3.113
50.78000 4.336
50.80000 1.600
50.82000 -1.980
50.84000 -0.132
50.86000 1.331
50.88000 1.687
50.90000 0.782
50.92000 0.049
50.94000 1.694
50.96000 1.595
50.98000 1.238
51.00000 2.807
51.02000 2.069
51.04000 0.974
51.06000 3.295
51.08000 5.921
51.10000 6.159
51.12000 3.862
51.14000 -1.505
51.16000 2.576
51.18000 4.154
51.20000 2.197
51.22000 5.624
51.24000 4.586
51.26000 1.206
51.28000 1.929
51.30000 4.287
51.32000 1.288
51.34000 0.890
51.36000 0.780
51.38000 3.893
51.40000 4.016
51.42000 2.794
51.44000 1.004
51.46000 0.347
51.48000 -1.754
51.50000 3.506
51.52000 -0.994
51.54000 -1.529
51.56000 -0.794
51.58000 3.135
51.60000 4.281
51.62000 6.356
51.64000 4.484
51.66000 1.878
51.68000 4.068
51.70000 1.631
51.72000 4.754
51.74000 4.104
51.76000 3.005
51.78000 5.976
51.80000 7.754
51.82000 3.395
51.84000 6.639
51.86000 6.443
51.88000 3.979
51.90000 4.606
51.92000 2.966
51.94000 5.428
51.96000 5.187
51.98000 4.660
52.00000 6.876
52.02000 8.394
52.04000 6.509
52.06000 5.687
52.08000 8.810
52.10000 5.839
52.12000 5.683
52.14000 2.917
52.16000 0.570
52.18000 1.055
52.20000 3.413
52.22000 3.981
52.24000 3.695
52.26000 5.693
52.28000 3.868
52.30000 5.027
52.32000 6.176
52.34000 6.079
52.36000 9.453
52.38000 7.215
52.40000 5.909
52.42000 3.370
52.44000 5.250
52.46000 8.169
52.48000 1.414
52.50000 3.135
52.52000 8.297
52.54000 9.777
52.56000 8.349
52.58000 1.957
52.60000 -2.518
52.62000 3.816
52.64000 10.168
52.66000 7.589
52.68000 4.936
52.70000 3.900
52.72000 7.831
52.74000 5.644
52.76000 2.828
52.78000 1.517
52.80000 2.002
52.82000 3.352
52.84000 -0.019
52.86000 6.482
52.88000 6.707
52.90000 6.936
52.92000 1.833
52.94000 0.127
52.96000 2.137
52.98000 4.346
53.00000 5.300
53.02000 3.073
53.04000 1.520
53.06000 -0.138
53.08000 3.364
53.10000 3.288
53.12000 1.691
53.14000 4.636
53.16000 3.542
53.18000 4.680
53.20000 6.251
53.22000 3.292
53.24000 5.433
53.26000 9.559
53.28000 1.578
53.30000 -1.883
53.32000 1.274
53.34000 2.820
53.36000 3.279
53.38000 2.815
53.40000 1.893
53.42000 2.647
53.44000 4.256
53.46000 1.955
53.48000 5.238
53.50000 5.467
53.52000 5.017
53.54000 3.702
53.56000 4.272
53.58000 2.758
53.60000 4.097
53.62000 3.088
53.64000 0.834
53.66000 4.750
53.68000 0.082
53.70000 1.924
53.72000 2.863
53.74000 3.457
53.76000 4.175
53.78000 0.899
53.80000 2.053
53.82000 5.479
53.84000 2.177
53.86000 3.378
53.88000 6.228
53.90000 7.272
53.92000 3.758
53.94000 5.624
53.96000 4.428
53.98000 4.756
54.00000 1.168
54.02000 0.331
54.04000 4.875
54.06000 3.449
54.08000 3.880
54.10000 3.967
54.12000 2.889
54.14000 -0.212
54.16000 4.695
54.18000 4.205
54.20000 4.148
54.22000 5.190
54.24000 6.565
54.26000 4.304
54.28000 5.580
54.30000 4.651
54.32000 3.483
54.34000 0.706
54.36000 -2.497
54.38000 5.029
54.40000 9.158
54.42000 8.135
54.44000 4.636
54.46000 0.538
54.48000 3.255
54.50000 5.897
54.52000 2.355
54.54000 5.745
54.56000 4.323
54.58000 6.110
54.60000 3.873
54.62000 3.787
54.64000 5.024
54.66000 3.520
54.68000 3.691
54.70000 4.236
54.72000 1.347
54.74000 1.924
54.76000 2.008
54.78000 3.953
54.80000 4.920
54.82000 5.288
54.84000 5.934
54.86000 7.002
54.88000 3.046
54.90000 -0.206
54.92000 1.071
54.94000 5.292
54.96000 8.870
54.98000 8.434
55.00000 8.381
55.02000 3.848
55.04000 2.848
55.06000 3.983
55.08000 3.018
55.10000 3.792
55.12000 3.725
55.14000 1.181
55.16000 2.182
55.18000 0.138
55.20000 1.341
55.22000 3.659
55.24000 5.247
55.26000 1.648
55.28000 -2.496
55.30000 1.787
55.32000 0.800
55.34000 0.377
55.36000 0.576
55.38000 0.098
55.40000 1.756
55.42000 2.169
55.44000 2.465
55.46000 0.633
55.48000 2.307
55.50000 2.804
55.52000 0.335
55.54000 6.643
55.56000 4.215
55.58000 0.037
55.60000 0.857
55.62000 1.222
55.64000 5.011
55.66000 4.465
55.68000 2.189
55.70000 2.758
55.72000 6.169
55.74000 3.457
55.76000 -1.332
55.78000 0.536
55.80000 3.906
55.82000 3.841
55.84000 1.715
55.86000 0.081
55.88000 3.807
55.90000 6.173
55.92000 4.887
55.94000 3.539
55.96000 0.052
55.98000 0.895
56.00000 1.109
56.02000 -1.395
56.04000 1.035
56.06000 1.782
56.08000 2.782
56.10000 3.817
56.12000 2.747
56.14000 0.392
56.16000 4.251
56.18000 0.887
56.20000 -2.487
56.22000 2.375
56.24000 -0.863
56.26000 3.753
56.28000 2.411
56.30000 0.912
56.32000 -0.710
56.34000 -1.023
56.36000 1.180
56.38000 2.798
56.40000 2.016
56.42000 3.179
56.44000 4.571
56.46000 1.093
56.48000 1.223
56.50000 -1.384
56.52000 -0.372
56.54000 2.355
56.56000 4.051
56.58000 6.121
56.60000 3.598
56.62000 3.733
56.64000 -0.316
56.66000 -0.890
56.68000 0.318
56.70000 3.389
56.72000 2.071
56.74000 0.269
56.76000 0.279
56.78000 1.587
56.80000 -1.169
56.82000 -1.380
56.84000 0.991
56.86000 0.509
56.88000 2.738
56.90000 -0.952
56.92000 -1.024
56.94000 1.869
56.96000 3.401
56.98000 -0.166
57.00000 0.494
57.02000 1.119
57.04000 0.263
57.06000 2.123
57.08000 0.895
57.10000 3.768
57.12000 3.016
57.14000 2.629
57.16000 1.443
57.18000 -1.841
57.20000 -1.607
57.22000 0.036
57.24000 4.348
57.26000 3.243
57.28000 4.161
57.30000 1.554
57.32000 1.348
57.34000 5.376
57.36000 3.037
57.38000 4.582
57.40000 2.674
57.42000 3.011
57.44000 6.812
57.46000 1.053
57.48000 -2.434
57.50000 -0.221
57.52000 1.936
57.54000 -0.906
57.56000 1.043
57.58000 -1.827
57.60000 -2.429
57.62000 3.503
57.64000 3.500
57.66000 3.581
57.68000 3.372
57.70000 0.793
57.72000 -1.983
57.74000 -0.405
57.76000 3.855
57.78000 6.475
57.80000 5.411
57.82000 5.063
57.84000 2.448
57.86000 5.006
57.88000 0.544
57.90000 -2.432
57.92000 1.027
57.94000 0.264
57.96000 3.555
57.98000 3.062
58.00000 -1.296
58.02000 -0.156
58.04000 2.644
58.06000 1.758
58.08000 0.248
58.10000 -0.413
58.12000 0.561
58.14000 -0.394
58.16000 -1.453
58.18000 -0.299
58.20000 -0.135
58.22000 3.525
58.24000 1.726
58.26000 1.336
58.28000 2.355
58.30000 2.163
58.32000 3.595
58.34000 4.228
58.36000 1.899
58.38000 1.896
58.40000 0.719
58.42000 0.713
58.44000 -1.470
58.46000 -0.754
58.48000 1.435
58.50000 3.347
58.52000 1.746
58.54000 0.405
58.56000 4.664
58.58000 6.958
58.60000 3.070
58.62000 2.524
58.64000 2.068
58.66000 3.206
58.68000 3.309
58.70000 2.605
58.72000 -1.089
58.74000 -1.798
58.76000 0.007
58.78000 1.300
58.80000 2.486
58.82000 1.922
58.84000 -1.434
58.86000 -0.818
58.88000 3.390
58.90000 6.312
58.92000 6.133
58.94000 2.298
58.96000 -1.013
58.98000 -2.240
59.00000 0.159
59.02000 0.889
59.04000 4.854
59.06000 5.373
59.08000 4.336
59.10000 4.145
59.12000 2.217
59.14000 2.414
59.16000 -2.405
59.18000 -2.404
59.20000 1.164
59.22000 3.203
59.24000 1.768
59.26000 -0.030
59.28000 1.519
59.30000 2.710
59.32000 1.447
59.34000 -0.387
59.36000 1.450
59.38000 2.373
59.40000 1.219
59.42000 0.600
59.44000 1.790
59.46000 -0.515
59.48000 0.436
59.50000 5.071
59.52000 3.497
59.54000 2.072
59.56000 5.100
59.58000 2.071
59.60000 1.882
59.62000 -0.059
59.64000 2.621
59.66000 1.775
59.68000 1.611
59.70000 3.488
59.72000 5.099
59.74000 5.108
59.76000 0.320
59.78000 1.297
59.80000 4.721
59.82000 4.382
59.84000 4.719
59.86000 4.742
59.88000 3.065
59.90000 3.533
59.92000 2.584
59.94000 1.953
59.96000 4.772
59.98000 2.390
60.00000 -2.349
60.02000 -0.020
60.04000 2.551
60.06000 3.859
60.08000 5.228
60.10000 0.650
60.12000 0.299
60.14000 -0.071
60.16000 3.168
60.18000 4.128
60.20000 2.395
60.22000 3.757
60.24000 4.747
60.26000 5.965
60.28000 4.719
60.30000 2.904
60.32000 2.673
60.34000 5.486
60.36000 8.891
60.38000 4.825
60.40000 5.439
60.42000 5.585
60.44000 5.663
60.46000 3.800
60.48000 4.038
60.50000 2.054
60.52000 4.092
60.54000 4.005
60.56000 4.851
60.58000 5.936
60.60000 5.967
60.62000 3.517
60.64000 1.403
60.66000 3.819
60.68000 1.016
60.70000 -1.083
60.72000 -0.964
60.74000 1.089
60.76000 1.101
60.78000 1.608
60.80000 0.768
60.82000 5.071
60.84000 3.993
60.86000 3.247
60.88000 0.991
60.90000 0.223
60.92000 -0.051
60.94000 3.919
60.96000 3.048
60.98000 2.705
61.00000 -0.124
61.02000 2.128
61.04000 -0.275
61.06000 -2.305
61.08000 0.601
61.10000 3.258
61.12000 0.277
61.14000 1.411
61.16000 1.421
61.18000 1.316
61.20000 1.171
61.22000 4.542
61.24000 5.963
61.26000 5.989
61.28000 5.424
61.30000 1.366
61.32000 6.107
61.34000 5.200
61.36000 2.069
61.38000 3.655
61.40000 3.162
61.42000 4.523
61.44000 2.168
61.46000 0.045
61.48000 2.252
61.50000 4.625
61.52000 2.700
61.54000 1.349
61.56000 1.242
61.58000 1.984
61.60000 3.381
61.62000 1.758
61.64000 0.009
61.66000 2.678
61.68000 5.368
61.70000 5.536
61.72000 2.983
61.74000 3.019
61.76000 2.639
61.78000 5.745
61.80000 4.825
61.82000 5.492
61.84000 4.132
61.86000 1.755
61.88000 1.107
61.90000 3.136
61.92000 -2.269
61.94000 2.692
61.96000 2.918
61.98000 2.093
62.00000 3.791
62.02000 4.050
62.04000 2.704
62.06000 5.665
62.08000 5.559
62.10000 5.679
62.12000 2.726
62.14000 3.228
62.16000 2.708
62.18000 3.301
62.20000 4.664
62.22000 4.619
62.24000 3.913
62.26000 5.056
62.28000 6.648
62.30000 4.055
62.32000 3.994
62.34000 -0.059
62.36000 0.497
62.38000 3.478
62.40000 3.004
62.42000 4.116
62.44000 3.187
62.46000 2.617
62.48000 3.233
62.50000 2.992
62.52000 1.276
62.54000 3.200
62.56000 3.789
62.58000 4.910
62.60000 4.049
62.62000 3.179
62.64000 3.010
62.66000 4.228
62.68000 5.251
62.70000 4.073
62.72000 1.855
62.74000 0.292
62.76000 1.094
62.78000 0.855
62.80000 -0.633
62.82000 0.085
62.84000 2.434
62.86000 0.929
62.88000 0.996
62.90000 1.420
62.92000 2.875
62.94000 5.284
62.96000 3.802
62.98000 2.697
63.00000 2.672
63.02000 2.300
63.04000 0.649
63.06000 1.917
63.08000 2.445
63.10000 2.211
63.12000 -2.297
63.14000 2.326
63.16000 1.817
63.18000 -1.463
63.20000 0.281
63.22000 -0.051
63.24000 0.099
63.26000 -0.713
63.28000 -0.362
63.30000 3.071
63.32000 1.576
63.34000 1.598
63.36000 1.526
63.38000 1.132
63.40000 4.159
63.42000 4.428
63.44000 2.074
63.46000 0.372
63.48000 -1.660
63.50000 2.819
63.52000 3.662
63.54000 0.682
63.56000 0.040
63.58000 0.819
63.60000 4.270
63.62000 4.466
63.64000 1.381
63.66000 1.993
63.68000 2.670
63.70000 4.721
63.72000 2.207
63.74000 3.667
63.76000 3.658
63.78000 5.120
63.80000 6.271
63.82000 2.870
63.84000 0.573
63.86000 1.508
63.88000 -0.386
63.90000 3.122
63.92000 2.764
63.94000 3.875
63.96000 1.892
63.98000 0.715
64.00000 -1.362
64.02000 -2.271
64.04000 0.300
64.06000 2.535
64.08000 3.438
64.10000 0.603
64.12000 -0.797
64.14000 1.255
64.16000 -0.262
64.18000 -0.447
64.20000 3.765
64.22000 1.193
64.24000 1.286
64.26000 2.083
64.28000 -2.265
64.30000 1.397
64.32000 2.769
64.34000 2.434
64.36000 2.878
64.38000 2.952
64.40000 2.789
64.42000 3.396
64.44000 1.903
64.46000 4.679
64.48000 5.157
64.50000 1.318
64.52000 2.069
64.54000 2.040
64.56000 -0.796
64.58000 -0.098
64.60000 -1.749
64.62000 0.658
64.64000 -0.881
64.66000 -2.285
64.68000 -0.846
64.70000 2.193
64.72000 2.489
64.74000 1.741
64.76000 1.117
64.78000 0.852
64.80000 -0.769
64.82000 2.723
64.84000 2.520
64.86000 1.912
64.88000 4.029
64.90000 2.693
64.92000 1.880
64.94000 0.977
64.96000 2.400
64.98000 4.492
65.00000 2.478
65.02000 1.906
65.04000 0.994
65.06000 -0.483
65.08000 2.006
65.10000 2.509
65.12000 0.523
65.14000 1.240
65.16000 4.708
65.18000 2.973
65.20000 0.855
65.22000 4.398
65.24000 3.189
65.26000 3.285
65.28000 5.661
65.30000 1.927
65.32000 3.321
65.34000 2.046
65.36000 3.080
65.38000 0.734
65.40000 2.316
65.42000 2.332
65.44000 1.291
65.46000 4.352
65.48000 1.825
65.50000 -0.365
65.52000 2.236
65.54000 -1.631
65.56000 -2.297
65.58000 2.117
65.60000 -1.050
65.62000 1.572
65.64000 2.507
65.66000 0.749
65.68000 -0.126
65.70000 0.157
65.72000 2.209
65.74000 5.565
65.76000 5.645
65.78000 1.708
65.80000 0.920
65.82000 2.743
65.84000 1.488
65.86000 0.551
65.88000 -0.043
65.90000 0.973
65.92000 1.365
65.94000 3.963
65.96000 -0.767
65.98000 -0.360
66.00000 3.998
66.02000 1.315
66.04000 1.326
66.06000 1.537
66.08000 1.433
66.10000 2.664
66.12000 0.383
66.14000 1.194
66.16000 3.089
66.18000 0.938
66.20000 1.562
66.22000 6.077
66.24000 3.158
66.26000 2.821
66.28000 2.996
66.30000 1.277
66.32000 3.343
66.34000 2.671
66.36000 2.331
66.38000 4.418
66.40000 4.538
66.42000 4.400
66.44000 6.249
66.46000 6.406
66.48000 4.960
66.50000 4.651
66.52000 4.911
66.54000 4.592
66.56000 2.389
66.58000 3.003
66.60000 3.855
66.62000 4.221
66.64000 4.519
66.66000 6.124
66.68000 5.963
66.70000 3.782
66.72000 2.549
66.74000 2.095
66.76000 5.241
66.78000 1.301
66.80000 1.633
66.82000 2.313
66.84000 -0.027
66.86000 -0.899
66.88000 2.604
66.90000 2.708
66.92000 3.400
66.94000 1.657
66.96000 3.528
66.98000 3.607
67.00000 0.717
67.02000 0.904
67.04000 0.444
67.06000 2.578
67.08000 2.726
67.10000 2.698
67.12000 2.348
67.14000 -0.962
67.16000 -0.638
67.18000 1.080
67.20000 1.710
67.22000 1.498
67.24000 2.533
67.26000 3.690
67.28000 4.474
67.30000 2.857
67.32000 4.040
67.34000 0.671
67.36000 -1.121
67.38000 -1.622
67.40000 -0.081
67.42000 1.395
67.44000 3.542
67.46000 2.672
67.48000 1.973
67.50000 0.357
67.52000 -1.234
67.54000 1.309
67.56000 3.089
67.58000 5.133
67.60000 2.924
67.62000 2.152
67.64000 3.814
67.66000 0.489
67.68000 0.213
67.70000 -1.762
67.72000 -2.201
67.74000 -0.605
67.76000 1.853
67.78000 1.134
67.80000 0.444
67.82000 3.176
67.84000 3.184
67.86000 1.351
67.88000 1.805
67.90000 0.181
67.92000 0.533
67.94000 2.141
67.96000 2.251
67.98000 0.170
68.00000 -0.413
68.02000 -2.142
68.04000 -0.738
68.06000 -0.081
68.08000 -1.205
68.10000 0.203
68.12000 0.211
68.14000 1.319
68.16000 -0.512
68.18000 0.597
68.20000 -0.810
68.22000 0.214
68.24000 1.777
68.26000 1.226
68.28000 3.599
68.30000 2.492
68.32000 2.361
68.34000 5.140
68.36000 0.540
68.38000 2.067
68.40000 2.823
68.42000 0.375
68.44000 1.928
68.46000 1.854
68.48000 1.506
68.50000 -2.156
68.52000 -0.718
68.54000 3.862
68.56000 1.809
68.58000 1.925
68.60000 0.434
68.62000 2.986
68.64000 3.389
68.66000 0.753
68.68000 3.007
68.70000 5.102
68.72000 2.352
68.74000 -0.746
68.76000 2.075
68.78000 3.783
68.80000 2.658
68.82000 3.598
68.84000 1.592
68.86000 -0.183
68.88000 1.002
68.90000 2.696
68.92000 1.096
68.94000 -0.147
68.96000 -0.204
68.98000 1.709
69.00000 4.928
69.02000 3.743
69.04000 -0.584
69.06000 0.648
69.08000 1.368
69.10000 0.939
69.12000 1.646
69.14000 2.637
69.16000 0.968
69.18000 -0.784
69.20000 -1.096
69.22000 0.111
69.24000 2.901
69.26000 2.856
69.28000 2.573
69.30000 1.781
69.32000 -0.088
69.34000 1.584
69.36000 1.908
69.38000 0.405
69.40000 -0.742
69.42000 -0.009
69.44000 0.721
69.46000 -2.115
69.48000 0.062
69.50000 -0.438
69.52000 -1.061
69.54000 2.605
69.56000 4.457
69.58000 -0.382
69.60000 0.921
69.62000 5.699
69.64000 2.112
69.66000 -0.200
69.68000 1.042
69.70000 0.702
69.72000 -0.480
69.74000 2.213
69.76000 0.765
69.78000 -0.270
69.80000 0.793
69.82000 0.712
69.84000 2.373
69.86000 -0.367
69.88000 -0.436
69.90000 1.517
69.92000 2.779
69.94000 2.132
69.96000 1.333
69.98000 -0.645
70.00000 -0.013
70.02000 1.211
70.04000 -0.634
70.06000 0.772
70.08000 1.258
70.10000 1.218
70.12000 -2.106
70.14000 0.183
70.16000 -0.270
70.18000 -1.508
70.20000 -0.950
70.22000 -1.077
70.24000 0.776
70.26000 -1.865
70.28000 -0.920
70.30000 -1.052
70.32000 -0.369
70.34000 -0.551
70.36000 -0.311
70.38000 -0.870
70.40000 -0.170
70.42000 -1.594
70.44000 0.017
70.46000 1.780
70.48000 -1.674
70.50000 -1.206
70.52000 1.843
70.54000 1.623
70.56000 1.065
70.58000 3.607
70.60000 0.435
70.62000 0.233
70.64000 2.265
70.66000 6.553
70.68000 4.378
70.70000 0.967
70.72000 -0.356
70.74000 0.083
70.76000 1.402
70.78000 -2.089
70.80000 -1.133
70.82000 0.942
70.84000 2.425
70.86000 1.617
70.88000 0.317
70.90000 1.518
70.92000 0.256
70.94000 0.584
70.96000 -1.416
70.98000 1.872
71.00000 2.957
71.02000 1.603
71.04000 0.735
71.06000 0.056
71.08000 -1.036
71.10000 0.773
71.12000 0.562
71.14000 -0.745
71.16000 -0.418
71.18000 -0.353
71.20000 1.222
71.22000 0.741
71.24000 3.270
71.26000 3.479
71.28000 1.079
71.30000 -0.977
71.32000 -0.356
71.34000 0.912
71.36000 0.445
71.38000 1.830
71.40000 -0.260
71.42000 -2.062
71.44000 -0.371
71.46000 1.589
71.48000 3.501
71.50000 0.626
71.52000 -0.718
71.54000 0.167
71.56000 0.115
71.58000 1.754
71.60000 -0.026
71.62000 -1.989
71.64000 -2.046
71.66000 -0.359
71.68000 -1.667
71.70000 1.404
71.72000 1.322
71.74000 3.564
71.76000 0.857
71.78000 -0.362
71.80000 0.278
71.82000 1.126
71.84000 2.080
71.86000 2.341
71.88000 -0.308
71.90000 1.651
71.92000 2.166
71.94000 0.382
71.96000 0.343
71.98000 4.384
72.00000 3.951
72.02000 3.535
72.04000 0.685
72.06000 -1.388
72.08000 -1.476
72.10000 -2.037
72.12000 -0.251
72.14000 -0.664
72.16000 3.074
72.18000 2.924
72.20000 0.465
72.22000 3.031
72.24000 1.947
72.26000 2.304
72.28000 1.882
72.30000 2.326
72.32000 1.946
72.34000 0.163
72.36000 2.870
72.38000 -0.441
72.40000 -0.309
72.42000 -1.488
72.44000 -0.293
72.46000 -1.105
72.48000 -1.589
72.50000 -1.813
72.52000 0.957
72.54000 2.734
72.56000 2.237
72.58000 3.596
72.60000 1.603
72.62000 0.877
72.64000 0.659
72.66000 -1.958
72.68000 -1.668
72.70000 1.907
72.72000 6.732
72.74000 6.028
72.76000 4.518
72.78000 0.576
72.80000 3.064
72.82000 1.328
72.84000 -1.131
72.86000 -1.351
72.88000 -0.048
72.90000 0.474
72.92000 6.598
72.94000 2.091
72.96000 -1.003
72.98000 1.411
73.00000 2.661
73.02000 -1.557
73.04000 2.647
73.06000 1.911
73.08000 2.595
73.10000 1.886
73.12000 0.190
73.14000 2.812
73.16000 0.950
73.18000 0.054
73.20000 2.218
73.22000 2.262
73.24000 4.146
73.26000 1.765
73.28000 2.796
73.30000 0.663
73.32000 -0.935
73.34000 -2.003
73.36000 0.598
73.38000 1.961
73.40000 4.080
73.42000 1.553
73.44000 -1.599
73.46000 2.896
73.48000 0.719
73.50000 2.117
73.52000 3.190
73.54000 1.253
73.56000 -0.209
73.58000 2.671
73.60000 4.079
73.62000 4.880
73.64000 4.556
73.66000 -1.520
73.68000 -0.877
73.70000 0.087
73.72000 0.841
73.74000 0.008
73.76000 -1.984
73.78000 -0.566
73.80000 1.039
73.82000 2.870
73.84000 3.159
73.86000 3.109
73.88000 2.065
73.90000 1.231
73.92000 4.259
73.94000 4.509
73.96000 5.121
73.98000 2.849
74.00000 5.057
74.02000 7.527
74.04000 3.669
74.06000 3.488
74.08000 2.075
74.10000 3.850
74.12000 3.780
74.14000 1.081
74.16000 1.200
74.18000 -0.502
74.20000 1.119
74.22000 3.655
74.24000 4.401
74.26000 4.930
74.28000 1.756
74.30000 2.538
74.32000 1.372
74.34000 -1.283
74.36000 1.598
74.38000 -1.971
74.40000 0.091
74.42000 2.711
74.44000 4.223
74.46000 4.047
74.48000 3.004
74.50000 0.923
74.52000 0.846
74.54000 1.333
74.56000 1.802
74.58000 4.101
74.60000 2.905
74.62000 2.880
74.64000 2.174
74.66000 3.136
74.68000 2.102
74.70000 -1.985
74.72000 0.055
74.74000 3.950
74.76000 3.202
74.78000 4.101
74.80000 3.727
74.82000 2.505
74.84000 -0.184
74.86000 2.438
74.88000 2.041
74.90000 3.557
74.92000 3.210
74.94000 -1.003
74.96000 -0.748
74.98000 8.034
75.00000 7.559
75.02000 5.930
75.04000 1.727
75.06000 0.943
75.08000 3.833
75.10000 2.767
75.12000 6.057
75.14000 5.172
75.16000 3.829
75.18000 3.632
75.20000 1.149
75.22000 4.458
75.24000 1.949
75.26000 0.002
75.28000 -0.372
75.30000 1.201
75.32000 1.758
75.34000 1.441
75.36000 0.916
75.38000 0.093
75.40000 0.471
75.42000 -0.669
75.44000 -0.664
75.46000 1.926
75.48000 2.286
75.50000 2.319
75.52000 0.596
75.54000 -0.925
75.56000 0.188
75.58000 1.077
75.60000 0.500
75.62000 3.293
75.64000 3.585
75.66000 -0.116
75.68000 -0.145
75.70000 2.854
75.72000 2.149
75.74000 1.052
75.76000 1.917
75.78000 3.824
75.80000 2.776
75.82000 3.162
75.84000 0.278
75.86000 2.452
75.88000 0.991
75.90000 0.935
75.92000 0.962
75.94000 2.485
75.96000 1.345
75.98000 -0.381
76.00000 1.282
76.02000 0.811
76.04000 -0.044
76.06000 -0.649
76.08000 1.676
76.10000 2.362
76.12000 3.766
76.14000 1.966
76.16000 2.880
76.18000 1.895
76.20000 0.656
76.22000 -2.014
76.24000 0.669
76.26000 0.345
76.28000 1.647
76.30000 3.401
76.32000 5.207
76.34000 3.690
76.36000 4.530
76.38000 3.054
76.40000 2.738
76.42000 3.124
76.44000 3.897
76.46000 1.079
76.48000 0.719
76.50000 1.314
76.52000 3.534
76.54000 2.727
76.56000 1.615
76.58000 0.802
76.60000 -0.796
76.62000 0.827
76.64000 4.142
76.66000 2.947
76.68000 0.481
76.70000 -0.190
76.72000 0.378
76.74000 0.334
76.76000 1.667
76.78000 0.732
76.80000 4.205
76.82000 1.353
76.84000 0.882
76.86000 0.345
76.88000 -0.839
76.90000 0.374
76.92000 0.335
76.94000 -0.716
76.96000 -0.347
76.98000 -0.322
77.00000 0.942
77.02000 0.034
77.04000 -0.386
77.06000 -0.838
77.08000 1.187
77.10000 0.018
77.12000 0.642
77.14000 1.440
77.16000 0.442
77.18000 -1.878
77.20000 0.944
77.22000 1.549
77.24000 2.407
77.26000 1.197
77.28000 0.438
77.30000 3.081
77.32000 3.199
77.34000 3.497
77.36000 1.994
77.38000 2.266
77.40000 -0.072
77.42000 -0.150
77.44000 -2.094
77.46000 -0.471
77.48000 -0.509
77.50000 2.323
77.52000 0.732
77.54000 0.236
77.56000 1.425
77.58000 1.572
77.60000 3.694
77.62000 0.212
77.64000 1.611
77.66000 0.521
77.68000 -1.071
77.70000 2.485
77.72000 -0.648
77.74000 0.425
77.76000 0.326
77.78000 1.491
77.80000 1.568
77.82000 0.586
77.84000 2.968
77.86000 0.801
77.88000 -1.811
77.90000 0.547
77.92000 2.889
77.94000 1.475
77.96000 3.505
77.98000 2.506
78.00000 2.243
78.02000 5.752
78.04000 4.252
78.06000 4.456
78.08000 4.137
78.10000 0.483
78.12000 1.298
78.14000 3.975
78.16000 5.486
78.18000 0.275
78.20000 -1.557
78.22000 -2.115
78.24000 3.400
78.26000 1.752
78.28000 1.797
78.30000 3.091
78.32000 1.683
78.34000 3.571
78.36000 2.634
78.38000 3.568
78.40000 1.262
78.42000 1.465
78.44000 0.613
78.46000 1.093
78.48000 -1.730
78.50000 0.230
78.52000 2.015
78.54000 2.791
78.56000 2.770
78.58000 2.989
78.60000 0.974
78.62000 0.971
78.64000 1.942
78.66000 4.922
78.68000 6.630
78.70000 3.889
78.72000 -1.436
78.74000 1.082
78.76000 4.782
78.78000 1.443
78.80000 2.380
78.82000 2.796
78.84000 1.625
78.86000 3.263
78.88000 9.328
78.90000 4.979
78.92000 2.241
78.94000 -0.528
78.96000 2.635
78.98000 0.799
79.00000 1.788
79.02000 2.164
79.04000 3.825
79.06000 3.228
79.08000 2.378
79.10000 4.507
79.12000 4.099
79.14000 5.005
79.16000 8.214
79.18000 8.274
79.20000 9.676
79.22000 8.596
79.24000 7.850
79.26000 7.860
79.28000 8.979
79.30000 9.317
79.32000 9.598
79.34000 9.046
79.36000 8.281
79.38000 7.819
79.40000 11.660
79.42000 12.025
79.44000 10.608
79.46000 8.458
79.48000 7.028
79.50000 9.023
79.52000 9.619
79.54000 9.988
79.56000 13.570
79.58000 13.025
79.60000 15.239
79.62000 12.293
79.64000 12.633
79.66000 11.196
79.68000 15.685
79.70000 17.696
79.72000 16.314
79.74000 19.205
79.76000 17.010
79.78000 16.458
79.80000 19.163
79.82000 18.033
79.84000 18.056
79.86000 14.902
79.88000 12.045
79.90000 14.528
79.92000 14.769
79.94000 17.165
79.96000 15.448
79.98000 16.100
80.00000 18.889
80.02000 20.672
80.04000 23.301
80.06000 26.523
80.08000 24.971
80.10000 18.310
80.12000 17.602
80.14000 14.775
80.16000 14.586
80.18000 14.572
80.20000 16.780
80.22000 17.653
80.24000 15.456
80.26000 14.432
80.28000 14.038
80.30000 11.060
80.32000 11.915
80.34000 14.611
80.36000 12.944
80.38000 13.792
80.40000 18.039
80.42000 14.901
80.44000 11.120
80.46000 14.480
80.48000 10.883
80.50000 11.507
80.52000 11.986
80.54000 8.020
80.56000 7.760
80.58000 12.542
80.60000 11.110
80.62000 8.697
80.64000 7.401
80.66000 5.738
80.68000 2.290
80.70000 2.559
80.72000 4.628
80.74000 5.305
80.76000 6.191
80.78000 8.817
80.80000 8.960
80.82000 8.367
80.84000 2.029
80.86000 4.882
80.88000 4.726
80.90000 5.523
80.92000 3.609
80.94000 0.294
80.96000 4.624
80.98000 3.727
81.00000 0.750
81.02000 3.557
81.04000 4.086
81.06000 3.294
81.08000 1.978
81.10000 0.702
81.12000 1.324
81.14000 0.958
81.16000 2.877
81.18000 0.910
81.20000 1.099
81.22000 2.709
81.24000 1.619
81.26000 1.561
81.28000 -0.524
81.30000 3.660
81.32000 3.098
81.34000 3.972
81.36000 6.213
81.38000 4.600
81.40000 1.698
81.42000 -0.625
81.44000 3.335
81.46000 2.312
81.48000 1.443
81.50000 1.144
81.52000 0.314
81.54000 1.259
81.56000 -2.238
81.58000 2.453
81.60000 3.547
81.62000 1.031
81.64000 -0.761
81.66000 3.116
81.68000 2.728
81.70000 1.791
81.72000 -1.056
81.74000 -1.035
81.76000 1.454
81.78000 2.491
81.80000 -0.148
81.82000 0.269
81.84000 3.472
81.86000 1.262
81.88000 3.929
81.90000 0.719
81.92000 -0.757
81.94000 -0.566
81.96000 2.296
81.98000 -2.255
82.00000 2.458
82.02000 3.991
82.04000 2.870
82.06000 1.421
82.08000 0.060
82.10000 2.431
82.12000 2.505
82.14000 1.672
82.16000 -1.142
82.18000 -0.486
82.20000 1.495
82.22000 2.494
82.24000 3.192
82.26000 3.925
82.28000 4.412
82.30000 6.661
82.32000 5.451
82.34000 3.706
82.36000 2.729
82.38000 3.483
82.40000 3.948
82.42000 1.221
82.44000 2.576
82.46000 4.535
82.48000 3.857
82.50000 4.776
82.52000 5.087
82.54000 5.058
82.56000 4.966
82.58000 3.423
82.60000 2.524
82.62000 3.017
82.64000 5.579
82.66000 4.448
82.68000 3.725
82.70000 3.317
82.72000 7.762
82.74000 5.758
82.76000 3.626
82.78000 4.182
82.80000 3.931
82.82000 8.078
82.84000 7.833
82.86000 5.516
82.88000 9.370
82.90000 15.540
82.92000 13.323
82.94000 2.104
82.96000 3.977
82.98000 5.397
83.00000 9.891
83.02000 9.865
83.04000 9.467
83.06000 7.954
83.08000 9.930
83.10000 14.228
83.12000 15.735
83.14000 16.363
83.16000 14.109
83.18000 18.342
83.20000 14.884
83.22000 16.192
83.24000 15.438
83.26000 16.846
83.28000 18.903
83.30000 22.064
83.32000 23.145
83.34000 19.703
83.36000 21.118
83.38000 23.855
83.40000 27.852
83.42000 31.672
83.44000 33.492
83.46000 30.595
83.48000 26.643
83.50000 25.187
83.52000 26.132
83.54000 30.934
83.56000 33.744
83.58000 33.224
83.60000 34.940
83.62000 35.751
83.64000 39.448
83.66000 45.417
83.68000 44.623
83.70000 42.175
83.72000 39.124
83.74000 40.506
83.76000 45.085
83.78000 46.364
83.80000 42.673
83.82000 40.451
83.84000 46.465
83.86000 48.640
83.88000 45.338
83.90000 46.337
83.92000 52.280
83.94000 51.494
83.96000 49.789
83.98000 49.302
84.00000 54.057
84.02000 49.805
84.04000 47.785
84.06000 43.700
84.08000 40.291
84.10000 39.026
84.12000 37.014
84.14000 39.230
84.16000 42.304
84.18000 38.990
84.20000 36.512
84.22000 34.583
84.24000 37.053
84.26000 36.358
84.28000 33.807
84.30000 31.823
84.32000 32.436
84.34000 33.681
84.36000 30.299
84.38000 27.728
84.40000 25.534
84.42000 23.347
84.44000 24.062
84.46000 22.555
84.48000 19.501
84.50000 20.616
84.52000 19.242
84.54000 19.585
84.56000 17.321
84.58000 14.272
84.60000 12.094
84.62000 14.902
84.64000 15.604
84.66000 15.558
84.68000 14.486
84.70000 10.924
84.72000 13.659
84.74000 13.714
84.76000 12.995
84.78000 11.261
84.80000 7.390
84.82000 6.636
84.84000 7.338
84.86000 7.681
84.88000 6.277
84.90000 6.005
84.92000 5.210
84.94000 3.921
84.96000 3.153
84.98000 4.078
85.00000 -0.975
85.02000 3.360
85.04000 2.220
85.06000 2.180
85.08000 2.136
85.10000 3.401
85.12000 3.634
85.14000 2.532
85.16000 2.175
85.18000 -0.749
85.20000 -2.143
85.22000 1.631
85.24000 3.491
85.26000 1.184
85.28000 3.156
85.30000 2.824
85.32000 0.128
85.34000 0.887
85.36000 3.670
85.38000 1.361
85.40000 -0.881
85.42000 -1.752
85.44000 -1.599
85.46000 -1.013
85.48000 2.689
85.50000 2.163
85.52000 2.122
85.54000 1.556
85.56000 -1.338
85.58000 -1.076
85.60000 0.365
85.62000 -0.838
85.64000 0.046
85.66000 0.766
85.68000 0.292
85.70000 0.496
85.72000 1.937
85.74000 -2.025
85.76000 -2.056
85.78000 -0.973
85.80000 2.063
85.82000 1.097
85.84000 -0.715
85.86000 -1.458
85.88000 -0.563
85.90000 0.123
85.92000 -0.572
85.94000 2.257
85.96000 1.133
85.98000 0.398
86.00000 -0.463
86.02000 2.190
86.04000 3.830
86.06000 0.832
86.08000 -0.099
86.10000 0.631
86.12000 -0.895
86.14000 -2.005
86.16000 -0.080
86.18000 -0.669
86.20000 1.365
86.22000 1.489
86.24000 -0.095
86.26000 1.090
86.28000 2.487
86.30000 1.400
86.32000 -0.613
86.34000 2.336
86.36000 3.389
86.38000 2.200
86.40000 0.263
86.42000 0.856
86.44000 -0.868
86.46000 -1.981
86.48000 -1.689
86.50000 1.089
86.52000 2.635
86.54000 4.292
86.56000 2.214
86.58000 0.872
86.60000 3.912
86.62000 4.558
86.64000 2.115
86.66000 -0.102
86.68000 1.609
86.70000 0.833
86.72000 -0.023
86.74000 0.715
86.76000 -1.054
86.78000 -0.148
86.80000 0.419
86.82000 -1.580
86.84000 2.136
86.86000 2.536
86.88000 1.039
86.90000 -0.609
86.92000 0.461
86.94000 -0.371
86.96000 2.811
86.98000 1.033
87.00000 -1.049
87.02000 -1.935
87.04000 -0.587
87.06000 3.825
87.08000 4.498
87.10000 3.192
87.12000 3.906
87.14000 3.086
87.16000 2.980
87.18000 0.813
87.20000 1.109
87.22000 2.175
87.24000 3.241
87.26000 -1.912
87.28000 1.620
87.30000 5.442
87.32000 -0.001
87.34000 -0.781
87.36000 1.979
87.38000 3.268
87.40000 4.264
87.42000 2.255
87.44000 0.786
87.46000 0.696
87.48000 2.295
87.50000 3.042
87.52000 5.632
87.54000 4.677
87.56000 3.393
87.58000 3.446
87.60000 2.968
87.62000 2.694
87.64000 1.979
87.66000 3.225
87.68000 3.200
87.70000 1.236
87.72000 -0.968
87.74000 0.741
87.76000 1.292
87.78000 1.154
87.80000 -0.863
87.82000 -0.344
87.84000 3.743
87.86000 2.801
87.88000 1.373
87.90000 1.035
87.92000 2.623
87.94000 2.196
87.96000 3.601
87.98000 4.802
88.00000 0.974
88.02000 1.853
88.04000 -0.301
88.06000 1.438
88.08000 6.038
88.10000 4.780
88.12000 1.777
88.14000 -0.320
88.16000 1.429
88.18000 -1.881
88.20000 -0.889
88.22000 0.297
88.24000 3.517
88.26000 3.747
88.28000 0.641
88.30000 3.362
88.32000 3.661
88.34000 4.114
88.36000 0.620
88.38000 -0.546
88.40000 -1.870
88.42000 -0.273
88.44000 1.655
88.46000 1.206
88.48000 2.163
88.50000 3.228
88.52000 4.526
88.54000 4.460
88.56000 5.342
88.58000 3.556
88.60000 2.037
88.62000 5.906
88.64000 3.548
88.66000 2.601
88.68000 0.763
88.70000 2.604
88.72000 3.972
88.74000 2.287
88.76000 -0.957
88.78000 -1.518
88.80000 -0.302
88.82000 -0.845
88.84000 -0.008
88.86000 0.933
88.88000 2.049
88.90000 2.816
88.92000 1.918
88.94000 1.882
88.96000 1.016
88.98000 0.913
89.00000 -1.354
89.02000 -1.785
89.04000 0.246
89.06000 1.855
89.08000 -0.248
89.10000 1.713
89.12000 3.506
89.14000 1.523
89.16000 0.451
89.18000 0.906
89.20000 1.750
89.22000 3.829
89.24000 6.571
89.26000 2.576
89.28000 0.866
89.30000 -0.171
89.32000 2.005
89.34000 0.708
89.36000 1.285
89.38000 0.766
89.40000 2.477
89.42000 0.735
89.44000 1.284
89.46000 1.569
89.48000 0.647
89.50000 -1.117
89.52000 0.630
89.54000 2.590
89.56000 2.254
89.58000 0.750
89.60000 2.060
89.62000 1.618
89.64000 1.278
89.66000 5.941
89.68000 5.667
89.70000 3.704
89.72000 3.676
89.74000 2.764
89.76000 1.397
89.78000 -1.868
89.80000 -0.299
89.82000 3.269
89.84000 3.649
89.86000 -0.717
89.88000 0.139
89.90000 2.177
89.92000 0.656
89.94000 -1.262
89.96000 1.976
89.98000 4.882
90.00000 2.997
90.02000 0.923
90.04000 2.296
90.06000 5.832
90.08000 6.919
90.10000 4.332
90.12000 2.395
90.14000 1.520
90.16000 -1.713
90.18000 -1.840
90.20000 2.386
90.22000 3.135
90.24000 2.378
90.26000 3.181
90.28000 4.411
90.30000 2.943
90.32000 6.226
90.34000 7.516
90.36000 5.567
90.38000 3.363
90.40000 1.271
90.42000 5.428
90.44000 6.706
90.46000 3.124
90.48000 2.212
90.50000 4.532
90.52000 5.954
90.54000 5.748
90.56000 5.049
90.58000 3.461
90.60000 3.004
90.62000 -0.383
90.64000 -0.308
90.66000 2.727
90.68000 3.396
90.70000 2.586
90.72000 5.038
90.74000 3.864
90.76000 3.574
90.78000 2.097
90.80000 -0.887
90.82000 -1.858
90.84000 0.101
90.86000 3.146
90.88000 3.997
90.90000 2.665
90.92000 2.568
90.94000 -0.021
90.96000 1.541
90.98000 3.925
91.00000 3.706
91.02000 2.985
91.04000 1.240
91.06000 2.037
91.08000 2.482
91.10000 2.610
91.12000 2.055
91.14000 -0.035
91.16000 -1.293
91.18000 2.530
91.20000 2.336
91.22000 2.841
91.24000 2.916
91.26000 1.257
91.28000 0.124
91.30000 3.202
91.32000 0.403
91.34000 0.845
91.36000 2.792
91.38000 3.660
91.40000 4.116
91.42000 1.348
91.44000 1.654
91.46000 3.874
91.48000 2.792
91.50000 1.075
91.52000 1.805
91.54000 1.452
91.56000 1.410
91.58000 4.880
91.60000 4.499
91.62000 -0.125
91.64000 -1.402
91.66000 -0.040
91.68000 -0.635
91.70000 1.803
91.72000 1.206
91.74000 -1.219
91.76000 2.874
91.78000 -0.553
91.80000 0.520
91.82000 3.814
91.84000 1.248
91.86000 2.431
91.88000 5.355
91.90000 3.375
91.92000 1.901
91.94000 4.394
91.96000 3.576
91.98000 -1.268
92.00000 -1.851
92.02000 4.726
92.04000 2.599
92.06000 3.173
92.08000 2.806
92.10000 -0.282
92.12000 -0.534
92.14000 -1.136
92.16000 -0.817
92.18000 3.181
92.20000 6.061
92.22000 1.498
92.24000 4.267
92.26000 3.232
92.28000 1.537
92.30000 3.848
92.32000 5.550
92.34000 3.707
92.36000 3.455
92.38000 1.375
92.40000 1.870
92.42000 3.625
92.44000 2.903
92.46000 -1.742
92.48000 2.741
92.50000 4.581
92.52000 4.756
92.54000 5.346
92.56000 1.106
92.58000 0.789
92.60000 0.265
92.62000 -0.067
92.64000 1.895
92.66000 0.920
92.68000 0.407
92.70000 0.597
92.72000 1.602
92.74000 3.649
92.76000 -0.583
92.78000 0.170
92.80000 4.051
92.82000 1.040
92.84000 0.168
92.86000 4.089
92.88000 6.338
92.90000 6.278
92.92000 6.921
92.94000 6.994
92.96000 1.376
92.98000 -0.018
93.00000 1.834
93.02000 1.068
93.04000 2.022
93.06000 0.798
93.08000 -0.297
93.10000 1.570
93.12000 -1.283
93.14000 3.143
93.16000 -0.026
93.18000 -1.887
93.20000 1.703
93.22000 4.143
93.24000 7.357
93.26000 3.725
93.28000 3.976
93.30000 1.817
93.32000 -0.008
93.34000 -0.781
93.36000 -0.347
93.38000 4.437
93.40000 3.873
93.42000 0.727
93.44000 1.349
93.46000 2.723
93.48000 4.110
93.50000 1.434
93.52000 0.521
93.54000 2.835
93.56000 0.928
93.58000 -0.446
93.60000 1.529
93.62000 0.560
93.64000 0.577
93.66000 2.608
93.68000 1.195
93.70000 5.126
93.72000 3.338
93.74000 1.910
93.76000 2.338
93.78000 1.444
93.80000 2.378
93.82000 2.878
93.84000 0.407
93.86000 0.050
93.88000 3.120
93.90000 3.543
93.92000 0.751
93.94000 1.921
93.96000 1.355
93.98000 -0.407
94.00000 1.641
94.02000 -1.644
94.04000 1.129
94.06000 2.767
94.08000 1.205
94.10000 1.680
94.12000 3.646
94.14000 1.575
94.16000 -0.036
94.18000 -1.905
94.20000 -0.249
94.22000 1.960
94.24000 1.882
94.26000 3.303
94.28000 3.083
94.30000 1.225
94.32000 2.635
94.34000 0.625
94.36000 -1.631
94.38000 1.339
94.40000 1.560
94.42000 -0.555
94.44000 0.270
94.46000 2.470
94.48000 2.316
94.50000 0.919
94.52000 1.584
94.54000 1.043
94.56000 -1.911
94.58000 2.042
94.60000 2.581
94.62000 1.675
94.64000 0.334
94.66000 2.812
94.68000 3.515
94.70000 2.823
94.72000 2.646
94.74000 -0.100
94.76000 -1.303
94.78000 -1.728
94.80000 -1.104
94.82000 -0.752
94.84000 1.249
94.86000 2.133
94.88000 3.992
94.90000 5.923
94.92000 0.250
94.94000 0.851
94.96000 2.483
94.98000 4.145
95.00000 3.678
95.02000 3.487
95.04000 2.760
95.06000 2.188
95.08000 3.012
95.10000 0.846
95.12000 -1.917
95.14000 -1.648
95.16000 -0.734
95.18000 0.640
95.20000 4.489
95.22000 3.461
95.24000 3.347
95.26000 3.269
95.28000 1.281
95.30000 4.589
95.32000 6.554
95.34000 6.648
95.36000 6.377
95.38000 4.989
95.40000 4.388
95.42000 1.257
95.44000 -1.379
95.46000 1.874
95.48000 2.834
95.50000 0.651
95.52000 2.423
95.54000 5.028
95.56000 3.252
95.58000 4.602
95.60000 2.621
95.62000 -0.133
95.64000 0.503
95.66000 0.935
95.68000 -0.272
95.70000 0.836
95.72000 4.701
95.74000 2.881
95.76000 6.471
95.78000 6.615
95.80000 5.470
95.82000 6.358
95.84000 3.547
95.86000 -0.892
95.88000 2.148
95.90000 2.472
95.92000 3.123
95.94000 0.785
95.96000 3.700
95.98000 5.401
96.00000 4.163
96.02000 6.165
96.04000 4.867
96.06000 -0.509
96.08000 1.442
96.10000 2.769
96.12000 2.896
96.14000 4.784
96.16000 -1.877
96.18000 -0.474
96.20000 0.457
96.22000 0.028
96.24000 3.643
96.26000 5.062
96.28000 6.020
96.30000 1.451
96.32000 2.328
96.34000 4.791
96.36000 0.123
96.38000 1.196
96.40000 4.422
96.42000 -0.122
96.44000 -0.523
96.46000 0.438
96.48000 4.791
96.50000 2.921
96.52000 0.902
96.54000 0.948
96.56000 3.582
96.58000 2.594
96.60000 -1.518
96.62000 -1.863
96.64000 -1.140
96.66000 2.133
96.68000 2.687
96.70000 2.487
96.72000 1.202
96.74000 -1.421
96.76000 2.069
96.78000 1.984
96.80000 2.685
96.82000 2.099
96.84000 -0.053
96.86000 1.601
96.88000 4.717
96.90000 5.564
96.92000 2.043
96.94000 2.805
96.96000 1.815
96.98000 6.665
97.00000 1.015
97.02000 1.819
97.04000 0.276
97.06000 0.602
97.08000 3.944
97.10000 0.914
97.12000 -0.626
97.14000 -0.485
97.16000 0.105
97.18000 6.818
97.20000 6.575
97.22000 2.430
97.24000 -0.697
97.26000 -1.405
97.28000 -0.428
97.30000 3.175
97.32000 2.713
97.34000 -0.956
97.36000 -0.393
97.38000 2.075
97.40000 1.998
97.42000 0.062
97.44000 1.418
97.46000 0.853
97.48000 -1.801
97.50000 -1.841
97.52000 4.540
97.54000 4.049
97.56000 3.665
97.58000 1.287
97.60000 -1.896
97.62000 1.336
97.64000 2.936
97.66000 1.164
97.68000 -0.737
97.70000 -0.422
97.72000 3.785
97.74000 6.164
97.76000 4.250
97.78000 1.697
97.80000 -0.213
97.82000 2.707
97.84000 2.549
97.86000 1.805
97.88000 4.071
97.90000 1.059
97.92000 -1.753
97.94000 -1.085
97.96000 -0.827
97.98000 1.736
98.00000 4.197
98.02000 1.470
98.04000 -1.889
98.06000 -1.388
98.08000 2.301
98.10000 4.005
98.12000 2.679
98.14000 3.627
98.16000 2.787
98.18000 1.756
98.20000 1.719
98.22000 1.977
98.24000 3.628
98.26000 -1.691
98.28000 0.397
98.30000 2.993
98.32000 3.449
98.34000 4.039
98.36000 4.385
98.38000 1.699
98.40000 -0.508
98.42000 1.352
98.44000 5.722
98.46000 2.096
98.48000 3.607
98.50000 1.897
98.52000 1.227
98.54000 0.272
98.56000 -0.310
98.58000 1.848
98.60000 0.322
98.62000 0.758
98.64000 2.720
98.66000 2.695
98.68000 2.959
98.70000 3.427
98.72000 2.625
98.74000 0.565
98.76000 2.405
98.78000 8.875
98.80000 7.886
98.82000 5.707
98.84000 1.214
98.86000 4.615
98.88000 7.358
98.90000 -0.122
98.92000 6.641
98.94000 3.514
98.96000 4.146
98.98000 1.607
99.00000 2.590
99.02000 4.398
99.04000 -1.825
99.06000 3.308
99.08000 4.786
99.10000 1.759
99.12000 3.400
99.14000 8.328
99.16000 4.085
99.18000 4.494
99.20000 1.098
99.22000 3.061
99.24000 2.936
99.26000 5.662
99.28000 1.293
99.30000 4.637
99.32000 9.952
99.34000 9.933
99.36000 8.243
99.38000 9.313
99.40000 7.934
99.42000 2.297
99.44000 5.891
99.46000 5.959
99.48000 9.581
99.50000 11.910
99.52000 8.163
99.54000 3.201
99.56000 7.814
99.58000 9.514
99.60000 6.785
99.62000 9.783
99.64000 16.455
99.66000 6.193
99.68000 -2.023
99.70000 2.850
99.72000 -1.252
99.74000 6.273
99.76000 13.935
99.78000 13.318
99.80000 12.948
99.82000 2.226
99.84000 4.374
99.86000 11.254
99.88000 5.662
99.90000 7.105
99.92000 -1.873
99.94000 0.043
99.96000 1.048
99.98000 0.000
