'Id: "0011387" Comment: "Integrate frame 0011387_Au-Ir-Rh_Rh-rich_XRD-Mapping-179-0000.gfrmwith cursor Wedge Cursor #5" Operator: "B?rgel" Anode: "Cu" Wavelength: "1.5406" Scantype: "2Theta (TwoTheta)" TimePerStep: "1" X: "-40.5" Y: "4.5" Z: "5.95" 
10.00000 0.000
10.02000 -6.104
10.04000 14.298
10.06000 21.945
10.08000 17.571
10.10000 17.391
10.12000 13.257
10.14000 6.771
10.16000 5.459
10.18000 6.615
10.20000 1.138
10.22000 1.728
10.24000 11.301
10.26000 11.503
10.28000 15.352
10.30000 21.843
10.32000 31.627
10.34000 14.399
10.36000 12.198
10.38000 22.020
10.40000 20.822
10.42000 15.866
10.44000 10.731
10.46000 3.346
10.48000 13.867
10.50000 28.006
10.52000 18.945
10.54000 -2.316
10.56000 -4.489
10.58000 2.223
10.60000 13.833
10.62000 8.088
10.64000 -1.248
10.66000 17.879
10.68000 23.413
10.70000 14.232
10.72000 4.763
10.74000 1.695
10.76000 11.151
10.78000 10.597
10.80000 18.944
10.82000 30.085
10.84000 24.239
10.86000 16.614
10.88000 15.681
10.90000 14.714
10.92000 16.080
10.94000 18.272
10.96000 12.023
10.98000 19.091
11.00000 21.166
11.02000 26.640
11.04000 31.751
11.06000 20.559
11.08000 21.739
11.10000 21.249
11.12000 23.956
11.14000 25.768
11.16000 26.683
11.18000 12.100
11.20000 19.117
11.22000 14.622
11.24000 19.218
11.26000 21.731
11.28000 15.835
11.30000 15.391
11.32000 11.814
11.34000 10.335
11.36000 9.240
11.38000 17.115
11.40000 20.587
11.42000 25.432
11.44000 11.684
11.46000 9.428
11.48000 18.991
11.50000 24.058
11.52000 27.983
11.54000 17.959
11.56000 16.145
11.58000 21.649
11.60000 18.583
11.62000 17.301
11.64000 19.175
11.66000 2.423
11.68000 -4.417
11.70000 3.952
11.72000 13.517
11.74000 15.552
11.76000 17.471
11.78000 21.541
11.80000 15.482
11.82000 12.772
11.84000 20.014
11.86000 21.325
11.88000 18.398
11.90000 12.709
11.92000 14.518
11.94000 17.670
11.96000 11.182
11.98000 13.041
12.00000 10.674
12.02000 20.887
12.04000 15.563
12.06000 25.695
12.08000 24.603
12.10000 30.775
12.12000 25.639
12.14000 17.405
12.16000 3.006
12.18000 4.031
12.20000 18.480
12.22000 15.361
12.24000 22.654
12.26000 12.918
12.28000 8.145
12.30000 9.355
12.32000 16.494
12.34000 21.790
12.36000 31.247
12.38000 28.282
12.40000 27.163
12.42000 25.693
12.44000 12.947
12.46000 8.078
12.48000 13.986
12.50000 20.986
12.52000 18.947
12.54000 12.077
12.56000 -4.466
12.58000 3.791
12.60000 13.430
12.62000 15.212
12.64000 13.505
12.66000 15.990
12.68000 17.111
12.70000 8.964
12.72000 5.342
12.74000 8.976
12.76000 16.645
12.78000 16.127
12.80000 9.950
12.82000 11.116
12.84000 6.203
12.86000 5.191
12.88000 7.266
12.90000 12.101
12.92000 13.849
12.94000 14.909
12.96000 14.680
12.98000 11.438
13.00000 7.437
13.02000 7.989
13.04000 10.137
13.06000 15.734
13.08000 13.748
13.10000 6.233
13.12000 4.628
13.14000 10.973
13.16000 19.261
13.18000 17.648
13.20000 10.183
13.22000 -0.175
13.24000 2.094
13.26000 7.613
13.28000 8.434
13.30000 3.852
13.32000 7.032
13.34000 15.606
13.36000 11.201
13.38000 7.617
13.40000 11.229
13.42000 11.597
13.44000 12.459
13.46000 12.028
13.48000 9.816
13.50000 14.021
13.52000 7.764
13.54000 -2.081
13.56000 14.884
13.58000 16.633
13.60000 6.680
13.62000 7.740
13.64000 12.495
13.66000 20.564
13.68000 27.555
13.70000 21.539
13.72000 17.899
13.74000 12.226
13.76000 13.330
13.78000 16.047
13.80000 11.755
13.82000 20.558
13.84000 20.681
13.86000 4.586
13.88000 9.266
13.90000 4.967
13.92000 1.983
13.94000 8.882
13.96000 8.849
13.98000 12.767
14.00000 12.484
14.02000 5.909
14.04000 -3.806
14.06000 4.087
14.08000 18.417
14.10000 7.752
14.12000 8.000
14.14000 5.614
14.16000 8.444
14.18000 9.578
14.20000 -4.475
14.22000 -4.475
14.24000 6.861
14.26000 15.578
14.28000 17.121
14.30000 14.185
14.32000 12.991
14.34000 16.586
14.36000 16.295
14.38000 8.417
14.40000 5.176
14.42000 5.917
14.44000 19.846
14.46000 15.559
14.48000 12.326
14.50000 14.718
14.52000 15.283
14.54000 5.073
14.56000 -1.317
14.58000 7.115
14.60000 8.753
14.62000 16.049
14.64000 14.859
14.66000 4.652
14.68000 6.232
14.70000 9.471
14.72000 5.240
14.74000 7.289
14.76000 15.975
14.78000 12.829
14.80000 13.206
14.82000 7.035
14.84000 -0.643
14.86000 7.214
14.88000 10.406
14.90000 8.325
14.92000 12.499
14.94000 16.882
14.96000 16.449
14.98000 12.260
15.00000 11.663
15.02000 1.976
15.04000 -0.980
15.06000 9.329
15.08000 15.606
15.10000 5.302
15.12000 1.397
15.14000 0.792
15.16000 8.914
15.18000 10.514
15.20000 11.300
15.22000 13.793
15.24000 9.734
15.26000 6.920
15.28000 13.554
15.30000 10.525
15.32000 5.329
15.34000 5.267
15.36000 -4.427
15.38000 -3.065
15.40000 3.623
15.42000 14.161
15.44000 12.752
15.46000 7.146
15.48000 9.613
15.50000 16.946
15.52000 10.090
15.54000 6.110
15.56000 8.564
15.58000 2.904
15.60000 9.767
15.62000 10.738
15.64000 14.847
15.66000 6.683
15.68000 10.154
15.70000 18.136
15.72000 12.187
15.74000 -0.338
15.76000 -4.426
15.78000 -3.505
15.80000 -0.854
15.82000 9.889
15.84000 9.595
15.86000 3.161
15.88000 3.065
15.90000 6.606
15.92000 12.191
15.94000 6.753
15.96000 14.829
15.98000 3.594
16.00000 10.982
16.02000 8.300
16.04000 14.078
16.06000 6.077
16.08000 -4.422
16.10000 2.048
16.12000 5.689
16.14000 2.824
16.16000 -0.011
16.18000 5.508
16.20000 7.536
16.22000 -2.385
16.24000 -0.755
16.26000 4.433
16.28000 7.216
16.30000 10.793
16.32000 12.218
16.34000 4.860
16.36000 4.829
16.38000 8.986
16.40000 10.575
16.42000 11.011
16.44000 1.328
16.46000 1.320
16.48000 7.933
16.50000 7.973
16.52000 7.519
16.54000 7.963
16.56000 2.072
16.58000 4.515
16.60000 6.972
16.62000 9.225
16.64000 5.293
16.66000 2.932
16.68000 6.424
16.70000 7.212
16.72000 7.732
16.74000 9.386
16.76000 7.345
16.78000 13.494
16.80000 2.476
16.82000 -0.986
16.84000 -2.720
16.86000 -1.343
16.88000 8.916
16.90000 3.214
16.92000 1.722
16.94000 3.005
16.96000 7.167
16.98000 10.803
17.00000 12.233
17.02000 9.162
17.04000 1.735
17.06000 -2.328
17.08000 3.518
17.10000 1.229
17.12000 4.630
17.14000 0.005
17.16000 10.842
17.18000 3.892
17.20000 2.034
17.22000 7.706
17.24000 10.751
17.26000 8.045
17.28000 2.720
17.30000 0.845
17.32000 3.334
17.34000 10.491
17.36000 13.237
17.38000 2.941
17.40000 3.188
17.42000 -0.291
17.44000 5.190
17.46000 6.850
17.48000 2.913
17.50000 4.031
17.52000 -3.809
17.54000 1.990
17.56000 6.181
17.58000 2.711
17.60000 0.423
17.62000 3.710
17.64000 6.519
17.66000 5.463
17.68000 6.708
17.70000 5.897
17.72000 14.489
17.74000 8.040
17.76000 0.831
17.78000 1.480
17.80000 3.889
17.82000 1.262
17.84000 -3.478
17.86000 -4.209
17.88000 -4.308
17.90000 6.400
17.92000 5.024
17.94000 10.671
17.96000 15.640
17.98000 8.282
18.00000 1.308
18.02000 3.182
18.04000 3.322
18.06000 11.570
18.08000 8.736
18.10000 7.429
18.12000 7.394
18.14000 9.440
18.16000 16.064
18.18000 8.426
18.20000 8.379
18.22000 11.526
18.24000 5.190
18.26000 10.332
18.28000 7.317
18.30000 -1.812
18.32000 -4.288
18.34000 -0.307
18.36000 6.216
18.38000 6.964
18.40000 12.273
18.42000 11.593
18.44000 9.959
18.46000 7.805
18.48000 3.352
18.50000 6.879
18.52000 8.804
18.54000 3.058
18.56000 1.853
18.58000 1.395
18.60000 12.157
18.62000 17.224
18.64000 17.470
18.66000 13.954
18.68000 13.681
18.70000 5.814
18.72000 4.790
18.74000 9.453
18.76000 9.552
18.78000 10.237
18.80000 13.041
18.82000 11.063
18.84000 10.529
18.86000 7.114
18.88000 4.204
18.90000 2.735
18.92000 0.173
18.94000 -3.512
18.96000 -1.300
18.98000 5.768
19.00000 7.217
19.02000 9.279
19.04000 5.924
19.06000 -0.537
19.08000 -0.802
19.10000 1.556
19.12000 2.636
19.14000 2.831
19.16000 3.495
19.18000 8.191
19.20000 4.397
19.22000 2.812
19.24000 12.105
19.26000 6.738
19.28000 -0.772
19.30000 -1.782
19.32000 -0.985
19.34000 6.194
19.36000 16.070
19.38000 9.821
19.40000 2.347
19.42000 3.954
19.44000 4.059
19.46000 2.152
19.48000 6.548
19.50000 7.445
19.52000 7.098
19.54000 8.308
19.56000 14.447
19.58000 16.660
19.60000 7.404
19.62000 -4.190
19.64000 5.150
19.66000 9.011
19.68000 12.445
19.70000 5.083
19.72000 1.786
19.74000 6.934
19.76000 6.924
19.78000 10.284
19.80000 12.571
19.82000 7.872
19.84000 9.569
19.86000 7.809
19.88000 3.893
19.90000 4.793
19.92000 3.915
19.94000 5.975
19.96000 10.740
19.98000 8.071
20.00000 4.898
20.02000 1.011
20.04000 4.175
20.06000 5.718
20.08000 4.113
20.10000 7.237
20.12000 5.075
20.14000 2.455
20.16000 1.591
20.18000 -3.850
20.20000 2.525
20.22000 5.953
20.24000 0.727
20.26000 3.330
20.28000 4.155
20.30000 7.921
20.32000 8.936
20.34000 4.046
20.36000 6.646
20.38000 9.058
20.40000 9.514
20.42000 4.293
20.44000 -0.715
20.46000 5.809
20.48000 10.439
20.50000 6.332
20.52000 0.978
20.54000 4.712
20.56000 -1.274
20.58000 7.521
20.60000 9.790
20.62000 4.552
20.64000 -0.523
20.66000 0.208
20.68000 6.075
20.70000 6.235
20.72000 8.563
20.74000 9.331
20.76000 13.675
20.78000 11.013
20.80000 11.507
20.82000 4.345
20.84000 0.198
20.86000 1.729
20.88000 9.007
20.90000 4.153
20.92000 1.672
20.94000 5.989
20.96000 4.618
20.98000 3.562
21.00000 2.788
21.02000 6.089
21.04000 5.138
21.06000 3.753
21.08000 3.029
21.10000 2.676
21.12000 8.291
21.14000 11.551
21.16000 4.127
21.18000 -0.504
21.20000 0.614
21.22000 -0.533
21.24000 2.748
21.26000 0.346
21.28000 1.756
21.30000 1.314
21.32000 7.085
21.34000 8.429
21.36000 2.105
21.38000 -4.120
21.40000 -0.555
21.42000 1.720
21.44000 7.403
21.46000 12.797
21.48000 5.467
21.50000 7.771
21.52000 9.256
21.54000 6.669
21.56000 7.315
21.58000 3.588
21.60000 11.304
21.62000 12.999
21.64000 6.514
21.66000 7.143
21.68000 8.289
21.70000 9.283
21.72000 4.470
21.74000 1.395
21.76000 7.902
21.78000 12.352
21.80000 2.184
21.82000 1.043
21.84000 4.207
21.86000 2.269
21.88000 -3.432
21.90000 0.023
21.92000 6.484
21.94000 -0.087
21.96000 -4.093
21.98000 -2.376
22.00000 6.774
22.02000 9.596
22.04000 2.883
22.06000 -3.726
22.08000 -0.501
22.10000 5.990
22.12000 2.353
22.14000 5.413
22.16000 3.438
22.18000 -1.689
22.20000 0.162
22.22000 1.650
22.24000 6.395
22.26000 10.085
22.28000 8.895
22.30000 1.333
22.32000 -1.586
22.34000 6.155
22.36000 6.929
22.38000 6.604
22.40000 0.869
22.42000 2.371
22.44000 0.267
22.46000 2.723
22.48000 3.974
22.50000 6.683
22.52000 7.033
22.54000 9.050
22.56000 10.700
22.58000 7.795
22.60000 5.824
22.62000 3.558
22.64000 2.967
22.66000 6.496
22.68000 5.470
22.70000 4.684
22.72000 7.302
22.74000 1.338
22.76000 -1.467
22.78000 -4.064
22.80000 4.834
22.82000 8.847
22.84000 5.498
22.86000 -2.952
22.88000 1.126
22.90000 5.699
22.92000 8.238
22.94000 1.891
22.96000 5.566
22.98000 5.808
23.00000 7.293
23.02000 9.113
23.04000 1.139
23.06000 2.498
23.08000 2.684
23.10000 -1.208
23.12000 1.477
23.14000 3.548
23.16000 0.508
23.18000 -2.820
23.20000 3.380
23.22000 4.275
23.24000 5.386
23.26000 2.522
23.28000 6.155
23.30000 7.024
23.32000 5.645
23.34000 9.224
23.36000 8.545
23.38000 13.120
23.40000 9.732
23.42000 1.270
23.44000 2.532
23.46000 -0.351
23.48000 3.007
23.50000 8.791
23.52000 5.836
23.54000 3.874
23.56000 -0.739
23.58000 1.927
23.60000 5.983
23.62000 2.928
23.64000 2.731
23.66000 1.652
23.68000 2.972
23.70000 6.844
23.72000 0.099
23.74000 4.091
23.76000 4.917
23.78000 4.507
23.80000 10.211
23.82000 4.295
23.84000 -2.523
23.86000 -0.703
23.88000 0.289
23.90000 6.662
23.92000 1.453
23.94000 -1.770
23.96000 -0.464
23.98000 0.261
24.00000 -3.994
24.02000 -0.470
24.04000 2.550
24.06000 6.350
24.08000 7.150
24.10000 3.129
24.12000 0.887
24.14000 -0.364
24.16000 0.994
24.18000 4.855
24.20000 5.867
24.22000 2.086
24.24000 -3.788
24.26000 -2.573
24.28000 -0.801
24.30000 -1.149
24.32000 3.160
24.34000 7.099
24.36000 5.682
24.38000 4.901
24.40000 2.139
24.42000 1.598
24.44000 -2.208
24.46000 3.486
24.48000 7.878
24.50000 0.806
24.52000 0.231
24.54000 5.791
24.56000 2.341
24.58000 4.643
24.60000 -0.518
24.62000 1.719
24.64000 5.930
24.66000 3.756
24.68000 3.556
24.70000 3.379
24.72000 2.613
24.74000 7.278
24.76000 6.488
24.78000 2.569
24.80000 3.717
24.82000 9.104
24.84000 8.391
24.86000 4.201
24.88000 -3.928
24.90000 1.311
24.92000 3.613
24.94000 0.694
24.96000 9.656
24.98000 8.991
25.00000 -0.886
25.02000 3.610
25.04000 -1.514
25.06000 -0.013
25.08000 2.365
25.10000 2.473
25.12000 3.979
25.14000 0.974
25.16000 0.372
25.18000 5.233
25.20000 8.894
25.22000 2.814
25.24000 0.157
25.26000 1.395
25.28000 -0.374
25.30000 6.382
25.32000 7.776
25.34000 1.949
25.36000 -3.883
25.38000 1.919
25.40000 8.118
25.42000 8.114
25.44000 9.542
25.46000 5.280
25.48000 3.466
25.50000 1.331
25.52000 4.273
25.54000 7.526
25.56000 5.143
25.58000 8.938
25.60000 8.480
25.62000 9.779
25.64000 3.118
25.66000 0.733
25.68000 1.533
25.70000 -1.603
25.72000 -1.505
25.74000 0.247
25.76000 6.429
25.78000 8.290
25.80000 12.217
25.82000 7.612
25.84000 5.143
25.86000 0.007
25.88000 0.461
25.90000 -0.510
25.92000 3.699
25.94000 6.217
25.96000 5.934
25.98000 3.133
26.00000 0.641
26.02000 2.932
26.04000 7.888
26.06000 8.141
26.08000 4.716
26.10000 6.543
26.12000 9.422
26.14000 -0.210
26.16000 -3.877
26.18000 -1.154
26.20000 -0.661
26.22000 0.287
26.24000 5.535
26.26000 -0.895
26.28000 1.066
26.30000 0.966
26.32000 5.970
26.34000 5.736
26.36000 3.022
26.38000 3.489
26.40000 3.657
26.42000 2.991
26.44000 -0.699
26.46000 -0.338
26.48000 -1.528
26.50000 4.512
26.52000 1.116
26.54000 -2.809
26.56000 1.734
26.58000 5.613
26.60000 1.503
26.62000 4.500
26.64000 6.149
26.66000 1.713
26.68000 1.411
26.70000 4.617
26.72000 9.504
26.74000 5.882
26.76000 0.470
26.78000 0.302
26.80000 0.082
26.82000 0.286
26.84000 6.622
26.86000 1.563
26.88000 0.550
26.90000 3.726
26.92000 -0.498
26.94000 -1.310
26.96000 -2.188
26.98000 -1.951
27.00000 -0.362
27.02000 0.903
27.04000 4.684
27.06000 1.599
27.08000 2.159
27.10000 2.669
27.12000 4.550
27.14000 9.085
27.16000 5.997
27.18000 5.571
27.20000 -1.473
27.22000 -3.825
27.24000 2.609
27.26000 3.565
27.28000 0.461
27.30000 0.107
27.32000 3.113
27.34000 5.934
27.36000 4.588
27.38000 2.907
27.40000 1.475
27.42000 3.278
27.44000 2.222
27.46000 -3.158
27.48000 1.385
27.50000 2.560
27.52000 4.831
27.54000 7.588
27.56000 3.986
27.58000 5.768
27.60000 9.381
27.62000 7.870
27.64000 2.474
27.66000 7.082
27.68000 6.493
27.70000 1.893
27.72000 2.604
27.74000 6.798
27.76000 5.510
27.78000 5.730
27.80000 2.389
27.82000 1.005
27.84000 0.346
27.86000 6.059
27.88000 1.910
27.90000 -3.685
27.92000 -0.470
27.94000 0.999
27.96000 3.667
27.98000 2.221
28.00000 1.548
28.02000 2.791
28.04000 5.699
28.06000 5.903
28.08000 4.319
28.10000 2.390
28.12000 -3.097
28.14000 -3.767
28.16000 -0.545
28.18000 -1.247
28.20000 2.765
28.22000 4.743
28.24000 0.940
28.26000 -1.944
28.28000 3.423
28.30000 2.548
28.32000 1.165
28.34000 0.806
28.36000 3.586
28.38000 2.727
28.40000 -0.614
28.42000 1.342
28.44000 3.537
28.46000 7.918
28.48000 3.640
28.50000 -0.960
28.52000 2.493
28.54000 5.100
28.56000 6.841
28.58000 8.957
28.60000 8.095
28.62000 5.502
28.64000 -1.320
28.66000 -0.535
28.68000 3.575
28.70000 5.331
28.72000 -0.219
28.74000 6.753
28.76000 10.960
28.78000 5.248
28.80000 2.008
28.82000 5.643
28.84000 9.020
28.86000 7.449
28.88000 2.931
28.90000 0.926
28.92000 3.770
28.94000 4.168
28.96000 6.381
28.98000 2.935
29.00000 3.633
29.02000 6.196
29.04000 7.111
29.06000 6.233
29.08000 2.169
29.10000 0.699
29.12000 -0.370
29.14000 -3.681
29.16000 6.362
29.18000 4.882
29.20000 1.183
29.22000 5.607
29.24000 8.088
29.26000 3.123
29.28000 3.552
29.30000 3.803
29.32000 6.485
29.34000 7.956
29.36000 8.039
29.38000 2.845
29.40000 3.378
29.42000 -0.371
29.44000 2.333
29.46000 -2.117
29.48000 2.345
29.50000 10.921
29.52000 7.760
29.54000 6.614
29.56000 4.641
29.58000 6.548
29.60000 4.608
29.62000 0.160
29.64000 -0.531
29.66000 3.339
29.68000 -2.535
29.70000 -2.867
29.72000 1.912
29.74000 0.223
29.76000 1.743
29.78000 6.850
29.80000 6.941
29.82000 3.527
29.84000 3.025
29.86000 -0.908
29.88000 1.352
29.90000 0.758
29.92000 1.182
29.94000 5.547
29.96000 4.467
29.98000 6.071
30.00000 5.503
30.02000 1.576
30.04000 3.576
30.06000 3.922
30.08000 5.651
30.10000 4.517
30.12000 5.295
30.14000 -3.645
30.16000 -3.108
30.18000 0.924
30.20000 3.746
30.22000 3.039
30.24000 2.233
30.26000 5.591
30.28000 6.946
30.30000 10.472
30.32000 8.477
30.34000 4.279
30.36000 8.506
30.38000 7.208
30.40000 3.136
30.42000 3.483
30.44000 0.204
30.46000 -0.456
30.48000 4.332
30.50000 3.830
30.52000 2.227
30.54000 1.013
30.56000 -1.633
30.58000 1.335
30.60000 7.696
30.62000 5.346
30.64000 2.393
30.66000 2.566
30.68000 2.250
30.70000 8.142
30.72000 7.521
30.74000 3.025
30.76000 0.117
30.78000 2.097
30.80000 2.301
30.82000 3.860
30.84000 8.177
30.86000 3.628
30.88000 2.338
30.90000 3.830
30.92000 4.260
30.94000 2.889
30.96000 -2.770
30.98000 -3.057
31.00000 4.047
31.02000 6.139
31.04000 9.121
31.06000 4.962
31.08000 2.630
31.10000 -3.232
31.12000 -0.780
31.14000 -3.600
31.16000 -3.248
31.18000 1.299
31.20000 5.418
31.22000 5.106
31.24000 5.222
31.26000 6.361
31.28000 5.365
31.30000 3.756
31.32000 5.403
31.34000 -0.557
31.36000 -0.968
31.38000 2.035
31.40000 1.895
31.42000 5.423
31.44000 11.868
31.46000 7.691
31.48000 -0.132
31.50000 -3.589
31.52000 3.394
31.54000 10.401
31.56000 7.193
31.58000 2.621
31.60000 0.464
31.62000 -1.573
31.64000 7.374
31.66000 7.695
31.68000 3.918
31.70000 4.751
31.72000 5.279
31.74000 7.557
31.76000 5.762
31.78000 1.707
31.80000 1.398
31.82000 1.079
31.84000 3.520
31.86000 1.518
31.88000 2.890
31.90000 5.958
31.92000 1.905
31.94000 0.171
31.96000 1.671
31.98000 0.161
32.00000 -3.575
32.02000 4.963
32.04000 5.350
32.06000 1.138
32.08000 5.496
32.10000 5.635
32.12000 2.344
32.14000 1.456
32.16000 2.446
32.18000 3.035
32.20000 3.058
32.22000 7.102
32.24000 6.788
32.26000 5.594
32.28000 10.345
32.30000 7.689
32.32000 3.676
32.34000 1.204
32.36000 0.472
32.38000 -0.337
32.40000 3.081
32.42000 6.695
32.44000 6.033
32.46000 0.092
32.48000 -3.559
32.50000 -0.864
32.52000 -0.637
32.54000 1.348
32.56000 2.884
32.58000 2.978
32.60000 2.789
32.62000 5.316
32.64000 5.462
32.66000 1.065
32.68000 -1.003
32.70000 -0.464
32.72000 -0.961
32.74000 0.009
32.76000 4.422
32.78000 1.924
32.80000 0.573
32.82000 -1.610
32.84000 2.759
32.86000 0.019
32.88000 -1.439
32.90000 -0.176
32.92000 0.481
32.94000 3.099
32.96000 0.345
32.98000 0.897
33.00000 1.922
33.02000 -0.456
33.04000 -0.642
33.06000 -0.722
33.08000 3.138
33.10000 5.751
33.12000 4.010
33.14000 2.962
33.16000 -1.151
33.18000 0.507
33.20000 3.021
33.22000 4.993
33.24000 4.764
33.26000 2.526
33.28000 1.884
33.30000 -3.543
33.32000 -0.007
33.34000 5.219
33.36000 0.781
33.38000 2.209
33.40000 5.969
33.42000 5.497
33.44000 -0.576
33.46000 -0.016
33.48000 2.894
33.50000 2.377
33.52000 2.044
33.54000 1.466
33.56000 3.044
33.58000 0.217
33.60000 4.897
33.62000 7.282
33.64000 9.345
33.66000 5.183
33.68000 4.057
33.70000 1.682
33.72000 -2.136
33.74000 -0.219
33.76000 -1.380
33.78000 1.742
33.80000 1.226
33.82000 0.676
33.84000 1.130
33.86000 2.431
33.88000 3.065
33.90000 -0.313
33.92000 1.727
33.94000 4.433
33.96000 0.449
33.98000 2.836
34.00000 1.470
34.02000 4.214
34.04000 3.172
34.06000 4.016
34.08000 -1.347
34.10000 -3.544
34.12000 0.838
34.14000 -0.759
34.16000 5.926
34.18000 4.456
34.20000 -3.543
34.22000 -2.010
34.24000 -0.960
34.26000 4.703
34.28000 4.199
34.30000 6.314
34.32000 2.383
34.34000 1.229
34.36000 3.130
34.38000 2.204
34.40000 -3.364
34.42000 0.483
34.44000 -0.700
34.46000 -3.204
34.48000 -0.883
34.50000 -1.047
34.52000 0.783
34.54000 5.354
34.56000 2.454
34.58000 4.326
34.60000 3.844
34.62000 4.174
34.64000 -2.110
34.66000 1.536
34.68000 2.167
34.70000 1.982
34.72000 -1.296
34.74000 -0.827
34.76000 -0.975
34.78000 -0.452
34.80000 -1.559
34.82000 2.116
34.84000 2.857
34.86000 -0.404
34.88000 0.875
34.90000 -0.386
34.92000 2.736
34.94000 2.068
34.96000 2.489
34.98000 2.064
35.00000 -1.643
35.02000 -1.571
35.04000 -3.476
35.06000 -3.512
35.08000 -1.693
35.10000 2.566
35.12000 0.874
35.14000 0.784
35.16000 1.319
35.18000 2.695
35.20000 3.252
35.22000 -3.212
35.24000 -3.499
35.26000 -3.081
35.28000 1.890
35.30000 1.879
35.32000 -2.812
35.34000 2.219
35.36000 4.474
35.38000 5.014
35.40000 4.057
35.42000 -3.108
35.44000 -1.112
35.46000 -2.356
35.48000 -3.489
35.50000 -2.341
35.52000 4.630
35.54000 3.202
35.56000 -0.522
35.58000 2.129
35.60000 2.241
35.62000 1.852
35.64000 0.355
35.66000 2.046
35.68000 4.051
35.70000 0.425
35.72000 2.634
35.74000 -0.069
35.76000 -3.463
35.78000 -1.625
35.80000 3.050
35.82000 4.844
35.84000 5.820
35.86000 5.459
35.88000 0.832
35.90000 0.612
35.92000 0.053
35.94000 2.119
35.96000 9.618
35.98000 5.357
36.00000 1.683
36.02000 -2.845
36.04000 0.801
36.06000 2.062
36.08000 1.965
36.10000 0.492
36.12000 3.584
36.14000 -0.743
36.16000 -3.523
36.18000 0.110
36.20000 0.892
36.22000 -3.170
36.24000 0.154
36.26000 3.438
36.28000 2.587
36.30000 1.543
36.32000 0.971
36.34000 0.729
36.36000 1.482
36.38000 0.102
36.40000 -0.941
36.42000 2.285
36.44000 3.321
36.46000 -0.072
36.48000 -0.482
36.50000 2.254
36.52000 -1.067
36.54000 -0.367
36.56000 3.615
36.58000 2.423
36.60000 -1.384
36.62000 1.375
36.64000 6.106
36.66000 1.641
36.68000 -0.709
36.70000 0.342
36.72000 5.128
36.74000 3.408
36.76000 3.276
36.78000 0.249
36.80000 -1.087
36.82000 -0.967
36.84000 -2.898
36.86000 -3.532
36.88000 1.000
36.90000 5.108
36.92000 2.754
36.94000 -0.055
36.96000 -3.534
36.98000 -1.943
37.00000 1.755
37.02000 -2.232
37.04000 -1.548
37.06000 1.943
37.08000 3.614
37.10000 5.033
37.12000 -0.908
37.14000 -3.536
37.16000 5.029
37.18000 1.406
37.20000 1.535
37.22000 -1.252
37.24000 -3.195
37.26000 5.084
37.28000 4.742
37.30000 3.175
37.32000 7.296
37.34000 5.783
37.36000 -1.050
37.38000 1.551
37.40000 0.516
37.42000 2.688
37.44000 3.766
37.46000 1.160
37.48000 -1.233
37.50000 1.478
37.52000 3.099
37.54000 5.829
37.56000 3.287
37.58000 -0.146
37.60000 -0.083
37.62000 -3.602
37.64000 -0.777
37.66000 -0.907
37.68000 -0.435
37.70000 1.345
37.72000 3.433
37.74000 2.461
37.76000 0.374
37.78000 3.044
37.80000 4.424
37.82000 4.049
37.84000 6.828
37.86000 6.491
37.88000 2.936
37.90000 3.836
37.92000 4.572
37.94000 5.372
37.96000 8.223
37.98000 7.396
38.00000 8.429
38.02000 5.142
38.04000 8.108
38.06000 14.089
38.08000 12.417
38.10000 9.997
38.12000 11.666
38.14000 14.644
38.16000 10.559
38.18000 11.741
38.20000 12.069
38.22000 13.553
38.24000 14.817
38.26000 17.628
38.28000 18.341
38.30000 16.674
38.32000 13.289
38.34000 15.661
38.36000 19.873
38.38000 18.746
38.40000 18.014
38.42000 19.945
38.44000 15.617
38.46000 15.573
38.48000 22.727
38.50000 27.968
38.52000 26.232
38.54000 24.284
38.56000 18.273
38.58000 18.834
38.60000 25.525
38.62000 29.281
38.64000 26.776
38.66000 22.329
38.68000 21.163
38.70000 25.367
38.72000 26.675
38.74000 30.674
38.76000 28.824
38.78000 30.040
38.80000 35.000
38.82000 32.605
38.84000 34.294
38.86000 33.196
38.88000 35.281
38.90000 40.364
38.92000 40.892
38.94000 41.378
38.96000 43.395
38.98000 50.123
39.00000 44.716
39.02000 48.457
39.04000 52.019
39.06000 55.212
39.08000 59.077
39.10000 56.614
39.12000 59.403
39.14000 65.854
39.16000 65.391
39.18000 67.893
39.20000 69.886
39.22000 75.561
39.24000 73.429
39.26000 79.385
39.28000 84.064
39.30000 92.498
39.32000 94.713
39.34000 99.265
39.36000 102.474
39.38000 104.621
39.40000 108.632
39.42000 117.813
39.44000 127.587
39.46000 134.379
39.48000 136.286
39.50000 139.519
39.52000 155.415
39.54000 168.982
39.56000 170.427
39.58000 178.133
39.60000 186.323
39.62000 195.323
39.64000 207.686
39.66000 218.764
39.68000 235.176
39.70000 251.026
39.72000 264.767
39.74000 279.658
39.76000 298.638
39.78000 310.221
39.80000 327.233
39.82000 346.225
39.84000 378.198
39.86000 405.942
39.88000 427.400
39.90000 460.623
39.92000 482.680
39.94000 510.478
39.96000 541.204
39.98000 572.957
40.00000 600.958
40.02000 637.536
40.04000 670.266
40.06000 712.397
40.08000 750.188
40.10000 783.243
40.12000 810.252
40.14000 841.446
40.16000 854.934
40.18000 881.020
40.20000 902.846
40.22000 926.969
40.24000 948.671
40.26000 961.735
40.28000 971.789
40.30000 961.138
40.32000 963.311
40.34000 962.179
40.36000 956.932
40.38000 945.383
40.40000 949.133
40.42000 939.204
40.44000 926.359
40.46000 904.640
40.48000 887.110
40.50000 853.744
40.52000 822.611
40.54000 805.186
40.56000 775.624
40.58000 742.460
40.60000 722.727
40.62000 696.087
40.64000 656.325
40.66000 629.507
40.68000 591.984
40.70000 570.436
40.72000 546.566
40.74000 521.739
40.76000 490.965
40.78000 467.882
40.80000 443.210
40.82000 416.923
40.84000 390.145
40.86000 372.709
40.88000 355.839
40.90000 329.257
40.92000 304.345
40.94000 296.714
40.96000 283.810
40.98000 262.621
41.00000 247.788
41.02000 239.451
41.04000 226.655
41.06000 205.702
41.08000 196.090
41.10000 184.239
41.12000 168.699
41.14000 161.283
41.16000 157.487
41.18000 147.672
41.20000 141.780
41.22000 129.829
41.24000 123.287
41.26000 117.390
41.28000 111.472
41.30000 106.258
41.32000 96.187
41.34000 92.328
41.36000 90.678
41.38000 84.636
41.40000 80.403
41.42000 77.465
41.44000 77.577
41.46000 72.833
41.48000 66.054
41.50000 57.128
41.52000 53.098
41.54000 52.118
41.56000 54.942
41.58000 51.604
41.60000 49.465
41.62000 46.425
41.64000 41.560
41.66000 39.571
41.68000 36.157
41.70000 34.836
41.72000 35.793
41.74000 37.124
41.76000 36.484
41.78000 27.253
41.80000 24.673
41.82000 29.582
41.84000 27.838
41.86000 25.593
41.88000 25.052
41.90000 22.175
41.92000 21.891
41.94000 22.569
41.96000 20.543
41.98000 14.002
42.00000 19.201
42.02000 18.659
42.04000 14.713
42.06000 12.070
42.08000 14.319
42.10000 13.159
42.12000 12.562
42.14000 9.584
42.16000 14.481
42.18000 14.040
42.20000 15.858
42.22000 8.135
42.24000 8.419
42.26000 8.747
42.28000 10.097
42.30000 9.839
42.32000 12.021
42.34000 10.334
42.36000 5.585
42.38000 8.529
42.40000 8.247
42.42000 2.721
42.44000 4.531
42.46000 7.602
42.48000 6.948
42.50000 2.644
42.52000 2.296
42.54000 0.672
42.56000 3.388
42.58000 3.528
42.60000 4.673
42.62000 0.662
42.64000 -1.001
42.66000 0.691
42.68000 1.141
42.70000 1.356
42.72000 -0.686
42.74000 2.572
42.76000 2.561
42.78000 -1.621
42.80000 -1.064
42.82000 0.014
42.84000 3.317
42.86000 0.881
42.88000 -3.359
42.90000 -3.301
42.92000 4.638
42.94000 5.719
42.96000 4.495
42.98000 2.748
43.00000 -1.409
43.02000 0.513
43.04000 3.175
43.06000 0.102
43.08000 -2.573
43.10000 0.144
43.12000 2.172
43.14000 -0.558
43.16000 -0.232
43.18000 -3.455
43.20000 -0.429
43.22000 -0.463
43.24000 0.713
43.26000 3.508
43.28000 3.002
43.30000 2.288
43.32000 0.703
43.34000 0.475
43.36000 -3.420
43.38000 -2.988
43.40000 -0.242
43.42000 4.849
43.44000 2.065
43.46000 1.396
43.48000 5.586
43.50000 8.248
43.52000 6.793
43.54000 4.262
43.56000 2.415
43.58000 2.332
43.60000 0.610
43.62000 -0.194
43.64000 0.168
43.66000 -0.113
43.68000 6.567
43.70000 4.649
43.72000 5.844
43.74000 3.225
43.76000 -0.746
43.78000 -3.340
43.80000 1.005
43.82000 4.426
43.84000 5.089
43.86000 -2.031
43.88000 -1.170
43.90000 2.594
43.92000 -1.013
43.94000 -1.669
43.96000 0.486
43.98000 0.867
44.00000 -3.222
44.02000 -1.116
44.04000 0.129
44.06000 2.271
44.08000 3.486
44.10000 3.339
44.12000 1.871
44.14000 1.359
44.16000 1.564
44.18000 0.834
44.20000 -0.454
44.22000 1.573
44.24000 0.231
44.26000 -0.477
44.28000 0.253
44.30000 1.901
44.32000 1.297
44.34000 0.169
44.36000 0.933
44.38000 -0.065
44.40000 0.515
44.42000 0.712
44.44000 2.583
44.46000 1.455
44.48000 -0.090
44.50000 2.742
44.52000 2.108
44.54000 2.731
44.56000 2.983
44.58000 2.344
44.60000 -2.464
44.62000 -2.841
44.64000 0.466
44.66000 3.147
44.68000 1.197
44.70000 -3.331
44.72000 2.900
44.74000 1.927
44.76000 -1.086
44.78000 3.136
44.80000 6.831
44.82000 6.064
44.84000 1.654
44.86000 0.902
44.88000 0.293
44.90000 -1.946
44.92000 -0.573
44.94000 -1.719
44.96000 -0.144
44.98000 6.002
45.00000 -1.775
45.02000 -2.380
45.04000 5.605
45.06000 4.586
45.08000 4.598
45.10000 7.295
45.12000 5.302
45.14000 2.491
45.16000 -0.308
45.18000 -0.294
45.20000 -1.941
45.22000 3.379
45.24000 4.587
45.26000 3.687
45.28000 5.950
45.30000 6.283
45.32000 3.670
45.34000 0.945
45.36000 7.243
45.38000 6.880
45.40000 3.213
45.42000 4.757
45.44000 11.383
45.46000 12.059
45.48000 8.623
45.50000 11.071
45.52000 9.798
45.54000 10.012
45.56000 6.954
45.58000 9.607
45.60000 11.387
45.62000 13.601
45.64000 16.041
45.66000 19.106
45.68000 18.753
45.70000 15.769
45.72000 17.797
45.74000 17.727
45.76000 22.331
45.78000 21.288
45.80000 20.180
45.82000 21.104
45.84000 23.198
45.86000 23.714
45.88000 23.802
45.90000 35.565
45.92000 36.850
45.94000 33.391
45.96000 34.533
45.98000 34.579
46.00000 35.156
46.02000 37.962
46.04000 46.799
46.06000 43.865
46.08000 42.142
46.10000 41.987
46.12000 46.458
46.14000 53.645
46.16000 57.015
46.18000 59.911
46.20000 54.251
46.22000 55.231
46.24000 58.095
46.26000 64.631
46.28000 71.573
46.30000 74.771
46.32000 81.995
46.34000 87.172
46.36000 86.131
46.38000 84.760
46.40000 88.667
46.42000 90.777
46.44000 101.878
46.46000 108.654
46.48000 109.669
46.50000 115.283
46.52000 113.230
46.54000 114.589
46.56000 118.666
46.58000 127.663
46.60000 132.121
46.62000 134.861
46.64000 140.246
46.66000 143.949
46.68000 149.112
46.70000 152.356
46.72000 160.138
46.74000 168.414
46.76000 171.772
46.78000 170.978
46.80000 168.576
46.82000 168.154
46.84000 175.626
46.86000 180.281
46.88000 179.668
46.90000 181.798
46.92000 187.387
46.94000 177.719
46.96000 185.103
46.98000 179.914
47.00000 183.674
47.02000 187.594
47.04000 186.858
47.06000 181.507
47.08000 177.690
47.10000 176.138
47.12000 169.538
47.14000 169.604
47.16000 162.232
47.18000 156.661
47.20000 155.928
47.22000 156.203
47.24000 147.904
47.26000 137.304
47.28000 136.631
47.30000 128.395
47.32000 125.953
47.34000 119.149
47.36000 113.399
47.38000 111.855
47.40000 106.116
47.42000 97.085
47.44000 98.049
47.46000 94.049
47.48000 83.271
47.50000 78.849
47.52000 71.323
47.54000 66.800
47.56000 69.711
47.58000 64.136
47.60000 62.764
47.62000 59.439
47.64000 52.411
47.66000 47.439
47.68000 46.314
47.70000 41.523
47.72000 45.907
47.74000 42.977
47.76000 36.581
47.78000 39.282
47.80000 37.094
47.82000 29.077
47.84000 30.555
47.86000 32.709
47.88000 24.996
47.90000 27.076
47.92000 26.073
47.94000 22.180
47.96000 21.368
47.98000 16.063
48.00000 14.186
48.02000 16.824
48.04000 15.590
48.06000 8.277
48.08000 12.037
48.10000 12.071
48.12000 12.214
48.14000 11.486
48.16000 8.817
48.18000 4.612
48.20000 5.618
48.22000 6.782
48.24000 5.085
48.26000 6.807
48.28000 6.751
48.30000 8.684
48.32000 4.935
48.34000 4.165
48.36000 5.181
48.38000 4.686
48.40000 7.987
48.42000 5.771
48.44000 -2.085
48.46000 -0.296
48.48000 0.358
48.50000 3.420
48.52000 3.848
48.54000 4.686
48.56000 6.642
48.58000 5.023
48.60000 0.979
48.62000 2.706
48.64000 4.049
48.66000 -0.354
48.68000 2.664
48.70000 1.849
48.72000 3.134
48.74000 0.513
48.76000 -0.316
48.78000 1.535
48.80000 0.538
48.82000 0.498
48.84000 1.280
48.86000 5.314
48.88000 0.476
48.90000 0.212
48.92000 3.914
48.94000 3.905
48.96000 3.188
48.98000 0.278
49.00000 1.446
49.02000 0.537
49.04000 1.497
49.06000 3.313
49.08000 4.717
49.10000 4.463
49.12000 3.183
49.14000 6.689
49.16000 4.733
49.18000 2.533
49.20000 -0.431
49.22000 -2.795
49.24000 0.257
49.26000 1.251
49.28000 -0.180
49.30000 1.370
49.32000 4.677
49.34000 2.745
49.36000 3.542
49.38000 1.664
49.40000 -0.172
49.42000 2.019
49.44000 -1.142
49.46000 1.957
49.48000 3.613
49.50000 6.350
49.52000 4.596
49.54000 0.952
49.56000 -1.450
49.58000 4.441
49.60000 4.173
49.62000 1.135
49.64000 1.263
49.66000 0.076
49.68000 2.205
49.70000 2.150
49.72000 -2.752
49.74000 -0.147
49.76000 1.043
49.78000 -0.575
49.80000 -0.305
49.82000 -0.590
49.84000 2.019
49.86000 0.124
49.88000 0.934
49.90000 1.140
49.92000 0.876
49.94000 3.837
49.96000 2.917
49.98000 1.534
50.00000 -0.649
50.02000 -1.960
50.04000 -0.250
50.06000 -1.796
50.08000 0.487
50.10000 -2.332
50.12000 0.507
50.14000 1.321
50.16000 1.440
50.18000 1.904
50.20000 4.626
50.22000 3.599
50.24000 3.374
50.26000 3.070
50.28000 1.748
50.30000 3.310
50.32000 3.309
50.34000 1.363
50.36000 -0.402
50.38000 0.079
50.40000 0.451
50.42000 1.700
50.44000 2.839
50.46000 2.990
50.48000 3.515
50.50000 0.454
50.52000 -2.667
50.54000 -1.614
50.56000 0.975
50.58000 2.262
50.60000 5.810
50.62000 4.879
50.64000 -2.468
50.66000 -2.344
50.68000 -0.900
50.70000 -0.234
50.72000 3.367
50.74000 1.501
50.76000 -2.640
50.78000 1.262
50.80000 1.320
50.82000 -2.562
50.84000 -2.435
50.86000 -0.703
50.88000 -0.186
50.90000 1.851
50.92000 -0.220
50.94000 4.677
50.96000 3.050
50.98000 5.585
51.00000 4.148
51.02000 2.132
51.04000 2.387
51.06000 3.272
51.08000 1.421
51.10000 -0.065
51.12000 3.415
51.14000 2.663
51.16000 4.890
51.18000 3.084
51.20000 2.103
51.22000 2.781
51.24000 2.966
51.26000 -0.300
51.28000 5.285
51.30000 3.288
51.32000 2.239
51.34000 -0.291
51.36000 -2.598
51.38000 -0.778
51.40000 1.410
51.42000 1.198
51.44000 4.230
51.46000 5.380
51.48000 2.767
51.50000 4.219
51.52000 3.605
51.54000 2.485
51.56000 2.363
51.58000 -2.593
51.60000 -1.620
51.62000 3.491
51.64000 5.592
51.66000 3.441
51.68000 8.325
51.70000 10.937
51.72000 4.437
51.74000 2.708
51.76000 1.937
51.78000 6.470
51.80000 4.969
51.82000 4.513
51.84000 5.373
51.86000 4.606
51.88000 6.534
51.90000 12.002
51.92000 6.132
51.94000 1.731
51.96000 -0.520
51.98000 -0.006
52.00000 2.680
52.02000 3.853
52.04000 2.105
52.06000 2.194
52.08000 -0.402
52.10000 1.325
52.12000 2.355
52.14000 0.785
52.16000 2.012
52.18000 4.199
52.20000 8.296
52.22000 6.958
52.24000 1.479
52.26000 -2.584
52.28000 -0.809
52.30000 -0.540
52.32000 -0.725
52.34000 4.352
52.36000 5.172
52.38000 -1.185
52.40000 -1.584
52.42000 1.588
52.44000 5.453
52.46000 8.358
52.48000 4.910
52.50000 1.668
52.52000 0.151
52.54000 4.025
52.56000 -1.278
52.58000 1.044
52.60000 4.243
52.62000 5.433
52.64000 0.167
52.66000 2.874
52.68000 0.467
52.70000 3.531
52.72000 5.123
52.74000 5.437
52.76000 4.259
52.78000 3.868
52.80000 1.720
52.82000 2.718
52.84000 1.924
52.86000 1.830
52.88000 3.857
52.90000 0.162
52.92000 -0.454
52.94000 1.168
52.96000 2.745
52.98000 5.506
53.00000 4.808
53.02000 2.986
53.04000 2.319
53.06000 3.441
53.08000 3.373
53.10000 3.185
53.12000 4.026
53.14000 3.387
53.16000 4.534
53.18000 5.962
53.20000 6.573
53.22000 5.687
53.24000 3.723
53.26000 1.554
53.28000 5.100
53.30000 5.633
53.32000 2.320
53.34000 -2.518
53.36000 0.237
53.38000 1.884
53.40000 0.390
53.42000 4.582
53.44000 5.767
53.46000 6.845
53.48000 5.140
53.50000 4.522
53.52000 5.629
53.54000 5.883
53.56000 3.460
53.58000 2.303
53.60000 3.321
53.62000 2.402
53.64000 4.857
53.66000 8.528
53.68000 8.635
53.70000 2.722
53.72000 2.552
53.74000 4.236
53.76000 3.869
53.78000 0.066
53.80000 0.561
53.82000 1.858
53.84000 3.422
53.86000 3.964
53.88000 7.406
53.90000 5.025
53.92000 3.708
53.94000 3.595
53.96000 -0.483
53.98000 0.715
54.00000 1.115
54.02000 2.345
54.04000 5.365
54.06000 -1.235
54.08000 -2.508
54.10000 -0.276
54.12000 1.172
54.14000 3.068
54.16000 2.657
54.18000 1.205
54.20000 1.934
54.22000 3.877
54.24000 0.576
54.26000 1.527
54.28000 0.526
54.30000 2.964
54.32000 3.390
54.34000 1.474
54.36000 4.495
54.38000 2.141
54.40000 2.730
54.42000 4.872
54.44000 3.887
54.46000 1.689
54.48000 1.130
54.50000 -0.902
54.52000 1.120
54.54000 1.876
54.56000 6.051
54.58000 5.206
54.60000 6.026
54.62000 8.750
54.64000 3.029
54.66000 -2.137
54.68000 0.063
54.70000 -0.442
54.72000 2.937
54.74000 0.081
54.76000 1.313
54.78000 0.408
54.80000 7.814
54.82000 5.922
54.84000 2.207
54.86000 0.269
54.88000 -0.102
54.90000 -2.526
54.92000 0.068
54.94000 1.619
54.96000 0.848
54.98000 -2.110
55.00000 -0.701
55.02000 0.604
55.04000 -0.256
55.06000 0.557
55.08000 0.417
55.10000 2.188
55.12000 -1.142
55.14000 -1.443
55.16000 -0.637
55.18000 -1.699
55.20000 -2.307
55.22000 0.118
55.24000 2.391
55.26000 1.885
55.28000 2.448
55.30000 1.491
55.32000 -0.645
55.34000 0.681
55.36000 2.273
55.38000 3.361
55.40000 2.258
55.42000 1.023
55.44000 1.511
55.46000 1.003
55.48000 -2.512
55.50000 -1.698
55.52000 2.399
55.54000 1.082
55.56000 -2.012
55.58000 -1.204
55.60000 2.539
55.62000 3.035
55.64000 4.256
55.66000 2.272
55.68000 -2.102
55.70000 0.392
55.72000 1.090
55.74000 0.640
55.76000 0.762
55.78000 2.444
55.80000 0.914
55.82000 -0.380
55.84000 -0.034
55.86000 0.859
55.88000 1.345
55.90000 3.943
55.92000 -0.152
55.94000 1.736
55.96000 0.541
55.98000 -1.002
56.00000 1.824
56.02000 3.232
56.04000 -2.482
56.06000 1.687
56.08000 -0.815
56.10000 -1.184
56.12000 -1.285
56.14000 -0.916
56.16000 1.031
56.18000 0.337
56.20000 -0.228
56.22000 2.155
56.24000 2.753
56.26000 1.867
56.28000 -0.095
56.30000 0.872
56.32000 2.194
56.34000 3.552
56.36000 -0.068
56.38000 -2.457
56.40000 4.027
56.42000 1.197
56.44000 2.408
56.46000 5.160
56.48000 4.658
56.50000 7.614
56.52000 3.588
56.54000 4.853
56.56000 4.145
56.58000 3.307
56.60000 5.407
56.62000 5.654
56.64000 0.504
56.66000 -0.705
56.68000 0.741
56.70000 3.453
56.72000 2.971
56.74000 -2.348
56.76000 -2.449
56.78000 -0.663
56.80000 3.553
56.82000 5.164
56.84000 0.833
56.86000 5.882
56.88000 6.209
56.90000 0.528
56.92000 0.904
56.94000 6.522
56.96000 4.472
56.98000 2.593
57.00000 0.695
57.02000 0.778
57.04000 2.688
57.06000 4.895
57.08000 4.692
57.10000 4.584
57.12000 1.947
57.14000 2.598
57.16000 2.706
57.18000 4.163
57.20000 2.596
57.22000 3.799
57.24000 1.461
57.26000 0.224
57.28000 1.488
57.30000 -2.189
57.32000 -2.410
57.34000 2.166
57.36000 1.681
57.38000 0.888
57.40000 -2.438
57.42000 -1.389
57.44000 0.531
57.46000 0.204
57.48000 6.311
57.50000 5.007
57.52000 3.841
57.54000 4.570
57.56000 -0.506
57.58000 0.377
57.60000 0.722
57.62000 3.491
57.64000 1.451
57.66000 3.671
57.68000 5.041
57.70000 3.064
57.72000 -0.980
57.74000 0.119
57.76000 2.115
57.78000 2.707
57.80000 2.327
57.82000 0.919
57.84000 -1.966
57.86000 -2.234
57.88000 0.202
57.90000 0.204
57.92000 -2.434
57.94000 0.561
57.96000 3.532
57.98000 -0.185
58.00000 -0.829
58.02000 1.752
58.04000 0.435
58.06000 0.291
58.08000 0.489
58.10000 1.746
58.12000 2.476
58.14000 3.600
58.16000 1.270
58.18000 -0.928
58.20000 -0.322
58.22000 -1.030
58.24000 0.207
58.26000 0.378
58.28000 -2.424
58.30000 -0.416
58.32000 -1.678
58.34000 1.378
58.36000 2.201
58.38000 -0.434
58.40000 2.108
58.42000 3.509
58.44000 -0.141
58.46000 -0.944
58.48000 -2.075
58.50000 1.463
58.52000 2.866
58.54000 1.788
58.56000 1.620
58.58000 0.704
58.60000 -1.300
58.62000 -1.369
58.64000 0.352
58.66000 0.339
58.68000 0.871
58.70000 1.743
58.72000 1.284
58.74000 -0.115
58.76000 -0.760
58.78000 -0.227
58.80000 -1.091
58.82000 -0.165
58.84000 0.108
58.86000 3.495
58.88000 5.261
58.90000 0.983
58.92000 -0.308
58.94000 0.806
58.96000 3.568
58.98000 4.214
59.00000 2.420
59.02000 2.007
59.04000 1.902
59.06000 0.848
59.08000 0.295
59.10000 0.369
59.12000 0.740
59.14000 0.560
59.16000 2.871
59.18000 2.502
59.20000 -0.445
59.22000 -0.768
59.24000 0.773
59.26000 -0.110
59.28000 -0.908
59.30000 -0.865
59.32000 1.384
59.34000 0.669
59.36000 0.814
59.38000 2.241
59.40000 2.795
59.42000 3.037
59.44000 3.673
59.46000 4.593
59.48000 1.650
59.50000 2.076
59.52000 1.327
59.54000 4.340
59.56000 2.051
59.58000 3.251
59.60000 2.974
59.62000 1.456
59.64000 -2.319
59.66000 2.250
59.68000 2.209
59.70000 2.017
59.72000 0.620
59.74000 1.131
59.76000 2.537
59.78000 6.617
59.80000 4.459
59.82000 7.227
59.84000 5.624
59.86000 4.923
59.88000 1.668
59.90000 2.383
59.92000 -0.177
59.94000 1.322
59.96000 1.907
59.98000 3.475
60.00000 4.222
60.02000 2.235
60.04000 -0.072
60.06000 1.409
60.08000 3.316
60.10000 3.802
60.12000 2.823
60.14000 2.738
60.16000 2.188
60.18000 2.812
60.20000 -1.034
60.22000 1.261
60.24000 2.906
60.26000 2.473
60.28000 5.119
60.30000 6.273
60.32000 6.102
60.34000 4.384
60.36000 1.769
60.38000 2.737
60.40000 4.567
60.42000 0.935
60.44000 0.352
60.46000 -0.976
60.48000 -0.734
60.50000 -2.327
60.52000 -0.029
60.54000 0.222
60.56000 -0.204
60.58000 -1.445
60.60000 -0.771
60.62000 2.546
60.64000 6.057
60.66000 4.700
60.68000 6.026
60.70000 2.064
60.72000 1.311
60.74000 1.509
60.76000 2.234
60.78000 4.523
60.80000 6.324
60.82000 4.504
60.84000 3.063
60.86000 1.355
60.88000 0.433
60.90000 0.481
60.92000 2.291
60.94000 1.986
60.96000 3.696
60.98000 7.635
61.00000 6.740
61.02000 5.242
61.04000 2.451
61.06000 2.038
61.08000 3.285
61.10000 6.731
61.12000 2.300
61.14000 -0.150
61.16000 3.519
61.18000 6.408
61.20000 3.385
61.22000 0.749
61.24000 2.405
61.26000 3.504
61.28000 -0.094
61.30000 1.721
61.32000 3.939
61.34000 3.538
61.36000 1.939
61.38000 1.275
61.40000 1.331
61.42000 0.442
61.44000 -2.271
61.46000 -1.415
61.48000 -1.848
61.50000 -0.672
61.52000 0.327
61.54000 1.692
61.56000 1.691
61.58000 0.566
61.60000 2.343
61.62000 4.995
61.64000 3.959
61.66000 3.641
61.68000 3.355
61.70000 0.985
61.72000 1.114
61.74000 1.669
61.76000 5.761
61.78000 2.963
61.80000 3.629
61.82000 2.055
61.84000 2.673
61.86000 -0.034
61.88000 -1.824
61.90000 2.799
61.92000 3.400
61.94000 2.228
61.96000 -0.977
61.98000 1.004
62.00000 3.680
62.02000 3.779
62.04000 2.468
62.06000 3.022
62.08000 1.959
62.10000 3.936
62.12000 0.036
62.14000 -2.030
62.16000 0.139
62.18000 3.081
62.20000 5.526
62.22000 0.527
62.24000 0.649
62.26000 2.283
62.28000 2.169
62.30000 3.409
62.32000 1.591
62.34000 2.733
62.36000 4.181
62.38000 3.491
62.40000 3.353
62.42000 1.678
62.44000 0.283
62.46000 1.105
62.48000 1.198
62.50000 0.989
62.52000 2.529
62.54000 5.631
62.56000 5.340
62.58000 5.485
62.60000 3.131
62.62000 1.209
62.64000 3.404
62.66000 4.721
62.68000 3.706
62.70000 1.066
62.72000 2.551
62.74000 -0.791
62.76000 -2.287
62.78000 0.251
62.80000 3.739
62.82000 1.217
62.84000 0.088
62.86000 0.441
62.88000 0.868
62.90000 1.920
62.92000 1.759
62.94000 0.811
62.96000 0.589
62.98000 3.007
63.00000 3.490
63.02000 -0.248
63.04000 -1.608
63.06000 0.731
63.08000 1.736
63.10000 -2.295
63.12000 -0.877
63.14000 0.234
63.16000 0.779
63.18000 -0.625
63.20000 1.093
63.22000 0.782
63.24000 -1.266
63.26000 -1.171
63.28000 -0.219
63.30000 -0.715
63.32000 -0.170
63.34000 1.787
63.36000 4.119
63.38000 3.731
63.40000 -1.278
63.42000 -0.491
63.44000 -1.742
63.46000 -1.978
63.48000 -0.157
63.50000 0.281
63.52000 -0.682
63.54000 1.465
63.56000 3.005
63.58000 0.835
63.60000 3.010
63.62000 -0.125
63.64000 -0.275
63.66000 -0.006
63.68000 1.735
63.70000 1.264
63.72000 0.555
63.74000 0.226
63.76000 2.160
63.78000 1.303
63.80000 1.222
63.82000 0.304
63.84000 -2.300
63.86000 -1.935
63.88000 -0.705
63.90000 -0.046
63.92000 1.966
63.94000 1.199
63.96000 1.723
63.98000 2.129
64.00000 4.494
64.02000 3.101
64.04000 2.114
64.06000 3.354
64.08000 1.277
64.10000 3.019
64.12000 4.588
64.14000 2.342
64.16000 -1.868
64.18000 -2.291
64.20000 0.971
64.22000 1.801
64.24000 0.023
64.26000 0.113
64.28000 2.713
64.30000 0.486
64.32000 2.113
64.34000 4.664
64.36000 2.435
64.38000 4.640
64.40000 2.591
64.42000 -0.619
64.44000 0.083
64.46000 0.254
64.48000 -1.033
64.50000 -0.911
64.52000 -2.282
64.54000 0.934
64.56000 3.670
64.58000 0.943
64.60000 -0.912
64.62000 1.764
64.64000 1.720
64.66000 -0.021
64.68000 0.588
64.70000 1.906
64.72000 3.238
64.74000 1.839
64.76000 4.033
64.78000 3.522
64.80000 2.632
64.82000 3.315
64.84000 3.204
64.86000 0.884
64.88000 3.037
64.90000 -0.336
64.92000 -1.539
64.94000 -0.897
64.96000 -1.021
64.98000 3.333
65.00000 2.495
65.02000 0.848
65.04000 1.794
65.06000 0.417
65.08000 1.699
65.10000 -2.248
65.12000 -1.659
65.14000 -1.718
65.16000 0.965
65.18000 -0.824
65.20000 -0.924
65.22000 0.614
65.24000 -1.303
65.26000 -1.800
65.28000 0.070
65.30000 0.758
65.32000 1.049
65.34000 0.220
65.36000 -0.362
65.38000 -1.583
65.40000 -0.566
65.42000 -0.506
65.44000 0.495
65.46000 -0.971
65.48000 -1.910
65.50000 1.310
65.52000 1.768
65.54000 1.290
65.56000 -2.303
65.58000 -2.303
65.60000 0.018
65.62000 -0.085
65.64000 0.511
65.66000 2.149
65.68000 -0.521
65.70000 0.304
65.72000 1.555
65.74000 -1.494
65.76000 -2.304
65.78000 -0.424
65.80000 2.223
65.82000 1.459
65.84000 1.931
65.86000 1.067
65.88000 2.214
65.90000 2.368
65.92000 0.613
65.94000 0.065
65.96000 -2.281
65.98000 -1.571
66.00000 -2.255
66.02000 -1.392
66.04000 3.023
66.06000 5.017
66.08000 3.130
66.10000 0.045
66.12000 1.881
66.14000 2.298
66.16000 2.482
66.18000 -1.731
66.20000 -0.107
66.22000 0.039
66.24000 -1.293
66.26000 -0.987
66.28000 2.341
66.30000 0.974
66.32000 1.313
66.34000 4.425
66.36000 2.305
66.38000 0.101
66.40000 -0.421
66.42000 -1.889
66.44000 -1.768
66.46000 0.251
66.48000 -1.072
66.50000 0.022
66.52000 0.116
66.54000 -0.529
66.56000 0.403
66.58000 -1.424
66.60000 0.846
66.62000 2.283
66.64000 0.450
66.66000 -0.316
66.68000 2.139
66.70000 -0.577
66.72000 1.904
66.74000 1.736
66.76000 3.334
66.78000 1.341
66.80000 1.210
66.82000 -2.334
66.84000 2.024
66.86000 3.314
66.88000 1.388
66.90000 -0.734
66.92000 0.271
66.94000 1.172
66.96000 3.507
66.98000 2.000
67.00000 0.903
67.02000 0.618
67.04000 1.198
67.06000 3.553
67.08000 3.457
67.10000 4.810
67.12000 5.298
67.14000 7.494
67.16000 3.295
67.18000 1.110
67.20000 1.185
67.22000 0.797
67.24000 -1.452
67.26000 1.757
67.28000 2.768
67.30000 3.354
67.32000 6.410
67.34000 8.197
67.36000 7.196
67.38000 4.289
67.40000 1.715
67.42000 3.026
67.44000 6.493
67.46000 7.760
67.48000 5.066
67.50000 1.392
67.52000 3.216
67.54000 5.266
67.56000 7.876
67.58000 7.594
67.60000 3.723
67.62000 5.668
67.64000 10.211
67.66000 12.454
67.68000 11.053
67.70000 10.690
67.72000 9.542
67.74000 7.910
67.76000 11.345
67.78000 10.890
67.80000 10.707
67.82000 8.695
67.84000 12.388
67.86000 12.790
67.88000 12.237
67.90000 13.227
67.92000 14.058
67.94000 13.366
67.96000 10.655
67.98000 11.688
68.00000 12.825
68.02000 15.194
68.04000 14.218
68.06000 14.189
68.08000 13.998
68.10000 17.346
68.12000 19.372
68.14000 20.286
68.16000 19.963
68.18000 20.448
68.20000 21.324
68.22000 20.493
68.24000 21.911
68.26000 20.707
68.28000 23.652
68.30000 26.091
68.32000 27.586
68.34000 26.710
68.36000 31.154
68.38000 27.816
68.40000 27.881
68.42000 31.646
68.44000 29.906
68.46000 27.925
68.48000 31.362
68.50000 31.482
68.52000 31.996
68.54000 29.732
68.56000 31.233
68.58000 32.336
68.60000 33.041
68.62000 29.577
68.64000 29.394
68.66000 31.927
68.68000 34.068
68.70000 37.375
68.72000 34.589
68.74000 29.826
68.76000 30.868
68.78000 30.534
68.80000 29.180
68.82000 32.027
68.84000 28.277
68.86000 26.092
68.88000 26.971
68.90000 23.575
68.92000 25.689
68.94000 27.699
68.96000 25.285
68.98000 21.279
69.00000 20.798
69.02000 23.388
69.04000 20.384
69.06000 19.946
69.08000 19.593
69.10000 20.298
69.12000 17.798
69.14000 16.907
69.16000 15.397
69.18000 15.874
69.20000 16.152
69.22000 16.139
69.24000 16.779
69.26000 15.895
69.28000 15.468
69.30000 11.164
69.32000 9.342
69.34000 9.149
69.36000 8.913
69.38000 7.797
69.40000 9.971
69.42000 11.296
69.44000 11.019
69.46000 11.262
69.48000 8.960
69.50000 8.308
69.52000 5.420
69.54000 3.809
69.56000 3.611
69.58000 2.503
69.60000 5.812
69.62000 7.977
69.64000 6.088
69.66000 7.594
69.68000 5.529
69.70000 1.303
69.72000 3.821
69.74000 1.917
69.76000 1.824
69.78000 4.231
69.80000 3.265
69.82000 3.336
69.84000 1.926
69.86000 2.385
69.88000 1.438
69.90000 1.811
69.92000 5.954
69.94000 4.812
69.96000 5.069
69.98000 3.300
70.00000 2.345
70.02000 0.937
70.04000 2.913
70.06000 1.323
70.08000 2.937
70.10000 -2.258
70.12000 -1.857
70.14000 3.300
70.16000 1.675
70.18000 1.948
70.20000 3.093
70.22000 3.400
70.24000 2.682
70.26000 2.646
70.28000 0.000
70.30000 0.778
70.32000 2.274
70.34000 2.804
70.36000 1.198
70.38000 -0.142
70.40000 -0.148
70.42000 1.690
70.44000 0.587
70.46000 -0.581
70.48000 1.179
70.50000 1.988
70.52000 2.164
70.54000 -0.152
70.56000 -1.682
70.58000 -0.015
70.60000 -0.166
70.62000 2.341
70.64000 0.773
70.66000 0.533
70.68000 2.027
70.70000 1.583
70.72000 3.725
70.74000 -0.045
70.76000 -0.808
70.78000 -2.223
70.80000 4.370
70.82000 1.148
70.84000 -0.924
70.86000 2.431
70.88000 4.269
70.90000 0.437
70.92000 1.432
70.94000 2.081
70.96000 2.035
70.98000 3.016
71.00000 1.675
71.02000 1.347
71.04000 2.210
71.06000 4.008
71.08000 3.860
71.10000 3.877
71.12000 2.089
71.14000 -1.166
71.16000 -0.886
71.18000 0.442
71.20000 0.605
71.22000 1.865
71.24000 0.772
71.26000 -1.204
71.28000 0.411
71.30000 0.029
71.32000 2.110
71.34000 3.345
71.36000 3.148
71.38000 2.507
71.40000 1.693
71.42000 1.227
71.44000 -0.508
71.46000 2.175
71.48000 0.171
71.50000 -1.930
71.52000 -2.048
71.54000 0.885
71.56000 -0.366
71.58000 -1.479
71.60000 1.126
71.62000 5.426
71.64000 6.434
71.66000 2.746
71.68000 2.438
71.70000 1.554
71.72000 2.116
71.74000 0.730
71.76000 1.269
71.78000 2.429
71.80000 1.689
71.82000 -2.162
71.84000 1.647
71.86000 4.931
71.88000 3.975
71.90000 0.151
71.92000 -1.790
71.94000 0.974
71.96000 1.992
71.98000 2.754
72.00000 0.427
72.02000 -0.059
72.04000 1.665
72.06000 1.219
72.08000 -0.440
72.10000 3.064
72.12000 3.852
72.14000 2.359
72.16000 1.362
72.18000 6.371
72.20000 4.199
72.22000 3.415
72.24000 -0.153
72.26000 -2.163
72.28000 2.446
72.30000 2.699
72.32000 1.276
72.34000 2.423
72.36000 3.708
72.38000 1.666
72.40000 -1.849
72.42000 0.099
72.44000 -1.747
72.46000 -0.553
72.48000 -0.313
72.50000 1.876
72.52000 3.180
72.54000 -0.205
72.56000 -0.288
72.58000 0.448
72.60000 3.663
72.62000 3.502
72.64000 -0.052
72.66000 2.301
72.68000 -0.924
72.70000 -0.730
72.72000 -1.353
72.74000 -1.698
72.76000 -1.522
72.78000 -1.834
72.80000 0.857
72.82000 0.782
72.84000 -0.945
72.86000 1.954
72.88000 2.292
72.90000 1.394
72.92000 3.886
72.94000 4.711
72.96000 1.411
72.98000 2.144
73.00000 2.436
73.02000 0.675
73.04000 3.844
73.06000 6.094
73.08000 0.165
73.10000 -1.896
73.12000 -1.477
73.14000 -0.173
73.16000 -1.972
73.18000 1.557
73.20000 2.563
73.22000 1.052
73.24000 -1.385
73.26000 -2.119
73.28000 6.280
73.30000 3.471
73.32000 1.224
73.34000 2.957
73.36000 5.743
73.38000 2.398
73.40000 -0.305
73.42000 0.542
73.44000 1.784
73.46000 1.040
73.48000 0.117
73.50000 -2.119
73.52000 0.086
73.54000 1.257
73.56000 2.029
73.58000 0.523
73.60000 4.667
73.62000 4.081
73.64000 4.255
73.66000 7.489
73.68000 5.835
73.70000 4.100
73.72000 3.902
73.74000 4.746
73.76000 5.123
73.78000 2.273
73.80000 -1.879
73.82000 -1.466
73.84000 2.992
73.86000 0.597
73.88000 2.307
73.90000 3.140
73.92000 1.659
73.94000 2.722
73.96000 -2.105
73.98000 0.351
74.00000 1.805
74.02000 0.399
74.04000 0.681
74.06000 -0.224
74.08000 -0.578
74.10000 -0.478
74.12000 0.029
74.14000 2.505
74.16000 4.055
74.18000 1.146
74.20000 0.773
74.22000 0.505
74.24000 1.236
74.26000 0.024
74.28000 2.141
74.30000 4.785
74.32000 2.731
74.34000 2.346
74.36000 -0.249
74.38000 4.724
74.40000 5.849
74.42000 4.133
74.44000 5.704
74.46000 2.146
74.48000 2.651
74.50000 2.572
74.52000 2.198
74.54000 3.964
74.56000 0.838
74.58000 0.737
74.60000 1.075
74.62000 -1.317
74.64000 4.571
74.66000 1.704
74.68000 3.141
74.70000 2.579
74.72000 -1.417
74.74000 1.264
74.76000 1.058
74.78000 0.942
74.80000 -0.334
74.82000 1.729
74.84000 5.947
74.86000 4.958
74.88000 3.894
74.90000 3.377
74.92000 3.572
74.94000 4.078
74.96000 0.146
74.98000 -2.085
75.00000 2.529
75.02000 4.568
75.04000 3.872
75.06000 4.813
75.08000 1.714
75.10000 -0.543
75.12000 0.163
75.14000 -0.203
75.16000 1.932
75.18000 5.234
75.20000 0.906
75.22000 -0.287
75.24000 2.005
75.26000 3.526
75.28000 1.017
75.30000 0.705
75.32000 5.447
75.34000 3.971
75.36000 6.369
75.38000 1.567
75.40000 -2.106
75.42000 4.600
75.44000 1.425
75.46000 1.639
75.48000 0.679
75.50000 3.287
75.52000 1.635
75.54000 3.466
75.56000 4.486
75.58000 5.130
75.60000 3.762
75.62000 -0.478
75.64000 3.229
75.66000 2.079
75.68000 1.402
75.70000 3.977
75.72000 2.745
75.74000 3.794
75.76000 4.059
75.78000 3.058
75.80000 -0.168
75.82000 -0.239
75.84000 -0.852
75.86000 0.050
75.88000 0.938
75.90000 0.167
75.92000 0.632
75.94000 0.890
75.96000 -0.862
75.98000 -2.136
76.00000 1.795
76.02000 3.821
76.04000 1.144
76.06000 1.065
76.08000 2.453
76.10000 -0.737
76.12000 -1.228
76.14000 -1.744
76.16000 1.621
76.18000 5.031
76.20000 1.482
76.22000 1.564
76.24000 3.866
76.26000 3.658
76.28000 1.583
76.30000 0.730
76.32000 0.683
76.34000 1.014
76.36000 -0.598
76.38000 -1.022
76.40000 3.431
76.42000 -0.141
76.44000 2.067
76.46000 5.083
76.48000 2.312
76.50000 0.140
76.52000 -0.705
76.54000 -2.145
76.56000 2.296
76.58000 0.994
76.60000 4.422
76.62000 3.439
76.64000 1.234
76.66000 2.858
76.68000 -0.472
76.70000 1.340
76.72000 2.773
76.74000 3.741
76.76000 0.411
76.78000 0.019
76.80000 0.295
76.82000 1.831
76.84000 -0.466
76.86000 1.080
76.88000 2.217
76.90000 2.145
76.92000 2.479
76.94000 2.992
76.96000 0.870
76.98000 2.103
77.00000 0.376
77.02000 2.454
77.04000 -0.494
77.06000 -0.857
77.08000 2.034
77.10000 1.365
77.12000 2.129
77.14000 4.642
77.16000 2.606
77.18000 1.989
77.20000 2.281
77.22000 2.021
77.24000 4.741
77.26000 1.604
77.28000 1.730
77.30000 2.509
77.32000 5.138
77.34000 2.030
77.36000 2.641
77.38000 6.048
77.40000 5.270
77.42000 1.654
77.44000 -0.447
77.46000 1.839
77.48000 1.297
77.50000 -1.161
77.52000 1.173
77.54000 -2.109
77.56000 -0.854
77.58000 0.794
77.60000 3.599
77.62000 2.624
77.64000 3.426
77.66000 3.262
77.68000 3.472
77.70000 7.288
77.72000 8.774
77.74000 6.057
77.76000 7.740
77.78000 6.578
77.80000 4.684
77.82000 3.712
77.84000 4.710
77.86000 4.879
77.88000 3.531
77.90000 4.308
77.92000 4.618
77.94000 -2.102
77.96000 1.037
77.98000 4.396
78.00000 4.807
78.02000 1.893
78.04000 2.263
78.06000 7.284
78.08000 4.072
78.10000 8.286
78.12000 3.925
78.14000 2.916
78.16000 6.195
78.18000 5.692
78.20000 4.640
78.22000 3.258
78.24000 6.195
78.26000 4.208
78.28000 2.394
78.30000 2.226
78.32000 4.102
78.34000 5.249
78.36000 3.489
78.38000 3.192
78.40000 2.637
78.42000 3.537
78.44000 4.509
78.46000 4.130
78.48000 4.223
78.50000 4.699
78.52000 6.593
78.54000 1.763
78.56000 -0.536
78.58000 0.295
78.60000 1.787
78.62000 4.874
78.64000 0.033
78.66000 -0.315
78.68000 2.068
78.70000 5.802
78.72000 1.345
78.74000 3.215
78.76000 4.042
78.78000 2.039
78.80000 -0.768
78.82000 0.563
78.84000 1.860
78.86000 2.819
78.88000 4.846
78.90000 4.464
78.92000 3.867
78.94000 2.168
78.96000 1.016
78.98000 2.550
79.00000 3.482
79.02000 2.853
79.04000 2.300
79.06000 1.831
79.08000 1.830
79.10000 0.507
79.12000 3.395
79.14000 6.439
79.16000 5.754
79.18000 3.305
79.20000 1.623
79.22000 2.861
79.24000 1.754
79.26000 0.751
79.28000 -0.253
79.30000 -0.275
79.32000 2.515
79.34000 3.527
79.36000 -2.170
79.38000 -1.054
79.40000 2.636
79.42000 2.904
79.44000 0.293
79.46000 3.221
79.48000 0.155
79.50000 -1.029
79.52000 -0.413
79.54000 3.359
79.56000 4.099
79.58000 2.651
79.60000 2.037
79.62000 2.840
79.64000 3.998
79.66000 2.904
79.68000 3.484
79.70000 0.097
79.72000 1.364
79.74000 0.233
79.76000 -1.968
79.78000 1.358
79.80000 2.727
79.82000 -0.044
79.84000 2.932
79.86000 5.442
79.88000 4.116
79.90000 -0.111
79.92000 0.490
79.94000 -2.175
79.96000 -2.214
79.98000 -0.785
80.00000 -0.772
80.02000 -1.032
80.04000 -0.596
80.06000 0.717
80.08000 2.134
80.10000 2.771
80.12000 0.995
80.14000 3.102
80.16000 -1.127
80.18000 1.173
80.20000 -2.225
80.22000 -0.206
80.24000 5.184
80.26000 6.094
80.28000 0.830
80.30000 2.037
80.32000 2.154
80.34000 -1.537
80.36000 3.631
80.38000 3.498
80.40000 1.106
80.42000 -0.883
80.44000 3.328
80.46000 3.708
80.48000 -0.933
80.50000 -1.979
80.52000 -0.337
80.54000 5.324
80.56000 5.320
80.58000 2.172
80.60000 2.543
80.62000 1.765
80.64000 -0.270
80.66000 2.997
80.68000 5.293
80.70000 5.830
80.72000 1.667
80.74000 1.676
80.76000 1.813
80.78000 3.501
80.80000 1.338
80.82000 2.474
80.84000 4.959
80.86000 0.674
80.88000 -2.315
80.90000 -2.313
80.92000 0.354
80.94000 3.966
80.96000 0.793
80.98000 3.065
81.00000 -1.334
81.02000 -0.530
81.04000 0.243
81.06000 -0.931
81.08000 0.406
81.10000 2.071
81.12000 0.732
81.14000 1.568
81.16000 2.672
81.18000 2.910
81.20000 4.286
81.22000 9.977
81.24000 8.134
81.26000 9.357
81.28000 5.322
81.30000 1.738
81.32000 0.780
81.34000 0.565
81.36000 4.195
81.38000 10.342
81.40000 9.753
81.42000 8.334
81.44000 7.709
81.46000 7.989
81.48000 11.293
81.50000 8.607
81.52000 8.094
81.54000 9.370
81.56000 8.631
81.58000 7.906
81.60000 10.833
81.62000 12.431
81.64000 10.407
81.66000 11.817
81.68000 12.900
81.70000 11.562
81.72000 10.807
81.74000 13.620
81.76000 13.794
81.78000 16.217
81.80000 16.093
81.82000 18.670
81.84000 14.560
81.86000 16.988
81.88000 18.212
81.90000 17.507
81.92000 21.716
81.94000 23.048
81.96000 20.019
81.98000 14.923
82.00000 18.841
82.02000 23.599
82.04000 22.791
82.06000 21.832
82.08000 22.097
82.10000 21.421
82.12000 22.096
82.14000 25.862
82.16000 27.977
82.18000 25.445
82.20000 22.496
82.22000 24.714
82.24000 29.344
82.26000 27.662
82.28000 28.445
82.30000 29.130
82.32000 29.392
82.34000 31.558
82.36000 33.756
82.38000 34.214
82.40000 33.109
82.42000 36.261
82.44000 38.047
82.46000 38.670
82.48000 34.623
82.50000 40.580
82.52000 41.684
82.54000 41.629
82.56000 40.334
82.58000 42.027
82.60000 44.464
82.62000 43.632
82.64000 42.681
82.66000 45.420
82.68000 41.924
82.70000 49.097
82.72000 50.761
82.74000 47.622
82.76000 47.162
82.78000 46.373
82.80000 47.480
82.82000 52.915
82.84000 51.413
82.86000 45.807
82.88000 46.817
82.90000 51.545
82.92000 49.417
82.94000 48.426
82.96000 49.263
82.98000 49.232
83.00000 44.584
83.02000 48.597
83.04000 47.961
83.06000 39.217
83.08000 36.692
83.10000 35.093
83.12000 33.547
83.14000 34.383
83.16000 38.067
83.18000 38.241
83.20000 30.994
83.22000 24.624
83.24000 31.200
83.26000 32.461
83.28000 34.318
83.30000 34.993
83.32000 26.870
83.34000 28.781
83.36000 29.515
83.38000 25.041
83.40000 23.138
83.42000 25.650
83.44000 26.499
83.46000 23.543
83.48000 19.078
83.50000 21.836
83.52000 21.518
83.54000 20.551
83.56000 17.804
83.58000 18.533
83.60000 18.343
83.62000 19.459
83.64000 14.714
83.66000 13.076
83.68000 13.511
83.70000 10.262
83.72000 11.987
83.74000 14.161
83.76000 11.916
83.78000 9.561
83.80000 7.566
83.82000 11.192
83.84000 10.341
83.86000 7.415
83.88000 12.773
83.90000 15.005
83.92000 13.250
83.94000 10.861
83.96000 11.602
83.98000 8.026
84.00000 6.335
84.02000 2.495
84.04000 4.510
84.06000 9.752
84.08000 7.863
84.10000 5.210
84.12000 5.048
84.14000 4.705
84.16000 6.068
84.18000 6.310
84.20000 5.661
84.22000 3.783
84.24000 3.280
84.26000 0.777
84.28000 3.433
84.30000 6.991
84.32000 7.086
84.34000 4.420
84.36000 3.404
84.38000 2.992
84.40000 3.749
84.42000 3.006
84.44000 1.594
84.46000 -2.255
84.48000 -0.337
84.50000 -1.696
84.52000 0.949
84.54000 3.624
84.56000 1.860
84.58000 5.722
84.60000 9.589
84.62000 8.693
84.64000 3.874
84.66000 2.035
84.68000 2.436
84.70000 2.119
84.72000 5.671
84.74000 1.941
84.76000 3.745
84.78000 4.786
84.80000 1.122
84.82000 3.034
84.84000 0.795
84.86000 1.279
84.88000 1.240
84.90000 0.952
84.92000 2.126
84.94000 7.202
84.96000 3.199
84.98000 2.385
85.00000 -0.234
85.02000 0.725
85.04000 1.988
85.06000 1.006
85.08000 -1.955
85.10000 0.731
85.12000 -0.377
85.14000 -2.242
85.16000 -0.702
85.18000 0.775
85.20000 2.323
85.22000 2.215
85.24000 4.833
85.26000 5.641
85.28000 -1.152
85.30000 0.406
85.32000 5.199
85.34000 0.483
85.36000 2.778
85.38000 -0.398
85.40000 -0.503
85.42000 2.350
85.44000 2.458
85.46000 -1.490
85.48000 0.470
85.50000 0.956
85.52000 1.400
85.54000 0.605
85.56000 -0.691
85.58000 0.326
85.60000 2.888
85.62000 -1.439
85.64000 -1.790
85.66000 -0.815
85.68000 0.834
85.70000 1.198
85.72000 2.310
85.74000 -0.968
85.76000 1.264
85.78000 0.211
85.80000 0.985
85.82000 1.369
85.84000 4.358
85.86000 3.625
85.88000 0.636
85.90000 2.719
85.92000 1.217
85.94000 0.285
85.96000 5.447
85.98000 4.532
86.00000 1.648
86.02000 2.914
86.04000 3.774
86.06000 1.456
86.08000 2.024
86.10000 2.951
86.12000 6.145
86.14000 8.476
86.16000 2.086
86.18000 0.634
86.20000 1.648
86.22000 6.235
86.24000 7.539
86.26000 7.369
86.28000 6.430
86.30000 5.800
86.32000 4.766
86.34000 5.567
86.36000 5.588
86.38000 5.635
86.40000 7.767
86.42000 13.112
86.44000 14.462
86.46000 14.203
86.48000 12.758
86.50000 15.172
86.52000 18.653
86.54000 13.407
86.56000 11.905
86.58000 15.129
86.60000 18.172
86.62000 19.344
86.64000 17.056
86.66000 18.482
86.68000 17.073
86.70000 18.291
86.72000 20.628
86.74000 23.637
86.76000 22.252
86.78000 25.726
86.80000 25.230
86.82000 23.981
86.84000 27.473
86.86000 24.374
86.88000 25.403
86.90000 26.910
86.92000 28.382
86.94000 26.741
86.96000 36.369
86.98000 38.340
87.00000 31.301
87.02000 27.763
87.04000 27.252
87.06000 26.972
87.08000 25.316
87.10000 27.452
87.12000 32.568
87.14000 31.601
87.16000 34.771
87.18000 37.326
87.20000 34.116
87.22000 34.742
87.24000 34.476
87.26000 36.646
87.28000 31.296
87.30000 37.795
87.32000 36.222
87.34000 31.453
87.36000 29.932
87.38000 21.969
87.40000 23.775
87.42000 21.565
87.44000 24.546
87.46000 24.393
87.48000 22.364
87.50000 23.583
87.52000 25.073
87.54000 21.974
87.56000 18.789
87.58000 21.340
87.60000 22.525
87.62000 19.287
87.64000 15.607
87.66000 15.317
87.68000 14.210
87.70000 13.543
87.72000 15.631
87.74000 16.370
87.76000 12.547
87.78000 13.589
87.80000 12.354
87.82000 10.042
87.84000 8.928
87.86000 9.538
87.88000 12.004
87.90000 13.531
87.92000 8.371
87.94000 9.513
87.96000 16.092
87.98000 12.953
88.00000 9.203
88.02000 8.636
88.04000 5.288
88.06000 4.024
88.08000 0.591
88.10000 5.247
88.12000 6.404
88.14000 3.366
88.16000 5.808
88.18000 5.816
88.20000 6.947
88.22000 5.037
88.24000 -0.123
88.26000 -2.224
88.28000 2.564
88.30000 2.963
88.32000 3.270
88.34000 2.761
88.36000 2.798
88.38000 1.077
88.40000 0.504
88.42000 2.862
88.44000 4.112
88.46000 5.274
88.48000 0.263
88.50000 4.190
88.52000 5.261
88.54000 2.428
88.56000 0.475
88.58000 -2.170
88.60000 0.726
88.62000 2.139
88.64000 1.253
88.66000 4.102
88.68000 2.996
88.70000 1.079
88.72000 1.384
88.74000 -0.258
88.76000 0.774
88.78000 1.743
88.80000 0.610
88.82000 2.555
88.84000 -0.999
88.86000 0.439
88.88000 1.610
88.90000 0.351
88.92000 -0.684
88.94000 -0.255
88.96000 -1.479
88.98000 -1.602
89.00000 0.038
89.02000 1.722
89.04000 0.465
89.06000 2.532
89.08000 2.206
89.10000 1.835
89.12000 -0.528
89.14000 -2.023
89.16000 -2.097
89.18000 -1.633
89.20000 1.018
89.22000 2.840
89.24000 1.828
89.26000 -1.843
89.28000 -0.730
89.30000 2.739
89.32000 0.173
89.34000 -1.076
89.36000 7.461
89.38000 3.763
89.40000 1.643
89.42000 -0.793
89.44000 -1.916
89.46000 0.405
89.48000 2.771
89.50000 1.694
89.52000 0.866
89.54000 4.338
89.56000 3.089
89.58000 2.540
89.60000 0.407
89.62000 2.723
89.64000 2.036
89.66000 0.849
89.68000 0.089
89.70000 2.856
89.72000 4.173
89.74000 -2.006
89.76000 0.686
89.78000 5.305
89.80000 7.529
89.82000 6.144
89.84000 -0.650
89.86000 -2.000
89.88000 3.434
89.90000 4.413
89.92000 3.909
89.94000 6.661
89.96000 4.984
89.98000 4.138
90.00000 3.115
90.02000 1.724
90.04000 5.262
90.06000 6.895
90.08000 2.417
90.10000 2.155
90.12000 3.078
90.14000 4.369
90.16000 4.418
90.18000 3.289
90.20000 5.915
90.22000 2.488
90.24000 2.762
90.26000 2.681
90.28000 1.056
90.30000 1.454
90.32000 5.142
90.34000 4.090
90.36000 0.516
90.38000 0.327
90.40000 0.708
90.42000 -0.439
90.44000 0.481
90.46000 5.624
90.48000 8.451
90.50000 5.941
90.52000 5.582
90.54000 5.832
90.56000 3.649
90.58000 1.971
90.60000 3.043
90.62000 4.414
90.64000 0.535
90.66000 -1.978
90.68000 0.166
90.70000 3.911
90.72000 3.243
90.74000 2.374
90.76000 4.514
90.78000 0.482
90.80000 6.322
90.82000 5.937
90.84000 4.536
90.86000 5.408
90.88000 5.367
90.90000 8.004
90.92000 5.132
90.94000 2.287
90.96000 4.738
90.98000 8.344
91.00000 4.119
91.02000 0.271
91.04000 3.560
91.06000 5.852
91.08000 4.677
91.10000 2.173
91.12000 -0.917
91.14000 0.034
91.16000 2.968
91.18000 4.214
91.20000 6.978
91.22000 2.826
91.24000 2.048
91.26000 6.509
91.28000 4.711
91.30000 0.548
91.32000 -1.155
91.34000 5.041
91.36000 4.067
91.38000 3.552
91.40000 -2.009
91.42000 1.648
91.44000 -1.201
91.46000 3.611
91.48000 6.460
91.50000 2.335
91.52000 0.699
91.54000 -0.294
91.56000 -0.999
91.58000 0.446
91.60000 5.131
91.62000 4.765
91.64000 5.467
91.66000 4.287
91.68000 2.204
91.70000 -0.090
91.72000 -1.049
91.74000 1.218
91.76000 -1.025
91.78000 0.160
91.80000 1.803
91.82000 3.506
91.84000 2.453
91.86000 3.923
91.88000 0.556
91.90000 0.596
91.92000 -0.242
91.94000 1.216
91.96000 5.706
91.98000 4.203
92.00000 2.294
92.02000 5.721
92.04000 5.118
92.06000 4.764
92.08000 1.964
92.10000 1.584
92.12000 -0.996
92.14000 0.685
92.16000 1.312
92.18000 5.757
92.20000 4.572
92.22000 5.488
92.24000 2.332
92.26000 -0.613
92.28000 0.715
92.30000 4.481
92.32000 3.257
92.34000 2.220
92.36000 1.841
92.38000 6.889
92.40000 -1.728
92.42000 -2.018
92.44000 1.252
92.46000 2.804
92.48000 0.910
92.50000 -1.633
92.52000 1.734
92.54000 3.589
92.56000 3.645
92.58000 0.441
92.60000 0.214
92.62000 4.504
92.64000 5.899
92.66000 4.405
92.68000 3.858
92.70000 5.894
92.72000 2.528
92.74000 1.370
92.76000 6.507
92.78000 3.293
92.80000 3.976
92.82000 2.085
92.84000 -1.997
92.86000 1.612
92.88000 4.058
92.90000 0.648
92.92000 1.646
92.94000 2.528
92.96000 6.624
92.98000 4.911
93.00000 3.175
93.02000 3.137
93.04000 1.945
93.06000 -0.762
93.08000 2.206
93.10000 2.744
93.12000 4.469
93.14000 2.898
93.16000 5.920
93.18000 5.198
93.20000 2.776
93.22000 -1.494
93.24000 0.147
93.26000 5.241
93.28000 7.179
93.30000 2.426
93.32000 0.117
93.34000 5.458
93.36000 4.436
93.38000 8.493
93.40000 5.128
93.42000 5.963
93.44000 8.226
93.46000 6.775
93.48000 4.097
93.50000 3.992
93.52000 4.977
93.54000 4.109
93.56000 3.719
93.58000 3.623
93.60000 4.706
93.62000 6.016
93.64000 5.879
93.66000 4.117
93.68000 5.596
93.70000 3.600
93.72000 4.114
93.74000 0.919
93.76000 3.568
93.78000 8.581
93.80000 7.770
93.82000 5.066
93.84000 5.289
93.86000 2.271
93.88000 -0.594
93.90000 1.173
93.92000 1.313
93.94000 5.444
93.96000 1.878
93.98000 2.758
94.00000 6.176
94.02000 4.080
94.04000 1.232
94.06000 -1.938
94.08000 2.305
94.10000 5.845
94.12000 6.077
94.14000 7.547
94.16000 6.721
94.18000 5.163
94.20000 5.575
94.22000 5.925
94.24000 9.028
94.26000 4.109
94.28000 4.567
94.30000 8.697
94.32000 6.842
94.34000 6.105
94.36000 5.135
94.38000 6.586
94.40000 2.605
94.42000 2.405
94.44000 1.196
94.46000 0.805
94.48000 1.175
94.50000 0.927
94.52000 4.091
94.54000 4.618
94.56000 4.568
94.58000 2.730
94.60000 4.340
94.62000 7.884
94.64000 11.242
94.66000 7.441
94.68000 3.772
94.70000 6.097
94.72000 9.707
94.74000 11.317
94.76000 8.721
94.78000 7.395
94.80000 -0.918
94.82000 -2.001
94.84000 -0.194
94.86000 3.712
94.88000 5.533
94.90000 3.872
94.92000 4.904
94.94000 1.074
94.96000 -0.246
94.98000 1.284
95.00000 5.054
95.02000 4.799
95.04000 2.396
95.06000 5.412
95.08000 4.498
95.10000 6.023
95.12000 8.394
95.14000 3.489
95.16000 2.626
95.18000 3.982
95.20000 0.687
95.22000 2.916
95.24000 2.651
95.26000 2.601
95.28000 4.507
95.30000 6.276
95.32000 4.773
95.34000 2.440
95.36000 -1.483
95.38000 0.352
95.40000 4.234
95.42000 6.123
95.44000 6.342
95.46000 1.452
95.48000 -2.014
95.50000 0.188
95.52000 0.748
95.54000 -1.523
95.56000 1.479
95.58000 -0.268
95.60000 2.223
95.62000 1.102
95.64000 -1.385
95.66000 4.201
95.68000 4.039
95.70000 -0.591
95.72000 1.583
95.74000 3.552
95.76000 4.005
95.78000 4.458
95.80000 4.907
95.82000 4.930
95.84000 7.278
95.86000 4.421
95.88000 3.055
95.90000 7.630
95.92000 9.302
95.94000 4.745
95.96000 0.549
95.98000 0.022
96.00000 2.828
96.02000 5.527
96.04000 4.860
96.06000 9.272
96.08000 8.541
96.10000 4.292
96.12000 2.346
96.14000 3.912
96.16000 6.616
96.18000 5.746
96.20000 7.948
96.22000 10.305
96.24000 7.171
96.26000 2.679
96.28000 -1.972
96.30000 4.816
96.32000 6.788
96.34000 3.490
96.36000 3.187
96.38000 3.727
96.40000 5.401
96.42000 5.634
96.44000 4.738
96.46000 6.033
96.48000 7.256
96.50000 6.224
96.52000 1.181
96.54000 7.828
96.56000 6.241
96.58000 5.939
96.60000 6.767
96.62000 6.965
96.64000 3.999
96.66000 2.016
96.68000 4.769
96.70000 5.098
96.72000 10.012
96.74000 6.397
96.76000 5.597
96.78000 9.074
96.80000 3.199
96.82000 3.742
96.84000 1.826
96.86000 2.526
96.88000 0.141
96.90000 3.642
96.92000 1.031
96.94000 0.948
96.96000 0.558
96.98000 1.196
97.00000 0.789
97.02000 0.848
97.04000 0.889
97.06000 1.647
97.08000 4.028
97.10000 4.408
97.12000 4.678
97.14000 3.872
97.16000 2.393
97.18000 2.667
97.20000 4.790
97.22000 3.852
97.24000 10.330
97.26000 9.010
97.28000 7.305
97.30000 6.618
97.32000 2.510
97.34000 5.157
97.36000 5.212
97.38000 9.060
97.40000 3.548
97.42000 0.797
97.44000 4.404
97.46000 4.579
97.48000 4.109
97.50000 5.019
97.52000 7.411
97.54000 6.180
97.56000 6.177
97.58000 5.260
97.60000 3.636
97.62000 5.454
97.64000 4.612
97.66000 8.971
97.68000 9.869
97.70000 8.987
97.72000 5.255
97.74000 2.019
97.76000 7.094
97.78000 10.622
97.80000 11.040
97.82000 5.278
97.84000 1.915
97.86000 2.150
97.88000 10.291
97.90000 9.734
97.92000 4.553
97.94000 4.016
97.96000 5.275
97.98000 3.527
98.00000 4.916
98.02000 5.712
98.04000 8.013
98.06000 7.593
98.08000 6.748
98.10000 4.840
98.12000 2.064
98.14000 0.287
98.16000 10.892
98.18000 5.696
98.20000 6.374
98.22000 0.800
98.24000 -1.890
98.26000 0.650
98.28000 3.608
98.30000 7.392
98.32000 6.143
98.34000 9.558
98.36000 -0.149
98.38000 4.393
98.40000 10.831
98.42000 3.871
98.44000 6.145
98.46000 4.754
98.48000 3.510
98.50000 2.161
98.52000 0.674
98.54000 2.990
98.56000 0.721
98.58000 -0.378
98.60000 7.521
98.62000 10.145
98.64000 14.236
98.66000 12.740
98.68000 6.510
98.70000 3.221
98.72000 4.721
98.74000 3.077
98.76000 -0.047
98.78000 -1.744
98.80000 1.941
98.82000 0.906
98.84000 2.067
98.86000 3.488
98.88000 11.538
98.90000 8.440
98.92000 6.614
98.94000 9.979
98.96000 11.038
98.98000 2.900
99.00000 6.389
99.02000 8.949
99.04000 6.924
99.06000 3.523
99.08000 3.192
99.10000 -1.930
99.12000 2.775
99.14000 8.801
99.16000 7.827
99.18000 5.428
99.20000 9.170
99.22000 9.516
99.24000 7.917
99.26000 7.935
99.28000 8.585
99.30000 1.763
99.32000 5.922
99.34000 7.302
99.36000 7.195
99.38000 -1.510
99.40000 0.949
99.42000 7.349
99.44000 11.598
99.46000 8.698
99.48000 1.149
99.50000 3.334
99.52000 4.044
99.54000 2.360
99.56000 6.249
99.58000 1.646
99.60000 8.337
99.62000 13.077
99.64000 15.009
99.66000 2.462
99.68000 8.526
99.70000 9.638
99.72000 7.964
99.74000 0.043
99.76000 -4.307
99.78000 9.655
99.80000 7.036
99.82000 6.913
99.84000 8.770
99.86000 2.467
99.88000 7.412
99.90000 10.185
99.92000 8.748
99.94000 5.828
99.96000 -3.903
99.98000 0.000
