'Id: "0011387" Comment: "Integrate frame 0011387_Au-Ir-Rh_Rh-rich_XRD-Mapping-156-0000.gfrmwith cursor Wedge Cursor #5" Operator: "B?rgel" Anode: "Cu" Wavelength: "1.5406" Scantype: "2Theta (TwoTheta)" TimePerStep: "1" X: "45" Y: "-4.5" Z: "5.95" 
10.00000 0.000
10.02000 1.094
10.04000 5.666
10.06000 -0.488
10.08000 -2.644
10.10000 7.290
10.12000 10.808
10.14000 11.345
10.16000 9.657
10.18000 -0.448
10.20000 5.502
10.22000 2.370
10.24000 -2.715
10.26000 10.643
10.28000 22.279
10.30000 20.532
10.32000 14.814
10.34000 5.308
10.36000 13.221
10.38000 30.728
10.40000 25.172
10.42000 24.260
10.44000 21.071
10.46000 13.113
10.48000 12.911
10.50000 16.419
10.52000 17.837
10.54000 7.677
10.56000 11.481
10.58000 26.332
10.60000 37.593
10.62000 25.263
10.64000 17.780
10.66000 21.445
10.68000 15.716
10.70000 11.468
10.72000 18.108
10.74000 29.309
10.76000 38.151
10.78000 32.881
10.80000 25.932
10.82000 28.173
10.84000 33.948
10.86000 35.808
10.88000 45.554
10.90000 43.556
10.92000 46.776
10.94000 39.543
10.96000 35.512
10.98000 29.464
11.00000 33.847
11.02000 28.004
11.04000 26.835
11.06000 39.540
11.08000 40.521
11.10000 43.408
11.12000 43.281
11.14000 36.911
11.16000 44.926
11.18000 49.269
11.20000 43.414
11.22000 36.834
11.24000 42.837
11.26000 46.561
11.28000 42.620
11.30000 46.606
11.32000 50.466
11.34000 46.927
11.36000 47.117
11.38000 43.895
11.40000 52.488
11.42000 41.496
11.44000 39.424
11.46000 42.676
11.48000 45.411
11.50000 45.664
11.52000 40.696
11.54000 38.212
11.56000 48.964
11.58000 53.201
11.60000 54.663
11.62000 58.297
11.64000 54.939
11.66000 51.395
11.68000 48.767
11.70000 49.185
11.72000 50.490
11.74000 51.632
11.76000 51.691
11.78000 58.442
11.80000 63.699
11.82000 64.151
11.84000 59.167
11.86000 61.412
11.88000 58.364
11.90000 55.770
11.92000 57.864
11.94000 54.568
11.96000 54.287
11.98000 60.581
12.00000 50.182
12.02000 42.421
12.04000 58.630
12.06000 70.568
12.08000 62.006
12.10000 68.390
12.12000 65.626
12.14000 58.469
12.16000 47.008
12.18000 56.131
12.20000 51.099
12.22000 52.945
12.24000 55.798
12.26000 62.885
12.28000 64.498
12.30000 62.088
12.32000 62.421
12.34000 67.914
12.36000 72.310
12.38000 79.255
12.40000 72.030
12.42000 62.577
12.44000 66.749
12.46000 62.462
12.48000 61.111
12.50000 63.534
12.52000 61.728
12.54000 61.091
12.56000 56.950
12.58000 62.701
12.60000 65.330
12.62000 75.532
12.64000 71.115
12.66000 65.941
12.68000 64.687
12.70000 69.036
12.72000 71.614
12.74000 74.677
12.76000 64.399
12.78000 62.519
12.80000 65.523
12.82000 62.097
12.84000 67.582
12.86000 60.699
12.88000 70.343
12.90000 72.765
12.92000 64.680
12.94000 73.510
12.96000 67.330
12.98000 57.292
13.00000 59.591
13.02000 64.809
13.04000 67.543
13.06000 71.439
13.08000 69.036
13.10000 58.943
13.12000 54.605
13.14000 62.602
13.16000 65.283
13.18000 63.617
13.20000 71.988
13.22000 72.425
13.24000 68.883
13.26000 55.781
13.28000 61.936
13.30000 63.287
13.32000 63.325
13.34000 62.692
13.36000 61.205
13.38000 63.161
13.40000 65.863
13.42000 69.819
13.44000 70.629
13.46000 60.248
13.48000 53.023
13.50000 56.740
13.52000 52.185
13.54000 65.131
13.56000 69.655
13.58000 66.545
13.60000 54.257
13.62000 58.046
13.64000 69.077
13.66000 65.707
13.68000 66.895
13.70000 65.200
13.72000 64.560
13.74000 59.164
13.76000 66.457
13.78000 68.889
13.80000 61.702
13.82000 54.175
13.84000 55.184
13.86000 57.994
13.88000 56.746
13.90000 59.690
13.92000 60.634
13.94000 52.347
13.96000 49.167
13.98000 51.258
14.00000 49.931
14.02000 50.528
14.04000 49.079
14.06000 44.530
14.08000 49.607
14.10000 58.480
14.12000 44.439
14.14000 36.250
14.16000 38.465
14.18000 46.265
14.20000 51.042
14.22000 48.046
14.24000 56.541
14.26000 58.237
14.28000 54.282
14.30000 60.826
14.32000 50.991
14.34000 44.786
14.36000 49.429
14.38000 54.935
14.40000 54.608
14.42000 54.224
14.44000 50.974
14.46000 40.963
14.48000 43.382
14.50000 46.510
14.52000 53.049
14.54000 46.421
14.56000 37.689
14.58000 50.652
14.60000 47.004
14.62000 43.472
14.64000 53.047
14.66000 51.044
14.68000 47.669
14.70000 45.332
14.72000 41.177
14.74000 49.998
14.76000 47.717
14.78000 40.256
14.80000 43.171
14.82000 38.939
14.84000 40.247
14.86000 41.494
14.88000 52.038
14.90000 50.410
14.92000 47.517
14.94000 44.472
14.96000 47.244
14.98000 52.095
15.00000 54.325
15.02000 44.169
15.04000 41.834
15.06000 38.900
15.08000 44.068
15.10000 40.352
15.12000 39.678
15.14000 46.320
15.16000 41.052
15.18000 45.989
15.20000 38.162
15.22000 30.297
15.24000 29.067
15.26000 35.625
15.28000 51.867
15.30000 49.516
15.32000 45.167
15.34000 29.812
15.36000 38.791
15.38000 50.474
15.40000 33.281
15.42000 32.423
15.44000 42.978
15.46000 46.636
15.48000 45.468
15.50000 41.670
15.52000 36.726
15.54000 35.695
15.56000 39.828
15.58000 39.774
15.60000 32.112
15.62000 31.985
15.64000 30.344
15.66000 32.705
15.68000 31.261
15.70000 33.598
15.72000 37.394
15.74000 33.644
15.76000 35.392
15.78000 22.231
15.80000 19.755
15.82000 25.380
15.84000 31.048
15.86000 26.915
15.88000 26.965
15.90000 29.463
15.92000 37.033
15.94000 33.115
15.96000 28.129
15.98000 32.884
16.00000 39.086
16.02000 34.285
16.04000 29.746
16.06000 24.056
16.08000 17.077
16.10000 28.687
16.12000 32.388
16.14000 33.346
16.16000 25.203
16.18000 28.922
16.20000 30.123
16.22000 31.372
16.24000 33.393
16.26000 34.974
16.28000 30.516
16.30000 26.559
16.32000 30.701
16.34000 26.961
16.36000 33.642
16.38000 23.668
16.40000 26.738
16.42000 23.197
16.44000 29.077
16.46000 32.795
16.48000 28.583
16.50000 28.153
16.52000 30.168
16.54000 26.241
16.56000 15.336
16.58000 17.700
16.60000 27.695
16.62000 27.609
16.64000 16.682
16.66000 21.416
16.68000 25.725
16.70000 16.642
16.72000 15.362
16.74000 17.725
16.76000 28.262
16.78000 28.173
16.80000 29.857
16.82000 24.805
16.84000 19.278
16.86000 24.218
16.88000 21.912
16.90000 18.010
16.92000 20.114
16.94000 27.419
16.96000 25.501
16.98000 18.177
17.00000 14.856
17.02000 23.567
17.04000 26.958
17.06000 12.163
17.08000 17.527
17.10000 18.742
17.12000 19.044
17.14000 20.001
17.16000 14.981
17.18000 11.704
17.20000 20.655
17.22000 22.411
17.24000 22.663
17.26000 19.816
17.28000 17.443
17.30000 24.554
17.32000 18.656
17.34000 13.143
17.36000 19.812
17.38000 24.933
17.40000 20.167
17.42000 10.199
17.44000 10.065
17.46000 11.503
17.48000 16.083
17.50000 14.402
17.52000 6.839
17.54000 4.966
17.56000 11.536
17.58000 21.232
17.60000 22.755
17.62000 16.694
17.64000 11.984
17.66000 7.680
17.68000 13.623
17.70000 14.118
17.72000 15.299
17.74000 10.459
17.76000 17.071
17.78000 22.522
17.80000 16.812
17.82000 15.233
17.84000 10.599
17.86000 2.801
17.88000 6.986
17.90000 15.894
17.92000 14.211
17.94000 7.279
17.96000 10.994
17.98000 13.477
18.00000 10.275
18.02000 11.536
18.04000 6.751
18.06000 8.429
18.08000 3.115
18.10000 4.629
18.12000 6.733
18.14000 4.256
18.16000 8.646
18.18000 5.714
18.20000 3.019
18.22000 7.200
18.24000 3.486
18.26000 5.506
18.28000 10.033
18.30000 16.411
18.32000 6.204
18.34000 7.092
18.36000 5.546
18.38000 4.563
18.40000 9.539
18.42000 11.366
18.44000 12.244
18.46000 6.117
18.48000 -1.339
18.50000 3.766
18.52000 2.605
18.54000 -1.827
18.56000 2.745
18.58000 0.797
18.60000 -1.537
18.62000 2.452
18.64000 6.128
18.66000 4.774
18.68000 7.449
18.70000 9.585
18.72000 14.387
18.74000 6.296
18.76000 6.855
18.78000 8.469
18.80000 13.597
18.82000 3.529
18.84000 -3.041
18.86000 0.932
18.88000 2.288
18.90000 5.494
18.92000 4.752
18.94000 4.329
18.96000 7.240
18.98000 5.932
19.00000 5.398
19.02000 7.956
19.04000 9.126
19.06000 12.508
19.08000 4.167
19.10000 -0.991
19.12000 -0.330
19.14000 6.825
19.16000 3.528
19.18000 0.673
19.20000 7.811
19.22000 4.235
19.24000 3.193
19.26000 1.567
19.28000 7.976
19.30000 4.587
19.32000 7.153
19.34000 15.077
19.36000 14.971
19.38000 4.604
19.40000 1.375
19.42000 -0.744
19.44000 -0.675
19.46000 5.024
19.48000 7.513
19.50000 5.277
19.52000 2.865
19.54000 4.201
19.56000 3.107
19.58000 1.988
19.60000 4.078
19.62000 10.886
19.64000 12.076
19.66000 4.347
19.68000 0.058
19.70000 0.536
19.72000 3.834
19.74000 1.380
19.76000 2.204
19.78000 2.159
19.80000 4.688
19.82000 7.647
19.84000 2.522
19.86000 -1.573
19.88000 4.401
19.90000 6.624
19.92000 3.968
19.94000 1.606
19.96000 0.742
19.98000 1.673
20.00000 3.998
20.02000 12.436
20.04000 16.362
20.06000 3.477
20.08000 -3.794
20.10000 -3.773
20.12000 -0.411
20.14000 0.732
20.16000 3.269
20.18000 4.553
20.20000 7.838
20.22000 10.742
20.24000 15.359
20.26000 13.027
20.28000 9.020
20.30000 5.082
20.32000 3.792
20.34000 5.382
20.36000 7.837
20.38000 7.301
20.40000 10.775
20.42000 3.654
20.44000 0.105
20.46000 10.383
20.48000 8.542
20.50000 6.312
20.52000 1.483
20.54000 -1.224
20.56000 -4.179
20.58000 6.483
20.60000 7.860
20.62000 7.732
20.64000 7.602
20.66000 1.012
20.68000 2.223
20.70000 3.369
20.72000 2.308
20.74000 1.982
20.76000 7.022
20.78000 4.871
20.80000 8.573
20.82000 11.737
20.84000 4.730
20.86000 5.631
20.88000 -2.340
20.90000 -1.859
20.92000 -3.683
20.94000 -3.711
20.96000 -0.141
20.98000 -1.589
21.00000 11.087
21.02000 14.074
21.04000 3.221
21.06000 -1.690
21.08000 5.482
21.10000 16.215
21.12000 11.217
21.14000 1.448
21.16000 2.950
21.18000 -0.925
21.20000 -1.668
21.22000 1.349
21.24000 3.410
21.26000 8.581
21.28000 5.618
21.30000 -0.652
21.32000 -0.962
21.34000 -0.985
21.36000 -0.597
21.38000 -2.057
21.40000 4.868
21.42000 14.183
21.44000 13.206
21.46000 4.377
21.48000 -0.045
21.50000 -0.514
21.52000 3.958
21.54000 7.504
21.56000 8.152
21.58000 5.312
21.60000 3.330
21.62000 3.357
21.64000 5.370
21.66000 5.362
21.68000 10.628
21.70000 6.495
21.72000 3.948
21.74000 4.601
21.76000 8.959
21.78000 4.942
21.80000 3.327
21.82000 4.970
21.84000 8.573
21.86000 5.125
21.88000 3.524
21.90000 4.920
21.92000 3.328
21.94000 0.533
21.96000 4.574
21.98000 6.813
22.00000 6.525
22.02000 0.985
22.04000 -0.414
22.06000 -3.064
22.08000 8.625
22.10000 9.045
22.12000 11.969
22.14000 8.274
22.16000 8.692
22.18000 12.484
22.20000 3.136
22.22000 1.046
22.24000 -1.276
22.26000 1.590
22.28000 -4.053
22.30000 -4.053
22.32000 7.359
22.34000 10.459
22.36000 8.600
22.38000 14.882
22.40000 9.720
22.42000 7.178
22.44000 3.394
22.46000 1.167
22.48000 6.261
22.50000 8.269
22.52000 8.136
22.54000 4.091
22.56000 5.990
22.58000 1.463
22.60000 4.319
22.62000 7.104
22.64000 10.407
22.66000 13.378
22.68000 2.868
22.70000 6.210
22.72000 6.434
22.74000 5.465
22.76000 7.003
22.78000 4.796
22.80000 7.633
22.82000 5.246
22.84000 6.005
22.86000 6.961
22.88000 8.805
22.90000 10.317
22.92000 11.113
22.94000 15.014
22.96000 12.503
22.98000 2.931
23.00000 -1.292
23.02000 -1.311
23.04000 1.097
23.06000 1.726
23.08000 4.574
23.10000 7.291
23.12000 11.673
23.14000 10.433
23.16000 4.965
23.18000 3.704
23.20000 0.508
23.22000 4.493
23.24000 4.400
23.26000 6.185
23.28000 3.265
23.30000 6.493
23.32000 3.979
23.34000 5.514
23.36000 8.540
23.38000 7.485
23.40000 7.704
23.42000 -0.308
23.44000 1.766
23.46000 1.128
23.48000 1.371
23.50000 0.865
23.52000 -1.391
23.54000 6.781
23.56000 5.235
23.58000 3.008
23.60000 1.739
23.62000 1.956
23.64000 1.242
23.66000 0.366
23.68000 -0.750
23.70000 5.272
23.72000 4.858
23.74000 2.722
23.76000 2.303
23.78000 5.848
23.80000 1.827
23.82000 2.147
23.84000 2.788
23.86000 5.440
23.88000 0.969
23.90000 0.421
23.92000 -3.092
23.94000 -0.108
23.96000 1.759
23.98000 2.098
24.00000 1.721
24.02000 1.384
24.04000 4.160
24.06000 2.493
24.08000 -1.173
24.10000 4.511
24.12000 5.455
24.14000 4.252
24.16000 1.766
24.18000 7.135
24.20000 -2.708
24.22000 0.737
24.24000 4.247
24.26000 9.237
24.28000 8.466
24.30000 6.358
24.32000 7.348
24.34000 6.825
24.36000 2.381
24.38000 -0.038
24.40000 4.859
24.42000 9.149
24.44000 3.193
24.46000 -1.060
24.48000 2.864
24.50000 -2.763
24.52000 -3.955
24.54000 5.554
24.56000 13.223
24.58000 5.726
24.60000 0.693
24.62000 3.830
24.64000 1.594
24.66000 2.279
24.68000 2.216
24.70000 4.810
24.72000 7.059
24.74000 9.112
24.76000 8.507
24.78000 11.321
24.80000 6.407
24.82000 2.326
24.84000 0.970
24.86000 5.403
24.88000 11.330
24.90000 8.608
24.92000 6.144
24.94000 2.984
24.96000 -1.025
24.98000 -1.344
25.00000 -3.475
25.02000 3.469
25.04000 5.205
25.06000 1.611
25.08000 -0.577
25.10000 3.237
25.12000 4.034
25.14000 4.477
25.16000 3.239
25.18000 9.456
25.20000 2.619
25.22000 -1.781
25.24000 8.203
25.26000 10.866
25.28000 8.768
25.30000 3.565
25.32000 4.068
25.34000 2.284
25.36000 -3.910
25.38000 4.381
25.40000 8.112
25.42000 1.740
25.44000 1.827
25.46000 9.256
25.48000 3.580
25.50000 0.997
25.52000 -0.807
25.54000 1.186
25.56000 1.879
25.58000 2.492
25.60000 0.415
25.62000 0.335
25.64000 3.884
25.66000 1.669
25.68000 2.043
25.70000 2.458
25.72000 1.629
25.74000 0.340
25.76000 0.606
25.78000 4.781
25.80000 5.723
25.82000 3.221
25.84000 4.613
25.86000 5.597
25.88000 4.805
25.90000 1.858
25.92000 6.849
25.94000 -0.022
25.96000 2.432
25.98000 2.685
26.00000 4.065
26.02000 5.896
26.04000 3.735
26.06000 3.356
26.08000 6.710
26.10000 5.800
26.12000 7.567
26.14000 1.411
26.16000 4.271
26.18000 0.034
26.20000 -2.881
26.22000 -2.060
26.24000 5.182
26.26000 9.450
26.28000 10.551
26.30000 9.382
26.32000 14.085
26.34000 3.612
26.36000 -3.854
26.38000 1.777
26.40000 -0.522
26.42000 0.254
26.44000 5.501
26.46000 5.383
26.48000 -0.617
26.50000 0.030
26.52000 1.962
26.54000 3.051
26.56000 3.649
26.58000 6.234
26.60000 -1.783
26.62000 -1.311
26.64000 2.942
26.66000 6.340
26.68000 5.781
26.70000 3.296
26.72000 4.086
26.74000 1.086
26.76000 6.563
26.78000 6.840
26.80000 4.655
26.82000 2.086
26.84000 7.989
26.86000 9.782
26.88000 7.489
26.90000 2.661
26.92000 1.618
26.94000 2.153
26.96000 3.067
26.98000 4.289
27.00000 5.480
27.02000 5.208
27.04000 0.689
27.06000 -0.989
27.08000 0.351
27.10000 -0.865
27.12000 0.325
27.14000 -1.070
27.16000 -0.255
27.18000 5.322
27.20000 7.862
27.22000 -0.828
27.24000 -0.196
27.26000 5.423
27.28000 2.771
27.30000 -3.826
27.32000 -0.008
27.34000 4.847
27.36000 3.578
27.38000 -0.036
27.40000 4.369
27.42000 4.715
27.44000 3.144
27.46000 -0.306
27.48000 3.658
27.50000 0.958
27.52000 -1.977
27.54000 -1.245
27.56000 2.854
27.58000 5.202
27.60000 2.802
27.62000 6.034
27.64000 2.906
27.66000 -1.802
27.68000 0.543
27.70000 0.699
27.72000 -0.738
27.74000 1.467
27.76000 2.407
27.78000 4.004
27.80000 2.563
27.82000 1.336
27.84000 1.653
27.86000 4.504
27.88000 3.771
27.90000 3.863
27.92000 2.930
27.94000 -0.266
27.96000 1.435
27.98000 -3.793
28.00000 0.795
28.02000 7.564
28.04000 2.723
28.06000 -1.015
28.08000 0.823
28.10000 1.938
28.12000 5.402
28.14000 3.422
28.16000 9.570
28.18000 5.768
28.20000 2.362
28.22000 6.665
28.24000 6.974
28.26000 3.271
28.28000 -1.819
28.30000 4.701
28.32000 3.725
28.34000 -0.961
28.36000 5.229
28.38000 7.216
28.40000 2.152
28.42000 -0.183
28.44000 -2.933
28.46000 2.499
28.48000 1.626
28.50000 3.973
28.52000 3.400
28.54000 0.971
28.56000 -2.974
28.58000 -2.350
28.60000 -0.504
28.62000 -1.920
28.64000 -2.496
28.66000 2.270
28.68000 -2.817
28.70000 -3.350
28.72000 0.623
28.74000 4.322
28.76000 5.460
28.78000 5.745
28.80000 -0.353
28.82000 2.227
28.84000 3.359
28.86000 0.623
28.88000 -0.644
28.90000 -3.731
28.92000 -0.097
28.94000 4.524
28.96000 2.155
28.98000 -0.221
29.00000 4.037
29.02000 0.784
29.04000 2.855
29.06000 4.485
29.08000 4.843
29.10000 10.901
29.12000 13.501
29.14000 7.347
29.16000 2.615
29.18000 5.882
29.20000 5.344
29.22000 6.678
29.24000 3.969
29.26000 6.854
29.28000 4.423
29.30000 7.527
29.32000 6.152
29.34000 5.268
29.36000 8.997
29.38000 7.105
29.40000 2.623
29.42000 6.169
29.44000 -0.228
29.46000 3.417
29.48000 6.237
29.50000 5.114
29.52000 2.511
29.54000 3.985
29.56000 6.233
29.58000 8.544
29.60000 3.717
29.62000 1.182
29.64000 0.483
29.66000 -3.661
29.68000 -1.058
29.70000 3.417
29.72000 -0.414
29.74000 4.920
29.76000 6.700
29.78000 1.698
29.80000 3.106
29.82000 5.830
29.84000 4.994
29.86000 3.040
29.88000 5.297
29.90000 4.079
29.92000 2.408
29.94000 3.987
29.96000 5.629
29.98000 4.290
30.00000 3.575
30.02000 4.867
30.04000 4.093
30.06000 4.464
30.08000 2.247
30.10000 5.586
30.12000 6.284
30.14000 2.603
30.16000 0.078
30.18000 -3.657
30.20000 -2.163
30.22000 4.314
30.24000 6.433
30.26000 3.790
30.28000 0.616
30.30000 0.821
30.32000 6.456
30.34000 4.414
30.36000 6.200
30.38000 6.520
30.40000 -2.254
30.42000 1.007
30.44000 3.807
30.46000 4.006
30.48000 3.544
30.50000 7.124
30.52000 2.179
30.54000 5.559
30.56000 3.469
30.58000 -0.470
30.60000 1.292
30.62000 3.720
30.64000 4.042
30.66000 6.147
30.68000 6.114
30.70000 1.889
30.72000 1.478
30.74000 0.910
30.76000 1.343
30.78000 8.643
30.80000 3.647
30.82000 5.154
30.84000 2.240
30.86000 0.483
30.88000 1.211
30.90000 5.370
30.92000 1.959
30.94000 3.131
30.96000 1.977
30.98000 3.903
31.00000 6.643
31.02000 7.597
31.04000 3.857
31.06000 6.706
31.08000 2.770
31.10000 1.309
31.12000 3.306
31.14000 4.831
31.16000 3.527
31.18000 2.016
31.20000 6.470
31.22000 5.185
31.24000 5.800
31.26000 5.062
31.28000 -1.259
31.30000 -1.542
31.32000 -3.612
31.34000 0.207
31.36000 3.667
31.38000 4.595
31.40000 5.560
31.42000 3.972
31.44000 4.792
31.46000 -0.200
31.48000 0.527
31.50000 6.471
31.52000 -0.268
31.54000 -0.027
31.56000 -0.696
31.58000 0.081
31.60000 2.401
31.62000 3.279
31.64000 -0.480
31.66000 2.081
31.68000 2.812
31.70000 1.189
31.72000 6.141
31.74000 6.633
31.76000 0.961
31.78000 3.895
31.80000 6.232
31.82000 7.049
31.84000 10.858
31.86000 7.868
31.88000 7.443
31.90000 3.642
31.92000 0.225
31.94000 0.443
31.96000 2.146
31.98000 1.163
32.00000 5.921
32.02000 7.346
32.04000 6.337
32.06000 4.750
32.08000 4.310
32.10000 1.265
32.12000 2.578
32.14000 2.078
32.16000 -3.578
32.18000 -2.800
32.20000 3.035
32.22000 7.773
32.24000 7.934
32.26000 2.976
32.28000 1.164
32.30000 -0.403
32.32000 -1.142
32.34000 0.786
32.36000 5.764
32.38000 3.173
32.40000 5.104
32.42000 5.075
32.44000 3.837
32.46000 6.910
32.48000 6.001
32.50000 4.913
32.52000 6.287
32.54000 7.280
32.56000 5.201
32.58000 2.038
32.60000 3.354
32.62000 6.000
32.64000 0.629
32.66000 0.394
32.68000 8.107
32.70000 6.691
32.72000 5.472
32.74000 -0.694
32.76000 1.482
32.78000 3.889
32.80000 5.954
32.82000 5.791
32.84000 4.391
32.86000 1.313
32.88000 -3.545
32.90000 -1.814
32.92000 -2.194
32.94000 1.829
32.96000 2.360
32.98000 0.501
33.00000 -2.550
33.02000 -1.081
33.04000 0.010
33.06000 1.941
33.08000 -1.734
33.10000 0.924
33.12000 0.488
33.14000 -1.974
33.16000 -3.539
33.18000 -0.706
33.20000 3.101
33.22000 -0.753
33.24000 2.912
33.26000 3.717
33.28000 5.398
33.30000 7.612
33.32000 7.972
33.34000 2.432
33.36000 5.958
33.38000 4.339
33.40000 6.805
33.42000 8.748
33.44000 6.660
33.46000 4.768
33.48000 1.490
33.50000 0.704
33.52000 2.031
33.54000 2.476
33.56000 0.615
33.58000 3.625
33.60000 4.641
33.62000 4.833
33.64000 4.869
33.66000 2.532
33.68000 5.705
33.70000 4.737
33.72000 3.596
33.74000 1.799
33.76000 -1.787
33.78000 0.063
33.80000 4.072
33.82000 6.039
33.84000 3.891
33.86000 3.468
33.88000 5.444
33.90000 2.499
33.92000 2.102
33.94000 1.787
33.96000 6.177
33.98000 6.094
34.00000 4.045
34.02000 1.841
34.04000 1.466
34.06000 3.728
34.08000 8.656
34.10000 3.820
34.12000 3.703
34.14000 8.684
34.16000 10.361
34.18000 2.779
34.20000 4.090
34.22000 1.589
34.24000 2.065
34.26000 1.114
34.28000 0.227
34.30000 0.644
34.32000 2.688
34.34000 2.581
34.36000 1.258
34.38000 -2.785
34.40000 -3.529
34.42000 2.612
34.44000 3.282
34.46000 3.569
34.48000 0.235
34.50000 -1.078
34.52000 5.468
34.54000 2.987
34.56000 4.000
34.58000 3.323
34.60000 0.921
34.62000 3.607
34.64000 4.817
34.66000 3.502
34.68000 3.394
34.70000 3.686
34.72000 4.456
34.74000 4.547
34.76000 0.501
34.78000 -3.389
34.80000 -3.366
34.82000 -3.514
34.84000 2.759
34.86000 -0.523
34.88000 -1.694
34.90000 -0.712
34.92000 3.596
34.94000 0.274
34.96000 -2.174
34.98000 -3.378
35.00000 0.229
35.02000 1.283
35.04000 2.312
35.06000 0.723
35.08000 2.143
35.10000 2.365
35.12000 1.788
35.14000 -1.982
35.16000 0.662
35.18000 0.178
35.20000 -3.512
35.22000 -0.726
35.24000 2.970
35.26000 5.346
35.28000 3.142
35.30000 -0.943
35.32000 -2.149
35.34000 4.855
35.36000 1.744
35.38000 2.780
35.40000 3.937
35.42000 2.326
35.44000 1.004
35.46000 -2.088
35.48000 -3.044
35.50000 1.409
35.52000 -0.595
35.54000 -0.503
35.56000 0.746
35.58000 -0.077
35.60000 -0.450
35.62000 -2.701
35.64000 -2.447
35.66000 4.671
35.68000 3.670
35.70000 0.443
35.72000 -3.393
35.74000 0.764
35.76000 -0.924
35.78000 -2.872
35.80000 -3.507
35.82000 -0.722
35.84000 -0.389
35.86000 3.046
35.88000 1.880
35.90000 -0.537
35.92000 0.192
35.94000 2.604
35.96000 0.910
35.98000 0.313
36.00000 -3.506
36.02000 1.071
36.04000 -0.268
36.06000 1.143
36.08000 2.032
36.10000 1.892
36.12000 1.554
36.14000 4.589
36.16000 2.700
36.18000 0.608
36.20000 -0.278
36.22000 -1.207
36.24000 2.217
36.26000 3.377
36.28000 4.770
36.30000 0.333
36.32000 -1.225
36.34000 2.355
36.36000 -0.044
36.38000 -3.509
36.40000 -2.616
36.42000 -1.729
36.44000 -3.509
36.46000 -1.829
36.48000 -0.066
36.50000 2.777
36.52000 1.541
36.54000 4.267
36.56000 4.344
36.58000 3.463
36.60000 -0.476
36.62000 0.086
36.64000 -0.332
36.66000 3.758
36.68000 4.195
36.70000 6.638
36.72000 6.896
36.74000 4.256
36.76000 2.006
36.78000 2.374
36.80000 1.536
36.82000 -2.374
36.84000 3.148
36.86000 0.621
36.88000 1.787
36.90000 1.133
36.92000 -3.518
36.94000 -0.722
36.96000 2.111
36.98000 5.312
37.00000 5.424
37.02000 3.152
37.04000 1.277
37.06000 -2.110
37.08000 -3.518
37.10000 -0.984
37.12000 2.758
37.14000 -2.252
37.16000 -1.650
37.18000 4.880
37.20000 4.382
37.22000 1.595
37.24000 3.601
37.26000 3.623
37.28000 5.370
37.30000 3.943
37.32000 -1.768
37.34000 0.647
37.36000 0.506
37.38000 -3.525
37.40000 -2.387
37.42000 2.411
37.44000 5.142
37.46000 3.989
37.48000 3.906
37.50000 -1.232
37.52000 2.139
37.54000 2.920
37.56000 4.228
37.58000 2.573
37.60000 0.800
37.62000 -0.113
37.64000 1.688
37.66000 1.661
37.68000 3.885
37.70000 5.070
37.72000 3.689
37.74000 -2.008
37.76000 -3.558
37.78000 -0.627
37.80000 6.340
37.82000 6.079
37.84000 5.777
37.86000 4.894
37.88000 3.241
37.90000 3.766
37.92000 2.663
37.94000 1.900
37.96000 8.225
37.98000 8.535
38.00000 11.594
38.02000 9.276
38.04000 6.523
38.06000 5.026
38.08000 5.918
38.10000 9.789
38.12000 6.643
38.14000 2.161
38.16000 6.374
38.18000 10.339
38.20000 13.543
38.22000 12.824
38.24000 8.494
38.26000 9.977
38.28000 10.670
38.30000 6.328
38.32000 4.853
38.34000 5.363
38.36000 4.096
38.38000 6.676
38.40000 8.663
38.42000 11.653
38.44000 13.060
38.46000 12.019
38.48000 17.261
38.50000 17.287
38.52000 13.227
38.54000 14.108
38.56000 16.798
38.58000 16.753
38.60000 14.966
38.62000 17.769
38.64000 19.638
38.66000 16.187
38.68000 15.965
38.70000 20.613
38.72000 19.008
38.74000 18.169
38.76000 22.901
38.78000 21.337
38.80000 22.780
38.82000 21.441
38.84000 20.600
38.86000 20.714
38.88000 21.105
38.90000 25.582
38.92000 26.514
38.94000 22.308
38.96000 14.957
38.98000 22.297
39.00000 25.790
39.02000 27.930
39.04000 28.832
39.06000 26.826
39.08000 24.343
39.10000 24.981
39.12000 28.414
39.14000 28.688
39.16000 29.469
39.18000 32.460
39.20000 34.936
39.22000 34.772
39.24000 35.978
39.26000 35.858
39.28000 33.294
39.30000 34.351
39.32000 43.787
39.34000 47.912
39.36000 45.557
39.38000 45.715
39.40000 49.013
39.42000 50.938
39.44000 55.996
39.46000 56.492
39.48000 62.869
39.50000 64.198
39.52000 62.362
39.54000 67.121
39.56000 72.254
39.58000 77.216
39.60000 81.412
39.62000 84.975
39.64000 91.101
39.66000 90.956
39.68000 95.706
39.70000 96.219
39.72000 101.595
39.74000 104.925
39.76000 107.729
39.78000 120.410
39.80000 130.509
39.82000 142.073
39.84000 148.679
39.86000 147.267
39.88000 154.016
39.90000 169.554
39.92000 180.728
39.94000 190.121
39.96000 201.301
39.98000 205.278
40.00000 216.386
40.02000 228.509
40.04000 237.851
40.06000 249.482
40.08000 266.301
40.10000 285.490
40.12000 299.234
40.14000 304.244
40.16000 326.537
40.18000 341.893
40.20000 358.868
40.22000 383.993
40.24000 393.538
40.26000 407.276
40.28000 423.362
40.30000 438.009
40.32000 450.185
40.34000 467.910
40.36000 486.595
40.38000 497.851
40.40000 509.760
40.42000 526.386
40.44000 535.495
40.46000 539.113
40.48000 551.420
40.50000 552.319
40.52000 554.842
40.54000 560.896
40.56000 553.617
40.58000 554.156
40.60000 551.627
40.62000 544.618
40.64000 545.150
40.66000 538.569
40.68000 513.730
40.70000 508.465
40.72000 498.219
40.74000 480.005
40.76000 472.154
40.78000 467.279
40.80000 457.270
40.82000 436.040
40.84000 412.776
40.86000 389.622
40.88000 381.899
40.90000 376.658
40.92000 357.997
40.94000 336.085
40.96000 319.123
40.98000 309.933
41.00000 299.285
41.02000 280.709
41.04000 263.676
41.06000 258.372
41.08000 249.823
41.10000 238.527
41.12000 220.666
41.14000 203.699
41.16000 197.234
41.18000 189.286
41.20000 177.610
41.22000 164.609
41.24000 160.915
41.26000 152.858
41.28000 143.182
41.30000 138.431
41.32000 132.754
41.34000 128.101
41.36000 116.808
41.38000 113.778
41.40000 102.772
41.42000 95.366
41.44000 94.928
41.46000 92.576
41.48000 90.288
41.50000 86.626
41.52000 79.487
41.54000 74.242
41.56000 69.280
41.58000 66.598
41.60000 60.258
41.62000 57.006
41.64000 54.576
41.66000 54.174
41.68000 53.164
41.70000 50.000
41.72000 43.665
41.74000 42.922
41.76000 39.173
41.78000 37.425
41.80000 34.248
41.82000 36.670
41.84000 32.934
41.86000 32.325
41.88000 37.176
41.90000 29.839
41.92000 29.186
41.94000 28.916
41.96000 27.879
41.98000 24.791
42.00000 26.734
42.02000 27.730
42.04000 26.996
42.06000 24.977
42.08000 25.067
42.10000 21.599
42.12000 17.706
42.14000 13.965
42.16000 13.777
42.18000 15.342
42.20000 18.622
42.22000 18.511
42.24000 15.788
42.26000 13.060
42.28000 11.381
42.30000 12.231
42.32000 10.227
42.34000 8.523
42.36000 10.866
42.38000 8.954
42.40000 11.887
42.42000 12.473
42.44000 10.025
42.46000 5.902
42.48000 6.174
42.50000 5.940
42.52000 7.197
42.54000 5.158
42.56000 5.546
42.58000 3.335
42.60000 4.404
42.62000 10.204
42.64000 5.604
42.66000 5.025
42.68000 0.330
42.70000 1.688
42.72000 3.385
42.74000 4.924
42.76000 6.107
42.78000 5.082
42.80000 1.674
42.82000 1.581
42.84000 -1.072
42.86000 -1.010
42.88000 2.861
42.90000 5.247
42.92000 2.150
42.94000 0.650
42.96000 2.947
42.98000 4.164
43.00000 2.202
43.02000 -2.060
43.04000 2.082
43.06000 0.884
43.08000 -0.197
43.10000 0.269
43.12000 0.243
43.14000 -1.926
43.16000 -1.151
43.18000 1.961
43.20000 0.992
43.22000 0.251
43.24000 1.471
43.26000 0.227
43.28000 -3.427
43.30000 -0.223
43.32000 -0.429
43.34000 -1.264
43.36000 3.049
43.38000 1.540
43.40000 0.882
43.42000 1.153
43.44000 -0.224
43.46000 -1.297
43.48000 1.425
43.50000 -0.582
43.52000 0.156
43.54000 1.424
43.56000 2.825
43.58000 6.246
43.60000 1.666
43.62000 2.835
43.64000 4.007
43.66000 1.342
43.68000 2.633
43.70000 1.634
43.72000 3.416
43.74000 3.040
43.76000 1.202
43.78000 -0.298
43.80000 0.804
43.82000 0.424
43.84000 1.326
43.86000 0.317
43.88000 0.330
43.90000 -0.095
43.92000 0.172
43.94000 1.085
43.96000 3.197
43.98000 -0.371
44.00000 1.388
44.02000 3.896
44.04000 1.701
44.06000 0.162
44.08000 3.865
44.10000 7.320
44.12000 3.256
44.14000 4.877
44.16000 3.003
44.18000 0.831
44.20000 -3.305
44.22000 -3.017
44.24000 -0.217
44.26000 0.242
44.28000 0.764
44.30000 2.803
44.32000 1.402
44.34000 0.483
44.36000 1.430
44.38000 -0.765
44.40000 1.661
44.42000 3.581
44.44000 2.132
44.46000 -3.301
44.48000 -0.150
44.50000 0.055
44.52000 1.724
44.54000 1.274
44.56000 4.422
44.58000 1.063
44.60000 2.014
44.62000 2.794
44.64000 -0.824
44.66000 -0.972
44.68000 -3.155
44.70000 -0.508
44.72000 4.485
44.74000 0.883
44.76000 1.003
44.78000 2.963
44.80000 -0.800
44.82000 2.954
44.84000 -1.006
44.86000 -2.476
44.88000 0.519
44.90000 -1.303
44.92000 -0.217
44.94000 0.369
44.96000 -3.305
44.98000 -1.661
45.00000 -3.060
45.02000 1.930
45.04000 6.380
45.06000 2.996
45.08000 5.936
45.10000 2.450
45.12000 -0.291
45.14000 1.339
45.16000 -0.099
45.18000 -0.450
45.20000 0.449
45.22000 6.137
45.24000 3.380
45.26000 -0.611
45.28000 1.756
45.30000 4.224
45.32000 -0.297
45.34000 -0.393
45.36000 1.099
45.38000 0.186
45.40000 3.245
45.42000 5.699
45.44000 9.122
45.46000 5.405
45.48000 -0.653
45.50000 0.785
45.52000 2.560
45.54000 6.763
45.56000 13.643
45.58000 11.418
45.60000 5.399
45.62000 7.896
45.64000 6.336
45.66000 3.516
45.68000 6.586
45.70000 6.795
45.72000 11.063
45.74000 8.256
45.76000 8.420
45.78000 13.228
45.80000 14.665
45.82000 11.772
45.84000 12.331
45.86000 11.844
45.88000 12.922
45.90000 8.995
45.92000 7.914
45.94000 9.989
45.96000 11.618
45.98000 12.919
46.00000 12.882
46.02000 19.729
46.04000 18.900
46.06000 15.078
46.08000 14.973
46.10000 14.958
46.12000 18.025
46.14000 20.153
46.16000 24.777
46.18000 23.394
46.20000 21.911
46.22000 24.767
46.24000 20.595
46.26000 27.470
46.28000 30.363
46.30000 26.838
46.32000 26.661
46.34000 27.260
46.36000 31.231
46.38000 29.634
46.40000 29.895
46.42000 29.558
46.44000 30.758
46.46000 35.812
46.48000 35.457
46.50000 42.668
46.52000 48.455
46.54000 40.302
46.56000 42.482
46.58000 43.245
46.60000 46.993
46.62000 44.833
46.64000 49.339
46.66000 54.762
46.68000 58.954
46.70000 56.589
46.72000 55.376
46.74000 54.207
46.76000 55.960
46.78000 56.480
46.80000 60.955
46.82000 60.381
46.84000 64.534
46.86000 64.648
46.88000 71.403
46.90000 67.803
46.92000 69.370
46.94000 71.436
46.96000 67.652
46.98000 68.232
47.00000 74.089
47.02000 68.310
47.04000 71.712
47.06000 72.493
47.08000 74.945
47.10000 76.990
47.12000 78.148
47.14000 77.796
47.16000 76.765
47.18000 70.569
47.20000 76.453
47.22000 82.196
47.24000 77.883
47.26000 72.599
47.28000 70.320
47.30000 66.686
47.32000 69.603
47.34000 72.546
47.36000 71.999
47.38000 68.762
47.40000 72.252
47.42000 73.912
47.44000 65.068
47.46000 63.863
47.48000 67.618
47.50000 68.320
47.52000 67.529
47.54000 68.222
47.56000 64.506
47.58000 60.458
47.60000 53.613
47.62000 55.050
47.64000 48.683
47.66000 48.605
47.68000 48.028
47.70000 42.567
47.72000 41.029
47.74000 45.216
47.76000 42.720
47.78000 44.563
47.80000 37.310
47.82000 39.143
47.84000 37.110
47.86000 33.938
47.88000 33.664
47.90000 30.671
47.92000 28.445
47.94000 28.532
47.96000 24.166
47.98000 27.858
48.00000 23.812
48.02000 20.328
48.04000 19.984
48.06000 22.389
48.08000 22.558
48.10000 25.123
48.12000 21.943
48.14000 21.619
48.16000 14.462
48.18000 11.580
48.20000 14.245
48.22000 16.842
48.24000 14.633
48.26000 14.968
48.28000 9.864
48.30000 12.577
48.32000 15.113
48.34000 10.849
48.36000 10.110
48.38000 4.109
48.40000 6.205
48.42000 8.663
48.44000 10.206
48.46000 8.797
48.48000 6.371
48.50000 5.833
48.52000 4.498
48.54000 4.157
48.56000 2.215
48.58000 -0.042
48.60000 4.547
48.62000 3.964
48.64000 0.977
48.66000 -1.352
48.68000 -1.794
48.70000 1.762
48.72000 4.303
48.74000 1.784
48.76000 1.784
48.78000 2.719
48.80000 3.564
48.82000 2.039
48.84000 -2.215
48.86000 -0.034
48.88000 4.681
48.90000 3.705
48.92000 4.769
48.94000 3.739
48.96000 1.625
48.98000 2.422
49.00000 1.895
49.02000 0.411
49.04000 0.233
49.06000 3.071
49.08000 0.409
49.10000 -1.575
49.12000 -2.915
49.14000 2.723
49.16000 3.963
49.18000 -0.179
49.20000 -2.205
49.22000 -1.548
49.24000 -1.359
49.26000 -0.429
49.28000 0.301
49.30000 3.571
49.32000 4.217
49.34000 2.651
49.36000 4.737
49.38000 5.445
49.40000 3.511
49.42000 4.995
49.44000 2.377
49.46000 -0.160
49.48000 -2.786
49.50000 -0.422
49.52000 2.453
49.54000 1.299
49.56000 0.879
49.58000 2.641
49.60000 1.454
49.62000 3.402
49.64000 1.521
49.66000 -0.916
49.68000 4.547
49.70000 2.140
49.72000 3.787
49.74000 4.184
49.76000 2.398
49.78000 3.774
49.80000 2.201
49.82000 3.823
49.84000 10.390
49.86000 6.259
49.88000 3.841
49.90000 0.699
49.92000 2.223
49.94000 3.365
49.96000 3.238
49.98000 -2.770
50.00000 -1.710
50.02000 1.086
50.04000 2.787
50.06000 -1.614
50.08000 0.960
50.10000 6.405
50.12000 5.944
50.14000 3.925
50.16000 2.713
50.18000 4.579
50.20000 2.503
50.22000 3.874
50.24000 6.458
50.26000 2.325
50.28000 -2.735
50.30000 3.859
50.32000 8.985
50.34000 4.237
50.36000 0.691
50.38000 2.443
50.40000 4.335
50.42000 5.017
50.44000 3.476
50.46000 1.968
50.48000 3.265
50.50000 5.247
50.52000 2.272
50.54000 -0.460
50.56000 -0.850
50.58000 -0.994
50.60000 1.877
50.62000 2.686
50.64000 3.130
50.66000 2.534
50.68000 3.585
50.70000 5.465
50.72000 3.156
50.74000 3.038
50.76000 0.321
50.78000 0.083
50.80000 -1.637
50.82000 0.449
50.84000 3.449
50.86000 0.547
50.88000 -1.519
50.90000 2.151
50.92000 6.106
50.94000 2.246
50.96000 2.958
50.98000 0.188
51.00000 1.050
51.02000 3.467
51.04000 4.736
51.06000 3.690
51.08000 5.457
51.10000 4.819
51.12000 5.395
51.14000 4.952
51.16000 5.449
51.18000 3.613
51.20000 1.513
51.22000 -1.914
51.24000 -1.497
51.26000 -0.784
51.28000 2.092
51.30000 0.038
51.32000 1.472
51.34000 -1.176
51.36000 -0.700
51.38000 2.248
51.40000 1.974
51.42000 2.961
51.44000 3.564
51.46000 1.814
51.48000 2.891
51.50000 0.831
51.52000 0.495
51.54000 3.026
51.56000 3.656
51.58000 4.344
51.60000 -0.665
51.62000 -1.049
51.64000 0.281
51.66000 3.128
51.68000 6.635
51.70000 1.728
51.72000 2.663
51.74000 4.113
51.76000 -0.879
51.78000 -1.685
51.80000 0.631
51.82000 1.638
51.84000 1.960
51.86000 0.484
51.88000 -2.698
51.90000 1.194
51.92000 0.287
51.94000 0.370
51.96000 3.407
51.98000 1.694
52.00000 -0.499
52.02000 0.068
52.04000 2.895
52.06000 3.030
52.08000 2.692
52.10000 3.861
52.12000 2.862
52.14000 2.671
52.16000 1.378
52.18000 2.208
52.20000 5.309
52.22000 3.707
52.24000 1.221
52.26000 0.884
52.28000 -0.335
52.30000 0.258
52.32000 2.363
52.34000 1.969
52.36000 5.538
52.38000 4.307
52.40000 2.765
52.42000 1.264
52.44000 3.711
52.46000 0.809
52.48000 0.539
52.50000 -2.643
52.52000 1.662
52.54000 1.137
52.56000 2.216
52.58000 5.531
52.60000 6.482
52.62000 1.793
52.64000 3.073
52.66000 5.700
52.68000 8.909
52.70000 2.613
52.72000 2.440
52.74000 6.224
52.76000 4.659
52.78000 1.365
52.80000 4.860
52.82000 9.184
52.84000 6.186
52.86000 4.647
52.88000 2.557
52.90000 4.424
52.92000 2.419
52.94000 1.654
52.96000 1.741
52.98000 1.384
53.00000 5.238
53.02000 1.293
53.04000 2.084
53.06000 2.627
53.08000 5.246
53.10000 5.984
53.12000 1.444
53.14000 0.776
53.16000 3.821
53.18000 4.533
53.20000 4.814
53.22000 0.713
53.24000 0.300
53.26000 -2.622
53.28000 -0.463
53.30000 4.492
53.32000 3.210
53.34000 1.963
53.36000 2.729
53.38000 0.314
53.40000 -1.342
53.42000 -0.346
53.44000 2.247
53.46000 4.483
53.48000 4.299
53.50000 3.873
53.52000 4.628
53.54000 0.802
53.56000 -2.055
53.58000 1.185
53.60000 5.934
53.62000 6.830
53.64000 3.789
53.66000 2.686
53.68000 2.097
53.70000 3.698
53.72000 3.994
53.74000 1.296
53.76000 4.824
53.78000 6.389
53.80000 4.024
53.82000 5.999
53.84000 2.256
53.86000 1.056
53.88000 4.985
53.90000 4.019
53.92000 4.008
53.94000 5.273
53.96000 6.326
53.98000 4.268
54.00000 3.532
54.02000 3.190
54.04000 6.231
54.06000 6.550
54.08000 3.952
54.10000 2.311
54.12000 0.802
54.14000 2.797
54.16000 1.686
54.18000 3.350
54.20000 1.491
54.22000 4.983
54.24000 8.061
54.26000 9.293
54.28000 4.560
54.30000 2.651
54.32000 2.998
54.34000 3.701
54.36000 2.751
54.38000 2.383
54.40000 5.736
54.42000 10.412
54.44000 8.810
54.46000 6.332
54.48000 5.332
54.50000 5.396
54.52000 4.668
54.54000 2.347
54.56000 1.382
54.58000 0.164
54.60000 3.987
54.62000 1.897
54.64000 1.407
54.66000 -0.410
54.68000 -2.557
54.70000 1.710
54.72000 5.117
54.74000 4.856
54.76000 3.594
54.78000 2.418
54.80000 4.349
54.82000 4.737
54.84000 6.651
54.86000 4.742
54.88000 3.154
54.90000 1.308
54.92000 5.014
54.94000 5.200
54.96000 8.458
54.98000 5.932
55.00000 4.298
55.02000 2.836
55.04000 2.639
55.06000 0.019
55.08000 1.786
55.10000 2.735
55.12000 6.683
55.14000 2.604
55.16000 4.490
55.18000 4.127
55.20000 4.959
55.22000 -2.096
55.24000 0.425
55.26000 3.584
55.28000 3.780
55.30000 2.409
55.32000 -0.121
55.34000 1.563
55.36000 2.833
55.38000 4.575
55.40000 5.289
55.42000 1.706
55.44000 6.377
55.46000 8.349
55.48000 4.903
55.50000 0.220
55.52000 0.141
55.54000 -0.189
55.56000 1.651
55.58000 6.088
55.60000 6.632
55.62000 5.601
55.64000 3.275
55.66000 3.948
55.68000 2.002
55.70000 3.350
55.72000 1.119
55.74000 1.158
55.76000 6.539
55.78000 6.859
55.80000 2.289
55.82000 -1.427
55.84000 -1.331
55.86000 -2.552
55.88000 -1.656
55.90000 2.562
55.92000 7.564
55.94000 6.318
55.96000 4.052
55.98000 1.447
56.00000 0.609
56.02000 2.093
56.04000 1.831
56.06000 4.133
56.08000 2.306
56.10000 0.217
56.12000 0.628
56.14000 -1.496
56.16000 3.261
56.18000 2.914
56.20000 5.182
56.22000 3.952
56.24000 -1.057
56.26000 3.720
56.28000 2.064
56.30000 1.124
56.32000 -1.578
56.34000 -0.588
56.36000 -2.539
56.38000 -1.141
56.40000 1.039
56.42000 -0.156
56.44000 1.274
56.46000 5.540
56.48000 2.389
56.50000 5.316
56.52000 4.465
56.54000 1.005
56.56000 0.126
56.58000 0.615
56.60000 2.533
56.62000 0.602
56.64000 1.222
56.66000 2.655
56.68000 3.722
56.70000 4.757
56.72000 6.562
56.74000 3.692
56.76000 2.889
56.78000 2.205
56.80000 0.416
56.82000 3.245
56.84000 1.992
56.86000 -1.490
56.88000 -0.385
56.90000 -2.330
56.92000 0.871
56.94000 -0.238
56.96000 2.254
56.98000 -0.994
57.00000 -1.573
57.02000 0.050
57.04000 1.627
57.06000 -1.089
57.08000 -1.413
57.10000 4.384
57.12000 4.347
57.14000 0.111
57.16000 -1.736
57.18000 1.808
57.20000 2.971
57.22000 1.020
57.24000 4.574
57.26000 5.942
57.28000 -1.172
57.30000 -0.549
57.32000 4.160
57.34000 4.259
57.36000 -2.523
57.38000 -1.962
57.40000 4.152
57.42000 4.173
57.44000 3.589
57.46000 4.368
57.48000 2.759
57.50000 1.400
57.52000 2.424
57.54000 0.383
57.56000 0.039
57.58000 3.126
57.60000 1.692
57.62000 3.199
57.64000 4.274
57.66000 0.305
57.68000 -1.105
57.70000 -0.757
57.72000 0.353
57.74000 0.950
57.76000 2.609
57.78000 5.046
57.80000 4.830
57.82000 2.429
57.84000 -2.391
57.86000 -2.346
57.88000 0.663
57.90000 1.905
57.92000 2.421
57.94000 2.142
57.96000 -0.228
57.98000 -0.301
58.00000 3.946
58.02000 -1.169
58.04000 2.850
58.06000 2.598
58.08000 0.359
58.10000 2.710
58.12000 -0.307
58.14000 0.764
58.16000 0.014
58.18000 -1.606
58.20000 1.192
58.22000 4.696
58.24000 4.401
58.26000 1.622
58.28000 5.784
58.30000 5.491
58.32000 1.746
58.34000 -1.828
58.36000 -1.814
58.38000 2.686
58.40000 3.282
58.42000 -1.990
58.44000 -1.209
58.46000 1.245
58.48000 -0.525
58.50000 2.824
58.52000 1.457
58.54000 1.466
58.56000 0.750
58.58000 1.399
58.60000 1.661
58.62000 -1.908
58.64000 -0.037
58.66000 2.802
58.68000 -2.494
58.70000 -1.738
58.72000 -0.404
58.74000 5.796
58.76000 1.400
58.78000 2.714
58.80000 3.393
58.82000 5.872
58.84000 3.700
58.86000 2.893
58.88000 2.170
58.90000 0.373
58.92000 -0.135
58.94000 6.549
58.96000 4.929
58.98000 5.006
59.00000 1.973
59.02000 2.542
59.04000 4.917
59.06000 3.081
59.08000 3.394
59.10000 0.858
59.12000 2.054
59.14000 3.811
59.16000 1.240
59.18000 4.083
59.20000 7.507
59.22000 6.220
59.24000 2.050
59.26000 3.129
59.28000 1.572
59.30000 2.846
59.32000 5.750
59.34000 5.355
59.36000 5.609
59.38000 5.323
59.40000 5.719
59.42000 4.626
59.44000 4.170
59.46000 2.951
59.48000 4.766
59.50000 4.331
59.52000 5.791
59.54000 1.217
59.56000 1.090
59.58000 2.465
59.60000 3.207
59.62000 1.514
59.64000 -0.842
59.66000 -2.421
59.68000 2.737
59.70000 8.704
59.72000 6.800
59.74000 4.255
59.76000 1.251
59.78000 2.220
59.80000 6.430
59.82000 2.644
59.84000 5.235
59.86000 0.870
59.88000 0.529
59.90000 0.875
59.92000 0.353
59.94000 3.116
59.96000 3.436
59.98000 4.140
60.00000 3.439
60.02000 3.209
60.04000 7.562
60.06000 4.945
60.08000 3.822
60.10000 5.989
60.12000 1.552
60.14000 3.532
60.16000 4.573
60.18000 -2.063
60.20000 -2.430
60.22000 2.423
60.24000 5.415
60.26000 4.632
60.28000 2.633
60.30000 2.866
60.32000 1.921
60.34000 0.292
60.36000 1.089
60.38000 1.015
60.40000 -2.429
60.42000 3.035
60.44000 5.063
60.46000 1.376
60.48000 2.570
60.50000 1.827
60.52000 0.696
60.54000 0.437
60.56000 1.156
60.58000 2.781
60.60000 2.435
60.62000 2.534
60.64000 2.937
60.66000 2.714
60.68000 3.829
60.70000 0.076
60.72000 -0.073
60.74000 2.941
60.76000 3.948
60.78000 3.727
60.80000 4.837
60.82000 0.795
60.84000 1.114
60.86000 1.971
60.88000 1.329
60.90000 -1.283
60.92000 -0.699
60.94000 0.858
60.96000 5.005
60.98000 1.383
61.00000 0.733
61.02000 -1.200
61.04000 2.188
61.06000 1.889
61.08000 1.431
61.10000 -2.404
61.12000 -1.589
61.14000 0.981
61.16000 1.042
61.18000 4.318
61.20000 3.183
61.22000 4.839
61.24000 5.396
61.26000 2.889
61.28000 4.320
61.30000 3.417
61.32000 1.909
61.34000 0.831
61.36000 3.368
61.38000 6.238
61.40000 -0.170
61.42000 0.975
61.44000 2.178
61.46000 1.079
61.48000 -0.862
61.50000 2.723
61.52000 3.581
61.54000 3.754
61.56000 3.089
61.58000 -0.570
61.60000 -0.317
61.62000 2.963
61.64000 4.790
61.66000 1.655
61.68000 0.300
61.70000 -0.453
61.72000 2.813
61.74000 2.119
61.76000 -0.639
61.78000 2.084
61.80000 3.410
61.82000 3.085
61.84000 2.429
61.86000 5.117
61.88000 2.854
61.90000 2.325
61.92000 1.294
61.94000 1.541
61.96000 2.371
61.98000 1.286
62.00000 2.396
62.02000 1.268
62.04000 1.273
62.06000 -0.724
62.08000 0.514
62.10000 4.853
62.12000 2.248
62.14000 0.216
62.16000 -2.382
62.18000 0.958
62.20000 1.962
62.22000 0.749
62.24000 2.574
62.26000 -0.648
62.28000 0.936
62.30000 0.226
62.32000 0.688
62.34000 -1.619
62.36000 -0.045
62.38000 0.681
62.40000 3.078
62.42000 2.917
62.44000 2.569
62.46000 3.369
62.48000 4.063
62.50000 4.778
62.52000 2.767
62.54000 1.638
62.56000 -2.146
62.58000 -1.666
62.60000 -0.971
62.62000 0.735
62.64000 2.817
62.66000 1.743
62.68000 1.281
62.70000 1.514
62.72000 2.328
62.74000 3.152
62.76000 5.517
62.78000 4.072
62.80000 2.107
62.82000 3.913
62.84000 3.391
62.86000 2.684
62.88000 0.465
62.90000 1.220
62.92000 3.883
62.94000 2.225
62.96000 -0.012
62.98000 0.015
63.00000 1.364
63.02000 2.989
63.04000 4.294
63.06000 4.587
63.08000 2.194
63.10000 1.654
63.12000 1.999
63.14000 3.168
63.16000 4.000
63.18000 5.093
63.20000 1.548
63.22000 -2.353
63.24000 1.993
63.26000 4.881
63.28000 4.015
63.30000 5.178
63.32000 4.724
63.34000 2.946
63.36000 1.608
63.38000 0.268
63.40000 2.175
63.42000 0.724
63.44000 2.286
63.46000 3.760
63.48000 0.535
63.50000 3.434
63.52000 0.805
63.54000 1.141
63.56000 2.631
63.58000 4.997
63.60000 2.831
63.62000 2.173
63.64000 2.718
63.66000 0.822
63.68000 1.831
63.70000 3.433
63.72000 1.636
63.74000 -1.919
63.76000 1.822
63.78000 1.893
63.80000 1.244
63.82000 2.492
63.84000 5.497
63.86000 2.188
63.88000 1.400
63.90000 0.600
63.92000 -0.733
63.94000 1.383
63.96000 -1.205
63.98000 3.175
64.00000 3.614
64.02000 0.295
64.04000 2.046
64.06000 2.152
64.08000 3.521
64.10000 1.453
64.12000 0.344
64.14000 0.437
64.16000 4.161
64.18000 3.949
64.20000 -1.399
64.22000 0.769
64.24000 3.814
64.26000 1.750
64.28000 1.885
64.30000 0.975
64.32000 2.256
64.34000 0.297
64.36000 1.136
64.38000 1.966
64.40000 0.090
64.42000 0.450
64.44000 2.533
64.46000 0.852
64.48000 -0.858
64.50000 2.553
64.52000 2.269
64.54000 -1.616
64.56000 -2.377
64.58000 -1.103
64.60000 -0.661
64.62000 1.838
64.64000 2.212
64.66000 -1.452
64.68000 -0.507
64.70000 2.086
64.72000 4.520
64.74000 4.825
64.76000 5.733
64.78000 1.484
64.80000 1.307
64.82000 1.907
64.84000 3.503
64.86000 0.884
64.88000 1.574
64.90000 2.147
64.92000 1.901
64.94000 3.102
64.96000 4.238
64.98000 3.475
65.00000 2.057
65.02000 0.311
65.04000 1.373
65.06000 -0.159
65.08000 -1.267
65.10000 0.195
65.12000 2.680
65.14000 3.890
65.16000 3.114
65.18000 0.992
65.20000 0.242
65.22000 0.901
65.24000 -1.094
65.26000 -0.043
65.28000 1.850
65.30000 0.120
65.32000 -0.114
65.34000 -2.074
65.36000 -0.381
65.38000 0.345
65.40000 -1.231
65.42000 1.509
65.44000 1.391
65.46000 -0.135
65.48000 1.420
65.50000 2.916
65.52000 3.065
65.54000 2.769
65.56000 1.965
65.58000 3.343
65.60000 3.947
65.62000 0.527
65.64000 -0.599
65.66000 -2.373
65.68000 -0.370
65.70000 3.326
65.72000 4.255
65.74000 4.237
65.76000 1.443
65.78000 4.177
65.80000 2.870
65.82000 -0.143
65.84000 2.903
65.86000 1.231
65.88000 0.616
65.90000 -2.335
65.92000 0.399
65.94000 -2.387
65.96000 -1.248
65.98000 -0.424
66.00000 0.215
66.02000 1.334
66.04000 3.632
66.06000 2.042
66.08000 0.375
66.10000 1.718
66.12000 2.310
66.14000 0.516
66.16000 3.513
66.18000 1.280
66.20000 0.358
66.22000 -0.336
66.24000 0.578
66.26000 1.261
66.28000 0.983
66.30000 0.396
66.32000 1.400
66.34000 0.885
66.36000 -0.913
66.38000 1.979
66.40000 1.758
66.42000 -1.729
66.44000 -0.505
66.46000 0.422
66.48000 0.326
66.50000 1.565
66.52000 1.776
66.54000 -1.517
66.56000 -1.394
66.58000 -1.134
66.60000 0.149
66.62000 2.072
66.64000 1.448
66.66000 1.307
66.68000 2.524
66.70000 4.953
66.72000 4.972
66.74000 4.225
66.76000 5.382
66.78000 2.203
66.80000 -0.015
66.82000 1.106
66.84000 -1.553
66.86000 0.343
66.88000 0.865
66.90000 0.320
66.92000 2.358
66.94000 3.597
66.96000 0.067
66.98000 0.857
67.00000 2.431
67.02000 -0.687
67.04000 -0.901
67.06000 -2.414
67.08000 -0.517
67.10000 1.341
67.12000 0.666
67.14000 0.600
67.16000 -0.186
67.18000 -0.298
67.20000 -0.963
67.22000 0.217
67.24000 3.589
67.26000 2.854
67.28000 2.016
67.30000 0.596
67.32000 -0.229
67.34000 0.503
67.36000 0.446
67.38000 5.307
67.40000 5.985
67.42000 1.524
67.44000 0.783
67.46000 0.174
67.48000 2.949
67.50000 1.447
67.52000 2.672
67.54000 2.415
67.56000 0.640
67.58000 1.763
67.60000 -1.311
67.62000 1.106
67.64000 -2.459
67.66000 -1.044
67.68000 0.287
67.70000 1.965
67.72000 4.205
67.74000 2.100
67.76000 -1.249
67.78000 -2.333
67.80000 0.452
67.82000 2.049
67.84000 2.125
67.86000 3.807
67.88000 1.765
67.90000 0.563
67.92000 4.780
67.94000 2.163
67.96000 1.504
67.98000 1.353
68.00000 -0.190
68.02000 2.952
68.04000 8.277
68.06000 4.070
68.08000 4.266
68.10000 6.591
68.12000 4.623
68.14000 5.186
68.16000 6.654
68.18000 7.772
68.20000 6.708
68.22000 5.999
68.24000 6.908
68.26000 8.060
68.28000 10.808
68.30000 9.122
68.32000 7.934
68.34000 6.435
68.36000 6.564
68.38000 8.040
68.40000 8.397
68.42000 9.376
68.44000 10.582
68.46000 10.386
68.48000 10.099
68.50000 11.347
68.52000 14.822
68.54000 14.022
68.56000 14.162
68.58000 14.963
68.60000 14.827
68.62000 15.304
68.64000 13.986
68.66000 15.174
68.68000 21.163
68.70000 20.524
68.72000 18.770
68.74000 18.981
68.76000 14.501
68.78000 14.395
68.80000 19.379
68.82000 23.610
68.84000 23.278
68.86000 22.005
68.88000 21.282
68.90000 22.734
68.92000 18.314
68.94000 20.845
68.96000 20.880
68.98000 20.860
69.00000 19.170
69.02000 15.574
69.04000 18.088
69.06000 21.817
69.08000 21.405
69.10000 18.687
69.12000 17.468
69.14000 16.346
69.16000 17.946
69.18000 18.949
69.20000 15.434
69.22000 14.963
69.24000 16.605
69.26000 18.267
69.28000 16.181
69.30000 12.204
69.32000 12.660
69.34000 15.374
69.36000 13.641
69.38000 12.069
69.40000 13.629
69.42000 11.584
69.44000 12.009
69.46000 12.197
69.48000 11.774
69.50000 9.555
69.52000 9.931
69.54000 11.870
69.56000 10.221
69.58000 10.811
69.60000 7.957
69.62000 6.617
69.64000 9.036
69.66000 7.068
69.68000 6.247
69.70000 6.508
69.72000 5.708
69.74000 4.529
69.76000 5.237
69.78000 4.647
69.80000 4.895
69.82000 6.954
69.84000 6.456
69.86000 3.738
69.88000 6.057
69.90000 7.547
69.92000 7.748
69.94000 1.674
69.96000 2.082
69.98000 2.026
70.00000 3.849
70.02000 7.704
70.04000 8.500
70.06000 -0.162
70.08000 0.815
70.10000 8.004
70.12000 7.516
70.14000 2.788
70.16000 1.597
70.18000 2.915
70.20000 1.099
70.22000 -0.719
70.24000 0.125
70.26000 1.672
70.28000 0.915
70.30000 -1.293
70.32000 2.879
70.34000 3.862
70.36000 0.861
70.38000 0.317
70.40000 0.214
70.42000 1.843
70.44000 2.001
70.46000 1.134
70.48000 4.863
70.50000 5.122
70.52000 3.347
70.54000 3.468
70.56000 3.428
70.58000 3.349
70.60000 1.803
70.62000 5.279
70.64000 0.320
70.66000 3.741
70.68000 2.411
70.70000 3.615
70.72000 2.547
70.74000 4.219
70.76000 7.448
70.78000 7.922
70.80000 4.625
70.82000 1.914
70.84000 -2.230
70.86000 0.045
70.88000 4.332
70.90000 4.676
70.92000 1.192
70.94000 0.886
70.96000 -2.287
70.98000 -0.445
71.00000 2.078
71.02000 2.224
71.04000 1.154
71.06000 2.155
71.08000 1.974
71.10000 2.731
71.12000 3.897
71.14000 3.615
71.16000 1.107
71.18000 0.572
71.20000 1.906
71.22000 2.709
71.24000 3.558
71.26000 4.398
71.28000 5.887
71.30000 3.373
71.32000 4.066
71.34000 3.976
71.36000 1.466
71.38000 3.497
71.40000 2.303
71.42000 -0.065
71.44000 0.976
71.46000 2.163
71.48000 0.087
71.50000 0.147
71.52000 3.926
71.54000 4.331
71.56000 5.348
71.58000 5.169
71.60000 3.535
71.62000 3.741
71.64000 1.868
71.66000 2.577
71.68000 0.449
71.70000 2.036
71.72000 4.820
71.74000 5.394
71.76000 7.200
71.78000 9.126
71.80000 5.055
71.82000 3.229
71.84000 4.019
71.86000 2.014
71.88000 -2.204
71.90000 -1.552
71.92000 3.039
71.94000 0.604
71.96000 2.240
71.98000 5.226
72.00000 3.033
72.02000 6.947
72.04000 5.995
72.06000 2.943
72.08000 4.759
72.10000 4.303
72.12000 8.731
72.14000 5.805
72.16000 3.402
72.18000 2.711
72.20000 3.806
72.22000 2.337
72.24000 0.606
72.26000 1.520
72.28000 3.918
72.30000 4.171
72.32000 0.095
72.34000 0.672
72.36000 3.002
72.38000 6.613
72.40000 3.044
72.42000 1.182
72.44000 -1.317
72.46000 2.261
72.48000 5.297
72.50000 5.044
72.52000 3.531
72.54000 0.957
72.56000 0.367
72.58000 -0.816
72.60000 -2.223
72.62000 1.279
72.64000 -0.109
72.66000 1.385
72.68000 1.525
72.70000 2.851
72.72000 3.394
72.74000 2.333
72.76000 1.766
72.78000 1.732
72.80000 6.744
72.82000 4.921
72.84000 1.131
72.86000 1.836
72.88000 1.319
72.90000 -1.327
72.92000 0.812
72.94000 5.924
72.96000 2.441
72.98000 -0.547
73.00000 1.200
73.02000 2.488
73.04000 4.318
73.06000 2.114
73.08000 6.434
73.10000 3.862
73.12000 4.501
73.14000 2.855
73.16000 2.215
73.18000 1.808
73.20000 1.163
73.22000 0.650
73.24000 1.355
73.26000 1.947
73.28000 2.861
73.30000 3.247
73.32000 1.818
73.34000 1.627
73.36000 2.456
73.38000 4.314
73.40000 5.365
73.42000 6.327
73.44000 2.543
73.46000 -0.737
73.48000 -0.526
73.50000 -2.205
73.52000 0.649
73.54000 3.155
73.56000 1.806
73.58000 1.892
73.60000 5.565
73.62000 4.543
73.64000 -1.730
73.66000 -2.196
73.68000 3.802
73.70000 4.721
73.72000 3.135
73.74000 1.650
73.76000 6.685
73.78000 5.032
73.80000 2.311
73.82000 0.321
73.84000 -2.204
73.86000 5.792
73.88000 5.291
73.90000 3.125
73.92000 5.203
73.94000 8.077
73.96000 4.999
73.98000 2.029
74.00000 6.009
74.02000 0.129
74.04000 -1.147
74.06000 0.160
74.08000 3.156
74.10000 5.889
74.12000 4.072
74.14000 1.306
74.16000 0.654
74.18000 0.380
74.20000 1.527
74.22000 -0.992
74.24000 1.599
74.26000 2.394
74.28000 0.209
74.30000 1.371
74.32000 1.811
74.34000 5.312
74.36000 5.035
74.38000 1.811
74.40000 3.543
74.42000 5.709
74.44000 0.897
74.46000 1.254
74.48000 0.690
74.50000 0.689
74.52000 0.452
74.54000 4.871
74.56000 4.162
74.58000 1.848
74.60000 2.866
74.62000 1.159
74.64000 0.963
74.66000 0.865
74.68000 -0.656
74.70000 -1.119
74.72000 3.450
74.74000 1.106
74.76000 0.832
74.78000 4.238
74.80000 3.409
74.82000 -0.017
74.84000 -1.928
74.86000 -1.074
74.88000 -2.209
74.90000 2.052
74.92000 1.564
74.94000 0.686
74.96000 2.129
74.98000 2.070
75.00000 0.615
75.02000 4.808
75.04000 2.404
75.06000 1.279
75.08000 0.231
75.10000 4.400
75.12000 1.420
75.14000 1.272
75.16000 -0.954
75.18000 -0.538
75.20000 2.560
75.22000 2.219
75.24000 -0.194
75.26000 5.811
75.28000 4.791
75.30000 0.734
75.32000 0.237
75.34000 0.886
75.36000 4.219
75.38000 0.271
75.40000 3.523
75.42000 5.757
75.44000 5.912
75.46000 -0.754
75.48000 -2.193
75.50000 3.136
75.52000 7.659
75.54000 8.139
75.56000 7.919
75.58000 2.344
75.60000 4.616
75.62000 1.847
75.64000 -1.970
75.66000 0.470
75.68000 -2.045
75.70000 1.940
75.72000 4.094
75.74000 0.849
75.76000 0.272
75.78000 6.941
75.80000 7.580
75.82000 9.071
75.84000 0.681
75.86000 1.607
75.88000 1.843
75.90000 3.231
75.92000 2.164
75.94000 0.717
75.96000 3.187
75.98000 0.214
76.00000 0.667
76.02000 0.568
76.04000 0.049
76.06000 0.276
76.08000 0.538
76.10000 3.674
76.12000 1.331
76.14000 0.904
76.16000 5.002
76.18000 1.443
76.20000 1.313
76.22000 1.969
76.24000 0.027
76.26000 0.524
76.28000 1.198
76.30000 -1.090
76.32000 0.036
76.34000 4.290
76.36000 6.319
76.38000 5.868
76.40000 0.062
76.42000 -0.827
76.44000 0.062
76.46000 2.355
76.48000 0.925
76.50000 2.583
76.52000 1.971
76.54000 -0.067
76.56000 2.284
76.58000 2.262
76.60000 4.093
76.62000 1.161
76.64000 0.658
76.66000 2.924
76.68000 2.163
76.70000 -0.265
76.72000 -0.398
76.74000 1.823
76.76000 4.275
76.78000 3.788
76.80000 1.807
76.82000 3.064
76.84000 3.886
76.86000 -1.067
76.88000 -1.456
76.90000 -2.240
76.92000 -0.138
76.94000 1.801
76.96000 3.288
76.98000 4.616
77.00000 1.153
77.02000 4.069
77.04000 1.732
77.06000 -1.056
77.08000 1.708
77.10000 4.011
77.12000 -1.491
77.14000 -0.701
77.16000 0.576
77.18000 -0.406
77.20000 2.051
77.22000 5.972
77.24000 7.735
77.26000 3.148
77.28000 2.154
77.30000 1.843
77.32000 0.331
77.34000 0.995
77.36000 4.231
77.38000 3.869
77.40000 0.082
77.42000 -0.481
77.44000 1.835
77.46000 -0.015
77.48000 0.710
77.50000 2.699
77.52000 1.673
77.54000 2.153
77.56000 0.715
77.58000 -1.183
77.60000 -2.227
77.62000 1.975
77.64000 7.774
77.66000 5.467
77.68000 0.588
77.70000 3.215
77.72000 2.952
77.74000 1.095
77.76000 3.405
77.78000 7.865
77.80000 4.175
77.82000 5.690
77.84000 1.940
77.86000 -0.465
77.88000 -2.221
77.90000 2.487
77.92000 3.154
77.94000 2.762
77.96000 2.297
77.98000 3.986
78.00000 1.223
78.02000 6.302
78.04000 4.607
78.06000 5.240
78.08000 4.747
78.10000 1.882
78.12000 -1.229
78.14000 3.653
78.16000 10.069
78.18000 3.028
78.20000 1.056
78.22000 -0.303
78.24000 1.133
78.26000 2.858
78.28000 2.403
78.30000 3.664
78.32000 -2.242
78.34000 0.069
78.36000 0.527
78.38000 0.210
78.40000 2.385
78.42000 0.240
78.44000 0.124
78.46000 0.342
78.48000 6.280
78.50000 6.078
78.52000 5.384
78.54000 6.679
78.56000 -0.566
78.58000 2.045
78.60000 0.051
78.62000 -2.254
78.64000 -0.243
78.66000 2.212
78.68000 1.129
78.70000 -0.023
78.72000 2.269
78.74000 2.558
78.76000 2.619
78.78000 -0.009
78.80000 -0.342
78.82000 -0.953
78.84000 -0.695
78.86000 2.471
78.88000 3.652
78.90000 3.354
78.92000 0.700
78.94000 0.528
78.96000 0.631
78.98000 0.524
79.00000 -0.870
79.02000 -1.319
79.04000 0.388
79.06000 -0.604
79.08000 2.974
79.10000 5.845
79.12000 1.874
79.14000 2.669
79.16000 -1.487
79.18000 -0.925
79.20000 -0.830
79.22000 0.457
79.24000 3.871
79.26000 1.813
79.28000 -0.218
79.30000 3.272
79.32000 4.157
79.34000 1.903
79.36000 2.654
79.38000 -0.384
79.40000 -1.570
79.42000 -2.170
79.44000 -1.932
79.46000 3.391
79.48000 2.316
79.50000 3.116
79.52000 0.584
79.54000 2.084
79.56000 4.879
79.58000 1.027
79.60000 0.852
79.62000 0.276
79.64000 -1.556
79.66000 -2.278
79.68000 -0.482
79.70000 -0.295
79.72000 -1.585
79.74000 0.063
79.76000 4.077
79.78000 -0.286
79.80000 2.397
79.82000 7.113
79.84000 4.830
79.86000 4.104
79.88000 0.398
79.90000 -2.284
79.92000 -1.504
79.94000 -0.927
79.96000 -2.108
79.98000 -1.857
80.00000 1.588
80.02000 2.451
80.04000 5.015
80.06000 3.779
80.08000 4.309
80.10000 1.481
80.12000 -0.617
80.14000 1.280
80.16000 -0.692
80.18000 -1.379
80.20000 0.558
80.22000 0.331
80.24000 1.190
80.26000 1.761
80.28000 0.101
80.30000 0.713
80.32000 -1.597
80.34000 2.271
80.36000 2.697
80.38000 -2.063
80.40000 -2.288
80.42000 -0.114
80.44000 -1.343
80.46000 3.047
80.48000 -2.097
80.50000 -1.080
80.52000 -1.561
80.54000 2.757
80.56000 3.694
80.58000 -1.704
80.60000 -1.691
80.62000 -1.927
80.64000 -1.152
80.66000 3.237
80.68000 4.358
80.70000 2.759
80.72000 -0.756
80.74000 0.449
80.76000 2.060
80.78000 3.155
80.80000 4.548
80.82000 6.807
80.84000 1.534
80.86000 3.179
80.88000 3.674
80.90000 -0.666
80.92000 -0.729
80.94000 0.584
80.96000 0.667
80.98000 0.180
81.00000 -0.328
81.02000 1.861
81.04000 -1.350
81.06000 2.019
81.08000 -2.334
81.10000 -1.049
81.12000 -0.919
81.14000 -1.058
81.16000 -0.798
81.18000 -1.507
81.20000 -2.253
81.22000 -2.352
81.24000 -1.951
81.26000 1.760
81.28000 0.667
81.30000 -0.553
81.32000 -0.975
81.34000 0.649
81.36000 -0.361
81.38000 0.498
81.40000 1.890
81.42000 2.111
81.44000 5.439
81.46000 5.148
81.48000 2.746
81.50000 6.412
81.52000 6.896
81.54000 4.432
81.56000 0.342
81.58000 2.107
81.60000 2.826
81.62000 3.488
81.64000 1.724
81.66000 2.437
81.68000 5.188
81.70000 4.596
81.72000 7.673
81.74000 4.168
81.76000 -0.834
81.78000 -1.934
81.80000 2.469
81.82000 2.701
81.84000 -0.625
81.86000 0.498
81.88000 7.079
81.90000 9.497
81.92000 6.429
81.94000 4.612
81.96000 4.943
81.98000 2.358
82.00000 2.243
82.02000 6.703
82.04000 3.668
82.06000 2.146
82.08000 5.502
82.10000 8.895
82.12000 4.711
82.14000 4.093
82.16000 4.405
82.18000 6.060
82.20000 7.275
82.22000 6.112
82.24000 10.870
82.26000 9.062
82.28000 4.613
82.30000 5.892
82.32000 9.434
82.34000 9.950
82.36000 9.479
82.38000 9.418
82.40000 9.404
82.42000 9.946
82.44000 11.788
82.46000 16.684
82.48000 16.852
82.50000 17.475
82.52000 12.389
82.54000 13.391
82.56000 15.374
82.58000 14.091
82.60000 18.662
82.62000 17.587
82.64000 17.205
82.66000 15.156
82.68000 17.859
82.70000 17.853
82.72000 19.130
82.74000 20.530
82.76000 19.659
82.78000 19.183
82.80000 20.727
82.82000 19.672
82.84000 17.772
82.86000 21.898
82.88000 19.936
82.90000 19.860
82.92000 23.143
82.94000 24.170
82.96000 23.383
82.98000 25.080
83.00000 26.700
83.02000 29.106
83.04000 27.679
83.06000 27.654
83.08000 26.590
83.10000 22.319
83.12000 23.466
83.14000 26.384
83.16000 31.708
83.18000 29.595
83.20000 25.867
83.22000 27.203
83.24000 29.863
83.26000 34.389
83.28000 32.487
83.30000 32.746
83.32000 29.953
83.34000 26.624
83.36000 31.134
83.38000 28.097
83.40000 23.173
83.42000 23.291
83.44000 24.865
83.46000 25.924
83.48000 29.079
83.50000 26.378
83.52000 25.394
83.54000 23.431
83.56000 20.220
83.58000 21.936
83.60000 24.091
83.62000 21.500
83.64000 22.293
83.66000 25.202
83.68000 21.286
83.70000 20.845
83.72000 24.154
83.74000 19.604
83.76000 17.065
83.78000 17.318
83.80000 16.164
83.82000 20.823
83.84000 20.583
83.86000 19.245
83.88000 17.541
83.90000 21.119
83.92000 17.627
83.94000 9.034
83.96000 9.764
83.98000 9.882
84.00000 12.116
84.02000 17.444
84.04000 14.984
84.06000 12.480
84.08000 15.590
84.10000 16.268
84.12000 8.030
84.14000 10.387
84.16000 12.830
84.18000 8.980
84.20000 11.681
84.22000 6.958
84.24000 8.199
84.26000 11.513
84.28000 17.060
84.30000 13.717
84.32000 9.256
84.34000 9.580
84.36000 10.537
84.38000 9.022
84.40000 8.301
84.42000 10.878
84.44000 8.698
84.46000 5.999
84.48000 5.059
84.50000 7.375
84.52000 4.328
84.54000 4.463
84.56000 3.340
84.58000 4.883
84.60000 4.787
84.62000 6.100
84.64000 3.324
84.66000 4.657
84.68000 3.314
84.70000 5.733
84.72000 5.287
84.74000 3.323
84.76000 2.552
84.78000 2.992
84.80000 2.878
84.82000 -0.069
84.84000 1.685
84.86000 1.522
84.88000 2.604
84.90000 4.879
84.92000 2.207
84.94000 1.501
84.96000 5.388
84.98000 4.761
85.00000 2.271
85.02000 -2.312
85.04000 -0.957
85.06000 1.223
85.08000 -1.383
85.10000 -0.960
85.12000 -1.351
85.14000 -0.138
85.16000 0.936
85.18000 1.043
85.20000 0.791
85.22000 1.345
85.24000 3.693
85.26000 4.453
85.28000 7.291
85.30000 7.679
85.32000 4.490
85.34000 2.332
85.36000 4.022
85.38000 0.737
85.40000 2.104
85.42000 0.524
85.44000 -2.261
85.46000 0.461
85.48000 -0.539
85.50000 1.759
85.52000 5.140
85.54000 1.208
85.56000 4.669
85.58000 5.612
85.60000 3.416
85.62000 2.592
85.64000 2.898
85.66000 0.145
85.68000 -1.668
85.70000 -2.260
85.72000 0.795
85.74000 1.175
85.76000 1.947
85.78000 -0.339
85.80000 2.570
85.82000 2.624
85.84000 0.709
85.86000 1.376
85.88000 3.537
85.90000 1.646
85.92000 3.561
85.94000 4.436
85.96000 4.113
85.98000 3.634
86.00000 3.042
86.02000 5.227
86.04000 5.966
86.06000 3.585
86.08000 5.325
86.10000 6.253
86.12000 2.583
86.14000 3.076
86.16000 5.486
86.18000 8.479
86.20000 6.669
86.22000 3.403
86.24000 2.437
86.26000 4.561
86.28000 3.236
86.30000 1.882
86.32000 2.293
86.34000 0.861
86.36000 1.139
86.38000 3.821
86.40000 6.315
86.42000 6.460
86.44000 3.877
86.46000 -2.239
86.48000 -0.690
86.50000 1.429
86.52000 3.161
86.54000 5.148
86.56000 5.356
86.58000 1.893
86.60000 1.903
86.62000 0.939
86.64000 1.254
86.66000 6.170
86.68000 4.817
86.70000 2.996
86.72000 6.471
86.74000 10.756
86.76000 6.065
86.78000 6.957
86.80000 8.332
86.82000 8.662
86.84000 6.167
86.86000 6.471
86.88000 4.097
86.90000 3.933
86.92000 8.660
86.94000 11.165
86.96000 13.319
86.98000 8.196
87.00000 15.471
87.02000 11.142
87.04000 9.050
87.06000 13.936
87.08000 17.058
87.10000 17.256
87.12000 12.544
87.14000 7.752
87.16000 8.878
87.18000 6.975
87.20000 13.061
87.22000 13.209
87.24000 11.476
87.26000 5.644
87.28000 11.948
87.30000 16.482
87.32000 16.330
87.34000 16.742
87.36000 16.554
87.38000 12.959
87.40000 18.168
87.42000 11.379
87.44000 14.596
87.46000 18.500
87.48000 19.205
87.50000 17.405
87.52000 17.517
87.54000 18.282
87.56000 18.739
87.58000 19.869
87.60000 21.691
87.62000 21.851
87.64000 18.679
87.66000 20.752
87.68000 21.418
87.70000 16.210
87.72000 21.642
87.74000 17.662
87.76000 16.751
87.78000 15.642
87.80000 17.759
87.82000 22.093
87.84000 20.091
87.86000 21.075
87.88000 22.821
87.90000 21.220
87.92000 21.342
87.94000 21.342
87.96000 16.663
87.98000 14.999
88.00000 15.636
88.02000 12.404
88.04000 14.246
88.06000 11.809
88.08000 16.110
88.10000 18.417
88.12000 19.855
88.14000 16.762
88.16000 17.967
88.18000 17.199
88.20000 9.331
88.22000 11.437
88.24000 11.540
88.26000 11.615
88.28000 14.298
88.30000 13.963
88.32000 16.162
88.34000 18.377
88.36000 16.423
88.38000 13.795
88.40000 9.788
88.42000 3.384
88.44000 3.487
88.46000 6.559
88.48000 11.399
88.50000 5.280
88.52000 6.268
88.54000 13.926
88.56000 14.612
88.58000 11.799
88.60000 13.750
88.62000 13.322
88.64000 8.363
88.66000 3.760
88.68000 1.603
88.70000 3.504
88.72000 5.134
88.74000 8.731
88.76000 9.035
88.78000 6.861
88.80000 6.582
88.82000 6.618
88.84000 5.234
88.86000 6.543
88.88000 4.243
88.90000 2.142
88.92000 4.024
88.94000 3.598
88.96000 3.835
88.98000 2.195
89.00000 4.957
89.02000 3.864
89.04000 1.281
89.06000 3.901
89.08000 3.152
89.10000 7.430
89.12000 3.780
89.14000 3.655
89.16000 -2.167
89.18000 1.402
89.20000 3.254
89.22000 2.417
89.24000 2.881
89.26000 -0.447
89.28000 -1.043
89.30000 3.498
89.32000 4.292
89.34000 1.998
89.36000 0.075
89.38000 3.293
89.40000 2.874
89.42000 3.816
89.44000 5.754
89.46000 3.675
89.48000 2.951
89.50000 1.524
89.52000 4.902
89.54000 7.790
89.56000 5.410
89.58000 1.032
89.60000 4.716
89.62000 4.021
89.64000 9.000
89.66000 8.246
89.68000 5.223
89.70000 5.853
89.72000 6.627
89.74000 2.291
89.76000 3.770
89.78000 0.539
89.80000 -1.356
89.82000 3.029
89.84000 2.839
89.86000 3.294
89.88000 3.442
89.90000 0.806
89.92000 0.866
89.94000 -1.128
89.96000 -2.123
89.98000 -0.400
90.00000 2.379
90.02000 1.355
90.04000 -0.683
90.06000 2.700
90.08000 2.559
90.10000 4.764
90.12000 5.600
90.14000 5.733
90.16000 1.509
90.18000 0.887
90.20000 0.988
90.22000 4.977
90.24000 4.466
90.26000 1.750
90.28000 3.992
90.30000 1.981
90.32000 1.296
90.34000 0.327
90.36000 0.421
90.38000 3.996
90.40000 5.817
90.42000 4.435
90.44000 0.161
90.46000 -2.100
90.48000 -2.095
90.50000 0.296
90.52000 2.387
90.54000 1.154
90.56000 2.086
90.58000 4.248
90.60000 3.910
90.62000 2.398
90.64000 5.656
90.66000 5.541
90.68000 2.133
90.70000 -0.073
90.72000 3.312
90.74000 5.215
90.76000 4.355
90.78000 3.016
90.80000 2.722
90.82000 3.973
90.84000 0.266
90.86000 -1.431
90.88000 0.774
90.90000 3.403
90.92000 0.627
90.94000 -2.113
90.96000 0.961
90.98000 8.066
91.00000 6.419
91.02000 2.637
91.04000 2.848
91.06000 2.607
91.08000 0.586
91.10000 -0.782
91.12000 0.895
91.14000 5.170
91.16000 3.019
91.18000 1.420
91.20000 2.492
91.22000 4.138
91.24000 1.653
91.26000 0.490
91.28000 3.342
91.30000 3.332
91.32000 2.182
91.34000 1.182
91.36000 -0.221
91.38000 -0.316
91.40000 2.222
91.42000 0.929
91.44000 -1.630
91.46000 3.355
91.48000 3.418
91.50000 3.576
91.52000 1.620
91.54000 0.691
91.56000 2.345
91.58000 2.519
91.60000 3.006
91.62000 2.106
91.64000 -0.317
91.66000 3.137
91.68000 8.948
91.70000 4.550
91.72000 0.964
91.74000 1.291
91.76000 0.732
91.78000 0.878
91.80000 3.682
91.82000 -2.118
91.84000 2.148
91.86000 3.907
91.88000 4.062
91.90000 -0.584
91.92000 1.254
91.94000 4.530
91.96000 0.855
91.98000 -0.930
92.00000 3.060
92.02000 5.314
92.04000 5.577
92.06000 4.214
92.08000 -2.110
92.10000 0.740
92.12000 4.707
92.14000 4.555
92.16000 6.737
92.18000 4.318
92.20000 2.469
92.22000 6.540
92.24000 2.727
92.26000 4.190
92.28000 4.997
92.30000 4.062
92.32000 3.347
92.34000 1.241
92.36000 -0.050
92.38000 2.866
92.40000 0.812
92.42000 -0.764
92.44000 -0.911
92.46000 -0.533
92.48000 1.640
92.50000 -2.104
92.52000 -0.001
92.54000 5.660
92.56000 7.632
92.58000 0.572
92.60000 -0.644
92.62000 1.729
92.64000 3.146
92.66000 2.091
92.68000 3.572
92.70000 2.347
92.72000 4.072
92.74000 3.664
92.76000 4.218
92.78000 2.490
92.80000 6.285
92.82000 8.357
92.84000 1.384
92.86000 3.373
92.88000 4.486
92.90000 6.768
92.92000 2.706
92.94000 3.398
92.96000 3.454
92.98000 3.181
93.00000 -2.086
93.02000 -0.286
93.04000 3.148
93.06000 6.416
93.08000 7.202
93.10000 8.494
93.12000 11.210
93.14000 8.111
93.16000 5.405
93.18000 6.860
93.20000 5.853
93.22000 7.152
93.24000 5.226
93.26000 2.435
93.28000 4.271
93.30000 -0.526
93.32000 0.403
93.34000 0.530
93.36000 2.396
93.38000 4.482
93.40000 2.387
93.42000 -0.289
93.44000 1.306
93.46000 4.872
93.48000 7.068
93.50000 2.519
93.52000 1.786
93.54000 6.998
93.56000 2.002
93.58000 4.764
93.60000 0.642
93.62000 -2.107
93.64000 -0.662
93.66000 0.525
93.68000 0.595
93.70000 4.050
93.72000 3.393
93.74000 5.281
93.76000 3.159
93.78000 5.753
93.80000 5.372
93.82000 4.172
93.84000 4.724
93.86000 2.236
93.88000 2.379
93.90000 3.907
93.92000 7.835
93.94000 2.889
93.96000 0.819
93.98000 2.202
94.00000 0.927
94.02000 -0.194
94.04000 1.875
94.06000 -0.144
94.08000 0.414
94.10000 3.022
94.12000 6.901
94.14000 4.807
94.16000 2.503
94.18000 5.644
94.20000 9.065
94.22000 4.211
94.24000 3.616
94.26000 6.824
94.28000 8.325
94.30000 6.844
94.32000 7.455
94.34000 -0.856
94.36000 -1.557
94.38000 -0.231
94.40000 1.201
94.42000 4.355
94.44000 3.664
94.46000 1.718
94.48000 1.433
94.50000 2.132
94.52000 2.672
94.54000 0.620
94.56000 4.672
94.58000 2.737
94.60000 1.021
94.62000 4.528
94.64000 8.628
94.66000 6.177
94.68000 2.010
94.70000 -2.108
94.72000 0.199
94.74000 -1.668
94.76000 -1.004
94.78000 3.271
94.80000 5.794
94.82000 3.580
94.84000 -1.216
94.86000 1.001
94.88000 0.022
94.90000 -0.443
94.92000 4.884
94.94000 7.543
94.96000 1.625
94.98000 6.920
95.00000 5.571
95.02000 5.738
95.04000 6.372
95.06000 5.396
95.08000 5.912
95.10000 1.929
95.12000 0.114
95.14000 2.284
95.16000 -1.951
95.18000 0.034
95.20000 4.845
95.22000 6.018
95.24000 5.642
95.26000 3.287
95.28000 -0.618
95.30000 3.081
95.32000 2.436
95.34000 3.524
95.36000 7.601
95.38000 13.574
95.40000 9.442
95.42000 7.906
95.44000 3.718
95.46000 -1.053
95.48000 -1.553
95.50000 2.759
95.52000 9.009
95.54000 8.322
95.56000 9.274
95.58000 9.893
95.60000 10.316
95.62000 2.871
95.64000 3.013
95.66000 5.432
95.68000 4.355
95.70000 7.983
95.72000 13.137
95.74000 11.312
95.76000 12.967
95.78000 14.417
95.80000 11.198
95.82000 11.249
95.84000 11.090
95.86000 11.228
95.88000 6.763
95.90000 7.270
95.92000 8.682
95.94000 4.640
95.96000 -2.029
95.98000 0.690
96.00000 5.531
96.02000 7.255
96.04000 7.693
96.06000 7.263
96.08000 6.222
96.10000 7.407
96.12000 8.509
96.14000 2.465
96.16000 3.482
96.18000 2.266
96.20000 8.453
96.22000 10.310
96.24000 7.190
96.26000 10.069
96.28000 9.749
96.30000 4.710
96.32000 3.317
96.34000 5.293
96.36000 4.249
96.38000 3.040
96.40000 3.300
96.42000 3.438
96.44000 7.359
96.46000 2.388
96.48000 5.857
96.50000 6.586
96.52000 7.590
96.54000 5.593
96.56000 6.763
96.58000 4.599
96.60000 11.026
96.62000 10.286
96.64000 7.104
96.66000 6.195
96.68000 3.850
96.70000 7.750
96.72000 1.824
96.74000 0.929
96.76000 5.517
96.78000 7.638
96.80000 4.485
96.82000 1.452
96.84000 5.963
96.86000 9.116
96.88000 7.387
96.90000 8.893
96.92000 9.455
96.94000 6.330
96.96000 3.430
96.98000 4.024
97.00000 8.722
97.02000 7.470
97.04000 4.319
97.06000 4.427
97.08000 7.452
97.10000 12.698
97.12000 5.357
97.14000 0.035
97.16000 3.027
97.18000 4.353
97.20000 3.850
97.22000 -0.267
97.24000 3.738
97.26000 0.857
97.28000 4.540
97.30000 10.563
97.32000 7.050
97.34000 8.560
97.36000 6.327
97.38000 8.440
97.40000 4.330
97.42000 7.157
97.44000 6.028
97.46000 3.790
97.48000 -0.763
97.50000 4.764
97.52000 5.741
97.54000 8.879
97.56000 12.338
97.58000 13.080
97.60000 10.332
97.62000 3.190
97.64000 1.270
97.66000 -2.021
97.68000 2.119
97.70000 14.981
97.72000 13.383
97.74000 7.239
97.76000 10.070
97.78000 5.176
97.80000 2.935
97.82000 5.095
97.84000 9.230
97.86000 8.655
97.88000 6.361
97.90000 2.780
97.92000 8.384
97.94000 4.643
97.96000 3.984
97.98000 1.028
98.00000 5.951
98.02000 5.070
98.04000 3.078
98.06000 7.187
98.08000 8.072
98.10000 7.982
98.12000 5.331
98.14000 6.706
98.16000 11.115
98.18000 8.331
98.20000 10.630
98.22000 11.904
98.24000 1.905
98.26000 2.907
98.28000 9.809
98.30000 7.128
98.32000 6.859
98.34000 9.821
98.36000 10.362
98.38000 8.885
98.40000 7.616
98.42000 0.901
98.44000 6.301
98.46000 11.617
98.48000 10.926
98.50000 5.741
98.52000 8.405
98.54000 6.966
98.56000 5.470
98.58000 5.662
98.60000 10.208
98.62000 10.233
98.64000 10.212
98.66000 18.160
98.68000 15.957
98.70000 8.328
98.72000 11.756
98.74000 4.230
98.76000 3.611
98.78000 9.131
98.80000 9.530
98.82000 13.173
98.84000 10.630
98.86000 10.738
98.88000 5.823
98.90000 13.942
98.92000 10.020
98.94000 8.092
98.96000 7.138
98.98000 4.400
99.00000 3.347
99.02000 6.886
99.04000 2.202
99.06000 -1.941
99.08000 6.732
99.10000 12.157
99.12000 11.221
99.14000 11.075
99.16000 5.325
99.18000 8.398
99.20000 8.428
99.22000 9.366
99.24000 8.067
99.26000 7.016
99.28000 9.815
99.30000 8.203
99.32000 5.351
99.34000 13.332
99.36000 16.535
99.38000 8.013
99.40000 5.965
99.42000 3.143
99.44000 0.242
99.46000 7.208
99.48000 15.734
99.50000 8.324
99.52000 7.396
99.54000 11.424
99.56000 4.814
99.58000 10.496
99.60000 13.159
99.62000 7.455
99.64000 8.591
99.66000 -0.816
99.68000 -2.017
99.70000 6.638
99.72000 -1.603
99.74000 2.648
99.76000 4.404
99.78000 6.329
99.80000 17.014
99.82000 12.858
99.84000 2.059
99.86000 -0.078
99.88000 0.853
99.90000 7.248
99.92000 8.775
99.94000 8.631
99.96000 5.874
99.98000 0.000
