'Id: "0011389" Comment: "Integrate frame 0011389_Au-Ir-Rh_Au-Rich_XRD_Mapping-264-0000.gfrmwith cursor Wedge Cursor #5" Operator: "B?rgel" Anode: "Cu" Wavelength: "1.5406" Scantype: "2Theta (TwoTheta)" TimePerStep: "1" X: "-22.5" Y: "22.5" Z: "5.95" 
10.00000 0.000
10.02000 -4.544
10.04000 2.259
10.06000 -1.329
10.08000 9.888
10.10000 30.716
10.12000 23.667
10.14000 10.948
10.16000 13.740
10.18000 6.545
10.20000 14.514
10.22000 29.765
10.24000 42.482
10.26000 13.144
10.28000 7.422
10.30000 23.757
10.32000 15.548
10.34000 13.700
10.36000 19.131
10.38000 14.128
10.40000 -2.502
10.42000 5.106
10.44000 9.180
10.46000 6.529
10.48000 9.237
10.50000 -2.243
10.52000 4.537
10.54000 1.553
10.56000 7.403
10.58000 17.171
10.60000 14.665
10.62000 7.216
10.64000 -1.206
10.66000 10.939
10.68000 17.263
10.70000 23.492
10.72000 24.395
10.74000 26.776
10.76000 17.111
10.78000 3.399
10.80000 10.218
10.82000 18.640
10.84000 18.240
10.86000 2.048
10.88000 14.433
10.90000 15.352
10.92000 14.633
10.94000 27.335
10.96000 6.080
10.98000 8.047
11.00000 7.322
11.02000 14.210
11.04000 11.410
11.06000 3.261
11.08000 19.828
11.10000 19.210
11.12000 15.885
11.14000 8.628
11.16000 -4.352
11.18000 -4.518
11.20000 3.840
11.22000 23.453
11.24000 25.376
11.26000 21.122
11.28000 11.814
11.30000 3.281
11.32000 12.592
11.34000 4.124
11.36000 0.753
11.38000 -4.523
11.40000 -1.201
11.42000 7.302
11.44000 6.776
11.46000 10.815
11.48000 7.520
11.50000 6.132
11.52000 5.537
11.54000 7.942
11.56000 10.149
11.58000 16.334
11.60000 14.583
11.62000 -0.785
11.64000 -0.122
11.66000 1.861
11.68000 -1.354
11.70000 4.458
11.72000 8.197
11.74000 18.665
11.76000 18.668
11.78000 24.883
11.80000 15.305
11.82000 1.743
11.84000 1.287
11.86000 11.436
11.88000 1.764
11.90000 1.206
11.92000 7.913
11.94000 14.979
11.96000 14.168
11.98000 12.085
12.00000 12.564
12.02000 10.526
12.04000 8.146
12.06000 13.252
12.08000 5.824
12.10000 4.042
12.12000 13.536
12.14000 19.786
12.16000 10.544
12.18000 2.937
12.20000 2.006
12.22000 1.096
12.24000 1.931
12.26000 7.955
12.28000 10.408
12.30000 4.071
12.32000 0.460
12.34000 14.390
12.36000 15.449
12.38000 10.475
12.40000 -1.100
12.42000 10.600
12.44000 11.343
12.46000 3.373
12.48000 5.865
12.50000 4.335
12.52000 13.450
12.54000 12.248
12.56000 8.327
12.58000 6.140
12.60000 7.451
12.62000 6.529
12.64000 19.618
12.66000 24.676
12.68000 28.371
12.70000 19.462
12.72000 0.875
12.74000 5.584
12.76000 -2.352
12.78000 16.515
12.80000 16.952
12.82000 5.611
12.84000 12.156
12.86000 8.241
12.88000 4.923
12.90000 3.240
12.92000 9.823
12.94000 3.533
12.96000 10.688
12.98000 4.542
13.00000 4.756
13.02000 -1.050
13.04000 3.110
13.06000 4.086
13.08000 2.532
13.10000 9.222
13.12000 10.487
13.14000 9.017
13.16000 2.094
13.18000 11.146
13.20000 9.504
13.22000 10.397
13.24000 13.421
13.26000 7.344
13.28000 9.852
13.30000 10.153
13.32000 3.491
13.34000 1.048
13.36000 7.575
13.38000 6.244
13.40000 3.873
13.42000 3.393
13.44000 -2.776
13.46000 -1.803
13.48000 8.921
13.50000 9.637
13.52000 7.109
13.54000 -3.676
13.56000 -4.567
13.58000 -2.431
13.60000 3.398
13.62000 10.554
13.64000 9.881
13.66000 8.440
13.68000 11.969
13.70000 17.591
13.72000 18.685
13.74000 0.117
13.76000 -2.867
13.78000 8.631
13.80000 9.131
13.82000 3.038
13.84000 8.609
13.86000 2.398
13.88000 5.243
13.90000 11.421
13.92000 15.321
13.94000 17.959
13.96000 17.910
13.98000 3.225
14.00000 6.215
14.02000 5.866
14.04000 11.005
14.06000 7.665
14.08000 6.812
14.10000 7.266
14.12000 8.089
14.14000 5.298
14.16000 2.270
14.18000 2.293
14.20000 6.628
14.22000 -2.569
14.24000 13.683
14.26000 10.168
14.28000 0.572
14.30000 5.071
14.32000 14.881
14.34000 6.654
14.36000 7.138
14.38000 5.983
14.40000 5.152
14.42000 2.274
14.44000 9.906
14.46000 1.898
14.48000 2.054
14.50000 18.447
14.52000 20.117
14.54000 6.440
14.56000 12.564
14.58000 14.978
14.60000 14.212
14.62000 14.532
14.64000 15.223
14.66000 5.896
14.68000 4.272
14.70000 5.071
14.72000 6.833
14.74000 1.022
14.76000 4.013
14.78000 3.821
14.80000 -0.856
14.82000 8.031
14.84000 -1.423
14.86000 -1.941
14.88000 -1.926
14.90000 1.383
14.92000 10.512
14.94000 16.726
14.96000 10.934
14.98000 5.401
15.00000 5.450
15.02000 8.089
15.04000 8.912
15.06000 5.786
15.08000 8.078
15.10000 3.551
15.12000 1.928
15.14000 1.038
15.16000 0.702
15.18000 -0.103
15.20000 2.623
15.22000 4.318
15.24000 6.280
15.26000 8.925
15.28000 0.676
15.30000 8.874
15.32000 3.768
15.34000 8.023
15.36000 8.531
15.38000 5.954
15.40000 5.771
15.42000 7.511
15.44000 7.030
15.46000 7.293
15.48000 7.412
15.50000 8.095
15.52000 5.281
15.54000 2.585
15.56000 -2.434
15.58000 -1.003
15.60000 0.136
15.62000 5.076
15.64000 6.616
15.66000 7.732
15.68000 4.934
15.70000 8.610
15.72000 2.252
15.74000 5.382
15.76000 3.931
15.78000 1.233
15.80000 9.123
15.82000 1.437
15.84000 -0.221
15.86000 2.609
15.88000 6.038
15.90000 6.972
15.92000 8.307
15.94000 12.574
15.96000 8.446
15.98000 -4.458
16.00000 3.440
16.02000 5.841
16.04000 10.465
16.06000 6.385
16.08000 3.945
16.10000 11.698
16.12000 8.234
16.14000 10.444
16.16000 18.654
16.18000 14.600
16.20000 12.940
16.22000 9.393
16.24000 7.357
16.26000 8.241
16.28000 6.624
16.30000 2.123
16.32000 -2.210
16.34000 -0.405
16.36000 3.212
16.38000 7.068
16.40000 12.420
16.42000 13.754
16.44000 9.090
16.46000 13.379
16.48000 23.065
16.50000 17.297
16.52000 8.120
16.54000 9.679
16.56000 0.371
16.58000 -4.443
16.60000 -2.392
16.62000 1.758
16.64000 13.797
16.66000 13.094
16.68000 8.813
16.70000 9.763
16.72000 6.584
16.74000 5.152
16.76000 1.123
16.78000 1.649
16.80000 2.870
16.82000 3.957
16.84000 1.189
16.86000 6.044
16.88000 15.903
16.90000 9.872
16.92000 3.156
16.94000 8.074
16.96000 8.803
16.98000 10.743
17.00000 3.064
17.02000 -0.511
17.04000 6.394
17.06000 5.905
17.08000 4.449
17.10000 0.877
17.12000 -2.914
17.14000 13.961
17.16000 12.714
17.18000 -1.870
17.20000 -2.515
17.22000 1.063
17.24000 2.458
17.26000 11.769
17.28000 11.724
17.30000 10.018
17.32000 6.722
17.34000 9.319
17.36000 10.464
17.38000 8.052
17.40000 3.633
17.42000 5.232
17.44000 11.600
17.46000 10.925
17.48000 1.696
17.50000 7.410
17.52000 4.739
17.54000 3.824
17.56000 4.032
17.58000 6.373
17.60000 5.295
17.62000 1.537
17.64000 4.079
17.66000 6.952
17.68000 7.995
17.70000 1.397
17.72000 -2.244
17.74000 -3.764
17.76000 6.582
17.78000 1.968
17.80000 2.752
17.82000 0.719
17.84000 1.740
17.86000 -2.788
17.88000 5.650
17.90000 13.725
17.92000 7.439
17.94000 5.649
17.96000 1.784
17.98000 -2.423
18.00000 -2.124
18.02000 5.668
18.04000 -0.899
18.06000 -0.137
18.08000 5.171
18.10000 3.667
18.12000 2.940
18.14000 8.185
18.16000 5.952
18.18000 7.632
18.20000 6.413
18.22000 2.446
18.24000 3.493
18.26000 9.527
18.28000 10.150
18.30000 3.492
18.32000 8.181
18.34000 13.038
18.36000 3.595
18.38000 -1.767
18.40000 4.226
18.42000 2.949
18.44000 2.347
18.46000 7.489
18.48000 7.277
18.50000 3.862
18.52000 7.350
18.54000 2.262
18.56000 1.416
18.58000 1.040
18.60000 6.672
18.62000 9.520
18.64000 9.333
18.66000 10.537
18.68000 9.447
18.70000 9.376
18.72000 -1.460
18.74000 -4.326
18.76000 -0.805
18.78000 9.818
18.80000 9.245
18.82000 6.221
18.84000 5.497
18.86000 7.575
18.88000 6.670
18.90000 12.696
18.92000 18.023
18.94000 15.136
18.96000 5.068
18.98000 7.069
19.00000 6.104
19.02000 -3.647
19.04000 1.569
19.06000 8.587
19.08000 2.938
19.10000 -2.632
19.12000 -3.402
19.14000 3.550
19.16000 9.021
19.18000 10.729
19.20000 5.752
19.22000 -1.201
19.24000 4.363
19.26000 4.325
19.28000 6.324
19.30000 7.679
19.32000 4.891
19.34000 6.373
19.36000 3.065
19.38000 -0.920
19.40000 5.120
19.42000 2.861
19.44000 5.515
19.46000 -0.676
19.48000 -3.994
19.50000 3.106
19.52000 -0.686
19.54000 3.033
19.56000 7.190
19.58000 7.164
19.60000 6.336
19.62000 10.315
19.64000 9.638
19.66000 5.715
19.68000 16.451
19.70000 14.700
19.72000 4.078
19.74000 7.936
19.76000 9.690
19.78000 2.314
19.80000 7.327
19.82000 3.433
19.84000 -4.243
19.86000 1.139
19.88000 13.839
19.90000 19.498
19.92000 10.223
19.94000 5.131
19.96000 3.767
19.98000 6.066
20.00000 5.595
20.02000 4.118
20.04000 6.353
20.06000 4.748
20.08000 1.887
20.10000 11.506
20.12000 14.449
20.14000 9.743
20.16000 2.511
20.18000 1.952
20.20000 6.753
20.22000 5.428
20.24000 4.192
20.26000 3.650
20.28000 5.334
20.30000 10.756
20.32000 7.099
20.34000 1.835
20.36000 4.726
20.38000 2.188
20.40000 7.714
20.42000 1.437
20.44000 0.369
20.46000 9.204
20.48000 13.021
20.50000 8.841
20.52000 14.818
20.54000 8.697
20.56000 4.963
20.58000 7.858
20.60000 0.420
20.62000 0.815
20.64000 12.094
20.66000 16.834
20.68000 16.803
20.70000 12.891
20.72000 5.335
20.74000 1.817
20.76000 0.970
20.78000 1.643
20.80000 1.664
20.82000 6.513
20.84000 8.646
20.86000 6.802
20.88000 -2.893
20.90000 0.471
20.92000 9.784
20.94000 11.420
20.96000 3.115
20.98000 2.181
21.00000 1.152
21.02000 -0.317
21.04000 2.460
21.06000 4.551
21.08000 2.326
21.10000 7.728
21.12000 8.953
21.14000 2.440
21.16000 -2.229
21.18000 -4.174
21.20000 1.974
21.22000 4.973
21.24000 9.763
21.26000 5.158
21.28000 3.804
21.30000 5.480
21.32000 7.598
21.34000 2.406
21.36000 2.932
21.38000 4.619
21.40000 4.655
21.42000 5.302
21.44000 5.370
21.46000 -1.011
21.48000 7.252
21.50000 7.862
21.52000 3.946
21.54000 -3.098
21.56000 -2.708
21.58000 -4.145
21.60000 4.000
21.62000 8.683
21.64000 8.147
21.66000 9.780
21.68000 6.838
21.70000 8.345
21.72000 6.010
21.74000 0.480
21.76000 -1.493
21.78000 3.566
21.80000 0.640
21.82000 -0.945
21.84000 4.969
21.86000 5.014
21.88000 5.408
21.90000 -0.022
21.92000 1.909
21.94000 3.460
21.96000 2.063
21.98000 -0.350
22.00000 0.476
22.02000 -0.445
22.04000 3.563
22.06000 10.714
22.08000 4.634
22.10000 1.174
22.12000 -3.467
22.14000 -4.131
22.16000 -2.573
22.18000 4.197
22.20000 1.982
22.22000 -2.556
22.24000 1.055
22.26000 2.886
22.28000 8.253
22.30000 4.182
22.32000 6.666
22.34000 8.233
22.36000 5.187
22.38000 8.147
22.40000 6.119
22.42000 6.260
22.44000 7.713
22.46000 7.698
22.48000 2.531
22.50000 4.955
22.52000 -0.070
22.54000 2.397
22.56000 1.742
22.58000 1.995
22.60000 4.913
22.62000 2.089
22.64000 2.478
22.66000 -0.584
22.68000 -2.393
22.70000 7.796
22.72000 11.663
22.74000 6.935
22.76000 9.966
22.78000 11.551
22.80000 -0.767
22.82000 3.203
22.84000 2.024
22.86000 4.599
22.88000 14.255
22.90000 11.967
22.92000 6.444
22.94000 1.273
22.96000 1.678
22.98000 -1.260
23.00000 -0.614
23.02000 6.470
23.04000 2.264
23.06000 2.071
23.08000 7.712
23.10000 7.459
23.12000 5.896
23.14000 6.388
23.16000 6.787
23.18000 5.298
23.20000 9.029
23.22000 6.658
23.24000 4.880
23.26000 -1.132
23.28000 -4.076
23.30000 1.165
23.32000 4.083
23.34000 -2.280
23.36000 2.664
23.38000 3.443
23.40000 -0.746
23.42000 -2.450
23.44000 1.589
23.46000 1.444
23.48000 3.547
23.50000 5.703
23.52000 5.301
23.54000 0.927
23.56000 -1.085
23.58000 -1.012
23.60000 2.153
23.62000 1.428
23.64000 1.865
23.66000 -1.306
23.68000 -0.795
23.70000 3.615
23.72000 4.410
23.74000 3.679
23.76000 2.147
23.78000 -4.038
23.80000 1.565
23.82000 7.646
23.84000 10.865
23.86000 9.051
23.88000 2.783
23.90000 1.844
23.92000 7.033
23.94000 6.289
23.96000 5.915
23.98000 7.710
24.00000 13.698
24.02000 8.967
24.04000 6.505
24.06000 2.453
24.08000 -0.667
24.10000 3.695
24.12000 2.338
24.14000 0.943
24.16000 6.544
24.18000 9.686
24.20000 4.496
24.22000 -3.241
24.24000 2.564
24.26000 4.274
24.28000 3.056
24.30000 3.605
24.32000 6.920
24.34000 5.267
24.36000 0.755
24.38000 1.490
24.40000 4.651
24.42000 6.009
24.44000 2.056
24.46000 8.613
24.48000 15.816
24.50000 9.894
24.52000 6.899
24.54000 -3.456
24.56000 -0.312
24.58000 -2.322
24.60000 0.856
24.62000 4.250
24.64000 6.115
24.66000 4.276
24.68000 3.961
24.70000 2.938
24.72000 2.377
24.74000 8.006
24.76000 5.150
24.78000 9.036
24.80000 10.791
24.82000 3.681
24.84000 1.135
24.86000 2.527
24.88000 2.173
24.90000 3.282
24.92000 -2.443
24.94000 -3.980
24.96000 -1.839
24.98000 1.646
25.00000 1.691
25.02000 0.947
25.04000 3.931
25.06000 4.518
25.08000 4.001
25.10000 6.066
25.12000 5.050
25.14000 4.999
25.16000 8.286
25.18000 9.039
25.20000 8.373
25.22000 4.989
25.24000 7.190
25.26000 4.301
25.28000 1.451
25.30000 2.003
25.32000 6.621
25.34000 4.096
25.36000 5.661
25.38000 6.536
25.40000 5.405
25.42000 5.224
25.44000 5.693
25.46000 3.259
25.48000 2.684
25.50000 7.891
25.52000 9.549
25.54000 8.695
25.56000 4.544
25.58000 8.421
25.60000 2.614
25.62000 -0.902
25.64000 5.078
25.66000 -3.471
25.68000 -3.862
25.70000 0.671
25.72000 -0.650
25.74000 -0.193
25.76000 0.467
25.78000 1.669
25.80000 7.114
25.82000 3.666
25.84000 0.420
25.86000 -0.802
25.88000 3.440
25.90000 3.722
25.92000 0.389
25.94000 -2.529
25.96000 4.370
25.98000 4.477
26.00000 0.910
26.02000 -3.936
26.04000 -2.077
26.06000 2.177
26.08000 5.359
26.10000 3.907
26.12000 -0.068
26.14000 -3.889
26.16000 -0.952
26.18000 -2.422
26.20000 -0.570
26.22000 -1.318
26.24000 1.067
26.26000 4.476
26.28000 6.540
26.30000 3.575
26.32000 -1.053
26.34000 2.707
26.36000 5.624
26.38000 2.837
26.40000 0.417
26.42000 0.569
26.44000 7.350
26.46000 8.818
26.48000 4.426
26.50000 7.669
26.52000 7.533
26.54000 0.600
26.56000 2.695
26.58000 1.216
26.60000 1.105
26.62000 4.071
26.64000 4.966
26.66000 4.095
26.68000 5.307
26.70000 3.891
26.72000 1.352
26.74000 -1.083
26.76000 1.939
26.78000 1.659
26.80000 1.302
26.82000 -0.301
26.84000 2.951
26.86000 2.450
26.88000 -3.880
26.90000 4.142
26.92000 6.061
26.94000 3.335
26.96000 3.537
26.98000 2.878
27.00000 2.743
27.02000 5.954
27.04000 7.425
27.06000 7.072
27.08000 3.342
27.10000 4.697
27.12000 3.895
27.14000 5.318
27.16000 6.605
27.18000 1.248
27.20000 -0.960
27.22000 -0.953
27.24000 0.630
27.26000 4.122
27.28000 2.392
27.30000 2.166
27.32000 2.475
27.34000 2.252
27.36000 10.204
27.38000 4.135
27.40000 -0.114
27.42000 4.941
27.44000 6.552
27.46000 7.038
27.48000 0.544
27.50000 -2.533
27.52000 -3.852
27.54000 -1.416
27.56000 2.003
27.58000 3.730
27.60000 6.383
27.62000 9.035
27.64000 7.573
27.66000 5.099
27.68000 5.046
27.70000 2.702
27.72000 3.502
27.74000 3.347
27.76000 4.182
27.78000 3.298
27.80000 1.162
27.82000 0.624
27.84000 -1.067
27.86000 -2.428
27.88000 -3.314
27.90000 0.141
27.92000 4.123
27.94000 -3.424
27.96000 -3.827
27.98000 -0.484
28.00000 0.833
28.02000 1.339
28.04000 4.576
28.06000 5.652
28.08000 10.352
28.10000 5.346
28.12000 1.888
28.14000 2.805
28.16000 5.625
28.18000 -2.515
28.20000 -2.623
28.22000 1.257
28.24000 1.490
28.26000 7.065
28.28000 5.320
28.30000 3.713
28.32000 -0.578
28.34000 3.680
28.36000 7.499
28.38000 6.695
28.40000 2.250
28.42000 0.888
28.44000 0.358
28.46000 0.845
28.48000 -1.063
28.50000 -3.803
28.52000 -2.858
28.54000 -0.320
28.56000 0.892
28.58000 0.555
28.60000 0.253
28.62000 2.279
28.64000 3.601
28.66000 3.750
28.68000 -0.998
28.70000 -0.063
28.72000 -2.357
28.74000 -1.702
28.76000 3.851
28.78000 9.399
28.80000 11.304
28.82000 8.426
28.84000 6.228
28.86000 -0.172
28.88000 -1.867
28.90000 2.137
28.92000 0.994
28.94000 0.297
28.96000 -2.048
28.98000 0.267
29.00000 2.322
29.02000 4.505
29.04000 6.371
29.06000 4.126
29.08000 3.861
29.10000 0.569
29.12000 1.862
29.14000 3.952
29.16000 1.128
29.18000 -1.430
29.20000 4.869
29.22000 6.725
29.24000 3.780
29.26000 5.068
29.28000 7.618
29.30000 5.494
29.32000 8.831
29.34000 9.300
29.36000 3.099
29.38000 1.414
29.40000 4.254
29.42000 2.960
29.44000 3.023
29.46000 0.687
29.48000 -3.017
29.50000 6.079
29.52000 7.446
29.54000 5.021
29.56000 4.694
29.58000 3.939
29.60000 -0.969
29.62000 -3.741
29.64000 4.721
29.66000 10.064
29.68000 5.457
29.70000 6.335
29.72000 3.952
29.74000 4.774
29.76000 7.802
29.78000 5.714
29.80000 -2.210
29.82000 2.188
29.84000 2.934
29.86000 1.555
29.88000 3.172
29.90000 -1.182
29.92000 -1.540
29.94000 -0.809
29.96000 4.872
29.98000 7.242
30.00000 4.664
30.02000 0.063
30.04000 -3.212
30.06000 5.484
30.08000 7.894
30.10000 4.340
30.12000 -0.093
30.14000 0.367
30.16000 2.465
30.18000 1.365
30.20000 -0.429
30.22000 -3.722
30.24000 -2.850
30.26000 1.877
30.28000 2.560
30.30000 3.286
30.32000 6.088
30.34000 3.598
30.36000 0.913
30.38000 -1.738
30.40000 3.009
30.42000 3.800
30.44000 3.494
30.46000 3.415
30.48000 10.001
30.50000 2.787
30.52000 3.901
30.54000 4.884
30.56000 4.444
30.58000 5.994
30.60000 3.021
30.62000 6.418
30.64000 6.081
30.66000 -0.267
30.68000 -1.701
30.70000 0.570
30.72000 4.748
30.74000 6.194
30.76000 2.320
30.78000 1.408
30.80000 0.819
30.82000 -2.963
30.84000 -1.590
30.86000 0.212
30.88000 3.425
30.90000 7.746
30.92000 4.782
30.94000 4.219
30.96000 0.615
30.98000 3.429
31.00000 7.872
31.02000 4.214
31.04000 1.632
31.06000 2.526
31.08000 4.564
31.10000 4.220
31.12000 3.593
31.14000 2.979
31.16000 4.572
31.18000 2.599
31.20000 2.189
31.22000 -0.235
31.24000 2.009
31.26000 0.549
31.28000 -1.918
31.30000 -1.865
31.32000 -1.112
31.34000 1.303
31.36000 4.081
31.38000 -0.641
31.40000 -1.874
31.42000 -0.592
31.44000 -0.033
31.46000 3.491
31.48000 2.141
31.50000 -1.279
31.52000 0.044
31.54000 1.049
31.56000 0.616
31.58000 1.225
31.60000 -0.783
31.62000 -1.409
31.64000 1.990
31.66000 2.825
31.68000 -1.194
31.70000 -1.492
31.72000 6.230
31.74000 3.125
31.76000 1.857
31.78000 1.015
31.80000 5.017
31.82000 1.971
31.84000 7.015
31.86000 4.479
31.88000 0.079
31.90000 1.006
31.92000 -1.620
31.94000 3.054
31.96000 1.051
31.98000 -1.090
32.00000 -2.030
32.02000 3.335
32.04000 5.412
32.06000 4.153
32.08000 8.749
32.10000 12.366
32.12000 5.269
32.14000 -0.119
32.16000 2.454
32.18000 2.434
32.20000 4.298
32.22000 0.457
32.24000 -2.333
32.26000 3.283
32.28000 3.803
32.30000 2.187
32.32000 1.665
32.34000 0.475
32.36000 -1.299
32.38000 4.245
32.40000 1.032
32.42000 2.074
32.44000 6.900
32.46000 3.140
32.48000 -3.619
32.50000 2.528
32.52000 1.461
32.54000 4.744
32.56000 3.158
32.58000 1.343
32.60000 1.649
32.62000 -0.060
32.64000 1.876
32.66000 5.441
32.68000 -0.814
32.70000 -0.566
32.72000 2.804
32.74000 6.035
32.76000 3.357
32.78000 4.860
32.80000 3.429
32.82000 4.805
32.84000 0.661
32.86000 3.634
32.88000 6.533
32.90000 4.117
32.92000 5.524
32.94000 7.337
32.96000 3.108
32.98000 -1.430
33.00000 -2.393
33.02000 -1.471
33.04000 2.401
33.06000 5.112
33.08000 0.180
33.10000 -0.238
33.12000 3.491
33.14000 6.374
33.16000 0.963
33.18000 5.152
33.20000 -2.452
33.22000 -2.204
33.24000 2.365
33.26000 1.094
33.28000 -3.077
33.30000 2.801
33.32000 6.608
33.34000 1.397
33.36000 -1.841
33.38000 -1.399
33.40000 2.593
33.42000 3.393
33.44000 5.002
33.46000 2.381
33.48000 0.215
33.50000 1.264
33.52000 -2.869
33.54000 1.359
33.56000 -0.111
33.58000 0.978
33.60000 5.543
33.62000 1.475
33.64000 5.538
33.66000 5.346
33.68000 9.775
33.70000 5.890
33.72000 5.468
33.74000 4.231
33.76000 4.771
33.78000 4.254
33.80000 5.725
33.82000 1.766
33.84000 4.517
33.86000 10.419
33.88000 5.097
33.90000 1.076
33.92000 0.724
33.94000 3.264
33.96000 7.370
33.98000 8.449
34.00000 3.155
34.02000 1.342
34.04000 1.058
34.06000 6.434
34.08000 3.418
34.10000 0.570
34.12000 2.990
34.14000 -0.333
34.16000 2.270
34.18000 0.133
34.20000 1.942
34.22000 1.897
34.24000 6.269
34.26000 4.193
34.28000 5.137
34.30000 5.522
34.32000 2.852
34.34000 2.084
34.36000 4.128
34.38000 1.958
34.40000 3.180
34.42000 1.667
34.44000 1.923
34.46000 2.502
34.48000 -1.523
34.50000 -0.802
34.52000 1.182
34.54000 2.739
34.56000 6.654
34.58000 5.075
34.60000 3.552
34.62000 2.699
34.64000 4.757
34.66000 5.624
34.68000 4.231
34.70000 1.207
34.72000 -2.530
34.74000 3.379
34.76000 2.309
34.78000 5.013
34.80000 2.298
34.82000 1.747
34.84000 3.925
34.86000 4.827
34.88000 5.866
34.90000 1.535
34.92000 -0.645
34.94000 -2.734
34.96000 -1.506
34.98000 -2.733
35.00000 3.606
35.02000 4.937
35.04000 4.549
35.06000 5.599
35.08000 7.110
35.10000 -0.177
35.12000 -1.603
35.14000 -1.298
35.16000 4.689
35.18000 7.204
35.20000 -0.283
35.22000 -3.598
35.24000 0.855
35.26000 3.061
35.28000 4.469
35.30000 2.050
35.32000 0.687
35.34000 3.915
35.36000 4.536
35.38000 0.652
35.40000 1.832
35.42000 3.380
35.44000 8.207
35.46000 4.644
35.48000 6.504
35.50000 1.533
35.52000 -0.231
35.54000 2.653
35.56000 1.668
35.58000 -1.173
35.60000 1.015
35.62000 -1.607
35.64000 1.072
35.66000 -1.125
35.68000 1.532
35.70000 -0.108
35.72000 5.308
35.74000 1.261
35.76000 0.480
35.78000 6.460
35.80000 1.776
35.82000 0.725
35.84000 4.113
35.86000 3.773
35.88000 1.683
35.90000 -1.584
35.92000 3.840
35.94000 6.423
35.96000 5.248
35.98000 3.502
36.00000 4.498
36.02000 3.084
36.04000 3.059
36.06000 4.345
36.08000 0.467
36.10000 1.157
36.12000 -0.851
36.14000 -2.245
36.16000 4.879
36.18000 2.817
36.20000 1.817
36.22000 2.535
36.24000 2.431
36.26000 2.125
36.28000 -1.806
36.30000 2.678
36.32000 2.834
36.34000 3.569
36.36000 0.845
36.38000 3.470
36.40000 4.000
36.42000 8.200
36.44000 4.454
36.46000 0.160
36.48000 1.761
36.50000 -0.709
36.52000 2.313
36.54000 0.580
36.56000 5.613
36.58000 6.144
36.60000 4.815
36.62000 10.256
36.64000 5.135
36.66000 -0.041
36.68000 5.856
36.70000 8.270
36.72000 6.375
36.74000 2.979
36.76000 4.254
36.78000 4.941
36.80000 4.441
36.82000 4.006
36.84000 8.495
36.86000 4.558
36.88000 -0.629
36.90000 5.337
36.92000 6.851
36.94000 5.811
36.96000 13.472
36.98000 9.687
37.00000 10.029
37.02000 9.940
37.04000 9.477
37.06000 8.222
37.08000 9.408
37.10000 14.623
37.12000 13.113
37.14000 7.029
37.16000 12.757
37.18000 10.221
37.20000 11.453
37.22000 12.354
37.24000 15.351
37.26000 13.603
37.28000 16.578
37.30000 13.191
37.32000 14.881
37.34000 17.324
37.36000 16.775
37.38000 19.185
37.40000 18.076
37.42000 16.560
37.44000 12.982
37.46000 18.462
37.48000 19.131
37.50000 18.991
37.52000 17.916
37.54000 22.508
37.56000 24.514
37.58000 27.434
37.60000 26.515
37.62000 20.725
37.64000 21.786
37.66000 28.774
37.68000 23.788
37.70000 23.146
37.72000 26.184
37.74000 30.134
37.76000 31.964
37.78000 37.503
37.80000 39.510
37.82000 38.184
37.84000 39.282
37.86000 36.566
37.88000 37.936
37.90000 33.741
37.92000 35.918
37.94000 39.264
37.96000 42.292
37.98000 47.934
38.00000 49.959
38.02000 45.907
38.04000 45.202
38.06000 46.000
38.08000 50.398
38.10000 45.534
38.12000 48.544
38.14000 58.779
38.16000 56.845
38.18000 61.261
38.20000 66.421
38.22000 69.134
38.24000 68.194
38.26000 70.702
38.28000 77.084
38.30000 78.507
38.32000 83.357
38.34000 90.777
38.36000 101.606
38.38000 102.537
38.40000 104.522
38.42000 113.350
38.44000 120.395
38.46000 120.543
38.48000 124.746
38.50000 142.408
38.52000 154.603
38.54000 162.170
38.56000 168.439
38.58000 173.980
38.60000 191.978
38.62000 201.103
38.64000 205.006
38.66000 220.965
38.68000 232.966
38.70000 244.588
38.72000 251.494
38.74000 263.144
38.76000 278.048
38.78000 284.050
38.80000 293.344
38.82000 295.861
38.84000 298.913
38.86000 303.954
38.88000 309.204
38.90000 310.483
38.92000 308.132
38.94000 308.332
38.96000 309.750
38.98000 306.417
39.00000 297.288
39.02000 289.842
39.04000 280.381
39.06000 272.732
39.08000 267.294
39.10000 256.329
39.12000 239.128
39.14000 236.632
39.16000 226.815
39.18000 213.934
39.20000 210.792
39.22000 195.952
39.24000 179.719
39.26000 167.213
39.28000 158.996
39.30000 152.945
39.32000 145.112
39.34000 132.292
39.36000 133.294
39.38000 128.259
39.40000 116.061
39.42000 108.878
39.44000 98.782
39.46000 89.980
39.48000 85.280
39.50000 83.198
39.52000 77.943
39.54000 76.875
39.56000 74.391
39.58000 69.414
39.60000 62.166
39.62000 60.881
39.64000 59.999
39.66000 60.710
39.68000 49.670
39.70000 44.182
39.72000 46.783
39.74000 46.093
39.76000 48.394
39.78000 45.506
39.80000 43.446
39.82000 36.934
39.84000 31.458
39.86000 34.802
39.88000 36.875
39.90000 33.734
39.92000 25.871
39.94000 32.407
39.96000 31.740
39.98000 29.237
40.00000 24.368
40.02000 21.665
40.04000 24.323
40.06000 21.409
40.08000 18.713
40.10000 20.749
40.12000 25.538
40.14000 17.217
40.16000 16.781
40.18000 15.599
40.20000 16.878
40.22000 19.564
40.24000 19.094
40.26000 16.391
40.28000 17.497
40.30000 16.711
40.32000 13.583
40.34000 16.263
40.36000 19.433
40.38000 14.012
40.40000 12.572
40.42000 8.692
40.44000 11.395
40.46000 16.625
40.48000 14.426
40.50000 7.720
40.52000 8.149
40.54000 12.220
40.56000 12.925
40.58000 12.033
40.60000 9.929
40.62000 10.736
40.64000 12.159
40.66000 8.565
40.68000 5.931
40.70000 9.025
40.72000 9.412
40.74000 10.608
40.76000 9.343
40.78000 8.836
40.80000 5.150
40.82000 4.067
40.84000 3.758
40.86000 3.810
40.88000 7.707
40.90000 5.142
40.92000 5.459
40.94000 4.643
40.96000 1.611
40.98000 2.957
41.00000 6.017
41.02000 7.640
41.04000 5.606
41.06000 0.953
41.08000 2.856
41.10000 2.709
41.12000 -0.557
41.14000 2.362
41.16000 2.568
41.18000 -1.987
41.20000 -0.288
41.22000 -0.571
41.24000 -1.826
41.26000 0.849
41.28000 4.317
41.30000 3.236
41.32000 0.160
41.34000 2.262
41.36000 -0.783
41.38000 1.813
41.40000 2.176
41.42000 -0.191
41.44000 -1.424
41.46000 1.410
41.48000 -0.014
41.50000 -0.276
41.52000 1.133
41.54000 -1.950
41.56000 0.620
41.58000 -0.967
41.60000 -2.010
41.62000 -0.497
41.64000 -0.487
41.66000 -2.919
41.68000 0.716
41.70000 1.596
41.72000 2.039
41.74000 1.413
41.76000 1.754
41.78000 2.721
41.80000 0.337
41.82000 -3.032
41.84000 0.832
41.86000 -2.200
41.88000 0.505
41.90000 1.788
41.92000 4.449
41.94000 5.168
41.96000 0.421
41.98000 -0.167
42.00000 4.954
42.02000 6.275
42.04000 3.958
42.06000 -0.506
42.08000 0.360
42.10000 -0.560
42.12000 -2.028
42.14000 -1.021
42.16000 0.404
42.18000 3.759
42.20000 3.605
42.22000 1.211
42.24000 1.094
42.26000 3.092
42.28000 3.166
42.30000 3.756
42.32000 1.677
42.34000 2.917
42.36000 6.053
42.38000 2.535
42.40000 3.007
42.42000 2.206
42.44000 1.914
42.46000 1.799
42.48000 2.171
42.50000 1.614
42.52000 1.664
42.54000 -1.879
42.56000 -3.336
42.58000 -1.066
42.60000 -1.014
42.62000 0.011
42.64000 1.124
42.66000 3.889
42.68000 3.137
42.70000 3.701
42.72000 3.362
42.74000 1.419
42.76000 3.545
42.78000 2.461
42.80000 0.282
42.82000 -2.467
42.84000 0.652
42.86000 5.821
42.88000 3.346
42.90000 3.710
42.92000 2.570
42.94000 1.750
42.96000 -0.066
42.98000 1.460
43.00000 5.273
43.02000 0.853
43.04000 -1.557
43.06000 1.333
43.08000 1.320
43.10000 0.563
43.12000 0.919
43.14000 -2.128
43.16000 0.507
43.18000 1.488
43.20000 -3.136
43.22000 -3.317
43.24000 -0.371
43.26000 -1.553
43.28000 2.586
43.30000 0.379
43.32000 -3.241
43.34000 -0.861
43.36000 1.313
43.38000 1.856
43.40000 -0.099
43.42000 0.462
43.44000 2.485
43.46000 3.732
43.48000 0.621
43.50000 0.341
43.52000 -0.240
43.54000 4.014
43.56000 5.941
43.58000 5.960
43.60000 0.547
43.62000 -0.329
43.64000 -3.301
43.66000 -2.410
43.68000 -0.511
43.70000 -0.461
43.72000 -2.445
43.74000 0.160
43.76000 4.033
43.78000 2.906
43.80000 -0.723
43.82000 -1.967
43.84000 1.512
43.86000 0.173
43.88000 3.838
43.90000 2.248
43.92000 2.079
43.94000 5.861
43.96000 4.122
43.98000 -0.879
44.00000 -1.203
44.02000 -0.272
44.04000 2.300
44.06000 3.333
44.08000 1.754
44.10000 4.298
44.12000 3.507
44.14000 1.301
44.16000 6.436
44.18000 6.821
44.20000 10.995
44.22000 12.738
44.24000 9.695
44.26000 8.644
44.28000 9.249
44.30000 6.596
44.32000 8.646
44.34000 8.409
44.36000 8.382
44.38000 7.550
44.40000 12.136
44.42000 17.145
44.44000 20.211
44.46000 11.866
44.48000 9.257
44.50000 12.835
44.52000 16.594
44.54000 23.615
44.56000 28.507
44.58000 24.213
44.60000 23.400
44.62000 22.417
44.64000 20.669
44.66000 26.432
44.68000 26.514
44.70000 32.116
44.72000 37.082
44.74000 33.035
44.76000 28.827
44.78000 33.453
44.80000 40.590
44.82000 44.052
44.84000 43.624
44.86000 52.838
44.88000 55.131
44.90000 55.886
44.92000 60.405
44.94000 57.862
44.96000 57.646
44.98000 65.435
45.00000 66.870
45.02000 69.504
45.04000 72.011
45.06000 82.404
45.08000 85.696
45.10000 84.387
45.12000 84.006
45.14000 84.972
45.16000 85.918
45.18000 89.911
45.20000 92.578
45.22000 99.975
45.24000 103.529
45.26000 103.385
45.28000 103.110
45.30000 108.742
45.32000 109.240
45.34000 108.498
45.36000 103.900
45.38000 102.642
45.40000 103.133
45.42000 98.753
45.44000 92.670
45.46000 98.160
45.48000 96.235
45.50000 94.727
45.52000 92.911
45.54000 88.906
45.56000 85.200
45.58000 79.482
45.60000 78.380
45.62000 77.900
45.64000 70.167
45.66000 73.647
45.68000 71.436
45.70000 66.433
45.72000 64.560
45.74000 62.356
45.76000 57.718
45.78000 52.994
45.80000 54.118
45.82000 48.331
45.84000 44.884
45.86000 43.848
45.88000 41.134
45.90000 41.465
45.92000 34.513
45.94000 25.254
45.96000 28.792
45.98000 31.375
46.00000 28.482
46.02000 25.102
46.04000 22.285
46.06000 23.740
46.08000 20.429
46.10000 19.952
46.12000 15.808
46.14000 18.311
46.16000 18.329
46.18000 15.543
46.20000 10.422
46.22000 9.392
46.24000 10.570
46.26000 15.358
46.28000 11.904
46.30000 9.769
46.32000 8.667
46.34000 10.128
46.36000 4.752
46.38000 6.107
46.40000 6.243
46.42000 3.666
46.44000 2.479
46.46000 2.123
46.48000 6.026
46.50000 7.306
46.52000 7.651
46.54000 5.884
46.56000 6.570
46.58000 4.652
46.60000 7.710
46.62000 6.532
46.64000 6.324
46.66000 7.360
46.68000 4.464
46.70000 4.207
46.72000 4.854
46.74000 4.942
46.76000 4.682
46.78000 7.310
46.80000 2.137
46.82000 -2.922
46.84000 0.179
46.86000 1.420
46.88000 2.052
46.90000 0.684
46.92000 2.334
46.94000 5.040
46.96000 2.189
46.98000 2.107
47.00000 4.316
47.02000 3.080
47.04000 1.216
47.06000 1.120
47.08000 1.096
47.10000 3.572
47.12000 5.489
47.14000 3.253
47.16000 0.778
47.18000 -1.302
47.20000 -0.252
47.22000 6.160
47.24000 4.288
47.26000 2.152
47.28000 3.544
47.30000 4.615
47.32000 0.045
47.34000 -0.652
47.36000 2.698
47.38000 0.915
47.40000 0.077
47.42000 3.937
47.44000 4.209
47.46000 -2.854
47.48000 1.520
47.50000 7.769
47.52000 11.108
47.54000 9.762
47.56000 4.745
47.58000 5.739
47.60000 4.416
47.62000 3.848
47.64000 3.114
47.66000 2.376
47.68000 2.565
47.70000 4.064
47.72000 3.093
47.74000 0.235
47.76000 2.132
47.78000 2.858
47.80000 6.798
47.82000 5.889
47.84000 4.557
47.86000 0.914
47.88000 0.596
47.90000 2.825
47.92000 0.694
47.94000 1.091
47.96000 4.301
47.98000 -1.548
48.00000 -0.661
48.02000 8.271
48.04000 7.837
48.06000 5.051
48.08000 3.728
48.10000 7.889
48.12000 5.056
48.14000 2.791
48.16000 0.953
48.18000 -2.762
48.20000 0.846
48.22000 0.149
48.24000 3.279
48.26000 5.112
48.28000 6.713
48.30000 8.608
48.32000 1.677
48.34000 2.619
48.36000 -2.501
48.38000 -0.344
48.40000 -2.376
48.42000 1.559
48.44000 2.021
48.46000 -0.028
48.48000 0.058
48.50000 3.221
48.52000 2.252
48.54000 3.878
48.56000 2.397
48.58000 5.598
48.60000 4.184
48.62000 -1.225
48.64000 2.328
48.66000 1.150
48.68000 2.191
48.70000 4.084
48.72000 3.509
48.74000 0.926
48.76000 0.963
48.78000 -0.139
48.80000 -0.886
48.82000 4.517
48.84000 0.377
48.86000 2.628
48.88000 2.341
48.90000 3.808
48.92000 4.683
48.94000 1.805
48.96000 -1.621
48.98000 -1.154
49.00000 -0.193
49.02000 -1.788
49.04000 4.349
49.06000 5.114
49.08000 2.470
49.10000 -0.627
49.12000 4.058
49.14000 1.692
49.16000 3.087
49.18000 3.514
49.20000 1.698
49.22000 -0.696
49.24000 0.107
49.26000 0.656
49.28000 3.047
49.30000 1.789
49.32000 5.801
49.34000 4.764
49.36000 1.405
49.38000 3.176
49.40000 0.481
49.42000 0.349
49.44000 0.108
49.46000 0.118
49.48000 6.172
49.50000 3.375
49.52000 1.877
49.54000 4.352
49.56000 1.523
49.58000 0.974
49.60000 -0.132
49.62000 2.343
49.64000 2.493
49.66000 0.789
49.68000 -0.255
49.70000 0.833
49.72000 4.215
49.74000 5.565
49.76000 4.330
49.78000 5.082
49.80000 3.823
49.82000 1.329
49.84000 0.114
49.86000 1.692
49.88000 4.431
49.90000 7.514
49.92000 7.669
49.94000 5.354
49.96000 1.971
49.98000 1.995
50.00000 0.703
50.02000 1.040
50.04000 -0.141
50.06000 -0.636
50.08000 2.059
50.10000 3.903
50.12000 5.618
50.14000 4.246
50.16000 -2.674
50.18000 -0.359
50.20000 3.111
50.22000 1.979
50.24000 1.567
50.26000 3.808
50.28000 2.714
50.30000 2.839
50.32000 3.468
50.34000 4.911
50.36000 3.448
50.38000 5.779
50.40000 1.403
50.42000 -1.261
50.44000 -0.896
50.46000 1.049
50.48000 4.992
50.50000 4.013
50.52000 1.187
50.54000 1.264
50.56000 3.397
50.58000 -0.276
50.60000 -0.883
50.62000 1.859
50.64000 1.868
50.66000 1.877
50.68000 0.926
50.70000 1.812
50.72000 1.873
50.74000 7.972
50.76000 5.942
50.78000 1.191
50.80000 -0.793
50.82000 1.373
50.84000 -0.187
50.86000 1.093
50.88000 5.586
50.90000 7.259
50.92000 3.556
50.94000 3.408
50.96000 1.990
50.98000 2.161
51.00000 1.378
51.02000 3.106
51.04000 0.960
51.06000 1.466
51.08000 3.132
51.10000 6.627
51.12000 3.422
51.14000 2.088
51.16000 0.853
51.18000 0.141
51.20000 0.527
51.22000 0.002
51.24000 -0.415
51.26000 -2.082
51.28000 0.135
51.30000 -1.072
51.32000 2.153
51.34000 2.636
51.36000 -0.170
51.38000 2.000
51.40000 1.580
51.42000 5.551
51.44000 3.289
51.46000 -0.062
51.48000 1.903
51.50000 1.425
51.52000 5.086
51.54000 4.212
51.56000 4.376
51.58000 3.172
51.60000 5.233
51.62000 3.814
51.64000 5.842
51.66000 6.835
51.68000 1.434
51.70000 8.628
51.72000 5.317
51.74000 0.381
51.76000 -2.626
51.78000 2.648
51.80000 4.594
51.82000 5.831
51.84000 2.850
51.86000 -0.132
51.88000 -2.480
51.90000 -0.316
51.92000 2.048
51.94000 5.188
51.96000 2.588
51.98000 1.610
52.00000 5.529
52.02000 4.078
52.04000 2.402
52.06000 2.156
52.08000 1.424
52.10000 -1.393
52.12000 2.922
52.14000 4.903
52.16000 4.018
52.18000 5.756
52.20000 6.039
52.22000 3.785
52.24000 2.689
52.26000 2.219
52.28000 3.497
52.30000 4.964
52.32000 4.529
52.34000 2.335
52.36000 3.307
52.38000 4.914
52.40000 5.367
52.42000 1.262
52.44000 0.715
52.46000 1.306
52.48000 3.120
52.50000 1.362
52.52000 -0.859
52.54000 0.139
52.56000 -2.610
52.58000 1.280
52.60000 2.744
52.62000 -1.993
52.64000 0.669
52.66000 1.076
52.68000 1.711
52.70000 0.817
52.72000 1.466
52.74000 2.918
52.76000 1.375
52.78000 4.914
52.80000 0.103
52.82000 2.180
52.84000 2.765
52.86000 5.045
52.88000 3.249
52.90000 1.523
52.92000 3.301
52.94000 5.586
52.96000 0.772
52.98000 0.231
53.00000 2.931
53.02000 4.605
53.04000 0.147
53.06000 4.044
53.08000 2.066
53.10000 0.638
53.12000 1.835
53.14000 1.312
53.16000 -1.479
53.18000 -1.211
53.20000 -0.136
53.22000 2.809
53.24000 1.016
53.26000 0.917
53.28000 1.647
53.30000 1.749
53.32000 1.892
53.34000 3.960
53.36000 1.487
53.38000 0.821
53.40000 0.051
53.42000 3.701
53.44000 4.239
53.46000 4.648
53.48000 2.359
53.50000 1.303
53.52000 -0.161
53.54000 -1.494
53.56000 -0.849
53.58000 0.396
53.60000 2.184
53.62000 1.810
53.64000 -0.538
53.66000 -1.006
53.68000 1.471
53.70000 5.561
53.72000 3.258
53.74000 2.667
53.76000 4.264
53.78000 3.276
53.80000 6.109
53.82000 1.463
53.84000 0.270
53.86000 -2.464
53.88000 1.711
53.90000 3.823
53.92000 1.717
53.94000 0.474
53.96000 -2.583
53.98000 -0.490
54.00000 0.878
54.02000 4.071
54.04000 6.103
54.06000 3.047
54.08000 0.686
54.10000 -0.165
54.12000 0.016
54.14000 3.071
54.16000 0.249
54.18000 1.372
54.20000 0.634
54.22000 0.041
54.24000 0.412
54.26000 1.786
54.28000 4.142
54.30000 6.000
54.32000 3.579
54.34000 1.744
54.36000 2.200
54.38000 2.070
54.40000 -0.039
54.42000 3.716
54.44000 2.113
54.46000 0.858
54.48000 1.223
54.50000 0.129
54.52000 0.790
54.54000 2.212
54.56000 1.728
54.58000 2.853
54.60000 1.921
54.62000 3.463
54.64000 2.566
54.66000 2.763
54.68000 2.869
54.70000 2.876
54.72000 0.473
54.74000 0.829
54.76000 -0.711
54.78000 2.183
54.80000 3.252
54.82000 -2.560
54.84000 -1.853
54.86000 0.890
54.88000 0.164
54.90000 -0.450
54.92000 1.611
54.94000 -0.081
54.96000 0.576
54.98000 3.326
55.00000 2.667
55.02000 0.896
55.04000 3.488
55.06000 3.099
55.08000 2.308
55.10000 1.459
55.12000 -2.543
55.14000 -0.482
55.16000 2.008
55.18000 1.306
55.20000 -1.818
55.22000 -0.791
55.24000 2.134
55.26000 4.220
55.28000 6.475
55.30000 6.486
55.32000 3.302
55.34000 0.257
55.36000 1.161
55.38000 -0.112
55.40000 0.943
55.42000 5.260
55.44000 1.084
55.46000 -0.976
55.48000 2.202
55.50000 3.414
55.52000 -0.044
55.54000 -1.839
55.56000 -0.993
55.58000 0.121
55.60000 2.159
55.62000 -1.349
55.64000 -2.538
55.66000 -1.191
55.68000 1.558
55.70000 3.093
55.72000 2.737
55.74000 2.022
55.76000 3.297
55.78000 7.439
55.80000 2.451
55.82000 -1.607
55.84000 0.366
55.86000 6.329
55.88000 4.278
55.90000 1.538
55.92000 2.701
55.94000 5.227
55.96000 6.208
55.98000 4.283
56.00000 0.670
56.02000 2.220
56.04000 2.632
56.06000 1.274
56.08000 0.240
56.10000 3.292
56.12000 2.788
56.14000 5.655
56.16000 4.669
56.18000 6.493
56.20000 5.058
56.22000 3.449
56.24000 3.822
56.26000 0.418
56.28000 1.509
56.30000 2.768
56.32000 7.161
56.34000 5.689
56.36000 1.647
56.38000 0.084
56.40000 1.518
56.42000 2.713
56.44000 0.765
56.46000 2.783
56.48000 3.123
56.50000 -0.367
56.52000 3.408
56.54000 5.187
56.56000 0.142
56.58000 -2.498
56.60000 -0.597
56.62000 5.533
56.64000 7.886
56.66000 7.429
56.68000 6.093
56.70000 7.615
56.72000 6.798
56.74000 6.929
56.76000 5.078
56.78000 2.360
56.80000 3.197
56.82000 1.705
56.84000 1.671
56.86000 6.427
56.88000 1.618
56.90000 2.913
56.92000 4.855
56.94000 4.243
56.96000 6.681
56.98000 6.770
57.00000 3.862
57.02000 5.165
57.04000 4.868
57.06000 3.337
57.08000 4.993
57.10000 5.412
57.12000 4.173
57.14000 3.737
57.16000 3.845
57.18000 0.989
57.20000 6.310
57.22000 5.730
57.24000 0.504
57.26000 -1.482
57.28000 -1.166
57.30000 -1.516
57.32000 2.871
57.34000 5.240
57.36000 -2.455
57.38000 0.715
57.40000 2.216
57.42000 3.623
57.44000 4.892
57.46000 6.465
57.48000 6.859
57.50000 2.088
57.52000 5.437
57.54000 5.262
57.56000 1.743
57.58000 1.963
57.60000 4.681
57.62000 2.730
57.64000 4.766
57.66000 4.063
57.68000 3.717
57.70000 4.995
57.72000 8.070
57.74000 4.808
57.76000 2.771
57.78000 2.353
57.80000 3.708
57.82000 1.228
57.84000 0.747
57.86000 0.592
57.88000 4.252
57.90000 0.873
57.92000 -2.448
57.94000 0.341
57.96000 3.577
57.98000 0.029
58.00000 0.933
58.02000 1.455
58.04000 1.957
58.06000 4.713
58.08000 2.208
58.10000 2.476
58.12000 4.022
58.14000 5.314
58.16000 1.106
58.18000 -0.317
58.20000 1.278
58.22000 5.389
58.24000 1.516
58.26000 2.160
58.28000 -0.481
58.30000 0.548
58.32000 3.745
58.34000 3.587
58.36000 3.893
58.38000 1.669
58.40000 -1.490
58.42000 -1.911
58.44000 1.146
58.46000 2.606
58.48000 5.339
58.50000 5.926
58.52000 3.385
58.54000 1.151
58.56000 3.420
58.58000 2.440
58.60000 2.867
58.62000 0.044
58.64000 -0.306
58.66000 1.497
58.68000 2.628
58.70000 6.745
58.72000 3.944
58.74000 0.525
58.76000 0.493
58.78000 3.242
58.80000 4.543
58.82000 2.514
58.84000 0.291
58.86000 3.595
58.88000 2.065
58.90000 -0.769
58.92000 -2.431
58.94000 -0.571
58.96000 2.269
58.98000 1.079
59.00000 -0.450
59.02000 -1.132
59.04000 3.388
59.06000 1.661
59.08000 6.343
59.10000 4.182
59.12000 -2.091
59.14000 0.781
59.16000 2.586
59.18000 1.724
59.20000 2.239
59.22000 3.463
59.24000 0.680
59.26000 3.643
59.28000 0.847
59.30000 -0.067
59.32000 0.491
59.34000 2.044
59.36000 2.594
59.38000 5.255
59.40000 6.659
59.42000 2.806
59.44000 2.024
59.46000 3.688
59.48000 1.682
59.50000 -0.059
59.52000 2.342
59.54000 3.240
59.56000 -0.462
59.58000 -0.574
59.60000 1.243
59.62000 -0.767
59.64000 0.515
59.66000 -0.186
59.68000 5.140
59.70000 4.208
59.72000 5.675
59.74000 5.772
59.76000 3.176
59.78000 3.283
59.80000 1.234
59.82000 -1.956
59.84000 0.131
59.86000 4.727
59.88000 5.231
59.90000 2.930
59.92000 3.486
59.94000 3.010
59.96000 1.869
59.98000 0.588
60.00000 1.450
60.02000 -0.587
60.04000 0.223
60.06000 -2.400
60.08000 -2.073
60.10000 -0.882
60.12000 0.012
60.14000 2.008
60.16000 2.745
60.18000 -0.253
60.20000 -0.764
60.22000 1.200
60.24000 2.064
60.26000 1.095
60.28000 3.334
60.30000 4.163
60.32000 4.484
60.34000 3.938
60.36000 3.518
60.38000 0.399
60.40000 -0.650
60.42000 3.873
60.44000 5.305
60.46000 2.509
60.48000 2.776
60.50000 5.668
60.52000 0.356
60.54000 -0.280
60.56000 -0.399
60.58000 0.661
60.60000 -0.705
60.62000 3.117
60.64000 6.808
60.66000 1.337
60.68000 2.556
60.70000 4.605
60.72000 5.280
60.74000 3.387
60.76000 -1.800
60.78000 -0.259
60.80000 2.911
60.82000 3.791
60.84000 -0.142
60.86000 0.196
60.88000 1.766
60.90000 3.438
60.92000 -0.603
60.94000 -2.354
60.96000 3.252
60.98000 5.496
61.00000 1.517
61.02000 0.445
61.04000 1.722
61.06000 2.373
61.08000 0.918
61.10000 2.112
61.12000 2.551
61.14000 5.949
61.16000 5.743
61.18000 5.415
61.20000 7.249
61.22000 4.049
61.24000 2.651
61.26000 -0.306
61.28000 -1.892
61.30000 -0.843
61.32000 1.213
61.34000 1.991
61.36000 4.423
61.38000 6.073
61.40000 2.758
61.42000 2.744
61.44000 3.631
61.46000 -0.628
61.48000 0.375
61.50000 3.575
61.52000 4.775
61.54000 2.077
61.56000 0.403
61.58000 -1.690
61.60000 -2.331
61.62000 6.094
61.64000 1.756
61.66000 3.314
61.68000 -1.290
61.70000 3.061
61.72000 3.969
61.74000 5.921
61.76000 3.325
61.78000 6.075
61.80000 5.010
61.82000 3.383
61.84000 3.454
61.86000 -2.317
61.88000 0.508
61.90000 5.632
61.92000 5.055
61.94000 3.405
61.96000 3.789
61.98000 2.240
62.00000 -0.444
62.02000 3.089
62.04000 3.439
62.06000 4.920
62.08000 4.711
62.10000 4.071
62.12000 1.823
62.14000 1.650
62.16000 5.941
62.18000 4.332
62.20000 1.613
62.22000 4.137
62.24000 3.739
62.26000 2.797
62.28000 2.060
62.30000 0.778
62.32000 0.763
62.34000 3.635
62.36000 1.850
62.38000 3.197
62.40000 2.730
62.42000 1.691
62.44000 3.777
62.46000 3.187
62.48000 6.295
62.50000 5.443
62.52000 1.435
62.54000 3.313
62.56000 2.311
62.58000 5.308
62.60000 1.098
62.62000 -0.535
62.64000 3.781
62.66000 4.189
62.68000 2.477
62.70000 2.510
62.72000 5.002
62.74000 4.595
62.76000 3.388
62.78000 4.068
62.80000 0.598
62.82000 1.631
62.84000 4.603
62.86000 3.449
62.88000 2.040
62.90000 2.884
62.92000 0.052
62.94000 -2.277
62.96000 1.284
62.98000 2.805
63.00000 4.376
63.02000 6.774
63.04000 1.981
63.06000 1.631
63.08000 0.708
63.10000 4.269
63.12000 7.659
63.14000 4.113
63.16000 1.192
63.18000 2.178
63.20000 4.166
63.22000 4.855
63.24000 2.952
63.26000 3.133
63.28000 1.653
63.30000 2.454
63.32000 2.752
63.34000 2.585
63.36000 5.005
63.38000 5.193
63.40000 7.424
63.42000 1.671
63.44000 0.793
63.46000 3.738
63.48000 2.237
63.50000 0.776
63.52000 2.038
63.54000 4.735
63.56000 3.884
63.58000 0.689
63.60000 -2.279
63.62000 2.795
63.64000 3.922
63.66000 1.803
63.68000 1.430
63.70000 3.670
63.72000 4.165
63.74000 4.875
63.76000 4.019
63.78000 6.454
63.80000 3.518
63.82000 6.004
63.84000 5.100
63.86000 3.308
63.88000 3.545
63.90000 2.157
63.92000 2.777
63.94000 1.531
63.96000 0.871
63.98000 2.723
64.00000 2.914
64.02000 2.482
64.04000 3.729
64.06000 3.479
64.08000 0.582
64.10000 0.430
64.12000 1.188
64.14000 1.470
64.16000 0.278
64.18000 -0.303
64.20000 -1.186
64.22000 0.121
64.24000 1.851
64.26000 2.705
64.28000 1.951
64.30000 4.945
64.32000 3.579
64.34000 2.555
64.36000 1.503
64.38000 1.461
64.40000 2.697
64.42000 -0.520
64.44000 2.161
64.46000 4.286
64.48000 5.331
64.50000 4.525
64.52000 7.797
64.54000 6.217
64.56000 5.916
64.58000 -0.135
64.60000 3.690
64.62000 3.277
64.64000 1.899
64.66000 4.640
64.68000 3.091
64.70000 1.897
64.72000 0.766
64.74000 0.771
64.76000 2.952
64.78000 3.870
64.80000 -0.449
64.82000 -2.289
64.84000 1.786
64.86000 3.254
64.88000 1.057
64.90000 3.148
64.92000 5.521
64.94000 4.129
64.96000 4.847
64.98000 5.554
65.00000 2.118
65.02000 3.806
65.04000 0.408
65.06000 -2.281
65.08000 0.696
65.10000 4.108
65.12000 3.028
65.14000 5.313
65.16000 7.488
65.18000 4.866
65.20000 4.086
65.22000 5.130
65.24000 3.579
65.26000 4.464
65.28000 8.501
65.30000 6.807
65.32000 6.294
65.34000 4.469
65.36000 5.976
65.38000 3.448
65.40000 1.395
65.42000 0.574
65.44000 4.578
65.46000 0.202
65.48000 1.864
65.50000 5.479
65.52000 6.359
65.54000 5.548
65.56000 3.216
65.58000 4.079
65.60000 3.788
65.62000 6.160
65.64000 5.743
65.66000 2.625
65.68000 5.860
65.70000 3.881
65.72000 1.888
65.74000 3.672
65.76000 5.755
65.78000 5.688
65.80000 6.585
65.82000 8.579
65.84000 7.745
65.86000 5.408
65.88000 8.537
65.90000 8.858
65.92000 6.892
65.94000 6.900
65.96000 8.794
65.98000 12.453
66.00000 8.417
66.02000 7.540
66.04000 6.165
66.06000 5.230
66.08000 3.740
66.10000 7.870
66.12000 7.715
66.14000 6.270
66.16000 5.480
66.18000 7.216
66.20000 3.674
66.22000 3.916
66.24000 1.863
66.26000 3.151
66.28000 3.476
66.30000 1.581
66.32000 4.613
66.34000 4.657
66.36000 1.364
66.38000 1.811
66.40000 7.710
66.42000 5.117
66.44000 3.498
66.46000 4.263
66.48000 3.496
66.50000 7.593
66.52000 5.864
66.54000 2.956
66.56000 2.413
66.58000 2.205
66.60000 3.047
66.62000 1.732
66.64000 0.534
66.66000 1.471
66.68000 0.732
66.70000 0.611
66.72000 2.480
66.74000 3.539
66.76000 2.861
66.78000 -0.549
66.80000 0.072
66.82000 2.920
66.84000 0.805
66.86000 -1.960
66.88000 -1.097
66.90000 -0.326
66.92000 3.276
66.94000 3.472
66.96000 2.635
66.98000 2.445
67.00000 -0.327
67.02000 2.035
67.04000 2.940
67.06000 0.956
67.08000 2.415
67.10000 1.492
67.12000 0.944
67.14000 1.028
67.16000 -0.080
67.18000 0.007
67.20000 -1.535
67.22000 -0.008
67.24000 0.870
67.26000 3.069
67.28000 1.474
67.30000 -1.861
67.32000 -0.340
67.34000 0.621
67.36000 3.413
67.38000 2.008
67.40000 2.978
67.42000 1.831
67.44000 -0.775
67.46000 -0.806
67.48000 -2.236
67.50000 -0.139
67.52000 2.770
67.54000 3.722
67.56000 2.622
67.58000 1.725
67.60000 2.919
67.62000 0.404
67.64000 1.107
67.66000 -0.578
67.68000 -0.465
67.70000 0.860
67.72000 -0.549
67.74000 0.489
67.76000 1.114
67.78000 0.780
67.80000 1.630
67.82000 -0.123
67.84000 1.799
67.86000 1.159
67.88000 2.871
67.90000 2.153
67.92000 3.175
67.94000 3.463
67.96000 3.027
67.98000 2.499
68.00000 3.718
68.02000 1.154
68.04000 0.913
68.06000 2.837
68.08000 1.730
68.10000 1.622
68.12000 1.330
68.14000 2.176
68.16000 -1.682
68.18000 0.522
68.20000 3.694
68.22000 1.240
68.24000 -1.588
68.26000 -2.184
68.28000 1.766
68.30000 3.422
68.32000 1.349
68.34000 2.776
68.36000 4.621
68.38000 3.699
68.40000 5.434
68.42000 3.600
68.44000 2.779
68.46000 0.212
68.48000 -0.312
68.50000 1.244
68.52000 2.037
68.54000 3.429
68.56000 0.768
68.58000 -0.815
68.60000 -1.706
68.62000 1.058
68.64000 2.003
68.66000 2.306
68.68000 1.642
68.70000 1.502
68.72000 1.971
68.74000 1.743
68.76000 2.715
68.78000 2.187
68.80000 1.471
68.82000 -0.692
68.84000 -0.530
68.86000 3.944
68.88000 3.720
68.90000 0.163
68.92000 -0.121
68.94000 0.757
68.96000 1.143
68.98000 2.516
69.00000 -0.003
69.02000 -2.125
69.04000 1.491
69.06000 -2.068
69.08000 -1.526
69.10000 -0.322
69.12000 -0.209
69.14000 -1.622
69.16000 -0.768
69.18000 -1.801
69.20000 0.325
69.22000 2.650
69.24000 2.332
69.26000 -0.392
69.28000 1.062
69.30000 0.388
69.32000 -1.030
69.34000 -1.053
69.36000 -0.836
69.38000 -1.535
69.40000 -1.012
69.42000 -1.028
69.44000 -1.493
69.46000 -1.532
69.48000 -0.400
69.50000 0.744
69.52000 0.152
69.54000 1.543
69.56000 -0.120
69.58000 -0.638
69.60000 -0.640
69.62000 -2.165
69.64000 -0.960
69.66000 -1.438
69.68000 2.300
69.70000 1.667
69.72000 -1.726
69.74000 -0.530
69.76000 -0.138
69.78000 0.549
69.80000 4.312
69.82000 4.424
69.84000 3.186
69.86000 -0.139
69.88000 -1.318
69.90000 0.231
69.92000 -2.147
69.94000 -1.105
69.96000 -0.242
69.98000 -0.242
70.00000 1.163
70.02000 -0.289
70.04000 -0.276
70.06000 0.745
70.08000 -1.034
70.10000 -1.966
70.12000 -1.243
70.14000 0.322
70.16000 0.740
70.18000 2.528
70.20000 0.544
70.22000 -0.474
70.24000 -0.878
70.26000 -1.324
70.28000 -0.508
70.30000 0.903
70.32000 4.488
70.34000 -0.028
70.36000 0.053
70.38000 0.092
70.40000 2.800
70.42000 4.132
70.44000 2.979
70.46000 3.487
70.48000 1.234
70.50000 0.179
70.52000 0.368
70.54000 1.627
70.56000 0.116
70.58000 -1.367
70.60000 -0.376
70.62000 1.665
70.64000 1.169
70.66000 0.255
70.68000 0.871
70.70000 -2.108
70.72000 -0.427
70.74000 4.599
70.76000 6.263
70.78000 4.516
70.80000 2.978
70.82000 4.254
70.84000 3.480
70.86000 5.286
70.88000 3.430
70.90000 -0.233
70.92000 2.401
70.94000 1.988
70.96000 0.580
70.98000 -2.086
71.00000 -1.192
71.02000 3.358
71.04000 2.520
71.06000 -0.998
71.08000 2.187
71.10000 1.818
71.12000 -0.839
71.14000 0.627
71.16000 0.779
71.18000 3.066
71.20000 2.722
71.22000 0.808
71.24000 0.487
71.26000 0.299
71.28000 1.346
71.30000 2.327
71.32000 2.784
71.34000 2.630
71.36000 0.360
71.38000 0.312
71.40000 1.595
71.42000 0.194
71.44000 2.118
71.46000 0.152
71.48000 -0.348
71.50000 2.999
71.52000 -1.007
71.54000 0.762
71.56000 -0.395
71.58000 -1.336
71.60000 -0.639
71.62000 0.229
71.64000 1.999
71.66000 -0.166
71.68000 0.028
71.70000 -0.448
71.72000 0.063
71.74000 -0.003
71.76000 -0.539
71.78000 -1.538
71.80000 1.133
71.82000 3.834
71.84000 1.802
71.86000 2.312
71.88000 1.651
71.90000 2.502
71.92000 3.089
71.94000 2.033
71.96000 0.602
71.98000 2.331
72.00000 1.001
72.02000 2.167
72.04000 0.643
72.06000 1.198
72.08000 -0.916
72.10000 0.577
72.12000 2.556
72.14000 3.314
72.16000 1.372
72.18000 2.672
72.20000 1.498
72.22000 3.206
72.24000 2.289
72.26000 3.815
72.28000 1.864
72.30000 -0.399
72.32000 0.373
72.34000 -1.842
72.36000 -2.042
72.38000 1.888
72.40000 2.463
72.42000 3.275
72.44000 4.809
72.46000 1.319
72.48000 0.841
72.50000 1.494
72.52000 1.886
72.54000 2.400
72.56000 3.576
72.58000 3.891
72.60000 1.403
72.62000 2.520
72.64000 0.574
72.66000 -2.034
72.68000 -1.046
72.70000 -0.674
72.72000 2.941
72.74000 1.261
72.76000 1.544
72.78000 2.336
72.80000 1.591
72.82000 0.657
72.84000 -0.788
72.86000 0.742
72.88000 -1.468
72.90000 -2.039
72.92000 0.569
72.94000 0.056
72.96000 0.346
72.98000 0.624
73.00000 1.240
73.02000 1.478
73.04000 1.308
73.06000 3.418
73.08000 1.948
73.10000 1.966
73.12000 2.494
73.14000 5.110
73.16000 4.289
73.18000 3.775
73.20000 4.188
73.22000 4.364
73.24000 1.659
73.26000 3.702
73.28000 4.227
73.30000 3.283
73.32000 2.196
73.34000 -0.869
73.36000 0.605
73.38000 1.378
73.40000 2.086
73.42000 4.511
73.44000 2.476
73.46000 1.374
73.48000 1.322
73.50000 0.024
73.52000 1.482
73.54000 3.276
73.56000 3.565
73.58000 4.872
73.60000 1.344
73.62000 1.521
73.64000 2.015
73.66000 1.548
73.68000 2.293
73.70000 0.707
73.72000 -0.590
73.74000 1.200
73.76000 2.906
73.78000 3.878
73.80000 5.410
73.82000 3.708
73.84000 0.861
73.86000 0.384
73.88000 4.077
73.90000 2.162
73.92000 0.613
73.94000 0.845
73.96000 0.480
73.98000 4.367
74.00000 0.842
74.02000 1.421
74.04000 1.391
74.06000 4.124
74.08000 5.675
74.10000 5.534
74.12000 2.685
74.14000 2.284
74.16000 3.507
74.18000 0.014
74.20000 -1.993
74.22000 1.827
74.24000 1.269
74.26000 0.642
74.28000 1.273
74.30000 2.166
74.32000 0.701
74.34000 1.307
74.36000 5.351
74.38000 3.359
74.40000 4.052
74.42000 4.787
74.44000 4.516
74.46000 2.560
74.48000 -0.104
74.50000 -1.025
74.52000 -2.013
74.54000 2.599
74.56000 1.798
74.58000 2.527
74.60000 -0.199
74.62000 0.413
74.64000 -0.036
74.66000 0.810
74.68000 1.529
74.70000 2.672
74.72000 -0.486
74.74000 0.033
74.76000 1.409
74.78000 0.609
74.80000 1.402
74.82000 -0.520
74.84000 1.449
74.86000 0.848
74.88000 0.961
74.90000 2.825
74.92000 3.654
74.94000 1.752
74.96000 -0.782
74.98000 1.458
75.00000 3.001
75.02000 1.047
75.04000 1.572
75.06000 3.265
75.08000 -0.608
75.10000 -1.972
75.12000 -1.133
75.14000 1.119
75.16000 3.373
75.18000 0.682
75.20000 2.057
75.22000 5.220
75.24000 3.530
75.26000 3.655
75.28000 5.960
75.30000 1.213
75.32000 -1.435
75.34000 2.584
75.36000 4.451
75.38000 1.705
75.40000 0.064
75.42000 3.136
75.44000 5.578
75.46000 4.684
75.48000 4.117
75.50000 0.599
75.52000 0.892
75.54000 1.460
75.56000 1.708
75.58000 1.801
75.60000 0.820
75.62000 1.373
75.64000 -0.091
75.66000 0.606
75.68000 5.812
75.70000 0.742
75.72000 -0.007
75.74000 3.219
75.76000 2.204
75.78000 1.740
75.80000 0.563
75.82000 0.234
75.84000 0.733
75.86000 0.214
75.88000 3.188
75.90000 3.264
75.92000 4.360
75.94000 4.608
75.96000 1.168
75.98000 1.645
76.00000 5.708
76.02000 1.558
76.04000 0.554
76.06000 2.274
76.08000 -0.013
76.10000 -2.049
76.12000 -1.012
76.14000 -0.614
76.16000 -0.466
76.18000 4.966
76.20000 2.902
76.22000 3.297
76.24000 3.609
76.26000 5.701
76.28000 3.909
76.30000 1.685
76.32000 0.643
76.34000 2.582
76.36000 3.177
76.38000 5.980
76.40000 2.406
76.42000 -1.250
76.44000 4.515
76.46000 5.676
76.48000 2.710
76.50000 2.689
76.52000 1.547
76.54000 3.916
76.56000 4.519
76.58000 2.446
76.60000 2.922
76.62000 3.711
76.64000 5.234
76.66000 3.636
76.68000 2.043
76.70000 2.134
76.72000 4.484
76.74000 3.090
76.76000 1.987
76.78000 2.547
76.80000 -2.083
76.82000 0.272
76.84000 0.714
76.86000 4.491
76.88000 3.350
76.90000 -0.196
76.92000 0.096
76.94000 2.237
76.96000 2.777
76.98000 1.531
77.00000 -0.357
77.02000 3.654
77.04000 2.913
77.06000 2.661
77.08000 1.716
77.10000 0.269
77.12000 2.878
77.14000 5.958
77.16000 5.863
77.18000 3.192
77.20000 3.090
77.22000 2.119
77.24000 -2.118
77.26000 -1.869
77.28000 -1.389
77.30000 2.382
77.32000 4.588
77.34000 4.795
77.36000 1.599
77.38000 1.152
77.40000 -0.852
77.42000 -0.489
77.44000 1.775
77.46000 2.905
77.48000 2.189
77.50000 -0.728
77.52000 2.675
77.54000 2.883
77.56000 0.262
77.58000 -2.148
77.60000 -1.087
77.62000 -2.151
77.64000 -1.117
77.66000 -1.267
77.68000 -0.587
77.70000 0.438
77.72000 2.549
77.74000 -0.421
77.76000 -1.809
77.78000 2.708
77.80000 2.583
77.82000 2.816
77.84000 2.628
77.86000 4.259
77.88000 3.839
77.90000 1.550
77.92000 6.269
77.94000 4.951
77.96000 -1.478
77.98000 -2.183
78.00000 -0.551
78.02000 0.808
78.04000 2.861
78.06000 3.746
78.08000 1.552
78.10000 2.661
78.12000 0.431
78.14000 1.167
78.16000 2.331
78.18000 4.113
78.20000 4.517
78.22000 2.212
78.24000 3.711
78.26000 2.124
78.28000 -2.220
78.30000 -1.726
78.32000 3.152
78.34000 4.895
78.36000 6.484
78.38000 5.689
78.40000 2.297
78.42000 2.370
78.44000 5.766
78.46000 4.716
78.48000 3.710
78.50000 3.493
78.52000 5.756
78.54000 8.590
78.56000 8.572
78.58000 10.931
78.60000 10.410
78.62000 8.444
78.64000 8.456
78.66000 5.631
78.68000 8.579
78.70000 10.206
78.72000 10.610
78.74000 13.082
78.76000 11.469
78.78000 9.989
78.80000 10.411
78.82000 15.610
78.84000 14.507
78.86000 15.165
78.88000 17.255
78.90000 16.242
78.92000 17.540
78.94000 18.273
78.96000 20.906
78.98000 21.762
79.00000 20.095
79.02000 23.252
79.04000 19.794
79.06000 16.315
79.08000 23.935
79.10000 22.004
79.12000 21.245
79.14000 23.358
79.16000 22.963
79.18000 23.612
79.20000 26.775
79.22000 25.885
79.24000 22.436
79.26000 22.132
79.28000 23.947
79.30000 23.685
79.32000 24.847
79.34000 24.317
79.36000 25.545
79.38000 24.836
79.40000 24.449
79.42000 25.505
79.44000 26.083
79.46000 24.193
79.48000 20.916
79.50000 22.680
79.52000 20.404
79.54000 22.027
79.56000 25.976
79.58000 22.731
79.60000 19.776
79.62000 20.189
79.64000 24.470
79.66000 23.066
79.68000 21.529
79.70000 19.531
79.72000 17.277
79.74000 15.021
79.76000 17.858
79.78000 17.135
79.80000 13.800
79.82000 16.796
79.84000 11.603
79.86000 12.229
79.88000 13.871
79.90000 12.653
79.92000 12.405
79.94000 13.168
79.96000 8.180
79.98000 11.582
80.00000 12.411
80.02000 9.426
80.04000 9.577
80.06000 8.185
80.08000 8.445
80.10000 6.526
80.12000 6.288
80.14000 7.023
80.16000 6.540
80.18000 8.029
80.20000 6.275
80.22000 5.597
80.24000 5.863
80.26000 -0.471
80.28000 -1.312
80.30000 1.519
80.32000 6.347
80.34000 6.006
80.36000 1.605
80.38000 1.829
80.40000 6.023
80.42000 6.092
80.44000 3.996
80.46000 2.499
80.48000 -0.571
80.50000 -0.709
80.52000 -2.028
80.54000 3.293
80.56000 2.816
80.58000 -0.032
80.60000 2.204
80.62000 -0.510
80.64000 -1.455
80.66000 0.611
80.68000 3.036
80.70000 5.405
80.72000 1.208
80.74000 -2.334
80.76000 -0.820
80.78000 4.016
80.80000 4.462
80.82000 1.494
80.84000 -0.793
80.86000 0.284
80.88000 2.119
80.90000 2.054
80.92000 2.009
80.94000 3.075
80.96000 -0.818
80.98000 6.416
81.00000 2.239
81.02000 -1.083
81.04000 -2.331
81.06000 0.367
81.08000 4.808
81.10000 2.121
81.12000 2.454
81.14000 3.878
81.16000 1.409
81.18000 0.326
81.20000 1.153
81.22000 2.035
81.24000 4.431
81.26000 2.743
81.28000 0.097
81.30000 1.568
81.32000 4.488
81.34000 4.392
81.36000 2.019
81.38000 3.679
81.40000 3.270
81.42000 1.906
81.44000 0.582
81.46000 -0.166
81.48000 -2.338
81.50000 -0.447
81.52000 0.259
81.54000 -0.248
81.56000 1.681
81.58000 5.364
81.60000 4.781
81.62000 0.990
81.64000 3.769
81.66000 3.141
81.68000 4.316
81.70000 4.152
81.72000 4.032
81.74000 3.163
81.76000 3.424
81.78000 7.116
81.80000 5.551
81.82000 3.308
81.84000 2.541
81.86000 4.734
81.88000 8.936
81.90000 5.971
81.92000 4.123
81.94000 5.312
81.96000 4.860
81.98000 4.968
82.00000 5.446
82.02000 9.271
82.04000 8.748
82.06000 9.532
82.08000 8.954
82.10000 9.383
82.12000 8.064
82.14000 4.039
82.16000 1.608
82.18000 3.816
82.20000 7.398
82.22000 9.427
82.24000 11.622
82.26000 9.301
82.28000 11.917
82.30000 13.366
82.32000 12.050
82.34000 12.155
82.36000 10.874
82.38000 10.374
82.40000 11.144
82.42000 10.983
82.44000 11.082
82.46000 8.171
82.48000 10.143
82.50000 16.023
82.52000 18.595
82.54000 16.873
82.56000 14.090
82.58000 17.374
82.60000 22.723
82.62000 23.054
82.64000 20.988
82.66000 19.229
82.68000 20.387
82.70000 23.482
82.72000 24.850
82.74000 27.766
82.76000 24.544
82.78000 26.218
82.80000 29.934
82.82000 29.865
82.84000 31.071
82.86000 32.506
82.88000 30.364
82.90000 35.276
82.92000 36.283
82.94000 38.743
82.96000 40.907
82.98000 35.112
83.00000 36.346
83.02000 43.723
83.04000 47.982
83.06000 52.098
83.08000 54.855
83.10000 57.142
83.12000 57.006
83.14000 54.097
83.16000 51.940
83.18000 56.637
83.20000 64.021
83.22000 66.487
83.24000 64.557
83.26000 65.736
83.28000 67.909
83.30000 70.963
83.32000 72.934
83.34000 75.358
83.36000 73.271
83.38000 70.613
83.40000 77.009
83.42000 73.401
83.44000 75.537
83.46000 76.072
83.48000 73.905
83.50000 70.793
83.52000 66.557
83.54000 70.561
83.56000 64.667
83.58000 64.059
83.60000 61.430
83.62000 63.746
83.64000 63.189
83.66000 61.172
83.68000 57.265
83.70000 53.099
83.72000 55.358
83.74000 49.137
83.76000 49.452
83.78000 50.024
83.80000 55.110
83.82000 54.992
83.84000 46.317
83.86000 41.555
83.88000 41.817
83.90000 40.761
83.92000 37.910
83.94000 33.582
83.96000 31.776
83.98000 28.888
84.00000 31.133
84.02000 32.712
84.04000 33.524
84.06000 28.548
84.08000 25.352
84.10000 24.894
84.12000 21.758
84.14000 17.463
84.16000 20.060
84.18000 24.652
84.20000 21.853
84.22000 18.134
84.24000 15.326
84.26000 15.778
84.28000 11.178
84.30000 10.064
84.32000 13.406
84.34000 12.463
84.36000 8.731
84.38000 8.876
84.40000 8.294
84.42000 8.249
84.44000 7.377
84.46000 7.036
84.48000 7.632
84.50000 6.025
84.52000 6.271
84.54000 6.558
84.56000 4.584
84.58000 3.988
84.60000 5.867
84.62000 5.197
84.64000 8.638
84.66000 6.145
84.68000 4.205
84.70000 4.325
84.72000 2.446
84.74000 4.198
84.76000 6.185
84.78000 3.133
84.80000 2.768
84.82000 3.323
84.84000 3.588
84.86000 3.754
84.88000 4.168
84.90000 2.033
84.92000 0.266
84.94000 0.530
84.96000 2.067
84.98000 2.559
85.00000 0.231
85.02000 -1.645
85.04000 -0.947
85.06000 2.381
85.08000 3.162
85.10000 3.329
85.12000 2.363
85.14000 -0.997
85.16000 2.344
85.18000 1.559
85.20000 1.140
85.22000 1.813
85.24000 -1.543
85.26000 -2.072
85.28000 1.950
85.30000 3.436
85.32000 3.428
85.34000 1.002
85.36000 2.325
85.38000 1.278
85.40000 2.285
85.42000 0.735
85.44000 -0.033
85.46000 2.176
85.48000 1.360
85.50000 0.418
85.52000 3.069
85.54000 2.009
85.56000 -0.410
85.58000 0.517
85.60000 1.344
85.62000 2.082
85.64000 3.947
85.66000 1.383
85.68000 0.578
85.70000 -2.029
85.72000 1.123
85.74000 1.353
85.76000 1.217
85.78000 0.958
85.80000 -1.507
85.82000 2.411
85.84000 1.552
85.86000 1.627
85.88000 -0.545
85.90000 -2.006
85.92000 3.273
85.94000 2.995
85.96000 0.222
85.98000 -1.062
86.00000 0.620
86.02000 5.699
86.04000 4.953
86.06000 1.542
86.08000 1.168
86.10000 -1.178
86.12000 -0.556
86.14000 1.016
86.16000 -0.351
86.18000 -1.025
86.20000 2.344
86.22000 2.179
86.24000 0.223
86.26000 -1.495
86.28000 1.436
86.30000 0.405
86.32000 1.113
86.34000 2.112
86.36000 3.488
86.38000 0.766
86.40000 1.491
86.42000 1.039
86.44000 -1.806
86.46000 1.036
86.48000 2.998
86.50000 -1.357
86.52000 -1.991
86.54000 -0.939
86.56000 -0.182
86.58000 1.361
86.60000 1.348
86.62000 1.948
86.64000 2.952
86.66000 2.251
86.68000 1.365
86.70000 2.442
86.72000 0.986
86.74000 1.544
86.76000 0.914
86.78000 -0.894
86.80000 0.050
86.82000 -0.932
86.84000 0.311
86.86000 -1.975
86.88000 -1.391
86.90000 1.000
86.92000 2.743
86.94000 3.288
86.96000 2.713
86.98000 1.201
87.00000 0.708
87.02000 0.747
87.04000 -1.001
87.06000 0.602
87.08000 1.393
87.10000 2.885
87.12000 1.538
87.14000 1.672
87.16000 3.436
87.18000 3.041
87.20000 0.111
87.22000 0.562
87.24000 1.930
87.26000 2.402
87.28000 5.508
87.30000 0.836
87.32000 -0.984
87.34000 -0.021
87.36000 -1.452
87.38000 0.811
87.40000 1.921
87.42000 2.036
87.44000 2.678
87.46000 -0.356
87.48000 3.583
87.50000 3.116
87.52000 4.445
87.54000 4.567
87.56000 5.942
87.58000 5.189
87.60000 2.352
87.62000 -1.852
87.64000 -1.923
87.66000 1.217
87.68000 0.731
87.70000 1.279
87.72000 2.439
87.74000 2.382
87.76000 1.099
87.78000 -0.460
87.80000 2.194
87.82000 3.360
87.84000 0.239
87.86000 3.480
87.88000 3.200
87.90000 5.008
87.92000 3.413
87.94000 3.065
87.96000 1.859
87.98000 1.130
88.00000 0.400
88.02000 2.347
88.04000 2.864
88.06000 3.930
88.08000 1.003
88.10000 0.545
88.12000 0.403
88.14000 1.864
88.16000 1.918
88.18000 3.548
88.20000 1.937
88.22000 -1.910
88.24000 -1.245
88.26000 0.923
88.28000 2.660
88.30000 2.134
88.32000 0.486
88.34000 0.249
88.36000 -0.089
88.38000 3.447
88.40000 2.142
88.42000 4.523
88.44000 -0.121
88.46000 -0.577
88.48000 2.843
88.50000 3.657
88.52000 3.507
88.54000 2.125
88.56000 1.611
88.58000 2.720
88.60000 2.276
88.62000 0.219
88.64000 -1.907
88.66000 -1.319
88.68000 -0.716
88.70000 0.633
88.72000 1.752
88.74000 2.080
88.76000 2.085
88.78000 0.949
88.80000 0.503
88.82000 -0.287
88.84000 -1.108
88.86000 -0.082
88.88000 3.309
88.90000 -0.124
88.92000 3.537
88.94000 2.512
88.96000 -1.167
88.98000 1.336
89.00000 4.044
89.02000 3.561
89.04000 2.358
89.06000 2.234
89.08000 1.061
89.10000 -0.296
89.12000 1.146
89.14000 0.987
89.16000 0.143
89.18000 -0.285
89.20000 1.126
89.22000 -1.182
89.24000 0.320
89.26000 0.926
89.28000 -0.987
89.30000 -1.154
89.32000 -0.408
89.34000 0.087
89.36000 0.447
89.38000 0.333
89.40000 -0.051
89.42000 2.926
89.44000 3.168
89.46000 2.162
89.48000 3.012
89.50000 2.428
89.52000 1.979
89.54000 -0.949
89.56000 -0.080
89.58000 0.724
89.60000 3.761
89.62000 0.550
89.64000 -1.919
89.66000 1.403
89.68000 3.023
89.70000 2.973
89.72000 3.922
89.74000 -0.343
89.76000 0.477
89.78000 0.729
89.80000 4.257
89.82000 0.060
89.84000 1.837
89.86000 4.720
89.88000 4.991
89.90000 4.700
89.92000 5.358
89.94000 3.089
89.96000 1.951
89.98000 4.136
90.00000 3.430
90.02000 0.641
90.04000 0.888
90.06000 1.686
90.08000 4.504
90.10000 0.115
90.12000 -1.901
90.14000 -0.569
90.16000 0.102
90.18000 -0.163
90.20000 2.901
90.22000 0.953
90.24000 1.191
90.26000 3.763
90.28000 2.875
90.30000 -1.741
90.32000 1.997
90.34000 4.546
90.36000 2.676
90.38000 4.376
90.40000 1.732
90.42000 2.745
90.44000 0.135
90.46000 1.780
90.48000 0.397
90.50000 0.333
90.52000 -0.628
90.54000 -0.083
90.56000 3.229
90.58000 2.307
90.60000 0.410
90.62000 0.327
90.64000 0.341
90.66000 -0.613
90.68000 -0.749
90.70000 0.979
90.72000 0.913
90.74000 2.374
90.76000 2.457
90.78000 2.435
90.80000 0.523
90.82000 0.831
90.84000 -1.172
90.86000 -0.589
90.88000 3.421
90.90000 1.619
90.92000 -0.969
90.94000 1.092
90.96000 3.364
90.98000 2.177
91.00000 3.111
91.02000 3.616
91.04000 4.655
91.06000 3.476
91.08000 1.954
91.10000 0.551
91.12000 2.743
91.14000 3.146
91.16000 3.590
91.18000 1.837
91.20000 -0.229
91.22000 3.080
91.24000 1.908
91.26000 2.237
91.28000 3.065
91.30000 1.386
91.32000 1.487
91.34000 2.967
91.36000 5.170
91.38000 2.794
91.40000 4.619
91.42000 4.874
91.44000 4.533
91.46000 2.806
91.48000 2.205
91.50000 4.373
91.52000 3.817
91.54000 2.418
91.56000 3.728
91.58000 4.639
91.60000 2.858
91.62000 0.464
91.64000 2.990
91.66000 3.229
91.68000 1.166
91.70000 -1.857
91.72000 1.978
91.74000 2.401
91.76000 3.507
91.78000 4.099
91.80000 9.571
91.82000 9.788
91.84000 6.382
91.86000 4.769
91.88000 2.640
91.90000 0.271
91.92000 4.538
91.94000 4.476
91.96000 4.525
91.98000 2.951
92.00000 3.974
92.02000 4.616
92.04000 3.752
92.06000 2.879
92.08000 2.962
92.10000 3.322
92.12000 3.045
92.14000 2.227
92.16000 3.047
92.18000 2.978
92.20000 4.337
92.22000 6.117
92.24000 6.130
92.26000 2.270
92.28000 0.581
92.30000 0.944
92.32000 4.193
92.34000 1.752
92.36000 -0.628
92.38000 1.194
92.40000 4.054
92.42000 7.191
92.44000 3.318
92.46000 3.788
92.48000 4.573
92.50000 6.281
92.52000 5.394
92.54000 4.778
92.56000 5.970
92.58000 3.952
92.60000 1.568
92.62000 5.784
92.64000 4.970
92.66000 2.658
92.68000 2.508
92.70000 1.890
92.72000 0.654
92.74000 1.092
92.76000 1.429
92.78000 4.748
92.80000 4.484
92.82000 1.865
92.84000 1.229
92.86000 0.751
92.88000 5.377
92.90000 4.227
92.92000 2.341
92.94000 1.878
92.96000 2.112
92.98000 -1.872
93.00000 0.032
93.02000 1.041
93.04000 6.420
93.06000 2.181
93.08000 -0.074
93.10000 -0.279
93.12000 1.501
93.14000 1.009
93.16000 6.576
93.18000 5.973
93.20000 6.887
93.22000 7.138
93.24000 5.921
93.26000 3.364
93.28000 3.525
93.30000 3.180
93.32000 0.118
93.34000 -0.072
93.36000 4.979
93.38000 3.154
93.40000 1.164
93.42000 1.190
93.44000 4.109
93.46000 4.655
93.48000 0.887
93.50000 1.977
93.52000 4.969
93.54000 -0.690
93.56000 -0.200
93.58000 -1.886
93.60000 -0.647
93.62000 2.712
93.64000 8.634
93.66000 4.504
93.68000 0.646
93.70000 3.227
93.72000 7.227
93.74000 3.600
93.76000 2.229
93.78000 6.106
93.80000 4.024
93.82000 1.296
93.84000 0.931
93.86000 4.561
93.88000 8.093
93.90000 6.738
93.92000 3.344
93.94000 -1.890
93.96000 -0.702
93.98000 2.365
94.00000 4.519
94.02000 5.012
94.04000 0.228
94.06000 -0.556
94.08000 1.508
94.10000 3.785
94.12000 2.885
94.14000 5.244
94.16000 2.749
94.18000 1.696
94.20000 2.191
94.22000 4.779
94.24000 1.381
94.26000 4.540
94.28000 6.583
94.30000 3.397
94.32000 2.293
94.34000 5.254
94.36000 5.145
94.38000 3.452
94.40000 -1.907
94.42000 -0.315
94.44000 -1.243
94.46000 2.559
94.48000 3.386
94.50000 5.245
94.52000 5.340
94.54000 0.957
94.56000 3.407
94.58000 3.132
94.60000 2.849
94.62000 4.874
94.64000 1.532
94.66000 1.903
94.68000 4.643
94.70000 6.039
94.72000 4.377
94.74000 2.653
94.76000 4.514
94.78000 3.137
94.80000 4.680
94.82000 2.467
94.84000 -0.140
94.86000 -0.638
94.88000 1.526
94.90000 2.704
94.92000 4.932
94.94000 3.935
94.96000 2.470
94.98000 1.546
95.00000 0.522
95.02000 0.788
95.04000 2.903
95.06000 -0.530
95.08000 0.129
95.10000 -0.682
95.12000 1.126
95.14000 0.157
95.16000 -0.236
95.18000 4.078
95.20000 4.901
95.22000 3.885
95.24000 3.402
95.26000 1.389
95.28000 -0.345
95.30000 -1.937
95.32000 0.887
95.34000 0.324
95.36000 -1.663
95.38000 2.248
95.40000 2.251
95.42000 3.813
95.44000 2.614
95.46000 -0.103
95.48000 0.487
95.50000 0.302
95.52000 1.112
95.54000 -0.587
95.56000 1.420
95.58000 0.570
95.60000 -1.947
95.62000 1.175
95.64000 0.109
95.66000 3.013
95.68000 3.498
95.70000 0.835
95.72000 0.871
95.74000 1.224
95.76000 -0.971
95.78000 1.195
95.80000 1.385
95.82000 0.196
95.84000 0.929
95.86000 0.183
95.88000 -1.191
95.90000 1.053
95.92000 1.562
95.94000 0.686
95.96000 -0.583
95.98000 -1.565
96.00000 0.892
96.02000 -0.339
96.04000 3.694
96.06000 -1.070
96.08000 2.298
96.10000 2.501
96.12000 0.819
96.14000 4.433
96.16000 5.358
96.18000 4.698
96.20000 2.385
96.22000 3.187
96.24000 3.479
96.26000 3.429
96.28000 1.294
96.30000 2.705
96.32000 -1.055
96.34000 1.607
96.36000 1.922
96.38000 -0.644
96.40000 2.207
96.42000 0.704
96.44000 -1.482
96.46000 0.696
96.48000 -0.043
96.50000 3.011
96.52000 1.138
96.54000 1.172
96.56000 3.682
96.58000 3.851
96.60000 2.324
96.62000 2.885
96.64000 1.005
96.66000 2.421
96.68000 3.260
96.70000 4.253
96.72000 0.503
96.74000 2.074
96.76000 2.420
96.78000 1.159
96.80000 -0.211
96.82000 2.214
96.84000 6.144
96.86000 3.752
96.88000 3.161
96.90000 1.868
96.92000 1.700
96.94000 6.288
96.96000 5.698
96.98000 1.282
97.00000 4.529
97.02000 4.083
97.04000 5.463
97.06000 4.974
97.08000 -0.069
97.10000 1.090
97.12000 4.033
97.14000 2.714
97.16000 3.751
97.18000 5.051
97.20000 5.149
97.22000 2.573
97.24000 3.492
97.26000 4.612
97.28000 9.517
97.30000 5.341
97.32000 -0.434
97.34000 -1.891
97.36000 -1.460
97.38000 4.542
97.40000 7.453
97.42000 6.348
97.44000 5.819
97.46000 9.379
97.48000 4.091
97.50000 -0.383
97.52000 2.906
97.54000 2.689
97.56000 1.909
97.58000 1.453
97.60000 4.367
97.62000 2.635
97.64000 2.593
97.66000 4.112
97.68000 5.544
97.70000 9.263
97.72000 6.506
97.74000 4.560
97.76000 1.610
97.78000 1.411
97.80000 -1.624
97.82000 1.987
97.84000 8.090
97.86000 8.187
97.88000 5.384
97.90000 6.715
97.92000 4.759
97.94000 1.602
97.96000 -0.264
97.98000 2.779
98.00000 2.199
98.02000 4.619
98.04000 3.744
98.06000 4.683
98.08000 4.683
98.10000 4.333
98.12000 3.014
98.14000 0.017
98.16000 -1.852
98.18000 0.854
98.20000 5.653
98.22000 6.082
98.24000 4.993
98.26000 5.699
98.28000 5.137
98.30000 3.663
98.32000 3.480
98.34000 7.038
98.36000 3.469
98.38000 2.546
98.40000 8.543
98.42000 2.051
98.44000 0.449
98.46000 6.626
98.48000 7.914
98.50000 3.772
98.52000 5.585
98.54000 3.979
98.56000 0.963
98.58000 2.287
98.60000 0.252
98.62000 8.829
98.64000 6.177
98.66000 2.465
98.68000 2.904
98.70000 1.681
98.72000 2.760
98.74000 2.305
98.76000 5.792
98.78000 5.622
98.80000 8.933
98.82000 4.362
98.84000 3.570
98.86000 2.507
98.88000 1.727
98.90000 2.354
98.92000 3.299
98.94000 10.708
98.96000 6.775
98.98000 1.165
99.00000 0.256
99.02000 -1.873
99.04000 4.566
99.06000 4.822
99.08000 5.916
99.10000 2.154
99.12000 5.440
99.14000 7.050
99.16000 2.561
99.18000 -1.099
99.20000 2.070
99.22000 6.270
99.24000 6.074
99.26000 2.566
99.28000 9.081
99.30000 17.622
99.32000 10.625
99.34000 5.220
99.36000 4.350
99.38000 -1.573
99.40000 2.553
99.42000 4.705
99.44000 0.746
99.46000 -0.212
99.48000 3.530
99.50000 6.250
99.52000 13.234
99.54000 3.542
99.56000 2.664
99.58000 3.464
99.60000 7.295
99.62000 3.846
99.64000 7.189
99.66000 4.855
99.68000 1.729
99.70000 5.864
99.72000 1.718
99.74000 3.368
99.76000 16.226
99.78000 15.087
99.80000 9.701
99.82000 4.472
99.84000 0.677
99.86000 -1.872
99.88000 4.438
99.90000 4.359
99.92000 -0.721
99.94000 1.196
99.96000 6.229
99.98000 0.000
