'Id: "0011389" Comment: "Integrate frame 0011389_Au-Ir-Rh_Au-Rich_XRD_Mapping-144-0000.gfrmwith cursor Wedge Cursor #5" Operator: "B?rgel" Anode: "Cu" Wavelength: "1.5406" Scantype: "2Theta (TwoTheta)" TimePerStep: "1" X: "-9" Y: "-4.5" Z: "5.95" 
10.00000 0.000
10.02000 5.833
10.04000 6.796
10.06000 -4.116
10.08000 -10.438
10.10000 21.846
10.12000 34.801
10.14000 39.616
10.16000 39.160
10.18000 14.439
10.20000 13.042
10.22000 25.697
10.24000 22.762
10.26000 11.107
10.28000 10.461
10.30000 28.492
10.32000 24.831
10.34000 12.216
10.36000 -4.136
10.38000 4.460
10.40000 24.232
10.42000 34.301
10.44000 33.608
10.46000 12.329
10.48000 23.961
10.50000 15.779
10.52000 14.077
10.54000 14.767
10.56000 12.018
10.58000 18.618
10.60000 25.244
10.62000 21.808
10.64000 16.407
10.66000 14.799
10.68000 9.791
10.70000 12.305
10.72000 8.792
10.74000 8.277
10.76000 39.158
10.78000 37.370
10.80000 27.572
10.82000 29.499
10.84000 32.959
10.86000 21.047
10.88000 20.114
10.90000 16.927
10.92000 9.988
10.94000 15.774
10.96000 16.214
10.98000 22.160
11.00000 22.572
11.02000 21.003
11.04000 14.779
11.06000 22.700
11.08000 20.659
11.10000 16.589
11.12000 28.481
11.14000 25.180
11.16000 23.584
11.18000 18.629
11.20000 25.200
11.22000 18.021
11.24000 16.684
11.26000 20.013
11.28000 15.968
11.30000 14.347
11.32000 23.064
11.34000 30.681
11.36000 21.261
11.38000 19.917
11.40000 19.466
11.42000 22.683
11.44000 36.280
11.46000 25.885
11.48000 20.885
11.50000 15.597
11.52000 24.522
11.54000 17.003
11.56000 26.692
11.58000 21.291
11.60000 12.146
11.62000 17.521
11.64000 22.196
11.66000 5.491
11.68000 12.316
11.70000 21.429
11.72000 24.736
11.74000 19.580
11.76000 21.896
11.78000 20.071
11.80000 23.736
11.82000 22.545
11.84000 22.376
11.86000 16.065
11.88000 15.731
11.90000 14.571
11.92000 11.339
11.94000 25.222
11.96000 21.089
11.98000 23.071
12.00000 21.744
12.02000 22.642
12.04000 12.426
12.06000 13.819
12.08000 9.556
12.10000 13.989
12.12000 23.412
12.14000 24.277
12.16000 23.454
12.18000 18.121
12.20000 18.476
12.22000 18.990
12.24000 18.857
12.26000 14.131
12.28000 18.161
12.30000 23.607
12.32000 28.901
12.34000 22.096
12.36000 21.177
12.38000 13.312
12.40000 1.212
12.42000 5.916
12.44000 17.035
12.46000 26.879
12.48000 29.903
12.50000 23.548
12.52000 16.119
12.54000 14.120
12.56000 20.726
12.58000 24.819
12.60000 19.389
12.62000 12.732
12.64000 18.577
12.66000 20.120
12.68000 13.867
12.70000 15.207
12.72000 26.052
12.74000 21.190
12.76000 10.711
12.78000 21.399
12.80000 25.229
12.82000 24.072
12.84000 13.151
12.86000 25.455
12.88000 24.938
12.90000 14.828
12.92000 16.552
12.94000 17.430
12.96000 22.288
12.98000 17.297
13.00000 16.603
13.02000 11.315
13.04000 12.375
13.06000 8.691
13.08000 16.258
13.10000 25.952
13.12000 20.143
13.14000 17.838
13.16000 16.278
13.18000 12.544
13.20000 15.574
13.22000 17.360
13.24000 17.215
13.26000 31.725
13.28000 20.028
13.30000 18.268
13.32000 17.499
13.34000 15.696
13.36000 16.802
13.38000 25.853
13.40000 19.980
13.42000 21.257
13.44000 26.006
13.46000 12.035
13.48000 11.350
13.50000 21.169
13.52000 21.869
13.54000 19.727
13.56000 22.849
13.58000 20.016
13.60000 18.300
13.62000 12.081
13.64000 13.958
13.66000 1.926
13.68000 14.301
13.70000 23.412
13.72000 8.717
13.74000 11.415
13.76000 17.271
13.78000 11.862
13.80000 11.840
13.82000 9.156
13.84000 10.925
13.86000 16.097
13.88000 17.015
13.90000 13.558
13.92000 12.214
13.94000 11.841
13.96000 10.377
13.98000 16.313
14.00000 16.283
14.02000 21.503
14.04000 12.484
14.06000 3.592
14.08000 15.869
14.10000 9.299
14.12000 18.677
14.14000 15.150
14.16000 13.483
14.18000 10.125
14.20000 15.578
14.22000 20.838
14.24000 17.077
14.26000 16.937
14.28000 10.033
14.30000 4.105
14.32000 8.209
14.34000 6.960
14.36000 6.520
14.38000 10.219
14.40000 10.567
14.42000 4.179
14.44000 4.193
14.46000 6.209
14.48000 11.950
14.50000 8.913
14.52000 6.805
14.54000 -4.452
14.56000 2.415
14.58000 5.805
14.60000 16.554
14.62000 19.447
14.64000 12.996
14.66000 8.594
14.68000 5.034
14.70000 9.103
14.72000 7.472
14.74000 12.721
14.76000 3.297
14.78000 8.228
14.80000 9.354
14.82000 13.827
14.84000 15.876
14.86000 10.762
14.88000 3.996
14.90000 9.474
14.92000 16.846
14.94000 11.055
14.96000 9.029
14.98000 14.602
15.00000 17.272
15.02000 6.300
15.04000 5.688
15.06000 7.353
15.08000 11.138
15.10000 0.483
15.12000 -2.315
15.14000 3.387
15.16000 12.497
15.18000 9.327
15.20000 11.766
15.22000 8.792
15.24000 11.212
15.26000 7.893
15.28000 7.767
15.30000 3.012
15.32000 -1.030
15.34000 5.010
15.36000 5.138
15.38000 8.587
15.40000 8.609
15.42000 6.825
15.44000 12.457
15.46000 7.796
15.48000 3.899
15.50000 6.752
15.52000 14.399
15.54000 11.104
15.56000 10.978
15.58000 5.960
15.60000 8.580
15.62000 8.905
15.64000 6.761
15.66000 2.734
15.68000 6.837
15.70000 5.031
15.72000 8.981
15.74000 8.770
15.76000 4.148
15.78000 1.447
15.80000 5.105
15.82000 11.064
15.84000 5.807
15.86000 3.959
15.88000 14.690
15.90000 14.680
15.92000 4.699
15.94000 0.717
15.96000 3.824
15.98000 10.062
16.00000 3.124
16.02000 6.309
16.04000 2.424
16.06000 -1.316
16.08000 -0.237
16.10000 3.924
16.12000 12.895
16.14000 7.609
16.16000 5.553
16.18000 5.503
16.20000 15.605
16.22000 10.401
16.24000 18.411
16.26000 22.072
16.28000 15.913
16.30000 19.183
16.32000 7.319
16.34000 8.756
16.36000 12.663
16.38000 7.155
16.40000 4.898
16.42000 5.481
16.44000 6.750
16.46000 7.293
16.48000 8.635
16.50000 9.389
16.52000 6.096
16.54000 6.133
16.56000 1.576
16.58000 -4.397
16.60000 -0.894
16.62000 6.645
16.64000 8.034
16.66000 3.937
16.68000 6.583
16.70000 9.902
16.72000 14.738
16.74000 6.363
16.76000 5.016
16.78000 5.514
16.80000 4.229
16.82000 -0.559
16.84000 7.007
16.86000 8.024
16.88000 4.968
16.90000 10.539
16.92000 4.236
16.94000 0.564
16.96000 1.293
16.98000 11.566
17.00000 9.656
17.02000 7.518
17.04000 12.509
17.06000 6.422
17.08000 3.364
17.10000 10.554
17.12000 4.922
17.14000 2.810
17.16000 -2.646
17.18000 3.938
17.20000 5.151
17.22000 6.684
17.24000 13.331
17.26000 9.459
17.28000 4.713
17.30000 4.896
17.32000 5.828
17.34000 4.775
17.36000 1.619
17.38000 9.295
17.40000 4.728
17.42000 5.428
17.44000 8.012
17.46000 13.875
17.48000 7.546
17.50000 9.614
17.52000 7.048
17.54000 7.853
17.56000 10.083
17.58000 10.435
17.60000 4.591
17.62000 6.520
17.64000 4.432
17.66000 0.570
17.68000 5.275
17.70000 -4.349
17.72000 1.606
17.74000 5.374
17.76000 11.854
17.78000 9.529
17.80000 1.478
17.82000 -3.580
17.84000 -3.566
17.86000 2.546
17.88000 9.256
17.90000 4.290
17.92000 6.663
17.94000 3.368
17.96000 5.758
17.98000 8.198
18.00000 2.268
18.02000 0.608
18.04000 7.717
18.06000 -1.266
18.08000 -1.937
18.10000 6.805
18.12000 7.612
18.14000 15.232
18.16000 13.414
18.18000 10.932
18.20000 10.086
18.22000 6.365
18.24000 7.448
18.26000 6.282
18.28000 6.764
18.30000 4.642
18.32000 8.050
18.34000 13.409
18.36000 4.962
18.38000 3.976
18.40000 2.192
18.42000 5.540
18.44000 2.666
18.46000 9.819
18.48000 11.998
18.50000 12.999
18.52000 10.434
18.54000 5.951
18.56000 7.692
18.58000 4.481
18.60000 4.927
18.62000 5.212
18.64000 3.399
18.66000 2.705
18.68000 1.504
18.70000 0.828
18.72000 9.532
18.74000 5.512
18.76000 5.919
18.78000 6.988
18.80000 8.133
18.82000 7.682
18.84000 10.592
18.86000 7.922
18.88000 1.508
18.90000 -3.372
18.92000 8.996
18.94000 13.196
18.96000 7.912
18.98000 5.297
19.00000 5.728
19.02000 6.309
19.04000 7.047
19.06000 9.428
19.08000 7.822
19.10000 5.406
19.12000 3.686
19.14000 2.363
19.16000 10.214
19.18000 10.272
19.20000 3.260
19.22000 7.580
19.24000 4.993
19.26000 9.962
19.28000 11.713
19.30000 5.390
19.32000 3.018
19.34000 11.715
19.36000 7.635
19.38000 8.842
19.40000 7.311
19.42000 3.763
19.44000 0.058
19.46000 4.517
19.48000 8.342
19.50000 -4.102
19.52000 -4.223
19.54000 2.387
19.56000 10.025
19.58000 6.506
19.60000 13.842
19.62000 15.188
19.64000 15.790
19.66000 7.415
19.68000 5.906
19.70000 9.279
19.72000 4.807
19.74000 8.205
19.76000 10.719
19.78000 4.901
19.80000 11.131
19.82000 8.876
19.84000 11.166
19.86000 4.364
19.88000 9.722
19.90000 10.271
19.92000 9.731
19.94000 10.305
19.96000 8.087
19.98000 6.980
20.00000 6.888
20.02000 1.879
20.04000 -4.190
20.06000 3.490
20.08000 3.733
20.10000 9.962
20.12000 7.877
20.14000 0.610
20.16000 6.242
20.18000 4.479
20.20000 4.182
20.22000 6.299
20.24000 7.554
20.26000 7.044
20.28000 5.394
20.30000 8.001
20.32000 7.042
20.34000 5.297
20.36000 4.949
20.38000 -4.186
20.40000 -1.272
20.42000 1.860
20.44000 6.018
20.46000 1.026
20.48000 4.749
20.50000 5.794
20.52000 4.559
20.54000 2.035
20.56000 9.082
20.58000 9.396
20.60000 10.825
20.62000 4.998
20.64000 3.539
20.66000 8.578
20.68000 13.444
20.70000 4.667
20.72000 0.509
20.74000 3.890
20.76000 5.473
20.78000 8.155
20.80000 8.027
20.82000 9.089
20.84000 4.201
20.86000 0.634
20.88000 -3.672
20.90000 4.795
20.92000 1.236
20.94000 3.155
20.96000 2.208
20.98000 -0.146
21.00000 3.451
21.02000 -0.363
21.04000 1.095
21.06000 -0.570
21.08000 3.230
21.10000 5.612
21.12000 3.164
21.14000 -4.165
21.16000 1.365
21.18000 6.671
21.20000 7.597
21.22000 6.630
21.24000 0.525
21.26000 4.929
21.28000 1.312
21.30000 -0.709
21.32000 6.705
21.34000 5.039
21.36000 0.005
21.38000 -0.281
21.40000 -1.122
21.42000 -3.696
21.44000 -0.232
21.46000 4.333
21.48000 6.431
21.50000 2.179
21.52000 2.722
21.54000 3.828
21.56000 2.654
21.58000 3.238
21.60000 -1.366
21.62000 4.651
21.64000 13.435
21.66000 7.460
21.68000 -0.720
21.70000 -1.622
21.72000 1.050
21.74000 2.098
21.76000 8.323
21.78000 4.640
21.80000 -0.163
21.82000 3.851
21.84000 2.551
21.86000 3.690
21.88000 2.715
21.90000 6.741
21.92000 3.836
21.94000 2.660
21.96000 -0.120
21.98000 4.757
22.00000 2.592
22.02000 1.943
22.04000 5.574
22.06000 5.465
22.08000 1.501
22.10000 7.002
22.12000 2.112
22.14000 2.724
22.16000 2.888
22.18000 2.315
22.20000 0.359
22.22000 2.577
22.24000 2.577
22.26000 3.731
22.28000 3.301
22.30000 5.392
22.32000 0.267
22.34000 2.311
22.36000 3.917
22.38000 -0.718
22.40000 6.135
22.42000 7.499
22.44000 -1.393
22.46000 3.418
22.48000 6.911
22.50000 10.964
22.52000 7.397
22.54000 4.067
22.56000 6.601
22.58000 12.290
22.60000 10.293
22.62000 4.252
22.64000 -1.638
22.66000 -0.750
22.68000 5.082
22.70000 8.020
22.72000 9.141
22.74000 9.114
22.76000 3.323
22.78000 0.881
22.80000 2.081
22.82000 8.666
22.84000 3.852
22.86000 -1.413
22.88000 2.088
22.90000 9.644
22.92000 7.245
22.94000 4.185
22.96000 4.963
22.98000 3.375
23.00000 2.950
23.02000 4.447
23.04000 6.962
23.06000 6.404
23.08000 3.797
23.10000 2.162
23.12000 0.140
23.14000 -4.033
23.16000 -3.805
23.18000 4.789
23.20000 7.157
23.22000 3.337
23.24000 6.704
23.26000 3.649
23.28000 2.368
23.30000 5.302
23.32000 5.441
23.34000 7.023
23.36000 8.277
23.38000 2.553
23.40000 5.847
23.42000 10.295
23.44000 14.615
23.46000 11.181
23.48000 5.519
23.50000 6.281
23.52000 6.299
23.54000 5.957
23.56000 4.645
23.58000 3.435
23.60000 -1.301
23.62000 -0.527
23.64000 3.668
23.66000 4.475
23.68000 -0.523
23.70000 2.138
23.72000 8.119
23.74000 8.931
23.76000 6.775
23.78000 4.419
23.80000 2.761
23.82000 8.335
23.84000 3.295
23.86000 5.385
23.88000 5.608
23.90000 12.971
23.92000 6.162
23.94000 1.039
23.96000 -3.235
23.98000 -2.561
24.00000 2.430
24.02000 3.158
24.04000 0.415
24.06000 3.621
24.08000 1.764
24.10000 2.291
24.12000 1.712
24.14000 1.450
24.16000 -1.409
24.18000 4.020
24.20000 2.394
24.22000 -3.255
24.24000 2.380
24.26000 2.424
24.28000 1.948
24.30000 7.326
24.32000 5.709
24.34000 0.244
24.36000 -3.992
24.38000 -1.046
24.40000 1.432
24.42000 7.496
24.44000 0.986
24.46000 -1.378
24.48000 4.458
24.50000 5.390
24.52000 5.172
24.54000 10.053
24.56000 10.184
24.58000 -2.225
24.60000 -2.550
24.62000 -0.683
24.64000 0.271
24.66000 0.487
24.68000 -0.506
24.70000 0.141
24.72000 6.334
24.74000 5.804
24.76000 6.239
24.78000 3.695
24.80000 1.527
24.82000 -2.914
24.84000 -0.025
24.86000 2.061
24.88000 -2.507
24.90000 -0.459
24.92000 1.999
24.94000 -0.327
24.96000 4.305
24.98000 7.480
25.00000 2.010
25.02000 -1.454
25.04000 -1.297
25.06000 1.003
25.08000 -1.984
25.10000 -0.924
25.12000 1.140
25.14000 8.904
25.16000 4.159
25.18000 10.309
25.20000 8.746
25.22000 4.844
25.24000 4.824
25.26000 1.915
25.28000 -3.927
25.30000 -1.277
25.32000 3.536
25.34000 2.754
25.36000 3.915
25.38000 6.252
25.40000 3.642
25.42000 1.660
25.44000 2.952
25.46000 6.299
25.48000 9.399
25.50000 5.593
25.52000 -0.093
25.54000 1.407
25.56000 1.860
25.58000 3.695
25.60000 1.877
25.62000 5.417
25.64000 5.460
25.66000 3.552
25.68000 2.894
25.70000 3.443
25.72000 5.398
25.74000 9.880
25.76000 4.155
25.78000 9.068
25.80000 7.729
25.82000 8.306
25.84000 4.886
25.86000 3.628
25.88000 7.365
25.90000 8.126
25.92000 1.434
25.94000 0.859
25.96000 5.596
25.98000 3.613
26.00000 4.257
26.02000 3.942
26.04000 2.915
26.06000 7.356
26.08000 6.416
26.10000 3.709
26.12000 4.761
26.14000 3.806
26.16000 2.453
26.18000 5.053
26.20000 2.766
26.22000 -3.883
26.24000 -3.522
26.26000 1.767
26.28000 5.206
26.30000 9.216
26.32000 9.307
26.34000 3.080
26.36000 3.246
26.38000 1.961
26.40000 1.745
26.42000 2.446
26.44000 7.040
26.46000 3.682
26.48000 3.712
26.50000 2.040
26.52000 -0.598
26.54000 0.963
26.56000 6.986
26.58000 7.164
26.60000 5.655
26.62000 4.746
26.64000 5.494
26.66000 4.664
26.68000 1.962
26.70000 0.698
26.72000 3.585
26.74000 7.203
26.76000 7.945
26.78000 5.686
26.80000 4.199
26.82000 0.499
26.84000 -3.838
26.86000 1.824
26.88000 4.234
26.90000 1.110
26.92000 1.260
26.94000 3.143
26.96000 7.641
26.98000 5.776
27.00000 4.091
27.02000 3.997
27.04000 3.982
27.06000 3.248
27.08000 7.074
27.10000 3.356
27.12000 4.900
27.14000 0.721
27.16000 2.891
27.18000 5.864
27.20000 4.586
27.22000 4.117
27.24000 2.822
27.26000 2.101
27.28000 0.156
27.30000 2.580
27.32000 10.511
27.34000 12.525
27.36000 8.632
27.38000 6.331
27.40000 7.622
27.42000 9.805
27.44000 3.900
27.46000 0.011
27.48000 8.280
27.50000 7.715
27.52000 2.730
27.54000 3.708
27.56000 2.725
27.58000 2.711
27.60000 6.955
27.62000 5.565
27.64000 5.437
27.66000 1.672
27.68000 1.193
27.70000 3.305
27.72000 0.437
27.74000 -0.685
27.76000 1.315
27.78000 0.408
27.80000 4.724
27.82000 5.483
27.84000 1.788
27.86000 -0.167
27.88000 4.564
27.90000 4.488
27.92000 -0.491
27.94000 -1.469
27.96000 0.100
27.98000 2.760
28.00000 1.570
28.02000 3.189
28.04000 6.223
28.06000 4.997
28.08000 1.994
28.10000 1.985
28.12000 -0.577
28.14000 -2.087
28.16000 2.242
28.18000 1.637
28.20000 1.361
28.22000 4.052
28.24000 0.136
28.26000 0.059
28.28000 -3.719
28.30000 -0.926
28.32000 -1.528
28.34000 -2.759
28.36000 -3.785
28.38000 -3.490
28.40000 -0.424
28.42000 7.512
28.44000 7.881
28.46000 5.462
28.48000 4.863
28.50000 4.169
28.52000 2.999
28.54000 3.109
28.56000 -0.224
28.58000 7.200
28.60000 3.228
28.62000 0.264
28.64000 1.407
28.66000 0.021
28.68000 -3.763
28.70000 -2.109
28.72000 -0.939
28.74000 1.320
28.76000 2.550
28.78000 2.114
28.80000 5.545
28.82000 1.378
28.84000 3.354
28.86000 3.015
28.88000 0.384
28.90000 4.048
28.92000 4.387
28.94000 1.311
28.96000 0.819
28.98000 0.333
29.00000 5.647
29.02000 9.730
29.04000 4.645
29.06000 4.380
29.08000 5.637
29.10000 4.520
29.12000 5.579
29.14000 2.633
29.16000 -3.058
29.18000 -0.623
29.20000 0.284
29.22000 2.743
29.24000 2.958
29.26000 7.193
29.28000 8.935
29.30000 3.974
29.32000 7.349
29.34000 12.645
29.36000 5.837
29.38000 6.664
29.40000 4.150
29.42000 2.916
29.44000 2.241
29.46000 2.970
29.48000 3.095
29.50000 4.186
29.52000 5.383
29.54000 6.011
29.56000 5.921
29.58000 4.730
29.60000 9.566
29.62000 9.579
29.64000 2.685
29.66000 1.719
29.68000 -2.611
29.70000 -3.676
29.72000 -3.462
29.74000 4.516
29.76000 5.802
29.78000 3.872
29.80000 1.413
29.82000 -3.670
29.84000 0.350
29.86000 6.437
29.88000 8.100
29.90000 6.999
29.92000 2.476
29.94000 7.095
29.96000 10.342
29.98000 8.089
30.00000 4.699
30.02000 9.299
30.04000 8.081
30.06000 8.514
30.08000 5.827
30.10000 9.942
30.12000 9.729
30.14000 3.612
30.16000 5.077
30.18000 6.618
30.20000 2.323
30.22000 0.106
30.24000 6.023
30.26000 7.708
30.28000 8.659
30.30000 10.833
30.32000 9.410
30.34000 9.159
30.36000 5.401
30.38000 2.144
30.40000 5.060
30.42000 7.869
30.44000 7.554
30.46000 4.637
30.48000 0.832
30.50000 1.537
30.52000 2.136
30.54000 6.244
30.56000 8.906
30.58000 6.661
30.60000 7.080
30.62000 11.093
30.64000 7.885
30.66000 2.387
30.68000 -3.647
30.70000 -2.590
30.72000 -0.434
30.74000 3.471
30.76000 3.320
30.78000 5.514
30.80000 0.802
30.82000 -3.644
30.84000 -0.781
30.86000 5.225
30.88000 9.954
30.90000 5.003
30.92000 0.896
30.94000 1.002
30.96000 2.681
30.98000 2.070
31.00000 2.820
31.02000 5.089
31.04000 4.003
31.06000 3.798
31.08000 6.154
31.10000 6.293
31.12000 9.000
31.14000 5.948
31.16000 8.894
31.18000 0.160
31.20000 1.016
31.22000 7.814
31.24000 10.366
31.26000 6.572
31.28000 8.064
31.30000 8.321
31.32000 8.779
31.34000 6.576
31.36000 5.898
31.38000 6.187
31.40000 4.474
31.42000 6.467
31.44000 6.673
31.46000 6.155
31.48000 3.461
31.50000 3.181
31.52000 4.418
31.54000 2.814
31.56000 2.637
31.58000 2.252
31.60000 7.208
31.62000 9.325
31.64000 3.863
31.66000 5.945
31.68000 4.631
31.70000 5.503
31.72000 3.427
31.74000 7.003
31.76000 5.377
31.78000 6.500
31.80000 5.705
31.82000 1.873
31.84000 -1.363
31.86000 0.467
31.88000 1.558
31.90000 3.858
31.92000 4.658
31.94000 4.100
31.96000 5.126
31.98000 3.882
32.00000 8.086
32.02000 6.694
32.04000 2.945
32.06000 4.961
32.08000 3.934
32.10000 4.181
32.12000 4.763
32.14000 9.572
32.16000 8.076
32.18000 4.830
32.20000 0.930
32.22000 -3.590
32.24000 -0.018
32.26000 2.621
32.28000 7.005
32.30000 10.832
32.32000 4.724
32.34000 2.109
32.36000 2.872
32.38000 4.248
32.40000 9.620
32.42000 12.778
32.44000 11.791
32.46000 5.684
32.48000 2.403
32.50000 -0.076
32.52000 1.180
32.54000 2.405
32.56000 4.601
32.58000 10.350
32.60000 7.403
32.62000 3.327
32.64000 3.009
32.66000 8.378
32.68000 3.013
32.70000 5.092
32.72000 10.544
32.74000 3.174
32.76000 0.683
32.78000 2.833
32.80000 0.582
32.82000 -0.962
32.84000 -1.168
32.86000 0.532
32.88000 -0.887
32.90000 -2.308
32.92000 3.744
32.94000 0.550
32.96000 -2.663
32.98000 -0.788
33.00000 -1.259
33.02000 -1.749
33.04000 0.596
33.06000 4.257
33.08000 1.358
33.10000 -2.675
33.12000 0.905
33.14000 2.080
33.16000 0.440
33.18000 0.823
33.20000 0.730
33.22000 4.343
33.24000 4.317
33.26000 1.672
33.28000 0.128
33.30000 -2.957
33.32000 -0.608
33.34000 1.176
33.36000 2.271
33.38000 3.371
33.40000 -1.257
33.42000 1.693
33.44000 2.966
33.46000 -0.179
33.48000 3.383
33.50000 4.320
33.52000 -0.236
33.54000 1.044
33.56000 2.618
33.58000 0.116
33.60000 -2.034
33.62000 1.998
33.64000 3.322
33.66000 10.265
33.68000 7.982
33.70000 4.723
33.72000 2.444
33.74000 5.344
33.76000 1.208
33.78000 4.296
33.80000 -0.974
33.82000 -1.047
33.84000 -1.172
33.86000 0.007
33.88000 1.167
33.90000 2.204
33.92000 3.547
33.94000 4.378
33.96000 1.508
33.98000 4.023
34.00000 6.513
34.02000 0.607
34.04000 -0.978
34.06000 0.947
34.08000 1.201
34.10000 2.784
34.12000 6.839
34.14000 5.933
34.16000 1.999
34.18000 4.944
34.20000 2.114
34.22000 7.051
34.24000 4.089
34.26000 -0.700
34.28000 -3.589
34.30000 2.860
34.32000 2.796
34.34000 0.782
34.36000 -3.293
34.38000 -2.078
34.40000 0.266
34.42000 2.591
34.44000 4.919
34.46000 0.742
34.48000 2.681
34.50000 -0.301
34.52000 -1.142
34.54000 3.651
34.56000 0.783
34.58000 -1.946
34.60000 -2.137
34.62000 2.340
34.64000 1.386
34.66000 -3.550
34.68000 1.148
34.70000 3.254
34.72000 1.232
34.74000 3.265
34.76000 2.871
34.78000 0.478
34.80000 0.716
34.82000 -1.958
34.84000 1.667
34.86000 5.336
34.88000 2.822
34.90000 -0.610
34.92000 -1.293
34.94000 0.779
34.96000 -0.118
34.98000 5.119
35.00000 0.154
35.02000 3.846
35.04000 3.661
35.06000 -1.052
35.08000 2.811
35.10000 1.422
35.12000 1.385
35.14000 2.725
35.16000 6.417
35.18000 0.136
35.20000 -3.584
35.22000 -1.373
35.24000 1.207
35.26000 1.196
35.28000 1.339
35.30000 2.933
35.32000 2.106
35.34000 -0.662
35.36000 4.418
35.38000 3.599
35.40000 2.375
35.42000 1.727
35.44000 1.986
35.46000 -0.758
35.48000 -2.366
35.50000 -1.632
35.52000 -2.578
35.54000 -0.215
35.56000 1.456
35.58000 2.082
35.60000 1.980
35.62000 -1.117
35.64000 0.842
35.66000 3.581
35.68000 -0.616
35.70000 1.388
35.72000 1.685
35.74000 -1.281
35.76000 2.667
35.78000 0.116
35.80000 2.335
35.82000 1.116
35.84000 1.724
35.86000 0.793
35.88000 5.769
35.90000 4.735
35.92000 -3.587
35.94000 0.498
35.96000 -0.199
35.98000 0.436
36.00000 2.327
36.02000 1.735
36.04000 3.393
36.06000 2.623
36.08000 1.498
36.10000 2.501
36.12000 1.905
36.14000 0.119
36.16000 0.025
36.18000 -0.248
36.20000 -2.496
36.22000 -1.608
36.24000 -3.607
36.26000 -3.059
36.28000 2.294
36.30000 -0.565
36.32000 0.766
36.34000 -2.130
36.36000 2.984
36.38000 6.883
36.40000 3.187
36.42000 0.438
36.44000 -0.066
36.46000 -1.654
36.48000 2.555
36.50000 4.039
36.52000 2.023
36.54000 -1.754
36.56000 -0.293
36.58000 3.254
36.60000 1.992
36.62000 0.350
36.64000 2.106
36.66000 1.291
36.68000 1.614
36.70000 3.040
36.72000 0.252
36.74000 3.112
36.76000 1.516
36.78000 2.278
36.80000 1.509
36.82000 0.715
36.84000 6.549
36.86000 2.351
36.88000 1.681
36.90000 -0.979
36.92000 -1.338
36.94000 0.663
36.96000 -2.698
36.98000 -2.608
37.00000 4.966
37.02000 8.393
37.04000 6.086
37.06000 6.932
37.08000 2.916
37.10000 3.930
37.12000 6.661
37.14000 1.643
37.16000 2.166
37.18000 5.897
37.20000 6.812
37.22000 4.734
37.24000 6.252
37.26000 4.146
37.28000 3.013
37.30000 4.288
37.32000 8.378
37.34000 9.883
37.36000 10.971
37.38000 11.641
37.40000 7.857
37.42000 7.877
37.44000 4.664
37.46000 8.273
37.48000 12.137
37.50000 11.017
37.52000 10.787
37.54000 10.122
37.56000 9.346
37.58000 13.189
37.60000 14.071
37.62000 18.189
37.64000 20.651
37.66000 18.648
37.68000 20.732
37.70000 17.415
37.72000 14.242
37.74000 14.150
37.76000 17.232
37.78000 14.732
37.80000 10.785
37.82000 12.693
37.84000 14.956
37.86000 17.202
37.88000 19.977
37.90000 22.731
37.92000 22.530
37.94000 22.200
37.96000 24.947
37.98000 26.440
38.00000 29.731
38.02000 29.881
38.04000 32.413
38.06000 35.681
38.08000 34.313
38.10000 26.662
38.12000 28.633
38.14000 33.847
38.16000 35.877
38.18000 43.118
38.20000 41.758
38.22000 37.114
38.24000 42.963
38.26000 43.210
38.28000 45.132
38.30000 49.706
38.32000 49.569
38.34000 49.286
38.36000 52.360
38.38000 51.073
38.40000 55.441
38.42000 54.421
38.44000 58.947
38.46000 63.203
38.48000 65.743
38.50000 68.038
38.52000 73.026
38.54000 74.648
38.56000 80.122
38.58000 86.625
38.60000 88.981
38.62000 93.533
38.64000 106.814
38.66000 105.685
38.68000 109.437
38.70000 117.099
38.72000 123.498
38.74000 128.896
38.76000 140.921
38.78000 146.075
38.80000 155.177
38.82000 159.939
38.84000 164.264
38.86000 174.287
38.88000 188.185
38.90000 197.463
38.92000 208.262
38.94000 221.470
38.96000 234.878
38.98000 247.458
39.00000 267.583
39.02000 287.789
39.04000 302.353
39.06000 317.927
39.08000 335.544
39.10000 350.338
39.12000 368.920
39.14000 381.125
39.16000 395.132
39.18000 420.503
39.20000 441.531
39.22000 455.482
39.24000 462.252
39.26000 473.219
39.28000 488.842
39.30000 494.491
39.32000 494.965
39.34000 509.268
39.36000 514.947
39.38000 516.317
39.40000 510.596
39.42000 503.253
39.44000 508.562
39.46000 500.622
39.48000 480.634
39.50000 478.309
39.52000 469.572
39.54000 462.913
39.56000 444.801
39.58000 432.303
39.60000 413.167
39.62000 387.867
39.64000 385.296
39.66000 365.183
39.68000 344.686
39.70000 326.889
39.72000 308.067
39.74000 291.366
39.76000 282.621
39.78000 266.783
39.80000 242.829
39.82000 232.374
39.84000 208.951
39.86000 201.140
39.88000 191.026
39.90000 180.498
39.92000 170.103
39.94000 156.385
39.96000 144.443
39.98000 135.512
40.00000 123.640
40.02000 117.740
40.04000 112.765
40.06000 106.919
40.08000 102.275
40.10000 96.068
40.12000 87.545
40.14000 78.749
40.16000 73.048
40.18000 70.922
40.20000 66.984
40.22000 65.034
40.24000 63.026
40.26000 55.571
40.28000 57.212
40.30000 52.581
40.32000 47.191
40.34000 44.592
40.36000 44.961
40.38000 50.901
40.40000 38.588
40.42000 35.985
40.44000 38.428
40.46000 35.882
40.48000 34.070
40.50000 35.518
40.52000 30.985
40.54000 25.385
40.56000 28.936
40.58000 30.440
40.60000 30.656
40.62000 26.193
40.64000 22.305
40.66000 19.790
40.68000 20.499
40.70000 21.009
40.72000 18.887
40.74000 20.675
40.76000 17.123
40.78000 19.114
40.80000 21.851
40.82000 17.547
40.84000 15.216
40.86000 14.602
40.88000 12.982
40.90000 16.678
40.92000 17.769
40.94000 14.291
40.96000 9.136
40.98000 11.452
41.00000 12.476
41.02000 9.204
41.04000 8.864
41.06000 11.715
41.08000 11.278
41.10000 8.305
41.12000 6.960
41.14000 2.948
41.16000 4.443
41.18000 8.733
41.20000 11.716
41.22000 9.491
41.24000 8.797
41.26000 6.207
41.28000 4.523
41.30000 9.763
41.32000 9.360
41.34000 7.864
41.36000 8.901
41.38000 5.044
41.40000 3.396
41.42000 7.580
41.44000 4.570
41.46000 5.220
41.48000 6.474
41.50000 7.591
41.52000 5.855
41.54000 8.056
41.56000 3.609
41.58000 5.418
41.60000 5.009
41.62000 6.914
41.64000 4.057
41.66000 0.999
41.68000 -1.700
41.70000 -0.921
41.72000 -1.076
41.74000 -1.218
41.76000 3.893
41.78000 3.158
41.80000 2.612
41.82000 3.498
41.84000 7.263
41.86000 3.928
41.88000 -1.078
41.90000 -1.239
41.92000 4.923
41.94000 2.339
41.96000 5.019
41.98000 1.454
42.00000 -0.157
42.02000 -0.704
42.04000 4.168
42.06000 -0.223
42.08000 0.956
42.10000 -1.150
42.12000 0.927
42.14000 4.734
42.16000 4.214
42.18000 -3.317
42.20000 2.758
42.22000 1.792
42.24000 3.884
42.26000 5.551
42.28000 1.510
42.30000 2.314
42.32000 -1.015
42.34000 4.007
42.36000 3.104
42.38000 -0.303
42.40000 -0.583
42.42000 -0.825
42.44000 -3.181
42.46000 -0.925
42.48000 0.755
42.50000 1.091
42.52000 0.982
42.54000 1.610
42.56000 2.591
42.58000 -0.980
42.60000 -3.269
42.62000 0.823
42.64000 3.460
42.66000 1.236
42.68000 5.182
42.70000 5.143
42.72000 0.789
42.74000 1.596
42.76000 1.376
42.78000 1.939
42.80000 0.793
42.82000 0.865
42.84000 3.497
42.86000 8.167
42.88000 5.254
42.90000 1.960
42.92000 0.679
42.94000 0.844
42.96000 3.775
42.98000 7.552
43.00000 5.397
43.02000 2.088
43.04000 1.411
43.06000 1.428
43.08000 3.057
43.10000 5.933
43.12000 -0.004
43.14000 -0.596
43.16000 1.921
43.18000 -3.205
43.20000 -0.655
43.22000 0.047
43.24000 -2.928
43.26000 -2.193
43.28000 -1.029
43.30000 -0.432
43.32000 0.950
43.34000 3.527
43.36000 -2.720
43.38000 -2.515
43.40000 -2.770
43.42000 -2.006
43.44000 0.884
43.46000 0.102
43.48000 0.451
43.50000 -2.489
43.52000 -0.329
43.54000 3.598
43.56000 2.930
43.58000 1.248
43.60000 -0.104
43.62000 1.047
43.64000 -1.579
43.66000 -0.987
43.68000 3.880
43.70000 5.374
43.72000 2.616
43.74000 -2.085
43.76000 -1.816
43.78000 -2.096
43.80000 1.441
43.82000 0.544
43.84000 -0.519
43.86000 -1.747
43.88000 -1.639
43.90000 -0.585
43.92000 -1.491
43.94000 -1.494
43.96000 0.295
43.98000 0.039
44.00000 -0.686
44.02000 -2.565
44.04000 -3.013
44.06000 -3.168
44.08000 -0.774
44.10000 -2.351
44.12000 0.813
44.14000 -1.808
44.16000 -2.464
44.18000 0.577
44.20000 3.990
44.22000 2.143
44.24000 1.281
44.26000 -0.874
44.28000 -1.485
44.30000 0.593
44.32000 1.773
44.34000 2.224
44.36000 3.554
44.38000 5.016
44.40000 -0.146
44.42000 -1.722
44.44000 -0.153
44.46000 1.043
44.48000 1.664
44.50000 2.466
44.52000 -0.288
44.54000 0.481
44.56000 -0.898
44.58000 0.114
44.60000 1.893
44.62000 4.073
44.64000 1.749
44.66000 4.164
44.68000 4.019
44.70000 2.334
44.72000 -0.251
44.74000 2.306
44.76000 7.740
44.78000 6.984
44.80000 5.592
44.82000 4.181
44.84000 3.529
44.86000 6.123
44.88000 7.925
44.90000 9.265
44.92000 8.317
44.94000 4.999
44.96000 8.274
44.98000 9.909
45.00000 10.350
45.02000 11.414
45.04000 11.427
45.06000 11.477
45.08000 10.570
45.10000 9.428
45.12000 11.228
45.14000 14.088
45.16000 17.218
45.18000 18.752
45.20000 17.912
45.22000 17.397
45.24000 18.981
45.26000 17.865
45.28000 17.982
45.30000 21.569
45.32000 25.389
45.34000 23.083
45.36000 25.776
45.38000 24.973
45.40000 26.729
45.42000 33.591
45.44000 35.382
45.46000 35.988
45.48000 33.715
45.50000 33.978
45.52000 33.277
45.54000 36.155
45.56000 40.475
45.58000 42.486
45.60000 38.456
45.62000 42.004
45.64000 48.067
45.66000 49.248
45.68000 47.806
45.70000 47.821
45.72000 52.585
45.74000 51.978
45.76000 48.624
45.78000 53.759
45.80000 53.321
45.82000 59.295
45.84000 62.386
45.86000 55.549
45.88000 58.311
45.90000 62.017
45.92000 61.867
45.94000 64.890
45.96000 68.513
45.98000 68.039
46.00000 66.632
46.02000 63.527
46.04000 64.459
46.06000 61.883
46.08000 64.416
46.10000 64.882
46.12000 60.500
46.14000 63.011
46.16000 62.583
46.18000 58.703
46.20000 56.435
46.22000 60.222
46.24000 55.412
46.26000 55.342
46.28000 51.831
46.30000 50.208
46.32000 54.309
46.34000 51.802
46.36000 47.064
46.38000 44.797
46.40000 41.082
46.42000 42.852
46.44000 42.542
46.46000 41.315
46.48000 38.529
46.50000 40.390
46.52000 33.646
46.54000 29.382
46.56000 30.898
46.58000 29.851
46.60000 29.520
46.62000 26.144
46.64000 25.850
46.66000 26.490
46.68000 22.996
46.70000 21.521
46.72000 20.765
46.74000 16.767
46.76000 17.864
46.78000 15.109
46.80000 10.044
46.82000 9.525
46.84000 11.308
46.86000 13.239
46.88000 9.299
46.90000 12.211
46.92000 11.965
46.94000 8.189
46.96000 8.656
46.98000 6.518
47.00000 8.350
47.02000 4.425
47.04000 3.192
47.06000 3.416
47.08000 0.566
47.10000 -0.924
47.12000 0.522
47.14000 2.558
47.16000 -2.348
47.18000 1.263
47.20000 1.608
47.22000 0.954
47.24000 3.441
47.26000 3.467
47.28000 3.096
47.30000 1.050
47.32000 -1.706
47.34000 -2.822
47.36000 0.916
47.38000 0.019
47.40000 -1.291
47.42000 -1.560
47.44000 -0.875
47.46000 -0.741
47.48000 -0.916
47.50000 1.280
47.52000 1.960
47.54000 -0.337
47.56000 0.326
47.58000 1.134
47.60000 -2.775
47.62000 -2.532
47.64000 -0.018
47.66000 -0.172
47.68000 1.695
47.70000 6.774
47.72000 3.118
47.74000 -0.288
47.76000 -1.065
47.78000 0.749
47.80000 0.562
47.82000 3.352
47.84000 0.837
47.86000 1.519
47.88000 3.613
47.90000 4.489
47.92000 2.946
47.94000 -1.215
47.96000 1.037
47.98000 -2.278
48.00000 0.019
48.02000 -1.187
48.04000 -0.115
48.06000 -0.512
48.08000 -0.249
48.10000 1.671
48.12000 2.503
48.14000 -0.812
48.16000 -0.088
48.18000 0.096
48.20000 1.449
48.22000 0.523
48.24000 1.455
48.26000 1.550
48.28000 4.045
48.30000 3.305
48.32000 -1.372
48.34000 2.446
48.36000 0.744
48.38000 -0.522
48.40000 0.182
48.42000 2.737
48.44000 0.719
48.46000 -1.935
48.48000 4.244
48.50000 7.952
48.52000 0.018
48.54000 -2.641
48.56000 0.039
48.58000 2.198
48.60000 0.802
48.62000 1.987
48.64000 7.425
48.66000 5.085
48.68000 3.613
48.70000 4.320
48.72000 1.194
48.74000 3.056
48.76000 6.050
48.78000 1.902
48.80000 -2.239
48.82000 2.251
48.84000 3.671
48.86000 5.395
48.88000 2.468
48.90000 1.407
48.92000 0.634
48.94000 4.838
48.96000 2.692
48.98000 -0.424
49.00000 2.611
49.02000 0.096
49.04000 0.967
49.06000 2.201
49.08000 2.414
49.10000 -1.106
49.12000 0.070
49.14000 -2.603
49.16000 -0.076
49.18000 3.951
49.20000 2.617
49.22000 2.555
49.24000 4.814
49.26000 2.061
49.28000 3.828
49.30000 4.142
49.32000 3.278
49.34000 3.642
49.36000 3.204
49.38000 5.041
49.40000 2.010
49.42000 2.510
49.44000 0.833
49.46000 -0.063
49.48000 4.891
49.50000 5.212
49.52000 3.370
49.54000 5.163
49.56000 2.660
49.58000 -1.202
49.60000 1.665
49.62000 6.144
49.64000 8.265
49.66000 3.881
49.68000 7.475
49.70000 7.320
49.72000 2.517
49.74000 4.422
49.76000 3.230
49.78000 -2.563
49.80000 -0.945
49.82000 1.744
49.84000 4.586
49.86000 4.767
49.88000 2.030
49.90000 1.632
49.92000 4.150
49.94000 4.136
49.96000 2.676
49.98000 3.443
50.00000 6.178
50.02000 4.354
50.04000 1.361
50.06000 -0.458
50.08000 1.390
50.10000 4.230
50.12000 1.895
50.14000 6.383
50.16000 5.300
50.18000 5.803
50.20000 2.236
50.22000 3.539
50.24000 0.037
50.26000 -0.973
50.28000 -0.660
50.30000 -1.200
50.32000 0.632
50.34000 2.473
50.36000 3.680
50.38000 4.620
50.40000 3.937
50.42000 0.355
50.44000 -0.929
50.46000 1.669
50.48000 5.491
50.50000 3.760
50.52000 3.456
50.54000 3.087
50.56000 0.436
50.58000 1.477
50.60000 1.877
50.62000 2.140
50.64000 -0.644
50.66000 -0.895
50.68000 -0.253
50.70000 -1.248
50.72000 2.974
50.74000 3.482
50.76000 4.408
50.78000 3.256
50.80000 2.199
50.82000 0.923
50.84000 0.547
50.86000 1.623
50.88000 0.138
50.90000 -1.430
50.92000 -2.539
50.94000 0.412
50.96000 1.450
50.98000 4.292
51.00000 2.732
51.02000 -2.534
51.04000 0.346
51.06000 1.816
51.08000 0.665
51.10000 2.686
51.12000 4.046
51.14000 5.224
51.16000 1.351
51.18000 2.721
51.20000 4.113
51.22000 1.104
51.24000 2.575
51.26000 0.873
51.28000 3.143
51.30000 0.562
51.32000 2.060
51.34000 1.583
51.36000 2.184
51.38000 3.575
51.40000 4.145
51.42000 2.185
51.44000 0.563
51.46000 1.189
51.48000 3.344
51.50000 0.642
51.52000 1.741
51.54000 0.951
51.56000 -0.362
51.58000 2.060
51.60000 3.853
51.62000 1.774
51.64000 -0.046
51.66000 -2.532
51.68000 0.974
51.70000 2.093
51.72000 3.927
51.74000 1.852
51.76000 -0.911
51.78000 -0.468
51.80000 2.892
51.82000 1.885
51.84000 0.607
51.86000 4.760
51.88000 4.365
51.90000 1.364
51.92000 4.354
51.94000 3.727
51.96000 1.137
51.98000 1.447
52.00000 1.824
52.02000 3.211
52.04000 2.954
52.06000 3.217
52.08000 2.198
52.10000 3.189
52.12000 1.989
52.14000 1.047
52.16000 1.890
52.18000 2.811
52.20000 1.623
52.22000 -1.635
52.24000 -1.973
52.26000 -1.324
52.28000 -1.384
52.30000 2.221
52.32000 4.038
52.34000 -0.716
52.36000 0.352
52.38000 1.706
52.40000 1.402
52.42000 -0.881
52.44000 1.464
52.46000 1.815
52.48000 1.868
52.50000 0.341
52.52000 2.691
52.54000 3.907
52.56000 -2.513
52.58000 1.969
52.60000 -0.497
52.62000 -2.510
52.64000 1.143
52.66000 1.068
52.68000 2.500
52.70000 1.986
52.72000 0.628
52.74000 -2.485
52.76000 1.078
52.78000 0.990
52.80000 -0.243
52.82000 0.603
52.84000 -1.717
52.86000 3.065
52.88000 1.999
52.90000 1.039
52.92000 0.781
52.94000 -2.500
52.96000 -0.483
52.98000 3.773
53.00000 -0.307
53.02000 3.354
53.04000 6.172
53.06000 3.147
53.08000 3.062
53.10000 -0.963
53.12000 -0.821
53.14000 -0.509
53.16000 1.417
53.18000 -1.352
53.20000 2.499
53.22000 3.562
53.24000 3.297
53.26000 2.864
53.28000 0.409
53.30000 4.509
53.32000 4.374
53.34000 0.955
53.36000 -1.938
53.38000 0.130
53.40000 0.425
53.42000 3.581
53.44000 3.506
53.46000 3.160
53.48000 4.745
53.50000 1.584
53.52000 3.502
53.54000 -0.832
53.56000 -1.143
53.58000 0.083
53.60000 -1.133
53.62000 -1.365
53.64000 -0.462
53.66000 1.725
53.68000 1.738
53.70000 1.135
53.72000 -0.596
53.74000 -0.743
53.76000 0.135
53.78000 2.478
53.80000 2.183
53.82000 1.435
53.84000 -2.488
53.86000 -1.663
53.88000 -0.239
53.90000 2.661
53.92000 4.718
53.94000 2.341
53.96000 2.272
53.98000 1.736
54.00000 -1.326
54.02000 0.772
54.04000 2.487
54.06000 1.378
54.08000 1.673
54.10000 1.816
54.12000 -0.751
54.14000 2.632
54.16000 1.344
54.18000 -0.808
54.20000 0.298
54.22000 3.983
54.24000 -1.570
54.26000 -0.664
54.28000 0.673
54.30000 -1.046
54.32000 -2.198
54.34000 -0.196
54.36000 3.739
54.38000 2.314
54.40000 -0.249
54.42000 1.309
54.44000 0.097
54.46000 -1.170
54.48000 -1.002
54.50000 -1.695
54.52000 0.429
54.54000 -1.619
54.56000 0.311
54.58000 4.500
54.60000 1.241
54.62000 1.348
54.64000 -1.926
54.66000 -2.463
54.68000 0.892
54.70000 2.771
54.72000 1.572
54.74000 1.387
54.76000 0.071
54.78000 -1.255
54.80000 -0.987
54.82000 -0.492
54.84000 1.453
54.86000 6.026
54.88000 3.132
54.90000 3.217
54.92000 2.917
54.94000 4.428
54.96000 1.571
54.98000 4.300
55.00000 3.071
55.02000 -2.440
55.04000 1.679
55.06000 5.777
55.08000 5.566
55.10000 2.336
55.12000 -0.089
55.14000 0.831
55.16000 -1.360
55.18000 -0.260
55.20000 -1.170
55.22000 1.267
55.24000 3.082
55.26000 1.403
55.28000 -0.729
55.30000 -2.129
55.32000 0.932
55.34000 -1.602
55.36000 1.201
55.38000 6.483
55.40000 1.030
55.42000 -0.315
55.44000 1.618
55.46000 0.927
55.48000 1.196
55.50000 0.074
55.52000 1.760
55.54000 0.818
55.56000 3.895
55.58000 4.392
55.60000 1.803
55.62000 1.936
55.64000 3.336
55.66000 2.378
55.68000 -1.641
55.70000 -2.405
55.72000 -0.653
55.74000 4.791
55.76000 2.704
55.78000 0.876
55.80000 2.089
55.82000 0.958
55.84000 1.139
55.86000 3.274
55.88000 2.762
55.90000 1.276
55.92000 1.422
55.94000 1.278
55.96000 1.257
55.98000 0.335
56.00000 2.581
56.02000 3.687
56.04000 2.732
56.06000 -0.647
56.08000 0.437
56.10000 1.314
56.12000 3.001
56.14000 2.308
56.16000 -1.258
56.18000 -1.000
56.20000 3.170
56.22000 6.367
56.24000 -0.468
56.26000 -2.370
56.28000 0.569
56.30000 0.744
56.32000 1.097
56.34000 0.659
56.36000 -0.105
56.38000 -1.481
56.40000 2.928
56.42000 0.398
56.44000 1.551
56.46000 1.214
56.48000 1.238
56.50000 -0.403
56.52000 -1.303
56.54000 -1.264
56.56000 0.875
56.58000 1.520
56.60000 2.036
56.62000 -0.090
56.64000 -0.421
56.66000 -1.062
56.68000 -0.337
56.70000 2.358
56.72000 4.662
56.74000 3.016
56.76000 2.772
56.78000 -0.306
56.80000 0.740
56.82000 2.699
56.84000 3.051
56.86000 1.380
56.88000 1.595
56.90000 2.961
56.92000 2.350
56.94000 3.571
56.96000 -0.861
56.98000 -2.295
57.00000 4.170
57.02000 0.666
57.04000 -0.392
57.06000 2.210
57.08000 3.733
57.10000 5.842
57.12000 4.142
57.14000 1.791
57.16000 5.025
57.18000 2.596
57.20000 2.222
57.22000 4.951
57.24000 4.866
57.26000 -1.366
57.28000 0.729
57.30000 2.611
57.32000 5.774
57.34000 3.587
57.36000 2.529
57.38000 0.903
57.40000 -1.303
57.42000 -2.352
57.44000 3.096
57.46000 4.288
57.48000 2.569
57.50000 0.243
57.52000 7.566
57.54000 6.428
57.56000 4.429
57.58000 3.556
57.60000 0.887
57.62000 0.557
57.64000 1.575
57.66000 1.961
57.68000 -0.226
57.70000 2.047
57.72000 3.253
57.74000 5.873
57.76000 5.114
57.78000 3.875
57.80000 4.794
57.82000 3.313
57.84000 4.309
57.86000 3.390
57.88000 -0.899
57.90000 -0.338
57.92000 1.417
57.94000 2.683
57.96000 2.822
57.98000 4.474
58.00000 -0.217
58.02000 -1.191
58.04000 2.281
58.06000 0.903
58.08000 1.247
58.10000 -1.444
58.12000 1.794
58.14000 3.633
58.16000 4.115
58.18000 6.893
58.20000 6.591
58.22000 4.175
58.24000 2.052
58.26000 2.024
58.28000 3.555
58.30000 3.146
58.32000 2.201
58.34000 0.776
58.36000 3.145
58.38000 1.358
58.40000 -2.032
58.42000 1.624
58.44000 2.484
58.46000 2.403
58.48000 4.716
58.50000 2.831
58.52000 0.715
58.54000 -1.281
58.56000 2.493
58.58000 -2.322
58.60000 1.077
58.62000 5.305
58.64000 3.896
58.66000 0.622
58.68000 3.550
58.70000 3.324
58.72000 5.071
58.74000 5.838
58.76000 4.877
58.78000 2.156
58.80000 0.505
58.82000 2.445
58.84000 3.374
58.86000 -2.290
58.88000 0.585
58.90000 2.583
58.92000 2.535
58.94000 1.686
58.96000 3.035
58.98000 2.607
59.00000 5.545
59.02000 1.355
59.04000 -0.293
59.06000 1.310
59.08000 2.663
59.10000 2.622
59.12000 1.174
59.14000 -1.173
59.16000 -1.778
59.18000 0.502
59.20000 -2.316
59.22000 -0.528
59.24000 1.415
59.26000 5.714
59.28000 5.685
59.30000 5.932
59.32000 0.821
59.34000 1.586
59.36000 2.334
59.38000 2.934
59.40000 3.590
59.42000 4.716
59.44000 6.200
59.46000 5.020
59.48000 0.746
59.50000 0.520
59.52000 0.004
59.54000 1.103
59.56000 2.531
59.58000 2.692
59.60000 4.957
59.62000 5.546
59.64000 5.007
59.66000 4.002
59.68000 3.359
59.70000 3.090
59.72000 2.285
59.74000 3.295
59.76000 2.683
59.78000 3.938
59.80000 5.093
59.82000 2.924
59.84000 0.775
59.86000 -2.031
59.88000 -1.185
59.90000 -0.407
59.92000 0.037
59.94000 -1.723
59.96000 3.880
59.98000 4.654
60.00000 0.761
60.02000 2.830
60.04000 7.316
60.06000 7.479
60.08000 7.386
60.10000 3.944
60.12000 -0.211
60.14000 2.480
60.16000 4.545
60.18000 5.621
60.20000 6.075
60.22000 2.183
60.24000 3.689
60.26000 4.669
60.28000 2.185
60.30000 1.458
60.32000 1.060
60.34000 5.086
60.36000 -0.903
60.38000 -1.027
60.40000 2.776
60.42000 5.216
60.44000 3.433
60.46000 1.755
60.48000 2.924
60.50000 3.673
60.52000 4.316
60.54000 6.585
60.56000 3.255
60.58000 2.971
60.60000 2.592
60.62000 3.264
60.64000 0.665
60.66000 6.073
60.68000 6.025
60.70000 3.370
60.72000 3.972
60.74000 3.911
60.76000 4.281
60.78000 0.877
60.80000 1.042
60.82000 -2.205
60.84000 2.103
60.86000 5.970
60.88000 7.962
60.90000 5.604
60.92000 1.430
60.94000 3.723
60.96000 3.711
60.98000 3.766
61.00000 2.054
61.02000 1.718
61.04000 2.871
61.06000 4.387
61.08000 6.585
61.10000 1.834
61.12000 -0.564
61.14000 2.261
61.16000 2.967
61.18000 1.858
61.20000 3.650
61.22000 3.913
61.24000 5.226
61.26000 4.121
61.28000 -0.067
61.30000 0.934
61.32000 1.937
61.34000 3.822
61.36000 5.054
61.38000 2.214
61.40000 -0.028
61.42000 2.112
61.44000 1.566
61.46000 1.413
61.48000 5.459
61.50000 3.009
61.52000 1.039
61.54000 1.203
61.56000 2.716
61.58000 1.199
61.60000 0.441
61.62000 0.042
61.64000 -0.649
61.66000 -0.363
61.68000 -1.163
61.70000 0.798
61.72000 2.692
61.74000 1.828
61.76000 -2.237
61.78000 0.384
61.80000 2.196
61.82000 -2.117
61.84000 -1.554
61.86000 1.710
61.88000 3.282
61.90000 3.043
61.92000 -0.146
61.94000 0.798
61.96000 1.910
61.98000 4.340
62.00000 3.186
62.02000 3.915
62.04000 1.753
62.06000 -0.196
62.08000 -1.246
62.10000 -0.259
62.12000 0.575
62.14000 1.430
62.16000 0.500
62.18000 0.322
62.20000 1.767
62.22000 2.480
62.24000 2.682
62.26000 -0.707
62.28000 -0.389
62.30000 -0.054
62.32000 2.603
62.34000 -2.232
62.36000 -0.977
62.38000 -1.293
62.40000 -1.683
62.42000 -0.570
62.44000 0.833
62.46000 2.100
62.48000 2.134
62.50000 2.185
62.52000 5.216
62.54000 2.601
62.56000 1.632
62.58000 2.766
62.60000 2.369
62.62000 4.942
62.64000 4.281
62.66000 1.688
62.68000 -0.200
62.70000 0.063
62.72000 2.974
62.74000 4.110
62.76000 3.530
62.78000 -1.168
62.80000 -2.217
62.82000 -0.478
62.84000 0.927
62.86000 -1.897
62.88000 -0.195
62.90000 -0.914
62.92000 0.988
62.94000 1.159
62.96000 -0.241
62.98000 -0.619
63.00000 -0.670
63.02000 4.374
63.04000 3.602
63.06000 0.669
63.08000 -0.569
63.10000 -1.416
63.12000 0.980
63.14000 4.745
63.16000 2.471
63.18000 1.739
63.20000 1.361
63.22000 0.402
63.24000 0.716
63.26000 1.135
63.28000 1.776
63.30000 -0.342
63.32000 -0.897
63.34000 0.092
63.36000 -0.618
63.38000 -0.940
63.40000 1.885
63.42000 2.255
63.44000 0.022
63.46000 0.316
63.48000 0.442
63.50000 2.810
63.52000 0.094
63.54000 -2.133
63.56000 1.929
63.58000 1.151
63.60000 -1.747
63.62000 0.487
63.64000 0.493
63.66000 1.483
63.68000 0.848
63.70000 3.577
63.72000 6.931
63.74000 4.209
63.76000 3.771
63.78000 1.009
63.80000 -0.253
63.82000 1.822
63.84000 -2.195
63.86000 0.250
63.88000 1.098
63.90000 0.099
63.92000 -0.556
63.94000 -1.444
63.96000 2.619
63.98000 5.466
64.00000 3.823
64.02000 -1.179
64.04000 2.649
64.06000 3.026
64.08000 5.402
64.10000 4.827
64.12000 1.837
64.14000 4.095
64.16000 1.716
64.18000 0.619
64.20000 1.434
64.22000 2.420
64.24000 1.281
64.26000 0.006
64.28000 4.575
64.30000 5.981
64.32000 4.723
64.34000 4.349
64.36000 4.324
64.38000 3.939
64.40000 2.030
64.42000 2.566
64.44000 2.460
64.46000 0.289
64.48000 0.482
64.50000 1.479
64.52000 2.157
64.54000 0.283
64.56000 2.706
64.58000 3.106
64.60000 1.205
64.62000 3.144
64.64000 1.652
64.66000 1.489
64.68000 -0.751
64.70000 -2.203
64.72000 2.730
64.74000 1.205
64.76000 0.052
64.78000 -0.032
64.80000 -0.356
64.82000 -2.204
64.84000 2.457
64.86000 3.814
64.88000 2.262
64.90000 4.011
64.92000 3.231
64.94000 2.220
64.96000 2.404
64.98000 1.553
65.00000 3.368
65.02000 0.856
65.04000 1.134
65.06000 0.232
65.08000 -0.033
65.10000 2.099
65.12000 1.426
65.14000 0.618
65.16000 -0.234
65.18000 -0.636
65.20000 0.879
65.22000 1.234
65.24000 3.314
65.26000 2.891
65.28000 2.183
65.30000 1.372
65.32000 -1.899
65.34000 -1.263
65.36000 -0.465
65.38000 2.041
65.40000 0.810
65.42000 1.986
65.44000 2.825
65.46000 1.406
65.48000 -1.093
65.50000 0.198
65.52000 0.654
65.54000 -2.203
65.56000 2.075
65.58000 0.857
65.60000 0.562
65.62000 0.043
65.64000 2.973
65.66000 0.620
65.68000 0.826
65.70000 1.139
65.72000 -0.064
65.74000 -0.302
65.76000 -0.721
65.78000 0.305
65.80000 -0.978
65.82000 -0.008
65.84000 -0.475
65.86000 -0.059
65.88000 3.505
65.90000 1.752
65.92000 1.079
65.94000 0.048
65.96000 -0.670
65.98000 1.659
66.00000 2.451
66.02000 1.128
66.04000 3.897
66.06000 1.195
66.08000 -1.710
66.10000 0.925
66.12000 -0.433
66.14000 -0.040
66.16000 0.405
66.18000 2.093
66.20000 0.096
66.22000 1.595
66.24000 1.244
66.26000 0.874
66.28000 4.004
66.30000 5.892
66.32000 1.632
66.34000 -0.098
66.36000 1.262
66.38000 4.109
66.40000 3.869
66.42000 2.172
66.44000 5.445
66.46000 6.103
66.48000 4.427
66.50000 5.365
66.52000 5.197
66.54000 4.888
66.56000 4.577
66.58000 2.537
66.60000 2.445
66.62000 3.711
66.64000 5.414
66.66000 5.543
66.68000 6.800
66.70000 6.762
66.72000 7.444
66.74000 8.455
66.76000 7.590
66.78000 6.835
66.80000 7.354
66.82000 5.273
66.84000 3.791
66.86000 6.721
66.88000 7.590
66.90000 5.912
66.92000 6.444
66.94000 3.913
66.96000 4.692
66.98000 4.112
67.00000 5.449
67.02000 6.518
67.04000 6.978
67.06000 7.665
67.08000 6.193
67.10000 7.835
67.12000 9.543
67.14000 8.033
67.16000 6.679
67.18000 5.445
67.20000 5.445
67.22000 6.063
67.24000 4.519
67.26000 5.585
67.28000 7.329
67.30000 7.508
67.32000 8.231
67.34000 4.719
67.36000 2.221
67.38000 5.301
67.40000 3.123
67.42000 3.286
67.44000 5.862
67.46000 2.964
67.48000 2.522
67.50000 4.893
67.52000 5.276
67.54000 5.351
67.56000 4.243
67.58000 3.907
67.60000 3.149
67.62000 3.723
67.64000 4.603
67.66000 3.419
67.68000 0.088
67.70000 2.240
67.72000 2.111
67.74000 -0.557
67.76000 -1.190
67.78000 0.538
67.80000 -0.695
67.82000 1.918
67.84000 2.378
67.86000 4.311
67.88000 2.822
67.90000 2.504
67.92000 0.964
67.94000 -2.143
67.96000 -1.712
67.98000 -1.494
68.00000 -1.871
68.02000 0.285
68.04000 2.077
68.06000 2.874
68.08000 1.302
68.10000 0.362
68.12000 -0.820
68.14000 0.852
68.16000 0.976
68.18000 0.797
68.20000 3.564
68.22000 4.081
68.24000 1.406
68.26000 -0.129
68.28000 -0.621
68.30000 0.071
68.32000 1.488
68.34000 2.207
68.36000 3.089
68.38000 -0.241
68.40000 -1.180
68.42000 2.107
68.44000 1.987
68.46000 3.261
68.48000 2.437
68.50000 2.604
68.52000 -0.861
68.54000 0.206
68.56000 -0.805
68.58000 0.619
68.60000 2.121
68.62000 2.600
68.64000 2.425
68.66000 1.664
68.68000 2.359
68.70000 1.474
68.72000 0.997
68.74000 0.023
68.76000 0.341
68.78000 1.059
68.80000 0.072
68.82000 -0.210
68.84000 -1.424
68.86000 0.473
68.88000 0.480
68.90000 -0.442
68.92000 -0.459
68.94000 -2.060
68.96000 1.604
68.98000 1.580
69.00000 3.306
69.02000 1.321
69.04000 1.827
69.06000 1.206
69.08000 2.178
69.10000 4.043
69.12000 4.094
69.14000 3.965
69.16000 2.326
69.18000 1.918
69.20000 1.590
69.22000 0.314
69.24000 2.922
69.26000 1.828
69.28000 -1.282
69.30000 -2.052
69.32000 -0.648
69.34000 -0.342
69.36000 3.819
69.38000 3.962
69.40000 0.747
69.42000 -1.213
69.44000 -0.320
69.46000 1.146
69.48000 0.753
69.50000 0.641
69.52000 0.279
69.54000 1.269
69.56000 -0.080
69.58000 5.565
69.60000 3.796
69.62000 1.043
69.64000 2.812
69.66000 3.546
69.68000 3.803
69.70000 3.399
69.72000 1.560
69.74000 0.214
69.76000 -0.356
69.78000 2.122
69.80000 0.164
69.82000 1.916
69.84000 4.507
69.86000 1.156
69.88000 -1.339
69.90000 -2.033
69.92000 0.426
69.94000 0.260
69.96000 -1.877
69.98000 -1.754
70.00000 -0.956
70.02000 -1.232
70.04000 -0.824
70.06000 0.222
70.08000 -0.075
70.10000 -1.795
70.12000 -0.315
70.14000 2.044
70.16000 2.199
70.18000 1.909
70.20000 1.756
70.22000 2.545
70.24000 1.472
70.26000 1.895
70.28000 -0.251
70.30000 -0.589
70.32000 0.113
70.34000 1.539
70.36000 1.941
70.38000 1.869
70.40000 1.551
70.42000 0.816
70.44000 2.126
70.46000 0.928
70.48000 0.879
70.50000 -0.212
70.52000 2.333
70.54000 1.769
70.56000 -0.389
70.58000 0.363
70.60000 -0.849
70.62000 0.323
70.64000 0.167
70.66000 -0.449
70.68000 0.156
70.70000 1.709
70.72000 1.038
70.74000 1.403
70.76000 -0.937
70.78000 -0.721
70.80000 -2.010
70.82000 -0.083
70.84000 0.160
70.86000 -0.053
70.88000 0.081
70.90000 0.540
70.92000 -0.120
70.94000 0.569
70.96000 1.676
70.98000 0.900
71.00000 -0.935
71.02000 -1.167
71.04000 0.122
71.06000 2.482
71.08000 -1.280
71.10000 -1.013
71.12000 -1.916
71.14000 -0.818
71.16000 -0.300
71.18000 1.164
71.20000 1.772
71.22000 2.428
71.24000 -0.519
71.26000 -0.122
71.28000 1.407
71.30000 1.843
71.32000 2.270
71.34000 1.140
71.36000 -2.001
71.38000 -0.307
71.40000 -1.797
71.42000 2.020
71.44000 0.511
71.46000 -1.538
71.48000 -0.568
71.50000 -0.466
71.52000 1.407
71.54000 0.826
71.56000 1.385
71.58000 0.105
71.60000 1.197
71.62000 -0.058
71.64000 2.373
71.66000 0.591
71.68000 1.455
71.70000 2.047
71.72000 2.650
71.74000 4.051
71.76000 3.593
71.78000 3.788
71.80000 4.568
71.82000 3.797
71.84000 0.327
71.86000 0.847
71.88000 1.404
71.90000 1.433
71.92000 0.224
71.94000 -1.965
71.96000 0.228
71.98000 -0.225
72.00000 1.166
72.02000 -0.767
72.04000 0.495
72.06000 -1.347
72.08000 -0.352
72.10000 -0.140
72.12000 -0.182
72.14000 0.835
72.16000 2.235
72.18000 2.493
72.20000 1.019
72.22000 1.731
72.24000 2.936
72.26000 1.352
72.28000 0.087
72.30000 2.928
72.32000 2.239
72.34000 3.493
72.36000 1.474
72.38000 -1.569
72.40000 -0.575
72.42000 -1.942
72.44000 1.079
72.46000 -0.832
72.48000 -1.599
72.50000 0.337
72.52000 1.334
72.54000 0.754
72.56000 2.665
72.58000 2.441
72.60000 -0.740
72.62000 -1.547
72.64000 -0.044
72.66000 0.813
72.68000 -0.986
72.70000 -1.931
72.72000 -0.208
72.74000 1.191
72.76000 1.766
72.78000 1.705
72.80000 -1.332
72.82000 1.935
72.84000 3.336
72.86000 -0.587
72.88000 0.573
72.90000 1.710
72.92000 2.742
72.94000 3.838
72.96000 1.714
72.98000 -1.941
73.00000 0.043
73.02000 1.300
73.04000 2.089
73.06000 1.060
73.08000 2.256
73.10000 2.341
73.12000 0.820
73.14000 0.066
73.16000 -0.154
73.18000 -1.178
73.20000 -0.774
73.22000 1.542
73.24000 -0.329
73.26000 0.555
73.28000 0.307
73.30000 0.540
73.32000 2.284
73.34000 0.332
73.36000 0.578
73.38000 0.506
73.40000 0.777
73.42000 0.081
73.44000 0.264
73.46000 2.467
73.48000 1.577
73.50000 0.139
73.52000 1.770
73.54000 0.403
73.56000 2.082
73.58000 0.544
73.60000 1.301
73.62000 3.843
73.64000 -0.586
73.66000 -1.945
73.68000 1.434
73.70000 -0.205
73.72000 1.009
73.74000 4.310
73.76000 1.741
73.78000 -1.515
73.80000 -1.117
73.82000 1.241
73.84000 -1.930
73.86000 -0.493
73.88000 -1.306
73.90000 -1.912
73.92000 -1.358
73.94000 0.447
73.96000 2.146
73.98000 -0.248
74.00000 -0.176
74.02000 1.364
74.04000 2.204
74.06000 1.349
74.08000 -0.800
74.10000 -1.396
74.12000 -0.915
74.14000 0.274
74.16000 0.350
74.18000 -0.387
74.20000 0.679
74.22000 1.290
74.24000 1.013
74.26000 -0.789
74.28000 -0.445
74.30000 -0.689
74.32000 -1.094
74.34000 1.569
74.36000 0.700
74.38000 2.221
74.40000 2.661
74.42000 2.618
74.44000 2.858
74.46000 2.975
74.48000 2.616
74.50000 -0.111
74.52000 1.695
74.54000 2.419
74.56000 1.009
74.58000 -1.407
74.60000 -0.195
74.62000 0.503
74.64000 -1.728
74.66000 0.136
74.68000 2.287
74.70000 0.816
74.72000 1.709
74.74000 2.396
74.76000 3.534
74.78000 3.640
74.80000 3.040
74.82000 0.475
74.84000 1.251
74.86000 0.042
74.88000 -1.904
74.90000 0.468
74.92000 0.367
74.94000 2.113
74.96000 0.811
74.98000 2.534
75.00000 1.196
75.02000 1.287
75.04000 1.465
75.06000 2.237
75.08000 2.529
75.10000 2.502
75.12000 1.446
75.14000 2.106
75.16000 1.577
75.18000 1.490
75.20000 1.394
75.22000 2.365
75.24000 2.245
75.26000 -0.817
75.28000 0.315
75.30000 -0.664
75.32000 0.954
75.34000 2.238
75.36000 0.681
75.38000 -0.016
75.40000 2.284
75.42000 3.126
75.44000 1.858
75.46000 2.063
75.48000 1.940
75.50000 -1.319
75.52000 -0.449
75.54000 3.402
75.56000 5.274
75.58000 0.814
75.60000 2.537
75.62000 2.204
75.64000 0.653
75.66000 -0.971
75.68000 0.352
75.70000 3.177
75.72000 2.099
75.74000 -0.050
75.76000 -1.931
75.78000 -1.551
75.80000 -1.845
75.82000 -0.112
75.84000 2.598
75.86000 1.337
75.88000 0.676
75.90000 4.215
75.92000 3.824
75.94000 3.971
75.96000 2.470
75.98000 3.122
76.00000 0.923
76.02000 1.119
76.04000 1.146
76.06000 3.254
76.08000 3.027
76.10000 1.842
76.12000 3.320
76.14000 6.092
76.16000 2.904
76.18000 4.043
76.20000 1.498
76.22000 0.572
76.24000 1.855
76.26000 1.332
76.28000 3.864
76.30000 2.756
76.32000 3.036
76.34000 3.893
76.36000 2.100
76.38000 4.378
76.40000 4.330
76.42000 2.166
76.44000 3.827
76.46000 3.837
76.48000 2.771
76.50000 1.333
76.52000 0.567
76.54000 2.758
76.56000 5.868
76.58000 4.763
76.60000 1.240
76.62000 0.700
76.64000 5.739
76.66000 4.026
76.68000 5.017
76.70000 3.882
76.72000 3.270
76.74000 -1.893
76.76000 2.145
76.78000 6.579
76.80000 4.650
76.82000 3.414
76.84000 3.405
76.86000 4.960
76.88000 4.491
76.90000 6.254
76.92000 4.686
76.94000 1.970
76.96000 2.397
76.98000 0.750
77.00000 2.164
77.02000 2.307
77.04000 3.067
77.06000 3.222
77.08000 2.503
77.10000 0.387
77.12000 1.562
77.14000 4.077
77.16000 4.611
77.18000 2.375
77.20000 0.916
77.22000 2.573
77.24000 4.898
77.26000 3.190
77.28000 4.731
77.30000 6.183
77.32000 5.075
77.34000 3.218
77.36000 3.131
77.38000 5.761
77.40000 5.301
77.42000 3.749
77.44000 0.331
77.46000 1.957
77.48000 2.725
77.50000 4.624
77.52000 5.373
77.54000 3.938
77.56000 0.530
77.58000 -1.084
77.60000 -0.189
77.62000 1.524
77.64000 0.632
77.66000 3.289
77.68000 4.046
77.70000 5.114
77.72000 2.361
77.74000 1.746
77.76000 1.748
77.78000 4.092
77.80000 6.366
77.82000 3.594
77.84000 1.310
77.86000 2.698
77.88000 3.368
77.90000 2.680
77.92000 4.935
77.94000 6.546
77.96000 4.869
77.98000 4.091
78.00000 1.391
78.02000 -1.076
78.04000 4.870
78.06000 2.846
78.08000 3.650
78.10000 1.315
78.12000 0.732
78.14000 -0.152
78.16000 -1.950
78.18000 1.146
78.20000 3.461
78.22000 3.433
78.24000 4.708
78.26000 2.009
78.28000 0.224
78.30000 3.242
78.32000 4.128
78.34000 5.031
78.36000 3.295
78.38000 2.299
78.40000 2.399
78.42000 -0.362
78.44000 0.816
78.46000 1.336
78.48000 4.198
78.50000 2.117
78.52000 1.244
78.54000 4.161
78.56000 2.840
78.58000 -0.102
78.60000 3.004
78.62000 4.328
78.64000 4.715
78.66000 2.646
78.68000 0.245
78.70000 1.172
78.72000 2.414
78.74000 1.813
78.76000 -2.012
78.78000 0.453
78.80000 0.613
78.82000 2.016
78.84000 3.788
78.86000 6.093
78.88000 4.250
78.90000 1.133
78.92000 3.484
78.94000 3.751
78.96000 1.627
78.98000 1.840
79.00000 -0.232
79.02000 0.780
79.04000 1.809
79.06000 0.420
79.08000 2.151
79.10000 -0.501
79.12000 -0.170
79.14000 2.023
79.16000 0.270
79.18000 0.340
79.20000 3.198
79.22000 1.546
79.24000 -0.205
79.26000 0.907
79.28000 2.244
79.30000 2.285
79.32000 1.000
79.34000 -1.780
79.36000 -0.228
79.38000 1.892
79.40000 2.166
79.42000 3.252
79.44000 2.043
79.46000 2.760
79.48000 3.622
79.50000 3.152
79.52000 3.542
79.54000 3.582
79.56000 1.055
79.58000 0.876
79.60000 5.656
79.62000 6.799
79.64000 2.154
79.66000 2.947
79.68000 5.190
79.70000 4.635
79.72000 3.321
79.74000 2.936
79.76000 4.161
79.78000 4.796
79.80000 2.242
79.82000 4.419
79.84000 4.715
79.86000 2.773
79.88000 5.134
79.90000 3.674
79.92000 5.113
79.94000 9.970
79.96000 9.632
79.98000 8.162
80.00000 11.117
80.02000 6.464
80.04000 6.930
80.06000 8.083
80.08000 7.889
80.10000 8.246
80.12000 8.165
80.14000 9.470
80.16000 8.633
80.18000 10.737
80.20000 11.790
80.22000 11.467
80.24000 12.461
80.26000 11.449
80.28000 8.585
80.30000 11.502
80.32000 13.850
80.34000 13.609
80.36000 13.437
80.38000 13.764
80.40000 13.158
80.42000 11.454
80.44000 11.534
80.46000 13.872
80.48000 19.846
80.50000 22.236
80.52000 18.513
80.54000 16.690
80.56000 13.943
80.58000 17.090
80.60000 19.615
80.62000 15.715
80.64000 16.484
80.66000 18.138
80.68000 23.331
80.70000 25.281
80.72000 21.284
80.74000 17.213
80.76000 17.466
80.78000 15.964
80.80000 17.557
80.82000 19.410
80.84000 19.552
80.86000 18.508
80.88000 16.403
80.90000 14.176
80.92000 12.428
80.94000 12.700
80.96000 15.579
80.98000 18.500
81.00000 18.305
81.02000 16.195
81.04000 14.530
81.06000 12.855
81.08000 13.377
81.10000 15.485
81.12000 14.167
81.14000 10.431
81.16000 13.787
81.18000 13.919
81.20000 12.769
81.22000 11.666
81.24000 11.203
81.26000 13.966
81.28000 8.298
81.30000 7.907
81.32000 11.432
81.34000 12.199
81.36000 11.292
81.38000 7.697
81.40000 6.147
81.42000 4.708
81.44000 6.814
81.46000 8.404
81.48000 6.356
81.50000 8.439
81.52000 4.417
81.54000 3.141
81.56000 6.652
81.58000 6.077
81.60000 3.547
81.62000 1.534
81.64000 1.908
81.66000 2.515
81.68000 4.561
81.70000 6.079
81.72000 3.670
81.74000 -1.629
81.76000 -0.299
81.78000 2.909
81.80000 2.915
81.82000 0.764
81.84000 2.834
81.86000 1.607
81.88000 0.406
81.90000 -0.922
81.92000 0.760
81.94000 2.576
81.96000 3.248
81.98000 1.834
82.00000 -0.024
82.02000 2.039
82.04000 2.184
82.06000 0.707
82.08000 -0.358
82.10000 -0.344
82.12000 1.249
82.14000 3.764
82.16000 1.815
82.18000 2.459
82.20000 0.691
82.22000 -0.109
82.24000 1.223
82.26000 4.222
82.28000 0.840
82.30000 0.390
82.32000 2.914
82.34000 1.978
82.36000 0.845
82.38000 5.681
82.40000 2.261
82.42000 2.893
82.44000 4.065
82.46000 0.456
82.48000 -2.109
82.50000 0.706
82.52000 2.189
82.54000 4.779
82.56000 4.423
82.58000 1.698
82.60000 1.955
82.62000 2.620
82.64000 0.019
82.66000 0.774
82.68000 1.322
82.70000 1.889
82.72000 3.409
82.74000 4.235
82.76000 2.978
82.78000 4.088
82.80000 -2.113
82.82000 0.269
82.84000 3.596
82.86000 4.388
82.88000 2.095
82.90000 2.522
82.92000 3.458
82.94000 2.856
82.96000 0.560
82.98000 2.203
83.00000 2.624
83.02000 -0.482
83.04000 1.510
83.06000 1.154
83.08000 0.714
83.10000 -0.098
83.12000 3.081
83.14000 2.317
83.16000 1.498
83.18000 -1.547
83.20000 -1.911
83.22000 2.046
83.24000 6.229
83.26000 5.362
83.28000 6.418
83.30000 3.558
83.32000 2.353
83.34000 2.560
83.36000 3.595
83.38000 4.317
83.40000 6.595
83.42000 4.867
83.44000 4.762
83.46000 4.339
83.48000 3.436
83.50000 5.995
83.52000 6.967
83.54000 3.881
83.56000 3.826
83.58000 5.590
83.60000 5.853
83.62000 5.083
83.64000 6.363
83.66000 8.511
83.68000 8.511
83.70000 7.827
83.72000 8.760
83.74000 7.868
83.76000 8.470
83.78000 8.007
83.80000 7.111
83.82000 7.915
83.84000 7.869
83.86000 9.489
83.88000 11.768
83.90000 11.112
83.92000 13.752
83.94000 13.080
83.96000 11.722
83.98000 12.439
84.00000 11.918
84.02000 10.005
84.04000 11.360
84.06000 15.171
84.08000 18.025
84.10000 17.099
84.12000 15.143
84.14000 17.891
84.16000 16.056
84.18000 19.899
84.20000 21.382
84.22000 19.024
84.24000 20.716
84.26000 21.081
84.28000 20.734
84.30000 22.676
84.32000 21.386
84.34000 22.406
84.36000 23.847
84.38000 23.599
84.40000 27.284
84.42000 29.416
84.44000 25.817
84.46000 25.209
84.48000 27.931
84.50000 30.311
84.52000 27.587
84.54000 24.672
84.56000 26.961
84.58000 28.643
84.60000 31.183
84.62000 26.615
84.64000 25.807
84.66000 28.314
84.68000 33.066
84.70000 29.741
84.72000 26.590
84.74000 22.464
84.76000 25.699
84.78000 25.876
84.80000 25.165
84.82000 26.002
84.84000 27.027
84.86000 26.002
84.88000 25.747
84.90000 25.041
84.92000 22.385
84.94000 18.550
84.96000 18.916
84.98000 21.203
85.00000 21.720
85.02000 21.042
85.04000 18.929
85.06000 16.903
85.08000 17.351
85.10000 18.398
85.12000 17.481
85.14000 17.537
85.16000 15.192
85.18000 14.455
85.20000 14.656
85.22000 13.130
85.24000 11.804
85.26000 9.648
85.28000 10.103
85.30000 10.472
85.32000 11.819
85.34000 8.806
85.36000 6.841
85.38000 6.492
85.40000 7.628
85.42000 7.397
85.44000 7.606
85.46000 8.848
85.48000 6.774
85.50000 7.322
85.52000 7.604
85.54000 5.521
85.56000 7.469
85.58000 9.154
85.60000 5.394
85.62000 4.422
85.64000 4.260
85.66000 2.424
85.68000 3.029
85.70000 1.244
85.72000 0.715
85.74000 2.564
85.76000 1.935
85.78000 2.642
85.80000 1.122
85.82000 2.832
85.84000 -0.906
85.86000 -1.648
85.88000 -1.708
85.90000 -0.856
85.92000 -0.337
85.94000 1.950
85.96000 1.684
85.98000 2.513
86.00000 -0.661
86.02000 1.796
86.04000 5.029
86.06000 3.994
86.08000 1.638
86.10000 0.157
86.12000 0.748
86.14000 2.563
86.16000 1.926
86.18000 1.497
86.20000 3.257
86.22000 4.571
86.24000 1.114
86.26000 -1.927
86.28000 -1.153
86.30000 0.113
86.32000 0.312
86.34000 3.051
86.36000 0.227
86.38000 -0.943
86.40000 2.689
86.42000 0.967
86.44000 1.437
86.46000 2.283
86.48000 0.186
86.50000 2.705
86.52000 2.668
86.54000 2.382
86.56000 -1.356
86.58000 -1.906
86.60000 0.715
86.62000 0.992
86.64000 0.735
86.66000 1.487
86.68000 3.630
86.70000 2.006
86.72000 -1.427
86.74000 -1.271
86.76000 0.547
86.78000 1.418
86.80000 0.764
86.82000 2.258
86.84000 1.806
86.86000 0.008
86.88000 -1.449
86.90000 1.303
86.92000 1.088
86.94000 1.601
86.96000 -0.461
86.98000 -0.549
87.00000 -0.880
87.02000 -1.439
87.04000 -0.099
87.06000 1.278
87.08000 -0.500
87.10000 1.121
87.12000 -1.343
87.14000 -0.794
87.16000 1.387
87.18000 2.276
87.20000 2.191
87.22000 1.050
87.24000 2.192
87.26000 1.771
87.28000 -0.397
87.30000 -1.553
87.32000 -1.836
87.34000 -0.891
87.36000 -0.673
87.38000 0.564
87.40000 1.815
87.42000 3.134
87.44000 2.441
87.46000 3.237
87.48000 3.772
87.50000 1.957
87.52000 1.350
87.54000 1.623
87.56000 -0.827
87.58000 0.287
87.60000 0.365
87.62000 2.527
87.64000 3.563
87.66000 2.518
87.68000 1.613
87.70000 4.338
87.72000 3.168
87.74000 -0.181
87.76000 -0.920
87.78000 1.817
87.80000 1.400
87.82000 0.264
87.84000 2.235
87.86000 1.594
87.88000 2.265
87.90000 2.288
87.92000 -1.126
87.94000 0.688
87.96000 0.146
87.98000 0.733
88.00000 1.598
88.02000 1.132
88.04000 2.276
88.06000 3.134
88.08000 3.614
88.10000 0.194
88.12000 0.777
88.14000 0.432
88.16000 -0.075
88.18000 3.875
88.20000 4.667
88.22000 0.942
88.24000 3.007
88.26000 5.469
88.28000 2.828
88.30000 4.387
88.32000 6.512
88.34000 5.182
88.36000 3.958
88.38000 4.471
88.40000 5.076
88.42000 1.516
88.44000 0.929
88.46000 0.825
88.48000 2.588
88.50000 4.883
88.52000 4.792
88.54000 3.732
88.56000 1.805
88.58000 -1.768
88.60000 2.469
88.62000 3.089
88.64000 2.205
88.66000 3.526
88.68000 4.664
88.70000 4.549
88.72000 5.799
88.74000 2.018
88.76000 2.725
88.78000 3.935
88.80000 4.743
88.82000 6.994
88.84000 6.414
88.86000 3.382
88.88000 3.937
88.90000 0.808
88.92000 3.563
88.94000 2.327
88.96000 0.040
88.98000 -1.122
89.00000 -0.357
89.02000 0.429
89.04000 2.204
89.06000 2.184
89.08000 1.716
89.10000 1.861
89.12000 1.847
89.14000 -0.195
89.16000 1.290
89.18000 1.178
89.20000 1.384
89.22000 1.342
89.24000 0.210
89.26000 -1.671
89.28000 1.413
89.30000 1.002
89.32000 -1.790
89.34000 0.268
89.36000 0.781
89.38000 -0.504
89.40000 2.326
89.42000 0.985
89.44000 2.534
89.46000 3.633
89.48000 5.010
89.50000 3.367
89.52000 2.919
89.54000 2.292
89.56000 0.228
89.58000 0.220
89.60000 2.454
89.62000 0.829
89.64000 1.080
89.66000 -0.058
89.68000 0.904
89.70000 2.594
89.72000 2.361
89.74000 1.131
89.76000 -1.811
89.78000 1.236
89.80000 -1.545
89.82000 0.266
89.84000 -1.490
89.86000 0.016
89.88000 -0.135
89.90000 2.700
89.92000 4.826
89.94000 3.735
89.96000 2.425
89.98000 1.046
90.00000 1.118
90.02000 0.957
90.04000 0.614
90.06000 3.881
90.08000 4.856
90.10000 4.060
90.12000 0.045
90.14000 1.571
90.16000 -0.196
90.18000 -1.220
90.20000 -1.618
90.22000 0.051
90.24000 -0.420
90.26000 4.994
90.28000 4.181
90.30000 -1.502
90.32000 -0.527
90.34000 -1.010
90.36000 0.360
90.38000 1.842
90.40000 4.910
90.42000 2.129
90.44000 1.245
90.46000 1.363
90.48000 -0.799
90.50000 2.161
90.52000 2.571
90.54000 1.916
90.56000 1.485
90.58000 1.841
90.60000 1.582
90.62000 0.607
90.64000 1.730
90.66000 1.123
90.68000 -1.810
90.70000 1.607
90.72000 1.135
90.74000 1.475
90.76000 2.006
90.78000 3.214
90.80000 0.134
90.82000 -0.089
90.84000 -0.210
90.86000 -1.520
90.88000 0.174
90.90000 0.796
90.92000 1.176
90.94000 -1.100
90.96000 -0.623
90.98000 -1.001
91.00000 1.234
91.02000 0.370
91.04000 -0.391
91.06000 -0.127
91.08000 -1.554
91.10000 0.238
91.12000 2.365
91.14000 1.448
91.16000 0.762
91.18000 1.248
91.20000 1.131
91.22000 2.329
91.24000 0.262
91.26000 -0.895
91.28000 0.198
91.30000 1.564
91.32000 4.212
91.34000 1.355
91.36000 -1.475
91.38000 2.264
91.40000 2.763
91.42000 2.689
91.44000 1.803
91.46000 2.363
91.48000 4.013
91.50000 3.980
91.52000 3.310
91.54000 1.459
91.56000 1.061
91.58000 1.566
91.60000 1.371
91.62000 4.960
91.64000 5.192
91.66000 4.970
91.68000 3.370
91.70000 0.470
91.72000 2.545
91.74000 6.728
91.76000 3.330
91.78000 -1.788
91.80000 -0.047
91.82000 3.257
91.84000 7.831
91.86000 2.420
91.88000 1.295
91.90000 4.433
91.92000 1.886
91.94000 3.487
91.96000 3.986
91.98000 2.518
92.00000 3.505
92.02000 3.978
92.04000 0.834
92.06000 1.153
92.08000 1.115
92.10000 1.186
92.12000 3.057
92.14000 1.526
92.16000 0.593
92.18000 2.357
92.20000 4.350
92.22000 2.307
92.24000 -0.250
92.26000 3.753
92.28000 2.507
92.30000 -0.131
92.32000 1.248
92.34000 3.474
92.36000 2.489
92.38000 0.197
92.40000 2.092
92.42000 1.578
92.44000 -1.131
92.46000 1.799
92.48000 1.329
92.50000 3.700
92.52000 4.276
92.54000 3.315
92.56000 2.850
92.58000 0.620
92.60000 1.985
92.62000 5.016
92.64000 3.600
92.66000 -1.338
92.68000 -1.798
92.70000 0.835
92.72000 1.290
92.74000 2.749
92.76000 4.519
92.78000 3.265
92.80000 1.783
92.82000 1.028
92.84000 -0.328
92.86000 -0.353
92.88000 1.045
92.90000 3.560
92.92000 3.137
92.94000 2.465
92.96000 1.877
92.98000 -0.054
93.00000 0.473
93.02000 -0.951
93.04000 0.191
93.06000 0.483
93.08000 0.896
93.10000 2.057
93.12000 -0.572
93.14000 0.287
93.16000 1.932
93.18000 4.051
93.20000 1.008
93.22000 1.538
93.24000 6.108
93.26000 4.703
93.28000 1.817
93.30000 -0.045
93.32000 -1.311
93.34000 2.518
93.36000 4.445
93.38000 6.173
93.40000 3.229
93.42000 0.401
93.44000 1.263
93.46000 1.662
93.48000 2.651
93.50000 3.290
93.52000 2.423
93.54000 4.142
93.56000 5.079
93.58000 1.304
93.60000 2.121
93.62000 2.627
93.64000 1.140
93.66000 1.096
93.68000 -0.013
93.70000 0.358
93.72000 1.619
93.74000 -0.723
93.76000 0.906
93.78000 -0.470
93.80000 0.633
93.82000 0.022
93.84000 3.541
93.86000 2.145
93.88000 2.407
93.90000 2.732
93.92000 1.113
93.94000 -1.836
93.96000 -1.177
93.98000 2.246
94.00000 1.759
94.02000 2.925
94.04000 3.725
94.06000 0.656
94.08000 -0.029
94.10000 3.194
94.12000 4.603
94.14000 3.177
94.16000 2.026
94.18000 2.466
94.20000 -0.056
94.22000 0.415
94.24000 0.156
94.26000 -0.950
94.28000 -1.665
94.30000 -0.790
94.32000 -1.034
94.34000 0.774
94.36000 -1.183
94.38000 2.463
94.40000 0.556
94.42000 -0.425
94.44000 0.070
94.46000 -0.836
94.48000 -1.627
94.50000 -0.163
94.52000 0.499
94.54000 -1.758
94.56000 1.008
94.58000 2.277
94.60000 1.602
94.62000 1.280
94.64000 2.818
94.66000 2.092
94.68000 2.069
94.70000 -0.516
94.72000 -0.161
94.74000 -0.025
94.76000 -1.852
94.78000 0.357
94.80000 5.450
94.82000 1.169
94.84000 1.668
94.86000 3.228
94.88000 1.856
94.90000 3.390
94.92000 2.160
94.94000 3.238
94.96000 4.740
94.98000 2.582
95.00000 -1.291
95.02000 -0.646
95.04000 1.633
95.06000 4.520
95.08000 2.956
95.10000 -0.363
95.12000 0.735
95.14000 5.670
95.16000 4.193
95.18000 -0.037
95.20000 0.319
95.22000 3.013
95.24000 2.446
95.26000 1.954
95.28000 0.362
95.30000 4.219
95.32000 4.788
95.34000 1.071
95.36000 0.372
95.38000 -0.280
95.40000 2.036
95.42000 2.818
95.44000 3.124
95.46000 0.637
95.48000 0.182
95.50000 0.124
95.52000 3.006
95.54000 4.081
95.56000 1.197
95.58000 1.983
95.60000 -0.146
95.62000 2.008
95.64000 2.257
95.66000 -1.813
95.68000 -1.223
95.70000 1.078
95.72000 2.161
95.74000 4.820
95.76000 5.158
95.78000 4.782
95.80000 3.650
95.82000 4.321
95.84000 4.820
95.86000 3.004
95.88000 2.665
95.90000 0.617
95.92000 2.562
95.94000 1.152
95.96000 0.265
95.98000 4.377
96.00000 3.908
96.02000 5.104
96.04000 2.139
96.06000 2.832
96.08000 4.946
96.10000 2.806
96.12000 3.122
96.14000 1.289
96.16000 0.388
96.18000 5.996
96.20000 5.058
96.22000 4.825
96.24000 4.346
96.26000 4.341
96.28000 4.047
96.30000 6.135
96.32000 -0.084
96.34000 -1.782
96.36000 -0.188
96.38000 4.287
96.40000 3.984
96.42000 6.091
96.44000 6.914
96.46000 4.111
96.48000 4.345
96.50000 1.605
96.52000 1.628
96.54000 5.896
96.56000 4.634
96.58000 4.732
96.60000 5.879
96.62000 7.200
96.64000 2.797
96.66000 2.406
96.68000 3.531
96.70000 3.084
96.72000 3.948
96.74000 3.777
96.76000 4.527
96.78000 6.244
96.80000 3.338
96.82000 -0.739
96.84000 0.369
96.86000 5.827
96.88000 9.573
96.90000 4.414
96.92000 2.214
96.94000 2.281
96.96000 1.839
96.98000 3.708
97.00000 5.506
97.02000 4.340
97.04000 3.339
97.06000 5.317
97.08000 3.108
97.10000 4.820
97.12000 -1.014
97.14000 0.331
97.16000 0.725
97.18000 0.825
97.20000 4.718
97.22000 2.179
97.24000 1.112
97.26000 -1.806
97.28000 3.264
97.30000 4.117
97.32000 6.572
97.34000 3.400
97.36000 1.321
97.38000 7.682
97.40000 10.489
97.42000 8.872
97.44000 4.549
97.46000 3.918
97.48000 2.500
97.50000 5.002
97.52000 4.972
97.54000 4.113
97.56000 0.973
97.58000 0.828
97.60000 3.844
97.62000 4.162
97.64000 2.112
97.66000 1.384
97.68000 2.478
97.70000 1.115
97.72000 3.771
97.74000 4.293
97.76000 3.962
97.78000 5.372
97.80000 4.986
97.82000 3.101
97.84000 2.918
97.86000 4.054
97.88000 1.694
97.90000 2.447
97.92000 2.513
97.94000 0.621
97.96000 -0.635
97.98000 4.916
98.00000 3.624
98.02000 4.238
98.04000 4.471
98.06000 -0.002
98.08000 2.762
98.10000 0.670
98.12000 1.440
98.14000 0.092
98.16000 2.599
98.18000 3.057
98.20000 3.588
98.22000 3.841
98.24000 3.235
98.26000 0.345
98.28000 2.194
98.30000 2.694
98.32000 4.111
98.34000 4.927
98.36000 4.150
98.38000 7.014
98.40000 3.237
98.42000 1.081
98.44000 0.578
98.46000 4.702
98.48000 8.381
98.50000 0.711
98.52000 -0.617
98.54000 3.885
98.56000 0.380
98.58000 1.943
98.60000 6.537
98.62000 5.476
98.64000 10.744
98.66000 10.980
98.68000 10.991
98.70000 6.177
98.72000 3.507
98.74000 9.445
98.76000 9.252
98.78000 6.750
98.80000 10.902
98.82000 11.874
98.84000 3.359
98.86000 4.591
98.88000 5.261
98.90000 7.051
98.92000 1.930
98.94000 1.028
98.96000 -0.692
98.98000 -1.710
99.00000 1.932
99.02000 10.659
99.04000 6.737
99.06000 6.217
99.08000 13.395
99.10000 11.580
99.12000 14.356
99.14000 10.675
99.16000 9.029
99.18000 4.200
99.20000 9.451
99.22000 0.926
99.24000 -1.119
99.26000 4.111
99.28000 1.773
99.30000 2.107
99.32000 5.494
99.34000 10.955
99.36000 9.075
99.38000 1.921
99.40000 5.966
99.42000 6.810
99.44000 0.099
99.46000 0.836
99.48000 1.600
99.50000 -1.804
99.52000 -0.229
99.54000 2.313
99.56000 -0.565
99.58000 -1.559
99.60000 2.835
99.62000 1.755
99.64000 4.247
99.66000 0.945
99.68000 1.743
99.70000 2.246
99.72000 1.101
99.74000 5.341
99.76000 1.696
99.78000 4.627
99.80000 1.257
99.82000 1.090
99.84000 1.337
99.86000 -0.656
99.88000 -1.888
99.90000 -0.686
99.92000 0.955
99.94000 -0.058
99.96000 -1.935
99.98000 0.000
