'Id: "0011387" Comment: "Integrate frame 0011387_Au-Ir-Rh_Rh-rich_XRD-Mapping-290-0000.gfrmwith cursor Wedge Cursor #5" Operator: "B?rgel" Anode: "Cu" Wavelength: "1.5406" Scantype: "2Theta (TwoTheta)" TimePerStep: "1" X: "13.5" Y: "27" Z: "5.95" 
10.00000 0.000
10.02000 10.819
10.04000 6.533
10.06000 0.055
10.08000 -3.958
10.10000 5.650
10.12000 9.927
10.14000 10.002
10.16000 10.755
10.18000 11.543
10.20000 7.892
10.22000 3.391
10.24000 7.023
10.26000 10.393
10.28000 12.134
10.30000 4.688
10.32000 18.680
10.34000 19.712
10.36000 14.985
10.38000 30.550
10.40000 16.869
10.42000 25.494
10.44000 28.599
10.46000 19.812
10.48000 13.658
10.50000 5.546
10.52000 -2.392
10.54000 4.476
10.56000 6.841
10.58000 23.638
10.60000 18.321
10.62000 13.737
10.64000 5.664
10.66000 6.520
10.68000 1.713
10.70000 8.328
10.72000 18.581
10.74000 18.920
10.76000 1.003
10.78000 5.363
10.80000 9.064
10.82000 18.439
10.84000 17.686
10.86000 5.230
10.88000 7.759
10.90000 20.138
10.92000 12.132
10.94000 7.590
10.96000 6.800
10.98000 12.772
11.00000 19.856
11.02000 17.942
11.04000 8.132
11.06000 14.785
11.08000 31.894
11.10000 18.507
11.12000 10.352
11.14000 19.367
11.16000 22.986
11.18000 2.370
11.20000 3.726
11.22000 4.432
11.24000 12.746
11.26000 11.845
11.28000 17.635
11.30000 27.169
11.32000 19.253
11.34000 15.613
11.36000 24.856
11.38000 22.642
11.40000 11.915
11.42000 18.199
11.44000 28.823
11.46000 31.750
11.48000 20.930
11.50000 15.952
11.52000 19.973
11.54000 14.444
11.56000 24.923
11.58000 15.232
11.60000 20.756
11.62000 20.782
11.64000 10.748
11.66000 20.316
11.68000 20.082
11.70000 11.861
11.72000 16.781
11.74000 16.196
11.76000 20.512
11.78000 18.076
11.80000 11.120
11.82000 15.431
11.84000 15.665
11.86000 5.520
11.88000 9.852
11.90000 17.248
11.92000 24.316
11.94000 9.420
11.96000 13.980
11.98000 6.094
12.00000 13.758
12.02000 11.889
12.04000 5.061
12.06000 12.194
12.08000 20.593
12.10000 13.718
12.12000 9.840
12.14000 17.624
12.16000 19.814
12.18000 24.168
12.20000 20.780
12.22000 19.573
12.24000 28.055
12.26000 19.707
12.28000 12.050
12.30000 11.544
12.32000 16.198
12.34000 20.809
12.36000 27.894
12.38000 24.526
12.40000 25.478
12.42000 25.002
12.44000 33.056
12.46000 27.406
12.48000 26.001
12.50000 20.586
12.52000 14.992
12.54000 8.583
12.56000 10.260
12.58000 3.647
12.60000 20.828
12.62000 23.901
12.64000 18.997
12.66000 23.049
12.68000 12.963
12.70000 9.843
12.72000 16.043
12.74000 17.610
12.76000 0.534
12.78000 12.935
12.80000 22.508
12.82000 25.386
12.84000 28.236
12.86000 21.959
12.88000 4.833
12.90000 9.859
12.92000 21.594
12.94000 17.878
12.96000 22.777
12.98000 17.687
13.00000 15.388
13.02000 16.114
13.04000 10.593
13.06000 17.444
13.08000 19.962
13.10000 23.904
13.12000 13.131
13.14000 10.047
13.16000 8.576
13.18000 20.733
13.20000 28.657
13.22000 20.677
13.24000 27.481
13.26000 22.892
13.28000 18.391
13.30000 16.281
13.32000 23.630
13.34000 16.287
13.36000 5.460
13.38000 13.152
13.40000 7.671
13.42000 6.680
13.44000 20.685
13.46000 14.130
13.48000 2.340
13.50000 10.677
13.52000 22.270
13.54000 19.467
13.56000 9.062
13.58000 6.011
13.60000 5.986
13.62000 9.892
13.64000 19.540
13.66000 18.408
13.68000 21.042
13.70000 24.177
13.72000 17.142
13.74000 6.454
13.76000 6.781
13.78000 11.678
13.80000 10.392
13.82000 2.905
13.84000 9.559
13.86000 18.806
13.88000 16.730
13.90000 17.511
13.92000 14.280
13.94000 9.012
13.96000 6.753
13.98000 7.440
14.00000 11.245
14.02000 13.362
14.04000 15.866
14.06000 21.709
14.08000 23.375
14.10000 19.443
14.12000 19.106
14.14000 9.001
14.16000 13.949
14.18000 6.988
14.20000 4.709
14.22000 8.503
14.24000 6.678
14.26000 8.454
14.28000 6.666
14.30000 4.784
14.32000 4.794
14.34000 15.084
14.36000 16.509
14.38000 9.451
14.40000 8.667
14.42000 3.778
14.44000 6.355
14.46000 10.273
14.48000 6.678
14.50000 -4.456
14.52000 13.969
14.54000 10.763
14.56000 11.690
14.58000 19.284
14.60000 16.594
14.62000 11.390
14.64000 13.018
14.66000 12.004
14.68000 8.210
14.70000 8.057
14.72000 17.997
14.74000 23.150
14.76000 16.501
14.78000 15.053
14.80000 6.986
14.82000 12.410
14.84000 15.212
14.86000 10.808
14.88000 12.570
14.90000 4.753
14.92000 2.478
14.94000 12.585
14.96000 6.760
14.98000 12.837
15.00000 13.310
15.02000 9.198
15.04000 6.757
15.06000 8.889
15.08000 7.603
15.10000 7.674
15.12000 10.934
15.14000 16.923
15.16000 18.040
15.18000 17.499
15.20000 20.784
15.22000 11.533
15.24000 9.567
15.26000 12.460
15.28000 9.686
15.30000 5.447
15.32000 8.472
15.34000 7.731
15.36000 -3.367
15.38000 6.283
15.40000 11.552
15.42000 6.343
15.44000 15.445
15.46000 14.147
15.48000 4.061
15.50000 0.540
15.52000 -0.884
15.54000 4.536
15.56000 16.289
15.58000 8.251
15.60000 7.050
15.62000 17.928
15.64000 17.684
15.66000 14.152
15.68000 12.453
15.70000 2.730
15.72000 5.516
15.74000 -3.044
15.76000 9.381
15.78000 5.587
15.80000 5.194
15.82000 11.962
15.84000 8.494
15.86000 7.287
15.88000 9.762
15.90000 11.651
15.92000 13.535
15.94000 12.737
15.96000 5.812
15.98000 0.208
16.00000 -1.720
16.02000 7.316
16.04000 6.036
16.06000 0.674
16.08000 2.024
16.10000 3.738
16.12000 13.111
16.14000 18.320
16.16000 12.659
16.18000 4.727
16.20000 2.933
16.22000 4.915
16.24000 7.308
16.26000 4.386
16.28000 8.160
16.30000 5.827
16.32000 7.630
16.34000 8.987
16.36000 4.482
16.38000 0.095
16.40000 4.429
16.42000 15.008
16.44000 10.876
16.46000 9.080
16.48000 14.856
16.50000 5.521
16.52000 4.058
16.54000 0.880
16.56000 7.937
16.58000 9.119
16.60000 5.761
16.62000 8.916
16.64000 6.828
16.66000 1.526
16.68000 -1.974
16.70000 -4.428
16.72000 2.917
16.74000 3.507
16.76000 -3.248
16.78000 -4.257
16.80000 6.625
16.82000 3.761
16.84000 8.108
16.86000 6.417
16.88000 10.434
16.90000 1.491
16.92000 -1.557
16.94000 -0.485
16.96000 1.133
16.98000 1.585
17.00000 2.132
17.02000 10.211
17.04000 9.174
17.06000 3.887
17.08000 7.511
17.10000 0.860
17.12000 4.205
17.14000 8.845
17.16000 6.844
17.18000 -1.045
17.20000 0.091
17.22000 6.704
17.24000 5.061
17.26000 5.745
17.28000 4.716
17.30000 7.439
17.32000 3.008
17.34000 5.661
17.36000 2.527
17.38000 8.928
17.40000 1.169
17.42000 4.662
17.44000 11.386
17.46000 2.742
17.48000 -2.038
17.50000 -4.405
17.52000 -1.565
17.54000 -2.407
17.56000 2.454
17.58000 8.544
17.60000 10.568
17.62000 6.270
17.64000 9.200
17.66000 7.292
17.68000 -2.965
17.70000 4.714
17.72000 9.379
17.74000 10.498
17.76000 5.080
17.78000 3.367
17.80000 -2.044
17.82000 2.372
17.84000 4.260
17.86000 4.233
17.88000 4.982
17.90000 6.177
17.92000 4.305
17.94000 4.411
17.96000 -2.299
17.98000 4.135
18.00000 10.535
18.02000 9.361
18.04000 10.845
18.06000 5.027
18.08000 7.249
18.10000 3.452
18.12000 4.094
18.14000 6.666
18.16000 5.882
18.18000 13.992
18.20000 1.688
18.22000 -4.367
18.24000 -0.584
18.26000 7.663
18.28000 3.867
18.30000 -0.157
18.32000 0.699
18.34000 5.567
18.36000 -1.401
18.38000 3.177
18.40000 0.829
18.42000 -2.884
18.44000 1.506
18.46000 2.416
18.48000 7.391
18.50000 0.204
18.52000 1.783
18.54000 2.383
18.56000 1.276
18.58000 7.001
18.60000 3.767
18.62000 7.533
18.64000 6.400
18.66000 3.832
18.68000 2.609
18.70000 6.290
18.72000 3.665
18.74000 5.611
18.76000 7.182
18.78000 6.142
18.80000 4.911
18.82000 -0.944
18.84000 -4.320
18.86000 -1.405
18.88000 -1.524
18.90000 3.372
18.92000 9.466
18.94000 1.982
18.96000 7.520
18.98000 13.719
19.00000 11.345
19.02000 15.955
19.04000 11.436
19.06000 8.828
19.08000 5.207
19.10000 -2.705
19.12000 -3.089
19.14000 0.656
19.16000 1.502
19.18000 -0.363
19.20000 2.321
19.22000 4.171
19.24000 4.891
19.26000 6.976
19.28000 -1.399
19.30000 3.129
19.32000 1.735
19.34000 -0.420
19.36000 1.351
19.38000 2.260
19.40000 -0.969
19.42000 4.206
19.44000 9.226
19.46000 5.743
19.48000 4.088
19.50000 1.455
19.52000 9.285
19.54000 8.239
19.56000 -0.188
19.58000 -1.267
19.60000 -0.286
19.62000 -3.034
19.64000 -1.479
19.66000 4.791
19.68000 8.909
19.70000 8.019
19.72000 8.652
19.74000 6.487
19.76000 2.820
19.78000 1.869
19.80000 0.123
19.82000 -0.703
19.84000 -2.555
19.86000 -4.280
19.88000 3.011
19.90000 -1.607
19.92000 -4.276
19.94000 1.399
19.96000 4.728
19.98000 3.585
20.00000 1.132
20.02000 -0.881
20.04000 7.561
20.06000 8.475
20.08000 1.091
20.10000 3.154
20.12000 -1.010
20.14000 0.371
20.16000 -1.210
20.18000 5.174
20.20000 7.297
20.22000 2.260
20.24000 1.714
20.26000 -1.507
20.28000 4.069
20.30000 -1.766
20.32000 -3.031
20.34000 1.442
20.36000 8.786
20.38000 6.328
20.40000 -3.746
20.42000 1.688
20.44000 3.181
20.46000 -0.119
20.48000 0.550
20.50000 2.367
20.52000 8.506
20.54000 2.882
20.56000 -0.885
20.58000 7.939
20.60000 10.105
20.62000 7.907
20.64000 3.466
20.66000 6.290
20.68000 5.476
20.70000 9.020
20.72000 2.135
20.74000 -1.661
20.76000 5.798
20.78000 4.458
20.80000 1.924
20.82000 2.869
20.84000 1.050
20.86000 -2.695
20.88000 7.048
20.90000 1.916
20.92000 -2.441
20.94000 6.663
20.96000 9.205
20.98000 5.376
21.00000 0.408
21.02000 -0.355
21.04000 -0.482
21.06000 -1.463
21.08000 -2.813
21.10000 -2.722
21.12000 5.256
21.14000 5.114
21.16000 5.121
21.18000 9.582
21.20000 6.354
21.22000 10.791
21.24000 11.636
21.26000 8.141
21.28000 6.230
21.30000 8.654
21.32000 6.966
21.34000 1.691
21.36000 3.683
21.38000 8.111
21.40000 9.042
21.42000 8.401
21.44000 7.679
21.46000 -4.136
21.48000 5.667
21.50000 8.986
21.52000 7.662
21.54000 4.434
21.56000 1.922
21.58000 0.830
21.60000 -4.082
21.62000 -2.186
21.64000 1.652
21.66000 9.849
21.68000 9.761
21.70000 14.365
21.72000 12.279
21.74000 8.882
21.76000 5.471
21.78000 -1.543
21.80000 5.110
21.82000 11.118
21.84000 11.294
21.86000 8.638
21.88000 8.795
21.90000 5.367
21.92000 7.469
21.94000 10.634
21.96000 2.161
21.98000 3.188
22.00000 4.921
22.02000 11.348
22.04000 9.074
22.06000 8.472
22.08000 7.518
22.10000 4.769
22.12000 3.201
22.14000 -4.095
22.16000 7.839
22.18000 3.729
22.20000 3.191
22.22000 6.328
22.24000 6.547
22.26000 2.675
22.28000 4.874
22.30000 5.531
22.32000 2.756
22.34000 4.277
22.36000 7.310
22.38000 10.693
22.40000 14.868
22.42000 6.625
22.44000 12.086
22.46000 5.176
22.48000 6.595
22.50000 12.443
22.52000 6.225
22.54000 2.003
22.56000 6.884
22.58000 14.548
22.60000 14.035
22.62000 5.536
22.64000 7.868
22.66000 4.469
22.68000 9.461
22.70000 14.192
22.72000 7.097
22.74000 1.099
22.76000 3.443
22.78000 4.773
22.80000 1.594
22.82000 1.327
22.84000 -0.748
22.86000 3.956
22.88000 7.476
22.90000 7.075
22.92000 1.088
22.94000 -3.839
22.96000 6.126
22.98000 12.285
23.00000 7.173
23.02000 -4.056
23.04000 0.385
23.06000 7.877
23.08000 13.597
23.10000 9.564
23.12000 4.933
23.14000 3.223
23.16000 3.523
23.18000 7.261
23.20000 2.607
23.22000 1.635
23.24000 2.447
23.26000 2.985
23.28000 4.226
23.30000 3.442
23.32000 0.624
23.34000 2.523
23.36000 0.352
23.38000 8.439
23.40000 8.937
23.42000 3.989
23.44000 4.883
23.46000 7.602
23.48000 2.879
23.50000 3.211
23.52000 -0.576
23.54000 2.181
23.56000 0.898
23.58000 7.155
23.60000 6.343
23.62000 3.475
23.64000 2.604
23.66000 0.346
23.68000 -1.538
23.70000 2.111
23.72000 1.572
23.74000 1.048
23.76000 2.916
23.78000 6.092
23.80000 4.345
23.82000 2.827
23.84000 7.126
23.86000 9.151
23.88000 4.081
23.90000 3.134
23.92000 3.415
23.94000 7.774
23.96000 6.534
23.98000 8.333
24.00000 6.589
24.02000 -0.869
24.04000 2.047
24.06000 7.601
24.08000 3.256
24.10000 4.610
24.12000 5.297
24.14000 4.429
24.16000 -1.349
24.18000 2.787
24.20000 7.861
24.22000 4.539
24.24000 4.194
24.26000 9.782
24.28000 8.170
24.30000 4.157
24.32000 8.525
24.34000 4.812
24.36000 4.427
24.38000 3.532
24.40000 6.079
24.42000 7.312
24.44000 8.061
24.46000 8.671
24.48000 4.221
24.50000 5.198
24.52000 -3.977
24.54000 -0.402
24.56000 2.652
24.58000 1.958
24.60000 -0.377
24.62000 3.837
24.64000 8.422
24.66000 12.002
24.68000 12.192
24.70000 5.564
24.72000 2.783
24.74000 8.709
24.76000 6.835
24.78000 3.320
24.80000 7.160
24.82000 2.934
24.84000 3.977
24.86000 4.448
24.88000 6.032
24.90000 1.740
24.92000 0.393
24.94000 6.161
24.96000 4.475
24.98000 2.025
25.00000 0.541
25.02000 0.388
25.04000 4.896
25.06000 4.415
25.08000 -0.050
25.10000 3.742
25.12000 -0.171
25.14000 -3.965
25.16000 1.897
25.18000 2.446
25.20000 4.259
25.22000 7.356
25.24000 4.437
25.26000 7.552
25.28000 4.008
25.30000 5.654
25.32000 2.764
25.34000 5.206
25.36000 4.454
25.38000 0.905
25.40000 -1.740
25.42000 0.124
25.44000 -1.789
25.46000 2.378
25.48000 2.862
25.50000 1.557
25.52000 -3.104
25.54000 2.089
25.56000 -2.914
25.58000 1.944
25.60000 5.622
25.62000 1.883
25.64000 1.311
25.66000 -2.348
25.68000 -0.935
25.70000 -2.604
25.72000 -1.380
25.74000 0.342
25.76000 0.795
25.78000 1.878
25.80000 3.376
25.82000 0.754
25.84000 3.100
25.86000 4.182
25.88000 4.733
25.90000 8.958
25.92000 3.017
25.94000 -0.687
25.96000 3.657
25.98000 2.053
26.00000 -1.264
26.02000 0.833
26.04000 -0.500
26.06000 0.403
26.08000 7.617
26.10000 7.413
26.12000 6.266
26.14000 0.747
26.16000 0.853
26.18000 4.413
26.20000 -0.020
26.22000 -2.400
26.24000 -3.067
26.26000 5.240
26.28000 11.691
26.30000 3.812
26.32000 1.764
26.34000 0.568
26.36000 -0.227
26.38000 -3.493
26.40000 -2.166
26.42000 0.988
26.44000 -3.922
26.46000 3.782
26.48000 4.807
26.50000 -2.127
26.52000 -0.851
26.54000 5.433
26.56000 1.236
26.58000 -1.612
26.60000 -2.377
26.62000 -0.271
26.64000 6.950
26.66000 -0.160
26.68000 -2.135
26.70000 -2.618
26.72000 4.051
26.74000 3.213
26.76000 2.516
26.78000 -0.206
26.80000 3.270
26.82000 5.662
26.84000 10.090
26.86000 1.724
26.88000 -0.241
26.90000 6.815
26.92000 8.668
26.94000 3.629
26.96000 3.757
26.98000 3.101
27.00000 4.649
27.02000 10.283
27.04000 12.457
27.06000 4.861
27.08000 3.081
27.10000 0.482
27.12000 1.888
27.14000 5.693
27.16000 1.205
27.18000 -0.750
27.20000 -3.863
27.22000 -1.800
27.24000 6.414
27.26000 6.455
27.28000 2.262
27.30000 0.205
27.32000 1.184
27.34000 0.335
27.36000 2.272
27.38000 3.798
27.40000 3.500
27.42000 4.412
27.44000 5.127
27.46000 2.972
27.48000 1.224
27.50000 2.778
27.52000 8.830
27.54000 6.939
27.56000 10.394
27.58000 10.274
27.60000 8.026
27.62000 4.481
27.64000 6.690
27.66000 7.122
27.68000 2.179
27.70000 2.568
27.72000 0.916
27.74000 7.332
27.76000 5.695
27.78000 1.464
27.80000 5.491
27.82000 7.485
27.84000 6.770
27.86000 6.112
27.88000 1.595
27.90000 -0.556
27.92000 6.381
27.94000 5.883
27.96000 6.567
27.98000 6.577
28.00000 5.723
28.02000 4.045
28.04000 2.267
28.06000 6.308
28.08000 2.769
28.10000 -3.786
28.12000 -0.399
28.14000 2.058
28.16000 11.848
28.18000 8.329
28.20000 9.148
28.22000 4.667
28.24000 3.136
28.26000 4.792
28.28000 10.311
28.30000 7.687
28.32000 11.262
28.34000 8.591
28.36000 -1.486
28.38000 3.922
28.40000 2.072
28.42000 4.774
28.44000 5.955
28.46000 0.881
28.48000 3.834
28.50000 5.853
28.52000 1.806
28.54000 0.587
28.56000 2.990
28.58000 2.519
28.60000 -2.232
28.62000 1.824
28.64000 4.313
28.66000 3.101
28.68000 0.054
28.70000 -1.200
28.72000 3.005
28.74000 3.909
28.76000 3.964
28.78000 1.208
28.80000 0.042
28.82000 0.831
28.84000 2.878
28.86000 10.037
28.88000 5.681
28.90000 0.141
28.92000 5.417
28.94000 6.610
28.96000 1.545
28.98000 1.321
29.00000 1.732
29.02000 1.227
29.04000 -3.138
29.06000 -2.037
29.08000 1.615
29.10000 -1.356
29.12000 0.878
29.14000 -0.812
29.16000 1.855
29.18000 2.310
29.20000 -1.946
29.22000 -3.758
29.24000 -1.749
29.26000 3.121
29.28000 1.059
29.30000 0.283
29.32000 5.089
29.34000 11.005
29.36000 3.266
29.38000 3.350
29.40000 5.108
29.42000 3.860
29.44000 6.255
29.46000 6.053
29.48000 5.130
29.50000 6.779
29.52000 7.535
29.54000 5.679
29.56000 8.813
29.58000 0.997
29.60000 1.708
29.62000 0.882
29.64000 4.995
29.66000 8.852
29.68000 5.932
29.70000 4.566
29.72000 4.134
29.74000 4.081
29.76000 4.443
29.78000 3.805
29.80000 8.591
29.82000 3.581
29.84000 4.426
29.86000 10.321
29.88000 6.751
29.90000 5.156
29.92000 5.984
29.94000 6.414
29.96000 5.340
29.98000 2.881
30.00000 4.724
30.02000 4.840
30.04000 5.941
30.06000 4.918
30.08000 1.336
30.10000 2.145
30.12000 0.353
30.14000 3.051
30.16000 1.431
30.18000 3.087
30.20000 -3.687
30.22000 2.819
30.24000 4.140
30.26000 -1.185
30.28000 -3.376
30.30000 -0.912
30.32000 6.431
30.34000 4.930
30.36000 0.691
30.38000 2.088
30.40000 3.101
30.42000 3.721
30.44000 3.327
30.46000 4.152
30.48000 1.651
30.50000 3.334
30.52000 0.703
30.54000 4.144
30.56000 4.830
30.58000 2.977
30.60000 1.280
30.62000 4.375
30.64000 4.251
30.66000 4.362
30.68000 1.047
30.70000 0.979
30.72000 0.066
30.74000 0.738
30.76000 2.607
30.78000 -1.411
30.80000 4.368
30.82000 3.725
30.84000 2.797
30.86000 2.294
30.88000 -0.074
30.90000 2.088
30.92000 0.021
30.94000 3.903
30.96000 4.707
30.98000 2.812
31.00000 1.193
31.02000 3.205
31.04000 1.877
31.06000 0.382
31.08000 4.215
31.10000 5.156
31.12000 2.054
31.14000 -0.419
31.16000 0.725
31.18000 6.948
31.20000 3.863
31.22000 5.002
31.24000 7.103
31.26000 4.938
31.28000 3.235
31.30000 5.369
31.32000 1.992
31.34000 -1.820
31.36000 0.509
31.38000 1.623
31.40000 2.022
31.42000 2.604
31.44000 -0.623
31.46000 1.418
31.48000 1.591
31.50000 3.189
31.52000 3.672
31.54000 3.864
31.56000 3.113
31.58000 1.938
31.60000 -0.340
31.62000 -0.647
31.64000 4.855
31.66000 7.941
31.68000 0.843
31.70000 -1.418
31.72000 -0.097
31.74000 0.160
31.76000 2.224
31.78000 2.573
31.80000 -1.535
31.82000 -3.382
31.84000 -3.636
31.86000 1.264
31.88000 4.730
31.90000 3.947
31.92000 9.233
31.94000 3.588
31.96000 3.397
31.98000 1.901
32.00000 -0.345
32.02000 -0.533
32.04000 0.188
32.06000 4.730
32.08000 -1.065
32.10000 1.272
32.12000 -1.411
32.14000 3.595
32.16000 7.401
32.18000 5.379
32.20000 4.285
32.22000 1.243
32.24000 0.236
32.26000 -1.619
32.28000 0.409
32.30000 0.534
32.32000 1.409
32.34000 -2.392
32.36000 -0.643
32.38000 -1.403
32.40000 -0.479
32.42000 0.387
32.44000 4.650
32.46000 2.637
32.48000 -0.462
32.50000 -1.192
32.52000 -1.700
32.54000 -2.570
32.56000 1.799
32.58000 5.662
32.60000 2.945
32.62000 -1.565
32.64000 5.540
32.66000 1.284
32.68000 0.342
32.70000 3.869
32.72000 5.677
32.74000 3.986
32.76000 -3.585
32.78000 -0.196
32.80000 5.589
32.82000 5.351
32.84000 8.521
32.86000 8.748
32.88000 7.038
32.90000 3.764
32.92000 7.226
32.94000 6.010
32.96000 4.532
32.98000 5.524
33.00000 9.280
33.02000 7.226
33.04000 4.732
33.06000 4.615
33.08000 0.472
33.10000 -1.678
33.12000 4.541
33.14000 5.956
33.16000 -0.236
33.18000 5.028
33.20000 4.080
33.22000 4.562
33.24000 1.376
33.26000 0.074
33.28000 -0.913
33.30000 1.543
33.32000 7.627
33.34000 9.207
33.36000 1.403
33.38000 1.715
33.40000 6.264
33.42000 6.089
33.44000 5.731
33.46000 2.590
33.48000 0.111
33.50000 2.743
33.52000 -0.290
33.54000 1.462
33.56000 4.853
33.58000 6.582
33.60000 6.991
33.62000 -0.013
33.64000 4.499
33.66000 6.980
33.68000 5.764
33.70000 1.909
33.72000 -2.430
33.74000 0.907
33.76000 3.565
33.78000 4.920
33.80000 2.046
33.82000 -2.815
33.84000 -3.516
33.86000 -1.309
33.88000 -1.343
33.90000 1.953
33.92000 -0.370
33.94000 6.661
33.96000 8.141
33.98000 3.059
34.00000 5.387
34.02000 4.438
34.04000 0.005
34.06000 0.750
34.08000 3.433
34.10000 5.101
34.12000 2.181
34.14000 1.366
34.16000 0.204
34.18000 -3.282
34.20000 3.067
34.22000 4.972
34.24000 0.017
34.26000 -0.420
34.28000 -3.592
34.30000 -1.890
34.32000 -0.316
34.34000 2.184
34.36000 2.921
34.38000 6.908
34.40000 5.431
34.42000 2.284
34.44000 0.272
34.46000 3.187
34.48000 3.320
34.50000 3.416
34.52000 2.671
34.54000 0.718
34.56000 2.221
34.58000 2.164
34.60000 2.287
34.62000 1.364
34.64000 0.727
34.66000 -0.042
34.68000 0.030
34.70000 -1.478
34.72000 6.326
34.74000 5.717
34.76000 0.571
34.78000 1.314
34.80000 4.146
34.82000 5.130
34.84000 3.349
34.86000 -1.266
34.88000 1.065
34.90000 4.136
34.92000 0.379
34.94000 0.703
34.96000 -0.595
34.98000 1.474
35.00000 3.016
35.02000 -0.471
35.04000 -0.791
35.06000 -2.613
35.08000 -3.580
35.10000 -1.719
35.12000 -0.057
35.14000 -1.483
35.16000 -3.354
35.18000 -2.532
35.20000 1.199
35.22000 1.948
35.24000 1.476
35.26000 2.049
35.28000 0.919
35.30000 -1.117
35.32000 -0.657
35.34000 0.096
35.36000 -3.139
35.38000 -1.341
35.40000 2.222
35.42000 4.333
35.44000 2.393
35.46000 2.347
35.48000 -0.742
35.50000 0.318
35.52000 4.181
35.54000 7.416
35.56000 1.996
35.58000 2.274
35.60000 3.836
35.62000 2.799
35.64000 1.808
35.66000 1.876
35.68000 6.432
35.70000 1.686
35.72000 -2.068
35.74000 0.811
35.76000 0.791
35.78000 3.516
35.80000 5.822
35.82000 -3.113
35.84000 -2.375
35.86000 4.613
35.88000 1.791
35.90000 -0.600
35.92000 1.253
35.94000 3.663
35.96000 1.991
35.98000 -1.326
36.00000 6.204
36.02000 3.242
36.04000 8.425
36.06000 7.533
36.08000 5.612
36.10000 2.174
36.12000 1.300
36.14000 -3.531
36.16000 1.623
36.18000 3.452
36.20000 5.259
36.22000 2.906
36.24000 5.178
36.26000 2.422
36.28000 0.400
36.30000 -1.295
36.32000 0.764
36.34000 0.611
36.36000 2.033
36.38000 3.911
36.40000 3.444
36.42000 2.993
36.44000 0.219
36.46000 1.472
36.48000 5.275
36.50000 6.601
36.52000 0.118
36.54000 1.431
36.56000 3.319
36.58000 6.637
36.60000 4.546
36.62000 2.453
36.64000 -0.539
36.66000 0.254
36.68000 2.697
36.70000 0.332
36.72000 -0.069
36.74000 3.702
36.76000 1.616
36.78000 -0.675
36.80000 -1.493
36.82000 1.047
36.84000 1.073
36.86000 -0.818
36.88000 -0.144
36.90000 0.476
36.92000 3.371
36.94000 5.712
36.96000 6.827
36.98000 -0.258
37.00000 -3.627
37.02000 1.902
37.04000 0.666
37.06000 3.052
37.08000 4.474
37.10000 0.006
37.12000 0.030
37.14000 -2.357
37.16000 -2.999
37.18000 4.190
37.20000 5.635
37.22000 0.557
37.24000 -2.593
37.26000 1.053
37.28000 3.010
37.30000 2.301
37.32000 2.668
37.34000 4.708
37.36000 0.121
37.38000 -0.178
37.40000 2.914
37.42000 2.029
37.44000 -0.107
37.46000 -3.492
37.48000 -2.099
37.50000 3.080
37.52000 -2.375
37.54000 -3.674
37.56000 -1.431
37.58000 -1.172
37.60000 1.154
37.62000 -0.182
37.64000 4.338
37.66000 6.272
37.68000 7.138
37.70000 8.949
37.72000 10.231
37.74000 7.470
37.76000 4.174
37.78000 0.481
37.80000 1.363
37.82000 3.660
37.84000 9.506
37.86000 6.731
37.88000 5.285
37.90000 3.965
37.92000 6.301
37.94000 9.527
37.96000 8.285
37.98000 7.350
38.00000 9.734
38.02000 11.765
38.04000 10.514
38.06000 9.705
38.08000 5.783
38.10000 10.577
38.12000 9.700
38.14000 11.659
38.16000 14.800
38.18000 13.785
38.20000 14.250
38.22000 14.156
38.24000 18.179
38.26000 11.338
38.28000 9.068
38.30000 8.884
38.32000 13.691
38.34000 15.303
38.36000 15.802
38.38000 17.334
38.40000 17.856
38.42000 23.230
38.44000 23.041
38.46000 25.211
38.48000 22.939
38.50000 19.237
38.52000 17.314
38.54000 26.323
38.56000 28.748
38.58000 25.762
38.60000 26.937
38.62000 26.290
38.64000 25.741
38.66000 27.149
38.68000 33.129
38.70000 32.408
38.72000 34.497
38.74000 41.648
38.76000 39.998
38.78000 41.260
38.80000 48.271
38.82000 47.955
38.84000 45.318
38.86000 42.941
38.88000 51.600
38.90000 51.973
38.92000 51.999
38.94000 54.560
38.96000 57.283
38.98000 57.167
39.00000 65.568
39.02000 66.967
39.04000 71.107
39.06000 74.277
39.08000 80.516
39.10000 80.114
39.12000 79.255
39.14000 81.075
39.16000 88.460
39.18000 83.427
39.20000 92.925
39.22000 97.956
39.24000 99.137
39.26000 106.322
39.28000 115.568
39.30000 119.822
39.32000 123.156
39.34000 127.408
39.36000 132.932
39.38000 147.147
39.40000 159.954
39.42000 160.413
39.44000 166.886
39.46000 167.827
39.48000 180.664
39.50000 197.713
39.52000 211.884
39.54000 215.537
39.56000 225.300
39.58000 240.002
39.60000 250.271
39.62000 263.515
39.64000 271.568
39.66000 275.783
39.68000 297.400
39.70000 321.481
39.72000 332.191
39.74000 352.870
39.76000 368.060
39.78000 381.883
39.80000 396.867
39.82000 407.041
39.84000 419.774
39.86000 440.281
39.88000 469.694
39.90000 487.947
39.92000 504.183
39.94000 505.359
39.96000 512.355
39.98000 531.802
40.00000 544.601
40.02000 555.036
40.04000 571.066
40.06000 590.033
40.08000 603.610
40.10000 595.375
40.12000 597.239
40.14000 611.564
40.16000 602.446
40.18000 596.036
40.20000 597.377
40.22000 601.545
40.24000 591.940
40.26000 581.382
40.28000 576.627
40.30000 562.825
40.32000 542.757
40.34000 531.131
40.36000 518.591
40.38000 513.642
40.40000 501.129
40.42000 473.967
40.44000 466.030
40.46000 442.666
40.48000 422.520
40.50000 403.665
40.52000 395.795
40.54000 377.937
40.56000 367.956
40.58000 346.586
40.60000 330.182
40.62000 313.678
40.64000 306.164
40.66000 289.513
40.68000 269.517
40.70000 254.231
40.72000 246.080
40.74000 237.808
40.76000 217.722
40.78000 211.348
40.80000 202.845
40.82000 185.108
40.84000 175.094
40.86000 162.452
40.88000 156.825
40.90000 150.211
40.92000 135.553
40.94000 125.609
40.96000 118.887
40.98000 119.220
41.00000 117.564
41.02000 109.472
41.04000 101.114
41.06000 95.126
41.08000 86.111
41.10000 80.309
41.12000 77.589
41.14000 81.632
41.16000 78.255
41.18000 70.483
41.20000 62.376
41.22000 61.737
41.24000 57.804
41.26000 51.771
41.28000 47.952
41.30000 44.233
41.32000 42.932
41.34000 44.140
41.36000 41.677
41.38000 44.650
41.40000 38.294
41.42000 37.109
41.44000 34.554
41.46000 31.970
41.48000 34.175
41.50000 30.557
41.52000 26.250
41.54000 25.125
41.56000 22.517
41.58000 23.558
41.60000 23.957
41.62000 26.949
41.64000 22.658
41.66000 21.303
41.68000 20.862
41.70000 19.180
41.72000 21.688
41.74000 22.641
41.76000 14.954
41.78000 13.733
41.80000 17.425
41.82000 17.940
41.84000 15.563
41.86000 14.888
41.88000 14.331
41.90000 10.398
41.92000 10.047
41.94000 10.237
41.96000 10.635
41.98000 14.548
42.00000 12.618
42.02000 7.616
42.04000 11.876
42.06000 8.276
42.08000 4.446
42.10000 6.039
42.12000 5.413
42.14000 3.413
42.16000 6.038
42.18000 5.923
42.20000 8.544
42.22000 7.123
42.24000 8.072
42.26000 5.763
42.28000 5.846
42.30000 7.267
42.32000 5.721
42.34000 6.716
42.36000 3.467
42.38000 0.975
42.40000 0.777
42.42000 2.066
42.44000 3.309
42.46000 3.144
42.48000 -1.204
42.50000 -1.035
42.52000 3.769
42.54000 3.000
42.56000 5.739
42.58000 6.370
42.60000 5.651
42.62000 3.325
42.64000 4.755
42.66000 5.316
42.68000 3.105
42.70000 1.983
42.72000 3.536
42.74000 3.109
42.76000 3.021
42.78000 3.852
42.80000 0.739
42.82000 -3.446
42.84000 -0.915
42.86000 6.763
42.88000 7.866
42.90000 4.966
42.92000 5.465
42.94000 2.433
42.96000 2.345
42.98000 0.580
43.00000 -0.855
43.02000 2.836
43.04000 2.525
43.06000 5.434
43.08000 6.689
43.10000 6.638
43.12000 5.599
43.14000 5.072
43.16000 5.885
43.18000 0.973
43.20000 5.610
43.22000 1.807
43.24000 1.554
43.26000 2.352
43.28000 1.180
43.30000 2.895
43.32000 2.768
43.34000 -0.062
43.36000 1.701
43.38000 0.166
43.40000 -2.252
43.42000 1.097
43.44000 3.392
43.46000 1.456
43.48000 -1.120
43.50000 -0.417
43.52000 3.225
43.54000 5.149
43.56000 -0.674
43.58000 -1.322
43.60000 2.557
43.62000 0.252
43.64000 0.448
43.66000 4.344
43.68000 4.383
43.70000 4.071
43.72000 0.099
43.74000 2.265
43.76000 1.266
43.78000 -2.848
43.80000 -3.360
43.82000 -0.347
43.84000 -0.900
43.86000 -0.295
43.88000 1.641
43.90000 -1.347
43.92000 0.679
43.94000 2.355
43.96000 0.548
43.98000 0.936
44.00000 4.178
44.02000 3.946
44.04000 3.897
44.06000 2.381
44.08000 1.228
44.10000 3.625
44.12000 4.300
44.14000 5.355
44.16000 2.003
44.18000 2.444
44.20000 -0.620
44.22000 4.428
44.24000 3.062
44.26000 -1.959
44.28000 -3.356
44.30000 7.375
44.32000 7.142
44.34000 3.847
44.36000 3.628
44.38000 1.049
44.40000 0.650
44.42000 3.745
44.44000 3.554
44.46000 1.470
44.48000 -0.057
44.50000 0.628
44.52000 -0.110
44.54000 1.021
44.56000 -0.956
44.58000 -1.010
44.60000 -1.961
44.62000 0.606
44.64000 0.567
44.66000 -1.496
44.68000 -1.213
44.70000 -0.871
44.72000 5.849
44.74000 9.722
44.76000 6.904
44.78000 3.255
44.80000 1.849
44.82000 1.362
44.84000 1.286
44.86000 2.486
44.88000 3.511
44.90000 5.096
44.92000 6.963
44.94000 5.102
44.96000 9.248
44.98000 10.597
45.00000 6.981
45.02000 8.156
45.04000 10.908
45.06000 4.718
45.08000 2.481
45.10000 6.072
45.12000 5.904
45.14000 8.797
45.16000 13.896
45.18000 12.597
45.20000 11.467
45.22000 15.131
45.24000 14.945
45.26000 9.904
45.28000 8.107
45.30000 9.053
45.32000 9.517
45.34000 18.102
45.36000 16.351
45.38000 15.420
45.40000 16.701
45.42000 10.302
45.44000 13.730
45.46000 20.769
45.48000 24.591
45.50000 19.975
45.52000 22.414
45.54000 21.585
45.56000 22.596
45.58000 23.077
45.60000 25.788
45.62000 27.827
45.64000 27.269
45.66000 28.831
45.68000 25.909
45.70000 22.642
45.72000 23.961
45.74000 27.961
45.76000 32.188
45.78000 32.624
45.80000 36.865
45.82000 43.602
45.84000 36.889
45.86000 34.615
45.88000 37.728
45.90000 36.484
45.92000 39.657
45.94000 41.698
45.96000 42.321
45.98000 39.984
46.00000 42.937
46.02000 47.605
46.04000 43.934
46.06000 45.017
46.08000 43.159
46.10000 48.489
46.12000 55.812
46.14000 58.739
46.16000 58.481
46.18000 59.198
46.20000 56.228
46.22000 62.089
46.24000 61.834
46.26000 71.031
46.28000 69.397
46.30000 69.115
46.32000 70.207
46.34000 70.957
46.36000 75.276
46.38000 75.208
46.40000 80.917
46.42000 83.680
46.44000 82.993
46.46000 86.278
46.48000 89.721
46.50000 87.206
46.52000 82.277
46.54000 84.587
46.56000 96.433
46.58000 100.999
46.60000 106.183
46.62000 101.691
46.64000 94.481
46.66000 94.559
46.68000 99.477
46.70000 111.191
46.72000 116.561
46.74000 111.101
46.76000 105.714
46.78000 106.378
46.80000 105.161
46.82000 104.846
46.84000 107.829
46.86000 111.136
46.88000 109.262
46.90000 101.837
46.92000 96.194
46.94000 96.256
46.96000 99.647
46.98000 102.633
47.00000 108.835
47.02000 106.185
47.04000 97.799
47.06000 94.503
47.08000 93.146
47.10000 95.856
47.12000 89.923
47.14000 88.270
47.16000 85.495
47.18000 83.204
47.20000 76.066
47.22000 75.708
47.24000 76.188
47.26000 76.026
47.28000 75.097
47.30000 67.727
47.32000 64.710
47.34000 64.244
47.36000 68.053
47.38000 63.021
47.40000 54.475
47.42000 55.908
47.44000 60.336
47.46000 54.982
47.48000 46.754
47.50000 41.485
47.52000 50.206
47.54000 46.878
47.56000 44.239
47.58000 38.961
47.60000 37.728
47.62000 38.182
47.64000 34.770
47.66000 33.883
47.68000 33.817
47.70000 26.698
47.72000 30.833
47.74000 33.758
47.76000 35.014
47.78000 30.612
47.80000 28.754
47.82000 25.916
47.84000 18.909
47.86000 21.774
47.88000 23.800
47.90000 22.197
47.92000 18.636
47.94000 13.637
47.96000 13.473
47.98000 17.294
48.00000 18.464
48.02000 14.822
48.04000 13.161
48.06000 7.288
48.08000 6.687
48.10000 11.680
48.12000 12.456
48.14000 11.520
48.16000 9.608
48.18000 11.823
48.20000 8.502
48.22000 6.842
48.24000 5.619
48.26000 5.135
48.28000 3.915
48.30000 4.694
48.32000 10.815
48.34000 4.383
48.36000 1.870
48.38000 7.483
48.40000 10.901
48.42000 7.166
48.44000 2.113
48.46000 3.289
48.48000 8.467
48.50000 7.032
48.52000 7.774
48.54000 3.238
48.56000 5.518
48.58000 5.267
48.60000 3.971
48.62000 2.584
48.64000 3.004
48.66000 0.266
48.68000 0.877
48.70000 5.243
48.72000 1.919
48.74000 0.748
48.76000 5.547
48.78000 4.270
48.80000 -0.117
48.82000 -1.567
48.84000 1.341
48.86000 3.193
48.88000 0.099
48.90000 -0.088
48.92000 0.476
48.94000 4.302
48.96000 4.781
48.98000 9.448
49.00000 5.937
49.02000 5.979
49.04000 -0.009
49.06000 -2.898
49.08000 1.580
49.10000 4.506
49.12000 8.535
49.14000 5.162
49.16000 -2.650
49.18000 -2.650
49.20000 -0.654
49.22000 -0.591
49.24000 4.232
49.26000 8.498
49.28000 2.842
49.30000 1.260
49.32000 6.615
49.34000 9.101
49.36000 6.745
49.38000 8.976
49.40000 2.473
49.42000 0.897
49.44000 2.885
49.46000 3.069
49.48000 5.916
49.50000 5.060
49.52000 2.298
49.54000 1.731
49.56000 7.128
49.58000 7.834
49.60000 6.758
49.62000 4.402
49.64000 -1.152
49.66000 2.377
49.68000 3.806
49.70000 -2.847
49.72000 2.856
49.74000 4.880
49.76000 2.523
49.78000 3.234
49.80000 6.806
49.82000 5.668
49.84000 -0.401
49.86000 0.380
49.88000 1.044
49.90000 1.072
49.92000 -1.545
49.94000 -1.773
49.96000 0.801
49.98000 1.910
50.00000 1.269
50.02000 4.027
50.04000 4.599
50.06000 5.113
50.08000 4.954
50.10000 1.684
50.12000 4.905
50.14000 3.324
50.16000 4.328
50.18000 7.500
50.20000 4.304
50.22000 4.685
50.24000 2.557
50.26000 -0.437
50.28000 0.539
50.30000 4.636
50.32000 4.154
50.34000 7.750
50.36000 0.933
50.38000 2.334
50.40000 5.521
50.42000 1.267
50.44000 2.208
50.46000 0.828
50.48000 -0.545
50.50000 -1.821
50.52000 -2.698
50.54000 -0.314
50.56000 4.526
50.58000 8.039
50.60000 3.415
50.62000 -1.748
50.64000 -2.796
50.66000 0.880
50.68000 1.492
50.70000 3.995
50.72000 2.903
50.74000 1.583
50.76000 -0.400
50.78000 -1.789
50.80000 1.330
50.82000 0.492
50.84000 -1.981
50.86000 -2.777
50.88000 -2.366
50.90000 -0.877
50.92000 2.165
50.94000 5.349
50.96000 2.453
50.98000 1.918
51.00000 3.757
51.02000 0.641
51.04000 5.189
51.06000 8.180
51.08000 3.588
51.10000 0.943
51.12000 -2.753
51.14000 0.689
51.16000 8.256
51.18000 8.815
51.20000 9.321
51.22000 5.122
51.24000 0.195
51.26000 2.157
51.28000 -0.964
51.30000 3.480
51.32000 5.990
51.34000 -0.362
51.36000 0.665
51.38000 2.471
51.40000 3.622
51.42000 3.694
51.44000 2.493
51.46000 5.466
51.48000 1.988
51.50000 3.726
51.52000 1.309
51.54000 -2.703
51.56000 -1.555
51.58000 1.503
51.60000 -0.112
51.62000 -2.729
51.64000 3.899
51.66000 2.077
51.68000 2.732
51.70000 0.001
51.72000 3.459
51.74000 4.594
51.76000 5.896
51.78000 4.300
51.80000 3.341
51.82000 2.857
51.84000 0.591
51.86000 3.275
51.88000 1.672
51.90000 0.673
51.92000 -2.708
51.94000 1.935
51.96000 2.350
51.98000 4.964
52.00000 5.617
52.02000 9.229
52.04000 7.157
52.06000 7.099
52.08000 8.463
52.10000 5.039
52.12000 3.074
52.14000 1.172
52.16000 2.146
52.18000 3.195
52.20000 4.984
52.22000 3.238
52.24000 4.808
52.26000 5.212
52.28000 6.151
52.30000 9.669
52.32000 5.481
52.34000 0.877
52.36000 -2.689
52.38000 0.967
52.40000 4.668
52.42000 2.551
52.44000 3.262
52.46000 5.155
52.48000 -1.863
52.50000 1.878
52.52000 8.472
52.54000 4.246
52.56000 2.343
52.58000 1.343
52.60000 1.814
52.62000 2.155
52.64000 1.119
52.66000 3.568
52.68000 6.489
52.70000 7.920
52.72000 3.666
52.74000 1.646
52.76000 2.963
52.78000 0.370
52.80000 0.421
52.82000 5.708
52.84000 3.205
52.86000 4.267
52.88000 4.439
52.90000 4.650
52.92000 2.198
52.94000 3.265
52.96000 4.575
52.98000 4.220
53.00000 3.547
53.02000 2.504
53.04000 3.834
53.06000 5.222
53.08000 1.448
53.10000 1.590
53.12000 1.465
53.14000 2.690
53.16000 0.786
53.18000 -0.019
53.20000 1.096
53.22000 5.621
53.24000 5.388
53.26000 3.815
53.28000 3.597
53.30000 2.574
53.32000 -0.018
53.34000 -1.240
53.36000 -2.246
53.38000 -0.265
53.40000 5.962
53.42000 0.982
53.44000 -0.918
53.46000 -0.798
53.48000 -1.868
53.50000 0.538
53.52000 5.156
53.54000 4.229
53.56000 0.710
53.58000 4.264
53.60000 1.830
53.62000 -0.417
53.64000 -2.038
53.66000 5.075
53.68000 6.347
53.70000 1.645
53.72000 2.615
53.74000 4.035
53.76000 2.841
53.78000 2.346
53.80000 -0.389
53.82000 -1.761
53.84000 4.241
53.86000 1.737
53.88000 3.868
53.90000 2.886
53.92000 2.242
53.94000 0.163
53.96000 1.121
53.98000 -0.237
54.00000 -1.822
54.02000 -2.670
54.04000 -2.619
54.06000 -2.059
54.08000 0.985
54.10000 3.617
54.12000 4.264
54.14000 4.424
54.16000 0.445
54.18000 -1.910
54.20000 -0.436
54.22000 -1.696
54.24000 1.091
54.26000 3.417
54.28000 3.826
54.30000 1.778
54.32000 3.490
54.34000 4.706
54.36000 0.919
54.38000 -2.646
54.40000 -0.969
54.42000 2.693
54.44000 6.460
54.46000 5.380
54.48000 0.892
54.50000 4.676
54.52000 0.642
54.54000 2.991
54.56000 5.558
54.58000 6.215
54.60000 5.075
54.62000 4.377
54.64000 7.664
54.66000 3.724
54.68000 4.507
54.70000 5.002
54.72000 0.470
54.74000 0.028
54.76000 2.153
54.78000 1.667
54.80000 0.245
54.82000 1.862
54.84000 1.068
54.86000 0.037
54.88000 3.306
54.90000 1.738
54.92000 0.771
54.94000 2.137
54.96000 0.272
54.98000 2.409
55.00000 2.389
55.02000 4.008
55.04000 3.254
55.06000 6.363
55.08000 7.466
55.10000 5.602
55.12000 3.126
55.14000 3.852
55.16000 3.426
55.18000 5.199
55.20000 4.561
55.22000 2.899
55.24000 4.668
55.26000 0.278
55.28000 -1.892
55.30000 0.705
55.32000 -1.841
55.34000 3.173
55.36000 3.351
55.38000 2.165
55.40000 -1.049
55.42000 -0.193
55.44000 0.858
55.46000 -0.581
55.48000 -1.168
55.50000 4.304
55.52000 4.703
55.54000 1.584
55.56000 3.580
55.58000 4.181
55.60000 -0.894
55.62000 1.223
55.64000 -0.823
55.66000 -1.367
55.68000 0.425
55.70000 3.946
55.72000 3.474
55.74000 4.448
55.76000 6.564
55.78000 4.309
55.80000 3.144
55.82000 3.431
55.84000 5.760
55.86000 8.102
55.88000 3.556
55.90000 6.209
55.92000 3.954
55.94000 2.897
55.96000 3.478
55.98000 6.763
56.00000 8.712
56.02000 8.546
56.04000 7.631
56.06000 6.595
56.08000 2.553
56.10000 1.625
56.12000 3.788
56.14000 4.596
56.16000 2.745
56.18000 4.767
56.20000 1.958
56.22000 4.048
56.24000 -2.549
56.26000 1.579
56.28000 2.289
56.30000 4.690
56.32000 3.808
56.34000 1.393
56.36000 -1.849
56.38000 5.877
56.40000 6.852
56.42000 2.013
56.44000 5.684
56.46000 3.860
56.48000 4.114
56.50000 5.130
56.52000 5.822
56.54000 10.785
56.56000 3.447
56.58000 0.557
56.60000 1.032
56.62000 2.089
56.64000 0.663
56.66000 1.259
56.68000 2.427
56.70000 6.252
56.72000 6.427
56.74000 7.923
56.76000 5.535
56.78000 0.005
56.80000 0.323
56.82000 3.235
56.84000 2.022
56.86000 -0.760
56.88000 2.273
56.90000 1.506
56.92000 1.218
56.94000 3.653
56.96000 4.256
56.98000 4.003
57.00000 5.452
57.02000 5.104
57.04000 -1.659
57.06000 -0.089
57.08000 1.248
57.10000 3.086
57.12000 4.207
57.14000 0.095
57.16000 -0.956
57.18000 2.686
57.20000 -0.907
57.22000 1.943
57.24000 2.622
57.26000 3.980
57.28000 4.284
57.30000 4.165
57.32000 1.387
57.34000 -0.353
57.36000 -1.235
57.38000 -0.246
57.40000 3.023
57.42000 8.727
57.44000 3.701
57.46000 -1.096
57.48000 0.668
57.50000 -0.152
57.52000 -1.977
57.54000 0.355
57.56000 4.561
57.58000 3.406
57.60000 0.887
57.62000 -2.576
57.64000 2.809
57.66000 0.090
57.68000 -1.957
57.70000 2.017
57.72000 1.172
57.74000 1.876
57.76000 1.517
57.78000 1.622
57.80000 1.465
57.82000 2.254
57.84000 1.589
57.86000 0.866
57.88000 2.023
57.90000 0.447
57.92000 3.477
57.94000 -1.031
57.96000 -1.732
57.98000 1.584
58.00000 6.568
58.02000 -2.119
58.04000 -0.816
58.06000 0.385
58.08000 -0.148
58.10000 0.715
58.12000 1.733
58.14000 9.102
58.16000 7.172
58.18000 1.786
58.20000 3.080
58.22000 3.469
58.24000 2.013
58.26000 0.774
58.28000 -1.079
58.30000 -1.010
58.32000 -0.228
58.34000 -2.544
58.36000 1.431
58.38000 3.944
58.40000 2.395
58.42000 5.187
58.44000 -0.212
58.46000 -0.148
58.48000 4.460
58.50000 1.632
58.52000 0.208
58.54000 2.820
58.56000 2.798
58.58000 3.215
58.60000 1.546
58.62000 0.873
58.64000 -1.615
58.66000 -0.200
58.68000 3.174
58.70000 6.259
58.72000 -0.791
58.74000 0.061
58.76000 4.061
58.78000 4.578
58.80000 2.356
58.82000 4.827
58.84000 1.797
58.86000 -2.530
58.88000 -1.773
58.90000 -2.419
58.92000 3.602
58.94000 2.400
58.96000 1.912
58.98000 2.622
59.00000 3.451
59.02000 0.699
59.04000 -2.051
59.06000 -0.907
59.08000 0.580
59.10000 -0.185
59.12000 -2.498
59.14000 0.862
59.16000 5.364
59.18000 1.605
59.20000 0.994
59.22000 1.222
59.24000 -0.980
59.26000 0.756
59.28000 4.872
59.30000 3.415
59.32000 0.809
59.34000 0.402
59.36000 -1.105
59.38000 -2.073
59.40000 1.549
59.42000 0.984
59.44000 0.788
59.46000 -0.138
59.48000 0.076
59.50000 -0.021
59.52000 1.897
59.54000 0.621
59.56000 -0.392
59.58000 -1.987
59.60000 2.040
59.62000 6.061
59.64000 5.228
59.66000 3.007
59.68000 3.023
59.70000 0.591
59.72000 1.438
59.74000 4.236
59.76000 3.862
59.78000 2.356
59.80000 -1.983
59.82000 2.389
59.84000 2.570
59.86000 1.424
59.88000 -1.895
59.90000 -2.496
59.92000 -0.741
59.94000 -0.118
59.96000 0.699
59.98000 0.574
60.00000 2.323
60.02000 1.776
60.04000 2.005
60.06000 2.897
60.08000 2.457
60.10000 -0.950
60.12000 1.243
60.14000 6.070
60.16000 3.255
60.18000 2.177
60.20000 1.284
60.22000 6.974
60.24000 5.418
60.26000 3.122
60.28000 3.222
60.30000 1.132
60.32000 -0.786
60.34000 2.554
60.36000 3.735
60.38000 2.541
60.40000 2.349
60.42000 4.245
60.44000 5.498
60.46000 -1.184
60.48000 -2.468
60.50000 3.112
60.52000 2.246
60.54000 1.345
60.56000 4.019
60.58000 5.866
60.60000 5.037
60.62000 1.571
60.64000 2.219
60.66000 2.426
60.68000 5.027
60.70000 2.725
60.72000 2.242
60.74000 3.476
60.76000 4.597
60.78000 5.164
60.80000 0.248
60.82000 0.846
60.84000 0.901
60.86000 1.591
60.88000 -0.948
60.90000 -0.454
60.92000 -2.446
60.94000 2.754
60.96000 5.936
60.98000 4.463
61.00000 0.381
61.02000 1.702
61.04000 6.210
61.06000 7.366
61.08000 4.535
61.10000 2.865
61.12000 4.372
61.14000 8.396
61.16000 6.124
61.18000 -0.130
61.20000 0.844
61.22000 2.272
61.24000 5.018
61.26000 3.588
61.28000 1.702
61.30000 -2.428
61.32000 2.132
61.34000 9.126
61.36000 5.614
61.38000 3.817
61.40000 4.855
61.42000 2.231
61.44000 4.397
61.46000 2.957
61.48000 -0.641
61.50000 -1.510
61.52000 0.300
61.54000 1.953
61.56000 3.139
61.58000 2.418
61.60000 2.516
61.62000 2.494
61.64000 2.839
61.66000 2.391
61.68000 -0.976
61.70000 2.504
61.72000 5.151
61.74000 5.153
61.76000 3.487
61.78000 3.087
61.80000 1.301
61.82000 2.547
61.84000 1.877
61.86000 1.250
61.88000 5.289
61.90000 4.440
61.92000 2.097
61.94000 0.350
61.96000 3.751
61.98000 2.030
62.00000 5.381
62.02000 6.027
62.04000 5.179
62.06000 6.227
62.08000 5.180
62.10000 3.075
62.12000 2.094
62.14000 5.395
62.16000 2.286
62.18000 2.453
62.20000 2.382
62.22000 0.539
62.24000 3.459
62.26000 1.623
62.28000 1.643
62.30000 0.393
62.32000 -0.712
62.34000 0.474
62.36000 -0.231
62.38000 2.412
62.40000 2.097
62.42000 5.323
62.44000 4.313
62.46000 0.968
62.48000 -2.383
62.50000 -2.325
62.52000 4.278
62.54000 3.849
62.56000 1.568
62.58000 3.028
62.60000 6.011
62.62000 4.972
62.64000 4.683
62.66000 5.056
62.68000 2.223
62.70000 3.144
62.72000 1.727
62.74000 0.384
62.76000 0.043
62.78000 -1.140
62.80000 -2.218
62.82000 -0.613
62.84000 -0.326
62.86000 1.439
62.88000 1.688
62.90000 4.561
62.92000 3.835
62.94000 5.191
62.96000 2.672
62.98000 2.980
63.00000 0.190
63.02000 3.796
63.04000 2.601
63.06000 1.726
63.08000 4.858
63.10000 5.492
63.12000 2.775
63.14000 -0.816
63.16000 5.182
63.18000 1.680
63.20000 4.536
63.22000 3.963
63.24000 3.671
63.26000 3.022
63.28000 2.053
63.30000 0.641
63.32000 0.695
63.34000 3.322
63.36000 0.350
63.38000 -0.320
63.40000 4.305
63.42000 4.980
63.44000 -1.702
63.46000 0.120
63.48000 -0.275
63.50000 2.569
63.52000 3.391
63.54000 2.549
63.56000 -0.564
63.58000 -0.624
63.60000 1.510
63.62000 0.930
63.64000 0.412
63.66000 -0.117
63.68000 -0.113
63.70000 -1.572
63.72000 -0.644
63.74000 0.567
63.76000 1.015
63.78000 1.372
63.80000 5.485
63.82000 2.866
63.84000 0.466
63.86000 3.144
63.88000 4.197
63.90000 1.238
63.92000 0.226
63.94000 2.411
63.96000 3.579
63.98000 3.611
64.00000 0.529
64.02000 5.177
64.04000 4.166
64.06000 0.932
64.08000 -0.318
64.10000 2.958
64.12000 -2.435
64.14000 1.506
64.16000 4.565
64.18000 2.927
64.20000 4.706
64.22000 3.451
64.24000 2.651
64.26000 -0.383
64.28000 2.938
64.30000 2.311
64.32000 2.161
64.34000 1.465
64.36000 3.440
64.38000 1.939
64.40000 0.406
64.42000 -0.999
64.44000 -0.442
64.46000 2.240
64.48000 3.556
64.50000 1.095
64.52000 -1.190
64.54000 2.316
64.56000 3.046
64.58000 0.831
64.60000 0.273
64.62000 -0.677
64.64000 -0.399
64.66000 -1.938
64.68000 -0.243
64.70000 1.716
64.72000 1.802
64.74000 1.586
64.76000 -0.200
64.78000 -0.070
64.80000 0.681
64.82000 3.333
64.84000 2.173
64.86000 1.472
64.88000 -0.630
64.90000 -0.362
64.92000 1.788
64.94000 2.462
64.96000 0.128
64.98000 1.766
65.00000 1.586
65.02000 0.264
65.04000 1.257
65.06000 2.275
65.08000 3.324
65.10000 1.762
65.12000 3.991
65.14000 6.067
65.16000 3.788
65.18000 3.020
65.20000 3.999
65.22000 3.184
65.24000 3.129
65.26000 4.943
65.28000 2.210
65.30000 2.654
65.32000 -1.807
65.34000 -2.458
65.36000 -0.727
65.38000 -1.296
65.40000 0.882
65.42000 0.326
65.44000 1.347
65.46000 2.324
65.48000 1.704
65.50000 -0.630
65.52000 2.216
65.54000 1.103
65.56000 1.760
65.58000 1.555
65.60000 2.383
65.62000 4.894
65.64000 3.493
65.66000 -2.456
65.68000 -0.949
65.70000 3.119
65.72000 1.690
65.74000 3.102
65.76000 1.367
65.78000 1.556
65.80000 2.168
65.82000 3.494
65.84000 2.380
65.86000 2.200
65.88000 2.505
65.90000 4.062
65.92000 3.214
65.94000 0.866
65.96000 -2.461
65.98000 0.066
66.00000 3.025
66.02000 2.965
66.04000 3.862
66.06000 0.613
66.08000 -0.682
66.10000 2.053
66.12000 1.231
66.14000 1.812
66.16000 1.474
66.18000 -0.473
66.20000 2.772
66.22000 3.292
66.24000 3.195
66.26000 5.965
66.28000 3.680
66.30000 2.549
66.32000 2.553
66.34000 2.478
66.36000 -0.727
66.38000 0.738
66.40000 0.016
66.42000 0.257
66.44000 -0.876
66.46000 -0.744
66.48000 -1.204
66.50000 3.843
66.52000 1.400
66.54000 -0.471
66.56000 1.963
66.58000 -0.060
66.60000 4.277
66.62000 6.504
66.64000 3.005
66.66000 5.570
66.68000 -0.358
66.70000 3.513
66.72000 1.815
66.74000 3.209
66.76000 0.009
66.78000 2.544
66.80000 4.128
66.82000 5.155
66.84000 3.591
66.86000 4.891
66.88000 7.043
66.90000 5.692
66.92000 4.591
66.94000 5.904
66.96000 2.589
66.98000 5.332
67.00000 3.708
67.02000 4.887
67.04000 4.691
67.06000 4.629
67.08000 1.054
67.10000 1.721
67.12000 5.144
67.14000 4.815
67.16000 4.029
67.18000 5.386
67.20000 5.778
67.22000 3.351
67.24000 7.573
67.26000 9.690
67.28000 7.886
67.30000 6.785
67.32000 9.224
67.34000 7.359
67.36000 7.391
67.38000 6.679
67.40000 9.350
67.42000 5.904
67.44000 7.140
67.46000 8.928
67.48000 10.079
67.50000 10.068
67.52000 9.999
67.54000 10.093
67.56000 12.296
67.58000 13.610
67.60000 11.304
67.62000 12.692
67.64000 11.335
67.66000 14.030
67.68000 15.521
67.70000 14.458
67.72000 15.714
67.74000 13.184
67.76000 15.465
67.78000 17.395
67.80000 18.013
67.82000 17.617
67.84000 17.634
67.86000 21.653
67.88000 22.432
67.90000 21.804
67.92000 20.633
67.94000 21.369
67.96000 21.305
67.98000 20.788
68.00000 21.852
68.02000 23.420
68.04000 23.274
68.06000 20.621
68.08000 19.354
68.10000 19.602
68.12000 19.094
68.14000 21.661
68.16000 22.965
68.18000 23.130
68.20000 22.805
68.22000 23.225
68.24000 24.124
68.26000 26.541
68.28000 27.391
68.30000 26.335
68.32000 24.562
68.34000 28.126
68.36000 26.141
68.38000 26.329
68.40000 28.570
68.42000 23.593
68.44000 23.538
68.46000 24.440
68.48000 25.317
68.50000 26.660
68.52000 25.801
68.54000 26.037
68.56000 22.421
68.58000 21.813
68.60000 22.683
68.62000 21.365
68.64000 23.520
68.66000 23.620
68.68000 22.972
68.70000 22.853
68.72000 20.571
68.74000 22.943
68.76000 19.268
68.78000 14.741
68.80000 17.756
68.82000 18.112
68.84000 17.089
68.86000 16.630
68.88000 14.746
68.90000 12.376
68.92000 12.367
68.94000 12.444
68.96000 10.671
68.98000 9.240
69.00000 10.677
69.02000 12.600
69.04000 10.969
69.06000 11.183
69.08000 8.357
69.10000 9.714
69.12000 9.196
69.14000 6.890
69.16000 8.413
69.18000 5.507
69.20000 6.479
69.22000 6.975
69.24000 4.604
69.26000 6.572
69.28000 6.649
69.30000 7.115
69.32000 6.971
69.34000 4.528
69.36000 7.228
69.38000 5.598
69.40000 1.443
69.42000 6.092
69.44000 9.221
69.46000 3.275
69.48000 2.979
69.50000 2.753
69.52000 4.887
69.54000 5.481
69.56000 3.737
69.58000 0.641
69.60000 1.191
69.62000 3.443
69.64000 4.380
69.66000 3.125
69.68000 2.524
69.70000 1.781
69.72000 0.018
69.74000 2.553
69.76000 1.869
69.78000 2.817
69.80000 2.251
69.82000 5.420
69.84000 4.638
69.86000 3.421
69.88000 4.067
69.90000 5.095
69.92000 4.120
69.94000 4.143
69.96000 3.981
69.98000 2.692
70.00000 1.681
70.02000 5.348
70.04000 2.120
70.06000 -0.918
70.08000 -2.393
70.10000 4.174
70.12000 4.106
70.14000 2.761
70.16000 0.318
70.18000 3.559
70.20000 -0.056
70.22000 -1.904
70.24000 3.032
70.26000 1.413
70.28000 3.966
70.30000 1.496
70.32000 0.992
70.34000 1.734
70.36000 1.073
70.38000 1.859
70.40000 5.303
70.42000 8.950
70.44000 4.017
70.46000 1.956
70.48000 1.139
70.50000 5.932
70.52000 0.981
70.54000 1.799
70.56000 -0.373
70.58000 -1.396
70.60000 0.852
70.62000 -0.407
70.64000 1.715
70.66000 5.032
70.68000 5.887
70.70000 2.996
70.72000 -0.109
70.74000 -0.988
70.76000 1.924
70.78000 2.947
70.80000 2.422
70.82000 0.225
70.84000 5.047
70.86000 4.496
70.88000 -1.923
70.90000 1.028
70.92000 3.770
70.94000 3.053
70.96000 1.855
70.98000 0.711
71.00000 2.487
71.02000 2.472
71.04000 -0.584
71.06000 2.380
71.08000 6.039
71.10000 5.086
71.12000 0.990
71.14000 3.168
71.16000 0.620
71.18000 3.567
71.20000 2.007
71.22000 0.372
71.24000 -2.326
71.26000 0.633
71.28000 0.846
71.30000 3.509
71.32000 1.794
71.34000 2.517
71.36000 0.753
71.38000 4.272
71.40000 5.267
71.42000 4.489
71.44000 5.193
71.46000 3.798
71.48000 4.243
71.50000 3.521
71.52000 4.211
71.54000 6.503
71.56000 5.287
71.58000 0.128
71.60000 0.262
71.62000 5.913
71.64000 1.580
71.66000 -1.615
71.68000 -1.998
71.70000 3.311
71.72000 2.539
71.74000 5.566
71.76000 1.789
71.78000 4.244
71.80000 7.114
71.82000 3.146
71.84000 2.731
71.86000 0.308
71.88000 -2.270
71.90000 -0.322
71.92000 5.776
71.94000 1.850
71.96000 3.148
71.98000 4.180
72.00000 7.315
72.02000 3.881
72.04000 -2.318
72.06000 1.736
72.08000 5.050
72.10000 1.459
72.12000 1.529
72.14000 3.791
72.16000 2.838
72.18000 -0.197
72.20000 -2.302
72.22000 -1.493
72.24000 -0.065
72.26000 3.749
72.28000 5.142
72.30000 4.746
72.32000 -0.901
72.34000 -1.244
72.36000 -0.898
72.38000 2.039
72.40000 6.249
72.42000 3.403
72.44000 -0.948
72.46000 0.838
72.48000 2.497
72.50000 5.207
72.52000 1.067
72.54000 -0.776
72.56000 2.148
72.58000 2.702
72.60000 3.503
72.62000 0.674
72.64000 1.124
72.66000 0.933
72.68000 0.918
72.70000 1.644
72.72000 0.478
72.74000 -0.229
72.76000 3.490
72.78000 -0.461
72.80000 -0.227
72.82000 -1.395
72.84000 -1.114
72.86000 -1.838
72.88000 0.362
72.90000 3.115
72.92000 4.274
72.94000 1.845
72.96000 4.133
72.98000 1.792
73.00000 2.356
73.02000 1.037
73.04000 3.972
73.06000 7.327
73.08000 5.721
73.10000 3.613
73.12000 2.268
73.14000 2.417
73.16000 2.102
73.18000 -1.443
73.20000 -0.714
73.22000 3.871
73.24000 1.255
73.26000 -0.789
73.28000 0.361
73.30000 0.051
73.32000 -0.935
73.34000 -2.278
73.36000 -0.869
73.38000 -2.258
73.40000 -0.394
73.42000 1.959
73.44000 1.858
73.46000 -0.165
73.48000 -1.742
73.50000 2.514
73.52000 2.687
73.54000 1.970
73.56000 3.619
73.58000 4.166
73.60000 6.634
73.62000 5.536
73.64000 0.520
73.66000 1.252
73.68000 1.589
73.70000 2.426
73.72000 2.799
73.74000 8.019
73.76000 3.762
73.78000 1.319
73.80000 2.306
73.82000 2.212
73.84000 0.786
73.86000 -2.139
73.88000 2.528
73.90000 3.397
73.92000 2.667
73.94000 -1.825
73.96000 -0.997
73.98000 2.031
74.00000 2.329
74.02000 0.638
74.04000 0.548
74.06000 3.161
74.08000 5.727
74.10000 4.857
74.12000 5.683
74.14000 2.543
74.16000 1.415
74.18000 -2.222
74.20000 0.094
74.22000 -0.239
74.24000 2.171
74.26000 3.153
74.28000 1.916
74.30000 4.148
74.32000 5.373
74.34000 3.042
74.36000 4.191
74.38000 5.836
74.40000 5.444
74.42000 5.736
74.44000 2.500
74.46000 -1.720
74.48000 1.874
74.50000 2.787
74.52000 4.434
74.54000 1.632
74.56000 6.198
74.58000 3.305
74.60000 3.079
74.62000 0.418
74.64000 3.211
74.66000 6.792
74.68000 3.817
74.70000 4.512
74.72000 2.684
74.74000 3.165
74.76000 -1.686
74.78000 -2.099
74.80000 2.754
74.82000 3.756
74.84000 2.358
74.86000 1.862
74.88000 1.096
74.90000 2.190
74.92000 -0.106
74.94000 2.295
74.96000 1.780
74.98000 0.249
75.00000 2.918
75.02000 6.406
75.04000 6.363
75.06000 1.896
75.08000 1.701
75.10000 2.447
75.12000 -0.298
75.14000 0.131
75.16000 2.916
75.18000 -0.109
75.20000 2.561
75.22000 6.557
75.24000 4.797
75.26000 -1.216
75.28000 -0.409
75.30000 -2.254
75.32000 -1.919
75.34000 4.484
75.36000 5.770
75.38000 9.192
75.40000 2.738
75.42000 -1.186
75.44000 2.214
75.46000 0.807
75.48000 -0.665
75.50000 -1.807
75.52000 1.480
75.54000 -0.773
75.56000 1.845
75.58000 3.317
75.60000 2.667
75.62000 3.378
75.64000 -0.952
75.66000 3.006
75.68000 2.710
75.70000 0.907
75.72000 1.561
75.74000 -2.281
75.76000 3.614
75.78000 2.379
75.80000 3.824
75.82000 3.234
75.84000 4.174
75.86000 6.809
75.88000 0.893
75.90000 1.909
75.92000 3.450
75.94000 2.576
75.96000 2.847
75.98000 1.610
76.00000 -1.518
76.02000 0.330
76.04000 2.037
76.06000 5.636
76.08000 3.707
76.10000 4.700
76.12000 4.120
76.14000 5.428
76.16000 3.677
76.18000 1.674
76.20000 -0.660
76.22000 1.243
76.24000 0.083
76.26000 2.728
76.28000 0.507
76.30000 4.727
76.32000 5.535
76.34000 1.888
76.36000 2.580
76.38000 2.606
76.40000 2.813
76.42000 2.652
76.44000 1.176
76.46000 -0.447
76.48000 2.804
76.50000 2.858
76.52000 1.921
76.54000 0.063
76.56000 0.666
76.58000 1.950
76.60000 1.045
76.62000 0.005
76.64000 0.380
76.66000 1.479
76.68000 -0.555
76.70000 2.717
76.72000 4.783
76.74000 -0.426
76.76000 -1.748
76.78000 0.856
76.80000 3.777
76.82000 1.866
76.84000 2.986
76.86000 5.478
76.88000 2.950
76.90000 -0.450
76.92000 2.636
76.94000 1.387
76.96000 2.541
76.98000 3.460
77.00000 -0.972
77.02000 1.174
77.04000 2.100
77.06000 1.414
77.08000 -2.283
77.10000 1.089
77.12000 2.067
77.14000 4.388
77.16000 4.663
77.18000 4.142
77.20000 4.143
77.22000 1.575
77.24000 0.603
77.26000 3.497
77.28000 3.023
77.30000 3.598
77.32000 3.269
77.34000 2.970
77.36000 6.431
77.38000 5.695
77.40000 3.949
77.42000 4.550
77.44000 2.391
77.46000 1.482
77.48000 2.502
77.50000 1.652
77.52000 -1.277
77.54000 -1.047
77.56000 3.805
77.58000 5.051
77.60000 10.514
77.62000 4.093
77.64000 -1.161
77.66000 -2.271
77.68000 2.161
77.70000 5.098
77.72000 8.631
77.74000 5.300
77.76000 0.476
77.78000 0.376
77.80000 -1.335
77.82000 4.699
77.84000 5.110
77.86000 3.017
77.88000 4.861
77.90000 3.141
77.92000 2.202
77.94000 -0.627
77.96000 3.393
77.98000 3.978
78.00000 7.011
78.02000 6.699
78.04000 3.746
78.06000 3.224
78.08000 0.849
78.10000 0.374
78.12000 2.767
78.14000 7.505
78.16000 4.978
78.18000 1.815
78.20000 1.432
78.22000 3.516
78.24000 4.901
78.26000 0.457
78.28000 0.017
78.30000 1.748
78.32000 2.809
78.34000 0.529
78.36000 2.015
78.38000 1.663
78.40000 2.614
78.42000 -0.311
78.44000 2.383
78.46000 3.261
78.48000 1.668
78.50000 0.598
78.52000 -2.334
78.54000 -1.878
78.56000 0.751
78.58000 3.637
78.60000 2.668
78.62000 0.515
78.64000 -0.206
78.66000 2.637
78.68000 2.538
78.70000 2.577
78.72000 2.126
78.74000 5.193
78.76000 6.462
78.78000 1.321
78.80000 1.002
78.82000 3.132
78.84000 2.984
78.86000 1.764
78.88000 3.167
78.90000 4.976
78.92000 4.421
78.94000 2.006
78.96000 -0.439
78.98000 4.480
79.00000 1.650
79.02000 0.436
79.04000 1.211
79.06000 0.368
79.08000 1.490
79.10000 -0.758
79.12000 -0.418
79.14000 1.279
79.16000 4.317
79.18000 3.356
79.20000 0.709
79.22000 0.363
79.24000 0.362
79.26000 2.882
79.28000 3.504
79.30000 3.355
79.32000 2.428
79.34000 -1.818
79.36000 3.513
79.38000 1.187
79.40000 -0.929
79.42000 4.236
79.44000 2.572
79.46000 2.433
79.48000 3.149
79.50000 6.728
79.52000 2.907
79.54000 3.185
79.56000 0.457
79.58000 -0.208
79.60000 -2.358
79.62000 -1.062
79.64000 2.123
79.66000 2.710
79.68000 1.743
79.70000 5.645
79.72000 4.981
79.74000 3.492
79.76000 1.978
79.78000 0.122
79.80000 -2.372
79.82000 -0.320
79.84000 -0.420
79.86000 -1.492
79.88000 0.590
79.90000 3.704
79.92000 -0.310
79.94000 3.657
79.96000 3.505
79.98000 -0.008
80.00000 -0.939
80.02000 -0.395
80.04000 1.628
80.06000 1.210
80.08000 5.364
80.10000 6.370
80.12000 -0.084
80.14000 2.913
80.16000 6.207
80.18000 4.898
80.20000 2.934
80.22000 5.702
80.24000 1.577
80.26000 1.539
80.28000 -0.095
80.30000 4.122
80.32000 5.543
80.34000 4.082
80.36000 5.809
80.38000 3.178
80.40000 0.075
80.42000 0.740
80.44000 0.697
80.46000 3.748
80.48000 1.047
80.50000 4.181
80.52000 3.779
80.54000 4.401
80.56000 5.357
80.58000 6.490
80.60000 4.208
80.62000 4.632
80.64000 2.610
80.66000 2.391
80.68000 5.736
80.70000 8.260
80.72000 7.992
80.74000 5.632
80.76000 -0.777
80.78000 -1.678
80.80000 1.330
80.82000 3.950
80.84000 5.518
80.86000 2.654
80.88000 -0.279
80.90000 7.236
80.92000 10.399
80.94000 6.913
80.96000 0.868
80.98000 5.257
81.00000 5.909
81.02000 -0.862
81.04000 7.668
81.06000 10.013
81.08000 7.201
81.10000 3.376
81.12000 4.564
81.14000 7.872
81.16000 11.613
81.18000 12.624
81.20000 10.664
81.22000 4.471
81.24000 4.077
81.26000 9.291
81.28000 8.930
81.30000 7.241
81.32000 7.035
81.34000 7.166
81.36000 7.296
81.38000 8.752
81.40000 13.772
81.42000 16.433
81.44000 13.979
81.46000 12.267
81.48000 12.602
81.50000 18.445
81.52000 16.139
81.54000 16.072
81.56000 15.605
81.58000 14.461
81.60000 17.284
81.62000 17.360
81.64000 11.900
81.66000 10.813
81.68000 13.599
81.70000 17.717
81.72000 17.909
81.74000 13.229
81.76000 15.493
81.78000 11.563
81.80000 17.675
81.82000 22.572
81.84000 26.276
81.86000 24.883
81.88000 28.199
81.90000 30.153
81.92000 27.866
81.94000 24.516
81.96000 24.180
81.98000 24.621
82.00000 24.558
82.02000 23.583
82.04000 24.293
82.06000 19.969
82.08000 23.646
82.10000 25.847
82.12000 25.360
82.14000 20.443
82.16000 15.770
82.18000 24.678
82.20000 29.315
82.22000 30.255
82.24000 30.038
82.26000 30.592
82.28000 31.785
82.30000 33.423
82.32000 29.300
82.34000 30.951
82.36000 28.149
82.38000 28.615
82.40000 28.002
82.42000 29.846
82.44000 27.543
82.46000 33.713
82.48000 30.380
82.50000 28.950
82.52000 31.089
82.54000 31.070
82.56000 28.753
82.58000 27.152
82.60000 30.239
82.62000 28.466
82.64000 29.129
82.66000 33.274
82.68000 38.305
82.70000 31.372
82.72000 27.147
82.74000 29.937
82.76000 31.522
82.78000 25.468
82.80000 27.316
82.82000 29.767
82.84000 27.374
82.86000 27.311
82.88000 25.690
82.90000 30.505
82.92000 25.404
82.94000 25.287
82.96000 26.495
82.98000 25.573
83.00000 27.930
83.02000 23.989
83.04000 23.807
83.06000 22.643
83.08000 25.347
83.10000 22.880
83.12000 18.654
83.14000 20.865
83.16000 21.932
83.18000 20.339
83.20000 20.736
83.22000 24.758
83.24000 24.644
83.26000 20.313
83.28000 14.320
83.30000 17.604
83.32000 19.236
83.34000 20.477
83.36000 17.243
83.38000 15.971
83.40000 17.074
83.42000 12.431
83.44000 11.628
83.46000 15.458
83.48000 16.454
83.50000 18.392
83.52000 17.949
83.54000 16.089
83.56000 14.027
83.58000 9.615
83.60000 8.780
83.62000 8.878
83.64000 9.716
83.66000 11.373
83.68000 14.330
83.70000 14.793
83.72000 13.058
83.74000 12.596
83.76000 9.926
83.78000 7.945
83.80000 10.877
83.82000 7.398
83.84000 6.182
83.86000 5.589
83.88000 9.463
83.90000 7.922
83.92000 7.256
83.94000 2.962
83.96000 8.180
83.98000 10.637
84.00000 7.552
84.02000 6.699
84.04000 6.593
84.06000 8.284
84.08000 6.658
84.10000 5.055
84.12000 2.561
84.14000 -2.339
84.16000 3.468
84.18000 7.618
84.20000 11.715
84.22000 8.754
84.24000 6.771
84.26000 4.758
84.28000 1.867
84.30000 3.896
84.32000 2.939
84.34000 5.009
84.36000 6.187
84.38000 4.880
84.40000 3.829
84.42000 7.720
84.44000 2.265
84.46000 1.253
84.48000 4.631
84.50000 5.499
84.52000 2.911
84.54000 4.090
84.56000 2.513
84.58000 6.890
84.60000 5.504
84.62000 -0.252
84.64000 1.014
84.66000 1.466
84.68000 4.255
84.70000 4.145
84.72000 0.649
84.74000 8.133
84.76000 4.542
84.78000 1.797
84.80000 3.217
84.82000 6.855
84.84000 2.148
84.86000 -0.610
84.88000 -0.498
84.90000 0.471
84.92000 0.529
84.94000 -0.187
84.96000 -2.370
84.98000 -0.205
85.00000 -2.151
85.02000 0.093
85.04000 -0.543
85.06000 0.927
85.08000 0.196
85.10000 0.965
85.12000 1.131
85.14000 6.506
85.16000 2.630
85.18000 1.440
85.20000 3.557
85.22000 0.230
85.24000 1.285
85.26000 2.123
85.28000 3.070
85.30000 4.317
85.32000 0.199
85.34000 2.857
85.36000 3.231
85.38000 3.559
85.40000 5.157
85.42000 5.344
85.44000 3.125
85.46000 0.211
85.48000 0.262
85.50000 3.011
85.52000 2.570
85.54000 2.261
85.56000 1.466
85.58000 1.946
85.60000 2.202
85.62000 -0.128
85.64000 0.429
85.66000 2.375
85.68000 5.903
85.70000 4.439
85.72000 3.979
85.74000 5.210
85.76000 1.942
85.78000 0.981
85.80000 5.878
85.82000 0.448
85.84000 1.879
85.86000 1.949
85.88000 1.362
85.90000 3.689
85.92000 3.866
85.94000 0.623
85.96000 4.480
85.98000 5.007
86.00000 3.336
86.02000 8.035
86.04000 10.168
86.06000 6.797
86.08000 6.263
86.10000 8.336
86.12000 6.315
86.14000 8.420
86.16000 12.380
86.18000 15.882
86.20000 14.269
86.22000 9.355
86.24000 11.048
86.26000 14.404
86.28000 11.537
86.30000 13.431
86.32000 13.242
86.34000 17.113
86.36000 13.837
86.38000 15.211
86.40000 14.794
86.42000 18.812
86.44000 20.418
86.46000 18.731
86.48000 16.383
86.50000 18.036
86.52000 16.170
86.54000 13.530
86.56000 14.327
86.58000 14.860
86.60000 19.816
86.62000 21.984
86.64000 22.388
86.66000 22.194
86.68000 15.136
86.70000 15.596
86.72000 17.514
86.74000 18.418
86.76000 21.977
86.78000 18.730
86.80000 18.977
86.82000 17.297
86.84000 17.882
86.86000 18.797
86.88000 21.969
86.90000 23.635
86.92000 21.266
86.94000 18.468
86.96000 14.281
86.98000 14.799
87.00000 16.452
87.02000 19.189
87.04000 13.035
87.06000 15.600
87.08000 15.156
87.10000 11.720
87.12000 15.552
87.14000 19.727
87.16000 13.687
87.18000 10.358
87.20000 12.115
87.22000 15.295
87.24000 18.816
87.26000 14.524
87.28000 11.122
87.30000 12.784
87.32000 14.168
87.34000 7.731
87.36000 9.574
87.38000 7.938
87.40000 11.710
87.42000 12.873
87.44000 10.613
87.46000 11.799
87.48000 10.392
87.50000 10.277
87.52000 12.215
87.54000 10.243
87.56000 8.109
87.58000 6.702
87.60000 3.855
87.62000 6.193
87.64000 5.571
87.66000 2.771
87.68000 2.918
87.70000 7.214
87.72000 10.143
87.74000 5.955
87.76000 7.809
87.78000 6.768
87.80000 7.295
87.82000 4.395
87.84000 5.473
87.86000 3.125
87.88000 3.559
87.90000 5.084
87.92000 6.022
87.94000 10.410
87.96000 6.459
87.98000 3.219
88.00000 5.723
88.02000 3.016
88.04000 6.750
88.06000 7.702
88.08000 9.472
88.10000 9.771
88.12000 2.659
88.14000 3.297
88.16000 0.681
88.18000 -2.216
88.20000 2.579
88.22000 1.383
88.24000 0.585
88.26000 -0.250
88.28000 1.804
88.30000 3.631
88.32000 6.740
88.34000 6.211
88.36000 4.850
88.38000 4.167
88.40000 1.330
88.42000 -1.182
88.44000 0.141
88.46000 1.230
88.48000 2.137
88.50000 2.528
88.52000 0.138
88.54000 0.498
88.56000 3.032
88.58000 4.651
88.60000 5.243
88.62000 8.414
88.64000 6.610
88.66000 5.081
88.68000 8.156
88.70000 5.156
88.72000 4.860
88.74000 7.102
88.76000 4.901
88.78000 2.569
88.80000 -2.144
88.82000 -1.028
88.84000 -0.163
88.86000 1.743
88.88000 3.807
88.90000 2.752
88.92000 1.287
88.94000 5.040
88.96000 6.937
88.98000 6.791
89.00000 3.598
89.02000 2.709
89.04000 2.654
89.06000 5.883
89.08000 5.982
89.10000 5.336
89.12000 3.352
89.14000 3.559
89.16000 5.297
89.18000 2.082
89.20000 -2.158
89.22000 0.887
89.24000 1.085
89.26000 2.595
89.28000 1.050
89.30000 -0.289
89.32000 0.401
89.34000 3.740
89.36000 5.828
89.38000 0.306
89.40000 1.917
89.42000 3.283
89.44000 1.950
89.46000 2.650
89.48000 2.491
89.50000 1.791
89.52000 2.016
89.54000 0.470
89.56000 3.815
89.58000 3.329
89.60000 3.438
89.62000 1.444
89.64000 2.392
89.66000 0.650
89.68000 -1.495
89.70000 -1.864
89.72000 1.853
89.74000 0.083
89.76000 4.836
89.78000 2.564
89.80000 4.041
89.82000 4.784
89.84000 2.449
89.86000 3.428
89.88000 1.846
89.90000 2.308
89.92000 5.473
89.94000 5.491
89.96000 4.929
89.98000 2.492
90.00000 1.739
90.02000 3.975
90.04000 4.584
90.06000 5.410
90.08000 6.350
90.10000 2.069
90.12000 -2.140
90.14000 1.049
90.16000 -0.133
90.18000 -0.998
90.20000 -1.389
90.22000 -1.742
90.24000 -2.133
90.26000 2.196
90.28000 3.159
90.30000 3.978
90.32000 6.484
90.34000 6.948
90.36000 3.122
90.38000 5.858
90.40000 8.497
90.42000 1.990
90.44000 1.566
90.46000 -0.058
90.48000 0.197
90.50000 1.791
90.52000 4.050
90.54000 6.895
90.56000 4.469
90.58000 -0.535
90.60000 3.116
90.62000 4.256
90.64000 4.126
90.66000 6.602
90.68000 2.347
90.70000 1.027
90.72000 1.652
90.74000 4.708
90.76000 7.653
90.78000 4.984
90.80000 7.347
90.82000 0.253
90.84000 0.187
90.86000 -0.311
90.88000 0.339
90.90000 3.993
90.92000 5.758
90.94000 4.853
90.96000 0.436
90.98000 0.789
91.00000 5.600
91.02000 4.839
91.04000 7.788
91.06000 6.534
91.08000 6.444
91.10000 6.462
91.12000 -2.177
91.14000 4.267
91.16000 4.454
91.18000 1.890
91.20000 3.201
91.22000 2.408
91.24000 4.802
91.26000 7.093
91.28000 0.463
91.30000 -1.037
91.32000 0.354
91.34000 4.735
91.36000 1.748
91.38000 0.073
91.40000 0.937
91.42000 3.149
91.44000 3.398
91.46000 0.521
91.48000 0.646
91.50000 0.345
91.52000 1.441
91.54000 1.621
91.56000 2.297
91.58000 3.586
91.60000 2.054
91.62000 0.031
91.64000 1.719
91.66000 -1.168
91.68000 5.273
91.70000 7.975
91.72000 5.364
91.74000 0.374
91.76000 2.074
91.78000 4.054
91.80000 2.015
91.82000 1.170
91.84000 2.756
91.86000 3.726
91.88000 1.949
91.90000 2.452
91.92000 -1.012
91.94000 -1.537
91.96000 -2.087
91.98000 -0.490
92.00000 -0.857
92.02000 -1.990
92.04000 1.627
92.06000 1.810
92.08000 2.108
92.10000 -0.443
92.12000 1.757
92.14000 0.165
92.16000 -1.497
92.18000 1.145
92.20000 0.592
92.22000 6.144
92.24000 -0.256
92.26000 -0.140
92.28000 -0.381
92.30000 2.577
92.32000 3.256
92.34000 4.839
92.36000 5.540
92.38000 1.901
92.40000 1.463
92.42000 -1.122
92.44000 1.985
92.46000 0.998
92.48000 1.766
92.50000 3.047
92.52000 0.593
92.54000 1.893
92.56000 3.188
92.58000 5.978
92.60000 3.856
92.62000 -0.459
92.64000 0.105
92.66000 -1.033
92.68000 2.235
92.70000 3.211
92.72000 5.058
92.74000 2.577
92.76000 -1.515
92.78000 -1.239
92.80000 -1.738
92.82000 -2.156
92.84000 0.233
92.86000 3.672
92.88000 4.228
92.90000 4.263
92.92000 4.445
92.94000 3.298
92.96000 3.007
92.98000 4.045
93.00000 2.519
93.02000 2.877
93.04000 1.774
93.06000 -0.324
93.08000 -0.755
93.10000 0.228
93.12000 3.312
93.14000 0.558
93.16000 -0.895
93.18000 2.390
93.20000 3.743
93.22000 0.942
93.24000 1.759
93.26000 7.168
93.28000 7.923
93.30000 3.075
93.32000 -0.419
93.34000 0.730
93.36000 5.682
93.38000 6.954
93.40000 2.395
93.42000 0.242
93.44000 1.295
93.46000 -0.822
93.48000 1.394
93.50000 4.346
93.52000 4.416
93.54000 -0.262
93.56000 1.469
93.58000 2.309
93.60000 -1.029
93.62000 3.598
93.64000 1.992
93.66000 -2.152
93.68000 -2.023
93.70000 0.252
93.72000 1.235
93.74000 3.254
93.76000 0.209
93.78000 3.342
93.80000 0.977
93.82000 4.237
93.84000 4.785
93.86000 4.357
93.88000 6.048
93.90000 3.991
93.92000 3.203
93.94000 3.161
93.96000 0.844
93.98000 -0.105
94.00000 3.312
94.02000 3.389
94.04000 2.969
94.06000 6.041
94.08000 7.125
94.10000 4.163
94.12000 1.117
94.14000 6.518
94.16000 5.022
94.18000 4.203
94.20000 3.904
94.22000 4.209
94.24000 4.817
94.26000 2.707
94.28000 -2.128
94.30000 -0.262
94.32000 2.756
94.34000 10.946
94.36000 10.843
94.38000 8.120
94.40000 7.664
94.42000 6.212
94.44000 3.389
94.46000 6.076
94.48000 5.602
94.50000 6.952
94.52000 5.806
94.54000 2.381
94.56000 1.552
94.58000 4.681
94.60000 4.666
94.62000 0.100
94.64000 1.367
94.66000 5.205
94.68000 4.189
94.70000 3.031
94.72000 2.900
94.74000 2.521
94.76000 0.798
94.78000 6.751
94.80000 9.203
94.82000 3.729
94.84000 3.061
94.86000 5.820
94.88000 5.876
94.90000 2.061
94.92000 3.245
94.94000 3.893
94.96000 4.708
94.98000 5.493
95.00000 5.972
95.02000 3.124
95.04000 4.644
95.06000 5.447
95.08000 0.576
95.10000 2.966
95.12000 1.074
95.14000 5.361
95.16000 3.631
95.18000 6.679
95.20000 7.260
95.22000 2.270
95.24000 4.735
95.26000 6.348
95.28000 5.986
95.30000 3.142
95.32000 1.749
95.34000 1.987
95.36000 0.702
95.38000 2.354
95.40000 4.261
95.42000 3.237
95.44000 -0.297
95.46000 3.811
95.48000 2.336
95.50000 -0.930
95.52000 3.431
95.54000 4.858
95.56000 -2.161
95.58000 -2.077
95.60000 0.612
95.62000 0.491
95.64000 0.877
95.66000 0.453
95.68000 7.500
95.70000 5.465
95.72000 3.002
95.74000 6.655
95.76000 6.758
95.78000 6.049
95.80000 3.552
95.82000 4.419
95.84000 4.345
95.86000 3.747
95.88000 0.131
95.90000 -0.386
95.92000 0.088
95.94000 -2.149
95.96000 4.071
95.98000 7.218
96.00000 5.963
96.02000 5.449
96.04000 9.192
96.06000 4.715
96.08000 7.519
96.10000 5.236
96.12000 -1.074
96.14000 1.304
96.16000 9.223
96.18000 7.767
96.20000 4.938
96.22000 4.801
96.24000 4.654
96.26000 0.831
96.28000 -0.671
96.30000 -0.749
96.32000 -2.153
96.34000 -0.753
96.36000 -1.216
96.38000 3.104
96.40000 3.755
96.42000 7.015
96.44000 4.324
96.46000 0.299
96.48000 3.390
96.50000 7.058
96.52000 8.276
96.54000 3.138
96.56000 4.638
96.58000 5.690
96.60000 4.393
96.62000 6.733
96.64000 -0.910
96.66000 -0.990
96.68000 2.412
96.70000 -1.270
96.72000 -0.739
96.74000 -0.032
96.76000 2.104
96.78000 2.868
96.80000 4.334
96.82000 2.914
96.84000 6.602
96.86000 10.284
96.88000 6.693
96.90000 5.448
96.92000 10.488
96.94000 7.663
96.96000 1.666
96.98000 3.282
97.00000 11.135
97.02000 2.241
97.04000 0.206
97.06000 1.674
97.08000 3.459
97.10000 4.991
97.12000 3.531
97.14000 -1.294
97.16000 -1.977
97.18000 0.732
97.20000 2.101
97.22000 8.509
97.24000 7.198
97.26000 2.716
97.28000 0.892
97.30000 1.955
97.32000 -0.135
97.34000 -0.425
97.36000 -2.141
97.38000 7.136
97.40000 3.140
97.42000 4.618
97.44000 11.337
97.46000 8.664
97.48000 8.768
97.50000 6.672
97.52000 6.049
97.54000 3.018
97.56000 -1.033
97.58000 1.291
97.60000 0.349
97.62000 0.155
97.64000 8.153
97.66000 0.800
97.68000 1.953
97.70000 6.308
97.72000 8.062
97.74000 1.933
97.76000 -0.303
97.78000 2.499
97.80000 2.254
97.82000 3.046
97.84000 6.491
97.86000 7.475
97.88000 7.277
97.90000 3.954
97.92000 5.252
97.94000 6.191
97.96000 9.109
97.98000 8.726
98.00000 13.458
98.02000 4.855
98.04000 0.852
98.06000 -1.554
98.08000 0.185
98.10000 2.987
98.12000 3.054
98.14000 7.883
98.16000 13.154
98.18000 2.953
98.20000 3.742
98.22000 -2.068
98.24000 2.591
98.26000 6.945
98.28000 9.745
98.30000 5.783
98.32000 7.933
98.34000 11.617
98.36000 12.738
98.38000 11.048
98.40000 3.195
98.42000 3.929
98.44000 8.273
98.46000 3.621
98.48000 7.831
98.50000 9.866
98.52000 1.255
98.54000 4.133
98.56000 3.761
98.58000 2.408
98.60000 0.164
98.62000 4.454
98.64000 10.090
98.66000 12.200
98.68000 1.586
98.70000 9.114
98.72000 8.085
98.74000 3.529
98.76000 3.160
98.78000 8.718
98.80000 3.974
98.82000 6.500
98.84000 9.149
98.86000 6.585
98.88000 0.867
98.90000 4.072
98.92000 -1.389
98.94000 1.439
98.96000 1.270
98.98000 7.923
99.00000 6.649
99.02000 1.994
99.04000 0.165
99.06000 8.263
99.08000 3.604
99.10000 0.073
99.12000 0.327
99.14000 11.101
99.16000 14.476
99.18000 7.824
99.20000 8.882
99.22000 -1.080
99.24000 8.279
99.26000 7.303
99.28000 -1.194
99.30000 8.104
99.32000 11.615
99.34000 8.754
99.36000 6.204
99.38000 4.289
99.40000 -1.881
99.42000 2.588
99.44000 4.042
99.46000 10.035
99.48000 13.022
99.50000 6.740
99.52000 -2.096
99.54000 1.653
99.56000 6.205
99.58000 9.459
99.60000 5.437
99.62000 -2.579
99.64000 5.152
99.66000 5.609
99.68000 7.037
99.70000 5.422
99.72000 8.977
99.74000 16.316
99.76000 7.981
99.78000 2.180
99.80000 -2.155
99.82000 -0.027
99.84000 5.942
99.86000 6.229
99.88000 -1.006
99.90000 -1.488
99.92000 3.979
99.94000 -0.988
99.96000 -2.348
99.98000 0.000
