'Id: "0011387" Comment: "Integrate frame 0011387_Au-Ir-Rh_Rh-rich_XRD-Mapping-334-0000.gfrmwith cursor Wedge Cursor #5" Operator: "B?rgel" Anode: "Cu" Wavelength: "1.5406" Scantype: "2Theta (TwoTheta)" TimePerStep: "1" X: "22.5" Y: "40.5" Z: "5.95" 
10.00000 0.000
10.02000 -0.081
10.04000 2.124
10.06000 6.428
10.08000 -0.795
10.10000 4.358
10.12000 -3.973
10.14000 11.013
10.16000 27.881
10.18000 18.916
10.20000 12.310
10.22000 15.549
10.24000 17.135
10.26000 29.139
10.28000 21.942
10.30000 20.864
10.32000 13.751
10.34000 20.585
10.36000 29.594
10.38000 11.050
10.40000 4.932
10.42000 4.835
10.44000 23.272
10.46000 19.008
10.48000 27.824
10.50000 27.425
10.52000 23.927
10.54000 23.872
10.56000 32.718
10.58000 29.933
10.60000 17.854
10.62000 20.766
10.64000 20.469
10.66000 15.241
10.68000 8.204
10.70000 14.294
10.72000 24.754
10.74000 21.264
10.76000 28.484
10.78000 20.611
10.80000 29.757
10.82000 26.037
10.84000 14.594
10.86000 17.367
10.88000 12.903
10.90000 8.569
10.92000 16.325
10.94000 25.170
10.96000 18.442
10.98000 18.415
11.00000 20.952
11.02000 24.042
11.04000 21.360
11.06000 26.823
11.08000 24.766
11.10000 28.651
11.12000 25.788
11.14000 21.371
11.16000 14.577
11.18000 22.073
11.20000 21.701
11.22000 27.305
11.24000 28.232
11.26000 24.356
11.28000 14.489
11.30000 29.673
11.32000 17.220
11.34000 17.113
11.36000 12.755
11.38000 13.859
11.40000 34.831
11.42000 22.868
11.44000 18.630
11.46000 11.705
11.48000 13.915
11.50000 21.831
11.52000 3.178
11.54000 20.388
11.56000 31.580
11.58000 24.026
11.60000 21.629
11.62000 25.662
11.64000 23.257
11.66000 20.658
11.68000 21.344
11.70000 17.016
11.72000 18.886
11.74000 15.144
11.76000 15.592
11.78000 17.612
11.80000 21.266
11.82000 27.853
11.84000 14.481
11.86000 3.916
11.88000 19.437
11.90000 20.246
11.92000 25.612
11.94000 28.892
11.96000 16.968
11.98000 16.652
12.00000 29.502
12.02000 22.425
12.04000 13.450
12.06000 21.032
12.08000 30.305
12.10000 32.000
12.12000 27.742
12.14000 15.449
12.16000 15.111
12.18000 14.599
12.20000 19.509
12.22000 11.586
12.24000 15.571
12.26000 12.720
12.28000 11.726
12.30000 14.904
12.32000 19.464
12.34000 16.608
12.36000 11.211
12.38000 15.625
12.40000 18.358
12.42000 11.339
12.44000 22.255
12.46000 25.333
12.48000 25.138
12.50000 20.109
12.52000 16.956
12.54000 16.682
12.56000 17.369
12.58000 18.795
12.60000 21.721
12.62000 25.127
12.64000 21.500
12.66000 20.138
12.68000 10.867
12.70000 15.632
12.72000 19.789
12.74000 19.876
12.76000 15.398
12.78000 14.732
12.80000 13.192
12.82000 11.589
12.84000 24.583
12.86000 25.707
12.88000 26.378
12.90000 22.724
12.92000 15.268
12.94000 22.062
12.96000 16.807
12.98000 24.907
13.00000 28.956
13.02000 29.114
13.04000 28.174
13.06000 29.711
13.08000 15.027
13.10000 23.007
13.12000 25.144
13.14000 20.943
13.16000 23.251
13.18000 18.512
13.20000 7.854
13.22000 13.554
13.24000 22.229
13.26000 27.416
13.28000 16.983
13.30000 17.392
13.32000 19.309
13.34000 28.036
13.36000 19.191
13.38000 14.037
13.40000 26.817
13.42000 12.869
13.44000 8.257
13.46000 4.440
13.48000 9.956
13.50000 22.141
13.52000 23.086
13.54000 10.411
13.56000 5.467
13.58000 9.469
13.60000 18.552
13.62000 10.910
13.64000 9.280
13.66000 19.919
13.68000 24.295
13.70000 22.877
13.72000 17.730
13.74000 13.855
13.76000 14.422
13.78000 11.671
13.80000 17.132
13.82000 16.075
13.84000 12.026
13.86000 4.167
13.88000 -3.540
13.90000 2.157
13.92000 15.270
13.94000 14.586
13.96000 14.367
13.98000 17.155
14.00000 -0.068
14.02000 -4.439
14.04000 5.325
14.06000 13.271
14.08000 19.423
14.10000 20.671
14.12000 17.329
14.14000 22.242
14.16000 19.510
14.18000 9.702
14.20000 7.523
14.22000 3.524
14.24000 10.377
14.26000 14.717
14.28000 13.998
14.30000 12.062
14.32000 12.724
14.34000 14.486
14.36000 16.907
14.38000 14.833
14.40000 14.316
14.42000 6.625
14.44000 17.067
14.46000 15.429
14.48000 7.597
14.50000 6.609
14.52000 13.030
14.54000 15.022
14.56000 2.857
14.58000 5.027
14.60000 15.263
14.62000 13.952
14.64000 10.124
14.66000 10.474
14.68000 15.067
14.70000 10.885
14.72000 11.409
14.74000 11.480
14.76000 3.949
14.78000 7.260
14.80000 10.809
14.82000 11.749
14.84000 10.613
14.86000 8.172
14.88000 9.407
14.90000 8.963
14.92000 5.094
14.94000 9.577
14.96000 0.855
14.98000 0.669
15.00000 5.425
15.02000 17.113
15.04000 12.043
15.06000 9.372
15.08000 12.790
15.10000 17.578
15.12000 7.648
15.14000 3.756
15.16000 2.117
15.18000 7.045
15.20000 14.025
15.22000 12.720
15.24000 14.221
15.26000 5.378
15.28000 6.008
15.30000 11.656
15.32000 0.513
15.34000 -0.693
15.36000 -0.273
15.38000 -2.766
15.40000 -0.782
15.42000 -2.918
15.44000 6.957
15.46000 11.494
15.48000 10.710
15.50000 3.273
15.52000 1.532
15.54000 2.627
15.56000 5.795
15.58000 10.120
15.60000 0.781
15.62000 -0.980
15.64000 0.317
15.66000 3.335
15.68000 11.309
15.70000 19.709
15.72000 15.289
15.74000 5.828
15.76000 6.336
15.78000 11.936
15.80000 9.530
15.82000 17.049
15.84000 18.677
15.86000 10.424
15.88000 8.067
15.90000 6.021
15.92000 8.714
15.94000 7.734
15.96000 1.913
15.98000 3.290
16.00000 5.431
16.02000 11.037
16.04000 4.048
16.06000 4.266
16.08000 0.863
16.10000 9.724
16.12000 9.043
16.14000 6.063
16.16000 0.160
16.18000 -1.743
16.20000 3.117
16.22000 10.928
16.24000 6.622
16.26000 0.577
16.28000 1.035
16.30000 -2.317
16.32000 5.334
16.34000 2.161
16.36000 3.693
16.38000 11.322
16.40000 6.600
16.42000 12.885
16.44000 13.666
16.46000 7.673
16.48000 7.030
16.50000 9.105
16.52000 0.715
16.54000 2.988
16.56000 7.643
16.58000 11.377
16.60000 6.176
16.62000 -4.451
16.64000 -0.396
16.66000 6.393
16.68000 5.924
16.70000 4.382
16.72000 5.385
16.74000 4.590
16.76000 -2.249
16.78000 -4.445
16.80000 -0.534
16.82000 7.044
16.84000 4.384
16.86000 2.636
16.88000 13.881
16.90000 12.493
16.92000 9.564
16.94000 9.093
16.96000 0.019
16.98000 -4.408
17.00000 5.692
17.02000 10.359
17.04000 0.300
17.06000 3.126
17.08000 4.862
17.10000 7.379
17.12000 8.881
17.14000 10.556
17.16000 -0.085
17.18000 -4.428
17.20000 0.909
17.22000 7.193
17.24000 8.039
17.26000 3.434
17.28000 8.367
17.30000 11.511
17.32000 13.036
17.34000 11.026
17.36000 8.199
17.38000 7.279
17.40000 9.920
17.42000 4.759
17.44000 5.649
17.46000 4.975
17.48000 3.241
17.50000 6.539
17.52000 4.460
17.54000 7.546
17.56000 6.799
17.58000 4.202
17.60000 6.917
17.62000 2.996
17.64000 0.556
17.66000 2.859
17.68000 5.785
17.70000 -4.406
17.72000 -3.898
17.74000 -0.108
17.76000 1.606
17.78000 1.968
17.80000 1.102
17.82000 4.245
17.84000 6.488
17.86000 6.692
17.88000 6.499
17.90000 9.414
17.92000 12.351
17.94000 5.846
17.96000 9.041
17.98000 10.548
18.00000 4.284
18.02000 6.560
18.04000 3.262
18.06000 3.663
18.08000 5.828
18.10000 5.678
18.12000 6.582
18.14000 10.320
18.16000 3.591
18.18000 0.712
18.20000 1.568
18.22000 1.671
18.24000 7.559
18.26000 6.167
18.28000 4.822
18.30000 1.464
18.32000 1.177
18.34000 3.891
18.36000 7.239
18.38000 11.307
18.40000 10.418
18.42000 8.877
18.44000 -1.948
18.46000 3.054
18.48000 6.288
18.50000 -0.343
18.52000 0.708
18.54000 7.419
18.56000 2.622
18.58000 5.260
18.60000 0.155
18.62000 4.384
18.64000 7.293
18.66000 1.336
18.68000 -2.184
18.70000 -1.880
18.72000 1.670
18.74000 7.053
18.76000 9.268
18.78000 2.076
18.80000 1.536
18.82000 7.441
18.84000 9.277
18.86000 7.439
18.88000 1.880
18.90000 2.834
18.92000 5.718
18.94000 1.344
18.96000 -0.637
18.98000 5.459
19.00000 7.752
19.02000 1.628
19.04000 5.788
19.06000 4.959
19.08000 4.188
19.10000 9.119
19.12000 6.311
19.14000 8.928
19.16000 5.353
19.18000 -0.896
19.20000 -4.312
19.22000 5.568
19.24000 4.714
19.26000 -1.365
19.28000 7.266
19.30000 6.851
19.32000 9.264
19.34000 12.461
19.36000 13.383
19.38000 5.406
19.40000 0.274
19.42000 2.048
19.44000 5.144
19.46000 9.866
19.48000 12.400
19.50000 15.277
19.52000 9.160
19.54000 -0.813
19.56000 6.325
19.58000 9.608
19.60000 8.922
19.62000 3.815
19.64000 12.374
19.66000 6.911
19.68000 1.053
19.70000 -4.272
19.72000 3.355
19.74000 0.816
19.76000 3.326
19.78000 14.374
19.80000 20.126
19.82000 9.520
19.84000 3.181
19.86000 5.036
19.88000 10.737
19.90000 12.585
19.92000 4.284
19.94000 5.661
19.96000 2.240
19.98000 -3.250
20.00000 -3.345
20.02000 -0.710
20.04000 2.837
20.06000 9.705
20.08000 4.408
20.10000 7.451
20.12000 3.493
20.14000 2.015
20.16000 3.953
20.18000 0.152
20.20000 1.804
20.22000 4.063
20.24000 5.816
20.26000 0.360
20.28000 -1.644
20.30000 -0.925
20.32000 3.964
20.34000 7.266
20.36000 7.157
20.38000 -0.281
20.40000 0.735
20.42000 1.325
20.44000 8.663
20.46000 10.051
20.48000 5.062
20.50000 0.846
20.52000 4.308
20.54000 7.771
20.56000 4.536
20.58000 -2.438
20.60000 -1.840
20.62000 0.349
20.64000 -0.786
20.66000 0.791
20.68000 4.167
20.70000 10.923
20.72000 5.635
20.74000 -0.582
20.76000 -2.005
20.78000 3.520
20.80000 0.786
20.82000 1.137
20.84000 10.890
20.86000 3.911
20.88000 3.150
20.90000 6.834
20.92000 -1.156
20.94000 -1.655
20.96000 4.799
20.98000 3.817
21.00000 0.300
21.02000 2.806
21.04000 7.795
21.06000 10.420
21.08000 6.690
21.10000 4.604
21.12000 5.566
21.14000 7.840
21.16000 5.393
21.18000 4.698
21.20000 3.567
21.22000 -1.046
21.24000 3.115
21.26000 4.135
21.28000 0.712
21.30000 -1.613
21.32000 -1.981
21.34000 -2.283
21.36000 5.105
21.38000 2.832
21.40000 5.801
21.42000 8.888
21.44000 5.833
21.46000 4.591
21.48000 9.390
21.50000 6.434
21.52000 6.217
21.54000 6.779
21.56000 3.960
21.58000 -3.716
21.60000 -4.175
21.62000 2.292
21.64000 6.802
21.66000 5.555
21.68000 5.373
21.70000 0.099
21.72000 2.165
21.74000 -1.258
21.76000 6.904
21.78000 10.913
21.80000 16.902
21.82000 7.672
21.84000 2.051
21.86000 8.533
21.88000 4.151
21.90000 1.269
21.92000 2.069
21.94000 5.847
21.96000 10.431
21.98000 6.436
22.00000 0.579
22.02000 -3.466
22.04000 -0.150
22.06000 8.286
22.08000 3.898
22.10000 9.791
22.12000 11.159
22.14000 8.303
22.16000 9.463
22.18000 7.811
22.20000 9.357
22.22000 4.327
22.24000 9.768
22.26000 10.739
22.28000 6.750
22.30000 -2.632
22.32000 0.049
22.34000 0.642
22.36000 3.328
22.38000 9.402
22.40000 5.756
22.42000 1.984
22.44000 -0.912
22.46000 -0.321
22.48000 -1.065
22.50000 -1.094
22.52000 -4.143
22.54000 2.207
22.56000 5.744
22.58000 7.160
22.60000 8.545
22.62000 -0.510
22.64000 3.201
22.66000 5.792
22.68000 9.536
22.70000 5.535
22.72000 -0.280
22.74000 -1.309
22.76000 2.526
22.78000 9.422
22.80000 7.554
22.82000 -0.636
22.84000 3.392
22.86000 5.384
22.88000 6.294
22.90000 -0.820
22.92000 2.106
22.94000 6.162
22.96000 1.531
22.98000 1.350
23.00000 0.758
23.02000 0.732
23.04000 1.787
23.06000 1.600
23.08000 5.039
23.10000 6.051
23.12000 3.470
23.14000 -1.230
23.16000 3.022
23.18000 2.781
23.20000 1.638
23.22000 2.422
23.24000 2.986
23.26000 7.784
23.28000 4.162
23.30000 9.007
23.32000 9.254
23.34000 7.163
23.36000 6.630
23.38000 5.221
23.40000 7.539
23.42000 7.219
23.44000 6.026
23.46000 9.362
23.48000 10.318
23.50000 5.644
23.52000 3.522
23.54000 3.192
23.56000 1.963
23.58000 2.993
23.60000 6.898
23.62000 7.350
23.64000 11.495
23.66000 7.002
23.68000 4.383
23.70000 9.834
23.72000 2.220
23.74000 1.227
23.76000 3.841
23.78000 1.592
23.80000 -4.058
23.82000 7.688
23.84000 9.857
23.86000 7.616
23.88000 4.605
23.90000 1.363
23.92000 2.432
23.94000 4.672
23.96000 3.100
23.98000 -1.887
24.00000 -0.240
24.02000 -2.803
24.04000 5.843
24.06000 10.152
24.08000 5.462
24.10000 2.921
24.12000 4.883
24.14000 3.551
24.16000 1.906
24.18000 7.887
24.20000 3.476
24.22000 1.575
24.24000 -4.037
24.26000 6.924
24.28000 8.758
24.30000 6.385
24.32000 8.863
24.34000 10.885
24.36000 11.246
24.38000 1.672
24.40000 -2.279
24.42000 0.189
24.44000 0.148
24.46000 -0.694
24.48000 2.373
24.50000 3.450
24.52000 2.993
24.54000 5.324
24.56000 3.431
24.58000 5.446
24.60000 4.325
24.62000 -0.698
24.64000 0.996
24.66000 -3.745
24.68000 -0.584
24.70000 -0.682
24.72000 2.482
24.74000 6.254
24.76000 7.255
24.78000 3.692
24.80000 -2.575
24.82000 5.549
24.84000 6.528
24.86000 3.371
24.88000 -0.387
24.90000 2.998
24.92000 4.889
24.94000 6.402
24.96000 6.738
24.98000 6.186
25.00000 0.978
25.02000 1.802
25.04000 5.807
25.06000 4.090
25.08000 -1.121
25.10000 -2.311
25.12000 -2.694
25.14000 3.719
25.16000 1.208
25.18000 1.345
25.20000 -3.939
25.22000 0.966
25.24000 5.205
25.26000 3.748
25.28000 -0.906
25.30000 -0.719
25.32000 4.544
25.34000 2.470
25.36000 -1.261
25.38000 -0.179
25.40000 3.038
25.42000 5.285
25.44000 4.702
25.46000 5.836
25.48000 4.285
25.50000 -2.297
25.52000 0.103
25.54000 1.768
25.56000 -0.589
25.58000 1.520
25.60000 3.160
25.62000 0.343
25.64000 3.328
25.66000 1.268
25.68000 -1.874
25.70000 4.269
25.72000 3.948
25.74000 1.203
25.76000 2.215
25.78000 -1.239
25.80000 1.598
25.82000 1.329
25.84000 -0.348
25.86000 1.630
25.88000 2.660
25.90000 4.907
25.92000 6.981
25.94000 6.495
25.96000 3.913
25.98000 0.292
26.00000 -1.237
26.02000 2.421
26.04000 7.883
26.06000 5.369
26.08000 2.412
26.10000 1.839
26.12000 1.618
26.14000 4.494
26.16000 3.119
26.18000 4.127
26.20000 4.551
26.22000 3.111
26.24000 5.770
26.26000 8.365
26.28000 3.097
26.30000 3.358
26.32000 -0.751
26.34000 0.703
26.36000 -0.783
26.38000 3.129
26.40000 3.492
26.42000 0.984
26.44000 -0.530
26.46000 4.209
26.48000 0.909
26.50000 2.177
26.52000 3.182
26.54000 1.611
26.56000 -3.847
26.58000 -3.896
26.60000 -0.528
26.62000 4.379
26.64000 5.224
26.66000 0.740
26.68000 0.008
26.70000 3.948
26.72000 0.811
26.74000 4.621
26.76000 4.141
26.78000 6.650
26.80000 6.536
26.82000 10.277
26.84000 9.811
26.86000 10.374
26.88000 4.107
26.90000 4.113
26.92000 9.171
26.94000 8.404
26.96000 5.286
26.98000 3.989
27.00000 8.680
27.02000 8.339
27.04000 11.091
27.06000 10.033
27.08000 7.526
27.10000 7.730
27.12000 10.798
27.14000 4.642
27.16000 4.306
27.18000 12.395
27.20000 9.052
27.22000 5.417
27.24000 2.310
27.26000 0.234
27.28000 9.010
27.30000 7.683
27.32000 10.555
27.34000 12.861
27.36000 4.184
27.38000 -3.805
27.40000 6.327
27.42000 12.039
27.44000 9.868
27.46000 14.956
27.48000 6.482
27.50000 4.611
27.52000 7.283
27.54000 9.147
27.56000 6.399
27.58000 6.244
27.60000 14.017
27.62000 9.463
27.64000 6.598
27.66000 11.457
27.68000 10.142
27.70000 7.651
27.72000 10.108
27.74000 10.621
27.76000 7.372
27.78000 6.154
27.80000 7.316
27.82000 7.550
27.84000 8.093
27.86000 6.315
27.88000 1.555
27.90000 2.584
27.92000 2.766
27.94000 -2.251
27.96000 2.593
27.98000 3.281
28.00000 4.197
28.02000 4.165
28.04000 2.081
28.06000 2.962
28.08000 7.436
28.10000 6.494
28.12000 11.437
28.14000 2.980
28.16000 2.068
28.18000 2.136
28.20000 3.407
28.22000 6.660
28.24000 7.885
28.26000 7.122
28.28000 7.444
28.30000 9.661
28.32000 5.521
28.34000 3.328
28.36000 3.299
28.38000 5.491
28.40000 1.852
28.42000 3.262
28.44000 2.626
28.46000 5.429
28.48000 8.557
28.50000 8.748
28.52000 9.525
28.54000 -0.321
28.56000 3.284
28.58000 5.301
28.60000 1.271
28.62000 2.311
28.64000 3.162
28.66000 3.560
28.68000 0.487
28.70000 5.313
28.72000 2.948
28.74000 -1.813
28.76000 1.687
28.78000 7.492
28.80000 8.282
28.82000 5.436
28.84000 1.840
28.86000 4.948
28.88000 9.244
28.90000 7.705
28.92000 9.429
28.94000 11.340
28.96000 9.640
28.98000 4.603
29.00000 -2.021
29.02000 -0.706
29.04000 6.573
29.06000 3.625
29.08000 -1.777
29.10000 -0.852
29.12000 4.564
29.14000 4.786
29.16000 3.749
29.18000 6.064
29.20000 3.227
29.22000 2.111
29.24000 0.947
29.26000 -0.230
29.28000 -1.096
29.30000 -1.503
29.32000 -3.741
29.34000 -0.832
29.36000 2.520
29.38000 1.670
29.40000 7.543
29.42000 9.627
29.44000 3.450
29.46000 3.250
29.48000 1.981
29.50000 5.645
29.52000 6.502
29.54000 6.592
29.56000 3.395
29.58000 5.400
29.60000 5.332
29.62000 2.865
29.64000 3.268
29.66000 8.381
29.68000 2.775
29.70000 0.650
29.72000 0.100
29.74000 -3.719
29.76000 1.158
29.78000 10.018
29.80000 8.857
29.82000 7.773
29.84000 2.364
29.86000 4.304
29.88000 6.583
29.90000 11.394
29.92000 11.650
29.94000 3.593
29.96000 5.248
29.98000 5.556
30.00000 7.644
30.02000 3.042
30.04000 2.040
30.06000 -1.255
30.08000 -1.190
30.10000 2.309
30.12000 -0.995
30.14000 8.222
30.16000 4.587
30.18000 4.720
30.20000 6.162
30.22000 4.699
30.24000 6.714
30.26000 4.236
30.28000 1.414
30.30000 1.741
30.32000 2.939
30.34000 7.449
30.36000 1.300
30.38000 3.484
30.40000 6.477
30.42000 4.509
30.44000 2.491
30.46000 -0.175
30.48000 1.672
30.50000 1.416
30.52000 4.646
30.54000 3.773
30.56000 1.605
30.58000 1.393
30.60000 -3.684
30.62000 -2.504
30.64000 -0.029
30.66000 1.500
30.68000 5.128
30.70000 9.087
30.72000 6.987
30.74000 2.654
30.76000 5.202
30.78000 8.214
30.80000 3.136
30.82000 -0.864
30.84000 2.332
30.86000 2.618
30.88000 2.701
30.90000 3.252
30.92000 6.908
30.94000 8.236
30.96000 3.751
30.98000 0.348
31.00000 2.661
31.02000 1.019
31.04000 1.273
31.06000 4.755
31.08000 10.339
31.10000 10.051
31.12000 3.876
31.14000 3.988
31.16000 4.604
31.18000 1.329
31.20000 3.203
31.22000 3.124
31.24000 0.527
31.26000 3.801
31.28000 6.777
31.30000 1.860
31.32000 -2.173
31.34000 1.610
31.36000 2.166
31.38000 7.479
31.40000 1.564
31.42000 1.431
31.44000 5.555
31.46000 0.795
31.48000 5.324
31.50000 2.032
31.52000 1.873
31.54000 9.303
31.56000 7.710
31.58000 8.500
31.60000 4.991
31.62000 -0.148
31.64000 -1.396
31.66000 -3.642
31.68000 -0.524
31.70000 -1.880
31.72000 2.461
31.74000 3.078
31.76000 4.233
31.78000 5.226
31.80000 4.392
31.82000 1.164
31.84000 0.199
31.86000 0.850
31.88000 1.909
31.90000 -1.035
31.92000 0.198
31.94000 -1.652
31.96000 -1.379
31.98000 -1.746
32.00000 -0.283
32.02000 2.042
32.04000 2.391
32.06000 5.714
32.08000 9.357
32.10000 11.534
32.12000 -0.244
32.14000 4.731
32.16000 4.570
32.18000 5.489
32.20000 7.761
32.22000 9.556
32.24000 8.185
32.26000 7.055
32.28000 8.394
32.30000 8.077
32.32000 6.131
32.34000 -3.145
32.36000 -3.621
32.38000 -0.173
32.40000 2.981
32.42000 7.789
32.44000 7.496
32.46000 2.225
32.48000 2.904
32.50000 -2.285
32.52000 3.683
32.54000 6.137
32.56000 5.119
32.58000 7.143
32.60000 9.403
32.62000 4.423
32.64000 6.345
32.66000 2.542
32.68000 0.686
32.70000 0.614
32.72000 0.626
32.74000 -0.554
32.76000 0.246
32.78000 2.434
32.80000 3.674
32.82000 0.237
32.84000 -0.063
32.86000 1.597
32.88000 5.132
32.90000 7.725
32.92000 1.849
32.94000 0.711
32.96000 -2.168
32.98000 3.822
33.00000 1.229
33.02000 0.620
33.04000 1.902
33.06000 -0.272
33.08000 3.799
33.10000 0.897
33.12000 0.212
33.14000 1.349
33.16000 -0.963
33.18000 3.896
33.20000 4.570
33.22000 0.717
33.24000 0.597
33.26000 4.869
33.28000 -0.439
33.30000 3.902
33.32000 2.767
33.34000 1.257
33.36000 1.783
33.38000 5.280
33.40000 6.281
33.42000 2.161
33.44000 1.462
33.46000 5.988
33.48000 6.352
33.50000 1.457
33.52000 1.757
33.54000 -0.868
33.56000 3.131
33.58000 -0.378
33.60000 1.062
33.62000 0.495
33.64000 1.431
33.66000 6.002
33.68000 5.708
33.70000 4.123
33.72000 6.100
33.74000 7.487
33.76000 2.204
33.78000 1.361
33.80000 6.093
33.82000 3.008
33.84000 2.190
33.86000 4.919
33.88000 6.737
33.90000 4.698
33.92000 1.502
33.94000 -0.406
33.96000 -2.096
33.98000 -0.680
34.00000 5.443
34.02000 7.281
34.04000 9.252
34.06000 4.738
34.08000 7.324
34.10000 5.697
34.12000 -2.013
34.14000 0.621
34.16000 5.880
34.18000 6.107
34.20000 4.759
34.22000 7.495
34.24000 5.430
34.26000 1.335
34.28000 1.540
34.30000 2.012
34.32000 7.175
34.34000 4.362
34.36000 3.935
34.38000 3.183
34.40000 0.676
34.42000 5.212
34.44000 8.029
34.46000 7.978
34.48000 6.685
34.50000 4.722
34.52000 5.475
34.54000 2.638
34.56000 3.023
34.58000 1.509
34.60000 4.822
34.62000 8.192
34.64000 2.313
34.66000 -3.564
34.68000 -0.858
34.70000 7.834
34.72000 6.825
34.74000 6.209
34.76000 1.617
34.78000 4.759
34.80000 6.835
34.82000 4.714
34.84000 3.618
34.86000 5.554
34.88000 5.973
34.90000 7.364
34.92000 2.916
34.94000 1.167
34.96000 1.192
34.98000 -3.080
35.00000 -2.497
35.02000 5.815
35.04000 0.421
35.06000 -1.048
35.08000 -0.168
35.10000 4.066
35.12000 2.230
35.14000 0.342
35.16000 1.329
35.18000 1.954
35.20000 1.723
35.22000 3.658
35.24000 3.781
35.26000 5.536
35.28000 5.861
35.30000 2.292
35.32000 3.460
35.34000 5.550
35.36000 8.753
35.38000 3.824
35.40000 2.594
35.42000 4.325
35.44000 5.668
35.46000 4.409
35.48000 4.618
35.50000 3.951
35.52000 0.574
35.54000 -3.558
35.56000 0.409
35.58000 -2.188
35.60000 1.429
35.62000 1.674
35.64000 6.085
35.66000 6.215
35.68000 -0.680
35.70000 1.247
35.72000 5.322
35.74000 3.612
35.76000 2.115
35.78000 3.074
35.80000 2.665
35.82000 -1.027
35.84000 -2.795
35.86000 1.178
35.88000 -1.250
35.90000 -0.954
35.92000 0.525
35.94000 3.732
35.96000 10.347
35.98000 5.173
36.00000 2.048
36.02000 0.158
36.04000 0.318
36.06000 0.069
36.08000 3.295
36.10000 1.007
36.12000 1.005
36.14000 2.292
36.16000 -0.035
36.18000 -0.847
36.20000 2.775
36.22000 2.437
36.24000 0.651
36.26000 -1.177
36.28000 1.072
36.30000 -0.645
36.32000 3.017
36.34000 7.035
36.36000 3.196
36.38000 3.267
36.40000 8.950
36.42000 9.608
36.44000 1.897
36.46000 0.910
36.48000 3.169
36.50000 1.698
36.52000 -3.343
36.54000 -0.939
36.56000 1.455
36.58000 2.306
36.60000 2.849
36.62000 2.856
36.64000 3.078
36.66000 3.672
36.68000 7.079
36.70000 2.894
36.72000 1.569
36.74000 -3.629
36.76000 2.675
36.78000 2.774
36.80000 0.767
36.82000 1.102
36.84000 2.344
36.86000 -1.868
36.88000 -3.170
36.90000 -2.407
36.92000 0.470
36.94000 -1.529
36.96000 0.604
36.98000 2.226
37.00000 0.719
37.02000 5.663
37.04000 3.905
37.06000 0.295
37.08000 -1.862
37.10000 1.028
37.12000 -1.430
37.14000 1.312
37.16000 0.964
37.18000 0.777
37.20000 3.445
37.22000 5.346
37.24000 4.624
37.26000 1.820
37.28000 -0.573
37.30000 -2.825
37.32000 2.804
37.34000 2.418
37.36000 0.342
37.38000 0.552
37.40000 0.066
37.42000 2.206
37.44000 6.610
37.46000 5.070
37.48000 3.676
37.50000 5.214
37.52000 4.182
37.54000 4.137
37.56000 -0.009
37.58000 0.497
37.60000 3.068
37.62000 3.889
37.64000 -0.354
37.66000 -1.800
37.68000 0.650
37.70000 7.839
37.72000 4.628
37.74000 4.505
37.76000 1.920
37.78000 9.352
37.80000 12.627
37.82000 11.338
37.84000 8.013
37.86000 7.456
37.88000 11.689
37.90000 10.011
37.92000 10.811
37.94000 11.890
37.96000 10.121
37.98000 10.647
38.00000 14.470
38.02000 15.175
38.04000 11.963
38.06000 14.635
38.08000 16.896
38.10000 15.452
38.12000 15.248
38.14000 19.057
38.16000 20.907
38.18000 18.394
38.20000 17.812
38.22000 18.349
38.24000 17.829
38.26000 14.922
38.28000 16.386
38.30000 22.642
38.32000 21.492
38.34000 20.878
38.36000 21.523
38.38000 24.768
38.40000 20.348
38.42000 18.528
38.44000 21.922
38.46000 23.336
38.48000 20.178
38.50000 18.117
38.52000 26.998
38.54000 32.679
38.56000 27.635
38.58000 33.381
38.60000 32.843
38.62000 34.382
38.64000 34.037
38.66000 33.322
38.68000 32.735
38.70000 40.778
38.72000 42.712
38.74000 43.499
38.76000 41.034
38.78000 46.222
38.80000 46.911
38.82000 46.617
38.84000 56.482
38.86000 62.826
38.88000 65.116
38.90000 64.141
38.92000 62.246
38.94000 63.998
38.96000 70.078
38.98000 72.102
39.00000 74.022
39.02000 79.575
39.04000 87.494
39.06000 89.097
39.08000 86.535
39.10000 93.630
39.12000 102.767
39.14000 107.489
39.16000 110.492
39.18000 118.546
39.20000 122.945
39.22000 128.022
39.24000 131.678
39.26000 135.584
39.28000 141.808
39.30000 151.343
39.32000 154.043
39.34000 158.809
39.36000 169.963
39.38000 182.473
39.40000 196.144
39.42000 205.647
39.44000 212.871
39.46000 226.107
39.48000 230.069
39.50000 236.056
39.52000 258.934
39.54000 272.598
39.56000 280.638
39.58000 298.506
39.60000 309.565
39.62000 326.666
39.64000 348.706
39.66000 365.758
39.68000 369.344
39.70000 394.369
39.72000 419.960
39.74000 431.496
39.76000 443.629
39.78000 456.096
39.80000 468.273
39.82000 492.532
39.84000 509.393
39.86000 530.243
39.88000 547.986
39.90000 556.029
39.92000 563.235
39.94000 574.709
39.96000 581.869
39.98000 594.983
40.00000 595.088
40.02000 597.958
40.04000 602.289
40.06000 606.523
40.08000 602.302
40.10000 603.671
40.12000 606.261
40.14000 594.912
40.16000 585.801
40.18000 580.034
40.20000 562.761
40.22000 553.986
40.24000 542.935
40.26000 521.017
40.28000 509.444
40.30000 498.318
40.32000 481.413
40.34000 455.501
40.36000 439.784
40.38000 421.903
40.40000 412.777
40.42000 394.320
40.44000 372.570
40.46000 356.685
40.48000 337.870
40.50000 322.015
40.52000 303.387
40.54000 294.860
40.56000 274.702
40.58000 262.769
40.60000 254.545
40.62000 236.002
40.64000 228.100
40.66000 214.249
40.68000 194.754
40.70000 187.050
40.72000 171.940
40.74000 164.668
40.76000 154.669
40.78000 142.999
40.80000 136.277
40.82000 134.200
40.84000 126.375
40.86000 125.656
40.88000 114.756
40.90000 106.510
40.92000 98.949
40.94000 90.740
40.96000 85.017
40.98000 84.286
41.00000 80.368
41.02000 71.575
41.04000 67.631
41.06000 63.464
41.08000 60.924
41.10000 62.735
41.12000 58.519
41.14000 54.177
41.16000 47.685
41.18000 47.371
41.20000 47.625
41.22000 41.033
41.24000 40.076
41.26000 37.038
41.28000 32.769
41.30000 38.160
41.32000 35.613
41.34000 28.329
41.36000 27.352
41.38000 25.430
41.40000 29.005
41.42000 25.179
41.44000 21.830
41.46000 18.178
41.48000 16.928
41.50000 16.577
41.52000 11.380
41.54000 14.015
41.56000 13.823
41.58000 11.950
41.60000 14.449
41.62000 15.742
41.64000 14.758
41.66000 13.757
41.68000 13.631
41.70000 14.348
41.72000 14.421
41.74000 9.808
41.76000 6.793
41.78000 4.776
41.80000 6.178
41.82000 11.221
41.84000 11.578
41.86000 10.461
41.88000 9.089
41.90000 5.305
41.92000 1.027
41.94000 1.264
41.96000 3.193
41.98000 -0.383
42.00000 -0.177
42.02000 4.463
42.04000 5.488
42.06000 -2.007
42.08000 0.617
42.10000 -0.083
42.12000 -2.876
42.14000 -1.385
42.16000 4.786
42.18000 1.889
42.20000 -0.381
42.22000 4.892
42.24000 3.742
42.26000 2.931
42.28000 1.555
42.30000 2.048
42.32000 0.614
42.34000 -3.040
42.36000 -2.591
42.38000 -2.155
42.40000 -3.132
42.42000 -0.201
42.44000 0.344
42.46000 0.897
42.48000 -2.581
42.50000 -0.358
42.52000 1.497
42.54000 1.842
42.56000 3.007
42.58000 -0.436
42.60000 -2.247
42.62000 -0.654
42.64000 -1.648
42.66000 1.290
42.68000 0.579
42.70000 1.196
42.72000 2.027
42.74000 -2.051
42.76000 -2.395
42.78000 2.649
42.80000 3.912
42.82000 -1.248
42.84000 0.826
42.86000 -2.593
42.88000 -2.119
42.90000 -0.087
42.92000 1.086
42.94000 0.373
42.96000 1.482
42.98000 -2.226
43.00000 -1.650
43.02000 3.206
43.04000 -0.558
43.06000 -3.442
43.08000 -0.522
43.10000 1.098
43.12000 3.279
43.14000 4.714
43.16000 2.035
43.18000 2.713
43.20000 5.535
43.22000 1.345
43.24000 1.506
43.26000 7.852
43.28000 1.443
43.30000 3.203
43.32000 4.311
43.34000 5.466
43.36000 0.477
43.38000 1.351
43.40000 4.895
43.42000 1.871
43.44000 1.992
43.46000 0.343
43.48000 1.095
43.50000 1.259
43.52000 0.887
43.54000 -0.077
43.56000 2.680
43.58000 1.841
43.60000 1.288
43.62000 1.214
43.64000 1.632
43.66000 1.787
43.68000 3.669
43.70000 4.447
43.72000 -1.785
43.74000 -3.380
43.76000 -1.206
43.78000 3.823
43.80000 0.998
43.82000 2.313
43.84000 7.101
43.86000 4.733
43.88000 2.958
43.90000 -0.605
43.92000 1.415
43.94000 2.038
43.96000 1.189
43.98000 -3.358
44.00000 0.425
44.02000 2.772
44.04000 5.949
44.06000 0.818
44.08000 3.064
44.10000 2.975
44.12000 1.398
44.14000 1.582
44.16000 3.734
44.18000 1.952
44.20000 -1.401
44.22000 -0.148
44.24000 0.680
44.26000 -0.622
44.28000 5.112
44.30000 0.054
44.32000 -3.372
44.34000 0.038
44.36000 3.254
44.38000 2.171
44.40000 4.426
44.42000 4.050
44.44000 -0.147
44.46000 -2.847
44.48000 -0.853
44.50000 1.139
44.52000 -2.028
44.54000 1.863
44.56000 2.818
44.58000 5.042
44.60000 8.298
44.62000 6.444
44.64000 4.784
44.66000 5.474
44.68000 2.986
44.70000 4.279
44.72000 7.022
44.74000 3.605
44.76000 8.032
44.78000 10.361
44.80000 6.077
44.82000 3.769
44.84000 0.150
44.86000 2.913
44.88000 6.207
44.90000 5.461
44.92000 6.004
44.94000 5.221
44.96000 9.251
44.98000 9.574
45.00000 12.348
45.02000 9.642
45.04000 9.501
45.06000 6.496
45.08000 9.309
45.10000 10.653
45.12000 10.908
45.14000 10.197
45.16000 10.268
45.18000 7.709
45.20000 7.080
45.22000 7.742
45.24000 3.419
45.26000 8.979
45.28000 15.399
45.30000 10.610
45.32000 12.607
45.34000 12.380
45.36000 16.986
45.38000 15.586
45.40000 13.317
45.42000 12.804
45.44000 16.585
45.46000 18.797
45.48000 20.200
45.50000 20.289
45.52000 24.685
45.54000 25.197
45.56000 25.969
45.58000 26.774
45.60000 26.201
45.62000 24.374
45.64000 23.985
45.66000 26.239
45.68000 26.159
45.70000 26.974
45.72000 25.356
45.74000 31.339
45.76000 34.224
45.78000 35.008
45.80000 29.580
45.82000 30.871
45.84000 38.904
45.86000 36.669
45.88000 36.343
45.90000 39.617
45.92000 42.150
45.94000 39.444
45.96000 39.547
45.98000 41.772
46.00000 43.298
46.02000 49.273
46.04000 55.356
46.06000 55.638
46.08000 51.581
46.10000 53.970
46.12000 54.437
46.14000 56.792
46.16000 60.230
46.18000 57.417
46.20000 58.745
46.22000 56.078
46.24000 60.224
46.26000 63.548
46.28000 64.241
46.30000 64.976
46.32000 67.524
46.34000 76.101
46.36000 78.590
46.38000 72.160
46.40000 76.293
46.42000 74.912
46.44000 76.586
46.46000 82.679
46.48000 84.864
46.50000 88.109
46.52000 80.965
46.54000 91.943
46.56000 94.011
46.58000 91.853
46.60000 89.626
46.62000 88.192
46.64000 89.817
46.66000 84.447
46.68000 83.129
46.70000 95.891
46.72000 94.653
46.74000 94.982
46.76000 92.200
46.78000 91.844
46.80000 90.911
46.82000 90.484
46.84000 92.909
46.86000 97.156
46.88000 87.898
46.90000 87.582
46.92000 84.619
46.94000 81.873
46.96000 82.159
46.98000 84.281
47.00000 83.136
47.02000 77.430
47.04000 75.417
47.06000 77.791
47.08000 75.858
47.10000 75.181
47.12000 72.208
47.14000 67.988
47.16000 69.094
47.18000 65.930
47.20000 65.936
47.22000 72.472
47.24000 61.829
47.26000 59.007
47.28000 56.317
47.30000 55.320
47.32000 51.620
47.34000 53.261
47.36000 53.296
47.38000 55.060
47.40000 48.153
47.42000 44.419
47.44000 40.040
47.46000 40.305
47.48000 42.420
47.50000 37.929
47.52000 35.408
47.54000 36.879
47.56000 33.625
47.58000 33.453
47.60000 32.631
47.62000 34.872
47.64000 34.947
47.66000 29.698
47.68000 24.324
47.70000 16.458
47.72000 21.088
47.74000 18.006
47.76000 20.854
47.78000 21.492
47.80000 15.791
47.82000 12.818
47.84000 17.571
47.86000 18.488
47.88000 13.487
47.90000 11.332
47.92000 15.313
47.94000 13.887
47.96000 13.160
47.98000 10.147
48.00000 7.379
48.02000 8.814
48.04000 12.779
48.06000 10.420
48.08000 14.855
48.10000 10.557
48.12000 7.847
48.14000 9.291
48.16000 12.432
48.18000 12.003
48.20000 7.417
48.22000 4.499
48.24000 5.931
48.26000 5.121
48.28000 2.365
48.30000 2.756
48.32000 3.754
48.34000 7.788
48.36000 5.894
48.38000 1.003
48.40000 0.397
48.42000 -0.712
48.44000 -0.886
48.46000 3.226
48.48000 2.859
48.50000 -1.966
48.52000 -1.832
48.54000 -0.647
48.56000 -3.053
48.58000 0.991
48.60000 2.476
48.62000 -0.360
48.64000 -0.962
48.66000 -0.171
48.68000 -0.710
48.70000 2.298
48.72000 -1.321
48.74000 -1.848
48.76000 3.020
48.78000 3.848
48.80000 0.815
48.82000 3.508
48.84000 6.915
48.86000 2.825
48.88000 0.898
48.90000 -0.531
48.92000 -1.373
48.94000 1.015
48.96000 -1.088
48.98000 0.255
49.00000 2.402
49.02000 -2.653
49.04000 0.443
49.06000 5.048
49.08000 7.586
49.10000 8.782
49.12000 3.416
49.14000 0.645
49.16000 -0.621
49.18000 -1.112
49.20000 2.024
49.22000 -1.003
49.24000 -0.270
49.26000 -2.929
49.28000 1.674
49.30000 4.634
49.32000 4.481
49.34000 3.426
49.36000 2.641
49.38000 6.459
49.40000 6.483
49.42000 8.597
49.44000 5.798
49.46000 4.551
49.48000 6.696
49.50000 8.405
49.52000 3.503
49.54000 2.202
49.56000 2.661
49.58000 0.879
49.60000 1.947
49.62000 0.832
49.64000 -2.881
49.66000 3.430
49.68000 2.574
49.70000 0.413
49.72000 -2.633
49.74000 2.862
49.76000 7.593
49.78000 7.531
49.80000 7.308
49.82000 4.016
49.84000 5.340
49.86000 4.722
49.88000 2.509
49.90000 3.192
49.92000 0.725
49.94000 2.452
49.96000 2.707
49.98000 -0.892
50.00000 5.304
50.02000 5.526
50.04000 5.321
50.06000 5.139
50.08000 4.374
50.10000 -0.453
50.12000 -2.405
50.14000 -2.318
50.16000 1.833
50.18000 3.452
50.20000 2.724
50.22000 3.292
50.24000 2.763
50.26000 1.752
50.28000 4.289
50.30000 5.241
50.32000 5.503
50.34000 -0.462
50.36000 1.590
50.38000 3.094
50.40000 3.430
50.42000 3.147
50.44000 3.306
50.46000 3.277
50.48000 5.167
50.50000 6.004
50.52000 4.966
50.54000 0.167
50.56000 -2.815
50.58000 4.135
50.60000 3.978
50.62000 -0.453
50.64000 1.100
50.66000 1.992
50.68000 1.603
50.70000 1.870
50.72000 3.024
50.74000 4.621
50.76000 3.810
50.78000 -0.316
50.80000 -2.805
50.82000 -1.995
50.84000 0.727
50.86000 1.605
50.88000 1.879
50.90000 4.110
50.92000 8.508
50.94000 5.849
50.96000 -0.650
50.98000 1.813
51.00000 2.455
51.02000 1.473
51.04000 1.991
51.06000 2.619
51.08000 0.540
51.10000 -0.240
51.12000 1.072
51.14000 3.758
51.16000 8.369
51.18000 7.359
51.20000 5.169
51.22000 2.358
51.24000 -0.994
51.26000 -2.752
51.28000 0.017
51.30000 2.314
51.32000 -0.090
51.34000 3.440
51.36000 3.768
51.38000 3.058
51.40000 -1.495
51.42000 0.188
51.44000 0.026
51.46000 2.524
51.48000 1.015
51.50000 6.218
51.52000 3.566
51.54000 1.663
51.56000 3.482
51.58000 4.374
51.60000 1.474
51.62000 2.657
51.64000 -0.302
51.66000 1.050
51.68000 2.506
51.70000 -0.255
51.72000 3.530
51.74000 -0.038
51.76000 3.213
51.78000 0.742
51.80000 -2.780
51.82000 0.930
51.84000 2.084
51.86000 1.421
51.88000 -1.104
51.90000 5.167
51.92000 2.239
51.94000 0.802
51.96000 2.418
51.98000 4.985
52.00000 4.844
52.02000 5.451
52.04000 -2.772
52.06000 0.061
52.08000 2.104
52.10000 3.609
52.12000 2.003
52.14000 -1.758
52.16000 2.263
52.18000 0.836
52.20000 1.588
52.22000 2.573
52.24000 7.011
52.26000 7.022
52.28000 2.507
52.30000 2.081
52.32000 4.473
52.34000 3.494
52.36000 2.505
52.38000 -1.308
52.40000 5.374
52.42000 3.567
52.44000 2.171
52.46000 0.947
52.48000 2.893
52.50000 -2.755
52.52000 0.143
52.54000 0.220
52.56000 -0.559
52.58000 3.218
52.60000 6.316
52.62000 -0.877
52.64000 -0.285
52.66000 -0.082
52.68000 1.000
52.70000 -0.300
52.72000 1.833
52.74000 2.039
52.76000 4.931
52.78000 3.971
52.80000 6.210
52.82000 4.650
52.84000 1.011
52.86000 1.132
52.88000 1.469
52.90000 3.018
52.92000 5.678
52.94000 3.318
52.96000 1.602
52.98000 4.496
53.00000 4.135
53.02000 6.795
53.04000 5.246
53.06000 3.655
53.08000 5.061
53.10000 8.140
53.12000 5.487
53.14000 2.195
53.16000 0.521
53.18000 2.227
53.20000 4.082
53.22000 3.257
53.24000 4.267
53.26000 3.851
53.28000 2.331
53.30000 4.194
53.32000 4.793
53.34000 3.906
53.36000 4.332
53.38000 3.708
53.40000 1.301
53.42000 1.793
53.44000 -0.862
53.46000 1.768
53.48000 1.422
53.50000 1.871
53.52000 3.775
53.54000 6.990
53.56000 4.602
53.58000 1.587
53.60000 -2.379
53.62000 -2.694
53.64000 1.093
53.66000 -0.411
53.68000 0.089
53.70000 -0.199
53.72000 -2.686
53.74000 0.176
53.76000 1.423
53.78000 -2.258
53.80000 3.694
53.82000 2.566
53.84000 5.140
53.86000 4.999
53.88000 6.580
53.90000 11.433
53.92000 2.558
53.94000 3.363
53.96000 3.897
53.98000 6.325
54.00000 7.302
54.02000 6.641
54.04000 1.547
54.06000 0.297
54.08000 0.927
54.10000 2.218
54.12000 3.506
54.14000 4.918
54.16000 2.596
54.18000 -0.515
54.20000 5.640
54.22000 5.570
54.24000 5.697
54.26000 5.912
54.28000 4.214
54.30000 -0.090
54.32000 0.067
54.34000 -0.156
54.36000 2.522
54.38000 3.287
54.40000 4.411
54.42000 2.902
54.44000 -0.965
54.46000 -0.971
54.48000 2.910
54.50000 1.299
54.52000 -0.743
54.54000 1.833
54.56000 2.821
54.58000 4.985
54.60000 2.651
54.62000 4.663
54.64000 1.752
54.66000 0.814
54.68000 1.520
54.70000 1.600
54.72000 4.501
54.74000 3.955
54.76000 -2.683
54.78000 -2.385
54.80000 2.014
54.82000 -0.063
54.84000 1.095
54.86000 4.003
54.88000 -0.144
54.90000 0.725
54.92000 1.648
54.94000 -2.016
54.96000 2.340
54.98000 2.810
55.00000 -0.448
55.02000 0.917
55.04000 2.567
55.06000 3.087
55.08000 4.833
55.10000 5.372
55.12000 4.560
55.14000 6.322
55.16000 3.584
55.18000 2.850
55.20000 4.566
55.22000 1.363
55.24000 1.112
55.26000 4.016
55.28000 -0.771
55.30000 -2.520
55.32000 1.255
55.34000 1.208
55.36000 -1.531
55.38000 5.644
55.40000 3.791
55.42000 -0.880
55.44000 5.713
55.46000 5.334
55.48000 3.994
55.50000 5.996
55.52000 3.174
55.54000 0.779
55.56000 5.898
55.58000 2.455
55.60000 -0.254
55.62000 -1.605
55.64000 2.239
55.66000 2.379
55.68000 2.466
55.70000 6.590
55.72000 4.727
55.74000 1.508
55.76000 4.122
55.78000 4.900
55.80000 2.684
55.82000 2.560
55.84000 4.896
55.86000 5.068
55.88000 1.340
55.90000 1.389
55.92000 -2.609
55.94000 -0.339
55.96000 1.715
55.98000 2.441
56.00000 3.272
56.02000 -0.986
56.04000 2.025
56.06000 1.472
56.08000 2.589
56.10000 5.429
56.12000 7.219
56.14000 5.538
56.16000 4.999
56.18000 3.471
56.20000 4.542
56.22000 11.188
56.24000 7.328
56.26000 4.784
56.28000 4.488
56.30000 2.561
56.32000 5.968
56.34000 3.014
56.36000 5.763
56.38000 5.160
56.40000 3.944
56.42000 -0.854
56.44000 -0.115
56.46000 4.455
56.48000 4.138
56.50000 3.506
56.52000 2.914
56.54000 3.155
56.56000 7.578
56.58000 4.764
56.60000 6.661
56.62000 6.531
56.64000 0.816
56.66000 4.108
56.68000 4.250
56.70000 5.466
56.72000 5.308
56.74000 3.160
56.76000 1.865
56.78000 2.540
56.80000 6.428
56.82000 7.360
56.84000 2.512
56.86000 2.857
56.88000 3.984
56.90000 2.898
56.92000 2.215
56.94000 0.306
56.96000 1.816
56.98000 2.916
57.00000 -2.613
57.02000 0.209
57.04000 0.590
57.06000 1.728
57.08000 1.391
57.10000 4.691
57.12000 2.394
57.14000 4.564
57.16000 3.402
57.18000 4.206
57.20000 -0.625
57.22000 0.513
57.24000 2.084
57.26000 4.853
57.28000 4.659
57.30000 1.531
57.32000 2.562
57.34000 2.514
57.36000 5.615
57.38000 6.171
57.40000 6.909
57.42000 6.129
57.44000 4.904
57.46000 2.384
57.48000 2.000
57.50000 0.531
57.52000 2.461
57.54000 3.916
57.56000 6.702
57.58000 5.837
57.60000 3.865
57.62000 6.983
57.64000 6.443
57.66000 5.580
57.68000 3.481
57.70000 1.791
57.72000 -0.912
57.74000 -0.344
57.76000 0.797
57.78000 2.435
57.80000 -2.590
57.82000 -1.135
57.84000 4.005
57.86000 1.233
57.88000 2.287
57.90000 4.988
57.92000 4.392
57.94000 4.283
57.96000 2.413
57.98000 9.095
58.00000 4.789
58.02000 4.331
58.04000 4.627
58.06000 -1.634
58.08000 -0.404
58.10000 2.980
58.12000 4.425
58.14000 2.020
58.16000 1.154
58.18000 -1.758
58.20000 -0.488
58.22000 1.899
58.24000 4.793
58.26000 3.116
58.28000 6.885
58.30000 5.525
58.32000 3.212
58.34000 4.593
58.36000 3.178
58.38000 2.478
58.40000 4.268
58.42000 8.063
58.44000 8.271
58.46000 6.167
58.48000 1.693
58.50000 -2.547
58.52000 0.232
58.54000 5.712
58.56000 5.714
58.58000 7.439
58.60000 0.363
58.62000 0.255
58.64000 4.449
58.66000 6.917
58.68000 2.206
58.70000 5.040
58.72000 2.790
58.74000 3.788
58.76000 6.046
58.78000 6.065
58.80000 4.688
58.82000 1.680
58.84000 -0.262
58.86000 0.978
58.88000 0.416
58.90000 -0.148
58.92000 2.127
58.94000 2.911
58.96000 3.424
58.98000 6.413
59.00000 0.323
59.02000 0.556
59.04000 1.925
59.06000 4.417
59.08000 2.256
59.10000 1.011
59.12000 0.020
59.14000 3.349
59.16000 -1.532
59.18000 -0.020
59.20000 2.028
59.22000 3.205
59.24000 4.795
59.26000 5.706
59.28000 4.520
59.30000 0.462
59.32000 -2.289
59.34000 1.482
59.36000 -0.112
59.38000 3.175
59.40000 1.609
59.42000 2.098
59.44000 4.183
59.46000 4.856
59.48000 7.481
59.50000 2.368
59.52000 5.920
59.54000 3.452
59.56000 1.903
59.58000 -1.367
59.60000 0.105
59.62000 1.102
59.64000 -2.529
59.66000 1.927
59.68000 4.789
59.70000 1.305
59.72000 -0.396
59.74000 -0.688
59.76000 1.739
59.78000 1.877
59.80000 5.851
59.82000 3.156
59.84000 2.362
59.86000 0.781
59.88000 -2.527
59.90000 -0.876
59.92000 4.413
59.94000 3.385
59.96000 0.883
59.98000 1.229
60.00000 -0.039
60.02000 -0.708
60.04000 0.145
60.06000 -1.589
60.08000 0.688
60.10000 2.568
60.12000 -0.487
60.14000 1.982
60.16000 2.458
60.18000 5.115
60.20000 3.099
60.22000 0.035
60.24000 -0.346
60.26000 -2.532
60.28000 -2.199
60.30000 -0.627
60.32000 2.799
60.34000 5.054
60.36000 4.482
60.38000 1.046
60.40000 2.141
60.42000 2.271
60.44000 0.921
60.46000 0.373
60.48000 -1.418
60.50000 -1.995
60.52000 -1.058
60.54000 1.182
60.56000 1.582
60.58000 0.568
60.60000 -0.740
60.62000 -0.936
60.64000 0.149
60.66000 3.491
60.68000 0.700
60.70000 -1.372
60.72000 2.224
60.74000 3.580
60.76000 0.630
60.78000 3.174
60.80000 2.248
60.82000 3.572
60.84000 5.206
60.86000 6.923
60.88000 2.225
60.90000 0.736
60.92000 4.212
60.94000 3.340
60.96000 3.698
60.98000 4.519
61.00000 -1.508
61.02000 -0.574
61.04000 -0.595
61.06000 -1.654
61.08000 -0.928
61.10000 -0.739
61.12000 2.123
61.14000 2.627
61.16000 2.379
61.18000 0.646
61.20000 0.221
61.22000 0.193
61.24000 1.278
61.26000 2.620
61.28000 3.753
61.30000 -1.402
61.32000 -1.478
61.34000 3.312
61.36000 1.182
61.38000 1.225
61.40000 -0.193
61.42000 -2.492
61.44000 0.186
61.46000 -1.575
61.48000 -2.024
61.50000 0.203
61.52000 2.269
61.54000 5.694
61.56000 3.757
61.58000 3.069
61.60000 1.604
61.62000 2.794
61.64000 3.959
61.66000 2.489
61.68000 4.946
61.70000 1.130
61.72000 2.768
61.74000 2.474
61.76000 2.934
61.78000 1.846
61.80000 1.956
61.82000 0.451
61.84000 -2.048
61.86000 -2.474
61.88000 -1.024
61.90000 3.080
61.92000 4.837
61.94000 4.584
61.96000 1.668
61.98000 -1.791
62.00000 -1.566
62.02000 0.228
62.04000 1.894
62.06000 4.292
62.08000 7.316
62.10000 5.058
62.12000 1.251
62.14000 0.606
62.16000 4.283
62.18000 3.356
62.20000 5.503
62.22000 2.290
62.24000 1.174
62.26000 -1.689
62.28000 0.434
62.30000 1.609
62.32000 -0.224
62.34000 2.566
62.36000 1.357
62.38000 1.421
62.40000 1.722
62.42000 1.108
62.44000 -0.488
62.46000 0.363
62.48000 2.530
62.50000 0.890
62.52000 4.669
62.54000 2.129
62.56000 1.493
62.58000 -0.804
62.60000 2.800
62.62000 4.079
62.64000 2.851
62.66000 2.698
62.68000 2.106
62.70000 4.823
62.72000 1.682
62.74000 1.431
62.76000 1.734
62.78000 1.127
62.80000 3.652
62.82000 1.138
62.84000 1.005
62.86000 -0.578
62.88000 2.782
62.90000 5.416
62.92000 3.358
62.94000 1.985
62.96000 1.782
62.98000 6.996
63.00000 8.405
63.02000 2.868
63.04000 -1.149
63.06000 1.574
63.08000 1.532
63.10000 2.232
63.12000 2.790
63.14000 1.418
63.16000 1.869
63.18000 4.296
63.20000 2.606
63.22000 2.246
63.24000 5.356
63.26000 0.197
63.28000 -2.446
63.30000 -2.265
63.32000 0.153
63.34000 4.587
63.36000 6.463
63.38000 8.489
63.40000 5.605
63.42000 3.502
63.44000 0.750
63.46000 4.189
63.48000 2.311
63.50000 1.936
63.52000 0.852
63.54000 -0.156
63.56000 -0.143
63.58000 5.307
63.60000 4.805
63.62000 1.828
63.64000 3.887
63.66000 2.906
63.68000 3.220
63.70000 2.199
63.72000 -2.456
63.74000 -0.002
63.76000 6.937
63.78000 1.281
63.80000 3.848
63.82000 5.163
63.84000 2.612
63.86000 4.663
63.88000 1.415
63.90000 2.314
63.92000 1.317
63.94000 3.225
63.96000 2.029
63.98000 3.853
64.00000 3.294
64.02000 3.458
64.04000 2.972
64.06000 3.319
64.08000 2.826
64.10000 2.753
64.12000 5.891
64.14000 7.758
64.16000 0.781
64.18000 1.650
64.20000 3.828
64.22000 4.698
64.24000 3.168
64.26000 3.896
64.28000 3.929
64.30000 -0.754
64.32000 -0.367
64.34000 4.498
64.36000 4.296
64.38000 4.614
64.40000 6.367
64.42000 3.319
64.44000 3.375
64.46000 3.983
64.48000 2.095
64.50000 0.590
64.52000 5.371
64.54000 6.971
64.56000 3.458
64.58000 2.476
64.60000 -0.187
64.62000 -0.830
64.64000 2.353
64.66000 4.293
64.68000 5.665
64.70000 2.318
64.72000 1.361
64.74000 1.771
64.76000 1.687
64.78000 5.339
64.80000 5.328
64.82000 3.826
64.84000 -0.242
64.86000 1.178
64.88000 1.048
64.90000 -0.449
64.92000 1.409
64.94000 -0.298
64.96000 2.224
64.98000 2.572
65.00000 -2.465
65.02000 0.481
65.04000 2.551
65.06000 2.416
65.08000 1.736
65.10000 3.733
65.12000 3.962
65.14000 2.347
65.16000 4.273
65.18000 0.587
65.20000 2.950
65.22000 2.919
65.24000 2.845
65.26000 2.020
65.28000 3.140
65.30000 5.167
65.32000 3.264
65.34000 0.099
65.36000 5.648
65.38000 3.534
65.40000 2.174
65.42000 0.603
65.44000 2.775
65.46000 3.194
65.48000 5.256
65.50000 3.673
65.52000 4.594
65.54000 2.984
65.56000 5.747
65.58000 3.635
65.60000 3.367
65.62000 1.851
65.64000 -0.509
65.66000 1.131
65.68000 4.025
65.70000 0.835
65.72000 -0.249
65.74000 -0.988
65.76000 0.870
65.78000 0.958
65.80000 -0.597
65.82000 2.106
65.84000 2.706
65.86000 2.394
65.88000 4.219
65.90000 2.122
65.92000 0.783
65.94000 1.480
65.96000 -1.713
65.98000 1.196
66.00000 1.239
66.02000 1.926
66.04000 2.874
66.06000 1.773
66.08000 -2.521
66.10000 -0.937
66.12000 -0.608
66.14000 -1.009
66.16000 4.275
66.18000 3.146
66.20000 -0.664
66.22000 0.826
66.24000 1.188
66.26000 0.660
66.28000 3.031
66.30000 4.672
66.32000 3.461
66.34000 1.551
66.36000 3.352
66.38000 1.047
66.40000 3.240
66.42000 2.341
66.44000 1.610
66.46000 2.217
66.48000 5.456
66.50000 2.613
66.52000 0.302
66.54000 1.645
66.56000 2.996
66.58000 -2.559
66.60000 -1.942
66.62000 -0.419
66.64000 4.781
66.66000 4.236
66.68000 -0.503
66.70000 2.482
66.72000 2.253
66.74000 1.985
66.76000 4.882
66.78000 3.845
66.80000 -2.343
66.82000 2.270
66.84000 1.633
66.86000 4.512
66.88000 0.180
66.90000 1.932
66.92000 4.510
66.94000 3.498
66.96000 2.579
66.98000 2.566
67.00000 2.145
67.02000 10.026
67.04000 6.089
67.06000 3.931
67.08000 6.160
67.10000 6.382
67.12000 7.190
67.14000 6.316
67.16000 7.580
67.18000 8.243
67.20000 5.823
67.22000 7.312
67.24000 9.671
67.26000 7.742
67.28000 4.338
67.30000 4.640
67.32000 7.277
67.34000 8.637
67.36000 6.124
67.38000 10.299
67.40000 11.947
67.42000 11.522
67.44000 9.121
67.46000 9.751
67.48000 10.656
67.50000 11.356
67.52000 11.004
67.54000 9.917
67.56000 13.734
67.58000 11.766
67.60000 11.541
67.62000 13.949
67.64000 16.676
67.66000 11.269
67.68000 11.214
67.70000 11.820
67.72000 13.167
67.74000 17.891
67.76000 18.111
67.78000 17.510
67.80000 18.639
67.82000 14.002
67.84000 14.557
67.86000 18.080
67.88000 14.246
67.90000 14.991
67.92000 18.335
67.94000 17.684
67.96000 17.256
67.98000 18.213
68.00000 23.338
68.02000 21.064
68.04000 18.112
68.06000 19.486
68.08000 20.367
68.10000 19.836
68.12000 18.474
68.14000 17.999
68.16000 18.182
68.18000 18.531
68.20000 19.712
68.22000 20.270
68.24000 22.419
68.26000 23.806
68.28000 23.429
68.30000 20.426
68.32000 21.382
68.34000 17.334
68.36000 21.076
68.38000 22.274
68.40000 18.749
68.42000 17.004
68.44000 16.812
68.46000 16.789
68.48000 16.002
68.50000 15.396
68.52000 14.429
68.54000 14.292
68.56000 12.877
68.58000 11.484
68.60000 12.111
68.62000 14.365
68.64000 14.984
68.66000 15.046
68.68000 14.388
68.70000 9.453
68.72000 8.900
68.74000 9.585
68.76000 13.017
68.78000 12.122
68.80000 8.566
68.82000 10.877
68.84000 9.684
68.86000 10.458
68.88000 8.375
68.90000 8.905
68.92000 7.679
68.94000 7.119
68.96000 7.704
68.98000 7.785
69.00000 7.857
69.02000 6.095
69.04000 5.813
69.06000 6.399
69.08000 9.432
69.10000 6.843
69.12000 5.115
69.14000 3.183
69.16000 6.914
69.18000 8.055
69.20000 7.653
69.22000 3.360
69.24000 3.703
69.26000 4.173
69.28000 2.882
69.30000 3.675
69.32000 2.141
69.34000 3.731
69.36000 1.159
69.38000 1.900
69.40000 2.863
69.42000 1.618
69.44000 0.816
69.46000 2.482
69.48000 2.155
69.50000 1.625
69.52000 -1.277
69.54000 -2.137
69.56000 -0.265
69.58000 2.734
69.60000 4.690
69.62000 7.645
69.64000 6.605
69.66000 2.429
69.68000 1.783
69.70000 1.043
69.72000 -1.730
69.74000 3.635
69.76000 6.596
69.78000 4.107
69.80000 1.466
69.82000 0.695
69.84000 0.861
69.86000 2.467
69.88000 1.826
69.90000 0.434
69.92000 -0.210
69.94000 0.665
69.96000 1.202
69.98000 -2.392
70.00000 -0.465
70.02000 0.729
70.04000 1.951
70.06000 1.470
70.08000 3.203
70.10000 5.062
70.12000 1.329
70.14000 -2.387
70.16000 -0.419
70.18000 4.706
70.20000 5.169
70.22000 3.056
70.24000 2.416
70.26000 1.541
70.28000 0.271
70.30000 0.457
70.32000 2.382
70.34000 2.895
70.36000 2.788
70.38000 3.731
70.40000 4.524
70.42000 5.867
70.44000 3.530
70.46000 1.284
70.48000 2.820
70.50000 3.591
70.52000 4.971
70.54000 0.707
70.56000 0.368
70.58000 0.002
70.60000 2.378
70.62000 2.458
70.64000 1.141
70.66000 1.398
70.68000 0.384
70.70000 1.574
70.72000 0.696
70.74000 -0.863
70.76000 -2.385
70.78000 2.714
70.80000 4.290
70.82000 2.497
70.84000 3.015
70.86000 3.193
70.88000 0.449
70.90000 1.708
70.92000 2.592
70.94000 1.100
70.96000 1.810
70.98000 3.127
71.00000 2.391
71.02000 8.016
71.04000 3.771
71.06000 0.186
71.08000 3.749
71.10000 6.467
71.12000 1.461
71.14000 0.843
71.16000 1.323
71.18000 2.231
71.20000 6.932
71.22000 2.886
71.24000 3.986
71.26000 3.488
71.28000 -0.853
71.30000 -0.730
71.32000 1.022
71.34000 2.334
71.36000 0.738
71.38000 0.259
71.40000 0.560
71.42000 1.298
71.44000 2.593
71.46000 2.762
71.48000 -0.827
71.50000 -1.782
71.52000 -0.560
71.54000 -2.059
71.56000 0.007
71.58000 3.391
71.60000 -0.729
71.62000 0.157
71.64000 -2.333
71.66000 0.448
71.68000 2.566
71.70000 6.728
71.72000 6.595
71.74000 2.315
71.76000 3.391
71.78000 2.690
71.80000 0.293
71.82000 0.342
71.84000 0.042
71.86000 0.031
71.88000 -2.124
71.90000 -2.344
71.92000 1.912
71.94000 0.104
71.96000 -1.752
71.98000 1.540
72.00000 3.344
72.02000 -1.869
72.04000 0.504
72.06000 2.244
72.08000 -1.524
72.10000 -0.679
72.12000 3.536
72.14000 -0.063
72.16000 -0.026
72.18000 0.171
72.20000 -1.879
72.22000 -2.304
72.24000 0.761
72.26000 -2.365
72.28000 -1.515
72.30000 2.175
72.32000 0.633
72.34000 -2.074
72.36000 0.571
72.38000 4.386
72.40000 3.895
72.42000 4.052
72.44000 -0.856
72.46000 0.864
72.48000 -1.569
72.50000 -0.287
72.52000 -1.757
72.54000 -1.205
72.56000 1.865
72.58000 -0.204
72.60000 -0.426
72.62000 1.973
72.64000 -1.625
72.66000 -1.975
72.68000 0.017
72.70000 2.470
72.72000 2.287
72.74000 5.562
72.76000 1.487
72.78000 4.247
72.80000 3.740
72.82000 4.758
72.84000 3.031
72.86000 1.759
72.88000 0.081
72.90000 0.798
72.92000 3.661
72.94000 4.624
72.96000 0.618
72.98000 0.917
73.00000 -0.391
73.02000 0.742
73.04000 0.457
73.06000 -1.520
73.08000 0.193
73.10000 2.193
73.12000 2.539
73.14000 1.295
73.16000 4.338
73.18000 2.984
73.20000 2.162
73.22000 -2.341
73.24000 0.813
73.26000 -0.447
73.28000 0.483
73.30000 3.318
73.32000 8.543
73.34000 0.708
73.36000 3.202
73.38000 1.807
73.40000 0.121
73.42000 0.475
73.44000 0.025
73.46000 0.569
73.48000 0.692
73.50000 -0.325
73.52000 0.618
73.54000 2.863
73.56000 4.282
73.58000 5.165
73.60000 4.100
73.62000 3.512
73.64000 4.039
73.66000 6.337
73.68000 2.608
73.70000 -0.648
73.72000 0.547
73.74000 2.801
73.76000 0.661
73.78000 5.541
73.80000 4.702
73.82000 4.553
73.84000 -2.298
73.86000 -0.617
73.88000 2.444
73.90000 4.405
73.92000 7.162
73.94000 6.140
73.96000 2.547
73.98000 3.349
74.00000 1.941
74.02000 5.513
74.04000 6.202
74.06000 2.004
74.08000 2.612
74.10000 0.034
74.12000 -2.304
74.14000 0.924
74.16000 1.417
74.18000 1.933
74.20000 1.815
74.22000 1.670
74.24000 1.989
74.26000 0.935
74.28000 2.072
74.30000 -1.726
74.32000 1.248
74.34000 4.410
74.36000 2.882
74.38000 4.813
74.40000 1.631
74.42000 4.746
74.44000 5.259
74.46000 7.069
74.48000 5.156
74.50000 3.293
74.52000 3.375
74.54000 1.342
74.56000 -1.892
74.58000 0.944
74.60000 4.147
74.62000 3.035
74.64000 -0.876
74.66000 3.525
74.68000 9.623
74.70000 3.323
74.72000 -2.071
74.74000 0.278
74.76000 1.503
74.78000 0.324
74.80000 0.753
74.82000 -0.622
74.84000 1.464
74.86000 -0.706
74.88000 1.186
74.90000 6.013
74.92000 6.096
74.94000 1.005
74.96000 2.749
74.98000 3.091
75.00000 1.843
75.02000 -0.761
75.04000 -2.284
75.06000 -0.164
75.08000 5.828
75.10000 5.353
75.12000 3.758
75.14000 6.096
75.16000 5.730
75.18000 4.965
75.20000 -2.282
75.22000 -0.266
75.24000 3.075
75.26000 3.220
75.28000 2.171
75.30000 1.679
75.32000 0.230
75.34000 2.579
75.36000 5.291
75.38000 8.270
75.40000 6.738
75.42000 3.752
75.44000 -0.688
75.46000 -0.145
75.48000 3.061
75.50000 5.297
75.52000 1.717
75.54000 4.147
75.56000 1.964
75.58000 4.379
75.60000 4.862
75.62000 2.297
75.64000 6.311
75.66000 3.285
75.68000 1.068
75.70000 5.259
75.72000 5.956
75.74000 4.066
75.76000 4.205
75.78000 -2.310
75.80000 -0.913
75.82000 1.697
75.84000 0.559
75.86000 2.536
75.88000 1.492
75.90000 -0.210
75.92000 2.314
75.94000 2.777
75.96000 3.224
75.98000 0.335
76.00000 6.272
76.02000 1.150
76.04000 1.390
76.06000 0.334
76.08000 -2.316
76.10000 1.391
76.12000 6.607
76.14000 7.345
76.16000 3.399
76.18000 2.498
76.20000 5.579
76.22000 3.223
76.24000 0.983
76.26000 1.590
76.28000 -0.084
76.30000 2.897
76.32000 1.107
76.34000 3.271
76.36000 2.016
76.38000 0.271
76.40000 2.290
76.42000 3.061
76.44000 1.301
76.46000 -0.638
76.48000 1.567
76.50000 -0.505
76.52000 1.594
76.54000 0.558
76.56000 5.726
76.58000 6.085
76.60000 0.480
76.62000 -1.137
76.64000 0.690
76.66000 1.845
76.68000 2.288
76.70000 4.053
76.72000 4.988
76.74000 1.050
76.76000 3.040
76.78000 -1.325
76.80000 1.544
76.82000 5.633
76.84000 1.469
76.86000 2.802
76.88000 5.301
76.90000 2.249
76.92000 5.879
76.94000 4.223
76.96000 -1.071
76.98000 -0.372
77.00000 5.258
77.02000 4.266
77.04000 0.855
77.06000 5.201
77.08000 4.918
77.10000 -0.331
77.12000 2.174
77.14000 3.776
77.16000 0.122
77.18000 5.116
77.20000 4.825
77.22000 4.694
77.24000 5.289
77.26000 5.590
77.28000 1.302
77.30000 1.353
77.32000 4.447
77.34000 3.750
77.36000 -0.634
77.38000 0.208
77.40000 -2.309
77.42000 -2.006
77.44000 5.767
77.46000 2.756
77.48000 2.284
77.50000 3.089
77.52000 1.564
77.54000 1.400
77.56000 1.514
77.58000 0.779
77.60000 -0.446
77.62000 2.163
77.64000 1.619
77.66000 3.707
77.68000 1.176
77.70000 -2.315
77.72000 4.802
77.74000 2.603
77.76000 7.576
77.78000 7.004
77.80000 4.492
77.82000 2.385
77.84000 3.722
77.86000 4.047
77.88000 3.174
77.90000 6.727
77.92000 4.686
77.94000 3.211
77.96000 4.240
77.98000 0.529
78.00000 0.047
78.02000 4.210
78.04000 6.032
78.06000 4.975
78.08000 3.973
78.10000 3.867
78.12000 -0.408
78.14000 2.134
78.16000 1.063
78.18000 1.369
78.20000 1.948
78.22000 6.498
78.24000 7.628
78.26000 6.369
78.28000 3.787
78.30000 3.466
78.32000 1.604
78.34000 -0.809
78.36000 -2.317
78.38000 1.042
78.40000 0.531
78.42000 3.979
78.44000 2.774
78.46000 0.300
78.48000 1.636
78.50000 1.172
78.52000 2.230
78.54000 2.951
78.56000 3.237
78.58000 2.063
78.60000 0.562
78.62000 0.449
78.64000 2.242
78.66000 1.654
78.68000 0.377
78.70000 1.714
78.72000 3.680
78.74000 2.793
78.76000 6.407
78.78000 5.719
78.80000 6.604
78.82000 9.314
78.84000 3.590
78.86000 -1.165
78.88000 -1.514
78.90000 2.594
78.92000 1.839
78.94000 3.017
78.96000 5.447
78.98000 6.942
79.00000 5.142
79.02000 0.425
79.04000 3.135
79.06000 3.296
79.08000 -0.385
79.10000 -0.534
79.12000 1.064
79.14000 2.685
79.16000 3.229
79.18000 1.163
79.20000 1.298
79.22000 2.113
79.24000 2.225
79.26000 -0.153
79.28000 1.205
79.30000 2.664
79.32000 3.611
79.34000 1.797
79.36000 0.721
79.38000 1.204
79.40000 3.770
79.42000 -1.681
79.44000 -1.580
79.46000 1.660
79.48000 -2.040
79.50000 -2.402
79.52000 2.050
79.54000 2.283
79.56000 3.207
79.58000 1.702
79.60000 4.189
79.62000 3.405
79.64000 4.939
79.66000 4.796
79.68000 3.186
79.70000 -0.862
79.72000 2.356
79.74000 1.594
79.76000 5.164
79.78000 7.580
79.80000 7.811
79.82000 8.545
79.84000 7.208
79.86000 6.030
79.88000 3.731
79.90000 3.192
79.92000 1.947
79.94000 4.003
79.96000 -0.534
79.98000 2.574
80.00000 5.393
80.02000 6.229
80.04000 4.070
80.06000 3.432
80.08000 1.072
80.10000 -1.070
80.12000 0.931
80.14000 2.703
80.16000 3.291
80.18000 2.087
80.20000 1.645
80.22000 0.826
80.24000 6.443
80.26000 6.038
80.28000 4.166
80.30000 2.860
80.32000 2.679
80.34000 7.045
80.36000 8.355
80.38000 6.492
80.40000 11.279
80.42000 5.976
80.44000 5.663
80.46000 2.001
80.48000 1.891
80.50000 9.670
80.52000 0.578
80.54000 -2.463
80.56000 3.240
80.58000 6.415
80.60000 12.882
80.62000 9.428
80.64000 5.275
80.66000 9.193
80.68000 7.973
80.70000 2.975
80.72000 0.780
80.74000 5.895
80.76000 5.336
80.78000 3.646
80.80000 4.345
80.82000 4.440
80.84000 3.588
80.86000 2.146
80.88000 1.547
80.90000 4.936
80.92000 7.725
80.94000 7.889
80.96000 7.992
80.98000 8.772
81.00000 6.865
81.02000 7.235
81.04000 7.365
81.06000 14.506
81.08000 11.176
81.10000 13.315
81.12000 13.366
81.14000 5.652
81.16000 6.892
81.18000 10.756
81.20000 8.580
81.22000 3.602
81.24000 5.439
81.26000 12.617
81.28000 12.215
81.30000 8.731
81.32000 12.270
81.34000 13.210
81.36000 8.173
81.38000 14.561
81.40000 9.308
81.42000 14.674
81.44000 15.644
81.46000 12.538
81.48000 11.870
81.50000 9.917
81.52000 9.825
81.54000 14.427
81.56000 14.893
81.58000 15.968
81.60000 17.719
81.62000 17.899
81.64000 19.688
81.66000 19.891
81.68000 18.205
81.70000 23.302
81.72000 23.421
81.74000 17.287
81.76000 19.676
81.78000 19.870
81.80000 18.265
81.82000 18.478
81.84000 24.285
81.86000 23.696
81.88000 23.462
81.90000 24.420
81.92000 22.799
81.94000 19.699
81.96000 24.911
81.98000 22.572
82.00000 23.857
82.02000 23.372
82.04000 23.909
82.06000 21.632
82.08000 23.581
82.10000 23.730
82.12000 24.936
82.14000 26.782
82.16000 29.332
82.18000 26.494
82.20000 27.908
82.22000 30.786
82.24000 31.431
82.26000 28.233
82.28000 28.278
82.30000 22.100
82.32000 22.041
82.34000 21.171
82.36000 23.552
82.38000 26.826
82.40000 25.446
82.42000 25.744
82.44000 26.603
82.46000 28.322
82.48000 26.179
82.50000 22.475
82.52000 22.568
82.54000 16.412
82.56000 19.629
82.58000 24.323
82.60000 31.052
82.62000 25.395
82.64000 20.894
82.66000 23.832
82.68000 20.043
82.70000 18.350
82.72000 20.206
82.74000 22.746
82.76000 21.483
82.78000 23.290
82.80000 23.807
82.82000 23.674
82.84000 21.551
82.86000 19.592
82.88000 22.738
82.90000 21.558
82.92000 19.771
82.94000 24.600
82.96000 26.024
82.98000 17.544
83.00000 12.968
83.02000 9.739
83.04000 9.927
83.06000 14.187
83.08000 17.330
83.10000 20.523
83.12000 18.448
83.14000 13.244
83.16000 10.142
83.18000 12.136
83.20000 10.581
83.22000 14.376
83.24000 13.006
83.26000 9.627
83.28000 8.680
83.30000 12.229
83.32000 11.690
83.34000 13.093
83.36000 10.366
83.38000 8.488
83.40000 8.493
83.42000 7.243
83.44000 6.154
83.46000 10.078
83.48000 13.118
83.50000 10.909
83.52000 7.940
83.54000 7.975
83.56000 11.642
83.58000 3.582
83.60000 -1.154
83.62000 1.855
83.64000 5.299
83.66000 4.355
83.68000 0.403
83.70000 4.937
83.72000 6.738
83.74000 2.458
83.76000 4.792
83.78000 6.360
83.80000 5.504
83.82000 3.468
83.84000 1.697
83.86000 5.575
83.88000 8.046
83.90000 7.363
83.92000 4.041
83.94000 7.404
83.96000 6.754
83.98000 1.409
84.00000 4.123
84.02000 -0.756
84.04000 -2.457
84.06000 -0.307
84.08000 4.121
84.10000 6.501
84.12000 1.622
84.14000 -0.114
84.16000 2.256
84.18000 6.103
84.20000 9.044
84.22000 8.739
84.24000 6.892
84.26000 4.506
84.28000 1.595
84.30000 5.387
84.32000 4.372
84.34000 5.039
84.36000 5.992
84.38000 11.317
84.40000 5.256
84.42000 -0.608
84.44000 3.045
84.46000 6.201
84.48000 4.366
84.50000 4.314
84.52000 5.014
84.54000 1.458
84.56000 2.505
84.58000 2.657
84.60000 2.728
84.62000 -2.376
84.64000 -0.775
84.66000 3.355
84.68000 8.766
84.70000 8.809
84.72000 10.800
84.74000 10.832
84.76000 7.115
84.78000 3.893
84.80000 2.442
84.82000 0.518
84.84000 -1.585
84.86000 2.311
84.88000 6.137
84.90000 5.628
84.92000 2.725
84.94000 2.746
84.96000 6.396
84.98000 3.826
85.00000 3.990
85.02000 1.990
85.04000 4.842
85.06000 3.441
85.08000 3.170
85.10000 2.868
85.12000 3.383
85.14000 1.659
85.16000 -1.944
85.18000 1.278
85.20000 4.903
85.22000 5.396
85.24000 6.352
85.26000 3.757
85.28000 2.261
85.30000 3.410
85.32000 3.506
85.34000 2.639
85.36000 -0.124
85.38000 1.291
85.40000 6.872
85.42000 5.241
85.44000 6.452
85.46000 7.168
85.48000 2.444
85.50000 5.428
85.52000 7.573
85.54000 7.636
85.56000 5.814
85.58000 0.912
85.60000 4.651
85.62000 7.378
85.64000 9.593
85.66000 6.646
85.68000 4.485
85.70000 8.428
85.72000 6.558
85.74000 8.770
85.76000 6.048
85.78000 7.226
85.80000 10.075
85.82000 14.270
85.84000 12.693
85.86000 12.883
85.88000 11.398
85.90000 9.085
85.92000 8.528
85.94000 9.126
85.96000 13.765
85.98000 13.925
86.00000 15.961
86.02000 15.366
86.04000 12.441
86.06000 14.332
86.08000 17.405
86.10000 17.806
86.12000 15.545
86.14000 19.312
86.16000 21.336
86.18000 16.012
86.20000 18.078
86.22000 17.215
86.24000 13.346
86.26000 12.969
86.28000 21.496
86.30000 21.503
86.32000 20.412
86.34000 21.362
86.36000 20.860
86.38000 22.618
86.40000 24.648
86.42000 21.603
86.44000 24.204
86.46000 25.756
86.48000 25.140
86.50000 21.049
86.52000 21.439
86.54000 25.037
86.56000 22.153
86.58000 21.060
86.60000 21.193
86.62000 22.047
86.64000 21.370
86.66000 21.439
86.68000 19.654
86.70000 24.059
86.72000 21.473
86.74000 20.690
86.76000 19.956
86.78000 19.854
86.80000 23.232
86.82000 24.892
86.84000 24.532
86.86000 17.551
86.88000 16.719
86.90000 16.018
86.92000 18.503
86.94000 15.951
86.96000 20.503
86.98000 19.098
87.00000 13.067
87.02000 13.464
87.04000 14.303
87.06000 15.705
87.08000 11.366
87.10000 11.419
87.12000 16.553
87.14000 16.881
87.16000 14.051
87.18000 14.402
87.20000 10.880
87.22000 10.013
87.24000 8.227
87.26000 8.839
87.28000 11.116
87.30000 14.632
87.32000 16.157
87.34000 11.557
87.36000 4.496
87.38000 6.623
87.40000 7.032
87.42000 7.687
87.44000 11.447
87.46000 8.419
87.48000 4.525
87.50000 6.927
87.52000 10.286
87.54000 9.634
87.56000 7.241
87.58000 6.166
87.60000 7.282
87.62000 4.513
87.64000 2.406
87.66000 -1.090
87.68000 0.894
87.70000 5.564
87.72000 4.460
87.74000 7.717
87.76000 5.566
87.78000 4.775
87.80000 0.159
87.82000 2.670
87.84000 8.920
87.86000 11.536
87.88000 6.094
87.90000 3.362
87.92000 10.646
87.94000 8.748
87.96000 6.123
87.98000 2.050
88.00000 4.532
88.02000 3.605
88.04000 2.753
88.06000 6.096
88.08000 5.838
88.10000 0.852
88.12000 -2.002
88.14000 2.698
88.16000 2.376
88.18000 2.516
88.20000 0.857
88.22000 0.759
88.24000 4.593
88.26000 5.419
88.28000 4.057
88.30000 3.633
88.32000 7.144
88.34000 6.714
88.36000 1.415
88.38000 2.152
88.40000 5.243
88.42000 1.476
88.44000 6.096
88.46000 4.969
88.48000 1.611
88.50000 2.681
88.52000 3.326
88.54000 4.061
88.56000 5.033
88.58000 4.460
88.60000 6.667
88.62000 -1.152
88.64000 4.287
88.66000 6.433
88.68000 2.963
88.70000 -2.162
88.72000 -1.745
88.74000 3.185
88.76000 9.941
88.78000 11.131
88.80000 5.992
88.82000 5.968
88.84000 5.640
88.86000 5.927
88.88000 7.999
88.90000 6.573
88.92000 0.396
88.94000 -0.936
88.96000 4.832
88.98000 6.670
89.00000 -0.290
89.02000 1.895
89.04000 5.548
89.06000 3.818
89.08000 0.400
89.10000 -0.046
89.12000 6.181
89.14000 5.434
89.16000 2.858
89.18000 6.819
89.20000 6.292
89.22000 6.445
89.24000 5.396
89.26000 8.579
89.28000 7.656
89.30000 4.998
89.32000 3.985
89.34000 2.125
89.36000 4.910
89.38000 2.242
89.40000 4.068
89.42000 3.056
89.44000 5.136
89.46000 2.215
89.48000 2.610
89.50000 5.496
89.52000 3.815
89.54000 1.458
89.56000 6.874
89.58000 7.563
89.60000 3.275
89.62000 4.999
89.64000 5.615
89.66000 9.904
89.68000 6.518
89.70000 5.252
89.72000 6.101
89.74000 5.045
89.76000 6.160
89.78000 6.993
89.80000 4.554
89.82000 2.288
89.84000 5.847
89.86000 5.059
89.88000 3.506
89.90000 2.741
89.92000 -0.531
89.94000 4.302
89.96000 5.824
89.98000 7.497
90.00000 8.846
90.02000 7.160
90.04000 5.104
90.06000 2.747
90.08000 1.022
90.10000 1.468
90.12000 2.446
90.14000 -1.556
90.16000 2.383
90.18000 2.217
90.20000 0.371
90.22000 5.195
90.24000 8.936
90.26000 8.403
90.28000 4.824
90.30000 1.952
90.32000 6.728
90.34000 10.595
90.36000 4.692
90.38000 2.521
90.40000 1.600
90.42000 2.076
90.44000 -0.921
90.46000 -1.465
90.48000 -2.118
90.50000 1.563
90.52000 5.728
90.54000 9.057
90.56000 9.942
90.58000 9.836
90.60000 7.104
90.62000 5.866
90.64000 4.530
90.66000 3.073
90.68000 7.600
90.70000 9.953
90.72000 5.641
90.74000 4.103
90.76000 3.385
90.78000 4.195
90.80000 3.435
90.82000 2.055
90.84000 4.981
90.86000 4.920
90.88000 10.449
90.90000 2.303
90.92000 -0.314
90.94000 2.793
90.96000 7.926
90.98000 5.714
91.00000 0.616
91.02000 -0.258
91.04000 1.465
91.06000 1.399
91.08000 3.464
91.10000 3.524
91.12000 5.450
91.14000 6.053
91.16000 4.244
91.18000 4.960
91.20000 2.849
91.22000 0.516
91.24000 2.664
91.26000 0.656
91.28000 1.562
91.30000 0.735
91.32000 0.736
91.34000 1.799
91.36000 2.207
91.38000 2.061
91.40000 -1.297
91.42000 2.949
91.44000 3.165
91.46000 3.457
91.48000 9.875
91.50000 9.613
91.52000 4.012
91.54000 6.135
91.56000 2.074
91.58000 3.462
91.60000 6.748
91.62000 1.745
91.64000 1.586
91.66000 0.452
91.68000 2.254
91.70000 5.153
91.72000 8.376
91.74000 3.018
91.76000 1.368
91.78000 0.500
91.80000 -1.189
91.82000 -0.897
91.84000 1.874
91.86000 -0.427
91.88000 -1.688
91.90000 1.449
91.92000 3.395
91.94000 1.303
91.96000 0.929
91.98000 1.352
92.00000 3.339
92.02000 6.727
92.04000 3.328
92.06000 4.440
92.08000 3.816
92.10000 2.802
92.12000 1.441
92.14000 0.861
92.16000 3.405
92.18000 5.010
92.20000 0.538
92.22000 1.574
92.24000 1.461
92.26000 3.016
92.28000 -1.572
92.30000 0.440
92.32000 1.759
92.34000 2.847
92.36000 6.035
92.38000 5.453
92.40000 0.388
92.42000 1.245
92.44000 3.319
92.46000 -2.175
92.48000 -1.864
92.50000 0.394
92.52000 2.577
92.54000 0.679
92.56000 2.860
92.58000 1.467
92.60000 1.236
92.62000 4.064
92.64000 6.412
92.66000 6.861
92.68000 6.194
92.70000 4.149
92.72000 4.970
92.74000 3.611
92.76000 0.205
92.78000 -0.160
92.80000 0.507
92.82000 1.693
92.84000 3.372
92.86000 6.400
92.88000 2.585
92.90000 3.209
92.92000 3.154
92.94000 1.720
92.96000 -2.162
92.98000 -2.061
93.00000 2.583
93.02000 2.082
93.04000 4.600
93.06000 4.611
93.08000 5.824
93.10000 3.023
93.12000 0.761
93.14000 1.616
93.16000 5.383
93.18000 2.249
93.20000 0.785
93.22000 -0.494
93.24000 7.751
93.26000 8.561
93.28000 6.341
93.30000 5.087
93.32000 4.605
93.34000 5.939
93.36000 1.339
93.38000 -1.461
93.40000 -1.402
93.42000 0.741
93.44000 7.327
93.46000 8.620
93.48000 3.291
93.50000 1.007
93.52000 0.568
93.54000 -1.301
93.56000 -0.033
93.58000 -2.150
93.60000 0.467
93.62000 7.388
93.64000 6.457
93.66000 6.850
93.68000 3.716
93.70000 4.698
93.72000 9.615
93.74000 8.594
93.76000 2.404
93.78000 0.847
93.80000 -0.453
93.82000 3.844
93.84000 4.737
93.86000 6.368
93.88000 2.018
93.90000 2.052
93.92000 2.738
93.94000 0.478
93.96000 0.728
93.98000 1.956
94.00000 1.396
94.02000 9.244
94.04000 7.034
94.06000 6.784
94.08000 8.981
94.10000 10.668
94.12000 5.064
94.14000 3.660
94.16000 3.115
94.18000 4.536
94.20000 4.782
94.22000 7.209
94.24000 6.500
94.26000 0.863
94.28000 0.230
94.30000 0.964
94.32000 5.211
94.34000 -0.680
94.36000 2.038
94.38000 2.202
94.40000 0.327
94.42000 3.331
94.44000 3.274
94.46000 4.706
94.48000 4.753
94.50000 4.828
94.52000 6.265
94.54000 2.877
94.56000 0.428
94.58000 4.354
94.60000 3.260
94.62000 3.318
94.64000 5.815
94.66000 8.790
94.68000 3.046
94.70000 -1.179
94.72000 3.188
94.74000 7.171
94.76000 8.131
94.78000 6.658
94.80000 2.731
94.82000 1.792
94.84000 1.618
94.86000 -2.175
94.88000 1.431
94.90000 7.596
94.92000 5.432
94.94000 1.182
94.96000 3.035
94.98000 5.583
95.00000 7.508
95.02000 5.139
95.04000 6.368
95.06000 2.695
95.08000 -0.722
95.10000 -0.269
95.12000 5.858
95.14000 7.678
95.16000 4.532
95.18000 2.749
95.20000 4.611
95.22000 6.354
95.24000 -0.309
95.26000 -0.614
95.28000 2.914
95.30000 2.589
95.32000 1.079
95.34000 1.774
95.36000 1.992
95.38000 6.235
95.40000 2.321
95.42000 1.685
95.44000 6.201
95.46000 4.195
95.48000 0.423
95.50000 2.578
95.52000 1.519
95.54000 1.305
95.56000 2.816
95.58000 4.728
95.60000 6.268
95.62000 3.701
95.64000 5.390
95.66000 8.336
95.68000 6.804
95.70000 -2.167
95.72000 -0.167
95.74000 -0.232
95.76000 0.051
95.78000 -0.499
95.80000 2.542
95.82000 3.264
95.84000 2.515
95.86000 3.600
95.88000 1.264
95.90000 -1.849
95.92000 4.463
95.94000 6.481
95.96000 6.599
95.98000 -0.725
96.00000 -1.851
96.02000 -2.214
96.04000 -1.627
96.06000 1.546
96.08000 -1.051
96.10000 -0.219
96.12000 1.902
96.14000 4.131
96.16000 3.337
96.18000 0.073
96.20000 2.605
96.22000 8.149
96.24000 7.217
96.26000 8.142
96.28000 3.852
96.30000 -1.059
96.32000 -0.666
96.34000 2.743
96.36000 5.556
96.38000 5.046
96.40000 1.698
96.42000 1.786
96.44000 4.755
96.46000 7.928
96.48000 10.711
96.50000 1.994
96.52000 2.526
96.54000 1.390
96.56000 -0.946
96.58000 0.416
96.60000 3.134
96.62000 2.746
96.64000 0.279
96.66000 0.452
96.68000 5.079
96.70000 11.181
96.72000 2.719
96.74000 5.630
96.76000 6.673
96.78000 5.284
96.80000 0.265
96.82000 -0.217
96.84000 2.064
96.86000 4.766
96.88000 6.631
96.90000 3.163
96.92000 4.046
96.94000 10.999
96.96000 10.901
96.98000 9.804
97.00000 5.410
97.02000 1.528
97.04000 7.359
97.06000 11.011
97.08000 6.304
97.10000 4.140
97.12000 -2.153
97.14000 6.730
97.16000 9.494
97.18000 10.453
97.20000 7.498
97.22000 5.699
97.24000 5.611
97.26000 5.088
97.28000 0.122
97.30000 2.306
97.32000 -0.016
97.34000 -0.334
97.36000 -0.673
97.38000 0.948
97.40000 6.818
97.42000 4.300
97.44000 4.551
97.46000 0.273
97.48000 0.812
97.50000 4.428
97.52000 7.830
97.54000 5.186
97.56000 5.670
97.58000 5.335
97.60000 3.768
97.62000 2.497
97.64000 2.715
97.66000 4.769
97.68000 6.703
97.70000 4.837
97.72000 8.242
97.74000 7.039
97.76000 2.710
97.78000 0.280
97.80000 -2.135
97.82000 -1.337
97.84000 -0.396
97.86000 3.789
97.88000 9.019
97.90000 5.345
97.92000 4.896
97.94000 12.925
97.96000 8.476
97.98000 8.572
98.00000 5.514
98.02000 8.087
98.04000 3.873
98.06000 7.447
98.08000 6.756
98.10000 3.998
98.12000 5.717
98.14000 6.050
98.16000 8.716
98.18000 7.286
98.20000 2.660
98.22000 1.794
98.24000 3.519
98.26000 1.334
98.28000 2.123
98.30000 9.950
98.32000 12.215
98.34000 4.109
98.36000 8.801
98.38000 15.071
98.40000 7.488
98.42000 4.485
98.44000 -2.091
98.46000 3.352
98.48000 15.224
98.50000 9.776
98.52000 7.320
98.54000 12.235
98.56000 5.128
98.58000 -2.028
98.60000 8.424
98.62000 9.606
98.64000 6.474
98.66000 6.865
98.68000 3.098
98.70000 0.079
98.72000 2.197
98.74000 1.321
98.76000 0.128
98.78000 3.863
98.80000 6.944
98.82000 6.140
98.84000 4.965
98.86000 1.495
98.88000 1.594
98.90000 3.867
98.92000 7.459
98.94000 6.883
98.96000 2.413
98.98000 4.633
99.00000 7.045
99.02000 6.758
99.04000 6.781
99.06000 0.281
99.08000 4.556
99.10000 11.758
99.12000 -0.724
99.14000 -2.090
99.16000 6.489
99.18000 -1.391
99.20000 -0.021
99.22000 3.729
99.24000 -1.402
99.26000 2.671
99.28000 1.735
99.30000 0.230
99.32000 3.965
99.34000 10.050
99.36000 5.004
99.38000 7.227
99.40000 2.453
99.42000 3.904
99.44000 6.426
99.46000 9.434
99.48000 7.993
99.50000 4.322
99.52000 1.770
99.54000 -0.210
99.56000 8.343
99.58000 5.604
99.60000 -1.517
99.62000 9.907
99.64000 11.115
99.66000 4.466
99.68000 -2.150
99.70000 6.239
99.72000 6.798
99.74000 4.684
99.76000 1.679
99.78000 -0.606
99.80000 7.601
99.82000 4.661
99.84000 1.304
99.86000 -2.188
99.88000 -0.132
99.90000 -2.211
99.92000 -0.362
99.94000 3.479
99.96000 -2.329
99.98000 0.000
