'Id: "0011387" Comment: "Integrate frame 0011387_Au-Ir-Rh_Rh-rich_XRD-Mapping-341-0000.gfrmwith cursor Wedge Cursor #5" Operator: "B?rgel" Anode: "Cu" Wavelength: "1.5406" Scantype: "2Theta (TwoTheta)" TimePerStep: "1" X: "13.5" Y: "45" Z: "5.95" 
10.00000 0.000
10.02000 -0.775
10.04000 -4.235
10.06000 2.962
10.08000 18.219
10.10000 18.238
10.12000 15.237
10.14000 3.233
10.16000 8.697
10.18000 14.492
10.20000 17.841
10.22000 17.918
10.24000 7.405
10.26000 4.621
10.28000 2.165
10.30000 11.855
10.32000 0.544
10.34000 -4.201
10.36000 14.220
10.38000 22.434
10.40000 27.270
10.42000 25.845
10.44000 17.816
10.46000 21.282
10.48000 13.546
10.50000 9.269
10.52000 18.618
10.54000 31.183
10.56000 41.089
10.58000 32.089
10.60000 17.734
10.62000 17.604
10.64000 17.652
10.66000 16.522
10.68000 7.966
10.70000 14.847
10.72000 13.904
10.74000 12.427
10.76000 17.222
10.78000 24.881
10.80000 22.394
10.82000 7.718
10.84000 5.938
10.86000 10.381
10.88000 19.155
10.90000 3.494
10.92000 4.091
10.94000 15.402
10.96000 11.403
10.98000 26.650
11.00000 26.559
11.02000 11.945
11.04000 16.250
11.06000 21.082
11.08000 13.398
11.10000 20.239
11.12000 21.005
11.14000 19.967
11.16000 17.442
11.18000 19.794
11.20000 20.837
11.22000 21.465
11.24000 27.006
11.26000 23.595
11.28000 19.749
11.30000 15.921
11.32000 5.431
11.34000 17.052
11.36000 21.133
11.38000 16.186
11.40000 2.553
11.42000 19.274
11.44000 10.880
11.46000 11.043
11.48000 2.988
11.50000 3.906
11.52000 22.845
11.54000 6.816
11.56000 11.072
11.58000 18.481
11.60000 25.477
11.62000 14.524
11.64000 10.518
11.66000 12.486
11.68000 10.266
11.70000 14.151
11.72000 14.411
11.74000 11.371
11.76000 25.006
11.78000 25.121
11.80000 20.562
11.82000 13.588
11.84000 10.479
11.86000 18.285
11.88000 19.197
11.90000 23.582
11.92000 11.683
11.94000 14.741
11.96000 19.579
11.98000 9.226
12.00000 20.815
12.02000 14.641
12.04000 11.793
12.06000 13.531
12.08000 18.730
12.10000 23.087
12.12000 18.264
12.14000 20.046
12.16000 17.391
12.18000 17.783
12.20000 17.287
12.22000 16.693
12.24000 8.818
12.26000 15.203
12.28000 12.840
12.30000 18.117
12.32000 7.451
12.34000 -1.696
12.36000 7.278
12.38000 11.275
12.40000 14.649
12.42000 8.874
12.44000 16.193
12.46000 17.600
12.48000 14.687
12.50000 18.072
12.52000 24.602
12.54000 7.900
12.56000 2.570
12.58000 6.069
12.60000 14.695
12.62000 6.707
12.64000 10.806
12.66000 13.021
12.68000 12.653
12.70000 13.833
12.72000 14.528
12.74000 13.260
12.76000 9.712
12.78000 12.353
12.80000 19.587
12.82000 20.696
12.84000 13.082
12.86000 16.217
12.88000 14.505
12.90000 16.521
12.92000 16.811
12.94000 10.169
12.96000 22.876
12.98000 13.568
13.00000 8.223
13.02000 7.957
13.04000 6.968
13.06000 12.042
13.08000 12.568
13.10000 12.718
13.12000 16.192
13.14000 13.162
13.16000 6.766
13.18000 2.246
13.20000 2.410
13.22000 15.911
13.24000 19.788
13.26000 15.170
13.28000 10.213
13.30000 12.823
13.32000 14.820
13.34000 5.849
13.36000 8.681
13.38000 20.985
13.40000 22.800
13.42000 9.187
13.44000 7.060
13.46000 7.380
13.48000 9.256
13.50000 1.361
13.52000 6.140
13.54000 7.886
13.56000 8.176
13.58000 14.983
13.60000 15.788
13.62000 26.746
13.64000 13.516
13.66000 10.917
13.68000 -0.085
13.70000 -3.294
13.72000 2.526
13.74000 2.758
13.76000 8.696
13.78000 6.614
13.80000 0.099
13.82000 6.754
13.84000 9.580
13.86000 8.046
13.88000 7.108
13.90000 11.196
13.92000 19.451
13.94000 9.892
13.96000 11.427
13.98000 1.707
14.00000 4.142
14.02000 6.279
14.04000 12.440
14.06000 4.523
14.08000 1.142
14.10000 -4.515
14.12000 -2.007
14.14000 -1.775
14.16000 5.527
14.18000 8.532
14.20000 8.642
14.22000 8.941
14.24000 7.526
14.26000 12.500
14.28000 13.079
14.30000 8.481
14.32000 4.773
14.34000 12.833
14.36000 13.547
14.38000 9.412
14.40000 12.631
14.42000 18.862
14.44000 12.622
14.46000 -1.266
14.48000 -0.818
14.50000 1.940
14.52000 6.776
14.54000 5.892
14.56000 1.149
14.58000 6.522
14.60000 8.813
14.62000 10.175
14.64000 10.853
14.66000 11.681
14.68000 12.962
14.70000 5.622
14.72000 1.254
14.74000 0.832
14.76000 8.730
14.78000 3.167
14.80000 -1.508
14.82000 2.889
14.84000 9.141
14.86000 8.475
14.88000 9.673
14.90000 6.631
14.92000 7.596
14.94000 10.712
14.96000 13.281
14.98000 8.679
15.00000 5.497
15.02000 3.808
15.04000 9.302
15.06000 6.415
15.08000 6.758
15.10000 -1.403
15.12000 -4.505
15.14000 1.246
15.16000 0.764
15.18000 12.358
15.20000 12.679
15.22000 4.637
15.24000 6.514
15.26000 3.036
15.28000 5.815
15.30000 15.450
15.32000 17.548
15.34000 8.515
15.36000 10.878
15.38000 3.126
15.40000 7.190
15.42000 11.742
15.44000 10.252
15.46000 7.126
15.48000 1.772
15.50000 4.021
15.52000 5.843
15.54000 6.192
15.56000 9.601
15.58000 6.297
15.60000 9.724
15.62000 5.488
15.64000 6.852
15.66000 2.621
15.68000 8.631
15.70000 5.665
15.72000 8.345
15.74000 4.021
15.76000 1.717
15.78000 1.025
15.80000 -0.003
15.82000 -0.554
15.84000 2.239
15.86000 5.492
15.88000 7.057
15.90000 11.510
15.92000 3.511
15.94000 2.379
15.96000 2.968
15.98000 0.973
16.00000 7.692
16.02000 1.093
16.04000 0.836
16.06000 2.019
16.08000 8.918
16.10000 10.199
16.12000 4.507
16.14000 6.032
16.16000 1.515
16.18000 -1.069
16.20000 -0.151
16.22000 9.566
16.24000 7.222
16.26000 3.649
16.28000 4.561
16.30000 -0.970
16.32000 4.453
16.34000 5.831
16.36000 10.208
16.38000 14.570
16.40000 4.874
16.42000 -0.266
16.44000 8.159
16.46000 1.764
16.48000 4.880
16.50000 3.466
16.52000 5.612
16.54000 9.617
16.56000 3.641
16.58000 8.131
16.60000 7.339
16.62000 -0.186
16.64000 3.794
16.66000 5.019
16.68000 0.494
16.70000 -4.434
16.72000 6.704
16.74000 11.737
16.76000 8.743
16.78000 7.595
16.80000 9.604
16.82000 2.966
16.84000 1.011
16.86000 7.972
16.88000 7.770
16.90000 7.385
16.92000 11.820
16.94000 10.825
16.96000 8.144
16.98000 14.679
17.00000 9.390
17.02000 2.600
17.04000 0.180
17.06000 3.486
17.08000 9.838
17.10000 6.369
17.12000 0.213
17.14000 2.534
17.16000 2.517
17.18000 1.041
17.20000 0.520
17.22000 1.369
17.24000 -1.735
17.26000 5.769
17.28000 9.544
17.30000 8.543
17.32000 5.845
17.34000 6.662
17.36000 1.624
17.38000 1.960
17.40000 7.883
17.42000 9.083
17.44000 9.222
17.46000 7.981
17.48000 6.001
17.50000 14.197
17.52000 10.612
17.54000 9.412
17.56000 10.503
17.58000 8.894
17.60000 8.988
17.62000 4.054
17.64000 8.456
17.66000 15.379
17.68000 8.239
17.70000 5.204
17.72000 5.480
17.74000 7.775
17.76000 8.890
17.78000 8.392
17.80000 5.322
17.82000 6.710
17.84000 2.921
17.86000 9.360
17.88000 9.929
17.90000 15.247
17.92000 13.295
17.94000 7.124
17.96000 4.667
17.98000 4.581
18.00000 -4.335
18.02000 4.114
18.04000 1.965
18.06000 1.483
18.08000 10.281
18.10000 8.218
18.12000 0.046
18.14000 1.937
18.16000 4.166
18.18000 9.888
18.20000 6.560
18.22000 -1.302
18.24000 0.812
18.26000 3.648
18.28000 7.371
18.30000 8.656
18.32000 6.998
18.34000 4.865
18.36000 6.725
18.38000 3.486
18.40000 6.534
18.42000 11.683
18.44000 13.704
18.46000 10.018
18.48000 7.873
18.50000 9.722
18.52000 15.426
18.54000 5.753
18.56000 6.339
18.58000 5.088
18.60000 6.973
18.62000 6.553
18.64000 5.256
18.66000 7.129
18.68000 2.669
18.70000 5.820
18.72000 2.433
18.74000 1.898
18.76000 5.472
18.78000 0.653
18.80000 3.602
18.82000 10.979
18.84000 10.521
18.86000 6.928
18.88000 4.948
18.90000 5.038
18.92000 5.840
18.94000 3.274
18.96000 1.782
18.98000 -1.298
19.00000 1.592
19.02000 0.708
19.04000 0.215
19.06000 0.197
19.08000 1.992
19.10000 3.107
19.12000 8.877
19.14000 6.663
19.16000 12.797
19.18000 4.626
19.20000 1.617
19.22000 4.505
19.24000 3.118
19.26000 3.964
19.28000 7.996
19.30000 8.570
19.32000 8.379
19.34000 9.425
19.36000 13.688
19.38000 4.437
19.40000 -1.805
19.42000 7.719
19.44000 12.696
19.46000 11.034
19.48000 5.845
19.50000 3.883
19.52000 4.555
19.54000 1.791
19.56000 5.321
19.58000 4.622
19.60000 1.786
19.62000 2.236
19.64000 1.250
19.66000 -4.285
19.68000 -1.046
19.70000 5.252
19.72000 5.481
19.74000 5.199
19.76000 4.440
19.78000 4.321
19.80000 8.058
19.82000 2.209
19.84000 4.420
19.86000 2.096
19.88000 3.072
19.90000 7.365
19.92000 0.808
19.94000 0.891
19.96000 5.642
19.98000 8.356
20.00000 5.788
20.02000 6.188
20.04000 9.610
20.06000 5.139
20.08000 3.559
20.10000 5.790
20.12000 1.193
20.14000 5.535
20.16000 1.920
20.18000 6.011
20.20000 0.828
20.22000 1.028
20.24000 6.800
20.26000 3.024
20.28000 7.137
20.30000 3.832
20.32000 4.325
20.34000 -3.801
20.36000 0.644
20.38000 4.069
20.40000 2.265
20.42000 7.985
20.44000 4.508
20.46000 4.161
20.48000 3.147
20.50000 0.777
20.52000 -3.329
20.54000 -3.376
20.56000 -3.822
20.58000 -3.672
20.60000 6.815
20.62000 8.331
20.64000 2.522
20.66000 -1.055
20.68000 -2.270
20.70000 -1.156
20.72000 0.441
20.74000 -1.694
20.76000 10.377
20.78000 10.043
20.80000 4.547
20.82000 0.315
20.84000 2.993
20.86000 -2.626
20.88000 7.098
20.90000 2.720
20.92000 1.716
20.94000 0.864
20.96000 -1.194
20.98000 3.810
21.00000 4.162
21.02000 0.748
21.04000 -0.147
21.06000 -0.150
21.08000 2.772
21.10000 9.053
21.12000 8.722
21.14000 4.959
21.16000 2.062
21.18000 4.606
21.20000 2.717
21.22000 -0.815
21.24000 7.271
21.26000 5.411
21.28000 7.354
21.30000 7.946
21.32000 2.511
21.34000 1.129
21.36000 2.210
21.38000 7.003
21.40000 4.884
21.42000 0.743
21.44000 -1.518
21.46000 -0.692
21.48000 -4.209
21.50000 -2.886
21.52000 8.132
21.54000 10.429
21.56000 2.956
21.58000 0.166
21.60000 -1.424
21.62000 -1.391
21.64000 4.085
21.66000 1.945
21.68000 0.027
21.70000 9.589
21.72000 5.236
21.74000 -1.614
21.76000 -0.984
21.78000 5.536
21.80000 8.222
21.82000 4.192
21.84000 -3.913
21.86000 -0.263
21.88000 6.004
21.90000 6.849
21.92000 -1.860
21.94000 3.355
21.96000 1.085
21.98000 0.343
22.00000 3.365
22.02000 1.614
22.04000 3.394
22.06000 7.343
22.08000 1.025
22.10000 -0.117
22.12000 5.358
22.14000 4.761
22.16000 3.355
22.18000 0.572
22.20000 5.536
22.22000 3.586
22.24000 3.631
22.26000 3.605
22.28000 1.569
22.30000 3.649
22.32000 6.048
22.34000 0.726
22.36000 1.778
22.38000 3.747
22.40000 3.404
22.42000 5.042
22.44000 6.930
22.46000 8.602
22.48000 8.148
22.50000 9.470
22.52000 12.993
22.54000 6.690
22.56000 -2.105
22.58000 -4.147
22.60000 5.508
22.62000 15.244
22.64000 3.596
22.66000 -1.159
22.68000 3.615
22.70000 0.210
22.72000 4.223
22.74000 10.166
22.76000 2.033
22.78000 3.201
22.80000 5.322
22.82000 6.292
22.84000 5.104
22.86000 4.961
22.88000 -1.788
22.90000 1.196
22.92000 4.115
22.94000 4.518
22.96000 3.614
22.98000 1.467
23.00000 2.527
23.02000 -0.445
23.04000 -2.234
23.06000 -0.687
23.08000 4.216
23.10000 10.491
23.12000 10.336
23.14000 5.494
23.16000 -2.999
23.18000 0.942
23.20000 -1.440
23.22000 -4.112
23.24000 -1.868
23.26000 3.773
23.28000 -2.333
23.30000 -3.552
23.32000 0.535
23.34000 -0.358
23.36000 1.450
23.38000 5.839
23.40000 3.134
23.42000 2.583
23.44000 0.463
23.46000 3.777
23.48000 -2.145
23.50000 1.497
23.52000 8.096
23.54000 8.109
23.56000 9.202
23.58000 7.975
23.60000 4.926
23.62000 6.374
23.64000 8.522
23.66000 5.048
23.68000 4.221
23.70000 -0.143
23.72000 4.132
23.74000 7.607
23.76000 6.715
23.78000 5.382
23.80000 9.791
23.82000 5.808
23.84000 5.713
23.86000 5.367
23.88000 9.697
23.90000 8.442
23.92000 6.217
23.94000 8.962
23.96000 12.836
23.98000 6.332
24.00000 5.962
24.02000 5.108
24.04000 9.149
24.06000 12.340
24.08000 2.543
24.10000 -3.883
24.12000 0.233
24.14000 3.077
24.16000 -0.202
24.18000 -2.725
24.20000 0.770
24.22000 9.075
24.24000 6.168
24.26000 1.916
24.28000 2.561
24.30000 7.376
24.32000 1.468
24.34000 6.040
24.36000 8.972
24.38000 9.863
24.40000 12.651
24.42000 5.246
24.44000 2.088
24.46000 -0.796
24.48000 6.938
24.50000 10.791
24.52000 1.971
24.54000 -2.787
24.56000 2.156
24.58000 0.826
24.60000 4.728
24.62000 7.745
24.64000 9.319
24.66000 9.128
24.68000 -1.285
24.70000 2.631
24.72000 4.907
24.74000 6.550
24.76000 6.793
24.78000 5.438
24.80000 4.220
24.82000 3.114
24.84000 -2.216
24.86000 0.350
24.88000 -3.992
24.90000 0.317
24.92000 3.688
24.94000 6.594
24.96000 1.384
24.98000 2.514
25.00000 5.492
25.02000 1.725
25.04000 1.023
25.06000 10.776
25.08000 7.076
25.10000 4.173
25.12000 0.062
25.14000 7.234
25.16000 5.198
25.18000 0.141
25.20000 -1.347
25.22000 -3.047
25.24000 9.915
25.26000 9.861
25.28000 6.484
25.30000 2.720
25.32000 -0.476
25.34000 1.968
25.36000 4.274
25.38000 3.574
25.40000 1.664
25.42000 -1.440
25.44000 -2.949
25.46000 5.075
25.48000 5.950
25.50000 6.909
25.52000 4.474
25.54000 0.087
25.56000 4.848
25.58000 2.000
25.60000 0.415
25.62000 0.057
25.64000 6.984
25.66000 5.717
25.68000 5.964
25.70000 7.615
25.72000 6.459
25.74000 0.433
25.76000 -0.604
25.78000 5.083
25.80000 4.141
25.82000 6.591
25.84000 0.523
25.86000 0.918
25.88000 3.302
25.90000 4.787
25.92000 -0.624
25.94000 1.754
25.96000 6.113
25.98000 6.177
26.00000 2.398
26.02000 -0.733
26.04000 5.463
26.06000 6.244
26.08000 5.626
26.10000 1.013
26.12000 5.984
26.14000 5.282
26.16000 1.141
26.18000 0.882
26.20000 8.028
26.22000 5.635
26.24000 0.787
26.26000 1.143
26.28000 -1.320
26.30000 -2.814
26.32000 -0.846
26.34000 -1.615
26.36000 0.999
26.38000 3.123
26.40000 5.748
26.42000 1.352
26.44000 2.567
26.46000 0.608
26.48000 4.425
26.50000 6.106
26.52000 1.467
26.54000 2.689
26.56000 -0.155
26.58000 3.783
26.60000 0.437
26.62000 -1.681
26.64000 -1.519
26.66000 -1.887
26.68000 -1.081
26.70000 3.082
26.72000 2.580
26.74000 -1.702
26.76000 -0.068
26.78000 4.992
26.80000 3.464
26.82000 -3.915
26.84000 -1.780
26.86000 4.207
26.88000 3.994
26.90000 6.320
26.92000 2.911
26.94000 2.201
26.96000 1.873
26.98000 0.262
27.00000 8.054
27.02000 6.682
27.04000 4.512
27.06000 -0.760
27.08000 3.599
27.10000 11.109
27.12000 6.921
27.14000 3.432
27.16000 3.232
27.18000 3.400
27.20000 6.127
27.22000 2.657
27.24000 -2.765
27.26000 0.135
27.28000 4.818
27.30000 0.669
27.32000 -3.876
27.34000 0.649
27.36000 5.052
27.38000 6.037
27.40000 6.591
27.42000 5.983
27.44000 1.970
27.46000 2.107
27.48000 -1.235
27.50000 -0.068
27.52000 6.546
27.54000 5.778
27.56000 4.498
27.58000 3.535
27.60000 1.240
27.62000 5.768
27.64000 7.135
27.66000 -3.854
27.68000 -2.676
27.70000 -0.582
27.72000 4.493
27.74000 9.039
27.76000 5.905
27.78000 4.608
27.80000 5.230
27.82000 5.032
27.84000 9.612
27.86000 9.865
27.88000 2.583
27.90000 4.743
27.92000 5.422
27.94000 1.503
27.96000 -0.327
27.98000 0.230
28.00000 1.043
28.02000 -1.049
28.04000 0.426
28.06000 -3.485
28.08000 -1.752
28.10000 2.917
28.12000 5.673
28.14000 6.404
28.16000 10.564
28.18000 9.281
28.20000 3.897
28.22000 0.822
28.24000 -0.792
28.26000 2.861
28.28000 4.534
28.30000 -3.498
28.32000 -1.809
28.34000 -2.736
28.36000 -1.936
28.38000 -2.209
28.40000 5.544
28.42000 6.183
28.44000 5.602
28.46000 2.389
28.48000 2.335
28.50000 1.093
28.52000 1.354
28.54000 2.411
28.56000 -0.510
28.58000 -0.204
28.60000 -1.265
28.62000 -0.493
28.64000 -1.646
28.66000 2.970
28.68000 1.696
28.70000 -0.520
28.72000 2.944
28.74000 1.630
28.76000 4.246
28.78000 4.784
28.80000 7.656
28.82000 4.540
28.84000 0.554
28.86000 -3.144
28.88000 4.575
28.90000 3.539
28.92000 7.914
28.94000 5.464
28.96000 1.992
28.98000 -0.221
29.00000 3.497
29.02000 8.004
29.04000 10.531
29.06000 3.601
29.08000 0.622
29.10000 2.828
29.12000 -2.218
29.14000 -3.783
29.16000 0.861
29.18000 3.070
29.20000 0.502
29.22000 4.658
29.24000 0.832
29.26000 1.878
29.28000 2.322
29.30000 3.084
29.32000 7.109
29.34000 6.424
29.36000 8.754
29.38000 6.021
29.40000 3.374
29.42000 10.287
29.44000 5.800
29.46000 3.667
29.48000 -0.523
29.50000 2.872
29.52000 4.585
29.54000 8.601
29.56000 0.772
29.58000 3.637
29.60000 9.383
29.62000 4.171
29.64000 -0.884
29.66000 -1.884
29.68000 2.242
29.70000 2.516
29.72000 -2.482
29.74000 -3.724
29.76000 -0.516
29.78000 8.913
29.80000 6.640
29.82000 4.736
29.84000 0.057
29.86000 0.476
29.88000 0.801
29.90000 3.456
29.92000 -2.756
29.94000 -0.780
29.96000 0.470
29.98000 4.864
30.00000 6.193
30.02000 2.798
30.04000 -1.376
30.06000 1.780
30.08000 6.707
30.10000 1.437
30.12000 3.221
30.14000 3.898
30.16000 2.695
30.18000 2.564
30.20000 2.397
30.22000 3.914
30.24000 1.475
30.26000 -0.378
30.28000 -0.522
30.30000 3.671
30.32000 3.323
30.34000 3.533
30.36000 6.238
30.38000 7.427
30.40000 3.792
30.42000 -2.656
30.44000 -1.124
30.46000 -1.280
30.48000 7.631
30.50000 5.060
30.52000 5.449
30.54000 3.180
30.56000 3.772
30.58000 -0.895
30.60000 2.447
30.62000 5.146
30.64000 1.975
30.66000 3.001
30.68000 1.537
30.70000 -0.633
30.72000 2.279
30.74000 5.987
30.76000 0.992
30.78000 -0.527
30.80000 5.049
30.82000 3.708
30.84000 6.663
30.86000 5.345
30.88000 2.333
30.90000 5.376
30.92000 3.695
30.94000 0.312
30.96000 -2.890
30.98000 1.282
31.00000 1.932
31.02000 3.805
31.04000 5.532
31.06000 6.575
31.08000 3.828
31.10000 5.469
31.12000 2.346
31.14000 0.723
31.16000 -1.103
31.18000 0.081
31.20000 2.839
31.22000 7.101
31.24000 -0.427
31.26000 -0.350
31.28000 2.884
31.30000 8.385
31.32000 6.367
31.34000 5.058
31.36000 3.440
31.38000 1.983
31.40000 0.876
31.42000 -1.393
31.44000 -3.653
31.46000 -0.519
31.48000 3.192
31.50000 -0.060
31.52000 3.268
31.54000 6.027
31.56000 3.415
31.58000 6.492
31.60000 7.346
31.62000 4.789
31.64000 3.135
31.66000 4.147
31.68000 3.565
31.70000 10.065
31.72000 8.083
31.74000 6.511
31.76000 0.442
31.78000 1.234
31.80000 2.250
31.82000 4.242
31.84000 6.705
31.86000 4.875
31.88000 4.935
31.90000 6.617
31.92000 8.347
31.94000 4.544
31.96000 2.004
31.98000 -0.545
32.00000 2.443
32.02000 4.978
32.04000 0.844
32.06000 -1.997
32.08000 0.629
32.10000 -1.828
32.12000 1.781
32.14000 -1.967
32.16000 -2.858
32.18000 -0.391
32.20000 1.524
32.22000 -0.920
32.24000 2.467
32.26000 -1.725
32.28000 -0.337
32.30000 -3.429
32.32000 -1.825
32.34000 -2.670
32.36000 0.527
32.38000 2.677
32.40000 -0.636
32.42000 3.344
32.44000 4.735
32.46000 0.364
32.48000 -0.157
32.50000 -3.630
32.52000 -2.248
32.54000 2.317
32.56000 -0.145
32.58000 0.837
32.60000 3.111
32.62000 1.153
32.64000 1.150
32.66000 0.115
32.68000 2.579
32.70000 3.084
32.72000 6.299
32.74000 6.627
32.76000 5.122
32.78000 2.249
32.80000 -0.280
32.82000 5.600
32.84000 3.694
32.86000 4.481
32.88000 6.672
32.90000 1.731
32.92000 0.312
32.94000 1.255
32.96000 1.603
32.98000 4.468
33.00000 5.007
33.02000 -0.993
33.04000 0.504
33.06000 1.640
33.08000 -3.631
33.10000 2.394
33.12000 3.042
33.14000 5.636
33.16000 -0.260
33.18000 1.158
33.20000 2.047
33.22000 -1.975
33.24000 2.113
33.26000 2.711
33.28000 -0.447
33.30000 2.174
33.32000 14.660
33.34000 8.686
33.36000 5.747
33.38000 2.561
33.40000 4.545
33.42000 3.692
33.44000 0.961
33.46000 3.333
33.48000 5.889
33.50000 -0.185
33.52000 1.774
33.54000 3.020
33.56000 3.508
33.58000 4.979
33.60000 7.614
33.62000 1.365
33.64000 3.143
33.66000 3.521
33.68000 0.471
33.70000 3.299
33.72000 9.215
33.74000 4.237
33.76000 1.287
33.78000 1.979
33.80000 3.836
33.82000 6.366
33.84000 6.935
33.86000 6.291
33.88000 2.756
33.90000 1.524
33.92000 8.296
33.94000 7.072
33.96000 7.286
33.98000 2.911
34.00000 -3.598
34.02000 -1.280
34.04000 4.993
34.06000 8.485
34.08000 5.746
34.10000 -3.595
34.12000 -1.817
34.14000 3.861
34.16000 2.147
34.18000 0.733
34.20000 2.643
34.22000 2.164
34.24000 -1.404
34.26000 5.098
34.28000 3.668
34.30000 0.771
34.32000 1.902
34.34000 1.963
34.36000 -0.183
34.38000 -3.172
34.40000 -0.575
34.42000 4.215
34.44000 3.202
34.46000 1.295
34.48000 -0.346
34.50000 -0.313
34.52000 4.405
34.54000 1.218
34.56000 -1.668
34.58000 1.063
34.60000 4.388
34.62000 5.064
34.64000 2.035
34.66000 1.922
34.68000 -0.303
34.70000 3.041
34.72000 3.609
34.74000 4.453
34.76000 6.352
34.78000 3.194
34.80000 6.046
34.82000 7.519
34.84000 3.010
34.86000 0.010
34.88000 4.528
34.90000 4.383
34.92000 1.926
34.94000 3.735
34.96000 1.062
34.98000 2.073
35.00000 -3.113
35.02000 -3.584
35.04000 0.979
35.06000 5.162
35.08000 3.799
35.10000 -3.042
35.12000 -0.333
35.14000 3.694
35.16000 4.291
35.18000 0.628
35.20000 0.979
35.22000 1.323
35.24000 0.424
35.26000 -3.171
35.28000 -3.586
35.30000 -0.899
35.32000 -1.782
35.34000 3.936
35.36000 3.128
35.38000 2.933
35.40000 7.306
35.42000 7.325
35.44000 -2.233
35.46000 -1.487
35.48000 4.663
35.50000 -3.325
35.52000 -2.834
35.54000 3.051
35.56000 -2.709
35.58000 -0.843
35.60000 0.476
35.62000 0.028
35.64000 4.177
35.66000 2.808
35.68000 10.109
35.70000 2.134
35.72000 -1.659
35.74000 4.085
35.76000 8.468
35.78000 -3.587
35.80000 -2.218
35.82000 4.111
35.84000 3.483
35.86000 4.329
35.88000 -0.822
35.90000 3.636
35.92000 10.090
35.94000 7.337
35.96000 1.170
35.98000 0.410
36.00000 2.882
36.02000 -1.354
36.04000 1.412
36.06000 4.334
36.08000 -0.419
36.10000 1.661
36.12000 4.735
36.14000 6.827
36.16000 1.806
36.18000 1.739
36.20000 0.175
36.22000 2.036
36.24000 7.796
36.26000 6.154
36.28000 0.814
36.30000 -1.411
36.32000 -0.001
36.34000 4.049
36.36000 4.291
36.38000 2.803
36.40000 1.105
36.42000 -1.461
36.44000 -0.890
36.46000 2.591
36.48000 8.742
36.50000 3.236
36.52000 -2.177
36.54000 0.317
36.56000 8.673
36.58000 3.644
36.60000 -0.290
36.62000 2.688
36.64000 1.324
36.66000 -0.934
36.68000 -3.647
36.70000 -0.920
36.72000 2.056
36.74000 2.621
36.76000 -1.370
36.78000 0.661
36.80000 -0.598
36.82000 1.295
36.84000 -3.655
36.86000 -3.218
36.88000 -1.506
36.90000 -1.212
36.92000 2.203
36.94000 4.116
36.96000 0.146
36.98000 -0.144
37.00000 1.745
37.02000 5.216
37.04000 -2.186
37.06000 -2.067
37.08000 1.550
37.10000 0.029
37.12000 -0.603
37.14000 -1.360
37.16000 3.408
37.18000 2.658
37.20000 2.572
37.22000 4.422
37.24000 3.743
37.26000 2.974
37.28000 5.235
37.30000 3.428
37.32000 5.274
37.34000 6.594
37.36000 2.513
37.38000 -1.968
37.40000 -1.560
37.42000 4.625
37.44000 8.841
37.46000 4.603
37.48000 2.941
37.50000 2.733
37.52000 -1.742
37.54000 -0.979
37.56000 2.366
37.58000 6.578
37.60000 4.518
37.62000 5.001
37.64000 5.768
37.66000 5.231
37.68000 10.506
37.70000 13.860
37.72000 15.765
37.74000 13.127
37.76000 10.525
37.78000 10.038
37.80000 11.832
37.82000 11.565
37.84000 14.551
37.86000 12.654
37.88000 7.676
37.90000 6.066
37.92000 13.442
37.94000 15.494
37.96000 12.816
37.98000 8.953
38.00000 10.445
38.02000 17.475
38.04000 16.301
38.06000 13.032
38.08000 16.332
38.10000 18.064
38.12000 18.214
38.14000 16.022
38.16000 19.690
38.18000 23.007
38.20000 25.575
38.22000 24.894
38.24000 23.758
38.26000 23.849
38.28000 24.934
38.30000 31.738
38.32000 29.504
38.34000 30.219
38.36000 25.757
38.38000 28.389
38.40000 27.405
38.42000 33.926
38.44000 39.267
38.46000 39.224
38.48000 38.434
38.50000 39.327
38.52000 34.293
38.54000 34.237
38.56000 36.722
38.58000 39.475
38.60000 44.730
38.62000 41.741
38.64000 48.548
38.66000 55.234
38.68000 52.619
38.70000 51.401
38.72000 55.622
38.74000 60.707
38.76000 64.235
38.78000 63.541
38.80000 69.137
38.82000 75.419
38.84000 75.191
38.86000 80.062
38.88000 82.318
38.90000 88.314
38.92000 97.140
38.94000 97.454
38.96000 94.637
38.98000 99.555
39.00000 109.618
39.02000 114.760
39.04000 112.390
39.06000 120.922
39.08000 125.655
39.10000 127.540
39.12000 135.181
39.14000 148.732
39.16000 154.242
39.18000 157.898
39.20000 169.048
39.22000 174.726
39.24000 186.364
39.26000 195.764
39.28000 203.821
39.30000 215.134
39.32000 224.169
39.34000 234.202
39.36000 253.929
39.38000 264.221
39.40000 276.892
39.42000 286.109
39.44000 296.949
39.46000 311.568
39.48000 328.620
39.50000 354.309
39.52000 372.568
39.54000 393.565
39.56000 412.143
39.58000 434.222
39.60000 438.828
39.62000 462.270
39.64000 488.128
39.66000 496.628
39.68000 514.605
39.70000 543.229
39.72000 556.745
39.74000 572.975
39.76000 589.143
39.78000 599.464
39.80000 619.637
39.82000 626.871
39.84000 636.854
39.86000 644.434
39.88000 649.133
39.90000 668.949
39.92000 676.354
39.94000 663.121
39.96000 653.793
39.98000 648.571
40.00000 642.304
40.02000 638.137
40.04000 639.043
40.06000 629.596
40.08000 614.386
40.10000 600.429
40.12000 581.016
40.14000 569.897
40.16000 550.869
40.18000 534.820
40.20000 507.735
40.22000 493.627
40.24000 482.152
40.26000 464.864
40.28000 447.804
40.30000 420.471
40.32000 389.242
40.34000 369.306
40.36000 355.703
40.38000 337.467
40.40000 320.149
40.42000 305.967
40.44000 290.220
40.46000 273.229
40.48000 265.603
40.50000 249.326
40.52000 237.601
40.54000 216.181
40.56000 206.596
40.58000 197.043
40.60000 179.428
40.62000 169.569
40.64000 162.177
40.66000 151.555
40.68000 135.034
40.70000 128.607
40.72000 126.164
40.74000 123.668
40.76000 117.560
40.78000 108.399
40.80000 99.024
40.82000 90.907
40.84000 90.254
40.86000 89.226
40.88000 82.667
40.90000 81.859
40.92000 72.373
40.94000 64.080
40.96000 58.970
40.98000 60.019
41.00000 58.151
41.02000 46.940
41.04000 46.416
41.06000 43.644
41.08000 43.382
41.10000 42.181
41.12000 37.207
41.14000 35.432
41.16000 37.447
41.18000 35.614
41.20000 33.291
41.22000 29.386
41.24000 22.456
41.26000 23.088
41.28000 24.997
41.30000 23.638
41.32000 22.785
41.34000 24.031
41.36000 20.317
41.38000 18.354
41.40000 15.705
41.42000 17.413
41.44000 17.671
41.46000 16.140
41.48000 15.054
41.50000 13.570
41.52000 11.610
41.54000 9.863
41.56000 12.510
41.58000 12.605
41.60000 11.282
41.62000 9.282
41.64000 8.655
41.66000 7.745
41.68000 3.994
41.70000 5.470
41.72000 8.226
41.74000 9.279
41.76000 9.467
41.78000 8.911
41.80000 3.884
41.82000 -2.904
41.84000 1.707
41.86000 1.738
41.88000 2.471
41.90000 4.434
41.92000 2.192
41.94000 0.145
41.96000 0.636
41.98000 -0.218
42.00000 1.532
42.02000 2.693
42.04000 4.211
42.06000 1.503
42.08000 -0.438
42.10000 2.321
42.12000 4.585
42.14000 0.844
42.16000 1.366
42.18000 -0.666
42.20000 0.843
42.22000 2.347
42.24000 2.815
42.26000 5.236
42.28000 4.817
42.30000 -0.427
42.32000 1.218
42.34000 4.982
42.36000 3.486
42.38000 1.574
42.40000 -2.132
42.42000 4.252
42.44000 6.708
42.46000 0.078
42.48000 -1.916
42.50000 0.541
42.52000 2.659
42.54000 -2.519
42.56000 -3.499
42.58000 -1.202
42.60000 -1.085
42.62000 0.614
42.64000 1.064
42.66000 0.919
42.68000 -0.946
42.70000 0.984
42.72000 0.000
42.74000 -0.567
42.76000 1.376
42.78000 -1.916
42.80000 0.827
42.82000 3.111
42.84000 1.347
42.86000 0.232
42.88000 -2.810
42.90000 -1.955
42.92000 0.029
42.94000 1.157
42.96000 -2.445
42.98000 -0.695
43.00000 -0.115
43.02000 2.554
43.04000 1.715
43.06000 1.127
43.08000 -1.768
43.10000 -1.317
43.12000 -2.628
43.14000 -3.415
43.16000 0.054
43.18000 0.003
43.20000 1.868
43.22000 3.716
43.24000 2.273
43.26000 -0.985
43.28000 -0.107
43.30000 0.194
43.32000 2.470
43.34000 4.248
43.36000 3.135
43.38000 0.626
43.40000 3.726
43.42000 5.797
43.44000 0.785
43.46000 -0.113
43.48000 2.695
43.50000 5.801
43.52000 3.830
43.54000 0.008
43.56000 1.065
43.58000 0.489
43.60000 2.045
43.62000 1.379
43.64000 -0.440
43.66000 0.669
43.68000 4.367
43.70000 5.635
43.72000 3.311
43.74000 2.450
43.76000 0.361
43.78000 0.182
43.80000 4.817
43.82000 0.980
43.84000 0.028
43.86000 -3.215
43.88000 -3.025
43.90000 3.925
43.92000 3.597
43.94000 2.941
43.96000 3.622
43.98000 0.538
44.00000 -3.342
44.02000 4.265
44.04000 1.042
44.06000 -0.244
44.08000 2.278
44.10000 3.938
44.12000 3.232
44.14000 4.338
44.16000 6.231
44.18000 3.263
44.20000 1.282
44.22000 3.512
44.24000 2.171
44.26000 4.295
44.28000 5.036
44.30000 5.483
44.32000 4.464
44.34000 2.936
44.36000 4.622
44.38000 4.264
44.40000 -0.845
44.42000 -1.478
44.44000 -0.518
44.46000 -0.728
44.48000 1.598
44.50000 6.005
44.52000 4.204
44.54000 5.541
44.56000 5.429
44.58000 4.014
44.60000 3.835
44.62000 0.512
44.64000 2.768
44.66000 8.729
44.68000 5.314
44.70000 2.653
44.72000 0.140
44.74000 3.318
44.76000 5.378
44.78000 2.949
44.80000 7.622
44.82000 8.155
44.84000 8.878
44.86000 11.008
44.88000 8.864
44.90000 5.248
44.92000 10.038
44.94000 6.251
44.96000 10.864
44.98000 12.433
45.00000 12.098
45.02000 8.816
45.04000 12.754
45.06000 11.335
45.08000 19.084
45.10000 14.745
45.12000 13.882
45.14000 17.281
45.16000 10.595
45.18000 7.234
45.20000 8.866
45.22000 15.874
45.24000 19.305
45.26000 16.731
45.28000 14.361
45.30000 18.201
45.32000 16.822
45.34000 12.016
45.36000 16.875
45.38000 18.301
45.40000 19.038
45.42000 22.678
45.44000 24.877
45.46000 24.587
45.48000 23.509
45.50000 19.091
45.52000 22.793
45.54000 24.050
45.56000 25.908
45.58000 28.226
45.60000 27.123
45.62000 30.728
45.64000 34.186
45.66000 36.102
45.68000 36.889
45.70000 39.126
45.72000 33.509
45.74000 33.715
45.76000 37.141
45.78000 45.620
45.80000 45.265
45.82000 50.250
45.84000 48.095
45.86000 52.010
45.88000 51.876
45.90000 49.996
45.92000 49.776
45.94000 52.900
45.96000 51.434
45.98000 54.350
46.00000 59.541
46.02000 59.439
46.04000 56.351
46.06000 62.512
46.08000 64.005
46.10000 64.260
46.12000 67.125
46.14000 66.380
46.16000 63.750
46.18000 66.426
46.20000 71.559
46.22000 81.136
46.24000 78.155
46.26000 76.552
46.28000 77.865
46.30000 80.170
46.32000 86.037
46.34000 89.519
46.36000 95.390
46.38000 91.739
46.40000 91.250
46.42000 85.882
46.44000 85.160
46.46000 86.397
46.48000 93.463
46.50000 94.469
46.52000 97.841
46.54000 102.576
46.56000 98.370
46.58000 97.221
46.60000 98.090
46.62000 99.582
46.64000 95.885
46.66000 100.416
46.68000 98.763
46.70000 100.163
46.72000 96.761
46.74000 90.794
46.76000 90.993
46.78000 92.774
46.80000 95.245
46.82000 97.299
46.84000 95.051
46.86000 92.457
46.88000 84.585
46.90000 82.621
46.92000 79.518
46.94000 77.622
46.96000 78.851
46.98000 78.553
47.00000 78.604
47.02000 79.523
47.04000 72.619
47.06000 64.518
47.08000 65.305
47.10000 64.777
47.12000 61.985
47.14000 52.153
47.16000 49.840
47.18000 54.462
47.20000 54.226
47.22000 49.869
47.24000 52.617
47.26000 44.746
47.28000 40.561
47.30000 39.867
47.32000 37.875
47.34000 40.262
47.36000 38.582
47.38000 38.190
47.40000 33.874
47.42000 35.861
47.44000 34.642
47.46000 36.965
47.48000 38.337
47.50000 33.116
47.52000 29.598
47.54000 24.555
47.56000 26.267
47.58000 25.270
47.60000 18.614
47.62000 18.768
47.64000 25.108
47.66000 21.789
47.68000 16.288
47.70000 14.487
47.72000 16.773
47.74000 17.165
47.76000 13.921
47.78000 10.670
47.80000 6.738
47.82000 10.979
47.84000 9.816
47.86000 11.413
47.88000 12.299
47.90000 12.888
47.92000 10.918
47.94000 8.446
47.96000 7.132
47.98000 4.270
48.00000 5.382
48.02000 6.484
48.04000 6.395
48.06000 10.420
48.08000 11.803
48.10000 10.113
48.12000 8.281
48.14000 2.806
48.16000 7.201
48.18000 6.690
48.20000 3.750
48.22000 5.485
48.24000 10.994
48.26000 5.002
48.28000 -0.799
48.30000 5.296
48.32000 1.649
48.34000 0.185
48.36000 -0.745
48.38000 1.433
48.40000 3.975
48.42000 4.530
48.44000 -0.213
48.46000 -1.087
48.48000 3.273
48.50000 2.876
48.52000 6.226
48.54000 3.565
48.56000 3.364
48.58000 2.349
48.60000 -1.713
48.62000 0.007
48.64000 5.115
48.66000 2.981
48.68000 4.632
48.70000 4.440
48.72000 3.687
48.74000 -0.278
48.76000 -2.922
48.78000 4.511
48.80000 7.503
48.82000 5.321
48.84000 4.180
48.86000 3.971
48.88000 0.533
48.90000 -0.687
48.92000 1.199
48.94000 2.317
48.96000 2.801
48.98000 5.403
49.00000 2.301
49.02000 1.379
49.04000 2.166
49.06000 1.485
49.08000 1.501
49.10000 1.181
49.12000 -0.715
49.14000 0.671
49.16000 4.508
49.18000 3.882
49.20000 -1.053
49.22000 -2.884
49.24000 -2.032
49.26000 1.284
49.28000 1.604
49.30000 4.974
49.32000 5.942
49.34000 3.604
49.36000 0.311
49.38000 -2.589
49.40000 2.309
49.42000 5.985
49.44000 10.202
49.46000 7.012
49.48000 5.559
49.50000 4.995
49.52000 2.919
49.54000 1.200
49.56000 2.343
49.58000 3.002
49.60000 4.639
49.62000 2.559
49.64000 5.167
49.66000 8.439
49.68000 5.057
49.70000 5.224
49.72000 7.130
49.74000 5.024
49.76000 -0.653
49.78000 3.881
49.80000 5.528
49.82000 6.140
49.84000 6.544
49.86000 6.003
49.88000 4.967
49.90000 4.426
49.92000 3.857
49.94000 7.495
49.96000 9.862
49.98000 6.439
50.00000 4.831
50.02000 0.935
50.04000 -0.626
50.06000 4.698
50.08000 6.495
50.10000 6.042
50.12000 5.782
50.14000 0.843
50.16000 3.694
50.18000 6.246
50.20000 6.253
50.22000 3.378
50.24000 4.062
50.26000 2.699
50.28000 -2.791
50.30000 1.301
50.32000 2.049
50.34000 -1.697
50.36000 2.026
50.38000 4.858
50.40000 6.681
50.42000 3.876
50.44000 2.381
50.46000 2.381
50.48000 5.821
50.50000 5.636
50.52000 4.489
50.54000 3.822
50.56000 0.803
50.58000 4.150
50.60000 6.570
50.62000 9.041
50.64000 6.186
50.66000 4.956
50.68000 4.867
50.70000 7.549
50.72000 7.975
50.74000 2.413
50.76000 4.012
50.78000 5.284
50.80000 6.640
50.82000 4.165
50.84000 2.240
50.86000 3.881
50.88000 4.868
50.90000 2.410
50.92000 4.606
50.94000 3.539
50.96000 -1.324
50.98000 -2.758
51.00000 -2.072
51.02000 2.691
51.04000 5.595
51.06000 4.914
51.08000 5.886
51.10000 4.519
51.12000 4.370
51.14000 2.536
51.16000 2.758
51.18000 3.269
51.20000 3.799
51.22000 1.002
51.24000 2.835
51.26000 0.866
51.28000 1.921
51.30000 2.824
51.32000 4.533
51.34000 8.228
51.36000 7.261
51.38000 3.619
51.40000 2.028
51.42000 -0.244
51.44000 2.660
51.46000 4.524
51.48000 6.781
51.50000 7.335
51.52000 1.495
51.54000 2.178
51.56000 -0.074
51.58000 0.912
51.60000 3.824
51.62000 7.140
51.64000 9.530
51.66000 3.882
51.68000 2.108
51.70000 0.317
51.72000 -2.182
51.74000 -2.358
51.76000 0.729
51.78000 2.912
51.80000 1.272
51.82000 5.533
51.84000 6.972
51.86000 2.187
51.88000 1.593
51.90000 3.920
51.92000 6.150
51.94000 5.938
51.96000 2.179
51.98000 2.941
52.00000 5.722
52.02000 8.390
52.04000 4.967
52.06000 1.224
52.08000 -1.389
52.10000 3.054
52.12000 1.464
52.14000 -2.733
52.16000 -1.337
52.18000 2.903
52.20000 3.147
52.22000 2.459
52.24000 0.227
52.26000 2.002
52.28000 2.422
52.30000 -0.652
52.32000 -0.023
52.34000 4.521
52.36000 5.149
52.38000 3.494
52.40000 7.276
52.42000 5.729
52.44000 -0.227
52.46000 -1.099
52.48000 2.499
52.50000 4.245
52.52000 0.257
52.54000 0.452
52.56000 4.523
52.58000 4.743
52.60000 0.949
52.62000 0.504
52.64000 0.910
52.66000 2.953
52.68000 0.289
52.70000 -0.635
52.72000 2.644
52.74000 1.753
52.76000 5.490
52.78000 8.310
52.80000 1.303
52.82000 3.027
52.84000 4.365
52.86000 5.059
52.88000 7.420
52.90000 3.033
52.92000 1.776
52.94000 0.995
52.96000 1.464
52.98000 4.698
53.00000 3.741
53.02000 2.934
53.04000 6.956
53.06000 8.748
53.08000 4.237
53.10000 5.113
53.12000 2.582
53.14000 0.410
53.16000 5.810
53.18000 3.919
53.20000 -2.689
53.22000 1.486
53.24000 3.043
53.26000 3.125
53.28000 1.033
53.30000 5.440
53.32000 5.073
53.34000 6.581
53.36000 8.883
53.38000 7.441
53.40000 5.789
53.42000 -0.568
53.44000 -1.441
53.46000 2.369
53.48000 2.940
53.50000 2.248
53.52000 5.116
53.54000 8.001
53.56000 3.963
53.58000 1.145
53.60000 2.424
53.62000 2.976
53.64000 5.267
53.66000 5.652
53.68000 5.973
53.70000 1.908
53.72000 -2.662
53.74000 -0.333
53.76000 5.754
53.78000 8.130
53.80000 7.652
53.82000 7.032
53.84000 4.658
53.86000 2.104
53.88000 2.648
53.90000 3.522
53.92000 -1.760
53.94000 -0.687
53.96000 1.745
53.98000 5.426
54.00000 3.680
54.02000 0.661
54.04000 -0.831
54.06000 1.081
54.08000 -1.596
54.10000 0.763
54.12000 3.543
54.14000 2.007
54.16000 5.659
54.18000 3.500
54.20000 3.638
54.22000 1.597
54.24000 -1.091
54.26000 -0.837
54.28000 5.033
54.30000 4.354
54.32000 3.523
54.34000 2.791
54.36000 -0.329
54.38000 -0.999
54.40000 3.042
54.42000 0.879
54.44000 1.444
54.46000 -1.597
54.48000 1.788
54.50000 4.520
54.52000 7.682
54.54000 5.711
54.56000 3.862
54.58000 3.376
54.60000 2.260
54.62000 0.910
54.64000 1.710
54.66000 -0.742
54.68000 -1.600
54.70000 -0.071
54.72000 -0.996
54.74000 -1.073
54.76000 0.957
54.78000 -1.722
54.80000 -1.972
54.82000 1.689
54.84000 1.577
54.86000 3.254
54.88000 2.794
54.90000 -1.201
54.92000 3.108
54.94000 3.030
54.96000 -1.187
54.98000 2.761
55.00000 -2.254
55.02000 1.020
55.04000 0.631
55.06000 3.438
55.08000 4.053
55.10000 5.864
55.12000 4.854
55.14000 6.685
55.16000 3.134
55.18000 0.407
55.20000 -2.624
55.22000 2.426
55.24000 -0.289
55.26000 -0.884
55.28000 1.330
55.30000 1.117
55.32000 2.923
55.34000 5.176
55.36000 2.893
55.38000 7.441
55.40000 2.913
55.42000 1.843
55.44000 5.175
55.46000 6.496
55.48000 0.556
55.50000 1.313
55.52000 2.527
55.54000 2.740
55.56000 1.228
55.58000 0.601
55.60000 1.812
55.62000 3.265
55.64000 4.222
55.66000 7.694
55.68000 5.172
55.70000 4.543
55.72000 1.518
55.74000 3.814
55.76000 3.241
55.78000 6.255
55.80000 3.174
55.82000 -0.621
55.84000 2.042
55.86000 2.356
55.88000 2.886
55.90000 1.907
55.92000 6.350
55.94000 6.832
55.96000 7.445
55.98000 6.163
56.00000 3.213
56.02000 5.366
56.04000 5.414
56.06000 3.683
56.08000 6.356
56.10000 5.514
56.12000 3.565
56.14000 0.727
56.16000 -1.628
56.18000 3.759
56.20000 5.509
56.22000 6.191
56.24000 5.517
56.26000 2.120
56.28000 1.730
56.30000 1.527
56.32000 -2.617
56.34000 1.017
56.36000 3.537
56.38000 2.208
56.40000 3.609
56.42000 2.059
56.44000 0.529
56.46000 2.329
56.48000 1.541
56.50000 2.941
56.52000 3.598
56.54000 0.279
56.56000 0.610
56.58000 1.968
56.60000 -0.427
56.62000 -0.288
56.64000 2.037
56.66000 3.208
56.68000 0.863
56.70000 2.592
56.72000 1.806
56.74000 1.300
56.76000 -0.232
56.78000 1.642
56.80000 1.592
56.82000 2.894
56.84000 5.966
56.86000 6.974
56.88000 4.397
56.90000 -2.241
56.92000 -0.542
56.94000 0.845
56.96000 3.338
56.98000 6.304
57.00000 2.470
57.02000 3.327
57.04000 5.106
57.06000 5.802
57.08000 1.532
57.10000 3.991
57.12000 3.295
57.14000 0.862
57.16000 -2.439
57.18000 0.179
57.20000 -2.085
57.22000 -0.793
57.24000 1.393
57.26000 1.998
57.28000 2.444
57.30000 -0.206
57.32000 0.215
57.34000 -1.768
57.36000 -1.264
57.38000 -2.254
57.40000 -0.876
57.42000 -0.947
57.44000 -2.266
57.46000 -2.446
57.48000 -0.108
57.50000 2.634
57.52000 3.155
57.54000 1.639
57.56000 3.256
57.58000 2.558
57.60000 2.525
57.62000 1.879
57.64000 0.495
57.66000 2.944
57.68000 5.751
57.70000 7.586
57.72000 3.767
57.74000 0.444
57.76000 -0.446
57.78000 3.360
57.80000 6.485
57.82000 0.038
57.84000 -1.012
57.86000 -2.265
57.88000 -1.659
57.90000 -0.259
57.92000 3.239
57.94000 -0.415
57.96000 2.930
57.98000 2.439
58.00000 -0.511
58.02000 -2.555
58.04000 -0.595
58.06000 1.296
58.08000 2.074
58.10000 1.250
58.12000 -0.035
58.14000 0.442
58.16000 1.692
58.18000 6.975
58.20000 2.882
58.22000 2.080
58.24000 3.228
58.26000 2.029
58.28000 2.076
58.30000 3.037
58.32000 1.173
58.34000 1.773
58.36000 1.243
58.38000 1.381
58.40000 0.115
58.42000 1.570
58.44000 4.239
58.46000 4.469
58.48000 0.965
58.50000 0.885
58.52000 2.205
58.54000 0.866
58.56000 3.634
58.58000 3.155
58.60000 5.613
58.62000 -2.528
58.64000 0.587
58.66000 9.866
58.68000 8.560
58.70000 4.345
58.72000 2.437
58.74000 -0.501
58.76000 3.755
58.78000 6.408
58.80000 6.525
58.82000 5.588
58.84000 2.190
58.86000 3.084
58.88000 6.067
58.90000 3.888
58.92000 2.638
58.94000 4.805
58.96000 3.744
58.98000 2.756
59.00000 2.929
59.02000 -2.529
59.04000 -0.942
59.06000 2.292
59.08000 1.123
59.10000 1.845
59.12000 -0.296
59.14000 3.103
59.16000 0.965
59.18000 4.101
59.20000 4.690
59.22000 5.325
59.24000 2.547
59.26000 -1.089
59.28000 -0.774
59.30000 -0.226
59.32000 0.050
59.34000 2.212
59.36000 1.492
59.38000 4.317
59.40000 4.693
59.42000 3.829
59.44000 2.145
59.46000 3.294
59.48000 4.668
59.50000 2.978
59.52000 0.478
59.54000 2.963
59.56000 6.571
59.58000 3.703
59.60000 4.074
59.62000 2.226
59.64000 3.553
59.66000 3.156
59.68000 2.905
59.70000 2.432
59.72000 1.502
59.74000 5.507
59.76000 1.433
59.78000 2.186
59.80000 4.618
59.82000 3.950
59.84000 1.634
59.86000 6.262
59.88000 5.924
59.90000 2.031
59.92000 1.076
59.94000 3.953
59.96000 1.915
59.98000 5.609
60.00000 6.414
60.02000 5.199
60.04000 4.413
60.06000 5.979
60.08000 7.650
60.10000 5.756
60.12000 3.410
60.14000 2.216
60.16000 2.198
60.18000 2.929
60.20000 5.801
60.22000 7.724
60.24000 7.025
60.26000 2.295
60.28000 5.230
60.30000 3.636
60.32000 0.813
60.34000 -1.755
60.36000 -2.466
60.38000 2.762
60.40000 4.201
60.42000 3.797
60.44000 8.011
60.46000 7.149
60.48000 4.658
60.50000 4.741
60.52000 7.046
60.54000 7.363
60.56000 7.982
60.58000 5.161
60.60000 3.332
60.62000 4.678
60.64000 4.947
60.66000 4.902
60.68000 3.026
60.70000 2.147
60.72000 0.517
60.74000 1.653
60.76000 -2.467
60.78000 -1.403
60.80000 1.306
60.82000 4.269
60.84000 2.670
60.86000 3.298
60.88000 5.473
60.90000 4.002
60.92000 6.719
60.94000 3.568
60.96000 1.390
60.98000 3.068
61.00000 3.460
61.02000 5.760
61.04000 4.709
61.06000 4.699
61.08000 6.568
61.10000 4.537
61.12000 1.974
61.14000 0.072
61.16000 1.538
61.18000 1.538
61.20000 2.411
61.22000 5.793
61.24000 4.521
61.26000 2.334
61.28000 2.883
61.30000 1.860
61.32000 1.743
61.34000 2.867
61.36000 3.609
61.38000 1.954
61.40000 1.855
61.42000 6.803
61.44000 4.097
61.46000 -0.798
61.48000 -1.957
61.50000 -2.456
61.52000 -0.730
61.54000 3.212
61.56000 5.250
61.58000 2.828
61.60000 4.325
61.62000 4.022
61.64000 5.291
61.66000 2.416
61.68000 -0.750
61.70000 4.620
61.72000 4.839
61.74000 -2.047
61.76000 1.287
61.78000 3.044
61.80000 0.757
61.82000 1.174
61.84000 3.160
61.86000 4.183
61.88000 0.597
61.90000 -0.663
61.92000 -2.457
61.94000 -0.935
61.96000 1.598
61.98000 3.692
62.00000 1.076
62.02000 2.333
62.04000 0.034
62.06000 3.510
62.08000 2.520
62.10000 0.749
62.12000 0.289
62.14000 3.499
62.16000 3.920
62.18000 1.671
62.20000 2.293
62.22000 1.032
62.24000 3.022
62.26000 2.700
62.28000 4.279
62.30000 -0.542
62.32000 -0.322
62.34000 -1.236
62.36000 -0.290
62.38000 0.517
62.40000 -0.812
62.42000 0.547
62.44000 -0.321
62.46000 4.437
62.48000 1.658
62.50000 0.643
62.52000 2.628
62.54000 6.372
62.56000 5.608
62.58000 0.869
62.60000 0.143
62.62000 2.336
62.64000 5.761
62.66000 5.591
62.68000 4.930
62.70000 1.903
62.72000 -0.484
62.74000 2.271
62.76000 4.799
62.78000 2.853
62.80000 2.325
62.82000 1.212
62.84000 3.991
62.86000 8.577
62.88000 2.936
62.90000 2.909
62.92000 2.352
62.94000 5.535
62.96000 8.701
62.98000 5.893
63.00000 5.062
63.02000 6.255
63.04000 3.222
63.06000 3.073
63.08000 3.295
63.10000 3.259
63.12000 6.637
63.14000 3.394
63.16000 -2.398
63.18000 0.913
63.20000 3.407
63.22000 2.222
63.24000 1.822
63.26000 5.913
63.28000 6.457
63.30000 4.665
63.32000 5.274
63.34000 4.333
63.36000 2.164
63.38000 1.885
63.40000 2.480
63.42000 4.367
63.44000 5.959
63.46000 4.018
63.48000 1.012
63.50000 1.921
63.52000 4.235
63.54000 0.012
63.56000 -0.628
63.58000 -0.662
63.60000 5.187
63.62000 3.987
63.64000 1.379
63.66000 4.625
63.68000 0.358
63.70000 3.182
63.72000 4.865
63.74000 4.281
63.76000 1.269
63.78000 0.941
63.80000 1.987
63.82000 2.727
63.84000 7.168
63.86000 5.532
63.88000 3.166
63.90000 3.902
63.92000 3.327
63.94000 -0.190
63.96000 0.036
63.98000 4.130
64.00000 6.431
64.02000 7.460
64.04000 4.631
64.06000 3.270
64.08000 3.973
64.10000 -0.309
64.12000 2.450
64.14000 4.357
64.16000 5.009
64.18000 5.323
64.20000 5.473
64.22000 6.464
64.24000 2.814
64.26000 1.654
64.28000 1.685
64.30000 3.864
64.32000 4.215
64.34000 3.187
64.36000 3.178
64.38000 4.153
64.40000 3.884
64.42000 4.338
64.44000 1.276
64.46000 1.202
64.48000 3.459
64.50000 5.762
64.52000 1.975
64.54000 3.105
64.56000 2.665
64.58000 2.915
64.60000 0.201
64.62000 -0.173
64.64000 -2.398
64.66000 2.807
64.68000 2.282
64.70000 2.128
64.72000 4.534
64.74000 4.700
64.76000 4.312
64.78000 6.695
64.80000 5.567
64.82000 1.108
64.84000 1.234
64.86000 2.899
64.88000 3.181
64.90000 0.834
64.92000 2.182
64.94000 1.294
64.96000 2.970
64.98000 0.929
65.00000 -1.850
65.02000 -1.266
65.04000 -0.562
65.06000 0.047
65.08000 -0.081
65.10000 4.181
65.12000 1.549
65.14000 0.705
65.16000 2.881
65.18000 3.371
65.20000 2.715
65.22000 2.469
65.24000 5.234
65.26000 2.577
65.28000 2.790
65.30000 2.859
65.32000 1.326
65.34000 2.223
65.36000 1.032
65.38000 -1.357
65.40000 3.585
65.42000 7.005
65.44000 2.000
65.46000 2.314
65.48000 -2.304
65.50000 -2.424
65.52000 -2.425
65.54000 -0.677
65.56000 -1.619
65.58000 -0.412
65.60000 0.986
65.62000 0.930
65.64000 -1.509
65.66000 2.956
65.68000 2.772
65.70000 1.784
65.72000 -1.823
65.74000 0.225
65.76000 3.428
65.78000 2.075
65.80000 -0.164
65.82000 0.935
65.84000 -0.261
65.86000 0.458
65.88000 -0.179
65.90000 1.399
65.92000 2.833
65.94000 3.162
65.96000 1.422
65.98000 0.795
66.00000 -0.004
66.02000 -1.957
66.04000 -2.445
66.06000 -0.187
66.08000 -1.613
66.10000 -0.960
66.12000 -1.256
66.14000 0.779
66.16000 -0.323
66.18000 1.159
66.20000 1.576
66.22000 0.549
66.24000 3.885
66.26000 2.035
66.28000 -0.864
66.30000 -2.255
66.32000 0.264
66.34000 1.419
66.36000 -0.812
66.38000 0.181
66.40000 2.325
66.42000 0.909
66.44000 -1.339
66.46000 -2.471
66.48000 0.731
66.50000 3.466
66.52000 5.638
66.54000 3.682
66.56000 3.063
66.58000 3.343
66.60000 0.434
66.62000 1.026
66.64000 2.190
66.66000 4.862
66.68000 3.423
66.70000 2.379
66.72000 -1.645
66.74000 0.652
66.76000 1.661
66.78000 -0.859
66.80000 1.740
66.82000 2.535
66.84000 2.192
66.86000 1.159
66.88000 1.658
66.90000 6.201
66.92000 3.321
66.94000 3.480
66.96000 5.109
66.98000 5.175
67.00000 6.721
67.02000 7.160
67.04000 7.604
67.06000 8.623
67.08000 4.989
67.10000 5.622
67.12000 8.541
67.14000 7.656
67.16000 5.924
67.18000 4.676
67.20000 8.387
67.22000 9.695
67.24000 5.973
67.26000 6.316
67.28000 6.833
67.30000 9.365
67.32000 9.233
67.34000 10.053
67.36000 11.658
67.38000 10.562
67.40000 14.733
67.42000 9.632
67.44000 7.091
67.46000 6.630
67.48000 11.382
67.50000 11.052
67.52000 13.714
67.54000 16.634
67.56000 14.949
67.58000 13.531
67.60000 11.830
67.62000 12.805
67.64000 13.903
67.66000 13.268
67.68000 13.252
67.70000 13.919
67.72000 15.184
67.74000 15.163
67.76000 12.546
67.78000 14.568
67.80000 14.524
67.82000 17.140
67.84000 19.864
67.86000 17.161
67.88000 15.791
67.90000 15.074
67.92000 15.603
67.94000 15.395
67.96000 13.925
67.98000 16.976
68.00000 15.201
68.02000 13.707
68.04000 13.321
68.06000 12.217
68.08000 16.546
68.10000 13.783
68.12000 16.362
68.14000 15.466
68.16000 14.597
68.18000 15.894
68.20000 11.637
68.22000 13.836
68.24000 13.980
68.26000 15.925
68.28000 14.259
68.30000 14.573
68.32000 13.996
68.34000 14.212
68.36000 14.406
68.38000 10.247
68.40000 8.012
68.42000 9.057
68.44000 8.953
68.46000 9.352
68.48000 8.230
68.50000 10.872
68.52000 11.775
68.54000 10.430
68.56000 9.821
68.58000 6.380
68.60000 6.589
68.62000 7.140
68.64000 8.192
68.66000 5.912
68.68000 4.576
68.70000 5.014
68.72000 4.973
68.74000 2.810
68.76000 4.041
68.78000 4.940
68.80000 3.811
68.82000 4.691
68.84000 4.957
68.86000 1.392
68.88000 1.522
68.90000 2.095
68.92000 2.623
68.94000 0.164
68.96000 1.254
68.98000 0.750
69.00000 2.113
69.02000 2.420
69.04000 2.377
69.06000 0.829
69.08000 2.016
69.10000 1.287
69.12000 1.673
69.14000 1.806
69.16000 3.086
69.18000 1.878
69.20000 3.888
69.22000 0.515
69.24000 -2.024
69.26000 -2.365
69.28000 -1.164
69.30000 -0.842
69.32000 -0.486
69.34000 0.971
69.36000 -0.331
69.38000 1.100
69.40000 0.569
69.42000 3.129
69.44000 1.184
69.46000 -1.612
69.48000 0.357
69.50000 -0.224
69.52000 -2.324
69.54000 1.843
69.56000 4.663
69.58000 2.349
69.60000 1.537
69.62000 0.515
69.64000 2.866
69.66000 2.567
69.68000 1.783
69.70000 2.989
69.72000 0.854
69.74000 -1.054
69.76000 0.389
69.78000 1.134
69.80000 2.118
69.82000 3.933
69.84000 1.273
69.86000 0.607
69.88000 -0.766
69.90000 0.537
69.92000 -1.619
69.94000 -1.443
69.96000 0.365
69.98000 0.119
70.00000 1.495
70.02000 2.466
70.04000 2.973
70.06000 -0.346
70.08000 -2.241
70.10000 1.454
70.12000 4.384
70.14000 3.410
70.16000 3.959
70.18000 1.794
70.20000 1.219
70.22000 -0.148
70.24000 1.992
70.26000 3.138
70.28000 0.522
70.30000 2.273
70.32000 3.890
70.34000 4.320
70.36000 2.369
70.38000 1.416
70.40000 1.706
70.42000 1.330
70.44000 -0.566
70.46000 0.016
70.48000 1.099
70.50000 3.011
70.52000 2.164
70.54000 4.279
70.56000 2.689
70.58000 5.008
70.60000 1.747
70.62000 3.226
70.64000 3.994
70.66000 3.239
70.68000 1.571
70.70000 2.220
70.72000 -2.175
70.74000 -1.183
70.76000 2.504
70.78000 1.550
70.80000 1.339
70.82000 0.277
70.84000 1.103
70.86000 -0.546
70.88000 -0.881
70.90000 1.165
70.92000 3.177
70.94000 2.604
70.96000 -0.290
70.98000 0.955
71.00000 2.549
71.02000 4.502
71.04000 4.083
71.06000 -0.204
71.08000 -2.180
71.10000 -1.200
71.12000 3.736
71.14000 2.197
71.16000 4.198
71.18000 4.920
71.20000 4.789
71.22000 2.326
71.24000 -1.140
71.26000 0.449
71.28000 -0.950
71.30000 -1.779
71.32000 2.215
71.34000 0.582
71.36000 -0.833
71.38000 2.662
71.40000 4.253
71.42000 -0.353
71.44000 0.311
71.46000 1.785
71.48000 2.406
71.50000 1.243
71.52000 1.417
71.54000 1.431
71.56000 -1.307
71.58000 -0.214
71.60000 1.266
71.62000 1.345
71.64000 -0.284
71.66000 2.141
71.68000 2.779
71.70000 1.531
71.72000 5.256
71.74000 2.237
71.76000 -1.666
71.78000 2.158
71.80000 0.599
71.82000 -0.970
71.84000 0.561
71.86000 0.979
71.88000 -1.193
71.90000 -1.170
71.92000 0.543
71.94000 1.985
71.96000 3.636
71.98000 3.473
72.00000 -0.671
72.02000 -0.102
72.04000 -1.024
72.06000 2.157
72.08000 3.726
72.10000 -0.518
72.12000 1.540
72.14000 0.726
72.16000 0.310
72.18000 3.075
72.20000 3.335
72.22000 0.648
72.24000 -0.867
72.26000 0.709
72.28000 4.985
72.30000 3.792
72.32000 1.913
72.34000 -0.119
72.36000 0.238
72.38000 1.601
72.40000 0.498
72.42000 1.908
72.44000 5.400
72.46000 1.531
72.48000 1.741
72.50000 0.610
72.52000 -0.285
72.54000 1.159
72.56000 -0.969
72.58000 -2.112
72.60000 0.591
72.62000 4.802
72.64000 3.445
72.66000 3.890
72.68000 4.453
72.70000 3.188
72.72000 1.890
72.74000 1.099
72.76000 2.952
72.78000 1.420
72.80000 3.772
72.82000 0.719
72.84000 -1.008
72.86000 2.012
72.88000 -0.538
72.90000 2.350
72.92000 1.040
72.94000 -1.816
72.96000 3.588
72.98000 2.708
73.00000 2.397
73.02000 1.167
73.04000 0.121
73.06000 0.567
73.08000 -1.838
73.10000 -0.010
73.12000 -2.112
73.14000 0.047
73.16000 4.153
73.18000 4.223
73.20000 0.719
73.22000 1.992
73.24000 2.077
73.26000 1.235
73.28000 -1.584
73.30000 -1.715
73.32000 1.440
73.34000 2.689
73.36000 2.722
73.38000 2.532
73.40000 1.628
73.42000 4.539
73.44000 1.518
73.46000 -0.456
73.48000 1.136
73.50000 4.503
73.52000 1.201
73.54000 -1.399
73.56000 -1.493
73.58000 -1.328
73.60000 -2.122
73.62000 3.264
73.64000 5.837
73.66000 5.233
73.68000 1.748
73.70000 1.198
73.72000 -0.901
73.74000 -1.489
73.76000 -1.617
73.78000 1.422
73.80000 -0.417
73.82000 0.675
73.84000 -2.126
73.86000 -1.028
73.88000 1.304
73.90000 1.845
73.92000 4.585
73.94000 1.379
73.96000 0.088
73.98000 -0.718
74.00000 -1.296
74.02000 -0.267
74.04000 2.193
74.06000 -1.548
74.08000 -2.126
74.10000 0.453
74.12000 3.849
74.14000 2.720
74.16000 -0.527
74.18000 -0.029
74.20000 0.051
74.22000 -0.968
74.24000 0.414
74.26000 0.632
74.28000 0.653
74.30000 -0.912
74.32000 -1.484
74.34000 -0.723
74.36000 1.033
74.38000 0.474
74.40000 0.175
74.42000 1.011
74.44000 0.138
74.46000 1.535
74.48000 4.024
74.50000 3.882
74.52000 1.465
74.54000 0.305
74.56000 4.270
74.58000 1.814
74.60000 0.949
74.62000 1.163
74.64000 1.018
74.66000 1.373
74.68000 2.013
74.70000 1.025
74.72000 -0.671
74.74000 0.691
74.76000 1.770
74.78000 0.739
74.80000 -0.631
74.82000 -0.588
74.84000 -1.370
74.86000 -0.361
74.88000 -1.064
74.90000 0.841
74.92000 1.790
74.94000 -0.754
74.96000 -0.518
74.98000 0.723
75.00000 1.121
75.02000 5.083
75.04000 5.933
75.06000 3.326
75.08000 -0.095
75.10000 0.498
75.12000 2.227
75.14000 1.939
75.16000 1.705
75.18000 0.450
75.20000 1.063
75.22000 3.283
75.24000 2.393
75.26000 0.701
75.28000 -2.076
75.30000 -0.827
75.32000 -0.667
75.34000 -1.896
75.36000 -2.079
75.38000 1.399
75.40000 3.342
75.42000 3.229
75.44000 3.723
75.46000 5.605
75.48000 2.709
75.50000 -1.127
75.52000 1.412
75.54000 2.119
75.56000 1.542
75.58000 2.487
75.60000 -0.097
75.62000 -1.511
75.64000 2.271
75.66000 0.039
75.68000 0.036
75.70000 0.080
75.72000 -0.819
75.74000 1.890
75.76000 1.107
75.78000 3.627
75.80000 -1.036
75.82000 -1.715
75.84000 -1.436
75.86000 2.552
75.88000 2.366
75.90000 2.376
75.92000 2.744
75.94000 6.968
75.96000 4.216
75.98000 0.784
76.00000 -0.354
76.02000 2.249
76.04000 1.675
76.06000 0.973
76.08000 1.266
76.10000 2.231
76.12000 2.238
76.14000 1.573
76.16000 3.224
76.18000 4.840
76.20000 3.414
76.22000 1.603
76.24000 -1.571
76.26000 -0.476
76.28000 2.805
76.30000 3.851
76.32000 5.852
76.34000 4.914
76.36000 3.808
76.38000 1.103
76.40000 5.997
76.42000 5.175
76.44000 2.433
76.46000 2.822
76.48000 3.065
76.50000 2.585
76.52000 5.199
76.54000 4.394
76.56000 2.451
76.58000 3.658
76.60000 -2.081
76.62000 -0.136
76.64000 1.652
76.66000 4.865
76.68000 1.199
76.70000 0.749
76.72000 4.515
76.74000 4.280
76.76000 0.756
76.78000 2.092
76.80000 2.938
76.82000 1.026
76.84000 -0.183
76.86000 1.539
76.88000 3.822
76.90000 5.530
76.92000 2.606
76.94000 2.844
76.96000 2.725
76.98000 2.727
77.00000 4.775
77.02000 3.259
77.04000 2.040
77.06000 -1.356
77.08000 -1.642
77.10000 1.485
77.12000 -1.856
77.14000 -0.416
77.16000 1.980
77.18000 2.682
77.20000 2.621
77.22000 1.866
77.24000 2.454
77.26000 2.914
77.28000 4.823
77.30000 7.753
77.32000 6.453
77.34000 2.227
77.36000 2.064
77.38000 0.904
77.40000 -1.289
77.42000 1.584
77.44000 2.637
77.46000 -0.617
77.48000 0.284
77.50000 -0.538
77.52000 2.506
77.54000 4.115
77.56000 3.278
77.58000 1.173
77.60000 2.070
77.62000 -0.003
77.64000 -2.118
77.66000 0.464
77.68000 2.852
77.70000 3.901
77.72000 2.942
77.74000 3.887
77.76000 0.384
77.78000 -1.045
77.80000 0.958
77.82000 5.328
77.84000 2.014
77.86000 2.279
77.88000 3.280
77.90000 2.648
77.92000 -0.120
77.94000 2.438
77.96000 -2.112
77.98000 1.054
78.00000 2.515
78.02000 1.790
78.04000 1.858
78.06000 3.213
78.08000 2.367
78.10000 2.565
78.12000 0.618
78.14000 -2.127
78.16000 -0.285
78.18000 2.020
78.20000 4.342
78.22000 3.867
78.24000 1.128
78.26000 1.920
78.28000 2.864
78.30000 3.387
78.32000 4.643
78.34000 2.329
78.36000 -0.381
78.38000 -0.169
78.40000 2.313
78.42000 1.486
78.44000 0.708
78.46000 5.352
78.48000 6.658
78.50000 3.524
78.52000 0.585
78.54000 0.442
78.56000 1.495
78.58000 1.754
78.60000 1.593
78.62000 -0.724
78.64000 0.339
78.66000 2.545
78.68000 0.374
78.70000 2.804
78.72000 1.523
78.74000 -1.285
78.76000 -2.165
78.78000 -0.073
78.80000 3.004
78.82000 4.297
78.84000 3.450
78.86000 1.168
78.88000 2.608
78.90000 1.535
78.92000 2.265
78.94000 2.159
78.96000 2.567
78.98000 0.723
79.00000 1.760
79.02000 4.350
79.04000 2.232
79.06000 1.504
79.08000 0.167
79.10000 -1.325
79.12000 4.348
79.14000 3.160
79.16000 0.726
79.18000 -0.615
79.20000 1.321
79.22000 -1.490
79.24000 1.662
79.26000 -0.955
79.28000 0.388
79.30000 3.231
79.32000 1.123
79.34000 1.973
79.36000 0.938
79.38000 3.395
79.40000 3.397
79.42000 1.081
79.44000 -1.932
79.46000 3.084
79.48000 5.628
79.50000 5.282
79.52000 4.477
79.54000 -0.158
79.56000 -0.629
79.58000 -2.184
79.60000 -0.158
79.62000 4.010
79.64000 3.853
79.66000 0.309
79.68000 1.026
79.70000 3.038
79.72000 4.166
79.74000 1.679
79.76000 1.857
79.78000 0.861
79.80000 -0.144
79.82000 0.122
79.84000 4.294
79.86000 4.246
79.88000 4.626
79.90000 1.107
79.92000 5.193
79.94000 -2.233
79.96000 0.087
79.98000 2.445
80.00000 2.753
80.02000 2.035
80.04000 1.144
80.06000 2.777
80.08000 2.229
80.10000 5.730
80.12000 5.325
80.14000 0.634
80.16000 -1.663
80.18000 -0.601
80.20000 -1.081
80.22000 -0.464
80.24000 1.119
80.26000 3.082
80.28000 1.530
80.30000 1.620
80.32000 1.932
80.34000 1.986
80.36000 -2.279
80.38000 -1.548
80.40000 3.683
80.42000 3.841
80.44000 3.815
80.46000 0.142
80.48000 1.617
80.50000 6.132
80.52000 3.245
80.54000 2.555
80.56000 4.464
80.58000 6.753
80.60000 2.669
80.62000 1.974
80.64000 4.365
80.66000 5.941
80.68000 7.744
80.70000 3.381
80.72000 7.040
80.74000 5.364
80.76000 3.936
80.78000 2.818
80.80000 2.981
80.82000 2.094
80.84000 4.643
80.86000 6.973
80.88000 5.934
80.90000 2.715
80.92000 6.303
80.94000 6.429
80.96000 2.379
80.98000 3.753
81.00000 7.597
81.02000 9.246
81.04000 12.131
81.06000 6.572
81.08000 5.013
81.10000 7.117
81.12000 11.562
81.14000 14.897
81.16000 13.016
81.18000 12.609
81.20000 10.407
81.22000 8.906
81.24000 9.390
81.26000 12.290
81.28000 8.683
81.30000 7.248
81.32000 11.060
81.34000 12.639
81.36000 14.407
81.38000 15.351
81.40000 14.545
81.42000 15.082
81.44000 12.473
81.46000 12.321
81.48000 14.603
81.50000 15.579
81.52000 14.312
81.54000 16.530
81.56000 14.242
81.58000 16.300
81.60000 12.981
81.62000 14.017
81.64000 13.618
81.66000 15.708
81.68000 18.580
81.70000 19.442
81.72000 16.319
81.74000 19.601
81.76000 23.585
81.78000 20.362
81.80000 20.019
81.82000 21.754
81.84000 20.384
81.86000 19.819
81.88000 20.419
81.90000 18.154
81.92000 19.036
81.94000 16.592
81.96000 18.806
81.98000 20.000
82.00000 18.695
82.02000 21.885
82.04000 25.801
82.06000 22.828
82.08000 18.165
82.10000 22.592
82.12000 20.737
82.14000 19.856
82.16000 21.386
82.18000 22.396
82.20000 22.212
82.22000 20.106
82.24000 19.387
82.26000 19.763
82.28000 19.919
82.30000 26.128
82.32000 21.994
82.34000 18.967
82.36000 16.875
82.38000 12.731
82.40000 18.568
82.42000 15.436
82.44000 15.813
82.46000 17.339
82.48000 19.530
82.50000 15.518
82.52000 13.623
82.54000 14.490
82.56000 15.390
82.58000 18.695
82.60000 16.291
82.62000 15.836
82.64000 16.054
82.66000 14.927
82.68000 12.258
82.70000 8.317
82.72000 11.509
82.74000 13.291
82.76000 6.597
82.78000 7.960
82.80000 8.241
82.82000 6.815
82.84000 6.876
82.86000 5.808
82.88000 8.391
82.90000 12.811
82.92000 12.772
82.94000 13.302
82.96000 11.877
82.98000 3.700
83.00000 5.673
83.02000 9.582
83.04000 9.917
83.06000 6.624
83.08000 4.996
83.10000 6.736
83.12000 4.631
83.14000 3.785
83.16000 6.689
83.18000 7.020
83.20000 4.377
83.22000 2.582
83.24000 2.431
83.26000 4.014
83.28000 6.798
83.30000 7.400
83.32000 5.713
83.34000 3.155
83.36000 1.147
83.38000 1.803
83.40000 6.425
83.42000 4.354
83.44000 1.779
83.46000 0.251
83.48000 3.987
83.50000 3.388
83.52000 0.185
83.54000 -0.090
83.56000 2.925
83.58000 1.671
83.60000 4.194
83.62000 3.711
83.64000 2.214
83.66000 3.257
83.68000 3.550
83.70000 1.658
83.72000 0.458
83.74000 -2.239
83.76000 5.572
83.78000 4.099
83.80000 3.478
83.82000 4.567
83.84000 3.983
83.86000 3.762
83.88000 1.634
83.90000 -0.406
83.92000 1.376
83.94000 -0.373
83.96000 3.542
83.98000 2.910
84.00000 5.647
84.02000 7.109
84.04000 8.279
84.06000 8.099
84.08000 4.892
84.10000 3.092
84.12000 -0.703
84.14000 -2.031
84.16000 -0.593
84.18000 -2.199
84.20000 1.506
84.22000 4.578
84.24000 1.829
84.26000 -0.680
84.28000 0.907
84.30000 3.251
84.32000 1.226
84.34000 0.908
84.36000 -0.824
84.38000 -1.990
84.40000 1.210
84.42000 2.982
84.44000 3.327
84.46000 -0.847
84.48000 -0.953
84.50000 2.626
84.52000 2.394
84.54000 2.063
84.56000 2.039
84.58000 1.534
84.60000 -1.746
84.62000 0.713
84.64000 7.489
84.66000 3.511
84.68000 2.562
84.70000 1.237
84.72000 -0.164
84.74000 -1.484
84.76000 2.071
84.78000 0.653
84.80000 3.045
84.82000 2.521
84.84000 2.612
84.86000 2.053
84.88000 1.699
84.90000 3.978
84.92000 3.448
84.94000 0.096
84.96000 0.096
84.98000 3.676
85.00000 2.379
85.02000 2.340
85.04000 2.673
85.06000 3.289
85.08000 1.930
85.10000 3.659
85.12000 -0.125
85.14000 -2.273
85.16000 -0.322
85.18000 0.714
85.20000 2.919
85.22000 0.168
85.24000 2.986
85.26000 5.769
85.28000 5.087
85.30000 3.334
85.32000 4.734
85.34000 5.792
85.36000 7.803
85.38000 7.598
85.40000 8.256
85.42000 9.524
85.44000 10.425
85.46000 3.111
85.48000 1.917
85.50000 2.197
85.52000 6.756
85.54000 9.339
85.56000 9.499
85.58000 7.331
85.60000 9.184
85.62000 10.566
85.64000 11.755
85.66000 14.366
85.68000 15.915
85.70000 11.888
85.72000 10.508
85.74000 8.640
85.76000 11.014
85.78000 16.314
85.80000 14.088
85.82000 9.906
85.84000 13.584
85.86000 18.712
85.88000 15.003
85.90000 13.005
85.92000 16.833
85.94000 16.522
85.96000 13.497
85.98000 18.818
86.00000 22.651
86.02000 21.422
86.04000 20.815
86.06000 18.689
86.08000 22.729
86.10000 25.274
86.12000 18.142
86.14000 18.226
86.16000 15.835
86.18000 19.718
86.20000 18.759
86.22000 19.201
86.24000 18.043
86.26000 17.746
86.28000 17.194
86.30000 16.646
86.32000 16.266
86.34000 15.747
86.36000 14.998
86.38000 19.412
86.40000 18.354
86.42000 17.651
86.44000 18.059
86.46000 17.658
86.48000 14.845
86.50000 12.332
86.52000 15.133
86.54000 17.173
86.56000 15.861
86.58000 14.106
86.60000 11.176
86.62000 12.888
86.64000 10.199
86.66000 12.406
86.68000 12.770
86.70000 10.221
86.72000 12.165
86.74000 13.018
86.76000 9.850
86.78000 8.945
86.80000 14.649
86.82000 15.339
86.84000 11.316
86.86000 7.279
86.88000 7.084
86.90000 6.727
86.92000 6.776
86.94000 9.234
86.96000 8.694
86.98000 3.622
87.00000 6.391
87.02000 4.912
87.04000 5.711
87.06000 6.430
87.08000 6.021
87.10000 5.208
87.12000 6.380
87.14000 3.251
87.16000 3.124
87.18000 0.397
87.20000 2.279
87.22000 2.113
87.24000 1.907
87.26000 4.379
87.28000 7.440
87.30000 7.185
87.32000 9.019
87.34000 3.754
87.36000 1.177
87.38000 -1.569
87.40000 -2.158
87.42000 1.576
87.44000 1.655
87.46000 0.818
87.48000 3.346
87.50000 0.994
87.52000 0.188
87.54000 3.074
87.56000 5.620
87.58000 3.267
87.60000 1.247
87.62000 -1.304
87.64000 3.782
87.66000 1.603
87.68000 0.965
87.70000 2.761
87.72000 0.608
87.74000 0.755
87.76000 1.088
87.78000 -0.780
87.80000 -1.798
87.82000 -1.818
87.84000 -1.104
87.86000 -1.972
87.88000 -0.707
87.90000 2.217
87.92000 -2.091
87.94000 -1.132
87.96000 3.009
87.98000 1.503
88.00000 0.102
88.02000 1.219
88.04000 1.973
88.06000 1.719
88.08000 0.699
88.10000 2.390
88.12000 3.056
88.14000 1.672
88.16000 0.080
88.18000 0.085
88.20000 0.496
88.22000 1.547
88.24000 5.164
88.26000 0.157
88.28000 -0.743
88.30000 2.323
88.32000 2.733
88.34000 2.973
88.36000 5.679
88.38000 3.165
88.40000 1.144
88.42000 5.890
88.44000 2.119
88.46000 1.525
88.48000 2.366
88.50000 1.221
88.52000 -1.990
88.54000 1.672
88.56000 2.942
88.58000 2.218
88.60000 2.864
88.62000 3.430
88.64000 3.002
88.66000 4.427
88.68000 4.427
88.70000 2.568
88.72000 0.873
88.74000 1.554
88.76000 3.111
88.78000 2.332
88.80000 -1.962
88.82000 1.526
88.84000 5.205
88.86000 0.137
88.88000 0.174
88.90000 2.148
88.92000 6.788
88.94000 4.292
88.96000 0.728
88.98000 2.034
89.00000 1.761
89.02000 1.404
89.04000 3.943
89.06000 2.535
89.08000 1.879
89.10000 1.407
89.12000 -0.192
89.14000 0.109
89.16000 2.019
89.18000 2.476
89.20000 5.108
89.22000 4.844
89.24000 4.902
89.26000 4.053
89.28000 2.895
89.30000 -1.128
89.32000 0.600
89.34000 1.222
89.36000 -0.659
89.38000 0.341
89.40000 -0.594
89.42000 -0.370
89.44000 2.807
89.46000 -0.579
89.48000 0.082
89.50000 -0.777
89.52000 4.307
89.54000 4.865
89.56000 2.043
89.58000 3.092
89.60000 0.170
89.62000 1.450
89.64000 4.562
89.66000 3.732
89.68000 0.062
89.70000 -1.666
89.72000 1.048
89.74000 2.485
89.76000 1.851
89.78000 5.548
89.80000 5.393
89.82000 4.127
89.84000 5.315
89.86000 5.498
89.88000 2.710
89.90000 3.514
89.92000 1.315
89.94000 0.483
89.96000 2.644
89.98000 3.987
90.00000 3.543
90.02000 3.940
90.04000 3.489
90.06000 -0.420
90.08000 3.266
90.10000 7.024
90.12000 5.123
90.14000 2.663
90.16000 4.614
90.18000 3.671
90.20000 2.630
90.22000 4.773
90.24000 2.434
90.26000 4.172
90.28000 2.957
90.30000 0.452
90.32000 1.209
90.34000 4.012
90.36000 -1.947
90.38000 -1.765
90.40000 -0.896
90.42000 0.691
90.44000 -0.086
90.46000 -0.263
90.48000 2.621
90.50000 3.300
90.52000 2.322
90.54000 1.146
90.56000 2.091
90.58000 3.265
90.60000 3.926
90.62000 3.688
90.64000 2.262
90.66000 2.604
90.68000 2.485
90.70000 -0.851
90.72000 -0.628
90.74000 0.017
90.76000 2.051
90.78000 0.371
90.80000 0.007
90.82000 1.762
90.84000 2.579
90.86000 2.562
90.88000 0.484
90.90000 1.870
90.92000 4.332
90.94000 3.737
90.96000 2.522
90.98000 2.172
91.00000 1.767
91.02000 1.995
91.04000 4.048
91.06000 1.484
91.08000 -0.416
91.10000 0.735
91.12000 0.504
91.14000 1.470
91.16000 0.211
91.18000 2.527
91.20000 6.990
91.22000 2.402
91.24000 1.692
91.26000 2.562
91.28000 1.586
91.30000 0.852
91.32000 -1.329
91.34000 -1.595
91.36000 2.475
91.38000 2.110
91.40000 2.667
91.42000 1.243
91.44000 0.705
91.46000 3.529
91.48000 2.845
91.50000 0.337
91.52000 0.293
91.54000 -0.503
91.56000 -1.147
91.58000 0.651
91.60000 1.601
91.62000 -0.181
91.64000 2.299
91.66000 2.840
91.68000 -0.521
91.70000 1.616
91.72000 0.824
91.74000 2.381
91.76000 3.117
91.78000 -0.517
91.80000 0.574
91.82000 -0.105
91.84000 2.131
91.86000 5.276
91.88000 6.585
91.90000 5.040
91.92000 3.491
91.94000 4.502
91.96000 3.162
91.98000 5.247
92.00000 2.258
92.02000 1.253
92.04000 3.093
92.06000 3.569
92.08000 3.151
92.10000 4.848
92.12000 3.971
92.14000 2.513
92.16000 4.169
92.18000 2.353
92.20000 3.107
92.22000 4.398
92.24000 1.242
92.26000 1.732
92.28000 5.656
92.30000 4.866
92.32000 5.419
92.34000 4.388
92.36000 1.790
92.38000 2.953
92.40000 0.143
92.42000 -1.928
92.44000 4.648
92.46000 2.987
92.48000 4.176
92.50000 1.029
92.52000 1.027
92.54000 4.491
92.56000 8.168
92.58000 7.122
92.60000 -0.399
92.62000 3.235
92.64000 4.991
92.66000 4.932
92.68000 7.748
92.70000 1.439
92.72000 1.295
92.74000 1.623
92.76000 0.999
92.78000 2.974
92.80000 0.521
92.82000 -0.352
92.84000 2.243
92.86000 4.145
92.88000 3.775
92.90000 2.701
92.92000 1.905
92.94000 1.815
92.96000 0.823
92.98000 1.722
93.00000 3.298
93.02000 4.024
93.04000 4.642
93.06000 3.320
93.08000 2.214
93.10000 -0.915
93.12000 2.059
93.14000 1.812
93.16000 4.502
93.18000 2.059
93.20000 1.455
93.22000 1.673
93.24000 1.862
93.26000 0.806
93.28000 3.923
93.30000 -0.072
93.32000 -0.003
93.34000 -0.050
93.36000 -0.122
93.38000 0.685
93.40000 2.006
93.42000 0.556
93.44000 4.992
93.46000 1.438
93.48000 1.659
93.50000 1.185
93.52000 -1.372
93.54000 3.929
93.56000 4.748
93.58000 0.704
93.60000 0.105
93.62000 0.304
93.64000 2.983
93.66000 2.904
93.68000 0.258
93.70000 -1.979
93.72000 1.097
93.74000 3.994
93.76000 3.886
93.78000 4.261
93.80000 1.721
93.82000 -0.374
93.84000 -1.558
93.86000 0.387
93.88000 0.683
93.90000 3.419
93.92000 6.365
93.94000 2.521
93.96000 0.578
93.98000 1.717
94.00000 3.385
94.02000 3.238
94.04000 2.621
94.06000 2.900
94.08000 2.182
94.10000 4.702
94.12000 1.819
94.14000 0.532
94.16000 1.801
94.18000 0.297
94.20000 3.516
94.22000 -0.498
94.24000 2.555
94.26000 2.964
94.28000 1.760
94.30000 0.794
94.32000 2.824
94.34000 0.628
94.36000 -1.973
94.38000 0.026
94.40000 3.390
94.42000 2.559
94.44000 0.894
94.46000 3.468
94.48000 1.666
94.50000 -1.191
94.52000 1.280
94.54000 2.593
94.56000 -0.037
94.58000 -0.146
94.60000 2.851
94.62000 3.657
94.64000 2.877
94.66000 1.400
94.68000 1.422
94.70000 6.003
94.72000 2.675
94.74000 5.091
94.76000 4.964
94.78000 1.076
94.80000 0.350
94.82000 1.580
94.84000 0.829
94.86000 1.718
94.88000 -0.193
94.90000 2.258
94.92000 -0.939
94.94000 4.239
94.96000 2.051
94.98000 4.211
95.00000 7.814
95.02000 5.836
95.04000 1.825
95.06000 5.135
95.08000 8.107
95.10000 1.389
95.12000 4.677
95.14000 2.535
95.16000 1.916
95.18000 8.103
95.20000 2.516
95.22000 3.348
95.24000 5.707
95.26000 0.705
95.28000 1.058
95.30000 5.633
95.32000 3.758
95.34000 4.099
95.36000 4.571
95.38000 4.844
95.40000 2.406
95.42000 3.040
95.44000 3.625
95.46000 4.336
95.48000 5.814
95.50000 4.167
95.52000 3.186
95.54000 4.786
95.56000 7.925
95.58000 7.699
95.60000 5.428
95.62000 4.746
95.64000 8.381
95.66000 6.784
95.68000 9.225
95.70000 4.566
95.72000 2.375
95.74000 5.058
95.76000 -1.929
95.78000 0.862
95.80000 6.552
95.82000 6.308
95.84000 5.146
95.86000 2.494
95.88000 -0.794
95.90000 -0.367
95.92000 0.153
95.94000 -0.198
95.96000 0.408
95.98000 3.226
96.00000 4.609
96.02000 3.182
96.04000 3.492
96.06000 4.996
96.08000 4.902
96.10000 1.424
96.12000 1.442
96.14000 2.748
96.16000 1.177
96.18000 -0.336
96.20000 3.532
96.22000 7.369
96.24000 5.358
96.26000 5.596
96.28000 0.637
96.30000 2.947
96.32000 0.869
96.34000 4.926
96.36000 6.286
96.38000 1.552
96.40000 6.381
96.42000 6.513
96.44000 5.593
96.46000 5.606
96.48000 0.625
96.50000 2.945
96.52000 5.213
96.54000 4.043
96.56000 4.460
96.58000 5.111
96.60000 5.078
96.62000 4.556
96.64000 1.465
96.66000 3.873
96.68000 7.838
96.70000 10.931
96.72000 5.902
96.74000 2.436
96.76000 3.523
96.78000 4.772
96.80000 4.970
96.82000 5.355
96.84000 1.065
96.86000 -1.933
96.88000 2.027
96.90000 2.147
96.92000 4.705
96.94000 3.911
96.96000 8.905
96.98000 1.740
97.00000 -0.721
97.02000 3.585
97.04000 4.167
97.06000 4.834
97.08000 4.638
97.10000 5.255
97.12000 2.198
97.14000 3.453
97.16000 3.493
97.18000 4.930
97.20000 5.340
97.22000 4.610
97.24000 3.546
97.26000 3.942
97.28000 5.456
97.30000 6.478
97.32000 5.967
97.34000 6.439
97.36000 2.521
97.38000 3.982
97.40000 4.519
97.42000 5.336
97.44000 4.328
97.46000 1.428
97.48000 1.924
97.50000 2.940
97.52000 2.309
97.54000 7.324
97.56000 9.203
97.58000 8.246
97.60000 5.494
97.62000 3.259
97.64000 3.563
97.66000 6.398
97.68000 9.224
97.70000 12.149
97.72000 6.578
97.74000 5.248
97.76000 7.203
97.78000 9.263
97.80000 7.636
97.82000 9.237
97.84000 7.847
97.86000 11.707
97.88000 8.717
97.90000 6.937
97.92000 2.465
97.94000 6.072
97.96000 9.481
97.98000 7.095
98.00000 8.196
98.02000 9.372
98.04000 3.722
98.06000 2.352
98.08000 1.036
98.10000 2.336
98.12000 -1.860
98.14000 6.812
98.16000 12.573
98.18000 12.067
98.20000 6.065
98.22000 4.734
98.24000 2.094
98.26000 2.839
98.28000 5.177
98.30000 1.878
98.32000 0.419
98.34000 4.203
98.36000 8.388
98.38000 2.252
98.40000 2.614
98.42000 0.175
98.44000 0.750
98.46000 3.184
98.48000 5.511
98.50000 4.073
98.52000 8.397
98.54000 3.101
98.56000 1.405
98.58000 5.225
98.60000 5.731
98.62000 7.734
98.64000 12.995
98.66000 9.462
98.68000 4.234
98.70000 5.031
98.72000 7.905
98.74000 2.558
98.76000 3.274
98.78000 6.854
98.80000 8.298
98.82000 4.074
98.84000 7.432
98.86000 2.608
98.88000 11.087
98.90000 9.937
98.92000 9.838
98.94000 7.192
98.96000 6.963
98.98000 8.694
99.00000 7.090
99.02000 1.221
99.04000 2.798
99.06000 5.305
99.08000 4.652
99.10000 2.351
99.12000 0.690
99.14000 -1.156
99.16000 2.160
99.18000 -0.839
99.20000 1.989
99.22000 6.876
99.24000 6.474
99.26000 0.008
99.28000 -0.525
99.30000 1.008
99.32000 2.745
99.34000 1.695
99.36000 2.543
99.38000 1.400
99.40000 5.108
99.42000 10.268
99.44000 6.594
99.46000 -1.452
99.48000 3.645
99.50000 3.685
99.52000 15.242
99.54000 3.373
99.56000 1.976
99.58000 2.094
99.60000 3.999
99.62000 11.552
99.64000 8.517
99.66000 5.357
99.68000 5.946
99.70000 11.014
99.72000 5.639
99.74000 2.259
99.76000 2.242
99.78000 5.692
99.80000 10.613
99.82000 11.048
99.84000 -4.369
99.86000 -1.553
99.88000 5.906
99.90000 7.570
99.92000 16.135
99.94000 15.910
99.96000 -0.543
99.98000 0.000
