'Id: "0011387" Comment: "Integrate frame 0011387_Au-Ir-Rh_Rh-rich_XRD-Mapping-032-0000.gfrmwith cursor Wedge Cursor #5" Operator: "B?rgel" Anode: "Cu" Wavelength: "1.5406" Scantype: "2Theta (TwoTheta)" TimePerStep: "1" X: "4.5" Y: "-31.5" Z: "5.95" 
10.00000 0.000
10.02000 -4.212
10.04000 1.017
10.06000 8.135
10.08000 12.373
10.10000 13.537
10.12000 14.885
10.14000 13.523
10.16000 0.060
10.18000 -0.550
10.20000 -3.883
10.22000 1.554
10.24000 23.717
10.26000 22.612
10.28000 14.918
10.30000 15.208
10.32000 3.373
10.34000 11.742
10.36000 18.963
10.38000 23.934
10.40000 2.324
10.42000 5.872
10.44000 11.392
10.46000 21.992
10.48000 18.447
10.50000 9.020
10.52000 7.838
10.54000 -2.347
10.56000 9.181
10.58000 12.048
10.60000 18.578
10.62000 18.355
10.64000 32.806
10.66000 18.498
10.68000 8.711
10.70000 10.937
10.72000 3.151
10.74000 -0.625
10.76000 -0.485
10.78000 10.500
10.80000 9.267
10.82000 13.613
10.84000 11.410
10.86000 8.495
10.88000 20.637
10.90000 22.059
10.92000 22.378
10.94000 17.557
10.96000 5.579
10.98000 7.364
11.00000 7.074
11.02000 14.053
11.04000 2.068
11.06000 -1.232
11.08000 7.019
11.10000 16.422
11.12000 14.893
11.14000 10.185
11.16000 10.769
11.18000 8.436
11.20000 4.053
11.22000 14.146
11.24000 13.658
11.26000 12.437
11.28000 12.770
11.30000 3.588
11.32000 8.831
11.34000 8.966
11.36000 13.190
11.38000 26.177
11.40000 20.272
11.42000 16.171
11.44000 13.743
11.46000 10.417
11.48000 13.416
11.50000 13.281
11.52000 12.848
11.54000 20.941
11.56000 11.558
11.58000 9.639
11.60000 8.829
11.62000 5.569
11.64000 -4.315
11.66000 1.975
11.68000 15.016
11.70000 12.497
11.72000 22.831
11.74000 18.334
11.76000 24.026
11.78000 10.665
11.80000 12.105
11.82000 19.974
11.84000 10.806
11.86000 20.131
11.88000 26.470
11.90000 19.915
11.92000 12.530
11.94000 16.314
11.96000 12.043
11.98000 5.483
12.00000 9.229
12.02000 18.871
12.04000 21.976
12.06000 11.154
12.08000 2.406
12.10000 1.305
12.12000 10.538
12.14000 4.601
12.16000 8.483
12.18000 15.968
12.20000 7.843
12.22000 -3.852
12.24000 3.242
12.26000 14.694
12.28000 19.260
12.30000 17.742
12.32000 10.948
12.34000 12.081
12.36000 13.459
12.38000 9.489
12.40000 18.296
12.42000 16.045
12.44000 11.908
12.46000 9.698
12.48000 6.374
12.50000 14.372
12.52000 5.693
12.54000 9.689
12.56000 27.524
12.58000 28.897
12.60000 17.431
12.62000 16.553
12.64000 31.014
12.66000 17.073
12.68000 13.328
12.70000 22.018
12.72000 22.754
12.74000 18.671
12.76000 13.399
12.78000 16.206
12.80000 12.488
12.82000 17.768
12.84000 10.081
12.86000 9.211
12.88000 12.517
12.90000 9.687
12.92000 16.608
12.94000 20.144
12.96000 7.086
12.98000 2.094
13.00000 12.542
13.02000 12.890
13.04000 6.253
13.06000 9.433
13.08000 16.914
13.10000 5.997
13.12000 -1.804
13.14000 16.953
13.16000 13.296
13.18000 13.282
13.20000 12.556
13.22000 11.353
13.24000 14.805
13.26000 10.711
13.28000 15.085
13.30000 17.163
13.32000 13.639
13.34000 3.922
13.36000 -0.882
13.38000 7.024
13.40000 11.137
13.42000 13.071
13.44000 13.086
13.46000 3.477
13.48000 -0.631
13.50000 12.033
13.52000 13.931
13.54000 10.814
13.56000 2.341
13.58000 3.502
13.60000 8.065
13.62000 5.134
13.64000 12.510
13.66000 11.818
13.68000 8.867
13.70000 8.542
13.72000 4.379
13.74000 6.500
13.76000 4.181
13.78000 -1.073
13.80000 -1.228
13.82000 4.564
13.84000 10.073
13.86000 12.332
13.88000 12.212
13.90000 8.488
13.92000 5.620
13.94000 9.860
13.96000 8.994
13.98000 8.097
14.00000 7.019
14.02000 7.438
14.04000 3.066
14.06000 9.722
14.08000 8.329
14.10000 8.880
14.12000 8.684
14.14000 5.882
14.16000 8.876
14.18000 10.108
14.20000 4.063
14.22000 5.889
14.24000 3.956
14.26000 5.030
14.28000 12.883
14.30000 9.083
14.32000 16.785
14.34000 12.559
14.36000 6.054
14.38000 7.675
14.40000 9.334
14.42000 5.270
14.44000 5.421
14.46000 6.411
14.48000 4.093
14.50000 4.888
14.52000 8.668
14.54000 7.860
14.56000 6.214
14.58000 14.953
14.60000 17.592
14.62000 20.374
14.64000 13.665
14.66000 7.111
14.68000 4.054
14.70000 12.396
14.72000 5.451
14.74000 3.944
14.76000 1.048
14.78000 5.744
14.80000 9.706
14.82000 4.975
14.84000 -4.491
14.86000 1.178
14.88000 4.354
14.90000 1.171
14.92000 6.548
14.94000 5.558
14.96000 8.427
14.98000 0.700
15.00000 0.479
15.02000 6.165
15.04000 6.854
15.06000 1.359
15.08000 1.649
15.10000 8.640
15.12000 7.120
15.14000 7.140
15.16000 3.940
15.18000 5.448
15.20000 4.346
15.22000 3.201
15.24000 9.872
15.26000 10.387
15.28000 4.652
15.30000 0.541
15.32000 8.264
15.34000 3.059
15.36000 -0.792
15.38000 0.308
15.40000 0.111
15.42000 3.243
15.44000 6.071
15.46000 7.617
15.48000 11.402
15.50000 -1.319
15.52000 1.546
15.54000 0.127
15.56000 -3.911
15.58000 1.490
15.60000 -2.158
15.62000 5.685
15.64000 14.450
15.66000 18.499
15.68000 12.907
15.70000 5.864
15.72000 3.397
15.74000 0.122
15.76000 1.220
15.78000 -2.976
15.80000 -1.024
15.82000 2.814
15.84000 0.189
15.86000 4.530
15.88000 6.957
15.90000 2.937
15.92000 -0.502
15.94000 4.987
15.96000 5.372
15.98000 5.116
16.00000 4.763
16.02000 6.848
16.04000 5.883
16.06000 3.041
16.08000 3.197
16.10000 10.419
16.12000 8.026
16.14000 3.374
16.16000 6.151
16.18000 10.465
16.20000 7.869
16.22000 11.794
16.24000 16.091
16.26000 7.397
16.28000 8.928
16.30000 11.391
16.32000 14.647
16.34000 6.936
16.36000 6.285
16.38000 8.312
16.40000 1.273
16.42000 -4.398
16.44000 -2.402
16.46000 -2.232
16.48000 5.694
16.50000 5.271
16.52000 2.895
16.54000 2.126
16.56000 2.009
16.58000 5.076
16.60000 6.345
16.62000 9.601
16.64000 8.550
16.66000 9.122
16.68000 9.662
16.70000 6.497
16.72000 9.822
16.74000 9.410
16.76000 11.101
16.78000 10.760
16.80000 10.983
16.82000 16.121
16.84000 11.875
16.86000 7.641
16.88000 7.888
16.90000 6.654
16.92000 -1.172
16.94000 1.742
16.96000 7.734
16.98000 6.012
17.00000 2.074
17.02000 -4.383
17.04000 1.448
17.06000 1.790
17.08000 4.917
17.10000 4.812
17.12000 10.641
17.14000 13.368
17.16000 5.313
17.18000 1.136
17.20000 5.935
17.22000 11.683
17.24000 7.173
17.26000 4.320
17.28000 0.058
17.30000 3.097
17.32000 2.706
17.34000 6.668
17.36000 10.826
17.38000 8.378
17.40000 14.475
17.42000 14.617
17.44000 6.101
17.46000 7.530
17.48000 8.656
17.50000 8.630
17.52000 9.375
17.54000 6.933
17.56000 7.982
17.58000 1.843
17.60000 1.406
17.62000 2.971
17.64000 10.790
17.66000 14.147
17.68000 7.182
17.70000 6.356
17.72000 6.375
17.74000 8.450
17.76000 8.978
17.78000 9.604
17.80000 4.823
17.82000 9.298
17.84000 6.885
17.86000 6.788
17.88000 8.076
17.90000 6.263
17.92000 0.856
17.94000 7.268
17.96000 4.873
17.98000 5.818
18.00000 4.694
18.02000 3.359
18.04000 3.012
18.06000 3.641
18.08000 8.299
18.10000 -0.106
18.12000 -4.324
18.14000 1.748
18.16000 -0.287
18.18000 0.372
18.20000 3.705
18.22000 5.019
18.24000 8.112
18.26000 7.801
18.28000 8.939
18.30000 13.078
18.32000 6.760
18.34000 4.653
18.36000 1.191
18.38000 -3.086
18.40000 -3.593
18.42000 1.695
18.44000 1.183
18.46000 -4.089
18.48000 -1.940
18.50000 4.456
18.52000 6.254
18.54000 1.352
18.56000 4.564
18.58000 0.161
18.60000 -1.350
18.62000 1.078
18.64000 5.313
18.66000 1.765
18.68000 1.312
18.70000 0.107
18.72000 1.672
18.74000 7.948
18.76000 6.237
18.78000 4.580
18.80000 3.225
18.82000 12.879
18.84000 13.194
18.86000 9.039
18.88000 3.886
18.90000 2.893
18.92000 11.068
18.94000 3.730
18.96000 -1.547
18.98000 0.128
19.00000 5.551
19.02000 -0.067
19.04000 -1.981
19.06000 8.463
19.08000 6.571
19.10000 4.362
19.12000 3.307
19.14000 4.076
19.16000 8.776
19.18000 6.469
19.20000 3.609
19.22000 -2.888
19.24000 -0.286
19.26000 -0.434
19.28000 -0.577
19.30000 4.501
19.32000 2.254
19.34000 5.088
19.36000 3.447
19.38000 7.777
19.40000 1.323
19.42000 3.840
19.44000 4.947
19.46000 3.535
19.48000 5.860
19.50000 8.377
19.52000 9.986
19.54000 6.709
19.56000 2.842
19.58000 0.780
19.60000 -2.081
19.62000 7.155
19.64000 1.676
19.66000 -1.355
19.68000 -2.980
19.70000 -1.247
19.72000 2.043
19.74000 4.463
19.76000 -1.826
19.78000 -3.946
19.80000 4.479
19.82000 6.877
19.84000 -4.255
19.86000 -1.654
19.88000 6.923
19.90000 10.132
19.92000 11.057
19.94000 6.612
19.96000 3.985
19.98000 0.420
20.00000 5.072
20.02000 2.371
20.04000 2.505
20.06000 4.815
20.08000 8.892
20.10000 9.405
20.12000 8.595
20.14000 0.151
20.16000 4.034
20.18000 -0.625
20.20000 -0.638
20.22000 1.882
20.24000 1.009
20.26000 5.684
20.28000 10.051
20.30000 7.528
20.32000 -1.802
20.34000 -3.194
20.36000 5.109
20.38000 5.052
20.40000 -0.579
20.42000 3.680
20.44000 10.593
20.46000 8.441
20.48000 5.790
20.50000 3.478
20.52000 -3.297
20.54000 6.617
20.56000 11.545
20.58000 9.635
20.60000 3.755
20.62000 -1.135
20.64000 -4.180
20.66000 1.505
20.68000 7.495
20.70000 14.108
20.72000 9.896
20.74000 9.880
20.76000 10.139
20.78000 9.083
20.80000 3.168
20.82000 -2.785
20.84000 3.915
20.86000 0.741
20.88000 6.233
20.90000 2.845
20.92000 7.416
20.94000 1.932
20.96000 -3.085
20.98000 1.028
21.00000 0.324
21.02000 -0.732
21.04000 -2.272
21.06000 0.818
21.08000 3.098
21.10000 1.832
21.12000 -1.173
21.14000 0.403
21.16000 3.338
21.18000 8.053
21.20000 5.350
21.22000 2.940
21.24000 1.317
21.26000 0.862
21.28000 2.647
21.30000 -0.881
21.32000 1.277
21.34000 6.561
21.36000 8.392
21.38000 2.039
21.40000 0.242
21.42000 0.612
21.44000 3.831
21.46000 1.137
21.48000 4.445
21.50000 2.347
21.52000 3.583
21.54000 2.695
21.56000 6.119
21.58000 0.307
21.60000 5.329
21.62000 8.108
21.64000 4.148
21.66000 0.689
21.68000 -1.546
21.70000 2.051
21.72000 -0.306
21.74000 3.075
21.76000 2.347
21.78000 4.632
21.80000 7.790
21.82000 3.688
21.84000 -0.906
21.86000 1.772
21.88000 7.900
21.90000 5.181
21.92000 5.188
21.94000 1.717
21.96000 2.267
21.98000 5.827
22.00000 2.453
22.02000 1.360
22.04000 3.586
22.06000 -4.094
22.08000 -0.413
22.10000 1.524
22.12000 6.416
22.14000 8.764
22.16000 10.319
22.18000 4.812
22.20000 4.896
22.22000 6.863
22.24000 4.961
22.26000 5.652
22.28000 5.875
22.30000 6.829
22.32000 3.214
22.34000 -0.305
22.36000 -1.613
22.38000 2.202
22.40000 4.004
22.42000 5.006
22.44000 3.775
22.46000 5.664
22.48000 8.025
22.50000 7.532
22.52000 1.751
22.54000 -4.042
22.56000 -3.965
22.58000 3.908
22.60000 3.124
22.62000 -0.311
22.64000 1.202
22.66000 1.410
22.68000 5.202
22.70000 9.459
22.72000 11.666
22.74000 9.016
22.76000 11.824
22.78000 1.700
22.80000 3.632
22.82000 6.366
22.84000 7.999
22.86000 3.722
22.88000 9.060
22.90000 7.877
22.92000 8.851
22.94000 13.259
22.96000 10.214
22.98000 2.614
23.00000 4.157
23.02000 6.898
23.04000 12.122
23.06000 9.828
23.08000 12.964
23.10000 15.606
23.12000 10.798
23.14000 6.240
23.16000 3.871
23.18000 2.061
23.20000 6.429
23.22000 5.752
23.24000 6.770
23.26000 8.264
23.28000 7.949
23.30000 7.230
23.32000 7.584
23.34000 8.211
23.36000 5.718
23.38000 7.973
23.40000 3.339
23.42000 7.762
23.44000 10.797
23.46000 12.573
23.48000 14.239
23.50000 14.568
23.52000 8.146
23.54000 -2.209
23.56000 10.290
23.58000 5.399
23.60000 -3.959
23.62000 -0.828
23.64000 4.535
23.66000 10.132
23.68000 11.666
23.70000 8.936
23.72000 3.523
23.74000 9.207
23.76000 17.977
23.78000 14.879
23.80000 10.911
23.82000 12.327
23.84000 4.622
23.86000 8.645
23.88000 11.172
23.90000 7.127
23.92000 6.538
23.94000 4.440
23.96000 3.930
23.98000 1.200
24.00000 1.447
24.02000 4.351
24.04000 6.751
24.06000 7.363
24.08000 3.768
24.10000 5.513
24.12000 8.190
24.14000 5.308
24.16000 7.601
24.18000 10.873
24.20000 2.655
24.22000 -3.944
24.24000 0.030
24.26000 7.969
24.28000 10.934
24.30000 9.026
24.32000 6.817
24.34000 9.288
24.36000 8.493
24.38000 8.662
24.40000 6.952
24.42000 6.812
24.44000 10.998
24.46000 8.109
24.48000 1.477
24.50000 5.315
24.52000 4.563
24.54000 7.315
24.56000 6.359
24.58000 3.580
24.60000 5.350
24.62000 6.975
24.64000 -1.047
24.66000 -2.854
24.68000 -0.646
24.70000 6.566
24.72000 2.547
24.74000 6.701
24.76000 5.580
24.78000 3.918
24.80000 0.808
24.82000 -2.057
24.84000 0.024
24.86000 0.348
24.88000 1.955
24.90000 2.892
24.92000 2.092
24.94000 -2.443
24.96000 -0.524
24.98000 5.666
25.00000 6.482
25.02000 2.374
25.04000 4.145
25.06000 4.884
25.08000 3.030
25.10000 -1.283
25.12000 0.512
25.14000 3.089
25.16000 2.176
25.18000 1.649
25.20000 6.104
25.22000 -2.310
25.24000 4.225
25.26000 10.104
25.28000 5.792
25.30000 0.305
25.32000 4.241
25.34000 7.454
25.36000 6.153
25.38000 5.657
25.40000 1.501
25.42000 -1.819
25.44000 0.830
25.46000 3.625
25.48000 3.259
25.50000 -0.544
25.52000 -3.913
25.54000 -0.260
25.56000 -1.254
25.58000 -3.539
25.60000 0.988
25.62000 6.315
25.64000 9.426
25.66000 3.906
25.68000 3.567
25.70000 3.187
25.72000 5.519
25.74000 7.801
25.76000 5.950
25.78000 0.045
25.80000 0.902
25.82000 9.056
25.84000 5.749
25.86000 -0.106
25.88000 2.660
25.90000 -0.849
25.92000 -1.909
25.94000 3.268
25.96000 7.600
25.98000 0.883
26.00000 3.948
26.02000 6.046
26.04000 -0.434
26.06000 -3.731
26.08000 -1.665
26.10000 2.385
26.12000 -0.736
26.14000 -3.859
26.16000 -3.864
26.18000 -1.313
26.20000 1.258
26.22000 3.723
26.24000 1.823
26.26000 -3.573
26.28000 -1.573
26.30000 6.493
26.32000 7.622
26.34000 3.375
26.36000 4.406
26.38000 -1.447
26.40000 0.056
26.42000 4.141
26.44000 4.940
26.46000 5.764
26.48000 1.154
26.50000 -2.549
26.52000 2.755
26.54000 0.053
26.56000 -2.764
26.58000 -1.152
26.60000 4.332
26.62000 4.372
26.64000 1.312
26.66000 -0.418
26.68000 -2.777
26.70000 -3.126
26.72000 -0.324
26.74000 4.180
26.76000 5.586
26.78000 6.366
26.80000 4.265
26.82000 10.902
26.84000 8.858
26.86000 4.218
26.88000 4.861
26.90000 2.361
26.92000 0.537
26.94000 -0.025
26.96000 6.123
26.98000 5.254
27.00000 -3.830
27.02000 -1.049
27.04000 5.692
27.06000 5.945
27.08000 5.958
27.10000 3.409
27.12000 5.228
27.14000 1.586
27.16000 0.648
27.18000 0.848
27.20000 -2.674
27.22000 0.107
27.24000 4.044
27.26000 6.999
27.28000 6.376
27.30000 3.201
27.32000 -1.146
27.34000 4.451
27.36000 3.232
27.38000 0.555
27.40000 -1.198
27.42000 2.122
27.44000 4.276
27.46000 6.725
27.48000 4.734
27.50000 6.472
27.52000 11.872
27.54000 7.893
27.56000 4.430
27.58000 1.753
27.60000 1.526
27.62000 4.683
27.64000 6.202
27.66000 1.482
27.68000 1.506
27.70000 3.574
27.72000 -0.002
27.74000 2.374
27.76000 3.277
27.78000 1.161
27.80000 -1.179
27.82000 1.759
27.84000 7.236
27.86000 13.816
27.88000 7.253
27.90000 3.251
27.92000 -2.411
27.94000 -0.548
27.96000 -0.151
27.98000 -3.767
28.00000 -0.445
28.02000 2.965
28.04000 8.918
28.06000 6.644
28.08000 2.818
28.10000 2.648
28.12000 4.832
28.14000 4.973
28.16000 9.211
28.18000 5.245
28.20000 4.052
28.22000 1.958
28.24000 5.346
28.26000 1.888
28.28000 -0.636
28.30000 6.255
28.32000 7.239
28.34000 10.937
28.36000 5.193
28.38000 5.327
28.40000 1.979
28.42000 3.484
28.44000 6.857
28.46000 2.253
28.48000 2.342
28.50000 -2.818
28.52000 -2.577
28.54000 -0.912
28.56000 -3.736
28.58000 0.137
28.60000 2.615
28.62000 0.310
28.64000 3.868
28.66000 3.769
28.68000 2.972
28.70000 0.096
28.72000 2.636
28.74000 2.656
28.76000 2.902
28.78000 3.443
28.80000 5.034
28.82000 0.968
28.84000 1.569
28.86000 1.601
28.88000 3.016
28.90000 2.416
28.92000 4.584
28.94000 6.345
28.96000 5.707
28.98000 7.523
29.00000 6.022
29.02000 -0.493
29.04000 0.439
29.06000 7.529
29.08000 6.257
29.10000 8.367
29.12000 7.404
29.14000 9.162
29.16000 0.317
29.18000 -0.716
29.20000 2.946
29.22000 7.678
29.24000 0.393
29.26000 -3.706
29.28000 2.665
29.30000 1.528
29.32000 2.078
29.34000 5.545
29.36000 12.320
29.38000 6.365
29.40000 1.738
29.42000 1.713
29.44000 3.184
29.46000 3.962
29.48000 6.982
29.50000 4.476
29.52000 3.195
29.54000 4.993
29.56000 6.874
29.58000 2.443
29.60000 -0.344
29.62000 2.653
29.64000 1.702
29.66000 6.402
29.68000 1.741
29.70000 2.138
29.72000 3.188
29.74000 1.757
29.76000 4.090
29.78000 1.311
29.80000 2.482
29.82000 5.591
29.84000 5.719
29.86000 1.393
29.88000 4.445
29.90000 -0.406
29.92000 -0.105
29.94000 1.799
29.96000 6.393
29.98000 3.568
30.00000 7.275
30.02000 5.896
30.04000 3.928
30.06000 6.447
30.08000 5.527
30.10000 1.092
30.12000 3.082
30.14000 4.756
30.16000 1.553
30.18000 5.039
30.20000 1.247
30.22000 2.536
30.24000 -1.131
30.26000 -1.334
30.28000 -3.648
30.30000 0.266
30.32000 4.066
30.34000 5.306
30.36000 2.563
30.38000 -0.514
30.40000 -2.627
30.42000 1.731
30.44000 4.394
30.46000 3.870
30.48000 3.133
30.50000 2.278
30.52000 2.496
30.54000 3.342
30.56000 1.964
30.58000 4.185
30.60000 6.472
30.62000 2.927
30.64000 1.975
30.66000 1.327
30.68000 -0.052
30.70000 5.590
30.72000 2.739
30.74000 -2.119
30.76000 7.320
30.78000 10.367
30.80000 6.314
30.82000 3.830
30.84000 4.758
30.86000 7.946
30.88000 2.741
30.90000 -3.623
30.92000 0.901
30.94000 4.418
30.96000 6.231
30.98000 2.688
31.00000 0.421
31.02000 5.492
31.04000 2.690
31.06000 2.134
31.08000 0.331
31.10000 1.663
31.12000 3.339
31.14000 5.053
31.16000 3.798
31.18000 3.328
31.20000 6.436
31.22000 8.016
31.24000 0.450
31.26000 -0.140
31.28000 1.100
31.30000 2.534
31.32000 7.123
31.34000 -0.075
31.36000 -1.736
31.38000 1.065
31.40000 3.991
31.42000 0.503
31.44000 3.248
31.46000 3.113
31.48000 1.065
31.50000 4.434
31.52000 7.459
31.54000 11.119
31.56000 4.860
31.58000 -3.591
31.60000 -2.740
31.62000 5.221
31.64000 6.065
31.66000 4.515
31.68000 3.463
31.70000 -0.582
31.72000 2.703
31.74000 5.589
31.76000 6.275
31.78000 8.350
31.80000 3.151
31.82000 1.111
31.84000 6.789
31.86000 7.976
31.88000 5.042
31.90000 2.735
31.92000 6.065
31.94000 5.473
31.96000 4.742
31.98000 3.014
32.00000 2.050
32.02000 4.810
32.04000 3.907
32.06000 4.213
32.08000 2.628
32.10000 5.147
32.12000 1.491
32.14000 2.398
32.16000 1.371
32.18000 5.169
32.20000 3.362
32.22000 4.865
32.24000 6.656
32.26000 3.340
32.28000 6.856
32.30000 1.079
32.32000 4.102
32.34000 0.340
32.36000 0.891
32.38000 2.289
32.40000 3.068
32.42000 3.453
32.44000 3.466
32.46000 3.126
32.48000 -0.490
32.50000 1.195
32.52000 9.056
32.54000 6.089
32.56000 0.734
32.58000 0.200
32.60000 -3.557
32.62000 1.696
32.64000 -0.104
32.66000 4.001
32.68000 6.121
32.70000 8.571
32.72000 7.579
32.74000 3.857
32.76000 4.097
32.78000 6.768
32.80000 4.862
32.82000 1.586
32.84000 4.319
32.86000 6.171
32.88000 -1.154
32.90000 -1.983
32.92000 -2.243
32.94000 1.532
32.96000 5.184
32.98000 4.768
33.00000 2.390
33.02000 0.905
33.04000 0.490
33.06000 -3.534
33.08000 -0.164
33.10000 4.681
33.12000 4.487
33.14000 3.954
33.16000 3.415
33.18000 2.782
33.20000 0.540
33.22000 2.568
33.24000 7.617
33.26000 8.681
33.28000 2.787
33.30000 -0.097
33.32000 4.142
33.34000 2.787
33.36000 0.252
33.38000 -0.130
33.40000 0.531
33.42000 4.316
33.44000 4.360
33.46000 3.986
33.48000 3.365
33.50000 8.101
33.52000 6.870
33.54000 2.526
33.56000 1.123
33.58000 3.246
33.60000 0.085
33.62000 0.870
33.64000 5.048
33.66000 8.378
33.68000 4.157
33.70000 4.770
33.72000 5.681
33.74000 5.503
33.76000 0.750
33.78000 -2.525
33.80000 2.271
33.82000 -1.837
33.84000 2.822
33.86000 5.882
33.88000 5.403
33.90000 3.596
33.92000 4.857
33.94000 4.680
33.96000 3.749
33.98000 1.945
34.00000 5.672
34.02000 4.389
34.04000 -3.473
34.06000 -2.378
34.08000 1.486
34.10000 5.733
34.12000 1.774
34.14000 2.593
34.16000 4.402
34.18000 4.538
34.20000 3.017
34.22000 -0.328
34.24000 2.830
34.26000 5.353
34.28000 3.193
34.30000 3.548
34.32000 7.325
34.34000 10.876
34.36000 8.848
34.38000 0.376
34.40000 2.869
34.42000 2.254
34.44000 4.700
34.46000 9.834
34.48000 6.436
34.50000 -0.921
34.52000 1.932
34.54000 2.316
34.56000 3.453
34.58000 4.744
34.60000 3.713
34.62000 2.498
34.64000 0.550
34.66000 -0.161
34.68000 3.887
34.70000 2.335
34.72000 2.308
34.74000 6.422
34.76000 6.683
34.78000 -0.151
34.80000 -3.472
34.82000 4.477
34.84000 4.317
34.86000 -0.520
34.88000 -1.758
34.90000 2.358
34.92000 5.658
34.94000 7.823
34.96000 2.856
34.98000 1.842
35.00000 -1.183
35.02000 -3.237
35.04000 -3.160
35.06000 1.180
35.08000 2.596
35.10000 2.895
35.12000 -3.482
35.14000 -3.277
35.16000 -2.486
35.18000 1.535
35.20000 1.797
35.22000 0.799
35.24000 -0.349
35.26000 -1.314
35.28000 -1.270
35.30000 -2.978
35.32000 1.124
35.34000 0.066
35.36000 2.512
35.38000 0.719
35.40000 -0.197
35.42000 2.456
35.44000 1.795
35.46000 -0.187
35.48000 -0.755
35.50000 -0.148
35.52000 0.770
35.54000 1.059
35.56000 2.182
35.58000 -0.140
35.60000 1.654
35.62000 -0.249
35.64000 3.407
35.66000 1.621
35.68000 -0.141
35.70000 -3.193
35.72000 -0.096
35.74000 1.892
35.76000 0.697
35.78000 1.540
35.80000 3.039
35.82000 5.684
35.84000 2.080
35.86000 8.140
35.88000 4.327
35.90000 1.043
35.92000 3.034
35.94000 1.216
35.96000 0.033
35.98000 0.797
36.00000 -0.701
36.02000 0.571
36.04000 -0.900
36.06000 -1.683
36.08000 -1.236
36.10000 4.437
36.12000 3.419
36.14000 3.608
36.16000 3.684
36.18000 1.705
36.20000 -2.184
36.22000 1.410
36.24000 -0.497
36.26000 -1.350
36.28000 -0.526
36.30000 2.222
36.32000 3.605
36.34000 0.016
36.36000 0.134
36.38000 2.240
36.40000 -1.425
36.42000 -0.291
36.44000 2.965
36.46000 4.284
36.48000 3.852
36.50000 2.294
36.52000 3.018
36.54000 -0.718
36.56000 4.808
36.58000 3.183
36.60000 1.821
36.62000 -0.768
36.64000 4.532
36.66000 8.137
36.68000 5.799
36.70000 5.557
36.72000 1.373
36.74000 -2.073
36.76000 -3.444
36.78000 2.145
36.80000 11.849
36.82000 5.788
36.84000 2.543
36.86000 2.432
36.88000 5.903
36.90000 4.531
36.92000 1.558
36.94000 0.929
36.96000 2.070
36.98000 -0.767
37.00000 0.192
37.02000 -1.432
37.04000 1.609
37.06000 0.804
37.08000 4.852
37.10000 1.065
37.12000 -0.957
37.14000 -0.448
37.16000 3.089
37.18000 6.131
37.20000 4.181
37.22000 7.967
37.24000 5.424
37.26000 3.557
37.28000 0.713
37.30000 1.398
37.32000 2.233
37.34000 3.541
37.36000 8.022
37.38000 8.634
37.40000 6.215
37.42000 5.223
37.44000 9.192
37.46000 4.163
37.48000 -1.609
37.50000 -3.481
37.52000 0.425
37.54000 2.788
37.56000 5.283
37.58000 7.580
37.60000 4.004
37.62000 8.014
37.64000 4.948
37.66000 4.577
37.68000 6.188
37.70000 5.484
37.72000 7.688
37.74000 1.307
37.76000 -0.824
37.78000 3.210
37.80000 4.011
37.82000 7.908
37.84000 5.625
37.86000 1.176
37.88000 4.001
37.90000 4.273
37.92000 6.449
37.94000 3.621
37.96000 -0.212
37.98000 6.503
38.00000 6.100
38.02000 3.380
38.04000 7.485
38.06000 5.483
38.08000 7.126
38.10000 11.622
38.12000 13.779
38.14000 10.844
38.16000 10.366
38.18000 4.771
38.20000 6.808
38.22000 11.993
38.24000 10.107
38.26000 13.168
38.28000 11.861
38.30000 11.845
38.32000 11.079
38.34000 15.940
38.36000 11.897
38.38000 10.620
38.40000 11.905
38.42000 14.041
38.44000 11.669
38.46000 16.844
38.48000 18.945
38.50000 19.108
38.52000 21.429
38.54000 20.543
38.56000 21.417
38.58000 18.523
38.60000 16.658
38.62000 17.293
38.64000 19.106
38.66000 18.153
38.68000 21.733
38.70000 22.266
38.72000 21.170
38.74000 23.073
38.76000 25.783
38.78000 21.474
38.80000 17.363
38.82000 19.919
38.84000 19.698
38.86000 21.186
38.88000 23.948
38.90000 24.442
38.92000 22.672
38.94000 30.624
38.96000 26.593
38.98000 23.980
39.00000 23.731
39.02000 22.739
39.04000 34.041
39.06000 40.330
39.08000 38.739
39.10000 33.653
39.12000 37.166
39.14000 34.033
39.16000 30.859
39.18000 35.434
39.20000 41.078
39.22000 45.444
39.24000 47.191
39.26000 45.017
39.28000 43.430
39.30000 45.355
39.32000 47.489
39.34000 55.922
39.36000 55.479
39.38000 52.075
39.40000 57.456
39.42000 59.386
39.44000 62.099
39.46000 62.178
39.48000 66.443
39.50000 69.301
39.52000 80.779
39.54000 77.258
39.56000 78.480
39.58000 85.843
39.60000 92.593
39.62000 102.545
39.64000 107.128
39.66000 107.966
39.68000 112.915
39.70000 130.290
39.72000 134.727
39.74000 133.038
39.76000 140.626
39.78000 157.725
39.80000 170.116
39.82000 176.009
39.84000 190.969
39.86000 201.791
39.88000 209.701
39.90000 224.612
39.92000 244.099
39.94000 261.912
39.96000 279.313
39.98000 303.012
40.00000 320.165
40.02000 348.160
40.04000 371.881
40.06000 397.052
40.08000 427.080
40.10000 467.809
40.12000 488.581
40.14000 514.062
40.16000 545.768
40.18000 589.053
40.20000 633.300
40.22000 668.720
40.24000 720.781
40.26000 759.081
40.28000 793.157
40.30000 832.301
40.32000 876.559
40.34000 901.893
40.36000 939.417
40.38000 977.774
40.40000 1008.252
40.42000 1040.605
40.44000 1069.616
40.46000 1090.554
40.48000 1097.802
40.50000 1094.324
40.52000 1085.601
40.54000 1085.313
40.56000 1082.638
40.58000 1070.417
40.60000 1054.158
40.62000 1036.754
40.64000 1018.961
40.66000 997.475
40.68000 966.659
40.70000 928.212
40.72000 905.590
40.74000 885.931
40.76000 856.781
40.78000 830.834
40.80000 803.764
40.82000 758.969
40.84000 713.911
40.86000 686.455
40.88000 664.430
40.90000 636.645
40.92000 603.929
40.94000 577.253
40.96000 549.881
40.98000 521.093
41.00000 490.948
41.02000 456.574
41.04000 427.756
41.06000 409.125
41.08000 381.984
41.10000 359.827
41.12000 338.669
41.14000 322.352
41.16000 300.145
41.18000 287.932
41.20000 274.855
41.22000 265.380
41.24000 255.009
41.26000 239.517
41.28000 228.142
41.30000 212.301
41.32000 197.693
41.34000 190.466
41.36000 184.897
41.38000 177.124
41.40000 165.334
41.42000 151.249
41.44000 146.959
41.46000 135.638
41.48000 124.912
41.50000 126.006
41.52000 121.586
41.54000 111.700
41.56000 110.823
41.58000 99.582
41.60000 95.741
41.62000 94.343
41.64000 96.217
41.66000 89.068
41.68000 80.858
41.70000 76.894
41.72000 67.664
41.74000 68.306
41.76000 64.814
41.78000 61.739
41.80000 62.319
41.82000 66.326
41.84000 63.575
41.86000 57.800
41.88000 45.139
41.90000 43.747
41.92000 44.831
41.94000 44.066
41.96000 44.581
41.98000 41.890
42.00000 44.378
42.02000 37.920
42.04000 35.866
42.06000 32.425
42.08000 31.354
42.10000 32.988
42.12000 31.388
42.14000 33.201
42.16000 33.577
42.18000 30.314
42.20000 23.931
42.22000 21.435
42.24000 24.308
42.26000 24.840
42.28000 20.070
42.30000 21.809
42.32000 21.252
42.34000 24.126
42.36000 21.365
42.38000 18.906
42.40000 16.091
42.42000 13.442
42.44000 15.808
42.46000 15.877
42.48000 11.110
42.50000 12.932
42.52000 15.203
42.54000 14.282
42.56000 13.089
42.58000 11.568
42.60000 12.227
42.62000 7.937
42.64000 6.706
42.66000 9.021
42.68000 5.571
42.70000 3.839
42.72000 2.756
42.74000 4.627
42.76000 4.655
42.78000 5.531
42.80000 4.001
42.82000 4.078
42.84000 6.613
42.86000 3.445
42.88000 -1.402
42.90000 -1.284
42.92000 2.437
42.94000 2.044
42.96000 -0.196
42.98000 4.799
43.00000 2.262
43.02000 -0.072
43.04000 1.872
43.06000 3.812
43.08000 2.052
43.10000 0.833
43.12000 3.129
43.14000 -1.033
43.16000 -1.367
43.18000 1.080
43.20000 2.806
43.22000 5.299
43.24000 0.331
43.26000 0.528
43.28000 0.541
43.30000 -1.099
43.32000 1.563
43.34000 1.331
43.36000 2.091
43.38000 1.701
43.40000 2.422
43.42000 2.235
43.44000 2.161
43.46000 1.142
43.48000 0.886
43.50000 1.979
43.52000 -1.159
43.54000 -2.132
43.56000 -0.094
43.58000 -0.157
43.60000 -0.409
43.62000 0.176
43.64000 -1.216
43.66000 1.226
43.68000 -1.421
43.70000 -3.342
43.72000 -0.880
43.74000 -0.859
43.76000 0.096
43.78000 0.363
43.80000 5.967
43.82000 3.630
43.84000 -0.560
43.86000 -1.098
43.88000 0.299
43.90000 0.755
43.92000 0.668
43.94000 1.480
43.96000 -0.859
43.98000 -0.948
44.00000 3.575
44.02000 6.905
44.04000 2.173
44.06000 3.482
44.08000 3.653
44.10000 1.402
44.12000 2.383
44.14000 2.167
44.16000 0.686
44.18000 2.691
44.20000 2.578
44.22000 1.041
44.24000 1.142
44.26000 3.604
44.28000 -1.312
44.30000 -2.124
44.32000 -2.258
44.34000 -1.120
44.36000 -3.242
44.38000 0.616
44.40000 1.790
44.42000 1.489
44.44000 -3.236
44.46000 -1.953
44.48000 -0.339
44.50000 -1.706
44.52000 -0.978
44.54000 2.402
44.56000 2.855
44.58000 0.449
44.60000 1.013
44.62000 -1.301
44.64000 -0.799
44.66000 1.723
44.68000 -0.036
44.70000 0.906
44.72000 -0.703
44.74000 -0.980
44.76000 -1.399
44.78000 -1.380
44.80000 0.390
44.82000 -0.509
44.84000 -0.196
44.86000 -1.780
44.88000 -0.383
44.90000 3.098
44.92000 0.599
44.94000 -3.218
44.96000 -0.448
44.98000 1.513
45.00000 3.558
45.02000 3.443
45.04000 -1.374
45.06000 -1.429
45.08000 -0.283
45.10000 1.219
45.12000 -0.386
45.14000 -1.688
45.16000 -2.735
45.18000 0.350
45.20000 3.224
45.22000 -1.630
45.24000 -3.206
45.26000 1.969
45.28000 5.912
45.30000 -2.336
45.32000 -2.762
45.34000 -1.155
45.36000 -2.150
45.38000 4.573
45.40000 4.816
45.42000 2.088
45.44000 1.978
45.46000 0.965
45.48000 -0.196
45.50000 -1.879
45.52000 1.574
45.54000 5.365
45.56000 3.427
45.58000 3.016
45.60000 4.494
45.62000 3.543
45.64000 -0.014
45.66000 1.572
45.68000 6.633
45.70000 6.336
45.72000 6.234
45.74000 7.029
45.76000 8.508
45.78000 6.286
45.80000 7.397
45.82000 6.609
45.84000 3.676
45.86000 6.477
45.88000 7.064
45.90000 4.620
45.92000 6.671
45.94000 7.937
45.96000 11.737
45.98000 10.965
46.00000 11.564
46.02000 12.582
46.04000 13.644
46.06000 12.168
46.08000 11.312
46.10000 15.930
46.12000 15.409
46.14000 16.235
46.16000 18.359
46.18000 15.842
46.20000 15.663
46.22000 22.607
46.24000 22.774
46.26000 27.010
46.28000 28.855
46.30000 23.398
46.32000 21.715
46.34000 24.592
46.36000 26.926
46.38000 29.287
46.40000 34.129
46.42000 35.667
46.44000 37.544
46.46000 39.960
46.48000 42.523
46.50000 40.555
46.52000 39.334
46.54000 41.226
46.56000 41.494
46.58000 47.854
46.60000 53.665
46.62000 54.575
46.64000 59.217
46.66000 54.290
46.68000 58.584
46.70000 65.695
46.72000 67.153
46.74000 67.659
46.76000 74.830
46.78000 77.296
46.80000 78.821
46.82000 79.675
46.84000 82.894
46.86000 89.247
46.88000 96.906
46.90000 100.099
46.92000 106.509
46.94000 106.721
46.96000 107.572
46.98000 108.286
47.00000 107.602
47.02000 110.584
47.04000 117.542
47.06000 123.241
47.08000 126.348
47.10000 129.325
47.12000 132.025
47.14000 125.227
47.16000 124.017
47.18000 125.253
47.20000 122.896
47.22000 129.126
47.24000 130.581
47.26000 127.804
47.28000 118.975
47.30000 117.995
47.32000 121.949
47.34000 116.845
47.36000 113.775
47.38000 113.794
47.40000 107.183
47.42000 108.540
47.44000 102.921
47.46000 96.885
47.48000 91.432
47.50000 86.789
47.52000 86.355
47.54000 86.838
47.56000 81.024
47.58000 80.433
47.60000 75.792
47.62000 67.946
47.64000 67.062
47.66000 63.992
47.68000 58.375
47.70000 55.242
47.72000 52.630
47.74000 55.084
47.76000 50.581
47.78000 46.089
47.80000 44.293
47.82000 41.218
47.84000 40.273
47.86000 42.452
47.88000 35.558
47.90000 34.181
47.92000 35.697
47.94000 32.807
47.96000 27.945
47.98000 26.482
48.00000 23.945
48.02000 20.107
48.04000 17.182
48.06000 20.040
48.08000 24.810
48.10000 23.675
48.12000 22.229
48.14000 19.957
48.16000 16.164
48.18000 16.309
48.20000 14.532
48.22000 10.647
48.24000 10.109
48.26000 11.155
48.28000 7.607
48.30000 7.262
48.32000 6.485
48.34000 7.087
48.36000 11.731
48.38000 6.963
48.40000 3.637
48.42000 8.223
48.44000 5.304
48.46000 5.072
48.48000 8.030
48.50000 5.332
48.52000 2.673
48.54000 6.377
48.56000 7.887
48.58000 3.146
48.60000 5.559
48.62000 7.280
48.64000 4.573
48.66000 4.143
48.68000 5.554
48.70000 8.404
48.72000 4.170
48.74000 2.988
48.76000 2.499
48.78000 4.692
48.80000 6.971
48.82000 5.302
48.84000 3.712
48.86000 4.042
48.88000 4.569
48.90000 5.528
48.92000 3.869
48.94000 5.207
48.96000 4.411
48.98000 4.159
49.00000 4.756
49.02000 3.741
49.04000 2.895
49.06000 1.235
49.08000 2.985
49.10000 2.179
49.12000 2.733
49.14000 -2.617
49.16000 -0.058
49.18000 0.374
49.20000 7.016
49.22000 3.609
49.24000 0.878
49.26000 3.781
49.28000 6.005
49.30000 4.789
49.32000 4.182
49.34000 3.177
49.36000 1.258
49.38000 3.647
49.40000 2.743
49.42000 2.125
49.44000 2.710
49.46000 1.895
49.48000 -2.576
49.50000 1.741
49.52000 3.854
49.54000 6.051
49.56000 3.881
49.58000 4.589
49.60000 -1.402
49.62000 3.421
49.64000 5.733
49.66000 0.164
49.68000 -0.019
49.70000 -2.564
49.72000 3.174
49.74000 3.715
49.76000 2.903
49.78000 3.995
49.80000 3.543
49.82000 2.556
49.84000 3.112
49.86000 1.322
49.88000 6.483
49.90000 4.480
49.92000 0.712
49.94000 2.582
49.96000 2.627
49.98000 3.562
50.00000 0.538
50.02000 0.957
50.04000 2.812
50.06000 1.558
50.08000 3.335
50.10000 2.742
50.12000 2.849
50.14000 -0.361
50.16000 1.850
50.18000 0.877
50.20000 0.603
50.22000 2.376
50.24000 3.382
50.26000 2.186
50.28000 3.280
50.30000 4.412
50.32000 1.801
50.34000 0.003
50.36000 -0.882
50.38000 -1.630
50.40000 -1.951
50.42000 -2.535
50.44000 -1.697
50.46000 1.342
50.48000 0.107
50.50000 1.109
50.52000 -1.152
50.54000 0.117
50.56000 0.436
50.58000 2.706
50.60000 2.725
50.62000 -0.073
50.64000 -1.013
50.66000 0.566
50.68000 1.318
50.70000 -1.204
50.72000 -0.709
50.74000 2.189
50.76000 1.534
50.78000 -1.008
50.80000 0.187
50.82000 0.041
50.84000 -1.342
50.86000 -1.517
50.88000 -0.486
50.90000 0.386
50.92000 2.468
50.94000 0.778
50.96000 0.961
50.98000 1.242
51.00000 0.526
51.02000 -1.764
51.04000 -2.501
51.06000 -0.893
51.08000 -0.174
51.10000 1.714
51.12000 5.651
51.14000 3.693
51.16000 0.099
51.18000 4.745
51.20000 3.067
51.22000 2.727
51.24000 3.629
51.26000 -0.948
51.28000 -1.726
51.30000 -1.445
51.32000 1.099
51.34000 2.013
51.36000 3.105
51.38000 0.472
51.40000 -0.254
51.42000 0.320
51.44000 -0.537
51.46000 0.201
51.48000 2.119
51.50000 3.507
51.52000 -0.363
51.54000 -1.186
51.56000 -2.446
51.58000 0.259
51.60000 -0.201
51.62000 0.840
51.64000 -0.287
51.66000 2.852
51.68000 1.618
51.70000 2.388
51.72000 1.583
51.74000 3.166
51.76000 3.691
51.78000 0.120
51.80000 -0.986
51.82000 0.754
51.84000 -0.752
51.86000 -1.397
51.88000 1.717
51.90000 1.905
51.92000 2.720
51.94000 1.410
51.96000 -0.199
51.98000 0.680
52.00000 6.252
52.02000 7.151
52.04000 1.193
52.06000 3.447
52.08000 1.625
52.10000 3.611
52.12000 2.356
52.14000 -0.965
52.16000 -0.181
52.18000 0.776
52.20000 0.409
52.22000 -1.753
52.24000 0.170
52.26000 0.101
52.28000 -0.898
52.30000 -2.275
52.32000 -2.450
52.34000 -0.918
52.36000 -0.917
52.38000 -2.135
52.40000 -0.374
52.42000 -0.647
52.44000 -0.494
52.46000 0.598
52.48000 3.502
52.50000 3.164
52.52000 0.541
52.54000 0.882
52.56000 2.788
52.58000 2.244
52.60000 3.749
52.62000 4.491
52.64000 5.153
52.66000 0.249
52.68000 1.068
52.70000 0.742
52.72000 0.272
52.74000 1.697
52.76000 4.559
52.78000 5.432
52.80000 3.012
52.82000 5.325
52.84000 4.264
52.86000 2.808
52.88000 1.507
52.90000 2.421
52.92000 1.484
52.94000 -1.614
52.96000 0.075
52.98000 -2.263
53.00000 -1.292
53.02000 0.249
53.04000 5.231
53.06000 4.099
53.08000 3.912
53.10000 3.187
53.12000 2.400
53.14000 4.047
53.16000 1.581
53.18000 0.722
53.20000 1.558
53.22000 1.467
53.24000 2.219
53.26000 -0.380
53.28000 2.974
53.30000 4.956
53.32000 6.025
53.34000 2.069
53.36000 5.611
53.38000 7.885
53.40000 5.223
53.42000 3.124
53.44000 5.022
53.46000 5.393
53.48000 5.100
53.50000 2.879
53.52000 4.752
53.54000 3.235
53.56000 -2.349
53.58000 3.421
53.60000 5.294
53.62000 2.670
53.64000 3.165
53.66000 7.055
53.68000 5.069
53.70000 4.798
53.72000 3.707
53.74000 3.605
53.76000 2.769
53.78000 0.529
53.80000 0.398
53.82000 4.093
53.84000 5.525
53.86000 3.226
53.88000 2.688
53.90000 2.481
53.92000 2.372
53.94000 2.267
53.96000 1.675
53.98000 2.353
54.00000 -1.021
54.02000 1.863
54.04000 2.232
54.06000 3.437
54.08000 4.382
54.10000 2.913
54.12000 0.605
54.14000 1.724
54.16000 3.155
54.18000 2.590
54.20000 3.756
54.22000 4.823
54.24000 4.154
54.26000 1.821
54.28000 1.190
54.30000 2.201
54.32000 -0.717
54.34000 2.994
54.36000 3.207
54.38000 4.179
54.40000 3.184
54.42000 3.310
54.44000 1.963
54.46000 5.176
54.48000 2.750
54.50000 2.977
54.52000 0.745
54.54000 -2.343
54.56000 0.739
54.58000 4.847
54.60000 5.132
54.62000 4.038
54.64000 4.213
54.66000 1.509
54.68000 2.347
54.70000 2.341
54.72000 3.862
54.74000 4.750
54.76000 4.875
54.78000 2.685
54.80000 2.871
54.82000 1.071
54.84000 4.409
54.86000 3.713
54.88000 2.749
54.90000 1.736
54.92000 2.468
54.94000 1.851
54.96000 0.301
54.98000 4.183
55.00000 5.423
55.02000 3.858
55.04000 -0.649
55.06000 4.183
55.08000 5.383
55.10000 1.013
55.12000 0.685
55.14000 4.455
55.16000 6.574
55.18000 5.939
55.20000 5.409
55.22000 2.291
55.24000 1.385
55.26000 7.122
55.28000 6.136
55.30000 -2.330
55.32000 -0.795
55.34000 1.861
55.36000 3.241
55.38000 3.631
55.40000 3.457
55.42000 1.645
55.44000 1.840
55.46000 5.121
55.48000 6.765
55.50000 3.475
55.52000 2.426
55.54000 1.396
55.56000 -0.696
55.58000 0.201
55.60000 1.956
55.62000 1.631
55.64000 6.474
55.66000 1.934
55.68000 0.895
55.70000 2.145
55.72000 2.266
55.74000 2.693
55.76000 1.522
55.78000 -2.309
55.80000 0.918
55.82000 1.706
55.84000 1.645
55.86000 2.530
55.88000 -1.620
55.90000 -1.785
55.92000 -1.735
55.94000 -0.769
55.96000 2.398
55.98000 2.470
56.00000 2.294
56.02000 2.614
56.04000 2.729
56.06000 4.661
56.08000 4.697
56.10000 5.366
56.12000 3.128
56.14000 -0.389
56.16000 0.180
56.18000 4.427
56.20000 4.563
56.22000 3.556
56.24000 2.733
56.26000 -0.577
56.28000 2.868
56.30000 5.727
56.32000 2.139
56.34000 0.598
56.36000 -1.809
56.38000 4.598
56.40000 4.451
56.42000 4.200
56.44000 4.742
56.46000 7.662
56.48000 2.645
56.50000 1.460
56.52000 -1.064
56.54000 -2.309
56.56000 1.817
56.58000 2.485
56.60000 1.843
56.62000 3.635
56.64000 3.015
56.66000 3.426
56.68000 4.340
56.70000 3.832
56.72000 1.735
56.74000 3.677
56.76000 -0.244
56.78000 1.347
56.80000 0.058
56.82000 -0.045
56.84000 0.890
56.86000 2.789
56.88000 1.569
56.90000 1.410
56.92000 0.016
56.94000 1.350
56.96000 1.201
56.98000 -0.063
57.00000 0.263
57.02000 3.844
57.04000 5.386
57.06000 0.314
57.08000 0.870
57.10000 3.979
57.12000 3.123
57.14000 -0.392
57.16000 -0.323
57.18000 1.202
57.20000 0.983
57.22000 1.516
57.24000 0.552
57.26000 -0.296
57.28000 0.392
57.30000 1.143
57.32000 -1.480
57.34000 2.815
57.36000 1.347
57.38000 2.067
57.40000 1.178
57.42000 2.422
57.44000 3.508
57.46000 2.654
57.48000 2.852
57.50000 2.392
57.52000 2.092
57.54000 0.976
57.56000 0.462
57.58000 -2.267
57.60000 -1.621
57.62000 1.663
57.64000 2.441
57.66000 3.139
57.68000 -0.918
57.70000 1.169
57.72000 3.426
57.74000 1.854
57.76000 2.198
57.78000 2.157
57.80000 1.337
57.82000 -0.325
57.84000 -0.166
57.86000 1.438
57.88000 -0.612
57.90000 -2.250
57.92000 1.564
57.94000 4.747
57.96000 5.282
57.98000 5.296
58.00000 2.829
58.02000 2.596
58.04000 1.537
58.06000 2.803
58.08000 0.302
58.10000 1.674
58.12000 3.603
58.14000 10.373
58.16000 3.437
58.18000 1.998
58.20000 2.672
58.22000 1.990
58.24000 0.461
58.26000 1.327
58.28000 2.795
58.30000 4.785
58.32000 0.979
58.34000 -0.297
58.36000 2.322
58.38000 4.291
58.40000 4.714
58.42000 3.778
58.44000 4.621
58.46000 3.830
58.48000 -2.231
58.50000 0.160
58.52000 0.875
58.54000 1.865
58.56000 -0.869
58.58000 -0.012
58.60000 0.574
58.62000 -0.039
58.64000 0.104
58.66000 3.400
58.68000 3.554
58.70000 2.186
58.72000 0.112
58.74000 1.884
58.76000 5.802
58.78000 3.779
58.80000 3.541
58.82000 7.427
58.84000 2.569
58.86000 1.725
58.88000 -0.646
58.90000 2.858
58.92000 1.254
58.94000 0.512
58.96000 1.669
58.98000 -0.920
59.00000 -0.009
59.02000 2.074
59.04000 0.274
59.06000 1.533
59.08000 1.462
59.10000 1.530
59.12000 2.442
59.14000 3.458
59.16000 4.342
59.18000 3.042
59.20000 0.071
59.22000 1.308
59.24000 5.156
59.26000 5.908
59.28000 7.742
59.30000 4.632
59.32000 2.284
59.34000 4.180
59.36000 1.031
59.38000 -2.236
59.40000 -1.797
59.42000 1.393
59.44000 4.485
59.46000 0.859
59.48000 1.039
59.50000 0.850
59.52000 2.909
59.54000 1.715
59.56000 1.526
59.58000 -0.628
59.60000 0.466
59.62000 3.511
59.64000 2.572
59.66000 1.508
59.68000 -0.837
59.70000 1.155
59.72000 2.742
59.74000 2.329
59.76000 2.380
59.78000 0.345
59.80000 -1.207
59.82000 1.331
59.84000 0.524
59.86000 1.147
59.88000 -0.022
59.90000 0.547
59.92000 -0.454
59.94000 1.292
59.96000 2.192
59.98000 2.204
60.00000 0.932
60.02000 0.428
60.04000 -1.071
60.06000 3.587
60.08000 1.438
60.10000 3.039
60.12000 4.236
60.14000 3.791
60.16000 3.111
60.18000 3.554
60.20000 1.742
60.22000 0.125
60.24000 -2.208
60.26000 -0.439
60.28000 3.585
60.30000 3.436
60.32000 1.520
60.34000 2.327
60.36000 4.535
60.38000 4.851
60.40000 1.310
60.42000 1.416
60.44000 0.063
60.46000 -0.716
60.48000 0.821
60.50000 0.997
60.52000 -2.184
60.54000 -0.155
60.56000 5.266
60.58000 3.798
60.60000 3.457
60.62000 2.579
60.64000 0.325
60.66000 -0.784
60.68000 -2.183
60.70000 -0.600
60.72000 0.458
60.74000 1.399
60.76000 0.115
60.78000 0.079
60.80000 0.460
60.82000 2.667
60.84000 5.238
60.86000 2.412
60.88000 -1.863
60.90000 0.030
60.92000 4.076
60.94000 0.890
60.96000 -1.882
60.98000 -1.636
61.00000 2.098
61.02000 1.568
61.04000 -0.617
61.06000 -0.925
61.08000 0.520
61.10000 -1.101
61.12000 1.756
61.14000 0.964
61.16000 0.756
61.18000 3.878
61.20000 4.968
61.22000 1.086
61.24000 1.401
61.26000 0.213
61.28000 2.792
61.30000 2.109
61.32000 1.181
61.34000 -2.157
61.36000 -2.191
61.38000 -0.011
61.40000 0.629
61.42000 1.162
61.44000 0.375
61.46000 0.101
61.48000 0.293
61.50000 -0.194
61.52000 2.098
61.54000 1.941
61.56000 2.154
61.58000 -0.975
61.60000 0.133
61.62000 2.423
61.64000 0.097
61.66000 -0.611
61.68000 2.148
61.70000 4.054
61.72000 2.481
61.74000 1.457
61.76000 1.151
61.78000 -1.090
61.80000 -0.071
61.82000 -0.487
61.84000 -1.066
61.86000 0.124
61.88000 0.651
61.90000 -2.164
61.92000 -0.791
61.94000 0.528
61.96000 0.263
61.98000 0.196
62.00000 0.607
62.02000 -1.263
62.04000 0.660
62.06000 1.596
62.08000 1.228
62.10000 -0.555
62.12000 -0.103
62.14000 2.784
62.16000 1.057
62.18000 -0.062
62.20000 -0.124
62.22000 1.103
62.24000 2.414
62.26000 2.690
62.28000 0.821
62.30000 2.316
62.32000 4.873
62.34000 2.264
62.36000 1.824
62.38000 2.126
62.40000 0.234
62.42000 0.058
62.44000 -1.153
62.46000 2.228
62.48000 5.075
62.50000 1.069
62.52000 -0.576
62.54000 0.783
62.56000 -0.090
62.58000 -1.203
62.60000 0.302
62.62000 3.443
62.64000 1.672
62.66000 2.954
62.68000 6.826
62.70000 3.160
62.72000 1.927
62.74000 3.779
62.76000 4.904
62.78000 4.826
62.80000 0.791
62.82000 -0.255
62.84000 -2.127
62.86000 -0.065
62.88000 3.164
62.90000 2.620
62.92000 5.796
62.94000 3.898
62.96000 4.311
62.98000 2.409
63.00000 1.795
63.02000 -1.824
63.04000 1.802
63.06000 3.096
63.08000 0.446
63.10000 2.658
63.12000 3.693
63.14000 0.448
63.16000 0.441
63.18000 -1.364
63.20000 1.951
63.22000 2.710
63.24000 2.647
63.26000 2.951
63.28000 1.662
63.30000 0.992
63.32000 -0.251
63.34000 2.928
63.36000 1.523
63.38000 0.915
63.40000 1.393
63.42000 -0.586
63.44000 -2.135
63.46000 -0.150
63.48000 0.725
63.50000 2.839
63.52000 0.657
63.54000 -0.100
63.56000 1.443
63.58000 2.026
63.60000 0.589
63.62000 3.517
63.64000 3.704
63.66000 5.372
63.68000 3.927
63.70000 0.765
63.72000 -0.286
63.74000 0.756
63.76000 2.311
63.78000 1.529
63.80000 1.410
63.82000 -1.297
63.84000 -1.424
63.86000 0.498
63.88000 1.759
63.90000 4.807
63.92000 1.939
63.94000 2.438
63.96000 2.839
63.98000 1.685
64.00000 -1.473
64.02000 1.646
64.04000 3.858
64.06000 5.200
64.08000 0.839
64.10000 1.101
64.12000 2.035
64.14000 1.266
64.16000 2.731
64.18000 6.327
64.20000 4.513
64.22000 1.846
64.24000 -0.034
64.26000 1.352
64.28000 1.761
64.30000 -0.445
64.32000 -2.141
64.34000 1.822
64.36000 3.082
64.38000 2.030
64.40000 2.813
64.42000 1.014
64.44000 -0.141
64.46000 -1.118
64.48000 -0.070
64.50000 -0.188
64.52000 0.838
64.54000 0.097
64.56000 1.372
64.58000 1.999
64.60000 1.935
64.62000 0.800
64.64000 0.919
64.66000 0.956
64.68000 1.696
64.70000 -0.796
64.72000 -1.970
64.74000 1.002
64.76000 2.500
64.78000 1.125
64.80000 0.931
64.82000 0.037
64.84000 -0.237
64.86000 0.513
64.88000 0.677
64.90000 0.867
64.92000 2.447
64.94000 0.303
64.96000 -0.853
64.98000 0.321
65.00000 0.779
65.02000 0.535
65.04000 0.911
65.06000 1.664
65.08000 2.044
65.10000 5.622
65.12000 4.260
65.14000 4.499
65.16000 2.765
65.18000 -0.751
65.20000 0.884
65.22000 0.047
65.24000 1.655
65.26000 1.394
65.28000 2.075
65.30000 1.089
65.32000 -2.139
65.34000 -0.300
65.36000 0.734
65.38000 1.634
65.40000 2.312
65.42000 2.439
65.44000 0.255
65.46000 0.323
65.48000 1.956
65.50000 -0.327
65.52000 -1.423
65.54000 -2.137
65.56000 -0.480
65.58000 -0.001
65.60000 0.074
65.62000 3.008
65.64000 1.518
65.66000 0.150
65.68000 3.730
65.70000 0.862
65.72000 0.580
65.74000 0.361
65.76000 1.673
65.78000 2.478
65.80000 -0.523
65.82000 -0.460
65.84000 0.794
65.86000 2.683
65.88000 2.920
65.90000 3.965
65.92000 3.291
65.94000 2.168
65.96000 2.727
65.98000 0.344
66.00000 -0.728
66.02000 -1.043
66.04000 0.326
66.06000 -1.429
66.08000 -0.841
66.10000 2.756
66.12000 1.668
66.14000 -0.064
66.16000 0.179
66.18000 0.642
66.20000 2.177
66.22000 -1.570
66.24000 0.461
66.26000 1.750
66.28000 1.033
66.30000 -1.267
66.32000 -2.161
66.34000 0.897
66.36000 2.339
66.38000 0.560
66.40000 -0.545
66.42000 -0.367
66.44000 1.211
66.46000 0.584
66.48000 2.605
66.50000 0.460
66.52000 -1.663
66.54000 -2.167
66.56000 -1.164
66.58000 1.023
66.60000 0.724
66.62000 2.630
66.64000 3.168
66.66000 -1.704
66.68000 -1.503
66.70000 0.085
66.72000 -1.068
66.74000 -0.164
66.76000 0.725
66.78000 -1.858
66.80000 -0.928
66.82000 3.142
66.84000 3.078
66.86000 1.532
66.88000 3.784
66.90000 2.026
66.92000 1.056
66.94000 0.251
66.96000 1.293
66.98000 0.133
67.00000 1.095
67.02000 1.490
67.04000 -1.339
67.06000 -2.172
67.08000 0.014
67.10000 -1.951
67.12000 1.365
67.14000 2.064
67.16000 2.233
67.18000 0.617
67.20000 -1.072
67.22000 0.334
67.24000 1.127
67.26000 1.962
67.28000 0.935
67.30000 -1.252
67.32000 -0.870
67.34000 -0.465
67.36000 -0.444
67.38000 -0.814
67.40000 0.713
67.42000 3.467
67.44000 1.080
67.46000 -0.997
67.48000 -2.191
67.50000 -1.224
67.52000 -1.374
67.54000 0.996
67.56000 0.672
67.58000 0.468
67.60000 1.028
67.62000 -1.675
67.64000 -1.166
67.66000 1.257
67.68000 3.604
67.70000 3.449
67.72000 1.952
67.74000 2.352
67.76000 2.240
67.78000 0.459
67.80000 0.785
67.82000 2.456
67.84000 1.876
67.86000 -2.199
67.88000 0.326
67.90000 1.429
67.92000 0.853
67.94000 -0.115
67.96000 1.542
67.98000 -0.966
68.00000 -0.482
68.02000 0.190
68.04000 4.913
68.06000 2.278
68.08000 3.590
68.10000 5.345
68.12000 3.730
68.14000 3.792
68.16000 4.298
68.18000 5.418
68.20000 3.217
68.22000 2.358
68.24000 3.992
68.26000 1.485
68.28000 5.785
68.30000 6.363
68.32000 6.505
68.34000 6.690
68.36000 8.150
68.38000 7.210
68.40000 8.633
68.42000 8.351
68.44000 9.771
68.46000 11.756
68.48000 12.854
68.50000 9.988
68.52000 11.788
68.54000 9.595
68.56000 11.256
68.58000 11.400
68.60000 11.839
68.62000 15.319
68.64000 15.876
68.66000 17.307
68.68000 20.360
68.70000 17.095
68.72000 19.101
68.74000 19.747
68.76000 19.306
68.78000 21.527
68.80000 22.454
68.82000 20.777
68.84000 21.299
68.86000 24.303
68.88000 25.420
68.90000 26.397
68.92000 27.624
68.94000 27.583
68.96000 26.531
68.98000 26.915
69.00000 25.285
69.02000 24.021
69.04000 28.517
69.06000 26.448
69.08000 24.045
69.10000 25.901
69.12000 24.863
69.14000 25.251
69.16000 24.757
69.18000 23.824
69.20000 20.159
69.22000 18.820
69.24000 17.558
69.26000 18.808
69.28000 20.891
69.30000 20.297
69.32000 15.500
69.34000 11.170
69.36000 12.819
69.38000 13.523
69.40000 16.610
69.42000 16.732
69.44000 13.594
69.46000 10.262
69.48000 9.840
69.50000 11.256
69.52000 10.264
69.54000 10.598
69.56000 11.513
69.58000 11.115
69.60000 7.102
69.62000 9.183
69.64000 9.401
69.66000 7.377
69.68000 5.654
69.70000 5.332
69.72000 6.150
69.74000 5.412
69.76000 1.609
69.78000 2.451
69.80000 2.664
69.82000 3.381
69.84000 6.087
69.86000 3.766
69.88000 2.984
69.90000 2.383
69.92000 1.801
69.94000 -0.274
69.96000 1.175
69.98000 -0.406
70.00000 1.173
70.02000 2.226
70.04000 1.803
70.06000 1.850
70.08000 0.561
70.10000 4.120
70.12000 -0.321
70.14000 0.228
70.16000 0.820
70.18000 0.830
70.20000 2.636
70.22000 2.494
70.24000 1.664
70.26000 0.240
70.28000 0.247
70.30000 -0.255
70.32000 2.791
70.34000 2.069
70.36000 -1.550
70.38000 -0.092
70.40000 0.042
70.42000 2.101
70.44000 0.467
70.46000 -0.149
70.48000 -0.926
70.50000 -0.650
70.52000 3.442
70.54000 4.038
70.56000 2.001
70.58000 0.654
70.60000 -2.120
70.62000 -1.708
70.64000 1.261
70.66000 1.796
70.68000 3.150
70.70000 0.883
70.72000 3.523
70.74000 2.858
70.76000 0.970
70.78000 -1.454
70.80000 2.090
70.82000 4.166
70.84000 5.889
70.86000 2.621
70.88000 5.482
70.90000 -0.458
70.92000 -2.069
70.94000 1.387
70.96000 6.325
70.98000 3.750
71.00000 1.257
71.02000 0.583
71.04000 1.504
71.06000 -0.096
71.08000 0.663
71.10000 -1.366
71.12000 2.552
71.14000 2.120
71.16000 -1.330
71.18000 1.168
71.20000 2.849
71.22000 1.919
71.24000 2.454
71.26000 4.700
71.28000 0.729
71.30000 -0.220
71.32000 3.273
71.34000 -0.363
71.36000 -0.971
71.38000 -0.865
71.40000 2.469
71.42000 2.061
71.44000 3.082
71.46000 2.393
71.48000 3.433
71.50000 1.980
71.52000 2.689
71.54000 3.024
71.56000 2.048
71.58000 0.405
71.60000 0.741
71.62000 -1.273
71.64000 0.514
71.66000 4.877
71.68000 0.936
71.70000 0.688
71.72000 3.163
71.74000 4.142
71.76000 6.025
71.78000 3.228
71.80000 1.044
71.82000 0.840
71.84000 -0.055
71.86000 -2.020
71.88000 -0.768
71.90000 0.109
71.92000 -1.000
71.94000 -0.291
71.96000 -1.347
71.98000 -1.420
72.00000 0.094
72.02000 1.719
72.04000 2.443
72.06000 -0.553
72.08000 0.337
72.10000 1.071
72.12000 1.447
72.14000 3.264
72.16000 3.823
72.18000 1.558
72.20000 3.183
72.22000 3.947
72.24000 3.886
72.26000 4.908
72.28000 4.814
72.30000 2.997
72.32000 3.551
72.34000 2.103
72.36000 1.957
72.38000 -1.188
72.40000 0.208
72.42000 2.089
72.44000 1.389
72.46000 2.564
72.48000 3.727
72.50000 2.231
72.52000 4.453
72.54000 3.563
72.56000 2.728
72.58000 3.002
72.60000 2.170
72.62000 2.617
72.64000 0.953
72.66000 -0.188
72.68000 -1.980
72.70000 -1.572
72.72000 0.691
72.74000 3.705
72.76000 1.350
72.78000 0.590
72.80000 1.217
72.82000 -1.083
72.84000 -1.943
72.86000 0.934
72.88000 4.795
72.90000 4.304
72.92000 -1.134
72.94000 1.349
72.96000 2.054
72.98000 1.752
73.00000 3.633
73.02000 1.977
73.04000 3.747
73.06000 2.621
73.08000 -0.140
73.10000 2.668
73.12000 4.128
73.14000 3.873
73.16000 0.995
73.18000 0.642
73.20000 3.247
73.22000 3.234
73.24000 3.507
73.26000 2.890
73.28000 4.362
73.30000 0.082
73.32000 0.051
73.34000 -0.732
73.36000 0.366
73.38000 2.419
73.40000 3.002
73.42000 3.582
73.44000 1.189
73.46000 5.348
73.48000 5.674
73.50000 -0.190
73.52000 -1.956
73.54000 0.491
73.56000 1.181
73.58000 0.047
73.60000 2.354
73.62000 2.700
73.64000 3.149
73.66000 2.329
73.68000 3.705
73.70000 2.198
73.72000 1.727
73.74000 3.189
73.76000 1.396
73.78000 0.733
73.80000 3.058
73.82000 5.501
73.84000 2.738
73.86000 3.227
73.88000 3.011
73.90000 2.608
73.92000 1.395
73.94000 2.737
73.96000 3.192
73.98000 2.986
74.00000 4.074
74.02000 2.446
74.04000 3.630
74.06000 2.433
74.08000 2.188
74.10000 1.048
74.12000 -1.315
74.14000 0.181
74.16000 3.575
74.18000 1.050
74.20000 1.967
74.22000 0.410
74.24000 2.188
74.26000 4.238
74.28000 3.792
74.30000 4.175
74.32000 2.261
74.34000 3.918
74.36000 -0.481
74.38000 1.118
74.40000 2.775
74.42000 4.723
74.44000 5.879
74.46000 7.110
74.48000 6.534
74.50000 3.362
74.52000 2.611
74.54000 2.413
74.56000 2.619
74.58000 0.612
74.60000 3.427
74.62000 0.466
74.64000 1.959
74.66000 2.832
74.68000 1.250
74.70000 -1.921
74.72000 0.664
74.74000 6.234
74.76000 5.405
74.78000 4.864
74.80000 3.787
74.82000 1.010
74.84000 2.625
74.86000 1.889
74.88000 2.803
74.90000 2.112
74.92000 0.206
74.94000 2.829
74.96000 3.779
74.98000 1.257
75.00000 3.596
75.02000 3.771
75.04000 4.975
75.06000 3.472
75.08000 1.898
75.10000 2.519
75.12000 2.341
75.14000 4.079
75.16000 3.998
75.18000 2.083
75.20000 -0.079
75.22000 1.256
75.24000 3.535
75.26000 0.351
75.28000 -0.453
75.30000 -1.486
75.32000 -0.997
75.34000 1.224
75.36000 0.391
75.38000 -0.036
75.40000 1.171
75.42000 2.173
75.44000 4.911
75.46000 4.959
75.48000 1.683
75.50000 0.215
75.52000 -0.948
75.54000 -1.916
75.56000 0.027
75.58000 0.136
75.60000 2.595
75.62000 1.139
75.64000 1.924
75.66000 0.006
75.68000 -0.088
75.70000 0.718
75.72000 0.982
75.74000 3.581
75.76000 1.969
75.78000 1.134
75.80000 0.502
75.82000 0.572
75.84000 -0.591
75.86000 0.518
75.88000 -0.129
75.90000 1.003
75.92000 1.049
75.94000 2.711
75.96000 2.166
75.98000 2.328
76.00000 1.013
76.02000 4.621
76.04000 0.373
76.06000 -1.611
76.08000 1.210
76.10000 1.052
76.12000 -0.792
76.14000 -0.199
76.16000 2.656
76.18000 1.673
76.20000 3.875
76.22000 3.509
76.24000 3.481
76.26000 2.525
76.28000 2.213
76.30000 6.240
76.32000 4.298
76.34000 1.836
76.36000 -1.308
76.38000 -1.982
76.40000 0.834
76.42000 3.962
76.44000 3.104
76.46000 2.756
76.48000 5.170
76.50000 1.831
76.52000 1.598
76.54000 -0.599
76.56000 0.374
76.58000 2.788
76.60000 1.834
76.62000 2.290
76.64000 3.016
76.66000 0.943
76.68000 0.376
76.70000 1.508
76.72000 -0.900
76.74000 1.020
76.76000 2.020
76.78000 -1.467
76.80000 -0.914
76.82000 2.348
76.84000 1.193
76.86000 1.377
76.88000 0.275
76.90000 -1.235
76.92000 0.189
76.94000 0.950
76.96000 -0.095
76.98000 0.590
77.00000 -0.137
77.02000 -0.035
77.04000 -0.443
77.06000 2.445
77.08000 0.329
77.10000 -1.697
77.12000 1.180
77.14000 3.150
77.16000 0.098
77.18000 2.093
77.20000 2.514
77.22000 0.825
77.24000 -0.053
77.26000 -0.354
77.28000 2.108
77.30000 3.864
77.32000 1.409
77.34000 1.367
77.36000 1.591
77.38000 1.330
77.40000 -0.045
77.42000 1.578
77.44000 0.256
77.46000 0.928
77.48000 2.034
77.50000 5.440
77.52000 5.932
77.54000 1.995
77.56000 -0.454
77.58000 -0.630
77.60000 -0.263
77.62000 1.597
77.64000 1.776
77.66000 3.558
77.68000 1.419
77.70000 1.356
77.72000 3.865
77.74000 0.431
77.76000 -1.984
77.78000 1.277
77.80000 0.693
77.82000 1.899
77.84000 1.748
77.86000 0.533
77.88000 1.709
77.90000 0.898
77.92000 -0.165
77.94000 2.713
77.96000 1.409
77.98000 0.273
78.00000 -0.942
78.02000 1.805
78.04000 4.950
78.06000 3.302
78.08000 1.110
78.10000 1.427
78.12000 0.974
78.14000 4.023
78.16000 4.938
78.18000 -0.043
78.20000 1.254
78.22000 0.749
78.24000 2.479
78.26000 1.464
78.28000 1.242
78.30000 2.113
78.32000 1.445
78.34000 1.652
78.36000 5.128
78.38000 3.848
78.40000 2.261
78.42000 1.442
78.44000 1.232
78.46000 1.206
78.48000 -2.006
78.50000 -1.611
78.52000 1.828
78.54000 5.713
78.56000 3.120
78.58000 4.118
78.60000 6.642
78.62000 2.206
78.64000 1.992
78.66000 -0.034
78.68000 -0.823
78.70000 -0.334
78.72000 3.279
78.74000 5.176
78.76000 1.290
78.78000 -2.014
78.80000 1.194
78.82000 5.079
78.84000 6.264
78.86000 2.802
78.88000 3.721
78.90000 3.061
78.92000 -0.297
78.94000 -1.931
78.96000 3.076
78.98000 2.668
79.00000 1.366
79.02000 5.357
79.04000 4.105
79.06000 1.361
79.08000 0.872
79.10000 0.330
79.12000 1.149
79.14000 0.956
79.16000 -0.050
79.18000 6.137
79.20000 6.333
79.22000 6.444
79.24000 2.016
79.26000 -2.012
79.28000 1.584
79.30000 2.860
79.32000 0.081
79.34000 0.374
79.36000 0.066
79.38000 -0.323
79.40000 -0.434
79.42000 1.488
79.44000 1.397
79.46000 1.345
79.48000 1.470
79.50000 0.940
79.52000 0.209
79.54000 0.335
79.56000 2.035
79.58000 2.677
79.60000 -0.461
79.62000 0.658
79.64000 0.676
79.66000 0.325
79.68000 0.681
79.70000 0.166
79.72000 2.354
79.74000 4.774
79.76000 2.106
79.78000 1.667
79.80000 4.298
79.82000 1.390
79.84000 1.703
79.86000 0.839
79.88000 -1.257
79.90000 3.072
79.92000 -0.612
79.94000 2.802
79.96000 -0.324
79.98000 -1.711
80.00000 -1.456
80.02000 -0.968
80.04000 -0.828
80.06000 -1.731
80.08000 0.121
80.10000 0.609
80.12000 3.182
80.14000 0.419
80.16000 0.673
80.18000 1.160
80.20000 -0.425
80.22000 1.089
80.24000 2.143
80.26000 -1.615
80.28000 -2.077
80.30000 0.704
80.32000 1.509
80.34000 1.872
80.36000 4.898
80.38000 1.737
80.40000 -2.083
80.42000 -0.624
80.44000 -0.531
80.46000 -1.944
80.48000 0.371
80.50000 1.765
80.52000 -1.174
80.54000 1.617
80.56000 -1.248
80.58000 3.340
80.60000 0.304
80.62000 -2.091
80.64000 -1.357
80.66000 -0.523
80.68000 1.298
80.70000 -0.711
80.72000 2.863
80.74000 3.707
80.76000 0.981
80.78000 -0.003
80.80000 0.102
80.82000 0.606
80.84000 0.604
80.86000 1.462
80.88000 3.967
80.90000 1.747
80.92000 0.127
80.94000 -2.106
80.96000 -0.894
80.98000 -1.699
81.00000 -1.248
81.02000 0.347
81.04000 0.983
81.06000 -0.522
81.08000 -2.126
81.10000 -0.395
81.12000 2.888
81.14000 3.045
81.16000 0.790
81.18000 0.529
81.20000 2.421
81.22000 1.527
81.24000 -0.426
81.26000 0.528
81.28000 0.709
81.30000 2.649
81.32000 3.556
81.34000 1.051
81.36000 1.995
81.38000 0.540
81.40000 -1.257
81.42000 -0.688
81.44000 -1.519
81.46000 -0.289
81.48000 -2.177
81.50000 -0.123
81.52000 -1.124
81.54000 -0.134
81.56000 -0.581
81.58000 1.176
81.60000 2.629
81.62000 2.262
81.64000 1.080
81.66000 1.703
81.68000 -1.871
81.70000 0.016
81.72000 1.238
81.74000 0.465
81.76000 -0.414
81.78000 0.078
81.80000 1.860
81.82000 -2.103
81.84000 0.608
81.86000 2.080
81.88000 2.412
81.90000 0.754
81.92000 -0.857
81.94000 -0.320
81.96000 1.786
81.98000 0.138
82.00000 -2.244
82.02000 2.318
82.04000 2.646
82.06000 4.549
82.08000 2.072
82.10000 2.823
82.12000 3.626
82.14000 4.018
82.16000 1.336
82.18000 2.631
82.20000 4.462
82.22000 4.920
82.24000 1.995
82.26000 1.155
82.28000 4.966
82.30000 9.621
82.32000 9.166
82.34000 6.717
82.36000 5.887
82.38000 8.367
82.40000 12.665
82.42000 14.283
82.44000 12.530
82.46000 11.422
82.48000 11.419
82.50000 10.777
82.52000 9.435
82.54000 12.530
82.56000 13.827
82.58000 15.754
82.60000 19.316
82.62000 19.184
82.64000 23.045
82.66000 20.203
82.68000 18.956
82.70000 16.773
82.72000 17.039
82.74000 23.094
82.76000 26.088
82.78000 31.377
82.80000 27.852
82.82000 27.601
82.84000 30.563
82.86000 30.997
82.88000 35.468
82.90000 36.898
82.92000 35.961
82.94000 36.475
82.96000 39.483
82.98000 41.324
83.00000 41.891
83.02000 45.292
83.04000 49.794
83.06000 46.872
83.08000 46.599
83.10000 48.966
83.12000 48.512
83.14000 44.312
83.16000 52.461
83.18000 54.873
83.20000 50.403
83.22000 48.494
83.24000 52.941
83.26000 51.652
83.28000 50.545
83.30000 47.321
83.32000 52.288
83.34000 48.909
83.36000 47.119
83.38000 45.435
83.40000 45.091
83.42000 46.297
83.44000 44.709
83.46000 39.404
83.48000 40.810
83.50000 43.080
83.52000 44.497
83.54000 41.324
83.56000 38.173
83.58000 33.674
83.60000 33.580
83.62000 29.823
83.64000 29.793
83.66000 31.131
83.68000 30.345
83.70000 31.146
83.72000 32.111
83.74000 26.550
83.76000 29.977
83.78000 32.310
83.80000 30.088
83.82000 26.186
83.84000 24.220
83.86000 20.371
83.88000 19.468
83.90000 20.628
83.92000 20.082
83.94000 19.505
83.96000 19.294
83.98000 16.235
84.00000 18.862
84.02000 16.204
84.04000 16.202
84.06000 11.612
84.08000 8.155
84.10000 11.337
84.12000 10.564
84.14000 8.756
84.16000 9.652
84.18000 11.161
84.20000 9.927
84.22000 5.158
84.24000 2.355
84.26000 1.539
84.28000 1.980
84.30000 5.130
84.32000 5.142
84.34000 5.571
84.36000 5.359
84.38000 5.452
84.40000 7.204
84.42000 3.941
84.44000 0.855
84.46000 1.066
84.48000 2.097
84.50000 -0.970
84.52000 0.819
84.54000 2.227
84.56000 3.538
84.58000 6.942
84.60000 3.512
84.62000 2.997
84.64000 0.750
84.66000 2.165
84.68000 1.281
84.70000 -2.200
84.72000 -0.361
84.74000 2.860
84.76000 0.966
84.78000 0.724
84.80000 -0.547
84.82000 1.725
84.84000 2.415
84.86000 -0.387
84.88000 1.594
84.90000 4.537
84.92000 2.717
84.94000 2.202
84.96000 4.004
84.98000 3.436
85.00000 -0.906
85.02000 -1.410
85.04000 2.296
85.06000 2.337
85.08000 -0.045
85.10000 -0.840
85.12000 2.644
85.14000 2.659
85.16000 1.586
85.18000 1.470
85.20000 2.936
85.22000 3.352
85.24000 -0.498
85.26000 2.135
85.28000 3.491
85.30000 4.782
85.32000 0.581
85.34000 1.077
85.36000 -2.095
85.38000 0.240
85.40000 -1.234
85.42000 1.612
85.44000 1.566
85.46000 3.686
85.48000 3.824
85.50000 1.798
85.52000 1.789
85.54000 3.596
85.56000 0.701
85.58000 -0.534
85.60000 -1.292
85.62000 2.672
85.64000 2.679
85.66000 2.875
85.68000 1.261
85.70000 2.469
85.72000 2.574
85.74000 0.862
85.76000 0.872
85.78000 3.960
85.80000 3.688
85.82000 0.255
85.84000 0.619
85.86000 -0.469
85.88000 4.273
85.90000 3.759
85.92000 4.244
85.94000 4.469
85.96000 5.171
85.98000 3.694
86.00000 1.429
86.02000 3.168
86.04000 4.741
86.06000 5.167
86.08000 1.250
86.10000 2.098
86.12000 4.823
86.14000 5.470
86.16000 3.992
86.18000 -1.996
86.20000 -0.511
86.22000 3.265
86.24000 5.180
86.26000 4.310
86.28000 5.286
86.30000 3.856
86.32000 3.663
86.34000 1.194
86.36000 1.266
86.38000 1.613
86.40000 3.559
86.42000 7.377
86.44000 5.745
86.46000 5.826
86.48000 2.826
86.50000 2.514
86.52000 3.163
86.54000 4.987
86.56000 5.351
86.58000 5.600
86.60000 9.474
86.62000 7.239
86.64000 6.187
86.66000 4.199
86.68000 3.956
86.70000 3.874
86.72000 3.820
86.74000 4.295
86.76000 5.126
86.78000 8.188
86.80000 7.697
86.82000 7.965
86.84000 5.303
86.86000 9.052
86.88000 11.993
86.90000 7.835
86.92000 7.933
86.94000 7.066
86.96000 7.557
86.98000 8.040
87.00000 10.307
87.02000 10.710
87.04000 9.591
87.06000 10.460
87.08000 11.507
87.10000 10.486
87.12000 12.701
87.14000 13.966
87.16000 12.286
87.18000 16.377
87.20000 17.874
87.22000 17.902
87.24000 20.064
87.26000 21.974
87.28000 22.134
87.30000 24.170
87.32000 21.284
87.34000 19.582
87.36000 19.932
87.38000 19.861
87.40000 23.795
87.42000 23.076
87.44000 21.864
87.46000 27.403
87.48000 28.337
87.50000 30.458
87.52000 25.680
87.54000 29.700
87.56000 35.804
87.58000 29.768
87.60000 25.421
87.62000 31.268
87.64000 30.306
87.66000 27.225
87.68000 27.474
87.70000 24.653
87.72000 23.537
87.74000 25.192
87.76000 30.918
87.78000 30.009
87.80000 28.708
87.82000 23.965
87.84000 29.633
87.86000 29.815
87.88000 29.190
87.90000 29.393
87.92000 28.443
87.94000 27.465
87.96000 28.502
87.98000 23.950
88.00000 21.905
88.02000 21.424
88.04000 23.206
88.06000 25.297
88.08000 26.286
88.10000 26.420
88.12000 22.424
88.14000 20.814
88.16000 19.452
88.18000 15.823
88.20000 18.044
88.22000 15.106
88.24000 12.461
88.26000 12.455
88.28000 11.982
88.30000 13.157
88.32000 11.819
88.34000 9.895
88.36000 9.708
88.38000 10.249
88.40000 10.954
88.42000 6.398
88.44000 8.437
88.46000 8.968
88.48000 11.034
88.50000 11.585
88.52000 9.272
88.54000 9.779
88.56000 6.946
88.58000 10.488
88.60000 6.340
88.62000 7.053
88.64000 8.392
88.66000 2.365
88.68000 3.493
88.70000 5.201
88.72000 4.515
88.74000 0.889
88.76000 0.270
88.78000 5.276
88.80000 3.113
88.82000 1.267
88.84000 0.491
88.86000 2.743
88.88000 2.658
88.90000 3.410
88.92000 2.400
88.94000 1.897
88.96000 1.196
88.98000 1.855
89.00000 -0.239
89.02000 3.600
89.04000 3.403
89.06000 3.104
89.08000 2.163
89.10000 0.308
89.12000 1.845
89.14000 0.563
89.16000 1.300
89.18000 2.389
89.20000 3.401
89.22000 4.523
89.24000 1.297
89.26000 -0.542
89.28000 3.305
89.30000 4.067
89.32000 0.293
89.34000 -1.998
89.36000 0.599
89.38000 1.505
89.40000 3.371
89.42000 1.378
89.44000 -1.202
89.46000 -0.743
89.48000 -0.978
89.50000 -1.640
89.52000 2.670
89.54000 1.507
89.56000 0.032
89.58000 3.786
89.60000 3.391
89.62000 0.353
89.64000 -1.942
89.66000 -1.242
89.68000 -0.521
89.70000 0.352
89.72000 0.487
89.74000 -0.534
89.76000 -0.397
89.78000 2.266
89.80000 3.552
89.82000 1.388
89.84000 -1.241
89.86000 2.063
89.88000 2.735
89.90000 -0.475
89.92000 3.594
89.94000 1.134
89.96000 -1.234
89.98000 0.871
90.00000 -0.020
90.02000 -1.908
90.04000 0.301
90.06000 1.947
90.08000 4.825
90.10000 2.457
90.12000 3.368
90.14000 0.791
90.16000 2.746
90.18000 2.169
90.20000 5.697
90.22000 5.155
90.24000 1.015
90.26000 -1.290
90.28000 -0.309
90.30000 2.655
90.32000 4.267
90.34000 4.071
90.36000 2.889
90.38000 1.025
90.40000 1.783
90.42000 1.552
90.44000 6.265
90.46000 6.750
90.48000 4.721
90.50000 0.270
90.52000 1.852
90.54000 7.301
90.56000 7.413
90.58000 4.970
90.60000 5.067
90.62000 5.635
90.64000 2.838
90.66000 2.689
90.68000 2.286
90.70000 1.281
90.72000 -1.835
90.74000 1.173
90.76000 1.373
90.78000 2.690
90.80000 4.689
90.82000 4.467
90.84000 1.853
90.86000 2.486
90.88000 5.069
90.90000 1.870
90.92000 1.089
90.94000 -0.153
90.96000 1.973
90.98000 4.084
91.00000 1.689
91.02000 1.579
91.04000 1.022
91.06000 1.899
91.08000 1.624
91.10000 2.876
91.12000 2.600
91.14000 3.471
91.16000 2.717
91.18000 3.492
91.20000 0.542
91.22000 0.670
91.24000 1.122
91.26000 -0.599
91.28000 1.658
91.30000 4.130
91.32000 5.369
91.34000 4.603
91.36000 5.275
91.38000 5.185
91.40000 2.623
91.42000 5.300
91.44000 0.733
91.46000 -1.231
91.48000 1.637
91.50000 -0.282
91.52000 4.343
91.54000 2.958
91.56000 2.950
91.58000 4.565
91.60000 4.585
91.62000 2.814
91.64000 0.188
91.66000 1.072
91.68000 5.186
91.70000 5.032
91.72000 2.523
91.74000 1.011
91.76000 3.725
91.78000 4.852
91.80000 5.275
91.82000 1.967
91.84000 -0.719
91.86000 0.997
91.88000 -0.515
91.90000 -0.470
91.92000 0.707
91.94000 0.869
91.96000 2.382
91.98000 3.915
92.00000 5.079
92.02000 2.415
92.04000 3.123
92.06000 2.033
92.08000 2.030
92.10000 2.572
92.12000 2.499
92.14000 2.329
92.16000 2.389
92.18000 1.672
92.20000 1.845
92.22000 3.921
92.24000 1.195
92.26000 2.055
92.28000 0.690
92.30000 2.230
92.32000 5.542
92.34000 5.584
92.36000 6.571
92.38000 8.507
92.40000 0.609
92.42000 0.988
92.44000 2.533
92.46000 4.211
92.48000 7.485
92.50000 4.335
92.52000 4.227
92.54000 4.358
92.56000 8.600
92.58000 5.422
92.60000 4.640
92.62000 4.065
92.64000 0.976
92.66000 1.862
92.68000 4.503
92.70000 8.025
92.72000 7.352
92.74000 1.304
92.76000 1.876
92.78000 -1.827
92.80000 2.051
92.82000 5.430
92.84000 6.133
92.86000 2.472
92.88000 1.559
92.90000 3.369
92.92000 1.755
92.94000 -0.532
92.96000 0.781
92.98000 4.277
93.00000 5.109
93.02000 -0.153
93.04000 -1.857
93.06000 2.141
93.08000 3.130
93.10000 6.729
93.12000 6.261
93.14000 5.153
93.16000 3.384
93.18000 0.481
93.20000 4.008
93.22000 2.026
93.24000 2.159
93.26000 5.679
93.28000 2.047
93.30000 3.600
93.32000 5.493
93.34000 1.951
93.36000 0.689
93.38000 0.661
93.40000 3.302
93.42000 6.645
93.44000 0.661
93.46000 1.480
93.48000 2.895
93.50000 2.479
93.52000 5.392
93.54000 2.243
93.56000 1.182
93.58000 4.350
93.60000 4.632
93.62000 1.055
93.64000 2.002
93.66000 3.584
93.68000 1.156
93.70000 1.234
93.72000 4.208
93.74000 2.720
93.76000 1.141
93.78000 1.706
93.80000 1.594
93.82000 5.277
93.84000 1.769
93.86000 3.988
93.88000 4.227
93.90000 2.702
93.92000 2.721
93.94000 2.300
93.96000 3.323
93.98000 1.322
94.00000 3.638
94.02000 1.489
94.04000 -1.299
94.06000 3.274
94.08000 1.259
94.10000 -0.986
94.12000 2.085
94.14000 3.978
94.16000 1.736
94.18000 3.646
94.20000 3.166
94.22000 0.204
94.24000 0.970
94.26000 3.513
94.28000 5.143
94.30000 2.752
94.32000 2.004
94.34000 4.017
94.36000 1.886
94.38000 0.762
94.40000 4.270
94.42000 3.076
94.44000 2.825
94.46000 1.356
94.48000 -0.133
94.50000 3.287
94.52000 4.501
94.54000 4.502
94.56000 3.427
94.58000 3.746
94.60000 3.961
94.62000 4.730
94.64000 6.293
94.66000 -1.873
94.68000 -0.098
94.70000 0.952
94.72000 2.914
94.74000 2.267
94.76000 3.725
94.78000 2.164
94.80000 0.644
94.82000 0.708
94.84000 2.398
94.86000 4.410
94.88000 2.664
94.90000 5.882
94.92000 2.668
94.94000 2.484
94.96000 6.443
94.98000 3.132
95.00000 0.791
95.02000 2.163
95.04000 2.762
95.06000 2.592
95.08000 0.960
95.10000 2.702
95.12000 4.241
95.14000 2.295
95.16000 3.356
95.18000 1.773
95.20000 6.244
95.22000 2.065
95.24000 1.562
95.26000 3.073
95.28000 1.712
95.30000 1.574
95.32000 2.307
95.34000 1.395
95.36000 2.914
95.38000 0.555
95.40000 1.853
95.42000 2.173
95.44000 -1.054
95.46000 -1.701
95.48000 -1.015
95.50000 2.128
95.52000 1.415
95.54000 1.678
95.56000 4.247
95.58000 7.116
95.60000 2.430
95.62000 0.277
95.64000 4.562
95.66000 4.273
95.68000 0.705
95.70000 -0.175
95.72000 -1.551
95.74000 0.716
95.76000 0.079
95.78000 1.501
95.80000 4.914
95.82000 3.652
95.84000 3.650
95.86000 5.568
95.88000 1.494
95.90000 0.257
95.92000 2.471
95.94000 3.469
95.96000 2.930
95.98000 4.099
96.00000 6.625
96.02000 2.308
96.04000 1.050
96.06000 0.321
96.08000 -1.313
96.10000 -1.924
96.12000 3.212
96.14000 1.510
96.16000 0.071
96.18000 2.538
96.20000 1.545
96.22000 2.680
96.24000 1.761
96.26000 -1.331
96.28000 2.877
96.30000 5.649
96.32000 3.040
96.34000 -0.219
96.36000 1.008
96.38000 -1.134
96.40000 1.952
96.42000 0.343
96.44000 0.517
96.46000 2.011
96.48000 3.823
96.50000 6.789
96.52000 3.302
96.54000 0.810
96.56000 0.437
96.58000 5.086
96.60000 6.455
96.62000 3.396
96.64000 2.593
96.66000 2.591
96.68000 0.513
96.70000 0.909
96.72000 0.663
96.74000 0.840
96.76000 0.905
96.78000 2.236
96.80000 0.800
96.82000 2.147
96.84000 0.988
96.86000 2.759
96.88000 1.031
96.90000 -1.459
96.92000 3.613
96.94000 8.233
96.96000 4.468
96.98000 4.327
97.00000 1.620
97.02000 2.671
97.04000 3.658
97.06000 1.620
97.08000 -0.296
97.10000 -1.847
97.12000 -1.918
97.14000 -1.256
97.16000 1.361
97.18000 -0.271
97.20000 -0.236
97.22000 3.230
97.24000 3.675
97.26000 -0.507
97.28000 0.284
97.30000 2.528
97.32000 3.955
97.34000 2.946
97.36000 1.264
97.38000 3.003
97.40000 0.388
97.42000 1.500
97.44000 5.046
97.46000 3.154
97.48000 2.636
97.50000 2.138
97.52000 3.010
97.54000 2.374
97.56000 3.668
97.58000 -0.188
97.60000 2.877
97.62000 2.909
97.64000 1.700
97.66000 1.127
97.68000 7.618
97.70000 4.846
97.72000 4.543
97.74000 0.294
97.76000 -1.330
97.78000 2.964
97.80000 0.080
97.82000 2.343
97.84000 10.779
97.86000 2.875
97.88000 -0.897
97.90000 0.631
97.92000 5.321
97.94000 5.357
97.96000 0.298
97.98000 -1.827
98.00000 1.799
98.02000 11.471
98.04000 6.533
98.06000 4.309
98.08000 6.054
98.10000 4.307
98.12000 6.246
98.14000 1.924
98.16000 2.017
98.18000 5.832
98.20000 8.966
98.22000 8.588
98.24000 1.205
98.26000 1.300
98.28000 3.299
98.30000 4.412
98.32000 3.504
98.34000 1.748
98.36000 7.312
98.38000 7.969
98.40000 -3.076
98.42000 1.718
98.44000 1.424
98.46000 7.419
98.48000 9.981
98.50000 4.944
98.52000 4.888
98.54000 6.547
98.56000 6.076
98.58000 2.339
98.60000 2.487
98.62000 2.621
98.64000 1.349
98.66000 8.541
98.68000 2.495
98.70000 5.516
98.72000 1.264
98.74000 0.178
98.76000 2.485
98.78000 13.443
98.80000 8.693
98.82000 6.049
98.84000 1.419
98.86000 5.569
98.88000 2.123
98.90000 0.660
98.92000 -1.232
98.94000 5.105
98.96000 2.178
98.98000 -1.800
99.00000 1.001
99.02000 0.430
99.04000 2.110
99.06000 3.783
99.08000 -1.868
99.10000 -0.419
99.12000 1.062
99.14000 0.715
99.16000 5.170
99.18000 0.727
99.20000 5.846
99.22000 3.625
99.24000 3.541
99.26000 3.319
99.28000 0.485
99.30000 3.857
99.32000 8.747
99.34000 6.286
99.36000 0.248
99.38000 3.432
99.40000 5.591
99.42000 0.156
99.44000 9.914
99.46000 7.116
99.48000 13.408
99.50000 12.099
99.52000 2.380
99.54000 6.059
99.56000 6.205
99.58000 6.856
99.60000 6.235
99.62000 -3.502
99.64000 3.779
99.66000 0.431
99.68000 4.025
99.70000 -1.871
99.72000 3.598
99.74000 0.494
99.76000 2.969
99.78000 3.425
99.80000 3.136
99.82000 9.229
99.84000 5.154
99.86000 4.597
99.88000 -0.479
99.90000 4.181
99.92000 -0.679
99.94000 -1.914
99.96000 0.916
99.98000 0.000
