'Id: "0011389" Comment: "Integrate frame 0011389_Au-Ir-Rh_Au-Rich_XRD_Mapping-278-0000.gfrmwith cursor Wedge Cursor #5" Operator: "B?rgel" Anode: "Cu" Wavelength: "1.5406" Scantype: "2Theta (TwoTheta)" TimePerStep: "1" X: "40.5" Y: "22.5" Z: "5.95" 
10.00000 0.000
10.02000 8.542
10.04000 34.624
10.06000 29.086
10.08000 12.047
10.10000 8.777
10.12000 13.057
10.14000 17.260
10.16000 15.350
10.18000 19.356
10.20000 11.116
10.22000 11.337
10.24000 22.214
10.26000 21.953
10.28000 23.960
10.30000 30.506
10.32000 29.888
10.34000 29.812
10.36000 13.796
10.38000 21.775
10.40000 29.745
10.42000 28.497
10.44000 34.454
10.46000 32.777
10.48000 26.987
10.50000 33.067
10.52000 29.492
10.54000 33.695
10.56000 38.119
10.58000 26.854
10.60000 23.439
10.62000 27.165
10.64000 28.484
10.66000 25.416
10.68000 35.316
10.70000 33.532
10.72000 24.807
10.74000 30.172
10.76000 35.228
10.78000 21.685
10.80000 23.575
10.82000 24.530
10.84000 41.068
10.86000 43.152
10.88000 39.679
10.90000 33.629
10.92000 36.037
10.94000 37.887
10.96000 41.027
10.98000 53.158
11.00000 41.966
11.02000 42.696
11.04000 28.840
11.06000 24.779
11.08000 41.071
11.10000 38.808
11.12000 37.851
11.14000 39.988
11.16000 28.230
11.18000 27.164
11.20000 39.042
11.22000 55.897
11.24000 45.427
11.26000 43.098
11.28000 42.860
11.30000 36.697
11.32000 47.467
11.34000 32.467
11.36000 36.508
11.38000 36.149
11.40000 43.644
11.42000 45.885
11.44000 46.025
11.46000 41.038
11.48000 39.787
11.50000 41.052
11.52000 38.080
11.54000 40.991
11.56000 52.671
11.58000 54.601
11.60000 53.911
11.62000 50.203
11.64000 41.109
11.66000 45.349
11.68000 46.387
11.70000 44.819
11.72000 46.825
11.74000 44.585
11.76000 48.383
11.78000 49.317
11.80000 46.110
11.82000 42.564
11.84000 35.936
11.86000 43.242
11.88000 35.697
11.90000 46.410
11.92000 61.108
11.94000 50.358
11.96000 51.481
11.98000 42.487
12.00000 44.074
12.02000 44.420
12.04000 49.457
12.06000 59.794
12.08000 59.387
12.10000 51.172
12.12000 48.020
12.14000 47.252
12.16000 49.403
12.18000 55.078
12.20000 58.238
12.22000 50.585
12.24000 57.903
12.26000 56.930
12.28000 56.465
12.30000 51.322
12.32000 62.422
12.34000 56.083
12.36000 48.080
12.38000 46.559
12.40000 44.193
12.42000 47.094
12.44000 52.556
12.46000 53.575
12.48000 55.223
12.50000 56.804
12.52000 53.715
12.54000 54.387
12.56000 55.604
12.58000 57.483
12.60000 61.839
12.62000 54.947
12.64000 57.442
12.66000 54.185
12.68000 41.915
12.70000 43.603
12.72000 58.340
12.74000 53.608
12.76000 53.924
12.78000 53.385
12.80000 51.467
12.82000 53.340
12.84000 56.358
12.86000 63.287
12.88000 56.189
12.90000 50.300
12.92000 58.187
12.94000 52.394
12.96000 48.030
12.98000 52.628
13.00000 54.591
13.02000 47.969
13.04000 50.774
13.06000 65.675
13.08000 57.794
13.10000 61.360
13.12000 61.761
13.14000 57.616
13.16000 49.376
13.18000 55.264
13.20000 54.205
13.22000 52.418
13.24000 56.415
13.26000 51.905
13.28000 51.862
13.30000 60.862
13.32000 59.490
13.34000 60.098
13.36000 54.222
13.38000 58.997
13.40000 60.539
13.42000 64.881
13.44000 52.212
13.46000 36.982
13.48000 41.229
13.50000 50.445
13.52000 46.400
13.54000 51.261
13.56000 47.273
13.58000 45.900
13.60000 42.586
13.62000 45.482
13.64000 41.280
13.66000 53.064
13.68000 51.745
13.70000 53.680
13.72000 48.537
13.74000 47.120
13.76000 48.463
13.78000 55.802
13.80000 48.072
13.82000 41.392
13.84000 45.840
13.86000 43.874
13.88000 45.881
13.90000 44.243
13.92000 50.000
13.94000 56.363
13.96000 48.440
13.98000 41.796
14.00000 46.908
14.02000 56.096
14.04000 54.977
14.06000 44.201
14.08000 40.856
14.10000 47.565
14.12000 52.829
14.14000 49.498
14.16000 40.899
14.18000 34.678
14.20000 43.832
14.22000 43.105
14.24000 44.244
14.26000 42.533
14.28000 39.160
14.30000 46.010
14.32000 42.848
14.34000 40.415
14.36000 31.723
14.38000 30.959
14.40000 37.081
14.42000 39.066
14.44000 40.322
14.46000 47.903
14.48000 43.900
14.50000 36.419
14.52000 29.169
14.54000 38.429
14.56000 36.057
14.58000 34.505
14.60000 38.298
14.62000 46.792
14.64000 37.183
14.66000 30.236
14.68000 42.998
14.70000 40.099
14.72000 24.234
14.74000 37.048
14.76000 44.894
14.78000 43.140
14.80000 30.667
14.82000 36.235
14.84000 42.524
14.86000 41.352
14.88000 36.480
14.90000 26.680
14.92000 34.088
14.94000 30.935
14.96000 33.797
14.98000 34.423
15.00000 34.813
15.02000 33.870
15.04000 32.838
15.06000 35.907
15.08000 32.122
15.10000 24.817
15.12000 26.947
15.14000 36.953
15.16000 26.479
15.18000 27.013
15.20000 32.087
15.22000 27.278
15.24000 32.040
15.26000 36.783
15.28000 28.883
15.30000 19.023
15.32000 29.675
15.34000 35.911
15.36000 39.663
15.38000 35.352
15.40000 27.367
15.42000 30.910
15.44000 33.641
15.46000 34.912
15.48000 33.298
15.50000 30.504
15.52000 33.966
15.54000 31.534
15.56000 20.240
15.58000 26.108
15.60000 23.432
15.62000 23.565
15.64000 25.526
15.66000 28.191
15.68000 23.138
15.70000 19.461
15.72000 20.030
15.74000 16.361
15.76000 23.502
15.78000 26.634
15.80000 28.061
15.82000 30.352
15.84000 26.587
15.86000 19.704
15.88000 22.577
15.90000 15.540
15.92000 25.908
15.94000 22.860
15.96000 18.921
15.98000 22.002
16.00000 23.744
16.02000 20.465
16.04000 19.752
16.06000 22.406
16.08000 18.422
16.10000 15.472
16.12000 16.390
16.14000 15.176
16.16000 16.802
16.18000 18.952
16.20000 25.677
16.22000 11.751
16.24000 9.919
16.26000 18.208
16.28000 21.097
16.30000 20.347
16.32000 24.134
16.34000 25.576
16.36000 25.367
16.38000 19.962
16.40000 15.846
16.42000 18.558
16.44000 18.393
16.46000 21.557
16.48000 29.502
16.50000 32.372
16.52000 20.916
16.54000 9.507
16.56000 3.403
16.58000 4.495
16.60000 11.320
16.62000 17.858
16.64000 17.795
16.66000 19.225
16.68000 15.867
16.70000 11.916
16.72000 21.628
16.74000 24.326
16.76000 21.110
16.78000 19.683
16.80000 24.285
16.82000 19.513
16.84000 22.176
16.86000 21.658
16.88000 13.797
16.90000 6.237
16.92000 10.491
16.94000 19.079
16.96000 12.423
16.98000 13.995
17.00000 18.433
17.02000 13.920
17.04000 13.449
17.06000 15.306
17.08000 10.582
17.10000 10.106
17.12000 5.765
17.14000 15.244
17.16000 18.197
17.18000 14.291
17.20000 15.251
17.22000 18.394
17.24000 18.316
17.26000 7.550
17.28000 6.755
17.30000 9.664
17.32000 9.060
17.34000 3.498
17.36000 9.416
17.38000 13.471
17.40000 12.905
17.42000 12.599
17.44000 10.744
17.46000 7.283
17.48000 11.343
17.50000 17.083
17.52000 8.257
17.54000 12.950
17.56000 7.167
17.58000 11.500
17.60000 4.239
17.62000 8.924
17.64000 12.790
17.66000 10.758
17.68000 14.071
17.70000 13.924
17.72000 11.972
17.74000 10.168
17.76000 4.082
17.78000 3.157
17.80000 9.936
17.82000 10.449
17.84000 4.315
17.86000 -1.761
17.88000 1.473
17.90000 8.655
17.92000 14.565
17.94000 8.860
17.96000 2.635
17.98000 -0.741
18.00000 13.231
18.02000 13.287
18.04000 9.392
18.06000 5.990
18.08000 1.465
18.10000 8.599
18.12000 8.783
18.14000 9.750
18.16000 3.793
18.18000 5.216
18.20000 13.560
18.22000 20.013
18.24000 18.261
18.26000 9.293
18.28000 1.966
18.30000 3.194
18.32000 5.093
18.34000 6.627
18.36000 9.069
18.38000 11.548
18.40000 6.396
18.42000 1.340
18.44000 -2.906
18.46000 -4.352
18.48000 -1.362
18.50000 3.580
18.52000 5.797
18.54000 4.843
18.56000 0.346
18.58000 0.422
18.60000 1.557
18.62000 5.617
18.64000 1.626
18.66000 4.264
18.68000 11.793
18.70000 4.282
18.72000 -0.153
18.74000 -4.341
18.76000 3.949
18.78000 -0.477
18.80000 3.440
18.82000 8.949
18.84000 2.203
18.86000 1.235
18.88000 0.347
18.90000 4.193
18.92000 9.375
18.94000 5.979
18.96000 5.711
18.98000 3.129
19.00000 1.371
19.02000 4.587
19.04000 5.677
19.06000 3.174
19.08000 0.453
19.10000 0.866
19.12000 6.748
19.14000 4.591
19.16000 8.498
19.18000 10.257
19.20000 11.382
19.22000 9.700
19.24000 5.683
19.26000 5.441
19.28000 7.551
19.30000 5.101
19.32000 1.817
19.34000 6.132
19.36000 11.500
19.38000 -0.107
19.40000 5.654
19.42000 3.951
19.44000 1.090
19.46000 3.722
19.48000 10.761
19.50000 9.342
19.52000 4.583
19.54000 1.882
19.56000 1.824
19.58000 3.124
19.60000 4.329
19.62000 5.373
19.64000 4.999
19.66000 4.795
19.68000 6.955
19.70000 8.646
19.72000 10.036
19.74000 10.022
19.76000 6.030
19.78000 10.395
19.80000 4.866
19.82000 4.695
19.84000 14.633
19.86000 12.371
19.88000 7.972
19.90000 -0.087
19.92000 0.176
19.94000 5.665
19.96000 7.036
19.98000 -0.214
20.00000 -4.263
20.02000 -3.693
20.04000 5.561
20.06000 6.061
20.08000 1.174
20.10000 0.944
20.12000 2.197
20.14000 2.484
20.16000 -0.858
20.18000 1.363
20.20000 2.913
20.22000 0.594
20.24000 5.171
20.26000 9.640
20.28000 3.491
20.30000 9.619
20.32000 5.896
20.34000 2.803
20.36000 2.317
20.38000 5.271
20.40000 3.492
20.42000 10.552
20.44000 10.051
20.46000 4.927
20.48000 8.847
20.50000 2.751
20.52000 -1.935
20.54000 3.037
20.56000 9.193
20.58000 10.089
20.60000 5.675
20.62000 0.942
20.64000 1.713
20.66000 5.500
20.68000 3.314
20.70000 0.068
20.72000 -0.524
20.74000 9.558
20.76000 7.551
20.78000 7.008
20.80000 9.280
20.82000 10.474
20.84000 8.074
20.86000 3.579
20.88000 5.330
20.90000 8.856
20.92000 2.471
20.94000 3.256
20.96000 4.337
20.98000 7.501
21.00000 11.677
21.02000 12.821
21.04000 9.989
21.06000 4.033
21.08000 1.350
21.10000 10.201
21.12000 12.213
21.14000 11.617
21.16000 5.473
21.18000 -0.215
21.20000 3.473
21.22000 8.128
21.24000 2.193
21.26000 5.134
21.28000 12.997
21.30000 10.790
21.32000 12.171
21.34000 10.167
21.36000 8.949
21.38000 6.457
21.40000 4.662
21.42000 3.782
21.44000 4.130
21.46000 3.128
21.48000 12.639
21.50000 18.554
21.52000 8.452
21.54000 9.663
21.56000 9.901
21.58000 10.439
21.60000 5.249
21.62000 7.453
21.64000 9.401
21.66000 8.111
21.68000 8.350
21.70000 4.305
21.72000 12.041
21.74000 11.658
21.76000 12.728
21.78000 9.944
21.80000 4.908
21.82000 -4.119
21.84000 8.899
21.86000 9.680
21.88000 6.569
21.90000 4.205
21.92000 4.642
21.94000 4.186
21.96000 8.943
21.98000 5.414
22.00000 1.048
22.02000 2.002
22.04000 4.353
22.06000 13.484
22.08000 13.103
22.10000 10.760
22.12000 12.632
22.14000 11.237
22.16000 11.643
22.18000 13.604
22.20000 6.368
22.22000 7.939
22.24000 10.583
22.26000 14.444
22.28000 11.909
22.30000 7.085
22.32000 12.865
22.34000 4.697
22.36000 6.508
22.38000 10.208
22.40000 8.038
22.42000 0.469
22.44000 -4.093
22.46000 -0.304
22.48000 7.704
22.50000 3.880
22.52000 1.678
22.54000 4.115
22.56000 5.399
22.58000 5.895
22.60000 1.532
22.62000 4.325
22.64000 10.376
22.66000 14.394
22.68000 10.919
22.70000 5.901
22.72000 2.140
22.74000 7.689
22.76000 9.131
22.78000 7.971
22.80000 5.094
22.82000 7.639
22.84000 9.292
22.86000 6.937
22.88000 9.271
22.90000 10.480
22.92000 8.974
22.94000 9.595
22.96000 14.716
22.98000 7.936
23.00000 2.727
23.02000 0.146
23.04000 8.336
23.06000 4.172
23.08000 0.701
23.10000 4.598
23.12000 3.618
23.14000 3.613
23.16000 3.699
23.18000 -0.794
23.20000 4.975
23.22000 7.717
23.24000 0.609
23.26000 -3.128
23.28000 -2.610
23.30000 1.045
23.32000 5.637
23.34000 7.302
23.36000 8.195
23.38000 3.206
23.40000 -0.192
23.42000 4.081
23.44000 6.450
23.46000 -0.999
23.48000 -0.915
23.50000 5.081
23.52000 5.371
23.54000 2.342
23.56000 2.380
23.58000 2.965
23.60000 7.497
23.62000 2.823
23.64000 6.721
23.66000 5.904
23.68000 2.824
23.70000 2.606
23.72000 1.158
23.74000 4.365
23.76000 7.152
23.78000 11.470
23.80000 11.917
23.82000 10.377
23.84000 1.940
23.86000 4.093
23.88000 1.517
23.90000 -1.587
23.92000 1.643
23.94000 2.024
23.96000 6.236
23.98000 12.350
24.00000 8.262
24.02000 6.804
24.04000 5.137
24.06000 4.808
24.08000 7.861
24.10000 1.313
24.12000 4.074
24.14000 -2.675
24.16000 3.083
24.18000 5.291
24.20000 0.114
24.22000 3.913
24.24000 6.259
24.26000 9.187
24.28000 4.153
24.30000 2.171
24.32000 5.848
24.34000 6.997
24.36000 8.185
24.38000 4.019
24.40000 6.573
24.42000 8.480
24.44000 -0.263
24.46000 -4.011
24.48000 1.178
24.50000 7.264
24.52000 7.401
24.54000 5.085
24.56000 6.434
24.58000 12.589
24.60000 3.553
24.62000 -0.676
24.64000 -1.610
24.66000 7.331
24.68000 10.486
24.70000 9.214
24.72000 6.207
24.74000 7.626
24.76000 9.969
24.78000 9.970
24.80000 3.207
24.82000 7.602
24.84000 7.519
24.86000 6.981
24.88000 4.058
24.90000 9.327
24.92000 6.055
24.94000 7.279
24.96000 10.112
24.98000 5.614
25.00000 6.793
25.02000 12.240
25.04000 4.922
25.06000 0.965
25.08000 4.324
25.10000 2.509
25.12000 2.898
25.14000 5.474
25.16000 3.998
25.18000 4.002
25.20000 4.349
25.22000 3.122
25.24000 2.619
25.26000 5.567
25.28000 9.157
25.30000 0.717
25.32000 -0.807
25.34000 0.632
25.36000 3.808
25.38000 6.043
25.40000 9.066
25.42000 8.657
25.44000 2.200
25.46000 -2.123
25.48000 -0.650
25.50000 6.524
25.52000 5.355
25.54000 8.984
25.56000 10.247
25.58000 7.268
25.60000 -2.845
25.62000 -3.957
25.64000 1.475
25.66000 1.402
25.68000 2.915
25.70000 6.434
25.72000 8.975
25.74000 6.274
25.76000 8.396
25.78000 7.967
25.80000 4.803
25.82000 4.592
25.84000 3.898
25.86000 1.216
25.88000 0.176
25.90000 -0.949
25.92000 -0.934
25.94000 8.046
25.96000 13.461
25.98000 7.826
26.00000 1.470
26.02000 1.490
26.04000 1.203
26.06000 1.655
26.08000 5.768
26.10000 4.592
26.12000 7.339
26.14000 6.322
26.16000 3.557
26.18000 4.209
26.20000 4.910
26.22000 0.268
26.24000 0.567
26.26000 4.207
26.28000 5.060
26.30000 1.645
26.32000 2.045
26.34000 3.709
26.36000 4.959
26.38000 5.914
26.40000 -1.041
26.42000 -0.798
26.44000 4.018
26.46000 4.027
26.48000 4.135
26.50000 4.940
26.52000 -1.020
26.54000 3.632
26.56000 5.482
26.58000 2.326
26.60000 -1.485
26.62000 2.526
26.64000 3.794
26.66000 2.668
26.68000 1.374
26.70000 3.356
26.72000 3.742
26.74000 1.678
26.76000 1.314
26.78000 6.602
26.80000 6.209
26.82000 4.043
26.84000 1.045
26.86000 1.249
26.88000 -1.348
26.90000 -2.060
26.92000 -1.259
26.94000 1.449
26.96000 1.946
26.98000 6.460
27.00000 3.362
27.02000 -0.406
27.04000 2.912
27.06000 4.646
27.08000 9.390
27.10000 7.941
27.12000 7.020
27.14000 3.386
27.16000 -1.938
27.18000 -3.194
27.20000 0.605
27.22000 4.776
27.24000 2.669
27.26000 0.623
27.28000 1.879
27.30000 0.367
27.32000 4.300
27.34000 4.881
27.36000 4.062
27.38000 -2.066
27.40000 -0.810
27.42000 -0.092
27.44000 2.575
27.46000 0.882
27.48000 -3.875
27.50000 -1.789
27.52000 4.673
27.54000 7.368
27.56000 7.508
27.58000 3.028
27.60000 2.935
27.62000 7.562
27.64000 6.614
27.66000 2.994
27.68000 2.803
27.70000 -0.880
27.72000 0.219
27.74000 0.362
27.76000 -2.840
27.78000 1.962
27.80000 0.131
27.82000 -2.784
27.84000 -2.942
27.86000 -0.618
27.88000 -2.276
27.90000 -3.858
27.92000 4.476
27.94000 5.344
27.96000 -3.856
27.98000 -1.509
28.00000 8.403
28.02000 6.915
28.04000 3.199
28.06000 11.776
28.08000 4.210
28.10000 2.747
28.12000 1.371
28.14000 1.086
28.16000 1.052
28.18000 1.920
28.20000 3.757
28.22000 6.029
28.24000 5.350
28.26000 3.711
28.28000 1.064
28.30000 0.107
28.32000 0.793
28.34000 2.227
28.36000 2.678
28.38000 -0.558
28.40000 0.391
28.42000 8.130
28.44000 2.101
28.46000 1.256
28.48000 -0.265
28.50000 1.761
28.52000 6.257
28.54000 3.064
28.56000 -2.530
28.58000 -2.858
28.60000 1.250
28.62000 0.351
28.64000 3.832
28.66000 6.235
28.68000 1.601
28.70000 0.717
28.72000 -1.827
28.74000 2.923
28.76000 1.097
28.78000 -3.103
28.80000 -1.121
28.82000 -2.435
28.84000 3.003
28.86000 3.231
28.88000 3.489
28.90000 0.531
28.92000 1.137
28.94000 4.000
28.96000 1.074
28.98000 1.697
29.00000 8.369
29.02000 7.173
29.04000 5.480
29.06000 4.186
29.08000 2.379
29.10000 3.649
29.12000 5.733
29.14000 4.831
29.16000 4.063
29.18000 6.746
29.20000 2.885
29.22000 2.558
29.24000 4.355
29.26000 1.791
29.28000 1.351
29.30000 0.582
29.32000 3.052
29.34000 1.368
29.36000 1.231
29.38000 5.298
29.40000 1.669
29.42000 5.305
29.44000 0.070
29.46000 2.396
29.48000 5.544
29.50000 7.220
29.52000 5.050
29.54000 4.730
29.56000 6.034
29.58000 5.776
29.60000 4.974
29.62000 2.026
29.64000 -0.347
29.66000 -3.754
29.68000 5.262
29.70000 7.055
29.72000 5.396
29.74000 4.334
29.76000 3.210
29.78000 2.996
29.80000 1.912
29.82000 -0.642
29.84000 -3.206
29.86000 -0.041
29.88000 3.324
29.90000 4.504
29.92000 4.511
29.94000 3.886
29.96000 3.409
29.98000 3.505
30.00000 6.564
30.02000 5.111
30.04000 4.503
30.06000 2.503
30.08000 -0.147
30.10000 3.349
30.12000 1.951
30.14000 5.180
30.16000 7.119
30.18000 8.478
30.20000 8.549
30.22000 5.728
30.24000 6.345
30.26000 2.148
30.28000 0.218
30.30000 4.104
30.32000 0.378
30.34000 4.753
30.36000 5.826
30.38000 11.031
30.40000 9.021
30.42000 4.410
30.44000 0.381
30.46000 1.294
30.48000 -0.640
30.50000 0.376
30.52000 0.074
30.54000 -3.710
30.56000 2.900
30.58000 6.186
30.60000 4.426
30.62000 4.644
30.64000 3.938
30.66000 3.311
30.68000 3.307
30.70000 11.035
30.72000 5.653
30.74000 6.671
30.76000 2.922
30.78000 3.758
30.80000 4.516
30.82000 6.940
30.84000 4.915
30.86000 2.007
30.88000 2.450
30.90000 2.063
30.92000 0.820
30.94000 1.629
30.96000 7.214
30.98000 4.109
31.00000 2.094
31.02000 4.464
31.04000 5.241
31.06000 2.368
31.08000 6.376
31.10000 5.647
31.12000 1.658
31.14000 2.996
31.16000 5.642
31.18000 6.963
31.20000 6.932
31.22000 10.444
31.24000 12.175
31.26000 11.944
31.28000 9.486
31.30000 4.362
31.32000 2.475
31.34000 0.724
31.36000 -3.696
31.38000 0.388
31.40000 1.550
31.42000 1.076
31.44000 5.549
31.46000 8.379
31.48000 5.148
31.50000 4.965
31.52000 4.272
31.54000 -0.867
31.56000 3.585
31.58000 3.045
31.60000 3.837
31.62000 4.857
31.64000 6.345
31.66000 3.979
31.68000 -3.314
31.70000 -1.222
31.72000 9.754
31.74000 8.816
31.76000 5.873
31.78000 0.686
31.80000 -1.923
31.82000 -0.678
31.84000 1.558
31.86000 4.963
31.88000 1.004
31.90000 2.759
31.92000 -1.449
31.94000 4.711
31.96000 4.882
31.98000 -1.896
32.00000 -3.042
32.02000 0.991
32.04000 -1.614
32.06000 -2.206
32.08000 -0.037
32.10000 1.585
32.12000 1.495
32.14000 3.049
32.16000 3.207
32.18000 0.612
32.20000 0.004
32.22000 3.349
32.24000 4.302
32.26000 1.826
32.28000 -1.636
32.30000 0.300
32.32000 2.205
32.34000 5.442
32.36000 0.972
32.38000 -0.788
32.40000 1.740
32.42000 0.884
32.44000 1.206
32.46000 -1.163
32.48000 2.106
32.50000 1.198
32.52000 -1.842
32.54000 0.709
32.56000 2.270
32.58000 1.367
32.60000 -3.683
32.62000 6.100
32.64000 6.183
32.66000 3.196
32.68000 1.094
32.70000 2.390
32.72000 0.011
32.74000 -0.752
32.76000 0.601
32.78000 0.119
32.80000 0.903
32.82000 2.605
32.84000 6.202
32.86000 10.532
32.88000 -0.855
32.90000 2.239
32.92000 4.094
32.94000 1.243
32.96000 2.509
32.98000 5.849
33.00000 0.781
33.02000 2.335
33.04000 2.437
33.06000 4.125
33.08000 3.947
33.10000 4.414
33.12000 4.682
33.14000 0.670
33.16000 -3.660
33.18000 0.985
33.20000 -3.211
33.22000 5.462
33.24000 4.873
33.26000 4.283
33.28000 2.665
33.30000 1.834
33.32000 -2.328
33.34000 -3.657
33.36000 4.565
33.38000 5.421
33.40000 2.944
33.42000 3.804
33.44000 5.009
33.46000 3.889
33.48000 1.858
33.50000 4.128
33.52000 3.311
33.54000 1.006
33.56000 1.168
33.58000 4.337
33.60000 0.761
33.62000 1.287
33.64000 4.898
33.66000 2.791
33.68000 2.449
33.70000 6.717
33.72000 10.180
33.74000 4.862
33.76000 -1.659
33.78000 2.320
33.80000 8.345
33.82000 7.466
33.84000 4.293
33.86000 3.753
33.88000 5.200
33.90000 5.648
33.92000 0.913
33.94000 -1.121
33.96000 5.422
33.98000 3.410
34.00000 6.705
34.02000 5.084
34.04000 1.428
34.06000 -0.861
34.08000 -2.674
34.10000 0.386
34.12000 5.857
34.14000 3.647
34.16000 4.888
34.18000 2.527
34.20000 1.480
34.22000 4.180
34.24000 -0.268
34.26000 3.260
34.28000 8.330
34.30000 4.188
34.32000 -0.556
34.34000 2.450
34.36000 3.201
34.38000 4.667
34.40000 1.364
34.42000 1.627
34.44000 -3.657
34.46000 -2.274
34.48000 2.804
34.50000 3.077
34.52000 -0.687
34.54000 2.557
34.56000 -1.145
34.58000 0.563
34.60000 0.209
34.62000 -2.652
34.64000 -2.891
34.66000 3.263
34.68000 -0.838
34.70000 1.377
34.72000 3.735
34.74000 0.529
34.76000 3.293
34.78000 -3.138
34.80000 1.192
34.82000 5.725
34.84000 7.053
34.86000 1.416
34.88000 0.032
34.90000 3.509
34.92000 5.987
34.94000 2.868
34.96000 -2.024
34.98000 -2.895
35.00000 -2.770
35.02000 2.466
35.04000 1.086
35.06000 -2.895
35.08000 -3.176
35.10000 -3.646
35.12000 -0.600
35.14000 2.221
35.16000 2.169
35.18000 -1.781
35.20000 -0.467
35.22000 0.750
35.24000 0.192
35.26000 -1.133
35.28000 0.870
35.30000 -0.467
35.32000 0.181
35.34000 2.374
35.36000 2.696
35.38000 0.719
35.40000 2.804
35.42000 4.196
35.44000 2.701
35.46000 -2.291
35.48000 -3.658
35.50000 3.029
35.52000 7.318
35.54000 -0.333
35.56000 1.659
35.58000 5.555
35.60000 3.347
35.62000 -0.277
35.64000 0.836
35.66000 -0.049
35.68000 -0.055
35.70000 0.511
35.72000 -1.324
35.74000 -0.351
35.76000 8.167
35.78000 12.014
35.80000 10.786
35.82000 3.746
35.84000 -1.814
35.86000 5.730
35.88000 4.998
35.90000 0.077
35.92000 -2.612
35.94000 -3.608
35.96000 -2.967
35.98000 3.447
36.00000 8.787
36.02000 9.208
36.04000 2.251
36.06000 1.378
36.08000 4.256
36.10000 6.193
36.12000 -0.033
36.14000 -3.675
36.16000 -0.968
36.18000 0.668
36.20000 2.369
36.22000 1.416
36.24000 -3.489
36.26000 0.450
36.28000 0.987
36.30000 -3.676
36.32000 -3.093
36.34000 0.534
36.36000 6.689
36.38000 3.611
36.40000 0.360
36.42000 1.774
36.44000 6.078
36.46000 4.773
36.48000 4.928
36.50000 8.883
36.52000 1.678
36.54000 5.025
36.56000 5.510
36.58000 5.066
36.60000 8.489
36.62000 8.329
36.64000 7.235
36.66000 3.359
36.68000 -0.172
36.70000 2.238
36.72000 1.344
36.74000 2.124
36.76000 3.954
36.78000 3.748
36.80000 2.209
36.82000 1.946
36.84000 2.590
36.86000 0.574
36.88000 -1.331
36.90000 -3.686
36.92000 3.699
36.94000 5.585
36.96000 5.944
36.98000 9.815
37.00000 8.680
37.02000 5.849
37.04000 10.408
37.06000 9.073
37.08000 6.195
37.10000 1.863
37.12000 2.671
37.14000 -0.800
37.16000 5.097
37.18000 13.427
37.20000 14.108
37.22000 12.871
37.24000 12.460
37.26000 11.317
37.28000 1.507
37.30000 6.282
37.32000 5.440
37.34000 6.110
37.36000 8.835
37.38000 6.553
37.40000 9.434
37.42000 5.592
37.44000 5.879
37.46000 7.233
37.48000 12.295
37.50000 12.182
37.52000 13.961
37.54000 12.393
37.56000 7.995
37.58000 6.512
37.60000 4.090
37.62000 8.602
37.64000 12.668
37.66000 21.758
37.68000 17.883
37.70000 16.751
37.72000 16.049
37.74000 18.006
37.76000 17.345
37.78000 15.633
37.80000 19.567
37.82000 16.205
37.84000 17.785
37.86000 21.394
37.88000 20.738
37.90000 16.513
37.92000 17.852
37.94000 20.273
37.96000 22.500
37.98000 24.322
38.00000 26.657
38.02000 25.151
38.04000 27.374
38.06000 25.555
38.08000 28.051
38.10000 26.840
38.12000 24.827
38.14000 24.112
38.16000 32.428
38.18000 40.058
38.20000 40.561
38.22000 40.247
38.24000 38.392
38.26000 39.232
38.28000 38.133
38.30000 43.521
38.32000 47.032
38.34000 44.141
38.36000 42.139
38.38000 39.411
38.40000 44.340
38.42000 50.478
38.44000 53.911
38.46000 53.162
38.48000 52.569
38.50000 55.565
38.52000 58.294
38.54000 58.220
38.56000 63.207
38.58000 68.357
38.60000 74.082
38.62000 75.933
38.64000 76.616
38.66000 79.901
38.68000 81.750
38.70000 89.609
38.72000 90.330
38.74000 94.517
38.76000 95.631
38.78000 104.607
38.80000 112.471
38.82000 122.179
38.84000 119.115
38.86000 125.559
38.88000 134.617
38.90000 141.513
38.92000 149.125
38.94000 158.309
38.96000 167.158
38.98000 181.095
39.00000 192.331
39.02000 193.770
39.04000 206.202
39.06000 223.357
39.08000 229.643
39.10000 241.919
39.12000 266.233
39.14000 280.407
39.16000 289.720
39.18000 308.540
39.20000 334.151
39.22000 345.910
39.24000 359.076
39.26000 375.057
39.28000 399.221
39.30000 414.639
39.32000 431.229
39.34000 452.614
39.36000 476.288
39.38000 499.424
39.40000 522.387
39.42000 544.073
39.44000 557.902
39.46000 572.649
39.48000 590.731
39.50000 600.589
39.52000 617.856
39.54000 630.381
39.56000 638.167
39.58000 645.755
39.60000 651.872
39.62000 645.900
39.64000 639.645
39.66000 629.877
39.68000 628.464
39.70000 614.394
39.72000 609.917
39.74000 601.740
39.76000 577.521
39.78000 562.158
39.80000 541.066
39.82000 519.709
39.84000 505.663
39.86000 480.736
39.88000 456.767
39.90000 443.397
39.92000 422.049
39.94000 399.768
39.96000 379.756
39.98000 359.654
40.00000 333.054
40.02000 315.169
40.04000 296.211
40.06000 285.814
40.08000 265.189
40.10000 250.312
40.12000 231.325
40.14000 216.312
40.16000 202.412
40.18000 187.884
40.20000 181.273
40.22000 167.853
40.24000 162.107
40.26000 148.937
40.28000 138.769
40.30000 133.248
40.32000 122.927
40.34000 110.840
40.36000 101.397
40.38000 101.169
40.40000 96.079
40.42000 92.027
40.44000 82.167
40.46000 77.410
40.48000 73.174
40.50000 65.504
40.52000 61.315
40.54000 58.021
40.56000 56.036
40.58000 59.724
40.60000 52.014
40.62000 48.013
40.64000 47.115
40.66000 45.560
40.68000 40.542
40.70000 41.136
40.72000 40.092
40.74000 37.041
40.76000 33.009
40.78000 32.673
40.80000 32.531
40.82000 31.944
40.84000 26.601
40.86000 27.410
40.88000 25.735
40.90000 22.857
40.92000 22.615
40.94000 20.305
40.96000 20.001
40.98000 17.155
41.00000 19.276
41.02000 17.585
41.04000 14.196
41.06000 13.249
41.08000 15.893
41.10000 15.828
41.12000 13.203
41.14000 9.391
41.16000 7.989
41.18000 11.662
41.20000 10.654
41.22000 10.906
41.24000 12.426
41.26000 7.828
41.28000 7.458
41.30000 12.673
41.32000 10.461
41.34000 9.219
41.36000 6.217
41.38000 6.919
41.40000 4.809
41.42000 5.188
41.44000 5.172
41.46000 3.026
41.48000 3.431
41.50000 3.075
41.52000 2.152
41.54000 1.060
41.56000 4.382
41.58000 6.812
41.60000 3.384
41.62000 2.123
41.64000 4.219
41.66000 0.407
41.68000 0.400
41.70000 1.700
41.72000 2.362
41.74000 5.161
41.76000 0.767
41.78000 -1.116
41.80000 1.273
41.82000 4.311
41.84000 2.628
41.86000 0.208
41.88000 3.999
41.90000 3.990
41.92000 2.050
41.94000 1.732
41.96000 0.651
41.98000 -2.010
42.00000 1.758
42.02000 1.649
42.04000 4.410
42.06000 5.745
42.08000 4.286
42.10000 2.113
42.12000 -1.494
42.14000 -2.192
42.16000 -1.368
42.18000 -2.380
42.20000 3.782
42.22000 4.650
42.24000 5.705
42.26000 1.444
42.28000 2.915
42.30000 -2.362
42.32000 -3.315
42.34000 0.626
42.36000 5.673
42.38000 4.203
42.40000 2.344
42.42000 -0.538
42.44000 -0.530
42.46000 -0.968
42.48000 -0.613
42.50000 -0.933
42.52000 3.223
42.54000 6.282
42.56000 5.041
42.58000 0.820
42.60000 -3.266
42.62000 0.442
42.64000 -0.755
42.66000 -3.255
42.68000 2.108
42.70000 4.357
42.72000 0.600
42.74000 2.410
42.76000 3.204
42.78000 4.876
42.80000 1.065
42.82000 0.470
42.84000 3.297
42.86000 0.301
42.88000 -0.850
42.90000 1.622
42.92000 5.724
42.94000 8.207
42.96000 2.701
42.98000 -0.306
43.00000 2.397
43.02000 3.289
43.04000 0.900
43.06000 -2.337
43.08000 0.234
43.10000 2.999
43.12000 2.137
43.14000 3.753
43.16000 2.360
43.18000 5.059
43.20000 2.031
43.22000 0.569
43.24000 0.400
43.26000 1.286
43.28000 0.632
43.30000 2.100
43.32000 4.143
43.34000 5.274
43.36000 1.852
43.38000 -0.806
43.40000 -3.170
43.42000 -1.351
43.44000 2.382
43.46000 1.025
43.48000 2.597
43.50000 3.791
43.52000 3.053
43.54000 1.012
43.56000 0.875
43.58000 -0.902
43.60000 3.656
43.62000 2.311
43.64000 2.075
43.66000 -0.665
43.68000 -0.064
43.70000 0.636
43.72000 7.210
43.74000 7.044
43.76000 0.705
43.78000 -1.258
43.80000 0.425
43.82000 3.143
43.84000 2.045
43.86000 0.083
43.88000 0.586
43.90000 0.835
43.92000 1.801
43.94000 3.849
43.96000 1.882
43.98000 -1.979
44.00000 -3.150
44.02000 -2.346
44.04000 -0.794
44.06000 0.712
44.08000 1.407
44.10000 -1.463
44.12000 -0.681
44.14000 2.625
44.16000 2.323
44.18000 1.652
44.20000 2.439
44.22000 0.762
44.24000 -1.682
44.26000 -0.760
44.28000 1.291
44.30000 -0.716
44.32000 -3.073
44.34000 -2.929
44.36000 -1.852
44.38000 -0.076
44.40000 0.441
44.42000 0.543
44.44000 3.536
44.46000 4.362
44.48000 -0.034
44.50000 -0.351
44.52000 0.727
44.54000 1.872
44.56000 2.631
44.58000 3.284
44.60000 1.788
44.62000 1.474
44.64000 2.960
44.66000 1.934
44.68000 1.649
44.70000 3.255
44.72000 3.580
44.74000 2.565
44.76000 2.325
44.78000 0.120
44.80000 3.412
44.82000 4.079
44.84000 6.193
44.86000 3.967
44.88000 3.502
44.90000 0.277
44.92000 0.955
44.94000 3.362
44.96000 9.033
44.98000 8.235
45.00000 7.258
45.02000 3.322
45.04000 6.305
45.06000 6.486
45.08000 7.838
45.10000 10.463
45.12000 9.524
45.14000 10.293
45.16000 8.646
45.18000 5.318
45.20000 7.672
45.22000 10.779
45.24000 11.680
45.26000 9.386
45.28000 9.457
45.30000 12.127
45.32000 15.800
45.34000 15.571
45.36000 13.740
45.38000 13.998
45.40000 10.853
45.42000 14.796
45.44000 20.396
45.46000 16.379
45.48000 21.326
45.50000 23.190
45.52000 19.868
45.54000 22.989
45.56000 26.030
45.58000 27.586
45.60000 27.796
45.62000 26.601
45.64000 27.910
45.66000 27.424
45.68000 27.823
45.70000 31.565
45.72000 32.573
45.74000 32.250
45.76000 31.702
45.78000 35.631
45.80000 39.380
45.82000 43.307
45.84000 42.612
45.86000 42.447
45.88000 44.276
45.90000 47.064
45.92000 46.363
45.94000 47.437
45.96000 50.284
45.98000 54.327
46.00000 54.211
46.02000 59.050
46.04000 57.139
46.06000 55.481
46.08000 55.384
46.10000 59.590
46.12000 56.516
46.14000 57.194
46.16000 64.106
46.18000 63.839
46.20000 62.106
46.22000 65.600
46.24000 63.971
46.26000 65.027
46.28000 66.969
46.30000 66.369
46.32000 69.011
46.34000 69.208
46.36000 71.608
46.38000 67.032
46.40000 69.150
46.42000 72.479
46.44000 69.701
46.46000 61.001
46.48000 59.918
46.50000 59.825
46.52000 59.281
46.54000 58.245
46.56000 58.107
46.58000 61.802
46.60000 60.066
46.62000 54.524
46.64000 48.984
46.66000 47.650
46.68000 51.382
46.70000 49.484
46.72000 47.882
46.74000 45.326
46.76000 44.578
46.78000 44.014
46.80000 44.210
46.82000 39.490
46.84000 35.074
46.86000 34.023
46.88000 31.578
46.90000 28.359
46.92000 30.599
46.94000 32.546
46.96000 26.654
46.98000 22.446
47.00000 21.211
47.02000 23.068
47.04000 26.167
47.06000 19.225
47.08000 13.487
47.10000 16.641
47.12000 16.685
47.14000 14.908
47.16000 11.991
47.18000 12.619
47.20000 12.619
47.22000 14.159
47.24000 12.857
47.26000 9.691
47.28000 5.758
47.30000 2.137
47.32000 4.473
47.34000 8.793
47.36000 6.598
47.38000 6.276
47.40000 5.980
47.42000 5.360
47.44000 5.623
47.46000 3.720
47.48000 3.836
47.50000 5.616
47.52000 5.686
47.54000 8.530
47.56000 5.805
47.58000 2.916
47.60000 0.081
47.62000 0.604
47.64000 3.734
47.66000 4.639
47.68000 4.245
47.70000 0.641
47.72000 0.198
47.74000 4.745
47.76000 2.259
47.78000 2.788
47.80000 1.604
47.82000 1.348
47.84000 2.370
47.86000 -0.533
47.88000 0.465
47.90000 -1.611
47.92000 1.147
47.94000 0.111
47.96000 0.446
47.98000 0.326
48.00000 4.568
48.02000 2.598
48.04000 2.879
48.06000 0.846
48.08000 3.409
48.10000 -0.454
48.12000 -1.232
48.14000 -0.170
48.16000 0.488
48.18000 0.886
48.20000 2.131
48.22000 0.500
48.24000 -2.687
48.26000 2.930
48.28000 1.794
48.30000 -0.283
48.32000 -1.291
48.34000 -0.662
48.36000 0.467
48.38000 -0.596
48.40000 0.194
48.42000 -1.438
48.44000 -1.631
48.46000 -2.143
48.48000 2.390
48.50000 -0.043
48.52000 -1.691
48.54000 -0.879
48.56000 -0.276
48.58000 2.936
48.60000 1.655
48.62000 -2.020
48.64000 1.194
48.66000 1.277
48.68000 0.225
48.70000 1.536
48.72000 5.030
48.74000 4.000
48.76000 -0.740
48.78000 1.342
48.80000 2.197
48.82000 -2.625
48.84000 -2.624
48.86000 4.983
48.88000 3.409
48.90000 1.396
48.92000 4.090
48.94000 4.280
48.96000 1.807
48.98000 2.020
49.00000 0.507
49.02000 2.508
49.04000 1.969
49.06000 -1.275
49.08000 2.475
49.10000 0.392
49.12000 -1.422
49.14000 -1.092
49.16000 0.192
49.18000 2.828
49.20000 2.916
49.22000 -1.499
49.24000 -1.640
49.26000 -2.436
49.28000 -0.470
49.30000 2.453
49.32000 0.787
49.34000 -1.094
49.36000 -1.189
49.38000 -1.078
49.40000 0.377
49.42000 0.109
49.44000 1.389
49.46000 -0.397
49.48000 3.422
49.50000 1.173
49.52000 -1.079
49.54000 -2.603
49.56000 0.074
49.58000 2.862
49.60000 -0.101
49.62000 3.879
49.64000 5.614
49.66000 0.127
49.68000 -1.051
49.70000 0.094
49.72000 2.602
49.74000 0.316
49.76000 2.543
49.78000 2.781
49.80000 0.878
49.82000 0.777
49.84000 0.256
49.86000 2.116
49.88000 1.153
49.90000 1.025
49.92000 2.433
49.94000 1.471
49.96000 1.712
49.98000 3.307
50.00000 1.634
50.02000 0.759
50.04000 0.301
50.06000 -2.536
50.08000 0.093
50.10000 1.063
50.12000 1.944
50.14000 0.311
50.16000 1.630
50.18000 4.825
50.20000 2.974
50.22000 1.136
50.24000 -0.048
50.26000 1.333
50.28000 3.831
50.30000 6.523
50.32000 7.784
50.34000 1.369
50.36000 -0.005
50.38000 -1.224
50.40000 -1.918
50.42000 1.874
50.44000 1.982
50.46000 0.205
50.48000 0.106
50.50000 -2.536
50.52000 -1.002
50.54000 2.939
50.56000 -1.382
50.58000 -1.806
50.60000 1.118
50.62000 2.969
50.64000 0.825
50.66000 2.072
50.68000 -1.587
50.70000 -0.416
50.72000 3.895
50.74000 7.056
50.76000 4.367
50.78000 0.728
50.80000 2.340
50.82000 -1.556
50.84000 -1.283
50.86000 1.241
50.88000 5.187
50.90000 6.805
50.92000 2.617
50.94000 1.332
50.96000 1.538
50.98000 -1.177
51.00000 -1.886
51.02000 2.781
51.04000 2.536
51.06000 1.327
51.08000 1.440
51.10000 1.224
51.12000 -2.018
51.14000 -0.774
51.16000 -1.512
51.18000 0.173
51.20000 1.546
51.22000 0.243
51.24000 3.367
51.26000 4.389
51.28000 0.473
51.30000 1.382
51.32000 0.935
51.34000 -0.113
51.36000 -2.521
51.38000 1.205
51.40000 0.628
51.42000 -0.127
51.44000 -1.016
51.46000 -0.136
51.48000 4.875
51.50000 1.072
51.52000 -2.513
51.54000 -1.485
51.56000 3.544
51.58000 0.715
51.60000 1.940
51.62000 0.419
51.64000 -1.092
51.66000 -0.569
51.68000 0.962
51.70000 1.079
51.72000 2.592
51.74000 3.102
51.76000 3.123
51.78000 2.100
51.80000 0.038
51.82000 1.234
51.84000 2.479
51.86000 2.905
51.88000 1.078
51.90000 -1.354
51.92000 -2.364
51.94000 -1.911
51.96000 -0.499
51.98000 1.661
52.00000 2.128
52.02000 2.845
52.04000 4.086
52.06000 4.659
52.08000 2.484
52.10000 1.485
52.12000 -1.498
52.14000 -0.502
52.16000 -2.166
52.18000 -0.688
52.20000 1.590
52.22000 0.695
52.24000 2.931
52.26000 -0.466
52.28000 0.089
52.30000 -2.335
52.32000 -1.203
52.34000 2.110
52.36000 0.592
52.38000 -0.433
52.40000 1.679
52.42000 3.400
52.44000 4.784
52.46000 -1.186
52.48000 3.157
52.50000 6.910
52.52000 3.687
52.54000 -1.370
52.56000 -1.721
52.58000 -2.043
52.60000 -1.126
52.62000 -1.437
52.64000 2.430
52.66000 0.991
52.68000 0.548
52.70000 -0.476
52.72000 0.992
52.74000 -2.496
52.76000 0.649
52.78000 2.001
52.80000 -0.105
52.82000 0.775
52.84000 0.524
52.86000 -2.396
52.88000 -2.120
52.90000 0.039
52.92000 1.594
52.94000 0.501
52.96000 -1.326
52.98000 -1.387
53.00000 0.489
53.02000 5.114
53.04000 1.443
53.06000 0.931
53.08000 4.609
53.10000 4.843
53.12000 3.499
53.14000 -0.775
53.16000 1.522
53.18000 4.959
53.20000 5.184
53.22000 1.984
53.24000 2.798
53.26000 1.638
53.28000 3.532
53.30000 3.168
53.32000 1.962
53.34000 -1.400
53.36000 -0.368
53.38000 4.661
53.40000 2.213
53.42000 0.246
53.44000 -0.666
53.46000 -0.284
53.48000 1.348
53.50000 -1.492
53.52000 2.296
53.54000 1.638
53.56000 2.251
53.58000 2.173
53.60000 -0.830
53.62000 2.445
53.64000 2.412
53.66000 5.570
53.68000 6.211
53.70000 4.577
53.72000 4.038
53.74000 4.851
53.76000 -0.948
53.78000 -2.443
53.80000 0.452
53.82000 -0.793
53.84000 5.885
53.86000 3.648
53.88000 7.718
53.90000 5.581
53.92000 2.384
53.94000 3.290
53.96000 3.611
53.98000 1.417
54.00000 2.946
54.02000 1.408
54.04000 -0.625
54.06000 0.205
54.08000 -0.946
54.10000 -0.872
54.12000 -2.255
54.14000 3.351
54.16000 7.835
54.18000 2.410
54.20000 2.857
54.22000 1.881
54.24000 -0.997
54.26000 0.721
54.28000 1.729
54.30000 1.736
54.32000 1.371
54.34000 3.518
54.36000 4.519
54.38000 3.371
54.40000 1.571
54.42000 3.588
54.44000 5.095
54.46000 1.948
54.48000 4.075
54.50000 3.034
54.52000 1.442
54.54000 -2.159
54.56000 2.412
54.58000 4.344
54.60000 -0.711
54.62000 -1.429
54.64000 -1.361
54.66000 1.882
54.68000 -0.856
54.70000 -0.548
54.72000 -1.687
54.74000 -1.271
54.76000 1.492
54.78000 -0.303
54.80000 -1.157
54.82000 -0.080
54.84000 1.213
54.86000 2.059
54.88000 2.105
54.90000 -0.766
54.92000 -1.163
54.94000 -2.042
54.96000 -1.384
54.98000 -1.790
55.00000 -1.095
55.02000 -0.099
55.04000 2.530
55.06000 0.384
55.08000 -2.441
55.10000 -2.185
55.12000 1.469
55.14000 2.954
55.16000 3.003
55.18000 0.228
55.20000 -0.638
55.22000 3.839
55.24000 4.025
55.26000 2.928
55.28000 3.013
55.30000 4.540
55.32000 3.436
55.34000 3.647
55.36000 3.329
55.38000 2.978
55.40000 2.773
55.42000 -1.901
55.44000 0.095
55.46000 0.773
55.48000 1.127
55.50000 2.827
55.52000 1.106
55.54000 1.023
55.56000 4.656
55.58000 2.501
55.60000 1.988
55.62000 0.767
55.64000 -0.990
55.66000 1.792
55.68000 2.809
55.70000 6.549
55.72000 1.613
55.74000 1.537
55.76000 1.023
55.78000 1.959
55.80000 2.871
55.82000 2.606
55.84000 1.750
55.86000 -0.173
55.88000 3.662
55.90000 5.986
55.92000 3.813
55.94000 0.787
55.96000 3.483
55.98000 3.201
56.00000 -2.163
56.02000 -2.390
56.04000 1.106
56.06000 2.248
56.08000 0.995
56.10000 -0.084
56.12000 -1.522
56.14000 -0.043
56.16000 2.885
56.18000 2.430
56.20000 3.880
56.22000 2.154
56.24000 3.312
56.26000 1.699
56.28000 4.070
56.30000 1.887
56.32000 -0.287
56.34000 3.213
56.36000 2.788
56.38000 -0.359
56.40000 -2.384
56.42000 2.352
56.44000 2.829
56.46000 2.130
56.48000 2.207
56.50000 1.398
56.52000 0.943
56.54000 1.960
56.56000 1.294
56.58000 2.893
56.60000 1.776
56.62000 1.229
56.64000 4.368
56.66000 5.603
56.68000 2.435
56.70000 0.645
56.72000 -0.026
56.74000 0.883
56.76000 -0.728
56.78000 -0.676
56.80000 -0.950
56.82000 -0.990
56.84000 -1.271
56.86000 -1.425
56.88000 1.649
56.90000 2.680
56.92000 1.601
56.94000 0.655
56.96000 -0.009
56.98000 3.309
57.00000 4.217
57.02000 1.884
57.04000 1.465
57.06000 0.885
57.08000 5.793
57.10000 5.948
57.12000 -0.050
57.14000 -1.012
57.16000 -0.138
57.18000 -1.353
57.20000 1.096
57.22000 1.928
57.24000 4.679
57.26000 2.722
57.28000 1.431
57.30000 2.831
57.32000 4.771
57.34000 3.591
57.36000 1.461
57.38000 -1.164
57.40000 3.284
57.42000 2.542
57.44000 -0.479
57.46000 2.066
57.48000 -2.247
57.50000 -2.352
57.52000 -0.964
57.54000 -0.030
57.56000 4.061
57.58000 -0.370
57.60000 -0.302
57.62000 1.792
57.64000 2.067
57.66000 -0.155
57.68000 4.150
57.70000 5.229
57.72000 2.289
57.74000 6.282
57.76000 3.869
57.78000 -0.843
57.80000 -0.955
57.82000 0.130
57.84000 -1.480
57.86000 -2.335
57.88000 -0.133
57.90000 2.815
57.92000 3.782
57.94000 3.025
57.96000 1.316
57.98000 -0.655
58.00000 0.538
58.02000 3.962
58.04000 5.887
58.06000 1.765
58.08000 1.385
58.10000 -1.122
58.12000 -1.608
58.14000 3.960
58.16000 7.550
58.18000 2.586
58.20000 1.050
58.22000 2.081
58.24000 1.522
58.26000 0.790
58.28000 2.488
58.30000 1.177
58.32000 2.133
58.34000 0.299
58.36000 1.674
58.38000 3.999
58.40000 4.751
58.42000 9.940
58.44000 6.597
58.46000 3.359
58.48000 2.336
58.50000 1.371
58.52000 -1.818
58.54000 0.751
58.56000 1.665
58.58000 -0.336
58.60000 0.767
58.62000 2.283
58.64000 0.935
58.66000 2.200
58.68000 -1.870
58.70000 -0.317
58.72000 3.216
58.74000 1.888
58.76000 1.367
58.78000 1.739
58.80000 0.785
58.82000 2.269
58.84000 2.244
58.86000 2.982
58.88000 2.705
58.90000 1.957
58.92000 1.273
58.94000 5.040
58.96000 5.687
58.98000 4.877
59.00000 8.746
59.02000 6.909
59.04000 5.085
59.06000 1.436
59.08000 4.152
59.10000 3.687
59.12000 -2.275
59.14000 -1.991
59.16000 1.554
59.18000 2.570
59.20000 5.496
59.22000 7.159
59.24000 9.316
59.26000 6.587
59.28000 4.175
59.30000 1.441
59.32000 2.386
59.34000 1.665
59.36000 1.874
59.38000 0.900
59.40000 3.551
59.42000 3.289
59.44000 1.630
59.46000 3.372
59.48000 0.730
59.50000 0.782
59.52000 2.289
59.54000 3.590
59.56000 0.576
59.58000 3.372
59.60000 0.894
59.62000 1.738
59.64000 2.244
59.66000 1.049
59.68000 3.504
59.70000 6.230
59.72000 5.899
59.74000 2.355
59.76000 1.836
59.78000 0.731
59.80000 1.192
59.82000 2.238
59.84000 5.982
59.86000 2.509
59.88000 5.566
59.90000 2.459
59.92000 1.984
59.94000 -1.493
59.96000 1.108
59.98000 0.692
60.00000 4.170
60.02000 1.086
60.04000 -0.408
60.06000 0.855
60.08000 2.177
60.10000 -0.650
60.12000 0.559
60.14000 0.265
60.16000 1.437
60.18000 2.392
60.20000 0.035
60.22000 1.574
60.24000 2.633
60.26000 1.528
60.28000 2.845
60.30000 0.500
60.32000 -0.775
60.34000 2.735
60.36000 1.127
60.38000 0.659
60.40000 -0.378
60.42000 -0.594
60.44000 -2.281
60.46000 -2.092
60.48000 1.411
60.50000 -0.321
60.52000 -0.592
60.54000 0.420
60.56000 2.955
60.58000 1.142
60.60000 3.668
60.62000 1.333
60.64000 -0.485
60.66000 2.013
60.68000 0.736
60.70000 1.146
60.72000 1.289
60.74000 0.322
60.76000 2.430
60.78000 3.062
60.80000 1.360
60.82000 1.866
60.84000 1.669
60.86000 3.950
60.88000 1.917
60.90000 0.907
60.92000 0.422
60.94000 1.028
60.96000 -0.523
60.98000 -0.038
61.00000 1.239
61.02000 0.978
61.04000 -0.315
61.06000 -2.111
61.08000 -0.211
61.10000 1.281
61.12000 3.172
61.14000 2.024
61.16000 -0.313
61.18000 -0.143
61.20000 -0.617
61.22000 0.170
61.24000 2.871
61.26000 3.967
61.28000 2.617
61.30000 4.695
61.32000 1.729
61.34000 2.223
61.36000 -1.416
61.38000 0.413
61.40000 1.659
61.42000 -0.898
61.44000 1.321
61.46000 1.399
61.48000 3.622
61.50000 4.922
61.52000 1.067
61.54000 -2.234
61.56000 2.298
61.58000 6.030
61.60000 2.867
61.62000 0.377
61.64000 1.324
61.66000 1.271
61.68000 4.907
61.70000 2.058
61.72000 1.732
61.74000 2.671
61.76000 1.817
61.78000 1.839
61.80000 1.069
61.82000 2.894
61.84000 0.245
61.86000 -1.068
61.88000 -1.988
61.90000 0.170
61.92000 4.266
61.94000 5.243
61.96000 1.834
61.98000 -2.243
62.00000 0.576
62.02000 2.591
62.04000 3.509
62.06000 0.586
62.08000 2.816
62.10000 2.056
62.12000 0.217
62.14000 -0.852
62.16000 -0.055
62.18000 2.352
62.20000 5.491
62.22000 2.588
62.24000 0.749
62.26000 -0.427
62.28000 4.415
62.30000 6.156
62.32000 -0.109
62.34000 1.927
62.36000 2.640
62.38000 1.132
62.40000 -2.012
62.42000 -1.878
62.44000 0.457
62.46000 -0.985
62.48000 -1.814
62.50000 1.066
62.52000 -0.812
62.54000 0.076
62.56000 1.719
62.58000 -0.568
62.60000 -0.031
62.62000 1.053
62.64000 2.244
62.66000 2.671
62.68000 4.066
62.70000 3.119
62.72000 1.214
62.74000 2.068
62.76000 1.495
62.78000 0.662
62.80000 2.042
62.82000 -0.384
62.84000 -1.244
62.86000 3.333
62.88000 4.250
62.90000 2.636
62.92000 1.250
62.94000 6.137
62.96000 3.249
62.98000 1.277
63.00000 1.483
63.02000 -1.061
63.04000 -2.206
63.06000 0.131
63.08000 2.647
63.10000 1.054
63.12000 1.766
63.14000 1.737
63.16000 3.941
63.18000 2.067
63.20000 1.147
63.22000 2.130
63.24000 4.725
63.26000 3.026
63.28000 1.911
63.30000 3.050
63.32000 2.917
63.34000 2.636
63.36000 3.616
63.38000 1.782
63.40000 2.409
63.42000 4.304
63.44000 3.308
63.46000 0.592
63.48000 3.643
63.50000 3.339
63.52000 0.447
63.54000 1.574
63.56000 2.675
63.58000 3.623
63.60000 3.861
63.62000 1.613
63.64000 -0.072
63.66000 -1.875
63.68000 -2.212
63.70000 -1.045
63.72000 1.520
63.74000 3.102
63.76000 1.430
63.78000 0.756
63.80000 2.342
63.82000 1.114
63.84000 1.261
63.86000 1.397
63.88000 2.932
63.90000 2.067
63.92000 1.467
63.94000 -0.511
63.96000 3.893
63.98000 3.929
64.00000 3.066
64.02000 2.929
64.04000 2.296
64.06000 -1.429
64.08000 1.697
64.10000 2.170
64.12000 1.495
64.14000 0.791
64.16000 1.906
64.18000 0.987
64.20000 -0.427
64.22000 0.045
64.24000 -0.191
64.26000 0.990
64.28000 2.012
64.30000 1.032
64.32000 -0.949
64.34000 -0.661
64.36000 0.841
64.38000 3.513
64.40000 0.747
64.42000 -0.171
64.44000 -1.801
64.46000 -0.178
64.48000 2.112
64.50000 -1.342
64.52000 -0.826
64.54000 0.667
64.56000 2.842
64.58000 4.231
64.60000 2.177
64.62000 0.692
64.64000 3.941
64.66000 3.244
64.68000 -1.862
64.70000 -0.885
64.72000 -1.480
64.74000 -0.596
64.76000 1.241
64.78000 -0.998
64.80000 -1.017
64.82000 2.308
64.84000 1.604
64.86000 3.253
64.88000 1.071
64.90000 -0.677
64.92000 1.020
64.94000 -0.518
64.96000 2.648
64.98000 4.019
65.00000 1.581
65.02000 1.465
65.04000 4.453
65.06000 2.996
65.08000 1.740
65.10000 0.821
65.12000 0.152
65.14000 -0.070
65.16000 1.176
65.18000 2.408
65.20000 0.921
65.22000 1.281
65.24000 1.637
65.26000 -2.179
65.28000 -2.268
65.30000 -0.617
65.32000 -0.305
65.34000 -1.514
65.36000 1.441
65.38000 2.249
65.40000 0.589
65.42000 2.826
65.44000 2.545
65.46000 0.683
65.48000 2.560
65.50000 2.752
65.52000 1.842
65.54000 0.189
65.56000 -2.268
65.58000 1.035
65.60000 1.742
65.62000 1.062
65.64000 -0.465
65.66000 -0.607
65.68000 -0.275
65.70000 -0.714
65.72000 3.446
65.74000 0.114
65.76000 0.510
65.78000 1.348
65.80000 0.620
65.82000 1.192
65.84000 2.260
65.86000 1.326
65.88000 -1.485
65.90000 -0.761
65.92000 -1.293
65.94000 1.732
65.96000 2.893
65.98000 3.196
66.00000 1.175
66.02000 0.810
66.04000 0.221
66.06000 2.621
66.08000 0.702
66.10000 -1.348
66.12000 -0.507
66.14000 0.856
66.16000 0.914
66.18000 -0.018
66.20000 1.894
66.22000 0.256
66.24000 0.128
66.26000 1.932
66.28000 1.184
66.30000 3.293
66.32000 2.887
66.34000 4.354
66.36000 4.255
66.38000 2.111
66.40000 0.971
66.42000 2.479
66.44000 1.690
66.46000 0.131
66.48000 1.063
66.50000 1.720
66.52000 3.552
66.54000 -1.037
66.56000 1.919
66.58000 6.587
66.60000 4.236
66.62000 1.437
66.64000 2.348
66.66000 3.169
66.68000 3.901
66.70000 4.169
66.72000 4.300
66.74000 5.066
66.76000 4.501
66.78000 9.003
66.80000 6.824
66.82000 8.422
66.84000 6.842
66.86000 4.552
66.88000 6.067
66.90000 6.114
66.92000 8.672
66.94000 7.246
66.96000 8.993
66.98000 6.952
67.00000 6.332
67.02000 6.135
67.04000 8.371
67.06000 8.820
67.08000 10.785
67.10000 9.941
67.12000 9.381
67.14000 13.396
67.16000 10.507
67.18000 9.603
67.20000 11.350
67.22000 12.711
67.24000 10.021
67.26000 13.748
67.28000 15.431
67.30000 13.259
67.32000 14.762
67.34000 14.679
67.36000 15.322
67.38000 16.369
67.40000 14.834
67.42000 15.114
67.44000 15.961
67.46000 17.972
67.48000 13.926
67.50000 10.951
67.52000 10.848
67.54000 12.927
67.56000 12.858
67.58000 13.098
67.60000 12.366
67.62000 10.906
67.64000 11.584
67.66000 10.060
67.68000 11.078
67.70000 12.088
67.72000 11.493
67.74000 8.116
67.76000 8.754
67.78000 11.228
67.80000 10.267
67.82000 8.592
67.84000 6.408
67.86000 9.111
67.88000 6.076
67.90000 4.269
67.92000 5.197
67.94000 9.039
67.96000 9.503
67.98000 7.918
68.00000 5.196
68.02000 5.077
68.04000 6.980
68.06000 7.202
68.08000 2.237
68.10000 -0.685
68.12000 2.568
68.14000 4.021
68.16000 4.855
68.18000 3.971
68.20000 3.497
68.22000 4.803
68.24000 1.186
68.26000 2.157
68.28000 2.661
68.30000 1.393
68.32000 2.103
68.34000 1.654
68.36000 3.423
68.38000 3.027
68.40000 2.603
68.42000 0.885
68.44000 -2.259
68.46000 2.107
68.48000 1.273
68.50000 1.174
68.52000 1.956
68.54000 3.022
68.56000 5.560
68.58000 3.321
68.60000 1.297
68.62000 -1.157
68.64000 0.511
68.66000 -0.312
68.68000 1.331
68.70000 1.036
68.72000 2.197
68.74000 0.963
68.76000 -1.409
68.78000 -0.757
68.80000 0.891
68.82000 0.885
68.84000 1.989
68.86000 1.237
68.88000 -2.225
68.90000 -1.458
68.92000 -1.395
68.94000 -0.014
68.96000 -0.151
68.98000 0.641
69.00000 0.500
69.02000 2.896
69.04000 1.303
69.06000 -0.630
69.08000 1.160
69.10000 2.895
69.12000 1.576
69.14000 0.624
69.16000 -0.843
69.18000 0.131
69.20000 3.235
69.22000 2.993
69.24000 1.577
69.26000 0.827
69.28000 -0.815
69.30000 -0.212
69.32000 2.315
69.34000 0.796
69.36000 3.012
69.38000 -0.146
69.40000 0.194
69.42000 -2.184
69.44000 0.614
69.46000 3.633
69.48000 0.209
69.50000 0.995
69.52000 1.436
69.54000 -0.557
69.56000 -0.250
69.58000 -1.772
69.60000 1.435
69.62000 3.260
69.64000 2.176
69.66000 2.118
69.68000 -0.704
69.70000 -0.486
69.72000 -0.847
69.74000 0.782
69.76000 2.979
69.78000 3.094
69.80000 1.522
69.82000 3.587
69.84000 -1.253
69.86000 0.763
69.88000 0.459
69.90000 2.208
69.92000 4.360
69.94000 2.609
69.96000 1.797
69.98000 3.734
70.00000 2.273
70.02000 1.139
70.04000 -2.157
70.06000 1.417
70.08000 2.083
70.10000 -0.172
70.12000 2.440
70.14000 -0.753
70.16000 1.295
70.18000 0.687
70.20000 2.051
70.22000 -1.589
70.24000 -2.155
70.26000 0.752
70.28000 4.447
70.30000 2.652
70.32000 3.309
70.34000 1.565
70.36000 -0.852
70.38000 -1.500
70.40000 -0.126
70.42000 2.726
70.44000 0.868
70.46000 0.552
70.48000 1.818
70.50000 4.066
70.52000 1.739
70.54000 -1.030
70.56000 -0.030
70.58000 2.524
70.60000 3.074
70.62000 1.750
70.64000 0.308
70.66000 1.106
70.68000 -0.501
70.70000 2.023
70.72000 2.372
70.74000 0.921
70.76000 0.105
70.78000 2.070
70.80000 4.086
70.82000 4.451
70.84000 -0.594
70.86000 -2.159
70.88000 -1.592
70.90000 0.557
70.92000 3.620
70.94000 4.262
70.96000 1.343
70.98000 -0.666
71.00000 0.280
71.02000 1.574
71.04000 0.353
71.06000 1.925
71.08000 0.046
71.10000 -0.909
71.12000 0.266
71.14000 -0.736
71.16000 -2.153
71.18000 2.988
71.20000 -0.481
71.22000 -1.861
71.24000 -1.729
71.26000 -0.066
71.28000 -0.039
71.30000 -1.000
71.32000 0.034
71.34000 -2.048
71.36000 2.985
71.38000 2.157
71.40000 0.822
71.42000 1.494
71.44000 1.533
71.46000 0.511
71.48000 2.665
71.50000 0.555
71.52000 -0.450
71.54000 -1.697
71.56000 -0.376
71.58000 0.887
71.60000 2.812
71.62000 1.364
71.64000 2.949
71.66000 1.527
71.68000 0.873
71.70000 -0.109
71.72000 -2.025
71.74000 -0.742
71.76000 -1.168
71.78000 -1.147
71.80000 -1.769
71.82000 0.056
71.84000 -2.129
71.86000 -1.856
71.88000 -0.437
71.90000 1.253
71.92000 1.055
71.94000 0.662
71.96000 -0.793
71.98000 -0.267
72.00000 0.419
72.02000 -1.508
72.04000 -0.377
72.06000 -1.457
72.08000 1.111
72.10000 1.285
72.12000 -0.697
72.14000 1.383
72.16000 2.262
72.18000 0.567
72.20000 1.940
72.22000 0.042
72.24000 2.043
72.26000 0.969
72.28000 2.890
72.30000 2.524
72.32000 2.476
72.34000 3.448
72.36000 4.594
72.38000 1.887
72.40000 2.573
72.42000 3.896
72.44000 6.815
72.46000 3.160
72.48000 -2.075
72.50000 -0.635
72.52000 1.798
72.54000 5.427
72.56000 4.132
72.58000 3.110
72.60000 2.764
72.62000 6.211
72.64000 0.690
72.66000 0.139
72.68000 -1.222
72.70000 1.696
72.72000 4.432
72.74000 1.824
72.76000 2.152
72.78000 5.564
72.80000 5.232
72.82000 2.856
72.84000 2.095
72.86000 4.644
72.88000 5.700
72.90000 3.134
72.92000 5.565
72.94000 2.376
72.96000 -2.021
72.98000 1.408
73.00000 2.082
73.02000 1.626
73.04000 3.736
73.06000 2.392
73.08000 3.025
73.10000 3.200
73.12000 1.372
73.14000 -0.169
73.16000 2.632
73.18000 2.063
73.20000 3.296
73.22000 1.279
73.24000 -0.509
73.26000 2.016
73.28000 4.010
73.30000 5.532
73.32000 4.483
73.34000 3.988
73.36000 2.087
73.38000 2.515
73.40000 1.526
73.42000 2.402
73.44000 1.699
73.46000 2.669
73.48000 4.010
73.50000 1.400
73.52000 0.346
73.54000 0.223
73.56000 2.542
73.58000 5.842
73.60000 4.196
73.62000 5.695
73.64000 4.207
73.66000 -0.867
73.68000 -1.915
73.70000 0.642
73.72000 1.683
73.74000 2.586
73.76000 8.011
73.78000 4.447
73.80000 0.921
73.82000 0.137
73.84000 0.203
73.86000 0.257
73.88000 2.705
73.90000 4.649
73.92000 0.677
73.94000 -0.699
73.96000 -0.704
73.98000 2.111
74.00000 1.497
74.02000 2.880
74.04000 5.290
74.06000 0.930
74.08000 2.022
74.10000 0.842
74.12000 1.328
74.14000 0.090
74.16000 4.081
74.18000 4.167
74.20000 2.904
74.22000 1.475
74.24000 -2.052
74.26000 3.526
74.28000 5.147
74.30000 3.507
74.32000 4.791
74.34000 1.047
74.36000 -0.644
74.38000 2.345
74.40000 4.028
74.42000 3.839
74.44000 3.812
74.46000 2.928
74.48000 0.895
74.50000 -0.338
74.52000 -1.809
74.54000 0.672
74.56000 1.298
74.58000 0.882
74.60000 0.919
74.62000 -0.845
74.64000 -0.415
74.66000 0.069
74.68000 -0.070
74.70000 0.682
74.72000 3.560
74.74000 3.816
74.76000 0.124
74.78000 0.822
74.80000 2.128
74.82000 0.921
74.84000 -0.130
74.86000 2.010
74.88000 1.930
74.90000 3.058
74.92000 1.569
74.94000 -1.285
74.96000 0.683
74.98000 2.393
75.00000 2.322
75.02000 -0.131
75.04000 1.322
75.06000 0.183
75.08000 -2.014
75.10000 -0.448
75.12000 1.286
75.14000 -0.248
75.16000 0.004
75.18000 3.805
75.20000 0.713
75.22000 0.385
75.24000 3.702
75.26000 2.646
75.28000 0.823
75.30000 1.739
75.32000 2.144
75.34000 4.469
75.36000 2.644
75.38000 4.460
75.40000 4.587
75.42000 1.278
75.44000 2.098
75.46000 -1.426
75.48000 -2.098
75.50000 -1.597
75.52000 -0.243
75.54000 3.078
75.56000 2.528
75.58000 0.501
75.60000 1.125
75.62000 4.012
75.64000 3.498
75.66000 0.007
75.68000 -1.643
75.70000 0.421
75.72000 1.758
75.74000 3.336
75.76000 3.651
75.78000 0.001
75.80000 -1.381
75.82000 -0.399
75.84000 -1.764
75.86000 -1.277
75.88000 -1.153
75.90000 2.649
75.92000 5.239
75.94000 1.824
75.96000 -0.826
75.98000 0.657
76.00000 3.063
76.02000 2.560
76.04000 0.424
76.06000 0.623
76.08000 -1.160
76.10000 1.122
76.12000 0.925
76.14000 0.405
76.16000 -0.864
76.18000 0.446
76.20000 0.172
76.22000 -1.268
76.24000 3.504
76.26000 6.207
76.28000 1.928
76.30000 -0.362
76.32000 2.878
76.34000 4.547
76.36000 1.612
76.38000 1.306
76.40000 1.622
76.42000 -1.815
76.44000 -0.463
76.46000 0.903
76.48000 4.507
76.50000 3.844
76.52000 0.046
76.54000 -0.870
76.56000 1.608
76.58000 3.812
76.60000 1.629
76.62000 0.808
76.64000 1.726
76.66000 3.114
76.68000 -2.087
76.70000 -0.812
76.72000 1.990
76.74000 2.287
76.76000 0.873
76.78000 1.126
76.80000 4.141
76.82000 2.740
76.84000 2.984
76.86000 3.440
76.88000 3.999
76.90000 3.604
76.92000 2.681
76.94000 2.197
76.96000 0.986
76.98000 3.244
77.00000 3.307
77.02000 2.602
77.04000 0.384
77.06000 1.077
77.08000 0.129
77.10000 2.348
77.12000 1.196
77.14000 -0.842
77.16000 3.489
77.18000 4.497
77.20000 1.433
77.22000 -2.107
77.24000 1.867
77.26000 1.370
77.28000 1.525
77.30000 4.425
77.32000 1.197
77.34000 -1.898
77.36000 0.763
77.38000 4.970
77.40000 6.133
77.42000 5.028
77.44000 2.315
77.46000 2.530
77.48000 2.609
77.50000 1.715
77.52000 -0.966
77.54000 2.905
77.56000 3.040
77.58000 3.392
77.60000 2.400
77.62000 1.474
77.64000 0.252
77.66000 -0.603
77.68000 -1.010
77.70000 0.283
77.72000 4.929
77.74000 1.831
77.76000 2.753
77.78000 2.833
77.80000 -0.869
77.82000 -0.611
77.84000 0.977
77.86000 1.907
77.88000 2.567
77.90000 5.651
77.92000 2.798
77.94000 5.418
77.96000 0.685
77.98000 -2.145
78.00000 1.467
78.02000 2.100
78.04000 -1.698
78.06000 -2.047
78.08000 3.581
78.10000 4.285
78.12000 2.198
78.14000 2.193
78.16000 2.295
78.18000 1.776
78.20000 0.704
78.22000 1.068
78.24000 5.375
78.26000 3.358
78.28000 1.931
78.30000 4.971
78.32000 1.944
78.34000 -0.589
78.36000 0.762
78.38000 2.595
78.40000 3.616
78.42000 2.997
78.44000 0.765
78.46000 -1.062
78.48000 -0.343
78.50000 -1.004
78.52000 0.010
78.54000 -1.191
78.56000 -0.672
78.58000 2.080
78.60000 2.670
78.62000 -0.213
78.64000 2.006
78.66000 0.999
78.68000 1.682
78.70000 3.222
78.72000 3.208
78.74000 -0.860
78.76000 0.697
78.78000 2.582
78.80000 -2.177
78.82000 -1.763
78.84000 2.694
78.86000 3.001
78.88000 0.005
78.90000 -1.615
78.92000 3.440
78.94000 2.503
78.96000 4.032
78.98000 3.602
79.00000 4.383
79.02000 6.657
79.04000 3.755
79.06000 0.690
79.08000 1.360
79.10000 3.187
79.12000 3.897
79.14000 4.077
79.16000 0.149
79.18000 0.669
79.20000 4.250
79.22000 -0.311
79.24000 -1.807
79.26000 -1.172
79.28000 1.771
79.30000 3.901
79.32000 2.617
79.34000 3.466
79.36000 3.388
79.38000 5.535
79.40000 -2.211
79.42000 1.233
79.44000 2.925
79.46000 -0.357
79.48000 2.605
79.50000 6.624
79.52000 5.598
79.54000 2.441
79.56000 0.319
79.58000 2.458
79.60000 3.207
79.62000 1.936
79.64000 4.696
79.66000 1.321
79.68000 -1.629
79.70000 2.724
79.72000 2.247
79.74000 1.443
79.76000 0.867
79.78000 1.565
79.80000 2.996
79.82000 -0.499
79.84000 -1.041
79.86000 0.360
79.88000 2.376
79.90000 2.504
79.92000 1.740
79.94000 -0.458
79.96000 1.467
79.98000 1.251
80.00000 3.929
80.02000 3.428
80.04000 4.792
80.06000 8.173
80.08000 9.123
80.10000 7.305
80.12000 4.864
80.14000 3.070
80.16000 4.379
80.18000 5.935
80.20000 8.041
80.22000 7.267
80.24000 5.960
80.26000 6.659
80.28000 7.312
80.30000 0.651
80.32000 1.930
80.34000 3.060
80.36000 4.211
80.38000 7.351
80.40000 9.022
80.42000 8.121
80.44000 7.915
80.46000 6.367
80.48000 7.461
80.50000 5.836
80.52000 6.015
80.54000 8.148
80.56000 9.066
80.58000 12.861
80.60000 11.601
80.62000 12.919
80.64000 13.337
80.66000 13.512
80.68000 11.629
80.70000 10.445
80.72000 11.232
80.74000 14.655
80.76000 16.639
80.78000 16.102
80.80000 13.356
80.82000 14.132
80.84000 13.847
80.86000 11.217
80.88000 15.951
80.90000 12.858
80.92000 13.368
80.94000 11.700
80.96000 12.455
80.98000 16.046
81.00000 18.928
81.02000 20.527
81.04000 21.670
81.06000 19.869
81.08000 20.232
81.10000 20.116
81.12000 22.768
81.14000 26.221
81.16000 23.198
81.18000 20.535
81.20000 20.834
81.22000 26.824
81.24000 28.945
81.26000 25.785
81.28000 21.537
81.30000 21.665
81.32000 20.360
81.34000 23.969
81.36000 23.375
81.38000 22.843
81.40000 18.441
81.42000 21.527
81.44000 24.754
81.46000 25.296
81.48000 22.410
81.50000 21.498
81.52000 20.347
81.54000 21.534
81.56000 19.186
81.58000 17.161
81.60000 18.587
81.62000 21.670
81.64000 23.745
81.66000 23.861
81.68000 19.017
81.70000 17.040
81.72000 22.148
81.74000 18.542
81.76000 17.412
81.78000 18.795
81.80000 17.873
81.82000 15.866
81.84000 16.564
81.86000 16.651
81.88000 17.274
81.90000 14.529
81.92000 14.795
81.94000 18.044
81.96000 14.399
81.98000 15.121
82.00000 15.037
82.02000 14.324
82.04000 14.121
82.06000 11.860
82.08000 13.521
82.10000 11.486
82.12000 11.858
82.14000 9.458
82.16000 5.592
82.18000 4.510
82.20000 4.016
82.22000 4.052
82.24000 10.708
82.26000 11.140
82.28000 11.364
82.30000 8.384
82.32000 6.116
82.34000 8.087
82.36000 8.593
82.38000 6.476
82.40000 6.631
82.42000 5.726
82.44000 4.667
82.46000 3.157
82.48000 2.925
82.50000 5.393
82.52000 4.726
82.54000 2.146
82.56000 0.432
82.58000 0.630
82.60000 2.109
82.62000 1.948
82.64000 0.981
82.66000 0.327
82.68000 1.640
82.70000 3.939
82.72000 0.180
82.74000 0.197
82.76000 -2.250
82.78000 -0.790
82.80000 3.978
82.82000 5.833
82.84000 0.764
82.86000 -1.563
82.88000 0.716
82.90000 -1.826
82.92000 -1.989
82.94000 -0.060
82.96000 1.966
82.98000 0.483
83.00000 3.405
83.02000 -0.850
83.04000 0.711
83.06000 1.483
83.08000 3.279
83.10000 3.205
83.12000 3.060
83.14000 2.725
83.16000 3.552
83.18000 3.630
83.20000 1.345
83.22000 -2.261
83.24000 5.363
83.26000 3.794
83.28000 2.642
83.30000 5.192
83.32000 3.114
83.34000 3.880
83.36000 4.179
83.38000 3.191
83.40000 -1.039
83.42000 -2.261
83.44000 -1.012
83.46000 0.703
83.48000 -1.088
83.50000 -0.745
83.52000 -2.223
83.54000 -1.451
83.56000 1.000
83.58000 3.526
83.60000 1.964
83.62000 -0.954
83.64000 -0.560
83.66000 1.744
83.68000 1.511
83.70000 2.251
83.72000 1.551
83.74000 1.617
83.76000 -1.629
83.78000 -2.029
83.80000 -1.876
83.82000 2.432
83.84000 1.349
83.86000 0.243
83.88000 -1.241
83.90000 2.162
83.92000 3.914
83.94000 3.161
83.96000 -2.269
83.98000 -0.829
84.00000 0.662
84.02000 -0.435
84.04000 4.382
84.06000 2.035
84.08000 0.985
84.10000 0.255
84.12000 3.353
84.14000 4.167
84.16000 -0.190
84.18000 2.249
84.20000 4.253
84.22000 3.487
84.24000 6.584
84.26000 5.301
84.28000 3.690
84.30000 8.675
84.32000 7.056
84.34000 5.707
84.36000 4.892
84.38000 7.990
84.40000 8.670
84.42000 8.610
84.44000 8.903
84.46000 8.277
84.48000 4.794
84.50000 6.643
84.52000 10.522
84.54000 8.299
84.56000 9.370
84.58000 13.854
84.60000 13.847
84.62000 12.014
84.64000 12.246
84.66000 13.259
84.68000 10.576
84.70000 11.344
84.72000 10.119
84.74000 11.858
84.76000 13.534
84.78000 15.749
84.80000 15.407
84.82000 15.063
84.84000 13.685
84.86000 15.223
84.88000 16.115
84.90000 15.297
84.92000 14.265
84.94000 14.279
84.96000 18.028
84.98000 22.102
85.00000 20.335
85.02000 18.895
85.04000 19.996
85.06000 25.835
85.08000 19.028
85.10000 19.984
85.12000 19.980
85.14000 23.325
85.16000 20.577
85.18000 24.411
85.20000 24.558
85.22000 20.416
85.24000 23.874
85.26000 28.352
85.28000 22.740
85.30000 19.122
85.32000 19.142
85.34000 21.342
85.36000 21.045
85.38000 19.350
85.40000 20.385
85.42000 22.659
85.44000 23.099
85.46000 16.574
85.48000 15.965
85.50000 17.857
85.52000 17.513
85.54000 16.579
85.56000 17.494
85.58000 20.171
85.60000 18.713
85.62000 15.394
85.64000 14.900
85.66000 16.417
85.68000 17.066
85.70000 16.956
85.72000 16.530
85.74000 17.606
85.76000 17.963
85.78000 15.903
85.80000 17.492
85.82000 15.287
85.84000 14.830
85.86000 14.708
85.88000 13.415
85.90000 9.319
85.92000 10.930
85.94000 8.738
85.96000 10.188
85.98000 11.453
86.00000 8.283
86.02000 12.925
86.04000 13.518
86.06000 11.188
86.08000 5.502
86.10000 7.574
86.12000 5.409
86.14000 8.437
86.16000 7.391
86.18000 8.255
86.20000 8.438
86.22000 7.723
86.24000 4.889
86.26000 2.579
86.28000 1.800
86.30000 2.637
86.32000 3.986
86.34000 1.107
86.36000 1.083
86.38000 2.825
86.40000 3.491
86.42000 3.608
86.44000 4.166
86.46000 0.714
86.48000 -0.845
86.50000 0.272
86.52000 2.207
86.54000 3.298
86.56000 2.147
86.58000 0.915
86.60000 1.420
86.62000 0.903
86.64000 1.036
86.66000 1.770
86.68000 -0.311
86.70000 2.212
86.72000 2.373
86.74000 0.942
86.76000 -1.704
86.78000 0.304
86.80000 2.529
86.82000 -0.344
86.84000 1.677
86.86000 1.177
86.88000 0.290
86.90000 1.752
86.92000 1.627
86.94000 2.090
86.96000 3.059
86.98000 -2.026
87.00000 0.260
87.02000 0.240
87.04000 0.524
87.06000 3.103
87.08000 5.846
87.10000 1.889
87.12000 -0.399
87.14000 2.696
87.16000 0.553
87.18000 -1.136
87.20000 0.491
87.22000 1.748
87.24000 2.069
87.26000 0.238
87.28000 0.593
87.30000 0.659
87.32000 2.986
87.34000 -1.223
87.36000 2.053
87.38000 4.024
87.40000 2.528
87.42000 2.236
87.44000 0.338
87.46000 1.672
87.48000 0.832
87.50000 3.455
87.52000 3.325
87.54000 0.758
87.56000 3.157
87.58000 0.088
87.60000 2.646
87.62000 1.874
87.64000 4.913
87.66000 1.449
87.68000 -0.543
87.70000 -1.980
87.72000 3.327
87.74000 4.360
87.76000 3.391
87.78000 0.793
87.80000 4.238
87.82000 2.365
87.84000 3.597
87.86000 5.181
87.88000 4.177
87.90000 2.025
87.92000 2.247
87.94000 2.257
87.96000 0.008
87.98000 1.533
88.00000 1.319
88.02000 2.670
88.04000 1.599
88.06000 0.932
88.08000 4.999
88.10000 6.506
88.12000 5.122
88.14000 3.396
88.16000 3.478
88.18000 4.087
88.20000 0.219
88.22000 2.872
88.24000 -1.913
88.26000 2.162
88.28000 3.913
88.30000 4.683
88.32000 6.345
88.34000 4.426
88.36000 1.069
88.38000 3.943
88.40000 1.405
88.42000 1.778
88.44000 4.236
88.46000 0.481
88.48000 2.133
88.50000 3.721
88.52000 3.936
88.54000 3.671
88.56000 2.331
88.58000 1.895
88.60000 3.779
88.62000 1.056
88.64000 0.655
88.66000 0.197
88.68000 1.379
88.70000 2.435
88.72000 6.627
88.74000 4.726
88.76000 4.868
88.78000 5.159
88.80000 3.321
88.82000 2.359
88.84000 2.174
88.86000 4.011
88.88000 4.960
88.90000 1.842
88.92000 2.252
88.94000 0.787
88.96000 0.689
88.98000 -0.514
89.00000 0.422
89.02000 2.003
89.04000 0.418
89.06000 0.456
89.08000 2.741
89.10000 3.342
89.12000 2.010
89.14000 -1.219
89.16000 1.509
89.18000 2.175
89.20000 3.394
89.22000 4.245
89.24000 5.067
89.26000 1.642
89.28000 2.568
89.30000 4.287
89.32000 0.806
89.34000 1.368
89.36000 0.368
89.38000 1.948
89.40000 3.321
89.42000 2.930
89.44000 1.839
89.46000 2.276
89.48000 3.498
89.50000 2.977
89.52000 0.161
89.54000 1.823
89.56000 -0.485
89.58000 -1.913
89.60000 1.903
89.62000 5.489
89.64000 4.508
89.66000 3.295
89.68000 1.821
89.70000 2.748
89.72000 3.889
89.74000 2.218
89.76000 2.377
89.78000 2.688
89.80000 0.250
89.82000 2.668
89.84000 5.234
89.86000 0.979
89.88000 1.025
89.90000 1.101
89.92000 3.547
89.94000 1.910
89.96000 1.171
89.98000 1.020
90.00000 0.994
90.02000 0.920
90.04000 -0.282
90.06000 0.206
90.08000 1.350
90.10000 -1.920
90.12000 1.540
90.14000 0.620
90.16000 2.397
90.18000 1.474
90.20000 1.809
90.22000 1.781
90.24000 2.264
90.26000 1.182
90.28000 0.949
90.30000 2.406
90.32000 3.656
90.34000 1.732
90.36000 1.428
90.38000 3.738
90.40000 3.942
90.42000 5.710
90.44000 3.527
90.46000 6.598
90.48000 6.280
90.50000 1.376
90.52000 2.122
90.54000 -0.351
90.56000 -1.908
90.58000 0.395
90.60000 2.147
90.62000 3.340
90.64000 1.638
90.66000 2.782
90.68000 3.504
90.70000 0.601
90.72000 2.864
90.74000 3.875
90.76000 2.809
90.78000 -0.973
90.80000 1.956
90.82000 5.720
90.84000 3.169
90.86000 -0.814
90.88000 1.273
90.90000 0.924
90.92000 2.655
90.94000 5.279
90.96000 5.694
90.98000 4.847
91.00000 2.702
91.02000 -0.669
91.04000 -0.217
91.06000 2.660
91.08000 2.728
91.10000 3.838
91.12000 0.558
91.14000 4.357
91.16000 5.920
91.18000 5.543
91.20000 2.071
91.22000 0.116
91.24000 1.316
91.26000 -0.669
91.28000 -0.553
91.30000 -1.400
91.32000 2.625
91.34000 4.278
91.36000 1.968
91.38000 2.279
91.40000 -0.754
91.42000 -0.626
91.44000 0.718
91.46000 3.149
91.48000 2.653
91.50000 4.055
91.52000 2.265
91.54000 2.332
91.56000 2.887
91.58000 -1.168
91.60000 -1.952
91.62000 -1.450
91.64000 3.396
91.66000 5.896
91.68000 3.174
91.70000 0.327
91.72000 0.924
91.74000 0.320
91.76000 -1.366
91.78000 1.045
91.80000 2.018
91.82000 3.615
91.84000 3.430
91.86000 6.373
91.88000 2.341
91.90000 -1.357
91.92000 -1.957
91.94000 -0.145
91.96000 2.649
91.98000 2.282
92.00000 0.245
92.02000 -0.968
92.04000 -1.387
92.06000 2.547
92.08000 1.111
92.10000 2.489
92.12000 1.636
92.14000 -0.366
92.16000 -0.226
92.18000 1.636
92.20000 2.860
92.22000 2.259
92.24000 0.416
92.26000 0.759
92.28000 2.030
92.30000 1.580
92.32000 2.787
92.34000 3.282
92.36000 -0.300
92.38000 -0.231
92.40000 2.130
92.42000 0.912
92.44000 1.046
92.46000 1.360
92.48000 2.099
92.50000 3.526
92.52000 3.856
92.54000 0.176
92.56000 1.212
92.58000 3.204
92.60000 7.224
92.62000 2.813
92.64000 0.551
92.66000 0.244
92.68000 -0.329
92.70000 1.804
92.72000 5.064
92.74000 3.405
92.76000 5.319
92.78000 3.526
92.80000 1.817
92.82000 2.201
92.84000 2.756
92.86000 2.609
92.88000 3.965
92.90000 0.244
92.92000 1.752
92.94000 2.160
92.96000 6.122
92.98000 2.339
93.00000 -1.942
93.02000 2.116
93.04000 4.272
93.06000 5.266
93.08000 3.308
93.10000 1.999
93.12000 4.039
93.14000 0.780
93.16000 -1.237
93.18000 1.984
93.20000 6.110
93.22000 4.700
93.24000 1.022
93.26000 2.008
93.28000 1.459
93.30000 0.715
93.32000 1.412
93.34000 2.636
93.36000 3.579
93.38000 3.305
93.40000 0.955
93.42000 3.422
93.44000 5.495
93.46000 5.003
93.48000 3.665
93.50000 2.651
93.52000 0.685
93.54000 -0.020
93.56000 -1.935
93.58000 0.415
93.60000 3.870
93.62000 3.883
93.64000 4.648
93.66000 3.578
93.68000 0.218
93.70000 2.221
93.72000 -0.531
93.74000 2.016
93.76000 3.682
93.78000 6.288
93.80000 5.043
93.82000 0.129
93.84000 2.897
93.86000 5.610
93.88000 2.333
93.90000 4.185
93.92000 3.413
93.94000 2.440
93.96000 3.381
93.98000 4.143
94.00000 5.167
94.02000 4.309
94.04000 3.207
94.06000 5.458
94.08000 7.578
94.10000 4.758
94.12000 -0.699
94.14000 5.935
94.16000 8.221
94.18000 5.042
94.20000 5.435
94.22000 3.494
94.24000 3.771
94.26000 3.159
94.28000 5.426
94.30000 5.295
94.32000 4.573
94.34000 1.662
94.36000 6.376
94.38000 8.419
94.40000 3.863
94.42000 6.218
94.44000 11.307
94.46000 9.015
94.48000 7.734
94.50000 7.086
94.52000 6.171
94.54000 10.765
94.56000 10.071
94.58000 2.259
94.60000 3.635
94.62000 6.058
94.64000 2.355
94.66000 -1.882
94.68000 1.950
94.70000 8.225
94.72000 8.158
94.74000 7.010
94.76000 5.115
94.78000 5.316
94.80000 5.727
94.82000 4.386
94.84000 1.587
94.86000 3.327
94.88000 6.522
94.90000 8.170
94.92000 5.550
94.94000 4.049
94.96000 2.465
94.98000 6.020
95.00000 5.633
95.02000 5.972
95.04000 5.233
95.06000 4.627
95.08000 3.241
95.10000 4.358
95.12000 4.398
95.14000 2.996
95.16000 2.437
95.18000 4.997
95.20000 7.519
95.22000 3.101
95.24000 1.664
95.26000 0.781
95.28000 4.085
95.30000 2.591
95.32000 5.835
95.34000 6.209
95.36000 3.264
95.38000 2.511
95.40000 5.640
95.42000 0.405
95.44000 -0.382
95.46000 -0.058
95.48000 -0.251
95.50000 0.163
95.52000 1.510
95.54000 0.230
95.56000 1.795
95.58000 2.315
95.60000 3.031
95.62000 3.781
95.64000 1.290
95.66000 1.778
95.68000 5.914
95.70000 4.061
95.72000 1.657
95.74000 0.075
95.76000 1.147
95.78000 1.318
95.80000 2.050
95.82000 3.767
95.84000 4.627
95.86000 1.314
95.88000 4.432
95.90000 1.403
95.92000 0.518
95.94000 -0.118
95.96000 0.379
95.98000 3.891
96.00000 1.214
96.02000 6.218
96.04000 7.890
96.06000 5.203
96.08000 5.429
96.10000 4.416
96.12000 3.749
96.14000 5.608
96.16000 4.623
96.18000 3.250
96.20000 1.434
96.22000 2.812
96.24000 3.598
96.26000 2.749
96.28000 1.388
96.30000 1.391
96.32000 2.970
96.34000 0.890
96.36000 6.322
96.38000 7.093
96.40000 2.711
96.42000 1.134
96.44000 4.489
96.46000 2.672
96.48000 1.068
96.50000 0.419
96.52000 0.425
96.54000 6.104
96.56000 4.671
96.58000 -1.981
96.60000 0.519
96.62000 3.777
96.64000 -1.757
96.66000 3.654
96.68000 7.162
96.70000 3.970
96.72000 2.765
96.74000 2.289
96.76000 2.935
96.78000 3.398
96.80000 0.326
96.82000 4.322
96.84000 1.052
96.86000 3.736
96.88000 4.063
96.90000 5.199
96.92000 7.406
96.94000 4.814
96.96000 3.542
96.98000 0.754
97.00000 2.687
97.02000 2.994
97.04000 6.736
97.06000 2.420
97.08000 1.671
97.10000 4.018
97.12000 3.604
97.14000 3.513
97.16000 3.338
97.18000 2.170
97.20000 0.902
97.22000 3.793
97.24000 4.213
97.26000 2.483
97.28000 1.961
97.30000 2.944
97.32000 4.006
97.34000 7.698
97.36000 8.985
97.38000 10.845
97.40000 5.074
97.42000 2.818
97.44000 1.460
97.46000 -1.925
97.48000 0.877
97.50000 3.103
97.52000 6.087
97.54000 4.495
97.56000 5.128
97.58000 1.028
97.60000 3.354
97.62000 6.973
97.64000 4.776
97.66000 1.117
97.68000 0.406
97.70000 2.392
97.72000 5.959
97.74000 4.062
97.76000 0.305
97.78000 -0.700
97.80000 -0.910
97.82000 1.417
97.84000 1.828
97.86000 5.542
97.88000 6.488
97.90000 5.477
97.92000 3.316
97.94000 2.207
97.96000 3.591
97.98000 2.483
98.00000 5.231
98.02000 6.099
98.04000 4.767
98.06000 4.610
98.08000 2.263
98.10000 5.063
98.12000 7.189
98.14000 4.441
98.16000 2.411
98.18000 3.865
98.20000 7.641
98.22000 8.049
98.24000 4.946
98.26000 5.461
98.28000 10.381
98.30000 6.833
98.32000 6.083
98.34000 3.923
98.36000 4.017
98.38000 -0.112
98.40000 2.393
98.42000 7.152
98.44000 9.532
98.46000 11.945
98.48000 8.283
98.50000 4.630
98.52000 7.280
98.54000 6.908
98.56000 7.514
98.58000 6.697
98.60000 -0.278
98.62000 8.408
98.64000 10.243
98.66000 8.539
98.68000 4.439
98.70000 5.234
98.72000 0.777
98.74000 7.191
98.76000 10.581
98.78000 13.279
98.80000 5.925
98.82000 2.727
98.84000 2.259
98.86000 -1.817
98.88000 6.842
98.90000 12.629
98.92000 13.021
98.94000 14.275
98.96000 8.413
98.98000 10.858
99.00000 8.714
99.02000 6.584
99.04000 3.087
99.06000 10.487
99.08000 8.632
99.10000 8.924
99.12000 4.531
99.14000 8.993
99.16000 7.167
99.18000 7.293
99.20000 6.642
99.22000 3.629
99.24000 9.765
99.26000 11.994
99.28000 7.692
99.30000 7.500
99.32000 6.148
99.34000 5.611
99.36000 6.556
99.38000 3.392
99.40000 -1.835
99.42000 -1.850
99.44000 1.945
99.46000 7.422
99.48000 2.743
99.50000 9.036
99.52000 5.743
99.54000 1.898
99.56000 2.233
99.58000 3.810
99.60000 6.465
99.62000 5.331
99.64000 0.956
99.66000 2.239
99.68000 8.040
99.70000 10.018
99.72000 5.832
99.74000 4.657
99.76000 4.675
99.78000 6.130
99.80000 12.423
99.82000 9.353
99.84000 4.413
99.86000 0.277
99.88000 -1.967
99.90000 2.817
99.92000 2.500
99.94000 2.601
99.96000 4.892
99.98000 0.000
