'Id: "0011388" Comment: "Integrate frame 0011388_Au-Ir-Rh_Rh-rich_XRD-Mapping-319-0000.gfrmwith cursor Wedge Cursor #5" Operator: "B?rgel" Anode: "Cu" Wavelength: "1.5406" Scantype: "2Theta (TwoTheta)" TimePerStep: "1" X: "9" Y: "36" Z: "5.95" 
10.00000 0.000
10.02000 -4.287
10.04000 4.529
10.06000 -7.599
10.08000 7.858
10.10000 31.251
10.12000 21.386
10.14000 24.377
10.16000 12.728
10.18000 10.548
10.20000 15.418
10.22000 5.516
10.24000 10.122
10.26000 17.112
10.28000 23.458
10.30000 30.624
10.32000 0.243
10.34000 4.302
10.36000 17.906
10.38000 25.628
10.40000 22.245
10.42000 19.227
10.44000 14.379
10.46000 23.671
10.48000 21.420
10.50000 18.729
10.52000 18.966
10.54000 12.877
10.56000 21.103
10.58000 15.579
10.60000 12.124
10.62000 25.255
10.64000 34.384
10.66000 15.397
10.68000 15.333
10.70000 9.414
10.72000 1.726
10.74000 21.654
10.76000 25.887
10.78000 26.107
10.80000 23.731
10.82000 20.065
10.84000 -4.223
10.86000 -0.100
10.88000 19.924
10.90000 28.016
10.92000 32.937
10.94000 35.536
10.96000 26.965
10.98000 17.722
11.00000 12.505
11.02000 7.851
11.04000 21.651
11.06000 36.815
11.08000 16.481
11.10000 15.113
11.12000 18.553
11.14000 20.583
11.16000 13.130
11.18000 17.209
11.20000 30.083
11.22000 23.789
11.24000 20.214
11.26000 22.428
11.28000 21.415
11.30000 6.655
11.32000 17.676
11.34000 16.764
11.36000 9.790
11.38000 4.998
11.40000 21.738
11.42000 19.832
11.44000 12.777
11.46000 5.197
11.48000 10.617
11.50000 5.206
11.52000 8.566
11.54000 17.088
11.56000 19.462
11.58000 21.505
11.60000 20.740
11.62000 24.116
11.64000 18.385
11.66000 16.635
11.68000 27.085
11.70000 17.252
11.72000 24.330
11.74000 19.364
11.76000 9.491
11.78000 14.015
11.80000 11.199
11.82000 6.177
11.84000 10.982
11.86000 7.458
11.88000 -0.418
11.90000 5.231
11.92000 9.012
11.94000 15.106
11.96000 2.323
11.98000 13.009
12.00000 13.417
12.02000 3.839
12.04000 15.683
12.06000 21.089
12.08000 16.114
12.10000 5.076
12.12000 1.361
12.14000 12.140
12.16000 7.181
12.18000 3.062
12.20000 15.243
12.22000 19.510
12.24000 21.770
12.26000 29.141
12.28000 21.741
12.30000 14.713
12.32000 4.389
12.34000 15.048
12.36000 14.524
12.38000 23.773
12.40000 14.205
12.42000 23.153
12.44000 31.634
12.46000 28.505
12.48000 0.234
12.50000 8.171
12.52000 21.535
12.54000 17.988
12.56000 11.998
12.58000 5.673
12.60000 2.798
12.62000 23.735
12.64000 23.424
12.66000 15.759
12.68000 19.009
12.70000 18.340
12.72000 9.618
12.74000 10.790
12.76000 15.700
12.78000 11.759
12.80000 10.187
12.82000 10.043
12.84000 17.653
12.86000 20.726
12.88000 13.022
12.90000 2.457
12.92000 1.015
12.94000 5.466
12.96000 11.958
12.98000 18.870
13.00000 11.376
13.02000 13.139
13.04000 18.315
13.06000 9.964
13.08000 7.319
13.10000 10.046
13.12000 7.304
13.14000 7.971
13.16000 12.283
13.18000 8.890
13.20000 15.170
13.22000 16.841
13.24000 12.345
13.26000 7.845
13.28000 13.220
13.30000 12.636
13.32000 14.903
13.34000 12.052
13.36000 3.840
13.38000 3.968
13.40000 8.897
13.42000 9.604
13.44000 15.950
13.46000 20.449
13.48000 14.478
13.50000 14.474
13.52000 15.961
13.54000 13.971
13.56000 9.118
13.58000 4.261
13.60000 6.995
13.62000 15.362
13.64000 19.210
13.66000 18.365
13.68000 10.985
13.70000 9.704
13.72000 8.119
13.74000 12.334
13.76000 13.822
13.78000 10.514
13.80000 6.207
13.82000 9.801
13.84000 7.801
13.86000 10.951
13.88000 16.606
13.90000 15.247
13.92000 11.249
13.94000 8.538
13.96000 12.005
13.98000 0.365
14.00000 4.016
14.02000 10.634
14.04000 7.194
14.06000 0.137
14.08000 2.028
14.10000 9.047
14.12000 6.695
14.14000 -0.950
14.16000 0.510
14.18000 9.639
14.20000 9.697
14.22000 1.290
14.24000 -1.685
14.26000 8.762
14.28000 14.477
14.30000 16.161
14.32000 14.885
14.34000 12.590
14.36000 12.734
14.38000 12.325
14.40000 11.415
14.42000 10.273
14.44000 6.836
14.46000 9.661
14.48000 6.498
14.50000 8.104
14.52000 14.613
14.54000 17.902
14.56000 12.169
14.58000 7.972
14.60000 8.840
14.62000 12.584
14.64000 8.052
14.66000 5.238
14.68000 5.651
14.70000 5.885
14.72000 10.252
14.74000 6.330
14.76000 6.370
14.78000 9.051
14.80000 7.135
14.82000 8.476
14.84000 -1.445
14.86000 -1.473
14.88000 4.274
14.90000 11.794
14.92000 12.239
14.94000 5.738
14.96000 1.566
14.98000 2.034
15.00000 10.614
15.02000 14.543
15.04000 10.841
15.06000 3.536
15.08000 -2.036
15.10000 2.992
15.12000 0.722
15.14000 4.513
15.16000 6.025
15.18000 14.133
15.20000 11.284
15.22000 12.360
15.24000 13.233
15.26000 13.717
15.28000 10.407
15.30000 10.678
15.32000 12.304
15.34000 12.458
15.36000 6.992
15.38000 4.280
15.40000 3.440
15.42000 0.869
15.44000 -3.700
15.46000 6.461
15.48000 5.761
15.50000 6.609
15.52000 2.268
15.54000 1.133
15.56000 -4.494
15.58000 5.819
15.60000 5.300
15.62000 0.236
15.64000 4.953
15.66000 17.614
15.68000 12.552
15.70000 7.768
15.72000 10.303
15.74000 7.508
15.76000 4.839
15.78000 11.254
15.80000 13.853
15.82000 11.581
15.84000 12.342
15.86000 8.285
15.88000 4.695
15.90000 6.215
15.92000 -1.109
15.94000 -4.478
15.96000 5.270
15.98000 11.295
16.00000 6.056
16.02000 5.851
16.04000 6.940
16.06000 5.206
16.08000 9.469
16.10000 8.523
16.12000 2.560
16.14000 1.471
16.16000 -0.439
16.18000 1.433
16.20000 -2.947
16.22000 5.268
16.24000 10.370
16.26000 4.425
16.28000 -2.195
16.30000 2.084
16.32000 6.743
16.34000 13.871
16.36000 4.126
16.38000 2.257
16.40000 -0.382
16.42000 2.356
16.44000 8.351
16.46000 7.000
16.48000 3.992
16.50000 7.745
16.52000 7.429
16.54000 1.701
16.56000 -1.586
16.58000 -0.619
16.60000 1.676
16.62000 17.156
16.64000 14.168
16.66000 6.286
16.68000 -4.436
16.70000 -2.831
16.72000 4.799
16.74000 4.284
16.76000 8.557
16.78000 5.185
16.80000 -4.234
16.82000 4.634
16.84000 6.223
16.86000 6.985
16.88000 -0.367
16.90000 -3.492
16.92000 7.435
16.94000 7.992
16.96000 2.956
16.98000 7.337
17.00000 6.786
17.02000 5.519
17.04000 7.910
17.06000 0.652
17.08000 8.716
17.10000 11.735
17.12000 8.853
17.14000 5.278
17.16000 11.150
17.18000 11.569
17.20000 4.265
17.22000 12.311
17.24000 7.315
17.26000 -0.006
17.28000 4.651
17.30000 5.273
17.32000 4.536
17.34000 7.546
17.36000 10.791
17.38000 6.483
17.40000 0.457
17.42000 7.315
17.44000 9.853
17.46000 9.753
17.48000 6.616
17.50000 0.058
17.52000 2.148
17.54000 15.173
17.56000 8.212
17.58000 7.010
17.60000 12.062
17.62000 5.257
17.64000 -0.759
17.66000 5.545
17.68000 10.350
17.70000 6.971
17.72000 5.098
17.74000 -4.394
17.76000 -1.751
17.78000 -0.536
17.80000 -0.239
17.82000 0.833
17.84000 -0.188
17.86000 1.690
17.88000 -0.022
17.90000 1.824
17.92000 7.267
17.94000 -1.777
17.96000 1.503
17.98000 10.608
18.00000 11.515
18.02000 -0.454
18.04000 6.587
18.06000 3.136
18.08000 3.357
18.10000 4.869
18.12000 13.947
18.14000 17.267
18.16000 7.920
18.18000 -4.366
18.20000 2.870
18.22000 4.863
18.24000 1.639
18.26000 2.764
18.28000 1.003
18.30000 1.233
18.32000 5.109
18.34000 5.789
18.36000 5.629
18.38000 3.250
18.40000 -0.523
18.42000 6.015
18.44000 12.998
18.46000 6.480
18.48000 7.432
18.50000 10.806
18.52000 4.570
18.54000 3.037
18.56000 6.218
18.58000 9.971
18.60000 9.728
18.62000 4.426
18.64000 6.077
18.66000 6.359
18.68000 6.023
18.70000 4.149
18.72000 0.609
18.74000 -0.350
18.76000 4.735
18.78000 4.909
18.80000 1.462
18.82000 -0.403
18.84000 -4.234
18.86000 -4.318
18.88000 5.915
18.90000 4.192
18.92000 8.757
18.94000 8.636
18.96000 4.022
18.98000 -2.060
19.00000 3.520
19.02000 8.458
19.04000 9.223
19.06000 1.684
19.08000 -2.574
19.10000 1.249
19.12000 12.691
19.14000 6.524
19.16000 5.631
19.18000 12.691
19.20000 10.902
19.22000 8.202
19.24000 6.190
19.26000 5.617
19.28000 0.623
19.30000 0.790
19.32000 4.020
19.34000 6.167
19.36000 3.543
19.38000 5.537
19.40000 3.114
19.42000 9.358
19.44000 5.451
19.46000 3.167
19.48000 -0.438
19.50000 1.058
19.52000 0.764
19.54000 0.286
19.56000 -1.871
19.58000 3.048
19.60000 -0.961
19.62000 -3.219
19.64000 6.395
19.66000 5.085
19.68000 1.395
19.70000 4.735
19.72000 7.812
19.74000 1.703
19.76000 3.122
19.78000 6.671
19.80000 6.510
19.82000 -0.999
19.84000 3.992
19.86000 -1.528
19.88000 1.342
19.90000 1.660
19.92000 3.721
19.94000 4.205
19.96000 4.477
19.98000 3.165
20.00000 6.844
20.02000 -1.818
20.04000 -3.646
20.06000 8.010
20.08000 8.709
20.10000 2.731
20.12000 -0.991
20.14000 3.020
20.16000 4.124
20.18000 -0.567
20.20000 -0.025
20.22000 7.642
20.24000 13.743
20.26000 14.378
20.28000 5.316
20.30000 0.183
20.32000 4.575
20.34000 12.383
20.36000 12.813
20.38000 5.492
20.40000 2.634
20.42000 8.921
20.44000 9.950
20.46000 9.830
20.48000 9.490
20.50000 5.068
20.52000 -4.212
20.54000 0.627
20.56000 9.146
20.58000 11.529
20.60000 12.179
20.62000 7.876
20.64000 4.227
20.66000 2.880
20.68000 1.358
20.70000 3.338
20.72000 7.800
20.74000 2.855
20.76000 5.958
20.78000 5.719
20.80000 8.057
20.82000 8.782
20.84000 1.259
20.86000 0.059
20.88000 6.803
20.90000 5.158
20.92000 0.238
20.94000 7.211
20.96000 11.646
20.98000 6.828
21.00000 5.546
21.02000 1.054
21.04000 5.408
21.06000 5.169
21.08000 1.659
21.10000 2.241
21.12000 8.688
21.14000 4.616
21.16000 2.129
21.18000 3.976
21.20000 9.705
21.22000 11.780
21.24000 9.887
21.26000 2.193
21.28000 11.335
21.30000 18.465
21.32000 13.425
21.34000 0.849
21.36000 -2.895
21.38000 1.710
21.40000 3.499
21.42000 5.857
21.44000 1.869
21.46000 -2.993
21.48000 7.456
21.50000 -1.773
21.52000 1.084
21.54000 3.618
21.56000 3.000
21.58000 7.819
21.60000 5.556
21.62000 1.481
21.64000 6.442
21.66000 4.650
21.68000 3.085
21.70000 10.776
21.72000 13.384
21.74000 10.708
21.76000 4.346
21.78000 7.396
21.80000 3.487
21.82000 -0.749
21.84000 8.679
21.86000 8.179
21.88000 9.016
21.90000 14.911
21.92000 8.669
21.94000 -1.890
21.96000 -4.139
21.98000 2.390
22.00000 6.884
22.02000 6.521
22.04000 12.336
22.06000 15.489
22.08000 4.974
22.10000 6.399
22.12000 1.377
22.14000 4.238
22.16000 11.668
22.18000 11.402
22.20000 6.627
22.22000 2.442
22.24000 9.739
22.26000 8.267
22.28000 5.077
22.30000 10.733
22.32000 6.244
22.34000 1.367
22.36000 2.094
22.38000 6.407
22.40000 8.234
22.42000 6.714
22.44000 5.845
22.46000 3.154
22.48000 -0.619
22.50000 5.288
22.52000 8.012
22.54000 3.596
22.56000 3.564
22.58000 6.496
22.60000 8.277
22.62000 4.885
22.64000 1.826
22.66000 -0.335
22.68000 4.124
22.70000 12.224
22.72000 11.054
22.74000 10.025
22.76000 1.327
22.78000 0.611
22.80000 -0.411
22.82000 -3.478
22.84000 -0.313
22.86000 -0.932
22.88000 3.565
22.90000 10.954
22.92000 12.810
22.94000 6.382
22.96000 9.268
22.98000 4.717
23.00000 5.061
23.02000 3.184
23.04000 6.739
23.06000 1.518
23.08000 2.942
23.10000 6.540
23.12000 1.441
23.14000 9.178
23.16000 9.976
23.18000 1.296
23.20000 1.638
23.22000 -0.336
23.24000 1.168
23.26000 8.846
23.28000 4.089
23.30000 -0.540
23.32000 0.695
23.34000 2.053
23.36000 4.560
23.38000 7.863
23.40000 6.795
23.42000 3.281
23.44000 -4.068
23.46000 8.833
23.48000 9.931
23.50000 7.211
23.52000 8.742
23.54000 1.547
23.56000 -2.197
23.58000 1.824
23.60000 3.617
23.62000 5.194
23.64000 5.897
23.66000 3.140
23.68000 -0.609
23.70000 1.726
23.72000 7.796
23.74000 1.672
23.76000 3.149
23.78000 5.287
23.80000 0.379
23.82000 3.113
23.84000 8.689
23.86000 3.092
23.88000 -4.061
23.90000 -3.688
23.92000 0.834
23.94000 3.529
23.96000 0.426
23.98000 6.700
24.00000 7.318
24.02000 2.140
24.04000 3.159
24.06000 -0.485
24.08000 -1.718
24.10000 1.869
24.12000 -0.180
24.14000 1.352
24.16000 -2.238
24.18000 -1.540
24.20000 3.708
24.22000 5.628
24.24000 8.227
24.26000 2.168
24.28000 -1.741
24.30000 1.780
24.32000 1.318
24.34000 7.004
24.36000 10.413
24.38000 8.478
24.40000 0.044
24.42000 -1.567
24.44000 -1.455
24.46000 -2.216
24.48000 -0.742
24.50000 -0.590
24.52000 3.927
24.54000 0.723
24.56000 4.662
24.58000 6.966
24.60000 7.223
24.62000 0.109
24.64000 4.299
24.66000 9.606
24.68000 6.450
24.70000 6.607
24.72000 4.426
24.74000 7.134
24.76000 0.233
24.78000 -2.842
24.80000 2.249
24.82000 4.616
24.84000 5.968
24.86000 6.413
24.88000 0.683
24.90000 2.183
24.92000 3.077
24.94000 3.307
24.96000 3.703
24.98000 -0.085
25.00000 -1.018
25.02000 1.881
25.04000 0.236
25.06000 8.089
25.08000 8.455
25.10000 1.817
25.12000 -1.566
25.14000 1.596
25.16000 3.983
25.18000 6.820
25.20000 1.656
25.22000 -0.768
25.24000 -3.263
25.26000 0.720
25.28000 -0.848
25.30000 -1.385
25.32000 -3.978
25.34000 2.295
25.36000 1.458
25.38000 0.963
25.40000 -3.976
25.42000 0.512
25.44000 2.827
25.46000 3.856
25.48000 3.421
25.50000 5.929
25.52000 12.994
25.54000 11.068
25.56000 6.950
25.58000 4.114
25.60000 0.505
25.62000 0.114
25.64000 0.552
25.66000 1.280
25.68000 -1.528
25.70000 -0.641
25.72000 -1.963
25.74000 4.100
25.76000 1.866
25.78000 -1.066
25.80000 -3.272
25.82000 -0.868
25.84000 3.860
25.86000 4.973
25.88000 3.866
25.90000 -1.155
25.92000 -1.647
25.94000 2.927
25.96000 3.168
25.98000 1.270
26.00000 -2.991
26.02000 -0.395
26.04000 2.912
26.06000 5.181
26.08000 0.461
26.10000 1.325
26.12000 -0.565
26.14000 2.161
26.16000 -1.254
26.18000 1.018
26.20000 5.775
26.22000 3.315
26.24000 1.629
26.26000 1.575
26.28000 2.131
26.30000 5.211
26.32000 6.016
26.34000 8.202
26.36000 0.696
26.38000 -2.787
26.40000 0.509
26.42000 5.385
26.44000 5.715
26.46000 3.247
26.48000 1.787
26.50000 -1.873
26.52000 2.813
26.54000 3.304
26.56000 2.935
26.58000 -2.989
26.60000 -1.511
26.62000 1.463
26.64000 4.291
26.66000 1.878
26.68000 4.311
26.70000 6.191
26.72000 2.688
26.74000 1.288
26.76000 0.290
26.78000 2.504
26.80000 4.749
26.82000 5.883
26.84000 3.470
26.86000 4.004
26.88000 1.199
26.90000 -3.910
26.92000 -0.844
26.94000 2.256
26.96000 8.484
26.98000 3.743
27.00000 4.612
27.02000 4.051
27.04000 2.357
27.06000 2.029
27.08000 1.135
27.10000 -1.159
27.12000 -2.567
27.14000 -2.727
27.16000 5.642
27.18000 3.380
27.20000 3.914
27.22000 2.500
27.24000 1.236
27.26000 -2.796
27.28000 1.800
27.30000 2.289
27.32000 -2.507
27.34000 -3.901
27.36000 0.364
27.38000 -1.676
27.40000 -3.095
27.42000 -3.098
27.44000 -1.722
27.46000 -0.892
27.48000 -0.896
27.50000 -3.603
27.52000 0.647
27.54000 8.426
27.56000 8.458
27.58000 -0.960
27.60000 -0.894
27.62000 -0.466
27.64000 0.287
27.66000 -3.005
27.68000 2.063
27.70000 -0.235
27.72000 -1.659
27.74000 1.148
27.76000 1.664
27.78000 -3.043
27.80000 1.569
27.82000 2.075
27.84000 -1.223
27.86000 -0.916
27.88000 -1.114
27.90000 2.290
27.92000 1.674
27.94000 0.336
27.96000 2.290
27.98000 3.250
28.00000 0.704
28.02000 -0.286
28.04000 2.394
28.06000 0.033
28.08000 -2.520
28.10000 0.277
28.12000 3.780
28.14000 -0.676
28.16000 0.429
28.18000 -3.867
28.20000 -2.164
28.22000 -3.398
28.24000 -0.678
28.26000 5.209
28.28000 3.400
28.30000 1.572
28.32000 5.190
28.34000 4.590
28.36000 -1.460
28.38000 0.365
28.40000 3.162
28.42000 4.587
28.44000 6.024
28.46000 2.453
28.48000 1.908
28.50000 -3.644
28.52000 -0.420
28.54000 7.654
28.56000 3.578
28.58000 -1.845
28.60000 -0.125
28.62000 -1.498
28.64000 -1.588
28.66000 -1.957
28.68000 -3.179
28.70000 6.345
28.72000 9.215
28.74000 2.946
28.76000 -0.501
28.78000 -1.798
28.80000 2.932
28.82000 4.913
28.84000 0.140
28.86000 -1.437
28.88000 1.298
28.90000 -2.947
28.92000 0.748
28.94000 0.299
28.96000 -3.386
28.98000 -1.383
29.00000 3.793
29.02000 1.192
29.04000 3.542
29.06000 1.825
29.08000 1.991
29.10000 1.101
29.12000 -3.799
29.14000 -0.389
29.16000 5.754
29.18000 3.085
29.20000 5.032
29.22000 -0.631
29.24000 -1.915
29.26000 2.382
29.28000 6.007
29.30000 3.306
29.32000 -1.157
29.34000 -0.056
29.36000 7.891
29.38000 2.314
29.40000 -2.624
29.42000 0.124
29.44000 0.242
29.46000 0.695
29.48000 -0.868
29.50000 -3.762
29.52000 -0.438
29.54000 3.115
29.56000 0.629
29.58000 -0.546
29.60000 -0.090
29.62000 -0.815
29.64000 2.353
29.66000 6.236
29.68000 -1.590
29.70000 0.118
29.72000 -0.646
29.74000 1.124
29.76000 -0.612
29.78000 4.700
29.80000 4.387
29.82000 0.833
29.84000 1.916
29.86000 1.826
29.88000 3.098
29.90000 0.909
29.92000 6.566
29.94000 5.185
29.96000 2.842
29.98000 -2.363
30.00000 -3.737
30.02000 -1.214
30.04000 3.559
30.06000 5.922
30.08000 -0.754
30.10000 -0.884
30.12000 2.526
30.14000 3.364
30.16000 0.316
30.18000 1.373
30.20000 1.107
30.22000 2.745
30.24000 3.358
30.26000 -0.238
30.28000 4.906
30.30000 3.068
30.32000 0.915
30.34000 1.169
30.36000 3.189
30.38000 1.695
30.40000 5.790
30.42000 2.003
30.44000 -0.152
30.46000 2.724
30.48000 5.861
30.50000 7.166
30.52000 11.388
30.54000 10.492
30.56000 2.745
30.58000 -0.365
30.60000 3.330
30.62000 1.279
30.64000 1.124
30.66000 2.897
30.68000 0.766
30.70000 1.590
30.72000 2.276
30.74000 -3.703
30.76000 1.838
30.78000 1.963
30.80000 1.430
30.82000 4.936
30.84000 5.768
30.86000 4.081
30.88000 5.581
30.90000 5.539
30.92000 2.887
30.94000 3.516
30.96000 0.621
30.98000 3.326
31.00000 1.385
31.02000 3.615
31.04000 4.358
31.06000 1.299
31.08000 5.979
31.10000 1.988
31.12000 -0.773
31.14000 1.258
31.16000 -1.700
31.18000 8.248
31.20000 6.120
31.22000 3.101
31.24000 1.149
31.26000 6.192
31.28000 4.906
31.30000 -0.489
31.32000 -0.244
31.34000 7.094
31.36000 6.083
31.38000 3.438
31.40000 -1.244
31.42000 -3.300
31.44000 -3.680
31.46000 -3.289
31.48000 5.894
31.50000 4.148
31.52000 3.498
31.54000 1.828
31.56000 5.363
31.58000 5.224
31.60000 4.951
31.62000 2.891
31.64000 2.609
31.66000 -0.470
31.68000 1.490
31.70000 6.386
31.72000 7.613
31.74000 5.059
31.76000 3.948
31.78000 -2.104
31.80000 -3.670
31.82000 2.826
31.84000 1.903
31.86000 1.492
31.88000 0.289
31.90000 -1.431
31.92000 2.875
31.94000 6.384
31.96000 5.578
31.98000 2.593
32.00000 -2.153
32.02000 -0.106
32.04000 2.563
32.06000 5.458
32.08000 4.832
32.10000 3.213
32.12000 4.507
32.14000 2.654
32.16000 3.103
32.18000 4.041
32.20000 2.411
32.22000 6.769
32.24000 2.438
32.26000 0.793
32.28000 -2.175
32.30000 -0.047
32.32000 5.489
32.34000 6.932
32.36000 1.439
32.38000 0.095
32.40000 -3.640
32.42000 4.212
32.44000 10.287
32.46000 10.352
32.48000 5.025
32.50000 3.826
32.52000 3.410
32.54000 1.152
32.56000 -0.425
32.58000 0.863
32.60000 3.149
32.62000 5.299
32.64000 2.658
32.66000 2.120
32.68000 1.694
32.70000 -1.299
32.72000 -0.270
32.74000 0.974
32.76000 1.440
32.78000 3.649
32.80000 2.330
32.82000 1.788
32.84000 3.857
32.86000 0.961
32.88000 -3.632
32.90000 -1.394
32.92000 1.556
32.94000 3.457
32.96000 2.729
32.98000 7.254
33.00000 5.729
33.02000 6.514
33.04000 3.473
33.06000 2.879
33.08000 0.283
33.10000 0.598
33.12000 2.335
33.14000 3.039
33.16000 2.692
33.18000 -0.662
33.20000 -0.465
33.22000 4.588
33.24000 -1.880
33.26000 -3.633
33.28000 0.011
33.30000 6.970
33.32000 3.507
33.34000 -2.151
33.36000 7.111
33.38000 8.461
33.40000 4.454
33.42000 3.819
33.44000 5.350
33.46000 5.024
33.48000 8.077
33.50000 3.208
33.52000 2.845
33.54000 2.700
33.56000 4.099
33.58000 1.527
33.60000 -0.907
33.62000 -0.100
33.64000 3.486
33.66000 5.080
33.68000 8.241
33.70000 3.842
33.72000 0.505
33.74000 0.225
33.76000 1.959
33.78000 0.831
33.80000 5.708
33.82000 6.666
33.84000 2.510
33.86000 1.696
33.88000 -0.055
33.90000 2.371
33.92000 0.809
33.94000 1.747
33.96000 3.683
33.98000 4.930
34.00000 2.573
34.02000 4.611
34.04000 5.196
34.06000 7.810
34.08000 5.553
34.10000 3.267
34.12000 1.772
34.14000 2.091
34.16000 5.526
34.18000 2.533
34.20000 -1.918
34.22000 -2.199
34.24000 2.647
34.26000 2.223
34.28000 3.798
34.30000 0.785
34.32000 -0.189
34.34000 -0.557
34.36000 -1.679
34.38000 -1.987
34.40000 1.420
34.42000 0.857
34.44000 1.872
34.46000 1.321
34.48000 1.306
34.50000 1.991
34.52000 5.122
34.54000 4.523
34.56000 5.709
34.58000 7.159
34.60000 2.754
34.62000 4.354
34.64000 7.655
34.66000 5.545
34.68000 4.321
34.70000 1.612
34.72000 4.707
34.74000 0.710
34.76000 -3.586
34.78000 -3.156
34.80000 0.161
34.82000 4.051
34.84000 4.704
34.86000 1.888
34.88000 6.969
34.90000 4.490
34.92000 4.095
34.94000 2.067
34.96000 1.069
34.98000 -0.868
35.00000 -1.633
35.02000 1.240
35.04000 7.456
35.06000 6.436
35.08000 1.649
35.10000 4.969
35.12000 8.020
35.14000 3.519
35.16000 0.986
35.18000 1.002
35.20000 1.332
35.22000 1.348
35.24000 1.485
35.26000 -1.026
35.28000 2.420
35.30000 4.591
35.32000 1.620
35.34000 -2.076
35.36000 0.781
35.38000 0.492
35.40000 1.894
35.42000 4.935
35.44000 2.950
35.46000 4.630
35.48000 6.942
35.50000 5.674
35.52000 4.710
35.54000 1.155
35.56000 -3.574
35.58000 -1.352
35.60000 4.177
35.62000 6.154
35.64000 3.646
35.66000 0.747
35.68000 -2.181
35.70000 1.333
35.72000 -0.252
35.74000 5.798
35.76000 2.182
35.78000 3.008
35.80000 2.434
35.82000 5.319
35.84000 6.099
35.86000 -3.506
35.88000 -1.198
35.90000 1.350
35.92000 6.400
35.94000 4.054
35.96000 2.868
35.98000 1.499
36.00000 3.568
36.02000 4.755
36.04000 1.720
36.06000 4.565
36.08000 0.326
36.10000 -0.265
36.12000 3.453
36.14000 1.359
36.16000 0.207
36.18000 -2.047
36.20000 -1.008
36.22000 -0.106
36.24000 1.148
36.26000 3.946
36.28000 3.647
36.30000 7.650
36.32000 3.468
36.34000 1.773
36.36000 5.307
36.38000 3.714
36.40000 0.773
36.42000 2.621
36.44000 3.725
36.46000 0.938
36.48000 2.651
36.50000 6.589
36.52000 3.292
36.54000 2.360
36.56000 2.594
36.58000 1.866
36.60000 1.207
36.62000 0.705
36.64000 -0.498
36.66000 -0.610
36.68000 -0.583
36.70000 -2.629
36.72000 0.768
36.74000 2.800
36.76000 6.603
36.78000 3.882
36.80000 5.813
36.82000 10.529
36.84000 6.968
36.86000 -0.530
36.88000 -1.682
36.90000 2.768
36.92000 -3.643
36.94000 -3.603
36.96000 4.260
36.98000 2.351
37.00000 1.029
37.02000 2.119
37.04000 -2.366
37.06000 -3.661
37.08000 -1.428
37.10000 4.397
37.12000 2.594
37.14000 5.128
37.16000 2.530
37.18000 2.073
37.20000 2.453
37.22000 -1.049
37.24000 2.451
37.26000 -1.275
37.28000 5.422
37.30000 6.468
37.32000 3.371
37.34000 4.892
37.36000 2.278
37.38000 1.784
37.40000 6.215
37.42000 1.414
37.44000 0.438
37.46000 -0.489
37.48000 -1.150
37.50000 2.110
37.52000 4.620
37.54000 6.438
37.56000 1.390
37.58000 0.435
37.60000 4.217
37.62000 3.850
37.64000 0.022
37.66000 5.750
37.68000 2.749
37.70000 -0.872
37.72000 3.700
37.74000 10.702
37.76000 8.103
37.78000 8.001
37.80000 4.432
37.82000 5.739
37.84000 4.456
37.86000 2.750
37.88000 8.337
37.90000 8.151
37.92000 10.368
37.94000 9.220
37.96000 11.394
37.98000 13.679
38.00000 5.928
38.02000 8.532
38.04000 6.548
38.06000 11.819
38.08000 14.835
38.10000 12.102
38.12000 9.299
38.14000 11.676
38.16000 12.050
38.18000 15.954
38.20000 16.434
38.22000 21.509
38.24000 21.271
38.26000 20.842
38.28000 16.037
38.30000 20.266
38.32000 22.046
38.34000 23.552
38.36000 24.791
38.38000 23.499
38.40000 25.098
38.42000 21.264
38.44000 22.791
38.46000 20.262
38.48000 22.259
38.50000 27.211
38.52000 26.416
38.54000 24.732
38.56000 27.288
38.58000 29.798
38.60000 33.747
38.62000 35.512
38.64000 32.904
38.66000 29.621
38.68000 30.091
38.70000 29.491
38.72000 30.425
38.74000 40.089
38.76000 44.168
38.78000 45.366
38.80000 46.698
38.82000 51.321
38.84000 50.830
38.86000 53.182
38.88000 52.659
38.90000 51.093
38.92000 54.126
38.94000 54.640
38.96000 57.829
38.98000 56.525
39.00000 56.412
39.02000 64.326
39.04000 71.926
39.06000 72.712
39.08000 72.908
39.10000 73.433
39.12000 78.910
39.14000 83.455
39.16000 84.958
39.18000 82.876
39.20000 91.499
39.22000 100.491
39.24000 106.327
39.26000 101.534
39.28000 109.293
39.30000 117.928
39.32000 123.304
39.34000 127.705
39.36000 136.556
39.38000 140.747
39.40000 150.445
39.42000 155.425
39.44000 161.821
39.46000 166.597
39.48000 164.362
39.50000 177.591
39.52000 198.794
39.54000 213.011
39.56000 220.085
39.58000 220.886
39.60000 225.384
39.62000 237.440
39.64000 244.686
39.66000 262.438
39.68000 274.737
39.70000 297.168
39.72000 314.773
39.74000 326.588
39.76000 331.655
39.78000 348.910
39.80000 368.114
39.82000 384.285
39.84000 396.105
39.86000 409.724
39.88000 432.987
39.90000 452.641
39.92000 472.478
39.94000 490.543
39.96000 507.202
39.98000 529.430
40.00000 540.689
40.02000 558.170
40.04000 584.967
40.06000 605.250
40.08000 649.564
40.10000 659.725
40.12000 665.101
40.14000 664.715
40.16000 674.035
40.18000 691.184
40.20000 705.524
40.22000 714.081
40.24000 723.114
40.26000 731.683
40.28000 736.572
40.30000 728.417
40.32000 720.167
40.34000 714.413
40.36000 714.863
40.38000 695.776
40.40000 703.811
40.42000 694.478
40.44000 679.141
40.46000 670.992
40.48000 664.856
40.50000 639.217
40.52000 621.492
40.54000 616.221
40.56000 581.702
40.58000 554.877
40.60000 537.164
40.62000 527.031
40.64000 506.876
40.66000 484.831
40.68000 459.634
40.70000 437.960
40.72000 419.146
40.74000 401.554
40.76000 380.036
40.78000 362.097
40.80000 348.064
40.82000 336.006
40.84000 317.495
40.86000 298.916
40.88000 274.212
40.90000 264.811
40.92000 252.803
40.94000 233.654
40.96000 220.092
40.98000 212.928
41.00000 205.400
41.02000 191.854
41.04000 173.795
41.06000 164.295
41.08000 159.599
41.10000 156.756
41.12000 152.077
41.14000 140.513
41.16000 133.034
41.18000 128.584
41.20000 118.421
41.22000 111.703
41.24000 104.901
41.26000 98.961
41.28000 92.708
41.30000 92.774
41.32000 82.969
41.34000 80.642
41.36000 77.335
41.38000 69.469
41.40000 62.181
41.42000 64.533
41.44000 62.327
41.46000 58.912
41.48000 49.832
41.50000 47.229
41.52000 42.653
41.54000 41.975
41.56000 40.454
41.58000 36.720
41.60000 40.159
41.62000 40.059
41.64000 33.582
41.66000 30.870
41.68000 26.437
41.70000 27.011
41.72000 25.095
41.74000 24.939
41.76000 22.573
41.78000 22.266
41.80000 22.250
41.82000 19.912
41.84000 22.292
41.86000 18.769
41.88000 15.546
41.90000 20.442
41.92000 15.949
41.94000 12.831
41.96000 14.296
41.98000 17.574
42.00000 16.823
42.02000 9.919
42.04000 10.131
42.06000 8.055
42.08000 7.244
42.10000 10.471
42.12000 9.428
42.14000 6.891
42.16000 9.980
42.18000 10.644
42.20000 5.642
42.22000 4.283
42.24000 2.971
42.26000 6.305
42.28000 2.414
42.30000 3.928
42.32000 8.267
42.34000 6.577
42.36000 5.402
42.38000 4.728
42.40000 0.934
42.42000 1.225
42.44000 2.487
42.46000 3.658
42.48000 2.952
42.50000 3.927
42.52000 7.270
42.54000 5.686
42.56000 0.989
42.58000 -1.367
42.60000 1.896
42.62000 -0.429
42.64000 -0.875
42.66000 2.046
42.68000 -0.043
42.70000 -0.373
42.72000 -1.394
42.74000 1.505
42.76000 -0.430
42.78000 -1.391
42.80000 -2.082
42.82000 -1.073
42.84000 2.566
42.86000 3.622
42.88000 -3.647
42.90000 -2.814
42.92000 -2.424
42.94000 -3.638
42.96000 -0.716
42.98000 2.766
43.00000 2.999
43.02000 1.076
43.04000 3.258
43.06000 1.293
43.08000 -2.799
43.10000 -2.470
43.12000 1.662
43.14000 6.541
43.16000 2.571
43.18000 -3.610
43.20000 -3.401
43.22000 -1.263
43.24000 0.730
43.26000 1.420
43.28000 1.995
43.30000 -1.274
43.32000 2.648
43.34000 6.523
43.36000 2.663
43.38000 0.389
43.40000 1.045
43.42000 1.512
43.44000 0.947
43.46000 2.300
43.48000 0.844
43.50000 1.286
43.52000 5.916
43.54000 9.044
43.56000 8.022
43.58000 7.324
43.60000 1.760
43.62000 0.131
43.64000 -3.567
43.66000 1.517
43.68000 2.649
43.70000 6.879
43.72000 8.800
43.74000 7.451
43.76000 5.355
43.78000 5.987
43.80000 4.752
43.82000 1.156
43.84000 4.703
43.86000 1.192
43.88000 -3.548
43.90000 -0.760
43.92000 7.273
43.94000 3.212
43.96000 0.153
43.98000 0.267
44.00000 0.857
44.02000 -2.466
44.04000 -1.231
44.06000 -0.666
44.08000 0.125
44.10000 -2.902
44.12000 -3.277
44.14000 -2.673
44.16000 1.872
44.18000 4.069
44.20000 -0.248
44.22000 -0.404
44.24000 -0.734
44.26000 1.157
44.28000 2.625
44.30000 1.041
44.32000 -1.826
44.34000 -2.088
44.36000 -1.414
44.38000 -1.565
44.40000 0.949
44.42000 2.326
44.44000 -1.114
44.46000 -0.370
44.48000 -2.513
44.50000 -3.587
44.52000 -1.490
44.54000 0.778
44.56000 -1.469
44.58000 -1.195
44.60000 2.772
44.62000 -1.439
44.64000 -2.616
44.66000 -0.602
44.68000 4.203
44.70000 2.741
44.72000 0.057
44.74000 -0.908
44.76000 1.139
44.78000 5.207
44.80000 1.691
44.82000 3.581
44.84000 -0.738
44.86000 -2.144
44.88000 1.032
44.90000 3.942
44.92000 2.106
44.94000 -0.525
44.96000 2.416
44.98000 4.790
45.00000 2.435
45.02000 2.451
45.04000 6.401
45.06000 3.863
45.08000 0.538
45.10000 0.962
45.12000 3.097
45.14000 3.666
45.16000 0.670
45.18000 4.620
45.20000 9.420
45.22000 8.265
45.24000 4.675
45.26000 6.475
45.28000 12.196
45.30000 11.215
45.32000 12.922
45.34000 10.409
45.36000 6.686
45.38000 13.003
45.40000 15.403
45.42000 12.411
45.44000 10.371
45.46000 13.307
45.48000 13.223
45.50000 14.077
45.52000 16.419
45.54000 17.616
45.56000 15.146
45.58000 16.191
45.60000 18.611
45.62000 18.428
45.64000 21.273
45.66000 18.939
45.68000 10.155
45.70000 19.105
45.72000 27.173
45.74000 30.536
45.76000 31.830
45.78000 26.276
45.80000 27.756
45.82000 28.136
45.84000 29.821
45.86000 27.718
45.88000 27.575
45.90000 31.524
45.92000 33.432
45.94000 32.469
45.96000 33.471
45.98000 32.623
46.00000 34.036
46.02000 39.778
46.04000 37.104
46.06000 41.255
46.08000 45.029
46.10000 48.684
46.12000 52.842
46.14000 46.686
46.16000 44.689
46.18000 47.609
46.20000 42.288
46.22000 51.939
46.24000 49.938
46.26000 51.479
46.28000 50.747
46.30000 54.019
46.32000 49.510
46.34000 52.466
46.36000 66.262
46.38000 70.472
46.40000 64.157
46.42000 63.782
46.44000 67.131
46.46000 69.610
46.48000 74.626
46.50000 71.220
46.52000 67.469
46.54000 69.355
46.56000 70.650
46.58000 64.097
46.60000 74.384
46.62000 76.080
46.64000 74.714
46.66000 75.997
46.68000 75.568
46.70000 75.376
46.72000 74.414
46.74000 82.808
46.76000 84.881
46.78000 82.310
46.80000 83.037
46.82000 84.533
46.84000 83.520
46.86000 83.680
46.88000 81.903
46.90000 83.764
46.92000 87.261
46.94000 85.637
46.96000 92.435
46.98000 86.944
47.00000 85.626
47.02000 85.093
47.04000 83.252
47.06000 78.250
47.08000 83.861
47.10000 84.211
47.12000 77.627
47.14000 76.594
47.16000 80.595
47.18000 79.244
47.20000 69.598
47.22000 68.592
47.24000 72.335
47.26000 74.544
47.28000 71.217
47.30000 66.471
47.32000 61.721
47.34000 61.207
47.36000 59.643
47.38000 57.704
47.40000 60.916
47.42000 54.366
47.44000 54.773
47.46000 53.714
47.48000 58.016
47.50000 53.617
47.52000 46.137
47.54000 47.369
47.56000 48.266
47.58000 39.728
47.60000 40.003
47.62000 39.818
47.64000 38.449
47.66000 37.378
47.68000 37.887
47.70000 34.614
47.72000 29.967
47.74000 33.859
47.76000 29.305
47.78000 23.906
47.80000 29.874
47.82000 27.267
47.84000 24.950
47.86000 23.399
47.88000 25.974
47.90000 23.742
47.92000 22.838
47.94000 20.971
47.96000 16.633
47.98000 13.154
48.00000 17.495
48.02000 12.349
48.04000 24.008
48.06000 19.793
48.08000 15.213
48.10000 18.620
48.12000 14.594
48.14000 14.118
48.16000 15.426
48.18000 13.662
48.20000 18.472
48.22000 12.628
48.24000 8.451
48.26000 9.492
48.28000 10.830
48.30000 8.649
48.32000 5.196
48.34000 6.755
48.36000 6.652
48.38000 11.534
48.40000 4.499
48.42000 4.293
48.44000 4.758
48.46000 5.004
48.48000 8.745
48.50000 16.761
48.52000 15.921
48.54000 7.475
48.56000 8.512
48.58000 8.407
48.60000 11.939
48.62000 9.286
48.64000 7.731
48.66000 10.684
48.68000 8.320
48.70000 4.412
48.72000 -1.508
48.74000 -3.226
48.76000 1.001
48.78000 4.307
48.80000 1.826
48.82000 -1.522
48.84000 1.100
48.86000 2.126
48.88000 6.081
48.90000 4.665
48.92000 1.965
48.94000 2.813
48.96000 -0.202
48.98000 1.347
49.00000 0.412
49.02000 2.555
49.04000 5.247
49.06000 8.689
49.08000 4.797
49.10000 3.059
49.12000 0.659
49.14000 -1.526
49.16000 -1.908
49.18000 0.171
49.20000 2.081
49.22000 -2.632
49.24000 0.033
49.26000 5.567
49.28000 7.324
49.30000 1.574
49.32000 4.546
49.34000 4.078
49.36000 0.073
49.38000 1.963
49.40000 -0.738
49.42000 -1.273
49.44000 -0.615
49.46000 -1.856
49.48000 0.346
49.50000 4.075
49.52000 6.671
49.54000 -0.755
49.56000 -1.372
49.58000 5.776
49.60000 3.106
49.62000 1.510
49.64000 1.429
49.66000 1.374
49.68000 3.746
49.70000 1.581
49.72000 0.925
49.74000 5.760
49.76000 6.413
49.78000 0.300
49.80000 -0.130
49.82000 0.116
49.84000 -0.868
49.86000 -2.111
49.88000 -0.350
49.90000 0.527
49.92000 1.016
49.94000 1.302
49.96000 0.007
49.98000 5.661
50.00000 11.587
50.02000 7.282
50.04000 5.990
50.06000 8.639
50.08000 -0.589
50.10000 1.305
50.12000 -3.096
50.14000 2.739
50.16000 9.002
50.18000 4.930
50.20000 -2.093
50.22000 0.773
50.24000 -2.222
50.26000 -0.303
50.28000 -3.080
50.30000 -0.245
50.32000 3.265
50.34000 4.850
50.36000 3.958
50.38000 1.304
50.40000 -0.084
50.42000 4.780
50.44000 -2.860
50.46000 0.372
50.48000 9.087
50.50000 6.868
50.52000 2.285
50.54000 -3.072
50.56000 3.120
50.58000 -0.693
50.60000 1.667
50.62000 3.032
50.64000 3.835
50.66000 2.308
50.68000 1.947
50.70000 2.895
50.72000 8.222
50.74000 3.237
50.76000 -2.518
50.78000 -1.724
50.80000 6.482
50.82000 6.787
50.84000 2.162
50.86000 -0.788
50.88000 3.293
50.90000 3.761
50.92000 6.074
50.94000 1.991
50.96000 -1.008
50.98000 0.271
51.00000 6.326
51.02000 2.101
51.04000 3.652
51.06000 4.792
51.08000 8.355
51.10000 3.414
51.12000 -0.461
51.14000 -2.262
51.16000 -0.684
51.18000 3.733
51.20000 -0.475
51.22000 1.574
51.24000 2.538
51.26000 1.261
51.28000 3.566
51.30000 5.690
51.32000 0.046
51.34000 0.327
51.36000 3.491
51.38000 9.330
51.40000 5.168
51.42000 0.912
51.44000 4.321
51.46000 3.269
51.48000 0.692
51.50000 -0.160
51.52000 0.108
51.54000 5.512
51.56000 1.536
51.58000 1.515
51.60000 2.916
51.62000 7.292
51.64000 8.386
51.66000 5.312
51.68000 5.047
51.70000 3.793
51.72000 2.209
51.74000 -0.194
51.76000 -2.997
51.78000 4.043
51.80000 7.072
51.82000 2.789
51.84000 1.855
51.86000 3.748
51.88000 6.174
51.90000 2.627
51.92000 1.450
51.94000 6.294
51.96000 6.734
51.98000 6.237
52.00000 3.460
52.02000 5.324
52.04000 5.060
52.06000 2.481
52.08000 7.109
52.10000 4.390
52.12000 8.311
52.14000 12.459
52.16000 5.496
52.18000 3.301
52.20000 8.574
52.22000 10.742
52.24000 6.053
52.26000 2.668
52.28000 8.506
52.30000 3.391
52.32000 0.499
52.34000 3.225
52.36000 3.803
52.38000 4.948
52.40000 2.470
52.42000 -0.236
52.44000 0.440
52.46000 5.478
52.48000 2.838
52.50000 6.378
52.52000 10.241
52.54000 5.880
52.56000 2.256
52.58000 0.970
52.60000 3.114
52.62000 7.281
52.64000 3.824
52.66000 3.944
52.68000 5.328
52.70000 3.384
52.72000 5.062
52.74000 -1.650
52.76000 0.782
52.78000 1.345
52.80000 7.227
52.82000 10.477
52.84000 8.024
52.86000 5.346
52.88000 6.901
52.90000 7.620
52.92000 5.606
52.94000 7.884
52.96000 7.288
52.98000 8.827
53.00000 8.890
53.02000 9.213
53.04000 6.291
53.06000 5.669
53.08000 4.307
53.10000 10.187
53.12000 12.658
53.14000 9.391
53.16000 6.367
53.18000 4.487
53.20000 3.953
53.22000 2.637
53.24000 4.389
53.26000 2.053
53.28000 5.096
53.30000 8.448
53.32000 5.016
53.34000 5.797
53.36000 5.382
53.38000 7.317
53.40000 7.369
53.42000 12.816
53.44000 10.214
53.46000 9.645
53.48000 7.242
53.50000 5.852
53.52000 4.774
53.54000 7.135
53.56000 8.118
53.58000 7.717
53.60000 1.117
53.62000 -2.872
53.64000 4.613
53.66000 11.370
53.68000 8.307
53.70000 9.114
53.72000 12.285
53.74000 10.076
53.76000 7.596
53.78000 9.172
53.80000 5.769
53.82000 -0.625
53.84000 1.757
53.86000 4.207
53.88000 5.029
53.90000 1.831
53.92000 3.694
53.94000 9.163
53.96000 8.174
53.98000 5.196
54.00000 1.656
54.02000 1.457
54.04000 9.804
54.06000 11.423
54.08000 4.475
54.10000 -2.612
54.12000 -2.028
54.14000 5.092
54.16000 2.756
54.18000 6.215
54.20000 7.980
54.22000 5.780
54.24000 7.634
54.26000 8.504
54.28000 5.918
54.30000 4.646
54.32000 3.019
54.34000 1.809
54.36000 3.378
54.38000 6.669
54.40000 1.070
54.42000 5.251
54.44000 4.900
54.46000 3.739
54.48000 5.481
54.50000 6.604
54.52000 5.280
54.54000 1.686
54.56000 5.292
54.58000 3.985
54.60000 1.814
54.62000 5.567
54.64000 4.958
54.66000 1.623
54.68000 0.484
54.70000 5.241
54.72000 5.939
54.74000 6.344
54.76000 2.936
54.78000 6.657
54.80000 7.146
54.82000 6.048
54.84000 6.871
54.86000 2.926
54.88000 6.906
54.90000 3.890
54.92000 -0.716
54.94000 1.993
54.96000 5.135
54.98000 0.963
55.00000 2.058
55.02000 3.078
55.04000 11.209
55.06000 7.652
55.08000 1.773
55.10000 5.635
55.12000 3.088
55.14000 10.459
55.16000 4.796
55.18000 2.765
55.20000 3.523
55.22000 -0.069
55.24000 1.098
55.26000 1.278
55.28000 1.843
55.30000 7.830
55.32000 6.816
55.34000 4.887
55.36000 3.975
55.38000 4.374
55.40000 2.251
55.42000 1.596
55.44000 3.255
55.46000 -1.402
55.48000 -2.913
55.50000 -0.612
55.52000 1.477
55.54000 0.815
55.56000 -2.878
55.58000 -2.072
55.60000 0.038
55.62000 1.387
55.64000 -2.776
55.66000 1.020
55.68000 4.827
55.70000 2.990
55.72000 -1.931
55.74000 -0.895
55.76000 -0.529
55.78000 2.750
55.80000 2.050
55.82000 3.831
55.84000 0.275
55.86000 -0.659
55.88000 1.669
55.90000 1.775
55.92000 -1.447
55.94000 4.384
55.96000 2.278
55.98000 2.725
56.00000 4.629
56.02000 2.319
56.04000 3.938
56.06000 2.490
56.08000 5.702
56.10000 4.645
56.12000 4.497
56.14000 4.335
56.16000 -0.056
56.18000 0.968
56.20000 1.892
56.22000 4.276
56.24000 1.332
56.26000 -2.900
56.28000 0.116
56.30000 -1.017
56.32000 -1.088
56.34000 -2.204
56.36000 -0.431
56.38000 2.003
56.40000 1.604
56.42000 0.022
56.44000 -2.218
56.46000 0.436
56.48000 1.958
56.50000 -0.373
56.52000 -2.891
56.54000 3.378
56.56000 1.955
56.58000 3.077
56.60000 3.232
56.62000 6.878
56.64000 7.499
56.66000 -0.946
56.68000 0.650
56.70000 6.570
56.72000 8.120
56.74000 8.589
56.76000 -0.644
56.78000 1.023
56.80000 1.899
56.82000 -1.959
56.84000 -0.549
56.86000 0.118
56.88000 -0.259
56.90000 0.186
56.92000 -2.875
56.94000 2.354
56.96000 2.143
56.98000 3.447
57.00000 6.594
57.02000 5.747
57.04000 2.432
57.06000 0.049
57.08000 5.400
57.10000 0.043
57.12000 0.538
57.14000 0.978
57.16000 -1.692
57.18000 -1.767
57.20000 -1.300
57.22000 2.774
57.24000 6.475
57.26000 1.120
57.28000 2.712
57.30000 3.173
57.32000 2.499
57.34000 1.992
57.36000 2.411
57.38000 3.934
57.40000 3.837
57.42000 -0.853
57.44000 -2.837
57.46000 0.670
57.48000 5.174
57.50000 6.665
57.52000 5.155
57.54000 4.719
57.56000 6.713
57.58000 2.789
57.60000 6.598
57.62000 8.510
57.64000 -1.287
57.66000 1.618
57.68000 2.367
57.70000 -0.322
57.72000 1.111
57.74000 5.982
57.76000 7.229
57.78000 5.915
57.80000 4.052
57.82000 2.344
57.84000 3.566
57.86000 1.939
57.88000 3.170
57.90000 1.062
57.92000 -1.982
57.94000 2.590
57.96000 1.236
57.98000 2.471
58.00000 5.162
58.02000 8.286
58.04000 5.632
58.06000 -0.183
58.08000 3.071
58.10000 2.506
58.12000 3.416
58.14000 2.599
58.16000 -1.608
58.18000 1.364
58.20000 1.995
58.22000 2.516
58.24000 4.621
58.26000 7.067
58.28000 7.497
58.30000 0.633
58.32000 -1.613
58.34000 2.348
58.36000 1.779
58.38000 3.427
58.40000 4.399
58.42000 4.273
58.44000 4.884
58.46000 7.621
58.48000 7.704
58.50000 5.359
58.52000 5.255
58.54000 6.129
58.56000 8.164
58.58000 7.750
58.60000 7.233
58.62000 -2.758
58.64000 1.466
58.66000 1.788
58.68000 6.478
58.70000 7.153
58.72000 7.928
58.74000 8.045
58.76000 7.411
58.78000 9.038
58.80000 12.093
58.82000 7.898
58.84000 4.283
58.86000 6.271
58.88000 5.164
58.90000 0.366
58.92000 3.286
58.94000 8.081
58.96000 8.778
58.98000 8.179
59.00000 4.514
59.02000 7.171
59.04000 6.400
59.06000 2.098
59.08000 1.110
59.10000 1.503
59.12000 1.262
59.14000 1.185
59.16000 1.605
59.18000 2.131
59.20000 5.578
59.22000 4.088
59.24000 -1.480
59.26000 -2.779
59.28000 5.457
59.30000 3.038
59.32000 2.287
59.34000 5.111
59.36000 8.435
59.38000 3.123
59.40000 4.452
59.42000 1.459
59.44000 -2.523
59.46000 0.951
59.48000 3.579
59.50000 4.356
59.52000 3.029
59.54000 -1.142
59.56000 -0.329
59.58000 6.425
59.60000 5.947
59.62000 3.975
59.64000 4.274
59.66000 3.340
59.68000 3.691
59.70000 -1.144
59.72000 -0.346
59.74000 0.071
59.76000 0.754
59.78000 1.663
59.80000 7.160
59.82000 3.197
59.84000 3.690
59.86000 6.637
59.88000 7.030
59.90000 8.694
59.92000 2.054
59.94000 6.036
59.96000 5.172
59.98000 -1.042
60.00000 -0.710
60.02000 0.433
60.04000 0.025
60.06000 4.284
60.08000 6.102
60.10000 3.676
60.12000 0.398
60.14000 1.733
60.16000 -1.039
60.18000 0.689
60.20000 2.387
60.22000 1.261
60.24000 -0.767
60.26000 -2.766
60.28000 1.327
60.30000 -1.281
60.32000 1.356
60.34000 3.501
60.36000 1.776
60.38000 2.716
60.40000 -1.709
60.42000 -1.149
60.44000 0.773
60.46000 1.967
60.48000 1.997
60.50000 -2.230
60.52000 0.293
60.54000 3.526
60.56000 1.310
60.58000 -1.254
60.60000 0.071
60.62000 3.891
60.64000 4.113
60.66000 0.066
60.68000 2.125
60.70000 2.935
60.72000 4.318
60.74000 3.190
60.76000 -0.454
60.78000 -1.408
60.80000 1.431
60.82000 1.393
60.84000 0.753
60.86000 -0.265
60.88000 -0.937
60.90000 0.259
60.92000 -0.524
60.94000 -1.385
60.96000 0.631
60.98000 1.305
61.00000 1.302
61.02000 -2.062
61.04000 -2.741
61.06000 -0.321
61.08000 2.546
61.10000 3.437
61.12000 6.035
61.14000 5.597
61.16000 2.720
61.18000 -2.685
61.20000 0.101
61.22000 0.367
61.24000 2.567
61.26000 3.072
61.28000 2.669
61.30000 -0.902
61.32000 2.149
61.34000 1.068
61.36000 1.488
61.38000 5.800
61.40000 5.749
61.42000 5.856
61.44000 3.472
61.46000 0.352
61.48000 -0.552
61.50000 1.026
61.52000 -1.766
61.54000 3.557
61.56000 2.829
61.58000 3.647
61.60000 2.058
61.62000 -1.349
61.64000 2.212
61.66000 2.527
61.68000 3.233
61.70000 -0.273
61.72000 2.314
61.74000 2.769
61.76000 4.839
61.78000 2.919
61.80000 1.476
61.82000 -1.460
61.84000 0.284
61.86000 1.368
61.88000 6.014
61.90000 4.366
61.92000 3.241
61.94000 1.012
61.96000 3.245
61.98000 5.577
62.00000 0.593
62.02000 -2.667
62.04000 -0.414
62.06000 6.287
62.08000 3.631
62.10000 1.584
62.12000 2.401
62.14000 5.791
62.16000 6.376
62.18000 5.565
62.20000 2.537
62.22000 2.927
62.24000 2.801
62.26000 4.461
62.28000 6.470
62.30000 0.526
62.32000 6.505
62.34000 3.938
62.36000 1.808
62.38000 3.974
62.40000 7.546
62.42000 5.713
62.44000 4.252
62.46000 6.091
62.48000 4.896
62.50000 4.877
62.52000 3.321
62.54000 3.059
62.56000 5.392
62.58000 4.473
62.60000 5.331
62.62000 6.559
62.64000 2.149
62.66000 1.803
62.68000 6.282
62.70000 4.744
62.72000 4.834
62.74000 1.319
62.76000 0.185
62.78000 1.996
62.80000 3.276
62.82000 -2.202
62.84000 0.096
62.86000 4.387
62.88000 1.940
62.90000 3.533
62.92000 3.825
62.94000 2.091
62.96000 1.303
62.98000 1.447
63.00000 3.663
63.02000 -1.421
63.04000 -1.303
63.06000 1.040
63.08000 4.835
63.10000 4.091
63.12000 4.067
63.14000 0.445
63.16000 -1.798
63.18000 0.926
63.20000 2.330
63.22000 1.204
63.24000 4.816
63.26000 2.691
63.28000 0.873
63.30000 -2.703
63.32000 0.287
63.34000 -0.771
63.36000 -1.441
63.38000 1.129
63.40000 2.403
63.42000 1.745
63.44000 3.988
63.46000 -0.841
63.48000 0.072
63.50000 -0.146
63.52000 4.368
63.54000 5.021
63.56000 3.403
63.58000 -0.876
63.60000 1.526
63.62000 0.803
63.64000 1.636
63.66000 0.914
63.68000 2.611
63.70000 0.862
63.72000 -0.624
63.74000 0.704
63.76000 1.613
63.78000 1.507
63.80000 3.440
63.82000 0.343
63.84000 -2.453
63.86000 1.460
63.88000 1.888
63.90000 3.161
63.92000 -2.334
63.94000 -1.963
63.96000 0.542
63.98000 -1.893
64.00000 -1.758
64.02000 1.549
64.04000 -0.478
64.06000 2.097
64.08000 4.334
64.10000 -1.152
64.12000 -2.712
64.14000 1.312
64.16000 2.051
64.18000 -1.654
64.20000 0.866
64.22000 3.536
64.24000 0.198
64.26000 0.124
64.28000 4.737
64.30000 -2.275
64.32000 -0.773
64.34000 5.186
64.36000 5.138
64.38000 6.890
64.40000 4.183
64.42000 0.072
64.44000 0.594
64.46000 3.722
64.48000 3.814
64.50000 2.693
64.52000 1.427
64.54000 5.630
64.56000 2.137
64.58000 4.670
64.60000 5.755
64.62000 6.242
64.64000 2.952
64.66000 0.806
64.68000 2.003
64.70000 5.720
64.72000 3.631
64.74000 1.575
64.76000 0.313
64.78000 1.740
64.80000 4.464
64.82000 2.528
64.84000 -1.083
64.86000 -2.692
64.88000 1.610
64.90000 6.790
64.92000 6.357
64.94000 3.205
64.96000 6.665
64.98000 2.768
65.00000 -0.073
65.02000 1.930
65.04000 2.262
65.06000 2.125
65.08000 1.444
65.10000 5.382
65.12000 3.252
65.14000 4.836
65.16000 2.114
65.18000 1.877
65.20000 0.298
65.22000 1.092
65.24000 4.683
65.26000 4.248
65.28000 6.289
65.30000 2.735
65.32000 4.577
65.34000 4.203
65.36000 2.060
65.38000 3.060
65.40000 0.273
65.42000 -2.512
65.44000 2.223
65.46000 1.464
65.48000 -1.274
65.50000 -2.718
65.52000 0.167
65.54000 5.321
65.56000 3.028
65.58000 5.732
65.60000 5.705
65.62000 0.333
65.64000 3.950
65.66000 3.184
65.68000 1.636
65.70000 -2.304
65.72000 -0.596
65.74000 3.713
65.76000 5.715
65.78000 6.140
65.80000 2.248
65.82000 0.268
65.84000 -0.169
65.86000 0.869
65.88000 2.813
65.90000 3.271
65.92000 3.789
65.94000 2.341
65.96000 5.039
65.98000 4.960
66.00000 0.693
66.02000 -0.381
66.04000 0.071
66.06000 3.090
66.08000 5.259
66.10000 4.466
66.12000 2.471
66.14000 2.467
66.16000 1.516
66.18000 0.084
66.20000 0.606
66.22000 1.613
66.24000 3.277
66.26000 4.297
66.28000 2.813
66.30000 -2.756
66.32000 -0.462
66.34000 0.233
66.36000 -2.760
66.38000 -2.761
66.40000 3.976
66.42000 0.956
66.44000 2.841
66.46000 3.849
66.48000 5.082
66.50000 3.849
66.52000 4.138
66.54000 3.350
66.56000 5.293
66.58000 3.538
66.60000 0.507
66.62000 1.519
66.64000 1.315
66.66000 1.472
66.68000 4.888
66.70000 7.017
66.72000 3.297
66.74000 4.767
66.76000 2.206
66.78000 -0.484
66.80000 3.629
66.82000 6.387
66.84000 3.337
66.86000 1.250
66.88000 3.443
66.90000 3.196
66.92000 0.262
66.94000 1.427
66.96000 3.044
66.98000 5.531
67.00000 6.416
67.02000 8.473
67.04000 3.265
67.06000 3.764
67.08000 4.450
67.10000 3.122
67.12000 7.024
67.14000 8.770
67.16000 6.228
67.18000 5.102
67.20000 8.684
67.22000 12.519
67.24000 11.024
67.26000 8.113
67.28000 5.298
67.30000 6.667
67.32000 8.161
67.34000 9.199
67.36000 13.496
67.38000 13.973
67.40000 11.961
67.42000 13.680
67.44000 12.552
67.46000 12.035
67.48000 16.208
67.50000 12.131
67.52000 10.202
67.54000 11.297
67.56000 10.405
67.58000 13.149
67.60000 14.594
67.62000 11.881
67.64000 16.821
67.66000 17.978
67.68000 17.412
67.70000 14.825
67.72000 15.440
67.74000 17.104
67.76000 16.705
67.78000 12.881
67.80000 14.224
67.82000 14.613
67.84000 16.131
67.86000 15.029
67.88000 13.995
67.90000 22.888
67.92000 26.999
67.94000 20.426
67.96000 18.798
67.98000 19.661
68.00000 17.703
68.02000 17.086
68.04000 22.792
68.06000 23.082
68.08000 23.189
68.10000 26.095
68.12000 27.256
68.14000 27.527
68.16000 26.182
68.18000 25.262
68.20000 23.182
68.22000 23.169
68.24000 23.359
68.26000 25.230
68.28000 27.037
68.30000 25.457
68.32000 24.265
68.34000 31.489
68.36000 30.575
68.38000 24.964
68.40000 25.183
68.42000 28.040
68.44000 28.596
68.46000 29.060
68.48000 28.426
68.50000 26.731
68.52000 29.361
68.54000 29.541
68.56000 27.788
68.58000 22.161
68.60000 25.057
68.62000 28.920
68.64000 31.025
68.66000 32.887
68.68000 28.107
68.70000 27.782
68.72000 27.112
68.74000 22.659
68.76000 22.262
68.78000 25.636
68.80000 26.890
68.82000 18.039
68.84000 23.169
68.86000 27.963
68.88000 27.026
68.90000 23.561
68.92000 23.781
68.94000 21.840
68.96000 23.783
68.98000 17.485
69.00000 16.127
69.02000 22.458
69.04000 21.645
69.06000 19.248
69.08000 20.941
69.10000 22.420
69.12000 14.377
69.14000 15.054
69.16000 19.760
69.18000 19.872
69.20000 18.476
69.22000 19.273
69.24000 14.401
69.26000 14.767
69.28000 17.972
69.30000 15.902
69.32000 12.150
69.34000 11.418
69.36000 13.686
69.38000 12.456
69.40000 11.385
69.42000 14.574
69.44000 16.018
69.46000 16.420
69.48000 12.461
69.50000 9.024
69.52000 5.698
69.54000 10.784
69.56000 13.347
69.58000 11.365
69.60000 8.836
69.62000 8.943
69.64000 4.724
69.66000 9.508
69.68000 6.614
69.70000 4.645
69.72000 8.175
69.74000 10.839
69.76000 7.213
69.78000 6.642
69.80000 9.230
69.82000 10.589
69.84000 8.318
69.86000 5.449
69.88000 4.075
69.90000 9.646
69.92000 8.120
69.94000 8.164
69.96000 8.206
69.98000 9.957
70.00000 9.567
70.02000 6.559
70.04000 5.417
70.06000 6.308
70.08000 4.015
70.10000 -2.614
70.12000 0.385
70.14000 2.736
70.16000 7.789
70.18000 7.680
70.20000 8.375
70.22000 5.595
70.24000 4.969
70.26000 9.380
70.28000 3.875
70.30000 0.932
70.32000 5.222
70.34000 4.886
70.36000 2.886
70.38000 2.954
70.40000 1.384
70.42000 3.553
70.44000 2.621
70.46000 2.397
70.48000 4.953
70.50000 7.957
70.52000 1.245
70.54000 0.123
70.56000 0.562
70.58000 5.433
70.60000 5.169
70.62000 3.469
70.64000 5.245
70.66000 4.637
70.68000 8.188
70.70000 6.261
70.72000 -0.670
70.74000 -1.571
70.76000 3.740
70.78000 7.015
70.80000 6.864
70.82000 4.149
70.84000 2.207
70.86000 2.803
70.88000 3.126
70.90000 2.576
70.92000 8.553
70.94000 7.168
70.96000 5.768
70.98000 4.056
71.00000 2.805
71.02000 5.835
71.04000 4.472
71.06000 2.283
71.08000 2.724
71.10000 3.942
71.12000 3.489
71.14000 1.707
71.16000 1.809
71.18000 1.235
71.20000 -2.547
71.22000 -0.501
71.24000 5.302
71.26000 3.664
71.28000 1.808
71.30000 2.141
71.32000 6.400
71.34000 5.722
71.36000 5.497
71.38000 8.682
71.40000 2.393
71.42000 2.603
71.44000 1.826
71.46000 1.233
71.48000 6.232
71.50000 6.395
71.52000 6.944
71.54000 3.379
71.56000 5.120
71.58000 4.200
71.60000 -0.112
71.62000 -1.710
71.64000 -1.545
71.66000 1.072
71.68000 2.733
71.70000 3.187
71.72000 8.369
71.74000 -0.015
71.76000 -1.014
71.78000 1.553
71.80000 4.110
71.82000 2.932
71.84000 2.009
71.86000 4.093
71.88000 5.304
71.90000 4.091
71.92000 -1.015
71.94000 -2.532
71.96000 -2.531
71.98000 2.625
72.00000 4.227
72.02000 1.420
72.04000 9.004
72.06000 4.236
72.08000 3.611
72.10000 2.999
72.12000 4.668
72.14000 2.066
72.16000 6.103
72.18000 0.573
72.20000 2.270
72.22000 1.505
72.24000 4.285
72.26000 3.853
72.28000 0.432
72.30000 2.329
72.32000 5.103
72.34000 3.813
72.36000 -1.231
72.38000 2.819
72.40000 3.487
72.42000 2.781
72.44000 -2.166
72.46000 -2.530
72.48000 -0.126
72.50000 0.489
72.52000 6.130
72.54000 3.832
72.56000 -0.867
72.58000 -0.683
72.60000 2.814
72.62000 5.347
72.64000 5.183
72.66000 0.411
72.68000 1.207
72.70000 6.800
72.72000 7.871
72.74000 6.457
72.76000 0.941
72.78000 1.073
72.80000 2.705
72.82000 -0.020
72.84000 2.253
72.86000 0.624
72.88000 0.157
72.90000 0.615
72.92000 3.128
72.94000 2.797
72.96000 -2.511
72.98000 2.042
73.00000 4.287
73.02000 2.430
73.04000 4.360
73.06000 5.297
73.08000 2.202
73.10000 2.659
73.12000 2.272
73.14000 2.697
73.16000 -1.371
73.18000 1.757
73.20000 6.439
73.22000 4.270
73.24000 7.230
73.26000 3.954
73.28000 3.681
73.30000 6.140
73.32000 4.789
73.34000 6.697
73.36000 4.554
73.38000 3.020
73.40000 6.170
73.42000 7.029
73.44000 6.214
73.46000 4.404
73.48000 3.752
73.50000 2.842
73.52000 -2.472
73.54000 3.030
73.56000 6.279
73.58000 4.329
73.60000 -2.469
73.62000 1.725
73.64000 10.770
73.66000 4.690
73.68000 -0.017
73.70000 -0.036
73.72000 4.323
73.74000 7.347
73.76000 8.697
73.78000 4.147
73.80000 -0.303
73.82000 3.278
73.84000 2.142
73.86000 -1.217
73.88000 -0.296
73.90000 2.525
73.92000 -0.885
73.94000 -0.815
73.96000 1.392
73.98000 0.986
74.00000 -0.660
74.02000 1.035
74.04000 1.027
74.06000 3.750
74.08000 4.117
74.10000 4.983
74.12000 7.794
74.14000 5.011
74.16000 -1.158
74.18000 -1.273
74.20000 1.763
74.22000 3.482
74.24000 4.169
74.26000 5.049
74.28000 7.580
74.30000 7.221
74.32000 8.192
74.34000 4.781
74.36000 0.114
74.38000 3.250
74.40000 5.157
74.42000 3.394
74.44000 2.017
74.46000 -0.310
74.48000 1.155
74.50000 0.708
74.52000 -2.486
74.54000 0.121
74.56000 3.397
74.58000 5.417
74.60000 0.947
74.62000 0.092
74.64000 1.628
74.66000 1.359
74.68000 1.418
74.70000 3.203
74.72000 3.096
74.74000 0.495
74.76000 6.371
74.78000 5.729
74.80000 -0.667
74.82000 0.983
74.84000 3.025
74.86000 3.912
74.88000 7.194
74.90000 4.707
74.92000 5.889
74.94000 5.834
74.96000 7.782
74.98000 -0.054
75.00000 0.967
75.02000 1.167
75.04000 1.209
75.06000 1.850
75.08000 3.133
75.10000 3.108
75.12000 0.025
75.14000 -0.840
75.16000 1.374
75.18000 6.579
75.20000 10.326
75.22000 5.073
75.24000 1.899
75.26000 0.009
75.28000 -2.476
75.30000 3.044
75.32000 1.933
75.34000 3.456
75.36000 6.996
75.38000 7.953
75.40000 8.307
75.42000 8.086
75.44000 3.430
75.46000 3.682
75.48000 3.099
75.50000 2.813
75.52000 -1.314
75.54000 1.825
75.56000 3.566
75.58000 5.813
75.60000 6.018
75.62000 5.334
75.64000 5.622
75.66000 -1.180
75.68000 0.225
75.70000 1.793
75.72000 0.295
75.74000 4.712
75.76000 9.547
75.78000 6.411
75.80000 -1.691
75.82000 0.464
75.84000 6.233
75.86000 9.749
75.88000 10.372
75.90000 7.235
75.92000 4.180
75.94000 2.624
75.96000 -0.184
75.98000 2.161
76.00000 1.452
76.02000 2.205
76.04000 3.067
76.06000 6.289
76.08000 4.223
76.10000 0.606
76.12000 4.264
76.14000 5.940
76.16000 3.128
76.18000 3.487
76.20000 0.379
76.22000 1.680
76.24000 1.565
76.26000 0.978
76.28000 3.829
76.30000 4.494
76.32000 3.641
76.34000 2.465
76.36000 -2.473
76.38000 -1.608
76.40000 0.749
76.42000 3.005
76.44000 6.207
76.46000 4.820
76.48000 1.455
76.50000 2.496
76.52000 3.484
76.54000 6.263
76.56000 7.841
76.58000 1.368
76.60000 2.645
76.62000 2.246
76.64000 0.725
76.66000 1.853
76.68000 4.653
76.70000 1.717
76.72000 2.624
76.74000 1.634
76.76000 4.046
76.78000 0.970
76.80000 3.926
76.82000 3.274
76.84000 1.552
76.86000 0.941
76.88000 3.262
76.90000 8.505
76.92000 5.614
76.94000 2.651
76.96000 5.387
76.98000 7.616
77.00000 6.455
77.02000 9.311
77.04000 2.106
77.06000 0.074
77.08000 1.322
77.10000 1.244
77.12000 0.839
77.14000 4.064
77.16000 5.706
77.18000 3.716
77.20000 3.010
77.22000 6.161
77.24000 3.237
77.26000 3.552
77.28000 2.415
77.30000 -1.528
77.32000 -1.838
77.34000 -0.907
77.36000 -0.413
77.38000 2.068
77.40000 0.960
77.42000 6.152
77.44000 4.210
77.46000 -0.227
77.48000 -0.157
77.50000 -0.881
77.52000 0.193
77.54000 2.325
77.56000 5.612
77.58000 4.330
77.60000 6.025
77.62000 3.673
77.64000 0.478
77.66000 2.077
77.68000 1.896
77.70000 3.134
77.72000 3.684
77.74000 11.134
77.76000 6.853
77.78000 2.441
77.80000 0.450
77.82000 -1.228
77.84000 5.055
77.86000 6.266
77.88000 2.456
77.90000 0.346
77.92000 2.254
77.94000 1.368
77.96000 6.458
77.98000 7.345
78.00000 10.573
78.02000 6.407
78.04000 3.607
78.06000 2.516
78.08000 2.374
78.10000 -1.721
78.12000 -2.501
78.14000 3.783
78.16000 -2.472
78.18000 0.683
78.20000 4.058
78.22000 0.298
78.24000 1.824
78.26000 0.489
78.28000 1.924
78.30000 4.305
78.32000 10.280
78.34000 10.587
78.36000 3.829
78.38000 3.844
78.40000 3.129
78.42000 4.286
78.44000 2.233
78.46000 -1.116
78.48000 -0.753
78.50000 5.387
78.52000 6.264
78.54000 7.692
78.56000 1.144
78.58000 2.305
78.60000 4.190
78.62000 0.862
78.64000 4.876
78.66000 4.090
78.68000 -0.611
78.70000 4.065
78.72000 1.204
78.74000 -1.280
78.76000 1.905
78.78000 6.284
78.80000 5.016
78.82000 3.521
78.84000 6.019
78.86000 4.858
78.88000 4.566
78.90000 5.933
78.92000 0.922
78.94000 1.582
78.96000 3.484
78.98000 4.724
79.00000 6.705
79.02000 2.246
79.04000 2.849
79.06000 2.217
79.08000 3.201
79.10000 4.547
79.12000 2.584
79.14000 0.109
79.16000 2.817
79.18000 6.281
79.20000 9.500
79.22000 5.299
79.24000 -0.506
79.26000 -2.557
79.28000 1.797
79.30000 0.705
79.32000 4.333
79.34000 6.491
79.36000 5.762
79.38000 10.731
79.40000 6.155
79.42000 8.613
79.44000 1.880
79.46000 5.071
79.48000 5.996
79.50000 6.242
79.52000 6.040
79.54000 5.865
79.56000 4.259
79.58000 2.943
79.60000 2.505
79.62000 4.733
79.64000 3.152
79.66000 0.344
79.68000 -0.339
79.70000 7.705
79.72000 6.244
79.74000 1.429
79.76000 0.872
79.78000 1.371
79.80000 3.522
79.82000 1.083
79.84000 2.042
79.86000 3.064
79.88000 0.157
79.90000 1.605
79.92000 3.164
79.94000 7.736
79.96000 4.160
79.98000 0.716
80.00000 -2.612
80.02000 -2.208
80.04000 5.337
80.06000 8.379
80.08000 7.483
80.10000 4.304
80.12000 1.224
80.14000 5.065
80.16000 3.742
80.18000 2.172
80.20000 -1.948
80.22000 -0.707
80.24000 2.162
80.26000 3.802
80.28000 6.892
80.30000 5.169
80.32000 5.783
80.34000 9.517
80.36000 12.844
80.38000 4.028
80.40000 -1.754
80.42000 -2.297
80.44000 3.845
80.46000 2.871
80.48000 6.899
80.50000 1.241
80.52000 3.446
80.54000 6.868
80.56000 5.233
80.58000 4.655
80.60000 3.044
80.62000 3.732
80.64000 0.882
80.66000 -2.567
80.68000 1.403
80.70000 4.457
80.72000 1.653
80.74000 1.449
80.76000 4.852
80.78000 4.547
80.80000 5.530
80.82000 6.875
80.84000 11.251
80.86000 7.422
80.88000 4.489
80.90000 7.087
80.92000 2.850
80.94000 5.759
80.96000 7.722
80.98000 7.690
81.00000 3.258
81.02000 4.217
81.04000 1.533
81.06000 1.527
81.08000 4.826
81.10000 4.516
81.12000 6.676
81.14000 8.017
81.16000 8.450
81.18000 3.742
81.20000 0.305
81.22000 0.078
81.24000 7.247
81.26000 3.200
81.28000 2.727
81.30000 2.938
81.32000 6.082
81.34000 7.090
81.36000 5.323
81.38000 6.686
81.40000 5.430
81.42000 5.219
81.44000 5.578
81.46000 7.234
81.48000 8.077
81.50000 8.183
81.52000 7.904
81.54000 11.917
81.56000 15.602
81.58000 11.445
81.60000 14.572
81.62000 13.038
81.64000 12.924
81.66000 12.001
81.68000 10.034
81.70000 11.577
81.72000 11.921
81.74000 11.184
81.76000 6.644
81.78000 7.805
81.80000 19.332
81.82000 15.424
81.84000 16.241
81.86000 17.180
81.88000 16.677
81.90000 13.966
81.92000 12.650
81.94000 11.470
81.96000 15.019
81.98000 16.819
82.00000 19.181
82.02000 17.546
82.04000 15.993
82.06000 18.599
82.08000 16.670
82.10000 17.688
82.12000 11.586
82.14000 10.014
82.16000 21.093
82.18000 19.801
82.20000 20.215
82.22000 13.179
82.24000 16.540
82.26000 19.635
82.28000 25.905
82.30000 19.942
82.32000 19.170
82.34000 17.401
82.36000 21.804
82.38000 21.991
82.40000 21.797
82.42000 26.626
82.44000 23.529
82.46000 25.228
82.48000 25.408
82.50000 21.128
82.52000 24.972
82.54000 24.979
82.56000 22.557
82.58000 29.846
82.60000 28.560
82.62000 23.077
82.64000 25.002
82.66000 22.745
82.68000 23.479
82.70000 30.951
82.72000 26.383
82.74000 27.808
82.76000 27.245
82.78000 27.672
82.80000 20.554
82.82000 21.646
82.84000 20.259
82.86000 22.619
82.88000 26.057
82.90000 23.320
82.92000 25.869
82.94000 27.571
82.96000 23.957
82.98000 23.645
83.00000 15.559
83.02000 23.561
83.04000 23.545
83.06000 25.516
83.08000 23.826
83.10000 21.595
83.12000 26.629
83.14000 29.722
83.16000 26.724
83.18000 26.483
83.20000 26.307
83.22000 21.844
83.24000 18.261
83.26000 20.358
83.28000 18.266
83.30000 21.224
83.32000 15.770
83.34000 20.433
83.36000 18.621
83.38000 20.580
83.40000 17.347
83.42000 9.977
83.44000 10.159
83.46000 11.758
83.48000 14.777
83.50000 9.634
83.52000 10.251
83.54000 13.546
83.56000 19.509
83.58000 16.654
83.60000 15.353
83.62000 15.446
83.64000 14.126
83.66000 16.467
83.68000 16.301
83.70000 16.096
83.72000 17.246
83.74000 19.509
83.76000 12.592
83.78000 6.490
83.80000 10.346
83.82000 11.221
83.84000 6.392
83.86000 7.116
83.88000 7.461
83.90000 3.850
83.92000 7.883
83.94000 10.001
83.96000 7.637
83.98000 8.255
84.00000 10.785
84.02000 10.624
84.04000 9.507
84.06000 9.641
84.08000 6.155
84.10000 1.363
84.12000 1.067
84.14000 6.251
84.16000 8.847
84.18000 6.168
84.20000 5.557
84.22000 4.366
84.24000 7.027
84.26000 6.124
84.28000 6.275
84.30000 -0.211
84.32000 -1.348
84.34000 1.566
84.36000 -0.412
84.38000 -0.913
84.40000 1.205
84.42000 5.344
84.44000 9.321
84.46000 4.297
84.48000 5.311
84.50000 10.807
84.52000 11.672
84.54000 10.273
84.56000 5.381
84.58000 -0.536
84.60000 2.054
84.62000 -0.414
84.64000 -1.387
84.66000 5.119
84.68000 2.708
84.70000 -0.354
84.72000 2.487
84.74000 2.180
84.76000 1.460
84.78000 -2.240
84.80000 -2.631
84.82000 0.546
84.84000 2.253
84.86000 2.091
84.88000 1.915
84.90000 2.444
84.92000 6.502
84.94000 8.330
84.96000 7.722
84.98000 6.931
85.00000 6.234
85.02000 7.430
85.04000 5.539
85.06000 -0.031
85.08000 4.166
85.10000 3.374
85.12000 3.346
85.14000 6.625
85.16000 8.616
85.18000 7.570
85.20000 7.354
85.22000 6.291
85.24000 2.999
85.26000 1.717
85.28000 3.230
85.30000 -1.305
85.32000 1.952
85.34000 1.692
85.36000 0.515
85.38000 -2.604
85.40000 0.418
85.42000 -0.525
85.44000 -0.844
85.46000 4.052
85.48000 1.891
85.50000 3.191
85.52000 2.796
85.54000 3.759
85.56000 4.166
85.58000 -1.655
85.60000 3.837
85.62000 3.675
85.64000 7.671
85.66000 6.155
85.68000 5.086
85.70000 7.224
85.72000 10.931
85.74000 8.014
85.76000 6.083
85.78000 2.400
85.80000 3.822
85.82000 5.334
85.84000 5.560
85.86000 3.389
85.88000 3.895
85.90000 7.638
85.92000 6.814
85.94000 -0.346
85.96000 0.721
85.98000 2.474
86.00000 6.325
86.02000 6.114
86.04000 4.821
86.06000 7.026
86.08000 10.490
86.10000 9.846
86.12000 12.549
86.14000 14.606
86.16000 12.832
86.18000 16.652
86.20000 13.322
86.22000 12.512
86.24000 13.257
86.26000 9.741
86.28000 8.536
86.30000 11.464
86.32000 9.812
86.34000 14.630
86.36000 22.093
86.38000 14.396
86.40000 11.561
86.42000 19.684
86.44000 18.260
86.46000 13.678
86.48000 14.409
86.50000 14.148
86.52000 9.913
86.54000 10.751
86.56000 16.655
86.58000 20.945
86.60000 16.967
86.62000 17.828
86.64000 17.153
86.66000 23.365
86.68000 22.389
86.70000 22.650
86.72000 21.117
86.74000 21.148
86.76000 27.751
86.78000 31.515
86.80000 30.459
86.82000 26.618
86.84000 30.412
86.86000 31.795
86.88000 33.549
86.90000 30.443
86.92000 28.653
86.94000 22.245
86.96000 24.826
86.98000 26.849
87.00000 30.466
87.02000 33.586
87.04000 32.325
87.06000 27.347
87.08000 33.581
87.10000 34.904
87.12000 41.826
87.14000 34.327
87.16000 32.409
87.18000 30.104
87.20000 27.240
87.22000 31.281
87.24000 28.710
87.26000 26.647
87.28000 27.288
87.30000 29.265
87.32000 29.037
87.34000 26.353
87.36000 26.246
87.38000 29.333
87.40000 35.294
87.42000 36.313
87.44000 33.102
87.46000 30.751
87.48000 31.864
87.50000 30.716
87.52000 38.854
87.54000 34.028
87.56000 31.157
87.58000 26.634
87.60000 21.522
87.62000 24.044
87.64000 22.552
87.66000 24.458
87.68000 23.338
87.70000 23.083
87.72000 22.150
87.74000 22.727
87.76000 20.317
87.78000 18.150
87.80000 19.488
87.82000 19.898
87.84000 17.838
87.86000 17.444
87.88000 17.322
87.90000 17.511
87.92000 16.463
87.94000 17.750
87.96000 17.401
87.98000 12.145
88.00000 9.768
88.02000 11.467
88.04000 11.081
88.06000 9.240
88.08000 6.856
88.10000 8.175
88.12000 13.369
88.14000 9.946
88.16000 5.549
88.18000 5.876
88.20000 -0.070
88.22000 3.717
88.24000 1.339
88.26000 2.255
88.28000 5.398
88.30000 3.171
88.32000 5.775
88.34000 15.099
88.36000 9.719
88.38000 6.064
88.40000 5.129
88.42000 3.071
88.44000 5.841
88.46000 0.376
88.48000 2.265
88.50000 3.502
88.52000 2.130
88.54000 3.735
88.56000 7.898
88.58000 6.758
88.60000 11.174
88.62000 2.762
88.64000 4.238
88.66000 0.451
88.68000 3.047
88.70000 0.657
88.72000 1.504
88.74000 0.650
88.76000 0.225
88.78000 7.659
88.80000 5.993
88.82000 -2.038
88.84000 0.743
88.86000 2.708
88.88000 -0.735
88.90000 1.928
88.92000 2.848
88.94000 4.328
88.96000 8.790
88.98000 6.185
89.00000 0.136
89.02000 0.594
89.04000 -1.405
89.06000 -2.442
89.08000 0.449
89.10000 0.969
89.12000 4.894
89.14000 5.633
89.16000 7.212
89.18000 4.808
89.20000 2.503
89.22000 2.900
89.24000 5.679
89.26000 2.736
89.28000 6.126
89.30000 6.723
89.32000 1.735
89.34000 2.806
89.36000 5.440
89.38000 2.134
89.40000 0.497
89.42000 3.887
89.44000 2.264
89.46000 -1.488
89.48000 0.927
89.50000 3.345
89.52000 2.125
89.54000 5.500
89.56000 6.911
89.58000 6.528
89.60000 0.975
89.62000 1.714
89.64000 3.925
89.66000 2.239
89.68000 4.302
89.70000 2.788
89.72000 2.684
89.74000 3.047
89.76000 2.957
89.78000 4.378
89.80000 3.171
89.82000 1.912
89.84000 6.261
89.86000 1.488
89.88000 -2.415
89.90000 -0.018
89.92000 1.154
89.94000 0.786
89.96000 6.317
89.98000 5.522
90.00000 0.986
90.02000 4.219
90.04000 9.486
90.06000 5.768
90.08000 -1.844
90.10000 3.008
90.12000 1.421
90.14000 -0.280
90.16000 5.462
90.18000 7.656
90.20000 4.021
90.22000 3.240
90.24000 3.413
90.26000 3.451
90.28000 2.659
90.30000 5.080
90.32000 3.308
90.34000 2.530
90.36000 1.456
90.38000 4.116
90.40000 10.171
90.42000 0.195
90.44000 -0.110
90.46000 1.061
90.48000 0.655
90.50000 2.633
90.52000 5.211
90.54000 5.957
90.56000 7.258
90.58000 6.515
90.60000 6.226
90.62000 5.613
90.64000 6.868
90.66000 12.889
90.68000 4.974
90.70000 4.511
90.72000 -0.810
90.74000 2.340
90.76000 3.996
90.78000 -0.137
90.80000 3.407
90.82000 6.998
90.84000 1.320
90.86000 -2.341
90.88000 -1.236
90.90000 -0.776
90.92000 -2.341
90.94000 5.355
90.96000 6.155
90.98000 8.282
91.00000 9.899
91.02000 3.772
91.04000 0.444
91.06000 -0.001
91.08000 -0.365
91.10000 2.959
91.12000 0.701
91.14000 2.107
91.16000 4.806
91.18000 2.433
91.20000 5.577
91.22000 3.597
91.24000 2.171
91.26000 5.547
91.28000 3.926
91.30000 5.520
91.32000 8.266
91.34000 5.510
91.36000 9.813
91.38000 10.093
91.40000 7.350
91.42000 0.455
91.44000 -0.901
91.46000 1.753
91.48000 4.450
91.50000 5.866
91.52000 6.546
91.54000 2.340
91.56000 1.098
91.58000 -2.335
91.60000 -0.700
91.62000 1.402
91.64000 9.950
91.66000 7.733
91.68000 5.013
91.70000 8.062
91.72000 1.417
91.74000 0.040
91.76000 2.414
91.78000 4.642
91.80000 4.498
91.82000 7.460
91.84000 4.876
91.86000 4.210
91.88000 7.094
91.90000 2.629
91.92000 -0.892
91.94000 1.226
91.96000 7.266
91.98000 5.967
92.00000 2.494
92.02000 -0.020
92.04000 4.722
92.06000 6.950
92.08000 2.185
92.10000 -0.779
92.12000 2.985
92.14000 4.220
92.16000 4.272
92.18000 2.056
92.20000 2.042
92.22000 -1.932
92.24000 1.450
92.26000 -0.002
92.28000 1.048
92.30000 2.691
92.32000 -0.621
92.34000 2.434
92.36000 7.194
92.38000 6.041
92.40000 6.775
92.42000 16.449
92.44000 7.537
92.46000 1.287
92.48000 1.722
92.50000 6.564
92.52000 7.852
92.54000 6.984
92.56000 0.630
92.58000 1.031
92.60000 2.627
92.62000 2.947
92.64000 8.307
92.66000 10.583
92.68000 5.279
92.70000 1.065
92.72000 3.827
92.74000 4.755
92.76000 6.818
92.78000 1.106
92.80000 3.105
92.82000 6.161
92.84000 3.024
92.86000 2.802
92.88000 3.393
92.90000 4.843
92.92000 3.370
92.94000 4.383
92.96000 6.913
92.98000 1.614
93.00000 4.880
93.02000 -0.846
93.04000 -2.345
93.06000 -2.050
93.08000 3.442
93.10000 7.951
93.12000 5.586
93.14000 5.908
93.16000 6.976
93.18000 1.026
93.20000 4.633
93.22000 9.583
93.24000 5.894
93.26000 4.898
93.28000 -0.320
93.30000 -1.072
93.32000 2.800
93.34000 1.066
93.36000 2.797
93.38000 -0.095
93.40000 4.354
93.42000 9.386
93.44000 3.892
93.46000 -0.261
93.48000 4.573
93.50000 8.696
93.52000 7.112
93.54000 8.819
93.56000 4.533
93.58000 3.306
93.60000 1.181
93.62000 3.283
93.64000 1.633
93.66000 3.713
93.68000 3.130
93.70000 6.769
93.72000 5.166
93.74000 7.070
93.76000 5.150
93.78000 4.066
93.80000 -2.361
93.82000 -1.716
93.84000 0.301
93.86000 4.421
93.88000 8.054
93.90000 5.151
93.92000 3.471
93.94000 0.963
93.96000 3.587
93.98000 4.214
94.00000 5.004
94.02000 4.405
94.04000 -0.030
94.06000 4.237
94.08000 6.498
94.10000 8.117
94.12000 10.621
94.14000 4.604
94.16000 5.222
94.18000 2.422
94.20000 3.816
94.22000 3.889
94.24000 6.511
94.26000 4.932
94.28000 7.756
94.30000 6.330
94.32000 -0.896
94.34000 0.025
94.36000 0.082
94.38000 4.055
94.40000 6.261
94.42000 9.911
94.44000 6.988
94.46000 2.566
94.48000 2.616
94.50000 3.877
94.52000 1.822
94.54000 -0.399
94.56000 -1.069
94.58000 3.182
94.60000 2.635
94.62000 3.647
94.64000 2.485
94.66000 3.650
94.68000 0.087
94.70000 -1.719
94.72000 -0.158
94.74000 2.371
94.76000 4.193
94.78000 3.382
94.80000 -1.007
94.82000 0.449
94.84000 1.698
94.86000 6.345
94.88000 7.624
94.90000 1.236
94.92000 3.366
94.94000 -2.205
94.96000 -2.373
94.98000 2.409
95.00000 0.122
95.02000 -0.628
95.04000 6.494
95.06000 8.842
95.08000 6.037
95.10000 0.192
95.12000 5.957
95.14000 4.813
95.16000 -1.476
95.18000 4.945
95.20000 -2.293
95.22000 2.539
95.24000 1.434
95.26000 0.463
95.28000 1.978
95.30000 2.816
95.32000 9.405
95.34000 13.473
95.36000 6.572
95.38000 5.112
95.40000 5.859
95.42000 2.531
95.44000 0.890
95.46000 -0.765
95.48000 5.541
95.50000 10.734
95.52000 11.941
95.54000 8.104
95.56000 9.416
95.58000 8.834
95.60000 6.125
95.62000 2.871
95.64000 4.481
95.66000 5.520
95.68000 5.386
95.70000 2.125
95.72000 -2.355
95.74000 3.490
95.76000 8.785
95.78000 8.450
95.80000 14.758
95.82000 10.419
95.84000 2.801
95.86000 2.746
95.88000 4.572
95.90000 3.805
95.92000 4.014
95.94000 7.770
95.96000 3.371
95.98000 7.640
96.00000 8.398
96.02000 3.215
96.04000 -0.618
96.06000 4.287
96.08000 3.493
96.10000 1.389
96.12000 -1.340
96.14000 6.506
96.16000 0.402
96.18000 -0.010
96.20000 2.806
96.22000 10.537
96.24000 3.556
96.26000 3.006
96.28000 5.269
96.30000 1.425
96.32000 -0.673
96.34000 -0.207
96.36000 3.661
96.38000 4.145
96.40000 0.504
96.42000 1.289
96.44000 4.621
96.46000 10.149
96.48000 4.907
96.50000 4.640
96.52000 4.433
96.54000 3.687
96.56000 3.079
96.58000 -2.357
96.60000 2.753
96.62000 5.414
96.64000 3.145
96.66000 0.915
96.68000 0.436
96.70000 3.159
96.72000 7.584
96.74000 2.244
96.76000 3.829
96.78000 4.327
96.80000 0.902
96.82000 2.373
96.84000 5.842
96.86000 6.017
96.88000 9.686
96.90000 8.711
96.92000 5.884
96.94000 5.611
96.96000 2.810
96.98000 3.746
97.00000 0.896
97.02000 5.954
97.04000 5.548
97.06000 2.017
97.08000 8.639
97.10000 -1.248
97.12000 4.823
97.14000 7.544
97.16000 3.148
97.18000 6.794
97.20000 5.746
97.22000 2.635
97.24000 3.366
97.26000 3.698
97.28000 6.176
97.30000 9.356
97.32000 7.367
97.34000 1.964
97.36000 0.923
97.38000 1.539
97.40000 -0.777
97.42000 4.915
97.44000 4.636
97.46000 6.246
97.48000 2.635
97.50000 -2.299
97.52000 0.978
97.54000 2.637
97.56000 4.588
97.58000 -0.173
97.60000 1.167
97.62000 6.238
97.64000 4.141
97.66000 -0.157
97.68000 0.536
97.70000 5.021
97.72000 11.110
97.74000 8.367
97.76000 10.110
97.78000 10.160
97.80000 15.191
97.82000 15.699
97.84000 14.971
97.86000 5.739
97.88000 7.097
97.90000 9.139
97.92000 2.050
97.94000 0.537
97.96000 4.347
97.98000 0.870
98.00000 2.919
98.02000 7.169
98.04000 9.199
98.06000 13.651
98.08000 7.823
98.10000 8.966
98.12000 11.397
98.14000 11.888
98.16000 8.763
98.18000 7.340
98.20000 8.041
98.22000 3.371
98.24000 5.652
98.26000 5.646
98.28000 5.672
98.30000 10.168
98.32000 1.873
98.34000 8.984
98.36000 8.374
98.38000 5.998
98.40000 -2.294
98.42000 3.661
98.44000 11.438
98.46000 12.095
98.48000 12.297
98.50000 11.595
98.52000 8.387
98.54000 2.334
98.56000 5.906
98.58000 10.903
98.60000 8.989
98.62000 6.775
98.64000 9.953
98.66000 23.630
98.68000 19.267
98.70000 10.495
98.72000 1.987
98.74000 3.419
98.76000 14.279
98.78000 16.076
98.80000 12.926
98.82000 5.920
98.84000 4.727
98.86000 9.098
98.88000 5.974
98.90000 8.417
98.92000 10.065
98.94000 19.018
98.96000 12.667
98.98000 11.685
99.00000 3.623
99.02000 2.367
99.04000 7.971
99.06000 13.369
99.08000 12.597
99.10000 0.102
99.12000 3.459
99.14000 -0.022
99.16000 -2.271
99.18000 11.083
99.20000 18.868
99.22000 15.118
99.24000 5.628
99.26000 1.033
99.28000 17.128
99.30000 20.248
99.32000 12.938
99.34000 8.702
99.36000 3.960
99.38000 9.734
99.40000 16.023
99.42000 7.239
99.44000 8.852
99.46000 10.328
99.48000 9.124
99.50000 10.203
99.52000 15.570
99.54000 12.513
99.56000 14.869
99.58000 12.907
99.60000 3.373
99.62000 0.104
99.64000 9.753
99.66000 -3.013
99.68000 1.304
99.70000 5.427
99.72000 2.264
99.74000 5.272
99.76000 10.137
99.78000 3.809
99.80000 1.999
99.82000 6.633
99.84000 -3.825
99.86000 5.230
99.88000 15.091
99.90000 19.498
99.92000 10.409
99.94000 8.479
99.96000 5.478
99.98000 0.000
