'Id: "0011388" Comment: "Integrate frame 0011388_Au-Ir-Rh_Rh-rich_XRD-Mapping-139-0000.gfrmwith cursor Wedge Cursor #5" Operator: "B?rgel" Anode: "Cu" Wavelength: "1.5406" Scantype: "2Theta (TwoTheta)" TimePerStep: "1" X: "-31.5" Y: "-4.5" Z: "5.95" 
10.00000 0.000
10.02000 -4.608
10.04000 -4.575
10.06000 3.709
10.08000 13.107
10.10000 20.627
10.12000 19.049
10.14000 11.227
10.16000 7.182
10.18000 6.546
10.20000 -7.871
10.22000 14.843
10.24000 25.703
10.26000 6.414
10.28000 -3.751
10.30000 18.634
10.32000 3.541
10.34000 -4.479
10.36000 12.456
10.38000 8.909
10.40000 21.500
10.42000 20.440
10.44000 8.533
10.46000 13.276
10.48000 2.868
10.50000 -2.171
10.52000 9.315
10.54000 8.119
10.56000 9.809
10.58000 13.585
10.60000 18.945
10.62000 -1.508
10.64000 -1.059
10.66000 4.033
10.68000 4.198
10.70000 10.545
10.72000 9.951
10.74000 12.537
10.76000 3.584
10.78000 -0.052
10.80000 10.957
10.82000 1.039
10.84000 -2.505
10.86000 9.130
10.88000 18.563
10.90000 25.012
10.92000 32.917
10.94000 24.576
10.96000 22.389
10.98000 22.805
11.00000 23.450
11.02000 23.992
11.04000 22.410
11.06000 19.635
11.08000 10.910
11.10000 9.056
11.12000 4.629
11.14000 9.322
11.16000 23.156
11.18000 18.987
11.20000 22.005
11.22000 15.070
11.24000 14.624
11.26000 21.519
11.28000 20.550
11.30000 20.356
11.32000 1.827
11.34000 -4.403
11.36000 8.435
11.38000 6.931
11.40000 14.781
11.42000 22.786
11.44000 25.817
11.46000 17.956
11.48000 16.887
11.50000 6.944
11.52000 9.094
11.54000 19.273
11.56000 30.757
11.58000 29.202
11.60000 25.226
11.62000 12.809
11.64000 -3.664
11.66000 4.917
11.68000 19.704
11.70000 16.022
11.72000 22.783
11.74000 14.885
11.76000 16.835
11.78000 13.186
11.80000 22.195
11.82000 26.987
11.84000 7.488
11.86000 -4.403
11.88000 1.117
11.90000 12.765
11.92000 18.605
11.94000 18.250
11.96000 15.904
11.98000 16.695
12.00000 23.249
12.02000 16.121
12.04000 9.652
12.06000 3.411
12.08000 9.923
12.10000 26.779
12.12000 26.745
12.14000 14.298
12.16000 12.217
12.18000 11.916
12.20000 7.260
12.22000 4.759
12.24000 6.264
12.26000 15.150
12.28000 17.600
12.30000 16.028
12.32000 23.948
12.34000 19.329
12.36000 10.140
12.38000 11.659
12.40000 16.538
12.42000 10.656
12.44000 14.236
12.46000 11.728
12.48000 15.666
12.50000 21.575
12.52000 15.101
12.54000 4.448
12.56000 5.620
12.58000 10.171
12.60000 12.157
12.62000 11.841
12.64000 1.565
12.66000 0.340
12.68000 10.868
12.70000 16.927
12.72000 15.673
12.74000 15.722
12.76000 15.485
12.78000 6.743
12.80000 15.492
12.82000 21.801
12.84000 23.358
12.86000 17.957
12.88000 6.064
12.90000 9.664
12.92000 6.032
12.94000 12.399
12.96000 15.616
12.98000 11.401
13.00000 16.969
13.02000 18.048
13.04000 27.248
13.06000 14.954
13.08000 8.422
13.10000 13.221
13.12000 15.196
13.14000 14.849
13.16000 20.525
13.18000 18.285
13.20000 22.667
13.22000 15.835
13.24000 13.200
13.26000 12.421
13.28000 18.295
13.30000 22.960
13.32000 15.049
13.34000 12.377
13.36000 15.883
13.38000 8.981
13.40000 6.941
13.42000 -2.777
13.44000 -3.035
13.46000 2.394
13.48000 -2.400
13.50000 7.006
13.52000 14.002
13.54000 8.560
13.56000 2.358
13.58000 19.797
13.60000 12.041
13.62000 -4.154
13.64000 5.451
13.66000 20.837
13.68000 20.812
13.70000 30.083
13.72000 25.655
13.74000 13.210
13.76000 17.544
13.78000 9.640
13.80000 9.780
13.82000 9.441
13.84000 12.407
13.86000 17.273
13.88000 9.723
13.90000 7.618
13.92000 0.436
13.94000 7.588
13.96000 10.104
13.98000 9.058
14.00000 10.118
14.02000 3.296
14.04000 2.193
14.06000 -4.461
14.08000 -1.691
14.10000 8.511
14.12000 13.080
14.14000 4.625
14.16000 8.303
14.18000 13.030
14.20000 19.156
14.22000 5.645
14.24000 5.584
14.26000 8.861
14.28000 13.839
14.30000 3.462
14.32000 9.214
14.34000 14.364
14.36000 15.236
14.38000 7.753
14.40000 10.871
14.42000 8.068
14.44000 4.901
14.46000 2.612
14.48000 4.274
14.50000 10.305
14.52000 7.555
14.54000 1.802
14.56000 3.689
14.58000 8.441
14.60000 5.819
14.62000 9.744
14.64000 1.836
14.66000 -1.952
14.68000 -1.088
14.70000 5.084
14.72000 10.723
14.74000 7.222
14.76000 5.965
14.78000 6.765
14.80000 9.069
14.82000 4.483
14.84000 3.922
14.86000 3.905
14.88000 -1.803
14.90000 8.000
14.92000 10.070
14.94000 7.804
14.96000 -3.023
14.98000 6.668
15.00000 10.064
15.02000 4.403
15.04000 5.409
15.06000 6.572
15.08000 9.408
15.10000 4.658
15.12000 6.068
15.14000 9.207
15.16000 8.387
15.18000 8.266
15.20000 11.153
15.22000 1.383
15.24000 -4.459
15.26000 8.515
15.28000 2.357
15.30000 3.456
15.32000 8.980
15.34000 4.995
15.36000 1.528
15.38000 2.937
15.40000 7.260
15.42000 4.503
15.44000 6.628
15.46000 3.041
15.48000 14.395
15.50000 12.065
15.52000 10.117
15.54000 5.373
15.56000 -1.657
15.58000 0.523
15.60000 -3.265
15.62000 -1.757
15.64000 3.897
15.66000 -0.092
15.68000 2.037
15.70000 6.888
15.72000 8.172
15.74000 9.350
15.76000 2.560
15.78000 3.142
15.80000 -1.328
15.82000 5.416
15.84000 9.543
15.86000 5.845
15.88000 10.609
15.90000 4.558
15.92000 4.929
15.94000 7.410
15.96000 4.787
15.98000 7.640
16.00000 3.374
16.02000 7.457
16.04000 0.598
16.06000 1.598
16.08000 7.280
16.10000 1.378
16.12000 7.286
16.14000 14.043
16.16000 15.865
16.18000 10.287
16.20000 6.905
16.22000 2.203
16.24000 3.246
16.26000 8.161
16.28000 9.666
16.30000 12.169
16.32000 1.338
16.34000 -3.457
16.36000 -1.099
16.38000 0.017
16.40000 0.042
16.42000 6.091
16.44000 0.785
16.46000 3.365
16.48000 1.151
16.50000 0.482
16.52000 -0.993
16.54000 -4.426
16.56000 4.668
16.58000 2.142
16.60000 0.875
16.62000 11.755
16.64000 10.915
16.66000 -2.412
16.68000 3.821
16.70000 7.091
16.72000 5.766
16.74000 2.022
16.76000 5.614
16.78000 7.874
16.80000 7.390
16.82000 2.291
16.84000 -3.929
16.86000 -4.410
16.88000 -0.301
16.90000 -0.543
16.92000 0.528
16.94000 4.586
16.96000 11.929
16.98000 13.142
17.00000 8.829
17.02000 9.902
17.04000 7.047
17.06000 3.840
17.08000 -2.538
17.10000 -0.664
17.12000 4.183
17.14000 3.525
17.16000 11.257
17.18000 11.494
17.20000 8.111
17.22000 4.412
17.24000 9.013
17.26000 4.850
17.28000 -0.355
17.30000 -0.441
17.32000 2.041
17.34000 6.469
17.36000 -2.312
17.38000 -1.779
17.40000 3.457
17.42000 3.975
17.44000 7.283
17.46000 8.038
17.48000 8.115
17.50000 2.575
17.52000 8.629
17.54000 7.853
17.56000 6.450
17.58000 -0.861
17.60000 -3.456
17.62000 4.204
17.64000 -1.087
17.66000 7.134
17.68000 9.780
17.70000 13.716
17.72000 1.375
17.74000 2.061
17.76000 5.546
17.78000 5.894
17.80000 6.017
17.82000 3.702
17.84000 4.896
17.86000 2.368
17.88000 0.526
17.90000 2.765
17.92000 7.797
17.94000 7.655
17.96000 1.667
17.98000 1.777
18.00000 2.709
18.02000 5.562
18.04000 1.614
18.06000 -1.584
18.08000 -1.166
18.10000 -1.868
18.12000 4.400
18.14000 4.830
18.16000 -0.145
18.18000 4.215
18.20000 5.274
18.22000 3.865
18.24000 1.299
18.26000 1.662
18.28000 -4.334
18.30000 1.248
18.32000 -2.111
18.34000 7.015
18.36000 7.524
18.38000 3.828
18.40000 12.402
18.42000 10.282
18.44000 -1.235
18.46000 3.627
18.48000 6.932
18.50000 1.010
18.52000 0.565
18.54000 -4.262
18.56000 2.099
18.58000 -1.342
18.60000 -4.324
18.62000 -1.636
18.64000 5.076
18.66000 5.312
18.68000 6.665
18.70000 5.083
18.72000 1.980
18.74000 -0.591
18.76000 8.411
18.78000 9.205
18.80000 5.109
18.82000 -3.483
18.84000 -0.758
18.86000 -0.931
18.88000 -2.234
18.90000 -3.952
18.92000 1.500
18.94000 10.011
18.96000 6.352
18.98000 5.574
19.00000 -0.692
19.02000 5.204
19.04000 4.733
19.06000 -1.301
19.08000 -0.524
19.10000 0.444
19.12000 -2.083
19.14000 2.988
19.16000 -1.493
19.18000 0.096
19.20000 3.777
19.22000 -2.088
19.24000 -2.128
19.26000 2.767
19.28000 0.986
19.30000 -1.694
19.32000 1.021
19.34000 0.239
19.36000 -2.446
19.38000 6.653
19.40000 4.376
19.42000 4.859
19.44000 3.275
19.46000 -1.307
19.48000 -3.855
19.50000 -0.915
19.52000 0.654
19.54000 -4.275
19.56000 -2.642
19.58000 -2.246
19.60000 -1.604
19.62000 -0.844
19.64000 -2.232
19.66000 -2.955
19.68000 -0.661
19.70000 -1.644
19.72000 -2.067
19.74000 4.093
19.76000 4.279
19.78000 -0.266
19.80000 4.369
19.82000 -1.797
19.84000 0.232
19.86000 0.721
19.88000 2.917
19.90000 3.338
19.92000 3.455
19.94000 0.779
19.96000 3.716
19.98000 3.587
20.00000 -2.120
20.02000 -2.865
20.04000 -1.695
20.06000 -1.774
20.08000 5.694
20.10000 1.681
20.12000 3.300
20.14000 3.932
20.16000 3.500
20.18000 1.566
20.20000 -0.741
20.22000 -0.623
20.24000 0.686
20.26000 1.431
20.28000 3.352
20.30000 5.363
20.32000 4.539
20.34000 7.690
20.36000 4.280
20.38000 4.350
20.40000 6.339
20.42000 0.877
20.44000 4.946
20.46000 7.483
20.48000 10.587
20.50000 10.513
20.52000 5.904
20.54000 0.480
20.56000 -0.830
20.58000 6.925
20.60000 4.429
20.62000 3.682
20.64000 10.145
20.66000 4.196
20.68000 -4.191
20.70000 -1.588
20.72000 3.139
20.74000 2.813
20.76000 0.969
20.78000 7.010
20.80000 4.479
20.82000 -0.771
20.84000 -0.726
20.86000 5.137
20.88000 2.130
20.90000 -0.534
20.92000 1.719
20.94000 5.072
20.96000 3.730
20.98000 3.981
21.00000 2.254
21.02000 -0.162
21.04000 -0.408
21.06000 2.349
21.08000 6.870
21.10000 5.238
21.12000 5.574
21.14000 6.078
21.16000 5.141
21.18000 3.486
21.20000 7.437
21.22000 13.334
21.24000 7.412
21.26000 2.197
21.28000 3.186
21.30000 -1.092
21.32000 1.630
21.34000 4.939
21.36000 7.425
21.38000 4.366
21.40000 3.435
21.42000 6.366
21.44000 0.881
21.46000 1.424
21.48000 7.074
21.50000 6.013
21.52000 9.988
21.54000 12.067
21.56000 11.001
21.58000 10.253
21.60000 2.955
21.62000 0.508
21.64000 3.604
21.66000 0.332
21.68000 -0.832
21.70000 6.930
21.72000 6.733
21.74000 -2.662
21.76000 -2.175
21.78000 2.485
21.80000 6.093
21.82000 8.286
21.84000 9.974
21.86000 18.586
21.88000 14.069
21.90000 3.593
21.92000 -0.157
21.94000 4.233
21.96000 6.224
21.98000 2.674
22.00000 -1.834
22.02000 1.554
22.04000 8.014
22.06000 12.554
22.08000 9.304
22.10000 1.773
22.12000 -4.081
22.14000 4.143
22.16000 14.631
22.18000 8.253
22.20000 2.451
22.22000 0.612
22.24000 -3.300
22.26000 1.381
22.28000 3.585
22.30000 -1.056
22.32000 -2.314
22.34000 9.556
22.36000 3.978
22.38000 -0.973
22.40000 3.677
22.42000 2.468
22.44000 4.827
22.46000 13.319
22.48000 9.161
22.50000 7.972
22.52000 10.602
22.54000 9.884
22.56000 2.102
22.58000 4.494
22.60000 6.311
22.62000 7.641
22.64000 14.179
22.66000 13.986
22.68000 13.319
22.70000 9.227
22.72000 7.902
22.74000 8.240
22.76000 9.991
22.78000 8.792
22.80000 3.846
22.82000 8.401
22.84000 6.946
22.86000 2.646
22.88000 3.884
22.90000 -1.273
22.92000 3.463
22.94000 -0.379
22.96000 2.925
22.98000 -3.301
23.00000 -1.354
23.02000 -2.479
23.04000 1.435
23.06000 1.603
23.08000 -2.125
23.10000 0.187
23.12000 1.066
23.14000 5.020
23.16000 1.849
23.18000 1.936
23.20000 0.672
23.22000 -2.683
23.24000 1.118
23.26000 2.659
23.28000 7.371
23.30000 10.084
23.32000 8.577
23.34000 1.256
23.36000 3.541
23.38000 7.811
23.40000 7.236
23.42000 6.680
23.44000 8.209
23.46000 10.003
23.48000 6.652
23.50000 0.929
23.52000 2.944
23.54000 2.681
23.56000 6.868
23.58000 3.068
23.60000 -4.020
23.62000 1.714
23.64000 4.145
23.66000 5.670
23.68000 4.152
23.70000 5.253
23.72000 13.596
23.74000 13.000
23.76000 4.815
23.78000 6.778
23.80000 4.867
23.82000 6.402
23.84000 5.894
23.86000 6.445
23.88000 4.991
23.90000 2.857
23.92000 6.778
23.94000 3.000
23.96000 -3.931
23.98000 -3.147
24.00000 0.953
24.02000 6.697
24.04000 9.668
24.06000 -2.539
24.08000 2.708
24.10000 2.428
24.12000 1.282
24.14000 2.183
24.16000 5.964
24.18000 6.444
24.20000 10.417
24.22000 0.426
24.24000 2.594
24.26000 4.457
24.28000 3.135
24.30000 -0.546
24.32000 -2.526
24.34000 1.457
24.36000 2.645
24.38000 3.274
24.40000 4.765
24.42000 3.181
24.44000 4.101
24.46000 12.843
24.48000 3.742
24.50000 3.816
24.52000 8.206
24.54000 4.172
24.56000 3.719
24.58000 9.260
24.60000 9.579
24.62000 0.938
24.64000 2.335
24.66000 3.465
24.68000 2.596
24.70000 1.170
24.72000 3.476
24.74000 1.245
24.76000 4.917
24.78000 5.878
24.80000 1.489
24.82000 5.424
24.84000 7.684
24.86000 3.743
24.88000 1.215
24.90000 -2.357
24.92000 -2.609
24.94000 -0.874
24.96000 7.209
24.98000 2.834
25.00000 1.517
25.02000 3.277
25.04000 6.232
25.06000 4.133
25.08000 6.171
25.10000 6.558
25.12000 1.421
25.14000 -2.194
25.16000 1.693
25.18000 2.256
25.20000 2.661
25.22000 1.397
25.24000 -2.161
25.26000 4.105
25.28000 3.773
25.30000 -1.177
25.32000 -3.935
25.34000 0.875
25.36000 4.164
25.38000 4.046
25.40000 3.643
25.42000 1.477
25.44000 2.838
25.46000 6.290
25.48000 11.115
25.50000 12.150
25.52000 2.983
25.54000 6.291
25.56000 7.882
25.58000 0.978
25.60000 2.596
25.62000 7.551
25.64000 5.232
25.66000 -0.307
25.68000 -2.912
25.70000 1.639
25.72000 -1.428
25.74000 -3.553
25.76000 0.260
25.78000 2.098
25.80000 2.306
25.82000 3.223
25.84000 8.420
25.86000 6.258
25.88000 -0.422
25.90000 -2.115
25.92000 -3.127
25.94000 -2.582
25.96000 2.019
25.98000 6.348
26.00000 3.626
26.02000 -0.074
26.04000 0.832
26.06000 -0.974
26.08000 -0.839
26.10000 0.761
26.12000 0.464
26.14000 -0.074
26.16000 -0.733
26.18000 -1.187
26.20000 3.034
26.22000 5.319
26.24000 0.495
26.26000 -3.205
26.28000 2.106
26.30000 6.645
26.32000 5.940
26.34000 4.923
26.36000 5.186
26.38000 0.957
26.40000 1.006
26.42000 0.759
26.44000 -0.911
26.46000 -0.573
26.48000 -0.017
26.50000 0.878
26.52000 1.731
26.54000 2.756
26.56000 0.989
26.58000 2.523
26.60000 0.001
26.62000 2.018
26.64000 2.503
26.66000 2.727
26.68000 4.672
26.70000 2.736
26.72000 2.720
26.74000 -1.009
26.76000 -0.967
26.78000 2.018
26.80000 4.993
26.82000 7.881
26.84000 7.097
26.86000 4.484
26.88000 -0.480
26.90000 -3.862
26.92000 2.599
26.94000 4.900
26.96000 3.626
26.98000 2.410
27.00000 5.750
27.02000 4.814
27.04000 5.912
27.06000 4.269
27.08000 2.573
27.10000 4.841
27.12000 3.314
27.14000 6.036
27.16000 7.627
27.18000 2.872
27.20000 3.023
27.22000 3.152
27.24000 -0.496
27.26000 0.992
27.28000 0.191
27.30000 7.385
27.32000 5.155
27.34000 -1.280
27.36000 5.088
27.38000 10.022
27.40000 6.892
27.42000 4.604
27.44000 3.759
27.46000 1.847
27.48000 -1.931
27.50000 -1.221
27.52000 3.378
27.54000 4.776
27.56000 5.737
27.58000 8.403
27.60000 5.619
27.62000 2.632
27.64000 2.208
27.66000 3.193
27.68000 0.042
27.70000 2.795
27.72000 11.081
27.74000 7.083
27.76000 3.786
27.78000 5.175
27.80000 4.335
27.82000 5.459
27.84000 4.095
27.86000 7.372
27.88000 6.983
27.90000 5.299
27.92000 7.779
27.94000 13.720
27.96000 10.304
27.98000 9.357
28.00000 10.239
28.02000 6.352
28.04000 7.947
28.06000 4.945
28.08000 10.128
28.10000 9.240
28.12000 13.151
28.14000 12.964
28.16000 5.949
28.18000 3.447
28.20000 8.584
28.22000 12.560
28.24000 7.236
28.26000 4.890
28.28000 5.808
28.30000 4.505
28.32000 6.239
28.34000 5.957
28.36000 3.201
28.38000 1.781
28.40000 2.817
28.42000 5.825
28.44000 3.592
28.46000 -3.705
28.48000 2.986
28.50000 8.822
28.52000 12.267
28.54000 10.169
28.56000 9.424
28.58000 8.745
28.60000 4.724
28.62000 7.449
28.64000 6.743
28.66000 8.188
28.68000 9.624
28.70000 7.584
28.72000 9.715
28.74000 5.959
28.76000 3.209
28.78000 4.961
28.80000 7.291
28.82000 11.442
28.84000 8.450
28.86000 7.522
28.88000 3.027
28.90000 4.102
28.92000 9.908
28.94000 8.629
28.96000 2.734
28.98000 8.699
29.00000 9.462
29.02000 7.232
29.04000 -3.694
29.06000 3.312
29.08000 2.772
29.10000 4.533
29.12000 8.203
29.14000 4.767
29.16000 4.921
29.18000 8.059
29.20000 4.620
29.22000 7.583
29.24000 11.032
29.26000 10.824
29.28000 8.033
29.30000 6.892
29.32000 4.538
29.34000 3.306
29.36000 5.955
29.38000 6.839
29.40000 9.251
29.42000 9.938
29.44000 4.283
29.46000 7.254
29.48000 6.274
29.50000 5.854
29.52000 4.647
29.54000 1.737
29.56000 5.176
29.58000 2.066
29.60000 1.937
29.62000 7.270
29.64000 14.639
29.66000 13.132
29.68000 12.242
29.70000 11.683
29.72000 9.309
29.74000 4.116
29.76000 3.350
29.78000 4.944
29.80000 3.804
29.82000 -1.048
29.84000 -3.672
29.86000 -2.904
29.88000 -3.474
29.90000 3.072
29.92000 5.282
29.94000 3.805
29.96000 -0.078
29.98000 1.148
30.00000 5.152
30.02000 5.879
30.04000 1.059
30.06000 5.208
30.08000 1.110
30.10000 2.119
30.12000 3.451
30.14000 6.549
30.16000 6.454
30.18000 1.896
30.20000 -0.705
30.22000 1.181
30.24000 -1.202
30.26000 3.963
30.28000 5.703
30.30000 -0.034
30.32000 1.968
30.34000 0.079
30.36000 6.641
30.38000 5.172
30.40000 2.755
30.42000 2.889
30.44000 -1.005
30.46000 2.717
30.48000 4.203
30.50000 5.354
30.52000 3.906
30.54000 3.850
30.56000 2.223
30.58000 5.593
30.60000 1.306
30.62000 1.096
30.64000 6.939
30.66000 1.714
30.68000 -2.837
30.70000 -2.272
30.72000 3.207
30.74000 1.480
30.76000 0.701
30.78000 2.236
30.80000 0.816
30.82000 6.249
30.84000 5.564
30.86000 5.508
30.88000 2.806
30.90000 -0.663
30.92000 1.650
30.94000 4.354
30.96000 6.067
30.98000 10.296
31.00000 5.101
31.02000 4.006
31.04000 11.059
31.06000 6.639
31.08000 4.888
31.10000 3.804
31.12000 4.957
31.14000 3.800
31.16000 1.054
31.18000 0.811
31.20000 5.789
31.22000 3.506
31.24000 1.985
31.26000 6.198
31.28000 11.378
31.30000 7.262
31.32000 10.289
31.34000 3.049
31.36000 -3.619
31.38000 -1.602
31.40000 -2.131
31.42000 4.614
31.44000 10.703
31.46000 6.794
31.48000 1.019
31.50000 -0.515
31.52000 3.298
31.54000 3.183
31.56000 1.213
31.58000 -0.882
31.60000 4.105
31.62000 3.081
31.64000 3.106
31.66000 3.696
31.68000 6.161
31.70000 0.855
31.72000 7.415
31.74000 9.732
31.76000 4.070
31.78000 4.540
31.80000 0.247
31.82000 -0.197
31.84000 0.638
31.86000 1.152
31.88000 3.623
31.90000 5.494
31.92000 7.886
31.94000 4.241
31.96000 5.688
31.98000 6.060
32.00000 4.846
32.02000 0.804
32.04000 0.983
32.06000 1.327
32.08000 2.397
32.10000 3.655
32.12000 0.772
32.14000 5.482
32.16000 5.047
32.18000 8.320
32.20000 4.483
32.22000 4.993
32.24000 6.722
32.26000 3.177
32.28000 5.154
32.30000 4.167
32.32000 3.402
32.34000 3.682
32.36000 5.214
32.38000 6.319
32.40000 0.327
32.42000 1.385
32.44000 1.832
32.46000 -3.209
32.48000 0.717
32.50000 3.264
32.52000 3.972
32.54000 7.835
32.56000 0.179
32.58000 2.968
32.60000 6.541
32.62000 0.367
32.64000 -0.607
32.66000 -0.956
32.68000 4.471
32.70000 9.453
32.72000 5.087
32.74000 -3.535
32.76000 0.649
32.78000 7.721
32.80000 8.371
32.82000 1.058
32.84000 0.277
32.86000 2.184
32.88000 6.825
32.90000 7.347
32.92000 8.154
32.94000 2.921
32.96000 2.287
32.98000 3.751
33.00000 6.177
33.02000 4.835
33.04000 8.298
33.06000 5.027
33.08000 6.136
33.10000 6.128
33.12000 3.633
33.14000 1.409
33.16000 1.588
33.18000 2.802
33.20000 5.680
33.22000 2.227
33.24000 0.719
33.26000 3.412
33.28000 5.529
33.30000 8.629
33.32000 6.227
33.34000 5.360
33.36000 -0.688
33.38000 1.306
33.40000 1.566
33.42000 4.673
33.44000 7.323
33.46000 6.151
33.48000 12.310
33.50000 7.463
33.52000 1.551
33.54000 1.705
33.56000 -0.014
33.58000 0.755
33.60000 5.996
33.62000 2.718
33.64000 5.512
33.66000 4.239
33.68000 2.775
33.70000 5.115
33.72000 5.300
33.74000 2.543
33.76000 6.797
33.78000 3.505
33.80000 4.458
33.82000 3.242
33.84000 4.588
33.86000 0.854
33.88000 0.057
33.90000 2.707
33.92000 -1.083
33.94000 2.474
33.96000 -2.251
33.98000 -2.346
34.00000 2.789
34.02000 1.108
34.04000 0.379
34.06000 2.905
34.08000 2.680
34.10000 6.420
34.12000 7.153
34.14000 3.456
34.16000 2.135
34.18000 6.964
34.20000 7.377
34.22000 7.431
34.24000 5.475
34.26000 3.723
34.28000 -1.949
34.30000 1.184
34.32000 0.515
34.34000 7.824
34.36000 2.015
34.38000 1.994
34.40000 2.108
34.42000 0.985
34.44000 0.462
34.46000 1.450
34.48000 0.059
34.50000 -2.184
34.52000 2.090
34.54000 2.016
34.56000 2.553
34.58000 5.091
34.60000 2.569
34.62000 1.765
34.64000 1.728
34.66000 7.443
34.68000 3.924
34.70000 3.471
34.72000 2.115
34.74000 2.293
34.76000 0.350
34.78000 5.573
34.80000 3.006
34.82000 0.848
34.84000 1.358
34.86000 -1.182
34.88000 -3.540
34.90000 0.737
34.92000 2.160
34.94000 3.335
34.96000 2.819
34.98000 -1.164
35.00000 0.143
35.02000 -1.322
35.04000 -2.417
35.06000 -2.818
35.08000 1.746
35.10000 -0.271
35.12000 -0.747
35.14000 1.754
35.16000 1.980
35.18000 0.158
35.20000 -3.523
35.22000 -3.457
35.24000 -0.316
35.26000 3.772
35.28000 5.126
35.30000 4.542
35.32000 3.919
35.34000 3.395
35.36000 2.590
35.38000 4.823
35.40000 2.269
35.42000 3.132
35.44000 4.287
35.46000 2.449
35.48000 1.544
35.50000 2.143
35.52000 -0.449
35.54000 1.936
35.56000 2.419
35.58000 0.145
35.60000 1.371
35.62000 1.260
35.64000 3.019
35.66000 1.383
35.68000 1.699
35.70000 1.618
35.72000 2.022
35.74000 1.955
35.76000 0.083
35.78000 -0.838
35.80000 -0.955
35.82000 2.493
35.84000 2.235
35.86000 -2.761
35.88000 -0.961
35.90000 4.684
35.92000 1.521
35.94000 -3.541
35.96000 -1.398
35.98000 -1.227
36.00000 0.489
36.02000 -0.838
36.04000 -1.033
36.06000 0.659
36.08000 2.869
36.10000 -1.735
36.12000 -1.010
36.14000 -0.310
36.16000 0.500
36.18000 -0.790
36.20000 3.217
36.22000 1.686
36.24000 0.823
36.26000 -1.300
36.28000 -0.744
36.30000 1.289
36.32000 0.927
36.34000 -0.990
36.36000 -2.792
36.38000 0.829
36.40000 -0.225
36.42000 -0.826
36.44000 2.914
36.46000 -0.055
36.48000 -3.543
36.50000 -0.358
36.52000 0.350
36.54000 -1.616
36.56000 -0.446
36.58000 1.489
36.60000 -0.400
36.62000 -2.933
36.64000 0.671
36.66000 -2.048
36.68000 -2.807
36.70000 0.544
36.72000 3.908
36.74000 3.419
36.76000 3.631
36.78000 -2.743
36.80000 -2.931
36.82000 0.197
36.84000 -2.472
36.86000 0.087
36.88000 2.747
36.90000 -2.891
36.92000 -0.689
36.94000 -2.485
36.96000 -3.568
36.98000 -1.773
37.00000 -1.522
37.02000 0.178
37.04000 -0.444
37.06000 6.676
37.08000 3.947
37.10000 -2.726
37.12000 0.832
37.14000 -2.697
37.16000 -2.549
37.18000 1.676
37.20000 4.303
37.22000 2.170
37.24000 0.024
37.26000 3.005
37.28000 8.186
37.30000 7.108
37.32000 4.233
37.34000 2.263
37.36000 -1.746
37.38000 -2.846
37.40000 -0.435
37.42000 -1.527
37.44000 -1.990
37.46000 -3.610
37.48000 -1.620
37.50000 0.723
37.52000 0.687
37.54000 2.792
37.56000 3.703
37.58000 -2.134
37.60000 -0.023
37.62000 1.892
37.64000 2.306
37.66000 3.631
37.68000 -2.228
37.70000 1.867
37.72000 5.347
37.74000 3.191
37.76000 -0.398
37.78000 1.680
37.80000 -1.651
37.82000 -0.948
37.84000 4.988
37.86000 7.209
37.88000 6.788
37.90000 5.958
37.92000 8.677
37.94000 10.007
37.96000 6.614
37.98000 3.198
38.00000 1.424
38.02000 3.512
38.04000 5.000
38.06000 3.344
38.08000 6.323
38.10000 7.021
38.12000 11.909
38.14000 6.518
38.16000 5.568
38.18000 6.735
38.20000 5.234
38.22000 3.821
38.24000 3.034
38.26000 7.238
38.28000 11.900
38.30000 12.999
38.32000 16.455
38.34000 10.078
38.36000 15.325
38.38000 15.419
38.40000 16.814
38.42000 11.528
38.44000 12.089
38.46000 17.178
38.48000 11.931
38.50000 9.435
38.52000 14.946
38.54000 20.080
38.56000 18.504
38.58000 16.433
38.60000 18.868
38.62000 23.514
38.64000 19.449
38.66000 15.940
38.68000 18.826
38.70000 16.184
38.72000 22.876
38.74000 27.197
38.76000 27.572
38.78000 29.206
38.80000 31.096
38.82000 26.391
38.84000 28.158
38.86000 29.833
38.88000 38.132
38.90000 35.293
38.92000 33.825
38.94000 37.552
38.96000 36.163
38.98000 38.140
39.00000 38.142
39.02000 42.386
39.04000 44.790
39.06000 49.469
39.08000 50.594
39.10000 52.814
39.12000 47.747
39.14000 44.933
39.16000 48.925
39.18000 56.968
39.20000 64.029
39.22000 64.729
39.24000 62.511
39.26000 70.941
39.28000 80.225
39.30000 81.027
39.32000 76.768
39.34000 83.862
39.36000 91.886
39.38000 95.927
39.40000 104.248
39.42000 109.997
39.44000 114.270
39.46000 113.567
39.48000 114.486
39.50000 116.944
39.52000 124.723
39.54000 130.554
39.56000 141.039
39.58000 147.781
39.60000 154.368
39.62000 158.687
39.64000 167.939
39.66000 175.358
39.68000 184.409
39.70000 197.079
39.72000 205.330
39.74000 211.875
39.76000 222.258
39.78000 240.577
39.80000 252.750
39.82000 267.447
39.84000 272.248
39.86000 287.909
39.88000 297.633
39.90000 312.068
39.92000 316.866
39.94000 332.278
39.96000 353.099
39.98000 376.766
40.00000 383.987
40.02000 400.917
40.04000 415.425
40.06000 442.864
40.08000 463.901
40.10000 473.684
40.12000 487.519
40.14000 496.821
40.16000 512.631
40.18000 525.888
40.20000 541.214
40.22000 549.847
40.24000 564.429
40.26000 576.009
40.28000 589.039
40.30000 581.228
40.32000 581.490
40.34000 589.726
40.36000 586.038
40.38000 578.514
40.40000 576.272
40.42000 585.470
40.44000 574.227
40.46000 576.052
40.48000 562.599
40.50000 527.829
40.52000 516.758
40.54000 507.766
40.56000 499.244
40.58000 491.527
40.60000 482.280
40.62000 465.527
40.64000 457.390
40.66000 437.080
40.68000 411.549
40.70000 397.067
40.72000 379.009
40.74000 366.100
40.76000 355.720
40.78000 346.310
40.80000 318.371
40.82000 306.146
40.84000 294.197
40.86000 278.894
40.88000 266.735
40.90000 257.676
40.92000 242.845
40.94000 228.259
40.96000 212.472
40.98000 206.589
41.00000 194.265
41.02000 183.538
41.04000 172.979
41.06000 160.497
41.08000 152.972
41.10000 144.462
41.12000 138.437
41.14000 133.739
41.16000 128.146
41.18000 117.985
41.20000 113.966
41.22000 101.702
41.24000 96.094
41.26000 92.056
41.28000 92.558
41.30000 89.223
41.32000 80.948
41.34000 73.662
41.36000 69.592
41.38000 65.182
41.40000 63.382
41.42000 66.584
41.44000 60.214
41.46000 55.218
41.48000 54.573
41.50000 49.662
41.52000 44.922
41.54000 42.062
41.56000 42.976
41.58000 36.895
41.60000 33.069
41.62000 32.645
41.64000 33.032
41.66000 33.459
41.68000 27.942
41.70000 26.985
41.72000 28.598
41.74000 27.970
41.76000 28.420
41.78000 28.257
41.80000 25.227
41.82000 21.057
41.84000 17.510
41.86000 13.921
41.88000 15.353
41.90000 17.278
41.92000 17.585
41.94000 18.022
41.96000 16.642
41.98000 12.657
42.00000 11.772
42.02000 14.607
42.04000 13.419
42.06000 12.171
42.08000 11.153
42.10000 12.511
42.12000 12.544
42.14000 10.204
42.16000 10.578
42.18000 11.633
42.20000 7.453
42.22000 6.214
42.24000 7.252
42.26000 9.223
42.28000 9.714
42.30000 6.485
42.32000 7.691
42.34000 6.796
42.36000 3.648
42.38000 1.589
42.40000 4.468
42.42000 8.382
42.44000 4.987
42.46000 1.395
42.48000 -0.299
42.50000 4.291
42.52000 4.689
42.54000 0.582
42.56000 -1.485
42.58000 2.311
42.60000 3.365
42.62000 3.127
42.64000 -0.557
42.66000 2.209
42.68000 5.503
42.70000 4.064
42.72000 1.677
42.74000 4.639
42.76000 5.261
42.78000 5.052
42.80000 3.445
42.82000 0.623
42.84000 4.943
42.86000 3.766
42.88000 4.119
42.90000 1.059
42.92000 1.493
42.94000 0.788
42.96000 4.437
42.98000 5.259
43.00000 2.467
43.02000 -0.165
43.04000 4.232
43.06000 5.801
43.08000 0.583
43.10000 0.059
43.12000 3.468
43.14000 3.775
43.16000 1.393
43.18000 4.152
43.20000 -1.847
43.22000 -3.475
43.24000 -1.769
43.26000 1.304
43.28000 2.709
43.30000 5.316
43.32000 3.843
43.34000 5.852
43.36000 0.500
43.38000 1.616
43.40000 -0.604
43.42000 0.637
43.44000 1.987
43.46000 -2.190
43.48000 -1.124
43.50000 1.356
43.52000 -0.037
43.54000 -2.137
43.56000 0.466
43.58000 -0.333
43.60000 -2.887
43.62000 -2.254
43.64000 -2.638
43.66000 1.149
43.68000 2.714
43.70000 1.843
43.72000 -0.141
43.74000 -3.463
43.76000 -2.939
43.78000 -2.303
43.80000 -1.843
43.82000 -2.926
43.84000 -3.460
43.86000 -3.246
43.88000 -0.767
43.90000 1.745
43.92000 0.379
43.94000 0.797
43.96000 -0.099
43.98000 0.042
44.00000 0.442
44.02000 -0.596
44.04000 0.897
44.06000 4.050
44.08000 7.681
44.10000 7.307
44.12000 -2.218
44.14000 -2.187
44.16000 1.100
44.18000 0.461
44.20000 -0.501
44.22000 1.516
44.24000 -0.605
44.26000 -1.909
44.28000 -0.902
44.30000 0.438
44.32000 4.500
44.34000 -2.112
44.36000 -1.742
44.38000 1.894
44.40000 -0.949
44.42000 -0.144
44.44000 6.925
44.46000 5.886
44.48000 2.803
44.50000 -3.446
44.52000 -2.817
44.54000 0.340
44.56000 5.354
44.58000 3.611
44.60000 2.587
44.62000 -0.116
44.64000 0.129
44.66000 0.841
44.68000 5.106
44.70000 1.258
44.72000 -2.641
44.74000 4.407
44.76000 12.904
44.78000 6.076
44.80000 0.362
44.82000 -2.224
44.84000 -0.136
44.86000 2.102
44.88000 6.384
44.90000 6.403
44.92000 3.330
44.94000 6.246
44.96000 7.689
44.98000 3.464
45.00000 3.741
45.02000 7.003
45.04000 7.799
45.06000 6.747
45.08000 3.989
45.10000 9.226
45.12000 7.851
45.14000 4.396
45.16000 5.086
45.18000 4.724
45.20000 7.830
45.22000 4.711
45.24000 6.117
45.26000 9.010
45.28000 9.815
45.30000 5.603
45.32000 6.121
45.34000 9.471
45.36000 12.644
45.38000 8.444
45.40000 11.228
45.42000 9.003
45.44000 4.491
45.46000 10.698
45.48000 15.430
45.50000 15.360
45.52000 12.380
45.54000 15.572
45.56000 13.149
45.58000 12.695
45.60000 15.863
45.62000 12.840
45.64000 22.243
45.66000 18.281
45.68000 16.368
45.70000 19.761
45.72000 19.573
45.74000 24.233
45.76000 22.703
45.78000 17.841
45.80000 25.521
45.82000 25.155
45.84000 24.840
45.86000 23.594
45.88000 27.029
45.90000 26.349
45.92000 28.131
45.94000 28.906
45.96000 31.690
45.98000 32.846
46.00000 29.862
46.02000 34.184
46.04000 40.111
46.06000 41.475
46.08000 42.928
46.10000 41.745
46.12000 38.590
46.14000 40.512
46.16000 48.447
46.18000 51.102
46.20000 47.035
46.22000 45.186
46.24000 40.030
46.26000 40.924
46.28000 40.596
46.30000 47.893
46.32000 55.977
46.34000 54.940
46.36000 52.576
46.38000 57.607
46.40000 58.983
46.42000 65.215
46.44000 66.199
46.46000 62.872
46.48000 62.560
46.50000 66.306
46.52000 74.840
46.54000 64.807
46.56000 70.218
46.58000 81.202
46.60000 76.416
46.62000 73.813
46.64000 64.986
46.66000 75.268
46.68000 82.777
46.70000 76.994
46.72000 81.953
46.74000 81.725
46.76000 83.734
46.78000 88.758
46.80000 86.618
46.82000 86.275
46.84000 83.777
46.86000 83.262
46.88000 82.924
46.90000 87.330
46.92000 87.776
46.94000 86.123
46.96000 91.074
46.98000 84.898
47.00000 84.206
47.02000 84.914
47.04000 89.023
47.06000 91.267
47.08000 83.661
47.10000 77.179
47.12000 74.003
47.14000 73.523
47.16000 82.390
47.18000 86.348
47.20000 82.056
47.22000 77.004
47.24000 77.095
47.26000 77.487
47.28000 81.472
47.30000 69.759
47.32000 71.019
47.34000 71.101
47.36000 64.990
47.38000 69.435
47.40000 67.509
47.42000 57.094
47.44000 56.860
47.46000 66.242
47.48000 66.592
47.50000 58.870
47.52000 55.804
47.54000 54.857
47.56000 44.324
47.58000 37.322
47.60000 43.927
47.62000 44.702
47.64000 44.177
47.66000 41.723
47.68000 42.225
47.70000 39.104
47.72000 31.593
47.74000 33.273
47.76000 37.094
47.78000 34.416
47.80000 34.512
47.82000 36.062
47.84000 32.068
47.86000 31.446
47.88000 32.470
47.90000 28.399
47.92000 21.536
47.94000 26.239
47.96000 22.395
47.98000 21.926
48.00000 21.381
48.02000 21.228
48.04000 14.285
48.06000 16.760
48.08000 15.539
48.10000 18.223
48.12000 18.462
48.14000 20.366
48.16000 19.923
48.18000 11.452
48.20000 10.116
48.22000 11.812
48.24000 14.828
48.26000 16.158
48.28000 7.196
48.30000 11.572
48.32000 12.799
48.34000 8.764
48.36000 3.935
48.38000 0.902
48.40000 1.724
48.42000 3.374
48.44000 5.586
48.46000 9.071
48.48000 9.652
48.50000 3.847
48.52000 4.344
48.54000 -0.515
48.56000 3.846
48.58000 5.723
48.60000 5.745
48.62000 1.774
48.64000 0.845
48.66000 5.874
48.68000 9.165
48.70000 11.564
48.72000 12.979
48.74000 7.216
48.76000 -2.351
48.78000 -3.137
48.80000 -3.134
48.82000 0.343
48.84000 5.553
48.86000 8.563
48.88000 6.111
48.90000 0.801
48.92000 4.873
48.94000 3.793
48.96000 1.515
48.98000 0.649
49.00000 -0.182
49.02000 1.137
49.04000 7.071
49.06000 2.203
49.08000 -0.591
49.10000 1.531
49.12000 2.256
49.14000 -0.659
49.16000 1.162
49.18000 2.877
49.20000 3.820
49.22000 5.544
49.24000 9.743
49.26000 10.192
49.28000 6.689
49.30000 1.589
49.32000 3.903
49.34000 3.028
49.36000 1.513
49.38000 0.224
49.40000 1.570
49.42000 1.314
49.44000 -1.437
49.46000 -0.224
49.48000 2.301
49.50000 3.172
49.52000 3.424
49.54000 4.370
49.56000 3.760
49.58000 -2.008
49.60000 -1.069
49.62000 6.949
49.64000 6.084
49.66000 7.788
49.68000 10.689
49.70000 10.690
49.72000 7.453
49.74000 2.234
49.76000 2.302
49.78000 9.584
49.80000 6.021
49.82000 -0.043
49.84000 4.792
49.86000 2.930
49.88000 2.205
49.90000 2.399
49.92000 2.592
49.94000 5.924
49.96000 5.714
49.98000 6.548
50.00000 6.780
50.02000 4.430
50.04000 4.594
50.06000 7.994
50.08000 -2.104
50.10000 -2.917
50.12000 1.167
50.14000 9.009
50.16000 1.550
50.18000 1.005
50.20000 8.006
50.22000 4.062
50.24000 4.973
50.26000 1.893
50.28000 4.980
50.30000 7.074
50.32000 7.936
50.34000 4.293
50.36000 6.296
50.38000 6.960
50.40000 4.710
50.42000 1.671
50.44000 4.598
50.46000 2.101
50.48000 0.756
50.50000 2.223
50.52000 6.044
50.54000 -0.832
50.56000 -1.366
50.58000 2.507
50.60000 3.627
50.62000 1.260
50.64000 3.573
50.66000 2.431
50.68000 -1.532
50.70000 0.209
50.72000 2.359
50.74000 6.399
50.76000 2.950
50.78000 2.438
50.80000 6.654
50.82000 4.283
50.84000 7.370
50.86000 4.119
50.88000 2.439
50.90000 3.773
50.92000 1.987
50.94000 -0.423
50.96000 -0.687
50.98000 2.182
51.00000 -2.397
51.02000 -0.985
51.04000 3.385
51.06000 1.208
51.08000 0.715
51.10000 -1.352
51.12000 2.953
51.14000 2.868
51.16000 -1.388
51.18000 0.706
51.20000 3.049
51.22000 4.187
51.24000 3.903
51.26000 5.349
51.28000 2.918
51.30000 3.678
51.32000 4.030
51.34000 3.681
51.36000 -0.755
51.38000 -2.871
51.40000 4.404
51.42000 6.188
51.44000 4.762
51.46000 2.236
51.48000 2.567
51.50000 2.094
51.52000 -1.601
51.54000 0.569
51.56000 4.271
51.58000 5.163
51.60000 3.835
51.62000 -0.625
51.64000 1.881
51.66000 -0.013
51.68000 -2.860
51.70000 4.651
51.72000 2.958
51.74000 0.436
51.76000 4.451
51.78000 6.102
51.80000 5.702
51.82000 4.787
51.84000 6.578
51.86000 0.694
51.88000 -1.869
51.90000 8.042
51.92000 10.983
51.94000 7.189
51.96000 1.957
51.98000 7.342
52.00000 8.271
52.02000 5.185
52.04000 4.627
52.06000 3.232
52.08000 6.574
52.10000 7.746
52.12000 1.026
52.14000 -2.832
52.16000 -0.958
52.18000 3.752
52.20000 4.558
52.22000 -0.287
52.24000 4.237
52.26000 4.116
52.28000 2.802
52.30000 0.776
52.32000 2.502
52.34000 4.881
52.36000 5.111
52.38000 4.758
52.40000 4.538
52.42000 3.546
52.44000 -0.261
52.46000 0.142
52.48000 1.240
52.50000 2.224
52.52000 5.893
52.54000 5.846
52.56000 1.250
52.58000 1.638
52.60000 5.715
52.62000 2.772
52.64000 1.232
52.66000 7.342
52.68000 7.130
52.70000 4.989
52.72000 1.359
52.74000 4.654
52.76000 11.278
52.78000 9.862
52.80000 7.250
52.82000 5.049
52.84000 1.550
52.86000 -2.831
52.88000 2.630
52.90000 8.517
52.92000 5.252
52.94000 4.922
52.96000 2.963
52.98000 2.979
53.00000 2.573
53.02000 1.734
53.04000 1.867
53.06000 4.113
53.08000 7.458
53.10000 7.561
53.12000 5.210
53.14000 0.294
53.16000 0.809
53.18000 1.816
53.20000 0.681
53.22000 0.203
53.24000 1.898
53.26000 3.296
53.28000 3.542
53.30000 2.600
53.32000 4.704
53.34000 3.274
53.36000 2.831
53.38000 -1.000
53.40000 -1.695
53.42000 2.044
53.44000 2.415
53.46000 0.832
53.48000 -1.193
53.50000 2.678
53.52000 6.017
53.54000 3.358
53.56000 3.761
53.58000 4.144
53.60000 2.592
53.62000 4.106
53.64000 2.432
53.66000 3.530
53.68000 5.343
53.70000 4.651
53.72000 4.009
53.74000 3.590
53.76000 4.815
53.78000 -1.714
53.80000 3.052
53.82000 4.282
53.84000 0.059
53.86000 -0.071
53.88000 3.840
53.90000 6.431
53.92000 0.877
53.94000 2.173
53.96000 2.067
53.98000 4.936
54.00000 4.861
54.02000 3.133
54.04000 1.065
54.06000 -0.983
54.08000 -0.304
54.10000 4.231
54.12000 5.447
54.14000 3.170
54.16000 1.594
54.18000 1.199
54.20000 2.793
54.22000 1.519
54.24000 5.072
54.26000 7.049
54.28000 5.400
54.30000 7.885
54.32000 5.956
54.34000 4.107
54.36000 1.896
54.38000 -1.177
54.40000 -2.738
54.42000 1.066
54.44000 4.227
54.46000 10.236
54.48000 9.633
54.50000 12.508
54.52000 9.254
54.54000 8.129
54.56000 8.707
54.58000 8.474
54.60000 8.422
54.62000 5.814
54.64000 9.531
54.66000 7.190
54.68000 6.788
54.70000 8.369
54.72000 8.037
54.74000 6.045
54.76000 4.025
54.78000 9.029
54.80000 11.479
54.82000 6.227
54.84000 2.165
54.86000 5.069
54.88000 7.982
54.90000 4.084
54.92000 3.124
54.94000 6.087
54.96000 6.310
54.98000 10.439
55.00000 2.997
55.02000 4.326
55.04000 3.573
55.06000 6.922
55.08000 7.736
55.10000 3.518
55.12000 2.919
55.14000 6.252
55.16000 5.345
55.18000 8.549
55.20000 5.658
55.22000 2.614
55.24000 0.151
55.26000 1.008
55.28000 4.113
55.30000 3.822
55.32000 4.412
55.34000 5.183
55.36000 2.678
55.38000 4.929
55.40000 4.225
55.42000 2.369
55.44000 4.056
55.46000 1.900
55.48000 0.443
55.50000 1.291
55.52000 1.859
55.54000 1.254
55.56000 2.103
55.58000 3.809
55.60000 -1.520
55.62000 1.737
55.64000 5.633
55.66000 5.991
55.68000 8.279
55.70000 11.399
55.72000 9.051
55.74000 4.142
55.76000 8.089
55.78000 10.852
55.80000 9.762
55.82000 5.142
55.84000 0.220
55.86000 -2.729
55.88000 -0.045
55.90000 1.631
55.92000 5.664
55.94000 0.493
55.96000 2.319
55.98000 2.013
56.00000 5.863
56.02000 8.162
56.04000 5.204
56.06000 -0.119
56.08000 -1.166
56.10000 0.796
56.12000 -1.695
56.14000 0.806
56.16000 1.186
56.18000 0.237
56.20000 4.387
56.22000 4.937
56.24000 3.519
56.26000 1.215
56.28000 2.916
56.30000 2.753
56.32000 2.007
56.34000 3.581
56.36000 7.317
56.38000 8.190
56.40000 11.014
56.42000 5.880
56.44000 5.155
56.46000 7.149
56.48000 2.738
56.50000 3.718
56.52000 6.296
56.54000 2.167
56.56000 2.636
56.58000 4.591
56.60000 3.195
56.62000 2.329
56.64000 5.032
56.66000 5.995
56.68000 4.467
56.70000 2.134
56.72000 3.955
56.74000 5.337
56.76000 -0.056
56.78000 -0.773
56.80000 3.802
56.82000 4.447
56.84000 2.935
56.86000 6.112
56.88000 5.463
56.90000 5.129
56.92000 3.894
56.94000 1.206
56.96000 2.760
56.98000 1.433
57.00000 2.696
57.02000 4.718
57.04000 4.883
57.06000 2.489
57.08000 3.964
57.10000 4.806
57.12000 2.568
57.14000 0.344
57.16000 3.015
57.18000 3.116
57.20000 4.252
57.22000 5.980
57.24000 6.975
57.26000 7.105
57.28000 5.093
57.30000 2.213
57.32000 2.765
57.34000 -0.064
57.36000 1.781
57.38000 5.199
57.40000 4.494
57.42000 5.209
57.44000 2.343
57.46000 5.685
57.48000 9.189
57.50000 4.336
57.52000 4.583
57.54000 7.144
57.56000 2.732
57.58000 6.695
57.60000 5.594
57.62000 6.047
57.64000 7.563
57.66000 5.391
57.68000 0.840
57.70000 2.053
57.72000 8.269
57.74000 8.150
57.76000 5.049
57.78000 5.458
57.80000 2.471
57.82000 1.314
57.84000 -2.627
57.86000 2.874
57.88000 0.926
57.90000 -0.087
57.92000 3.985
57.94000 5.260
57.96000 4.272
57.98000 4.408
58.00000 4.227
58.02000 5.290
58.04000 2.644
58.06000 5.891
58.08000 9.101
58.10000 10.214
58.12000 4.517
58.14000 3.184
58.16000 3.713
58.18000 1.650
58.20000 3.206
58.22000 5.717
58.24000 4.816
58.26000 6.129
58.28000 6.569
58.30000 6.333
58.32000 2.756
58.34000 1.290
58.36000 3.023
58.38000 6.530
58.40000 3.648
58.42000 2.332
58.44000 3.314
58.46000 1.925
58.48000 1.093
58.50000 2.446
58.52000 1.269
58.54000 3.523
58.56000 1.640
58.58000 5.508
58.60000 2.010
58.62000 5.461
58.64000 3.685
58.66000 6.284
58.68000 1.265
58.70000 0.946
58.72000 1.395
58.74000 5.144
58.76000 5.433
58.78000 5.339
58.80000 1.656
58.82000 1.563
58.84000 1.486
58.86000 1.049
58.88000 7.696
58.90000 5.427
58.92000 6.137
58.94000 3.529
58.96000 -0.372
58.98000 4.351
59.00000 6.702
59.02000 3.434
59.04000 5.827
59.06000 5.390
59.08000 2.596
59.10000 3.970
59.12000 7.449
59.14000 3.536
59.16000 1.899
59.18000 2.338
59.20000 3.243
59.22000 1.852
59.24000 1.852
59.26000 5.770
59.28000 7.454
59.30000 4.399
59.32000 2.583
59.34000 0.005
59.36000 1.573
59.38000 1.094
59.40000 1.115
59.42000 -0.719
59.44000 3.329
59.46000 8.029
59.48000 4.866
59.50000 2.241
59.52000 6.329
59.54000 9.406
59.56000 5.835
59.58000 7.111
59.60000 3.256
59.62000 3.134
59.64000 7.936
59.66000 6.715
59.68000 1.576
59.70000 4.339
59.72000 2.416
59.74000 2.453
59.76000 0.618
59.78000 1.657
59.80000 3.224
59.82000 4.746
59.84000 3.939
59.86000 4.426
59.88000 1.782
59.90000 1.786
59.92000 3.924
59.94000 5.676
59.96000 3.555
59.98000 4.339
60.00000 7.129
60.02000 2.085
60.04000 -2.577
60.06000 3.260
60.08000 3.937
60.10000 4.614
60.12000 6.671
60.14000 2.744
60.16000 4.912
60.18000 2.387
60.20000 1.240
60.22000 5.083
60.24000 3.187
60.26000 0.926
60.28000 3.637
60.30000 7.402
60.32000 7.179
60.34000 3.829
60.36000 3.828
60.38000 2.949
60.40000 5.027
60.42000 3.348
60.44000 4.228
60.46000 10.540
60.48000 8.890
60.50000 4.459
60.52000 5.044
60.54000 8.226
60.56000 4.460
60.58000 -0.515
60.60000 -1.128
60.62000 1.563
60.64000 -0.071
60.66000 1.993
60.68000 2.386
60.70000 5.429
60.72000 9.161
60.74000 5.081
60.76000 0.533
60.78000 0.398
60.80000 2.918
60.82000 2.157
60.84000 2.739
60.86000 7.257
60.88000 3.797
60.90000 5.402
60.92000 4.279
60.94000 2.081
60.96000 6.257
60.98000 3.816
61.00000 2.081
61.02000 0.477
61.04000 -2.551
61.06000 0.795
61.08000 -1.104
61.10000 -0.503
61.12000 -0.718
61.14000 0.068
61.16000 4.409
61.18000 2.824
61.20000 3.402
61.22000 1.884
61.24000 4.941
61.26000 9.848
61.28000 8.505
61.30000 4.144
61.32000 3.096
61.34000 -2.383
61.36000 1.728
61.38000 1.684
61.40000 2.600
61.42000 0.969
61.44000 0.165
61.46000 1.819
61.48000 0.989
61.50000 -0.419
61.52000 -0.459
61.54000 2.221
61.56000 -2.567
61.58000 0.081
61.60000 -1.061
61.62000 2.022
61.64000 0.042
61.66000 1.667
61.68000 2.731
61.70000 2.790
61.72000 -0.078
61.74000 1.714
61.76000 1.261
61.78000 0.342
61.80000 0.249
61.82000 -2.139
61.84000 0.727
61.86000 4.039
61.88000 4.871
61.90000 3.285
61.92000 -0.050
61.94000 -0.876
61.96000 1.802
61.98000 3.601
62.00000 0.834
62.02000 -2.011
62.04000 -0.346
62.06000 0.602
62.08000 -0.582
62.10000 -1.727
62.12000 4.969
62.14000 4.029
62.16000 1.528
62.18000 1.805
62.20000 3.172
62.22000 0.844
62.24000 2.994
62.26000 3.049
62.28000 3.378
62.30000 -0.573
62.32000 1.437
62.34000 3.246
62.36000 1.407
62.38000 0.102
62.40000 4.831
62.42000 4.519
62.44000 2.889
62.46000 1.326
62.48000 4.359
62.50000 0.907
62.52000 5.802
62.54000 6.728
62.56000 5.248
62.58000 3.652
62.60000 -2.556
62.62000 -0.487
62.64000 2.599
62.66000 0.521
62.68000 1.435
62.70000 -0.191
62.72000 1.397
62.74000 -0.310
62.76000 5.858
62.78000 10.989
62.80000 5.779
62.82000 0.877
62.84000 1.313
62.86000 2.662
62.88000 6.367
62.90000 6.796
62.92000 3.939
62.94000 1.426
62.96000 0.555
62.98000 1.548
63.00000 1.038
63.02000 3.023
63.04000 3.392
63.06000 1.904
63.08000 2.385
63.10000 1.454
63.12000 3.584
63.14000 3.179
63.16000 1.218
63.18000 2.042
63.20000 2.427
63.22000 2.841
63.24000 7.525
63.26000 5.561
63.28000 4.449
63.30000 2.208
63.32000 0.577
63.34000 -2.539
63.36000 1.181
63.38000 0.810
63.40000 -2.162
63.42000 0.349
63.44000 -1.035
63.46000 3.016
63.48000 2.829
63.50000 -0.001
63.52000 -0.747
63.54000 3.773
63.56000 3.423
63.58000 2.699
63.60000 1.710
63.62000 2.426
63.64000 1.820
63.66000 0.542
63.68000 0.242
63.70000 0.587
63.72000 1.722
63.74000 0.892
63.76000 0.365
63.78000 -2.527
63.80000 1.193
63.82000 1.411
63.84000 -1.719
63.86000 0.555
63.88000 -0.660
63.90000 -0.436
63.92000 5.442
63.94000 1.328
63.96000 5.231
63.98000 6.858
64.00000 6.096
64.02000 5.531
64.04000 3.510
64.06000 2.089
64.08000 2.968
64.10000 -2.523
64.12000 -1.492
64.14000 3.356
64.16000 4.312
64.18000 4.511
64.20000 6.093
64.22000 -0.152
64.24000 1.765
64.26000 3.205
64.28000 1.525
64.30000 0.106
64.32000 4.123
64.34000 3.507
64.36000 0.496
64.38000 0.520
64.40000 2.511
64.42000 1.680
64.44000 -1.022
64.46000 -0.050
64.48000 2.910
64.50000 -1.293
64.52000 -0.364
64.54000 4.487
64.56000 5.109
64.58000 0.220
64.60000 -2.558
64.62000 3.974
64.64000 1.813
64.66000 -0.326
64.68000 0.960
64.70000 5.868
64.72000 3.954
64.74000 0.923
64.76000 4.332
64.78000 2.616
64.80000 -0.606
64.82000 -1.446
64.84000 -1.413
64.86000 -1.720
64.88000 1.267
64.90000 2.220
64.92000 2.254
64.94000 1.152
64.96000 0.218
64.98000 -0.452
65.00000 0.253
65.02000 2.394
65.04000 1.377
65.06000 0.402
65.08000 1.944
65.10000 -1.884
65.12000 1.546
65.14000 1.190
65.16000 -1.717
65.18000 1.124
65.20000 -0.222
65.22000 0.145
65.24000 1.527
65.26000 -1.855
65.28000 -0.061
65.30000 1.064
65.32000 2.059
65.34000 0.026
65.36000 1.989
65.38000 0.224
65.40000 -0.852
65.42000 0.630
65.44000 1.159
65.46000 0.512
65.48000 -2.002
65.50000 -2.350
65.52000 -0.751
65.54000 -0.576
65.56000 -2.582
65.58000 -0.519
65.60000 0.813
65.62000 1.278
65.64000 1.457
65.66000 2.104
65.68000 3.057
65.70000 -0.313
65.72000 1.266
65.74000 6.122
65.76000 4.218
65.78000 5.825
65.80000 -1.468
65.82000 -1.418
65.84000 2.254
65.86000 2.379
65.88000 2.106
65.90000 1.828
65.92000 1.090
65.94000 0.387
65.96000 1.857
65.98000 -0.709
66.00000 4.006
66.02000 0.310
66.04000 -1.912
66.06000 0.443
66.08000 0.671
66.10000 0.037
66.12000 -2.598
66.14000 -0.629
66.16000 2.849
66.18000 1.585
66.20000 2.244
66.22000 5.190
66.24000 1.712
66.26000 1.496
66.28000 0.194
66.30000 3.463
66.32000 4.874
66.34000 2.106
66.36000 3.284
66.38000 0.825
66.40000 -0.481
66.42000 -0.700
66.44000 -2.312
66.46000 -0.525
66.48000 2.177
66.50000 3.043
66.52000 1.489
66.54000 -0.932
66.56000 0.332
66.58000 -1.265
66.60000 0.070
66.62000 1.914
66.64000 0.860
66.66000 0.348
66.68000 1.269
66.70000 4.850
66.72000 5.158
66.74000 1.722
66.76000 1.927
66.78000 -0.482
66.80000 3.377
66.82000 1.187
66.84000 1.906
66.86000 3.035
66.88000 1.214
66.90000 1.297
66.92000 0.478
66.94000 -2.650
66.96000 -0.985
66.98000 0.444
67.00000 7.085
67.02000 6.805
67.04000 3.646
67.06000 2.669
67.08000 5.089
67.10000 1.813
67.12000 3.419
67.14000 5.842
67.16000 1.224
67.18000 -2.346
67.20000 1.128
67.22000 1.845
67.24000 6.103
67.26000 5.050
67.28000 6.854
67.30000 4.754
67.32000 5.535
67.34000 3.845
67.36000 2.369
67.38000 0.843
67.40000 2.447
67.42000 4.392
67.44000 5.745
67.46000 7.477
67.48000 6.620
67.50000 5.510
67.52000 8.817
67.54000 7.752
67.56000 8.493
67.58000 6.456
67.60000 7.307
67.62000 5.502
67.64000 8.585
67.66000 5.736
67.68000 9.574
67.70000 13.809
67.72000 12.168
67.74000 9.031
67.76000 6.729
67.78000 10.686
67.80000 11.852
67.82000 11.359
67.84000 12.672
67.86000 10.095
67.88000 7.490
67.90000 12.019
67.92000 11.932
67.94000 15.479
67.96000 14.900
67.98000 15.592
68.00000 13.193
68.02000 17.939
68.04000 16.923
68.06000 18.079
68.08000 20.197
68.10000 15.187
68.12000 17.162
68.14000 21.560
68.16000 19.060
68.18000 17.187
68.20000 16.111
68.22000 18.923
68.24000 21.233
68.26000 24.363
68.28000 20.849
68.30000 19.680
68.32000 21.361
68.34000 22.953
68.36000 19.869
68.38000 22.279
68.40000 21.410
68.42000 20.160
68.44000 20.878
68.46000 21.560
68.48000 21.718
68.50000 17.748
68.52000 18.424
68.54000 20.778
68.56000 22.061
68.58000 19.543
68.60000 20.169
68.62000 20.267
68.64000 21.556
68.66000 22.368
68.68000 24.897
68.70000 25.033
68.72000 21.740
68.74000 21.112
68.76000 19.717
68.78000 19.246
68.80000 17.036
68.82000 17.485
68.84000 21.327
68.86000 15.500
68.88000 12.664
68.90000 14.932
68.92000 14.843
68.94000 14.951
68.96000 15.576
68.98000 16.489
69.00000 15.204
69.02000 12.210
69.04000 13.084
69.06000 11.921
69.08000 10.362
69.10000 10.845
69.12000 11.745
69.14000 13.645
69.16000 12.667
69.18000 12.245
69.20000 15.005
69.22000 12.976
69.24000 9.498
69.26000 10.193
69.28000 13.577
69.30000 8.035
69.32000 6.331
69.34000 5.095
69.36000 5.136
69.38000 8.297
69.40000 8.952
69.42000 6.204
69.44000 5.467
69.46000 7.233
69.48000 5.319
69.50000 7.119
69.52000 5.806
69.54000 4.738
69.56000 6.029
69.58000 6.396
69.60000 3.949
69.62000 2.476
69.64000 3.738
69.66000 1.369
69.68000 5.758
69.70000 7.481
69.72000 7.656
69.74000 8.288
69.76000 10.920
69.78000 8.160
69.80000 3.386
69.82000 2.271
69.84000 3.956
69.86000 2.817
69.88000 1.795
69.90000 1.129
69.92000 0.654
69.94000 0.916
69.96000 -0.909
69.98000 5.840
70.00000 7.909
70.02000 6.808
70.04000 6.197
70.06000 -1.074
70.08000 -2.532
70.10000 1.013
70.12000 1.898
70.14000 4.474
70.16000 2.265
70.18000 3.596
70.20000 2.278
70.22000 -0.073
70.24000 -0.600
70.26000 0.116
70.28000 3.220
70.30000 2.295
70.32000 3.656
70.34000 4.053
70.36000 3.617
70.38000 5.148
70.40000 3.354
70.42000 2.371
70.44000 -2.486
70.46000 0.562
70.48000 5.548
70.50000 3.666
70.52000 6.272
70.54000 4.855
70.56000 5.549
70.58000 6.102
70.60000 4.212
70.62000 -0.579
70.64000 1.187
70.66000 1.675
70.68000 3.933
70.70000 3.073
70.72000 2.435
70.74000 1.541
70.76000 3.285
70.78000 3.726
70.80000 3.110
70.82000 3.386
70.84000 1.727
70.86000 1.873
70.88000 -2.161
70.90000 -2.161
70.92000 -0.834
70.94000 -1.970
70.96000 -0.332
70.98000 2.729
71.00000 3.962
71.02000 3.862
71.04000 4.058
71.06000 1.125
71.08000 1.533
71.10000 2.250
71.12000 1.953
71.14000 -1.022
71.16000 4.617
71.18000 2.568
71.20000 5.807
71.22000 2.250
71.24000 1.599
71.26000 6.278
71.28000 2.307
71.30000 3.182
71.32000 2.789
71.34000 5.124
71.36000 3.576
71.38000 5.274
71.40000 5.651
71.42000 2.329
71.44000 3.512
71.46000 -2.431
71.48000 2.508
71.50000 -0.336
71.52000 -0.425
71.54000 2.718
71.56000 2.504
71.58000 3.235
71.60000 1.175
71.62000 1.990
71.64000 5.733
71.66000 4.657
71.68000 6.367
71.70000 5.243
71.72000 5.116
71.74000 6.457
71.76000 4.929
71.78000 1.535
71.80000 2.226
71.82000 5.773
71.84000 2.809
71.86000 5.038
71.88000 5.483
71.90000 4.300
71.92000 2.498
71.94000 2.573
71.96000 4.576
71.98000 3.334
72.00000 1.086
72.02000 1.156
72.04000 1.335
72.06000 0.526
72.08000 0.768
72.10000 0.418
72.12000 5.663
72.14000 3.610
72.16000 1.844
72.18000 1.689
72.20000 0.223
72.22000 0.912
72.24000 3.107
72.26000 3.536
72.28000 7.530
72.30000 7.657
72.32000 7.480
72.34000 2.586
72.36000 2.021
72.38000 1.903
72.40000 4.105
72.42000 4.330
72.44000 4.938
72.46000 4.295
72.48000 1.187
72.50000 2.968
72.52000 4.835
72.54000 1.089
72.56000 -0.254
72.58000 1.282
72.60000 6.211
72.62000 4.562
72.64000 0.254
72.66000 -2.371
72.68000 0.912
72.70000 4.645
72.72000 5.104
72.74000 6.774
72.76000 6.048
72.78000 7.121
72.80000 6.922
72.82000 7.032
72.84000 5.177
72.86000 4.029
72.88000 4.156
72.90000 1.580
72.92000 4.326
72.94000 2.488
72.96000 1.412
72.98000 5.709
73.00000 4.506
73.02000 3.823
73.04000 3.095
73.06000 -0.474
73.08000 0.739
73.10000 3.155
73.12000 -0.733
73.14000 -2.376
73.16000 3.759
73.18000 4.929
73.20000 1.020
73.22000 2.385
73.24000 1.808
73.26000 -1.165
73.28000 2.813
73.30000 2.591
73.32000 3.234
73.34000 1.061
73.36000 2.800
73.38000 1.966
73.40000 3.396
73.42000 2.597
73.44000 0.213
73.46000 -0.132
73.48000 7.311
73.50000 4.919
73.52000 1.412
73.54000 2.170
73.56000 1.725
73.58000 1.880
73.60000 6.332
73.62000 0.745
73.64000 1.393
73.66000 3.977
73.68000 6.112
73.70000 0.928
73.72000 1.766
73.74000 3.697
73.76000 1.751
73.78000 1.263
73.80000 3.139
73.82000 3.490
73.84000 3.699
73.86000 4.183
73.88000 5.324
73.90000 3.145
73.92000 -2.099
73.94000 1.871
73.96000 1.879
73.98000 4.313
74.00000 4.821
74.02000 5.647
74.04000 2.329
74.06000 4.316
74.08000 1.516
74.10000 -0.877
74.12000 3.107
74.14000 1.600
74.16000 -2.351
74.18000 1.796
74.20000 2.075
74.22000 3.946
74.24000 3.220
74.26000 1.110
74.28000 4.291
74.30000 0.961
74.32000 4.989
74.34000 6.776
74.36000 2.955
74.38000 7.291
74.40000 4.131
74.42000 -1.570
74.44000 2.779
74.46000 2.899
74.48000 2.391
74.50000 5.339
74.52000 6.498
74.54000 7.529
74.56000 11.366
74.58000 8.002
74.60000 7.683
74.62000 6.404
74.64000 4.758
74.66000 6.371
74.68000 3.134
74.70000 -0.821
74.72000 0.981
74.74000 0.156
74.76000 -0.312
74.78000 8.952
74.80000 12.029
74.82000 11.897
74.84000 8.328
74.86000 6.886
74.88000 8.362
74.90000 -2.348
74.92000 -0.117
74.94000 5.295
74.96000 3.866
74.98000 5.252
75.00000 5.222
75.02000 0.811
75.04000 3.394
75.06000 1.417
75.08000 0.967
75.10000 0.804
75.12000 2.078
75.14000 2.610
75.16000 2.261
75.18000 3.791
75.20000 2.456
75.22000 4.925
75.24000 6.034
75.26000 4.855
75.28000 2.174
75.30000 2.641
75.32000 5.908
75.34000 3.107
75.36000 0.476
75.38000 -1.412
75.40000 -2.380
75.42000 -0.407
75.44000 2.350
75.46000 1.158
75.48000 0.391
75.50000 0.003
75.52000 1.344
75.54000 3.141
75.56000 4.440
75.58000 2.369
75.60000 1.666
75.62000 2.549
75.64000 3.101
75.66000 4.877
75.68000 4.894
75.70000 5.778
75.72000 5.839
75.74000 8.545
75.76000 4.595
75.78000 2.084
75.80000 -0.518
75.82000 1.470
75.84000 0.133
75.86000 5.444
75.88000 2.445
75.90000 1.078
75.92000 2.225
75.94000 2.347
75.96000 4.432
75.98000 3.395
76.00000 -0.753
76.02000 -1.280
76.04000 -0.848
76.06000 0.454
76.08000 2.427
76.10000 4.488
76.12000 4.671
76.14000 1.858
76.16000 4.359
76.18000 10.170
76.20000 6.599
76.22000 2.976
76.24000 0.020
76.26000 -2.399
76.28000 -0.359
76.30000 -0.603
76.32000 0.477
76.34000 2.753
76.36000 2.864
76.38000 -1.529
76.40000 -1.822
76.42000 3.444
76.44000 2.203
76.46000 2.508
76.48000 4.589
76.50000 0.302
76.52000 3.408
76.54000 2.317
76.56000 -0.283
76.58000 1.968
76.60000 6.176
76.62000 3.168
76.64000 4.991
76.66000 6.610
76.68000 2.894
76.70000 0.105
76.72000 0.105
76.74000 3.507
76.76000 3.717
76.78000 0.767
76.80000 3.957
76.82000 5.717
76.84000 4.821
76.86000 4.614
76.88000 3.487
76.90000 4.808
76.92000 5.495
76.94000 2.331
76.96000 -1.861
76.98000 -2.385
77.00000 -0.119
77.02000 -0.738
77.04000 -0.670
77.06000 1.248
77.08000 0.878
77.10000 1.415
77.12000 3.613
77.14000 2.164
77.16000 5.699
77.18000 5.866
77.20000 5.865
77.22000 3.009
77.24000 4.042
77.26000 5.878
77.28000 3.322
77.30000 6.207
77.32000 3.733
77.34000 2.481
77.36000 0.167
77.38000 1.840
77.40000 4.985
77.42000 4.530
77.44000 -1.665
77.46000 -2.389
77.48000 1.298
77.50000 3.535
77.52000 4.080
77.54000 0.710
77.56000 1.047
77.58000 2.822
77.60000 1.288
77.62000 5.793
77.64000 5.952
77.66000 9.713
77.68000 6.324
77.70000 4.863
77.72000 2.427
77.74000 2.735
77.76000 6.982
77.78000 2.807
77.80000 -1.098
77.82000 -1.787
77.84000 -0.576
77.86000 5.437
77.88000 4.011
77.90000 1.445
77.92000 0.093
77.94000 2.095
77.96000 1.049
77.98000 2.280
78.00000 0.208
78.02000 -2.401
78.04000 1.142
78.06000 7.026
78.08000 5.118
78.10000 1.333
78.12000 1.736
78.14000 5.140
78.16000 3.037
78.18000 5.349
78.20000 6.164
78.22000 5.804
78.24000 5.206
78.26000 5.769
78.28000 3.383
78.30000 0.407
78.32000 3.355
78.34000 1.178
78.36000 2.608
78.38000 2.755
78.40000 3.414
78.42000 1.557
78.44000 0.552
78.46000 5.692
78.48000 6.029
78.50000 1.921
78.52000 3.013
78.54000 5.354
78.56000 3.335
78.58000 2.929
78.60000 4.711
78.62000 3.414
78.64000 1.887
78.66000 1.856
78.68000 -2.039
78.70000 1.000
78.72000 4.908
78.74000 3.719
78.76000 1.289
78.78000 4.545
78.80000 5.419
78.82000 0.651
78.84000 0.962
78.86000 -1.508
78.88000 0.260
78.90000 2.672
78.92000 4.129
78.94000 -0.490
78.96000 -0.650
78.98000 -0.774
79.00000 -1.113
79.02000 3.711
79.04000 11.567
79.06000 12.176
79.08000 8.478
79.10000 3.136
79.12000 3.246
79.14000 0.997
79.16000 -2.443
79.18000 2.358
79.20000 2.916
79.22000 3.897
79.24000 5.255
79.26000 8.098
79.28000 7.725
79.30000 6.637
79.32000 7.141
79.34000 4.948
79.36000 0.462
79.38000 2.236
79.40000 5.102
79.42000 2.973
79.44000 4.965
79.46000 3.411
79.48000 -0.975
79.50000 0.258
79.52000 4.648
79.54000 8.338
79.56000 4.960
79.58000 7.962
79.60000 3.775
79.62000 0.504
79.64000 -0.012
79.66000 0.662
79.68000 -0.952
79.70000 -1.409
79.72000 1.121
79.74000 4.994
79.76000 4.867
79.78000 2.054
79.80000 3.768
79.82000 5.700
79.84000 3.461
79.86000 2.564
79.88000 0.650
79.90000 -0.056
79.92000 0.212
79.94000 2.999
79.96000 1.586
79.98000 -1.662
80.00000 -2.469
80.02000 -0.904
80.04000 4.581
80.06000 5.962
80.08000 2.122
80.10000 3.238
80.12000 5.526
80.14000 8.727
80.16000 5.460
80.18000 11.009
80.20000 1.424
80.22000 -1.217
80.24000 2.538
80.26000 3.323
80.28000 4.508
80.30000 7.116
80.32000 10.342
80.34000 6.973
80.36000 1.220
80.38000 -1.080
80.40000 2.023
80.42000 2.097
80.44000 -0.836
80.46000 5.491
80.48000 6.794
80.50000 4.878
80.52000 4.926
80.54000 9.767
80.56000 9.446
80.58000 9.780
80.60000 6.412
80.62000 1.062
80.64000 -0.575
80.66000 2.586
80.68000 4.773
80.70000 6.171
80.72000 2.884
80.74000 -1.313
80.76000 0.324
80.78000 -0.049
80.80000 -1.964
80.82000 1.638
80.84000 3.386
80.86000 1.048
80.88000 1.601
80.90000 5.017
80.92000 6.745
80.94000 3.484
80.96000 5.807
80.98000 -0.143
81.00000 -1.365
81.02000 3.755
81.04000 8.000
81.06000 2.655
81.08000 -0.745
81.10000 0.005
81.12000 -1.355
81.14000 -1.250
81.16000 4.125
81.18000 8.347
81.20000 2.864
81.22000 4.302
81.24000 0.531
81.26000 0.366
81.28000 6.097
81.30000 7.593
81.32000 6.910
81.34000 8.795
81.36000 6.575
81.38000 5.747
81.40000 4.179
81.42000 4.106
81.44000 1.436
81.46000 3.338
81.48000 4.619
81.50000 11.458
81.52000 10.130
81.54000 11.247
81.56000 10.221
81.58000 8.790
81.60000 8.948
81.62000 5.378
81.64000 9.647
81.66000 7.328
81.68000 9.551
81.70000 9.738
81.72000 7.592
81.74000 14.846
81.76000 14.899
81.78000 8.528
81.80000 18.754
81.82000 17.010
81.84000 16.481
81.86000 15.840
81.88000 16.123
81.90000 21.575
81.92000 15.348
81.94000 10.206
81.96000 13.823
81.98000 17.974
82.00000 19.071
82.02000 17.775
82.04000 19.862
82.06000 15.602
82.08000 15.183
82.10000 17.977
82.12000 20.599
82.14000 17.905
82.16000 16.927
82.18000 21.189
82.20000 19.995
82.22000 14.358
82.24000 14.426
82.26000 18.622
82.28000 17.285
82.30000 19.439
82.32000 23.401
82.34000 23.793
82.36000 23.753
82.38000 17.624
82.40000 22.640
82.42000 25.687
82.44000 25.270
82.46000 24.760
82.48000 23.086
82.50000 25.238
82.52000 24.944
82.54000 30.879
82.56000 28.206
82.58000 24.868
82.60000 24.643
82.62000 21.524
82.64000 19.042
82.66000 26.946
82.68000 26.083
82.70000 28.865
82.72000 34.881
82.74000 31.776
82.76000 30.230
82.78000 26.305
82.80000 21.229
82.82000 22.754
82.84000 23.411
82.86000 24.506
82.88000 24.402
82.90000 23.982
82.92000 25.433
82.94000 25.434
82.96000 24.851
82.98000 28.172
83.00000 27.483
83.02000 26.792
83.04000 20.781
83.06000 23.012
83.08000 21.137
83.10000 21.988
83.12000 21.318
83.14000 21.872
83.16000 23.770
83.18000 23.287
83.20000 22.966
83.22000 21.920
83.24000 26.472
83.26000 21.141
83.28000 14.785
83.30000 14.475
83.32000 18.083
83.34000 16.531
83.36000 11.973
83.38000 18.602
83.40000 16.009
83.42000 17.571
83.44000 15.942
83.46000 13.626
83.48000 17.997
83.50000 13.867
83.52000 16.090
83.54000 10.740
83.56000 10.742
83.58000 8.510
83.60000 12.547
83.62000 12.239
83.64000 8.676
83.66000 13.674
83.68000 13.941
83.70000 11.117
83.72000 13.354
83.74000 12.855
83.76000 11.447
83.78000 11.539
83.80000 13.755
83.82000 13.184
83.84000 10.289
83.86000 7.844
83.88000 11.620
83.90000 14.564
83.92000 7.808
83.94000 9.141
83.96000 5.065
83.98000 3.104
84.00000 7.540
84.02000 8.693
84.04000 5.296
84.06000 7.100
84.08000 7.058
84.10000 8.117
84.12000 7.623
84.14000 6.149
84.16000 4.003
84.18000 2.176
84.20000 3.780
84.22000 8.684
84.24000 10.357
84.26000 5.224
84.28000 6.192
84.30000 7.778
84.32000 11.240
84.34000 9.522
84.36000 10.766
84.38000 6.625
84.40000 8.273
84.42000 9.021
84.44000 8.547
84.46000 7.995
84.48000 7.075
84.50000 2.997
84.52000 -0.345
84.54000 0.968
84.56000 5.905
84.58000 6.621
84.60000 -2.490
84.62000 -1.029
84.64000 0.321
84.66000 4.598
84.68000 8.092
84.70000 6.386
84.72000 1.685
84.74000 -0.416
84.76000 3.606
84.78000 -1.395
84.80000 -2.490
84.82000 1.291
84.84000 -0.609
84.86000 1.967
84.88000 0.557
84.90000 0.817
84.92000 1.010
84.94000 2.876
84.96000 -0.606
84.98000 0.253
85.00000 -0.530
85.02000 -1.530
85.04000 1.777
85.06000 6.727
85.08000 1.876
85.10000 0.286
85.12000 6.860
85.14000 4.388
85.16000 -0.633
85.18000 2.186
85.20000 3.539
85.22000 3.113
85.24000 0.438
85.26000 0.704
85.28000 4.320
85.30000 2.785
85.32000 3.908
85.34000 -0.562
85.36000 -2.489
85.38000 0.863
85.40000 2.325
85.42000 0.703
85.44000 3.460
85.46000 1.774
85.48000 -1.532
85.50000 3.897
85.52000 3.809
85.54000 0.973
85.56000 5.370
85.58000 5.648
85.60000 -1.786
85.62000 -1.343
85.64000 0.652
85.66000 -2.494
85.68000 -1.342
85.70000 1.386
85.72000 4.105
85.74000 2.551
85.76000 5.010
85.78000 0.061
85.80000 0.114
85.82000 3.920
85.84000 1.995
85.86000 -0.503
85.88000 1.398
85.90000 -1.384
85.92000 -1.362
85.94000 -2.025
85.96000 -0.601
85.98000 9.119
86.00000 6.606
86.02000 5.721
86.04000 7.013
86.06000 7.022
86.08000 5.452
86.10000 7.601
86.12000 8.407
86.14000 10.036
86.16000 6.172
86.18000 4.917
86.20000 7.642
86.22000 2.650
86.24000 5.622
86.26000 5.965
86.28000 8.493
86.30000 8.024
86.32000 8.779
86.34000 9.919
86.36000 10.089
86.38000 9.668
86.40000 7.129
86.42000 7.858
86.44000 14.961
86.46000 14.950
86.48000 13.927
86.50000 16.178
86.52000 11.384
86.54000 11.478
86.56000 14.104
86.58000 12.474
86.60000 16.780
86.62000 21.668
86.64000 19.443
86.66000 15.148
86.68000 15.146
86.70000 16.908
86.72000 17.925
86.74000 15.553
86.76000 9.419
86.78000 11.324
86.80000 16.780
86.82000 19.957
86.84000 21.503
86.86000 18.149
86.88000 13.153
86.90000 17.710
86.92000 21.894
86.94000 24.707
86.96000 23.189
86.98000 20.162
87.00000 19.755
87.02000 19.491
87.04000 24.887
87.06000 21.496
87.08000 22.302
87.10000 22.740
87.12000 22.114
87.14000 19.969
87.16000 23.225
87.18000 20.327
87.20000 16.861
87.22000 16.014
87.24000 17.032
87.26000 18.439
87.28000 19.895
87.30000 17.135
87.32000 20.186
87.34000 19.692
87.36000 20.678
87.38000 20.506
87.40000 17.534
87.42000 17.720
87.44000 22.359
87.46000 25.750
87.48000 19.578
87.50000 15.401
87.52000 14.478
87.54000 12.310
87.56000 14.953
87.58000 15.790
87.60000 13.562
87.62000 16.166
87.64000 16.407
87.66000 13.547
87.68000 19.671
87.70000 12.314
87.72000 11.843
87.74000 13.504
87.76000 14.308
87.78000 11.451
87.80000 14.214
87.82000 14.498
87.84000 13.969
87.86000 17.219
87.88000 16.091
87.90000 12.767
87.92000 11.506
87.94000 12.954
87.96000 14.553
87.98000 8.201
88.00000 11.106
88.02000 11.768
88.04000 7.946
88.06000 4.528
88.08000 7.745
88.10000 10.748
88.12000 6.580
88.14000 4.351
88.16000 3.424
88.18000 2.414
88.20000 10.015
88.22000 13.816
88.24000 12.562
88.26000 2.175
88.28000 2.144
88.30000 5.722
88.32000 8.774
88.34000 6.385
88.36000 4.371
88.38000 5.381
88.40000 6.311
88.42000 4.944
88.44000 7.836
88.46000 9.084
88.48000 6.986
88.50000 4.765
88.52000 4.496
88.54000 5.396
88.56000 5.672
88.58000 2.230
88.60000 5.198
88.62000 3.650
88.64000 5.169
88.66000 0.699
88.68000 2.377
88.70000 2.226
88.72000 -2.146
88.74000 -2.373
88.76000 1.310
88.78000 0.754
88.80000 0.349
88.82000 -1.311
88.84000 -0.329
88.86000 2.988
88.88000 1.806
88.90000 2.635
88.92000 2.516
88.94000 4.563
88.96000 -0.786
88.98000 0.910
89.00000 4.101
89.02000 2.009
89.04000 2.035
89.06000 6.412
89.08000 -0.602
89.10000 1.262
89.12000 -0.235
89.14000 1.171
89.16000 1.667
89.18000 -0.367
89.20000 -0.658
89.22000 3.612
89.24000 5.196
89.26000 2.451
89.28000 5.091
89.30000 9.327
89.32000 6.659
89.34000 7.322
89.36000 5.894
89.38000 -2.263
89.40000 0.909
89.42000 3.187
89.44000 1.292
89.46000 5.795
89.48000 9.996
89.50000 4.610
89.52000 2.111
89.54000 0.709
89.56000 3.187
89.58000 4.189
89.60000 2.186
89.62000 5.560
89.64000 2.874
89.66000 2.119
89.68000 2.183
89.70000 0.449
89.72000 1.381
89.74000 1.849
89.76000 3.834
89.78000 5.100
89.80000 3.785
89.82000 4.855
89.84000 5.161
89.86000 1.019
89.88000 0.471
89.90000 3.413
89.92000 0.452
89.94000 2.889
89.96000 -0.183
89.98000 0.185
90.00000 3.636
90.02000 1.818
90.04000 0.751
90.06000 2.629
90.08000 1.013
90.10000 1.424
90.12000 5.680
90.14000 7.615
90.16000 -2.245
90.18000 3.387
90.20000 5.185
90.22000 4.175
90.24000 0.721
90.26000 -0.800
90.28000 0.680
90.30000 -0.253
90.32000 1.430
90.34000 3.778
90.36000 1.170
90.38000 -1.360
90.40000 3.865
90.42000 4.019
90.44000 -0.313
90.46000 4.053
90.48000 7.097
90.50000 1.698
90.52000 3.120
90.54000 -0.413
90.56000 0.502
90.58000 2.174
90.60000 4.276
90.62000 3.377
90.64000 0.204
90.66000 2.725
90.68000 1.742
90.70000 4.847
90.72000 0.693
90.74000 2.648
90.76000 1.558
90.78000 0.879
90.80000 1.390
90.82000 1.559
90.84000 -0.161
90.86000 3.123
90.88000 0.382
90.90000 1.910
90.92000 3.233
90.94000 1.574
90.96000 -0.195
90.98000 1.512
91.00000 -0.270
91.02000 -2.247
91.04000 2.913
91.06000 6.851
91.08000 3.809
91.10000 3.769
91.12000 4.462
91.14000 3.375
91.16000 4.113
91.18000 2.212
91.20000 2.460
91.22000 5.678
91.24000 8.175
91.26000 6.713
91.28000 7.450
91.30000 4.792
91.32000 -0.291
91.34000 3.264
91.36000 2.854
91.38000 3.139
91.40000 1.401
91.42000 1.513
91.44000 0.563
91.46000 1.819
91.48000 3.605
91.50000 6.684
91.52000 6.017
91.54000 1.478
91.56000 -1.458
91.58000 -1.471
91.60000 1.770
91.62000 6.780
91.64000 8.394
91.66000 6.695
91.68000 1.578
91.70000 -0.181
91.72000 3.686
91.74000 3.579
91.76000 5.289
91.78000 6.626
91.80000 1.420
91.82000 2.209
91.84000 8.173
91.86000 11.512
91.88000 8.918
91.90000 6.646
91.92000 7.110
91.94000 3.897
91.96000 1.121
91.98000 3.056
92.00000 5.667
92.02000 4.094
92.04000 4.437
92.06000 5.671
92.08000 2.817
92.10000 3.456
92.12000 4.403
92.14000 4.852
92.16000 8.746
92.18000 10.526
92.20000 8.233
92.22000 4.161
92.24000 -0.245
92.26000 -0.209
92.28000 -2.200
92.30000 1.351
92.32000 3.437
92.34000 2.756
92.36000 6.160
92.38000 12.267
92.40000 7.932
92.42000 2.336
92.44000 2.669
92.46000 8.311
92.48000 5.107
92.50000 7.004
92.52000 5.684
92.54000 3.060
92.56000 1.510
92.58000 4.250
92.60000 0.582
92.62000 1.759
92.64000 7.417
92.66000 3.048
92.68000 4.177
92.70000 7.046
92.72000 4.039
92.74000 6.940
92.76000 0.179
92.78000 2.453
92.80000 6.196
92.82000 0.533
92.84000 -0.221
92.86000 0.170
92.88000 4.159
92.90000 4.826
92.92000 6.065
92.94000 1.926
92.96000 -2.186
92.98000 -1.136
93.00000 4.408
93.02000 3.357
93.04000 2.109
93.06000 0.318
93.08000 2.243
93.10000 8.445
93.12000 3.906
93.14000 3.710
93.16000 6.101
93.18000 3.828
93.20000 3.870
93.22000 2.252
93.24000 5.619
93.26000 3.151
93.28000 0.581
93.30000 -2.255
93.32000 1.127
93.34000 0.061
93.36000 1.179
93.38000 2.029
93.40000 7.144
93.42000 9.607
93.44000 6.521
93.46000 4.162
93.48000 3.614
93.50000 3.439
93.52000 5.529
93.54000 2.078
93.56000 0.175
93.58000 3.825
93.60000 5.911
93.62000 1.297
93.64000 3.395
93.66000 2.619
93.68000 3.008
93.70000 -0.958
93.72000 0.491
93.74000 -0.820
93.76000 0.243
93.78000 4.691
93.80000 6.149
93.82000 3.264
93.84000 5.974
93.86000 0.978
93.88000 -0.442
93.90000 8.208
93.92000 2.983
93.94000 -1.193
93.96000 -1.658
93.98000 2.258
94.00000 1.889
94.02000 6.502
94.04000 -0.546
94.06000 -1.095
94.08000 1.393
94.10000 5.014
94.12000 5.958
94.14000 3.073
94.16000 3.780
94.18000 5.245
94.20000 7.029
94.22000 2.604
94.24000 1.414
94.26000 -1.909
94.28000 -0.506
94.30000 1.621
94.32000 5.084
94.34000 0.636
94.36000 3.096
94.38000 5.375
94.40000 2.775
94.42000 6.403
94.44000 2.493
94.46000 1.872
94.48000 1.557
94.50000 3.323
94.52000 3.972
94.54000 4.244
94.56000 1.440
94.58000 -0.184
94.60000 -0.464
94.62000 3.609
94.64000 6.897
94.66000 5.586
94.68000 5.681
94.70000 -1.681
94.72000 1.160
94.74000 0.382
94.76000 0.588
94.78000 2.330
94.80000 5.201
94.82000 5.750
94.84000 6.275
94.86000 8.727
94.88000 8.285
94.90000 14.211
94.92000 12.040
94.94000 2.994
94.96000 -2.273
94.98000 3.779
95.00000 11.833
95.02000 5.905
95.04000 4.169
95.06000 1.001
95.08000 4.907
95.10000 1.496
95.12000 2.975
95.14000 0.956
95.16000 -1.838
95.18000 -1.297
95.20000 0.740
95.22000 1.430
95.24000 9.530
95.26000 8.793
95.28000 7.346
95.30000 6.831
95.32000 7.403
95.34000 7.415
95.36000 6.916
95.38000 6.391
95.40000 4.826
95.42000 0.854
95.44000 3.891
95.46000 7.748
95.48000 6.559
95.50000 3.719
95.52000 3.393
95.54000 2.008
95.56000 0.072
95.58000 2.584
95.60000 6.429
95.62000 6.167
95.64000 3.113
95.66000 2.451
95.68000 6.495
95.70000 3.775
95.72000 9.807
95.74000 4.779
95.76000 6.823
95.78000 5.210
95.80000 9.768
95.82000 8.935
95.84000 6.396
95.86000 -0.300
95.88000 -2.203
95.90000 -0.696
95.92000 4.218
95.94000 0.562
95.96000 1.454
95.98000 10.060
96.00000 11.432
96.02000 9.267
96.04000 13.621
96.06000 8.046
96.08000 8.747
96.10000 1.126
96.12000 3.074
96.14000 10.188
96.16000 7.918
96.18000 0.305
96.20000 2.447
96.22000 7.041
96.24000 4.862
96.26000 9.037
96.28000 8.515
96.30000 10.715
96.32000 5.486
96.34000 10.457
96.36000 11.404
96.38000 10.048
96.40000 7.187
96.42000 4.896
96.44000 3.024
96.46000 -0.081
96.48000 -2.229
96.50000 7.775
96.52000 7.169
96.54000 4.174
96.56000 1.205
96.58000 1.553
96.60000 1.169
96.62000 1.057
96.64000 7.465
96.66000 2.294
96.68000 1.270
96.70000 7.087
96.72000 9.192
96.74000 10.058
96.76000 8.211
96.78000 5.951
96.80000 6.086
96.82000 3.229
96.84000 3.447
96.86000 6.785
96.88000 5.087
96.90000 0.405
96.92000 6.247
96.94000 -1.425
96.96000 4.338
96.98000 5.923
97.00000 4.016
97.02000 3.433
97.04000 8.529
97.06000 5.599
97.08000 9.764
97.10000 9.734
97.12000 5.529
97.14000 7.506
97.16000 8.568
97.18000 5.569
97.20000 5.891
97.22000 3.789
97.24000 4.967
97.26000 8.976
97.28000 9.131
97.30000 5.672
97.32000 -0.130
97.34000 2.394
97.36000 4.980
97.38000 5.985
97.40000 11.839
97.42000 3.819
97.44000 6.229
97.46000 5.924
97.48000 6.992
97.50000 3.730
97.52000 3.714
97.54000 6.635
97.56000 11.205
97.58000 3.456
97.60000 0.608
97.62000 5.502
97.64000 7.254
97.66000 6.596
97.68000 3.838
97.70000 6.985
97.72000 5.959
97.74000 7.920
97.76000 5.045
97.78000 4.654
97.80000 3.184
97.82000 2.271
97.84000 -1.077
97.86000 11.652
97.88000 17.383
97.90000 15.591
97.92000 13.242
97.94000 11.139
97.96000 5.249
97.98000 7.086
98.00000 5.201
98.02000 6.481
98.04000 7.587
98.06000 9.566
98.08000 4.721
98.10000 4.150
98.12000 4.434
98.14000 5.632
98.16000 7.714
98.18000 3.063
98.20000 9.763
98.22000 9.476
98.24000 4.781
98.26000 6.693
98.28000 3.954
98.30000 2.039
98.32000 0.120
98.34000 4.114
98.36000 3.198
98.38000 2.417
98.40000 -2.184
98.42000 5.182
98.44000 6.246
98.46000 16.463
98.48000 13.500
98.50000 11.621
98.52000 5.135
98.54000 2.345
98.56000 -1.585
98.58000 5.949
98.60000 2.227
98.62000 2.322
98.64000 -0.842
98.66000 1.675
98.68000 4.685
98.70000 4.694
98.72000 7.742
98.74000 5.888
98.76000 5.622
98.78000 1.911
98.80000 2.871
98.82000 9.453
98.84000 6.931
98.86000 5.413
98.88000 1.022
98.90000 0.796
98.92000 11.478
98.94000 6.312
98.96000 9.887
98.98000 7.579
99.00000 -1.655
99.02000 2.477
99.04000 5.304
99.06000 10.995
99.08000 7.170
99.10000 1.594
99.12000 6.773
99.14000 11.797
99.16000 8.376
99.18000 6.717
99.20000 -0.634
99.22000 -0.639
99.24000 4.152
99.26000 15.434
99.28000 14.094
99.30000 3.767
99.32000 8.910
99.34000 14.257
99.36000 11.524
99.38000 2.780
99.40000 -1.292
99.42000 -1.123
99.44000 3.025
99.46000 -2.223
99.48000 5.460
99.50000 5.246
99.52000 -0.669
99.54000 0.919
99.56000 -0.413
99.58000 -2.233
99.60000 5.101
99.62000 -1.671
99.64000 -2.240
99.66000 3.524
99.68000 -1.064
99.70000 11.219
99.72000 7.843
99.74000 8.968
99.76000 7.632
99.78000 2.818
99.80000 5.210
99.82000 11.945
99.84000 3.964
99.86000 3.330
99.88000 0.212
99.90000 3.061
99.92000 10.707
99.94000 15.964
99.96000 6.157
99.98000 0.000
