'Id: "0011389" Comment: "Integrate frame 0011389_Au-Ir-Rh_Au-Rich_XRD_Mapping-163-0000.gfrmwith cursor Wedge Cursor #5" Operator: "B?rgel" Anode: "Cu" Wavelength: "1.5406" Scantype: "2Theta (TwoTheta)" TimePerStep: "1" X: "-18" Y: "0" Z: "5.95" 
10.00000 0.000
10.02000 12.405
10.04000 -0.239
10.06000 -5.485
10.08000 11.842
10.10000 -3.159
10.12000 10.523
10.14000 18.906
10.16000 15.913
10.18000 9.643
10.20000 0.334
10.22000 12.497
10.24000 12.966
10.26000 9.156
10.28000 14.052
10.30000 18.250
10.32000 16.288
10.34000 6.958
10.36000 18.640
10.38000 21.404
10.40000 14.918
10.42000 17.153
10.44000 22.529
10.46000 8.046
10.48000 8.407
10.50000 10.345
10.52000 13.559
10.54000 12.353
10.56000 15.430
10.58000 8.399
10.60000 18.277
10.62000 24.637
10.64000 4.720
10.66000 6.003
10.68000 9.475
10.70000 1.659
10.72000 5.314
10.74000 11.513
10.76000 20.645
10.78000 33.609
10.80000 27.397
10.82000 17.369
10.84000 10.888
10.86000 22.482
10.88000 21.026
10.90000 19.811
10.92000 24.592
10.94000 32.412
10.96000 11.690
10.98000 -1.374
11.00000 5.633
11.02000 1.298
11.04000 16.616
11.06000 22.160
11.08000 15.356
11.10000 17.905
11.12000 14.586
11.14000 5.674
11.16000 4.845
11.18000 15.222
11.20000 5.974
11.22000 4.223
11.24000 3.926
11.26000 10.786
11.28000 21.147
11.30000 15.631
11.32000 13.548
11.34000 6.667
11.36000 12.308
11.38000 9.393
11.40000 9.668
11.42000 18.610
11.44000 24.236
11.46000 8.185
11.48000 11.254
11.50000 13.350
11.52000 15.863
11.54000 15.082
11.56000 11.776
11.58000 10.540
11.60000 19.983
11.62000 29.621
11.64000 15.349
11.66000 2.540
11.68000 -3.222
11.70000 -2.243
11.72000 4.410
11.74000 8.704
11.76000 19.099
11.78000 9.382
11.80000 1.059
11.82000 13.319
11.84000 21.587
11.86000 11.309
11.88000 17.754
11.90000 23.869
11.92000 25.478
11.94000 26.767
11.96000 18.881
11.98000 11.297
12.00000 4.617
12.02000 2.697
12.04000 6.121
12.06000 15.524
12.08000 8.035
12.10000 13.724
12.12000 21.239
12.14000 23.443
12.16000 17.881
12.18000 26.924
12.20000 9.012
12.22000 -4.426
12.24000 1.174
12.26000 12.940
12.28000 16.821
12.30000 10.122
12.32000 18.352
12.34000 21.147
12.36000 13.377
12.38000 11.544
12.40000 23.896
12.42000 20.622
12.44000 11.781
12.46000 10.244
12.48000 17.208
12.50000 11.692
12.52000 19.582
12.54000 17.564
12.56000 14.156
12.58000 13.545
12.60000 20.597
12.62000 13.291
12.64000 19.690
12.66000 18.213
12.68000 4.253
12.70000 13.168
12.72000 13.715
12.74000 10.604
12.76000 15.886
12.78000 12.440
12.80000 11.240
12.82000 9.400
12.84000 4.804
12.86000 18.518
12.88000 16.822
12.90000 7.141
12.92000 11.434
12.94000 23.710
12.96000 20.891
12.98000 17.677
13.00000 16.399
13.02000 18.387
13.04000 20.712
13.06000 23.468
13.08000 15.384
13.10000 12.811
13.12000 8.804
13.14000 20.984
13.16000 18.739
13.18000 8.311
13.20000 5.949
13.22000 11.877
13.24000 9.950
13.26000 11.506
13.28000 10.395
13.30000 21.415
13.32000 19.615
13.34000 23.466
13.36000 19.087
13.38000 15.260
13.40000 11.336
13.42000 13.761
13.44000 16.743
13.46000 18.948
13.48000 19.267
13.50000 6.411
13.52000 8.319
13.54000 12.387
13.56000 9.609
13.58000 10.480
13.60000 5.460
13.62000 9.647
13.64000 15.173
13.66000 25.051
13.68000 10.328
13.70000 10.594
13.72000 17.297
13.74000 20.863
13.76000 19.157
13.78000 17.335
13.80000 11.430
13.82000 6.410
13.84000 10.459
13.86000 12.687
13.88000 13.808
13.90000 18.718
13.92000 14.825
13.94000 17.472
13.96000 9.685
13.98000 8.915
14.00000 2.684
14.02000 9.142
14.04000 8.834
14.06000 14.668
14.08000 18.388
14.10000 15.422
14.12000 14.854
14.14000 10.591
14.16000 5.131
14.18000 3.541
14.20000 12.353
14.22000 15.962
14.24000 11.918
14.26000 7.979
14.28000 11.534
14.30000 17.626
14.32000 16.087
14.34000 17.351
14.36000 10.112
14.38000 -4.446
14.40000 4.296
14.42000 17.345
14.44000 10.562
14.46000 11.970
14.48000 14.031
14.50000 7.277
14.52000 12.446
14.54000 17.907
14.56000 11.684
14.58000 8.984
14.60000 11.713
14.62000 22.197
14.64000 13.043
14.66000 4.285
14.68000 7.793
14.70000 11.430
14.72000 9.817
14.74000 13.676
14.76000 11.550
14.78000 3.686
14.80000 0.642
14.82000 10.329
14.84000 6.366
14.86000 7.200
14.88000 13.619
14.90000 21.625
14.92000 19.742
14.94000 10.582
14.96000 5.730
14.98000 5.437
15.00000 2.636
15.02000 10.001
15.04000 14.536
15.06000 8.915
15.08000 8.498
15.10000 3.232
15.12000 9.863
15.14000 8.369
15.16000 3.342
15.18000 7.944
15.20000 14.918
15.22000 11.390
15.24000 3.858
15.26000 0.527
15.28000 5.449
15.30000 13.549
15.32000 11.929
15.34000 0.162
15.36000 2.119
15.38000 -1.562
15.40000 0.621
15.42000 0.634
15.44000 3.650
15.46000 9.983
15.48000 9.401
15.50000 4.319
15.52000 2.873
15.54000 10.698
15.56000 11.576
15.58000 11.236
15.60000 -1.888
15.62000 -3.680
15.64000 4.123
15.66000 5.605
15.68000 5.069
15.70000 3.651
15.72000 2.541
15.74000 -1.853
15.76000 7.166
15.78000 6.363
15.80000 3.501
15.82000 0.348
15.84000 6.088
15.86000 7.966
15.88000 2.658
15.90000 4.847
15.92000 2.727
15.94000 7.895
15.96000 9.214
15.98000 6.360
16.00000 10.898
16.02000 5.739
16.04000 -3.451
16.06000 5.231
16.08000 1.397
16.10000 5.856
16.12000 1.339
16.14000 7.942
16.16000 5.296
16.18000 8.305
16.20000 11.814
16.22000 4.931
16.24000 5.995
16.26000 7.443
16.28000 6.940
16.30000 1.406
16.32000 -2.151
16.34000 -4.443
16.36000 5.786
16.38000 10.367
16.40000 9.453
16.42000 7.274
16.44000 9.061
16.46000 5.546
16.48000 5.659
16.50000 9.328
16.52000 5.931
16.54000 6.097
16.56000 2.232
16.58000 8.256
16.60000 4.646
16.62000 -3.357
16.64000 -0.500
16.66000 5.167
16.68000 6.509
16.70000 4.203
16.72000 6.243
16.74000 11.457
16.76000 11.432
16.78000 9.687
16.80000 9.053
16.82000 2.119
16.84000 1.797
16.86000 7.450
16.88000 4.896
16.90000 0.278
16.92000 -0.025
16.94000 0.831
16.96000 4.116
16.98000 9.492
17.00000 7.514
17.02000 3.911
17.04000 10.333
17.06000 5.158
17.08000 2.016
17.10000 1.016
17.12000 5.920
17.14000 3.166
17.16000 2.700
17.18000 2.179
17.20000 6.275
17.22000 3.192
17.24000 5.817
17.26000 5.446
17.28000 7.791
17.30000 9.743
17.32000 6.928
17.34000 4.893
17.36000 4.923
17.38000 -0.188
17.40000 -0.496
17.42000 2.890
17.44000 1.559
17.46000 2.430
17.48000 7.870
17.50000 2.671
17.52000 2.655
17.54000 2.726
17.56000 -3.558
17.58000 -4.393
17.60000 5.243
17.62000 7.943
17.64000 7.188
17.66000 0.677
17.68000 5.912
17.70000 7.042
17.72000 7.063
17.74000 11.105
17.76000 9.221
17.78000 3.851
17.80000 3.594
17.82000 -3.331
17.84000 -1.964
17.86000 2.517
17.88000 0.532
17.90000 -1.405
17.92000 0.458
17.94000 6.422
17.96000 6.809
17.98000 4.078
18.00000 -0.296
18.02000 1.706
18.04000 3.551
18.06000 -3.400
18.08000 3.632
18.10000 8.339
18.12000 7.677
18.14000 7.264
18.16000 0.161
18.18000 -1.210
18.20000 6.552
18.22000 3.746
18.24000 2.413
18.26000 1.691
18.28000 -0.744
18.30000 -1.252
18.32000 -1.301
18.34000 2.398
18.36000 4.815
18.38000 5.092
18.40000 2.998
18.42000 10.287
18.44000 8.323
18.46000 7.906
18.48000 6.148
18.50000 6.394
18.52000 8.061
18.54000 6.081
18.56000 3.255
18.58000 0.314
18.60000 2.910
18.62000 5.329
18.64000 5.552
18.66000 8.146
18.68000 -0.323
18.70000 -0.889
18.72000 -0.092
18.74000 5.330
18.76000 1.507
18.78000 3.055
18.80000 7.956
18.82000 5.588
18.84000 6.837
18.86000 3.938
18.88000 9.673
18.90000 8.863
18.92000 9.083
18.94000 15.383
18.96000 16.005
18.98000 8.049
19.00000 0.884
19.02000 -4.271
19.04000 -3.445
19.06000 6.210
19.08000 12.679
19.10000 6.510
19.12000 9.728
19.14000 6.545
19.16000 7.504
19.18000 6.452
19.20000 -4.252
19.22000 -2.002
19.24000 3.334
19.26000 4.347
19.28000 6.834
19.30000 9.944
19.32000 6.932
19.34000 5.690
19.36000 3.435
19.38000 5.197
19.40000 7.221
19.42000 3.377
19.44000 5.247
19.46000 9.415
19.48000 5.483
19.50000 10.201
19.52000 5.583
19.54000 1.071
19.56000 5.334
19.58000 12.126
19.60000 12.575
19.62000 9.594
19.64000 12.439
19.66000 16.879
19.68000 13.417
19.70000 9.122
19.72000 7.984
19.74000 6.643
19.76000 10.791
19.78000 15.984
19.80000 16.549
19.82000 14.055
19.84000 8.688
19.86000 3.942
19.88000 2.823
19.90000 9.887
19.92000 7.794
19.94000 5.373
19.96000 2.513
19.98000 5.622
20.00000 3.797
20.02000 2.623
20.04000 -0.923
20.06000 -2.580
20.08000 -4.189
20.10000 0.550
20.12000 6.954
20.14000 11.193
20.16000 12.618
20.18000 6.995
20.20000 11.063
20.22000 13.589
20.24000 16.622
20.26000 14.234
20.28000 11.310
20.30000 12.518
20.32000 14.294
20.34000 11.432
20.36000 10.493
20.38000 11.351
20.40000 6.678
20.42000 5.253
20.44000 3.491
20.46000 5.863
20.48000 5.928
20.50000 4.159
20.52000 9.861
20.54000 7.154
20.56000 1.993
20.58000 1.931
20.60000 5.820
20.62000 12.028
20.64000 12.357
20.66000 6.667
20.68000 1.608
20.70000 1.244
20.72000 5.321
20.74000 5.064
20.76000 2.505
20.78000 5.855
20.80000 3.876
20.82000 5.647
20.84000 -1.523
20.86000 -0.242
20.88000 6.297
20.90000 11.539
20.92000 3.015
20.94000 -1.875
20.96000 -0.105
20.98000 0.987
21.00000 4.205
21.02000 3.049
21.04000 6.782
21.06000 7.790
21.08000 9.540
21.10000 2.601
21.12000 -1.121
21.14000 3.526
21.16000 3.481
21.18000 -3.305
21.20000 0.556
21.22000 3.395
21.24000 9.290
21.26000 7.034
21.28000 6.931
21.30000 7.747
21.32000 5.813
21.34000 5.530
21.36000 8.363
21.38000 7.438
21.40000 5.694
21.42000 6.561
21.44000 3.347
21.46000 1.428
21.48000 4.257
21.50000 4.930
21.52000 9.360
21.54000 5.559
21.56000 4.730
21.58000 4.008
21.60000 5.978
21.62000 7.631
21.64000 6.907
21.66000 0.375
21.68000 -2.435
21.70000 3.076
21.72000 8.994
21.74000 1.039
21.76000 8.733
21.78000 14.439
21.80000 8.792
21.82000 3.632
21.84000 2.389
21.86000 -1.891
21.88000 -4.112
21.90000 -1.877
21.92000 4.013
21.94000 2.948
21.96000 5.379
21.98000 6.931
22.00000 10.608
22.02000 5.417
22.04000 9.630
22.06000 7.124
22.08000 3.174
22.10000 1.161
22.12000 2.917
22.14000 7.549
22.16000 9.013
22.18000 6.819
22.20000 0.201
22.22000 -1.009
22.24000 0.575
22.26000 -4.098
22.28000 -1.876
22.30000 0.044
22.32000 -3.107
22.34000 2.861
22.36000 10.470
22.38000 9.546
22.40000 4.358
22.42000 5.220
22.44000 5.437
22.46000 3.095
22.48000 11.612
22.50000 5.816
22.52000 3.068
22.54000 6.643
22.56000 10.603
22.58000 7.667
22.60000 6.852
22.62000 8.221
22.64000 6.833
22.66000 5.538
22.68000 6.080
22.70000 4.268
22.72000 4.314
22.74000 4.205
22.76000 2.614
22.78000 5.275
22.80000 5.210
22.82000 3.602
22.84000 8.143
22.86000 7.274
22.88000 0.933
22.90000 -0.392
22.92000 5.927
22.94000 5.944
22.96000 6.054
22.98000 6.524
23.00000 1.051
23.02000 2.288
23.04000 1.544
23.06000 2.069
23.08000 1.059
23.10000 0.105
23.12000 5.748
23.14000 11.130
23.16000 2.964
23.18000 -2.374
23.20000 2.739
23.22000 5.203
23.24000 6.300
23.26000 2.020
23.28000 7.345
23.30000 5.167
23.32000 1.981
23.34000 3.623
23.36000 6.886
23.38000 5.449
23.40000 -2.209
23.42000 -3.550
23.44000 3.368
23.46000 0.905
23.48000 -0.760
23.50000 5.297
23.52000 0.378
23.54000 2.882
23.56000 6.874
23.58000 6.972
23.60000 5.765
23.62000 6.403
23.64000 7.072
23.66000 5.850
23.68000 8.469
23.70000 10.552
23.72000 2.768
23.74000 3.470
23.76000 0.448
23.78000 4.518
23.80000 9.895
23.82000 6.223
23.84000 2.304
23.86000 1.027
23.88000 2.769
23.90000 3.135
23.92000 9.382
23.94000 2.528
23.96000 5.134
23.98000 6.972
24.00000 9.701
24.02000 7.860
24.04000 10.810
24.06000 4.495
24.08000 5.620
24.10000 3.302
24.12000 -1.966
24.14000 7.520
24.16000 12.893
24.18000 5.407
24.20000 -3.982
24.22000 4.279
24.24000 9.152
24.26000 6.308
24.28000 6.402
24.30000 6.338
24.32000 1.226
24.34000 7.051
24.36000 7.973
24.38000 5.853
24.40000 0.134
24.42000 0.243
24.44000 4.730
24.46000 4.677
24.48000 5.935
24.50000 3.399
24.52000 4.713
24.54000 5.686
24.56000 3.603
24.58000 -0.014
24.60000 0.960
24.62000 8.872
24.64000 8.070
24.66000 6.404
24.68000 8.562
24.70000 8.356
24.72000 7.160
24.74000 3.703
24.76000 2.180
24.78000 -1.293
24.80000 2.058
24.82000 4.245
24.84000 7.175
24.86000 5.940
24.88000 3.418
24.90000 6.297
24.92000 7.325
24.94000 2.491
24.96000 0.136
24.98000 3.106
25.00000 2.764
25.02000 5.904
25.04000 7.440
25.06000 4.350
25.08000 5.120
25.10000 1.943
25.12000 -0.887
25.14000 -2.709
25.16000 -0.662
25.18000 5.236
25.20000 9.695
25.22000 6.554
25.24000 6.408
25.26000 7.696
25.28000 5.943
25.30000 5.510
25.32000 0.459
25.34000 -1.231
25.36000 -0.464
25.38000 0.048
25.40000 4.351
25.42000 4.499
25.44000 6.774
25.46000 0.675
25.48000 -2.813
25.50000 7.170
25.52000 6.176
25.54000 -2.947
25.56000 1.877
25.58000 4.527
25.60000 7.325
25.62000 8.987
25.64000 4.014
25.66000 4.885
25.68000 -2.576
25.70000 -0.276
25.72000 0.136
25.74000 1.240
25.76000 2.267
25.78000 3.839
25.80000 3.898
25.82000 4.300
25.84000 2.141
25.86000 2.084
25.88000 3.204
25.90000 6.303
25.92000 4.879
25.94000 -3.908
25.96000 0.533
25.98000 2.512
26.00000 5.018
26.02000 9.200
26.04000 3.684
26.06000 2.743
26.08000 2.467
26.10000 1.382
26.12000 0.223
26.14000 3.943
26.16000 9.032
26.18000 8.447
26.20000 6.838
26.22000 7.302
26.24000 6.360
26.26000 2.429
26.28000 2.569
26.30000 2.081
26.32000 1.399
26.34000 -0.171
26.36000 0.996
26.38000 6.710
26.40000 1.945
26.42000 -1.789
26.44000 1.790
26.46000 0.434
26.48000 2.062
26.50000 1.758
26.52000 4.713
26.54000 6.129
26.56000 6.055
26.58000 3.402
26.60000 5.997
26.62000 5.166
26.64000 1.931
26.66000 0.622
26.68000 -1.283
26.70000 1.878
26.72000 1.869
26.74000 6.412
26.76000 4.190
26.78000 4.025
26.80000 3.893
26.82000 4.236
26.84000 3.424
26.86000 2.488
26.88000 0.181
26.90000 2.930
26.92000 4.099
26.94000 -1.873
26.96000 -3.856
26.98000 -1.035
27.00000 4.799
27.02000 6.918
27.04000 4.261
27.06000 4.361
27.08000 11.085
27.10000 3.672
27.12000 5.008
27.14000 8.368
27.16000 2.036
27.18000 1.488
27.20000 3.195
27.22000 1.892
27.24000 0.998
27.26000 3.031
27.28000 5.276
27.30000 2.998
27.32000 1.593
27.34000 1.784
27.36000 1.674
27.38000 -1.399
27.40000 -2.192
27.42000 2.719
27.44000 1.524
27.46000 4.479
27.48000 5.735
27.50000 -0.645
27.52000 -3.833
27.54000 -0.163
27.56000 0.242
27.58000 1.507
27.60000 -1.643
27.62000 0.416
27.64000 2.919
27.66000 4.348
27.68000 0.575
27.70000 1.512
27.72000 7.091
27.74000 9.539
27.76000 5.790
27.78000 2.563
27.80000 5.139
27.82000 5.227
27.84000 2.084
27.86000 4.108
27.88000 -1.089
27.90000 -0.296
27.92000 -1.588
27.94000 1.524
27.96000 2.313
27.98000 2.302
28.00000 1.450
28.02000 -0.159
28.04000 0.082
28.06000 -0.236
28.08000 3.213
28.10000 10.058
28.12000 6.011
28.14000 2.810
28.16000 5.838
28.18000 5.663
28.20000 -1.346
28.22000 0.239
28.24000 1.266
28.26000 -0.241
28.28000 0.984
28.30000 6.656
28.32000 8.796
28.34000 1.804
28.36000 4.588
28.38000 0.791
28.40000 -0.420
28.42000 6.453
28.44000 4.041
28.46000 4.514
28.48000 4.330
28.50000 2.972
28.52000 2.088
28.54000 2.715
28.56000 -1.544
28.58000 0.890
28.60000 1.375
28.62000 3.486
28.64000 -1.242
28.66000 0.970
28.68000 0.315
28.70000 4.005
28.72000 3.637
28.74000 4.661
28.76000 2.872
28.78000 2.566
28.80000 5.654
28.82000 5.628
28.84000 0.456
28.86000 -3.742
28.88000 5.294
28.90000 6.219
28.92000 7.570
28.94000 6.909
28.96000 9.245
28.98000 3.512
29.00000 2.046
29.02000 4.533
29.04000 0.006
29.06000 2.953
29.08000 3.000
29.10000 1.110
29.12000 3.936
29.14000 -0.360
29.16000 3.597
29.18000 5.542
29.20000 4.316
29.22000 4.107
29.24000 0.775
29.26000 1.401
29.28000 2.852
29.30000 1.885
29.32000 -2.030
29.34000 -1.411
29.36000 1.601
29.38000 -0.169
29.40000 -0.900
29.42000 2.472
29.44000 4.600
29.46000 0.248
29.48000 2.608
29.50000 3.063
29.52000 1.466
29.54000 3.610
29.56000 1.687
29.58000 -0.667
29.60000 2.231
29.62000 1.445
29.64000 3.662
29.66000 4.541
29.68000 1.847
29.70000 2.831
29.72000 2.050
29.74000 1.382
29.76000 7.122
29.78000 5.729
29.80000 5.739
29.82000 -2.314
29.84000 -2.486
29.86000 -0.735
29.88000 -0.890
29.90000 0.860
29.92000 -2.317
29.94000 -3.022
29.96000 -0.881
29.98000 -0.421
30.00000 4.079
30.02000 8.161
30.04000 7.759
30.06000 2.771
30.08000 -0.188
30.10000 -2.870
30.12000 2.092
30.14000 7.649
30.16000 9.682
30.18000 9.336
30.20000 6.258
30.22000 0.905
30.24000 2.077
30.26000 1.942
30.28000 0.973
30.30000 -2.218
30.32000 -1.957
30.34000 -3.703
30.36000 -0.045
30.38000 0.106
30.40000 2.010
30.42000 2.446
30.44000 -0.825
30.46000 0.728
30.48000 0.008
30.50000 -2.436
30.52000 1.036
30.54000 4.600
30.56000 6.122
30.58000 8.149
30.60000 2.246
30.62000 1.435
30.64000 0.400
30.66000 2.431
30.68000 0.057
30.70000 -0.563
30.72000 0.330
30.74000 -1.215
30.76000 3.061
30.78000 1.901
30.80000 -3.429
30.82000 0.837
30.84000 3.729
30.86000 4.610
30.88000 5.356
30.90000 5.935
30.92000 -1.623
30.94000 0.928
30.96000 5.179
30.98000 3.415
31.00000 1.391
31.02000 -1.075
31.04000 2.994
31.06000 -3.656
31.08000 1.751
31.10000 1.830
31.12000 -0.813
31.14000 7.444
31.16000 8.685
31.18000 5.107
31.20000 5.827
31.22000 6.421
31.24000 2.755
31.26000 3.287
31.28000 5.530
31.30000 4.482
31.32000 1.321
31.34000 -0.842
31.36000 1.933
31.38000 0.541
31.40000 10.250
31.42000 13.992
31.44000 3.253
31.46000 -0.862
31.48000 5.653
31.50000 3.531
31.52000 -0.677
31.54000 2.198
31.56000 6.419
31.58000 6.980
31.60000 7.123
31.62000 10.109
31.64000 6.659
31.66000 4.419
31.68000 3.507
31.70000 5.336
31.72000 6.284
31.74000 5.964
31.76000 7.582
31.78000 7.991
31.80000 6.486
31.82000 2.758
31.84000 0.223
31.86000 2.604
31.88000 4.741
31.90000 7.000
31.92000 4.932
31.94000 6.174
31.96000 8.512
31.98000 2.900
32.00000 1.672
32.02000 -0.313
32.04000 6.376
32.06000 2.144
32.08000 2.031
32.10000 4.512
32.12000 4.002
32.14000 2.596
32.16000 5.133
32.18000 -1.830
32.20000 -3.589
32.22000 1.697
32.24000 4.819
32.26000 4.051
32.28000 3.349
32.30000 2.683
32.32000 1.313
32.34000 0.716
32.36000 1.632
32.38000 6.316
32.40000 7.146
32.42000 6.554
32.44000 3.874
32.46000 7.052
32.48000 5.183
32.50000 6.003
32.52000 5.545
32.54000 2.131
32.56000 0.593
32.58000 7.618
32.60000 7.350
32.62000 1.751
32.64000 3.258
32.66000 5.531
32.68000 2.865
32.70000 2.706
32.72000 3.727
32.74000 3.845
32.76000 3.302
32.78000 4.325
32.80000 3.159
32.82000 3.952
32.84000 1.423
32.86000 2.406
32.88000 1.499
32.90000 -3.590
32.92000 -0.996
32.94000 2.936
32.96000 3.231
32.98000 4.749
33.00000 3.284
33.02000 -1.215
33.04000 0.587
33.06000 5.127
33.08000 7.760
33.10000 3.814
33.12000 2.113
33.14000 4.486
33.16000 10.347
33.18000 8.513
33.20000 8.792
33.22000 2.463
33.24000 1.130
33.26000 2.603
33.28000 4.401
33.30000 0.979
33.32000 1.038
33.34000 1.102
33.36000 1.463
33.38000 -0.297
33.40000 1.614
33.42000 2.110
33.44000 6.945
33.46000 8.986
33.48000 6.673
33.50000 2.202
33.52000 -0.932
33.54000 1.799
33.56000 3.952
33.58000 -2.072
33.60000 2.441
33.62000 6.115
33.64000 4.632
33.66000 4.014
33.68000 4.947
33.70000 5.576
33.72000 3.979
33.74000 3.510
33.76000 4.284
33.78000 4.239
33.80000 2.035
33.82000 0.938
33.84000 0.490
33.86000 6.847
33.88000 3.516
33.90000 2.088
33.92000 0.714
33.94000 2.685
33.96000 5.943
33.98000 4.118
34.00000 6.152
34.02000 7.282
34.04000 2.383
34.06000 5.116
34.08000 6.955
34.10000 6.606
34.12000 8.645
34.14000 7.253
34.16000 6.261
34.18000 9.935
34.20000 11.632
34.22000 10.100
34.24000 9.441
34.26000 3.306
34.28000 0.891
34.30000 1.473
34.32000 3.265
34.34000 7.305
34.36000 6.377
34.38000 5.096
34.40000 2.850
34.42000 3.073
34.44000 3.068
34.46000 -0.437
34.48000 5.825
34.50000 9.200
34.52000 6.558
34.54000 6.330
34.56000 3.161
34.58000 2.684
34.60000 1.908
34.62000 2.535
34.64000 1.568
34.66000 -1.136
34.68000 -0.389
34.70000 -1.072
34.72000 -3.570
34.74000 1.725
34.76000 -0.296
34.78000 4.485
34.80000 8.960
34.82000 4.574
34.84000 0.836
34.86000 -0.553
34.88000 -0.701
34.90000 1.379
34.92000 7.615
34.94000 5.526
34.96000 3.758
34.98000 5.815
35.00000 1.028
35.02000 1.009
35.04000 7.476
35.06000 7.419
35.08000 6.803
35.10000 5.407
35.12000 1.478
35.14000 1.181
35.16000 -0.244
35.18000 -2.570
35.20000 0.926
35.22000 4.804
35.24000 -0.687
35.26000 -1.260
35.28000 1.494
35.30000 5.939
35.32000 3.486
35.34000 2.773
35.36000 8.978
35.38000 6.094
35.40000 2.573
35.42000 2.867
35.44000 5.620
35.46000 3.417
35.48000 4.100
35.50000 5.270
35.52000 2.787
35.54000 0.255
35.56000 4.355
35.58000 2.786
35.60000 2.623
35.62000 5.418
35.64000 -0.077
35.66000 -0.655
35.68000 1.209
35.70000 1.629
35.72000 5.837
35.74000 4.646
35.76000 1.854
35.78000 0.946
35.80000 -1.778
35.82000 7.314
35.84000 9.356
35.86000 3.271
35.88000 4.208
35.90000 -0.272
35.92000 4.379
35.94000 0.001
35.96000 -3.576
35.98000 3.897
36.00000 8.817
36.02000 7.948
36.04000 4.232
36.06000 4.438
36.08000 6.656
36.10000 8.647
36.12000 8.144
36.14000 10.395
36.16000 8.162
36.18000 3.995
36.20000 6.308
36.22000 8.245
36.24000 5.823
36.26000 6.135
36.28000 5.530
36.30000 5.976
36.32000 6.069
36.34000 7.733
36.36000 1.790
36.38000 1.757
36.40000 2.968
36.42000 6.656
36.44000 5.675
36.46000 2.424
36.48000 0.700
36.50000 4.476
36.52000 4.921
36.54000 5.701
36.56000 4.594
36.58000 3.985
36.60000 5.632
36.62000 1.655
36.64000 1.369
36.66000 2.195
36.68000 4.181
36.70000 6.907
36.72000 6.905
36.74000 6.217
36.76000 -0.499
36.78000 2.624
36.80000 -0.686
36.82000 3.258
36.84000 6.632
36.86000 7.089
36.88000 5.764
36.90000 6.570
36.92000 7.562
36.94000 9.650
36.96000 6.560
36.98000 8.016
37.00000 7.256
37.02000 8.497
37.04000 7.668
37.06000 10.677
37.08000 10.347
37.10000 9.411
37.12000 8.693
37.14000 7.132
37.16000 8.515
37.18000 9.305
37.20000 15.048
37.22000 13.196
37.24000 16.430
37.26000 13.725
37.28000 14.128
37.30000 11.044
37.32000 12.348
37.34000 9.638
37.36000 13.373
37.38000 16.260
37.40000 13.037
37.42000 8.428
37.44000 10.930
37.46000 14.013
37.48000 12.796
37.50000 16.572
37.52000 19.559
37.54000 22.775
37.56000 18.539
37.58000 15.333
37.60000 16.735
37.62000 17.787
37.64000 18.010
37.66000 17.039
37.68000 17.734
37.70000 19.094
37.72000 15.883
37.74000 22.869
37.76000 22.963
37.78000 20.770
37.80000 26.284
37.82000 23.459
37.84000 22.647
37.86000 28.636
37.88000 29.917
37.90000 28.566
37.92000 31.524
37.94000 37.827
37.96000 33.446
37.98000 30.373
38.00000 30.478
38.02000 32.101
38.04000 34.412
38.06000 33.236
38.08000 33.386
38.10000 36.574
38.12000 36.939
38.14000 36.533
38.16000 41.913
38.18000 48.753
38.20000 44.854
38.22000 43.345
38.24000 48.157
38.26000 50.744
38.28000 50.323
38.30000 50.004
38.32000 51.061
38.34000 53.507
38.36000 57.356
38.38000 61.663
38.40000 63.787
38.42000 68.629
38.44000 70.122
38.46000 72.879
38.48000 80.645
38.50000 79.897
38.52000 83.147
38.54000 92.361
38.56000 94.091
38.58000 94.220
38.60000 98.169
38.62000 106.446
38.64000 112.006
38.66000 118.899
38.68000 123.079
38.70000 127.302
38.72000 135.658
38.74000 139.016
38.76000 149.032
38.78000 162.107
38.80000 175.679
38.82000 188.047
38.84000 198.524
38.86000 202.900
38.88000 216.499
38.90000 229.476
38.92000 238.670
38.94000 249.010
38.96000 264.200
38.98000 283.430
39.00000 299.646
39.02000 314.241
39.04000 325.552
39.06000 334.288
39.08000 340.103
39.10000 361.706
39.12000 377.374
39.14000 387.500
39.16000 392.135
39.18000 392.857
39.20000 399.769
39.22000 405.141
39.24000 411.087
39.26000 415.512
39.28000 411.961
39.30000 399.015
39.32000 389.545
39.34000 385.717
39.36000 380.116
39.38000 382.438
39.40000 366.255
39.42000 359.587
39.44000 350.107
39.46000 327.956
39.48000 322.313
39.50000 308.409
39.52000 287.784
39.54000 274.262
39.56000 268.025
39.58000 251.490
39.60000 243.956
39.62000 236.252
39.64000 220.741
39.66000 205.120
39.68000 195.750
39.70000 177.898
39.72000 165.554
39.74000 158.094
39.76000 156.799
39.78000 146.148
39.80000 136.221
39.82000 126.032
39.84000 118.118
39.86000 114.295
39.88000 105.389
39.90000 100.883
39.92000 90.115
39.94000 80.366
39.96000 75.856
39.98000 75.540
40.00000 77.282
40.02000 74.202
40.04000 65.155
40.06000 56.592
40.08000 56.508
40.10000 52.358
40.12000 48.905
40.14000 49.968
40.16000 46.562
40.18000 43.703
40.20000 42.903
40.22000 38.694
40.24000 39.718
40.26000 37.362
40.28000 35.596
40.30000 34.160
40.32000 32.895
40.34000 35.656
40.36000 36.285
40.38000 33.335
40.40000 25.740
40.42000 28.569
40.44000 29.409
40.46000 27.990
40.48000 31.661
40.50000 29.429
40.52000 24.177
40.54000 20.472
40.56000 22.323
40.58000 19.039
40.60000 17.904
40.62000 18.127
40.64000 17.870
40.66000 16.277
40.68000 15.621
40.70000 12.081
40.72000 11.913
40.74000 16.980
40.76000 16.071
40.78000 14.862
40.80000 13.389
40.82000 14.672
40.84000 12.600
40.86000 11.930
40.88000 9.397
40.90000 8.318
40.92000 10.770
40.94000 9.149
40.96000 3.757
40.98000 5.278
41.00000 10.421
41.02000 13.590
41.04000 12.237
41.06000 10.794
41.08000 9.112
41.10000 8.499
41.12000 4.871
41.14000 6.948
41.16000 5.870
41.18000 9.371
41.20000 9.778
41.22000 10.205
41.24000 6.757
41.26000 3.746
41.28000 2.854
41.30000 6.081
41.32000 8.944
41.34000 9.918
41.36000 7.535
41.38000 7.812
41.40000 7.858
41.42000 8.160
41.44000 5.876
41.46000 7.249
41.48000 6.437
41.50000 5.038
41.52000 2.744
41.54000 4.012
41.56000 2.776
41.58000 1.886
41.60000 -3.425
41.62000 -0.573
41.64000 3.903
41.66000 6.360
41.68000 4.786
41.70000 2.067
41.72000 3.443
41.74000 4.250
41.76000 1.560
41.78000 0.267
41.80000 1.494
41.82000 -0.948
41.84000 -2.345
41.86000 1.612
41.88000 1.440
41.90000 3.673
41.92000 1.205
41.94000 5.154
41.96000 0.893
41.98000 3.263
42.00000 5.358
42.02000 3.626
42.04000 3.531
42.06000 2.339
42.08000 2.420
42.10000 0.203
42.12000 -3.365
42.14000 -1.405
42.16000 2.275
42.18000 2.072
42.20000 1.405
42.22000 -0.283
42.24000 -0.052
42.26000 1.571
42.28000 2.143
42.30000 4.662
42.32000 1.925
42.34000 2.586
42.36000 0.112
42.38000 -0.709
42.40000 -1.845
42.42000 -1.884
42.44000 -0.144
42.46000 -1.300
42.48000 2.573
42.50000 0.975
42.52000 0.505
42.54000 -0.550
42.56000 -2.415
42.58000 -0.108
42.60000 -1.037
42.62000 1.451
42.64000 -0.628
42.66000 -0.407
42.68000 0.702
42.70000 2.684
42.72000 4.491
42.74000 3.916
42.76000 1.938
42.78000 3.752
42.80000 6.505
42.82000 3.148
42.84000 1.114
42.86000 -0.921
42.88000 -1.573
42.90000 0.132
42.92000 0.897
42.94000 2.870
42.96000 2.925
42.98000 2.068
43.00000 -0.401
43.02000 -0.778
43.04000 -1.267
43.06000 -1.053
43.08000 -1.993
43.10000 2.033
43.12000 1.558
43.14000 0.714
43.16000 0.233
43.18000 2.041
43.20000 2.340
43.22000 2.088
43.24000 0.671
43.26000 2.234
43.28000 5.775
43.30000 6.616
43.32000 2.375
43.34000 -0.970
43.36000 -3.210
43.38000 -3.208
43.40000 -0.678
43.42000 -1.108
43.44000 0.149
43.46000 1.488
43.48000 1.128
43.50000 1.545
43.52000 2.035
43.54000 1.508
43.56000 1.623
43.58000 -1.719
43.60000 -1.244
43.62000 3.317
43.64000 5.043
43.66000 4.724
43.68000 0.765
43.70000 6.551
43.72000 2.923
43.74000 0.210
43.76000 -0.440
43.78000 0.322
43.80000 2.083
43.82000 3.690
43.84000 2.590
43.86000 2.898
43.88000 3.898
43.90000 5.327
43.92000 2.993
43.94000 1.642
43.96000 -0.070
43.98000 0.956
44.00000 0.336
44.02000 -1.349
44.04000 -3.200
44.06000 -2.125
44.08000 1.859
44.10000 4.369
44.12000 5.065
44.14000 1.392
44.16000 -2.561
44.18000 -1.956
44.20000 -0.769
44.22000 -0.990
44.24000 1.474
44.26000 1.352
44.28000 3.943
44.30000 3.925
44.32000 4.508
44.34000 2.162
44.36000 1.981
44.38000 1.379
44.40000 3.414
44.42000 1.587
44.44000 1.778
44.46000 3.593
44.48000 2.995
44.50000 1.687
44.52000 3.739
44.54000 3.674
44.56000 3.583
44.58000 3.345
44.60000 4.212
44.62000 1.429
44.64000 1.055
44.66000 4.007
44.68000 10.100
44.70000 6.656
44.72000 9.998
44.74000 6.918
44.76000 5.980
44.78000 13.063
44.80000 10.986
44.82000 7.054
44.84000 7.638
44.86000 7.296
44.88000 8.821
44.90000 12.711
44.92000 14.175
44.94000 10.851
44.96000 11.918
44.98000 14.139
45.00000 15.307
45.02000 15.784
45.04000 17.900
45.06000 19.827
45.08000 18.929
45.10000 23.017
45.12000 22.825
45.14000 24.809
45.16000 26.515
45.18000 23.901
45.20000 23.093
45.22000 27.559
45.24000 29.658
45.26000 32.856
45.28000 32.495
45.30000 31.760
45.32000 35.709
45.34000 32.335
45.36000 31.971
45.38000 40.671
45.40000 40.508
45.42000 41.776
45.44000 42.186
45.46000 42.450
45.48000 47.883
45.50000 48.650
45.52000 52.347
45.54000 51.421
45.56000 51.885
45.58000 52.301
45.60000 54.657
45.62000 65.194
45.64000 64.342
45.66000 61.072
45.68000 61.218
45.70000 63.866
45.72000 67.096
45.74000 62.759
45.76000 60.641
45.78000 67.636
45.80000 65.753
45.82000 66.841
45.84000 65.362
45.86000 69.126
45.88000 66.861
45.90000 68.790
45.92000 64.776
45.94000 66.925
45.96000 70.331
45.98000 69.377
46.00000 65.665
46.02000 58.979
46.04000 56.290
46.06000 61.479
46.08000 62.623
46.10000 58.394
46.12000 58.645
46.14000 53.064
46.16000 50.868
46.18000 53.956
46.20000 52.592
46.22000 51.158
46.24000 47.694
46.26000 38.574
46.28000 38.327
46.30000 37.718
46.32000 38.434
46.34000 36.083
46.36000 30.751
46.38000 28.915
46.40000 27.053
46.42000 25.463
46.44000 26.239
46.46000 21.825
46.48000 22.237
46.50000 27.525
46.52000 29.309
46.54000 21.852
46.56000 17.922
46.58000 16.273
46.60000 13.054
46.62000 12.353
46.64000 11.833
46.66000 11.705
46.68000 11.547
46.70000 13.168
46.72000 6.804
46.74000 2.771
46.76000 8.625
46.78000 4.947
46.80000 1.563
46.82000 3.827
46.84000 6.448
46.86000 4.686
46.88000 8.627
46.90000 6.126
46.92000 5.983
46.94000 6.944
46.96000 7.267
46.98000 8.337
47.00000 7.189
47.02000 -0.388
47.04000 4.586
47.06000 0.311
47.08000 2.558
47.10000 1.897
47.12000 -0.183
47.14000 -1.035
47.16000 -0.083
47.18000 -1.329
47.20000 -0.730
47.22000 0.482
47.24000 0.742
47.26000 0.767
47.28000 -1.411
47.30000 -0.792
47.32000 2.662
47.34000 0.367
47.36000 0.566
47.38000 -0.639
47.40000 0.049
47.42000 -1.013
47.44000 3.110
47.46000 2.279
47.48000 0.761
47.50000 1.794
47.52000 4.671
47.54000 2.352
47.56000 0.842
47.58000 -0.425
47.60000 -2.792
47.62000 1.241
47.64000 2.122
47.66000 2.486
47.68000 1.894
47.70000 2.286
47.72000 2.402
47.74000 4.428
47.76000 2.229
47.78000 -1.768
47.80000 -2.761
47.82000 -1.689
47.84000 -1.230
47.86000 -0.507
47.88000 -0.642
47.90000 3.564
47.92000 1.922
47.94000 1.191
47.96000 -0.148
47.98000 1.346
48.00000 -0.255
48.02000 -0.729
48.04000 -0.026
48.06000 -1.339
48.08000 -1.127
48.10000 2.746
48.12000 3.590
48.14000 3.648
48.16000 4.125
48.18000 3.301
48.20000 8.016
48.22000 6.424
48.24000 1.843
48.26000 0.820
48.28000 2.442
48.30000 2.601
48.32000 6.002
48.34000 6.383
48.36000 4.219
48.38000 2.083
48.40000 -2.677
48.42000 1.209
48.44000 3.145
48.46000 4.724
48.48000 4.453
48.50000 1.182
48.52000 -1.072
48.54000 3.373
48.56000 4.423
48.58000 6.865
48.60000 3.702
48.62000 1.929
48.64000 4.571
48.66000 2.511
48.68000 2.077
48.70000 2.069
48.72000 1.518
48.74000 -2.660
48.76000 -0.567
48.78000 1.119
48.80000 4.575
48.82000 -1.647
48.84000 0.664
48.86000 -1.039
48.88000 -2.661
48.90000 4.183
48.92000 4.756
48.94000 1.074
48.96000 -0.335
48.98000 -0.423
49.00000 0.511
49.02000 4.258
49.04000 1.944
49.06000 0.879
49.08000 0.221
49.10000 5.322
49.12000 6.743
49.14000 4.722
49.16000 4.196
49.18000 3.874
49.20000 2.525
49.22000 1.793
49.24000 3.431
49.26000 3.449
49.28000 4.384
49.30000 3.673
49.32000 5.259
49.34000 3.102
49.36000 3.999
49.38000 1.412
49.40000 -0.737
49.42000 0.062
49.44000 3.899
49.46000 1.528
49.48000 -0.932
49.50000 3.468
49.52000 3.991
49.54000 2.521
49.56000 -2.121
49.58000 2.447
49.60000 4.006
49.62000 -0.590
49.64000 -0.184
49.66000 -1.027
49.68000 0.355
49.70000 3.640
49.72000 1.908
49.74000 1.822
49.76000 1.617
49.78000 2.818
49.80000 0.826
49.82000 3.655
49.84000 2.612
49.86000 3.249
49.88000 -0.150
49.90000 3.212
49.92000 3.648
49.94000 1.076
49.96000 2.928
49.98000 -1.527
50.00000 2.696
50.02000 4.571
50.04000 1.731
50.06000 0.229
50.08000 2.957
50.10000 4.726
50.12000 5.607
50.14000 6.882
50.16000 4.523
50.18000 4.304
50.20000 5.372
50.22000 4.355
50.24000 1.720
50.26000 1.997
50.28000 2.699
50.30000 0.289
50.32000 -2.599
50.34000 -2.598
50.36000 0.672
50.38000 5.322
50.40000 4.162
50.42000 0.944
50.44000 0.584
50.46000 2.845
50.48000 1.934
50.50000 4.953
50.52000 2.557
50.54000 4.636
50.56000 3.562
50.58000 4.180
50.60000 3.460
50.62000 -2.015
50.64000 3.074
50.66000 7.677
50.68000 5.587
50.70000 3.926
50.72000 2.250
50.74000 0.455
50.76000 3.260
50.78000 3.485
50.80000 1.553
50.82000 0.802
50.84000 0.107
50.86000 1.913
50.88000 5.216
50.90000 2.630
50.92000 0.640
50.94000 1.951
50.96000 1.590
50.98000 3.190
51.00000 0.191
51.02000 1.248
51.04000 4.388
51.06000 3.522
51.08000 0.756
51.10000 -0.800
51.12000 -2.552
51.14000 -1.028
51.16000 1.914
51.18000 4.927
51.20000 8.717
51.22000 5.027
51.24000 3.083
51.26000 4.355
51.28000 4.461
51.30000 5.015
51.32000 2.104
51.34000 0.269
51.36000 0.603
51.38000 2.951
51.40000 6.440
51.42000 4.944
51.44000 5.835
51.46000 5.123
51.48000 4.652
51.50000 2.406
51.52000 4.923
51.54000 3.654
51.56000 3.939
51.58000 5.404
51.60000 7.886
51.62000 7.455
51.64000 4.282
51.66000 5.074
51.68000 0.547
51.70000 3.518
51.72000 3.832
51.74000 0.283
51.76000 1.706
51.78000 3.176
51.80000 2.165
51.82000 5.561
51.84000 6.474
51.86000 5.178
51.88000 3.039
51.90000 6.151
51.92000 8.038
51.94000 1.572
51.96000 -0.461
51.98000 0.959
52.00000 3.257
52.02000 5.257
52.04000 4.506
52.06000 6.579
52.08000 8.195
52.10000 3.823
52.12000 3.932
52.14000 4.420
52.16000 0.998
52.18000 3.785
52.20000 1.966
52.22000 3.819
52.24000 3.602
52.26000 0.998
52.28000 4.363
52.30000 1.914
52.32000 2.042
52.34000 1.784
52.36000 2.564
52.38000 -1.387
52.40000 3.455
52.42000 3.716
52.44000 3.960
52.46000 1.725
52.48000 1.667
52.50000 2.712
52.52000 1.763
52.54000 2.291
52.56000 1.821
52.58000 2.998
52.60000 5.954
52.62000 1.794
52.64000 -0.852
52.66000 2.109
52.68000 2.971
52.70000 1.745
52.72000 3.267
52.74000 7.380
52.76000 7.361
52.78000 5.088
52.80000 5.644
52.82000 4.083
52.84000 3.870
52.86000 4.667
52.88000 2.519
52.90000 3.743
52.92000 5.449
52.94000 2.432
52.96000 -2.505
52.98000 3.304
53.00000 5.858
53.02000 5.203
53.04000 3.752
53.06000 3.385
53.08000 4.979
53.10000 -0.416
53.12000 2.322
53.14000 5.960
53.16000 3.849
53.18000 6.007
53.20000 4.309
53.22000 3.517
53.24000 3.289
53.26000 6.029
53.28000 5.001
53.30000 -1.512
53.32000 1.094
53.34000 7.839
53.36000 9.049
53.38000 6.801
53.40000 3.978
53.42000 4.616
53.44000 5.673
53.46000 6.815
53.48000 3.305
53.50000 1.744
53.52000 4.396
53.54000 3.579
53.56000 2.403
53.58000 3.533
53.60000 3.030
53.62000 -0.659
53.64000 3.517
53.66000 -0.700
53.68000 -2.469
53.70000 -1.173
53.72000 5.724
53.74000 5.692
53.76000 2.087
53.78000 5.702
53.80000 7.354
53.82000 2.182
53.84000 3.478
53.86000 1.224
53.88000 5.249
53.90000 5.570
53.92000 0.480
53.94000 0.514
53.96000 2.439
53.98000 4.480
54.00000 1.296
54.02000 -0.018
54.04000 -1.114
54.06000 2.834
54.08000 3.880
54.10000 2.239
54.12000 2.722
54.14000 1.785
54.16000 -0.936
54.18000 1.739
54.20000 5.608
54.22000 5.531
54.24000 3.226
54.26000 2.052
54.28000 4.911
54.30000 4.223
54.32000 6.148
54.34000 4.556
54.36000 2.114
54.38000 0.945
54.40000 1.395
54.42000 2.137
54.44000 4.868
54.46000 -1.653
54.48000 2.249
54.50000 4.153
54.52000 4.105
54.54000 3.799
54.56000 2.144
54.58000 3.334
54.60000 1.411
54.62000 -1.604
54.64000 2.364
54.66000 4.508
54.68000 3.788
54.70000 2.693
54.72000 1.213
54.74000 2.254
54.76000 6.642
54.78000 5.954
54.80000 0.524
54.82000 0.787
54.84000 1.420
54.86000 2.000
54.88000 0.250
54.90000 2.178
54.92000 1.180
54.94000 -2.363
54.96000 -0.888
54.98000 1.037
55.00000 3.555
55.02000 4.125
55.04000 3.490
55.06000 2.208
55.08000 -0.737
55.10000 -0.438
55.12000 0.751
55.14000 2.411
55.16000 0.239
55.18000 -1.470
55.20000 3.093
55.22000 1.487
55.24000 2.066
55.26000 -0.394
55.28000 -1.886
55.30000 1.611
55.32000 -0.547
55.34000 0.067
55.36000 -2.485
55.38000 -2.077
55.40000 2.874
55.42000 4.467
55.44000 4.284
55.46000 1.431
55.48000 2.049
55.50000 6.627
55.52000 7.561
55.54000 3.118
55.56000 1.358
55.58000 1.539
55.60000 4.250
55.62000 1.766
55.64000 2.926
55.66000 2.831
55.68000 6.308
55.70000 1.757
55.72000 3.978
55.74000 3.862
55.76000 0.489
55.78000 -1.385
55.80000 1.917
55.82000 4.363
55.84000 4.178
55.86000 3.320
55.88000 2.233
55.90000 2.143
55.92000 3.119
55.94000 3.483
55.96000 4.890
55.98000 4.067
56.00000 3.634
56.02000 1.257
56.04000 2.342
56.06000 4.205
56.08000 3.553
56.10000 2.185
56.12000 3.353
56.14000 2.841
56.16000 4.068
56.18000 4.476
56.20000 2.712
56.22000 3.378
56.24000 3.039
56.26000 4.954
56.28000 2.583
56.30000 -2.419
56.32000 -1.951
56.34000 6.279
56.36000 4.383
56.38000 2.668
56.40000 2.256
56.42000 2.587
56.44000 3.957
56.46000 7.143
56.48000 4.255
56.50000 2.834
56.52000 2.746
56.54000 1.297
56.56000 5.800
56.58000 5.623
56.60000 4.428
56.62000 3.375
56.64000 2.363
56.66000 1.700
56.68000 2.723
56.70000 0.734
56.72000 -0.687
56.74000 2.822
56.76000 4.247
56.78000 4.868
56.80000 3.658
56.82000 -0.506
56.84000 0.197
56.86000 -1.870
56.88000 1.067
56.90000 2.487
56.92000 2.516
56.94000 3.863
56.96000 1.017
56.98000 0.631
57.00000 3.580
57.02000 1.734
57.04000 2.788
57.06000 1.514
57.08000 -0.363
57.10000 2.430
57.12000 0.131
57.14000 3.717
57.16000 3.202
57.18000 2.431
57.20000 3.506
57.22000 3.423
57.24000 4.631
57.26000 1.298
57.28000 -0.448
57.30000 4.364
57.32000 2.426
57.34000 5.900
57.36000 5.862
57.38000 3.516
57.40000 2.374
57.42000 3.426
57.44000 1.689
57.46000 0.324
57.48000 2.347
57.50000 -0.248
57.52000 0.843
57.54000 1.134
57.56000 -0.514
57.58000 1.430
57.60000 -0.620
57.62000 -1.173
57.64000 -0.072
57.66000 1.615
57.68000 0.905
57.70000 2.950
57.72000 5.329
57.74000 5.993
57.76000 6.963
57.78000 5.218
57.80000 3.271
57.82000 1.803
57.84000 1.517
57.86000 4.560
57.88000 2.597
57.90000 2.673
57.92000 5.741
57.94000 -0.048
57.96000 3.643
57.98000 5.667
58.00000 6.026
58.02000 4.290
58.04000 3.556
58.06000 3.454
58.08000 7.138
58.10000 4.452
58.12000 -2.388
58.14000 -0.169
58.16000 3.354
58.18000 2.944
58.20000 2.870
58.22000 2.982
58.24000 2.007
58.26000 2.324
58.28000 3.028
58.30000 6.042
58.32000 7.195
58.34000 6.294
58.36000 4.992
58.38000 7.102
58.40000 4.496
58.42000 3.858
58.44000 2.479
58.46000 1.359
58.48000 3.115
58.50000 2.722
58.52000 2.049
58.54000 -2.371
58.56000 -0.945
58.58000 2.209
58.60000 2.666
58.62000 5.199
58.64000 7.438
58.66000 3.979
58.68000 3.967
58.70000 4.153
58.72000 2.423
58.74000 -1.592
58.76000 -0.450
58.78000 4.339
58.80000 5.320
58.82000 4.830
58.84000 3.528
58.86000 2.252
58.88000 -1.131
58.90000 -1.538
58.92000 1.210
58.94000 2.502
58.96000 1.065
58.98000 0.135
59.00000 1.300
59.02000 3.552
59.04000 1.110
59.06000 0.528
59.08000 4.736
59.10000 4.667
59.12000 1.714
59.14000 1.702
59.16000 1.940
59.18000 1.625
59.20000 2.275
59.22000 2.822
59.24000 1.773
59.26000 4.719
59.28000 4.888
59.30000 1.703
59.32000 0.427
59.34000 3.404
59.36000 0.209
59.38000 -0.025
59.40000 2.349
59.42000 2.289
59.44000 2.154
59.46000 3.798
59.48000 0.607
59.50000 0.603
59.52000 1.633
59.54000 -0.168
59.56000 1.050
59.58000 3.322
59.60000 5.375
59.62000 7.063
59.64000 5.958
59.66000 5.621
59.68000 6.460
59.70000 2.874
59.72000 1.636
59.74000 4.588
59.76000 6.763
59.78000 2.656
59.80000 1.821
59.82000 3.394
59.84000 3.814
59.86000 2.316
59.88000 2.263
59.90000 2.398
59.92000 -2.320
59.94000 2.061
59.96000 4.454
59.98000 2.605
60.00000 0.908
60.02000 3.736
60.04000 4.554
60.06000 3.803
60.08000 2.590
60.10000 3.130
60.12000 4.090
60.14000 3.390
60.16000 0.592
60.18000 0.283
60.20000 -0.637
60.22000 0.080
60.24000 4.552
60.26000 3.880
60.28000 4.229
60.30000 0.691
60.32000 2.307
60.34000 1.657
60.36000 0.841
60.38000 0.943
60.40000 2.501
60.42000 1.243
60.44000 2.559
60.46000 0.477
60.48000 0.376
60.50000 4.367
60.52000 2.922
60.54000 1.634
60.56000 -0.221
60.58000 -0.988
60.60000 1.526
60.62000 0.020
60.64000 -1.884
60.66000 -0.629
60.68000 2.128
60.70000 1.460
60.72000 -0.544
60.74000 3.251
60.76000 3.126
60.78000 1.808
60.80000 3.935
60.82000 0.309
60.84000 -0.507
60.86000 1.828
60.88000 2.328
60.90000 2.279
60.92000 4.822
60.94000 4.288
60.96000 3.773
60.98000 2.421
61.00000 4.638
61.02000 2.529
61.04000 4.729
61.06000 0.150
61.08000 0.110
61.10000 3.653
61.12000 2.296
61.14000 1.229
61.16000 -0.046
61.18000 -0.017
61.20000 2.871
61.22000 -0.920
61.24000 -0.285
61.26000 -1.593
61.28000 3.343
61.30000 4.999
61.32000 -0.183
61.34000 -2.004
61.36000 0.191
61.38000 1.404
61.40000 2.435
61.42000 -0.368
61.44000 -2.306
61.46000 1.298
61.48000 1.136
61.50000 1.136
61.52000 0.776
61.54000 0.799
61.56000 0.674
61.58000 1.640
61.60000 -2.171
61.62000 3.545
61.64000 5.720
61.66000 0.105
61.68000 -1.215
61.70000 1.851
61.72000 -0.143
61.74000 0.285
61.76000 0.232
61.78000 -0.621
61.80000 -2.300
61.82000 -2.240
61.84000 4.882
61.86000 6.689
61.88000 2.237
61.90000 2.987
61.92000 1.593
61.94000 -0.398
61.96000 0.929
61.98000 -1.081
62.00000 -0.963
62.02000 -1.388
62.04000 -1.507
62.06000 -0.490
62.08000 0.482
62.10000 1.163
62.12000 1.047
62.14000 2.709
62.16000 3.657
62.18000 1.957
62.20000 3.857
62.22000 2.558
62.24000 0.828
62.26000 1.021
62.28000 4.890
62.30000 1.281
62.32000 -0.124
62.34000 2.453
62.36000 -0.705
62.38000 3.766
62.40000 7.704
62.42000 3.061
62.44000 1.438
62.46000 0.485
62.48000 -0.249
62.50000 -0.530
62.52000 0.032
62.54000 0.812
62.56000 0.531
62.58000 2.073
62.60000 2.431
62.62000 0.358
62.64000 1.539
62.66000 0.658
62.68000 -1.654
62.70000 0.864
62.72000 -2.256
62.74000 -0.132
62.76000 1.755
62.78000 -1.143
62.80000 2.356
62.82000 0.050
62.84000 -1.666
62.86000 3.418
62.88000 2.691
62.90000 2.628
62.92000 1.017
62.94000 -1.113
62.96000 0.273
62.98000 0.643
63.00000 -0.898
63.02000 0.680
63.04000 0.687
63.06000 0.798
63.08000 2.299
63.10000 5.306
63.12000 3.318
63.14000 1.000
63.16000 3.419
63.18000 1.113
63.20000 -1.507
63.22000 0.064
63.24000 0.951
63.26000 2.982
63.28000 4.308
63.30000 2.191
63.32000 -0.313
63.34000 -2.238
63.36000 3.042
63.38000 6.504
63.40000 6.150
63.42000 -2.241
63.44000 0.587
63.46000 1.506
63.48000 -0.282
63.50000 -1.366
63.52000 0.337
63.54000 3.066
63.56000 4.689
63.58000 2.114
63.60000 1.999
63.62000 1.816
63.64000 -0.568
63.66000 1.076
63.68000 2.355
63.70000 3.289
63.72000 4.433
63.74000 2.099
63.76000 1.076
63.78000 0.659
63.80000 6.842
63.82000 3.738
63.84000 3.142
63.86000 4.381
63.88000 3.662
63.90000 -0.600
63.92000 0.414
63.94000 2.532
63.96000 1.337
63.98000 3.023
64.00000 2.119
64.02000 1.825
64.04000 2.852
64.06000 0.844
64.08000 3.297
64.10000 2.007
64.12000 0.470
64.14000 3.601
64.16000 3.395
64.18000 3.068
64.20000 1.359
64.22000 0.285
64.24000 0.770
64.26000 0.171
64.28000 0.528
64.30000 -0.551
64.32000 0.101
64.34000 3.602
64.36000 3.450
64.38000 1.180
64.40000 2.230
64.42000 4.318
64.44000 2.268
64.46000 1.915
64.48000 -0.559
64.50000 1.465
64.52000 2.324
64.54000 1.254
64.56000 1.822
64.58000 2.788
64.60000 1.425
64.62000 0.448
64.64000 -0.802
64.66000 1.912
64.68000 3.373
64.70000 3.231
64.72000 1.070
64.74000 -2.241
64.76000 -0.718
64.78000 1.001
64.80000 0.616
64.82000 1.992
64.84000 4.056
64.86000 3.955
64.88000 1.941
64.90000 0.841
64.92000 1.889
64.94000 2.606
64.96000 5.513
64.98000 1.736
65.00000 -0.078
65.02000 2.596
65.04000 2.256
65.06000 1.346
65.08000 0.314
65.10000 -0.230
65.12000 1.397
65.14000 0.026
65.16000 3.604
65.18000 1.171
65.20000 -0.327
65.22000 0.321
65.24000 3.081
65.26000 1.170
65.28000 -1.734
65.30000 0.816
65.32000 1.507
65.34000 1.564
65.36000 2.655
65.38000 1.432
65.40000 1.404
65.42000 3.642
65.44000 2.889
65.46000 2.697
65.48000 3.061
65.50000 0.598
65.52000 0.209
65.54000 0.548
65.56000 -0.346
65.58000 -2.248
65.60000 0.685
65.62000 2.881
65.64000 0.861
65.66000 1.956
65.68000 0.060
65.70000 2.181
65.72000 1.868
65.74000 1.716
65.76000 2.014
65.78000 3.413
65.80000 4.606
65.82000 2.085
65.84000 1.038
65.86000 1.324
65.88000 -1.480
65.90000 -1.365
65.92000 -0.113
65.94000 3.549
65.96000 3.771
65.98000 1.202
66.00000 -0.436
66.02000 -0.656
66.04000 2.052
66.06000 3.567
66.08000 4.454
66.10000 4.545
66.12000 3.920
66.14000 4.175
66.16000 2.274
66.18000 2.153
66.20000 3.938
66.22000 4.240
66.24000 4.557
66.26000 5.267
66.28000 3.279
66.30000 2.798
66.32000 1.068
66.34000 1.167
66.36000 -0.450
66.38000 1.442
66.40000 3.185
66.42000 2.452
66.44000 1.849
66.46000 2.616
66.48000 3.749
66.50000 2.932
66.52000 5.015
66.54000 7.602
66.56000 4.826
66.58000 3.434
66.60000 4.239
66.62000 4.452
66.64000 2.992
66.66000 6.115
66.68000 7.148
66.70000 4.064
66.72000 3.943
66.74000 5.283
66.76000 4.830
66.78000 4.750
66.80000 4.042
66.82000 3.028
66.84000 3.915
66.86000 7.443
66.88000 7.297
66.90000 4.409
66.92000 7.806
66.94000 8.559
66.96000 4.129
66.98000 4.745
67.00000 6.672
67.02000 5.589
67.04000 4.223
67.06000 3.441
67.08000 4.164
67.10000 3.542
67.12000 4.310
67.14000 3.810
67.16000 1.316
67.18000 1.193
67.20000 1.433
67.22000 0.850
67.24000 3.862
67.26000 2.601
67.28000 3.086
67.30000 3.288
67.32000 3.622
67.34000 4.403
67.36000 4.116
67.38000 3.722
67.40000 1.882
67.42000 -0.842
67.44000 1.151
67.46000 1.684
67.48000 1.788
67.50000 2.520
67.52000 2.035
67.54000 -0.466
67.56000 1.533
67.58000 4.077
67.60000 8.114
67.62000 3.306
67.64000 0.678
67.66000 3.945
67.68000 1.481
67.70000 -1.095
67.72000 0.395
67.74000 -0.857
67.76000 -2.165
67.78000 -0.575
67.80000 0.575
67.82000 1.000
67.84000 -0.276
67.86000 -0.009
67.88000 1.166
67.90000 0.458
67.92000 1.103
67.94000 2.404
67.96000 4.474
67.98000 2.807
68.00000 0.907
68.02000 0.233
68.04000 1.336
68.06000 0.298
68.08000 2.217
68.10000 1.251
68.12000 1.022
68.14000 -0.949
68.16000 2.372
68.18000 2.550
68.20000 2.922
68.22000 4.037
68.24000 2.235
68.26000 0.191
68.28000 0.706
68.30000 3.225
68.32000 2.650
68.34000 1.106
68.36000 3.971
68.38000 2.088
68.40000 1.188
68.42000 -2.135
68.44000 -1.094
68.46000 2.082
68.48000 1.371
68.50000 0.851
68.52000 -0.065
68.54000 1.295
68.56000 -0.805
68.58000 -0.179
68.60000 0.905
68.62000 1.729
68.64000 1.599
68.66000 0.861
68.68000 1.272
68.70000 3.258
68.72000 1.133
68.74000 -0.884
68.76000 0.516
68.78000 -0.084
68.80000 0.654
68.82000 0.380
68.84000 -1.132
68.86000 0.186
68.88000 1.501
68.90000 2.385
68.92000 1.278
68.94000 0.396
68.96000 0.253
68.98000 -0.091
69.00000 0.381
69.02000 0.004
69.04000 -0.389
69.06000 1.892
69.08000 -0.721
69.10000 0.189
69.12000 -0.573
69.14000 -2.112
69.16000 -0.802
69.18000 -0.861
69.20000 0.820
69.22000 1.508
69.24000 3.588
69.26000 1.819
69.28000 -0.555
69.30000 -0.704
69.32000 1.260
69.34000 3.740
69.36000 0.263
69.38000 -0.426
69.40000 -2.100
69.42000 -0.344
69.44000 1.901
69.46000 -0.806
69.48000 0.090
69.50000 1.452
69.52000 1.524
69.54000 0.794
69.56000 -0.255
69.58000 1.943
69.60000 2.626
69.62000 2.143
69.64000 0.201
69.66000 -0.358
69.68000 -0.314
69.70000 2.192
69.72000 0.709
69.74000 0.861
69.76000 1.787
69.78000 2.317
69.80000 2.200
69.82000 0.606
69.84000 -0.040
69.86000 -0.176
69.88000 2.400
69.90000 3.061
69.92000 0.565
69.94000 0.938
69.96000 1.795
69.98000 -0.221
70.00000 -0.516
70.02000 -2.072
70.04000 1.345
70.06000 2.411
70.08000 1.234
70.10000 -0.589
70.12000 -1.517
70.14000 -0.663
70.16000 -0.055
70.18000 0.624
70.20000 -0.946
70.22000 0.067
70.24000 1.284
70.26000 -0.045
70.28000 -0.063
70.30000 0.153
70.32000 2.435
70.34000 0.585
70.36000 0.193
70.38000 1.290
70.40000 2.476
70.42000 1.467
70.44000 3.177
70.46000 0.149
70.48000 -0.366
70.50000 -1.901
70.52000 0.348
70.54000 2.055
70.56000 -0.450
70.58000 -2.068
70.60000 -1.997
70.62000 0.277
70.64000 1.365
70.66000 -0.312
70.68000 0.960
70.70000 -0.887
70.72000 0.569
70.74000 2.253
70.76000 2.948
70.78000 1.261
70.80000 -1.443
70.82000 -1.832
70.84000 -0.005
70.86000 1.535
70.88000 -0.630
70.90000 0.694
70.92000 1.504
70.94000 2.094
70.96000 2.172
70.98000 1.706
71.00000 0.801
71.02000 1.243
71.04000 1.629
71.06000 -0.081
71.08000 1.431
71.10000 0.179
71.12000 -1.969
71.14000 1.359
71.16000 -0.093
71.18000 0.135
71.20000 1.763
71.22000 3.099
71.24000 1.736
71.26000 -1.290
71.28000 -0.143
71.30000 0.542
71.32000 0.354
71.34000 0.752
71.36000 0.308
71.38000 0.711
71.40000 -2.032
71.42000 -1.011
71.44000 1.153
71.46000 -0.126
71.48000 0.384
71.50000 -1.921
71.52000 0.231
71.54000 2.407
71.56000 4.401
71.58000 1.835
71.60000 1.527
71.62000 1.461
71.64000 3.947
71.66000 1.658
71.68000 -1.641
71.70000 1.208
71.72000 4.882
71.74000 2.856
71.76000 2.461
71.78000 1.699
71.80000 2.496
71.82000 2.680
71.84000 0.823
71.86000 -1.146
71.88000 1.487
71.90000 2.073
71.92000 0.612
71.94000 0.057
71.96000 -2.012
71.98000 -0.525
72.00000 -1.361
72.02000 1.976
72.04000 6.931
72.06000 2.697
72.08000 1.619
72.10000 0.122
72.12000 -1.846
72.14000 -1.425
72.16000 -0.110
72.18000 2.799
72.20000 3.312
72.22000 0.458
72.24000 -1.679
72.26000 1.341
72.28000 2.937
72.30000 1.211
72.32000 -0.624
72.34000 -0.795
72.36000 -1.580
72.38000 3.797
72.40000 5.241
72.42000 3.098
72.44000 1.138
72.46000 1.860
72.48000 2.573
72.50000 3.337
72.52000 1.876
72.54000 -0.015
72.56000 -1.610
72.58000 1.242
72.60000 -0.013
72.62000 -0.607
72.64000 2.693
72.66000 -1.354
72.68000 0.363
72.70000 3.310
72.72000 4.615
72.74000 2.149
72.76000 1.073
72.78000 2.687
72.80000 2.388
72.82000 -1.052
72.84000 1.266
72.86000 2.934
72.88000 2.091
72.90000 2.429
72.92000 1.451
72.94000 3.572
72.96000 0.491
72.98000 -1.500
73.00000 -1.906
73.02000 0.498
73.04000 2.882
73.06000 0.938
73.08000 -1.954
73.10000 2.075
73.12000 3.041
73.14000 4.101
73.16000 1.991
73.18000 1.342
73.20000 0.784
73.22000 4.234
73.24000 2.784
73.26000 2.069
73.28000 -0.693
73.30000 1.950
73.32000 5.587
73.34000 2.250
73.36000 0.379
73.38000 -1.957
73.40000 -0.085
73.42000 4.808
73.44000 3.572
73.46000 2.285
73.48000 2.169
73.50000 3.015
73.52000 2.533
73.54000 1.345
73.56000 0.628
73.58000 0.674
73.60000 2.538
73.62000 4.386
73.64000 3.824
73.66000 1.123
73.68000 1.249
73.70000 -1.138
73.72000 -0.146
73.74000 1.212
73.76000 0.783
73.78000 -0.316
73.80000 1.749
73.82000 0.605
73.84000 0.968
73.86000 0.398
73.88000 2.025
73.90000 4.237
73.92000 4.342
73.94000 3.952
73.96000 3.377
73.98000 1.808
74.00000 2.209
74.02000 1.304
74.04000 -0.645
74.06000 -1.044
74.08000 -1.783
74.10000 -0.334
74.12000 1.495
74.14000 1.628
74.16000 1.745
74.18000 1.449
74.20000 2.410
74.22000 0.584
74.24000 -0.009
74.26000 0.775
74.28000 1.534
74.30000 0.644
74.32000 0.249
74.34000 -0.697
74.36000 -1.047
74.38000 -1.684
74.40000 2.830
74.42000 5.175
74.44000 2.993
74.46000 0.023
74.48000 -0.827
74.50000 -0.516
74.52000 2.076
74.54000 1.037
74.56000 3.444
74.58000 1.528
74.60000 -0.403
74.62000 -0.058
74.64000 2.458
74.66000 1.004
74.68000 2.192
74.70000 1.348
74.72000 1.903
74.74000 1.658
74.76000 2.791
74.78000 2.592
74.80000 -0.753
74.82000 1.497
74.84000 1.285
74.86000 1.827
74.88000 0.677
74.90000 2.591
74.92000 1.404
74.94000 2.250
74.96000 1.269
74.98000 0.481
75.00000 0.270
75.02000 2.356
75.04000 4.160
75.06000 2.684
75.08000 -0.480
75.10000 0.918
75.12000 1.864
75.14000 1.314
75.16000 2.799
75.18000 1.844
75.20000 0.849
75.22000 4.694
75.24000 3.056
75.26000 5.573
75.28000 4.252
75.30000 4.861
75.32000 4.858
75.34000 3.136
75.36000 4.904
75.38000 6.250
75.40000 4.417
75.42000 3.102
75.44000 2.373
75.46000 0.512
75.48000 -1.919
75.50000 -0.329
75.52000 1.113
75.54000 4.326
75.56000 7.528
75.58000 2.970
75.60000 3.355
75.62000 1.638
75.64000 1.382
75.66000 2.933
75.68000 -1.296
75.70000 2.970
75.72000 3.098
75.74000 4.777
75.76000 1.523
75.78000 1.315
75.80000 1.297
75.82000 1.509
75.84000 2.001
75.86000 3.012
75.88000 1.820
75.90000 0.802
75.92000 1.896
75.94000 2.119
75.96000 5.240
75.98000 1.415
76.00000 1.227
76.02000 2.034
76.04000 -0.218
76.06000 0.074
76.08000 0.660
76.10000 1.507
76.12000 3.824
76.14000 2.103
76.16000 -1.532
76.18000 1.162
76.20000 0.965
76.22000 2.613
76.24000 1.996
76.26000 0.469
76.28000 0.287
76.30000 0.280
76.32000 -1.898
76.34000 -1.054
76.36000 0.390
76.38000 -0.360
76.40000 0.078
76.42000 -0.084
76.44000 3.252
76.46000 2.370
76.48000 2.740
76.50000 2.023
76.52000 -0.927
76.54000 -0.027
76.56000 0.047
76.58000 0.849
76.60000 0.736
76.62000 0.981
76.64000 2.380
76.66000 4.073
76.68000 3.790
76.70000 0.553
76.72000 0.446
76.74000 0.751
76.76000 -0.644
76.78000 1.040
76.80000 2.430
76.82000 0.986
76.84000 3.368
76.86000 1.350
76.88000 -0.523
76.90000 1.082
76.92000 -1.064
76.94000 0.172
76.96000 0.144
76.98000 -1.170
77.00000 1.967
77.02000 0.981
77.04000 -0.218
77.06000 1.810
77.08000 1.895
77.10000 1.725
77.12000 0.116
77.14000 3.199
77.16000 5.250
77.18000 0.136
77.20000 0.755
77.22000 4.352
77.24000 0.493
77.26000 2.514
77.28000 1.560
77.30000 3.812
77.32000 2.003
77.34000 -2.020
77.36000 -1.121
77.38000 -1.118
77.40000 -0.137
77.42000 3.471
77.44000 -1.169
77.46000 -0.986
77.48000 1.987
77.50000 1.024
77.52000 2.863
77.54000 1.467
77.56000 -0.213
77.58000 -0.247
77.60000 -0.059
77.62000 -0.994
77.64000 0.613
77.66000 3.221
77.68000 2.585
77.70000 2.118
77.72000 1.636
77.74000 1.706
77.76000 -0.202
77.78000 -0.504
77.80000 2.865
77.82000 -0.302
77.84000 -0.718
77.86000 -0.069
77.88000 -0.050
77.90000 2.222
77.92000 2.404
77.94000 2.167
77.96000 0.907
77.98000 1.000
78.00000 -0.824
78.02000 2.070
78.04000 4.791
78.06000 3.459
78.08000 -2.033
78.10000 1.464
78.12000 2.685
78.14000 1.656
78.16000 2.548
78.18000 3.193
78.20000 2.132
78.22000 1.007
78.24000 1.864
78.26000 4.080
78.28000 3.836
78.30000 0.654
78.32000 0.592
78.34000 2.653
78.36000 2.953
78.38000 3.882
78.40000 0.949
78.42000 -2.061
78.44000 -0.392
78.46000 2.902
78.48000 2.949
78.50000 2.728
78.52000 0.102
78.54000 0.890
78.56000 1.735
78.58000 1.295
78.60000 1.597
78.62000 0.298
78.64000 0.365
78.66000 1.432
78.68000 4.017
78.70000 3.830
78.72000 2.020
78.74000 1.292
78.76000 1.155
78.78000 1.639
78.80000 3.688
78.82000 3.210
78.84000 0.173
78.86000 0.772
78.88000 2.390
78.90000 2.447
78.92000 1.305
78.94000 4.536
78.96000 2.309
78.98000 -0.058
79.00000 3.254
79.02000 5.403
79.04000 6.763
79.06000 7.243
79.08000 2.689
79.10000 1.106
79.12000 -2.131
79.14000 -1.724
79.16000 -1.190
79.18000 5.754
79.20000 6.262
79.22000 5.000
79.24000 7.804
79.26000 6.496
79.28000 5.210
79.30000 3.560
79.32000 2.936
79.34000 2.481
79.36000 4.606
79.38000 6.001
79.40000 8.345
79.42000 4.149
79.44000 2.659
79.46000 4.913
79.48000 7.382
79.50000 8.737
79.52000 7.306
79.54000 8.173
79.56000 7.841
79.58000 8.958
79.60000 9.794
79.62000 8.941
79.64000 5.354
79.66000 6.931
79.68000 8.719
79.70000 8.448
79.72000 9.050
79.74000 7.726
79.76000 12.870
79.78000 14.745
79.80000 12.661
79.82000 11.092
79.84000 9.543
79.86000 12.797
79.88000 13.794
79.90000 10.796
79.92000 14.478
79.94000 14.566
79.96000 12.138
79.98000 15.174
80.00000 15.871
80.02000 15.564
80.04000 17.431
80.06000 16.277
80.08000 14.740
80.10000 16.053
80.12000 17.507
80.14000 17.626
80.16000 17.819
80.18000 16.102
80.20000 14.789
80.22000 18.659
80.24000 18.556
80.26000 17.882
80.28000 16.752
80.30000 16.615
80.32000 15.769
80.34000 17.540
80.36000 18.409
80.38000 20.537
80.40000 18.409
80.42000 18.541
80.44000 17.106
80.46000 18.077
80.48000 21.640
80.50000 23.482
80.52000 20.792
80.54000 18.574
80.56000 17.913
80.58000 20.267
80.60000 18.674
80.62000 17.599
80.64000 12.766
80.66000 13.133
80.68000 14.168
80.70000 12.822
80.72000 13.973
80.74000 16.200
80.76000 12.868
80.78000 15.894
80.80000 12.177
80.82000 11.333
80.84000 10.295
80.86000 8.792
80.88000 12.030
80.90000 12.706
80.92000 14.310
80.94000 16.226
80.96000 13.741
80.98000 8.295
81.00000 8.009
81.02000 6.440
81.04000 4.015
81.06000 5.599
81.08000 4.501
81.10000 4.694
81.12000 3.398
81.14000 3.462
81.16000 4.607
81.18000 5.472
81.20000 7.346
81.22000 4.614
81.24000 6.501
81.26000 4.790
81.28000 0.949
81.30000 0.588
81.32000 5.608
81.34000 5.009
81.36000 3.792
81.38000 5.544
81.40000 1.315
81.42000 -0.763
81.44000 2.541
81.46000 4.146
81.48000 2.071
81.50000 2.345
81.52000 5.424
81.54000 4.042
81.56000 1.305
81.58000 2.110
81.60000 3.276
81.62000 1.532
81.64000 0.905
81.66000 -0.435
81.68000 -2.203
81.70000 0.162
81.72000 2.451
81.74000 4.101
81.76000 0.757
81.78000 3.664
81.80000 4.385
81.82000 2.209
81.84000 3.656
81.86000 3.306
81.88000 4.222
81.90000 0.601
81.92000 0.325
81.94000 -2.143
81.96000 -1.262
81.98000 1.899
82.00000 2.387
82.02000 5.232
82.04000 1.916
82.06000 3.166
82.08000 0.526
82.10000 -1.940
82.12000 -2.010
82.14000 0.897
82.16000 -0.370
82.18000 -1.840
82.20000 -1.995
82.22000 -0.403
82.24000 -1.146
82.26000 -1.510
82.28000 -1.131
82.30000 1.725
82.32000 3.002
82.34000 3.973
82.36000 1.267
82.38000 0.162
82.40000 0.616
82.42000 -2.114
82.44000 -0.089
82.46000 2.216
82.48000 -0.250
82.50000 0.186
82.52000 -0.458
82.54000 -1.860
82.56000 3.551
82.58000 5.767
82.60000 7.980
82.62000 3.087
82.64000 0.189
82.66000 -2.229
82.68000 -0.792
82.70000 3.372
82.72000 1.833
82.74000 2.664
82.76000 4.827
82.78000 0.518
82.80000 0.203
82.82000 3.155
82.84000 3.859
82.86000 2.951
82.88000 0.755
82.90000 -0.933
82.92000 0.694
82.94000 1.917
82.96000 2.996
82.98000 1.858
83.00000 -0.052
83.02000 0.445
83.04000 5.378
83.06000 6.182
83.08000 0.420
83.10000 6.304
83.12000 4.258
83.14000 2.436
83.16000 1.446
83.18000 1.311
83.20000 2.900
83.22000 2.313
83.24000 3.990
83.26000 8.878
83.28000 7.228
83.30000 6.163
83.32000 8.522
83.34000 8.031
83.36000 9.111
83.38000 6.971
83.40000 6.136
83.42000 10.360
83.44000 13.278
83.46000 11.374
83.48000 13.283
83.50000 16.918
83.52000 13.834
83.54000 13.244
83.56000 14.767
83.58000 13.196
83.60000 7.801
83.62000 12.456
83.64000 17.530
83.66000 20.642
83.68000 15.601
83.70000 15.144
83.72000 17.384
83.74000 16.549
83.76000 22.563
83.78000 21.341
83.80000 24.727
83.82000 25.758
83.84000 24.885
83.86000 24.060
83.88000 27.379
83.90000 28.834
83.92000 26.963
83.94000 26.094
83.96000 32.217
83.98000 30.288
84.00000 29.701
84.02000 26.915
84.04000 26.903
84.06000 32.855
84.08000 37.190
84.10000 36.208
84.12000 33.409
84.14000 30.342
84.16000 28.909
84.18000 33.201
84.20000 37.282
84.22000 35.786
84.24000 33.883
84.26000 35.043
84.28000 33.731
84.30000 34.270
84.32000 30.995
84.34000 31.505
84.36000 31.260
84.38000 31.303
84.40000 35.075
84.42000 31.360
84.44000 33.131
84.46000 30.676
84.48000 28.909
84.50000 26.400
84.52000 29.031
84.54000 26.853
84.56000 25.778
84.58000 25.363
84.60000 23.093
84.62000 23.046
84.64000 26.988
84.66000 28.221
84.68000 23.607
84.70000 22.848
84.72000 21.075
84.74000 15.792
84.76000 14.948
84.78000 19.170
84.80000 20.263
84.82000 16.845
84.84000 14.913
84.86000 15.158
84.88000 13.429
84.90000 12.625
84.92000 10.811
84.94000 13.404
84.96000 12.441
84.98000 8.692
85.00000 8.093
85.02000 9.343
85.04000 8.753
85.06000 12.358
85.08000 13.917
85.10000 10.701
85.12000 8.557
85.14000 11.164
85.16000 9.337
85.18000 7.177
85.20000 6.119
85.22000 3.139
85.24000 2.015
85.26000 0.409
85.28000 2.525
85.30000 5.216
85.32000 7.133
85.34000 0.406
85.36000 -0.180
85.38000 1.468
85.40000 2.787
85.42000 1.903
85.44000 -1.117
85.46000 -0.267
85.48000 1.883
85.50000 0.209
85.52000 -1.842
85.54000 -0.173
85.56000 -0.342
85.58000 1.703
85.60000 -0.657
85.62000 -0.701
85.64000 0.841
85.66000 2.567
85.68000 1.767
85.70000 1.370
85.72000 0.338
85.74000 -0.581
85.76000 -0.337
85.78000 -1.384
85.80000 0.453
85.82000 0.590
85.84000 2.246
85.86000 2.922
85.88000 0.980
85.90000 0.507
85.92000 -0.236
85.94000 0.054
85.96000 5.323
85.98000 5.029
86.00000 -0.045
86.02000 -1.983
86.04000 -1.925
86.06000 0.010
86.08000 3.475
86.10000 4.148
86.12000 -0.191
86.14000 0.783
86.16000 5.758
86.18000 2.699
86.20000 0.155
86.22000 -0.827
86.24000 -0.362
86.26000 -1.864
86.28000 -1.641
86.30000 -1.483
86.32000 -0.796
86.34000 1.249
86.36000 0.902
86.38000 -0.673
86.40000 1.128
86.42000 3.930
86.44000 2.763
86.46000 1.626
86.48000 -0.997
86.50000 1.481
86.52000 0.436
86.54000 1.368
86.56000 1.697
86.58000 -0.105
86.60000 0.685
86.62000 2.634
86.64000 3.466
86.66000 2.506
86.68000 0.594
86.70000 2.843
86.72000 0.707
86.74000 1.000
86.76000 4.084
86.78000 4.852
86.80000 6.580
86.82000 4.072
86.84000 2.077
86.86000 -1.890
86.88000 2.861
86.90000 1.617
86.92000 -1.341
86.94000 -0.841
86.96000 2.901
86.98000 1.619
87.00000 -0.738
87.02000 1.075
87.04000 0.599
87.06000 1.679
87.08000 2.916
87.10000 2.038
87.12000 2.333
87.14000 1.532
87.16000 1.983
87.18000 2.591
87.20000 -0.985
87.22000 2.086
87.24000 4.210
87.26000 2.625
87.28000 -0.696
87.30000 1.271
87.32000 1.313
87.34000 2.901
87.36000 3.846
87.38000 3.763
87.40000 1.683
87.42000 3.606
87.44000 3.780
87.46000 3.411
87.48000 6.326
87.50000 2.306
87.52000 2.015
87.54000 2.629
87.56000 0.031
87.58000 -0.107
87.60000 0.911
87.62000 1.577
87.64000 -1.855
87.66000 1.290
87.68000 1.332
87.70000 1.507
87.72000 2.944
87.74000 3.415
87.76000 5.984
87.78000 8.104
87.80000 5.090
87.82000 1.251
87.84000 5.332
87.86000 5.592
87.88000 1.856
87.90000 1.630
87.92000 0.090
87.94000 2.364
87.96000 2.655
87.98000 3.879
88.00000 2.279
88.02000 1.780
88.04000 2.286
88.06000 1.357
88.08000 3.670
88.10000 7.120
88.12000 3.405
88.14000 2.211
88.16000 3.784
88.18000 1.110
88.20000 0.915
88.22000 1.777
88.24000 1.366
88.26000 1.340
88.28000 0.115
88.30000 0.190
88.32000 1.781
88.34000 6.913
88.36000 6.826
88.38000 2.458
88.40000 0.107
88.42000 3.909
88.44000 2.372
88.46000 1.928
88.48000 4.249
88.50000 4.335
88.52000 4.090
88.54000 3.312
88.56000 3.994
88.58000 1.646
88.60000 1.831
88.62000 5.082
88.64000 4.241
88.66000 3.388
88.68000 2.541
88.70000 1.375
88.72000 3.527
88.74000 2.882
88.76000 2.195
88.78000 4.506
88.80000 0.937
88.82000 -1.819
88.84000 2.394
88.86000 3.129
88.88000 2.049
88.90000 3.729
88.92000 4.025
88.94000 2.234
88.96000 2.414
88.98000 3.653
89.00000 1.642
89.02000 5.573
89.04000 5.172
89.06000 3.960
89.08000 3.309
89.10000 -0.858
89.12000 3.526
89.14000 8.214
89.16000 5.622
89.18000 1.625
89.20000 -0.774
89.22000 4.785
89.24000 5.975
89.26000 1.824
89.28000 0.020
89.30000 2.588
89.32000 3.566
89.34000 4.612
89.36000 2.007
89.38000 2.216
89.40000 4.543
89.42000 3.285
89.44000 5.632
89.46000 3.944
89.48000 3.237
89.50000 4.865
89.52000 2.024
89.54000 1.754
89.56000 2.827
89.58000 5.441
89.60000 3.497
89.62000 3.082
89.64000 4.957
89.66000 3.029
89.68000 3.802
89.70000 1.578
89.72000 2.694
89.74000 2.753
89.76000 4.138
89.78000 2.630
89.80000 -0.868
89.82000 0.784
89.84000 0.373
89.86000 3.100
89.88000 -1.814
89.90000 -0.446
89.92000 3.880
89.94000 5.130
89.96000 5.368
89.98000 5.760
90.00000 4.165
90.02000 1.273
90.04000 1.278
90.06000 4.016
90.08000 1.979
90.10000 0.815
90.12000 2.797
90.14000 2.897
90.16000 1.889
90.18000 -1.810
90.20000 -0.142
90.22000 0.822
90.24000 3.673
90.26000 3.784
90.28000 3.229
90.30000 4.624
90.32000 3.627
90.34000 1.599
90.36000 0.750
90.38000 2.906
90.40000 2.681
90.42000 4.628
90.44000 0.398
90.46000 2.023
90.48000 4.876
90.50000 1.362
90.52000 1.284
90.54000 -0.481
90.56000 -0.368
90.58000 0.479
90.60000 2.078
90.62000 3.822
90.64000 3.240
90.66000 4.242
90.68000 2.621
90.70000 4.516
90.72000 3.575
90.74000 2.855
90.76000 2.334
90.78000 0.251
90.80000 0.221
90.82000 2.820
90.84000 1.399
90.86000 -0.336
90.88000 -0.010
90.90000 1.184
90.92000 1.520
90.94000 1.724
90.96000 1.039
90.98000 1.137
91.00000 1.708
91.02000 4.655
91.04000 2.456
91.06000 0.297
91.08000 2.136
91.10000 2.693
91.12000 -0.095
91.14000 -1.855
91.16000 0.972
91.18000 -1.667
91.20000 -0.299
91.22000 5.633
91.24000 2.401
91.26000 2.715
91.28000 1.236
91.30000 0.247
91.32000 3.295
91.34000 -0.524
91.36000 -1.498
91.38000 -1.293
91.40000 -1.448
91.42000 0.238
91.44000 1.585
91.46000 0.130
91.48000 1.663
91.50000 2.359
91.52000 0.848
91.54000 1.092
91.56000 2.136
91.58000 1.894
91.60000 3.263
91.62000 1.446
91.64000 -0.435
91.66000 1.055
91.68000 4.128
91.70000 4.390
91.72000 2.167
91.74000 3.600
91.76000 3.307
91.78000 2.144
91.80000 0.251
91.82000 2.977
91.84000 4.826
91.86000 2.999
91.88000 1.561
91.90000 3.915
91.92000 1.588
91.94000 -0.134
91.96000 2.170
91.98000 1.993
92.00000 3.735
92.02000 2.282
92.04000 2.591
92.06000 4.477
92.08000 2.803
92.10000 1.305
92.12000 -0.559
92.14000 1.723
92.16000 4.416
92.18000 5.597
92.20000 0.432
92.22000 -0.015
92.24000 2.446
92.26000 0.847
92.28000 -1.396
92.30000 -1.831
92.32000 0.909
92.34000 8.658
92.36000 7.893
92.38000 7.469
92.40000 1.549
92.42000 0.499
92.44000 1.332
92.46000 -0.585
92.48000 0.574
92.50000 -1.322
92.52000 1.841
92.54000 1.847
92.56000 -0.117
92.58000 0.727
92.60000 1.353
92.62000 2.562
92.64000 1.751
92.66000 0.168
92.68000 -0.665
92.70000 0.455
92.72000 1.176
92.74000 1.495
92.76000 3.327
92.78000 3.952
92.80000 1.986
92.82000 2.896
92.84000 3.075
92.86000 3.339
92.88000 0.614
92.90000 0.326
92.92000 -0.090
92.94000 -0.136
92.96000 -0.665
92.98000 0.496
93.00000 2.967
93.02000 2.633
93.04000 2.517
93.06000 -0.181
93.08000 0.804
93.10000 -0.685
93.12000 -0.100
93.14000 1.244
93.16000 0.043
93.18000 1.429
93.20000 2.268
93.22000 3.063
93.24000 0.426
93.26000 3.118
93.28000 2.478
93.30000 -0.381
93.32000 0.793
93.34000 0.538
93.36000 0.990
93.38000 4.718
93.40000 4.973
93.42000 -0.773
93.44000 0.568
93.46000 -1.391
93.48000 0.621
93.50000 0.005
93.52000 2.393
93.54000 1.402
93.56000 1.778
93.58000 2.184
93.60000 2.988
93.62000 0.636
93.64000 1.628
93.66000 3.630
93.68000 3.255
93.70000 2.460
93.72000 2.646
93.74000 2.845
93.76000 2.019
93.78000 2.681
93.80000 1.558
93.82000 0.993
93.84000 0.636
93.86000 0.412
93.88000 5.980
93.90000 6.729
93.92000 6.536
93.94000 2.862
93.96000 1.098
93.98000 4.016
94.00000 7.653
94.02000 1.999
94.04000 -1.826
94.06000 1.513
94.08000 4.944
94.10000 5.092
94.12000 3.638
94.14000 2.240
94.16000 1.981
94.18000 2.188
94.20000 1.729
94.22000 3.112
94.24000 5.337
94.26000 5.424
94.28000 5.157
94.30000 5.563
94.32000 5.797
94.34000 6.661
94.36000 1.713
94.38000 1.204
94.40000 3.923
94.42000 5.970
94.44000 5.648
94.46000 6.249
94.48000 5.332
94.50000 5.047
94.52000 4.975
94.54000 2.046
94.56000 2.553
94.58000 1.253
94.60000 -0.276
94.62000 1.241
94.64000 1.499
94.66000 2.146
94.68000 4.854
94.70000 3.434
94.72000 3.680
94.74000 4.065
94.76000 4.482
94.78000 4.930
94.80000 4.816
94.82000 6.147
94.84000 3.593
94.86000 0.924
94.88000 0.008
94.90000 0.308
94.92000 2.438
94.94000 2.254
94.96000 2.256
94.98000 1.793
95.00000 3.378
95.02000 3.143
95.04000 5.175
95.06000 3.224
95.08000 2.894
95.10000 3.027
95.12000 0.835
95.14000 3.824
95.16000 3.682
95.18000 0.454
95.20000 0.541
95.22000 2.219
95.24000 4.820
95.26000 8.078
95.28000 3.369
95.30000 2.679
95.32000 2.625
95.34000 5.225
95.36000 4.693
95.38000 3.434
95.40000 5.565
95.42000 3.187
95.44000 2.870
95.46000 3.076
95.48000 4.083
95.50000 -0.556
95.52000 -1.079
95.54000 2.987
95.56000 7.137
95.58000 5.417
95.60000 4.583
95.62000 4.411
95.64000 3.707
95.66000 7.409
95.68000 3.914
95.70000 4.672
95.72000 4.236
95.74000 5.162
95.76000 1.874
95.78000 -1.819
95.80000 -0.388
95.82000 2.240
95.84000 3.793
95.86000 6.198
95.88000 2.910
95.90000 2.719
95.92000 4.471
95.94000 7.252
95.96000 6.771
95.98000 2.728
96.00000 2.603
96.02000 4.392
96.04000 5.093
96.06000 5.262
96.08000 6.104
96.10000 6.046
96.12000 2.066
96.14000 4.177
96.16000 5.893
96.18000 2.127
96.20000 2.992
96.22000 3.964
96.24000 3.882
96.26000 1.985
96.28000 3.193
96.30000 1.863
96.32000 2.155
96.34000 4.238
96.36000 4.567
96.38000 6.421
96.40000 4.716
96.42000 4.771
96.44000 3.105
96.46000 4.804
96.48000 2.274
96.50000 2.921
96.52000 6.836
96.54000 6.089
96.56000 5.171
96.58000 5.918
96.60000 4.262
96.62000 4.581
96.64000 2.191
96.66000 1.377
96.68000 1.427
96.70000 1.496
96.72000 0.963
96.74000 4.893
96.76000 4.793
96.78000 6.222
96.80000 5.706
96.82000 4.047
96.84000 6.371
96.86000 3.680
96.88000 2.205
96.90000 4.061
96.92000 1.769
96.94000 0.359
96.96000 -0.769
96.98000 4.966
97.00000 7.639
97.02000 6.022
97.04000 8.711
97.06000 9.835
97.08000 3.110
97.10000 5.011
97.12000 10.170
97.14000 7.269
97.16000 7.127
97.18000 9.429
97.20000 9.963
97.22000 8.951
97.24000 5.334
97.26000 5.571
97.28000 -2.988
97.30000 3.674
97.32000 4.767
97.34000 5.586
97.36000 6.513
97.38000 5.995
97.40000 6.583
97.42000 5.298
97.44000 4.221
97.46000 5.509
97.48000 3.982
97.50000 2.839
97.52000 3.702
97.54000 5.920
97.56000 4.769
97.58000 5.105
97.60000 7.189
97.62000 3.681
97.64000 1.931
97.66000 6.328
97.68000 5.471
97.70000 8.045
97.72000 8.484
97.74000 6.136
97.76000 4.595
97.78000 4.462
97.80000 4.793
97.82000 0.932
97.84000 4.587
97.86000 7.810
97.88000 5.014
97.90000 3.354
97.92000 2.702
97.94000 4.533
97.96000 2.341
97.98000 3.257
98.00000 6.768
98.02000 8.064
98.04000 6.595
98.06000 7.251
98.08000 1.640
98.10000 1.664
98.12000 5.120
98.14000 3.393
98.16000 3.511
98.18000 3.607
98.20000 5.504
98.22000 1.778
98.24000 0.216
98.26000 5.260
98.28000 4.151
98.30000 6.844
98.32000 9.907
98.34000 4.415
98.36000 -0.324
98.38000 0.278
98.40000 0.675
98.42000 -1.795
98.44000 3.392
98.46000 7.956
98.48000 6.161
98.50000 8.368
98.52000 5.485
98.54000 5.927
98.56000 3.955
98.58000 -1.789
98.60000 1.425
98.62000 5.242
98.64000 9.472
98.66000 6.193
98.68000 1.089
98.70000 4.147
98.72000 1.201
98.74000 -1.155
98.76000 3.211
98.78000 9.592
98.80000 12.422
98.82000 6.974
98.84000 2.569
98.86000 2.629
98.88000 1.904
98.90000 4.928
98.92000 6.345
98.94000 1.949
98.96000 3.218
98.98000 0.682
99.00000 5.851
99.02000 -0.448
99.04000 4.797
99.06000 8.463
99.08000 1.050
99.10000 -0.002
99.12000 1.196
99.14000 2.932
99.16000 6.767
99.18000 7.440
99.20000 9.282
99.22000 0.002
99.24000 5.534
99.26000 6.190
99.28000 3.130
99.30000 4.375
99.32000 3.492
99.34000 0.030
99.36000 1.705
99.38000 -1.796
99.40000 3.427
99.42000 5.677
99.44000 6.550
99.46000 -0.005
99.48000 2.024
99.50000 2.880
99.52000 4.254
99.54000 2.258
99.56000 2.676
99.58000 2.049
99.60000 9.602
99.62000 14.460
99.64000 12.009
99.66000 2.153
99.68000 -0.094
99.70000 8.262
99.72000 4.632
99.74000 1.407
99.76000 3.202
99.78000 9.065
99.80000 7.229
99.82000 6.710
99.84000 5.788
99.86000 -1.825
99.88000 -1.826
99.90000 0.389
99.92000 4.470
99.94000 0.983
99.96000 6.000
99.98000 0.000
