'Id: "0011389" Comment: "Integrate frame 0011389_Au-Ir-Rh_Au-Rich_XRD_Mapping-254-0000.gfrmwith cursor Wedge Cursor #5" Operator: "B?rgel" Anode: "Cu" Wavelength: "1.5406" Scantype: "2Theta (TwoTheta)" TimePerStep: "1" X: "18" Y: "18" Z: "5.95" 
10.00000 0.000
10.02000 -3.783
10.04000 2.074
10.06000 -0.713
10.08000 -3.751
10.10000 12.423
10.12000 25.852
10.14000 20.501
10.16000 26.900
10.18000 30.016
10.20000 28.685
10.22000 16.605
10.24000 17.784
10.26000 19.894
10.28000 28.466
10.30000 24.876
10.32000 13.088
10.34000 10.144
10.36000 15.835
10.38000 33.744
10.40000 31.594
10.42000 36.809
10.44000 41.729
10.46000 14.977
10.48000 9.314
10.50000 12.728
10.52000 12.111
10.54000 13.383
10.56000 34.222
10.58000 38.411
10.60000 26.069
10.62000 9.412
10.64000 7.011
10.66000 4.658
10.68000 12.438
10.70000 21.985
10.72000 33.645
10.74000 34.652
10.76000 30.266
10.78000 35.363
10.80000 21.253
10.82000 9.650
10.84000 10.226
10.86000 7.760
10.88000 25.646
10.90000 34.733
10.92000 27.601
10.94000 36.845
10.96000 38.025
10.98000 20.139
11.00000 27.080
11.02000 20.410
11.04000 1.639
11.06000 3.542
11.08000 26.239
11.10000 27.337
11.12000 26.054
11.14000 29.970
11.16000 27.547
11.18000 22.605
11.20000 14.808
11.22000 9.339
11.24000 21.756
11.26000 28.483
11.28000 25.089
11.30000 25.024
11.32000 28.378
11.34000 21.535
11.36000 29.614
11.38000 33.709
11.40000 38.346
11.42000 38.095
11.44000 26.372
11.46000 22.817
11.48000 26.081
11.50000 32.449
11.52000 27.762
11.54000 17.812
11.56000 28.761
11.58000 27.834
11.60000 14.867
11.62000 20.581
11.64000 21.760
11.66000 23.800
11.68000 32.194
11.70000 21.460
11.72000 23.630
11.74000 28.717
11.76000 24.904
11.78000 23.363
11.80000 26.533
11.82000 17.777
11.84000 15.269
11.86000 18.282
11.88000 19.967
11.90000 27.393
11.92000 46.818
11.94000 53.926
11.96000 37.374
11.98000 32.221
12.00000 28.478
12.02000 25.948
12.04000 37.515
12.06000 22.687
12.08000 22.593
12.10000 34.905
12.12000 29.485
12.14000 29.729
12.16000 28.561
12.18000 26.998
12.20000 32.452
12.22000 25.569
12.24000 26.765
12.26000 33.432
12.28000 40.068
12.30000 32.886
12.32000 28.340
12.34000 21.333
12.36000 20.993
12.38000 32.263
12.40000 35.132
12.42000 35.316
12.44000 40.316
12.46000 37.243
12.48000 28.368
12.50000 26.837
12.52000 35.877
12.54000 50.067
12.56000 49.268
12.58000 36.851
12.60000 39.846
12.62000 26.962
12.64000 19.065
12.66000 17.959
12.68000 30.831
12.70000 34.472
12.72000 29.572
12.74000 37.603
12.76000 27.128
12.78000 23.966
12.80000 34.301
12.82000 38.401
12.84000 37.857
12.86000 31.118
12.88000 31.179
12.90000 38.605
12.92000 38.662
12.94000 34.223
12.96000 21.725
12.98000 23.074
13.00000 36.187
13.02000 28.929
13.04000 20.764
13.06000 29.938
13.08000 30.674
13.10000 31.479
13.12000 29.514
13.14000 20.138
13.16000 17.490
13.18000 26.288
13.20000 21.258
13.22000 26.742
13.24000 17.926
13.26000 19.931
13.28000 27.877
13.30000 29.341
13.32000 33.842
13.34000 38.015
13.36000 32.901
13.38000 30.271
13.40000 26.028
13.42000 21.024
13.44000 29.995
13.46000 29.383
13.48000 27.975
13.50000 27.546
13.52000 30.630
13.54000 21.793
13.56000 19.678
13.58000 24.908
13.60000 17.335
13.62000 19.822
13.64000 27.287
13.66000 32.187
13.68000 30.377
13.70000 28.955
13.72000 24.029
13.74000 21.829
13.76000 21.171
13.78000 9.040
13.80000 9.128
13.82000 16.491
13.84000 27.932
13.86000 22.449
13.88000 18.400
13.90000 21.768
13.92000 20.557
13.94000 30.032
13.96000 31.156
13.98000 14.902
14.00000 16.080
14.02000 12.596
14.04000 14.199
14.06000 14.254
14.08000 24.111
14.10000 20.686
14.12000 21.316
14.14000 21.934
14.16000 17.971
14.18000 17.112
14.20000 21.724
14.22000 17.157
14.24000 21.643
14.26000 23.276
14.28000 21.454
14.30000 22.980
14.32000 26.010
14.34000 19.521
14.36000 18.993
14.38000 18.817
14.40000 14.555
14.42000 15.667
14.44000 15.123
14.46000 4.550
14.48000 10.895
14.50000 16.499
14.52000 19.926
14.54000 20.688
14.56000 22.683
14.58000 14.381
14.60000 11.894
14.62000 13.640
14.64000 14.476
14.66000 18.948
14.68000 19.593
14.70000 15.755
14.72000 7.288
14.74000 3.835
14.76000 7.394
14.78000 17.144
14.80000 23.554
14.82000 15.557
14.84000 7.748
14.86000 5.196
14.88000 16.998
14.90000 18.012
14.92000 16.373
14.94000 12.711
14.96000 12.630
14.98000 8.350
15.00000 7.720
15.02000 13.620
15.04000 8.369
15.06000 12.657
15.08000 22.359
15.10000 26.674
15.12000 19.607
15.14000 2.931
15.16000 13.956
15.18000 15.100
15.20000 5.865
15.22000 5.961
15.24000 14.190
15.26000 12.412
15.28000 16.598
15.30000 16.601
15.32000 15.325
15.34000 14.474
15.36000 6.563
15.38000 12.647
15.40000 14.890
15.42000 15.426
15.44000 17.195
15.46000 17.551
15.48000 19.527
15.50000 11.031
15.52000 9.370
15.54000 14.195
15.56000 11.615
15.58000 4.676
15.60000 8.847
15.62000 9.550
15.64000 11.396
15.66000 15.744
15.68000 6.035
15.70000 4.531
15.72000 11.918
15.74000 23.062
15.76000 19.680
15.78000 14.612
15.80000 8.239
15.82000 10.584
15.84000 11.691
15.86000 15.038
15.88000 12.039
15.90000 12.627
15.92000 11.445
15.94000 4.176
15.96000 11.801
15.98000 14.914
16.00000 12.560
16.02000 5.452
16.04000 5.005
16.06000 5.978
16.08000 0.363
16.10000 2.632
16.12000 8.445
16.14000 9.220
16.16000 5.871
16.18000 7.296
16.20000 13.721
16.22000 7.613
16.24000 14.673
16.26000 10.763
16.28000 13.871
16.30000 10.504
16.32000 2.787
16.34000 5.456
16.36000 1.902
16.38000 1.231
16.40000 11.060
16.42000 8.108
16.44000 -0.305
16.46000 -1.811
16.48000 4.797
16.50000 6.155
16.52000 7.850
16.54000 8.235
16.56000 7.235
16.58000 8.233
16.60000 7.994
16.62000 6.324
16.64000 8.228
16.66000 6.868
16.68000 7.376
16.70000 2.203
16.72000 4.124
16.74000 11.979
16.76000 15.920
16.78000 11.946
16.80000 4.895
16.82000 4.357
16.84000 8.840
16.86000 10.140
16.88000 10.935
16.90000 11.431
16.92000 8.441
16.94000 3.786
16.96000 4.589
16.98000 7.135
17.00000 3.046
17.02000 2.239
17.04000 6.664
17.06000 11.669
17.08000 7.291
17.10000 1.780
17.12000 0.508
17.14000 3.875
17.16000 0.709
17.18000 0.257
17.20000 3.306
17.22000 12.091
17.24000 4.875
17.26000 3.154
17.28000 11.511
17.30000 6.787
17.32000 -1.500
17.34000 -3.389
17.36000 0.581
17.38000 7.502
17.40000 9.731
17.42000 5.165
17.44000 2.877
17.46000 -3.569
17.48000 -1.340
17.50000 8.232
17.52000 13.628
17.54000 11.154
17.56000 8.474
17.58000 11.012
17.60000 12.024
17.62000 4.568
17.64000 6.302
17.66000 7.828
17.68000 6.862
17.70000 6.256
17.72000 1.125
17.74000 0.766
17.76000 -2.183
17.78000 0.189
17.80000 6.173
17.82000 4.734
17.84000 -0.286
17.86000 0.216
17.88000 8.421
17.90000 3.506
17.92000 -4.382
17.94000 0.489
17.96000 9.069
17.98000 8.063
18.00000 11.451
18.02000 2.370
18.04000 1.048
18.06000 -2.166
18.08000 0.173
18.10000 4.103
18.12000 5.848
18.14000 10.555
18.16000 2.552
18.18000 3.624
18.20000 5.662
18.22000 7.172
18.24000 6.392
18.26000 8.882
18.28000 9.406
18.30000 8.078
18.32000 11.430
18.34000 2.353
18.36000 5.827
18.38000 1.201
18.40000 10.320
18.42000 16.663
18.44000 8.701
18.46000 2.570
18.48000 5.089
18.50000 8.301
18.52000 0.393
18.54000 -0.544
18.56000 0.954
18.58000 0.341
18.60000 0.496
18.62000 -0.972
18.64000 2.069
18.66000 -0.968
18.68000 5.307
18.70000 5.813
18.72000 4.466
18.74000 6.234
18.76000 1.156
18.78000 0.306
18.80000 6.747
18.82000 5.317
18.84000 1.100
18.86000 -0.648
18.88000 -1.242
18.90000 5.913
18.92000 7.132
18.94000 13.534
18.96000 8.279
18.98000 10.420
19.00000 5.596
19.02000 4.796
19.04000 7.391
19.06000 11.115
19.08000 5.207
19.10000 3.589
19.12000 1.564
19.14000 -4.314
19.16000 1.043
19.18000 9.041
19.20000 6.079
19.22000 5.988
19.24000 9.306
19.26000 7.367
19.28000 6.604
19.30000 3.640
19.32000 3.315
19.34000 2.128
19.36000 6.051
19.38000 7.193
19.40000 10.100
19.42000 3.570
19.44000 -2.692
19.46000 3.581
19.48000 8.775
19.50000 11.709
19.52000 9.272
19.54000 2.606
19.56000 4.727
19.58000 5.506
19.60000 2.026
19.62000 3.590
19.64000 0.802
19.66000 0.489
19.68000 -1.961
19.70000 3.774
19.72000 3.544
19.74000 -1.789
19.76000 -2.423
19.78000 1.207
19.80000 6.719
19.82000 3.271
19.84000 -0.847
19.86000 3.466
19.88000 7.305
19.90000 8.778
19.92000 8.354
19.94000 3.828
19.96000 8.253
19.98000 1.541
20.00000 1.150
20.02000 0.098
20.04000 1.752
20.06000 3.489
20.08000 0.532
20.10000 -1.710
20.12000 3.347
20.14000 2.734
20.16000 4.783
20.18000 7.836
20.20000 2.551
20.22000 4.381
20.24000 5.598
20.26000 8.102
20.28000 3.809
20.30000 0.117
20.32000 -0.113
20.34000 7.734
20.36000 1.617
20.38000 5.361
20.40000 9.389
20.42000 5.270
20.44000 0.476
20.46000 3.613
20.48000 3.275
20.50000 1.606
20.52000 5.665
20.54000 2.952
20.56000 5.629
20.58000 -0.597
20.60000 -1.201
20.62000 0.275
20.64000 1.427
20.66000 0.227
20.68000 -3.000
20.70000 7.371
20.72000 9.538
20.74000 9.342
20.76000 6.412
20.78000 5.716
20.80000 2.008
20.82000 1.718
20.84000 7.507
20.86000 7.464
20.88000 4.685
20.90000 5.725
20.92000 2.874
20.94000 1.542
20.96000 -2.589
20.98000 0.111
21.00000 3.498
21.02000 -1.240
21.04000 -4.204
21.06000 3.153
21.08000 7.391
21.10000 6.902
21.12000 -1.194
21.14000 5.217
21.16000 13.608
21.18000 9.974
21.20000 -0.771
21.22000 4.364
21.24000 2.903
21.26000 1.924
21.28000 1.580
21.30000 7.529
21.32000 2.289
21.34000 0.150
21.36000 5.551
21.38000 4.704
21.40000 4.175
21.42000 9.080
21.44000 7.423
21.46000 3.014
21.48000 1.987
21.50000 5.228
21.52000 9.000
21.54000 11.130
21.56000 3.325
21.58000 -1.697
21.60000 -2.600
21.62000 -0.242
21.64000 5.184
21.66000 1.715
21.68000 -1.378
21.70000 -4.155
21.72000 4.590
21.74000 6.229
21.76000 1.493
21.78000 2.327
21.80000 -0.644
21.82000 -3.764
21.84000 0.981
21.86000 8.447
21.88000 7.376
21.90000 5.458
21.92000 11.510
21.94000 6.219
21.96000 1.254
21.98000 6.248
22.00000 8.482
22.02000 0.842
22.04000 6.844
22.06000 12.232
22.08000 6.414
22.10000 1.050
22.12000 2.496
22.14000 1.852
22.16000 -3.228
22.18000 -0.625
22.20000 3.038
22.22000 4.566
22.24000 3.079
22.26000 -4.137
22.28000 3.989
22.30000 5.212
22.32000 0.948
22.34000 9.201
22.36000 11.580
22.38000 8.231
22.40000 2.618
22.42000 -3.959
22.44000 1.747
22.46000 -0.426
22.48000 4.417
22.50000 7.422
22.52000 7.220
22.54000 10.236
22.56000 5.411
22.58000 6.123
22.60000 3.947
22.62000 1.962
22.64000 6.555
22.66000 4.148
22.68000 6.671
22.70000 10.379
22.72000 8.277
22.74000 3.285
22.76000 0.911
22.78000 1.866
22.80000 -1.448
22.82000 2.335
22.84000 0.488
22.86000 -3.220
22.88000 5.122
22.90000 10.251
22.92000 13.346
22.94000 7.593
22.96000 3.370
22.98000 6.245
23.00000 10.253
23.02000 5.353
23.04000 1.638
23.06000 2.294
23.08000 4.434
23.10000 -0.165
23.12000 2.365
23.14000 -0.108
23.16000 2.814
23.18000 6.378
23.20000 2.835
23.22000 7.752
23.24000 5.937
23.26000 -0.172
23.28000 5.562
23.30000 5.455
23.32000 -2.953
23.34000 1.193
23.36000 4.699
23.38000 9.219
23.40000 11.703
23.42000 8.369
23.44000 13.920
23.46000 4.180
23.48000 -4.060
23.50000 0.848
23.52000 5.814
23.54000 5.233
23.56000 8.509
23.58000 6.223
23.60000 7.930
23.62000 9.695
23.64000 5.512
23.66000 6.125
23.68000 3.852
23.70000 -0.588
23.72000 4.074
23.74000 4.395
23.76000 9.186
23.78000 11.445
23.80000 4.702
23.82000 -1.830
23.84000 -1.485
23.86000 4.002
23.88000 1.395
23.90000 0.586
23.92000 1.001
23.94000 8.183
23.96000 7.146
23.98000 5.830
24.00000 2.817
24.02000 1.084
24.04000 -1.978
24.06000 0.626
24.08000 7.699
24.10000 2.866
24.12000 -0.603
24.14000 0.596
24.16000 0.583
24.18000 2.432
24.20000 6.286
24.22000 5.479
24.24000 3.632
24.26000 5.914
24.28000 2.511
24.30000 0.898
24.32000 4.531
24.34000 -0.638
24.36000 5.056
24.38000 7.058
24.40000 1.329
24.42000 -1.367
24.44000 -0.139
24.46000 3.861
24.48000 5.745
24.50000 2.647
24.52000 6.275
24.54000 6.552
24.56000 6.310
24.58000 4.002
24.60000 1.373
24.62000 1.253
24.64000 2.843
24.66000 5.048
24.68000 6.138
24.70000 9.020
24.72000 5.166
24.74000 1.657
24.76000 3.536
24.78000 1.550
24.80000 0.694
24.82000 5.651
24.84000 2.756
24.86000 -1.312
24.88000 -0.576
24.90000 2.880
24.92000 1.597
24.94000 5.819
24.96000 0.387
24.98000 6.680
25.00000 5.988
25.02000 8.413
25.04000 7.863
25.06000 0.277
25.08000 0.029
25.10000 -1.011
25.12000 0.967
25.14000 3.840
25.16000 2.300
25.18000 1.583
25.20000 4.579
25.22000 5.395
25.24000 1.641
25.26000 6.034
25.28000 8.655
25.30000 9.847
25.32000 6.330
25.34000 4.078
25.36000 6.651
25.38000 8.422
25.40000 2.550
25.42000 2.487
25.44000 5.019
25.46000 5.719
25.48000 8.325
25.50000 5.018
25.52000 -3.947
25.54000 -2.856
25.56000 2.237
25.58000 2.167
25.60000 0.537
25.62000 5.650
25.64000 6.264
25.66000 5.844
25.68000 2.323
25.70000 4.086
25.72000 4.451
25.74000 -0.092
25.76000 -0.863
25.78000 4.172
25.80000 3.699
25.82000 9.042
25.84000 7.190
25.86000 2.825
25.88000 1.230
25.90000 7.397
25.92000 10.663
25.94000 10.800
25.96000 3.618
25.98000 0.899
26.00000 -3.925
26.02000 3.298
26.04000 7.475
26.06000 11.473
26.08000 11.437
26.10000 10.906
26.12000 6.441
26.14000 4.080
26.16000 5.017
26.18000 5.640
26.20000 4.241
26.22000 -2.584
26.24000 -2.401
26.26000 1.872
26.28000 4.561
26.30000 3.492
26.32000 3.622
26.34000 1.510
26.36000 2.164
26.38000 6.973
26.40000 2.660
26.42000 2.467
26.44000 7.350
26.46000 3.878
26.48000 -0.762
26.50000 -0.041
26.52000 1.979
26.54000 10.105
26.56000 8.341
26.58000 2.152
26.60000 0.398
26.62000 3.882
26.64000 8.808
26.66000 4.786
26.68000 2.374
26.70000 8.618
26.72000 9.712
26.74000 8.976
26.76000 5.564
26.78000 2.875
26.80000 0.985
26.82000 2.522
26.84000 6.617
26.86000 5.376
26.88000 2.444
26.90000 5.246
26.92000 1.959
26.94000 -0.632
26.96000 -0.059
26.98000 -3.400
27.00000 4.336
27.02000 7.897
27.04000 5.262
27.06000 0.445
27.08000 -3.630
27.10000 2.774
27.12000 4.324
27.14000 5.525
27.16000 6.963
27.18000 0.147
27.20000 6.700
27.22000 5.236
27.24000 3.629
27.26000 7.162
27.28000 4.277
27.30000 2.162
27.32000 1.661
27.34000 6.731
27.36000 4.495
27.38000 4.204
27.40000 1.566
27.42000 3.003
27.44000 3.614
27.46000 2.349
27.48000 5.267
27.50000 4.016
27.52000 -0.519
27.54000 -3.842
27.56000 0.382
27.58000 -1.243
27.60000 5.197
27.62000 5.969
27.64000 5.884
27.66000 8.929
27.68000 7.096
27.70000 2.680
27.72000 1.508
27.74000 -1.381
27.76000 6.587
27.78000 7.470
27.80000 6.929
27.82000 11.300
27.84000 9.129
27.86000 2.190
27.88000 4.789
27.90000 3.525
27.92000 3.131
27.94000 2.304
27.96000 -2.085
27.98000 1.906
28.00000 1.743
28.02000 -1.023
28.04000 -0.190
28.06000 -2.613
28.08000 2.441
28.10000 8.123
28.12000 7.269
28.14000 1.196
28.16000 4.093
28.18000 2.853
28.20000 0.848
28.22000 5.996
28.24000 5.111
28.26000 3.226
28.28000 -2.170
28.30000 -3.822
28.32000 1.174
28.34000 0.981
28.36000 1.667
28.38000 3.382
28.40000 4.130
28.42000 4.156
28.44000 0.136
28.46000 1.981
28.48000 2.603
28.50000 2.498
28.52000 4.437
28.54000 3.520
28.56000 3.689
28.58000 5.410
28.60000 0.366
28.62000 1.629
28.64000 4.165
28.66000 0.941
28.68000 3.631
28.70000 5.552
28.72000 4.753
28.74000 2.616
28.76000 3.497
28.78000 -3.808
28.80000 3.193
28.82000 2.836
28.84000 3.281
28.86000 5.022
28.88000 4.519
28.90000 -0.362
28.92000 0.594
28.94000 -0.462
28.96000 1.798
28.98000 3.698
29.00000 3.627
29.02000 4.650
29.04000 6.571
29.06000 5.289
29.08000 3.938
29.10000 -1.844
29.12000 1.281
29.14000 0.214
29.16000 1.346
29.18000 6.087
29.20000 4.353
29.22000 1.125
29.24000 -1.903
29.26000 -1.600
29.28000 -0.482
29.30000 -0.767
29.32000 1.805
29.34000 5.675
29.36000 9.341
29.38000 0.020
29.40000 0.899
29.42000 -1.942
29.44000 -1.307
29.46000 -0.682
29.48000 5.366
29.50000 8.255
29.52000 4.502
29.54000 2.329
29.56000 0.331
29.58000 0.429
29.60000 -0.408
29.62000 5.418
29.64000 6.797
29.66000 5.000
29.68000 0.512
29.70000 1.667
29.72000 0.892
29.74000 7.570
29.76000 3.969
29.78000 4.358
29.80000 0.465
29.82000 -0.445
29.84000 -0.716
29.86000 -1.134
29.88000 2.500
29.90000 -0.424
29.92000 -3.760
29.94000 -2.015
29.96000 4.241
29.98000 6.891
30.00000 3.189
30.02000 2.796
30.04000 3.732
30.06000 10.204
30.08000 3.861
30.10000 2.661
30.12000 5.393
30.14000 1.044
30.16000 2.217
30.18000 1.525
30.20000 7.052
30.22000 3.960
30.24000 5.951
30.26000 8.288
30.28000 1.368
30.30000 2.376
30.32000 2.803
30.34000 1.669
30.36000 -2.687
30.38000 2.314
30.40000 4.112
30.42000 -3.025
30.44000 -0.458
30.46000 4.584
30.48000 2.770
30.50000 3.866
30.52000 0.029
30.54000 -2.454
30.56000 1.327
30.58000 -0.199
30.60000 0.382
30.62000 3.500
30.64000 3.260
30.66000 -2.590
30.68000 -1.011
30.70000 4.826
30.72000 2.153
30.74000 1.394
30.76000 4.683
30.78000 2.889
30.80000 2.397
30.82000 6.232
30.84000 -1.515
30.86000 -3.731
30.88000 0.278
30.90000 4.629
30.92000 4.707
30.94000 4.722
30.96000 0.480
30.98000 2.035
31.00000 5.852
31.02000 0.409
31.04000 -2.193
31.06000 0.108
31.08000 3.988
31.10000 -1.256
31.12000 -0.448
31.14000 -1.794
31.16000 1.391
31.18000 -0.570
31.20000 5.052
31.22000 0.901
31.24000 -1.817
31.26000 0.643
31.28000 2.749
31.30000 4.179
31.32000 6.340
31.34000 3.342
31.36000 0.565
31.38000 -1.088
31.40000 -2.701
31.42000 0.038
31.44000 2.757
31.46000 -3.715
31.48000 -1.442
31.50000 -0.019
31.52000 3.505
31.54000 4.629
31.56000 3.586
31.58000 2.023
31.60000 3.527
31.62000 2.375
31.64000 -3.708
31.66000 -1.800
31.68000 2.015
31.70000 1.413
31.72000 2.266
31.74000 2.643
31.76000 1.171
31.78000 1.323
31.80000 -2.492
31.82000 0.967
31.84000 2.907
31.86000 1.181
31.88000 2.622
31.90000 2.051
31.92000 4.195
31.94000 6.790
31.96000 3.252
31.98000 0.249
32.00000 -0.536
32.02000 -2.862
32.04000 4.571
32.06000 2.615
32.08000 -0.622
32.10000 -1.114
32.12000 -0.314
32.14000 3.268
32.16000 4.879
32.18000 7.160
32.20000 1.472
32.22000 -0.273
32.24000 5.752
32.26000 0.986
32.28000 -2.063
32.30000 0.117
32.32000 2.825
32.34000 2.045
32.36000 4.087
32.38000 6.159
32.40000 5.989
32.42000 2.899
32.44000 1.292
32.46000 4.367
32.48000 3.844
32.50000 2.604
32.52000 1.441
32.54000 0.455
32.56000 -3.658
32.58000 -2.747
32.60000 2.337
32.62000 -0.396
32.64000 -0.104
32.66000 2.875
32.68000 1.665
32.70000 -0.807
32.72000 -3.041
32.74000 -1.092
32.76000 0.753
32.78000 3.432
32.80000 7.793
32.82000 5.980
32.84000 4.394
32.86000 4.268
32.88000 6.237
32.90000 8.537
32.92000 -0.480
32.94000 -1.470
32.96000 -2.628
32.98000 -1.684
33.00000 1.681
33.02000 1.763
33.04000 4.926
33.06000 5.037
33.08000 1.169
33.10000 2.727
33.12000 1.783
33.14000 4.927
33.16000 6.200
33.18000 4.913
33.20000 9.460
33.22000 1.653
33.24000 -0.074
33.26000 5.525
33.28000 4.737
33.30000 3.482
33.32000 6.252
33.34000 1.508
33.36000 2.043
33.38000 7.304
33.40000 6.847
33.42000 4.190
33.44000 -1.116
33.46000 3.895
33.48000 4.978
33.50000 0.060
33.52000 0.857
33.54000 3.711
33.56000 -0.826
33.58000 4.149
33.60000 4.901
33.62000 3.349
33.64000 3.222
33.66000 3.359
33.68000 2.191
33.70000 -1.044
33.72000 2.661
33.74000 7.094
33.76000 9.874
33.78000 10.698
33.80000 7.057
33.82000 5.906
33.84000 5.677
33.86000 5.429
33.88000 2.013
33.90000 -3.636
33.92000 3.919
33.94000 7.293
33.96000 5.934
33.98000 6.854
34.00000 0.746
34.02000 -2.131
34.04000 0.840
34.06000 5.389
34.08000 1.544
34.10000 1.400
34.12000 3.644
34.14000 2.449
34.16000 3.259
34.18000 4.508
34.20000 4.839
34.22000 2.937
34.24000 2.644
34.26000 2.931
34.28000 3.867
34.30000 6.625
34.32000 5.575
34.34000 5.649
34.36000 6.811
34.38000 4.569
34.40000 1.992
34.42000 4.427
34.44000 7.849
34.46000 8.455
34.48000 8.752
34.50000 9.287
34.52000 11.354
34.54000 3.948
34.56000 -3.598
34.58000 -0.116
34.60000 4.787
34.62000 3.606
34.64000 3.652
34.66000 6.172
34.68000 8.312
34.70000 8.017
34.72000 2.904
34.74000 4.606
34.76000 7.535
34.78000 10.765
34.80000 14.920
34.82000 6.801
34.84000 2.142
34.86000 5.107
34.88000 9.303
34.90000 5.775
34.92000 3.640
34.94000 1.857
34.96000 0.937
34.98000 3.931
35.00000 5.110
35.02000 2.173
35.04000 1.753
35.06000 5.923
35.08000 -1.333
35.10000 -3.610
35.12000 -2.353
35.14000 0.520
35.16000 3.476
35.18000 7.253
35.20000 7.127
35.22000 3.362
35.24000 1.620
35.26000 5.434
35.28000 4.703
35.30000 6.816
35.32000 0.964
35.34000 -0.140
35.36000 6.255
35.38000 7.270
35.40000 6.257
35.42000 5.856
35.44000 4.187
35.46000 8.099
35.48000 7.111
35.50000 6.319
35.52000 6.072
35.54000 0.290
35.56000 -0.640
35.58000 2.523
35.60000 2.480
35.62000 2.424
35.64000 7.791
35.66000 4.002
35.68000 -2.005
35.70000 2.940
35.72000 1.439
35.74000 4.669
35.76000 2.484
35.78000 2.717
35.80000 7.062
35.82000 4.095
35.84000 0.706
35.86000 -3.635
35.88000 4.930
35.90000 6.984
35.92000 5.548
35.94000 0.567
35.96000 -0.600
35.98000 1.731
36.00000 2.816
36.02000 3.993
36.04000 3.535
36.06000 0.436
36.08000 2.175
36.10000 3.967
36.12000 -2.775
36.14000 -2.386
36.16000 1.985
36.18000 1.062
36.20000 3.064
36.22000 4.947
36.24000 3.818
36.26000 1.234
36.28000 1.071
36.30000 -1.686
36.32000 0.859
36.34000 0.413
36.36000 -1.816
36.38000 -0.642
36.40000 2.138
36.42000 -0.301
36.44000 0.813
36.46000 1.649
36.48000 4.176
36.50000 4.342
36.52000 -0.022
36.54000 1.876
36.56000 -0.460
36.58000 -0.948
36.60000 0.435
36.62000 -0.243
36.64000 3.728
36.66000 2.418
36.68000 -0.761
36.70000 -0.675
36.72000 2.967
36.74000 4.990
36.76000 2.209
36.78000 3.793
36.80000 8.130
36.82000 5.871
36.84000 8.036
36.86000 3.696
36.88000 1.515
36.90000 -0.028
36.92000 4.096
36.94000 5.589
36.96000 3.713
36.98000 3.953
37.00000 6.305
37.02000 4.866
37.04000 7.871
37.06000 3.942
37.08000 3.553
37.10000 0.374
37.12000 7.352
37.14000 9.356
37.16000 12.770
37.18000 10.073
37.20000 4.518
37.22000 6.740
37.24000 10.649
37.26000 12.311
37.28000 9.349
37.30000 5.473
37.32000 4.557
37.34000 0.195
37.36000 -0.384
37.38000 8.315
37.40000 12.867
37.42000 14.433
37.44000 10.435
37.46000 17.658
37.48000 15.192
37.50000 12.127
37.52000 8.925
37.54000 14.887
37.56000 16.024
37.58000 12.959
37.60000 13.985
37.62000 17.903
37.64000 20.518
37.66000 22.984
37.68000 21.548
37.70000 16.155
37.72000 16.113
37.74000 20.021
37.76000 17.462
37.78000 22.009
37.80000 21.907
37.82000 19.562
37.84000 23.406
37.86000 23.465
37.88000 23.583
37.90000 21.402
37.92000 25.845
37.94000 32.030
37.96000 29.865
37.98000 33.503
38.00000 30.994
38.02000 30.283
38.04000 32.900
38.06000 31.319
38.08000 35.166
38.10000 37.571
38.12000 36.204
38.14000 35.875
38.16000 38.956
38.18000 41.623
38.20000 39.460
38.22000 47.321
38.24000 49.860
38.26000 50.124
38.28000 49.955
38.30000 52.589
38.32000 54.598
38.34000 54.404
38.36000 59.415
38.38000 58.736
38.40000 60.731
38.42000 62.817
38.44000 61.353
38.46000 63.062
38.48000 67.441
38.50000 72.556
38.52000 77.777
38.54000 78.997
38.56000 81.913
38.58000 92.453
38.60000 94.323
38.62000 97.244
38.64000 106.861
38.66000 113.174
38.68000 119.148
38.70000 123.358
38.72000 123.371
38.74000 123.625
38.76000 139.392
38.78000 149.591
38.80000 161.863
38.82000 175.168
38.84000 193.572
38.86000 196.007
38.88000 205.746
38.90000 219.004
38.92000 230.018
38.94000 247.321
38.96000 257.609
38.98000 268.547
39.00000 281.114
39.02000 298.313
39.04000 313.317
39.06000 332.320
39.08000 348.557
39.10000 366.109
39.12000 378.717
39.14000 393.377
39.16000 406.400
39.18000 425.497
39.20000 444.900
39.22000 445.221
39.24000 466.007
39.26000 484.590
39.28000 488.596
39.30000 492.806
39.32000 495.782
39.34000 501.066
39.36000 497.880
39.38000 492.986
39.40000 487.186
39.42000 477.441
39.44000 468.886
39.46000 459.826
39.48000 439.164
39.50000 428.946
39.52000 413.780
39.54000 401.008
39.56000 377.563
39.58000 366.445
39.60000 355.635
39.62000 331.215
39.64000 313.724
39.66000 297.667
39.68000 278.826
39.70000 269.011
39.72000 258.490
39.74000 236.602
39.76000 221.086
39.78000 206.467
39.80000 192.280
39.82000 176.528
39.84000 168.185
39.86000 157.812
39.88000 150.980
39.90000 139.343
39.92000 127.587
39.94000 122.081
39.96000 113.546
39.98000 104.141
40.00000 102.484
40.02000 101.183
40.04000 93.966
40.06000 85.683
40.08000 83.822
40.10000 78.283
40.12000 68.151
40.14000 66.875
40.16000 66.047
40.18000 61.827
40.20000 54.071
40.22000 47.139
40.24000 46.701
40.26000 48.222
40.28000 49.744
40.30000 47.977
40.32000 42.141
40.34000 36.517
40.36000 38.281
40.38000 37.324
40.40000 33.999
40.42000 31.791
40.44000 26.856
40.46000 28.819
40.48000 25.220
40.50000 27.296
40.52000 27.404
40.54000 23.093
40.56000 17.258
40.58000 18.131
40.60000 19.385
40.62000 18.329
40.64000 17.157
40.66000 21.541
40.68000 19.107
40.70000 20.191
40.72000 19.013
40.74000 13.379
40.76000 15.181
40.78000 11.204
40.80000 10.585
40.82000 9.456
40.84000 11.808
40.86000 12.365
40.88000 9.594
40.90000 12.325
40.92000 12.048
40.94000 11.071
40.96000 6.863
40.98000 3.881
41.00000 8.178
41.02000 8.211
41.04000 7.155
41.06000 3.017
41.08000 4.363
41.10000 7.124
41.12000 2.802
41.14000 2.941
41.16000 6.443
41.18000 6.601
41.20000 5.101
41.22000 1.664
41.24000 7.711
41.26000 3.156
41.28000 3.878
41.30000 0.851
41.32000 3.918
41.34000 5.944
41.36000 3.088
41.38000 -0.139
41.40000 -0.588
41.42000 -0.641
41.44000 3.619
41.46000 -0.334
41.48000 0.114
41.50000 -0.675
41.52000 -0.102
41.54000 -3.430
41.56000 -2.432
41.58000 1.239
41.60000 0.161
41.62000 3.147
41.64000 3.043
41.66000 6.873
41.68000 3.682
41.70000 2.426
41.72000 0.311
41.74000 1.169
41.76000 0.207
41.78000 -1.495
41.80000 0.026
41.82000 0.092
41.84000 0.868
41.86000 1.992
41.88000 1.068
41.90000 0.507
41.92000 -0.923
41.94000 1.202
41.96000 -1.831
41.98000 2.201
42.00000 0.129
42.02000 -3.350
42.04000 -0.229
42.06000 0.061
42.08000 -1.402
42.10000 -2.687
42.12000 0.504
42.14000 2.759
42.16000 3.316
42.18000 1.763
42.20000 2.172
42.22000 4.139
42.24000 1.375
42.26000 1.402
42.28000 2.407
42.30000 0.891
42.32000 0.908
42.34000 2.113
42.36000 0.289
42.38000 -0.301
42.40000 0.814
42.42000 3.385
42.44000 3.106
42.46000 2.418
42.48000 2.660
42.50000 1.877
42.52000 4.116
42.54000 1.306
42.56000 0.807
42.58000 1.177
42.60000 -0.105
42.62000 0.782
42.64000 1.622
42.66000 2.061
42.68000 0.788
42.70000 -3.238
42.72000 -0.997
42.74000 -2.009
42.76000 -0.018
42.78000 0.534
42.80000 1.022
42.82000 4.002
42.84000 2.868
42.86000 3.480
42.88000 4.781
42.90000 3.470
42.92000 0.468
42.94000 1.885
42.96000 0.078
42.98000 0.140
43.00000 1.515
43.02000 0.067
43.04000 1.981
43.06000 0.229
43.08000 2.394
43.10000 6.448
43.12000 6.122
43.14000 1.879
43.16000 -3.177
43.18000 1.581
43.20000 3.466
43.22000 0.838
43.24000 2.921
43.26000 3.538
43.28000 3.180
43.30000 1.793
43.32000 1.791
43.34000 4.135
43.36000 6.674
43.38000 1.687
43.40000 1.469
43.42000 0.630
43.44000 0.231
43.46000 1.637
43.48000 -2.052
43.50000 -3.163
43.52000 0.514
43.54000 -0.164
43.56000 0.003
43.58000 1.868
43.60000 -0.592
43.62000 -0.501
43.64000 1.785
43.66000 0.553
43.68000 -0.568
43.70000 1.881
43.72000 1.888
43.74000 0.916
43.76000 1.117
43.78000 0.176
43.80000 0.379
43.82000 1.730
43.84000 2.588
43.86000 2.440
43.88000 -0.780
43.90000 -1.266
43.92000 0.411
43.94000 -2.143
43.96000 0.343
43.98000 2.682
44.00000 3.604
44.02000 3.556
44.04000 1.643
44.06000 0.693
44.08000 2.458
44.10000 0.507
44.12000 -3.124
44.14000 -0.441
44.16000 0.150
44.18000 0.573
44.20000 1.959
44.22000 3.199
44.24000 1.579
44.26000 1.840
44.28000 -0.836
44.30000 2.347
44.32000 4.381
44.34000 2.237
44.36000 1.122
44.38000 3.550
44.40000 5.788
44.42000 4.702
44.44000 2.197
44.46000 1.101
44.48000 0.359
44.50000 1.110
44.52000 5.061
44.54000 4.889
44.56000 2.699
44.58000 2.231
44.60000 5.187
44.62000 4.852
44.64000 5.609
44.66000 3.878
44.68000 6.313
44.70000 7.403
44.72000 9.652
44.74000 7.774
44.76000 7.296
44.78000 10.856
44.80000 12.493
44.82000 8.429
44.84000 9.992
44.86000 11.277
44.88000 11.163
44.90000 9.410
44.92000 8.752
44.94000 8.662
44.96000 8.448
44.98000 13.473
45.00000 19.186
45.02000 15.215
45.04000 13.934
45.06000 12.782
45.08000 13.617
45.10000 15.424
45.12000 15.956
45.14000 20.551
45.16000 23.971
45.18000 27.828
45.20000 23.092
45.22000 23.505
45.24000 25.618
45.26000 24.024
45.28000 24.099
45.30000 28.021
45.32000 32.246
45.34000 33.255
45.36000 30.751
45.38000 31.497
45.40000 32.549
45.42000 34.309
45.44000 34.524
45.46000 37.830
45.48000 34.828
45.50000 40.599
45.52000 43.773
45.54000 42.008
45.56000 48.182
45.58000 47.948
45.60000 49.685
45.62000 49.767
45.64000 50.387
45.66000 49.668
45.68000 50.882
45.70000 52.580
45.72000 54.745
45.74000 55.389
45.76000 61.236
45.78000 66.325
45.80000 68.664
45.82000 66.526
45.84000 70.016
45.86000 67.632
45.88000 65.184
45.90000 68.464
45.92000 71.075
45.94000 73.241
45.96000 68.280
45.98000 64.163
46.00000 67.530
46.02000 71.013
46.04000 71.175
46.06000 68.196
46.08000 67.467
46.10000 67.638
46.12000 67.343
46.14000 65.872
46.16000 63.073
46.18000 58.747
46.20000 59.382
46.22000 60.555
46.24000 61.613
46.26000 62.340
46.28000 63.841
46.30000 59.451
46.32000 56.519
46.34000 50.619
46.36000 49.380
46.38000 52.942
46.40000 49.699
46.42000 45.649
46.44000 41.139
46.46000 42.328
46.48000 39.699
46.50000 40.902
46.52000 39.258
46.54000 38.265
46.56000 37.058
46.58000 33.179
46.60000 29.684
46.62000 27.723
46.64000 28.080
46.66000 22.554
46.68000 22.013
46.70000 23.965
46.72000 20.645
46.74000 21.352
46.76000 18.283
46.78000 14.851
46.80000 14.753
46.82000 12.858
46.84000 11.828
46.86000 12.259
46.88000 10.259
46.90000 9.380
46.92000 9.048
46.94000 11.132
46.96000 8.387
46.98000 8.952
47.00000 8.561
47.02000 5.323
47.04000 5.957
47.06000 5.334
47.08000 2.480
47.10000 7.350
47.12000 6.813
47.14000 4.717
47.16000 3.709
47.18000 3.107
47.20000 -1.104
47.22000 1.000
47.24000 5.189
47.26000 5.509
47.28000 4.141
47.30000 -0.958
47.32000 -2.783
47.34000 -2.252
47.36000 1.366
47.38000 1.205
47.40000 0.612
47.42000 3.918
47.44000 2.836
47.46000 -1.079
47.48000 -0.495
47.50000 1.648
47.52000 1.518
47.54000 0.745
47.56000 3.129
47.58000 0.151
47.60000 0.446
47.62000 2.991
47.64000 0.897
47.66000 -2.454
47.68000 0.826
47.70000 3.082
47.72000 0.818
47.74000 1.510
47.76000 2.072
47.78000 1.394
47.80000 0.133
47.82000 3.629
47.84000 3.381
47.86000 -1.224
47.88000 0.971
47.90000 2.635
47.92000 1.898
47.94000 0.735
47.96000 0.944
47.98000 3.393
48.00000 2.796
48.02000 4.485
48.04000 5.831
48.06000 1.280
48.08000 -0.627
48.10000 3.985
48.12000 3.236
48.14000 4.764
48.16000 4.744
48.18000 4.207
48.20000 2.030
48.22000 2.625
48.24000 0.010
48.26000 3.122
48.28000 3.424
48.30000 0.753
48.32000 4.181
48.34000 0.848
48.36000 0.760
48.38000 0.309
48.40000 1.505
48.42000 1.211
48.44000 3.563
48.46000 3.259
48.48000 3.113
48.50000 1.403
48.52000 -2.574
48.54000 5.638
48.56000 7.445
48.58000 4.585
48.60000 3.537
48.62000 3.810
48.64000 2.397
48.66000 2.008
48.68000 6.795
48.70000 7.350
48.72000 2.923
48.74000 1.520
48.76000 -2.549
48.78000 2.206
48.80000 7.393
48.82000 9.292
48.84000 7.902
48.86000 4.737
48.88000 2.051
48.90000 0.335
48.92000 8.232
48.94000 4.865
48.96000 3.089
48.98000 6.366
49.00000 7.402
49.02000 7.033
49.04000 5.696
49.06000 1.859
49.08000 0.135
49.10000 1.273
49.12000 1.531
49.14000 2.873
49.16000 2.420
49.18000 6.264
49.20000 5.342
49.22000 3.889
49.24000 1.919
49.26000 2.587
49.28000 3.821
49.30000 4.776
49.32000 4.368
49.34000 5.985
49.36000 4.119
49.38000 6.073
49.40000 4.652
49.42000 3.752
49.44000 2.593
49.46000 3.642
49.48000 -0.153
49.50000 1.909
49.52000 4.163
49.54000 1.691
49.56000 3.868
49.58000 2.706
49.60000 4.931
49.62000 2.652
49.64000 -2.516
49.66000 0.154
49.68000 5.754
49.70000 8.084
49.72000 5.705
49.74000 5.599
49.76000 4.129
49.78000 4.027
49.80000 7.499
49.82000 6.108
49.84000 2.669
49.86000 -0.467
49.88000 -0.967
49.90000 3.360
49.92000 6.805
49.94000 3.883
49.96000 5.123
49.98000 2.293
50.00000 2.017
50.02000 4.331
50.04000 4.163
50.06000 4.673
50.08000 6.543
50.10000 7.110
50.12000 3.550
50.14000 3.005
50.16000 -0.519
50.18000 -0.324
50.20000 5.073
50.22000 7.197
50.24000 7.213
50.26000 4.672
50.28000 0.898
50.30000 6.526
50.32000 9.751
50.34000 4.184
50.36000 4.535
50.38000 4.968
50.40000 4.094
50.42000 2.172
50.44000 -2.452
50.46000 -0.246
50.48000 2.827
50.50000 4.284
50.52000 2.958
50.54000 6.138
50.56000 5.418
50.58000 4.661
50.60000 3.072
50.62000 0.780
50.64000 0.256
50.66000 2.107
50.68000 2.899
50.70000 1.492
50.72000 1.940
50.74000 5.650
50.76000 5.467
50.78000 5.633
50.80000 5.258
50.82000 4.795
50.84000 4.513
50.86000 4.836
50.88000 3.777
50.90000 5.987
50.92000 5.333
50.94000 2.397
50.96000 3.478
50.98000 6.791
51.00000 5.867
51.02000 6.929
51.04000 5.283
51.06000 3.466
51.08000 1.994
51.10000 6.172
51.12000 6.191
51.14000 2.172
51.16000 4.362
51.18000 2.889
51.20000 5.857
51.22000 3.835
51.24000 4.965
51.26000 7.286
51.28000 5.949
51.30000 3.988
51.32000 7.197
51.34000 5.805
51.36000 2.060
51.38000 3.361
51.40000 4.798
51.42000 6.027
51.44000 4.946
51.46000 3.587
51.48000 0.907
51.50000 -0.600
51.52000 6.143
51.54000 5.720
51.56000 4.586
51.58000 4.544
51.60000 5.368
51.62000 3.941
51.64000 2.348
51.66000 2.229
51.68000 3.765
51.70000 1.095
51.72000 1.273
51.74000 5.225
51.76000 5.016
51.78000 4.615
51.80000 7.639
51.82000 7.049
51.84000 4.706
51.86000 3.340
51.88000 1.492
51.90000 1.058
51.92000 2.069
51.94000 7.440
51.96000 5.902
51.98000 0.922
52.00000 5.319
52.02000 3.122
52.04000 3.953
52.06000 3.567
52.08000 1.982
52.10000 6.482
52.12000 8.860
52.14000 7.266
52.16000 5.025
52.18000 4.181
52.20000 1.504
52.22000 1.290
52.24000 2.521
52.26000 -2.399
52.28000 2.207
52.30000 6.489
52.32000 6.580
52.34000 5.122
52.36000 6.156
52.38000 1.312
52.40000 4.088
52.42000 3.290
52.44000 3.530
52.46000 4.943
52.48000 3.755
52.50000 1.715
52.52000 3.898
52.54000 2.426
52.56000 5.226
52.58000 3.845
52.60000 1.232
52.62000 1.416
52.64000 5.251
52.66000 4.217
52.68000 3.555
52.70000 4.964
52.72000 3.947
52.74000 4.962
52.76000 4.858
52.78000 2.424
52.80000 2.987
52.82000 1.618
52.84000 3.115
52.86000 1.738
52.88000 3.735
52.90000 4.095
52.92000 3.164
52.94000 3.780
52.96000 4.292
52.98000 0.251
53.00000 1.312
53.02000 5.318
53.04000 3.544
53.06000 1.550
53.08000 3.497
53.10000 3.258
53.12000 1.837
53.14000 -1.724
53.16000 -0.814
53.18000 2.764
53.20000 1.545
53.22000 5.322
53.24000 3.041
53.26000 0.737
53.28000 -1.854
53.30000 -1.012
53.32000 -0.068
53.34000 0.785
53.36000 1.587
53.38000 0.559
53.40000 0.329
53.42000 0.848
53.44000 0.095
53.46000 2.353
53.48000 6.756
53.50000 3.777
53.52000 2.432
53.54000 2.168
53.56000 -0.386
53.58000 -0.652
53.60000 0.275
53.62000 4.539
53.64000 2.922
53.66000 4.294
53.68000 2.232
53.70000 3.986
53.72000 3.173
53.74000 2.982
53.76000 1.951
53.78000 0.260
53.80000 0.186
53.82000 1.359
53.84000 1.007
53.86000 2.335
53.88000 3.866
53.90000 2.208
53.92000 1.635
53.94000 3.658
53.96000 3.567
53.98000 1.607
54.00000 2.605
54.02000 1.934
54.04000 1.140
54.06000 -2.420
54.08000 -1.848
54.10000 0.687
54.12000 5.129
54.14000 3.404
54.16000 0.632
54.18000 -1.170
54.20000 -2.137
54.22000 1.574
54.24000 6.416
54.26000 3.307
54.28000 1.599
54.30000 0.431
54.32000 3.791
54.34000 2.475
54.36000 -0.100
54.38000 -0.191
54.40000 0.856
54.42000 2.752
54.44000 3.877
54.46000 4.992
54.48000 2.859
54.50000 3.035
54.52000 1.654
54.54000 3.379
54.56000 4.781
54.58000 5.136
54.60000 5.515
54.62000 3.449
54.64000 -1.212
54.66000 -1.595
54.68000 1.291
54.70000 1.572
54.72000 0.469
54.74000 0.793
54.76000 -0.504
54.78000 4.680
54.80000 6.793
54.82000 5.824
54.84000 4.911
54.86000 0.503
54.88000 0.233
54.90000 1.751
54.92000 3.791
54.94000 1.540
54.96000 -0.103
54.98000 0.523
55.00000 -2.176
55.02000 3.256
55.04000 6.259
55.06000 4.988
55.08000 2.139
55.10000 -0.950
55.12000 1.171
55.14000 -0.510
55.16000 1.177
55.18000 2.442
55.20000 1.228
55.22000 2.483
55.24000 2.914
55.26000 5.456
55.28000 7.295
55.30000 5.679
55.32000 3.470
55.34000 1.039
55.36000 -0.707
55.38000 -0.909
55.40000 -2.366
55.42000 1.909
55.44000 5.002
55.46000 8.382
55.48000 9.148
55.50000 5.200
55.52000 5.171
55.54000 5.719
55.56000 7.025
55.58000 4.128
55.60000 0.539
55.62000 2.917
55.64000 2.283
55.66000 4.209
55.68000 -0.243
55.70000 0.392
55.72000 0.528
55.74000 -1.313
55.76000 1.956
55.78000 3.131
55.80000 5.233
55.82000 7.237
55.84000 5.815
55.86000 5.055
55.88000 5.389
55.90000 3.609
55.92000 5.495
55.94000 3.451
55.96000 4.367
55.98000 7.036
56.00000 1.489
56.02000 3.359
56.04000 5.315
56.06000 3.858
56.08000 2.974
56.10000 2.254
56.12000 1.229
56.14000 -2.369
56.16000 -1.453
56.18000 -1.279
56.20000 -0.760
56.22000 2.566
56.24000 5.736
56.26000 7.365
56.28000 5.942
56.30000 2.703
56.32000 1.417
56.34000 1.155
56.36000 -0.614
56.38000 -0.261
56.40000 0.563
56.42000 1.137
56.44000 2.376
56.46000 2.666
56.48000 2.708
56.50000 0.939
56.52000 -1.434
56.54000 1.104
56.56000 2.399
56.58000 3.367
56.60000 3.422
56.62000 3.973
56.64000 2.741
56.66000 1.545
56.68000 -0.619
56.70000 1.290
56.72000 0.248
56.74000 1.315
56.76000 1.179
56.78000 2.341
56.80000 1.452
56.82000 -0.060
56.84000 2.242
56.86000 1.557
56.88000 -2.350
56.90000 0.121
56.92000 0.737
56.94000 1.522
56.96000 7.575
56.98000 7.791
57.00000 3.037
57.02000 3.191
57.04000 2.892
57.06000 2.829
57.08000 4.432
57.10000 4.081
57.12000 1.500
57.14000 3.033
57.16000 5.984
57.18000 3.434
57.20000 3.507
57.22000 2.986
57.24000 -0.846
57.26000 0.351
57.28000 3.190
57.30000 1.918
57.32000 -0.572
57.34000 -2.251
57.36000 0.398
57.38000 -0.263
57.40000 1.697
57.42000 3.455
57.44000 2.212
57.46000 2.192
57.48000 0.247
57.50000 0.726
57.52000 3.008
57.54000 3.580
57.56000 -0.612
57.58000 1.686
57.60000 0.519
57.62000 -1.334
57.64000 -0.735
57.66000 -0.533
57.68000 2.110
57.70000 -0.640
57.72000 0.832
57.74000 2.526
57.76000 2.203
57.78000 2.980
57.80000 3.146
57.82000 3.955
57.84000 3.671
57.86000 2.698
57.88000 -2.205
57.90000 -1.157
57.92000 2.110
57.94000 3.088
57.96000 2.069
57.98000 -0.155
58.00000 1.357
58.02000 -0.591
58.04000 4.355
58.06000 1.796
58.08000 3.126
58.10000 4.493
58.12000 2.362
58.14000 4.424
58.16000 4.136
58.18000 4.410
58.20000 3.436
58.22000 3.116
58.24000 1.466
58.26000 -2.249
58.28000 -2.288
58.30000 1.530
58.32000 1.733
58.34000 2.295
58.36000 4.119
58.38000 4.894
58.40000 0.924
58.42000 2.855
58.44000 2.898
58.46000 3.589
58.48000 4.873
58.50000 3.869
58.52000 4.511
58.54000 5.476
58.56000 3.105
58.58000 -0.023
58.60000 4.634
58.62000 4.763
58.64000 5.857
58.66000 2.603
58.68000 -0.898
58.70000 3.212
58.72000 5.069
58.74000 5.616
58.76000 2.303
58.78000 4.159
58.80000 2.803
58.82000 5.339
58.84000 1.873
58.86000 1.232
58.88000 -0.205
58.90000 -1.533
58.92000 2.630
58.94000 3.448
58.96000 1.531
58.98000 3.220
59.00000 1.673
59.02000 0.317
59.04000 2.935
59.06000 2.381
59.08000 0.944
59.10000 -2.106
59.12000 0.940
59.14000 -0.057
59.16000 -0.423
59.18000 2.229
59.20000 1.524
59.22000 1.970
59.24000 -0.484
59.26000 1.993
59.28000 4.245
59.30000 3.000
59.32000 0.285
59.34000 -2.271
59.36000 1.143
59.38000 2.297
59.40000 3.747
59.42000 3.788
59.44000 2.648
59.46000 -0.355
59.48000 -0.526
59.50000 1.764
59.52000 1.358
59.54000 2.702
59.56000 1.026
59.58000 1.441
59.60000 0.868
59.62000 3.723
59.64000 3.016
59.66000 3.831
59.68000 4.681
59.70000 1.698
59.72000 -1.696
59.74000 -2.267
59.76000 -1.504
59.78000 1.623
59.80000 2.392
59.82000 1.322
59.84000 4.667
59.86000 3.321
59.88000 1.076
59.90000 2.627
59.92000 -0.885
59.94000 0.080
59.96000 1.613
59.98000 1.767
60.00000 1.621
60.02000 -0.452
60.04000 -0.189
60.06000 0.184
60.08000 1.456
60.10000 0.846
60.12000 1.673
60.14000 1.630
60.16000 3.674
60.18000 3.697
60.20000 5.367
60.22000 4.238
60.24000 1.617
60.26000 -0.804
60.28000 -1.576
60.30000 2.063
60.32000 0.718
60.34000 1.913
60.36000 -0.901
60.38000 -1.981
60.40000 -0.316
60.42000 -1.258
60.44000 2.576
60.46000 2.661
60.48000 2.409
60.50000 2.520
60.52000 -0.136
60.54000 0.846
60.56000 -0.345
60.58000 -0.435
60.60000 1.829
60.62000 4.083
60.64000 1.031
60.66000 -0.851
60.68000 2.318
60.70000 3.617
60.72000 -0.331
60.74000 -0.215
60.76000 1.045
60.78000 3.754
60.80000 3.826
60.82000 0.312
60.84000 -0.312
60.86000 -0.165
60.88000 -0.248
60.90000 1.123
60.92000 3.249
60.94000 3.698
60.96000 6.120
60.98000 5.278
61.00000 0.950
61.02000 3.942
61.04000 4.338
61.06000 1.752
61.08000 -0.405
61.10000 2.268
61.12000 -0.253
61.14000 -1.685
61.16000 0.579
61.18000 3.358
61.20000 2.852
61.22000 2.777
61.24000 0.902
61.26000 -2.193
61.28000 -1.613
61.30000 3.999
61.32000 4.172
61.34000 2.678
61.36000 4.298
61.38000 4.274
61.40000 2.722
61.42000 4.012
61.44000 2.735
61.46000 3.034
61.48000 3.952
61.50000 0.011
61.52000 -0.818
61.54000 1.498
61.56000 2.674
61.58000 3.469
61.60000 3.571
61.62000 7.255
61.64000 6.300
61.66000 2.296
61.68000 0.015
61.70000 3.544
61.72000 2.974
61.74000 3.434
61.76000 2.226
61.78000 -2.133
61.80000 0.247
61.82000 4.813
61.84000 7.775
61.86000 4.203
61.88000 0.784
61.90000 1.852
61.92000 2.425
61.94000 3.502
61.96000 4.328
61.98000 3.327
62.00000 4.350
62.02000 5.639
62.04000 3.526
62.06000 1.562
62.08000 2.212
62.10000 3.848
62.12000 3.791
62.14000 2.945
62.16000 1.314
62.18000 4.233
62.20000 4.812
62.22000 4.058
62.24000 -0.172
62.26000 2.113
62.28000 3.208
62.30000 3.314
62.32000 4.334
62.34000 4.851
62.36000 3.989
62.38000 2.756
62.40000 1.676
62.42000 3.098
62.44000 4.299
62.46000 2.978
62.48000 0.485
62.50000 -0.558
62.52000 0.935
62.54000 1.587
62.56000 1.141
62.58000 6.488
62.60000 4.104
62.62000 1.632
62.64000 0.693
62.66000 -0.340
62.68000 0.769
62.70000 2.025
62.72000 0.821
62.74000 1.592
62.76000 0.938
62.78000 2.953
62.80000 1.583
62.82000 -2.181
62.84000 3.897
62.86000 6.484
62.88000 4.157
62.90000 1.641
62.92000 2.523
62.94000 2.584
62.96000 0.883
62.98000 3.688
63.00000 1.443
63.02000 1.551
63.04000 0.678
63.06000 0.621
63.08000 1.373
63.10000 0.358
63.12000 1.632
63.14000 1.319
63.16000 -1.538
63.18000 -2.145
63.20000 -0.397
63.22000 -1.259
63.24000 0.538
63.26000 0.885
63.28000 0.279
63.30000 3.486
63.32000 4.157
63.34000 4.288
63.36000 -0.378
63.38000 -1.801
63.40000 -0.530
63.42000 0.346
63.44000 -1.453
63.46000 -0.369
63.48000 0.272
63.50000 -1.026
63.52000 1.452
63.54000 -0.161
63.56000 -0.751
63.58000 -0.516
63.60000 3.199
63.62000 2.637
63.64000 3.307
63.66000 1.314
63.68000 -0.545
63.70000 1.420
63.72000 2.792
63.74000 -0.595
63.76000 1.313
63.78000 1.039
63.80000 2.096
63.82000 -0.311
63.84000 1.099
63.86000 0.176
63.88000 1.090
63.90000 -1.941
63.92000 -2.190
63.94000 -0.250
63.96000 1.322
63.98000 -1.091
64.00000 1.354
64.02000 3.333
64.04000 3.017
64.06000 0.691
64.08000 1.620
64.10000 0.182
64.12000 1.794
64.14000 3.712
64.16000 1.840
64.18000 1.009
64.20000 2.484
64.22000 2.081
64.24000 1.169
64.26000 -2.191
64.28000 -0.870
64.30000 2.256
64.32000 3.133
64.34000 2.447
64.36000 0.838
64.38000 -0.721
64.40000 -0.448
64.42000 0.855
64.44000 0.875
64.46000 -1.156
64.48000 -2.125
64.50000 0.678
64.52000 -0.535
64.54000 0.974
64.56000 4.272
64.58000 4.097
64.60000 -2.204
64.62000 -1.035
64.64000 1.219
64.66000 -1.026
64.68000 -0.361
64.70000 3.173
64.72000 -0.442
64.74000 -1.217
64.76000 1.298
64.78000 0.659
64.80000 0.761
64.82000 0.331
64.84000 0.154
64.86000 2.937
64.88000 -0.162
64.90000 -0.650
64.92000 1.085
64.94000 0.517
64.96000 -1.103
64.98000 -1.766
65.00000 -2.211
65.02000 -0.793
65.04000 -1.028
65.06000 0.825
65.08000 0.169
65.10000 -1.860
65.12000 -0.136
65.14000 1.115
65.16000 0.979
65.18000 0.414
65.20000 -0.581
65.22000 -0.196
65.24000 1.751
65.26000 0.951
65.28000 1.001
65.30000 2.379
65.32000 -0.237
65.34000 -1.751
65.36000 -1.335
65.38000 -0.697
65.40000 -0.619
65.42000 1.619
65.44000 4.390
65.46000 0.270
65.48000 0.337
65.50000 2.008
65.52000 2.418
65.54000 -0.235
65.56000 -0.121
65.58000 0.348
65.60000 1.694
65.62000 0.191
65.64000 -2.205
65.66000 -0.437
65.68000 0.520
65.70000 -0.612
65.72000 1.055
65.74000 -0.439
65.76000 -0.277
65.78000 -0.075
65.80000 0.641
65.82000 0.859
65.84000 -1.289
65.86000 -0.576
65.88000 0.381
65.90000 0.325
65.92000 -1.135
65.94000 -2.112
65.96000 0.127
65.98000 0.979
66.00000 -1.806
66.02000 0.249
66.04000 -0.488
66.06000 0.291
66.08000 2.470
66.10000 2.768
66.12000 5.233
66.14000 2.997
66.16000 5.654
66.18000 2.061
66.20000 2.694
66.22000 5.235
66.24000 3.000
66.26000 3.822
66.28000 4.028
66.30000 3.343
66.32000 4.787
66.34000 2.948
66.36000 2.203
66.38000 4.061
66.40000 2.987
66.42000 2.249
66.44000 5.038
66.46000 6.591
66.48000 7.397
66.50000 6.022
66.52000 7.294
66.54000 6.023
66.56000 5.631
66.58000 8.468
66.60000 6.144
66.62000 7.128
66.64000 10.328
66.66000 11.144
66.68000 10.022
66.70000 9.318
66.72000 7.925
66.74000 9.112
66.76000 8.746
66.78000 6.977
66.80000 9.235
66.82000 8.584
66.84000 7.991
66.86000 7.878
66.88000 8.982
66.90000 8.929
66.92000 6.154
66.94000 5.142
66.96000 6.614
66.98000 6.942
67.00000 8.330
67.02000 5.441
67.04000 10.057
67.06000 8.595
67.08000 6.303
67.10000 7.591
67.12000 9.878
67.14000 12.244
67.16000 6.989
67.18000 6.512
67.20000 7.344
67.22000 6.841
67.24000 9.030
67.26000 7.421
67.28000 7.417
67.30000 8.026
67.32000 5.985
67.34000 5.212
67.36000 3.535
67.38000 4.950
67.40000 6.942
67.42000 6.516
67.44000 6.020
67.46000 5.544
67.48000 3.184
67.50000 1.836
67.52000 3.950
67.54000 2.615
67.56000 2.417
67.58000 2.994
67.60000 1.913
67.62000 4.475
67.64000 4.820
67.66000 4.613
67.68000 1.630
67.70000 1.821
67.72000 1.705
67.74000 2.104
67.76000 -1.196
67.78000 0.214
67.80000 0.992
67.82000 3.641
67.84000 3.291
67.86000 0.587
67.88000 -0.851
67.90000 2.128
67.92000 2.535
67.94000 -2.105
67.96000 -1.976
67.98000 0.001
68.00000 2.287
68.02000 -0.017
68.04000 1.101
68.06000 0.764
68.08000 0.653
68.10000 2.483
68.12000 2.075
68.14000 1.716
68.16000 0.669
68.18000 -0.689
68.20000 -1.204
68.22000 -1.728
68.24000 -1.962
68.26000 -0.871
68.28000 0.702
68.30000 -0.483
68.32000 1.986
68.34000 -0.846
68.36000 -1.269
68.38000 0.575
68.40000 0.900
68.42000 0.430
68.44000 1.907
68.46000 1.722
68.48000 3.519
68.50000 4.998
68.52000 4.022
68.54000 2.075
68.56000 2.448
68.58000 1.810
68.60000 0.583
68.62000 -1.532
68.64000 -0.841
68.66000 0.740
68.68000 0.734
68.70000 1.207
68.72000 1.345
68.74000 3.146
68.76000 3.067
68.78000 1.821
68.80000 0.964
68.82000 1.463
68.84000 2.564
68.86000 2.828
68.88000 1.994
68.90000 -0.362
68.92000 -1.253
68.94000 1.807
68.96000 -0.039
68.98000 -1.013
69.00000 0.642
69.02000 1.388
69.04000 1.994
69.06000 1.570
69.08000 1.788
69.10000 1.807
69.12000 1.211
69.14000 0.829
69.16000 -0.696
69.18000 -2.016
69.20000 0.153
69.22000 1.610
69.24000 3.427
69.26000 5.627
69.28000 4.585
69.30000 1.616
69.32000 -0.018
69.34000 -0.630
69.36000 0.622
69.38000 1.542
69.40000 1.774
69.42000 0.947
69.44000 0.387
69.46000 1.150
69.48000 1.329
69.50000 3.061
69.52000 0.615
69.54000 0.411
69.56000 2.211
69.58000 3.906
69.60000 1.060
69.62000 1.557
69.64000 2.049
69.66000 1.884
69.68000 1.458
69.70000 0.161
69.72000 0.977
69.74000 4.420
69.76000 3.145
69.78000 1.868
69.80000 1.577
69.82000 1.722
69.84000 0.655
69.86000 0.064
69.88000 1.846
69.90000 2.052
69.92000 2.041
69.94000 2.584
69.96000 1.695
69.98000 0.582
70.00000 2.829
70.02000 0.412
70.04000 -1.637
70.06000 -1.983
70.08000 0.917
70.10000 0.361
70.12000 2.886
70.14000 3.002
70.16000 2.677
70.18000 0.760
70.20000 1.355
70.22000 1.982
70.24000 0.894
70.26000 2.256
70.28000 2.156
70.30000 3.115
70.32000 3.497
70.34000 2.479
70.36000 2.094
70.38000 0.999
70.40000 0.484
70.42000 1.927
70.44000 2.269
70.46000 1.861
70.48000 1.200
70.50000 -0.418
70.52000 0.204
70.54000 1.678
70.56000 0.826
70.58000 -0.984
70.60000 -0.035
70.62000 1.088
70.64000 1.065
70.66000 -0.169
70.68000 -0.664
70.70000 -1.960
70.72000 2.131
70.74000 0.649
70.76000 0.569
70.78000 3.268
70.80000 2.683
70.82000 3.229
70.84000 3.255
70.86000 -0.558
70.88000 -0.403
70.90000 -0.301
70.92000 2.123
70.94000 4.679
70.96000 2.878
70.98000 2.342
71.00000 4.755
71.02000 5.945
71.04000 4.548
71.06000 3.082
71.08000 1.481
71.10000 1.808
71.12000 2.924
71.14000 0.740
71.16000 3.666
71.18000 3.484
71.20000 2.462
71.22000 0.934
71.24000 -1.838
71.26000 0.198
71.28000 2.163
71.30000 3.693
71.32000 2.582
71.34000 2.218
71.36000 -0.665
71.38000 -0.618
71.40000 0.815
71.42000 2.807
71.44000 2.072
71.46000 0.140
71.48000 1.188
71.50000 0.152
71.52000 0.049
71.54000 1.038
71.56000 1.025
71.58000 -1.960
71.60000 -1.764
71.62000 0.105
71.64000 -0.117
71.66000 2.916
71.68000 2.502
71.70000 3.347
71.72000 0.561
71.74000 -1.091
71.76000 -0.469
71.78000 0.734
71.80000 2.547
71.82000 2.029
71.84000 1.006
71.86000 -0.939
71.88000 0.655
71.90000 1.488
71.92000 2.156
71.94000 0.846
71.96000 4.930
71.98000 2.071
72.00000 1.187
72.02000 -0.559
72.04000 -1.756
72.06000 -1.947
72.08000 0.125
72.10000 -0.856
72.12000 -0.380
72.14000 -0.789
72.16000 0.346
72.18000 -1.199
72.20000 -1.839
72.22000 -1.166
72.24000 0.449
72.26000 -0.041
72.28000 -1.046
72.30000 -1.927
72.32000 -0.439
72.34000 0.637
72.36000 0.842
72.38000 -0.486
72.40000 -1.925
72.42000 -0.964
72.44000 0.412
72.46000 -1.336
72.48000 -1.799
72.50000 -1.461
72.52000 -0.308
72.54000 1.088
72.56000 -1.633
72.58000 -0.230
72.60000 -0.985
72.62000 0.641
72.64000 -1.813
72.66000 0.383
72.68000 1.049
72.70000 3.434
72.72000 -0.376
72.74000 -0.877
72.76000 -0.301
72.78000 0.403
72.80000 1.032
72.82000 0.153
72.84000 -0.254
72.86000 -0.810
72.88000 2.115
72.90000 3.025
72.92000 0.767
72.94000 -1.564
72.96000 -0.632
72.98000 0.960
73.00000 1.017
73.02000 -1.112
73.04000 0.013
73.06000 -0.503
73.08000 -0.321
73.10000 0.768
73.12000 1.257
73.14000 2.071
73.16000 3.024
73.18000 2.357
73.20000 0.466
73.22000 -1.902
73.24000 0.276
73.26000 2.666
73.28000 2.137
73.30000 -0.712
73.32000 -0.409
73.34000 0.289
73.36000 3.603
73.38000 0.043
73.40000 0.308
73.42000 4.807
73.44000 3.686
73.46000 3.801
73.48000 0.853
73.50000 1.237
73.52000 1.608
73.54000 -1.873
73.56000 -1.545
73.58000 1.518
73.60000 4.673
73.62000 2.462
73.64000 1.311
73.66000 1.314
73.68000 5.293
73.70000 1.039
73.72000 0.113
73.74000 2.957
73.76000 3.887
73.78000 5.357
73.80000 0.853
73.82000 -1.770
73.84000 -1.869
73.86000 1.788
73.88000 2.923
73.90000 0.149
73.92000 2.625
73.94000 3.388
73.96000 3.040
73.98000 6.099
74.00000 6.474
74.02000 3.467
74.04000 3.476
74.06000 4.568
74.08000 5.324
74.10000 5.682
74.12000 2.107
74.14000 3.708
74.16000 1.336
74.18000 0.885
74.20000 1.904
74.22000 1.454
74.24000 3.999
74.26000 5.422
74.28000 3.589
74.30000 1.121
74.32000 0.966
74.34000 -0.214
74.36000 -0.406
74.38000 1.506
74.40000 3.305
74.42000 3.547
74.44000 3.938
74.46000 1.810
74.48000 0.786
74.50000 2.205
74.52000 5.259
74.54000 2.002
74.56000 -0.367
74.58000 -1.557
74.60000 1.532
74.62000 3.653
74.64000 5.582
74.66000 4.044
74.68000 2.406
74.70000 0.543
74.72000 1.133
74.74000 1.139
74.76000 -0.782
74.78000 -1.866
74.80000 1.132
74.82000 2.196
74.84000 3.796
74.86000 4.711
74.88000 3.558
74.90000 3.309
74.92000 2.316
74.94000 2.113
74.96000 2.401
74.98000 4.788
75.00000 4.726
75.02000 5.431
75.04000 2.232
75.06000 -1.850
75.08000 1.628
75.10000 2.979
75.12000 0.332
75.14000 2.617
75.16000 4.171
75.18000 2.693
75.20000 1.722
75.22000 2.807
75.24000 4.826
75.26000 1.585
75.28000 -0.533
75.30000 3.210
75.32000 2.039
75.34000 1.957
75.36000 3.465
75.38000 2.608
75.40000 4.680
75.42000 3.201
75.44000 1.324
75.46000 1.705
75.48000 1.792
75.50000 3.341
75.52000 0.996
75.54000 1.457
75.56000 1.797
75.58000 2.659
75.60000 2.803
75.62000 1.881
75.64000 0.645
75.66000 2.681
75.68000 3.579
75.70000 1.624
75.72000 2.758
75.74000 2.150
75.76000 1.365
75.78000 3.066
75.80000 4.863
75.82000 2.764
75.84000 0.660
75.86000 0.591
75.88000 0.956
75.90000 1.678
75.92000 0.444
75.94000 1.302
75.96000 0.899
75.98000 2.356
76.00000 3.030
76.02000 3.338
76.04000 3.529
76.06000 2.368
76.08000 2.766
76.10000 3.150
76.12000 0.420
76.14000 1.909
76.16000 1.316
76.18000 4.768
76.20000 6.134
76.22000 4.140
76.24000 4.592
76.26000 4.307
76.28000 2.481
76.30000 3.210
76.32000 1.358
76.34000 0.641
76.36000 5.912
76.38000 2.485
76.40000 0.599
76.42000 1.236
76.44000 2.220
76.46000 1.840
76.48000 3.325
76.50000 3.217
76.52000 1.493
76.54000 1.312
76.56000 2.483
76.58000 3.597
76.60000 1.640
76.62000 2.703
76.64000 2.039
76.66000 3.823
76.68000 1.812
76.70000 2.789
76.72000 3.147
76.74000 3.314
76.76000 2.300
76.78000 4.025
76.80000 3.912
76.82000 5.112
76.84000 4.318
76.86000 4.919
76.88000 5.428
76.90000 6.998
76.92000 6.351
76.94000 4.472
76.96000 7.011
76.98000 5.483
77.00000 4.248
77.02000 4.058
77.04000 4.848
77.06000 3.720
77.08000 1.683
77.10000 1.185
77.12000 -1.860
77.14000 0.866
77.16000 4.104
77.18000 4.468
77.20000 5.598
77.22000 5.904
77.24000 4.748
77.26000 5.224
77.28000 3.941
77.30000 3.460
77.32000 5.172
77.34000 5.027
77.36000 5.952
77.38000 3.606
77.40000 1.230
77.42000 1.498
77.44000 2.459
77.46000 3.680
77.48000 1.043
77.50000 2.083
77.52000 0.629
77.54000 1.200
77.56000 -1.561
77.58000 1.628
77.60000 2.965
77.62000 6.355
77.64000 5.679
77.66000 6.657
77.68000 4.250
77.70000 4.191
77.72000 1.903
77.74000 0.775
77.76000 1.552
77.78000 1.168
77.80000 2.122
77.82000 1.196
77.84000 0.020
77.86000 5.096
77.88000 5.153
77.90000 4.971
77.92000 1.932
77.94000 2.179
77.96000 3.255
77.98000 0.975
78.00000 -0.172
78.02000 1.185
78.04000 0.776
78.06000 1.459
78.08000 -0.351
78.10000 -1.205
78.12000 2.757
78.14000 1.464
78.16000 -1.002
78.18000 -1.760
78.20000 -0.797
78.22000 -0.120
78.24000 0.557
78.26000 4.581
78.28000 6.130
78.30000 2.314
78.32000 0.181
78.34000 -0.548
78.36000 2.782
78.38000 6.285
78.40000 4.341
78.42000 2.996
78.44000 3.037
78.46000 0.507
78.48000 1.277
78.50000 2.039
78.52000 2.906
78.54000 4.946
78.56000 4.803
78.58000 1.405
78.60000 0.215
78.62000 0.534
78.64000 1.800
78.66000 3.195
78.68000 4.759
78.70000 2.242
78.72000 0.619
78.74000 3.646
78.76000 0.801
78.78000 -2.000
78.80000 -0.912
78.82000 1.435
78.84000 -0.236
78.86000 2.749
78.88000 3.537
78.90000 1.090
78.92000 0.231
78.94000 4.241
78.96000 1.711
78.98000 1.786
79.00000 -0.960
79.02000 0.551
79.04000 0.969
79.06000 -2.041
79.08000 -0.085
79.10000 -0.075
79.12000 -0.853
79.14000 1.459
79.16000 0.225
79.18000 0.786
79.20000 2.635
79.22000 4.606
79.24000 2.301
79.26000 0.128
79.28000 1.344
79.30000 -0.244
79.32000 4.217
79.34000 5.114
79.36000 4.042
79.38000 5.042
79.40000 3.182
79.42000 2.211
79.44000 1.685
79.46000 3.354
79.48000 2.733
79.50000 3.488
79.52000 1.406
79.54000 0.783
79.56000 0.915
79.58000 1.905
79.60000 2.234
79.62000 3.282
79.64000 5.601
79.66000 7.326
79.68000 5.015
79.70000 4.581
79.72000 5.601
79.74000 7.545
79.76000 3.077
79.78000 7.959
79.80000 10.459
79.82000 8.705
79.84000 5.409
79.86000 6.540
79.88000 10.366
79.90000 6.792
79.92000 2.998
79.94000 8.420
79.96000 9.456
79.98000 11.254
80.00000 11.939
80.02000 12.509
80.04000 12.275
80.06000 10.732
80.08000 13.803
80.10000 12.787
80.12000 13.101
80.14000 15.917
80.16000 14.820
80.18000 13.959
80.20000 13.733
80.22000 13.010
80.24000 10.927
80.26000 13.399
80.28000 15.968
80.30000 14.881
80.32000 13.443
80.34000 14.878
80.36000 18.480
80.38000 19.385
80.40000 17.809
80.42000 17.353
80.44000 18.751
80.46000 20.089
80.48000 21.018
80.50000 19.589
80.52000 19.514
80.54000 21.654
80.56000 23.494
80.58000 25.324
80.60000 23.739
80.62000 20.928
80.64000 20.339
80.66000 20.527
80.68000 19.740
80.70000 20.365
80.72000 21.482
80.74000 19.500
80.76000 15.796
80.78000 15.055
80.80000 19.417
80.82000 18.071
80.84000 18.356
80.86000 20.482
80.88000 20.795
80.90000 18.564
80.92000 18.823
80.94000 18.653
80.96000 14.554
80.98000 16.802
81.00000 21.227
81.02000 19.720
81.04000 15.596
81.06000 12.171
81.08000 14.084
81.10000 13.777
81.12000 12.964
81.14000 12.908
81.16000 15.093
81.18000 12.954
81.20000 13.355
81.22000 11.269
81.24000 8.205
81.26000 9.323
81.28000 8.723
81.30000 10.425
81.32000 11.365
81.34000 6.315
81.36000 7.732
81.38000 9.231
81.40000 6.149
81.42000 4.037
81.44000 5.297
81.46000 5.216
81.48000 5.985
81.50000 11.481
81.52000 7.568
81.54000 3.766
81.56000 5.265
81.58000 4.452
81.60000 5.771
81.62000 3.886
81.64000 1.891
81.66000 1.890
81.68000 1.193
81.70000 2.240
81.72000 1.487
81.74000 -0.492
81.76000 -1.475
81.78000 0.457
81.80000 0.926
81.82000 0.827
81.84000 2.664
81.86000 3.433
81.88000 1.547
81.90000 2.295
81.92000 0.155
81.94000 2.496
81.96000 2.786
81.98000 0.738
82.00000 2.996
82.02000 2.330
82.04000 -0.461
82.06000 -0.661
82.08000 1.292
82.10000 2.240
82.12000 2.292
82.14000 2.489
82.16000 -1.162
82.18000 -2.139
82.20000 -1.133
82.22000 1.636
82.24000 2.501
82.26000 1.551
82.28000 2.026
82.30000 1.570
82.32000 0.727
82.34000 -0.087
82.36000 0.250
82.38000 2.446
82.40000 1.628
82.42000 4.245
82.44000 2.095
82.46000 2.822
82.48000 0.511
82.50000 0.953
82.52000 -0.748
82.54000 2.407
82.56000 2.642
82.58000 1.595
82.60000 -0.504
82.62000 -0.611
82.64000 0.829
82.66000 0.993
82.68000 2.651
82.70000 1.543
82.72000 2.674
82.74000 -2.084
82.76000 -1.263
82.78000 0.193
82.80000 0.567
82.82000 2.207
82.84000 -0.399
82.86000 1.690
82.88000 0.838
82.90000 1.169
82.92000 3.984
82.94000 1.923
82.96000 2.103
82.98000 1.233
83.00000 2.296
83.02000 1.486
83.04000 1.332
83.06000 4.683
83.08000 3.046
83.10000 1.832
83.12000 0.639
83.14000 1.596
83.16000 1.894
83.18000 2.612
83.20000 -0.132
83.22000 2.077
83.24000 1.582
83.26000 3.691
83.28000 5.930
83.30000 4.048
83.32000 2.638
83.34000 0.306
83.36000 3.254
83.38000 2.938
83.40000 1.368
83.42000 2.206
83.44000 2.198
83.46000 3.843
83.48000 9.012
83.50000 9.513
83.52000 5.438
83.54000 4.696
83.56000 5.794
83.58000 5.726
83.60000 4.562
83.62000 4.312
83.64000 6.058
83.66000 4.511
83.68000 6.838
83.70000 7.595
83.72000 9.264
83.74000 8.432
83.76000 9.266
83.78000 7.334
83.80000 6.914
83.82000 8.554
83.84000 8.303
83.86000 7.922
83.88000 8.428
83.90000 10.745
83.92000 10.803
83.94000 12.701
83.96000 12.444
83.98000 10.234
84.00000 12.582
84.02000 16.205
84.04000 14.031
84.06000 15.467
84.08000 16.940
84.10000 14.067
84.12000 14.641
84.14000 17.102
84.16000 15.781
84.18000 15.230
84.20000 16.423
84.22000 15.262
84.24000 13.611
84.26000 14.032
84.28000 17.370
84.30000 17.485
84.32000 16.861
84.34000 17.432
84.36000 20.055
84.38000 20.510
84.40000 21.397
84.42000 22.192
84.44000 23.469
84.46000 22.569
84.48000 21.462
84.50000 21.746
84.52000 21.551
84.54000 22.316
84.56000 20.257
84.58000 19.093
84.60000 20.894
84.62000 22.015
84.64000 18.312
84.66000 21.070
84.68000 21.695
84.70000 19.342
84.72000 21.540
84.74000 21.078
84.76000 18.934
84.78000 21.286
84.80000 20.612
84.82000 19.039
84.84000 15.472
84.86000 17.373
84.88000 20.020
84.90000 21.714
84.92000 16.545
84.94000 13.987
84.96000 12.554
84.98000 11.698
85.00000 14.789
85.02000 14.501
85.04000 11.395
85.06000 13.982
85.08000 11.720
85.10000 9.813
85.12000 11.429
85.14000 8.921
85.16000 8.845
85.18000 9.191
85.20000 10.275
85.22000 11.304
85.24000 12.398
85.26000 12.337
85.28000 9.112
85.30000 8.057
85.32000 5.221
85.34000 6.344
85.36000 8.588
85.38000 5.512
85.40000 2.558
85.42000 1.630
85.44000 3.627
85.46000 6.354
85.48000 4.875
85.50000 2.835
85.52000 4.946
85.54000 5.550
85.56000 5.400
85.58000 2.077
85.60000 2.073
85.62000 1.009
85.64000 3.276
85.66000 2.966
85.68000 1.715
85.70000 1.854
85.72000 1.513
85.74000 1.862
85.76000 1.988
85.78000 2.898
85.80000 3.103
85.82000 4.561
85.84000 3.821
85.86000 1.528
85.88000 2.046
85.90000 2.273
85.92000 -0.988
85.94000 -0.150
85.96000 0.121
85.98000 1.940
86.00000 3.213
86.02000 2.991
86.04000 1.559
86.06000 -1.363
86.08000 -1.887
86.10000 -0.930
86.12000 -0.662
86.14000 1.094
86.16000 1.008
86.18000 -1.888
86.20000 -0.912
86.22000 -0.953
86.24000 -1.778
86.26000 -0.162
86.28000 0.908
86.30000 1.237
86.32000 2.598
86.34000 5.254
86.36000 3.179
86.38000 -0.196
86.40000 1.122
86.42000 0.700
86.44000 0.150
86.46000 1.309
86.48000 2.203
86.50000 2.781
86.52000 0.662
86.54000 0.043
86.56000 1.429
86.58000 0.455
86.60000 -0.807
86.62000 0.849
86.64000 -1.348
86.66000 -0.231
86.68000 -0.068
86.70000 1.149
86.72000 1.283
86.74000 3.383
86.76000 2.724
86.78000 -0.731
86.80000 1.252
86.82000 3.390
86.84000 1.764
86.86000 1.482
86.88000 -0.511
86.90000 0.215
86.92000 2.478
86.94000 3.319
86.96000 5.098
86.98000 5.131
87.00000 3.216
87.02000 2.826
87.04000 -1.784
87.06000 1.901
87.08000 2.741
87.10000 2.441
87.12000 1.071
87.14000 2.064
87.16000 0.287
87.18000 2.045
87.20000 3.651
87.22000 3.912
87.24000 3.817
87.26000 2.922
87.28000 0.372
87.30000 2.670
87.32000 0.416
87.34000 0.779
87.36000 1.817
87.38000 3.148
87.40000 2.126
87.42000 2.210
87.44000 4.055
87.46000 3.063
87.48000 4.510
87.50000 0.986
87.52000 -1.759
87.54000 1.441
87.56000 2.556
87.58000 2.581
87.60000 2.431
87.62000 0.838
87.64000 0.632
87.66000 0.464
87.68000 -0.748
87.70000 -0.517
87.72000 0.584
87.74000 0.897
87.76000 0.113
87.78000 -1.359
87.80000 -0.675
87.82000 0.450
87.84000 -1.329
87.86000 -0.523
87.88000 1.429
87.90000 -1.501
87.92000 0.210
87.94000 -1.791
87.96000 2.417
87.98000 2.701
88.00000 0.682
88.02000 2.760
88.04000 2.266
88.06000 0.495
88.08000 -0.724
88.10000 1.982
88.12000 2.403
88.14000 1.280
88.16000 0.722
88.18000 -1.650
88.20000 1.229
88.22000 1.088
88.24000 -0.460
88.26000 -0.911
88.28000 0.272
88.30000 -0.487
88.32000 1.039
88.34000 1.356
88.36000 3.006
88.38000 2.803
88.40000 0.795
88.42000 2.518
88.44000 3.044
88.46000 -0.164
88.48000 -1.508
88.50000 0.471
88.52000 0.527
88.54000 1.782
88.56000 5.337
88.58000 5.554
88.60000 1.451
88.62000 -1.770
88.64000 0.135
88.66000 0.984
88.68000 2.786
88.70000 4.358
88.72000 2.100
88.74000 3.526
88.76000 2.494
88.78000 2.429
88.80000 0.932
88.82000 -0.109
88.84000 0.134
88.86000 3.462
88.88000 4.028
88.90000 0.773
88.92000 3.145
88.94000 5.124
88.96000 4.199
88.98000 2.720
89.00000 -0.589
89.02000 0.099
89.04000 3.680
89.06000 4.760
89.08000 2.242
89.10000 2.956
89.12000 -1.752
89.14000 0.311
89.16000 0.333
89.18000 2.499
89.20000 2.560
89.22000 1.312
89.24000 -0.698
89.26000 -0.546
89.28000 1.415
89.30000 3.667
89.32000 1.769
89.34000 0.231
89.36000 0.962
89.38000 -0.633
89.40000 2.287
89.42000 2.323
89.44000 2.239
89.46000 2.465
89.48000 1.147
89.50000 -1.592
89.52000 -0.523
89.54000 1.671
89.56000 1.480
89.58000 -0.178
89.60000 1.489
89.62000 3.166
89.64000 2.943
89.66000 0.123
89.68000 0.769
89.70000 2.055
89.72000 2.509
89.74000 1.323
89.76000 2.813
89.78000 3.721
89.80000 1.677
89.82000 3.900
89.84000 -1.164
89.86000 2.913
89.88000 1.628
89.90000 1.694
89.92000 1.080
89.94000 1.586
89.96000 2.197
89.98000 2.847
90.00000 3.550
90.02000 2.435
90.04000 1.058
90.06000 2.306
90.08000 -0.436
90.10000 -1.750
90.12000 2.215
90.14000 0.883
90.16000 3.089
90.18000 2.498
90.20000 6.186
90.22000 6.645
90.24000 3.711
90.26000 3.280
90.28000 3.233
90.30000 0.159
90.32000 0.241
90.34000 2.965
90.36000 0.547
90.38000 -1.424
90.40000 1.211
90.42000 3.111
90.44000 5.001
90.46000 1.015
90.48000 -0.870
90.50000 2.114
90.52000 2.958
90.54000 3.964
90.56000 2.944
90.58000 2.264
90.60000 3.445
90.62000 0.906
90.64000 1.524
90.66000 2.152
90.68000 3.197
90.70000 1.246
90.72000 4.758
90.74000 4.489
90.76000 3.671
90.78000 0.661
90.80000 0.621
90.82000 1.442
90.84000 3.731
90.86000 3.090
90.88000 3.993
90.90000 3.823
90.92000 1.177
90.94000 3.236
90.96000 2.514
90.98000 2.611
91.00000 1.287
91.02000 2.983
91.04000 1.832
91.06000 2.062
91.08000 3.179
91.10000 3.371
91.12000 2.142
91.14000 0.482
91.16000 2.212
91.18000 1.430
91.20000 2.657
91.22000 1.026
91.24000 -0.564
91.26000 -0.167
91.28000 3.970
91.30000 3.768
91.32000 0.867
91.34000 -1.722
91.36000 0.477
91.38000 1.621
91.40000 2.564
91.42000 3.514
91.44000 1.794
91.46000 1.261
91.48000 1.399
91.50000 1.249
91.52000 3.152
91.54000 2.752
91.56000 0.581
91.58000 1.360
91.60000 2.362
91.62000 0.836
91.64000 1.982
91.66000 2.740
91.68000 4.611
91.70000 3.470
91.72000 -0.048
91.74000 1.954
91.76000 1.722
91.78000 2.582
91.80000 2.282
91.82000 3.574
91.84000 2.070
91.86000 1.976
91.88000 1.347
91.90000 0.171
91.92000 0.302
91.94000 2.373
91.96000 2.390
91.98000 1.236
92.00000 -0.033
92.02000 0.251
92.04000 1.699
92.06000 3.976
92.08000 4.341
92.10000 1.296
92.12000 -1.775
92.14000 0.282
92.16000 1.815
92.18000 0.882
92.20000 1.134
92.22000 5.169
92.24000 4.486
92.26000 2.149
92.28000 0.869
92.30000 0.993
92.32000 1.189
92.34000 0.564
92.36000 -0.197
92.38000 0.703
92.40000 0.427
92.42000 0.995
92.44000 0.633
92.46000 2.786
92.48000 6.152
92.50000 5.344
92.52000 5.291
92.54000 3.717
92.56000 1.527
92.58000 1.923
92.60000 4.500
92.62000 5.538
92.64000 5.152
92.66000 1.477
92.68000 -1.444
92.70000 -0.703
92.72000 1.809
92.74000 1.137
92.76000 -0.475
92.78000 0.245
92.80000 -1.498
92.82000 0.196
92.84000 2.178
92.86000 1.202
92.88000 2.717
92.90000 0.309
92.92000 -1.785
92.94000 -1.427
92.96000 -0.588
92.98000 1.378
93.00000 -0.385
93.02000 -0.925
93.04000 0.272
93.06000 1.332
93.08000 1.438
93.10000 4.896
93.12000 2.886
93.14000 0.546
93.16000 3.020
93.18000 3.966
93.20000 4.124
93.22000 1.908
93.24000 0.451
93.26000 -0.506
93.28000 4.176
93.30000 5.657
93.32000 1.883
93.34000 -1.782
93.36000 -0.481
93.38000 2.755
93.40000 4.903
93.42000 3.549
93.44000 2.962
93.46000 2.984
93.48000 2.066
93.50000 2.993
93.52000 3.754
93.54000 3.008
93.56000 1.462
93.58000 0.542
93.60000 1.734
93.62000 2.604
93.64000 6.925
93.66000 3.369
93.68000 4.265
93.70000 2.835
93.72000 1.258
93.74000 2.369
93.76000 4.526
93.78000 2.693
93.80000 2.555
93.82000 4.318
93.84000 0.783
93.86000 -0.714
93.88000 2.044
93.90000 3.173
93.92000 2.375
93.94000 3.836
93.96000 -1.071
93.98000 -1.810
94.00000 2.754
94.02000 4.640
94.04000 1.294
94.06000 3.152
94.08000 2.593
94.10000 0.136
94.12000 1.835
94.14000 2.039
94.16000 1.375
94.18000 -1.081
94.20000 0.201
94.22000 -0.104
94.24000 0.567
94.26000 2.351
94.28000 3.119
94.30000 2.099
94.32000 1.551
94.34000 0.004
94.36000 0.933
94.38000 -1.124
94.40000 -0.657
94.42000 0.479
94.44000 0.468
94.46000 5.491
94.48000 2.101
94.50000 3.113
94.52000 3.031
94.54000 4.731
94.56000 1.352
94.58000 0.822
94.60000 0.285
94.62000 -0.527
94.64000 -1.118
94.66000 1.962
94.68000 2.000
94.70000 -0.089
94.72000 1.912
94.74000 2.724
94.76000 0.070
94.78000 1.067
94.80000 1.413
94.82000 -0.361
94.84000 3.935
94.86000 2.839
94.88000 2.175
94.90000 -0.072
94.92000 -0.046
94.94000 2.710
94.96000 2.967
94.98000 2.511
95.00000 3.412
95.02000 1.127
95.04000 1.543
95.06000 -0.889
95.08000 1.751
95.10000 2.682
95.12000 1.621
95.14000 0.276
95.16000 -1.771
95.18000 3.863
95.20000 4.889
95.22000 6.514
95.24000 3.657
95.26000 1.864
95.28000 -0.364
95.30000 -0.768
95.32000 3.479
95.34000 4.896
95.36000 5.796
95.38000 6.634
95.40000 3.691
95.42000 1.102
95.44000 4.286
95.46000 4.373
95.48000 6.217
95.50000 4.483
95.52000 3.785
95.54000 3.718
95.56000 5.438
95.58000 6.530
95.60000 1.354
95.62000 0.265
95.64000 3.093
95.66000 1.860
95.68000 3.474
95.70000 5.510
95.72000 2.513
95.74000 2.627
95.76000 1.467
95.78000 4.394
95.80000 2.932
95.82000 3.620
95.84000 3.271
95.86000 5.100
95.88000 2.700
95.90000 1.894
95.92000 -0.391
95.94000 -1.776
95.96000 1.084
95.98000 2.294
96.00000 2.785
96.02000 4.671
96.04000 3.225
96.06000 2.013
96.08000 2.029
96.10000 1.166
96.12000 1.028
96.14000 -0.215
96.16000 3.918
96.18000 5.450
96.20000 0.686
96.22000 3.853
96.24000 7.319
96.26000 2.778
96.28000 1.159
96.30000 3.864
96.32000 2.143
96.34000 1.776
96.36000 3.071
96.38000 3.738
96.40000 5.919
96.42000 4.929
96.44000 4.220
96.46000 1.940
96.48000 1.557
96.50000 0.827
96.52000 1.751
96.54000 6.007
96.56000 2.945
96.58000 0.927
96.60000 1.628
96.62000 3.282
96.64000 4.176
96.66000 2.235
96.68000 3.426
96.70000 4.683
96.72000 6.832
96.74000 9.215
96.76000 8.486
96.78000 6.553
96.80000 5.043
96.82000 5.000
96.84000 3.638
96.86000 3.508
96.88000 4.464
96.90000 6.409
96.92000 3.562
96.94000 3.110
96.96000 1.304
96.98000 4.310
97.00000 5.762
97.02000 5.343
97.04000 4.354
97.06000 5.267
97.08000 3.894
97.10000 6.117
97.12000 5.789
97.14000 5.168
97.16000 3.661
97.18000 3.824
97.20000 5.878
97.22000 3.092
97.24000 3.420
97.26000 4.833
97.28000 6.861
97.30000 0.522
97.32000 -1.713
97.34000 2.691
97.36000 4.894
97.38000 9.666
97.40000 7.927
97.42000 6.004
97.44000 2.440
97.46000 3.856
97.48000 1.079
97.50000 6.939
97.52000 7.103
97.54000 5.496
97.56000 3.659
97.58000 2.875
97.60000 4.551
97.62000 1.524
97.64000 3.148
97.66000 2.636
97.68000 2.763
97.70000 4.282
97.72000 9.473
97.74000 4.641
97.76000 2.665
97.78000 0.295
97.80000 0.915
97.82000 1.861
97.84000 4.418
97.86000 6.211
97.88000 2.502
97.90000 2.433
97.92000 5.374
97.94000 3.661
97.96000 6.722
97.98000 6.856
98.00000 4.004
98.02000 3.749
98.04000 4.678
98.06000 6.288
98.08000 3.235
98.10000 4.581
98.12000 1.779
98.14000 2.798
98.16000 1.707
98.18000 4.079
98.20000 3.124
98.22000 2.648
98.24000 6.533
98.26000 4.182
98.28000 2.531
98.30000 -0.920
98.32000 3.382
98.34000 5.853
98.36000 1.390
98.38000 2.559
98.40000 0.811
98.42000 3.334
98.44000 1.776
98.46000 2.617
98.48000 2.944
98.50000 -0.306
98.52000 2.646
98.54000 0.693
98.56000 3.209
98.58000 6.482
98.60000 6.353
98.62000 1.083
98.64000 2.467
98.66000 1.508
98.68000 2.730
98.70000 -1.290
98.72000 -0.666
98.74000 3.592
98.76000 6.646
98.78000 5.821
98.80000 4.719
98.82000 3.056
98.84000 2.021
98.86000 0.907
98.88000 5.978
98.90000 4.612
98.92000 3.488
98.94000 6.584
98.96000 3.014
98.98000 -1.758
99.00000 -0.378
99.02000 1.809
99.04000 1.303
99.06000 5.945
99.08000 7.168
99.10000 5.901
99.12000 7.912
99.14000 8.062
99.16000 3.144
99.18000 1.110
99.20000 2.425
99.22000 5.918
99.24000 4.097
99.26000 8.587
99.28000 0.666
99.30000 4.530
99.32000 5.055
99.34000 7.423
99.36000 8.171
99.38000 8.814
99.40000 4.410
99.42000 -1.731
99.44000 2.753
99.46000 3.138
99.48000 3.876
99.50000 3.059
99.52000 2.535
99.54000 2.950
99.56000 4.572
99.58000 5.731
99.60000 4.611
99.62000 6.277
99.64000 -0.323
99.66000 -1.786
99.68000 1.901
99.70000 8.523
99.72000 8.005
99.74000 7.239
99.76000 -1.811
99.78000 0.260
99.80000 8.576
99.82000 8.575
99.84000 2.964
99.86000 0.156
99.88000 -1.842
99.90000 3.556
99.92000 2.748
99.94000 2.114
99.96000 -1.889
99.98000 0.000
