'Id: "0011388" Comment: "Integrate frame 0011388_Au-Ir-Rh_Rh-rich_XRD-Mapping-143-0000.gfrmwith cursor Wedge Cursor #5" Operator: "B?rgel" Anode: "Cu" Wavelength: "1.5406" Scantype: "2Theta (TwoTheta)" TimePerStep: "1" X: "-13.5" Y: "-4.5" Z: "5.95" 
10.00000 0.000
10.02000 13.428
10.04000 1.499
10.06000 13.897
10.08000 28.427
10.10000 16.621
10.12000 19.371
10.14000 7.425
10.16000 -4.223
10.18000 9.998
10.20000 29.441
10.22000 28.350
10.24000 20.481
10.26000 4.662
10.28000 16.498
10.30000 24.904
10.32000 9.749
10.34000 5.123
10.36000 4.504
10.38000 -3.763
10.40000 6.167
10.42000 29.036
10.44000 21.720
10.46000 12.801
10.48000 4.106
10.50000 3.967
10.52000 6.484
10.54000 6.444
10.56000 11.188
10.58000 25.599
10.60000 18.555
10.62000 19.031
10.64000 20.330
10.66000 11.975
10.68000 21.330
10.70000 11.696
10.72000 13.762
10.74000 27.958
10.76000 29.712
10.78000 18.483
10.80000 13.023
10.82000 11.669
10.84000 14.202
10.86000 12.694
10.88000 28.239
10.90000 27.378
10.92000 22.335
10.94000 29.170
10.96000 28.365
10.98000 28.756
11.00000 6.970
11.02000 10.398
11.04000 19.871
11.06000 19.820
11.08000 29.323
11.10000 32.713
11.12000 15.585
11.14000 7.932
11.16000 8.310
11.18000 12.091
11.20000 19.845
11.22000 21.204
11.24000 16.404
11.26000 23.474
11.28000 28.959
11.30000 17.892
11.32000 3.905
11.34000 9.961
11.36000 15.584
11.38000 20.774
11.40000 22.629
11.42000 11.815
11.44000 19.309
11.46000 25.906
11.48000 21.700
11.50000 18.647
11.52000 25.840
11.54000 39.206
11.56000 26.665
11.58000 26.086
11.60000 21.601
11.62000 27.941
11.64000 15.260
11.66000 13.735
11.68000 12.653
11.70000 13.325
11.72000 28.394
11.74000 29.984
11.76000 21.263
11.78000 18.808
11.80000 16.280
11.82000 17.090
11.84000 16.179
11.86000 24.067
11.88000 11.229
11.90000 -4.302
11.92000 5.884
11.94000 13.160
11.96000 12.493
11.98000 19.850
12.00000 18.986
12.02000 16.737
12.04000 10.551
12.06000 10.241
12.08000 17.890
12.10000 27.959
12.12000 24.471
12.14000 26.985
12.16000 22.823
12.18000 15.971
12.20000 12.617
12.22000 16.478
12.24000 16.394
12.26000 18.023
12.28000 25.013
12.30000 19.679
12.32000 20.572
12.34000 16.603
12.36000 10.468
12.38000 11.811
12.40000 12.200
12.42000 22.253
12.44000 19.232
12.46000 21.227
12.48000 23.608
12.50000 10.255
12.52000 9.156
12.54000 16.670
12.56000 18.612
12.58000 13.027
12.60000 18.562
12.62000 19.185
12.64000 13.721
12.66000 21.172
12.68000 13.927
12.70000 13.151
12.72000 10.976
12.74000 9.376
12.76000 11.299
12.78000 18.052
12.80000 23.922
12.82000 14.921
12.84000 21.732
12.86000 24.559
12.88000 22.662
12.90000 19.063
12.92000 26.825
12.94000 21.537
12.96000 22.233
12.98000 18.317
13.00000 17.269
13.02000 16.496
13.04000 11.413
13.06000 13.463
13.08000 8.385
13.10000 10.622
13.12000 15.867
13.14000 18.469
13.16000 19.354
13.18000 15.304
13.20000 10.952
13.22000 18.398
13.24000 18.263
13.26000 15.360
13.28000 6.692
13.30000 8.251
13.32000 18.869
13.34000 22.246
13.36000 16.422
13.38000 9.474
13.40000 11.416
13.42000 1.908
13.44000 -0.169
13.46000 10.899
13.48000 12.244
13.50000 7.145
13.52000 4.556
13.54000 7.449
13.56000 11.373
13.58000 4.414
13.60000 5.314
13.62000 13.738
13.64000 9.075
13.66000 5.957
13.68000 15.202
13.70000 22.837
13.72000 15.185
13.74000 12.015
13.76000 15.451
13.78000 16.710
13.80000 13.321
13.82000 16.480
13.84000 21.587
13.86000 21.798
13.88000 21.330
13.90000 12.236
13.92000 14.332
13.94000 10.403
13.96000 15.341
13.98000 11.979
14.00000 7.668
14.02000 11.589
14.04000 16.560
14.06000 30.931
14.08000 24.044
14.10000 21.279
14.12000 17.624
14.14000 9.889
14.16000 11.315
14.18000 18.253
14.20000 18.055
14.22000 11.321
14.24000 9.316
14.26000 5.661
14.28000 10.436
14.30000 6.793
14.32000 10.647
14.34000 14.063
14.36000 13.574
14.38000 10.058
14.40000 6.285
14.42000 13.248
14.44000 16.686
14.46000 12.906
14.48000 7.996
14.50000 7.685
14.52000 12.327
14.54000 12.035
14.56000 8.258
14.58000 13.951
14.60000 14.685
14.62000 6.801
14.64000 15.462
14.66000 24.156
14.68000 14.976
14.70000 14.189
14.72000 11.649
14.74000 11.694
14.76000 13.686
14.78000 8.964
14.80000 10.603
14.82000 12.452
14.84000 9.338
14.86000 10.575
14.88000 13.031
14.90000 18.964
14.92000 15.909
14.94000 15.578
14.96000 9.078
14.98000 -0.942
15.00000 11.209
15.02000 8.354
15.04000 7.691
15.06000 9.702
15.08000 12.266
15.10000 7.324
15.12000 0.550
15.14000 -0.108
15.16000 5.693
15.18000 3.076
15.20000 9.471
15.22000 3.656
15.24000 10.779
15.26000 14.442
15.28000 21.219
15.30000 17.459
15.32000 10.913
15.34000 9.624
15.36000 12.267
15.38000 8.637
15.40000 7.880
15.42000 15.855
15.44000 16.543
15.46000 13.746
15.48000 3.335
15.50000 -4.229
15.52000 -0.159
15.54000 0.973
15.56000 9.493
15.58000 12.624
15.60000 11.303
15.62000 13.910
15.64000 11.945
15.66000 3.808
15.68000 10.140
15.70000 9.591
15.72000 0.167
15.74000 1.631
15.76000 11.050
15.78000 7.545
15.80000 1.167
15.82000 4.843
15.84000 4.191
15.86000 1.252
15.88000 0.839
15.90000 4.894
15.92000 11.165
15.94000 4.709
15.96000 -0.848
15.98000 7.512
16.00000 11.846
16.02000 16.545
16.04000 14.091
16.06000 16.232
16.08000 14.841
16.10000 16.409
16.12000 13.033
16.14000 7.756
16.16000 6.627
16.18000 11.153
16.20000 10.143
16.22000 6.840
16.24000 12.424
16.26000 9.787
16.28000 7.095
16.30000 7.135
16.32000 3.396
16.34000 9.635
16.36000 10.593
16.38000 7.277
16.40000 2.130
16.42000 9.572
16.44000 10.007
16.46000 11.416
16.48000 -4.388
16.50000 7.983
16.52000 14.306
16.54000 14.843
16.56000 5.201
16.58000 12.604
16.60000 15.056
16.62000 8.932
16.64000 2.944
16.66000 11.497
16.68000 15.576
16.70000 1.732
16.72000 10.018
16.74000 14.746
16.76000 13.747
16.78000 9.573
16.80000 3.981
16.82000 9.985
16.84000 3.670
16.86000 11.185
16.88000 19.748
16.90000 13.111
16.92000 0.154
16.94000 3.537
16.96000 7.619
16.98000 9.642
17.00000 17.171
17.02000 10.879
17.04000 3.692
17.06000 -0.161
17.08000 2.811
17.10000 6.117
17.12000 12.847
17.14000 11.743
17.16000 5.479
17.18000 5.519
17.20000 7.251
17.22000 3.536
17.24000 7.695
17.26000 1.679
17.28000 5.485
17.30000 12.859
17.32000 9.438
17.34000 7.488
17.36000 9.110
17.38000 4.857
17.40000 6.952
17.42000 6.204
17.44000 7.279
17.46000 4.993
17.48000 -0.038
17.50000 8.784
17.52000 5.822
17.54000 8.701
17.56000 10.191
17.58000 4.111
17.60000 -0.900
17.62000 1.229
17.64000 1.574
17.66000 8.674
17.68000 0.800
17.70000 2.081
17.72000 3.428
17.74000 5.128
17.76000 6.898
17.78000 5.652
17.80000 10.140
17.82000 6.819
17.84000 4.675
17.86000 -4.213
17.88000 3.549
17.90000 10.547
17.92000 17.024
17.94000 8.933
17.96000 -1.382
17.98000 -2.198
18.00000 4.955
18.02000 3.416
18.04000 8.466
18.06000 7.252
18.08000 4.887
18.10000 8.894
18.12000 5.398
18.14000 3.196
18.16000 3.899
18.18000 3.858
18.20000 5.857
18.22000 5.827
18.24000 -1.125
18.26000 5.850
18.28000 7.146
18.30000 4.350
18.32000 6.460
18.34000 5.967
18.36000 2.602
18.38000 6.914
18.40000 0.555
18.42000 -3.032
18.44000 -4.296
18.46000 -1.938
18.48000 6.586
18.50000 10.283
18.52000 7.478
18.54000 8.827
18.56000 3.428
18.58000 -0.864
18.60000 1.597
18.62000 2.431
18.64000 6.112
18.66000 8.526
18.68000 11.720
18.70000 5.588
18.72000 3.526
18.74000 2.968
18.76000 3.037
18.78000 2.694
18.80000 4.804
18.82000 3.679
18.84000 -1.092
18.86000 2.784
18.88000 3.428
18.90000 7.137
18.92000 8.948
18.94000 3.010
18.96000 1.975
18.98000 -2.201
19.00000 2.002
19.02000 1.044
19.04000 10.105
19.06000 8.430
19.08000 6.715
19.10000 8.319
19.12000 7.387
19.14000 4.993
19.16000 4.021
19.18000 1.602
19.20000 2.630
19.22000 3.203
19.24000 2.625
19.26000 3.655
19.28000 0.132
19.30000 10.399
19.32000 11.609
19.34000 3.983
19.36000 0.467
19.38000 2.644
19.40000 2.664
19.42000 2.745
19.44000 1.290
19.46000 -2.391
19.48000 4.049
19.50000 7.805
19.52000 3.567
19.54000 2.846
19.56000 3.815
19.58000 6.218
19.60000 2.248
19.62000 2.976
19.64000 4.423
19.66000 7.508
19.68000 2.482
19.70000 -1.846
19.72000 0.017
19.74000 -3.158
19.76000 -1.100
19.78000 4.356
19.80000 6.722
19.82000 8.630
19.84000 11.851
19.86000 6.609
19.88000 4.449
19.90000 5.619
19.92000 5.252
19.94000 2.492
19.96000 1.070
19.98000 1.574
20.00000 -4.223
20.02000 -0.386
20.04000 5.961
20.06000 7.968
20.08000 5.326
20.10000 5.226
20.12000 5.964
20.14000 3.709
20.16000 2.285
20.18000 4.895
20.20000 4.700
20.22000 0.423
20.24000 2.286
20.26000 9.277
20.28000 2.585
20.30000 0.441
20.32000 10.337
20.34000 8.012
20.36000 5.566
20.38000 1.445
20.40000 6.163
20.42000 5.942
20.44000 4.700
20.46000 6.770
20.48000 4.250
20.50000 0.932
20.52000 2.952
20.54000 2.613
20.56000 1.374
20.58000 -3.196
20.60000 -0.161
20.62000 4.895
20.64000 7.868
20.66000 6.458
20.68000 6.769
20.70000 12.581
20.72000 7.501
20.74000 9.185
20.76000 8.666
20.78000 8.181
20.80000 0.532
20.82000 -0.778
20.84000 -0.863
20.86000 2.476
20.88000 4.532
20.90000 0.679
20.92000 -2.476
20.94000 0.208
20.96000 4.529
20.98000 2.829
21.00000 1.906
21.02000 2.241
21.04000 2.757
21.06000 4.631
21.08000 5.423
21.10000 8.753
21.12000 7.409
21.14000 6.466
21.16000 4.937
21.18000 6.101
21.20000 -0.311
21.22000 4.653
21.24000 0.105
21.26000 1.973
21.28000 5.033
21.30000 -4.149
21.32000 6.139
21.34000 11.570
21.36000 4.457
21.38000 7.135
21.40000 9.335
21.42000 9.098
21.44000 6.945
21.46000 6.100
21.48000 11.445
21.50000 5.715
21.52000 -1.713
21.54000 0.814
21.56000 5.148
21.58000 5.413
21.60000 9.915
21.62000 9.398
21.64000 3.856
21.66000 7.703
21.68000 8.430
21.70000 3.216
21.72000 -1.512
21.74000 1.371
21.76000 7.781
21.78000 4.496
21.80000 5.946
21.82000 6.206
21.84000 1.469
21.86000 6.061
21.88000 2.800
21.90000 6.939
21.92000 3.913
21.94000 3.953
21.96000 4.090
21.98000 6.224
22.00000 5.623
22.02000 2.425
22.04000 -2.909
22.06000 1.475
22.08000 6.827
22.10000 8.648
22.12000 7.421
22.14000 6.094
22.16000 5.420
22.18000 5.275
22.20000 6.508
22.22000 2.360
22.24000 3.583
22.26000 -0.882
22.28000 0.505
22.30000 -3.814
22.32000 -0.502
22.34000 7.741
22.36000 14.619
22.38000 8.313
22.40000 7.369
22.42000 13.284
22.44000 5.326
22.46000 5.347
22.48000 4.071
22.50000 5.499
22.52000 9.434
22.54000 8.145
22.56000 4.782
22.58000 2.431
22.60000 -2.279
22.62000 -3.546
22.64000 4.841
22.66000 8.203
22.68000 5.352
22.70000 5.436
22.72000 8.083
22.74000 9.714
22.76000 7.591
22.78000 9.569
22.80000 10.590
22.82000 7.510
22.84000 5.456
22.86000 8.472
22.88000 10.317
22.90000 1.311
22.92000 0.240
22.94000 7.728
22.96000 9.751
22.98000 11.096
23.00000 3.830
23.02000 6.465
23.04000 -2.210
23.06000 -4.037
23.08000 5.668
23.10000 9.024
23.12000 9.369
23.14000 10.610
23.16000 10.811
23.18000 6.211
23.20000 3.621
23.22000 5.195
23.24000 5.869
23.26000 2.516
23.28000 0.836
23.30000 -1.533
23.32000 3.434
23.34000 6.873
23.36000 5.905
23.38000 6.231
23.40000 5.505
23.42000 -4.022
23.44000 2.463
23.46000 6.803
23.48000 7.847
23.50000 2.036
23.52000 6.610
23.54000 6.447
23.56000 0.989
23.58000 0.311
23.60000 1.325
23.62000 2.209
23.64000 7.674
23.66000 11.006
23.68000 3.697
23.70000 -0.835
23.72000 2.528
23.74000 -0.621
23.76000 1.393
23.78000 2.392
23.80000 7.531
23.82000 7.816
23.84000 5.099
23.86000 3.732
23.88000 0.451
23.90000 -0.763
23.92000 1.779
23.94000 5.448
23.96000 1.098
23.98000 -0.031
24.00000 0.656
24.02000 -1.555
24.04000 3.625
24.06000 1.447
24.08000 1.366
24.10000 11.119
24.12000 8.496
24.14000 3.278
24.16000 3.987
24.18000 3.331
24.20000 6.486
24.22000 11.590
24.24000 8.396
24.26000 3.500
24.28000 4.659
24.30000 7.931
24.32000 5.490
24.34000 1.954
24.36000 5.223
24.38000 9.360
24.40000 4.252
24.42000 2.369
24.44000 0.638
24.46000 -2.926
24.48000 1.415
24.50000 12.389
24.52000 8.132
24.54000 5.703
24.56000 8.683
24.58000 5.696
24.60000 4.593
24.62000 -0.096
24.64000 5.590
24.66000 6.527
24.68000 7.129
24.70000 2.185
24.72000 5.643
24.74000 4.051
24.76000 4.977
24.78000 1.737
24.80000 5.278
24.82000 7.550
24.84000 3.920
24.86000 5.106
24.88000 2.097
24.90000 2.079
24.92000 1.727
24.94000 4.846
24.96000 9.009
24.98000 3.711
25.00000 2.947
25.02000 1.535
25.04000 7.947
25.06000 6.738
25.08000 -1.096
25.10000 -2.955
25.12000 -2.779
25.14000 2.386
25.16000 -0.874
25.18000 0.932
25.20000 0.635
25.22000 1.284
25.24000 -0.469
25.26000 2.602
25.28000 8.271
25.30000 9.234
25.32000 6.423
25.34000 2.810
25.36000 -3.902
25.38000 0.714
25.40000 2.273
25.42000 6.879
25.44000 8.111
25.46000 8.654
25.48000 5.763
25.50000 8.470
25.52000 3.291
25.54000 -0.385
25.56000 -1.330
25.58000 5.355
25.60000 7.528
25.62000 2.988
25.64000 8.106
25.66000 2.865
25.68000 1.682
25.70000 3.132
25.72000 0.900
25.74000 0.143
25.76000 5.275
25.78000 4.265
25.80000 4.082
25.82000 2.933
25.84000 0.490
25.86000 5.065
25.88000 5.947
25.90000 5.732
25.92000 8.321
25.94000 9.515
25.96000 6.636
25.98000 7.968
26.00000 8.325
26.02000 4.586
26.04000 2.733
26.06000 0.047
26.08000 -1.932
26.10000 4.469
26.12000 3.777
26.14000 7.359
26.16000 9.119
26.18000 2.356
26.20000 3.957
26.22000 0.201
26.24000 -1.176
26.26000 -2.041
26.28000 0.186
26.30000 1.513
26.32000 3.046
26.34000 -2.168
26.36000 -0.859
26.38000 2.172
26.40000 -1.365
26.42000 1.696
26.44000 1.080
26.46000 -0.469
26.48000 7.887
26.50000 9.336
26.52000 6.004
26.54000 4.740
26.56000 5.469
26.58000 2.396
26.60000 2.066
26.62000 -0.066
26.64000 -1.731
26.66000 -1.162
26.68000 1.943
26.70000 3.555
26.72000 0.000
26.74000 2.837
26.76000 1.520
26.78000 -0.518
26.80000 -1.098
26.82000 -1.155
26.84000 5.580
26.86000 2.952
26.88000 2.483
26.90000 -0.489
26.92000 0.670
26.94000 2.855
26.96000 1.224
26.98000 2.292
27.00000 -3.047
27.02000 -1.377
27.04000 2.209
27.06000 -2.325
27.08000 1.665
27.10000 0.615
27.12000 -3.028
27.14000 2.378
27.16000 -2.348
27.18000 1.510
27.20000 2.422
27.22000 1.352
27.24000 2.978
27.26000 5.010
27.28000 5.000
27.30000 2.665
27.32000 8.270
27.34000 5.192
27.36000 1.910
27.38000 4.183
27.40000 2.007
27.42000 -3.847
27.44000 -0.569
27.46000 1.194
27.48000 -1.156
27.50000 -2.700
27.52000 3.343
27.54000 5.206
27.56000 -2.984
27.58000 -1.874
27.60000 -2.644
27.62000 -2.526
27.64000 -2.855
27.66000 0.436
27.68000 0.826
27.70000 -0.639
27.72000 2.740
27.74000 3.429
27.76000 2.498
27.78000 -2.846
27.80000 -3.818
27.82000 -0.524
27.84000 1.844
27.86000 6.277
27.88000 2.766
27.90000 2.483
27.92000 -3.397
27.94000 -3.805
27.96000 -3.324
27.98000 2.377
28.00000 2.015
28.02000 0.131
28.04000 3.162
28.06000 1.948
28.08000 3.432
28.10000 1.439
28.12000 -0.265
28.14000 -0.762
28.16000 3.332
28.18000 6.465
28.20000 4.698
28.22000 4.239
28.24000 -0.712
28.26000 -2.842
28.28000 -3.775
28.30000 3.041
28.32000 4.965
28.34000 5.027
28.36000 1.904
28.38000 3.854
28.40000 3.174
28.42000 5.103
28.44000 8.458
28.46000 8.349
28.48000 2.451
28.50000 5.458
28.52000 2.930
28.54000 4.281
28.56000 7.684
28.58000 6.494
28.60000 5.360
28.62000 5.902
28.64000 11.040
28.66000 9.527
28.68000 7.744
28.70000 7.063
28.72000 4.904
28.74000 4.109
28.76000 5.862
28.78000 8.731
28.80000 8.830
28.82000 -0.598
28.84000 -3.727
28.86000 6.372
28.88000 5.919
28.90000 2.930
28.92000 4.732
28.94000 -0.638
28.96000 1.256
28.98000 5.143
29.00000 3.405
29.02000 7.943
29.04000 8.120
29.06000 7.723
29.08000 4.152
29.10000 0.264
29.12000 -0.471
29.14000 -3.726
29.16000 -0.607
29.18000 1.192
29.20000 1.671
29.22000 7.355
29.24000 6.907
29.26000 6.007
29.28000 3.990
29.30000 4.655
29.32000 7.749
29.34000 1.884
29.36000 3.863
29.38000 6.082
29.40000 3.340
29.42000 0.807
29.44000 3.667
29.46000 3.324
29.48000 7.406
29.50000 5.857
29.52000 -3.554
29.54000 -0.404
29.56000 5.025
29.58000 4.160
29.60000 0.340
29.62000 2.909
29.64000 3.098
29.66000 4.255
29.68000 4.455
29.70000 0.346
29.72000 3.284
29.74000 0.491
29.76000 -0.143
29.78000 3.181
29.80000 2.026
29.82000 0.569
29.84000 3.136
29.86000 5.356
29.88000 5.360
29.90000 6.114
29.92000 1.498
29.94000 0.034
29.96000 4.962
29.98000 6.925
30.00000 9.002
30.02000 7.370
30.04000 5.156
30.06000 6.526
30.08000 0.876
30.10000 5.114
30.12000 3.118
30.14000 1.258
30.16000 1.440
30.18000 4.194
30.20000 4.110
30.22000 4.783
30.24000 1.608
30.26000 -0.507
30.28000 3.897
30.30000 -2.593
30.32000 7.738
30.34000 4.746
30.36000 0.740
30.38000 4.435
30.40000 6.554
30.42000 4.568
30.44000 3.715
30.46000 4.714
30.48000 7.179
30.50000 4.954
30.52000 -2.022
30.54000 1.950
30.56000 6.777
30.58000 6.857
30.60000 10.132
30.62000 2.458
30.64000 1.969
30.66000 3.071
30.68000 0.902
30.70000 2.096
30.72000 4.896
30.74000 1.523
30.76000 0.316
30.78000 2.423
30.80000 3.033
30.82000 -3.655
30.84000 -3.156
30.86000 3.839
30.88000 4.748
30.90000 4.737
30.92000 8.835
30.94000 2.385
30.96000 5.364
30.98000 4.467
31.00000 2.109
31.02000 0.653
31.04000 1.198
31.06000 -3.508
31.08000 0.798
31.10000 1.729
31.12000 5.296
31.14000 1.097
31.16000 0.287
31.18000 4.748
31.20000 7.482
31.22000 4.317
31.24000 6.835
31.26000 8.322
31.28000 5.286
31.30000 3.744
31.32000 -2.107
31.34000 0.696
31.36000 6.874
31.38000 8.380
31.40000 1.492
31.42000 2.100
31.44000 3.017
31.46000 7.463
31.48000 12.479
31.50000 9.202
31.52000 8.384
31.54000 5.208
31.56000 4.619
31.58000 5.830
31.60000 4.468
31.62000 1.059
31.64000 -0.693
31.66000 1.411
31.68000 0.722
31.70000 -1.372
31.72000 4.602
31.74000 2.403
31.76000 0.729
31.78000 -3.588
31.80000 -0.215
31.82000 0.436
31.84000 3.760
31.86000 2.968
31.88000 2.133
31.90000 0.050
31.92000 2.823
31.94000 9.004
31.96000 8.067
31.98000 8.988
32.00000 5.386
32.02000 3.088
32.04000 3.426
32.06000 6.384
32.08000 12.953
32.10000 3.278
32.12000 3.880
32.14000 2.278
32.16000 1.462
32.18000 5.415
32.20000 8.220
32.22000 8.335
32.24000 7.106
32.26000 0.769
32.28000 2.046
32.30000 2.960
32.32000 4.286
32.34000 0.821
32.36000 -2.872
32.38000 2.982
32.40000 6.492
32.42000 3.608
32.44000 7.090
32.46000 6.194
32.48000 6.170
32.50000 7.642
32.52000 4.254
32.54000 4.551
32.56000 9.105
32.58000 6.666
32.60000 4.663
32.62000 4.463
32.64000 5.330
32.66000 3.307
32.68000 2.241
32.70000 -1.208
32.72000 -3.544
32.74000 1.974
32.76000 0.417
32.78000 4.749
32.80000 3.864
32.82000 5.356
32.84000 3.737
32.86000 0.434
32.88000 3.752
32.90000 8.458
32.92000 10.282
32.94000 7.390
32.96000 2.719
32.98000 1.985
33.00000 3.281
33.02000 3.590
33.04000 0.101
33.06000 -0.046
33.08000 1.587
33.10000 4.316
33.12000 3.314
33.14000 2.924
33.16000 4.702
33.18000 5.816
33.20000 6.413
33.22000 5.837
33.24000 4.113
33.26000 1.624
33.28000 0.569
33.30000 3.071
33.32000 1.397
33.34000 1.199
33.36000 4.721
33.38000 5.840
33.40000 -0.688
33.42000 -1.096
33.44000 0.193
33.46000 7.231
33.48000 4.887
33.50000 -0.703
33.52000 0.268
33.54000 2.352
33.56000 7.245
33.58000 6.260
33.60000 6.012
33.62000 5.845
33.64000 5.854
33.66000 2.461
33.68000 2.000
33.70000 -0.784
33.72000 -0.726
33.74000 4.468
33.76000 6.391
33.78000 5.962
33.80000 6.669
33.82000 2.634
33.84000 1.793
33.86000 4.692
33.88000 7.963
33.90000 3.562
33.92000 -0.269
33.94000 0.453
33.96000 2.066
33.98000 5.816
34.00000 9.185
34.02000 2.359
34.04000 3.595
34.06000 5.076
34.08000 1.455
34.10000 -3.559
34.12000 -2.241
34.14000 -0.144
34.16000 4.296
34.18000 3.440
34.20000 5.037
34.22000 6.860
34.24000 3.413
34.26000 1.069
34.28000 3.181
34.30000 1.714
34.32000 5.457
34.34000 4.158
34.36000 7.259
34.38000 4.056
34.40000 1.532
34.42000 3.749
34.44000 6.438
34.46000 3.036
34.48000 2.973
34.50000 2.368
34.52000 4.912
34.54000 1.029
34.56000 7.755
34.58000 7.837
34.60000 6.024
34.62000 2.386
34.64000 -0.218
34.66000 1.926
34.68000 4.328
34.70000 4.347
34.72000 2.780
34.74000 0.587
34.76000 2.802
34.78000 0.703
34.80000 2.480
34.82000 4.888
34.84000 4.577
34.86000 5.154
34.88000 2.476
34.90000 0.009
34.92000 1.212
34.94000 3.289
34.96000 3.712
34.98000 5.442
35.00000 -1.338
35.02000 1.527
35.04000 0.250
35.06000 2.928
35.08000 1.424
35.10000 -1.019
35.12000 1.420
35.14000 5.183
35.16000 1.202
35.18000 0.592
35.20000 3.460
35.22000 3.485
35.24000 6.315
35.26000 3.355
35.28000 3.230
35.30000 0.091
35.32000 -0.990
35.34000 0.450
35.36000 2.599
35.38000 4.918
35.40000 0.709
35.42000 -3.501
35.44000 -3.396
35.46000 -2.279
35.48000 2.019
35.50000 7.768
35.52000 8.299
35.54000 2.169
35.56000 1.796
35.58000 3.599
35.60000 7.827
35.62000 8.524
35.64000 11.929
35.66000 6.357
35.68000 3.212
35.70000 6.121
35.72000 11.031
35.74000 5.880
35.76000 0.972
35.78000 4.439
35.80000 8.594
35.82000 4.688
35.84000 2.987
35.86000 1.282
35.88000 1.746
35.90000 3.170
35.92000 3.329
35.94000 0.278
35.96000 5.451
35.98000 3.530
36.00000 -0.956
36.02000 0.956
36.04000 4.349
36.06000 4.891
36.08000 4.227
36.10000 3.291
36.12000 1.558
36.14000 -1.833
36.16000 2.801
36.18000 0.538
36.20000 1.554
36.22000 4.806
36.24000 1.303
36.26000 3.458
36.28000 -0.230
36.30000 -1.820
36.32000 -0.497
36.34000 -1.012
36.36000 4.788
36.38000 2.795
36.40000 3.036
36.42000 3.140
36.44000 2.323
36.46000 0.750
36.48000 2.363
36.50000 5.278
36.52000 0.882
36.54000 -3.515
36.56000 1.089
36.58000 2.950
36.60000 2.416
36.62000 3.765
36.64000 4.170
36.66000 1.445
36.68000 -2.230
36.70000 -2.096
36.72000 1.901
36.74000 1.344
36.76000 3.583
36.78000 1.129
36.80000 2.897
36.82000 6.766
36.84000 3.511
36.86000 1.621
36.88000 1.507
36.90000 4.451
36.92000 1.626
36.94000 -0.559
36.96000 -0.570
36.98000 -2.516
37.00000 2.289
37.02000 1.889
37.04000 -1.217
37.06000 2.780
37.08000 4.159
37.10000 3.872
37.12000 1.878
37.14000 0.399
37.16000 -0.228
37.18000 -1.525
37.20000 4.994
37.22000 3.180
37.24000 -1.822
37.26000 -2.056
37.28000 -2.407
37.30000 -3.573
37.32000 -2.614
37.34000 1.909
37.36000 5.278
37.38000 1.342
37.40000 1.364
37.42000 0.955
37.44000 5.500
37.46000 2.946
37.48000 1.742
37.50000 -0.789
37.52000 -3.593
37.54000 0.498
37.56000 -1.316
37.58000 2.098
37.60000 2.731
37.62000 2.332
37.64000 2.512
37.66000 3.742
37.68000 1.048
37.70000 2.439
37.72000 5.133
37.74000 0.362
37.76000 -0.363
37.78000 -0.403
37.80000 3.097
37.82000 7.604
37.84000 6.876
37.86000 10.211
37.88000 7.208
37.90000 6.241
37.92000 5.383
37.94000 4.298
37.96000 5.871
37.98000 5.878
38.00000 7.932
38.02000 9.591
38.04000 6.094
38.06000 10.089
38.08000 8.149
38.10000 13.279
38.12000 11.157
38.14000 8.777
38.16000 11.410
38.18000 12.529
38.20000 13.813
38.22000 9.459
38.24000 12.864
38.26000 11.748
38.28000 10.438
38.30000 6.017
38.32000 8.817
38.34000 15.413
38.36000 16.468
38.38000 12.939
38.40000 9.471
38.42000 14.724
38.44000 17.568
38.46000 22.652
38.48000 15.239
38.50000 11.564
38.52000 17.234
38.54000 16.620
38.56000 11.217
38.58000 17.244
38.60000 19.700
38.62000 20.659
38.64000 18.315
38.66000 21.186
38.68000 17.241
38.70000 19.842
38.72000 20.329
38.74000 23.328
38.76000 23.166
38.78000 23.313
38.80000 25.081
38.82000 27.452
38.84000 27.693
38.86000 25.224
38.88000 31.592
38.90000 31.086
38.92000 30.628
38.94000 28.847
38.96000 32.298
38.98000 30.014
39.00000 34.559
39.02000 44.417
39.04000 46.261
39.06000 46.947
39.08000 42.153
39.10000 41.327
39.12000 41.005
39.14000 42.291
39.16000 48.046
39.18000 48.862
39.20000 54.881
39.22000 52.339
39.24000 55.847
39.26000 61.416
39.28000 64.742
39.30000 64.204
39.32000 66.790
39.34000 68.655
39.36000 73.277
39.38000 82.156
39.40000 82.599
39.42000 82.877
39.44000 93.783
39.46000 93.033
39.48000 88.401
39.50000 99.225
39.52000 111.903
39.54000 117.087
39.56000 112.001
39.58000 116.194
39.60000 122.092
39.62000 128.628
39.64000 134.578
39.66000 144.030
39.68000 154.093
39.70000 162.326
39.72000 171.568
39.74000 176.740
39.76000 184.670
39.78000 191.928
39.80000 200.649
39.82000 214.618
39.84000 223.176
39.86000 237.857
39.88000 249.646
39.90000 256.208
39.92000 262.194
39.94000 277.177
39.96000 290.804
39.98000 303.952
40.00000 322.181
40.02000 333.327
40.04000 342.574
40.06000 361.231
40.08000 377.722
40.10000 394.312
40.12000 406.060
40.14000 411.395
40.16000 429.028
40.18000 445.580
40.20000 461.544
40.22000 468.176
40.24000 486.304
40.26000 498.584
40.28000 499.851
40.30000 517.149
40.32000 514.779
40.34000 518.163
40.36000 533.624
40.38000 544.843
40.40000 542.905
40.42000 540.502
40.44000 546.006
40.46000 546.125
40.48000 543.186
40.50000 541.749
40.52000 530.001
40.54000 514.796
40.56000 510.107
40.58000 504.236
40.60000 502.510
40.62000 504.550
40.64000 494.397
40.66000 476.540
40.68000 449.738
40.70000 444.312
40.72000 440.141
40.74000 420.282
40.76000 394.566
40.78000 387.396
40.80000 365.977
40.82000 348.500
40.84000 336.533
40.86000 321.855
40.88000 306.936
40.90000 295.451
40.92000 288.546
40.94000 271.443
40.96000 264.250
40.98000 258.544
41.00000 241.493
41.02000 221.136
41.04000 204.893
41.06000 202.201
41.08000 195.619
41.10000 185.242
41.12000 172.648
41.14000 167.708
41.16000 159.103
41.18000 145.320
41.20000 138.315
41.22000 133.290
41.24000 128.469
41.26000 117.517
41.28000 107.608
41.30000 103.084
41.32000 103.261
41.34000 98.328
41.36000 91.705
41.38000 93.241
41.40000 87.288
41.42000 79.441
41.44000 73.187
41.46000 65.691
41.48000 61.543
41.50000 58.071
41.52000 58.519
41.54000 59.235
41.56000 60.396
41.58000 55.179
41.60000 50.880
41.62000 39.583
41.64000 45.357
41.66000 49.268
41.68000 44.475
41.70000 41.200
41.72000 37.675
41.74000 41.289
41.76000 41.309
41.78000 33.862
41.80000 35.046
41.82000 30.279
41.84000 22.921
41.86000 27.343
41.88000 29.081
41.90000 23.958
41.92000 23.945
41.94000 23.005
41.96000 18.830
41.98000 16.632
42.00000 18.295
42.02000 15.168
42.04000 10.696
42.06000 15.247
42.08000 20.460
42.10000 21.271
42.12000 16.116
42.14000 14.599
42.16000 16.540
42.18000 15.720
42.20000 14.714
42.22000 13.599
42.24000 12.688
42.26000 13.114
42.28000 10.568
42.30000 9.455
42.32000 5.265
42.34000 7.034
42.36000 7.713
42.38000 11.347
42.40000 8.707
42.42000 9.646
42.44000 8.635
42.46000 5.886
42.48000 5.789
42.50000 4.498
42.52000 4.817
42.54000 5.252
42.56000 4.381
42.58000 9.668
42.60000 8.727
42.62000 6.815
42.64000 6.477
42.66000 7.698
42.68000 4.424
42.70000 2.285
42.72000 -1.273
42.74000 -0.321
42.76000 3.295
42.78000 5.125
42.80000 2.182
42.82000 6.735
42.84000 7.568
42.86000 6.707
42.88000 5.952
42.90000 3.197
42.92000 -0.621
42.94000 1.797
42.96000 5.208
42.98000 4.468
43.00000 6.281
43.02000 7.060
43.04000 8.909
43.06000 5.333
43.08000 0.853
43.10000 -0.850
43.12000 4.393
43.14000 3.743
43.16000 3.746
43.18000 3.113
43.20000 3.410
43.22000 3.834
43.24000 4.656
43.26000 6.294
43.28000 7.732
43.30000 12.758
43.32000 10.750
43.34000 4.410
43.36000 -3.456
43.38000 -0.934
43.40000 0.176
43.42000 3.638
43.44000 6.425
43.46000 3.511
43.48000 3.297
43.50000 1.297
43.52000 0.419
43.54000 1.486
43.56000 1.774
43.58000 3.112
43.60000 3.198
43.62000 0.853
43.64000 1.889
43.66000 5.371
43.68000 3.215
43.70000 1.973
43.72000 3.706
43.74000 6.715
43.76000 4.619
43.78000 3.442
43.80000 2.032
43.82000 2.181
43.84000 1.566
43.86000 1.130
43.88000 2.450
43.90000 -3.452
43.92000 1.335
43.94000 2.534
43.96000 -0.494
43.98000 0.561
44.00000 3.512
44.02000 2.903
44.04000 4.470
44.06000 2.608
44.08000 3.920
44.10000 3.635
44.12000 2.591
44.14000 2.338
44.16000 -0.024
44.18000 0.161
44.20000 -0.692
44.22000 3.123
44.24000 3.089
44.26000 0.611
44.28000 0.761
44.30000 1.552
44.32000 -0.542
44.34000 -1.602
44.36000 4.416
44.38000 5.029
44.40000 1.119
44.42000 0.265
44.44000 1.949
44.46000 0.741
44.48000 -1.009
44.50000 -2.800
44.52000 -1.517
44.54000 -0.782
44.56000 0.400
44.58000 2.728
44.60000 0.892
44.62000 -0.788
44.64000 0.751
44.66000 1.494
44.68000 -1.315
44.70000 -0.657
44.72000 -3.460
44.74000 -2.435
44.76000 -0.004
44.78000 -0.324
44.80000 -1.238
44.82000 0.443
44.84000 5.385
44.86000 7.100
44.88000 3.353
44.90000 5.124
44.92000 2.914
44.94000 2.140
44.96000 3.519
44.98000 4.896
45.00000 5.760
45.02000 1.034
45.04000 -0.266
45.06000 1.147
45.08000 3.004
45.10000 3.081
45.12000 -2.671
45.14000 1.807
45.16000 5.485
45.18000 9.911
45.20000 2.214
45.22000 3.543
45.24000 8.925
45.26000 6.582
45.28000 5.573
45.30000 3.746
45.32000 8.449
45.34000 6.870
45.36000 6.241
45.38000 8.692
45.40000 6.750
45.42000 6.069
45.44000 7.090
45.46000 5.681
45.48000 5.089
45.50000 2.085
45.52000 7.765
45.54000 10.100
45.56000 10.026
45.58000 17.538
45.60000 8.363
45.62000 5.091
45.64000 19.067
45.66000 19.026
45.68000 17.509
45.70000 16.013
45.72000 22.331
45.74000 28.537
45.76000 23.759
45.78000 13.211
45.80000 17.114
45.82000 20.685
45.84000 25.232
45.86000 23.166
45.88000 22.230
45.90000 25.533
45.92000 26.974
45.94000 21.700
45.96000 21.818
45.98000 27.596
46.00000 31.094
46.02000 35.204
46.04000 39.051
46.06000 30.079
46.08000 30.189
46.10000 39.436
46.12000 39.378
46.14000 39.855
46.16000 47.689
46.18000 45.512
46.20000 42.054
46.22000 51.860
46.24000 46.891
46.26000 45.144
46.28000 47.064
46.30000 43.365
46.32000 47.314
46.34000 48.064
46.36000 50.983
46.38000 55.511
46.40000 52.622
46.42000 53.800
46.44000 56.722
46.46000 57.192
46.48000 57.091
46.50000 61.719
46.52000 65.215
46.54000 58.359
46.56000 58.204
46.58000 66.386
46.60000 63.954
46.62000 61.698
46.64000 59.987
46.66000 65.711
46.68000 71.324
46.70000 74.694
46.72000 74.717
46.74000 72.034
46.76000 75.263
46.78000 76.840
46.80000 80.259
46.82000 76.604
46.84000 76.902
46.86000 79.746
46.88000 84.812
46.90000 85.305
46.92000 82.403
46.94000 73.247
46.96000 76.291
46.98000 81.015
47.00000 84.588
47.02000 85.677
47.04000 85.283
47.06000 83.239
47.08000 86.598
47.10000 87.860
47.12000 86.666
47.14000 84.537
47.16000 82.969
47.18000 77.876
47.20000 78.223
47.22000 81.670
47.24000 84.551
47.26000 85.086
47.28000 80.830
47.30000 75.252
47.32000 69.002
47.34000 73.996
47.36000 70.578
47.38000 67.914
47.40000 62.422
47.42000 65.094
47.44000 72.168
47.46000 68.606
47.48000 57.587
47.50000 55.949
47.52000 51.656
47.54000 51.059
47.56000 55.724
47.58000 57.081
47.60000 51.097
47.62000 47.665
47.64000 43.662
47.66000 42.532
47.68000 40.713
47.70000 46.631
47.72000 44.024
47.74000 40.396
47.76000 45.679
47.78000 44.257
47.80000 40.595
47.82000 35.547
47.84000 38.227
47.86000 32.727
47.88000 31.288
47.90000 28.345
47.92000 35.742
47.94000 27.284
47.96000 28.585
47.98000 22.221
48.00000 19.244
48.02000 18.947
48.04000 21.704
48.06000 20.674
48.08000 21.508
48.10000 20.189
48.12000 18.207
48.14000 17.334
48.16000 19.122
48.18000 13.964
48.20000 9.480
48.22000 8.632
48.24000 4.793
48.26000 13.909
48.28000 12.678
48.30000 8.530
48.32000 4.151
48.34000 7.479
48.36000 6.241
48.38000 5.456
48.40000 7.220
48.42000 2.928
48.44000 3.740
48.46000 7.482
48.48000 5.260
48.50000 5.109
48.52000 5.677
48.54000 9.906
48.56000 8.958
48.58000 6.722
48.60000 6.915
48.62000 6.013
48.64000 3.402
48.66000 5.237
48.68000 4.301
48.70000 3.853
48.72000 4.388
48.74000 3.954
48.76000 -1.607
48.78000 1.566
48.80000 4.495
48.82000 2.654
48.84000 4.169
48.86000 -3.158
48.88000 2.725
48.90000 4.262
48.92000 4.111
48.94000 0.868
48.96000 0.571
48.98000 6.329
49.00000 0.924
49.02000 4.959
49.04000 7.037
49.06000 -3.123
49.08000 1.727
49.10000 8.606
49.12000 3.608
49.14000 -2.498
49.16000 -1.083
49.18000 -1.362
49.20000 -1.247
49.22000 -1.941
49.24000 -3.092
49.26000 -1.655
49.28000 0.891
49.30000 3.945
49.32000 2.162
49.34000 1.229
49.36000 0.891
49.38000 2.883
49.40000 8.249
49.42000 5.608
49.44000 3.532
49.46000 1.218
49.48000 -1.362
49.50000 -1.439
49.52000 0.822
49.54000 3.329
49.56000 3.044
49.58000 -3.028
49.60000 -2.102
49.62000 0.279
49.64000 2.988
49.66000 -2.480
49.68000 3.507
49.70000 3.766
49.72000 1.417
49.74000 2.224
49.76000 7.519
49.78000 6.227
49.80000 4.526
49.82000 6.384
49.84000 3.520
49.86000 -0.483
49.88000 -1.222
49.90000 1.915
49.92000 6.169
49.94000 -0.582
49.96000 -1.717
49.98000 0.162
50.00000 3.326
50.02000 9.230
50.04000 5.479
50.06000 2.219
50.08000 -0.146
50.10000 -2.521
50.12000 3.245
50.14000 3.821
50.16000 3.308
50.18000 2.495
50.20000 0.993
50.22000 -0.782
50.24000 0.193
50.26000 -2.994
50.28000 3.094
50.30000 3.185
50.32000 -0.877
50.34000 -1.316
50.36000 1.230
50.38000 -0.586
50.40000 -1.837
50.42000 2.112
50.44000 3.476
50.46000 0.654
50.48000 4.363
50.50000 0.846
50.52000 -0.544
50.54000 0.177
50.56000 6.189
50.58000 5.007
50.60000 1.917
50.62000 -0.157
50.64000 0.416
50.66000 -0.869
50.68000 -2.116
50.70000 -0.655
50.72000 -1.202
50.74000 0.912
50.76000 -1.821
50.78000 1.259
50.80000 1.477
50.82000 4.148
50.84000 2.054
50.86000 2.316
50.88000 2.496
50.90000 2.556
50.92000 3.479
50.94000 1.138
50.96000 7.459
50.98000 10.055
51.00000 7.145
51.02000 4.471
51.04000 4.477
51.06000 2.001
51.08000 6.078
51.10000 4.187
51.12000 5.481
51.14000 8.285
51.16000 3.292
51.18000 3.708
51.20000 3.686
51.22000 7.095
51.24000 8.382
51.26000 10.104
51.28000 11.374
51.30000 2.138
51.32000 -2.893
51.34000 0.245
51.36000 0.677
51.38000 2.330
51.40000 7.950
51.42000 1.848
51.44000 3.768
51.46000 7.005
51.48000 4.795
51.50000 3.416
51.52000 6.071
51.54000 4.965
51.56000 3.955
51.58000 0.962
51.60000 5.280
51.62000 4.532
51.64000 1.609
51.66000 3.650
51.68000 2.403
51.70000 3.508
51.72000 5.038
51.74000 -0.505
51.76000 -1.067
51.78000 3.255
51.80000 0.474
51.82000 -2.878
51.84000 -0.419
51.86000 4.470
51.88000 -1.356
51.90000 2.840
51.92000 -1.307
51.94000 6.700
51.96000 4.191
51.98000 2.114
52.00000 -0.105
52.02000 0.518
52.04000 0.154
52.06000 1.438
52.08000 2.132
52.10000 2.297
52.12000 3.650
52.14000 1.761
52.16000 8.452
52.18000 5.544
52.20000 1.761
52.22000 4.879
52.24000 4.420
52.26000 -0.485
52.28000 4.854
52.30000 5.220
52.32000 4.961
52.34000 3.631
52.36000 2.612
52.38000 5.374
52.40000 2.531
52.42000 4.749
52.44000 6.421
52.46000 7.119
52.48000 0.450
52.50000 -2.845
52.52000 -0.197
52.54000 2.782
52.56000 6.450
52.58000 2.956
52.60000 3.674
52.62000 4.921
52.64000 5.346
52.66000 3.963
52.68000 4.368
52.70000 5.688
52.72000 1.103
52.74000 -1.925
52.76000 1.737
52.78000 2.702
52.80000 1.223
52.82000 2.513
52.84000 -0.014
52.86000 1.258
52.88000 2.341
52.90000 2.995
52.92000 1.450
52.94000 2.915
52.96000 0.402
52.98000 5.656
53.00000 3.337
53.02000 1.309
53.04000 3.610
53.06000 3.155
53.08000 5.284
53.10000 8.945
53.12000 7.102
53.14000 3.355
53.16000 4.607
53.18000 1.451
53.20000 2.687
53.22000 4.645
53.24000 5.091
53.26000 3.521
53.28000 7.361
53.30000 4.976
53.32000 4.639
53.34000 4.532
53.36000 4.820
53.38000 2.598
53.40000 1.897
53.42000 1.494
53.44000 2.920
53.46000 1.279
53.48000 -0.454
53.50000 1.111
53.52000 1.309
53.54000 2.942
53.56000 3.050
53.58000 1.588
53.60000 -1.359
53.62000 4.831
53.64000 6.931
53.66000 3.437
53.68000 -1.318
53.70000 1.902
53.72000 4.470
53.74000 0.664
53.76000 1.424
53.78000 3.889
53.80000 3.368
53.82000 3.562
53.84000 4.990
53.86000 5.682
53.88000 7.977
53.90000 3.870
53.92000 0.567
53.94000 0.500
53.96000 3.268
53.98000 -0.721
54.00000 6.291
54.02000 6.097
54.04000 2.988
54.06000 9.348
54.08000 6.028
54.10000 -0.912
54.12000 3.053
54.14000 5.235
54.16000 10.228
54.18000 5.155
54.20000 0.498
54.22000 -2.618
54.24000 -2.775
54.26000 -1.061
54.28000 3.248
54.30000 5.514
54.32000 1.580
54.34000 7.703
54.36000 3.594
54.38000 2.597
54.40000 0.595
54.42000 5.452
54.44000 7.786
54.46000 1.497
54.48000 2.614
54.50000 4.144
54.52000 2.613
54.54000 -1.595
54.56000 -2.777
54.58000 2.767
54.60000 3.458
54.62000 1.221
54.64000 5.016
54.66000 2.518
54.68000 -2.596
54.70000 -0.770
54.72000 4.762
54.74000 -0.688
54.76000 2.613
54.78000 0.325
54.80000 5.140
54.82000 6.746
54.84000 7.262
54.86000 6.417
54.88000 5.774
54.90000 4.132
54.92000 3.201
54.94000 3.492
54.96000 3.696
54.98000 6.235
55.00000 5.767
55.02000 1.175
55.04000 2.640
55.06000 5.696
55.08000 10.703
55.10000 3.580
55.12000 3.027
55.14000 -1.060
55.16000 1.460
55.18000 2.732
55.20000 7.060
55.22000 9.289
55.24000 7.830
55.26000 3.332
55.28000 3.767
55.30000 1.920
55.32000 6.075
55.34000 5.906
55.36000 -2.763
55.38000 0.572
55.40000 4.254
55.42000 6.039
55.44000 3.459
55.46000 -0.957
55.48000 2.592
55.50000 2.861
55.52000 1.095
55.54000 5.295
55.56000 3.933
55.58000 1.137
55.60000 2.835
55.62000 1.680
55.64000 -1.471
55.66000 3.116
55.68000 0.290
55.70000 0.307
55.72000 1.730
55.74000 0.979
55.76000 0.498
55.78000 2.805
55.80000 6.092
55.82000 4.508
55.84000 3.051
55.86000 7.995
55.88000 6.700
55.90000 -1.346
55.92000 -0.918
55.94000 5.337
55.96000 6.473
55.98000 9.877
56.00000 4.213
56.02000 4.789
56.04000 2.018
56.06000 2.207
56.08000 0.129
56.10000 7.611
56.12000 7.234
56.14000 2.998
56.16000 3.048
56.18000 1.371
56.20000 7.259
56.22000 5.007
56.24000 4.147
56.26000 -0.121
56.28000 -0.296
56.30000 2.279
56.32000 2.176
56.34000 2.192
56.36000 0.423
56.38000 2.726
56.40000 4.632
56.42000 1.524
56.44000 1.389
56.46000 2.182
56.48000 2.026
56.50000 2.828
56.52000 1.955
56.54000 5.459
56.56000 7.550
56.58000 4.875
56.60000 2.192
56.62000 3.035
56.64000 5.528
56.66000 6.643
56.68000 1.981
56.70000 7.045
56.72000 6.685
56.74000 5.855
56.76000 1.166
56.78000 3.381
56.80000 5.951
56.82000 3.503
56.84000 2.108
56.86000 3.456
56.88000 2.731
56.90000 2.582
56.92000 2.420
56.94000 0.165
56.96000 -0.092
56.98000 -0.437
57.00000 1.713
57.02000 7.075
57.04000 6.953
57.06000 3.131
57.08000 0.864
57.10000 3.493
57.12000 7.474
57.14000 6.874
57.16000 4.786
57.18000 6.509
57.20000 5.556
57.22000 7.344
57.24000 5.609
57.26000 5.661
57.28000 11.061
57.30000 9.083
57.32000 5.524
57.34000 -0.350
57.36000 -2.661
57.38000 4.092
57.40000 5.618
57.42000 7.046
57.44000 7.104
57.46000 6.746
57.48000 8.104
57.50000 0.167
57.52000 1.125
57.54000 4.896
57.56000 5.663
57.58000 0.835
57.60000 -1.072
57.62000 7.008
57.64000 6.374
57.66000 6.124
57.68000 7.457
57.70000 7.909
57.72000 8.197
57.74000 4.606
57.76000 3.753
57.78000 3.509
57.80000 6.085
57.82000 8.413
57.84000 12.022
57.86000 10.050
57.88000 9.582
57.90000 7.688
57.92000 4.776
57.94000 4.630
57.96000 2.616
57.98000 2.242
58.00000 5.049
58.02000 1.514
58.04000 0.831
58.06000 3.323
58.08000 4.158
58.10000 3.747
58.12000 2.864
58.14000 7.588
58.16000 9.856
58.18000 6.873
58.20000 3.093
58.22000 5.361
58.24000 8.632
58.26000 5.772
58.28000 4.841
58.30000 0.554
58.32000 -0.618
58.34000 1.985
58.36000 5.863
58.38000 9.506
58.40000 2.685
58.42000 2.670
58.44000 7.579
58.46000 6.802
58.48000 3.821
58.50000 1.183
58.52000 -2.654
58.54000 -0.546
58.56000 4.816
58.58000 6.465
58.60000 6.199
58.62000 0.383
58.64000 2.554
58.66000 4.115
58.68000 2.098
58.70000 8.441
58.72000 5.044
58.74000 3.530
58.76000 5.705
58.78000 6.441
58.80000 4.691
58.82000 0.074
58.84000 -0.069
58.86000 2.522
58.88000 2.758
58.90000 6.656
58.92000 11.191
58.94000 9.531
58.96000 5.599
58.98000 10.027
59.00000 5.655
59.02000 2.717
59.04000 4.882
59.06000 4.136
59.08000 5.585
59.10000 8.629
59.12000 10.112
59.14000 4.122
59.16000 3.223
59.18000 8.661
59.20000 2.087
59.22000 3.485
59.24000 8.213
59.26000 5.852
59.28000 4.611
59.30000 6.235
59.32000 6.538
59.34000 3.678
59.36000 0.897
59.38000 3.767
59.40000 4.385
59.42000 5.100
59.44000 3.642
59.46000 5.070
59.48000 5.635
59.50000 8.301
59.52000 8.840
59.54000 9.807
59.56000 5.054
59.58000 7.490
59.60000 5.423
59.62000 2.674
59.64000 8.235
59.66000 6.590
59.68000 4.174
59.70000 -2.564
59.72000 -0.588
59.74000 2.934
59.76000 5.712
59.78000 3.492
59.80000 2.219
59.82000 6.743
59.84000 5.295
59.86000 3.735
59.88000 3.966
59.90000 5.812
59.92000 5.428
59.94000 7.240
59.96000 5.420
59.98000 5.135
60.00000 8.880
60.02000 7.811
60.04000 4.252
60.06000 1.764
60.08000 5.691
60.10000 6.249
60.12000 4.308
60.14000 1.269
60.16000 2.764
60.18000 5.979
60.20000 6.159
60.22000 6.095
60.24000 7.267
60.26000 3.660
60.28000 1.903
60.30000 0.656
60.32000 0.592
60.34000 -0.926
60.36000 3.845
60.38000 0.416
60.40000 -1.158
60.42000 4.198
60.44000 6.518
60.46000 4.034
60.48000 -2.596
60.50000 -0.550
60.52000 1.577
60.54000 1.631
60.56000 2.469
60.58000 0.157
60.60000 0.649
60.62000 2.296
60.64000 3.593
60.66000 2.866
60.68000 0.754
60.70000 0.401
60.72000 1.318
60.74000 -0.211
60.76000 3.216
60.78000 4.913
60.80000 1.338
60.82000 3.169
60.84000 6.480
60.86000 11.271
60.88000 5.237
60.90000 2.259
60.92000 4.679
60.94000 5.996
60.96000 1.982
60.98000 0.935
61.00000 -1.024
61.02000 1.442
61.04000 1.020
61.06000 -0.932
61.08000 -0.045
61.10000 -1.666
61.12000 3.433
61.14000 3.667
61.16000 -2.598
61.18000 0.343
61.20000 2.433
61.22000 1.990
61.24000 3.290
61.26000 3.062
61.28000 3.803
61.30000 -0.560
61.32000 -1.106
61.34000 3.071
61.36000 3.391
61.38000 -0.137
61.40000 2.019
61.42000 0.817
61.44000 3.586
61.46000 3.423
61.48000 0.062
61.50000 -1.668
61.52000 -0.325
61.54000 0.639
61.56000 -0.712
61.58000 3.196
61.60000 3.608
61.62000 4.362
61.64000 -0.050
61.66000 1.232
61.68000 1.924
61.70000 1.135
61.72000 -0.856
61.74000 2.873
61.76000 1.133
61.78000 4.759
61.80000 8.234
61.82000 2.563
61.84000 3.624
61.86000 0.131
61.88000 -0.309
61.90000 2.480
61.92000 0.726
61.94000 -0.133
61.96000 -0.991
61.98000 -1.375
62.00000 -1.363
62.02000 3.428
62.04000 -1.497
62.06000 -2.577
62.08000 -2.577
62.10000 -0.039
62.12000 4.027
62.14000 -1.299
62.16000 -2.141
62.18000 2.626
62.20000 3.843
62.22000 3.527
62.24000 2.662
62.26000 0.982
62.28000 4.783
62.30000 4.563
62.32000 2.418
62.34000 4.934
62.36000 1.096
62.38000 2.628
62.40000 1.439
62.42000 1.767
62.44000 1.526
62.46000 3.832
62.48000 6.892
62.50000 8.620
62.52000 3.951
62.54000 1.990
62.56000 0.242
62.58000 3.021
62.60000 2.834
62.62000 1.487
62.64000 5.993
62.66000 4.602
62.68000 4.203
62.70000 5.064
62.72000 2.415
62.74000 0.366
62.76000 3.196
62.78000 3.322
62.80000 2.596
62.82000 3.820
62.84000 1.790
62.86000 -0.610
62.88000 0.931
62.90000 3.812
62.92000 4.231
62.94000 4.636
62.96000 1.943
62.98000 -0.457
63.00000 -2.536
63.02000 -1.667
63.04000 1.020
63.06000 4.153
63.08000 4.432
63.10000 6.580
63.12000 2.647
63.14000 4.707
63.16000 3.042
63.18000 0.970
63.20000 2.439
63.22000 0.629
63.24000 2.335
63.26000 3.263
63.28000 6.506
63.30000 4.265
63.32000 4.256
63.34000 3.955
63.36000 2.462
63.38000 1.450
63.40000 -1.148
63.42000 -2.542
63.44000 -2.526
63.46000 -0.973
63.48000 -1.131
63.50000 2.148
63.52000 0.936
63.54000 2.650
63.56000 3.765
63.58000 1.422
63.60000 3.444
63.62000 -0.095
63.64000 0.644
63.66000 2.785
63.68000 2.297
63.70000 3.069
63.72000 0.136
63.74000 0.970
63.76000 3.791
63.78000 3.882
63.80000 2.647
63.82000 5.739
63.84000 1.704
63.86000 -1.554
63.88000 1.948
63.90000 3.859
63.92000 3.970
63.94000 3.832
63.96000 1.282
63.98000 -2.438
64.00000 -2.568
64.02000 2.847
64.04000 5.075
64.06000 3.754
64.08000 5.031
64.10000 5.443
64.12000 4.265
64.14000 3.706
64.16000 2.970
64.18000 1.446
64.20000 2.060
64.22000 -1.620
64.24000 1.347
64.26000 2.086
64.28000 2.507
64.30000 4.148
64.32000 0.878
64.34000 0.219
64.36000 -0.585
64.38000 3.357
64.40000 2.625
64.42000 1.204
64.44000 -0.734
64.46000 -0.018
64.48000 3.090
64.50000 3.660
64.52000 4.988
64.54000 3.556
64.56000 -2.073
64.58000 -0.517
64.60000 1.396
64.62000 6.200
64.64000 6.948
64.66000 3.509
64.68000 1.520
64.70000 -1.876
64.72000 -2.112
64.74000 2.269
64.76000 2.775
64.78000 0.643
64.80000 -0.396
64.82000 0.613
64.84000 1.733
64.86000 -0.143
64.88000 -2.580
64.90000 1.621
64.92000 -0.677
64.94000 3.253
64.96000 3.262
64.98000 1.873
65.00000 3.145
65.02000 1.978
65.04000 2.166
65.06000 -1.124
65.08000 2.645
65.10000 7.151
65.12000 4.581
65.14000 0.926
65.16000 1.224
65.18000 0.766
65.20000 -0.600
65.22000 1.504
65.24000 2.563
65.26000 1.834
65.28000 2.012
65.30000 -0.424
65.32000 4.147
65.34000 3.054
65.36000 5.101
65.38000 1.807
65.40000 1.686
65.42000 3.844
65.44000 1.990
65.46000 -0.406
65.48000 0.490
65.50000 -0.189
65.52000 1.538
65.54000 1.438
65.56000 0.922
65.58000 -2.458
65.60000 -1.639
65.62000 -2.478
65.64000 1.004
65.66000 3.152
65.68000 2.655
65.70000 0.738
65.72000 0.824
65.74000 2.446
65.76000 2.413
65.78000 4.485
65.80000 2.718
65.82000 1.301
65.84000 1.085
65.86000 2.562
65.88000 2.431
65.90000 -0.581
65.92000 -2.584
65.94000 -0.362
65.96000 1.391
65.98000 1.132
66.00000 -2.234
66.02000 0.596
66.04000 -1.574
66.06000 -1.278
66.08000 0.037
66.10000 1.794
66.12000 4.146
66.14000 1.027
66.16000 3.071
66.18000 2.024
66.20000 2.058
66.22000 -0.901
66.24000 1.816
66.26000 -2.565
66.28000 -1.759
66.30000 1.914
66.32000 1.917
66.34000 3.226
66.36000 0.954
66.38000 1.954
66.40000 0.538
66.42000 0.960
66.44000 2.348
66.46000 2.659
66.48000 2.036
66.50000 2.167
66.52000 1.278
66.54000 1.277
66.56000 -1.865
66.58000 -1.136
66.60000 0.760
66.62000 1.604
66.64000 -1.291
66.66000 -0.032
66.68000 0.317
66.70000 -1.019
66.72000 0.471
66.74000 3.075
66.76000 6.653
66.78000 3.542
66.80000 -0.430
66.82000 -0.762
66.84000 -2.540
66.86000 1.132
66.88000 2.995
66.90000 0.338
66.92000 -1.068
66.94000 1.217
66.96000 1.539
66.98000 3.596
67.00000 4.715
67.02000 1.031
67.04000 0.267
67.06000 -2.222
67.08000 1.000
67.10000 0.698
67.12000 -2.665
67.14000 1.632
67.16000 2.158
67.18000 2.109
67.20000 4.209
67.22000 2.062
67.24000 1.029
67.26000 3.158
67.28000 0.019
67.30000 -0.621
67.32000 -1.120
67.34000 -0.759
67.36000 3.972
67.38000 5.511
67.40000 6.234
67.42000 2.789
67.44000 6.331
67.46000 8.499
67.48000 7.360
67.50000 8.168
67.52000 6.440
67.54000 6.474
67.56000 4.972
67.58000 7.768
67.60000 7.023
67.62000 5.008
67.64000 6.195
67.66000 8.076
67.68000 8.082
67.70000 8.611
67.72000 12.905
67.74000 10.777
67.76000 5.317
67.78000 8.679
67.80000 11.435
67.82000 14.841
67.84000 12.133
67.86000 8.347
67.88000 10.592
67.90000 12.756
67.92000 11.089
67.94000 10.504
67.96000 10.143
67.98000 9.761
68.00000 14.636
68.02000 12.075
68.04000 6.639
68.06000 8.196
68.08000 13.589
68.10000 18.341
68.12000 17.932
68.14000 16.651
68.16000 17.588
68.18000 18.753
68.20000 17.690
68.22000 15.460
68.24000 15.262
68.26000 13.702
68.28000 15.361
68.30000 19.042
68.32000 22.926
68.34000 25.357
68.36000 20.255
68.38000 17.245
68.40000 15.035
68.42000 16.533
68.44000 18.037
68.46000 18.731
68.48000 20.035
68.50000 20.582
68.52000 19.825
68.54000 21.182
68.56000 20.009
68.58000 18.835
68.60000 20.668
68.62000 23.178
68.64000 22.725
68.66000 19.268
68.68000 19.672
68.70000 21.175
68.72000 23.417
68.74000 23.960
68.76000 22.464
68.78000 21.144
68.80000 20.718
68.82000 21.994
68.84000 20.474
68.86000 21.780
68.88000 18.399
68.90000 16.617
68.92000 16.008
68.94000 16.957
68.96000 19.538
68.98000 19.525
69.00000 19.187
69.02000 20.766
69.04000 18.068
69.06000 15.756
69.08000 15.974
69.10000 14.702
69.12000 17.004
69.14000 21.582
69.16000 15.198
69.18000 16.474
69.20000 14.753
69.22000 9.842
69.24000 14.100
69.26000 15.321
69.28000 9.566
69.30000 8.483
69.32000 10.803
69.34000 13.946
69.36000 15.838
69.38000 13.123
69.40000 8.943
69.42000 6.906
69.44000 7.451
69.46000 10.601
69.48000 8.620
69.50000 8.752
69.52000 6.936
69.54000 7.995
69.56000 9.976
69.58000 9.688
69.60000 6.555
69.62000 6.715
69.64000 7.322
69.66000 6.691
69.68000 9.738
69.70000 7.820
69.72000 2.819
69.74000 5.805
69.76000 2.700
69.78000 -2.003
69.80000 0.958
69.82000 1.567
69.84000 4.961
69.86000 5.583
69.88000 8.925
69.90000 4.802
69.92000 5.276
69.94000 6.705
69.96000 6.043
69.98000 1.814
70.00000 1.508
70.02000 5.082
70.04000 1.064
70.06000 -2.546
70.08000 -0.743
70.10000 0.780
70.12000 3.019
70.14000 4.175
70.16000 1.583
70.18000 5.518
70.20000 2.378
70.22000 1.631
70.24000 -0.422
70.26000 1.216
70.28000 4.821
70.30000 0.442
70.32000 0.031
70.34000 -1.499
70.36000 -2.553
70.38000 2.885
70.40000 2.153
70.42000 3.849
70.44000 2.383
70.46000 1.140
70.48000 2.285
70.50000 0.877
70.52000 0.669
70.54000 1.706
70.56000 1.176
70.58000 -0.768
70.60000 -0.918
70.62000 -1.573
70.64000 -2.064
70.66000 5.480
70.68000 4.130
70.70000 2.156
70.72000 -2.513
70.74000 1.292
70.76000 -0.683
70.78000 3.529
70.80000 -0.271
70.82000 -1.274
70.84000 1.226
70.86000 4.828
70.88000 -2.236
70.90000 -1.840
70.92000 -1.517
70.94000 -0.440
70.96000 1.395
70.98000 -1.562
71.00000 1.365
71.02000 0.860
71.04000 0.149
71.06000 2.244
71.08000 2.688
71.10000 -0.540
71.12000 1.583
71.14000 2.877
71.16000 3.960
71.18000 5.431
71.20000 8.133
71.22000 7.748
71.24000 6.957
71.26000 3.125
71.28000 2.363
71.30000 0.755
71.32000 2.774
71.34000 4.317
71.36000 3.396
71.38000 0.439
71.40000 0.849
71.42000 4.046
71.44000 1.404
71.46000 0.090
71.48000 -2.440
71.50000 2.198
71.52000 5.547
71.54000 4.400
71.56000 2.430
71.58000 2.779
71.60000 2.940
71.62000 0.655
71.64000 2.972
71.66000 4.070
71.68000 4.954
71.70000 1.951
71.72000 3.946
71.74000 3.067
71.76000 1.800
71.78000 3.560
71.80000 0.937
71.82000 -2.426
71.84000 1.945
71.86000 4.047
71.88000 4.813
71.90000 -2.307
71.92000 -1.705
71.94000 1.694
71.96000 7.785
71.98000 3.668
72.00000 4.460
72.02000 2.364
72.04000 2.085
72.06000 2.648
72.08000 -1.247
72.10000 -0.510
72.12000 2.354
72.14000 4.277
72.16000 6.625
72.18000 4.830
72.20000 4.374
72.22000 1.550
72.24000 0.090
72.26000 0.763
72.28000 4.296
72.30000 3.855
72.32000 0.873
72.34000 0.681
72.36000 3.840
72.38000 4.568
72.40000 5.974
72.42000 5.553
72.44000 3.595
72.46000 4.719
72.48000 6.978
72.50000 3.207
72.52000 3.595
72.54000 3.751
72.56000 5.754
72.58000 7.039
72.60000 5.303
72.62000 1.725
72.64000 -0.962
72.66000 1.588
72.68000 1.018
72.70000 3.611
72.72000 2.022
72.74000 1.651
72.76000 1.030
72.78000 1.690
72.80000 11.315
72.82000 5.539
72.84000 -2.354
72.86000 2.564
72.88000 6.778
72.90000 7.750
72.92000 12.494
72.94000 8.904
72.96000 8.033
72.98000 3.777
73.00000 5.579
73.02000 4.692
73.04000 6.675
73.06000 6.164
73.08000 4.053
73.10000 3.392
73.12000 1.369
73.14000 4.465
73.16000 8.841
73.18000 8.752
73.20000 10.744
73.22000 9.590
73.24000 10.849
73.26000 7.724
73.28000 1.219
73.30000 1.642
73.32000 7.349
73.34000 8.356
73.36000 8.293
73.38000 4.762
73.40000 2.166
73.42000 8.730
73.44000 6.290
73.46000 3.316
73.48000 10.073
73.50000 8.402
73.52000 4.744
73.54000 3.510
73.56000 6.780
73.58000 8.387
73.60000 7.504
73.62000 9.307
73.64000 9.328
73.66000 12.925
73.68000 5.629
73.70000 2.743
73.72000 8.499
73.74000 8.175
73.76000 -2.287
73.78000 -1.803
73.80000 4.798
73.82000 7.116
73.84000 6.748
73.86000 8.088
73.88000 7.895
73.90000 9.230
73.92000 10.431
73.94000 7.168
73.96000 5.236
73.98000 1.964
74.00000 8.648
74.02000 8.319
74.04000 7.056
74.06000 7.736
74.08000 10.758
74.10000 10.061
74.12000 3.394
74.14000 5.301
74.16000 5.434
74.18000 5.626
74.20000 3.920
74.22000 -0.925
74.24000 -2.327
74.26000 -1.611
74.28000 -0.235
74.30000 4.410
74.32000 9.932
74.34000 7.753
74.36000 4.128
74.38000 0.463
74.40000 2.632
74.42000 0.615
74.44000 0.933
74.46000 2.748
74.48000 5.697
74.50000 8.043
74.52000 3.873
74.54000 1.878
74.56000 4.837
74.58000 9.632
74.60000 6.033
74.62000 0.415
74.64000 2.683
74.66000 -0.337
74.68000 3.905
74.70000 3.363
74.72000 4.863
74.74000 3.545
74.76000 3.678
74.78000 5.721
74.80000 0.164
74.82000 -1.859
74.84000 5.710
74.86000 6.593
74.88000 1.933
74.90000 4.458
74.92000 1.191
74.94000 3.372
74.96000 4.346
74.98000 1.251
75.00000 -1.152
75.02000 0.334
75.04000 5.874
75.06000 7.386
75.08000 6.752
75.10000 1.672
75.12000 0.316
75.14000 0.256
75.16000 0.362
75.18000 4.641
75.20000 4.268
75.22000 4.706
75.24000 3.376
75.26000 1.494
75.28000 1.837
75.30000 3.882
75.32000 2.941
75.34000 8.086
75.36000 7.248
75.38000 6.531
75.40000 4.263
75.42000 4.024
75.44000 2.521
75.46000 5.381
75.48000 9.783
75.50000 5.551
75.52000 2.560
75.54000 -1.735
75.56000 -2.123
75.58000 5.518
75.60000 7.339
75.62000 1.953
75.64000 1.585
75.66000 4.301
75.68000 3.791
75.70000 3.371
75.72000 0.652
75.74000 4.193
75.76000 5.055
75.78000 8.395
75.80000 5.434
75.82000 0.968
75.84000 0.743
75.86000 3.725
75.88000 5.553
75.90000 5.199
75.92000 1.713
75.94000 -0.321
75.96000 2.210
75.98000 2.688
76.00000 4.441
76.02000 6.620
76.04000 4.903
76.06000 4.137
76.08000 7.974
76.10000 3.261
76.12000 -2.351
76.14000 4.364
76.16000 0.826
76.18000 2.067
76.20000 2.978
76.22000 7.313
76.24000 10.099
76.26000 5.490
76.28000 2.680
76.30000 -0.339
76.32000 4.138
76.34000 4.794
76.36000 4.681
76.38000 4.075
76.40000 7.313
76.42000 3.962
76.44000 3.076
76.46000 4.715
76.48000 7.657
76.50000 6.362
76.52000 -0.357
76.54000 -2.364
76.56000 1.341
76.58000 -0.317
76.60000 2.686
76.62000 5.714
76.64000 4.852
76.66000 2.616
76.68000 5.163
76.70000 0.303
76.72000 -0.501
76.74000 1.638
76.76000 3.897
76.78000 5.387
76.80000 9.257
76.82000 6.620
76.84000 3.114
76.86000 -1.219
76.88000 2.225
76.90000 1.688
76.92000 3.247
76.94000 3.422
76.96000 1.695
76.98000 1.128
77.00000 3.545
77.02000 4.716
77.04000 0.151
77.06000 0.994
77.08000 7.176
77.10000 3.229
77.12000 5.391
77.14000 3.454
77.16000 3.604
77.18000 1.413
77.20000 1.789
77.22000 0.689
77.24000 0.609
77.26000 3.555
77.28000 4.906
77.30000 6.074
77.32000 5.289
77.34000 2.087
77.36000 0.332
77.38000 1.595
77.40000 -0.825
77.42000 2.478
77.44000 1.324
77.46000 -0.985
77.48000 4.176
77.50000 5.391
77.52000 4.921
77.54000 4.339
77.56000 4.565
77.58000 -0.133
77.60000 -2.389
77.62000 -1.160
77.64000 3.393
77.66000 3.979
77.68000 1.312
77.70000 0.423
77.72000 6.209
77.74000 8.116
77.76000 4.514
77.78000 0.035
77.80000 3.042
77.82000 4.832
77.84000 7.090
77.86000 8.077
77.88000 6.856
77.90000 2.806
77.92000 -1.711
77.94000 3.231
77.96000 3.936
77.98000 5.305
78.00000 3.755
78.02000 8.393
78.04000 5.289
78.06000 8.808
78.08000 5.355
78.10000 7.465
78.12000 2.834
78.14000 -0.045
78.16000 1.774
78.18000 2.468
78.20000 3.826
78.22000 2.898
78.24000 5.170
78.26000 4.126
78.28000 0.256
78.30000 -2.395
78.32000 -1.178
78.34000 -0.332
78.36000 2.871
78.38000 1.008
78.40000 -1.903
78.42000 -1.610
78.44000 6.276
78.46000 8.230
78.48000 7.552
78.50000 9.718
78.52000 1.504
78.54000 -1.125
78.56000 4.594
78.58000 5.704
78.60000 3.905
78.62000 3.483
78.64000 2.126
78.66000 -0.741
78.68000 0.725
78.70000 7.402
78.72000 3.536
78.74000 2.431
78.76000 3.014
78.78000 -1.993
78.80000 -2.282
78.82000 1.768
78.84000 -2.048
78.86000 -2.438
78.88000 5.249
78.90000 0.486
78.92000 -0.607
78.94000 3.173
78.96000 -1.100
78.98000 -2.284
79.00000 -0.091
79.02000 1.545
79.04000 4.727
79.06000 2.831
79.08000 -0.131
79.10000 -1.749
79.12000 1.200
79.14000 1.856
79.16000 -0.954
79.18000 1.219
79.20000 4.624
79.22000 0.835
79.24000 2.646
79.26000 -1.094
79.28000 1.743
79.30000 4.498
79.32000 3.501
79.34000 -0.217
79.36000 2.490
79.38000 1.751
79.40000 -1.080
79.42000 2.266
79.44000 1.655
79.46000 4.889
79.48000 5.186
79.50000 2.009
79.52000 2.544
79.54000 0.918
79.56000 -2.124
79.58000 0.714
79.60000 0.758
79.62000 -0.376
79.64000 0.487
79.66000 -1.416
79.68000 -1.936
79.70000 4.207
79.72000 5.309
79.74000 4.802
79.76000 6.351
79.78000 1.037
79.80000 -2.479
79.82000 -1.703
79.84000 0.310
79.86000 3.710
79.88000 -1.126
79.90000 -1.934
79.92000 0.355
79.94000 2.455
79.96000 5.857
79.98000 7.920
80.00000 4.225
80.02000 -0.054
80.04000 1.862
80.06000 1.253
80.08000 -0.331
80.10000 -0.971
80.12000 2.192
80.14000 5.722
80.16000 1.956
80.18000 1.965
80.20000 0.812
80.22000 1.350
80.24000 -0.118
80.26000 2.849
80.28000 5.197
80.30000 6.348
80.32000 1.798
80.34000 3.217
80.36000 1.996
80.38000 1.021
80.40000 4.629
80.42000 -2.364
80.44000 -2.518
80.46000 2.449
80.48000 -0.834
80.50000 0.185
80.52000 6.534
80.54000 8.430
80.56000 3.932
80.58000 4.148
80.60000 6.030
80.62000 7.988
80.64000 4.475
80.66000 3.176
80.68000 2.509
80.70000 3.798
80.72000 4.728
80.74000 4.074
80.76000 4.155
80.78000 2.955
80.80000 4.915
80.82000 3.377
80.84000 2.739
80.86000 3.789
80.88000 1.494
80.90000 0.271
80.92000 -1.232
80.94000 1.313
80.96000 -0.131
80.98000 0.088
81.00000 3.309
81.02000 5.028
81.04000 1.313
81.06000 -1.025
81.08000 -2.039
81.10000 -0.024
81.12000 0.591
81.14000 3.278
81.16000 1.748
81.18000 0.276
81.20000 2.887
81.22000 3.669
81.24000 1.507
81.26000 2.323
81.28000 3.388
81.30000 2.257
81.32000 5.699
81.34000 2.565
81.36000 1.595
81.38000 2.125
81.40000 4.852
81.42000 4.501
81.44000 3.791
81.46000 2.405
81.48000 0.102
81.50000 -0.407
81.52000 1.374
81.54000 4.761
81.56000 5.703
81.58000 7.536
81.60000 6.679
81.62000 3.697
81.64000 4.882
81.66000 4.292
81.68000 5.976
81.70000 4.021
81.72000 4.783
81.74000 3.338
81.76000 5.747
81.78000 3.943
81.80000 7.942
81.82000 4.940
81.84000 4.049
81.86000 7.252
81.88000 5.005
81.90000 3.800
81.92000 8.006
81.94000 7.271
81.96000 9.117
81.98000 14.263
82.00000 10.113
82.02000 6.131
82.04000 11.787
82.06000 13.400
82.08000 11.104
82.10000 9.921
82.12000 11.490
82.14000 9.514
82.16000 5.878
82.18000 6.857
82.20000 13.283
82.22000 8.574
82.24000 15.487
82.26000 11.519
82.28000 11.962
82.30000 18.967
82.32000 18.050
82.34000 17.802
82.36000 17.637
82.38000 14.151
82.40000 14.988
82.42000 17.956
82.44000 20.638
82.46000 16.567
82.48000 21.484
82.50000 23.186
82.52000 17.137
82.54000 15.797
82.56000 16.662
82.58000 12.501
82.60000 17.998
82.62000 20.692
82.64000 24.194
82.66000 18.900
82.68000 19.303
82.70000 23.848
82.72000 28.904
82.74000 23.516
82.76000 24.923
82.78000 24.699
82.80000 23.523
82.82000 21.896
82.84000 22.537
82.86000 22.614
82.88000 19.798
82.90000 17.774
82.92000 17.826
82.94000 20.592
82.96000 20.508
82.98000 20.492
83.00000 15.824
83.02000 21.258
83.04000 17.494
83.06000 22.011
83.08000 20.627
83.10000 20.505
83.12000 25.925
83.14000 26.619
83.16000 20.651
83.18000 21.374
83.20000 20.266
83.22000 21.519
83.24000 24.229
83.26000 21.507
83.28000 19.283
83.30000 19.086
83.32000 18.910
83.34000 19.253
83.36000 18.467
83.38000 13.738
83.40000 17.124
83.42000 24.011
83.44000 23.922
83.46000 21.694
83.48000 22.679
83.50000 18.509
83.52000 15.719
83.54000 17.265
83.56000 17.713
83.58000 19.559
83.60000 15.930
83.62000 12.251
83.64000 15.938
83.66000 13.063
83.68000 8.431
83.70000 11.300
83.72000 10.083
83.74000 9.109
83.76000 12.126
83.78000 9.389
83.80000 10.167
83.82000 10.023
83.84000 5.866
83.86000 8.048
83.88000 9.611
83.90000 5.890
83.92000 7.386
83.94000 7.320
83.96000 8.979
83.98000 1.505
84.00000 3.195
84.02000 3.745
84.04000 7.525
84.06000 4.148
84.08000 5.225
84.10000 3.701
84.12000 -2.612
84.14000 0.166
84.16000 -0.766
84.18000 3.971
84.20000 7.062
84.22000 4.738
84.24000 5.604
84.26000 3.213
84.28000 2.391
84.30000 3.058
84.32000 0.466
84.34000 3.936
84.36000 3.034
84.38000 3.991
84.40000 2.367
84.42000 5.160
84.44000 5.925
84.46000 6.643
84.48000 5.977
84.50000 0.911
84.52000 1.529
84.54000 0.332
84.56000 -0.327
84.58000 3.017
84.60000 2.949
84.62000 3.127
84.64000 5.013
84.66000 5.850
84.68000 7.079
84.70000 4.144
84.72000 5.252
84.74000 0.236
84.76000 -1.605
84.78000 -2.139
84.80000 -2.109
84.82000 -2.536
84.84000 -0.733
84.86000 2.157
84.88000 0.672
84.90000 -1.272
84.92000 0.337
84.94000 -0.056
84.96000 4.443
84.98000 3.943
85.00000 3.008
85.02000 -1.622
85.04000 -1.004
85.06000 -1.690
85.08000 -2.259
85.10000 0.191
85.12000 -0.082
85.14000 0.102
85.16000 1.283
85.18000 5.160
85.20000 2.523
85.22000 2.150
85.24000 1.668
85.26000 -1.958
85.28000 -1.943
85.30000 0.049
85.32000 3.325
85.34000 7.553
85.36000 6.490
85.38000 1.216
85.40000 2.192
85.42000 3.694
85.44000 5.748
85.46000 0.781
85.48000 3.245
85.50000 1.081
85.52000 -2.471
85.54000 -2.242
85.56000 -0.695
85.58000 -2.171
85.60000 0.223
85.62000 0.505
85.64000 -2.477
85.66000 -1.014
85.68000 2.812
85.70000 2.325
85.72000 4.570
85.74000 3.794
85.76000 -1.158
85.78000 1.383
85.80000 5.463
85.82000 5.667
85.84000 2.555
85.86000 3.476
85.88000 3.283
85.90000 3.134
85.92000 3.101
85.94000 4.637
85.96000 9.381
85.98000 5.063
86.00000 -0.951
86.02000 1.552
86.04000 4.123
86.06000 1.003
86.08000 0.429
86.10000 2.220
86.12000 0.002
86.14000 5.220
86.16000 3.303
86.18000 0.759
86.20000 -0.854
86.22000 3.726
86.24000 4.197
86.26000 3.379
86.28000 0.816
86.30000 9.345
86.32000 7.749
86.34000 6.571
86.36000 6.673
86.38000 5.460
86.40000 1.262
86.42000 -1.821
86.44000 6.441
86.46000 8.745
86.48000 7.147
86.50000 6.895
86.52000 4.574
86.54000 3.737
86.56000 5.709
86.58000 12.478
86.60000 14.783
86.62000 12.592
86.64000 9.746
86.66000 5.161
86.68000 7.450
86.70000 5.343
86.72000 7.235
86.74000 11.826
86.76000 9.656
86.78000 7.832
86.80000 8.653
86.82000 14.909
86.84000 20.781
86.86000 16.858
86.88000 9.020
86.90000 12.646
86.92000 14.241
86.94000 12.028
86.96000 12.523
86.98000 14.347
87.00000 14.146
87.02000 20.930
87.04000 17.531
87.06000 18.157
87.08000 12.162
87.10000 10.644
87.12000 14.430
87.14000 17.804
87.16000 18.878
87.18000 17.599
87.20000 15.602
87.22000 16.049
87.24000 16.999
87.26000 19.871
87.28000 21.938
87.30000 20.140
87.32000 21.276
87.34000 18.793
87.36000 18.826
87.38000 17.933
87.40000 20.082
87.42000 21.485
87.44000 18.282
87.46000 14.147
87.48000 17.272
87.50000 17.900
87.52000 22.016
87.54000 20.752
87.56000 22.544
87.58000 19.583
87.60000 19.165
87.62000 17.940
87.64000 16.360
87.66000 17.566
87.68000 18.987
87.70000 18.711
87.72000 14.485
87.74000 20.917
87.76000 20.481
87.78000 17.500
87.80000 16.592
87.82000 11.184
87.84000 11.411
87.86000 17.096
87.88000 19.264
87.90000 14.597
87.92000 18.214
87.94000 13.723
87.96000 13.124
87.98000 11.562
88.00000 14.024
88.02000 9.834
88.04000 10.812
88.06000 13.109
88.08000 15.369
88.10000 8.315
88.12000 14.794
88.14000 11.011
88.16000 14.544
88.18000 13.863
88.20000 15.062
88.22000 12.594
88.24000 11.368
88.26000 8.280
88.28000 7.381
88.30000 9.217
88.32000 6.521
88.34000 6.273
88.36000 12.384
88.38000 18.557
88.40000 15.958
88.42000 7.198
88.44000 3.996
88.46000 5.311
88.48000 1.332
88.50000 5.104
88.52000 7.136
88.54000 4.336
88.56000 13.703
88.58000 5.590
88.60000 3.086
88.62000 1.106
88.64000 0.174
88.66000 -1.741
88.68000 3.513
88.70000 3.490
88.72000 11.381
88.74000 8.825
88.76000 5.427
88.78000 4.891
88.80000 8.978
88.82000 7.018
88.84000 4.869
88.86000 7.108
88.88000 5.120
88.90000 7.548
88.92000 2.531
88.94000 3.025
88.96000 4.844
88.98000 -2.319
89.00000 -0.680
89.02000 7.432
89.04000 4.472
89.06000 6.324
89.08000 7.884
89.10000 11.481
89.12000 12.987
89.14000 10.463
89.16000 4.591
89.18000 8.716
89.20000 9.392
89.22000 7.455
89.24000 1.492
89.26000 -1.463
89.28000 -0.235
89.30000 0.881
89.32000 -2.281
89.34000 2.802
89.36000 9.517
89.38000 5.907
89.40000 0.152
89.42000 2.643
89.44000 3.601
89.46000 1.972
89.48000 3.545
89.50000 9.457
89.52000 8.450
89.54000 7.863
89.56000 9.447
89.58000 4.334
89.60000 2.676
89.62000 3.054
89.64000 -1.028
89.66000 0.942
89.68000 0.665
89.70000 3.015
89.72000 3.230
89.74000 0.241
89.76000 0.467
89.78000 2.861
89.80000 3.523
89.82000 3.534
89.84000 -1.643
89.86000 2.133
89.88000 6.971
89.90000 4.746
89.92000 -1.135
89.94000 0.048
89.96000 -1.488
89.98000 -1.959
90.00000 0.286
90.02000 2.248
90.04000 5.569
90.06000 6.277
90.08000 -0.443
90.10000 -0.833
90.12000 2.805
90.14000 2.447
90.16000 3.544
90.18000 8.149
90.20000 6.327
90.22000 8.833
90.24000 5.113
90.26000 7.288
90.28000 4.199
90.30000 6.347
90.32000 4.357
90.34000 4.348
90.36000 3.403
90.38000 1.202
90.40000 5.072
90.42000 8.225
90.44000 2.192
90.46000 -0.948
90.48000 4.045
90.50000 1.752
90.52000 1.056
90.54000 1.617
90.56000 0.239
90.58000 1.968
90.60000 2.915
90.62000 6.145
90.64000 4.359
90.66000 5.900
90.68000 6.082
90.70000 0.087
90.72000 -2.214
90.74000 4.281
90.76000 10.992
90.78000 7.859
90.80000 9.845
90.82000 6.705
90.84000 5.133
90.86000 3.814
90.88000 2.872
90.90000 5.435
90.92000 2.339
90.94000 4.705
90.96000 6.936
90.98000 5.288
91.00000 4.154
91.02000 8.327
91.04000 4.590
91.06000 -0.894
91.08000 -0.258
91.10000 0.218
91.12000 0.893
91.14000 2.756
91.16000 5.425
91.18000 2.376
91.20000 -1.033
91.22000 2.721
91.24000 -0.685
91.26000 2.115
91.28000 4.018
91.30000 3.434
91.32000 2.366
91.34000 2.658
91.36000 3.418
91.38000 7.794
91.40000 1.767
91.42000 -0.450
91.44000 4.313
91.46000 2.974
91.48000 5.423
91.50000 7.376
91.52000 1.913
91.54000 -2.057
91.56000 1.463
91.58000 -0.765
91.60000 1.302
91.62000 4.220
91.64000 3.517
91.66000 5.015
91.68000 4.606
91.70000 9.303
91.72000 1.940
91.74000 -0.315
91.76000 1.055
91.78000 3.655
91.80000 3.818
91.82000 3.885
91.84000 4.856
91.86000 0.706
91.88000 -2.255
91.90000 -2.233
91.92000 2.530
91.94000 3.190
91.96000 3.480
91.98000 4.989
92.00000 3.969
92.02000 -1.205
92.04000 -2.257
92.06000 1.664
92.08000 -0.147
92.10000 3.650
92.12000 4.816
92.14000 2.749
92.16000 -0.986
92.18000 6.111
92.20000 5.360
92.22000 4.936
92.24000 4.291
92.26000 4.722
92.28000 8.808
92.30000 9.050
92.32000 -1.855
92.34000 2.893
92.36000 4.933
92.38000 6.892
92.40000 4.541
92.42000 0.709
92.44000 0.916
92.46000 0.104
92.48000 1.651
92.50000 3.333
92.52000 2.777
92.54000 3.344
92.56000 3.669
92.58000 2.542
92.60000 8.461
92.62000 3.545
92.64000 -0.967
92.66000 0.053
92.68000 4.244
92.70000 3.743
92.72000 5.124
92.74000 9.243
92.76000 2.557
92.78000 -2.269
92.80000 0.857
92.82000 -0.934
92.84000 2.601
92.86000 1.034
92.88000 3.904
92.90000 3.037
92.92000 0.297
92.94000 2.964
92.96000 6.916
92.98000 3.751
93.00000 2.277
93.02000 2.978
93.04000 1.822
93.06000 0.073
93.08000 0.539
93.10000 2.175
93.12000 7.172
93.14000 6.538
93.16000 1.523
93.18000 0.084
93.20000 0.228
93.22000 -2.275
93.24000 -1.082
93.26000 -1.188
93.28000 1.567
93.30000 3.143
93.32000 1.041
93.34000 2.803
93.36000 -1.219
93.38000 -0.883
93.40000 1.276
93.42000 1.818
93.44000 0.997
93.46000 4.874
93.48000 5.807
93.50000 1.652
93.52000 3.052
93.54000 2.801
93.56000 4.172
93.58000 5.975
93.60000 5.964
93.62000 5.475
93.64000 3.607
93.66000 7.028
93.68000 3.641
93.70000 0.494
93.72000 3.805
93.74000 2.017
93.76000 3.907
93.78000 3.215
93.80000 4.244
93.82000 5.309
93.84000 5.827
93.86000 0.289
93.88000 0.870
93.90000 2.541
93.92000 4.930
93.94000 2.570
93.96000 0.841
93.98000 -2.284
94.00000 4.701
94.02000 2.349
94.04000 -0.172
94.06000 4.566
94.08000 3.402
94.10000 2.716
94.12000 3.086
94.14000 2.469
94.16000 1.706
94.18000 3.845
94.20000 8.793
94.22000 3.077
94.24000 1.169
94.26000 4.484
94.28000 3.017
94.30000 6.609
94.32000 0.831
94.34000 0.270
94.36000 0.439
94.38000 1.883
94.40000 -0.757
94.42000 2.513
94.44000 7.640
94.46000 5.309
94.48000 3.822
94.50000 3.675
94.52000 5.152
94.54000 7.676
94.56000 6.170
94.58000 1.352
94.60000 0.018
94.62000 1.274
94.64000 3.411
94.66000 3.086
94.68000 4.913
94.70000 6.354
94.72000 0.818
94.74000 -1.289
94.76000 2.098
94.78000 10.556
94.80000 9.475
94.82000 5.176
94.84000 -0.595
94.86000 1.370
94.88000 0.135
94.90000 -1.754
94.92000 4.528
94.94000 1.013
94.96000 0.347
94.98000 5.336
95.00000 7.251
95.02000 4.520
95.04000 5.456
95.06000 9.146
95.08000 4.658
95.10000 4.216
95.12000 5.302
95.14000 -0.610
95.16000 0.750
95.18000 0.920
95.20000 1.090
95.22000 4.717
95.24000 0.969
95.26000 2.692
95.28000 0.644
95.30000 2.895
95.32000 5.593
95.34000 4.332
95.36000 2.447
95.38000 5.678
95.40000 1.523
95.42000 1.331
95.44000 1.665
95.46000 1.247
95.48000 1.369
95.50000 2.008
95.52000 1.942
95.54000 2.434
95.56000 1.988
95.58000 -1.203
95.60000 -2.255
95.62000 -0.689
95.64000 2.834
95.66000 0.357
95.68000 2.874
95.70000 8.471
95.72000 7.712
95.74000 10.206
95.76000 6.586
95.78000 2.258
95.80000 -0.850
95.82000 0.611
95.84000 2.353
95.86000 4.756
95.88000 12.576
95.90000 7.188
95.92000 7.898
95.94000 8.288
95.96000 -1.819
95.98000 3.924
96.00000 9.074
96.02000 6.165
96.04000 1.362
96.06000 0.594
96.08000 6.109
96.10000 5.721
96.12000 5.303
96.14000 9.572
96.16000 5.115
96.18000 2.454
96.20000 5.223
96.22000 6.793
96.24000 7.528
96.26000 5.026
96.28000 3.721
96.30000 4.993
96.32000 0.631
96.34000 2.033
96.36000 4.999
96.38000 -0.654
96.40000 3.304
96.42000 -1.074
96.44000 2.306
96.46000 3.595
96.48000 0.080
96.50000 8.274
96.52000 8.221
96.54000 10.820
96.56000 8.268
96.58000 2.611
96.60000 5.226
96.62000 7.491
96.64000 8.094
96.66000 4.419
96.68000 7.481
96.70000 7.359
96.72000 4.129
96.74000 9.225
96.76000 11.197
96.78000 6.870
96.80000 3.843
96.82000 6.048
96.84000 10.343
96.86000 12.739
96.88000 6.854
96.90000 6.954
96.92000 7.557
96.94000 3.537
96.96000 0.903
96.98000 3.265
97.00000 -2.236
97.02000 -0.927
97.04000 7.478
97.06000 5.410
97.08000 4.191
97.10000 3.896
97.12000 2.482
97.14000 4.272
97.16000 1.754
97.18000 5.968
97.20000 2.616
97.22000 8.038
97.24000 8.239
97.26000 6.938
97.28000 5.435
97.30000 2.013
97.32000 5.960
97.34000 9.345
97.36000 8.373
97.38000 6.278
97.40000 8.660
97.42000 9.623
97.44000 5.354
97.46000 7.498
97.48000 1.132
97.50000 2.703
97.52000 7.218
97.54000 8.444
97.56000 9.735
97.58000 7.901
97.60000 2.749
97.62000 5.383
97.64000 1.450
97.66000 0.970
97.68000 4.695
97.70000 9.350
97.72000 6.340
97.74000 7.370
97.76000 10.786
97.78000 -0.601
97.80000 3.339
97.82000 10.559
97.84000 16.711
97.86000 16.616
97.88000 6.085
97.90000 1.144
97.92000 -0.151
97.94000 -0.645
97.96000 -2.024
97.98000 3.573
98.00000 5.994
98.02000 9.938
98.04000 8.316
98.06000 10.626
98.08000 6.733
98.10000 5.388
98.12000 2.856
98.14000 3.322
98.16000 2.078
98.18000 4.763
98.20000 9.523
98.22000 13.393
98.24000 2.994
98.26000 -0.363
98.28000 4.204
98.30000 3.575
98.32000 6.353
98.34000 -1.244
98.36000 5.779
98.38000 2.781
98.40000 -2.194
98.42000 3.466
98.44000 7.606
98.46000 6.328
98.48000 5.456
98.50000 3.851
98.52000 4.430
98.54000 7.453
98.56000 1.577
98.58000 9.569
98.60000 6.858
98.62000 4.447
98.64000 8.771
98.66000 13.395
98.68000 21.195
98.70000 5.921
98.72000 3.771
98.74000 7.379
98.76000 4.599
98.78000 6.307
98.80000 5.153
98.82000 3.339
98.84000 4.257
98.86000 -0.327
98.88000 0.633
98.90000 12.020
98.92000 14.900
98.94000 20.304
98.96000 12.212
98.98000 9.896
99.00000 7.405
99.02000 7.756
99.04000 15.578
99.06000 10.012
99.08000 10.945
99.10000 11.980
99.12000 5.319
99.14000 -2.159
99.16000 5.561
99.18000 6.348
99.20000 0.686
99.22000 1.326
99.24000 10.714
99.26000 14.873
99.28000 17.399
99.30000 8.525
99.32000 10.280
99.34000 15.785
99.36000 3.054
99.38000 5.283
99.40000 7.363
99.42000 2.071
99.44000 4.122
99.46000 4.609
99.48000 4.319
99.50000 -1.741
99.52000 1.295
99.54000 -2.211
99.56000 -1.840
99.58000 -0.766
99.60000 5.761
99.62000 15.904
99.64000 10.587
99.66000 2.339
99.68000 7.490
99.70000 -0.590
99.72000 -1.591
99.74000 -2.244
99.76000 8.742
99.78000 6.508
99.80000 -0.791
99.82000 1.613
99.84000 -4.074
99.86000 8.398
99.88000 -2.450
99.90000 3.137
99.92000 0.457
99.94000 2.364
99.96000 -2.536
99.98000 0.000
