'Id: "0011387" Comment: "Integrate frame 0011387_Au-Ir-Rh_Rh-rich_XRD-Mapping-155-0000.gfrmwith cursor Wedge Cursor #5" Operator: "B?rgel" Anode: "Cu" Wavelength: "1.5406" Scantype: "2Theta (TwoTheta)" TimePerStep: "1" X: "40.5" Y: "-4.5" Z: "5.95" 
10.00000 0.000
10.02000 1.476
10.04000 -2.954
10.06000 4.054
10.08000 0.239
10.10000 4.490
10.12000 10.211
10.14000 3.412
10.16000 10.654
10.18000 8.177
10.20000 5.323
10.22000 14.255
10.24000 10.904
10.26000 8.802
10.28000 25.645
10.30000 22.628
10.32000 6.136
10.34000 19.837
10.36000 15.945
10.38000 17.507
10.40000 11.872
10.42000 22.127
10.44000 29.244
10.46000 20.478
10.48000 10.167
10.50000 3.898
10.52000 1.788
10.54000 10.617
10.56000 5.923
10.58000 11.272
10.60000 29.518
10.62000 26.265
10.64000 18.072
10.66000 16.458
10.68000 17.514
10.70000 16.819
10.72000 31.822
10.74000 31.279
10.76000 35.294
10.78000 25.056
10.80000 22.195
10.82000 25.004
10.84000 24.145
10.86000 25.715
10.88000 26.458
10.90000 31.430
10.92000 34.203
10.94000 30.352
10.96000 25.476
10.98000 26.685
11.00000 18.775
11.02000 23.678
11.04000 37.282
11.06000 22.499
11.08000 19.814
11.10000 24.804
11.12000 33.447
11.14000 36.864
11.16000 23.969
11.18000 28.887
11.20000 33.833
11.22000 31.170
11.24000 34.938
11.26000 42.487
11.28000 37.220
11.30000 30.840
11.32000 34.042
11.34000 35.543
11.36000 32.553
11.38000 27.991
11.40000 36.577
11.42000 44.091
11.44000 37.283
11.46000 36.214
11.48000 30.270
11.50000 35.862
11.52000 35.591
11.54000 26.660
11.56000 38.734
11.58000 43.189
11.60000 44.890
11.62000 30.277
11.64000 38.194
11.66000 42.658
11.68000 44.763
11.70000 45.170
11.72000 47.673
11.74000 44.706
11.76000 53.514
11.78000 54.958
11.80000 49.574
11.82000 53.544
11.84000 45.491
11.86000 36.846
11.88000 43.381
11.90000 43.155
11.92000 44.726
11.94000 49.128
11.96000 37.345
11.98000 46.714
12.00000 39.921
12.02000 38.555
12.04000 38.840
12.06000 40.335
12.08000 46.741
12.10000 41.171
12.12000 41.012
12.14000 40.542
12.16000 38.728
12.18000 37.706
12.20000 47.323
12.22000 54.721
12.24000 58.804
12.26000 50.925
12.28000 44.959
12.30000 46.866
12.32000 52.531
12.34000 41.029
12.36000 40.701
12.38000 41.964
12.40000 53.521
12.42000 49.349
12.44000 54.897
12.46000 60.028
12.48000 63.426
12.50000 58.691
12.52000 50.637
12.54000 57.793
12.56000 58.003
12.58000 41.955
12.60000 46.957
12.62000 50.971
12.64000 49.035
12.66000 48.238
12.68000 56.484
12.70000 60.532
12.72000 55.199
12.74000 47.060
12.76000 55.316
12.78000 55.985
12.80000 59.173
12.82000 62.849
12.84000 58.906
12.86000 54.842
12.88000 51.126
12.90000 55.054
12.92000 55.266
12.94000 50.434
12.96000 50.429
12.98000 58.217
13.00000 64.452
13.02000 53.714
13.04000 41.505
13.06000 53.978
13.08000 59.447
13.10000 43.411
13.12000 56.027
13.14000 53.518
13.16000 52.478
13.18000 56.680
13.20000 51.366
13.22000 51.834
13.24000 57.120
13.26000 51.042
13.28000 51.385
13.30000 60.279
13.32000 54.550
13.34000 51.719
13.36000 41.686
13.38000 45.196
13.40000 35.662
13.42000 44.101
13.44000 47.792
13.46000 48.763
13.48000 60.207
13.50000 49.559
13.52000 47.556
13.54000 54.873
13.56000 53.675
13.58000 53.812
13.60000 50.931
13.62000 40.153
13.64000 39.795
13.66000 42.942
13.68000 50.763
13.70000 47.794
13.72000 46.932
13.74000 56.544
13.76000 61.344
13.78000 48.908
13.80000 45.547
13.82000 46.457
13.84000 47.219
13.86000 50.635
13.88000 52.422
13.90000 52.841
13.92000 51.428
13.94000 49.570
13.96000 49.115
13.98000 46.467
14.00000 41.199
14.02000 47.788
14.04000 52.679
14.06000 41.372
14.08000 34.641
14.10000 37.755
14.12000 42.285
14.14000 49.139
14.16000 53.233
14.18000 51.888
14.20000 40.382
14.22000 39.183
14.24000 44.044
14.26000 48.091
14.28000 44.675
14.30000 40.641
14.32000 43.980
14.34000 47.803
14.36000 40.669
14.38000 43.781
14.40000 43.529
14.42000 40.625
14.44000 38.077
14.46000 33.596
14.48000 36.920
14.50000 34.568
14.52000 39.479
14.54000 27.915
14.56000 30.955
14.58000 43.903
14.60000 46.678
14.62000 45.669
14.64000 46.329
14.66000 45.309
14.68000 37.679
14.70000 37.667
14.72000 43.339
14.74000 41.994
14.76000 33.901
14.78000 28.321
14.80000 28.414
14.82000 32.807
14.84000 31.112
14.86000 32.831
14.88000 35.075
14.90000 27.134
14.92000 31.403
14.94000 45.210
14.96000 37.040
14.98000 37.822
15.00000 42.531
15.02000 33.611
15.04000 25.175
15.06000 28.361
15.08000 31.555
15.10000 32.232
15.12000 32.905
15.14000 35.882
15.16000 36.703
15.18000 37.278
15.20000 37.476
15.22000 33.143
15.24000 30.693
15.26000 32.196
15.28000 36.517
15.30000 38.262
15.32000 37.618
15.34000 36.332
15.36000 32.521
15.38000 27.591
15.40000 28.849
15.42000 30.020
15.44000 33.985
15.46000 35.202
15.48000 29.647
15.50000 31.872
15.52000 30.872
15.54000 25.760
15.56000 31.691
15.58000 43.833
15.60000 31.803
15.62000 35.939
15.64000 39.306
15.66000 30.015
15.68000 26.430
15.70000 28.615
15.72000 31.432
15.74000 27.870
15.76000 25.215
15.78000 24.685
15.80000 24.318
15.82000 28.478
15.84000 33.211
15.86000 32.866
15.88000 24.664
15.90000 23.032
15.92000 27.075
15.94000 16.285
15.96000 20.546
15.98000 27.377
16.00000 26.030
16.02000 29.107
16.04000 27.148
16.06000 28.038
16.08000 26.116
16.10000 19.310
16.12000 27.850
16.14000 29.528
16.16000 22.194
16.18000 16.949
16.20000 25.736
16.22000 21.003
16.24000 21.628
16.26000 20.688
16.28000 19.612
16.30000 17.633
16.32000 15.650
16.34000 6.241
16.36000 5.614
16.38000 17.185
16.40000 23.749
16.42000 20.192
16.44000 19.336
16.46000 17.578
16.48000 18.197
16.50000 26.820
16.52000 24.610
16.54000 26.636
16.56000 8.136
16.58000 18.053
16.60000 23.137
16.62000 19.741
16.64000 23.248
16.66000 20.365
16.68000 18.798
16.70000 21.646
16.72000 22.805
16.74000 30.560
16.76000 22.243
16.78000 21.093
16.80000 23.455
16.82000 14.034
16.84000 12.947
16.86000 12.996
16.88000 13.340
16.90000 9.474
16.92000 15.502
16.94000 16.795
16.96000 16.106
16.98000 20.500
17.00000 19.607
17.02000 19.114
17.04000 20.307
17.06000 8.797
17.08000 9.495
17.10000 15.465
17.12000 14.464
17.14000 7.729
17.16000 20.300
17.18000 25.952
17.20000 15.789
17.22000 11.127
17.24000 10.274
17.26000 12.090
17.28000 18.912
17.30000 16.558
17.32000 13.457
17.34000 16.309
17.36000 10.773
17.38000 13.246
17.40000 18.314
17.42000 11.700
17.44000 12.880
17.46000 18.461
17.48000 15.722
17.50000 11.213
17.52000 16.150
17.54000 7.126
17.56000 8.441
17.58000 13.835
17.60000 17.459
17.62000 12.238
17.64000 14.198
17.66000 20.755
17.68000 15.075
17.70000 9.053
17.72000 10.644
17.74000 5.087
17.76000 9.062
17.78000 8.884
17.80000 6.790
17.82000 12.219
17.84000 15.332
17.86000 14.106
17.88000 8.438
17.90000 8.743
17.92000 5.837
17.94000 5.595
17.96000 11.407
17.98000 14.591
18.00000 8.945
18.02000 4.386
18.04000 0.013
18.06000 6.606
18.08000 5.916
18.10000 11.850
18.12000 13.370
18.14000 10.694
18.16000 11.133
18.18000 10.586
18.20000 11.594
18.22000 11.219
18.24000 9.961
18.26000 12.942
18.28000 12.440
18.30000 4.526
18.32000 13.292
18.34000 16.228
18.36000 8.234
18.38000 10.937
18.40000 11.628
18.42000 10.049
18.44000 11.793
18.46000 5.463
18.48000 1.862
18.50000 8.541
18.52000 6.412
18.54000 5.979
18.56000 5.025
18.58000 5.509
18.60000 8.496
18.62000 9.519
18.64000 3.393
18.66000 4.213
18.68000 6.787
18.70000 10.085
18.72000 10.815
18.74000 12.403
18.76000 7.675
18.78000 3.384
18.80000 1.567
18.82000 0.957
18.84000 1.781
18.86000 10.336
18.88000 13.528
18.90000 10.295
18.92000 10.192
18.94000 6.799
18.96000 -4.187
18.98000 -4.249
19.00000 5.093
19.02000 -0.405
19.04000 6.906
19.06000 9.292
19.08000 3.508
19.10000 4.155
19.12000 2.523
19.14000 4.204
19.16000 11.492
19.18000 7.004
19.20000 7.058
19.22000 8.000
19.24000 7.718
19.26000 11.013
19.28000 10.760
19.30000 5.781
19.32000 11.724
19.34000 10.728
19.36000 4.981
19.38000 6.028
19.40000 5.516
19.42000 0.658
19.44000 5.577
19.46000 7.723
19.48000 7.474
19.50000 5.531
19.52000 10.166
19.54000 11.949
19.56000 5.667
19.58000 9.587
19.60000 11.309
19.62000 7.023
19.64000 3.313
19.66000 7.255
19.68000 5.922
19.70000 7.670
19.72000 7.336
19.74000 -2.260
19.76000 1.023
19.78000 5.244
19.80000 7.863
19.82000 11.975
19.84000 8.760
19.86000 3.145
19.88000 5.096
19.90000 1.853
19.92000 0.948
19.94000 2.720
19.96000 2.740
19.98000 10.799
20.00000 6.395
20.02000 0.724
20.04000 -4.198
20.06000 0.899
20.08000 10.926
20.10000 12.987
20.12000 12.318
20.14000 10.084
20.16000 11.202
20.18000 4.740
20.20000 3.507
20.22000 3.003
20.24000 3.167
20.26000 9.930
20.28000 8.574
20.30000 9.469
20.32000 7.419
20.34000 2.199
20.36000 1.860
20.38000 -1.363
20.40000 3.506
20.42000 3.615
20.44000 4.469
20.46000 9.988
20.48000 6.670
20.50000 3.499
20.52000 6.424
20.54000 15.216
20.56000 15.558
20.58000 8.308
20.60000 10.355
20.62000 8.990
20.64000 2.906
20.66000 6.074
20.68000 4.647
20.70000 2.582
20.72000 3.423
20.74000 6.038
20.76000 7.799
20.78000 7.102
20.80000 10.285
20.82000 9.046
20.84000 8.154
20.86000 2.060
20.88000 -1.797
20.90000 -2.026
20.92000 2.946
20.94000 3.666
20.96000 2.566
20.98000 2.895
21.00000 2.710
21.02000 5.029
21.04000 0.350
21.06000 1.618
21.08000 2.692
21.10000 -0.579
21.12000 9.080
21.14000 2.092
21.16000 -3.273
21.18000 4.455
21.20000 -0.851
21.22000 0.508
21.24000 3.929
21.26000 7.471
21.28000 8.103
21.30000 -1.360
21.32000 3.966
21.34000 2.663
21.36000 4.345
21.38000 8.107
21.40000 5.753
21.42000 6.709
21.44000 0.990
21.46000 3.745
21.48000 2.811
21.50000 1.160
21.52000 -0.129
21.54000 5.624
21.56000 4.023
21.58000 6.104
21.60000 6.573
21.62000 -2.532
21.64000 -4.141
21.66000 1.151
21.68000 7.420
21.70000 3.137
21.72000 6.273
21.74000 5.229
21.76000 2.275
21.78000 -0.783
21.80000 0.377
21.82000 5.198
21.84000 4.926
21.86000 2.597
21.88000 2.430
21.90000 8.547
21.92000 8.176
21.94000 1.094
21.96000 -3.776
21.98000 -2.664
22.00000 -0.810
22.02000 2.237
22.04000 -2.487
22.06000 -3.221
22.08000 0.613
22.10000 6.498
22.12000 1.747
22.14000 7.384
22.16000 8.957
22.18000 5.599
22.20000 6.442
22.22000 3.220
22.24000 3.012
22.26000 1.918
22.28000 2.996
22.30000 5.237
22.32000 5.800
22.34000 -1.657
22.36000 -3.571
22.38000 2.088
22.40000 2.930
22.42000 -2.401
22.44000 -0.988
22.46000 -1.972
22.48000 2.137
22.50000 8.028
22.52000 4.844
22.54000 -3.658
22.56000 3.325
22.58000 2.046
22.60000 6.228
22.62000 3.270
22.64000 0.977
22.66000 2.924
22.68000 1.446
22.70000 1.378
22.72000 -1.014
22.74000 -1.953
22.76000 -3.211
22.78000 3.450
22.80000 6.591
22.82000 5.830
22.84000 4.462
22.86000 -1.526
22.88000 0.903
22.90000 4.832
22.92000 1.634
22.94000 2.144
22.96000 -0.915
22.98000 -1.100
23.00000 -3.151
23.02000 -1.780
23.04000 -0.808
23.06000 8.367
23.08000 5.777
23.10000 9.242
23.12000 5.878
23.14000 -4.070
23.16000 -2.609
23.18000 3.766
23.20000 2.204
23.22000 1.156
23.24000 2.171
23.26000 -0.547
23.28000 0.872
23.30000 0.641
23.32000 -0.007
23.34000 2.123
23.36000 3.410
23.38000 -2.683
23.40000 0.054
23.42000 4.896
23.44000 9.113
23.46000 2.844
23.48000 2.128
23.50000 6.104
23.52000 2.473
23.54000 -0.274
23.56000 -1.363
23.58000 6.791
23.60000 4.781
23.62000 1.945
23.64000 4.326
23.66000 3.358
23.68000 1.193
23.70000 0.127
23.72000 1.438
23.74000 5.127
23.76000 6.297
23.78000 3.208
23.80000 3.721
23.82000 4.773
23.84000 1.038
23.86000 1.639
23.88000 6.190
23.90000 2.735
23.92000 -4.017
23.94000 1.365
23.96000 7.724
23.98000 3.796
24.00000 -0.472
24.02000 3.943
24.04000 7.231
24.06000 4.630
24.08000 1.336
24.10000 1.533
24.12000 6.560
24.14000 5.937
24.16000 1.985
24.18000 -0.275
24.20000 0.697
24.22000 1.297
24.24000 -1.763
24.26000 10.099
24.28000 6.881
24.30000 1.291
24.32000 -3.113
24.34000 -3.801
24.36000 3.577
24.38000 6.416
24.40000 9.331
24.42000 5.162
24.44000 2.206
24.46000 -0.944
24.48000 -2.736
24.50000 1.484
24.52000 2.278
24.54000 1.199
24.56000 -2.476
24.58000 -2.252
24.60000 -0.587
24.62000 -1.032
24.64000 -3.613
24.66000 5.282
24.68000 8.251
24.70000 1.137
24.72000 -1.228
24.74000 -3.486
24.76000 -0.065
24.78000 2.961
24.80000 2.057
24.82000 3.983
24.84000 2.740
24.86000 2.863
24.88000 2.211
24.90000 5.853
24.92000 5.705
24.94000 2.158
24.96000 1.850
24.98000 3.508
25.00000 0.419
25.02000 2.119
25.04000 3.954
25.06000 5.618
25.08000 1.846
25.10000 1.521
25.12000 2.724
25.14000 5.257
25.16000 3.947
25.18000 6.208
25.20000 8.204
25.22000 2.922
25.24000 -0.366
25.26000 0.072
25.28000 -1.337
25.30000 -1.867
25.32000 -2.261
25.34000 1.323
25.36000 2.317
25.38000 0.507
25.40000 -3.046
25.42000 0.142
25.44000 3.222
25.46000 6.801
25.48000 3.868
25.50000 -1.480
25.52000 -3.936
25.54000 -1.527
25.56000 0.566
25.58000 1.030
25.60000 1.263
25.62000 3.998
25.64000 4.023
25.66000 2.096
25.68000 4.630
25.70000 -1.348
25.72000 -1.864
25.74000 -1.035
25.76000 1.270
25.78000 4.581
25.80000 2.012
25.82000 -0.311
25.84000 2.739
25.86000 -0.972
25.88000 1.170
25.90000 1.547
25.92000 2.226
25.94000 3.424
25.96000 2.253
25.98000 4.102
26.00000 8.737
26.02000 6.036
26.04000 4.275
26.06000 1.919
26.08000 3.570
26.10000 1.450
26.12000 1.699
26.14000 0.547
26.16000 -0.359
26.18000 0.009
26.20000 1.805
26.22000 2.485
26.24000 4.799
26.26000 2.584
26.28000 1.831
26.30000 3.535
26.32000 1.551
26.34000 -1.292
26.36000 -3.877
26.38000 1.199
26.40000 0.702
26.42000 1.648
26.44000 -1.684
26.46000 2.203
26.48000 6.016
26.50000 1.055
26.52000 -3.492
26.54000 -0.154
26.56000 1.676
26.58000 -3.397
26.60000 -2.758
26.62000 2.988
26.64000 5.152
26.66000 4.077
26.68000 4.412
26.70000 9.050
26.72000 5.774
26.74000 1.266
26.76000 5.997
26.78000 2.117
26.80000 3.009
26.82000 0.187
26.84000 1.466
26.86000 5.810
26.88000 3.418
26.90000 -0.197
26.92000 -3.027
26.94000 -3.397
26.96000 -3.861
26.98000 4.877
27.00000 3.120
27.02000 4.868
27.04000 8.225
27.06000 1.263
27.08000 8.255
27.10000 4.221
27.12000 1.705
27.14000 3.003
27.16000 0.261
27.18000 -2.475
27.20000 -0.445
27.22000 2.641
27.24000 1.446
27.26000 3.053
27.28000 4.418
27.30000 3.882
27.32000 2.816
27.34000 1.054
27.36000 -0.398
27.38000 0.569
27.40000 0.617
27.42000 1.538
27.44000 0.420
27.46000 -0.725
27.48000 -3.449
27.50000 1.379
27.52000 -3.431
27.54000 -1.396
27.56000 -0.207
27.58000 2.076
27.60000 0.380
27.62000 -1.840
27.64000 1.720
27.66000 2.967
27.68000 0.756
27.70000 2.630
27.72000 -2.868
27.74000 -2.269
27.76000 0.710
27.78000 4.063
27.80000 -2.478
27.82000 -0.396
27.84000 -1.978
27.86000 0.839
27.88000 -1.911
27.90000 5.274
27.92000 1.719
27.94000 7.047
27.96000 3.554
27.98000 2.818
28.00000 2.950
28.02000 2.712
28.04000 5.438
28.06000 5.203
28.08000 1.735
28.10000 -0.082
28.12000 1.444
28.14000 3.448
28.16000 2.474
28.18000 -2.986
28.20000 -2.295
28.22000 2.486
28.24000 8.407
28.26000 10.148
28.28000 9.715
28.30000 5.481
28.32000 7.191
28.34000 1.930
28.36000 5.365
28.38000 1.027
28.40000 -1.478
28.42000 1.994
28.44000 5.521
28.46000 -3.762
28.48000 -0.345
28.50000 -0.010
28.52000 -0.312
28.54000 8.826
28.56000 3.030
28.58000 2.343
28.60000 4.316
28.62000 3.589
28.64000 0.012
28.66000 4.210
28.68000 2.330
28.70000 5.442
28.72000 9.480
28.74000 6.495
28.76000 1.068
28.78000 -0.618
28.80000 -0.817
28.82000 0.877
28.84000 -0.410
28.86000 1.769
28.88000 3.587
28.90000 1.043
28.92000 0.582
28.94000 4.431
28.96000 7.380
28.98000 -0.098
29.00000 -3.106
29.02000 -3.654
29.04000 -3.040
29.06000 1.069
29.08000 1.060
29.10000 0.877
29.12000 3.185
29.14000 -0.008
29.16000 -1.352
29.18000 2.221
29.20000 6.530
29.22000 1.061
29.24000 -3.736
29.26000 -0.814
29.28000 0.602
29.30000 0.402
29.32000 2.435
29.34000 6.261
29.36000 5.031
29.38000 3.679
29.40000 2.117
29.42000 0.511
29.44000 -0.408
29.46000 2.393
29.48000 2.047
29.50000 -0.943
29.52000 -0.152
29.54000 0.188
29.56000 2.004
29.58000 0.097
29.60000 4.317
29.62000 3.536
29.64000 -2.490
29.66000 0.179
29.68000 1.174
29.70000 3.874
29.72000 2.975
29.74000 1.571
29.76000 4.267
29.78000 5.998
29.80000 4.291
29.82000 1.072
29.84000 -0.894
29.86000 -2.583
29.88000 1.779
29.90000 -0.577
29.92000 -0.099
29.94000 -1.973
29.96000 -1.949
29.98000 5.002
30.00000 4.461
30.02000 2.676
30.04000 1.797
30.06000 7.065
30.08000 2.954
30.10000 1.849
30.12000 -1.195
30.14000 -0.642
30.16000 0.526
30.18000 0.253
30.20000 5.335
30.22000 9.392
30.24000 2.007
30.26000 -2.436
30.28000 -3.672
30.30000 3.887
30.32000 2.099
30.34000 3.935
30.36000 2.087
30.38000 4.877
30.40000 0.933
30.42000 4.122
30.44000 4.979
30.46000 1.526
30.48000 3.463
30.50000 -1.179
30.52000 -1.029
30.54000 3.824
30.56000 4.274
30.58000 3.894
30.60000 2.796
30.62000 1.041
30.64000 1.668
30.66000 -1.067
30.68000 -0.700
30.70000 5.759
30.72000 2.376
30.74000 3.900
30.76000 3.877
30.78000 2.329
30.80000 4.542
30.82000 4.664
30.84000 10.281
30.86000 8.198
30.88000 -1.304
30.90000 2.205
30.92000 1.214
30.94000 1.687
30.96000 1.697
30.98000 0.707
31.00000 3.227
31.02000 2.114
31.04000 -1.878
31.06000 0.217
31.08000 -1.082
31.10000 -3.083
31.12000 0.446
31.14000 4.120
31.16000 2.515
31.18000 2.587
31.20000 1.905
31.22000 0.298
31.24000 -0.206
31.26000 2.250
31.28000 5.804
31.30000 4.818
31.32000 -1.225
31.34000 1.061
31.36000 3.643
31.38000 6.210
31.40000 6.723
31.42000 8.613
31.44000 7.767
31.46000 1.310
31.48000 -3.604
31.50000 0.877
31.52000 6.154
31.54000 8.784
31.56000 13.143
31.58000 12.289
31.60000 12.716
31.62000 9.031
31.64000 3.574
31.66000 7.043
31.68000 5.764
31.70000 1.615
31.72000 3.559
31.74000 8.784
31.76000 11.341
31.78000 7.433
31.80000 7.991
31.82000 1.822
31.84000 -2.617
31.86000 2.709
31.88000 5.272
31.90000 4.347
31.92000 3.143
31.94000 6.112
31.96000 5.585
31.98000 5.943
32.00000 7.490
32.02000 5.309
32.04000 0.980
32.06000 -3.582
32.08000 -3.041
32.10000 2.372
32.12000 0.597
32.14000 2.538
32.16000 3.559
32.18000 2.915
32.20000 -2.917
32.22000 2.337
32.24000 9.599
32.26000 3.833
32.28000 -1.299
32.30000 -3.572
32.32000 -2.908
32.34000 2.308
32.36000 2.086
32.38000 5.823
32.40000 3.898
32.42000 2.353
32.44000 0.813
32.46000 4.512
32.48000 5.221
32.50000 1.235
32.52000 3.649
32.54000 0.031
32.56000 -2.317
32.58000 1.858
32.60000 2.453
32.62000 4.895
32.64000 2.231
32.66000 3.658
32.68000 -0.436
32.70000 -0.090
32.72000 -0.213
32.74000 2.245
32.76000 4.682
32.78000 6.961
32.80000 6.744
32.82000 4.251
32.84000 6.082
32.86000 3.453
32.88000 -0.944
32.90000 -0.550
32.92000 -0.353
32.94000 1.390
32.96000 -1.883
32.98000 -3.581
33.00000 -1.067
33.02000 0.453
33.04000 1.467
33.06000 6.278
33.08000 7.324
33.10000 4.053
33.12000 3.509
33.14000 -0.305
33.16000 1.329
33.18000 0.897
33.20000 -3.049
33.22000 -2.569
33.24000 -0.544
33.26000 2.253
33.28000 0.734
33.30000 6.942
33.32000 4.373
33.34000 3.586
33.36000 -3.578
33.38000 -2.238
33.40000 -2.086
33.42000 0.707
33.44000 4.501
33.46000 2.813
33.48000 1.605
33.50000 6.831
33.52000 1.354
33.54000 0.199
33.56000 -0.054
33.58000 5.003
33.60000 9.356
33.62000 3.070
33.64000 1.113
33.66000 -2.522
33.68000 2.853
33.70000 7.560
33.72000 5.214
33.74000 8.142
33.76000 7.662
33.78000 3.683
33.80000 0.344
33.82000 -3.260
33.84000 -3.010
33.86000 2.338
33.88000 1.224
33.90000 0.439
33.92000 -0.488
33.94000 1.393
33.96000 0.500
33.98000 -1.884
34.00000 -2.206
34.02000 -1.235
34.04000 -1.795
34.06000 2.186
34.08000 2.038
34.10000 5.920
34.12000 0.626
34.14000 0.020
34.16000 0.286
34.18000 -2.212
34.20000 3.431
34.22000 3.087
34.24000 1.425
34.26000 1.059
34.28000 -0.727
34.30000 -3.543
34.32000 -2.203
34.34000 1.602
34.36000 4.177
34.38000 2.767
34.40000 -3.441
34.42000 -0.558
34.44000 1.578
34.46000 2.528
34.48000 1.656
34.50000 2.325
34.52000 -1.042
34.54000 0.301
34.56000 -0.041
34.58000 1.326
34.60000 2.993
34.62000 5.425
34.64000 8.320
34.66000 -0.358
34.68000 -1.231
34.70000 -3.518
34.72000 -0.086
34.74000 4.816
34.76000 2.624
34.78000 0.246
34.80000 -3.467
34.82000 -0.858
34.84000 -2.151
34.86000 -0.270
34.88000 2.438
34.90000 0.329
34.92000 2.850
34.94000 5.311
34.96000 4.272
34.98000 5.702
35.00000 5.317
35.02000 1.198
35.04000 -1.663
35.06000 2.055
35.08000 5.654
35.10000 4.443
35.12000 -0.721
35.14000 1.080
35.16000 2.158
35.18000 -1.307
35.20000 -1.281
35.22000 3.883
35.24000 7.658
35.26000 -1.019
35.28000 -3.377
35.30000 0.496
35.32000 3.024
35.34000 1.097
35.36000 -1.835
35.38000 1.973
35.40000 3.689
35.42000 1.451
35.44000 4.468
35.46000 3.265
35.48000 1.760
35.50000 0.951
35.52000 -2.708
35.54000 1.758
35.56000 -0.219
35.58000 3.844
35.60000 8.390
35.62000 0.854
35.64000 -0.863
35.66000 -0.213
35.68000 -0.004
35.70000 -3.503
35.72000 -3.304
35.74000 -1.335
35.76000 -0.528
35.78000 4.438
35.80000 6.022
35.82000 6.723
35.84000 2.919
35.86000 3.809
35.88000 3.163
35.90000 3.401
35.92000 1.881
35.94000 -2.634
35.96000 -2.324
35.98000 0.905
36.00000 4.309
36.02000 1.501
36.04000 -2.782
36.06000 -2.174
36.08000 -3.327
36.10000 2.991
36.12000 9.483
36.14000 8.283
36.16000 2.024
36.18000 -2.237
36.20000 1.152
36.22000 4.148
36.24000 3.084
36.26000 6.530
36.28000 3.713
36.30000 2.957
36.32000 2.611
36.34000 4.992
36.36000 10.262
36.38000 5.420
36.40000 2.881
36.42000 0.626
36.44000 -0.813
36.46000 0.966
36.48000 2.868
36.50000 -0.055
36.52000 -3.500
36.54000 1.991
36.56000 4.635
36.58000 0.280
36.60000 4.207
36.62000 5.705
36.64000 3.444
36.66000 5.945
36.68000 5.076
36.70000 3.182
36.72000 0.588
36.74000 2.688
36.76000 3.701
36.78000 4.202
36.80000 5.152
36.82000 0.776
36.84000 -2.007
36.86000 0.428
36.88000 4.418
36.90000 3.256
36.92000 3.266
36.94000 4.313
36.96000 3.478
36.98000 2.167
37.00000 -0.962
37.02000 -1.929
37.04000 -3.496
37.06000 1.431
37.08000 6.158
37.10000 6.769
37.12000 2.706
37.14000 2.607
37.16000 1.434
37.18000 1.406
37.20000 4.683
37.22000 5.661
37.24000 4.466
37.26000 9.726
37.28000 3.284
37.30000 -3.425
37.32000 2.941
37.34000 5.011
37.36000 11.703
37.38000 8.108
37.40000 3.131
37.42000 4.030
37.44000 4.127
37.46000 1.099
37.48000 -3.259
37.50000 -0.420
37.52000 -0.442
37.54000 -0.507
37.56000 -3.546
37.58000 -1.263
37.60000 -0.699
37.62000 3.685
37.64000 1.511
37.66000 0.394
37.68000 1.539
37.70000 3.204
37.72000 -0.267
37.74000 0.998
37.76000 4.441
37.78000 6.731
37.80000 4.912
37.82000 4.621
37.84000 2.381
37.86000 2.143
37.88000 2.884
37.90000 4.589
37.92000 1.674
37.94000 4.098
37.96000 4.919
37.98000 5.911
38.00000 9.038
38.02000 10.281
38.04000 9.193
38.06000 12.087
38.08000 11.154
38.10000 8.369
38.12000 10.500
38.14000 9.559
38.16000 7.268
38.18000 10.889
38.20000 10.491
38.22000 11.654
38.24000 9.351
38.26000 7.516
38.28000 10.659
38.30000 15.708
38.32000 14.086
38.34000 13.154
38.36000 10.778
38.38000 8.353
38.40000 12.692
38.42000 13.327
38.44000 14.511
38.46000 17.364
38.48000 18.005
38.50000 19.587
38.52000 16.525
38.54000 12.887
38.56000 16.320
38.58000 15.731
38.60000 16.630
38.62000 17.981
38.64000 17.452
38.66000 12.332
38.68000 18.928
38.70000 21.672
38.72000 19.787
38.74000 16.110
38.76000 19.250
38.78000 18.066
38.80000 18.606
38.82000 21.823
38.84000 20.243
38.86000 18.209
38.88000 23.624
38.90000 31.055
38.92000 29.535
38.94000 23.148
38.96000 20.222
38.98000 24.904
39.00000 26.233
39.02000 27.383
39.04000 29.029
39.06000 27.020
39.08000 26.293
39.10000 32.797
39.12000 33.974
39.14000 31.398
39.16000 35.766
39.18000 38.823
39.20000 37.121
39.22000 41.441
39.24000 41.736
39.26000 43.528
39.28000 44.260
39.30000 38.698
39.32000 41.917
39.34000 44.458
39.36000 48.223
39.38000 51.112
39.40000 53.453
39.42000 56.851
39.44000 59.664
39.46000 61.293
39.48000 60.112
39.50000 65.402
39.52000 68.787
39.54000 75.333
39.56000 74.206
39.58000 74.157
39.60000 84.925
39.62000 95.178
39.64000 90.932
39.66000 97.569
39.68000 101.018
39.70000 103.072
39.72000 102.533
39.74000 113.811
39.76000 122.004
39.78000 124.161
39.80000 133.675
39.82000 151.642
39.84000 156.403
39.86000 163.299
39.88000 174.525
39.90000 182.821
39.92000 190.510
39.94000 202.735
39.96000 206.611
39.98000 217.292
40.00000 232.302
40.02000 246.344
40.04000 262.935
40.06000 267.905
40.08000 287.621
40.10000 309.062
40.12000 324.697
40.14000 336.140
40.16000 355.009
40.18000 368.961
40.20000 384.439
40.22000 403.433
40.24000 420.900
40.26000 441.343
40.28000 459.157
40.30000 470.588
40.32000 488.113
40.34000 498.589
40.36000 518.587
40.38000 530.800
40.40000 539.975
40.42000 553.890
40.44000 566.503
40.46000 569.855
40.48000 572.965
40.50000 576.013
40.52000 581.803
40.54000 578.260
40.56000 577.213
40.58000 568.119
40.60000 569.070
40.62000 562.828
40.64000 560.233
40.66000 543.072
40.68000 533.362
40.70000 518.345
40.72000 515.282
40.74000 490.851
40.76000 470.431
40.78000 459.340
40.80000 446.191
40.82000 430.183
40.84000 417.760
40.86000 410.784
40.88000 386.123
40.90000 372.053
40.92000 346.062
40.94000 335.049
40.96000 324.870
40.98000 308.148
41.00000 298.644
41.02000 282.917
41.04000 265.400
41.06000 244.206
41.08000 227.637
41.10000 221.896
41.12000 219.583
41.14000 208.208
41.16000 191.893
41.18000 183.714
41.20000 176.297
41.22000 163.595
41.24000 150.529
41.26000 145.110
41.28000 140.598
41.30000 134.071
41.32000 129.981
41.34000 124.893
41.36000 113.361
41.38000 103.400
41.40000 98.646
41.42000 96.058
41.44000 95.969
41.46000 92.546
41.48000 84.859
41.50000 76.119
41.52000 68.671
41.54000 68.781
41.56000 68.758
41.58000 66.092
41.60000 60.674
41.62000 56.960
41.64000 55.075
41.66000 52.161
41.68000 47.920
41.70000 47.071
41.72000 49.094
41.74000 45.446
41.76000 37.373
41.78000 35.520
41.80000 36.389
41.82000 34.915
41.84000 36.356
41.86000 33.181
41.88000 35.287
41.90000 31.575
41.92000 25.007
41.94000 25.900
41.96000 25.121
41.98000 21.769
42.00000 24.278
42.02000 20.635
42.04000 17.803
42.06000 17.088
42.08000 18.926
42.10000 18.820
42.12000 17.325
42.14000 14.986
42.16000 14.155
42.18000 14.830
42.20000 12.841
42.22000 12.147
42.24000 12.556
42.26000 10.702
42.28000 20.299
42.30000 15.658
42.32000 13.038
42.34000 12.588
42.36000 6.837
42.38000 2.939
42.40000 5.744
42.42000 7.917
42.44000 6.000
42.46000 6.068
42.48000 7.196
42.50000 8.687
42.52000 8.024
42.54000 4.007
42.56000 3.714
42.58000 3.809
42.60000 3.390
42.62000 3.288
42.64000 2.741
42.66000 1.848
42.68000 0.058
42.70000 0.649
42.72000 6.910
42.74000 6.314
42.76000 4.522
42.78000 0.157
42.80000 1.296
42.82000 3.033
42.84000 -1.515
42.86000 -0.441
42.88000 2.150
42.90000 1.969
42.92000 2.987
42.94000 2.171
42.96000 0.975
42.98000 -0.438
43.00000 -0.683
43.02000 0.850
43.04000 4.445
43.06000 2.822
43.08000 -2.432
43.10000 2.378
43.12000 3.571
43.14000 2.065
43.16000 -2.304
43.18000 -2.965
43.20000 -1.713
43.22000 -1.318
43.24000 -2.611
43.26000 -3.251
43.28000 2.231
43.30000 0.269
43.32000 2.688
43.34000 5.765
43.36000 3.572
43.38000 1.490
43.40000 -0.699
43.42000 -2.308
43.44000 -1.841
43.46000 3.549
43.48000 1.282
43.50000 2.914
43.52000 1.722
43.54000 0.242
43.56000 -0.901
43.58000 -0.104
43.60000 1.831
43.62000 4.724
43.64000 3.797
43.66000 0.831
43.68000 -1.296
43.70000 -3.268
43.72000 -0.020
43.74000 0.061
43.76000 -0.773
43.78000 -0.993
43.80000 -3.372
43.82000 -1.908
43.84000 -0.433
43.86000 1.042
43.88000 -0.747
43.90000 1.799
43.92000 1.061
43.94000 -2.679
43.96000 1.427
43.98000 2.211
44.00000 0.083
44.02000 2.972
44.04000 4.246
44.06000 3.208
44.08000 2.015
44.10000 4.572
44.12000 2.431
44.14000 -1.868
44.16000 -2.283
44.18000 -2.925
44.20000 -3.324
44.22000 1.509
44.24000 3.751
44.26000 1.901
44.28000 0.747
44.30000 -3.189
44.32000 -0.224
44.34000 0.999
44.36000 1.202
44.38000 -1.070
44.40000 2.582
44.42000 2.438
44.44000 0.453
44.46000 0.223
44.48000 2.658
44.50000 0.792
44.52000 -3.322
44.54000 -1.665
44.56000 -1.960
44.58000 0.637
44.60000 1.308
44.62000 -0.324
44.64000 1.653
44.66000 2.938
44.68000 3.622
44.70000 1.414
44.72000 0.350
44.74000 2.981
44.76000 4.528
44.78000 4.884
44.80000 3.955
44.82000 1.343
44.84000 1.951
44.86000 0.829
44.88000 -0.507
44.90000 1.721
44.92000 0.697
44.94000 2.393
44.96000 1.990
44.98000 2.825
45.00000 1.713
45.02000 3.106
45.04000 -0.239
45.06000 1.548
45.08000 5.085
45.10000 -0.108
45.12000 -3.287
45.14000 -1.771
45.16000 0.188
45.18000 5.509
45.20000 4.858
45.22000 4.597
45.24000 7.724
45.26000 6.501
45.28000 3.120
45.30000 1.222
45.32000 2.893
45.34000 7.088
45.36000 7.433
45.38000 3.178
45.40000 3.102
45.42000 2.960
45.44000 2.890
45.46000 0.932
45.48000 8.360
45.50000 11.667
45.52000 9.948
45.54000 7.997
45.56000 6.977
45.58000 4.924
45.60000 -2.085
45.62000 1.372
45.64000 12.822
45.66000 19.373
45.68000 14.849
45.70000 12.413
45.72000 12.891
45.74000 11.333
45.76000 9.924
45.78000 11.567
45.80000 13.326
45.82000 11.590
45.84000 10.593
45.86000 18.559
45.88000 16.336
45.90000 7.085
45.92000 9.913
45.94000 10.406
45.96000 14.317
45.98000 17.976
46.00000 17.437
46.02000 17.568
46.04000 19.471
46.06000 19.679
46.08000 20.273
46.10000 19.604
46.12000 20.612
46.14000 22.086
46.16000 24.227
46.18000 25.508
46.20000 26.858
46.22000 25.720
46.24000 28.146
46.26000 26.355
46.28000 28.124
46.30000 33.753
46.32000 30.282
46.34000 32.458
46.36000 34.887
46.38000 37.628
46.40000 35.285
46.42000 37.082
46.44000 37.075
46.46000 39.487
46.48000 44.360
46.50000 47.646
46.52000 47.999
46.54000 47.037
46.56000 50.042
46.58000 54.980
46.60000 50.042
46.62000 53.551
46.64000 55.654
46.66000 51.933
46.68000 57.702
46.70000 55.081
46.72000 58.427
46.74000 61.263
46.76000 65.116
46.78000 63.982
46.80000 61.514
46.82000 70.717
46.84000 69.233
46.86000 68.844
46.88000 72.018
46.90000 71.536
46.92000 69.563
46.94000 78.273
46.96000 81.105
46.98000 72.489
47.00000 72.775
47.02000 77.724
47.04000 83.166
47.06000 78.644
47.08000 79.489
47.10000 77.506
47.12000 74.547
47.14000 73.476
47.16000 77.320
47.18000 81.308
47.20000 79.352
47.22000 83.007
47.24000 77.991
47.26000 78.504
47.28000 77.310
47.30000 76.588
47.32000 73.416
47.34000 76.315
47.36000 78.064
47.38000 78.031
47.40000 74.411
47.42000 68.834
47.44000 68.137
47.46000 68.853
47.48000 61.600
47.50000 61.562
47.52000 59.410
47.54000 64.818
47.56000 64.489
47.58000 56.752
47.60000 57.417
47.62000 57.344
47.64000 52.709
47.66000 48.386
47.68000 49.530
47.70000 43.535
47.72000 48.585
47.74000 48.681
47.76000 44.360
47.78000 44.267
47.80000 40.335
47.82000 37.029
47.84000 35.899
47.86000 26.586
47.88000 24.675
47.90000 28.076
47.92000 32.407
47.94000 28.377
47.96000 26.242
47.98000 26.904
48.00000 29.948
48.02000 30.255
48.04000 22.675
48.06000 19.961
48.08000 15.772
48.10000 16.868
48.12000 22.665
48.14000 21.546
48.16000 18.302
48.18000 14.485
48.20000 12.021
48.22000 13.004
48.24000 11.631
48.26000 10.819
48.28000 10.557
48.30000 12.290
48.32000 7.066
48.34000 5.820
48.36000 5.404
48.38000 9.484
48.40000 8.510
48.42000 8.238
48.44000 6.286
48.46000 10.108
48.48000 10.590
48.50000 8.441
48.52000 10.358
48.54000 9.227
48.56000 6.960
48.58000 1.166
48.60000 2.545
48.62000 8.130
48.64000 8.664
48.66000 5.189
48.68000 3.600
48.70000 5.206
48.72000 -0.437
48.74000 2.976
48.76000 3.269
48.78000 4.545
48.80000 1.834
48.82000 2.390
48.84000 3.160
48.86000 2.213
48.88000 -0.074
48.90000 -2.965
48.92000 2.179
48.94000 1.896
48.96000 1.507
48.98000 5.312
49.00000 4.618
49.02000 2.342
49.04000 5.879
49.06000 5.884
49.08000 4.601
49.10000 5.086
49.12000 -2.161
49.14000 -1.069
49.16000 6.701
49.18000 6.168
49.20000 2.283
49.22000 1.385
49.24000 4.419
49.26000 2.188
49.28000 2.713
49.30000 2.407
49.32000 2.433
49.34000 0.340
49.36000 -0.437
49.38000 0.130
49.40000 7.051
49.42000 6.104
49.44000 5.809
49.46000 -0.418
49.48000 -0.337
49.50000 1.082
49.52000 -2.687
49.54000 1.781
49.56000 0.655
49.58000 6.030
49.60000 3.030
49.62000 -2.012
49.64000 3.819
49.66000 6.530
49.68000 7.312
49.70000 6.693
49.72000 0.310
49.74000 1.143
49.76000 1.813
49.78000 6.161
49.80000 6.932
49.82000 5.423
49.84000 6.432
49.86000 -0.773
49.88000 0.842
49.90000 5.695
49.92000 3.987
49.94000 6.970
49.96000 4.290
49.98000 2.016
50.00000 4.122
50.02000 5.377
50.04000 7.203
50.06000 8.679
50.08000 6.333
50.10000 2.222
50.12000 8.077
50.14000 10.097
50.16000 5.604
50.18000 -2.697
50.20000 2.279
50.22000 7.729
50.24000 7.028
50.26000 9.269
50.28000 9.152
50.30000 10.421
50.32000 9.198
50.34000 6.433
50.36000 3.948
50.38000 4.810
50.40000 6.047
50.42000 1.988
50.44000 0.770
50.46000 3.452
50.48000 4.693
50.50000 5.965
50.52000 10.419
50.54000 5.554
50.56000 1.600
50.58000 2.374
50.60000 6.585
50.62000 12.927
50.64000 10.521
50.66000 8.743
50.68000 0.558
50.70000 5.354
50.72000 5.566
50.74000 3.885
50.76000 0.174
50.78000 0.459
50.80000 0.203
50.82000 1.032
50.84000 3.213
50.86000 3.672
50.88000 4.719
50.90000 2.837
50.92000 5.357
50.94000 4.029
50.96000 5.227
50.98000 8.395
51.00000 7.663
51.02000 6.983
51.04000 5.822
51.06000 2.543
51.08000 -0.288
51.10000 -0.666
51.12000 0.933
51.14000 0.619
51.16000 8.513
51.18000 8.039
51.20000 6.257
51.22000 6.658
51.24000 5.176
51.26000 3.177
51.28000 1.511
51.30000 4.888
51.32000 10.554
51.34000 7.027
51.36000 5.167
51.38000 3.363
51.40000 5.091
51.42000 3.908
51.44000 -0.968
51.46000 -2.694
51.48000 -0.644
51.50000 2.036
51.52000 1.108
51.54000 4.762
51.56000 5.614
51.58000 4.032
51.60000 2.571
51.62000 3.175
51.64000 3.232
51.66000 0.090
51.68000 4.856
51.70000 4.470
51.72000 2.517
51.74000 2.333
51.76000 2.807
51.78000 1.743
51.80000 4.136
51.82000 0.363
51.84000 2.584
51.86000 3.474
51.88000 5.512
51.90000 2.373
51.92000 6.198
51.94000 7.318
51.96000 2.190
51.98000 4.587
52.00000 7.346
52.02000 4.067
52.04000 4.131
52.06000 3.122
52.08000 0.076
52.10000 3.045
52.12000 3.710
52.14000 4.699
52.16000 6.295
52.18000 1.049
52.20000 4.233
52.22000 5.164
52.24000 3.102
52.26000 0.611
52.28000 -0.428
52.30000 4.373
52.32000 6.401
52.34000 7.252
52.36000 7.237
52.38000 2.414
52.40000 -2.281
52.42000 0.018
52.44000 1.616
52.46000 2.239
52.48000 5.118
52.50000 3.565
52.52000 0.392
52.54000 -0.620
52.56000 1.605
52.58000 2.401
52.60000 2.430
52.62000 2.278
52.64000 6.053
52.66000 7.295
52.68000 4.042
52.70000 2.364
52.72000 3.400
52.74000 4.563
52.76000 3.774
52.78000 5.790
52.80000 5.693
52.82000 2.577
52.84000 0.980
52.86000 3.327
52.88000 4.667
52.90000 6.912
52.92000 5.489
52.94000 1.421
52.96000 2.594
52.98000 4.390
53.00000 4.946
53.02000 1.015
53.04000 3.207
53.06000 2.152
53.08000 2.036
53.10000 2.586
53.12000 1.568
53.14000 6.487
53.16000 6.538
53.18000 1.046
53.20000 -2.596
53.22000 -0.115
53.24000 4.118
53.26000 0.318
53.28000 1.807
53.30000 7.046
53.32000 8.529
53.34000 5.281
53.36000 4.332
53.38000 10.157
53.40000 6.065
53.42000 4.046
53.44000 4.014
53.46000 3.859
53.48000 4.827
53.50000 3.332
53.52000 0.996
53.54000 3.779
53.56000 4.000
53.58000 4.316
53.60000 2.560
53.62000 1.219
53.64000 0.020
53.66000 3.863
53.68000 5.830
53.70000 8.017
53.72000 2.995
53.74000 2.504
53.76000 2.956
53.78000 7.001
53.80000 6.676
53.82000 3.281
53.84000 5.431
53.86000 9.096
53.88000 3.029
53.90000 4.514
53.92000 8.562
53.94000 5.965
53.96000 4.965
53.98000 5.695
54.00000 2.662
54.02000 2.519
54.04000 5.666
54.06000 3.159
54.08000 1.495
54.10000 -1.010
54.12000 2.449
54.14000 1.143
54.16000 2.122
54.18000 2.141
54.20000 2.745
54.22000 2.596
54.24000 6.265
54.26000 4.738
54.28000 0.997
54.30000 -2.604
54.32000 2.824
54.34000 4.795
54.36000 5.891
54.38000 6.848
54.40000 5.689
54.42000 4.976
54.44000 4.844
54.46000 2.230
54.48000 -2.180
54.50000 -0.181
54.52000 6.165
54.54000 4.912
54.56000 6.173
54.58000 4.254
54.60000 4.834
54.62000 1.153
54.64000 0.967
54.66000 5.723
54.68000 3.841
54.70000 4.889
54.72000 3.485
54.74000 2.559
54.76000 3.057
54.78000 4.160
54.80000 3.172
54.82000 2.968
54.84000 -0.054
54.86000 3.727
54.88000 0.217
54.90000 2.897
54.92000 4.192
54.94000 4.369
54.96000 -0.948
54.98000 1.329
55.00000 1.941
55.02000 0.004
55.04000 2.201
55.06000 5.256
55.08000 5.005
55.10000 3.482
55.12000 2.841
55.14000 4.073
55.16000 1.431
55.18000 -1.867
55.20000 -1.657
55.22000 3.832
55.24000 6.738
55.26000 3.158
55.28000 2.885
55.30000 4.592
55.32000 -2.594
55.34000 -0.173
55.36000 1.740
55.38000 -0.199
55.40000 0.625
55.42000 -2.582
55.44000 -1.021
55.46000 -1.607
55.48000 -1.657
55.50000 -0.978
55.52000 -2.168
55.54000 1.645
55.56000 3.780
55.58000 4.264
55.60000 0.521
55.62000 -1.753
55.64000 -0.195
55.66000 -1.400
55.68000 2.693
55.70000 1.659
55.72000 1.486
55.74000 1.294
55.76000 -1.760
55.78000 -2.261
55.80000 0.599
55.82000 3.165
55.84000 2.145
55.86000 1.089
55.88000 1.084
55.90000 0.966
55.92000 5.421
55.94000 4.467
55.96000 -2.368
55.98000 0.119
56.00000 -2.247
56.02000 0.179
56.04000 3.727
56.06000 2.880
56.08000 4.229
56.10000 3.697
56.12000 1.460
56.14000 1.413
56.16000 1.607
56.18000 0.182
56.20000 2.312
56.22000 2.291
56.24000 0.754
56.26000 -0.908
56.28000 4.415
56.30000 2.887
56.32000 1.726
56.34000 -1.097
56.36000 -0.638
56.38000 4.800
56.40000 7.811
56.42000 7.079
56.44000 2.713
56.46000 5.553
56.48000 0.172
56.50000 0.210
56.52000 0.143
56.54000 0.421
56.56000 -0.999
56.58000 1.639
56.60000 3.274
56.62000 1.708
56.64000 1.593
56.66000 2.069
56.68000 2.463
56.70000 2.988
56.72000 4.233
56.74000 3.470
56.76000 4.191
56.78000 3.210
56.80000 0.876
56.82000 0.556
56.84000 0.529
56.86000 -2.546
56.88000 -2.392
56.90000 2.441
56.92000 4.219
56.94000 2.160
56.96000 -0.359
56.98000 -2.038
57.00000 1.611
57.02000 1.854
57.04000 4.867
57.06000 5.277
57.08000 2.149
57.10000 3.008
57.12000 -0.311
57.14000 -0.145
57.16000 -1.473
57.18000 -0.714
57.20000 0.179
57.22000 -1.386
57.24000 1.668
57.26000 -2.150
57.28000 0.060
57.30000 1.918
57.32000 4.170
57.34000 3.211
57.36000 3.006
57.38000 7.157
57.40000 2.600
57.42000 0.530
57.44000 4.759
57.46000 2.695
57.48000 2.451
57.50000 1.123
57.52000 -1.209
57.54000 -0.715
57.56000 0.214
57.58000 1.869
57.60000 3.744
57.62000 2.519
57.64000 0.817
57.66000 -1.920
57.68000 -1.898
57.70000 -0.144
57.72000 1.546
57.74000 3.520
57.76000 -0.077
57.78000 2.171
57.80000 2.489
57.82000 0.430
57.84000 -2.522
57.86000 1.327
57.88000 3.257
57.90000 1.958
57.92000 1.664
57.94000 6.202
57.96000 5.776
57.98000 4.278
58.00000 2.615
58.02000 0.495
58.04000 0.222
58.06000 0.841
58.08000 4.137
58.10000 4.723
58.12000 0.525
58.14000 1.507
58.16000 1.606
58.18000 -1.937
58.20000 3.068
58.22000 10.345
58.24000 5.114
58.26000 -2.497
58.28000 4.766
58.30000 6.847
58.32000 2.595
58.34000 6.878
58.36000 5.932
58.38000 4.848
58.40000 3.586
58.42000 2.599
58.44000 1.908
58.46000 1.329
58.48000 4.799
58.50000 1.866
58.52000 4.226
58.54000 3.165
58.56000 2.482
58.58000 2.306
58.60000 -0.430
58.62000 -0.596
58.64000 -1.742
58.66000 1.638
58.68000 3.087
58.70000 1.516
58.72000 -1.973
58.74000 -1.706
58.76000 3.832
58.78000 2.604
58.80000 1.598
58.82000 8.693
58.84000 8.902
58.86000 -1.294
58.88000 1.456
58.90000 2.269
58.92000 -0.759
58.94000 -0.687
58.96000 0.601
58.98000 -0.739
59.00000 1.523
59.02000 1.689
59.04000 1.026
59.06000 1.389
59.08000 3.646
59.10000 -0.762
59.12000 1.171
59.14000 -1.388
59.16000 -1.256
59.18000 0.247
59.20000 2.527
59.22000 3.722
59.24000 1.836
59.26000 2.325
59.28000 1.702
59.30000 -1.545
59.32000 1.695
59.34000 0.705
59.36000 2.648
59.38000 2.513
59.40000 5.868
59.42000 4.475
59.44000 3.646
59.46000 -2.463
59.48000 -0.791
59.50000 1.602
59.52000 3.837
59.54000 2.991
59.56000 1.186
59.58000 4.488
59.60000 1.716
59.62000 3.173
59.64000 4.553
59.66000 1.786
59.68000 1.580
59.70000 1.919
59.72000 0.276
59.74000 0.319
59.76000 -1.690
59.78000 -1.130
59.80000 0.907
59.82000 1.401
59.84000 2.537
59.86000 4.822
59.88000 1.983
59.90000 -0.214
59.92000 -1.096
59.94000 1.025
59.96000 5.839
59.98000 3.059
60.00000 -0.762
60.02000 2.212
60.04000 3.045
60.06000 2.468
60.08000 0.637
60.10000 0.469
60.12000 1.584
60.14000 1.546
60.16000 2.997
60.18000 2.985
60.20000 4.554
60.22000 4.676
60.24000 4.730
60.26000 4.238
60.28000 7.389
60.30000 3.482
60.32000 0.959
60.34000 2.704
60.36000 0.919
60.38000 5.213
60.40000 4.300
60.42000 2.894
60.44000 1.036
60.46000 0.865
60.48000 -0.984
60.50000 1.703
60.52000 -2.435
60.54000 2.022
60.56000 2.602
60.58000 1.773
60.60000 4.092
60.62000 -0.821
60.64000 -0.631
60.66000 3.161
60.68000 2.685
60.70000 0.704
60.72000 0.670
60.74000 -2.103
60.76000 -2.074
60.78000 -0.085
60.80000 -1.331
60.82000 -0.457
60.84000 0.702
60.86000 3.287
60.88000 2.976
60.90000 0.834
60.92000 -1.457
60.94000 -1.935
60.96000 -0.258
60.98000 1.041
61.00000 2.926
61.02000 1.462
61.04000 0.283
61.06000 1.474
61.08000 3.828
61.10000 4.481
61.12000 1.099
61.14000 1.631
61.16000 1.089
61.18000 -0.175
61.20000 0.565
61.22000 2.300
61.24000 1.662
61.26000 0.589
61.28000 -2.212
61.30000 -0.408
61.32000 -1.273
61.34000 -0.488
61.36000 -0.143
61.38000 -1.172
61.40000 -0.473
61.42000 2.666
61.44000 0.924
61.46000 2.383
61.48000 0.323
61.50000 1.006
61.52000 1.774
61.54000 -1.316
61.56000 -1.636
61.58000 1.318
61.60000 0.257
61.62000 2.279
61.64000 3.718
61.66000 3.771
61.68000 -0.417
61.70000 1.140
61.72000 1.376
61.74000 1.790
61.76000 0.876
61.78000 -0.794
61.80000 -1.952
61.82000 1.719
61.84000 2.388
61.86000 3.435
61.88000 1.984
61.90000 -1.671
61.92000 -2.405
61.94000 2.366
61.96000 6.538
61.98000 3.241
62.00000 2.058
62.02000 3.026
62.04000 1.844
62.06000 1.560
62.08000 4.684
62.10000 5.784
62.12000 2.747
62.14000 -0.217
62.16000 1.126
62.18000 3.387
62.20000 0.072
62.22000 1.091
62.24000 1.336
62.26000 -2.306
62.28000 0.660
62.30000 2.103
62.32000 2.274
62.34000 0.932
62.36000 -0.996
62.38000 -1.272
62.40000 -1.903
62.42000 1.531
62.44000 3.926
62.46000 5.381
62.48000 1.143
62.50000 -0.829
62.52000 2.242
62.54000 2.152
62.56000 1.435
62.58000 1.747
62.60000 -1.154
62.62000 -0.044
62.64000 -0.157
62.66000 -2.413
62.68000 2.527
62.70000 3.746
62.72000 3.180
62.74000 3.129
62.76000 0.987
62.78000 -0.174
62.80000 1.418
62.82000 1.946
62.84000 1.777
62.86000 0.947
62.88000 -1.161
62.90000 -1.936
62.92000 0.906
62.94000 -1.575
62.96000 -0.612
62.98000 0.952
63.00000 1.966
63.02000 1.693
63.04000 -1.189
63.06000 -0.261
63.08000 -0.037
63.10000 -0.932
63.12000 0.686
63.14000 2.634
63.16000 1.298
63.18000 -0.233
63.20000 -2.395
63.22000 0.166
63.24000 -0.149
63.26000 -1.221
63.28000 -2.064
63.30000 0.210
63.32000 -2.364
63.34000 -2.390
63.36000 0.760
63.38000 3.273
63.40000 1.766
63.42000 0.662
63.44000 2.129
63.46000 -0.168
63.48000 0.443
63.50000 3.488
63.52000 1.125
63.54000 0.527
63.56000 1.774
63.58000 -1.965
63.60000 -2.378
63.62000 1.677
63.64000 -1.113
63.66000 1.205
63.68000 2.713
63.70000 4.057
63.72000 1.977
63.74000 0.413
63.76000 -2.164
63.78000 0.075
63.80000 -0.573
63.82000 -0.013
63.84000 0.962
63.86000 -0.390
63.88000 1.893
63.90000 1.223
63.92000 3.919
63.94000 -1.224
63.96000 -1.410
63.98000 0.449
64.00000 -0.313
64.02000 0.347
64.04000 3.463
64.06000 1.945
64.08000 -1.446
64.10000 -0.314
64.12000 2.052
64.14000 3.269
64.16000 3.991
64.18000 3.591
64.20000 0.501
64.22000 1.212
64.24000 2.224
64.26000 3.298
64.28000 3.673
64.30000 2.077
64.32000 2.368
64.34000 2.062
64.36000 -2.387
64.38000 -0.658
64.40000 -1.482
64.42000 1.376
64.44000 2.621
64.46000 1.541
64.48000 1.793
64.50000 1.831
64.52000 0.268
64.54000 2.122
64.56000 1.935
64.58000 1.568
64.60000 2.139
64.62000 1.124
64.64000 0.927
64.66000 4.264
64.68000 2.445
64.70000 1.978
64.72000 1.063
64.74000 4.095
64.76000 4.201
64.78000 -0.502
64.80000 2.087
64.82000 4.090
64.84000 0.922
64.86000 2.183
64.88000 -0.199
64.90000 -2.391
64.92000 -0.036
64.94000 0.961
64.96000 0.606
64.98000 -0.555
65.00000 -1.372
65.02000 0.158
65.04000 4.098
65.06000 0.913
65.08000 0.229
65.10000 0.779
65.12000 0.264
65.14000 -0.319
65.16000 5.555
65.18000 3.605
65.20000 0.792
65.22000 2.721
65.24000 0.990
65.26000 1.454
65.28000 2.107
65.30000 3.936
65.32000 1.077
65.34000 -1.570
65.36000 0.591
65.38000 -0.367
65.40000 -0.959
65.42000 1.435
65.44000 1.466
65.46000 2.064
65.48000 1.284
65.50000 2.066
65.52000 3.379
65.54000 2.772
65.56000 1.527
65.58000 1.183
65.60000 0.845
65.62000 3.154
65.64000 4.018
65.66000 5.268
65.68000 5.175
65.70000 1.819
65.72000 2.460
65.74000 1.383
65.76000 -2.386
65.78000 1.065
65.80000 3.134
65.82000 2.883
65.84000 2.076
65.86000 3.982
65.88000 3.463
65.90000 5.541
65.92000 3.825
65.94000 2.341
65.96000 1.085
65.98000 0.801
66.00000 -0.230
66.02000 0.276
66.04000 -0.051
66.06000 0.937
66.08000 0.421
66.10000 0.492
66.12000 4.470
66.14000 3.602
66.16000 0.390
66.18000 -2.248
66.20000 1.546
66.22000 2.818
66.24000 5.888
66.26000 4.762
66.28000 2.349
66.30000 0.573
66.32000 1.575
66.34000 1.152
66.36000 -2.417
66.38000 0.083
66.40000 -0.726
66.42000 -0.879
66.44000 -1.897
66.46000 1.197
66.48000 0.367
66.50000 -2.106
66.52000 -1.214
66.54000 -0.342
66.56000 0.356
66.58000 -2.425
66.60000 -0.994
66.62000 0.948
66.64000 0.249
66.66000 -0.474
66.68000 3.824
66.70000 5.271
66.72000 -0.783
66.74000 -1.853
66.76000 -1.379
66.78000 1.509
66.80000 1.928
66.82000 1.162
66.84000 0.875
66.86000 1.722
66.88000 2.776
66.90000 0.401
66.92000 0.854
66.94000 -0.956
66.96000 -0.367
66.98000 0.432
67.00000 2.248
67.02000 1.843
67.04000 -2.452
67.06000 1.328
67.08000 2.045
67.10000 1.332
67.12000 0.170
67.14000 -2.175
67.16000 0.451
67.18000 1.101
67.20000 0.337
67.22000 -0.007
67.24000 -1.309
67.26000 0.778
67.28000 -2.295
67.30000 -1.325
67.32000 -0.914
67.34000 -0.603
67.36000 -0.461
67.38000 1.202
67.40000 2.603
67.42000 1.463
67.44000 2.142
67.46000 2.888
67.48000 2.141
67.50000 2.241
67.52000 -0.300
67.54000 -0.288
67.56000 1.053
67.58000 -0.062
67.60000 -0.701
67.62000 -2.444
67.64000 -0.987
67.66000 -2.489
67.68000 -0.459
67.70000 2.901
67.72000 1.684
67.74000 3.502
67.76000 4.207
67.78000 0.072
67.80000 -2.026
67.82000 -0.181
67.84000 4.447
67.86000 2.543
67.88000 2.211
67.90000 3.525
67.92000 4.181
67.94000 3.585
67.96000 8.692
67.98000 7.805
68.00000 5.393
68.02000 5.192
68.04000 5.021
68.06000 4.737
68.08000 0.234
68.10000 -0.661
68.12000 0.713
68.14000 5.586
68.16000 6.947
68.18000 8.685
68.20000 10.596
68.22000 9.036
68.24000 7.865
68.26000 10.924
68.28000 7.933
68.30000 11.581
68.32000 10.090
68.34000 10.172
68.36000 11.547
68.38000 15.195
68.40000 12.643
68.42000 7.986
68.44000 13.587
68.46000 15.643
68.48000 16.169
68.50000 19.805
68.52000 16.785
68.54000 17.102
68.56000 17.790
68.58000 18.404
68.60000 20.055
68.62000 17.926
68.64000 18.184
68.66000 18.845
68.68000 17.019
68.70000 22.828
68.72000 26.815
68.74000 25.089
68.76000 24.814
68.78000 26.581
68.80000 23.913
68.82000 20.414
68.84000 21.353
68.86000 23.584
68.88000 24.372
68.90000 25.340
68.92000 23.983
68.94000 19.988
68.96000 20.022
68.98000 23.321
69.00000 20.467
69.02000 24.005
69.04000 22.099
69.06000 17.752
69.08000 18.956
69.10000 22.265
69.12000 22.821
69.14000 20.658
69.16000 20.829
69.18000 21.703
69.20000 22.671
69.22000 20.240
69.24000 18.186
69.26000 14.453
69.28000 13.607
69.30000 14.291
69.32000 15.990
69.34000 11.516
69.36000 16.418
69.38000 17.953
69.40000 14.681
69.42000 15.284
69.44000 11.765
69.46000 13.210
69.48000 14.263
69.50000 13.732
69.52000 13.112
69.54000 11.515
69.56000 10.607
69.58000 7.041
69.60000 6.790
69.62000 5.601
69.64000 7.434
69.66000 8.643
69.68000 10.795
69.70000 6.579
69.72000 4.284
69.74000 6.975
69.76000 8.684
69.78000 10.681
69.80000 9.304
69.82000 8.218
69.84000 6.649
69.86000 3.458
69.88000 2.893
69.90000 5.123
69.92000 5.855
69.94000 5.673
69.96000 3.231
69.98000 2.626
70.00000 3.340
70.02000 5.917
70.04000 6.263
70.06000 8.551
70.08000 7.011
70.10000 3.154
70.12000 3.429
70.14000 3.616
70.16000 3.184
70.18000 3.509
70.20000 8.309
70.22000 3.666
70.24000 1.485
70.26000 0.104
70.28000 1.883
70.30000 3.308
70.32000 -0.337
70.34000 -1.443
70.36000 1.408
70.38000 2.317
70.40000 -2.222
70.42000 -2.348
70.44000 1.113
70.46000 5.004
70.48000 2.367
70.50000 4.275
70.52000 2.679
70.54000 5.003
70.56000 6.443
70.58000 8.364
70.60000 4.294
70.62000 -1.637
70.64000 2.235
70.66000 6.829
70.68000 4.805
70.70000 0.622
70.72000 -1.201
70.74000 -0.481
70.76000 1.970
70.78000 2.673
70.80000 1.361
70.82000 3.908
70.84000 4.007
70.86000 -0.316
70.88000 -0.237
70.90000 3.427
70.92000 3.608
70.94000 0.786
70.96000 6.303
70.98000 4.149
71.00000 5.785
71.02000 4.078
71.04000 0.896
71.06000 4.802
71.08000 4.873
71.10000 4.085
71.12000 3.829
71.14000 1.439
71.16000 -2.303
71.18000 2.217
71.20000 3.151
71.22000 2.897
71.24000 2.768
71.26000 3.157
71.28000 0.968
71.30000 -1.947
71.32000 0.130
71.34000 0.864
71.36000 4.466
71.38000 5.942
71.40000 5.914
71.42000 2.495
71.44000 2.247
71.46000 5.896
71.48000 5.511
71.50000 6.667
71.52000 3.306
71.54000 -0.775
71.56000 -0.607
71.58000 -0.932
71.60000 6.209
71.62000 6.965
71.64000 6.141
71.66000 6.501
71.68000 0.686
71.70000 -2.150
71.72000 0.433
71.74000 2.878
71.76000 1.128
71.78000 3.757
71.80000 2.387
71.82000 0.941
71.84000 4.299
71.86000 4.775
71.88000 5.718
71.90000 1.851
71.92000 1.078
71.94000 0.157
71.96000 0.247
71.98000 2.575
72.00000 2.103
72.02000 1.975
72.04000 1.957
72.06000 3.204
72.08000 4.445
72.10000 4.907
72.12000 2.189
72.14000 1.827
72.16000 4.565
72.18000 4.275
72.20000 6.447
72.22000 1.210
72.24000 -0.339
72.26000 0.174
72.28000 2.621
72.30000 2.253
72.32000 1.350
72.34000 -2.234
72.36000 1.407
72.38000 3.891
72.40000 4.835
72.42000 0.333
72.44000 0.889
72.46000 4.350
72.48000 2.907
72.50000 5.267
72.52000 4.102
72.54000 2.841
72.56000 1.303
72.58000 1.637
72.60000 1.501
72.62000 -1.099
72.64000 0.374
72.66000 2.011
72.68000 2.321
72.70000 2.709
72.72000 -0.112
72.74000 2.447
72.76000 1.358
72.78000 1.950
72.80000 2.718
72.82000 2.897
72.84000 0.984
72.86000 4.950
72.88000 5.640
72.90000 3.575
72.92000 3.139
72.94000 2.114
72.96000 1.448
72.98000 4.498
73.00000 2.540
73.02000 2.466
73.04000 6.496
73.06000 8.823
73.08000 4.381
73.10000 2.104
73.12000 3.584
73.14000 0.532
73.16000 2.724
73.18000 3.064
73.20000 1.879
73.22000 2.322
73.24000 -2.198
73.26000 -1.122
73.28000 2.617
73.30000 5.995
73.32000 6.718
73.34000 4.084
73.36000 2.517
73.38000 5.684
73.40000 1.835
73.42000 2.322
73.44000 5.407
73.46000 8.447
73.48000 4.659
73.50000 -1.511
73.52000 -1.937
73.54000 1.446
73.56000 -0.918
73.58000 1.370
73.60000 1.971
73.62000 1.088
73.64000 1.413
73.66000 -1.943
73.68000 4.625
73.70000 4.385
73.72000 2.920
73.74000 -0.202
73.76000 -1.037
73.78000 1.816
73.80000 1.877
73.82000 0.126
73.84000 -0.978
73.86000 -1.514
73.88000 -0.171
73.90000 1.755
73.92000 3.018
73.94000 6.924
73.96000 1.685
73.98000 -0.256
74.00000 2.722
74.02000 5.211
74.04000 2.085
74.06000 4.439
74.08000 6.903
74.10000 1.181
74.12000 -0.579
74.14000 -0.414
74.16000 1.060
74.18000 -1.859
74.20000 -1.747
74.22000 -0.336
74.24000 4.435
74.26000 0.872
74.28000 2.107
74.30000 -0.073
74.32000 1.395
74.34000 0.825
74.36000 2.647
74.38000 4.299
74.40000 3.137
74.42000 2.976
74.44000 3.041
74.46000 0.860
74.48000 2.331
74.50000 0.677
74.52000 0.429
74.54000 3.394
74.56000 5.320
74.58000 1.260
74.60000 1.410
74.62000 1.613
74.64000 3.559
74.66000 3.461
74.68000 -0.614
74.70000 4.075
74.72000 6.590
74.74000 3.891
74.76000 3.110
74.78000 3.737
74.80000 7.560
74.82000 5.506
74.84000 1.639
74.86000 -2.186
74.88000 2.928
74.90000 7.367
74.92000 3.321
74.94000 0.997
74.96000 2.850
74.98000 2.637
75.00000 3.683
75.02000 5.220
75.04000 6.279
75.06000 6.458
75.08000 6.687
75.10000 4.201
75.12000 2.927
75.14000 2.511
75.16000 4.336
75.18000 4.901
75.20000 5.195
75.22000 -0.608
75.24000 -2.181
75.26000 2.414
75.28000 3.175
75.30000 3.525
75.32000 5.682
75.34000 4.188
75.36000 3.340
75.38000 5.684
75.40000 4.369
75.42000 4.795
75.44000 2.664
75.46000 1.292
75.48000 1.944
75.50000 4.028
75.52000 5.109
75.54000 4.829
75.56000 1.411
75.58000 1.872
75.60000 1.296
75.62000 -0.676
75.64000 -2.201
75.66000 2.483
75.68000 2.245
75.70000 6.394
75.72000 3.208
75.74000 2.899
75.76000 1.683
75.78000 2.114
75.80000 4.455
75.82000 0.895
75.84000 0.981
75.86000 1.929
75.88000 2.442
75.90000 5.605
75.92000 6.583
75.94000 4.091
75.96000 4.241
75.98000 1.411
76.00000 1.720
76.02000 3.275
76.04000 1.427
76.06000 1.468
76.08000 4.492
76.10000 5.973
76.12000 2.711
76.14000 1.668
76.16000 0.143
76.18000 0.405
76.20000 3.245
76.22000 0.450
76.24000 -1.830
76.26000 1.953
76.28000 3.524
76.30000 0.402
76.32000 1.783
76.34000 2.881
76.36000 3.476
76.38000 2.712
76.40000 0.098
76.42000 1.523
76.44000 6.092
76.46000 8.670
76.48000 6.765
76.50000 2.432
76.52000 -1.818
76.54000 -1.808
76.56000 2.236
76.58000 0.579
76.60000 -1.343
76.62000 4.316
76.64000 3.120
76.66000 3.050
76.68000 2.967
76.70000 1.465
76.72000 -2.215
76.74000 1.871
76.76000 -1.223
76.78000 -1.205
76.80000 1.835
76.82000 3.713
76.84000 5.138
76.86000 4.577
76.88000 4.424
76.90000 6.943
76.92000 3.485
76.94000 0.506
76.96000 3.283
76.98000 4.213
77.00000 2.829
77.02000 1.036
77.04000 0.466
77.06000 -0.463
77.08000 0.961
77.10000 1.267
77.12000 0.650
77.14000 0.229
77.16000 0.541
77.18000 -2.216
77.20000 0.744
77.22000 -0.930
77.24000 0.978
77.26000 -0.405
77.28000 0.826
77.30000 4.967
77.32000 3.782
77.34000 3.236
77.36000 2.016
77.38000 1.413
77.40000 6.554
77.42000 6.773
77.44000 8.327
77.46000 2.581
77.48000 3.461
77.50000 5.463
77.52000 -1.674
77.54000 -0.217
77.56000 3.209
77.58000 6.985
77.60000 4.757
77.62000 5.111
77.64000 3.298
77.66000 3.975
77.68000 6.021
77.70000 6.528
77.72000 9.850
77.74000 7.013
77.76000 3.213
77.78000 3.529
77.80000 2.210
77.82000 4.889
77.84000 1.264
77.86000 1.416
77.88000 1.229
77.90000 0.752
77.92000 5.011
77.94000 2.999
77.96000 1.122
77.98000 -2.216
78.00000 -1.043
78.02000 -0.727
78.04000 0.300
78.06000 3.225
78.08000 4.232
78.10000 2.155
78.12000 2.353
78.14000 3.713
78.16000 3.750
78.18000 3.619
78.20000 -1.545
78.22000 -0.060
78.24000 2.099
78.26000 6.645
78.28000 5.787
78.30000 6.763
78.32000 2.058
78.34000 1.106
78.36000 5.010
78.38000 5.705
78.40000 7.849
78.42000 1.523
78.44000 4.474
78.46000 8.142
78.48000 4.513
78.50000 3.730
78.52000 0.980
78.54000 -0.964
78.56000 -2.232
78.58000 -0.026
78.60000 1.181
78.62000 5.578
78.64000 7.035
78.66000 1.969
78.68000 0.357
78.70000 -0.060
78.72000 3.601
78.74000 4.832
78.76000 2.049
78.78000 -2.024
78.80000 0.539
78.82000 1.025
78.84000 3.704
78.86000 1.752
78.88000 0.145
78.90000 -0.215
78.92000 2.839
78.94000 -0.134
78.96000 0.716
78.98000 4.255
79.00000 -0.397
79.02000 -0.145
79.04000 0.922
79.06000 5.951
79.08000 2.915
79.10000 0.036
79.12000 -0.185
79.14000 -0.223
79.16000 1.553
79.18000 1.281
79.20000 3.430
79.22000 3.500
79.24000 5.226
79.26000 3.574
79.28000 -0.585
79.30000 -1.068
79.32000 1.607
79.34000 3.662
79.36000 6.544
79.38000 3.222
79.40000 1.919
79.42000 1.198
79.44000 4.938
79.46000 1.756
79.48000 4.840
79.50000 1.934
79.52000 0.044
79.54000 -2.139
79.56000 -1.001
79.58000 0.984
79.60000 5.547
79.62000 4.978
79.64000 1.965
79.66000 4.486
79.68000 4.210
79.70000 4.635
79.72000 0.278
79.74000 -1.296
79.76000 2.120
79.78000 3.473
79.80000 0.377
79.82000 4.741
79.84000 5.211
79.86000 3.283
79.88000 4.362
79.90000 4.056
79.92000 -2.242
79.94000 -0.478
79.96000 0.986
79.98000 3.469
80.00000 3.088
80.02000 1.650
80.04000 4.107
80.06000 5.590
80.08000 5.469
80.10000 3.382
80.12000 2.724
80.14000 0.087
80.16000 5.950
80.18000 5.378
80.20000 0.837
80.22000 3.126
80.24000 1.268
80.26000 4.929
80.28000 1.598
80.30000 1.885
80.32000 2.736
80.34000 6.237
80.36000 5.912
80.38000 6.175
80.40000 6.235
80.42000 3.988
80.44000 6.115
80.46000 8.228
80.48000 7.137
80.50000 2.668
80.52000 -0.003
80.54000 0.946
80.56000 2.257
80.58000 1.151
80.60000 5.317
80.62000 7.163
80.64000 6.881
80.66000 5.544
80.68000 0.993
80.70000 0.458
80.72000 -0.588
80.74000 -0.335
80.76000 -2.279
80.78000 2.946
80.80000 2.310
80.82000 1.170
80.84000 -0.062
80.86000 3.071
80.88000 0.875
80.90000 3.574
80.92000 2.251
80.94000 -1.933
80.96000 0.593
80.98000 -0.207
81.00000 1.544
81.02000 8.950
81.04000 5.661
81.06000 6.316
81.08000 5.908
81.10000 2.862
81.12000 6.261
81.14000 2.199
81.16000 -1.190
81.18000 3.012
81.20000 4.212
81.22000 4.873
81.24000 2.523
81.26000 4.180
81.28000 2.648
81.30000 3.760
81.32000 6.132
81.34000 4.811
81.36000 5.824
81.38000 4.929
81.40000 1.345
81.42000 -2.338
81.44000 2.020
81.46000 5.852
81.48000 5.554
81.50000 5.448
81.52000 5.693
81.54000 4.385
81.56000 0.967
81.58000 1.738
81.60000 1.727
81.62000 4.285
81.64000 0.335
81.66000 3.216
81.68000 7.050
81.70000 8.408
81.72000 4.327
81.74000 6.721
81.76000 5.907
81.78000 0.443
81.80000 6.260
81.82000 5.532
81.84000 5.234
81.86000 4.510
81.88000 5.988
81.90000 7.976
81.92000 8.799
81.94000 6.680
81.96000 5.849
81.98000 7.778
82.00000 9.689
82.02000 6.706
82.04000 3.512
82.06000 7.025
82.08000 5.013
82.10000 3.684
82.12000 6.549
82.14000 10.558
82.16000 8.443
82.18000 10.869
82.20000 9.668
82.22000 6.346
82.24000 7.201
82.26000 11.711
82.28000 13.879
82.30000 13.950
82.32000 11.485
82.34000 10.776
82.36000 12.651
82.38000 11.542
82.40000 12.093
82.42000 8.973
82.44000 11.570
82.46000 17.975
82.48000 16.283
82.50000 15.551
82.52000 15.361
82.54000 16.270
82.56000 16.183
82.58000 17.547
82.60000 19.703
82.62000 16.627
82.64000 18.079
82.66000 17.414
82.68000 19.165
82.70000 24.247
82.72000 20.430
82.74000 20.851
82.76000 20.765
82.78000 23.519
82.80000 25.872
82.82000 26.102
82.84000 28.033
82.86000 22.994
82.88000 22.503
82.90000 26.534
82.92000 27.875
82.94000 25.642
82.96000 28.030
82.98000 26.125
83.00000 26.232
83.02000 29.191
83.04000 28.612
83.06000 27.349
83.08000 27.217
83.10000 29.658
83.12000 29.846
83.14000 32.731
83.16000 33.945
83.18000 35.744
83.20000 34.964
83.22000 29.618
83.24000 34.387
83.26000 31.614
83.28000 27.703
83.30000 28.726
83.32000 31.316
83.34000 31.362
83.36000 31.934
83.38000 33.591
83.40000 30.947
83.42000 29.061
83.44000 26.434
83.46000 28.493
83.48000 29.791
83.50000 30.196
83.52000 30.135
83.54000 28.588
83.56000 25.715
83.58000 22.700
83.60000 23.807
83.62000 22.442
83.64000 23.262
83.66000 24.891
83.68000 23.653
83.70000 24.487
83.72000 24.061
83.74000 24.641
83.76000 22.894
83.78000 18.035
83.80000 23.114
83.82000 20.717
83.84000 18.289
83.86000 18.481
83.88000 12.995
83.90000 14.124
83.92000 13.833
83.94000 14.287
83.96000 12.246
83.98000 13.297
84.00000 20.147
84.02000 19.708
84.04000 12.124
84.06000 12.700
84.08000 15.754
84.10000 11.636
84.12000 9.538
84.14000 7.232
84.16000 11.128
84.18000 16.048
84.20000 10.142
84.22000 8.213
84.24000 6.978
84.26000 3.494
84.28000 2.860
84.30000 6.878
84.32000 8.158
84.34000 5.888
84.36000 7.249
84.38000 8.381
84.40000 7.052
84.42000 5.362
84.44000 6.975
84.46000 4.126
84.48000 4.809
84.50000 7.666
84.52000 2.090
84.54000 3.837
84.56000 0.000
84.58000 1.248
84.60000 7.253
84.62000 8.090
84.64000 1.414
84.66000 -1.048
84.68000 0.163
84.70000 0.760
84.72000 1.787
84.74000 3.518
84.76000 1.640
84.78000 4.308
84.80000 2.120
84.82000 2.760
84.84000 3.650
84.86000 5.851
84.88000 4.497
84.90000 0.620
84.92000 0.750
84.94000 -0.478
84.96000 1.754
84.98000 2.390
85.00000 9.029
85.02000 4.735
85.04000 2.887
85.06000 -1.618
85.08000 1.437
85.10000 3.312
85.12000 1.228
85.14000 3.857
85.16000 5.619
85.18000 1.611
85.20000 0.937
85.22000 4.427
85.24000 5.262
85.26000 5.422
85.28000 7.575
85.30000 7.196
85.32000 6.740
85.34000 2.895
85.36000 2.445
85.38000 5.326
85.40000 4.429
85.42000 0.056
85.44000 4.464
85.46000 1.652
85.48000 0.223
85.50000 2.653
85.52000 0.555
85.54000 -2.236
85.56000 0.425
85.58000 6.368
85.60000 6.026
85.62000 5.264
85.64000 0.126
85.66000 4.459
85.68000 6.044
85.70000 3.876
85.72000 1.751
85.74000 0.284
85.76000 -0.468
85.78000 5.706
85.80000 4.787
85.82000 1.921
85.84000 3.181
85.86000 3.371
85.88000 5.770
85.90000 1.079
85.92000 0.057
85.94000 1.928
85.96000 6.021
85.98000 5.533
86.00000 0.946
86.02000 2.761
86.04000 4.459
86.06000 6.557
86.08000 5.177
86.10000 3.250
86.12000 -2.172
86.14000 2.485
86.16000 4.914
86.18000 5.409
86.20000 7.723
86.22000 8.566
86.24000 6.738
86.26000 5.007
86.28000 2.126
86.30000 -2.242
86.32000 0.316
86.34000 3.287
86.36000 4.702
86.38000 2.826
86.40000 0.110
86.42000 3.554
86.44000 5.505
86.46000 -0.540
86.48000 1.680
86.50000 5.579
86.52000 5.284
86.54000 7.897
86.56000 7.020
86.58000 6.753
86.60000 7.067
86.62000 3.319
86.64000 -0.637
86.66000 4.565
86.68000 5.817
86.70000 5.652
86.72000 3.648
86.74000 3.132
86.76000 3.863
86.78000 2.835
86.80000 5.341
86.82000 6.877
86.84000 6.910
86.86000 7.010
86.88000 5.125
86.90000 1.370
86.92000 6.820
86.94000 10.119
86.96000 11.529
86.98000 12.084
87.00000 11.361
87.02000 8.123
87.04000 9.051
87.06000 11.642
87.08000 7.173
87.10000 7.863
87.12000 5.907
87.14000 12.750
87.16000 15.886
87.18000 15.785
87.20000 11.932
87.22000 9.768
87.24000 14.199
87.26000 12.559
87.28000 11.525
87.30000 11.742
87.32000 10.514
87.34000 16.464
87.36000 15.339
87.38000 15.164
87.40000 19.501
87.42000 13.985
87.44000 14.103
87.46000 20.450
87.48000 22.165
87.50000 22.936
87.52000 27.346
87.54000 19.546
87.56000 18.305
87.58000 19.836
87.60000 17.836
87.62000 17.132
87.64000 18.406
87.66000 22.580
87.68000 18.731
87.70000 17.252
87.72000 14.665
87.74000 20.064
87.76000 17.617
87.78000 17.525
87.80000 18.749
87.82000 20.521
87.84000 19.288
87.86000 19.614
87.88000 18.590
87.90000 17.237
87.92000 21.444
87.94000 19.795
87.96000 18.280
87.98000 17.908
88.00000 18.003
88.02000 19.659
88.04000 19.337
88.06000 16.017
88.08000 20.242
88.10000 21.412
88.12000 15.482
88.14000 13.176
88.16000 12.457
88.18000 12.126
88.20000 11.832
88.22000 9.474
88.24000 10.255
88.26000 9.673
88.28000 11.826
88.30000 16.634
88.32000 18.341
88.34000 13.842
88.36000 12.387
88.38000 6.408
88.40000 14.960
88.42000 7.158
88.44000 5.462
88.46000 6.848
88.48000 4.806
88.50000 -0.833
88.52000 4.051
88.54000 3.134
88.56000 8.634
88.58000 6.288
88.60000 6.867
88.62000 8.624
88.64000 11.275
88.66000 8.154
88.68000 11.778
88.70000 3.099
88.72000 -0.045
88.74000 7.732
88.76000 9.511
88.78000 7.208
88.80000 3.868
88.82000 0.566
88.84000 -0.493
88.86000 -0.104
88.88000 3.096
88.90000 2.181
88.92000 4.883
88.94000 2.484
88.96000 1.983
88.98000 3.910
89.00000 10.094
89.02000 3.056
89.04000 4.070
89.06000 9.938
89.08000 1.513
89.10000 2.534
89.12000 5.746
89.14000 2.898
89.16000 1.251
89.18000 2.851
89.20000 2.853
89.22000 0.772
89.24000 0.958
89.26000 -0.480
89.28000 2.158
89.30000 -0.716
89.32000 -2.159
89.34000 3.855
89.36000 4.543
89.38000 1.911
89.40000 0.677
89.42000 2.703
89.44000 5.081
89.46000 5.107
89.48000 4.942
89.50000 4.894
89.52000 7.024
89.54000 5.579
89.56000 2.768
89.58000 6.025
89.60000 4.384
89.62000 2.160
89.64000 8.521
89.66000 4.663
89.68000 4.306
89.70000 5.527
89.72000 3.842
89.74000 1.279
89.76000 2.310
89.78000 3.115
89.80000 3.257
89.82000 6.623
89.84000 6.069
89.86000 1.946
89.88000 0.767
89.90000 1.139
89.92000 3.410
89.94000 3.628
89.96000 2.326
89.98000 -0.098
90.00000 0.877
90.02000 2.646
90.04000 1.197
90.06000 4.513
90.08000 2.762
90.10000 0.426
90.12000 3.549
90.14000 0.085
90.16000 1.080
90.18000 2.181
90.20000 -0.742
90.22000 0.190
90.24000 1.856
90.26000 5.090
90.28000 -0.577
90.30000 -2.059
90.32000 3.331
90.34000 3.939
90.36000 4.934
90.38000 7.727
90.40000 5.803
90.42000 6.497
90.44000 5.723
90.46000 7.492
90.48000 6.844
90.50000 2.605
90.52000 2.389
90.54000 3.789
90.56000 6.001
90.58000 7.269
90.60000 9.255
90.62000 6.298
90.64000 1.236
90.66000 1.199
90.68000 0.938
90.70000 -0.268
90.72000 2.052
90.74000 5.602
90.76000 1.351
90.78000 4.482
90.80000 3.318
90.82000 2.888
90.84000 5.583
90.86000 4.636
90.88000 1.460
90.90000 2.478
90.92000 4.211
90.94000 6.564
90.96000 -2.095
90.98000 1.686
91.00000 1.190
91.02000 4.352
91.04000 2.588
91.06000 0.896
91.08000 -0.043
91.10000 1.300
91.12000 3.086
91.14000 1.132
91.16000 4.282
91.18000 3.889
91.20000 1.633
91.22000 0.175
91.24000 5.502
91.26000 3.064
91.28000 1.520
91.30000 2.525
91.32000 2.511
91.34000 6.065
91.36000 6.605
91.38000 8.911
91.40000 7.301
91.42000 4.008
91.44000 0.579
91.46000 -0.595
91.48000 -1.460
91.50000 0.344
91.52000 2.116
91.54000 1.301
91.56000 1.072
91.58000 0.911
91.60000 1.096
91.62000 -2.106
91.64000 -1.246
91.66000 -0.223
91.68000 0.193
91.70000 2.607
91.72000 5.297
91.74000 3.608
91.76000 -0.467
91.78000 -0.750
91.80000 0.608
91.82000 1.454
91.84000 1.666
91.86000 1.010
91.88000 0.108
91.90000 3.197
91.92000 1.806
91.94000 -0.031
91.96000 1.620
91.98000 3.033
92.00000 -0.393
92.02000 1.624
92.04000 -0.325
92.06000 1.167
92.08000 -2.095
92.10000 0.566
92.12000 3.712
92.14000 10.418
92.16000 6.598
92.18000 0.903
92.20000 0.433
92.22000 1.920
92.24000 3.446
92.26000 2.184
92.28000 0.824
92.30000 1.334
92.32000 2.896
92.34000 0.861
92.36000 -2.126
92.38000 3.578
92.40000 0.352
92.42000 2.785
92.44000 3.089
92.46000 4.629
92.48000 -0.609
92.50000 -0.653
92.52000 1.065
92.54000 4.657
92.56000 1.808
92.58000 1.426
92.60000 1.249
92.62000 1.100
92.64000 2.949
92.66000 4.776
92.68000 2.910
92.70000 1.733
92.72000 1.578
92.74000 1.405
92.76000 -0.524
92.78000 4.609
92.80000 3.893
92.82000 3.916
92.84000 5.955
92.86000 3.578
92.88000 1.570
92.90000 4.127
92.92000 4.075
92.94000 2.534
92.96000 4.338
92.98000 6.893
93.00000 1.966
93.02000 0.603
93.04000 2.025
93.06000 4.635
93.08000 5.430
93.10000 2.497
93.12000 1.210
93.14000 6.606
93.16000 4.509
93.18000 1.411
93.20000 1.549
93.22000 1.112
93.24000 -0.521
93.26000 -0.827
93.28000 -0.314
93.30000 2.949
93.32000 5.975
93.34000 7.281
93.36000 3.369
93.38000 4.495
93.40000 10.493
93.42000 6.880
93.44000 2.695
93.46000 -2.115
93.48000 2.663
93.50000 6.818
93.52000 8.034
93.54000 5.934
93.56000 7.294
93.58000 9.219
93.60000 7.137
93.62000 4.077
93.64000 4.511
93.66000 4.455
93.68000 3.144
93.70000 2.106
93.72000 0.979
93.74000 -0.241
93.76000 2.971
93.78000 4.168
93.80000 4.525
93.82000 1.327
93.84000 -1.374
93.86000 0.570
93.88000 5.328
93.90000 1.088
93.92000 3.296
93.94000 0.134
93.96000 -1.366
93.98000 -2.056
94.00000 1.909
94.02000 7.158
94.04000 0.844
94.06000 -1.000
94.08000 1.399
94.10000 1.545
94.12000 1.941
94.14000 0.613
94.16000 7.269
94.18000 5.434
94.20000 6.595
94.22000 7.431
94.24000 2.819
94.26000 -2.100
94.28000 2.227
94.30000 8.451
94.32000 7.198
94.34000 5.358
94.36000 4.149
94.38000 5.729
94.40000 4.480
94.42000 3.887
94.44000 2.811
94.46000 0.291
94.48000 3.528
94.50000 4.449
94.52000 1.005
94.54000 3.285
94.56000 3.891
94.58000 -2.093
94.60000 -0.983
94.62000 2.455
94.64000 5.600
94.66000 4.249
94.68000 4.868
94.70000 3.395
94.72000 6.067
94.74000 3.897
94.76000 1.059
94.78000 -0.558
94.80000 -0.271
94.82000 3.789
94.84000 4.905
94.86000 2.625
94.88000 4.689
94.90000 4.995
94.92000 3.813
94.94000 3.830
94.96000 2.500
94.98000 4.715
95.00000 5.620
95.02000 8.938
95.04000 6.314
95.06000 7.199
95.08000 8.469
95.10000 0.954
95.12000 0.609
95.14000 4.975
95.16000 6.807
95.18000 2.872
95.20000 -1.170
95.22000 1.545
95.24000 2.756
95.26000 7.118
95.28000 6.330
95.30000 9.619
95.32000 0.062
95.34000 0.802
95.36000 1.621
95.38000 -1.196
95.40000 1.741
95.42000 9.221
95.44000 10.837
95.46000 7.624
95.48000 4.970
95.50000 6.885
95.52000 7.084
95.54000 4.031
95.56000 2.774
95.58000 6.274
95.60000 5.344
95.62000 2.376
95.64000 4.430
95.66000 8.917
95.68000 12.904
95.70000 10.205
95.72000 2.326
95.74000 1.319
95.76000 6.697
95.78000 4.907
95.80000 2.481
95.82000 0.445
95.84000 -1.449
95.86000 0.672
95.88000 -2.079
95.90000 4.629
95.92000 2.987
95.94000 4.525
95.96000 4.854
95.98000 4.816
96.00000 2.373
96.02000 4.430
96.04000 3.919
96.06000 5.361
96.08000 5.787
96.10000 9.089
96.12000 8.498
96.14000 0.043
96.16000 3.833
96.18000 10.209
96.20000 2.155
96.22000 2.820
96.24000 0.869
96.26000 6.221
96.28000 6.119
96.30000 0.768
96.32000 -0.700
96.34000 6.839
96.36000 3.782
96.38000 0.372
96.40000 0.357
96.42000 4.929
96.44000 5.365
96.46000 1.466
96.48000 -1.852
96.50000 -0.660
96.52000 0.783
96.54000 1.258
96.56000 5.050
96.58000 7.721
96.60000 1.528
96.62000 1.710
96.64000 1.621
96.66000 1.367
96.68000 -0.622
96.70000 -0.002
96.72000 2.612
96.74000 2.828
96.76000 1.752
96.78000 4.192
96.80000 4.364
96.82000 4.814
96.84000 6.643
96.86000 5.127
96.88000 1.703
96.90000 2.571
96.92000 2.261
96.94000 6.662
96.96000 4.634
96.98000 0.745
97.00000 -1.205
97.02000 0.439
97.04000 3.698
97.06000 0.722
97.08000 4.739
97.10000 4.928
97.12000 5.789
97.14000 6.077
97.16000 10.624
97.18000 13.075
97.20000 7.331
97.22000 8.724
97.24000 8.485
97.26000 2.124
97.28000 5.150
97.30000 11.072
97.32000 2.227
97.34000 5.976
97.36000 5.680
97.38000 13.193
97.40000 12.694
97.42000 7.544
97.44000 3.696
97.46000 -1.050
97.48000 3.339
97.50000 4.317
97.52000 5.939
97.54000 6.100
97.56000 6.482
97.58000 5.908
97.60000 6.698
97.62000 4.858
97.64000 -1.401
97.66000 -2.034
97.68000 4.036
97.70000 11.223
97.72000 12.209
97.74000 6.592
97.76000 1.280
97.78000 1.401
97.80000 0.576
97.82000 -1.063
97.84000 4.072
97.86000 3.941
97.88000 5.048
97.90000 8.892
97.92000 6.152
97.94000 8.218
97.96000 8.956
97.98000 6.703
98.00000 1.899
98.02000 6.620
98.04000 9.007
98.06000 17.031
98.08000 12.498
98.10000 5.598
98.12000 3.242
98.14000 6.700
98.16000 2.033
98.18000 8.316
98.20000 3.047
98.22000 3.207
98.24000 4.037
98.26000 -0.031
98.28000 7.546
98.30000 3.482
98.32000 4.315
98.34000 4.265
98.36000 5.691
98.38000 5.553
98.40000 -2.917
98.42000 4.857
98.44000 4.884
98.46000 8.870
98.48000 0.398
98.50000 2.920
98.52000 6.454
98.54000 3.752
98.56000 4.275
98.58000 1.628
98.60000 5.776
98.62000 9.028
98.64000 12.126
98.66000 12.723
98.68000 14.380
98.70000 12.203
98.72000 8.487
98.74000 12.842
98.76000 7.835
98.78000 4.940
98.80000 6.397
98.82000 3.930
98.84000 1.602
98.86000 4.955
98.88000 7.639
98.90000 3.963
98.92000 6.452
98.94000 11.228
98.96000 14.128
98.98000 3.836
99.00000 4.061
99.02000 1.798
99.04000 7.147
99.06000 6.055
99.08000 1.304
99.10000 5.527
99.12000 6.097
99.14000 2.596
99.16000 3.166
99.18000 4.212
99.20000 7.290
99.22000 3.513
99.24000 3.789
99.26000 10.829
99.28000 5.999
99.30000 6.582
99.32000 3.878
99.34000 -0.696
99.36000 1.032
99.38000 6.749
99.40000 14.801
99.42000 12.115
99.44000 12.195
99.46000 18.522
99.48000 7.466
99.50000 8.233
99.52000 7.452
99.54000 4.546
99.56000 7.702
99.58000 5.585
99.60000 4.742
99.62000 10.915
99.64000 1.847
99.66000 8.564
99.68000 10.214
99.70000 11.757
99.72000 4.972
99.74000 -2.058
99.76000 -0.972
99.78000 7.425
99.80000 7.480
99.82000 9.650
99.84000 10.354
99.86000 8.236
99.88000 -2.998
99.90000 1.923
99.92000 -2.221
99.94000 -0.226
99.96000 10.941
99.98000 0.000
