'Id: "0011388" Comment: "Integrate frame 0011388_Au-Ir-Rh_Rh-rich_XRD-Mapping-030-0000.gfrmwith cursor Wedge Cursor #5" Operator: "B?rgel" Anode: "Cu" Wavelength: "1.5406" Scantype: "2Theta (TwoTheta)" TimePerStep: "1" X: "-4.5" Y: "-31.5" Z: "5.95" 
10.00000 0.000
10.02000 -4.434
10.04000 -4.263
10.06000 -1.691
10.08000 -0.697
10.10000 7.938
10.12000 19.507
10.14000 12.895
10.16000 10.035
10.18000 17.139
10.20000 22.141
10.22000 20.544
10.24000 21.647
10.26000 31.697
10.28000 33.396
10.30000 25.903
10.32000 8.379
10.34000 3.542
10.36000 17.792
10.38000 30.572
10.40000 18.775
10.42000 19.641
10.44000 29.075
10.46000 29.131
10.48000 35.019
10.50000 16.848
10.52000 6.288
10.54000 18.016
10.56000 12.311
10.58000 18.087
10.60000 8.375
10.62000 17.399
10.64000 15.289
10.66000 4.005
10.68000 1.320
10.70000 12.157
10.72000 8.979
10.74000 11.491
10.76000 20.159
10.78000 28.702
10.80000 7.381
10.82000 11.062
10.84000 4.359
10.86000 10.726
10.88000 23.607
10.90000 -0.008
10.92000 -1.399
10.94000 19.147
10.96000 17.175
10.98000 14.255
11.00000 2.678
11.02000 6.917
11.04000 30.160
11.06000 33.749
11.08000 22.558
11.10000 17.505
11.12000 4.943
11.14000 14.523
11.16000 14.271
11.18000 22.828
11.20000 23.695
11.22000 10.567
11.24000 4.245
11.26000 17.377
11.28000 33.361
11.30000 39.688
11.32000 31.376
11.34000 18.151
11.36000 9.448
11.38000 30.885
11.40000 28.402
11.42000 13.036
11.44000 18.970
11.46000 19.670
11.48000 11.718
11.50000 3.824
11.52000 5.696
11.54000 16.795
11.56000 9.549
11.58000 11.765
11.60000 23.690
11.62000 29.043
11.64000 10.131
11.66000 0.651
11.68000 5.696
11.70000 8.180
11.72000 14.979
11.74000 11.900
11.76000 9.286
11.78000 19.962
11.80000 18.038
11.82000 19.646
11.84000 7.226
11.86000 11.567
11.88000 17.231
11.90000 10.173
11.92000 9.439
11.94000 20.738
11.96000 21.654
11.98000 15.832
12.00000 10.129
12.02000 -0.076
12.04000 9.385
12.06000 9.254
12.08000 4.905
12.10000 4.143
12.12000 6.714
12.14000 9.943
12.16000 4.790
12.18000 10.652
12.20000 9.426
12.22000 4.562
12.24000 17.961
12.26000 8.553
12.28000 3.309
12.30000 6.068
12.32000 17.369
12.34000 10.870
12.36000 -6.549
12.38000 10.461
12.40000 13.973
12.42000 12.264
12.44000 12.055
12.46000 14.507
12.48000 4.971
12.50000 -0.861
12.52000 2.982
12.54000 18.646
12.56000 20.332
12.58000 12.185
12.60000 7.031
12.62000 17.119
12.64000 20.413
12.66000 20.834
12.68000 16.832
12.70000 29.387
12.72000 26.286
12.74000 18.240
12.76000 12.501
12.78000 24.433
12.80000 20.012
12.82000 13.405
12.84000 19.733
12.86000 14.125
12.88000 6.969
12.90000 1.067
12.92000 23.499
12.94000 28.978
12.96000 21.640
12.98000 15.359
13.00000 16.912
13.02000 16.954
13.04000 12.513
13.06000 10.535
13.08000 12.888
13.10000 15.143
13.12000 20.687
13.14000 24.791
13.16000 24.070
13.18000 16.899
13.20000 17.875
13.22000 14.328
13.24000 13.117
13.26000 11.628
13.28000 11.854
13.30000 10.354
13.32000 10.933
13.34000 8.267
13.36000 13.163
13.38000 22.822
13.40000 18.712
13.42000 13.990
13.44000 14.081
13.46000 6.889
13.48000 9.974
13.50000 9.814
13.52000 9.813
13.54000 19.241
13.56000 7.587
13.58000 11.909
13.60000 5.820
13.62000 4.056
13.64000 15.795
13.66000 22.100
13.68000 21.462
13.70000 19.473
13.72000 10.315
13.74000 11.002
13.76000 17.074
13.78000 12.963
13.80000 11.428
13.82000 19.324
13.84000 19.831
13.86000 18.091
13.88000 17.990
13.90000 17.284
13.92000 13.922
13.94000 5.172
13.96000 9.901
13.98000 11.801
14.00000 8.719
14.02000 5.846
14.04000 5.917
14.06000 13.497
14.08000 12.708
14.10000 11.436
14.12000 16.656
14.14000 8.798
14.16000 1.937
14.18000 4.243
14.20000 -0.064
14.22000 11.707
14.24000 20.110
14.26000 9.354
14.28000 8.524
14.30000 15.629
14.32000 12.331
14.34000 9.922
14.36000 6.045
14.38000 7.321
14.40000 15.853
14.42000 20.529
14.44000 9.487
14.46000 7.063
14.48000 1.429
14.50000 6.310
14.52000 10.303
14.54000 4.932
14.56000 7.124
14.58000 3.939
14.60000 6.135
14.62000 10.443
14.64000 6.494
14.66000 5.960
14.68000 7.759
14.70000 12.779
14.72000 -4.413
14.74000 -2.014
14.76000 4.420
14.78000 5.843
14.80000 13.118
14.82000 7.463
14.84000 3.336
14.86000 5.012
14.88000 12.187
14.90000 18.490
14.92000 11.739
14.94000 4.727
14.96000 9.020
14.98000 7.133
15.00000 6.041
15.02000 8.261
15.04000 8.065
15.06000 14.731
15.08000 13.433
15.10000 12.702
15.12000 10.810
15.14000 5.283
15.16000 -2.182
15.18000 8.202
15.20000 10.517
15.22000 5.609
15.24000 1.628
15.26000 4.719
15.28000 4.500
15.30000 0.638
15.32000 -1.905
15.34000 -0.468
15.36000 9.772
15.38000 12.477
15.40000 6.636
15.42000 1.780
15.44000 10.948
15.46000 6.520
15.48000 6.815
15.50000 4.021
15.52000 0.014
15.54000 -2.371
15.56000 3.672
15.58000 2.662
15.60000 2.549
15.62000 7.459
15.64000 1.682
15.66000 1.160
15.68000 9.719
15.70000 11.185
15.72000 5.457
15.74000 6.982
15.76000 2.425
15.78000 -3.712
15.80000 5.700
15.82000 2.073
15.84000 4.192
15.86000 3.229
15.88000 3.211
15.90000 4.252
15.92000 2.585
15.94000 -1.806
15.96000 6.120
15.98000 5.399
16.00000 -0.860
16.02000 2.166
16.04000 12.642
16.06000 9.347
16.08000 -0.740
16.10000 1.933
16.12000 5.888
16.14000 -2.627
16.16000 1.633
16.18000 0.510
16.20000 5.565
16.22000 4.931
16.24000 4.446
16.26000 9.413
16.28000 2.064
16.30000 1.485
16.32000 6.988
16.34000 12.873
16.36000 6.079
16.38000 0.146
16.40000 4.887
16.42000 15.010
16.44000 11.235
16.46000 0.321
16.48000 0.974
16.50000 -0.902
16.52000 0.951
16.54000 7.142
16.56000 2.201
16.58000 -0.142
16.60000 3.484
16.62000 2.587
16.64000 -2.327
16.66000 2.361
16.68000 -4.424
16.70000 2.884
16.72000 3.392
16.74000 1.119
16.76000 -3.996
16.78000 -1.004
16.80000 5.233
16.82000 7.705
16.84000 12.183
16.86000 5.513
16.88000 -1.630
16.90000 3.875
16.92000 2.158
16.94000 8.068
16.96000 2.774
16.98000 7.310
17.00000 7.537
17.02000 2.876
17.04000 4.466
17.06000 4.353
17.08000 3.333
17.10000 -3.376
17.12000 2.190
17.14000 0.365
17.16000 3.076
17.18000 2.043
17.20000 4.454
17.22000 5.726
17.24000 4.803
17.26000 4.677
17.28000 7.854
17.30000 3.754
17.32000 2.014
17.34000 3.002
17.36000 1.961
17.38000 1.367
17.40000 -2.653
17.42000 -3.137
17.44000 3.815
17.46000 2.222
17.48000 -2.979
17.50000 0.065
17.52000 8.004
17.54000 5.540
17.56000 2.563
17.58000 -1.360
17.60000 1.757
17.62000 4.196
17.64000 0.208
17.66000 0.632
17.68000 3.215
17.70000 2.345
17.72000 3.030
17.74000 0.726
17.76000 0.197
17.78000 0.793
17.80000 1.035
17.82000 6.439
17.84000 2.099
17.86000 3.127
17.88000 6.457
17.90000 1.043
17.92000 -1.484
17.94000 5.027
17.96000 3.375
17.98000 7.519
18.00000 2.063
18.02000 3.323
18.04000 -0.045
18.06000 3.994
18.08000 -0.489
18.10000 1.266
18.12000 -0.987
18.14000 0.118
18.16000 -0.673
18.18000 -0.716
18.20000 2.304
18.22000 -0.822
18.24000 -0.845
18.26000 -1.374
18.28000 5.324
18.30000 5.671
18.32000 8.958
18.34000 6.960
18.36000 -4.329
18.38000 1.243
18.40000 -2.980
18.42000 2.990
18.44000 9.468
18.46000 9.433
18.48000 2.326
18.50000 -0.428
18.52000 0.338
18.54000 -3.769
18.56000 -0.657
18.58000 -1.651
18.60000 3.282
18.62000 3.426
18.64000 3.666
18.66000 6.549
18.68000 7.972
18.70000 3.169
18.72000 -1.521
18.74000 0.889
18.76000 -1.264
18.78000 -1.165
18.80000 5.688
18.82000 0.814
18.84000 -2.031
18.86000 6.723
18.88000 5.015
18.90000 6.504
18.92000 8.180
18.94000 -0.043
18.96000 -3.187
18.98000 1.458
19.00000 1.323
19.02000 -1.041
19.04000 -0.750
19.06000 -0.206
19.08000 4.174
19.10000 3.589
19.12000 2.634
19.14000 2.241
19.16000 14.334
19.18000 15.877
19.20000 12.199
19.22000 3.070
19.24000 -1.378
19.26000 6.056
19.28000 14.657
19.30000 8.575
19.32000 -0.057
19.34000 6.601
19.36000 1.907
19.38000 -2.305
19.40000 -4.219
19.42000 0.692
19.44000 5.904
19.46000 7.530
19.48000 6.892
19.50000 5.625
19.52000 3.650
19.54000 7.919
19.56000 5.924
19.58000 5.714
19.60000 6.383
19.62000 9.712
19.64000 11.867
19.66000 8.889
19.68000 3.939
19.70000 5.019
19.72000 6.764
19.74000 9.236
19.76000 6.066
19.78000 4.849
19.80000 2.320
19.82000 3.171
19.84000 1.369
19.86000 2.590
19.88000 3.690
19.90000 7.991
19.92000 6.716
19.94000 9.362
19.96000 9.042
19.98000 3.562
20.00000 5.318
20.02000 9.745
20.04000 8.028
20.06000 2.661
20.08000 3.002
20.10000 5.190
20.12000 1.576
20.14000 -0.886
20.16000 -0.070
20.18000 -4.172
20.20000 -3.744
20.22000 0.376
20.24000 6.464
20.26000 7.447
20.28000 10.111
20.30000 3.611
20.32000 8.808
20.34000 8.557
20.36000 6.210
20.38000 -1.210
20.40000 0.216
20.42000 5.054
20.44000 4.122
20.46000 0.375
20.48000 -4.158
20.50000 -3.038
20.52000 3.710
20.54000 7.170
20.56000 8.239
20.58000 9.856
20.60000 5.124
20.62000 6.522
20.64000 5.435
20.66000 1.213
20.68000 -1.456
20.70000 5.562
20.72000 4.754
20.74000 7.335
20.76000 9.518
20.78000 3.294
20.80000 5.165
20.82000 0.494
20.84000 0.085
20.86000 8.855
20.88000 8.511
20.90000 4.418
20.92000 2.615
20.94000 3.025
20.96000 6.334
20.98000 -0.877
21.00000 -1.046
21.02000 8.437
21.04000 11.395
21.06000 0.741
21.08000 1.082
21.10000 -0.163
21.12000 4.289
21.14000 4.316
21.16000 2.694
21.18000 3.466
21.20000 8.869
21.22000 6.030
21.24000 3.171
21.26000 3.400
21.28000 -0.868
21.30000 0.782
21.32000 5.208
21.34000 4.794
21.36000 0.679
21.38000 5.193
21.40000 0.055
21.42000 -3.134
21.44000 2.340
21.46000 5.730
21.48000 -1.085
21.50000 4.270
21.52000 0.259
21.54000 5.135
21.56000 9.224
21.58000 5.743
21.60000 8.705
21.62000 8.816
21.64000 5.698
21.66000 6.346
21.68000 2.775
21.70000 6.941
21.72000 8.026
21.74000 6.209
21.76000 11.545
21.78000 14.646
21.80000 9.695
21.82000 4.501
21.84000 0.278
21.86000 -0.273
21.88000 -0.717
21.90000 3.235
21.92000 0.495
21.94000 -0.240
21.96000 3.352
21.98000 6.825
22.00000 3.019
22.02000 6.893
22.04000 6.911
22.06000 5.110
22.08000 -0.146
22.10000 -4.081
22.12000 2.309
22.14000 2.714
22.16000 -0.769
22.18000 4.987
22.20000 5.020
22.22000 3.239
22.24000 2.974
22.26000 1.314
22.28000 -0.587
22.30000 4.183
22.32000 4.423
22.34000 2.454
22.36000 2.655
22.38000 6.690
22.40000 9.847
22.42000 8.622
22.44000 9.021
22.46000 6.189
22.48000 2.010
22.50000 2.421
22.52000 2.370
22.54000 5.414
22.56000 6.501
22.58000 4.421
22.60000 6.287
22.62000 0.698
22.64000 1.305
22.66000 2.317
22.68000 6.208
22.70000 5.802
22.72000 5.073
22.74000 2.930
22.76000 3.718
22.78000 1.354
22.80000 7.545
22.82000 4.701
22.84000 7.016
22.86000 3.771
22.88000 3.079
22.90000 3.635
22.92000 8.775
22.94000 2.882
22.96000 -4.001
22.98000 6.200
23.00000 9.961
23.02000 7.508
23.04000 5.348
23.06000 2.422
23.08000 7.298
23.10000 9.680
23.12000 5.183
23.14000 1.408
23.16000 3.795
23.18000 5.016
23.20000 8.819
23.22000 9.147
23.24000 4.214
23.26000 3.568
23.28000 -0.819
23.30000 1.118
23.32000 2.324
23.34000 4.972
23.36000 4.800
23.38000 5.185
23.40000 5.841
23.42000 4.232
23.44000 10.399
23.46000 11.369
23.48000 3.087
23.50000 2.893
23.52000 0.140
23.54000 4.346
23.56000 3.695
23.58000 3.282
23.60000 10.889
23.62000 13.598
23.64000 11.809
23.66000 15.144
23.68000 7.229
23.70000 1.052
23.72000 1.273
23.74000 -3.735
23.76000 -1.859
23.78000 2.096
23.80000 2.548
23.82000 3.404
23.84000 -1.747
23.86000 5.217
23.88000 6.845
23.90000 4.350
23.92000 -3.927
23.94000 -3.965
23.96000 0.470
23.98000 3.334
24.00000 13.605
24.02000 13.997
24.04000 13.529
24.06000 5.355
24.08000 4.030
24.10000 6.421
24.12000 6.484
24.14000 13.634
24.16000 9.331
24.18000 1.882
24.20000 3.929
24.22000 5.594
24.24000 2.806
24.26000 8.077
24.28000 9.286
24.30000 8.301
24.32000 3.226
24.34000 2.794
24.36000 1.645
24.38000 2.557
24.40000 3.645
24.42000 3.285
24.44000 0.051
24.46000 2.456
24.48000 2.739
24.50000 5.027
24.52000 4.059
24.54000 1.949
24.56000 3.404
24.58000 1.799
24.60000 5.196
24.62000 4.563
24.64000 1.262
24.66000 -1.540
24.68000 -2.471
24.70000 -2.769
24.72000 -1.636
24.74000 6.300
24.76000 4.835
24.78000 -2.918
24.80000 -2.070
24.82000 1.917
24.84000 -3.924
24.86000 -1.368
24.88000 3.906
24.90000 4.211
24.92000 -0.356
24.94000 4.838
24.96000 3.432
24.98000 6.271
25.00000 6.222
25.02000 0.061
25.04000 3.492
25.06000 9.009
25.08000 14.055
25.10000 10.255
25.12000 4.089
25.14000 3.027
25.16000 3.769
25.18000 8.003
25.20000 6.575
25.22000 6.336
25.24000 4.496
25.26000 -0.452
25.28000 1.213
25.30000 4.019
25.32000 2.220
25.34000 -0.767
25.36000 0.853
25.38000 4.146
25.40000 4.043
25.42000 9.225
25.44000 8.628
25.46000 5.252
25.48000 3.022
25.50000 2.260
25.52000 -0.704
25.54000 4.310
25.56000 3.265
25.58000 -0.735
25.60000 -2.389
25.62000 1.047
25.64000 -2.745
25.66000 -1.311
25.68000 -0.732
25.70000 -2.130
25.72000 1.470
25.74000 3.401
25.76000 7.635
25.78000 10.194
25.80000 8.601
25.82000 9.011
25.84000 4.058
25.86000 0.572
25.88000 4.466
25.90000 3.811
25.92000 0.784
25.94000 7.794
25.96000 3.608
25.98000 -0.224
26.00000 3.799
26.02000 5.893
26.04000 1.929
26.06000 -3.850
26.08000 -3.768
26.10000 2.060
26.12000 4.551
26.14000 4.023
26.16000 2.782
26.18000 0.834
26.20000 3.797
26.22000 0.944
26.24000 1.448
26.26000 0.037
26.28000 -0.707
26.30000 1.721
26.32000 1.934
26.34000 0.515
26.36000 4.927
26.38000 3.194
26.40000 12.062
26.42000 5.016
26.44000 7.265
26.46000 3.650
26.48000 -0.262
26.50000 2.208
26.52000 5.597
26.54000 2.254
26.56000 2.869
26.58000 5.576
26.60000 2.807
26.62000 1.425
26.64000 5.516
26.66000 5.577
26.68000 7.030
26.70000 6.447
26.72000 2.680
26.74000 4.849
26.76000 4.958
26.78000 9.943
26.80000 7.350
26.82000 6.688
26.84000 6.545
26.86000 5.714
26.88000 8.552
26.90000 9.230
26.92000 5.834
26.94000 6.351
26.96000 2.938
26.98000 2.105
27.00000 4.315
27.02000 2.782
27.04000 5.769
27.06000 4.564
27.08000 8.855
27.10000 5.374
27.12000 4.591
27.14000 7.067
27.16000 6.169
27.18000 3.343
27.20000 4.043
27.22000 4.457
27.24000 -1.268
27.26000 -2.616
27.28000 2.130
27.30000 1.009
27.32000 7.341
27.34000 5.695
27.36000 5.689
27.38000 2.070
27.40000 -2.847
27.42000 0.950
27.44000 3.980
27.46000 4.357
27.48000 -3.784
27.50000 0.426
27.52000 1.105
27.54000 3.583
27.56000 6.964
27.58000 5.121
27.60000 1.579
27.62000 0.365
27.64000 3.347
27.66000 3.677
27.68000 3.853
27.70000 1.880
27.72000 4.753
27.74000 7.193
27.76000 5.101
27.78000 2.498
27.80000 6.387
27.82000 8.967
27.84000 10.167
27.86000 4.872
27.88000 4.679
27.90000 5.809
27.92000 7.992
27.94000 2.530
27.96000 1.319
27.98000 3.981
28.00000 5.587
28.02000 4.395
28.04000 8.539
28.06000 8.076
28.08000 2.745
28.10000 1.306
28.12000 2.139
28.14000 5.958
28.16000 3.942
28.18000 0.640
28.20000 1.973
28.22000 7.180
28.24000 7.285
28.26000 9.661
28.28000 -0.051
28.30000 -3.731
28.32000 -1.822
28.34000 1.737
28.36000 4.682
28.38000 5.272
28.40000 8.331
28.42000 13.221
28.44000 4.045
28.46000 -0.258
28.48000 -0.582
28.50000 -2.799
28.52000 -3.394
28.54000 -0.433
28.56000 2.276
28.58000 8.393
28.60000 8.811
28.62000 5.851
28.64000 5.264
28.66000 -2.551
28.68000 -1.943
28.70000 2.916
28.72000 4.374
28.74000 5.436
28.76000 1.069
28.78000 5.471
28.80000 8.898
28.82000 2.707
28.84000 2.958
28.86000 5.312
28.88000 1.271
28.90000 0.780
28.92000 1.271
28.94000 2.583
28.96000 -1.245
28.98000 1.751
29.00000 8.184
29.02000 7.225
29.04000 4.148
29.06000 6.833
29.08000 4.566
29.10000 4.570
29.12000 5.277
29.14000 5.646
29.16000 1.462
29.18000 -3.702
29.20000 0.091
29.22000 3.129
29.24000 4.060
29.26000 1.082
29.28000 0.528
29.30000 2.898
29.32000 2.734
29.34000 2.536
29.36000 -3.695
29.38000 0.089
29.40000 7.360
29.42000 9.903
29.44000 10.448
29.46000 3.668
29.48000 -1.056
29.50000 3.818
29.52000 3.522
29.54000 0.484
29.56000 1.183
29.58000 3.730
29.60000 4.380
29.62000 6.144
29.64000 0.016
29.66000 2.962
29.68000 7.880
29.70000 6.369
29.72000 2.925
29.74000 -0.011
29.76000 2.458
29.78000 0.638
29.80000 -1.677
29.82000 -0.271
29.84000 4.941
29.86000 2.836
29.88000 -1.535
29.90000 -3.673
29.92000 3.877
29.94000 3.913
29.96000 3.575
29.98000 1.873
30.00000 -2.616
30.02000 7.484
30.04000 5.715
30.06000 4.111
30.08000 4.834
30.10000 4.192
30.12000 1.048
30.14000 0.450
30.16000 1.101
30.18000 -2.618
30.20000 1.927
30.22000 7.831
30.24000 9.953
30.26000 1.501
30.28000 3.610
30.30000 6.425
30.32000 6.999
30.34000 4.641
30.36000 -0.110
30.38000 0.936
30.40000 4.898
30.42000 4.091
30.44000 1.403
30.46000 3.974
30.48000 1.645
30.50000 -0.337
30.52000 2.670
30.54000 2.576
30.56000 1.991
30.58000 1.479
30.60000 1.490
30.62000 3.251
30.64000 2.265
30.66000 2.143
30.68000 0.232
30.70000 -0.971
30.72000 -1.332
30.74000 -0.374
30.76000 3.082
30.78000 9.058
30.80000 5.187
30.82000 5.446
30.84000 4.486
30.86000 1.526
30.88000 7.043
30.90000 5.572
30.92000 4.723
30.94000 7.456
30.96000 -0.921
30.98000 1.655
31.00000 8.052
31.02000 1.796
31.04000 -2.087
31.06000 0.182
31.08000 6.549
31.10000 4.222
31.12000 2.291
31.14000 2.056
31.16000 -0.537
31.18000 1.708
31.20000 -0.679
31.22000 -0.820
31.24000 -2.265
31.26000 -3.358
31.28000 1.164
31.30000 2.411
31.32000 3.139
31.34000 3.046
31.36000 0.138
31.38000 -0.395
31.40000 -3.596
31.42000 -3.587
31.44000 1.201
31.46000 2.055
31.48000 5.377
31.50000 3.110
31.52000 3.460
31.54000 7.661
31.56000 7.448
31.58000 5.933
31.60000 -0.090
31.62000 -0.239
31.64000 0.590
31.66000 1.652
31.68000 4.244
31.70000 7.330
31.72000 7.145
31.74000 2.005
31.76000 1.497
31.78000 2.303
31.80000 0.415
31.82000 2.745
31.84000 6.291
31.86000 5.602
31.88000 2.421
31.90000 -3.567
31.92000 -2.289
31.94000 5.136
31.96000 8.055
31.98000 3.262
32.00000 7.228
32.02000 7.826
32.04000 4.482
32.06000 4.010
32.08000 -0.405
32.10000 -0.602
32.12000 2.153
32.14000 4.742
32.16000 2.883
32.18000 5.786
32.20000 4.154
32.22000 1.870
32.24000 1.018
32.26000 7.879
32.28000 12.342
32.30000 6.854
32.32000 9.480
32.34000 4.133
32.36000 1.903
32.38000 0.911
32.40000 4.337
32.42000 4.753
32.44000 1.950
32.46000 2.127
32.48000 3.221
32.50000 -0.732
32.52000 3.513
32.54000 1.444
32.56000 7.555
32.58000 8.110
32.60000 4.970
32.62000 3.937
32.64000 2.277
32.66000 3.330
32.68000 6.478
32.70000 4.010
32.72000 4.134
32.74000 4.149
32.76000 2.348
32.78000 -3.546
32.80000 1.456
32.82000 0.771
32.84000 6.731
32.86000 5.574
32.88000 1.534
32.90000 1.472
32.92000 1.844
32.94000 -0.309
32.96000 2.129
32.98000 4.062
33.00000 2.686
33.02000 2.824
33.04000 -0.050
33.06000 0.061
33.08000 3.534
33.10000 1.651
33.12000 -0.819
33.14000 -0.633
33.16000 -0.921
33.18000 -1.407
33.20000 2.358
33.22000 5.416
33.24000 6.637
33.26000 1.326
33.28000 2.096
33.30000 4.641
33.32000 4.504
33.34000 3.407
33.36000 5.895
33.38000 6.526
33.40000 5.735
33.42000 1.867
33.44000 3.383
33.46000 7.332
33.48000 5.785
33.50000 4.123
33.52000 1.966
33.54000 0.519
33.56000 3.292
33.58000 3.930
33.60000 0.783
33.62000 6.085
33.64000 3.755
33.66000 5.432
33.68000 3.592
33.70000 2.222
33.72000 -1.860
33.74000 1.600
33.76000 6.070
33.78000 10.202
33.80000 7.823
33.82000 2.442
33.84000 4.252
33.86000 10.094
33.88000 9.622
33.90000 11.623
33.92000 6.220
33.94000 -3.491
33.96000 -1.077
33.98000 3.708
34.00000 5.437
34.02000 4.318
34.04000 5.785
34.06000 4.073
34.08000 4.118
34.10000 9.544
34.12000 4.247
34.14000 -0.160
34.16000 4.081
34.18000 6.073
34.20000 5.455
34.22000 6.080
34.24000 7.202
34.26000 6.225
34.28000 2.793
34.30000 2.586
34.32000 3.611
34.34000 1.526
34.36000 2.415
34.38000 5.234
34.40000 4.551
34.42000 6.462
34.44000 5.005
34.46000 7.439
34.48000 2.562
34.50000 5.573
34.52000 5.223
34.54000 2.933
34.56000 4.307
34.58000 8.730
34.60000 8.830
34.62000 2.440
34.64000 6.657
34.66000 7.274
34.68000 4.405
34.70000 6.014
34.72000 -0.322
34.74000 0.569
34.76000 5.651
34.78000 6.513
34.80000 3.234
34.82000 4.786
34.84000 4.786
34.86000 6.407
34.88000 6.964
34.90000 2.031
34.92000 2.465
34.94000 3.658
34.96000 0.753
34.98000 0.912
35.00000 3.790
35.02000 2.291
35.04000 5.473
35.06000 10.463
35.08000 10.445
35.10000 4.270
35.12000 2.156
35.14000 4.650
35.16000 2.690
35.18000 2.893
35.20000 5.171
35.22000 2.404
35.24000 0.129
35.26000 -2.833
35.28000 2.187
35.30000 2.724
35.32000 2.907
35.34000 2.881
35.36000 4.311
35.38000 6.388
35.40000 10.303
35.42000 11.143
35.44000 7.580
35.46000 4.512
35.48000 2.992
35.50000 -3.415
35.52000 0.041
35.54000 4.173
35.56000 7.472
35.58000 5.381
35.60000 0.473
35.62000 4.065
35.64000 8.301
35.66000 9.584
35.68000 5.056
35.70000 7.466
35.72000 3.743
35.74000 4.730
35.76000 4.834
35.78000 6.741
35.80000 3.828
35.82000 0.517
35.84000 -0.166
35.86000 1.078
35.88000 2.506
35.90000 5.475
35.92000 6.275
35.94000 7.028
35.96000 8.415
35.98000 7.690
36.00000 3.887
36.02000 1.634
36.04000 0.674
36.06000 1.538
36.08000 -3.280
36.10000 -3.245
36.12000 6.627
36.14000 3.856
36.16000 4.794
36.18000 2.755
36.20000 4.591
36.22000 5.902
36.24000 3.851
36.26000 1.408
36.28000 3.694
36.30000 6.239
36.32000 3.465
36.34000 -1.979
36.36000 1.086
36.38000 -0.049
36.40000 -0.097
36.42000 0.995
36.44000 4.339
36.46000 1.109
36.48000 -0.774
36.50000 -2.324
36.52000 -0.723
36.54000 -3.488
36.56000 1.778
36.58000 1.675
36.60000 -0.033
36.62000 -0.509
36.64000 -3.295
36.66000 -2.202
36.68000 2.362
36.70000 0.877
36.72000 -0.701
36.74000 -0.284
36.76000 2.023
36.78000 3.617
36.80000 3.046
36.82000 -1.283
36.84000 -1.921
36.86000 -1.884
36.88000 -0.779
36.90000 -2.468
36.92000 -2.884
36.94000 -0.638
36.96000 -0.569
36.98000 0.113
37.00000 0.114
37.02000 -0.776
37.04000 -1.635
37.06000 -0.646
37.08000 0.887
37.10000 1.639
37.12000 2.319
37.14000 4.255
37.16000 4.389
37.18000 5.531
37.20000 8.731
37.22000 5.981
37.24000 -0.719
37.26000 -3.510
37.28000 -3.049
37.30000 0.833
37.32000 -0.208
37.34000 -2.207
37.36000 0.138
37.38000 1.082
37.40000 -0.889
37.42000 2.850
37.44000 6.389
37.46000 2.850
37.48000 0.435
37.50000 1.114
37.52000 2.676
37.54000 2.768
37.56000 -2.390
37.58000 3.229
37.60000 2.053
37.62000 1.679
37.64000 -3.521
37.66000 -3.429
37.68000 -1.986
37.70000 -0.320
37.72000 3.092
37.74000 1.304
37.76000 0.936
37.78000 4.015
37.80000 3.762
37.82000 4.812
37.84000 1.265
37.86000 0.095
37.88000 5.173
37.90000 3.666
37.92000 3.793
37.94000 0.607
37.96000 4.877
37.98000 6.079
38.00000 4.586
38.02000 4.714
38.04000 4.165
38.06000 6.983
38.08000 4.633
38.10000 3.681
38.12000 9.173
38.14000 11.892
38.16000 7.045
38.18000 8.141
38.20000 12.858
38.22000 12.759
38.24000 11.446
38.26000 10.424
38.28000 10.285
38.30000 5.523
38.32000 3.786
38.34000 5.700
38.36000 9.973
38.38000 13.908
38.40000 9.250
38.42000 5.560
38.44000 10.237
38.46000 15.538
38.48000 12.454
38.50000 15.674
38.52000 14.380
38.54000 12.833
38.56000 12.796
38.58000 13.161
38.60000 10.447
38.62000 12.715
38.64000 19.852
38.66000 18.071
38.68000 18.001
38.70000 19.075
38.72000 16.029
38.74000 13.576
38.76000 13.714
38.78000 16.018
38.80000 17.194
38.82000 19.248
38.84000 21.023
38.86000 18.048
38.88000 20.116
38.90000 16.028
38.92000 20.705
38.94000 22.443
38.96000 24.250
38.98000 24.934
39.00000 21.542
39.02000 23.896
39.04000 24.554
39.06000 31.687
39.08000 33.492
39.10000 29.969
39.12000 25.180
39.14000 28.926
39.16000 29.833
39.18000 28.760
39.20000 29.573
39.22000 33.520
39.24000 34.097
39.26000 35.095
39.28000 33.774
39.30000 38.710
39.32000 39.094
39.34000 41.595
39.36000 45.893
39.38000 46.069
39.40000 48.900
39.42000 49.585
39.44000 42.660
39.46000 47.709
39.48000 55.085
39.50000 54.680
39.52000 57.761
39.54000 65.063
39.56000 64.850
39.58000 65.283
39.60000 78.709
39.62000 75.961
39.64000 78.313
39.66000 78.804
39.68000 87.165
39.70000 92.914
39.72000 97.648
39.74000 105.298
39.76000 108.135
39.78000 111.530
39.80000 117.556
39.82000 118.281
39.84000 123.150
39.86000 129.188
39.88000 139.325
39.90000 142.176
39.92000 146.532
39.94000 154.223
39.96000 167.015
39.98000 175.530
40.00000 177.525
40.02000 187.304
40.04000 201.183
40.06000 206.009
40.08000 219.241
40.10000 241.031
40.12000 248.937
40.14000 263.363
40.16000 281.286
40.18000 290.060
40.20000 300.751
40.22000 316.249
40.24000 335.181
40.26000 356.253
40.28000 372.371
40.30000 381.793
40.32000 391.206
40.34000 399.238
40.36000 425.158
40.38000 447.127
40.40000 465.752
40.42000 472.222
40.44000 482.667
40.46000 502.382
40.48000 517.243
40.50000 518.487
40.52000 534.316
40.54000 543.941
40.56000 553.343
40.58000 562.839
40.60000 564.243
40.62000 567.468
40.64000 571.911
40.66000 582.542
40.68000 576.695
40.70000 569.065
40.72000 569.171
40.74000 568.926
40.76000 561.762
40.78000 547.543
40.80000 529.324
40.82000 526.288
40.84000 517.677
40.86000 492.605
40.88000 485.026
40.90000 477.447
40.92000 449.562
40.94000 438.772
40.96000 424.678
40.98000 411.171
41.00000 392.758
41.02000 370.661
41.04000 362.660
41.06000 354.529
41.08000 337.472
41.10000 316.922
41.12000 296.652
41.14000 287.742
41.16000 273.257
41.18000 263.366
41.20000 249.038
41.22000 234.047
41.24000 224.892
41.26000 213.215
41.28000 202.583
41.30000 194.898
41.32000 184.787
41.34000 183.775
41.36000 170.369
41.38000 150.751
41.40000 145.838
41.42000 142.793
41.44000 132.358
41.46000 122.091
41.48000 117.531
41.50000 110.739
41.52000 108.172
41.54000 99.001
41.56000 93.453
41.58000 86.112
41.60000 82.025
41.62000 80.602
41.64000 73.632
41.66000 76.008
41.68000 70.559
41.70000 67.014
41.72000 65.950
41.74000 59.105
41.76000 54.033
41.78000 56.163
41.80000 49.712
41.82000 48.446
41.84000 53.256
41.86000 52.074
41.88000 48.116
41.90000 44.699
41.92000 42.995
41.94000 41.814
41.96000 32.031
41.98000 30.803
42.00000 28.195
42.02000 31.836
42.04000 31.378
42.06000 26.007
42.08000 23.044
42.10000 27.244
42.12000 21.826
42.14000 21.608
42.16000 23.849
42.18000 21.848
42.20000 18.744
42.22000 21.002
42.24000 19.932
42.26000 20.103
42.28000 19.041
42.30000 12.979
42.32000 13.162
42.34000 14.531
42.36000 8.873
42.38000 9.371
42.40000 12.952
42.42000 11.493
42.44000 14.630
42.46000 16.141
42.48000 13.168
42.50000 9.170
42.52000 7.592
42.54000 9.280
42.56000 6.468
42.58000 9.681
42.60000 11.776
42.62000 8.288
42.64000 4.679
42.66000 8.999
42.68000 10.131
42.70000 8.513
42.72000 7.198
42.74000 9.423
42.76000 7.929
42.78000 3.989
42.80000 2.174
42.82000 -2.254
42.84000 3.565
42.86000 4.251
42.88000 3.206
42.90000 2.403
42.92000 4.415
42.94000 6.720
42.96000 4.299
42.98000 1.345
43.00000 4.312
43.02000 5.502
43.04000 3.711
43.06000 -2.358
43.08000 -3.526
43.10000 6.438
43.12000 7.417
43.14000 0.967
43.16000 -0.230
43.18000 1.053
43.20000 1.977
43.22000 0.443
43.24000 -0.639
43.26000 3.265
43.28000 5.467
43.30000 7.538
43.32000 2.802
43.34000 2.291
43.36000 2.548
43.38000 1.376
43.40000 -0.590
43.42000 1.162
43.44000 6.358
43.46000 6.116
43.48000 4.228
43.50000 -1.050
43.52000 -0.394
43.54000 0.917
43.56000 3.164
43.58000 3.927
43.60000 -0.281
43.62000 1.400
43.64000 1.602
43.66000 3.756
43.68000 -1.613
43.70000 -1.086
43.72000 -1.691
43.74000 1.693
43.76000 1.803
43.78000 -3.445
43.80000 -0.241
43.82000 0.619
43.84000 3.293
43.86000 1.302
43.88000 -1.220
43.90000 1.923
43.92000 -0.316
43.94000 0.923
43.96000 2.249
43.98000 7.218
44.00000 2.861
44.02000 0.314
44.04000 3.285
44.06000 2.456
44.08000 7.710
44.10000 6.484
44.12000 2.942
44.14000 0.917
44.16000 1.570
44.18000 -0.029
44.20000 -3.416
44.22000 -1.843
44.24000 3.663
44.26000 5.310
44.28000 0.182
44.30000 -2.650
44.32000 0.365
44.34000 2.674
44.36000 3.459
44.38000 5.633
44.40000 -1.446
44.42000 -2.068
44.44000 4.563
44.46000 1.707
44.48000 3.469
44.50000 2.663
44.52000 3.029
44.54000 1.757
44.56000 1.120
44.58000 3.809
44.60000 4.817
44.62000 1.915
44.64000 3.789
44.66000 3.219
44.68000 5.294
44.70000 4.199
44.72000 -0.671
44.74000 -2.401
44.76000 0.090
44.78000 -3.138
44.80000 -2.276
44.82000 -3.393
44.84000 -0.849
44.86000 0.743
44.88000 1.033
44.90000 4.556
44.92000 6.256
44.94000 3.456
44.96000 0.868
44.98000 3.311
45.00000 2.883
45.02000 2.247
45.04000 1.153
45.06000 1.884
45.08000 4.504
45.10000 1.874
45.12000 1.070
45.14000 1.042
45.16000 6.439
45.18000 6.552
45.20000 3.107
45.22000 -0.581
45.24000 4.361
45.26000 3.096
45.28000 1.957
45.30000 1.187
45.32000 1.096
45.34000 1.533
45.36000 0.124
45.38000 -0.445
45.40000 -1.052
45.42000 -0.221
45.44000 5.316
45.46000 9.756
45.48000 8.645
45.50000 4.030
45.52000 5.596
45.54000 8.955
45.56000 6.085
45.58000 8.552
45.60000 10.131
45.62000 8.136
45.64000 1.091
45.66000 5.649
45.68000 1.553
45.70000 1.886
45.72000 5.470
45.74000 7.025
45.76000 6.771
45.78000 10.357
45.80000 11.255
45.82000 11.035
45.84000 13.395
45.86000 16.222
45.88000 13.678
45.90000 12.016
45.92000 9.359
45.94000 14.663
45.96000 17.907
45.98000 19.909
46.00000 14.419
46.02000 11.260
46.04000 16.335
46.06000 14.875
46.08000 15.353
46.10000 16.794
46.12000 13.950
46.14000 21.247
46.16000 25.841
46.18000 23.573
46.20000 20.890
46.22000 15.928
46.24000 21.367
46.26000 21.683
46.28000 26.611
46.30000 27.749
46.32000 31.575
46.34000 35.301
46.36000 31.651
46.38000 32.001
46.40000 33.445
46.42000 33.769
46.44000 31.857
46.46000 36.920
46.48000 39.780
46.50000 36.413
46.52000 35.765
46.54000 40.600
46.56000 40.305
46.58000 43.636
46.60000 44.302
46.62000 43.512
46.64000 45.080
46.66000 47.767
46.68000 48.991
46.70000 51.673
46.72000 51.491
46.74000 53.074
46.76000 57.195
46.78000 57.631
46.80000 61.643
46.82000 56.174
46.84000 61.825
46.86000 63.759
46.88000 64.656
46.90000 62.683
46.92000 61.705
46.94000 64.928
46.96000 61.756
46.98000 61.489
47.00000 68.032
47.02000 73.282
47.04000 75.021
47.06000 73.319
47.08000 69.972
47.10000 69.853
47.12000 76.511
47.14000 78.044
47.16000 76.497
47.18000 69.069
47.20000 68.621
47.22000 71.817
47.24000 71.618
47.26000 74.487
47.28000 78.200
47.30000 75.794
47.32000 71.898
47.34000 75.472
47.36000 75.389
47.38000 76.044
47.40000 72.176
47.42000 73.102
47.44000 70.533
47.46000 69.627
47.48000 67.133
47.50000 62.085
47.52000 59.077
47.54000 55.165
47.56000 60.547
47.58000 59.893
47.60000 59.993
47.62000 55.251
47.64000 55.441
47.66000 57.877
47.68000 54.538
47.70000 53.883
47.72000 56.479
47.74000 52.054
47.76000 49.405
47.78000 46.061
47.80000 42.018
47.82000 40.856
47.84000 40.075
47.86000 46.635
47.88000 44.511
47.90000 44.104
47.92000 42.117
47.94000 36.606
47.96000 31.592
47.98000 26.400
48.00000 30.762
48.02000 31.264
48.04000 29.192
48.06000 29.221
48.08000 23.782
48.10000 25.883
48.12000 23.890
48.14000 20.646
48.16000 25.188
48.18000 21.547
48.20000 16.410
48.22000 19.000
48.24000 16.202
48.26000 18.739
48.28000 15.377
48.30000 12.992
48.32000 17.523
48.34000 15.497
48.36000 11.930
48.38000 15.178
48.40000 17.112
48.42000 9.443
48.44000 8.889
48.46000 12.898
48.48000 10.173
48.50000 11.067
48.52000 6.909
48.54000 5.122
48.56000 11.524
48.58000 7.570
48.60000 10.342
48.62000 10.891
48.64000 12.498
48.66000 4.058
48.68000 8.880
48.70000 10.731
48.72000 10.586
48.74000 9.935
48.76000 4.440
48.78000 6.389
48.80000 3.509
48.82000 3.241
48.84000 8.115
48.86000 7.225
48.88000 6.510
48.90000 4.130
48.92000 2.395
48.94000 2.476
48.96000 0.830
48.98000 3.618
49.00000 5.246
49.02000 6.204
49.04000 2.654
49.06000 3.116
49.08000 2.579
49.10000 3.341
49.12000 4.020
49.14000 -0.071
49.16000 1.585
49.18000 1.070
49.20000 8.110
49.22000 1.698
49.24000 -1.904
49.26000 -1.003
49.28000 0.254
49.30000 0.228
49.32000 2.827
49.34000 2.126
49.36000 3.071
49.38000 0.428
49.40000 1.839
49.42000 5.110
49.44000 5.933
49.46000 5.467
49.48000 4.911
49.50000 5.298
49.52000 6.426
49.54000 4.029
49.56000 10.070
49.58000 11.184
49.60000 7.788
49.62000 6.698
49.64000 4.293
49.66000 5.376
49.68000 2.185
49.70000 3.438
49.72000 1.054
49.74000 2.304
49.76000 3.872
49.78000 9.743
49.80000 10.903
49.82000 7.203
49.84000 8.937
49.86000 6.092
49.88000 5.958
49.90000 2.296
49.92000 3.554
49.94000 8.655
49.96000 7.552
49.98000 1.355
50.00000 -2.857
50.02000 0.790
50.04000 3.202
50.06000 6.603
50.08000 6.273
50.10000 5.188
50.12000 1.323
50.14000 1.491
50.16000 5.065
50.18000 3.919
50.20000 5.801
50.22000 6.533
50.24000 6.255
50.26000 6.249
50.28000 1.491
50.30000 1.328
50.32000 -0.551
50.34000 0.276
50.36000 2.696
50.38000 3.087
50.40000 6.732
50.42000 5.496
50.44000 0.868
50.46000 -0.147
50.48000 4.562
50.50000 5.497
50.52000 7.717
50.54000 2.435
50.56000 1.751
50.58000 1.980
50.60000 0.476
50.62000 0.017
50.64000 2.684
50.66000 4.033
50.68000 3.372
50.70000 9.328
50.72000 5.567
50.74000 3.713
50.76000 0.683
50.78000 -1.925
50.80000 2.182
50.82000 6.155
50.84000 3.225
50.86000 3.445
50.88000 6.205
50.90000 2.384
50.92000 0.390
50.94000 1.670
50.96000 5.500
50.98000 3.237
51.00000 3.628
51.02000 3.176
51.04000 -1.516
51.06000 1.771
51.08000 4.595
51.10000 5.463
51.12000 0.549
51.14000 2.665
51.16000 1.618
51.18000 0.021
51.20000 0.580
51.22000 1.734
51.24000 1.052
51.26000 2.196
51.28000 5.308
51.30000 7.854
51.32000 4.617
51.34000 3.608
51.36000 3.321
51.38000 -0.665
51.40000 5.586
51.42000 6.728
51.44000 2.965
51.46000 1.527
51.48000 2.395
51.50000 1.096
51.52000 5.000
51.54000 2.966
51.56000 5.240
51.58000 2.868
51.60000 -2.369
51.62000 0.796
51.64000 4.547
51.66000 3.534
51.68000 3.272
51.70000 -2.835
51.72000 -0.252
51.74000 -0.680
51.76000 -0.456
51.78000 0.237
51.80000 -0.524
51.82000 0.391
51.84000 3.979
51.86000 4.066
51.88000 0.125
51.90000 1.700
51.92000 -0.219
51.94000 -1.369
51.96000 -1.514
51.98000 5.024
52.00000 4.506
52.02000 2.397
52.04000 1.085
52.06000 1.142
52.08000 1.790
52.10000 0.211
52.12000 -0.084
52.14000 5.629
52.16000 5.069
52.18000 7.522
52.20000 2.582
52.22000 3.440
52.24000 4.601
52.26000 -0.608
52.28000 1.107
52.30000 0.970
52.32000 1.334
52.34000 7.789
52.36000 6.055
52.38000 3.890
52.40000 -0.035
52.42000 6.571
52.44000 9.097
52.46000 9.660
52.48000 1.522
52.50000 1.735
52.52000 -1.647
52.54000 2.284
52.56000 2.363
52.58000 2.039
52.60000 3.769
52.62000 4.510
52.64000 -1.149
52.66000 5.195
52.68000 2.399
52.70000 1.477
52.72000 3.097
52.74000 2.870
52.76000 4.158
52.78000 3.750
52.80000 5.101
52.82000 5.024
52.84000 2.095
52.86000 4.959
52.88000 6.147
52.90000 5.775
52.92000 6.520
52.94000 4.062
52.96000 7.087
52.98000 7.811
53.00000 1.569
53.02000 2.216
53.04000 8.822
53.06000 8.597
53.08000 5.192
53.10000 4.215
53.12000 4.316
53.14000 7.707
53.16000 5.506
53.18000 1.433
53.20000 0.374
53.22000 2.168
53.24000 4.658
53.26000 3.698
53.28000 4.323
53.30000 3.178
53.32000 1.646
53.34000 3.333
53.36000 6.725
53.38000 5.503
53.40000 9.035
53.42000 7.766
53.44000 9.076
53.46000 9.271
53.48000 4.542
53.50000 5.504
53.52000 4.719
53.54000 8.269
53.56000 9.634
53.58000 9.521
53.60000 8.758
53.62000 4.654
53.64000 3.644
53.66000 3.917
53.68000 3.526
53.70000 -2.687
53.72000 4.138
53.74000 5.149
53.76000 5.619
53.78000 4.589
53.80000 4.154
53.82000 1.383
53.84000 3.844
53.86000 2.105
53.88000 6.732
53.90000 4.222
53.92000 1.569
53.94000 6.509
53.96000 3.830
53.98000 4.453
54.00000 -0.291
54.02000 6.126
54.04000 9.358
54.06000 11.497
54.08000 8.532
54.10000 9.011
54.12000 1.378
54.14000 2.216
54.16000 2.114
54.18000 3.314
54.20000 9.848
54.22000 11.142
54.24000 7.590
54.26000 5.946
54.28000 6.736
54.30000 2.894
54.32000 -1.812
54.34000 1.915
54.36000 4.057
54.38000 7.147
54.40000 7.383
54.42000 8.990
54.44000 8.328
54.46000 3.546
54.48000 1.670
54.50000 3.795
54.52000 8.262
54.54000 2.606
54.56000 -1.288
54.58000 4.399
54.60000 0.104
54.62000 3.392
54.64000 4.914
54.66000 3.389
54.68000 1.587
54.70000 6.243
54.72000 6.853
54.74000 1.331
54.76000 5.277
54.78000 2.584
54.80000 2.536
54.82000 2.780
54.84000 3.633
54.86000 1.815
54.88000 -0.548
54.90000 -1.012
54.92000 0.854
54.94000 0.720
54.96000 1.165
54.98000 1.735
55.00000 0.966
55.02000 3.265
55.04000 6.597
55.06000 4.434
55.08000 -0.192
55.10000 -1.476
55.12000 2.535
55.14000 1.883
55.16000 1.087
55.18000 1.330
55.20000 1.515
55.22000 2.083
55.24000 1.543
55.26000 1.331
55.28000 0.515
55.30000 0.861
55.32000 0.945
55.34000 2.635
55.36000 2.627
55.38000 2.599
55.40000 3.590
55.42000 -0.853
55.44000 1.105
55.46000 3.704
55.48000 4.574
55.50000 3.420
55.52000 3.783
55.54000 7.063
55.56000 8.634
55.58000 5.869
55.60000 -2.723
55.62000 2.245
55.64000 -0.067
55.66000 0.611
55.68000 2.317
55.70000 5.259
55.72000 3.920
55.74000 6.381
55.76000 3.846
55.78000 1.613
55.80000 0.723
55.82000 -0.139
55.84000 3.343
55.86000 4.655
55.88000 -2.696
55.90000 -1.437
55.92000 2.741
55.94000 6.724
55.96000 4.333
55.98000 0.811
56.00000 -0.331
56.02000 3.789
56.04000 3.298
56.06000 2.736
56.08000 3.832
56.10000 0.395
56.12000 -0.409
56.14000 0.428
56.16000 2.188
56.18000 0.541
56.20000 2.710
56.22000 1.333
56.24000 -0.220
56.26000 1.681
56.28000 2.526
56.30000 2.905
56.32000 3.615
56.34000 2.085
56.36000 0.504
56.38000 0.400
56.40000 1.624
56.42000 2.054
56.44000 4.541
56.46000 0.550
56.48000 -0.148
56.50000 2.031
56.52000 3.237
56.54000 2.886
56.56000 -0.547
56.58000 1.221
56.60000 4.560
56.62000 4.055
56.64000 5.061
56.66000 0.219
56.68000 -1.043
56.70000 -2.648
56.72000 2.619
56.74000 7.886
56.76000 7.006
56.78000 2.951
56.80000 3.784
56.82000 7.304
56.84000 5.971
56.86000 3.364
56.88000 5.100
56.90000 6.174
56.92000 5.279
56.94000 7.392
56.96000 6.555
56.98000 4.047
57.00000 5.432
57.02000 7.478
57.04000 7.264
57.06000 5.225
57.08000 3.932
57.10000 1.787
57.12000 -2.601
57.14000 -0.812
57.16000 2.455
57.18000 4.254
57.20000 5.896
57.22000 9.402
57.24000 9.152
57.26000 10.134
57.28000 9.498
57.30000 7.983
57.32000 9.866
57.34000 3.667
57.36000 3.710
57.38000 8.692
57.40000 10.429
57.42000 5.522
57.44000 6.616
57.46000 8.568
57.48000 8.511
57.50000 2.620
57.52000 8.570
57.54000 8.607
57.56000 4.575
57.58000 3.662
57.60000 8.739
57.62000 9.163
57.64000 7.203
57.66000 7.872
57.68000 8.139
57.70000 8.017
57.72000 11.690
57.74000 11.051
57.76000 5.632
57.78000 3.235
57.80000 7.441
57.82000 3.901
57.84000 9.727
57.86000 11.948
57.88000 8.912
57.90000 2.748
57.92000 -2.607
57.94000 -0.370
57.96000 0.738
57.98000 1.524
58.00000 3.495
58.02000 1.413
58.04000 1.761
58.06000 3.520
58.08000 3.989
58.10000 3.835
58.12000 5.799
58.14000 8.480
58.16000 3.118
58.18000 1.329
58.20000 2.611
58.22000 1.402
58.24000 3.618
58.26000 5.483
58.28000 3.658
58.30000 4.088
58.32000 5.178
58.34000 5.495
58.36000 4.596
58.38000 -0.949
58.40000 -2.603
58.42000 0.725
58.44000 3.395
58.46000 3.906
58.48000 4.397
58.50000 3.759
58.52000 5.657
58.54000 5.809
58.56000 0.217
58.58000 0.450
58.60000 -0.502
58.62000 4.441
58.64000 3.248
58.66000 1.679
58.68000 2.330
58.70000 3.743
58.72000 1.930
58.74000 -0.225
58.76000 4.289
58.78000 1.248
58.80000 2.978
58.82000 3.015
58.84000 4.142
58.86000 1.275
58.88000 0.651
58.90000 2.786
58.92000 -0.294
58.94000 -1.045
58.96000 -1.201
58.98000 1.337
59.00000 1.666
59.02000 3.224
59.04000 -1.282
59.06000 -2.592
59.08000 3.933
59.10000 2.452
59.12000 4.718
59.14000 6.373
59.16000 4.312
59.18000 4.986
59.20000 0.757
59.22000 -0.007
59.24000 5.092
59.26000 4.901
59.28000 3.992
59.30000 4.200
59.32000 6.704
59.34000 5.908
59.36000 5.385
59.38000 1.767
59.40000 3.071
59.42000 6.827
59.44000 3.061
59.46000 1.589
59.48000 -2.579
59.50000 1.282
59.52000 4.306
59.54000 0.149
59.56000 2.361
59.58000 0.157
59.60000 4.045
59.62000 5.827
59.64000 4.224
59.66000 4.200
59.68000 0.610
59.70000 -0.038
59.72000 1.250
59.74000 4.880
59.76000 6.214
59.78000 7.270
59.80000 7.273
59.82000 2.089
59.84000 1.443
59.86000 4.735
59.88000 -0.961
59.90000 3.980
59.92000 6.095
59.94000 4.272
59.96000 4.138
59.98000 1.105
60.00000 3.280
60.02000 5.697
60.04000 -0.187
60.06000 2.340
60.08000 2.350
60.10000 -0.808
60.12000 1.999
60.14000 -2.344
60.16000 -2.427
60.18000 -2.548
60.20000 0.833
60.22000 5.053
60.24000 4.484
60.26000 3.185
60.28000 -0.128
60.30000 1.166
60.32000 2.917
60.34000 3.560
60.36000 6.973
60.38000 4.988
60.40000 2.263
60.42000 1.647
60.44000 0.393
60.46000 0.194
60.48000 2.755
60.50000 1.861
60.52000 1.132
60.54000 -0.735
60.56000 -1.371
60.58000 -0.858
60.60000 -2.515
60.62000 -1.307
60.64000 -2.301
60.66000 0.607
60.68000 4.617
60.70000 5.512
60.72000 -0.767
60.74000 3.069
60.76000 2.621
60.78000 3.900
60.80000 -0.532
60.82000 2.290
60.84000 1.365
60.86000 -1.091
60.88000 2.391
60.90000 0.304
60.92000 -0.377
60.94000 1.113
60.96000 2.210
60.98000 1.252
61.00000 1.373
61.02000 -1.095
61.04000 4.587
61.06000 2.840
61.08000 1.134
61.10000 4.359
61.12000 -2.543
61.14000 -0.881
61.16000 3.208
61.18000 3.516
61.20000 2.620
61.22000 0.582
61.24000 2.410
61.26000 2.360
61.28000 1.092
61.30000 0.395
61.32000 4.454
61.34000 2.290
61.36000 0.236
61.38000 3.647
61.40000 4.897
61.42000 3.339
61.44000 1.895
61.46000 2.202
61.48000 2.886
61.50000 4.491
61.52000 -1.398
61.54000 2.484
61.56000 6.254
61.58000 4.497
61.60000 7.177
61.62000 3.758
61.64000 4.412
61.66000 0.236
61.68000 -0.022
61.70000 -2.530
61.72000 -2.508
61.74000 0.896
61.76000 1.619
61.78000 5.127
61.80000 2.421
61.82000 0.242
61.84000 2.049
61.86000 2.676
61.88000 3.973
61.90000 3.212
61.92000 2.712
61.94000 2.202
61.96000 2.532
61.98000 6.168
62.00000 9.416
62.02000 1.328
62.04000 4.519
62.06000 5.401
62.08000 2.112
62.10000 3.437
62.12000 2.933
62.14000 -0.500
62.16000 0.712
62.18000 6.031
62.20000 1.572
62.22000 -2.508
62.24000 -1.944
62.26000 2.256
62.28000 -1.545
62.30000 0.183
62.32000 2.057
62.34000 3.953
62.36000 -0.937
62.38000 -2.505
62.40000 -0.455
62.42000 -0.139
62.44000 0.611
62.46000 -0.706
62.48000 -0.328
62.50000 4.751
62.52000 -0.795
62.54000 -1.433
62.56000 4.372
62.58000 5.892
62.60000 6.144
62.62000 4.776
62.64000 0.814
62.66000 -0.208
62.68000 1.210
62.70000 2.104
62.72000 3.447
62.74000 3.765
62.76000 3.983
62.78000 2.927
62.80000 2.497
62.82000 -1.932
62.84000 2.808
62.86000 0.974
62.88000 -2.498
62.90000 0.021
62.92000 1.569
62.94000 1.235
62.96000 1.292
62.98000 4.974
63.00000 2.576
63.02000 0.494
63.04000 -2.452
63.06000 0.367
63.08000 1.137
63.10000 3.493
63.12000 5.986
63.14000 3.470
63.16000 3.480
63.18000 1.801
63.20000 4.172
63.22000 1.102
63.24000 3.468
63.26000 -1.263
63.28000 1.676
63.30000 2.627
63.32000 -1.668
63.34000 -2.485
63.36000 1.067
63.38000 5.192
63.40000 6.240
63.42000 3.402
63.44000 5.010
63.46000 3.584
63.48000 4.223
63.50000 2.586
63.52000 4.207
63.54000 2.449
63.56000 3.845
63.58000 5.519
63.60000 2.604
63.62000 -0.345
63.64000 3.211
63.66000 5.148
63.68000 7.183
63.70000 2.968
63.72000 3.605
63.74000 1.166
63.76000 5.276
63.78000 2.647
63.80000 0.465
63.82000 0.274
63.84000 1.522
63.86000 1.019
63.88000 1.436
63.90000 2.737
63.92000 1.560
63.94000 3.093
63.96000 -1.072
63.98000 -1.246
64.00000 -0.029
64.02000 4.887
64.04000 1.056
64.06000 1.575
64.08000 2.202
64.10000 1.629
64.12000 3.923
64.14000 2.560
64.16000 1.108
64.18000 1.657
64.20000 5.855
64.22000 6.251
64.24000 -0.192
64.26000 -2.493
64.28000 2.423
64.30000 5.574
64.32000 4.136
64.34000 1.656
64.36000 2.435
64.38000 1.904
64.40000 0.309
64.42000 -1.396
64.44000 -0.880
64.46000 3.371
64.48000 -2.041
64.50000 -1.881
64.52000 3.119
64.54000 3.196
64.56000 -0.419
64.58000 -2.076
64.60000 0.378
64.62000 0.531
64.64000 1.290
64.66000 -0.726
64.68000 -1.868
64.70000 3.620
64.72000 4.625
64.74000 2.765
64.76000 1.816
64.78000 2.305
64.80000 -0.059
64.82000 2.125
64.84000 3.076
64.86000 0.834
64.88000 0.804
64.90000 2.446
64.92000 0.038
64.94000 -1.677
64.96000 0.173
64.98000 5.826
65.00000 5.660
65.02000 3.166
65.04000 3.287
65.06000 6.041
65.08000 4.164
65.10000 0.832
65.12000 2.273
65.14000 2.234
65.16000 -1.988
65.18000 -2.030
65.20000 -1.199
65.22000 -1.426
65.24000 -2.227
65.26000 -0.906
65.28000 -0.905
65.30000 0.089
65.32000 -0.034
65.34000 -2.509
65.36000 -1.645
65.38000 -1.418
65.40000 1.877
65.42000 1.038
65.44000 -0.082
65.46000 -1.221
65.48000 -0.744
65.50000 -0.756
65.52000 -2.327
65.54000 -0.582
65.56000 -0.449
65.58000 -0.763
65.60000 5.536
65.62000 0.906
65.64000 1.609
65.66000 2.911
65.68000 1.477
65.70000 0.154
65.72000 1.466
65.74000 1.207
65.76000 2.810
65.78000 1.683
65.80000 0.694
65.82000 0.790
65.84000 2.893
65.86000 2.407
65.88000 -1.577
65.90000 2.254
65.92000 2.873
65.94000 1.358
65.96000 2.901
65.98000 0.771
66.00000 -1.352
66.02000 1.974
66.04000 1.853
66.06000 -0.138
66.08000 0.796
66.10000 0.770
66.12000 0.600
66.14000 1.141
66.16000 1.580
66.18000 1.936
66.20000 -2.512
66.22000 -0.148
66.24000 3.395
66.26000 3.873
66.28000 5.066
66.30000 1.869
66.32000 0.022
66.34000 1.245
66.36000 2.972
66.38000 0.115
66.40000 0.846
66.42000 1.026
66.44000 1.838
66.46000 2.791
66.48000 0.783
66.50000 3.900
66.52000 3.857
66.54000 4.233
66.56000 -2.519
66.58000 0.230
66.60000 3.154
66.62000 2.511
66.64000 5.977
66.66000 4.988
66.68000 2.183
66.70000 5.256
66.72000 3.076
66.74000 1.326
66.76000 1.651
66.78000 3.652
66.80000 4.354
66.82000 0.583
66.84000 -0.355
66.86000 -2.095
66.88000 1.642
66.90000 0.866
66.92000 0.501
66.94000 -0.245
66.96000 3.021
66.98000 3.969
67.00000 2.434
67.02000 0.210
67.04000 1.394
67.06000 -1.728
67.08000 0.929
67.10000 -1.669
67.12000 1.013
67.14000 1.818
67.16000 1.121
67.18000 0.759
67.20000 -1.429
67.22000 -2.562
67.24000 0.760
67.26000 1.375
67.28000 0.945
67.30000 -0.274
67.32000 -1.631
67.34000 -0.131
67.36000 -0.615
67.38000 2.515
67.40000 2.111
67.42000 0.759
67.44000 -0.629
67.46000 -2.575
67.48000 -2.239
67.50000 -0.236
67.52000 -1.407
67.54000 -0.727
67.56000 0.411
67.58000 1.300
67.60000 2.531
67.62000 3.093
67.64000 0.152
67.66000 3.446
67.68000 4.816
67.70000 0.520
67.72000 1.720
67.74000 -0.699
67.76000 -1.852
67.78000 -0.823
67.80000 -1.480
67.82000 -1.135
67.84000 1.916
67.86000 7.924
67.88000 5.037
67.90000 3.897
67.92000 -0.113
67.94000 3.152
67.96000 7.967
67.98000 6.755
68.00000 3.624
68.02000 3.972
68.04000 3.028
68.06000 3.646
68.08000 5.809
68.10000 2.794
68.12000 3.257
68.14000 4.710
68.16000 4.286
68.18000 2.695
68.20000 7.415
68.22000 7.766
68.24000 10.129
68.26000 14.505
68.28000 10.543
68.30000 8.508
68.32000 11.128
68.34000 7.995
68.36000 8.760
68.38000 8.858
68.40000 8.576
68.42000 9.880
68.44000 12.530
68.46000 14.676
68.48000 17.888
68.50000 13.949
68.52000 11.523
68.54000 18.017
68.56000 18.874
68.58000 15.507
68.60000 14.439
68.62000 17.273
68.64000 13.913
68.66000 13.428
68.68000 13.998
68.70000 17.916
68.72000 21.945
68.74000 19.557
68.76000 16.509
68.78000 16.823
68.80000 18.777
68.82000 16.636
68.84000 13.412
68.86000 18.728
68.88000 23.420
68.90000 21.942
68.92000 25.516
68.94000 22.950
68.96000 22.409
68.98000 21.973
69.00000 22.347
69.02000 26.175
69.04000 24.400
69.06000 25.161
69.08000 24.694
69.10000 22.633
69.12000 24.652
69.14000 25.850
69.16000 21.984
69.18000 17.199
69.20000 20.901
69.22000 21.553
69.24000 24.572
69.26000 24.789
69.28000 19.720
69.30000 20.508
69.32000 24.568
69.34000 23.035
69.36000 18.608
69.38000 20.664
69.40000 17.102
69.42000 15.582
69.44000 12.787
69.46000 12.298
69.48000 12.540
69.50000 13.504
69.52000 15.238
69.54000 14.890
69.56000 15.709
69.58000 16.717
69.60000 14.854
69.62000 14.984
69.64000 15.236
69.66000 13.772
69.68000 12.997
69.70000 11.808
69.72000 6.543
69.74000 6.911
69.76000 8.749
69.78000 7.591
69.80000 11.738
69.82000 14.938
69.84000 11.685
69.86000 9.458
69.88000 9.760
69.90000 5.592
69.92000 0.105
69.94000 1.328
69.96000 5.860
69.98000 4.880
70.00000 3.315
70.02000 8.197
70.04000 5.320
70.06000 5.394
70.08000 6.064
70.10000 3.958
70.12000 3.419
70.14000 0.605
70.16000 1.640
70.18000 2.453
70.20000 2.218
70.22000 3.384
70.24000 4.159
70.26000 3.817
70.28000 5.015
70.30000 -0.021
70.32000 5.029
70.34000 5.121
70.36000 -0.071
70.38000 4.231
70.40000 0.945
70.42000 1.370
70.44000 2.784
70.46000 5.660
70.48000 7.660
70.50000 4.957
70.52000 -1.225
70.54000 -2.434
70.56000 2.694
70.58000 5.895
70.60000 7.546
70.62000 5.596
70.64000 7.718
70.66000 4.257
70.68000 4.984
70.70000 4.148
70.72000 1.917
70.74000 2.936
70.76000 5.667
70.78000 7.994
70.80000 8.550
70.82000 4.458
70.84000 -0.413
70.86000 1.947
70.88000 0.950
70.90000 2.730
70.92000 0.604
70.94000 -0.136
70.96000 4.573
70.98000 0.183
71.00000 0.100
71.02000 1.252
71.04000 3.168
71.06000 1.826
71.08000 3.053
71.10000 3.265
71.12000 2.946
71.14000 3.654
71.16000 1.879
71.18000 -0.207
71.20000 1.915
71.22000 0.117
71.24000 0.131
71.26000 2.500
71.28000 1.930
71.30000 0.013
71.32000 1.094
71.34000 0.982
71.36000 2.589
71.38000 0.497
71.40000 2.059
71.42000 1.539
71.44000 3.473
71.46000 0.534
71.48000 1.811
71.50000 1.588
71.52000 3.650
71.54000 -0.137
71.56000 0.154
71.58000 3.461
71.60000 0.526
71.62000 -2.369
71.64000 -1.266
71.66000 4.556
71.68000 6.310
71.70000 1.615
71.72000 2.557
71.74000 0.317
71.76000 -1.390
71.78000 0.154
71.80000 0.126
71.82000 -1.302
71.84000 -2.391
71.86000 -0.090
71.88000 -0.321
71.90000 1.804
71.92000 5.144
71.94000 7.552
71.96000 2.242
71.98000 1.159
72.00000 0.800
72.02000 2.155
72.04000 0.863
72.06000 -0.323
72.08000 1.940
72.10000 6.544
72.12000 5.682
72.14000 1.502
72.16000 -1.146
72.18000 -0.583
72.20000 0.203
72.22000 3.657
72.24000 4.161
72.26000 -1.663
72.28000 2.079
72.30000 -1.585
72.32000 -2.136
72.34000 -0.703
72.36000 -1.296
72.38000 0.261
72.40000 1.691
72.42000 1.222
72.44000 -0.014
72.46000 2.032
72.48000 2.602
72.50000 6.049
72.52000 3.822
72.54000 1.322
72.56000 4.292
72.58000 2.810
72.60000 1.947
72.62000 2.486
72.64000 5.369
72.66000 2.815
72.68000 2.981
72.70000 1.726
72.72000 -2.306
72.74000 2.228
72.76000 2.799
72.78000 7.496
72.80000 3.127
72.82000 6.481
72.84000 4.965
72.86000 1.232
72.88000 4.024
72.90000 3.696
72.92000 4.758
72.94000 6.627
72.96000 6.917
72.98000 4.088
73.00000 1.886
73.02000 0.874
73.04000 4.463
73.06000 1.321
73.08000 -2.278
73.10000 -0.227
73.12000 0.568
73.14000 0.300
73.16000 -1.299
73.18000 0.406
73.20000 -0.049
73.22000 2.188
73.24000 4.821
73.26000 3.559
73.28000 3.370
73.30000 6.544
73.32000 5.471
73.34000 2.596
73.36000 4.065
73.38000 4.825
73.40000 3.722
73.42000 5.366
73.44000 2.662
73.46000 3.508
73.48000 0.422
73.50000 -0.473
73.52000 3.040
73.54000 1.006
73.56000 1.754
73.58000 3.886
73.60000 2.680
73.62000 1.983
73.64000 0.891
73.66000 3.522
73.68000 1.932
73.70000 2.474
73.72000 0.408
73.74000 -2.266
73.76000 -0.504
73.78000 4.046
73.80000 3.838
73.82000 4.158
73.84000 1.089
73.86000 4.212
73.88000 8.083
73.90000 4.719
73.92000 3.300
73.94000 0.617
73.96000 0.544
73.98000 0.266
74.00000 1.054
74.02000 0.145
74.04000 6.139
74.06000 4.534
74.08000 3.540
74.10000 7.031
74.12000 6.539
74.14000 4.790
74.16000 5.343
74.18000 4.919
74.20000 4.322
74.22000 5.142
74.24000 8.897
74.26000 7.123
74.28000 4.546
74.30000 4.807
74.32000 2.360
74.34000 3.405
74.36000 4.054
74.38000 1.802
74.40000 1.577
74.42000 5.219
74.44000 1.661
74.46000 1.813
74.48000 -1.488
74.50000 1.213
74.52000 3.136
74.54000 4.464
74.56000 4.342
74.58000 3.214
74.60000 0.211
74.62000 1.790
74.64000 2.596
74.66000 0.723
74.68000 2.347
74.70000 2.771
74.72000 3.980
74.74000 5.370
74.76000 3.657
74.78000 3.924
74.80000 2.952
74.82000 1.780
74.84000 1.560
74.86000 1.505
74.88000 3.115
74.90000 4.707
74.92000 3.888
74.94000 6.444
74.96000 3.968
74.98000 6.130
75.00000 5.036
75.02000 1.548
75.04000 -2.292
75.06000 2.676
75.08000 5.358
75.10000 0.264
75.12000 1.846
75.14000 3.726
75.16000 9.211
75.18000 4.321
75.20000 1.232
75.22000 -0.330
75.24000 2.216
75.26000 4.885
75.28000 4.527
75.30000 2.549
75.32000 5.286
75.34000 3.797
75.36000 9.400
75.38000 2.163
75.40000 2.950
75.42000 5.711
75.44000 3.392
75.46000 3.604
75.48000 3.734
75.50000 0.145
75.52000 0.682
75.54000 2.624
75.56000 2.983
75.58000 5.490
75.60000 4.517
75.62000 3.719
75.64000 -1.135
75.66000 0.324
75.68000 3.252
75.70000 4.689
75.72000 4.557
75.74000 3.129
75.76000 0.160
75.78000 4.407
75.80000 3.785
75.82000 0.183
75.84000 2.325
75.86000 -0.988
75.88000 -1.085
75.90000 -0.766
75.92000 1.325
75.94000 2.220
75.96000 1.021
75.98000 3.392
76.00000 7.407
76.02000 5.422
76.04000 4.662
76.06000 5.163
76.08000 2.916
76.10000 3.517
76.12000 1.964
76.14000 1.587
76.16000 3.187
76.18000 2.501
76.20000 5.680
76.22000 5.425
76.24000 4.000
76.26000 5.441
76.28000 6.089
76.30000 3.090
76.32000 4.158
76.34000 -0.932
76.36000 -2.300
76.38000 -0.078
76.40000 2.939
76.42000 3.074
76.44000 -2.303
76.46000 2.107
76.48000 -0.761
76.50000 0.024
76.52000 -0.884
76.54000 2.046
76.56000 2.365
76.58000 2.711
76.60000 3.056
76.62000 3.821
76.64000 4.145
76.66000 2.411
76.68000 0.896
76.70000 -1.580
76.72000 -1.280
76.74000 -0.903
76.76000 4.401
76.78000 6.893
76.80000 4.817
76.82000 4.723
76.84000 1.182
76.86000 4.152
76.88000 3.475
76.90000 5.177
76.92000 9.160
76.94000 5.766
76.96000 4.402
76.98000 3.097
77.00000 6.514
77.02000 6.696
77.04000 2.257
77.06000 6.472
77.08000 4.156
77.10000 5.607
77.12000 2.853
77.14000 0.890
77.16000 5.334
77.18000 2.519
77.20000 -2.157
77.22000 -2.095
77.24000 0.692
77.26000 2.802
77.28000 3.273
77.30000 2.625
77.32000 0.604
77.34000 4.253
77.36000 5.203
77.38000 6.761
77.40000 9.989
77.42000 4.825
77.44000 2.986
77.46000 3.817
77.48000 5.906
77.50000 5.137
77.52000 7.169
77.54000 7.939
77.56000 5.544
77.58000 4.367
77.60000 6.004
77.62000 4.224
77.64000 3.221
77.66000 1.288
77.68000 0.864
77.70000 8.585
77.72000 13.016
77.74000 9.245
77.76000 5.243
77.78000 0.492
77.80000 -2.289
77.82000 0.906
77.84000 5.260
77.86000 2.576
77.88000 -0.602
77.90000 1.946
77.92000 6.019
77.94000 6.490
77.96000 2.012
77.98000 3.550
78.00000 2.615
78.02000 4.697
78.04000 6.825
78.06000 4.739
78.08000 2.659
78.10000 5.424
78.12000 4.687
78.14000 2.535
78.16000 5.583
78.18000 2.676
78.20000 1.773
78.22000 1.670
78.24000 5.959
78.26000 7.388
78.28000 8.384
78.30000 6.333
78.32000 0.980
78.34000 6.473
78.36000 6.513
78.38000 3.045
78.40000 -0.177
78.42000 2.216
78.44000 4.497
78.46000 6.004
78.48000 7.725
78.50000 9.335
78.52000 4.787
78.54000 3.142
78.56000 -0.368
78.58000 -2.327
78.60000 0.961
78.62000 5.741
78.64000 3.173
78.66000 -0.475
78.68000 2.914
78.70000 1.049
78.72000 -1.230
78.74000 1.720
78.76000 3.736
78.78000 5.859
78.80000 3.639
78.82000 5.473
78.84000 1.747
78.86000 1.504
78.88000 2.699
78.90000 3.205
78.92000 10.054
78.94000 5.266
78.96000 3.443
78.98000 2.934
79.00000 4.134
79.02000 3.637
79.04000 1.141
79.06000 0.162
79.08000 1.576
79.10000 2.037
79.12000 -0.380
79.14000 0.248
79.16000 1.498
79.18000 -1.423
79.20000 1.289
79.22000 3.122
79.24000 -0.895
79.26000 2.442
79.28000 2.417
79.30000 0.447
79.32000 -0.249
79.34000 1.159
79.36000 2.230
79.38000 3.411
79.40000 3.211
79.42000 5.041
79.44000 0.096
79.46000 4.312
79.48000 6.606
79.50000 4.530
79.52000 3.057
79.54000 3.586
79.56000 4.026
79.58000 3.470
79.60000 4.860
79.62000 1.504
79.64000 1.310
79.66000 1.592
79.68000 5.868
79.70000 3.160
79.72000 0.507
79.74000 5.567
79.76000 7.090
79.78000 3.695
79.80000 -2.361
79.82000 1.157
79.84000 2.851
79.86000 1.767
79.88000 1.521
79.90000 1.037
79.92000 3.515
79.94000 3.904
79.96000 0.467
79.98000 4.025
80.00000 3.725
80.02000 1.721
80.04000 6.775
80.06000 9.124
80.08000 5.939
80.10000 0.720
80.12000 0.871
80.14000 0.317
80.16000 -0.675
80.18000 0.382
80.20000 7.688
80.22000 5.473
80.24000 10.983
80.26000 11.855
80.28000 9.607
80.30000 8.967
80.32000 5.397
80.34000 0.794
80.36000 -0.440
80.38000 1.728
80.40000 4.803
80.42000 6.230
80.44000 7.421
80.46000 9.603
80.48000 10.725
80.50000 10.701
80.52000 12.762
80.54000 9.612
80.56000 5.670
80.58000 5.871
80.60000 3.527
80.62000 2.870
80.64000 -2.395
80.66000 1.817
80.68000 2.549
80.70000 5.002
80.72000 6.609
80.74000 -0.217
80.76000 6.226
80.78000 6.611
80.80000 1.649
80.82000 3.571
80.84000 1.892
80.86000 1.755
80.88000 1.955
80.90000 0.697
80.92000 0.624
80.94000 0.099
80.96000 -0.065
80.98000 -2.296
81.00000 -1.471
81.02000 2.967
81.04000 4.102
81.06000 -2.286
81.08000 1.760
81.10000 4.927
81.12000 5.779
81.14000 5.071
81.16000 1.508
81.18000 0.076
81.20000 1.170
81.22000 1.977
81.24000 5.293
81.26000 3.294
81.28000 4.385
81.30000 2.590
81.32000 2.630
81.34000 -0.980
81.36000 4.349
81.38000 4.553
81.40000 2.328
81.42000 6.987
81.44000 4.683
81.46000 1.551
81.48000 2.833
81.50000 -0.727
81.52000 -1.397
81.54000 -2.469
81.56000 0.531
81.58000 5.791
81.60000 6.158
81.62000 5.603
81.64000 -1.536
81.66000 -1.137
81.68000 -1.114
81.70000 2.231
81.72000 7.350
81.74000 6.729
81.76000 6.505
81.78000 7.995
81.80000 6.013
81.82000 4.997
81.84000 3.912
81.86000 7.142
81.88000 0.312
81.90000 1.733
81.92000 4.658
81.94000 7.141
81.96000 0.939
81.98000 0.893
82.00000 6.578
82.02000 6.115
82.04000 5.685
82.06000 3.722
82.08000 6.096
82.10000 6.620
82.12000 7.631
82.14000 2.439
82.16000 4.272
82.18000 5.513
82.20000 8.346
82.22000 6.712
82.24000 5.012
82.26000 6.351
82.28000 11.091
82.30000 11.557
82.32000 14.261
82.34000 13.267
82.36000 7.036
82.38000 7.843
82.40000 11.559
82.42000 12.784
82.44000 8.513
82.46000 4.590
82.48000 7.581
82.50000 11.778
82.52000 11.920
82.54000 14.382
82.56000 15.715
82.58000 20.460
82.60000 19.584
82.62000 19.082
82.64000 12.628
82.66000 10.926
82.68000 16.020
82.70000 19.682
82.72000 14.841
82.74000 15.946
82.76000 15.520
82.78000 13.928
82.80000 15.098
82.82000 19.966
82.84000 19.891
82.86000 17.149
82.88000 16.529
82.90000 18.552
82.92000 18.928
82.94000 24.779
82.96000 18.967
82.98000 24.925
83.00000 25.682
83.02000 22.335
83.04000 22.532
83.06000 22.379
83.08000 26.181
83.10000 23.614
83.12000 23.247
83.14000 21.788
83.16000 25.074
83.18000 28.065
83.20000 28.412
83.22000 26.470
83.24000 26.773
83.26000 23.131
83.28000 27.078
83.30000 22.804
83.32000 26.162
83.34000 25.609
83.36000 23.563
83.38000 28.906
83.40000 26.308
83.42000 26.183
83.44000 29.584
83.46000 26.511
83.48000 25.249
83.50000 28.113
83.52000 27.041
83.54000 28.751
83.56000 26.121
83.58000 20.815
83.60000 23.414
83.62000 26.846
83.64000 24.891
83.66000 26.995
83.68000 25.258
83.70000 23.973
83.72000 21.880
83.74000 24.238
83.76000 22.608
83.78000 21.215
83.80000 19.833
83.82000 18.789
83.84000 20.464
83.86000 22.670
83.88000 20.566
83.90000 16.527
83.92000 21.200
83.94000 19.955
83.96000 18.737
83.98000 19.268
84.00000 18.199
84.02000 14.835
84.04000 12.056
84.06000 11.280
84.08000 12.097
84.10000 13.705
84.12000 18.171
84.14000 13.250
84.16000 12.835
84.18000 15.585
84.20000 12.719
84.22000 16.823
84.24000 21.490
84.26000 20.849
84.28000 16.061
84.30000 13.027
84.32000 11.289
84.34000 15.450
84.36000 12.400
84.38000 7.901
84.40000 9.580
84.42000 11.205
84.44000 7.973
84.46000 8.679
84.48000 5.880
84.50000 8.785
84.52000 9.960
84.54000 6.997
84.56000 6.638
84.58000 8.114
84.60000 13.001
84.62000 11.602
84.64000 8.436
84.66000 5.463
84.68000 3.273
84.70000 1.707
84.72000 8.205
84.74000 6.966
84.76000 1.765
84.78000 6.891
84.80000 12.702
84.82000 13.130
84.84000 7.091
84.86000 4.442
84.88000 2.505
84.90000 2.094
84.92000 3.764
84.94000 4.682
84.96000 4.618
84.98000 2.834
85.00000 5.068
85.02000 6.139
85.04000 5.249
85.06000 7.732
85.08000 10.767
85.10000 7.272
85.12000 4.488
85.14000 2.845
85.16000 1.695
85.18000 1.927
85.20000 5.315
85.22000 5.194
85.24000 1.745
85.26000 2.286
85.28000 -1.527
85.30000 -2.361
85.32000 4.694
85.34000 8.716
85.36000 3.797
85.38000 2.432
85.40000 0.610
85.42000 2.438
85.44000 7.276
85.46000 5.314
85.48000 3.673
85.50000 6.135
85.52000 1.736
85.54000 0.705
85.56000 6.589
85.58000 6.195
85.60000 3.529
85.62000 1.570
85.64000 0.461
85.66000 3.191
85.68000 3.391
85.70000 5.133
85.72000 2.593
85.74000 -1.482
85.76000 -0.407
85.78000 2.719
85.80000 0.906
85.82000 0.793
85.84000 5.048
85.86000 7.039
85.88000 4.881
85.90000 3.006
85.92000 5.181
85.94000 2.095
85.96000 1.452
85.98000 2.182
86.00000 2.163
86.02000 -0.641
86.04000 0.723
86.06000 3.673
86.08000 3.432
86.10000 6.382
86.12000 6.021
86.14000 4.814
86.16000 0.051
86.18000 -2.192
86.20000 -2.362
86.22000 -1.150
86.24000 0.423
86.26000 3.529
86.28000 4.782
86.30000 8.224
86.32000 2.764
86.34000 0.259
86.36000 2.908
86.38000 1.151
86.40000 1.077
86.42000 5.139
86.44000 1.894
86.46000 0.589
86.48000 -0.194
86.50000 -1.920
86.52000 5.802
86.54000 4.084
86.56000 1.545
86.58000 3.830
86.60000 4.510
86.62000 3.697
86.64000 3.235
86.66000 9.067
86.68000 7.186
86.70000 5.732
86.72000 7.358
86.74000 7.932
86.76000 6.928
86.78000 10.219
86.80000 10.907
86.82000 5.548
86.84000 5.028
86.86000 10.107
86.88000 8.790
86.90000 8.761
86.92000 12.489
86.94000 13.295
86.96000 14.427
86.98000 14.831
87.00000 10.489
87.02000 10.256
87.04000 10.968
87.06000 5.882
87.08000 9.153
87.10000 12.758
87.12000 10.507
87.14000 10.134
87.16000 11.681
87.18000 9.671
87.20000 11.053
87.22000 10.329
87.24000 11.519
87.26000 9.182
87.28000 15.101
87.30000 11.663
87.32000 11.523
87.34000 18.788
87.36000 17.184
87.38000 13.527
87.40000 16.006
87.42000 17.617
87.44000 19.723
87.46000 19.922
87.48000 19.202
87.50000 14.473
87.52000 20.716
87.54000 26.290
87.56000 19.047
87.58000 23.636
87.60000 22.345
87.62000 15.897
87.64000 16.307
87.66000 18.813
87.68000 22.928
87.70000 22.790
87.72000 22.956
87.74000 24.236
87.76000 22.963
87.78000 24.228
87.80000 25.680
87.82000 26.081
87.84000 21.878
87.86000 28.532
87.88000 28.164
87.90000 28.044
87.92000 18.785
87.94000 17.773
87.96000 17.577
87.98000 22.290
88.00000 26.378
88.02000 29.626
88.04000 23.465
88.06000 25.914
88.08000 28.493
88.10000 26.889
88.12000 22.571
88.14000 19.664
88.16000 22.613
88.18000 17.976
88.20000 22.359
88.22000 19.316
88.24000 23.346
88.26000 21.203
88.28000 17.998
88.30000 18.191
88.32000 17.319
88.34000 17.415
88.36000 10.671
88.38000 9.521
88.40000 13.163
88.42000 13.908
88.44000 11.826
88.46000 12.807
88.48000 15.111
88.50000 18.828
88.52000 16.810
88.54000 10.119
88.56000 10.149
88.58000 9.373
88.60000 7.243
88.62000 10.716
88.64000 12.328
88.66000 10.257
88.68000 13.483
88.70000 10.679
88.72000 12.726
88.74000 8.143
88.76000 5.915
88.78000 5.516
88.80000 2.641
88.82000 3.451
88.84000 9.078
88.86000 8.689
88.88000 13.171
88.90000 11.078
88.92000 5.705
88.94000 0.780
88.96000 5.936
88.98000 5.316
89.00000 6.089
89.02000 4.530
89.04000 1.723
89.06000 5.602
89.08000 4.598
89.10000 3.607
89.12000 6.571
89.14000 3.652
89.16000 0.098
89.18000 2.294
89.20000 3.964
89.22000 1.096
89.24000 -0.806
89.26000 5.551
89.28000 5.539
89.30000 -1.098
89.32000 6.065
89.34000 7.178
89.36000 7.943
89.38000 0.557
89.40000 3.860
89.42000 4.909
89.44000 1.349
89.46000 0.741
89.48000 -1.055
89.50000 3.892
89.52000 7.114
89.54000 4.287
89.56000 -2.279
89.58000 -0.018
89.60000 0.777
89.62000 2.547
89.64000 -0.167
89.66000 -0.126
89.68000 -0.641
89.70000 0.556
89.72000 4.930
89.74000 4.628
89.76000 4.596
89.78000 4.905
89.80000 1.000
89.82000 3.199
89.84000 -0.694
89.86000 -0.651
89.88000 3.175
89.90000 1.843
89.92000 1.037
89.94000 4.379
89.96000 3.513
89.98000 1.120
90.00000 1.033
90.02000 2.123
90.04000 3.344
90.06000 3.669
90.08000 4.625
90.10000 4.511
90.12000 0.973
90.14000 3.275
90.16000 1.438
90.18000 3.516
90.20000 0.058
90.22000 0.436
90.24000 -0.160
90.26000 -1.899
90.28000 0.864
90.30000 2.530
90.32000 2.307
90.34000 3.939
90.36000 2.231
90.38000 -0.934
90.40000 3.790
90.42000 4.008
90.44000 4.335
90.46000 3.399
90.48000 4.760
90.50000 2.927
90.52000 2.520
90.54000 1.987
90.56000 2.274
90.58000 1.708
90.60000 4.414
90.62000 6.868
90.64000 3.097
90.66000 -1.569
90.68000 -2.222
90.70000 0.542
90.72000 1.498
90.74000 1.693
90.76000 -1.108
90.78000 -1.237
90.80000 -0.284
90.82000 1.298
90.84000 0.654
90.86000 0.859
90.88000 5.019
90.90000 9.421
90.92000 4.575
90.94000 6.394
90.96000 1.516
90.98000 -1.342
91.00000 4.646
91.02000 5.552
91.04000 1.660
91.06000 0.199
91.08000 0.237
91.10000 0.052
91.12000 0.139
91.14000 2.889
91.16000 4.800
91.18000 2.780
91.20000 2.176
91.22000 2.205
91.24000 3.730
91.26000 -0.812
91.28000 -0.858
91.30000 -0.497
91.32000 1.117
91.34000 1.865
91.36000 6.043
91.38000 5.659
91.40000 3.834
91.42000 1.591
91.44000 2.780
91.46000 2.926
91.48000 3.770
91.50000 4.107
91.52000 5.086
91.54000 0.223
91.56000 1.226
91.58000 5.561
91.60000 0.552
91.62000 -2.176
91.64000 1.588
91.66000 3.644
91.68000 9.556
91.70000 8.362
91.72000 2.483
91.74000 4.477
91.76000 3.302
91.78000 4.079
91.80000 5.983
91.82000 9.049
91.84000 9.566
91.86000 7.685
91.88000 8.606
91.90000 5.075
91.92000 2.054
91.94000 4.310
91.96000 3.982
91.98000 5.725
92.00000 7.103
92.02000 8.134
92.04000 4.887
92.06000 3.577
92.08000 -1.431
92.10000 4.574
92.12000 6.483
92.14000 4.057
92.16000 2.981
92.18000 6.487
92.20000 10.134
92.22000 6.369
92.24000 2.897
92.26000 3.552
92.28000 -2.195
92.30000 1.495
92.32000 5.037
92.34000 4.739
92.36000 3.882
92.38000 2.254
92.40000 6.066
92.42000 6.076
92.44000 2.129
92.46000 0.651
92.48000 0.134
92.50000 1.429
92.52000 4.056
92.54000 8.370
92.56000 4.594
92.58000 4.951
92.60000 0.965
92.62000 0.343
92.64000 6.589
92.66000 2.708
92.68000 1.508
92.70000 2.973
92.72000 0.992
92.74000 7.158
92.76000 7.022
92.78000 4.442
92.80000 -2.198
92.82000 3.886
92.84000 6.445
92.86000 4.835
92.88000 1.406
92.90000 0.559
92.92000 -0.187
92.94000 2.092
92.96000 -0.572
92.98000 2.300
93.00000 6.036
93.02000 -0.763
93.04000 0.212
93.06000 5.660
93.08000 8.183
93.10000 9.122
93.12000 3.498
93.14000 -2.189
93.16000 0.892
93.18000 2.914
93.20000 4.244
93.22000 9.073
93.24000 3.456
93.26000 7.554
93.28000 6.874
93.30000 4.130
93.32000 4.428
93.34000 3.156
93.36000 5.484
93.38000 9.320
93.40000 6.815
93.42000 3.380
93.44000 1.762
93.46000 0.979
93.48000 4.673
93.50000 9.156
93.52000 5.390
93.54000 3.749
93.56000 5.899
93.58000 3.017
93.60000 -0.883
93.62000 2.272
93.64000 9.247
93.66000 5.793
93.68000 4.315
93.70000 6.603
93.72000 5.803
93.74000 7.505
93.76000 6.950
93.78000 5.870
93.80000 5.334
93.82000 9.845
93.84000 4.863
93.86000 2.484
93.88000 3.773
93.90000 6.381
93.92000 5.777
93.94000 4.580
93.96000 7.918
93.98000 5.063
94.00000 10.178
94.02000 3.212
94.04000 5.807
94.06000 4.046
94.08000 -0.283
94.10000 4.201
94.12000 8.472
94.14000 9.166
94.16000 2.164
94.18000 0.217
94.20000 4.867
94.22000 4.746
94.24000 9.737
94.26000 6.685
94.28000 8.270
94.30000 6.611
94.32000 1.682
94.34000 4.372
94.36000 1.831
94.38000 -2.167
94.40000 -1.646
94.42000 1.959
94.44000 4.695
94.46000 8.503
94.48000 10.557
94.50000 10.614
94.52000 8.800
94.54000 5.341
94.56000 6.647
94.58000 4.789
94.60000 3.182
94.62000 1.291
94.64000 3.224
94.66000 3.775
94.68000 2.647
94.70000 7.658
94.72000 7.684
94.74000 4.931
94.76000 7.083
94.78000 11.746
94.80000 9.937
94.82000 4.705
94.84000 10.111
94.86000 4.410
94.88000 2.997
94.90000 3.992
94.92000 3.123
94.94000 0.878
94.96000 4.121
94.98000 4.227
95.00000 8.045
95.02000 6.399
95.04000 2.291
95.06000 4.962
95.08000 0.090
95.10000 2.860
95.12000 4.393
95.14000 3.831
95.16000 8.542
95.18000 4.670
95.20000 8.470
95.22000 11.079
95.24000 8.747
95.26000 8.484
95.28000 5.105
95.30000 3.465
95.32000 8.440
95.34000 3.877
95.36000 6.488
95.38000 5.971
95.40000 -0.142
95.42000 0.528
95.44000 2.395
95.46000 6.208
95.48000 8.426
95.50000 6.800
95.52000 4.124
95.54000 4.357
95.56000 6.725
95.58000 3.623
95.60000 4.901
95.62000 3.296
95.64000 2.343
95.66000 4.895
95.68000 1.663
95.70000 6.969
95.72000 8.981
95.74000 -2.981
95.76000 2.318
95.78000 8.976
95.80000 7.027
95.82000 2.407
95.84000 2.561
95.86000 6.907
95.88000 13.036
95.90000 11.023
95.92000 10.102
95.94000 8.131
95.96000 3.694
95.98000 3.201
96.00000 6.188
96.02000 2.242
96.04000 8.035
96.06000 5.868
96.08000 -0.305
96.10000 1.924
96.12000 2.613
96.14000 0.864
96.16000 1.831
96.18000 10.286
96.20000 9.122
96.22000 3.375
96.24000 6.989
96.26000 10.939
96.28000 2.629
96.30000 4.109
96.32000 8.271
96.34000 9.723
96.36000 8.375
96.38000 9.205
96.40000 5.756
96.42000 7.933
96.44000 5.669
96.46000 0.048
96.48000 2.218
96.50000 8.202
96.52000 4.848
96.54000 3.241
96.56000 9.805
96.58000 8.577
96.60000 -0.517
96.62000 -2.163
96.64000 -0.003
96.66000 4.468
96.68000 9.960
96.70000 11.197
96.72000 10.626
96.74000 10.757
96.76000 8.163
96.78000 5.768
96.80000 7.160
96.82000 4.742
96.84000 5.427
96.86000 4.641
96.88000 4.778
96.90000 7.520
96.92000 0.136
96.94000 4.002
96.96000 6.551
96.98000 8.261
97.00000 6.965
97.02000 7.074
97.04000 5.986
97.06000 5.323
97.08000 3.575
97.10000 2.728
97.12000 -0.956
97.14000 -0.489
97.16000 5.061
97.18000 10.437
97.20000 13.684
97.22000 14.939
97.24000 9.305
97.26000 8.053
97.28000 0.814
97.30000 -1.731
97.32000 4.865
97.34000 8.669
97.36000 10.606
97.38000 10.188
97.40000 9.016
97.42000 7.459
97.44000 5.564
97.46000 1.938
97.48000 7.482
97.50000 9.585
97.52000 3.690
97.54000 0.614
97.56000 4.526
97.58000 3.886
97.60000 4.166
97.62000 4.295
97.64000 3.320
97.66000 2.918
97.68000 4.424
97.70000 5.377
97.72000 7.580
97.74000 2.670
97.76000 3.901
97.78000 5.804
97.80000 2.937
97.82000 8.675
97.84000 7.098
97.86000 5.923
97.88000 4.401
97.90000 3.491
97.92000 3.623
97.94000 4.002
97.96000 -0.309
97.98000 0.702
98.00000 5.937
98.02000 4.915
98.04000 6.866
98.06000 7.354
98.08000 -0.288
98.10000 4.159
98.12000 1.411
98.14000 -0.066
98.16000 2.160
98.18000 4.539
98.20000 8.983
98.22000 9.852
98.24000 9.066
98.26000 4.273
98.28000 2.090
98.30000 7.094
98.32000 7.310
98.34000 10.651
98.36000 8.077
98.38000 6.177
98.40000 1.270
98.42000 2.212
98.44000 1.081
98.46000 3.984
98.48000 8.146
98.50000 2.376
98.52000 1.074
98.54000 8.626
98.56000 9.629
98.58000 3.607
98.60000 3.663
98.62000 6.837
98.64000 6.513
98.66000 8.687
98.68000 9.600
98.70000 8.803
98.72000 2.468
98.74000 -0.735
98.76000 0.219
98.78000 9.255
98.80000 8.386
98.82000 13.844
98.84000 9.124
98.86000 12.948
98.88000 11.229
98.90000 11.577
98.92000 14.064
98.94000 5.894
98.96000 4.113
98.98000 6.523
99.00000 5.108
99.02000 7.596
99.04000 7.362
99.06000 4.996
99.08000 7.462
99.10000 6.128
99.12000 15.945
99.14000 14.768
99.16000 4.130
99.18000 -2.114
99.20000 1.743
99.22000 6.534
99.24000 5.135
99.26000 3.378
99.28000 9.303
99.30000 10.773
99.32000 14.504
99.34000 14.256
99.36000 18.799
99.38000 11.022
99.40000 -2.499
99.42000 2.935
99.44000 2.039
99.46000 4.745
99.48000 14.502
99.50000 11.769
99.52000 5.231
99.54000 3.141
99.56000 3.527
99.58000 5.006
99.60000 12.020
99.62000 10.096
99.64000 0.209
99.66000 9.247
99.68000 12.727
99.70000 7.069
99.72000 7.653
99.74000 4.675
99.76000 4.966
99.78000 5.239
99.80000 6.148
99.82000 12.608
99.84000 17.176
99.86000 7.791
99.88000 1.843
99.90000 6.753
99.92000 5.622
99.94000 12.356
99.96000 1.842
99.98000 0.000
