'Id: "0011389" Comment: "Integrate frame 0011389_Au-Ir-Rh_Au-Rich_XRD_Mapping-220-0000.gfrmwith cursor Wedge Cursor #5" Operator: "B?rgel" Anode: "Cu" Wavelength: "1.5406" Scantype: "2Theta (TwoTheta)" TimePerStep: "1" X: "-45" Y: "13.5" Z: "5.95" 
10.00000 0.000
10.02000 -4.730
10.04000 -6.726
10.06000 15.572
10.08000 3.434
10.10000 -4.547
10.12000 25.916
10.14000 31.907
10.16000 17.620
10.18000 12.098
10.20000 10.464
10.22000 16.874
10.24000 29.152
10.26000 16.175
10.28000 21.079
10.30000 18.143
10.32000 13.174
10.34000 14.831
10.36000 14.778
10.38000 32.089
10.40000 10.282
10.42000 6.508
10.44000 3.849
10.46000 1.381
10.48000 5.934
10.50000 -4.580
10.52000 -1.703
10.54000 14.139
10.56000 22.607
10.58000 30.663
10.60000 24.275
10.62000 16.976
10.64000 20.992
10.66000 28.236
10.68000 5.064
10.70000 -4.036
10.72000 7.909
10.74000 12.682
10.76000 11.837
10.78000 23.447
10.80000 21.478
10.82000 10.324
10.84000 6.025
10.86000 10.448
10.88000 9.775
10.90000 16.345
10.92000 4.658
10.94000 3.967
10.96000 21.421
10.98000 25.852
11.00000 7.461
11.02000 8.839
11.04000 8.761
11.06000 12.513
11.08000 12.620
11.10000 13.238
11.12000 14.268
11.14000 1.643
11.16000 1.843
11.18000 15.241
11.20000 17.211
11.22000 15.409
11.24000 21.971
11.26000 28.197
11.28000 24.574
11.30000 2.271
11.32000 -2.494
11.34000 -1.653
11.36000 6.984
11.38000 12.094
11.40000 4.606
11.42000 6.857
11.44000 2.719
11.46000 4.793
11.48000 9.473
11.50000 1.590
11.52000 -2.174
11.54000 -0.226
11.56000 11.464
11.58000 12.853
11.60000 19.921
11.62000 8.837
11.64000 9.011
11.66000 8.131
11.68000 7.353
11.70000 16.607
11.72000 8.376
11.74000 4.699
11.76000 18.647
11.78000 15.965
11.80000 11.135
11.82000 11.595
11.84000 6.341
11.86000 15.663
11.88000 17.249
11.90000 9.953
11.92000 27.516
11.94000 24.935
11.96000 8.600
11.98000 12.137
12.00000 7.488
12.02000 -3.581
12.04000 -2.515
12.06000 2.508
12.08000 5.885
12.10000 5.915
12.12000 3.034
12.14000 7.982
12.16000 3.988
12.18000 5.601
12.20000 16.388
12.22000 25.574
12.24000 12.127
12.26000 8.308
12.28000 0.069
12.30000 0.608
12.32000 2.648
12.34000 7.305
12.36000 13.883
12.38000 20.816
12.40000 27.894
12.42000 17.542
12.44000 9.945
12.46000 8.231
12.48000 11.026
12.50000 12.188
12.52000 7.545
12.54000 11.561
12.56000 18.725
12.58000 14.579
12.60000 18.666
12.62000 27.688
12.64000 20.132
12.66000 18.912
12.68000 8.869
12.70000 10.013
12.72000 19.060
12.74000 10.149
12.76000 -4.559
12.78000 -0.482
12.80000 9.052
12.82000 10.795
12.84000 8.882
12.86000 16.365
12.88000 16.618
12.90000 8.585
12.92000 13.525
12.94000 6.836
12.96000 17.011
12.98000 8.087
13.00000 7.269
13.02000 7.866
13.04000 25.705
13.06000 22.350
13.08000 15.397
13.10000 16.959
13.12000 10.227
13.14000 16.075
13.16000 11.639
13.18000 17.118
13.20000 20.219
13.22000 14.115
13.24000 29.864
13.26000 25.651
13.28000 9.150
13.30000 8.977
13.32000 7.873
13.34000 6.054
13.36000 -3.637
13.38000 4.536
13.40000 8.977
13.42000 -4.539
13.44000 1.502
13.46000 10.050
13.48000 9.014
13.50000 6.212
13.52000 8.189
13.54000 9.705
13.56000 12.153
13.58000 3.302
13.60000 13.170
13.62000 12.044
13.64000 5.865
13.66000 17.208
13.68000 9.187
13.70000 7.313
13.72000 9.485
13.74000 14.768
13.76000 6.262
13.78000 15.376
13.80000 14.261
13.82000 17.999
13.84000 13.581
13.86000 6.145
13.88000 4.602
13.90000 0.270
13.92000 2.706
13.94000 2.811
13.96000 6.939
13.98000 13.721
14.00000 6.812
14.02000 1.625
14.04000 2.038
14.06000 2.188
14.08000 -4.033
14.10000 -1.700
14.12000 4.920
14.14000 14.677
14.16000 26.329
14.18000 10.856
14.20000 14.440
14.22000 17.129
14.24000 13.012
14.26000 3.116
14.28000 9.305
14.30000 15.869
14.32000 12.708
14.34000 19.131
14.36000 14.624
14.38000 10.808
14.40000 12.029
14.42000 7.631
14.44000 12.972
14.46000 12.816
14.48000 11.208
14.50000 13.543
14.52000 15.090
14.54000 18.138
14.56000 10.921
14.58000 3.634
14.60000 -4.504
14.62000 5.816
14.64000 14.641
14.66000 15.695
14.68000 13.427
14.70000 16.573
14.72000 13.109
14.74000 0.282
14.76000 3.611
14.78000 8.654
14.80000 8.835
14.82000 1.431
14.84000 2.979
14.86000 4.178
14.88000 4.720
14.90000 6.991
14.92000 7.843
14.94000 3.907
14.96000 7.510
14.98000 7.418
15.00000 18.610
15.02000 19.347
15.04000 11.049
15.06000 2.158
15.08000 7.699
15.10000 14.769
15.12000 10.762
15.14000 9.222
15.16000 12.439
15.18000 18.512
15.20000 13.372
15.22000 10.784
15.24000 7.411
15.26000 2.057
15.28000 13.603
15.30000 12.438
15.32000 9.558
15.34000 2.248
15.36000 -4.483
15.38000 10.995
15.40000 16.358
15.42000 4.755
15.44000 2.307
15.46000 11.962
15.48000 8.752
15.50000 14.435
15.52000 12.473
15.54000 5.253
15.56000 2.325
15.58000 3.369
15.60000 4.870
15.62000 0.247
15.64000 2.843
15.66000 5.223
15.68000 5.010
15.70000 10.191
15.72000 10.749
15.74000 4.065
15.76000 3.506
15.78000 2.239
15.80000 4.702
15.82000 -0.205
15.84000 7.121
15.86000 11.932
15.88000 4.953
15.90000 4.712
15.92000 -3.385
15.94000 -4.237
15.96000 5.056
15.98000 10.850
16.00000 0.437
16.02000 3.963
16.04000 3.001
16.06000 5.258
16.08000 6.395
16.10000 3.625
16.12000 1.705
16.14000 2.230
16.16000 -3.590
16.18000 -3.900
16.20000 4.503
16.22000 6.105
16.24000 0.057
16.26000 0.460
16.28000 6.623
16.30000 8.890
16.32000 4.120
16.34000 7.161
16.36000 12.978
16.38000 9.461
16.40000 6.459
16.42000 7.623
16.44000 11.082
16.46000 11.134
16.48000 10.500
16.50000 12.269
16.52000 11.488
16.54000 21.672
16.56000 13.097
16.58000 -0.154
16.60000 -2.537
16.62000 2.992
16.64000 7.631
16.66000 8.690
16.68000 3.756
16.70000 -0.214
16.72000 5.142
16.74000 10.590
16.76000 4.994
16.78000 7.240
16.80000 9.606
16.82000 8.996
16.84000 4.415
16.86000 -1.584
16.88000 5.304
16.90000 3.250
16.92000 0.753
16.94000 -2.357
16.96000 2.944
16.98000 6.586
17.00000 3.568
17.02000 4.053
17.04000 1.548
17.06000 -4.418
17.08000 0.387
17.10000 1.194
17.12000 -0.447
17.14000 4.267
17.16000 7.627
17.18000 15.066
17.20000 7.989
17.22000 6.474
17.24000 17.823
17.26000 11.090
17.28000 6.258
17.30000 10.430
17.32000 8.756
17.34000 6.809
17.36000 1.763
17.38000 10.764
17.40000 8.322
17.42000 5.885
17.44000 7.454
17.46000 3.221
17.48000 5.472
17.50000 7.350
17.52000 5.955
17.54000 4.269
17.56000 -0.760
17.58000 -1.200
17.60000 -0.396
17.62000 7.094
17.64000 13.204
17.66000 10.856
17.68000 7.108
17.70000 13.345
17.72000 7.574
17.74000 2.023
17.76000 -3.455
17.78000 4.036
17.80000 1.053
17.82000 7.667
17.84000 8.278
17.86000 -2.015
17.88000 0.489
17.90000 -2.514
17.92000 -1.217
17.94000 1.936
17.96000 4.972
17.98000 9.639
18.00000 7.546
18.02000 2.968
18.04000 4.165
18.06000 3.327
18.08000 -0.690
18.10000 0.511
18.12000 4.757
18.14000 9.182
18.16000 4.834
18.18000 5.320
18.20000 5.186
18.22000 6.694
18.24000 6.759
18.26000 1.540
18.28000 8.134
18.30000 1.614
18.32000 3.465
18.34000 8.588
18.36000 7.084
18.38000 6.785
18.40000 2.594
18.42000 2.351
18.44000 4.130
18.46000 4.782
18.48000 11.868
18.50000 11.570
18.52000 -1.695
18.54000 -0.374
18.56000 8.993
18.58000 7.523
18.60000 4.680
18.62000 7.039
18.64000 9.822
18.66000 12.408
18.68000 5.522
18.70000 2.295
18.72000 2.244
18.74000 3.984
18.76000 6.763
18.78000 5.128
18.80000 6.408
18.82000 4.695
18.84000 6.922
18.86000 6.375
18.88000 4.671
18.90000 9.159
18.92000 6.699
18.94000 4.671
18.96000 2.588
18.98000 0.645
19.00000 5.792
19.02000 1.555
19.04000 4.674
19.06000 6.867
19.08000 12.322
19.10000 8.967
19.12000 5.385
19.14000 2.533
19.16000 7.000
19.18000 8.395
19.20000 9.203
19.22000 13.617
19.24000 11.295
19.26000 6.638
19.28000 4.925
19.30000 2.089
19.32000 4.451
19.34000 9.331
19.36000 12.249
19.38000 9.368
19.40000 8.497
19.42000 6.350
19.44000 4.404
19.46000 -4.217
19.48000 0.879
19.50000 10.981
19.52000 10.375
19.54000 0.653
19.56000 5.920
19.58000 16.082
19.60000 13.364
19.62000 12.338
19.64000 15.441
19.66000 11.343
19.68000 5.055
19.70000 11.260
19.72000 7.892
19.74000 9.481
19.76000 12.034
19.78000 11.973
19.80000 7.027
19.82000 -1.986
19.84000 7.289
19.86000 12.428
19.88000 14.595
19.90000 9.885
19.92000 14.990
19.94000 15.219
19.96000 14.805
19.98000 16.549
20.00000 15.526
20.02000 10.376
20.04000 5.640
20.06000 1.513
20.08000 4.703
20.10000 11.036
20.12000 11.256
20.14000 4.318
20.16000 -0.213
20.18000 9.309
20.20000 11.531
20.22000 9.924
20.24000 8.987
20.26000 -1.129
20.28000 1.269
20.30000 3.170
20.32000 7.516
20.34000 10.209
20.36000 9.325
20.38000 7.718
20.40000 10.862
20.42000 6.775
20.44000 1.621
20.46000 5.143
20.48000 -1.214
20.50000 -4.187
20.52000 3.784
20.54000 6.854
20.56000 4.882
20.58000 3.540
20.60000 4.952
20.62000 2.053
20.64000 3.901
20.66000 5.858
20.68000 3.659
20.70000 0.110
20.72000 3.797
20.74000 7.045
20.76000 8.524
20.78000 11.111
20.80000 5.516
20.82000 7.006
20.84000 4.564
20.86000 7.325
20.88000 11.679
20.90000 9.405
20.92000 3.877
20.94000 5.852
20.96000 6.708
20.98000 -0.512
21.00000 1.045
21.02000 5.379
21.04000 2.619
21.06000 5.724
21.08000 8.870
21.10000 7.509
21.12000 7.561
21.14000 13.222
21.16000 5.833
21.18000 -0.646
21.20000 4.918
21.22000 10.251
21.24000 3.282
21.26000 2.481
21.28000 4.247
21.30000 3.912
21.32000 -1.454
21.34000 -0.403
21.36000 1.418
21.38000 5.479
21.40000 11.523
21.42000 12.303
21.44000 3.502
21.46000 -0.996
21.48000 2.211
21.50000 2.974
21.52000 8.163
21.54000 12.687
21.56000 6.846
21.58000 4.546
21.60000 1.752
21.62000 -3.830
21.64000 -4.141
21.66000 -3.154
21.68000 -0.965
21.70000 4.187
21.72000 3.758
21.74000 4.529
21.76000 9.699
21.78000 4.773
21.80000 0.580
21.82000 4.395
21.84000 3.823
21.86000 6.085
21.88000 6.821
21.90000 0.141
21.92000 -2.795
21.94000 1.229
21.96000 9.114
21.98000 4.890
22.00000 -0.163
22.02000 6.000
22.04000 3.762
22.06000 1.427
22.08000 -1.022
22.10000 4.047
22.12000 0.633
22.14000 -1.075
22.16000 -1.555
22.18000 -0.834
22.20000 4.264
22.22000 4.217
22.24000 1.494
22.26000 -0.183
22.28000 6.121
22.30000 4.267
22.32000 3.641
22.34000 1.015
22.36000 6.489
22.38000 7.146
22.40000 3.732
22.42000 -3.624
22.44000 -3.450
22.46000 0.472
22.48000 1.300
22.50000 6.149
22.52000 9.528
22.54000 9.651
22.56000 6.173
22.58000 0.980
22.60000 -2.333
22.62000 -3.318
22.64000 -2.442
22.66000 3.578
22.68000 3.173
22.70000 0.936
22.72000 -2.480
22.74000 7.167
22.76000 9.563
22.78000 8.065
22.80000 -0.493
22.82000 -0.827
22.84000 3.606
22.86000 0.403
22.88000 2.577
22.90000 -2.859
22.92000 -0.293
22.94000 3.334
22.96000 0.330
22.98000 1.901
23.00000 -0.069
23.02000 1.905
23.04000 0.800
23.06000 0.206
23.08000 3.960
23.10000 1.892
23.12000 0.153
23.14000 1.068
23.16000 -2.037
23.18000 0.729
23.20000 6.060
23.22000 8.473
23.24000 4.860
23.26000 3.861
23.28000 0.409
23.30000 -0.602
23.32000 -0.573
23.34000 -4.063
23.36000 1.313
23.38000 9.547
23.40000 5.580
23.42000 0.381
23.44000 0.448
23.46000 -0.749
23.48000 -3.391
23.50000 0.960
23.52000 1.455
23.54000 2.292
23.56000 -1.943
23.58000 0.307
23.60000 1.921
23.62000 4.871
23.64000 6.099
23.66000 4.253
23.68000 4.618
23.70000 4.038
23.72000 1.689
23.74000 5.941
23.76000 5.753
23.78000 0.552
23.80000 4.115
23.82000 11.971
23.84000 4.031
23.86000 3.776
23.88000 8.323
23.90000 11.479
23.92000 1.151
23.94000 8.874
23.96000 8.398
23.98000 5.791
24.00000 5.621
24.02000 -0.230
24.04000 0.106
24.06000 0.317
24.08000 2.693
24.10000 6.760
24.12000 1.195
24.14000 0.346
24.16000 0.738
24.18000 1.389
24.20000 3.474
24.22000 0.641
24.24000 -3.988
24.26000 4.641
24.28000 12.721
24.30000 10.693
24.32000 7.826
24.34000 8.225
24.36000 7.222
24.38000 1.678
24.40000 0.678
24.42000 5.320
24.44000 10.700
24.46000 8.824
24.48000 0.864
24.50000 -0.841
24.52000 5.174
24.54000 7.443
24.56000 4.314
24.58000 0.517
24.60000 2.896
24.62000 -1.019
24.64000 4.001
24.66000 3.823
24.68000 1.394
24.70000 5.348
24.72000 2.599
24.74000 2.498
24.76000 4.209
24.78000 6.801
24.80000 4.126
24.82000 6.450
24.84000 4.969
24.86000 -1.033
24.88000 -0.106
24.90000 0.441
24.92000 4.014
24.94000 4.229
24.96000 0.538
24.98000 0.152
25.00000 0.497
25.02000 -2.513
25.04000 -1.871
25.06000 1.264
25.08000 -2.590
25.10000 -1.249
25.12000 3.287
25.14000 1.481
25.16000 -0.705
25.18000 -3.874
25.20000 -2.941
25.22000 1.619
25.24000 6.016
25.26000 1.128
25.28000 2.963
25.30000 2.657
25.32000 1.224
25.34000 3.010
25.36000 3.331
25.38000 10.650
25.40000 7.789
25.42000 10.001
25.44000 11.598
25.46000 5.699
25.48000 -0.812
25.50000 0.522
25.52000 2.067
25.54000 2.528
25.56000 2.691
25.58000 -1.614
25.60000 -0.204
25.62000 -3.463
25.64000 -2.401
25.66000 -2.384
25.68000 -3.938
25.70000 -0.167
25.72000 2.259
25.74000 2.915
25.76000 1.490
25.78000 7.377
25.80000 3.567
25.82000 2.815
25.84000 -0.240
25.86000 3.811
25.88000 2.118
25.90000 0.360
25.92000 -1.465
25.94000 -3.371
25.96000 -1.324
25.98000 3.164
26.00000 5.482
26.02000 7.941
26.04000 4.253
26.06000 5.883
26.08000 0.264
26.10000 -1.072
26.12000 3.242
26.14000 2.826
26.16000 4.883
26.18000 2.503
26.20000 4.200
26.22000 8.227
26.24000 6.751
26.26000 6.287
26.28000 7.368
26.30000 1.391
26.32000 4.205
26.34000 2.161
26.36000 -2.102
26.38000 -3.878
26.40000 1.661
26.42000 5.650
26.44000 3.783
26.46000 7.724
26.48000 7.173
26.50000 1.463
26.52000 1.438
26.54000 -3.873
26.56000 -3.872
26.58000 5.058
26.60000 7.594
26.62000 7.055
26.64000 4.231
26.66000 -1.431
26.68000 0.721
26.70000 1.951
26.72000 4.080
26.74000 -0.140
26.76000 -3.186
26.78000 1.484
26.80000 10.255
26.82000 6.661
26.84000 3.570
26.86000 4.952
26.88000 0.393
26.90000 2.665
26.92000 5.904
26.94000 5.886
26.96000 2.670
26.98000 1.628
27.00000 0.893
27.02000 2.348
27.04000 3.535
27.06000 2.698
27.08000 0.064
27.10000 1.140
27.12000 3.422
27.14000 0.272
27.16000 -0.452
27.18000 2.700
27.20000 6.254
27.22000 6.081
27.24000 3.625
27.26000 -0.496
27.28000 1.711
27.30000 5.974
27.32000 4.664
27.34000 0.169
27.36000 -1.711
27.38000 0.334
27.40000 1.899
27.42000 -0.355
27.44000 3.635
27.46000 4.855
27.48000 1.342
27.50000 4.437
27.52000 6.413
27.54000 4.845
27.56000 -1.136
27.58000 -0.449
27.60000 -1.655
27.62000 -0.598
27.64000 7.377
27.66000 3.663
27.68000 -1.007
27.70000 -0.040
27.72000 1.181
27.74000 3.750
27.76000 5.777
27.78000 5.503
27.80000 7.990
27.82000 2.145
27.84000 -3.827
27.86000 -0.926
27.88000 0.413
27.90000 0.305
27.92000 6.614
27.94000 2.341
27.96000 0.008
27.98000 3.229
28.00000 6.936
28.02000 3.769
28.04000 3.516
28.06000 2.618
28.08000 2.148
28.10000 -0.483
28.12000 0.357
28.14000 3.130
28.16000 1.758
28.18000 2.360
28.20000 -0.357
28.22000 -1.518
28.24000 -2.856
28.26000 -3.810
28.28000 -1.663
28.30000 -3.313
28.32000 -1.087
28.34000 -0.220
28.36000 -1.017
28.38000 0.126
28.40000 -1.012
28.42000 2.198
28.44000 4.453
28.46000 6.018
28.48000 6.057
28.50000 3.551
28.52000 4.758
28.54000 0.267
28.56000 0.064
28.58000 0.298
28.60000 2.513
28.62000 3.093
28.64000 6.742
28.66000 5.134
28.68000 4.169
28.70000 0.526
28.72000 -3.385
28.74000 -2.722
28.76000 -0.259
28.78000 -3.786
28.80000 0.613
28.82000 5.157
28.84000 4.794
28.86000 1.192
28.88000 2.855
28.90000 1.617
28.92000 3.477
28.94000 0.450
28.96000 -0.840
28.98000 -1.681
29.00000 4.201
29.02000 4.135
29.04000 -0.804
29.06000 0.608
29.08000 1.683
29.10000 6.128
29.12000 4.093
29.14000 -2.562
29.16000 2.068
29.18000 2.250
29.20000 1.684
29.22000 0.597
29.24000 0.328
29.26000 -0.418
29.28000 4.996
29.30000 -0.936
29.32000 -2.813
29.34000 4.414
29.36000 6.113
29.38000 6.076
29.40000 -0.740
29.42000 -0.454
29.44000 0.716
29.46000 3.467
29.48000 5.511
29.50000 3.817
29.52000 3.005
29.54000 8.118
29.56000 7.130
29.58000 4.065
29.60000 2.951
29.62000 10.970
29.64000 11.596
29.66000 9.201
29.68000 1.792
29.70000 1.035
29.72000 1.323
29.74000 1.017
29.76000 1.637
29.78000 -3.713
29.80000 -2.494
29.82000 1.264
29.84000 7.028
29.86000 6.904
29.88000 5.790
29.90000 5.022
29.92000 1.476
29.94000 2.387
29.96000 4.387
29.98000 -0.931
30.00000 1.444
30.02000 1.420
30.04000 -0.891
30.06000 1.815
30.08000 0.366
30.10000 -0.222
30.12000 0.802
30.14000 0.654
30.16000 0.850
30.18000 -0.335
30.20000 7.065
30.22000 1.533
30.24000 0.911
30.26000 5.669
30.28000 6.713
30.30000 6.612
30.32000 8.069
30.34000 6.610
30.36000 5.407
30.38000 -2.461
30.40000 0.379
30.42000 -1.132
30.44000 1.993
30.46000 1.158
30.48000 2.721
30.50000 -1.257
30.52000 -3.699
30.54000 -0.084
30.56000 2.536
30.58000 6.263
30.60000 0.826
30.62000 3.039
30.64000 6.611
30.66000 5.637
30.68000 5.359
30.70000 4.048
30.72000 6.503
30.74000 1.541
30.76000 -0.671
30.78000 -2.017
30.80000 2.099
30.82000 5.022
30.84000 1.381
30.86000 2.236
30.88000 8.121
30.90000 5.135
30.92000 -0.416
30.94000 1.061
30.96000 2.004
30.98000 5.203
31.00000 1.644
31.02000 4.662
31.04000 6.740
31.06000 5.143
31.08000 5.438
31.10000 1.131
31.12000 0.728
31.14000 4.997
31.16000 4.761
31.18000 3.122
31.20000 -0.296
31.22000 -0.958
31.24000 1.463
31.26000 4.588
31.28000 -0.069
31.30000 -1.150
31.32000 -0.073
31.34000 -1.232
31.36000 -1.733
31.38000 0.830
31.40000 6.738
31.42000 6.517
31.44000 1.604
31.46000 -1.932
31.48000 -2.922
31.50000 3.603
31.52000 5.513
31.54000 4.937
31.56000 4.103
31.58000 2.935
31.60000 -2.664
31.62000 2.192
31.64000 2.148
31.66000 -0.170
31.68000 4.401
31.70000 5.477
31.72000 6.977
31.74000 0.523
31.76000 0.563
31.78000 8.252
31.80000 10.654
31.82000 10.866
31.84000 4.268
31.86000 2.631
31.88000 3.110
31.90000 2.816
31.92000 2.643
31.94000 1.012
31.96000 -1.263
31.98000 1.810
32.00000 0.550
32.02000 5.436
32.04000 9.109
32.06000 6.985
32.08000 0.175
32.10000 -3.622
32.12000 1.357
32.14000 2.500
32.16000 2.926
32.18000 2.321
32.20000 3.215
32.22000 4.380
32.24000 3.436
32.26000 0.567
32.28000 4.917
32.30000 3.196
32.32000 2.775
32.34000 2.955
32.36000 0.553
32.38000 -0.797
32.40000 4.578
32.42000 6.192
32.44000 4.595
32.46000 1.468
32.48000 3.825
32.50000 0.763
32.52000 1.266
32.54000 2.243
32.56000 -0.734
32.58000 1.104
32.60000 3.331
32.62000 0.078
32.64000 0.349
32.66000 4.959
32.68000 -0.048
32.70000 -0.002
32.72000 1.652
32.74000 3.718
32.76000 2.226
32.78000 3.445
32.80000 5.882
32.82000 4.263
32.84000 3.615
32.86000 1.710
32.88000 5.934
32.90000 7.411
32.92000 2.681
32.94000 -0.091
32.96000 1.927
32.98000 5.530
33.00000 1.564
33.02000 0.685
33.04000 1.446
33.06000 -0.786
33.08000 -0.263
33.10000 7.684
33.12000 6.613
33.14000 -0.729
33.16000 -2.950
33.18000 3.770
33.20000 5.031
33.22000 -0.535
33.24000 2.839
33.26000 8.423
33.28000 6.853
33.30000 1.409
33.32000 2.987
33.34000 1.344
33.36000 4.173
33.38000 2.796
33.40000 3.809
33.42000 2.754
33.44000 7.967
33.46000 10.328
33.48000 0.026
33.50000 3.054
33.52000 2.426
33.54000 -0.419
33.56000 3.630
33.58000 -3.613
33.60000 -1.351
33.62000 3.975
33.64000 8.527
33.66000 2.981
33.68000 3.862
33.70000 6.736
33.72000 5.146
33.74000 3.293
33.76000 3.742
33.78000 1.827
33.80000 0.388
33.82000 4.119
33.84000 2.703
33.86000 10.735
33.88000 7.797
33.90000 6.671
33.92000 2.729
33.94000 2.352
33.96000 1.140
33.98000 0.933
34.00000 0.390
34.02000 2.696
34.04000 0.726
34.06000 -0.532
34.08000 -0.329
34.10000 2.558
34.12000 2.107
34.14000 -1.223
34.16000 0.958
34.18000 5.943
34.20000 0.180
34.22000 -0.367
34.24000 1.901
34.26000 3.312
34.28000 2.644
34.30000 -2.924
34.32000 -2.743
34.34000 2.583
34.36000 7.867
34.38000 6.865
34.40000 3.223
34.42000 1.304
34.44000 0.815
34.46000 2.847
34.48000 0.250
34.50000 -1.472
34.52000 -1.379
34.54000 2.274
34.56000 3.393
34.58000 4.882
34.60000 4.979
34.62000 4.078
34.64000 1.640
34.66000 0.620
34.68000 -2.378
34.70000 -3.614
34.72000 0.124
34.74000 0.681
34.76000 4.745
34.78000 6.523
34.80000 6.826
34.82000 2.664
34.84000 -0.375
34.86000 0.343
34.88000 0.057
34.90000 1.352
34.92000 2.178
34.94000 1.841
34.96000 -0.862
34.98000 -0.113
35.00000 1.852
35.02000 2.540
35.04000 -2.559
35.06000 -1.213
35.08000 -0.671
35.10000 -0.888
35.12000 -0.532
35.14000 2.041
35.16000 0.872
35.18000 -3.200
35.20000 -0.162
35.22000 -2.154
35.24000 -1.192
35.26000 -0.024
35.28000 2.746
35.30000 6.051
35.32000 2.580
35.34000 -3.490
35.36000 -3.625
35.38000 3.236
35.40000 0.242
35.42000 4.402
35.44000 4.422
35.46000 6.579
35.48000 1.746
35.50000 -1.066
35.52000 1.461
35.54000 0.506
35.56000 -1.313
35.58000 0.351
35.60000 -1.177
35.62000 -0.355
35.64000 1.473
35.66000 0.208
35.68000 -0.017
35.70000 -1.655
35.72000 -3.626
35.74000 -2.919
35.76000 -2.567
35.78000 2.472
35.80000 0.961
35.82000 3.675
35.84000 8.570
35.86000 8.310
35.88000 -3.115
35.90000 -1.272
35.92000 1.274
35.94000 1.729
35.96000 4.057
35.98000 3.066
36.00000 2.027
36.02000 -3.647
36.04000 -1.726
36.06000 1.088
36.08000 2.820
36.10000 2.149
36.12000 -0.828
36.14000 -1.355
36.16000 -0.981
36.18000 2.529
36.20000 8.053
36.22000 2.452
36.24000 1.675
36.26000 1.402
36.28000 -1.389
36.30000 -0.930
36.32000 3.098
36.34000 4.949
36.36000 6.967
36.38000 4.184
36.40000 -0.158
36.42000 2.271
36.44000 9.222
36.46000 7.613
36.48000 7.085
36.50000 5.457
36.52000 6.839
36.54000 7.890
36.56000 -0.489
36.58000 -0.425
36.60000 5.318
36.62000 8.960
36.64000 10.061
36.66000 4.782
36.68000 2.689
36.70000 9.713
36.72000 8.869
36.74000 5.359
36.76000 4.602
36.78000 5.001
36.80000 4.367
36.82000 6.360
36.84000 9.110
36.86000 9.452
36.88000 11.902
36.90000 12.004
36.92000 10.278
36.94000 9.901
36.96000 9.909
36.98000 13.495
37.00000 12.062
37.02000 11.747
37.04000 12.089
37.06000 7.330
37.08000 8.322
37.10000 14.948
37.12000 10.796
37.14000 8.402
37.16000 11.230
37.18000 12.748
37.20000 16.268
37.22000 16.890
37.24000 17.947
37.26000 23.161
37.28000 18.070
37.30000 18.062
37.32000 18.763
37.34000 19.748
37.36000 18.263
37.38000 22.869
37.40000 21.210
37.42000 22.640
37.44000 21.454
37.46000 24.009
37.48000 22.354
37.50000 23.614
37.52000 26.497
37.54000 24.788
37.56000 24.322
37.58000 25.021
37.60000 29.014
37.62000 28.599
37.64000 29.068
37.66000 33.217
37.68000 28.120
37.70000 27.477
37.72000 29.324
37.74000 33.424
37.76000 32.503
37.78000 33.075
37.80000 37.616
37.82000 38.547
37.84000 38.629
37.86000 40.450
37.88000 42.734
37.90000 44.378
37.92000 42.857
37.94000 47.458
37.96000 48.129
37.98000 49.484
38.00000 53.845
38.02000 52.141
38.04000 60.589
38.06000 64.761
38.08000 64.576
38.10000 66.087
38.12000 69.552
38.14000 76.762
38.16000 72.319
38.18000 75.899
38.20000 83.087
38.22000 89.513
38.24000 91.913
38.26000 94.028
38.28000 94.474
38.30000 97.993
38.32000 108.538
38.34000 118.696
38.36000 118.648
38.38000 129.868
38.40000 144.448
38.42000 148.581
38.44000 154.701
38.46000 168.050
38.48000 177.771
38.50000 186.032
38.52000 205.407
38.54000 220.000
38.56000 229.264
38.58000 242.114
38.60000 255.285
38.62000 274.183
38.64000 281.693
38.66000 310.279
38.68000 326.133
38.70000 340.437
38.72000 354.806
38.74000 363.607
38.76000 383.549
38.78000 391.427
38.80000 406.333
38.82000 417.747
38.84000 416.875
38.86000 427.112
38.88000 436.732
38.90000 433.721
38.92000 429.416
38.94000 425.551
38.96000 430.141
38.98000 423.226
39.00000 417.512
39.02000 412.080
39.04000 395.168
39.06000 383.440
39.08000 366.653
39.10000 350.064
39.12000 339.796
39.14000 325.399
39.16000 313.410
39.18000 293.592
39.20000 281.204
39.22000 260.203
39.24000 243.216
39.26000 239.306
39.28000 226.404
39.30000 211.246
39.32000 192.673
39.34000 182.225
39.36000 162.322
39.38000 160.374
39.40000 146.410
39.42000 136.290
39.44000 128.325
39.46000 117.492
39.48000 111.337
39.50000 112.146
39.52000 107.481
39.54000 95.828
39.56000 88.165
39.58000 81.904
39.60000 85.364
39.62000 85.094
39.64000 76.069
39.66000 66.426
39.68000 66.242
39.70000 71.920
39.72000 65.815
39.74000 60.954
39.76000 57.351
39.78000 55.152
39.80000 47.682
39.82000 45.500
39.84000 45.687
39.86000 41.081
39.88000 39.302
39.90000 34.900
39.92000 36.773
39.94000 37.306
39.96000 34.824
39.98000 35.149
40.00000 36.937
40.02000 34.967
40.04000 32.961
40.06000 26.766
40.08000 27.273
40.10000 29.198
40.12000 31.097
40.14000 25.029
40.16000 20.901
40.18000 21.254
40.20000 20.574
40.22000 19.406
40.24000 19.503
40.26000 21.694
40.28000 20.262
40.30000 17.904
40.32000 20.488
40.34000 19.430
40.36000 19.919
40.38000 18.304
40.40000 15.578
40.42000 18.424
40.44000 15.434
40.46000 17.626
40.48000 18.322
40.50000 15.176
40.52000 21.104
40.54000 15.915
40.56000 15.834
40.58000 14.680
40.60000 17.281
40.62000 15.929
40.64000 13.776
40.66000 10.052
40.68000 13.442
40.70000 14.858
40.72000 13.477
40.74000 11.114
40.76000 10.332
40.78000 6.813
40.80000 5.577
40.82000 8.268
40.84000 8.431
40.86000 7.506
40.88000 5.234
40.90000 7.429
40.92000 5.856
40.94000 4.683
40.96000 2.604
40.98000 10.276
41.00000 7.893
41.02000 3.181
41.04000 3.179
41.06000 4.303
41.08000 4.236
41.10000 6.882
41.12000 5.617
41.14000 1.725
41.16000 2.138
41.18000 6.745
41.20000 3.820
41.22000 5.526
41.24000 5.163
41.26000 5.272
41.28000 6.501
41.30000 6.945
41.32000 2.535
41.34000 2.635
41.36000 5.713
41.38000 6.025
41.40000 5.102
41.42000 1.026
41.44000 1.609
41.46000 2.773
41.48000 3.656
41.50000 4.165
41.52000 2.285
41.54000 5.012
41.56000 5.138
41.58000 0.385
41.60000 -0.516
41.62000 1.787
41.64000 6.368
41.66000 7.606
41.68000 6.038
41.70000 1.840
41.72000 1.572
41.74000 0.240
41.76000 0.753
41.78000 4.239
41.80000 3.129
41.82000 1.297
41.84000 0.417
41.86000 0.495
41.88000 3.661
41.90000 -0.324
41.92000 -3.452
41.94000 -3.340
41.96000 -1.266
41.98000 -0.908
42.00000 -0.630
42.02000 -0.696
42.04000 -0.397
42.06000 0.599
42.08000 2.135
42.10000 1.619
42.12000 -0.150
42.14000 2.440
42.16000 3.167
42.18000 -1.859
42.20000 -1.593
42.22000 -1.028
42.24000 -0.482
42.26000 1.112
42.28000 -1.578
42.30000 -1.081
42.32000 -1.698
42.34000 -0.636
42.36000 -1.300
42.38000 1.749
42.40000 0.101
42.42000 2.211
42.44000 1.969
42.46000 -2.684
42.48000 2.119
42.50000 3.850
42.52000 1.917
42.54000 0.535
42.56000 -0.114
42.58000 1.191
42.60000 0.611
42.62000 0.256
42.64000 -1.926
42.66000 -1.727
42.68000 0.479
42.70000 -0.479
42.72000 1.301
42.74000 2.307
42.76000 3.203
42.78000 -0.869
42.80000 -0.442
42.82000 -3.369
42.84000 -2.487
42.86000 -0.608
42.88000 1.439
42.90000 -2.091
42.92000 -1.337
42.94000 0.217
42.96000 -0.285
42.98000 -2.294
43.00000 0.412
43.02000 3.338
43.04000 4.473
43.06000 3.294
43.08000 1.114
43.10000 1.417
43.12000 -1.601
43.14000 -2.691
43.16000 2.718
43.18000 1.786
43.20000 0.463
43.22000 3.989
43.24000 0.036
43.26000 -3.322
43.28000 1.339
43.30000 2.001
43.32000 2.738
43.34000 0.190
43.36000 -1.760
43.38000 -1.414
43.40000 -0.841
43.42000 1.315
43.44000 6.228
43.46000 2.412
43.48000 -1.736
43.50000 2.461
43.52000 3.042
43.54000 0.477
43.56000 -1.465
43.58000 3.578
43.60000 -1.513
43.62000 -0.525
43.64000 1.109
43.66000 -0.457
43.68000 -0.262
43.70000 -1.283
43.72000 1.078
43.74000 3.435
43.76000 0.969
43.78000 -1.523
43.80000 4.315
43.82000 7.601
43.84000 1.718
43.86000 0.265
43.88000 1.328
43.90000 7.150
43.92000 0.942
43.94000 2.111
43.96000 6.775
43.98000 6.920
44.00000 4.723
44.02000 2.508
44.04000 -0.974
44.06000 1.620
44.08000 5.702
44.10000 7.206
44.12000 6.880
44.14000 2.809
44.16000 3.259
44.18000 7.833
44.20000 11.439
44.22000 7.321
44.24000 3.821
44.26000 5.556
44.28000 4.294
44.30000 6.464
44.32000 10.397
44.34000 8.417
44.36000 7.029
44.38000 9.147
44.40000 15.331
44.42000 11.462
44.44000 10.860
44.46000 13.227
44.48000 15.187
44.50000 17.661
44.52000 18.382
44.54000 17.715
44.56000 17.409
44.58000 16.990
44.60000 24.116
44.62000 25.859
44.64000 22.117
44.66000 20.589
44.68000 29.452
44.70000 32.543
44.72000 33.831
44.74000 32.450
44.76000 29.549
44.78000 37.654
44.80000 37.953
44.82000 38.493
44.84000 37.969
44.86000 44.637
44.88000 47.858
44.90000 50.821
44.92000 52.446
44.94000 57.492
44.96000 61.075
44.98000 63.373
45.00000 68.226
45.02000 69.216
45.04000 68.552
45.06000 68.695
45.08000 73.267
45.10000 77.304
45.12000 76.610
45.14000 75.890
45.16000 75.799
45.18000 78.848
45.20000 83.178
45.22000 91.458
45.24000 92.027
45.26000 85.193
45.28000 86.194
45.30000 85.244
45.32000 84.470
45.34000 84.887
45.36000 85.201
45.38000 87.395
45.40000 82.658
45.42000 78.446
45.44000 77.602
45.46000 82.465
45.48000 82.917
45.50000 82.206
45.52000 79.596
45.54000 74.048
45.56000 69.888
45.58000 66.389
45.60000 64.401
45.62000 63.661
45.64000 61.237
45.66000 55.366
45.68000 51.708
45.70000 51.244
45.72000 47.625
45.74000 46.506
45.76000 46.920
45.78000 42.814
45.80000 36.265
45.82000 30.688
45.84000 32.670
45.86000 33.661
45.88000 30.590
45.90000 30.395
45.92000 30.048
45.94000 26.985
45.96000 24.601
45.98000 19.933
46.00000 20.219
46.02000 14.703
46.04000 15.801
46.06000 15.874
46.08000 12.932
46.10000 14.667
46.12000 15.391
46.14000 10.964
46.16000 4.516
46.18000 5.272
46.20000 4.323
46.22000 0.012
46.24000 6.730
46.26000 10.863
46.28000 13.056
46.30000 3.331
46.32000 0.258
46.34000 -0.109
46.36000 6.073
46.38000 4.051
46.40000 3.338
46.42000 3.885
46.44000 0.414
46.46000 3.757
46.48000 1.260
46.50000 1.568
46.52000 3.125
46.54000 5.750
46.56000 0.534
46.58000 1.435
46.60000 4.361
46.62000 4.075
46.64000 3.344
46.66000 3.406
46.68000 3.331
46.70000 2.251
46.72000 0.232
46.74000 4.595
46.76000 4.791
46.78000 6.732
46.80000 5.186
46.82000 2.874
46.84000 2.563
46.86000 -0.816
46.88000 -1.097
46.90000 2.141
46.92000 5.016
46.94000 5.713
46.96000 2.607
46.98000 1.474
47.00000 2.353
47.02000 -0.375
47.04000 2.918
47.06000 3.366
47.08000 -1.630
47.10000 0.002
47.12000 -2.900
47.14000 2.811
47.16000 4.327
47.18000 3.247
47.20000 5.984
47.22000 0.619
47.24000 -0.378
47.26000 3.777
47.28000 2.490
47.30000 -0.603
47.32000 0.604
47.34000 0.200
47.36000 0.938
47.38000 3.455
47.40000 4.019
47.42000 4.017
47.44000 3.302
47.46000 0.589
47.48000 -1.277
47.50000 0.885
47.52000 5.451
47.54000 4.075
47.56000 -1.442
47.58000 -2.866
47.60000 1.091
47.62000 3.041
47.64000 2.101
47.66000 0.220
47.68000 3.242
47.70000 0.111
47.72000 0.869
47.74000 3.103
47.76000 2.128
47.78000 2.151
47.80000 -2.848
47.82000 -1.459
47.84000 0.553
47.86000 -0.082
47.88000 0.642
47.90000 2.249
47.92000 2.815
47.94000 0.824
47.96000 1.884
47.98000 2.319
48.00000 -0.791
48.02000 -0.776
48.04000 -1.282
48.06000 -0.824
48.08000 1.648
48.10000 4.441
48.12000 5.495
48.14000 3.767
48.16000 2.287
48.18000 0.936
48.20000 1.593
48.22000 0.702
48.24000 -0.755
48.26000 0.223
48.28000 -2.824
48.30000 -0.733
48.32000 4.903
48.34000 0.378
48.36000 5.621
48.38000 4.942
48.40000 4.802
48.42000 2.614
48.44000 1.883
48.46000 0.000
48.48000 1.189
48.50000 -2.687
48.52000 -0.092
48.54000 -2.029
48.56000 -0.347
48.58000 0.201
48.60000 0.080
48.62000 2.705
48.64000 2.119
48.66000 1.256
48.68000 3.531
48.70000 3.353
48.72000 2.094
48.74000 -2.439
48.76000 1.289
48.78000 -1.177
48.80000 0.821
48.82000 3.013
48.84000 0.300
48.86000 1.326
48.88000 2.242
48.90000 -2.749
48.92000 0.746
48.94000 7.457
48.96000 5.166
48.98000 1.624
49.00000 1.146
49.02000 3.399
49.04000 6.760
49.06000 4.435
49.08000 6.999
49.10000 5.688
49.12000 1.659
49.14000 4.783
49.16000 4.210
49.18000 4.339
49.20000 -2.756
49.22000 -0.913
49.24000 1.178
49.26000 4.257
49.28000 7.572
49.30000 5.401
49.32000 0.183
49.34000 -1.760
49.36000 -1.207
49.38000 1.050
49.40000 1.341
49.42000 -0.229
49.44000 -0.765
49.46000 1.928
49.48000 3.040
49.50000 3.599
49.52000 3.092
49.54000 3.560
49.56000 -0.350
49.58000 2.729
49.60000 3.481
49.62000 2.941
49.64000 2.477
49.66000 1.306
49.68000 4.346
49.70000 2.515
49.72000 0.736
49.74000 5.380
49.76000 4.256
49.78000 4.819
49.80000 4.274
49.82000 6.598
49.84000 5.548
49.86000 3.977
49.88000 5.230
49.90000 -0.160
49.92000 -2.705
49.94000 2.732
49.96000 3.903
49.98000 1.836
50.00000 3.467
50.02000 4.399
50.04000 4.833
50.06000 9.170
50.08000 6.436
50.10000 3.737
50.12000 1.495
50.14000 2.133
50.16000 -0.290
50.18000 1.236
50.20000 3.224
50.22000 -0.789
50.24000 0.347
50.26000 0.822
50.28000 -0.059
50.30000 -1.812
50.32000 3.962
50.34000 4.821
50.36000 -0.127
50.38000 -1.064
50.40000 2.229
50.42000 2.263
50.44000 5.392
50.46000 3.769
50.48000 0.830
50.50000 4.196
50.52000 4.989
50.54000 3.426
50.56000 0.080
50.58000 -1.101
50.60000 1.384
50.62000 1.963
50.64000 0.814
50.66000 -1.819
50.68000 -1.288
50.70000 2.500
50.72000 3.285
50.74000 2.681
50.76000 2.973
50.78000 0.920
50.80000 2.150
50.82000 4.328
50.84000 4.423
50.86000 -2.444
50.88000 2.660
50.90000 6.274
50.92000 8.279
50.94000 1.841
50.96000 0.002
50.98000 4.593
51.00000 5.334
51.02000 3.622
51.04000 3.697
51.06000 4.603
51.08000 4.486
51.10000 -2.698
51.12000 0.415
51.14000 -0.974
51.16000 -1.416
51.18000 -0.945
51.20000 2.870
51.22000 5.067
51.24000 5.126
51.26000 -1.822
51.28000 2.489
51.30000 8.671
51.32000 2.955
51.34000 1.565
51.36000 4.786
51.38000 1.875
51.40000 4.017
51.42000 -1.433
51.44000 -0.673
51.46000 0.967
51.48000 -1.754
51.50000 1.571
51.52000 -0.971
51.54000 3.543
51.56000 2.244
51.58000 1.519
51.60000 1.261
51.62000 3.366
51.64000 4.867
51.66000 0.655
51.68000 3.654
51.70000 8.369
51.72000 2.986
51.74000 0.486
51.76000 5.061
51.78000 2.909
51.80000 4.908
51.82000 6.179
51.84000 2.271
51.86000 -2.656
51.88000 2.075
51.90000 2.675
51.92000 5.142
51.94000 5.615
51.96000 3.993
51.98000 6.858
52.00000 3.733
52.02000 4.356
52.04000 5.655
52.06000 8.718
52.08000 4.622
52.10000 4.537
52.12000 4.715
52.14000 4.666
52.16000 0.261
52.18000 2.818
52.20000 2.064
52.22000 3.901
52.24000 4.981
52.26000 6.127
52.28000 4.831
52.30000 4.514
52.32000 3.025
52.34000 1.021
52.36000 2.659
52.38000 -1.977
52.40000 -1.805
52.42000 -1.308
52.44000 -0.093
52.46000 2.747
52.48000 1.440
52.50000 -2.356
52.52000 0.404
52.54000 -2.651
52.56000 -0.687
52.58000 3.892
52.60000 1.873
52.62000 0.469
52.64000 4.445
52.66000 5.774
52.68000 0.769
52.70000 2.578
52.72000 -1.376
52.74000 -2.364
52.76000 -0.002
52.78000 0.988
52.80000 -2.364
52.82000 2.168
52.84000 1.943
52.86000 -0.003
52.88000 1.541
52.90000 0.484
52.92000 -1.463
52.94000 -0.806
52.96000 0.872
52.98000 -1.862
53.00000 -0.427
53.02000 1.738
53.04000 -0.909
53.06000 3.470
53.08000 0.743
53.10000 2.696
53.12000 3.941
53.14000 5.436
53.16000 3.573
53.18000 1.132
53.20000 2.885
53.22000 3.784
53.24000 4.431
53.26000 4.246
53.28000 4.631
53.30000 1.262
53.32000 0.275
53.34000 3.200
53.36000 0.853
53.38000 -0.550
53.40000 -1.711
53.42000 -2.639
53.44000 -2.118
53.46000 2.212
53.48000 6.025
53.50000 4.163
53.52000 4.204
53.54000 -0.399
53.56000 1.521
53.58000 3.536
53.60000 1.343
53.62000 -1.319
53.64000 1.317
53.66000 1.757
53.68000 -0.260
53.70000 -0.976
53.72000 3.406
53.74000 -0.577
53.76000 0.911
53.78000 0.023
53.80000 -0.008
53.82000 0.098
53.84000 1.703
53.86000 0.469
53.88000 -0.323
53.90000 1.365
53.92000 2.325
53.94000 4.772
53.96000 2.154
53.98000 -0.644
54.00000 4.419
54.02000 5.456
54.04000 2.539
54.06000 2.379
54.08000 2.053
54.10000 -1.103
54.12000 -0.192
54.14000 2.166
54.16000 6.712
54.18000 1.114
54.20000 -2.596
54.22000 -0.479
54.24000 0.282
54.26000 5.033
54.28000 5.330
54.30000 4.117
54.32000 4.350
54.34000 5.904
54.36000 7.306
54.38000 3.247
54.40000 6.728
54.42000 4.193
54.44000 1.545
54.46000 1.603
54.48000 -0.096
54.50000 -1.656
54.52000 -2.571
54.54000 4.123
54.56000 3.577
54.58000 3.673
54.60000 2.043
54.62000 1.803
54.64000 -0.124
54.66000 4.123
54.68000 1.797
54.70000 0.208
54.72000 3.912
54.74000 3.939
54.76000 7.277
54.78000 3.350
54.80000 -0.066
54.82000 -1.641
54.84000 -1.028
54.86000 -0.783
54.88000 1.050
54.90000 -2.586
54.92000 0.024
54.94000 0.161
54.96000 2.336
54.98000 -1.206
55.00000 2.820
55.02000 5.718
55.04000 1.392
55.06000 0.800
55.08000 -2.579
55.10000 -1.642
55.12000 -1.339
55.14000 0.608
55.16000 3.196
55.18000 1.974
55.20000 1.958
55.22000 1.414
55.24000 1.986
55.26000 6.100
55.28000 3.668
55.30000 2.049
55.32000 3.329
55.34000 4.851
55.36000 -1.157
55.38000 -0.513
55.40000 1.180
55.42000 1.432
55.44000 -0.821
55.46000 -1.299
55.48000 -0.224
55.50000 -2.562
55.52000 -2.514
55.54000 0.117
55.56000 6.990
55.58000 2.199
55.60000 -0.164
55.62000 -1.758
55.64000 -0.367
55.66000 -0.933
55.68000 -0.331
55.70000 0.216
55.72000 2.871
55.74000 3.932
55.76000 3.874
55.78000 1.576
55.80000 1.191
55.82000 0.893
55.84000 4.229
55.86000 4.681
55.88000 1.060
55.90000 -0.186
55.92000 -0.695
55.94000 -0.239
55.96000 2.752
55.98000 0.259
56.00000 0.154
56.02000 2.405
56.04000 -2.204
56.06000 -0.809
56.08000 0.100
56.10000 1.916
56.12000 1.669
56.14000 0.673
56.16000 0.397
56.18000 2.898
56.20000 3.595
56.22000 2.382
56.24000 0.602
56.26000 -0.316
56.28000 -0.890
56.30000 -1.248
56.32000 0.747
56.34000 -1.175
56.36000 1.752
56.38000 1.305
56.40000 -0.546
56.42000 0.213
56.44000 1.925
56.46000 1.643
56.48000 -0.409
56.50000 -1.974
56.52000 0.054
56.54000 5.135
56.56000 5.648
56.58000 -1.148
56.60000 0.243
56.62000 0.551
56.64000 1.349
56.66000 1.394
56.68000 0.603
56.70000 1.656
56.72000 3.374
56.74000 4.051
56.76000 2.145
56.78000 1.084
56.80000 3.173
56.82000 -1.080
56.84000 0.010
56.86000 0.451
56.88000 0.132
56.90000 0.631
56.92000 2.281
56.94000 1.825
56.96000 3.373
56.98000 3.925
57.00000 3.382
57.02000 0.545
57.04000 4.329
57.06000 5.133
57.08000 0.776
57.10000 2.064
57.12000 -1.251
57.14000 -2.018
57.16000 1.387
57.18000 1.601
57.20000 3.912
57.22000 1.438
57.24000 -2.533
57.26000 -0.311
57.28000 0.262
57.30000 1.488
57.32000 0.814
57.34000 1.464
57.36000 -0.632
57.38000 2.227
57.40000 7.143
57.42000 5.282
57.44000 5.001
57.46000 0.401
57.48000 2.442
57.50000 3.439
57.52000 3.819
57.54000 -0.225
57.56000 0.691
57.58000 1.437
57.60000 3.220
57.62000 2.803
57.64000 4.040
57.66000 2.673
57.68000 1.645
57.70000 2.815
57.72000 2.530
57.74000 0.774
57.76000 2.470
57.78000 4.043
57.80000 -0.249
57.82000 -0.248
57.84000 3.688
57.86000 0.783
57.88000 -2.502
57.90000 3.904
57.92000 5.195
57.94000 2.886
57.96000 3.883
57.98000 2.316
58.00000 -1.434
58.02000 -0.939
58.04000 4.755
58.06000 5.319
58.08000 3.367
58.10000 4.220
58.12000 -0.837
58.14000 1.170
58.16000 3.103
58.18000 3.116
58.20000 -0.003
58.22000 1.889
58.24000 1.291
58.26000 2.544
58.28000 1.990
58.30000 4.050
58.32000 0.623
58.34000 -0.313
58.36000 0.050
58.38000 -1.674
58.40000 -0.594
58.42000 -0.535
58.44000 0.354
58.46000 -0.421
58.48000 -0.716
58.50000 3.344
58.52000 5.360
58.54000 1.471
58.56000 1.283
58.58000 -0.960
58.60000 -1.747
58.62000 -2.226
58.64000 1.304
58.66000 3.732
58.68000 0.473
58.70000 -0.292
58.72000 -2.491
58.74000 0.914
58.76000 -0.440
58.78000 1.816
58.80000 2.022
58.82000 2.929
58.84000 2.767
58.86000 0.710
58.88000 1.975
58.90000 0.070
58.92000 0.309
58.94000 1.627
58.96000 2.936
58.98000 0.418
59.00000 0.285
59.02000 0.905
59.04000 4.449
59.06000 0.051
59.08000 2.081
59.10000 5.348
59.12000 2.390
59.14000 0.781
59.16000 4.295
59.18000 2.443
59.20000 1.688
59.22000 2.421
59.24000 4.328
59.26000 2.523
59.28000 -2.389
59.30000 1.516
59.32000 5.293
59.34000 3.737
59.36000 0.826
59.38000 0.254
59.40000 -2.450
59.42000 1.408
59.44000 1.692
59.46000 0.676
59.48000 1.196
59.50000 0.651
59.52000 -0.816
59.54000 -2.438
59.56000 2.486
59.58000 3.194
59.60000 0.316
59.62000 1.075
59.64000 3.115
59.66000 7.246
59.68000 3.803
59.70000 -2.080
59.72000 -0.611
59.74000 3.266
59.76000 -0.172
59.78000 -0.364
59.80000 0.900
59.82000 3.566
59.84000 1.858
59.86000 0.302
59.88000 2.118
59.90000 5.496
59.92000 -1.294
59.94000 -1.175
59.96000 0.658
59.98000 1.051
60.00000 2.602
60.02000 1.128
60.04000 -2.070
60.06000 0.213
60.08000 1.626
60.10000 1.200
60.12000 1.254
60.14000 0.539
60.16000 2.688
60.18000 4.077
60.20000 0.348
60.22000 -1.849
60.24000 0.245
60.26000 1.818
60.28000 2.529
60.30000 3.647
60.32000 1.931
60.34000 3.623
60.36000 1.294
60.38000 0.509
60.40000 -0.253
60.42000 1.046
60.44000 3.711
60.46000 5.745
60.48000 1.799
60.50000 3.290
60.52000 3.015
60.54000 0.887
60.56000 1.932
60.58000 2.261
60.60000 3.003
60.62000 2.926
60.64000 3.929
60.66000 3.120
60.68000 2.624
60.70000 0.933
60.72000 -2.380
60.74000 2.103
60.76000 5.793
60.78000 1.479
60.80000 4.267
60.82000 6.428
60.84000 3.765
60.86000 0.472
60.88000 1.742
60.90000 -0.418
60.92000 4.544
60.94000 2.981
60.96000 1.889
60.98000 2.669
61.00000 5.743
61.02000 3.736
61.04000 5.521
61.06000 2.609
61.08000 2.910
61.10000 1.271
61.12000 3.132
61.14000 5.512
61.16000 2.287
61.18000 2.208
61.20000 6.052
61.22000 1.675
61.24000 3.163
61.26000 0.264
61.28000 2.673
61.30000 1.214
61.32000 6.436
61.34000 6.063
61.36000 2.629
61.38000 5.855
61.40000 2.361
61.42000 1.293
61.44000 1.793
61.46000 -0.745
61.48000 -2.353
61.50000 -0.654
61.52000 1.535
61.54000 4.483
61.56000 6.249
61.58000 2.929
61.60000 2.497
61.62000 -0.361
61.64000 0.485
61.66000 3.620
61.68000 3.793
61.70000 4.599
61.72000 0.543
61.74000 1.146
61.76000 4.241
61.78000 6.154
61.80000 3.272
61.82000 -0.742
61.84000 -1.762
61.86000 -0.404
61.88000 4.234
61.90000 4.056
61.92000 2.639
61.94000 3.023
61.96000 5.428
61.98000 1.061
62.00000 4.165
62.02000 3.366
62.04000 2.064
62.06000 0.444
62.08000 -1.401
62.10000 -2.326
62.12000 1.462
62.14000 6.227
62.16000 5.446
62.18000 2.442
62.20000 1.038
62.22000 -0.237
62.24000 3.444
62.26000 3.369
62.28000 3.710
62.30000 4.901
62.32000 7.359
62.34000 4.078
62.36000 5.104
62.38000 3.806
62.40000 5.320
62.42000 5.761
62.44000 4.409
62.46000 3.288
62.48000 4.897
62.50000 8.362
62.52000 7.439
62.54000 4.779
62.56000 2.940
62.58000 3.434
62.60000 4.901
62.62000 0.679
62.64000 1.108
62.66000 3.107
62.68000 4.388
62.70000 3.122
62.72000 0.526
62.74000 -2.317
62.76000 1.342
62.78000 3.897
62.80000 3.204
62.82000 2.332
62.84000 -0.503
62.86000 0.900
62.88000 1.820
62.90000 5.917
62.92000 2.614
62.94000 -0.466
62.96000 -0.577
62.98000 -0.386
63.00000 1.151
63.02000 2.239
63.04000 1.244
63.06000 2.339
63.08000 3.033
63.10000 2.578
63.12000 1.915
63.14000 2.469
63.16000 0.139
63.18000 -0.523
63.20000 1.484
63.22000 3.514
63.24000 3.654
63.26000 3.322
63.28000 1.919
63.30000 2.355
63.32000 1.406
63.34000 -1.077
63.36000 -1.680
63.38000 1.640
63.40000 5.542
63.42000 4.548
63.44000 5.772
63.46000 1.731
63.48000 2.039
63.50000 3.820
63.52000 4.154
63.54000 1.473
63.56000 -2.309
63.58000 2.118
63.60000 3.960
63.62000 1.314
63.64000 1.591
63.66000 3.990
63.68000 4.258
63.70000 2.778
63.72000 2.668
63.74000 3.809
63.76000 1.588
63.78000 5.105
63.80000 1.330
63.82000 0.424
63.84000 0.422
63.86000 3.115
63.88000 0.777
63.90000 2.736
63.92000 4.943
63.94000 5.012
63.96000 2.494
63.98000 2.167
64.00000 1.534
64.02000 0.185
64.04000 -0.567
64.06000 0.587
64.08000 1.732
64.10000 2.687
64.12000 1.604
64.14000 -0.864
64.16000 1.721
64.18000 1.185
64.20000 0.463
64.22000 0.346
64.24000 2.271
64.26000 1.899
64.28000 1.277
64.30000 2.130
64.32000 2.973
64.34000 1.812
64.36000 3.722
64.38000 6.263
64.40000 4.078
64.42000 -0.102
64.44000 0.651
64.46000 0.562
64.48000 -0.239
64.50000 2.275
64.52000 0.718
64.54000 2.537
64.56000 3.931
64.58000 5.088
64.60000 0.905
64.62000 -2.349
64.64000 -1.419
64.66000 -2.194
64.68000 -0.221
64.70000 0.171
64.72000 4.076
64.74000 3.289
64.76000 2.136
64.78000 0.565
64.80000 -0.182
64.82000 -0.698
64.84000 3.522
64.86000 2.242
64.88000 -0.509
64.90000 -2.252
64.92000 -0.341
64.94000 1.717
64.96000 4.308
64.98000 3.205
65.00000 0.389
65.02000 1.022
65.04000 1.729
65.06000 2.084
65.08000 0.464
65.10000 -1.910
65.12000 0.455
65.14000 -0.113
65.16000 1.600
65.18000 1.958
65.20000 1.420
65.22000 2.964
65.24000 1.380
65.26000 3.851
65.28000 2.837
65.30000 2.786
65.32000 6.424
65.34000 1.921
65.36000 -1.186
65.38000 0.305
65.40000 2.218
65.42000 -0.317
65.44000 2.153
65.46000 1.719
65.48000 3.479
65.50000 3.179
65.52000 0.190
65.54000 1.198
65.56000 1.329
65.58000 0.345
65.60000 1.900
65.62000 4.839
65.64000 3.412
65.66000 2.202
65.68000 1.272
65.70000 0.475
65.72000 2.352
65.74000 5.481
65.76000 4.492
65.78000 3.392
65.80000 3.004
65.82000 3.266
65.84000 3.481
65.86000 4.905
65.88000 4.036
65.90000 1.637
65.92000 2.492
65.94000 5.962
65.96000 5.961
65.98000 5.223
66.00000 5.250
66.02000 2.083
66.04000 -0.724
66.06000 0.984
66.08000 1.879
66.10000 3.244
66.12000 5.078
66.14000 2.531
66.16000 3.243
66.18000 3.974
66.20000 2.885
66.22000 4.566
66.24000 1.959
66.26000 1.684
66.28000 3.523
66.30000 0.911
66.32000 5.322
66.34000 3.401
66.36000 2.889
66.38000 1.947
66.40000 2.809
66.42000 -0.090
66.44000 -0.591
66.46000 0.344
66.48000 1.626
66.50000 3.636
66.52000 1.211
66.54000 -0.603
66.56000 0.457
66.58000 -0.033
66.60000 1.620
66.62000 1.092
66.64000 0.469
66.66000 1.069
66.68000 0.109
66.70000 0.043
66.72000 1.297
66.74000 -2.027
66.76000 0.828
66.78000 0.055
66.80000 -1.010
66.82000 -0.962
66.84000 -0.270
66.86000 -1.354
66.88000 -2.122
66.90000 -1.453
66.92000 1.039
66.94000 1.792
66.96000 0.885
66.98000 -0.920
67.00000 -0.512
67.02000 1.241
67.04000 1.063
67.06000 -2.295
67.08000 -0.281
67.10000 -0.352
67.12000 1.310
67.14000 0.249
67.16000 0.770
67.18000 0.481
67.20000 4.382
67.22000 2.459
67.24000 1.609
67.26000 3.745
67.28000 0.096
67.30000 -1.632
67.32000 -2.275
67.34000 -0.753
67.36000 -0.986
67.38000 -1.237
67.40000 0.439
67.42000 2.962
67.44000 3.232
67.46000 1.833
67.48000 0.677
67.50000 1.258
67.52000 1.928
67.54000 -2.258
67.56000 -0.407
67.58000 1.925
67.60000 1.980
67.62000 2.311
67.64000 -0.208
67.66000 0.653
67.68000 0.453
67.70000 -0.687
67.72000 0.681
67.74000 2.729
67.76000 0.964
67.78000 1.831
67.80000 4.618
67.82000 4.299
67.84000 1.614
67.86000 0.512
67.88000 0.921
67.90000 -0.263
67.92000 -0.317
67.94000 0.757
67.96000 0.770
67.98000 -0.595
68.00000 -0.928
68.02000 -2.231
68.04000 -0.077
68.06000 1.650
68.08000 1.487
68.10000 1.951
68.12000 3.156
68.14000 4.274
68.16000 1.130
68.18000 0.685
68.20000 0.562
68.22000 1.912
68.24000 1.649
68.26000 0.999
68.28000 1.909
68.30000 2.884
68.32000 5.035
68.34000 2.178
68.36000 1.059
68.38000 -2.223
68.40000 -1.444
68.42000 -0.081
68.44000 0.873
68.46000 2.682
68.48000 0.801
68.50000 -2.065
68.52000 -1.198
68.54000 -0.333
68.56000 -0.782
68.58000 -1.852
68.60000 -1.733
68.62000 -1.428
68.64000 -1.113
68.66000 0.079
68.68000 2.032
68.70000 0.935
68.72000 -0.729
68.74000 3.118
68.76000 2.972
68.78000 1.394
68.80000 1.883
68.82000 -1.715
68.84000 -1.214
68.86000 0.280
68.88000 2.880
68.90000 1.649
68.92000 2.749
68.94000 2.064
68.96000 0.699
68.98000 0.728
69.00000 0.440
69.02000 -0.494
69.04000 -1.621
69.06000 1.518
69.08000 4.351
69.10000 1.329
69.12000 0.648
69.14000 0.886
69.16000 -1.467
69.18000 -1.731
69.20000 -2.192
69.22000 -1.118
69.24000 -1.275
69.26000 -0.251
69.28000 0.045
69.30000 0.693
69.32000 2.898
69.34000 1.412
69.36000 1.674
69.38000 2.049
69.40000 3.755
69.42000 5.590
69.44000 4.205
69.46000 1.577
69.48000 4.034
69.50000 4.730
69.52000 2.014
69.54000 3.673
69.56000 0.901
69.58000 -0.885
69.60000 0.181
69.62000 2.761
69.64000 2.666
69.66000 -0.210
69.68000 -1.128
69.70000 2.731
69.72000 2.228
69.74000 -0.633
69.76000 -1.436
69.78000 1.608
69.80000 3.712
69.82000 1.336
69.84000 -0.745
69.86000 -0.388
69.88000 -0.116
69.90000 0.541
69.92000 0.333
69.94000 3.356
69.96000 3.798
69.98000 0.276
70.00000 0.332
70.02000 1.845
70.04000 3.710
70.06000 1.918
70.08000 -0.735
70.10000 3.589
70.12000 5.639
70.14000 3.199
70.16000 3.107
70.18000 2.224
70.20000 0.923
70.22000 0.205
70.24000 -2.110
70.26000 -0.428
70.28000 0.469
70.30000 3.624
70.32000 2.848
70.34000 2.334
70.36000 2.478
70.38000 0.534
70.40000 0.159
70.42000 -0.899
70.44000 0.810
70.46000 1.058
70.48000 2.277
70.50000 3.794
70.52000 3.833
70.54000 2.396
70.56000 1.482
70.58000 -0.011
70.60000 0.257
70.62000 1.551
70.64000 1.831
70.66000 0.179
70.68000 -1.920
70.70000 0.892
70.72000 1.217
70.74000 1.446
70.76000 1.448
70.78000 -0.785
70.80000 -0.131
70.82000 0.692
70.84000 -1.236
70.86000 -0.598
70.88000 1.815
70.90000 2.144
70.92000 0.785
70.94000 -0.751
70.96000 -1.600
70.98000 3.378
71.00000 3.738
71.02000 2.143
71.04000 0.662
71.06000 1.306
71.08000 0.835
71.10000 3.097
71.12000 1.682
71.14000 3.565
71.16000 2.785
71.18000 3.615
71.20000 2.164
71.22000 1.509
71.24000 2.953
71.26000 1.991
71.28000 2.283
71.30000 -1.280
71.32000 -1.284
71.34000 1.309
71.36000 4.147
71.38000 1.547
71.40000 1.331
71.42000 -1.000
71.44000 0.638
71.46000 1.233
71.48000 -1.785
71.50000 -0.296
71.52000 2.755
71.54000 1.710
71.56000 1.249
71.58000 -1.428
71.60000 -0.097
71.62000 -1.184
71.64000 0.698
71.66000 2.582
71.68000 0.947
71.70000 3.256
71.72000 0.383
71.74000 -2.102
71.76000 -0.850
71.78000 -0.476
71.80000 -0.787
71.82000 1.892
71.84000 5.755
71.86000 4.284
71.88000 -1.643
71.90000 -1.286
71.92000 -1.524
71.94000 1.100
71.96000 2.455
71.98000 3.449
72.00000 2.531
72.02000 2.495
72.04000 -2.086
72.06000 -0.378
72.08000 0.738
72.10000 1.647
72.12000 -0.331
72.14000 -0.351
72.16000 0.513
72.18000 0.878
72.20000 1.959
72.22000 -0.354
72.24000 -1.752
72.26000 -1.273
72.28000 -0.329
72.30000 -0.714
72.32000 0.056
72.34000 0.833
72.36000 0.790
72.38000 1.812
72.40000 3.982
72.42000 1.789
72.44000 0.172
72.46000 1.015
72.48000 1.126
72.50000 -0.834
72.52000 1.444
72.54000 3.125
72.56000 1.854
72.58000 0.565
72.60000 0.820
72.62000 1.378
72.64000 0.067
72.66000 0.162
72.68000 2.542
72.70000 2.622
72.72000 2.681
72.74000 -0.373
72.76000 2.031
72.78000 2.584
72.80000 2.323
72.82000 0.005
72.84000 -0.262
72.86000 0.720
72.88000 4.997
72.90000 3.655
72.92000 -0.055
72.94000 1.538
72.96000 1.141
72.98000 -2.006
73.00000 1.414
73.02000 3.253
73.04000 -0.194
73.06000 0.128
73.08000 1.997
73.10000 -0.526
73.12000 0.897
73.14000 3.642
73.16000 2.035
73.18000 0.044
73.20000 0.166
73.22000 1.019
73.24000 1.827
73.26000 0.167
73.28000 -2.049
73.30000 2.043
73.32000 0.411
73.34000 1.480
73.36000 0.162
73.38000 0.778
73.40000 0.933
73.42000 0.381
73.44000 2.942
73.46000 1.962
73.48000 1.302
73.50000 2.719
73.52000 5.000
73.54000 3.044
73.56000 4.084
73.58000 3.744
73.60000 1.850
73.62000 3.865
73.64000 3.820
73.66000 4.188
73.68000 6.141
73.70000 1.552
73.72000 2.410
73.74000 4.767
73.76000 4.357
73.78000 1.959
73.80000 3.168
73.82000 4.109
73.84000 3.843
73.86000 5.842
73.88000 1.934
73.90000 2.291
73.92000 6.681
73.94000 8.835
73.96000 4.195
73.98000 0.619
74.00000 3.277
74.02000 4.070
74.04000 0.454
74.06000 -2.033
74.08000 1.727
74.10000 3.194
74.12000 3.545
74.14000 4.227
74.16000 6.373
74.18000 3.139
74.20000 1.394
74.22000 3.493
74.24000 4.344
74.26000 2.532
74.28000 3.819
74.30000 4.199
74.32000 2.667
74.34000 1.761
74.36000 2.730
74.38000 3.460
74.40000 1.664
74.42000 2.894
74.44000 -0.917
74.46000 1.271
74.48000 0.406
74.50000 -0.374
74.52000 1.753
74.54000 2.491
74.56000 1.864
74.58000 -0.847
74.60000 -0.829
74.62000 0.234
74.64000 1.219
74.66000 3.895
74.68000 1.079
74.70000 1.682
74.72000 2.596
74.74000 1.768
74.76000 0.018
74.78000 -0.862
74.80000 4.873
74.82000 3.960
74.84000 1.997
74.86000 3.227
74.88000 3.202
74.90000 -0.208
74.92000 -0.006
74.94000 -1.244
74.96000 -2.042
74.98000 0.642
75.00000 0.951
75.02000 0.017
75.04000 2.356
75.06000 1.861
75.08000 2.330
75.10000 4.729
75.12000 4.835
75.14000 4.374
75.16000 -0.041
75.18000 -2.044
75.20000 0.024
75.22000 1.517
75.24000 1.047
75.26000 1.903
75.28000 0.399
75.30000 0.043
75.32000 1.618
75.34000 1.127
75.36000 5.520
75.38000 1.943
75.40000 0.248
75.42000 -0.715
75.44000 3.038
75.46000 4.531
75.48000 2.972
75.50000 2.574
75.52000 1.998
75.54000 0.619
75.56000 4.929
75.58000 1.793
75.60000 -0.459
75.62000 -0.787
75.64000 -0.524
75.66000 -0.414
75.68000 3.047
75.70000 4.599
75.72000 1.149
75.74000 -0.659
75.76000 1.505
75.78000 2.645
75.80000 1.364
75.82000 0.179
75.84000 0.586
75.86000 -0.241
75.88000 -0.736
75.90000 1.040
75.92000 1.850
75.94000 4.528
75.96000 3.180
75.98000 1.237
76.00000 -0.133
76.02000 -0.036
76.04000 -0.717
76.06000 -0.778
76.08000 -1.009
76.10000 1.682
76.12000 0.576
76.14000 1.260
76.16000 1.694
76.18000 0.607
76.20000 -2.085
76.22000 -1.714
76.24000 1.003
76.26000 1.677
76.28000 2.307
76.30000 3.792
76.32000 4.419
76.34000 3.215
76.36000 3.142
76.38000 -0.493
76.40000 1.696
76.42000 -0.578
76.44000 1.819
76.46000 1.465
76.48000 1.372
76.50000 1.580
76.52000 2.448
76.54000 0.724
76.56000 1.568
76.58000 0.907
76.60000 1.797
76.62000 1.657
76.64000 -0.515
76.66000 2.504
76.68000 0.520
76.70000 -0.540
76.72000 0.000
76.74000 3.196
76.76000 3.581
76.78000 1.206
76.80000 -1.974
76.82000 2.624
76.84000 1.653
76.86000 1.485
76.88000 -0.816
76.90000 2.015
76.92000 2.207
76.94000 -0.920
76.96000 -1.686
76.98000 -0.632
77.00000 0.776
77.02000 -1.529
77.04000 1.398
77.06000 5.138
77.08000 3.908
77.10000 4.142
77.12000 3.747
77.14000 1.420
77.16000 1.067
77.18000 3.915
77.20000 3.593
77.22000 3.142
77.24000 2.001
77.26000 0.649
77.28000 -2.139
77.30000 -0.970
77.32000 1.912
77.34000 2.523
77.36000 3.747
77.38000 2.799
77.40000 0.939
77.42000 1.613
77.44000 1.446
77.46000 0.999
77.48000 4.849
77.50000 3.065
77.52000 3.193
77.54000 2.736
77.56000 -1.478
77.58000 0.921
77.60000 3.882
77.62000 2.945
77.64000 0.333
77.66000 1.036
77.68000 1.768
77.70000 -1.256
77.72000 -0.631
77.74000 1.060
77.76000 -1.596
77.78000 -2.197
77.80000 -1.150
77.82000 1.458
77.84000 1.395
77.86000 -0.488
77.88000 0.104
77.90000 0.644
77.92000 1.392
77.94000 0.220
77.96000 0.070
77.98000 3.890
78.00000 2.726
78.02000 1.356
78.04000 -1.497
78.06000 2.066
78.08000 1.030
78.10000 -0.866
78.12000 2.579
78.14000 2.938
78.16000 3.104
78.18000 -2.041
78.20000 2.086
78.22000 9.152
78.24000 7.136
78.26000 1.311
78.28000 3.247
78.30000 4.982
78.32000 7.662
78.34000 7.173
78.36000 6.209
78.38000 2.539
78.40000 3.581
78.42000 4.391
78.44000 2.811
78.46000 2.756
78.48000 4.785
78.50000 7.312
78.52000 3.503
78.54000 8.791
78.56000 10.115
78.58000 6.756
78.60000 7.836
78.62000 6.367
78.64000 6.216
78.66000 7.087
78.68000 10.588
78.70000 12.445
78.72000 10.111
78.74000 8.296
78.76000 11.044
78.78000 11.791
78.80000 14.548
78.82000 15.381
78.84000 14.844
78.86000 19.089
78.88000 18.850
78.90000 18.163
78.92000 17.644
78.94000 14.155
78.96000 15.288
78.98000 17.571
79.00000 19.901
79.02000 20.476
79.04000 18.384
79.06000 16.452
79.08000 18.074
79.10000 21.919
79.12000 21.389
79.14000 19.405
79.16000 21.224
79.18000 21.879
79.20000 18.535
79.22000 20.798
79.24000 19.587
79.26000 20.215
79.28000 23.006
79.30000 22.590
79.32000 21.053
79.34000 17.562
79.36000 19.762
79.38000 19.574
79.40000 20.163
79.42000 22.877
79.44000 20.281
79.46000 20.755
79.48000 18.668
79.50000 17.883
79.52000 19.350
79.54000 17.118
79.56000 17.034
79.58000 16.544
79.60000 14.975
79.62000 13.950
79.64000 13.466
79.66000 13.606
79.68000 11.998
79.70000 15.986
79.72000 16.371
79.74000 14.637
79.76000 12.980
79.78000 10.672
79.80000 10.277
79.82000 10.443
79.84000 9.471
79.86000 8.331
79.88000 7.550
79.90000 5.216
79.92000 6.395
79.94000 8.433
79.96000 11.151
79.98000 8.721
80.00000 8.382
80.02000 8.880
80.04000 6.814
80.06000 6.621
80.08000 8.828
80.10000 8.830
80.12000 4.513
80.14000 7.656
80.16000 6.708
80.18000 2.530
80.20000 0.978
80.22000 2.875
80.24000 3.547
80.26000 4.596
80.28000 3.999
80.30000 1.060
80.32000 -1.599
80.34000 4.843
80.36000 1.700
80.38000 -2.358
80.40000 0.581
80.42000 1.434
80.44000 4.433
80.46000 2.764
80.48000 1.711
80.50000 -0.151
80.52000 1.583
80.54000 1.217
80.56000 -1.213
80.58000 -1.473
80.60000 2.106
80.62000 2.406
80.64000 2.057
80.66000 2.592
80.68000 1.548
80.70000 -1.443
80.72000 0.859
80.74000 1.604
80.76000 -0.416
80.78000 0.390
80.80000 0.260
80.82000 1.056
80.84000 -0.831
80.86000 0.942
80.88000 1.321
80.90000 -0.337
80.92000 2.667
80.94000 2.395
80.96000 -0.366
80.98000 1.384
81.00000 -0.178
81.02000 1.774
81.04000 -0.733
81.06000 -0.821
81.08000 1.979
81.10000 2.854
81.12000 1.386
81.14000 -0.433
81.16000 -0.691
81.18000 1.036
81.20000 0.311
81.22000 -1.602
81.24000 1.036
81.26000 5.094
81.28000 4.299
81.30000 0.312
81.32000 -1.269
81.34000 -2.379
81.36000 0.715
81.38000 4.756
81.40000 4.345
81.42000 1.874
81.44000 0.561
81.46000 0.222
81.48000 5.298
81.50000 7.639
81.52000 0.350
81.54000 -1.060
81.56000 -0.755
81.58000 -2.385
81.60000 -0.076
81.62000 0.946
81.64000 4.566
81.66000 3.473
81.68000 0.515
81.70000 0.729
81.72000 1.453
81.74000 8.047
81.76000 9.601
81.78000 5.705
81.80000 1.972
81.82000 6.479
81.84000 13.347
81.86000 8.778
81.88000 7.644
81.90000 4.792
81.92000 9.795
81.94000 12.187
81.96000 15.117
81.98000 12.363
82.00000 8.075
82.02000 8.174
82.04000 10.549
82.06000 11.457
82.08000 8.661
82.10000 13.021
82.12000 13.618
82.14000 10.970
82.16000 11.706
82.18000 10.160
82.20000 9.171
82.22000 13.410
82.24000 12.530
82.26000 19.149
82.28000 13.986
82.30000 12.375
82.32000 12.430
82.34000 13.696
82.36000 17.907
82.38000 18.997
82.40000 20.382
82.42000 24.025
82.44000 19.772
82.46000 20.991
82.48000 19.392
82.50000 21.287
82.52000 20.868
82.54000 21.682
82.56000 29.385
82.58000 32.328
82.60000 29.414
82.62000 30.870
82.64000 36.798
82.66000 36.409
82.68000 38.422
82.70000 41.920
82.72000 38.933
82.74000 34.452
82.76000 36.418
82.78000 44.964
82.80000 48.713
82.82000 50.205
82.84000 53.048
82.86000 51.553
82.88000 50.766
82.90000 55.787
82.92000 60.772
82.94000 62.879
82.96000 70.284
82.98000 70.855
83.00000 72.230
83.02000 75.960
83.04000 76.851
83.06000 78.402
83.08000 86.420
83.10000 88.490
83.12000 87.741
83.14000 86.805
83.16000 88.040
83.18000 92.158
83.20000 97.403
83.22000 94.843
83.24000 98.129
83.26000 102.464
83.28000 101.858
83.30000 102.592
83.32000 106.294
83.34000 101.657
83.36000 101.742
83.38000 100.464
83.40000 98.232
83.42000 100.436
83.44000 102.432
83.46000 103.363
83.48000 92.024
83.50000 95.692
83.52000 96.820
83.54000 90.133
83.56000 95.349
83.58000 93.230
83.60000 84.636
83.62000 79.033
83.64000 80.118
83.66000 81.226
83.68000 81.960
83.70000 72.756
83.72000 66.739
83.74000 66.039
83.76000 67.478
83.78000 62.719
83.80000 61.738
83.82000 59.454
83.84000 53.016
83.86000 49.979
83.88000 49.557
83.90000 46.947
83.92000 43.679
83.94000 40.548
83.96000 41.884
83.98000 41.414
84.00000 38.099
84.02000 34.974
84.04000 29.395
84.06000 28.487
84.08000 28.035
84.10000 25.177
84.12000 23.388
84.14000 24.217
84.16000 24.892
84.18000 23.739
84.20000 19.121
84.22000 16.039
84.24000 14.873
84.26000 13.421
84.28000 14.292
84.30000 12.696
84.32000 11.225
84.34000 8.286
84.36000 11.627
84.38000 7.769
84.40000 8.135
84.42000 10.143
84.44000 13.598
84.46000 9.869
84.48000 5.831
84.50000 5.014
84.52000 5.061
84.54000 5.291
84.56000 5.036
84.58000 1.917
84.60000 1.091
84.62000 1.710
84.64000 4.221
84.66000 0.643
84.68000 1.360
84.70000 3.036
84.72000 0.115
84.74000 3.457
84.76000 2.712
84.78000 2.362
84.80000 2.721
84.82000 0.713
84.84000 -0.537
84.86000 4.114
84.88000 3.826
84.90000 2.297
84.92000 4.211
84.94000 3.436
84.96000 4.715
84.98000 5.236
85.00000 0.864
85.02000 3.126
85.04000 2.341
85.06000 1.556
85.08000 -0.402
85.10000 -1.608
85.12000 -1.270
85.14000 -1.720
85.16000 -1.122
85.18000 -1.431
85.20000 2.396
85.22000 0.648
85.24000 -1.236
85.26000 1.641
85.28000 1.513
85.30000 3.275
85.32000 1.761
85.34000 -1.659
85.36000 -0.699
85.38000 -0.427
85.40000 0.572
85.42000 -1.718
85.44000 0.886
85.46000 4.753
85.48000 4.307
85.50000 2.014
85.52000 3.852
85.54000 3.323
85.56000 2.895
85.58000 -0.952
85.60000 -2.078
85.62000 2.178
85.64000 1.406
85.66000 1.269
85.68000 0.916
85.70000 -1.880
85.72000 0.257
85.74000 3.535
85.76000 2.658
85.78000 2.164
85.80000 0.787
85.82000 -0.557
85.84000 -2.050
85.86000 -0.735
85.88000 0.928
85.90000 1.905
85.92000 1.868
85.94000 4.042
85.96000 1.430
85.98000 1.347
86.00000 1.225
86.02000 1.732
86.04000 3.040
86.06000 5.480
86.08000 5.251
86.10000 4.172
86.12000 2.915
86.14000 0.391
86.16000 2.805
86.18000 1.662
86.20000 0.601
86.22000 4.544
86.24000 6.767
86.26000 2.900
86.28000 4.170
86.30000 -0.337
86.32000 -2.009
86.34000 -1.388
86.36000 0.147
86.38000 3.333
86.40000 1.480
86.42000 1.292
86.44000 5.401
86.46000 5.403
86.48000 3.940
86.50000 4.760
86.52000 5.377
86.54000 5.974
86.56000 2.337
86.58000 -0.549
86.60000 -0.488
86.62000 -0.262
86.64000 1.486
86.66000 1.971
86.68000 0.442
86.70000 1.945
86.72000 0.288
86.74000 0.489
86.76000 2.634
86.78000 5.096
86.80000 3.128
86.82000 1.464
86.84000 -1.960
86.86000 0.547
86.88000 3.779
86.90000 4.358
86.92000 3.721
86.94000 2.489
86.96000 2.307
86.98000 3.458
87.00000 8.341
87.02000 5.313
87.04000 3.852
87.06000 3.260
87.08000 2.985
87.10000 2.167
87.12000 2.413
87.14000 4.993
87.16000 4.427
87.18000 4.351
87.20000 6.181
87.22000 1.365
87.24000 2.459
87.26000 1.805
87.28000 3.510
87.30000 1.398
87.32000 2.017
87.34000 2.596
87.36000 1.415
87.38000 3.518
87.40000 4.725
87.42000 4.213
87.44000 -1.956
87.46000 -0.716
87.48000 0.315
87.50000 1.962
87.52000 4.699
87.54000 3.623
87.56000 0.615
87.58000 3.315
87.60000 2.638
87.62000 2.199
87.64000 4.243
87.66000 4.684
87.68000 2.252
87.70000 2.611
87.72000 4.528
87.74000 1.566
87.76000 3.498
87.78000 4.970
87.80000 2.203
87.82000 2.603
87.84000 3.492
87.86000 2.283
87.88000 2.078
87.90000 2.191
87.92000 2.894
87.94000 2.196
87.96000 1.302
87.98000 0.996
88.00000 3.446
88.02000 1.724
88.04000 2.340
88.06000 -0.044
88.08000 0.945
88.10000 2.307
88.12000 4.908
88.14000 1.567
88.16000 2.544
88.18000 2.353
88.20000 5.221
88.22000 3.797
88.24000 -0.961
88.26000 -0.094
88.28000 1.026
88.30000 4.772
88.32000 5.438
88.34000 1.824
88.36000 -0.960
88.38000 -0.035
88.40000 3.193
88.42000 0.722
88.44000 2.798
88.46000 2.685
88.48000 1.464
88.50000 -1.909
88.52000 1.091
88.54000 3.166
88.56000 2.377
88.58000 2.987
88.60000 1.988
88.62000 1.616
88.64000 -0.823
88.66000 2.226
88.68000 0.646
88.70000 2.181
88.72000 0.387
88.74000 2.189
88.76000 4.925
88.78000 5.119
88.80000 5.005
88.82000 4.315
88.84000 5.810
88.86000 5.085
88.88000 -0.099
88.90000 -1.743
88.92000 -1.791
88.94000 -0.525
88.96000 -0.768
88.98000 0.348
89.00000 2.972
89.02000 3.003
89.04000 2.456
89.06000 1.287
89.08000 7.888
89.10000 4.269
89.12000 1.550
89.14000 0.828
89.16000 1.507
89.18000 1.568
89.20000 1.280
89.22000 0.804
89.24000 -0.072
89.26000 0.995
89.28000 1.712
89.30000 -0.205
89.32000 -0.967
89.34000 0.085
89.36000 3.630
89.38000 3.821
89.40000 5.668
89.42000 4.323
89.44000 3.587
89.46000 0.042
89.48000 -0.839
89.50000 2.428
89.52000 3.206
89.54000 2.383
89.56000 2.696
89.58000 1.217
89.60000 3.814
89.62000 5.949
89.64000 2.841
89.66000 3.271
89.68000 3.260
89.70000 3.882
89.72000 2.003
89.74000 -1.920
89.76000 0.569
89.78000 3.336
89.80000 3.042
89.82000 2.610
89.84000 2.373
89.86000 2.519
89.88000 3.544
89.90000 0.262
89.92000 -1.200
89.94000 -0.650
89.96000 1.657
89.98000 2.051
90.00000 0.462
90.02000 0.977
90.04000 3.544
90.06000 3.890
90.08000 4.404
90.10000 2.331
90.12000 4.195
90.14000 1.501
90.16000 2.980
90.18000 3.745
90.20000 4.280
90.22000 1.230
90.24000 0.134
90.26000 2.079
90.28000 1.288
90.30000 2.026
90.32000 1.898
90.34000 2.719
90.36000 4.165
90.38000 7.106
90.40000 5.300
90.42000 1.639
90.44000 2.044
90.46000 2.945
90.48000 6.772
90.50000 7.851
90.52000 4.311
90.54000 4.912
90.56000 2.599
90.58000 3.047
90.60000 4.518
90.62000 4.798
90.64000 4.042
90.66000 3.712
90.68000 5.258
90.70000 1.305
90.72000 -1.905
90.74000 0.718
90.76000 3.812
90.78000 3.830
90.80000 5.235
90.82000 4.281
90.84000 -0.997
90.86000 3.376
90.88000 2.408
90.90000 0.952
90.92000 3.895
90.94000 5.237
90.96000 3.745
90.98000 5.066
91.00000 4.854
91.02000 3.505
91.04000 6.602
91.06000 4.007
91.08000 3.486
91.10000 4.116
91.12000 1.409
91.14000 -1.885
91.16000 1.766
91.18000 8.751
91.20000 9.103
91.22000 3.108
91.24000 4.853
91.26000 10.488
91.28000 5.769
91.30000 0.167
91.32000 2.761
91.34000 3.254
91.36000 3.612
91.38000 5.171
91.40000 1.501
91.42000 -0.932
91.44000 2.881
91.46000 5.259
91.48000 2.320
91.50000 3.910
91.52000 2.843
91.54000 3.400
91.56000 1.524
91.58000 1.004
91.60000 1.167
91.62000 2.442
91.64000 1.976
91.66000 3.054
91.68000 2.322
91.70000 5.134
91.72000 5.582
91.74000 1.511
91.76000 4.446
91.78000 3.710
91.80000 3.710
91.82000 3.467
91.84000 1.237
91.86000 3.496
91.88000 5.381
91.90000 4.339
91.92000 0.910
91.94000 1.433
91.96000 1.675
91.98000 1.459
92.00000 7.158
92.02000 6.018
92.04000 4.579
92.06000 2.901
92.08000 -0.389
92.10000 -1.914
92.12000 -0.537
92.14000 1.359
92.16000 5.178
92.18000 0.173
92.20000 2.254
92.22000 1.978
92.24000 1.039
92.26000 1.196
92.28000 0.077
92.30000 2.022
92.32000 1.338
92.34000 1.505
92.36000 2.581
92.38000 0.173
92.40000 -0.643
92.42000 2.014
92.44000 1.658
92.46000 2.743
92.48000 3.777
92.50000 0.251
92.52000 0.425
92.54000 3.231
92.56000 2.071
92.58000 0.556
92.60000 -1.013
92.62000 -0.661
92.64000 -0.777
92.66000 -1.857
92.68000 -1.787
92.70000 0.950
92.72000 2.328
92.74000 -1.141
92.76000 -0.791
92.78000 0.611
92.80000 1.218
92.82000 2.221
92.84000 4.121
92.86000 3.131
92.88000 1.137
92.90000 -0.470
92.92000 -1.651
92.94000 0.759
92.96000 1.725
92.98000 2.153
93.00000 2.169
93.02000 4.118
93.04000 5.231
93.06000 1.309
93.08000 2.382
93.10000 0.423
93.12000 1.377
93.14000 2.608
93.16000 1.384
93.18000 -1.933
93.20000 5.099
93.22000 9.329
93.24000 7.712
93.26000 3.790
93.28000 1.907
93.30000 0.286
93.32000 2.189
93.34000 3.524
93.36000 2.032
93.38000 -0.802
93.40000 -0.429
93.42000 2.658
93.44000 3.856
93.46000 2.942
93.48000 0.819
93.50000 2.289
93.52000 0.881
93.54000 0.844
93.56000 2.383
93.58000 2.078
93.60000 1.428
93.62000 2.525
93.64000 2.110
93.66000 0.608
93.68000 0.862
93.70000 0.000
93.72000 3.749
93.74000 4.719
93.76000 3.176
93.78000 -1.922
93.80000 3.705
93.82000 5.324
93.84000 0.787
93.86000 1.556
93.88000 2.629
93.90000 3.845
93.92000 5.560
93.94000 -0.593
93.96000 3.130
93.98000 1.859
94.00000 2.102
94.02000 2.551
94.04000 1.385
94.06000 0.097
94.08000 -0.651
94.10000 2.698
94.12000 5.387
94.14000 3.337
94.16000 4.150
94.18000 4.206
94.20000 2.967
94.22000 2.723
94.24000 2.748
94.26000 3.890
94.28000 0.232
94.30000 -0.298
94.32000 -0.353
94.34000 1.105
94.36000 3.537
94.38000 3.154
94.40000 0.229
94.42000 1.072
94.44000 3.120
94.46000 0.664
94.48000 -0.176
94.50000 0.156
94.52000 3.872
94.54000 4.369
94.56000 3.673
94.58000 1.379
94.60000 1.346
94.62000 -1.615
94.64000 1.053
94.66000 4.977
94.68000 2.171
94.70000 -0.533
94.72000 2.150
94.74000 1.382
94.76000 1.195
94.78000 2.411
94.80000 3.479
94.82000 0.909
94.84000 -0.594
94.86000 1.276
94.88000 0.128
94.90000 1.094
94.92000 0.289
94.94000 -0.145
94.96000 4.312
94.98000 5.926
95.00000 3.561
95.02000 5.527
95.04000 2.853
95.06000 4.423
95.08000 4.288
95.10000 2.664
95.12000 3.345
95.14000 -0.679
95.16000 -1.863
95.18000 -0.296
95.20000 0.619
95.22000 2.464
95.24000 -1.952
95.26000 1.218
95.28000 3.683
95.30000 1.224
95.32000 0.299
95.34000 -0.550
95.36000 -1.950
95.38000 1.058
95.40000 0.030
95.42000 0.949
95.44000 -0.218
95.46000 1.743
95.48000 4.322
95.50000 4.561
95.52000 5.478
95.54000 6.034
95.56000 5.934
95.58000 4.695
95.60000 5.263
95.62000 3.551
95.64000 6.136
95.66000 4.338
95.68000 6.757
95.70000 5.202
95.72000 3.371
95.74000 3.047
95.76000 5.222
95.78000 2.651
95.80000 7.324
95.82000 4.330
95.84000 3.755
95.86000 3.635
95.88000 1.941
95.90000 2.042
95.92000 -0.279
95.94000 0.334
95.96000 1.720
95.98000 -0.516
96.00000 1.564
96.02000 5.324
96.04000 2.946
96.06000 2.466
96.08000 2.982
96.10000 2.795
96.12000 1.224
96.14000 2.500
96.16000 5.300
96.18000 5.186
96.20000 4.943
96.22000 5.956
96.24000 5.550
96.26000 3.930
96.28000 4.492
96.30000 3.603
96.32000 1.525
96.34000 2.591
96.36000 0.338
96.38000 6.068
96.40000 5.833
96.42000 6.551
96.44000 4.093
96.46000 1.578
96.48000 0.510
96.50000 4.495
96.52000 5.387
96.54000 -1.907
96.56000 2.076
96.58000 5.260
96.60000 3.841
96.62000 7.424
96.64000 7.721
96.66000 4.587
96.68000 5.183
96.70000 6.787
96.72000 6.164
96.74000 3.554
96.76000 7.073
96.78000 5.541
96.80000 4.394
96.82000 3.717
96.84000 6.088
96.86000 0.907
96.88000 5.343
96.90000 5.474
96.92000 5.565
96.94000 1.375
96.96000 0.904
96.98000 5.977
97.00000 -0.620
97.02000 -1.886
97.04000 4.023
97.06000 2.847
97.08000 8.231
97.10000 0.117
97.12000 0.451
97.14000 2.448
97.16000 3.070
97.18000 0.617
97.20000 -1.357
97.22000 2.941
97.24000 8.693
97.26000 8.037
97.28000 0.950
97.30000 3.700
97.32000 -0.221
97.34000 5.085
97.36000 8.223
97.38000 9.889
97.40000 7.085
97.42000 7.552
97.44000 6.141
97.46000 6.037
97.48000 0.664
97.50000 4.500
97.52000 2.673
97.54000 5.835
97.56000 3.997
97.58000 0.839
97.60000 6.044
97.62000 6.494
97.64000 0.831
97.66000 5.372
97.68000 3.756
97.70000 6.822
97.72000 9.501
97.74000 5.486
97.76000 7.134
97.78000 4.617
97.80000 1.738
97.82000 6.281
97.84000 4.835
97.86000 7.075
97.88000 5.427
97.90000 4.658
97.92000 1.607
97.94000 -1.907
97.96000 3.143
97.98000 1.819
98.00000 5.200
98.02000 -0.692
98.04000 3.402
98.06000 3.119
98.08000 0.743
98.10000 3.963
98.12000 6.719
98.14000 0.102
98.16000 4.646
98.18000 0.200
98.20000 2.815
98.22000 1.558
98.24000 -1.662
98.26000 0.917
98.28000 -1.128
98.30000 1.026
98.32000 1.395
98.34000 5.927
98.36000 11.877
98.38000 9.043
98.40000 1.907
98.42000 -1.869
98.44000 -0.607
98.46000 6.574
98.48000 -0.041
98.50000 3.746
98.52000 7.866
98.54000 5.234
98.56000 5.363
98.58000 7.431
98.60000 4.616
98.62000 0.102
98.64000 2.612
98.66000 5.601
98.68000 2.735
98.70000 2.176
98.72000 3.385
98.74000 9.423
98.76000 5.728
98.78000 1.283
98.80000 0.841
98.82000 3.847
98.84000 3.393
98.86000 -1.885
98.88000 1.477
98.90000 5.887
98.92000 1.235
98.94000 7.071
98.96000 9.624
98.98000 1.303
99.00000 7.990
99.02000 4.237
99.04000 10.130
99.06000 11.119
99.08000 3.288
99.10000 7.251
99.12000 7.254
99.14000 9.262
99.16000 3.291
99.18000 4.166
99.20000 -2.219
99.22000 6.228
99.24000 7.582
99.26000 6.664
99.28000 9.273
99.30000 6.052
99.32000 3.397
99.34000 2.464
99.36000 1.648
99.38000 -1.539
99.40000 -1.921
99.42000 9.032
99.44000 4.954
99.46000 -0.804
99.48000 7.145
99.50000 2.723
99.52000 -0.207
99.54000 3.940
99.56000 -1.042
99.58000 -1.937
99.60000 4.763
99.62000 10.757
99.64000 8.680
99.66000 6.967
99.68000 2.318
99.70000 -0.202
99.72000 -1.804
99.74000 3.962
99.76000 6.415
99.78000 5.213
99.80000 4.662
99.82000 1.544
99.84000 10.056
99.86000 1.080
99.88000 3.332
99.90000 1.590
99.92000 0.630
99.94000 -1.969
99.96000 4.100
99.98000 0.000
