'Id: "0011388" Comment: "Integrate frame 0011388_Au-Ir-Rh_Rh-rich_XRD-Mapping-181-0000.gfrmwith cursor Wedge Cursor #5" Operator: "B?rgel" Anode: "Cu" Wavelength: "1.5406" Scantype: "2Theta (TwoTheta)" TimePerStep: "1" X: "-31.5" Y: "4.5" Z: "5.95" 
10.00000 0.000
10.02000 5.732
10.04000 0.316
10.06000 -0.948
10.08000 1.329
10.10000 -4.485
10.12000 0.674
10.14000 14.125
10.16000 12.616
10.18000 4.940
10.20000 2.654
10.22000 15.232
10.24000 27.081
10.26000 21.491
10.28000 21.392
10.30000 15.187
10.32000 6.292
10.34000 22.693
10.36000 27.315
10.38000 18.857
10.40000 4.947
10.42000 7.513
10.44000 18.759
10.46000 7.232
10.48000 1.329
10.50000 19.453
10.52000 16.506
10.54000 13.022
10.56000 14.187
10.58000 14.817
10.60000 14.137
10.62000 13.327
10.64000 28.885
10.66000 15.029
10.68000 25.639
10.70000 27.111
10.72000 37.754
10.74000 39.360
10.76000 24.984
10.78000 33.623
10.80000 30.010
10.82000 5.156
10.84000 -10.094
10.86000 16.359
10.88000 19.945
10.90000 24.345
10.92000 13.610
10.94000 25.362
10.96000 32.001
10.98000 24.530
11.00000 3.862
11.02000 1.603
11.04000 18.991
11.06000 19.737
11.08000 30.490
11.10000 30.943
11.12000 14.994
11.14000 2.842
11.16000 -1.773
11.18000 2.504
11.20000 22.238
11.22000 25.618
11.24000 21.176
11.26000 26.641
11.28000 14.293
11.30000 3.667
11.32000 -4.377
11.34000 3.104
11.36000 1.078
11.38000 16.275
11.40000 33.118
11.42000 20.631
11.44000 19.428
11.46000 22.829
11.48000 23.794
11.50000 17.657
11.52000 19.669
11.54000 27.248
11.56000 26.098
11.58000 21.458
11.60000 19.465
11.62000 18.712
11.64000 21.327
11.66000 20.230
11.68000 21.646
11.70000 19.838
11.72000 20.133
11.74000 12.605
11.76000 14.110
11.78000 9.176
11.80000 12.262
11.82000 17.255
11.84000 6.257
11.86000 12.438
11.88000 20.986
11.90000 20.910
11.92000 24.649
11.94000 24.678
11.96000 13.386
11.98000 20.993
12.00000 18.140
12.02000 12.405
12.04000 9.526
12.06000 4.659
12.08000 12.023
12.10000 26.484
12.12000 17.934
12.14000 14.127
12.16000 8.773
12.18000 12.362
12.20000 16.125
12.22000 6.589
12.24000 4.684
12.26000 5.980
12.28000 22.203
12.30000 30.813
12.32000 28.489
12.34000 13.969
12.36000 8.194
12.38000 10.030
12.40000 9.011
12.42000 10.980
12.44000 18.433
12.46000 14.235
12.48000 18.841
12.50000 18.183
12.52000 16.442
12.54000 10.697
12.56000 3.148
12.58000 11.756
12.60000 15.181
12.62000 13.101
12.64000 35.592
12.66000 36.002
12.68000 27.469
12.70000 9.480
12.72000 14.115
12.74000 12.959
12.76000 9.212
12.78000 6.021
12.80000 10.461
12.82000 5.776
12.84000 4.771
12.86000 11.401
12.88000 11.536
12.90000 11.347
12.92000 10.437
12.94000 9.592
12.96000 10.789
12.98000 20.585
13.00000 12.534
13.02000 17.755
13.04000 13.504
13.06000 16.978
13.08000 9.539
13.10000 0.424
13.12000 4.753
13.14000 21.210
13.16000 17.630
13.18000 12.195
13.20000 5.091
13.22000 10.922
13.24000 22.569
13.26000 28.124
13.28000 12.478
13.30000 12.863
13.32000 12.468
13.34000 17.107
13.36000 14.474
13.38000 21.752
13.40000 19.551
13.42000 10.682
13.44000 11.070
13.46000 16.592
13.48000 21.885
13.50000 9.896
13.52000 12.316
13.54000 18.895
13.56000 21.383
13.58000 20.553
13.60000 21.970
13.62000 17.342
13.64000 16.273
13.66000 16.052
13.68000 14.862
13.70000 17.639
13.72000 9.758
13.74000 13.911
13.76000 16.743
13.78000 26.395
13.80000 6.362
13.82000 -4.442
13.84000 5.076
13.86000 14.755
13.88000 21.576
13.90000 12.634
13.92000 20.428
13.94000 27.141
13.96000 18.302
13.98000 19.189
14.00000 16.778
14.02000 7.427
14.04000 7.303
14.06000 9.939
14.08000 12.552
14.10000 11.785
14.12000 11.586
14.14000 15.152
14.16000 13.260
14.18000 3.014
14.20000 5.747
14.22000 8.785
14.24000 5.556
14.26000 11.118
14.28000 19.587
14.30000 20.144
14.32000 10.119
14.34000 2.683
14.36000 4.918
14.38000 6.670
14.40000 10.454
14.42000 16.220
14.44000 9.734
14.46000 10.011
14.48000 4.900
14.50000 1.566
14.52000 2.943
14.54000 8.531
14.56000 15.318
14.58000 17.290
14.60000 5.059
14.62000 5.914
14.64000 7.014
14.66000 7.675
14.68000 5.974
14.70000 14.764
14.72000 13.011
14.74000 8.988
14.76000 4.210
14.78000 1.388
14.80000 4.275
14.82000 2.851
14.84000 -1.947
14.86000 11.026
14.88000 0.012
14.90000 7.116
14.92000 4.713
14.94000 5.772
14.96000 6.069
14.98000 9.748
15.00000 8.621
15.02000 14.598
15.04000 13.699
15.06000 10.636
15.08000 8.516
15.10000 9.267
15.12000 10.985
15.14000 6.692
15.16000 5.220
15.18000 6.144
15.20000 15.336
15.22000 13.200
15.24000 12.353
15.26000 8.750
15.28000 1.965
15.30000 4.710
15.32000 5.639
15.34000 1.928
15.36000 12.157
15.38000 12.381
15.40000 4.616
15.42000 7.171
15.44000 6.879
15.46000 9.483
15.48000 13.190
15.50000 6.683
15.52000 2.928
15.54000 9.033
15.56000 13.678
15.58000 7.294
15.60000 2.785
15.62000 1.067
15.64000 8.629
15.66000 11.278
15.68000 15.863
15.70000 13.454
15.72000 7.558
15.74000 4.988
15.76000 7.475
15.78000 13.440
15.80000 14.633
15.82000 11.102
15.84000 6.761
15.86000 13.932
15.88000 7.175
15.90000 8.686
15.92000 10.685
15.94000 -0.407
15.96000 1.011
15.98000 3.987
16.00000 7.132
16.02000 8.153
16.04000 17.554
16.06000 13.895
16.08000 7.846
16.10000 14.955
16.12000 12.652
16.14000 6.893
16.16000 13.517
16.18000 16.171
16.20000 9.665
16.22000 11.466
16.24000 13.278
16.26000 11.868
16.28000 8.952
16.30000 14.382
16.32000 6.412
16.34000 5.559
16.36000 5.011
16.38000 4.163
16.40000 1.883
16.42000 -4.401
16.44000 0.758
16.46000 5.085
16.48000 9.936
16.50000 10.396
16.52000 11.753
16.54000 6.986
16.56000 10.866
16.58000 0.331
16.60000 1.849
16.62000 8.579
16.64000 7.795
16.66000 9.451
16.68000 13.355
16.70000 10.222
16.72000 6.147
16.74000 7.897
16.76000 11.716
16.78000 10.187
16.80000 9.315
16.82000 6.986
16.84000 6.694
16.86000 2.023
16.88000 -1.973
16.90000 -1.259
16.92000 5.354
16.94000 11.967
16.96000 -2.259
16.98000 4.392
17.00000 12.990
17.02000 8.479
17.04000 5.960
17.06000 0.565
17.08000 5.451
17.10000 2.820
17.12000 6.801
17.14000 8.283
17.16000 3.350
17.18000 4.366
17.20000 5.573
17.22000 10.750
17.24000 7.677
17.26000 7.807
17.28000 5.347
17.30000 -0.685
17.32000 2.251
17.34000 1.005
17.36000 1.549
17.38000 1.151
17.40000 -2.050
17.42000 7.465
17.44000 10.843
17.46000 3.411
17.48000 0.588
17.50000 6.672
17.52000 8.266
17.54000 5.400
17.56000 3.393
17.58000 5.317
17.60000 -3.469
17.62000 -1.960
17.64000 5.997
17.66000 7.137
17.68000 2.748
17.70000 3.439
17.72000 4.352
17.74000 6.872
17.76000 10.976
17.78000 14.100
17.80000 2.952
17.82000 -2.473
17.84000 2.441
17.86000 3.054
17.88000 4.881
17.90000 5.317
17.92000 -4.347
17.94000 -3.086
17.96000 10.640
17.98000 5.351
18.00000 6.559
18.02000 2.754
18.04000 0.859
18.06000 2.167
18.08000 4.139
18.10000 5.486
18.12000 4.687
18.14000 8.758
18.16000 9.635
18.18000 4.322
18.20000 1.949
18.22000 0.037
18.24000 5.290
18.26000 2.366
18.28000 0.338
18.30000 5.667
18.32000 7.987
18.34000 2.719
18.36000 -0.787
18.38000 2.382
18.40000 5.043
18.42000 12.508
18.44000 7.503
18.46000 2.329
18.48000 6.205
18.50000 5.383
18.52000 5.869
18.54000 1.202
18.56000 -0.521
18.58000 0.565
18.60000 0.434
18.62000 3.415
18.64000 2.263
18.66000 5.315
18.68000 14.685
18.70000 7.473
18.72000 4.131
18.74000 9.505
18.76000 11.369
18.78000 8.142
18.80000 6.217
18.82000 10.547
18.84000 5.019
18.86000 6.968
18.88000 4.587
18.90000 1.542
18.92000 5.233
18.94000 4.366
18.96000 -1.836
18.98000 3.457
19.00000 8.119
19.02000 10.362
19.04000 11.154
19.06000 7.206
19.08000 3.451
19.10000 3.561
19.12000 5.965
19.14000 4.448
19.16000 6.451
19.18000 13.792
19.20000 8.563
19.22000 2.472
19.24000 -1.588
19.26000 -2.090
19.28000 0.634
19.30000 -4.238
19.32000 1.149
19.34000 4.193
19.36000 2.808
19.38000 9.024
19.40000 6.851
19.42000 -1.027
19.44000 -4.257
19.46000 2.369
19.48000 7.277
19.50000 5.125
19.52000 5.468
19.54000 9.600
19.56000 14.735
19.58000 11.350
19.60000 5.609
19.62000 5.194
19.64000 4.808
19.66000 0.099
19.68000 6.166
19.70000 4.884
19.72000 -1.890
19.74000 0.210
19.76000 9.085
19.78000 6.848
19.80000 6.965
19.82000 4.542
19.84000 6.822
19.86000 7.699
19.88000 9.334
19.90000 10.209
19.92000 8.263
19.94000 9.237
19.96000 10.440
19.98000 11.264
20.00000 12.406
20.02000 16.532
20.04000 13.934
20.06000 9.632
20.08000 6.531
20.10000 6.578
20.12000 9.223
20.14000 2.823
20.16000 2.858
20.18000 -4.192
20.20000 4.787
20.22000 8.933
20.24000 10.076
20.26000 9.361
20.28000 3.553
20.30000 9.502
20.32000 14.932
20.34000 11.949
20.36000 11.858
20.38000 12.647
20.40000 14.154
20.42000 11.544
20.44000 8.040
20.46000 3.533
20.48000 -0.151
20.50000 8.040
20.52000 10.974
20.54000 5.705
20.56000 13.381
20.58000 9.952
20.60000 2.802
20.62000 1.506
20.64000 0.468
20.66000 2.751
20.68000 3.828
20.70000 7.836
20.72000 4.170
20.74000 -0.484
20.76000 7.752
20.78000 8.794
20.80000 -4.170
20.82000 -1.756
20.84000 4.738
20.86000 1.723
20.88000 2.550
20.90000 7.094
20.92000 8.056
20.94000 3.859
20.96000 10.337
20.98000 3.672
21.00000 9.365
21.02000 10.472
21.04000 10.537
21.06000 12.026
21.08000 8.089
21.10000 10.123
21.12000 6.592
21.14000 5.939
21.16000 6.452
21.18000 10.671
21.20000 12.057
21.22000 6.786
21.24000 2.053
21.26000 0.239
21.28000 5.292
21.30000 2.450
21.32000 -1.251
21.34000 -1.664
21.36000 1.253
21.38000 7.911
21.40000 9.806
21.42000 8.060
21.44000 10.389
21.46000 9.836
21.48000 8.404
21.50000 7.592
21.52000 3.083
21.54000 3.197
21.56000 7.088
21.58000 5.602
21.60000 0.575
21.62000 4.704
21.64000 6.205
21.66000 2.940
21.68000 4.832
21.70000 4.901
21.72000 3.199
21.74000 3.664
21.76000 1.796
21.78000 1.096
21.80000 5.008
21.82000 2.433
21.84000 -1.412
21.86000 5.534
21.88000 8.852
21.90000 7.618
21.92000 0.429
21.94000 3.148
21.96000 4.339
21.98000 11.967
22.00000 2.642
22.02000 2.138
22.04000 2.346
22.06000 6.906
22.08000 8.959
22.10000 3.668
22.12000 -0.973
22.14000 -2.751
22.16000 5.178
22.18000 5.018
22.20000 6.477
22.22000 5.673
22.24000 1.433
22.26000 1.328
22.28000 1.783
22.30000 5.082
22.32000 7.744
22.34000 7.580
22.36000 10.729
22.38000 8.594
22.40000 4.097
22.42000 3.977
22.44000 10.823
22.46000 10.113
22.48000 2.526
22.50000 1.546
22.52000 1.835
22.54000 5.372
22.56000 -0.277
22.58000 1.297
22.60000 -0.332
22.62000 -0.905
22.64000 -0.507
22.66000 -4.070
22.68000 1.947
22.70000 5.856
22.72000 3.230
22.74000 9.307
22.76000 11.013
22.78000 2.247
22.80000 1.211
22.82000 -0.959
22.84000 2.885
22.86000 1.675
22.88000 4.994
22.90000 7.129
22.92000 10.409
22.94000 6.714
22.96000 2.232
22.98000 1.128
23.00000 4.021
23.02000 4.600
23.04000 3.053
23.06000 4.425
23.08000 1.630
23.10000 2.807
23.12000 -0.251
23.14000 4.874
23.16000 6.562
23.18000 2.422
23.20000 1.356
23.22000 3.808
23.24000 4.881
23.26000 8.170
23.28000 7.058
23.30000 3.506
23.32000 3.868
23.34000 -0.272
23.36000 -0.411
23.38000 1.635
23.40000 -1.495
23.42000 -0.352
23.44000 2.748
23.46000 2.136
23.48000 0.602
23.50000 2.494
23.52000 6.855
23.54000 7.253
23.56000 8.765
23.58000 7.491
23.60000 9.606
23.62000 7.469
23.64000 6.800
23.66000 6.338
23.68000 10.238
23.70000 10.298
23.72000 4.717
23.74000 8.185
23.76000 6.762
23.78000 7.828
23.80000 9.674
23.82000 5.080
23.84000 12.104
23.86000 8.640
23.88000 -3.972
23.90000 0.356
23.92000 8.803
23.94000 6.188
23.96000 5.786
23.98000 13.477
24.00000 7.008
24.02000 5.640
24.04000 3.710
24.06000 2.426
24.08000 7.650
24.10000 2.597
24.12000 5.643
24.14000 10.552
24.16000 7.013
24.18000 2.862
24.20000 7.519
24.22000 2.697
24.24000 2.048
24.26000 0.436
24.28000 4.904
24.30000 4.161
24.32000 3.121
24.34000 7.844
24.36000 4.892
24.38000 2.627
24.40000 3.821
24.42000 5.037
24.44000 1.738
24.46000 3.693
24.48000 6.396
24.50000 1.295
24.52000 2.570
24.54000 8.650
24.56000 4.139
24.58000 4.510
24.60000 9.324
24.62000 7.503
24.64000 8.122
24.66000 3.465
24.68000 1.098
24.70000 5.739
24.72000 5.208
24.74000 3.897
24.76000 3.314
24.78000 3.066
24.80000 -2.105
24.82000 4.347
24.84000 10.828
24.86000 3.457
24.88000 2.312
24.90000 4.963
24.92000 -0.069
24.94000 -2.404
24.96000 1.522
24.98000 -1.552
25.00000 -1.485
25.02000 6.990
25.04000 3.788
25.06000 -0.308
25.08000 1.734
25.10000 3.494
25.12000 8.352
25.14000 7.457
25.16000 1.649
25.18000 1.435
25.20000 1.757
25.22000 1.071
25.24000 3.932
25.26000 0.133
25.28000 2.367
25.30000 1.720
25.32000 1.517
25.34000 2.682
25.36000 7.198
25.38000 3.744
25.40000 2.273
25.42000 5.675
25.44000 -0.146
25.46000 1.155
25.48000 3.461
25.50000 5.742
25.52000 0.367
25.54000 -1.898
25.56000 0.617
25.58000 -0.816
25.60000 7.732
25.62000 5.448
25.64000 3.060
25.66000 2.581
25.68000 3.547
25.70000 3.319
25.72000 3.359
25.74000 1.557
25.76000 1.498
25.78000 0.708
25.80000 0.637
25.82000 3.738
25.84000 3.671
25.86000 0.203
25.88000 -1.518
25.90000 1.849
25.92000 0.709
25.94000 5.175
25.96000 4.825
25.98000 2.576
26.00000 2.581
26.02000 0.385
26.04000 -1.247
26.06000 -2.315
26.08000 1.849
26.10000 5.027
26.12000 1.036
26.14000 0.708
26.16000 2.197
26.18000 3.274
26.20000 6.303
26.22000 5.855
26.24000 4.633
26.26000 3.398
26.28000 2.892
26.30000 4.797
26.32000 3.103
26.34000 2.888
26.36000 2.077
26.38000 5.971
26.40000 0.370
26.42000 4.142
26.44000 5.565
26.46000 5.756
26.48000 -3.863
26.50000 -2.162
26.52000 -2.857
26.54000 0.614
26.56000 0.478
26.58000 1.211
26.60000 8.367
26.62000 6.095
26.64000 2.175
26.66000 4.256
26.68000 5.996
26.70000 6.232
26.72000 3.447
26.74000 1.029
26.76000 0.489
26.78000 3.343
26.80000 0.029
26.82000 -0.427
26.84000 2.439
26.86000 0.849
26.88000 -1.271
26.90000 5.261
26.92000 6.129
26.94000 2.083
26.96000 3.008
26.98000 5.391
27.00000 6.667
27.02000 8.907
27.04000 5.946
27.06000 2.264
27.08000 2.451
27.10000 5.130
27.12000 3.672
27.14000 1.081
27.16000 1.933
27.18000 3.223
27.20000 -0.020
27.22000 2.001
27.24000 6.998
27.26000 9.221
27.28000 3.500
27.30000 4.244
27.32000 3.105
27.34000 3.043
27.36000 6.847
27.38000 6.747
27.40000 3.658
27.42000 1.163
27.44000 -1.874
27.46000 -2.949
27.48000 -2.392
27.50000 2.380
27.52000 1.891
27.54000 3.858
27.56000 3.899
27.58000 7.267
27.60000 3.904
27.62000 -2.599
27.64000 -0.938
27.66000 0.799
27.68000 -0.865
27.70000 3.509
27.72000 4.967
27.74000 4.157
27.76000 3.318
27.78000 4.434
27.80000 6.723
27.82000 6.397
27.84000 5.232
27.86000 7.669
27.88000 5.256
27.90000 2.850
27.92000 1.325
27.94000 5.032
27.96000 7.547
27.98000 7.262
28.00000 3.350
28.02000 -3.389
28.04000 -0.269
28.06000 5.523
28.08000 5.335
28.10000 3.603
28.12000 0.970
28.14000 -2.258
28.16000 -2.658
28.18000 5.319
28.20000 1.517
28.22000 -3.772
28.24000 -2.981
28.26000 0.981
28.28000 2.927
28.30000 1.542
28.32000 2.269
28.34000 -0.159
28.36000 -3.749
28.38000 1.092
28.40000 6.870
28.42000 3.029
28.44000 0.338
28.46000 3.399
28.48000 6.023
28.50000 5.043
28.52000 3.644
28.54000 5.347
28.56000 1.382
28.58000 4.256
28.60000 6.812
28.62000 0.247
28.64000 -1.582
28.66000 0.354
28.68000 5.391
28.70000 3.797
28.72000 5.005
28.74000 1.932
28.76000 -0.253
28.78000 0.935
28.80000 -2.731
28.82000 0.112
28.84000 1.511
28.86000 -2.984
28.88000 2.657
28.90000 0.802
28.92000 1.865
28.94000 5.261
28.96000 3.067
28.98000 1.759
29.00000 3.150
29.02000 7.297
29.04000 7.042
29.06000 -0.099
29.08000 -3.734
29.10000 -3.044
29.12000 5.310
29.14000 1.247
29.16000 -1.741
29.18000 2.361
29.20000 5.659
29.22000 2.372
29.24000 -2.032
29.26000 1.972
29.28000 -2.477
29.30000 -3.728
29.32000 5.018
29.34000 8.813
29.36000 2.795
29.38000 6.002
29.40000 4.079
29.42000 2.528
29.44000 3.822
29.46000 3.094
29.48000 5.770
29.50000 3.360
29.52000 -0.242
29.54000 0.853
29.56000 3.820
29.58000 2.258
29.60000 0.294
29.62000 0.172
29.64000 1.015
29.66000 0.737
29.68000 -3.067
29.70000 -1.058
29.72000 2.030
29.74000 4.774
29.76000 2.969
29.78000 1.466
29.80000 -1.334
29.82000 -0.122
29.84000 0.969
29.86000 5.370
29.88000 5.739
29.90000 4.101
29.92000 1.085
29.94000 -0.681
29.96000 1.150
29.98000 4.187
30.00000 3.213
30.02000 -1.320
30.04000 0.711
30.06000 1.764
30.08000 5.830
30.10000 1.177
30.12000 -0.443
30.14000 -1.464
30.16000 2.464
30.18000 -1.047
30.20000 0.305
30.22000 1.932
30.24000 4.135
30.26000 4.468
30.28000 3.142
30.30000 2.628
30.32000 0.722
30.34000 2.942
30.36000 4.127
30.38000 3.728
30.40000 5.448
30.42000 5.727
30.44000 1.663
30.46000 2.750
30.48000 1.110
30.50000 -2.567
30.52000 -3.661
30.54000 2.808
30.56000 4.760
30.58000 7.013
30.60000 8.013
30.62000 2.936
30.64000 4.377
30.66000 0.565
30.68000 0.091
30.70000 3.598
30.72000 5.566
30.74000 3.657
30.76000 1.124
30.78000 3.971
30.80000 3.470
30.82000 4.895
30.84000 6.495
30.86000 4.712
30.88000 3.881
30.90000 3.107
30.92000 -2.934
30.94000 -2.934
30.96000 0.035
30.98000 6.125
31.00000 5.536
31.02000 3.646
31.04000 3.747
31.06000 1.331
31.08000 0.911
31.10000 5.006
31.12000 4.513
31.14000 4.819
31.16000 1.910
31.18000 2.267
31.20000 6.152
31.22000 3.092
31.24000 1.987
31.26000 3.550
31.28000 3.120
31.30000 5.513
31.32000 0.771
31.34000 -3.102
31.36000 -3.629
31.38000 -1.321
31.40000 3.630
31.42000 2.809
31.44000 0.655
31.46000 2.771
31.48000 3.273
31.50000 1.036
31.52000 0.141
31.54000 2.298
31.56000 5.579
31.58000 3.037
31.60000 -1.151
31.62000 -0.716
31.64000 4.256
31.66000 3.993
31.68000 2.785
31.70000 6.279
31.72000 6.679
31.74000 4.306
31.76000 3.540
31.78000 5.142
31.80000 2.288
31.82000 2.443
31.84000 2.111
31.86000 -3.605
31.88000 1.109
31.90000 4.658
31.92000 2.215
31.94000 4.257
31.96000 7.775
31.98000 4.817
32.00000 4.147
32.02000 -0.875
32.04000 0.500
32.06000 5.197
32.08000 6.790
32.10000 5.547
32.12000 8.118
32.14000 5.154
32.16000 2.425
32.18000 5.453
32.20000 3.149
32.22000 -3.595
32.24000 -2.886
32.26000 1.507
32.28000 3.236
32.30000 0.726
32.32000 0.479
32.34000 -0.026
32.36000 4.187
32.38000 1.503
32.40000 -3.594
32.42000 -2.684
32.44000 1.964
32.46000 0.959
32.48000 3.731
32.50000 4.572
32.52000 0.020
32.54000 -2.274
32.56000 0.287
32.58000 2.951
32.60000 1.078
32.62000 10.907
32.64000 9.204
32.66000 3.881
32.68000 5.544
32.70000 3.601
32.72000 3.027
32.74000 3.959
32.76000 -0.091
32.78000 2.213
32.80000 1.558
32.82000 -1.261
32.84000 -1.749
32.86000 -1.831
32.88000 -1.792
32.90000 -1.177
32.92000 0.573
32.94000 2.797
32.96000 -0.655
32.98000 -3.600
33.00000 0.747
33.02000 0.590
33.04000 2.896
33.06000 7.831
33.08000 5.949
33.10000 3.346
33.12000 2.639
33.14000 1.408
33.16000 0.359
33.18000 -0.045
33.20000 -0.338
33.22000 2.527
33.24000 4.797
33.26000 1.208
33.28000 4.459
33.30000 4.605
33.32000 7.250
33.34000 8.323
33.36000 4.110
33.38000 1.796
33.40000 1.244
33.42000 -0.978
33.44000 5.849
33.46000 4.680
33.48000 0.895
33.50000 1.770
33.52000 -0.427
33.54000 -2.608
33.56000 3.861
33.58000 2.868
33.60000 2.794
33.62000 1.476
33.64000 -1.926
33.66000 2.730
33.68000 2.016
33.70000 3.830
33.72000 5.489
33.74000 2.440
33.76000 1.578
33.78000 6.536
33.80000 1.778
33.82000 2.509
33.84000 2.339
33.86000 1.678
33.88000 3.915
33.90000 10.582
33.92000 7.588
33.94000 6.997
33.96000 6.297
33.98000 5.429
34.00000 3.263
34.02000 2.283
34.04000 4.018
34.06000 2.454
34.08000 -0.833
34.10000 1.010
34.12000 3.116
34.14000 3.406
34.16000 4.567
34.18000 4.252
34.20000 5.441
34.22000 2.881
34.24000 3.170
34.26000 1.820
34.28000 5.993
34.30000 2.103
34.32000 3.594
34.34000 6.704
34.36000 7.511
34.38000 3.707
34.40000 4.734
34.42000 4.206
34.44000 6.825
34.46000 11.170
34.48000 13.101
34.50000 3.442
34.52000 2.715
34.54000 3.895
34.56000 7.353
34.58000 0.787
34.60000 -0.246
34.62000 2.581
34.64000 4.844
34.66000 2.748
34.68000 1.486
34.70000 -1.303
34.72000 1.587
34.74000 0.637
34.76000 0.989
34.78000 -0.698
34.80000 4.409
34.82000 6.571
34.84000 7.729
34.86000 5.290
34.88000 3.643
34.90000 3.974
34.92000 5.026
34.94000 3.839
34.96000 -3.498
34.98000 -3.489
35.00000 -0.105
35.02000 1.153
35.04000 2.391
35.06000 4.826
35.08000 5.096
35.10000 6.513
35.12000 4.428
35.14000 1.319
35.16000 2.784
35.18000 4.496
35.20000 2.886
35.22000 -0.965
35.24000 3.389
35.26000 3.648
35.28000 2.821
35.30000 2.340
35.32000 6.743
35.34000 5.275
35.36000 5.150
35.38000 0.611
35.40000 5.534
35.42000 2.928
35.44000 1.969
35.46000 -0.435
35.48000 1.147
35.50000 3.704
35.52000 1.962
35.54000 1.480
35.56000 -0.050
35.58000 -1.272
35.60000 1.600
35.62000 5.299
35.64000 4.492
35.66000 2.504
35.68000 5.960
35.70000 3.353
35.72000 3.719
35.74000 2.411
35.76000 2.326
35.78000 1.652
35.80000 4.014
35.82000 4.904
35.84000 2.400
35.86000 -0.713
35.88000 -1.300
35.90000 -3.190
35.92000 -0.173
35.94000 3.975
35.96000 1.295
35.98000 1.782
36.00000 -0.343
36.02000 4.247
36.04000 3.046
36.06000 0.713
36.08000 0.064
36.10000 -2.415
36.12000 2.400
36.14000 8.367
36.16000 8.817
36.18000 5.811
36.20000 8.375
36.22000 5.617
36.24000 2.002
36.26000 1.389
36.28000 2.288
36.30000 1.544
36.32000 4.277
36.34000 5.697
36.36000 9.167
36.38000 7.077
36.40000 3.956
36.42000 4.493
36.44000 4.663
36.46000 3.880
36.48000 6.706
36.50000 5.565
36.52000 2.057
36.54000 1.161
36.56000 7.984
36.58000 8.778
36.60000 -0.074
36.62000 8.560
36.64000 6.687
36.66000 3.850
36.68000 5.408
36.70000 3.211
36.72000 1.528
36.74000 -1.209
36.76000 -3.529
36.78000 -1.532
36.80000 0.937
36.82000 0.610
36.84000 4.036
36.86000 1.677
36.88000 2.906
36.90000 6.158
36.92000 5.938
36.94000 9.037
36.96000 12.331
36.98000 10.241
37.00000 5.923
37.02000 6.042
37.04000 7.366
37.06000 7.125
37.08000 2.231
37.10000 2.756
37.12000 3.534
37.14000 0.545
37.16000 0.407
37.18000 1.497
37.20000 0.285
37.22000 2.534
37.24000 5.942
37.26000 4.839
37.28000 2.843
37.30000 3.442
37.32000 3.627
37.34000 -1.209
37.36000 -1.242
37.38000 -1.173
37.40000 -0.163
37.42000 3.378
37.44000 5.979
37.46000 1.267
37.48000 0.949
37.50000 1.777
37.52000 0.854
37.54000 6.412
37.56000 9.108
37.58000 5.644
37.60000 2.870
37.62000 6.585
37.64000 5.244
37.66000 2.551
37.68000 5.639
37.70000 3.987
37.72000 2.089
37.74000 6.213
37.76000 5.650
37.78000 4.671
37.80000 1.851
37.82000 3.000
37.84000 5.381
37.86000 10.025
37.88000 13.509
37.90000 10.460
37.92000 8.870
37.94000 9.916
37.96000 8.776
37.98000 8.280
38.00000 12.330
38.02000 13.861
38.04000 13.575
38.06000 12.747
38.08000 10.024
38.10000 7.744
38.12000 10.218
38.14000 14.485
38.16000 11.979
38.18000 13.870
38.20000 18.440
38.22000 15.559
38.24000 17.542
38.26000 19.477
38.28000 18.025
38.30000 16.403
38.32000 19.033
38.34000 20.242
38.36000 23.156
38.38000 25.119
38.40000 19.745
38.42000 17.657
38.44000 19.261
38.46000 23.586
38.48000 26.329
38.50000 27.802
38.52000 29.275
38.54000 30.476
38.56000 29.188
38.58000 26.112
38.60000 29.113
38.62000 34.835
38.64000 31.129
38.66000 28.618
38.68000 31.564
38.70000 35.441
38.72000 35.909
38.74000 32.925
38.76000 32.431
38.78000 36.641
38.80000 38.761
38.82000 40.768
38.84000 46.023
38.86000 44.549
38.88000 46.534
38.90000 48.402
38.92000 48.951
38.94000 54.298
38.96000 54.328
38.98000 57.659
39.00000 58.770
39.02000 60.055
39.04000 63.372
39.06000 61.824
39.08000 59.883
39.10000 65.168
39.12000 71.690
39.14000 77.292
39.16000 79.295
39.18000 81.607
39.20000 83.505
39.22000 83.163
39.24000 85.406
39.26000 90.986
39.28000 99.192
39.30000 103.068
39.32000 109.887
39.34000 112.958
39.36000 115.397
39.38000 120.361
39.40000 125.629
39.42000 136.949
39.44000 142.401
39.46000 144.430
39.48000 153.521
39.50000 165.038
39.52000 175.661
39.54000 189.659
39.56000 191.881
39.58000 195.217
39.60000 214.679
39.62000 222.954
39.64000 232.190
39.66000 239.963
39.68000 252.536
39.70000 264.011
39.72000 271.023
39.74000 291.888
39.76000 302.824
39.78000 317.609
39.80000 333.005
39.82000 346.750
39.84000 359.589
39.86000 374.468
39.88000 396.841
39.90000 420.360
39.92000 434.185
39.94000 452.496
39.96000 465.321
39.98000 484.683
40.00000 485.780
40.02000 491.756
40.04000 508.822
40.06000 531.692
40.08000 563.191
40.10000 570.803
40.12000 570.430
40.14000 584.861
40.16000 591.444
40.18000 591.889
40.20000 597.880
40.22000 607.560
40.24000 613.936
40.26000 619.068
40.28000 619.146
40.30000 618.035
40.32000 611.360
40.34000 596.285
40.36000 583.922
40.38000 586.645
40.40000 582.826
40.42000 569.817
40.44000 554.126
40.46000 534.357
40.48000 520.674
40.50000 513.286
40.52000 489.882
40.54000 470.896
40.56000 462.043
40.58000 446.642
40.60000 430.035
40.62000 404.747
40.64000 397.950
40.66000 380.415
40.68000 354.461
40.70000 334.350
40.72000 320.703
40.74000 305.295
40.76000 290.269
40.78000 281.115
40.80000 265.311
40.82000 254.177
40.84000 249.076
40.86000 233.522
40.88000 215.701
40.90000 202.441
40.92000 190.875
40.94000 178.219
40.96000 172.413
40.98000 167.494
41.00000 157.671
41.02000 146.983
41.04000 136.152
41.06000 126.641
41.08000 121.811
41.10000 115.719
41.12000 114.001
41.14000 109.411
41.16000 99.507
41.18000 95.148
41.20000 89.198
41.22000 86.084
41.24000 80.489
41.26000 76.552
41.28000 70.570
41.30000 66.485
41.32000 66.946
41.34000 70.748
41.36000 59.443
41.38000 53.219
41.40000 55.527
41.42000 54.200
41.44000 52.194
41.46000 45.809
41.48000 45.536
41.50000 41.719
41.52000 41.088
41.54000 37.406
41.56000 37.284
41.58000 36.167
41.60000 36.957
41.62000 35.791
41.64000 31.211
41.66000 30.372
41.68000 22.482
41.70000 20.604
41.72000 21.924
41.74000 20.066
41.76000 19.580
41.78000 20.376
41.80000 20.619
41.82000 20.091
41.84000 14.006
41.86000 17.035
41.88000 15.959
41.90000 8.364
41.92000 11.898
41.94000 13.066
41.96000 12.895
41.98000 13.080
42.00000 12.763
42.02000 12.956
42.04000 9.565
42.06000 9.051
42.08000 8.193
42.10000 13.100
42.12000 13.524
42.14000 11.057
42.16000 9.470
42.18000 11.555
42.20000 7.738
42.22000 8.192
42.24000 3.892
42.26000 3.712
42.28000 2.865
42.30000 5.082
42.32000 5.454
42.34000 4.932
42.36000 6.792
42.38000 6.330
42.40000 4.234
42.42000 4.754
42.44000 5.410
42.46000 3.266
42.48000 6.179
42.50000 8.421
42.52000 5.407
42.54000 8.526
42.56000 6.765
42.58000 5.435
42.60000 1.049
42.62000 3.366
42.64000 4.748
42.66000 2.147
42.68000 0.659
42.70000 3.203
42.72000 2.867
42.74000 3.169
42.76000 3.893
42.78000 7.389
42.80000 3.978
42.82000 -1.957
42.84000 1.795
42.86000 -2.503
42.88000 -2.305
42.90000 -3.521
42.92000 -1.268
42.94000 4.363
42.96000 3.662
42.98000 -0.099
43.00000 -1.959
43.02000 8.480
43.04000 7.324
43.06000 3.778
43.08000 0.410
43.10000 0.986
43.12000 3.853
43.14000 0.950
43.16000 -2.010
43.18000 -1.809
43.20000 0.499
43.22000 -0.199
43.24000 -0.816
43.26000 -0.492
43.28000 -1.624
43.30000 -1.958
43.32000 -3.499
43.34000 -2.796
43.36000 -3.000
43.38000 -0.413
43.40000 4.821
43.42000 4.410
43.44000 -1.748
43.46000 -1.506
43.48000 -1.456
43.50000 1.227
43.52000 3.396
43.54000 0.631
43.56000 -2.531
43.58000 1.098
43.60000 2.284
43.62000 0.076
43.64000 -2.412
43.66000 1.612
43.68000 2.712
43.70000 1.543
43.72000 -0.242
43.74000 1.154
43.76000 -3.479
43.78000 -3.366
43.80000 -1.772
43.82000 -2.779
43.84000 2.218
43.86000 -0.176
43.88000 -1.470
43.90000 -2.631
43.92000 -3.036
43.94000 -0.070
43.96000 3.751
43.98000 5.138
44.00000 2.945
44.02000 1.176
44.04000 1.513
44.06000 3.135
44.08000 1.500
44.10000 2.533
44.12000 2.800
44.14000 -0.435
44.16000 1.305
44.18000 -1.782
44.20000 0.273
44.22000 2.141
44.24000 1.859
44.26000 -0.371
44.28000 1.285
44.30000 0.830
44.32000 0.331
44.34000 1.317
44.36000 1.919
44.38000 1.552
44.40000 1.560
44.42000 -0.024
44.44000 2.081
44.46000 -3.126
44.48000 1.699
44.50000 -0.646
44.52000 7.445
44.54000 5.432
44.56000 1.525
44.58000 -3.473
44.60000 -2.185
44.62000 1.766
44.64000 2.670
44.66000 1.661
44.68000 6.441
44.70000 5.887
44.72000 6.846
44.74000 5.674
44.76000 5.643
44.78000 1.844
44.80000 2.312
44.82000 -0.449
44.84000 -0.809
44.86000 5.603
44.88000 7.776
44.90000 6.980
44.92000 4.654
44.94000 4.513
44.96000 8.676
44.98000 5.013
45.00000 7.603
45.02000 5.025
45.04000 -1.940
45.06000 1.539
45.08000 6.406
45.10000 6.948
45.12000 5.080
45.14000 6.118
45.16000 7.140
45.18000 6.064
45.20000 8.378
45.22000 8.621
45.24000 7.826
45.26000 4.029
45.28000 9.378
45.30000 14.956
45.32000 10.437
45.34000 10.647
45.36000 8.479
45.38000 10.435
45.40000 12.741
45.42000 14.218
45.44000 19.771
45.46000 19.878
45.48000 20.302
45.50000 17.507
45.52000 16.334
45.54000 17.668
45.56000 20.216
45.58000 14.775
45.60000 18.985
45.62000 18.417
45.64000 21.180
45.66000 17.409
45.68000 19.359
45.70000 21.784
45.72000 18.709
45.74000 17.965
45.76000 21.161
45.78000 27.208
45.80000 28.502
45.82000 29.873
45.84000 30.983
45.86000 29.485
45.88000 30.861
45.90000 33.835
45.92000 36.301
45.94000 34.223
45.96000 36.014
45.98000 43.275
46.00000 42.610
46.02000 38.000
46.04000 39.576
46.06000 43.304
46.08000 40.789
46.10000 39.811
46.12000 44.598
46.14000 51.558
46.16000 49.341
46.18000 49.290
46.20000 45.180
46.22000 54.317
46.24000 58.711
46.26000 57.050
46.28000 53.099
46.30000 54.241
46.32000 59.746
46.34000 60.792
46.36000 65.400
46.38000 66.369
46.40000 73.134
46.42000 65.640
46.44000 66.844
46.46000 66.156
46.48000 69.031
46.50000 79.910
46.52000 74.178
46.54000 77.046
46.56000 78.607
46.58000 81.373
46.60000 78.672
46.62000 80.189
46.64000 78.835
46.66000 80.653
46.68000 83.123
46.70000 77.482
46.72000 89.461
46.74000 90.309
46.76000 90.125
46.78000 84.319
46.80000 83.894
46.82000 78.740
46.84000 81.328
46.86000 87.489
46.88000 80.080
46.90000 85.651
46.92000 81.434
46.94000 81.875
46.96000 82.081
46.98000 84.038
47.00000 79.300
47.02000 78.056
47.04000 82.986
47.06000 80.909
47.08000 76.303
47.10000 79.293
47.12000 72.966
47.14000 78.678
47.16000 75.598
47.18000 74.889
47.20000 72.945
47.22000 69.282
47.24000 72.521
47.26000 69.503
47.28000 61.889
47.30000 60.842
47.32000 55.535
47.34000 56.514
47.36000 58.941
47.38000 58.798
47.40000 55.754
47.42000 54.942
47.44000 60.279
47.46000 51.819
47.48000 42.041
47.50000 43.320
47.52000 42.118
47.54000 48.394
47.56000 38.651
47.58000 36.307
47.60000 40.252
47.62000 39.942
47.64000 36.912
47.66000 35.824
47.68000 35.005
47.70000 27.327
47.72000 26.006
47.74000 29.687
47.76000 37.117
47.78000 30.047
47.80000 30.164
47.82000 25.555
47.84000 24.417
47.86000 21.508
47.88000 22.049
47.90000 24.597
47.92000 15.259
47.94000 15.303
47.96000 13.243
47.98000 14.050
48.00000 21.603
48.02000 15.774
48.04000 10.592
48.06000 11.480
48.08000 15.577
48.10000 13.504
48.12000 15.516
48.14000 13.297
48.16000 12.373
48.18000 9.304
48.20000 10.172
48.22000 10.570
48.24000 8.169
48.26000 4.658
48.28000 11.829
48.30000 6.240
48.32000 3.987
48.34000 6.233
48.36000 5.175
48.38000 5.594
48.40000 2.513
48.42000 4.649
48.44000 2.120
48.46000 3.310
48.48000 3.937
48.50000 -1.932
48.52000 7.846
48.54000 13.674
48.56000 9.072
48.58000 4.340
48.60000 0.346
48.62000 6.533
48.64000 1.920
48.66000 5.166
48.68000 4.695
48.70000 0.945
48.72000 4.114
48.74000 9.507
48.76000 6.361
48.78000 3.710
48.80000 1.731
48.82000 0.689
48.84000 -0.251
48.86000 -2.655
48.88000 -1.078
48.90000 1.225
48.92000 -3.133
48.94000 0.986
48.96000 4.740
48.98000 3.961
49.00000 5.418
49.02000 0.050
49.04000 1.936
49.06000 0.862
49.08000 0.966
49.10000 -0.225
49.12000 -1.925
49.14000 1.845
49.16000 4.252
49.18000 1.224
49.20000 -1.285
49.22000 2.358
49.24000 2.097
49.26000 4.414
49.28000 2.755
49.30000 1.007
49.32000 3.428
49.34000 2.039
49.36000 -0.593
49.38000 -2.726
49.40000 -0.777
49.42000 1.083
49.44000 -0.084
49.46000 -2.188
49.48000 2.507
49.50000 3.667
49.52000 4.857
49.54000 0.885
49.56000 1.446
49.58000 -1.712
49.60000 1.062
49.62000 -0.915
49.64000 1.151
49.66000 3.654
49.68000 4.212
49.70000 4.634
49.72000 6.797
49.74000 6.890
49.76000 6.137
49.78000 2.040
49.80000 1.510
49.82000 0.001
49.84000 -2.000
49.86000 3.853
49.88000 5.749
49.90000 4.259
49.92000 2.795
49.94000 4.185
49.96000 8.046
49.98000 4.390
50.00000 -0.055
50.02000 2.403
50.04000 1.721
50.06000 3.630
50.08000 1.795
50.10000 1.335
50.12000 3.392
50.14000 3.498
50.16000 -1.503
50.18000 0.007
50.20000 -0.310
50.22000 6.876
50.24000 8.421
50.26000 2.827
50.28000 1.983
50.30000 -2.913
50.32000 0.306
50.34000 3.034
50.36000 6.095
50.38000 7.332
50.40000 6.351
50.42000 12.543
50.44000 7.072
50.46000 5.269
50.48000 6.618
50.50000 9.291
50.52000 4.686
50.54000 5.935
50.56000 9.274
50.58000 6.175
50.60000 3.017
50.62000 8.520
50.64000 4.899
50.66000 1.776
50.68000 5.163
50.70000 5.909
50.72000 7.083
50.74000 0.409
50.76000 3.118
50.78000 3.536
50.80000 2.572
50.82000 7.233
50.84000 4.837
50.86000 4.937
50.88000 6.060
50.90000 4.980
50.92000 7.386
50.94000 5.657
50.96000 2.771
50.98000 0.614
51.00000 4.804
51.02000 4.168
51.04000 2.811
51.06000 1.909
51.08000 4.485
51.10000 7.142
51.12000 3.256
51.14000 -1.373
51.16000 -0.831
51.18000 2.864
51.20000 3.150
51.22000 2.764
51.24000 6.781
51.26000 0.368
51.28000 0.856
51.30000 7.068
51.32000 2.312
51.34000 3.641
51.36000 -2.902
51.38000 4.682
51.40000 3.412
51.42000 3.850
51.44000 5.734
51.46000 4.540
51.48000 9.306
51.50000 6.280
51.52000 8.726
51.54000 4.153
51.56000 3.758
51.58000 3.425
51.60000 2.230
51.62000 2.453
51.64000 3.010
51.66000 7.333
51.68000 5.219
51.70000 5.248
51.72000 3.502
51.74000 2.711
51.76000 4.274
51.78000 4.957
51.80000 4.303
51.82000 4.907
51.84000 1.709
51.86000 5.569
51.88000 5.505
51.90000 0.601
51.92000 -2.872
51.94000 0.058
51.96000 3.425
51.98000 -1.846
52.00000 1.162
52.02000 4.735
52.04000 6.397
52.06000 10.489
52.08000 5.415
52.10000 0.020
52.12000 4.113
52.14000 10.446
52.16000 8.855
52.18000 10.089
52.20000 4.703
52.22000 4.575
52.24000 3.280
52.26000 3.122
52.28000 2.903
52.30000 3.590
52.32000 -0.570
52.34000 -0.058
52.36000 2.331
52.38000 3.156
52.40000 1.058
52.42000 2.215
52.44000 -0.111
52.46000 3.885
52.48000 1.085
52.50000 0.488
52.52000 0.416
52.54000 5.346
52.56000 12.189
52.58000 8.567
52.60000 -0.255
52.62000 5.592
52.64000 2.999
52.66000 0.110
52.68000 3.680
52.70000 5.188
52.72000 7.837
52.74000 7.676
52.76000 4.093
52.78000 5.330
52.80000 3.849
52.82000 0.979
52.84000 4.331
52.86000 3.364
52.88000 1.610
52.90000 6.146
52.92000 9.630
52.94000 7.415
52.96000 6.863
52.98000 -1.091
53.00000 5.918
53.02000 5.789
53.04000 1.812
53.06000 3.602
53.08000 4.476
53.10000 7.168
53.12000 4.621
53.14000 -2.537
53.16000 -1.798
53.18000 3.365
53.20000 1.087
53.22000 0.578
53.24000 1.838
53.26000 -2.844
53.28000 3.999
53.30000 7.142
53.32000 5.169
53.34000 4.156
53.36000 1.085
53.38000 0.112
53.40000 2.275
53.42000 -1.097
53.44000 -0.144
53.46000 1.589
53.48000 7.712
53.50000 5.711
53.52000 4.084
53.54000 5.987
53.56000 1.088
53.58000 2.988
53.60000 5.366
53.62000 4.407
53.64000 5.960
53.66000 11.006
53.68000 6.380
53.70000 1.674
53.72000 3.611
53.74000 1.403
53.76000 3.237
53.78000 7.120
53.80000 1.399
53.82000 2.441
53.84000 2.093
53.86000 4.642
53.88000 9.993
53.90000 5.563
53.92000 6.953
53.94000 9.010
53.96000 2.447
53.98000 -2.820
54.00000 0.897
54.02000 -0.416
54.04000 2.132
54.06000 2.854
54.08000 4.904
54.10000 13.516
54.12000 7.591
54.14000 6.493
54.16000 2.350
54.18000 6.719
54.20000 9.218
54.22000 9.246
54.24000 5.702
54.26000 9.672
54.28000 6.887
54.30000 0.252
54.32000 0.154
54.34000 1.113
54.36000 2.767
54.38000 0.605
54.40000 1.802
54.42000 -2.819
54.44000 -1.107
54.46000 -1.615
54.48000 -0.649
54.50000 2.502
54.52000 6.272
54.54000 3.556
54.56000 2.224
54.58000 3.022
54.60000 5.810
54.62000 3.302
54.64000 0.406
54.66000 1.757
54.68000 1.226
54.70000 -0.617
54.72000 0.708
54.74000 4.935
54.76000 3.396
54.78000 2.744
54.80000 1.590
54.82000 6.511
54.84000 3.627
54.86000 3.150
54.88000 -1.901
54.90000 -2.324
54.92000 2.012
54.94000 2.252
54.96000 4.586
54.98000 6.161
55.00000 1.943
55.02000 1.098
55.04000 0.199
55.06000 1.981
55.08000 3.131
55.10000 -1.542
55.12000 -0.410
55.14000 0.498
55.16000 0.379
55.18000 4.788
55.20000 6.119
55.22000 3.785
55.24000 6.038
55.26000 3.487
55.28000 -2.101
55.30000 -1.246
55.32000 2.270
55.34000 0.433
55.36000 0.568
55.38000 2.262
55.40000 4.842
55.42000 1.243
55.44000 0.260
55.46000 1.374
55.48000 2.241
55.50000 1.164
55.52000 4.637
55.54000 8.982
55.56000 6.174
55.58000 2.422
55.60000 3.289
55.62000 4.261
55.64000 8.123
55.66000 3.800
55.68000 4.529
55.70000 3.315
55.72000 3.070
55.74000 4.602
55.76000 5.234
55.78000 3.030
55.80000 -0.255
55.82000 -1.623
55.84000 -2.767
55.86000 1.872
55.88000 8.899
55.90000 4.583
55.92000 4.489
55.94000 2.249
55.96000 3.837
55.98000 2.747
56.00000 7.482
56.02000 5.833
56.04000 -0.542
56.06000 1.084
56.08000 4.277
56.10000 -0.481
56.12000 -0.468
56.14000 -2.766
56.16000 2.409
56.18000 8.997
56.20000 6.914
56.22000 -0.173
56.24000 1.152
56.26000 4.968
56.28000 4.740
56.30000 -1.450
56.32000 -1.627
56.34000 1.384
56.36000 4.382
56.38000 2.651
56.40000 3.872
56.42000 6.645
56.44000 3.605
56.46000 2.620
56.48000 2.801
56.50000 3.577
56.52000 -2.001
56.54000 0.488
56.56000 3.473
56.58000 6.344
56.60000 4.706
56.62000 4.302
56.64000 1.013
56.66000 -2.151
56.68000 1.859
56.70000 3.063
56.72000 4.070
56.74000 9.083
56.76000 10.761
56.78000 4.289
56.80000 -2.744
56.82000 2.860
56.84000 1.866
56.86000 4.045
56.88000 5.661
56.90000 8.422
56.92000 7.833
56.94000 5.177
56.96000 8.235
56.98000 4.183
57.00000 6.359
57.02000 4.034
57.04000 0.803
57.06000 3.786
57.08000 0.802
57.10000 5.808
57.12000 2.400
57.14000 3.424
57.16000 4.835
57.18000 8.764
57.20000 7.797
57.22000 7.040
57.24000 4.434
57.26000 3.725
57.28000 -2.728
57.30000 -2.624
57.32000 -0.949
57.34000 0.055
57.36000 4.523
57.38000 9.522
57.40000 7.905
57.42000 5.235
57.44000 -1.329
57.46000 0.818
57.48000 0.857
57.50000 3.439
57.52000 3.052
57.54000 8.558
57.56000 3.723
57.58000 2.644
57.60000 5.899
57.62000 10.730
57.64000 9.659
57.66000 6.889
57.68000 9.886
57.70000 6.413
57.72000 3.045
57.74000 4.234
57.76000 4.952
57.78000 4.189
57.80000 0.265
57.82000 0.771
57.84000 -0.718
57.86000 -0.157
57.88000 -0.842
57.90000 0.860
57.92000 5.704
57.94000 6.746
57.96000 1.442
57.98000 -0.117
58.00000 -0.291
58.02000 3.541
58.04000 5.484
58.06000 1.297
58.08000 0.146
58.10000 -2.383
58.12000 -2.704
58.14000 -2.489
58.16000 -2.580
58.18000 -1.154
58.20000 7.084
58.22000 6.310
58.24000 4.447
58.26000 0.533
58.28000 0.587
58.30000 0.674
58.32000 -2.408
58.34000 -1.335
58.36000 1.556
58.38000 4.902
58.40000 6.679
58.42000 2.551
58.44000 1.504
58.46000 4.637
58.48000 1.908
58.50000 -0.170
58.52000 3.565
58.54000 1.940
58.56000 3.538
58.58000 4.336
58.60000 4.124
58.62000 0.911
58.64000 4.112
58.66000 4.432
58.68000 2.904
58.70000 1.165
58.72000 0.168
58.74000 1.193
58.76000 3.385
58.78000 4.347
58.80000 4.694
58.82000 0.617
58.84000 0.312
58.86000 3.739
58.88000 3.648
58.90000 0.936
58.92000 0.504
58.94000 4.290
58.96000 3.245
58.98000 2.132
59.00000 0.821
59.02000 -1.428
59.04000 -0.289
59.06000 1.656
59.08000 3.154
59.10000 7.793
59.12000 1.811
59.14000 -0.128
59.16000 -0.566
59.18000 2.131
59.20000 -0.264
59.22000 4.094
59.24000 3.560
59.26000 3.021
59.28000 3.836
59.30000 5.393
59.32000 8.740
59.34000 6.732
59.36000 1.143
59.38000 -1.551
59.40000 -1.926
59.42000 3.123
59.44000 2.151
59.46000 0.199
59.48000 3.712
59.50000 1.676
59.52000 0.101
59.54000 2.497
59.56000 3.287
59.58000 1.486
59.60000 0.522
59.62000 0.979
59.64000 3.433
59.66000 8.381
59.68000 8.549
59.70000 3.204
59.72000 6.258
59.74000 5.534
59.76000 3.342
59.78000 1.162
59.80000 1.995
59.82000 4.395
59.84000 8.432
59.86000 6.263
59.88000 3.197
59.90000 3.651
59.92000 1.790
59.94000 6.838
59.96000 3.641
59.98000 4.020
60.00000 8.064
60.02000 2.668
60.04000 -2.611
60.06000 1.788
60.08000 2.216
60.10000 6.125
60.12000 10.053
60.14000 7.216
60.16000 3.522
60.18000 2.052
60.20000 2.430
60.22000 1.726
60.24000 2.636
60.26000 5.887
60.28000 6.798
60.30000 1.181
60.32000 4.698
60.34000 5.709
60.36000 4.852
60.38000 -2.614
60.40000 -0.671
60.42000 2.295
60.44000 5.235
60.46000 4.006
60.48000 5.735
60.50000 9.063
60.52000 4.931
60.54000 3.675
60.56000 1.669
60.58000 0.995
60.60000 -0.606
60.62000 2.212
60.64000 6.657
60.66000 -1.342
60.68000 0.191
60.70000 3.670
60.72000 1.955
60.74000 3.639
60.76000 5.048
60.78000 4.815
60.80000 4.569
60.82000 3.446
60.84000 1.056
60.86000 1.857
60.88000 1.936
60.90000 2.126
60.92000 2.201
60.94000 1.439
60.96000 0.195
60.98000 0.107
61.00000 0.567
61.02000 -0.423
61.04000 3.432
61.06000 3.375
61.08000 1.205
61.10000 -0.053
61.12000 -1.789
61.14000 -2.601
61.16000 0.336
61.18000 0.256
61.20000 1.410
61.22000 2.365
61.24000 3.327
61.26000 3.734
61.28000 3.216
61.30000 5.735
61.32000 5.547
61.34000 2.845
61.36000 3.136
61.38000 -0.178
61.40000 -0.810
61.42000 4.073
61.44000 3.068
61.46000 1.266
61.48000 1.809
61.50000 3.620
61.52000 0.132
61.54000 2.336
61.56000 1.439
61.58000 7.274
61.60000 6.399
61.62000 -1.144
61.64000 2.599
61.66000 5.555
61.68000 6.362
61.70000 7.922
61.72000 4.418
61.74000 3.462
61.76000 5.086
61.78000 7.724
61.80000 3.888
61.82000 -2.572
61.84000 -1.851
61.86000 0.052
61.88000 -2.458
61.90000 1.711
61.92000 3.283
61.94000 7.333
61.96000 7.952
61.98000 7.840
62.00000 7.565
62.02000 4.836
62.04000 2.829
62.06000 -0.877
62.08000 1.384
62.10000 1.424
62.12000 3.660
62.14000 2.509
62.16000 1.977
62.18000 2.614
62.20000 0.438
62.22000 -0.438
62.24000 1.214
62.26000 -0.718
62.28000 -0.457
62.30000 2.859
62.32000 2.161
62.34000 0.782
62.36000 2.313
62.38000 1.224
62.40000 -1.766
62.42000 1.078
62.44000 1.349
62.46000 1.220
62.48000 1.437
62.50000 -1.305
62.52000 -0.673
62.54000 4.751
62.56000 7.122
62.58000 4.247
62.60000 4.236
62.62000 1.853
62.64000 -0.797
62.66000 -1.050
62.68000 1.569
62.70000 -1.108
62.72000 1.289
62.74000 3.433
62.76000 7.313
62.78000 3.538
62.80000 2.227
62.82000 3.181
62.84000 3.682
62.86000 5.490
62.88000 5.878
62.90000 3.756
62.92000 1.880
62.94000 0.377
62.96000 -0.063
62.98000 2.692
63.00000 2.516
63.02000 3.264
63.04000 4.156
63.06000 4.555
63.08000 1.544
63.10000 1.092
63.12000 1.405
63.14000 -1.105
63.16000 2.225
63.18000 0.150
63.20000 -0.356
63.22000 2.726
63.24000 3.449
63.26000 1.903
63.28000 2.275
63.30000 1.798
63.32000 -0.340
63.34000 -1.721
63.36000 -1.134
63.38000 -1.874
63.40000 0.610
63.42000 -1.017
63.44000 0.851
63.46000 1.906
63.48000 1.537
63.50000 0.196
63.52000 0.036
63.54000 3.005
63.56000 0.200
63.58000 0.625
63.60000 1.302
63.62000 -0.630
63.64000 -2.175
63.66000 -1.151
63.68000 0.951
63.70000 -0.544
63.72000 2.598
63.74000 1.930
63.76000 -0.595
63.78000 -2.574
63.80000 -1.004
63.82000 -0.032
63.84000 -0.098
63.86000 1.624
63.88000 3.944
63.90000 3.282
63.92000 4.066
63.94000 2.106
63.96000 3.712
63.98000 3.775
64.00000 0.452
64.02000 0.168
64.04000 1.476
64.06000 6.632
64.08000 5.085
64.10000 1.575
64.12000 2.470
64.14000 3.311
64.16000 5.156
64.18000 5.174
64.20000 2.197
64.22000 2.125
64.24000 6.212
64.26000 4.753
64.28000 2.955
64.30000 -1.816
64.32000 -1.633
64.34000 0.204
64.36000 2.421
64.38000 4.288
64.40000 2.339
64.42000 2.735
64.44000 5.067
64.46000 8.634
64.48000 6.123
64.50000 0.956
64.52000 1.694
64.54000 5.749
64.56000 6.427
64.58000 4.051
64.60000 3.332
64.62000 2.610
64.64000 1.614
64.66000 1.892
64.68000 2.480
64.70000 -2.562
64.72000 1.322
64.74000 0.021
64.76000 3.600
64.78000 4.443
64.80000 5.597
64.82000 4.809
64.84000 4.238
64.86000 3.639
64.88000 4.754
64.90000 6.302
64.92000 7.169
64.94000 3.470
64.96000 3.675
64.98000 1.550
65.00000 4.276
65.02000 5.986
65.04000 4.033
65.06000 4.561
65.08000 7.151
65.10000 7.917
65.12000 7.975
65.14000 5.491
65.16000 0.823
65.18000 -1.151
65.20000 -2.596
65.22000 0.662
65.24000 1.681
65.26000 6.604
65.28000 9.060
65.30000 4.433
65.32000 -0.400
65.34000 -1.549
65.36000 4.235
65.38000 1.752
65.40000 0.943
65.42000 0.239
65.44000 -0.907
65.46000 -0.486
65.48000 1.395
65.50000 3.867
65.52000 3.254
65.54000 1.530
65.56000 0.485
65.58000 0.070
65.60000 0.879
65.62000 1.878
65.64000 1.573
65.66000 0.604
65.68000 -1.100
65.70000 0.362
65.72000 2.334
65.74000 -0.605
65.76000 -0.912
65.78000 4.349
65.80000 3.093
65.82000 4.533
65.84000 2.268
65.86000 1.388
65.88000 3.739
65.90000 4.381
65.92000 4.148
65.94000 -0.110
65.96000 -0.842
65.98000 -1.909
66.00000 2.109
66.02000 3.970
66.04000 1.592
66.06000 1.540
66.08000 -0.326
66.10000 2.452
66.12000 1.501
66.14000 2.281
66.16000 4.311
66.18000 1.352
66.20000 1.140
66.22000 1.760
66.24000 2.877
66.26000 1.905
66.28000 1.365
66.30000 0.465
66.32000 0.178
66.34000 1.277
66.36000 3.590
66.38000 3.469
66.40000 -2.634
66.42000 2.011
66.44000 4.188
66.46000 3.849
66.48000 4.229
66.50000 4.255
66.52000 3.054
66.54000 0.574
66.56000 2.377
66.58000 2.772
66.60000 0.960
66.62000 5.670
66.64000 5.142
66.66000 5.975
66.68000 5.034
66.70000 2.000
66.72000 2.538
66.74000 3.682
66.76000 3.379
66.78000 -0.882
66.80000 3.224
66.82000 3.226
66.84000 4.094
66.86000 4.836
66.88000 6.014
66.90000 5.027
66.92000 2.724
66.94000 1.740
66.96000 3.476
66.98000 5.062
67.00000 5.808
67.02000 5.554
67.04000 8.128
67.06000 3.823
67.08000 4.205
67.10000 4.064
67.12000 1.434
67.14000 2.411
67.16000 1.199
67.18000 4.092
67.20000 3.287
67.22000 4.509
67.24000 4.563
67.26000 4.244
67.28000 6.165
67.30000 5.016
67.32000 4.599
67.34000 6.724
67.36000 9.948
67.38000 10.399
67.40000 8.834
67.42000 8.306
67.44000 7.968
67.46000 13.193
67.48000 11.903
67.50000 13.416
67.52000 12.041
67.54000 12.657
67.56000 12.845
67.58000 8.866
67.60000 10.326
67.62000 13.216
67.64000 17.412
67.66000 12.244
67.68000 11.725
67.70000 17.898
67.72000 12.176
67.74000 9.883
67.76000 11.206
67.78000 15.181
67.80000 13.734
67.82000 10.472
67.84000 13.381
67.86000 17.774
67.88000 16.264
67.90000 13.378
67.92000 18.845
67.94000 18.515
67.96000 18.182
67.98000 14.843
68.00000 15.638
68.02000 14.500
68.04000 15.092
68.06000 16.842
68.08000 16.335
68.10000 18.981
68.12000 20.598
68.14000 20.507
68.16000 19.014
68.18000 17.319
68.20000 20.884
68.22000 20.933
68.24000 20.669
68.26000 20.767
68.28000 24.086
68.30000 21.664
68.32000 16.962
68.34000 16.280
68.36000 16.219
68.38000 16.453
68.40000 25.728
68.42000 22.693
68.44000 20.145
68.46000 22.821
68.48000 22.965
68.50000 20.768
68.52000 17.203
68.54000 16.753
68.56000 16.735
68.58000 18.027
68.60000 22.578
68.62000 19.563
68.64000 19.478
68.66000 16.374
68.68000 16.602
68.70000 21.134
68.72000 22.861
68.74000 19.615
68.76000 17.982
68.78000 18.309
68.80000 17.037
68.82000 12.857
68.84000 13.643
68.86000 14.242
68.88000 12.462
68.90000 12.754
68.92000 13.377
68.94000 11.736
68.96000 13.963
68.98000 16.632
69.00000 16.235
69.02000 11.999
69.04000 12.319
69.06000 12.828
69.08000 10.453
69.10000 9.897
69.12000 10.646
69.14000 10.578
69.16000 9.818
69.18000 9.066
69.20000 8.899
69.22000 9.269
69.24000 6.062
69.26000 3.537
69.28000 7.758
69.30000 6.142
69.32000 3.798
69.34000 6.163
69.36000 0.719
69.38000 0.109
69.40000 -0.216
69.42000 3.099
69.44000 4.316
69.46000 6.294
69.48000 1.470
69.50000 3.227
69.52000 3.323
69.54000 0.694
69.56000 4.790
69.58000 4.155
69.60000 5.739
69.62000 4.108
69.64000 5.818
69.66000 2.979
69.68000 2.435
69.70000 1.554
69.72000 4.931
69.74000 1.236
69.76000 1.527
69.78000 0.885
69.80000 3.002
69.82000 -0.153
69.84000 3.305
69.86000 1.964
69.88000 1.918
69.90000 0.513
69.92000 0.452
69.94000 2.200
69.96000 1.364
69.98000 0.977
70.00000 0.618
70.02000 1.726
70.04000 4.624
70.06000 3.222
70.08000 -2.577
70.10000 -1.219
70.12000 -2.067
70.14000 2.876
70.16000 2.651
70.18000 6.349
70.20000 5.076
70.22000 2.691
70.24000 2.023
70.26000 0.839
70.28000 0.727
70.30000 0.632
70.32000 1.641
70.34000 -2.547
70.36000 -2.545
70.38000 1.973
70.40000 4.581
70.42000 1.106
70.44000 4.040
70.46000 2.650
70.48000 2.463
70.50000 3.197
70.52000 5.446
70.54000 3.948
70.56000 4.298
70.58000 4.806
70.60000 1.989
70.62000 2.461
70.64000 0.515
70.66000 -0.428
70.68000 2.452
70.70000 2.146
70.72000 2.749
70.74000 0.250
70.76000 0.597
70.78000 4.035
70.80000 5.949
70.82000 6.768
70.84000 2.705
70.86000 -1.322
70.88000 -1.530
70.90000 1.738
70.92000 1.426
70.94000 2.295
70.96000 -1.996
70.98000 0.863
71.00000 2.451
71.02000 2.003
71.04000 1.015
71.06000 5.867
71.08000 3.576
71.10000 3.895
71.12000 4.933
71.14000 0.900
71.16000 -2.469
71.18000 6.182
71.20000 6.719
71.22000 6.608
71.24000 4.009
71.26000 -1.104
71.28000 1.508
71.30000 2.910
71.32000 3.993
71.34000 3.542
71.36000 1.435
71.38000 5.293
71.40000 2.032
71.42000 -1.359
71.44000 -2.454
71.46000 -1.121
71.48000 -1.932
71.50000 0.819
71.52000 -0.976
71.54000 1.706
71.56000 2.847
71.58000 2.899
71.60000 5.181
71.62000 2.195
71.64000 1.100
71.66000 0.238
71.68000 3.605
71.70000 9.066
71.72000 6.283
71.74000 6.066
71.76000 5.977
71.78000 5.525
71.80000 2.036
71.82000 3.382
71.84000 4.736
71.86000 9.628
71.88000 9.033
71.90000 3.165
71.92000 1.423
71.94000 3.877
71.96000 1.459
71.98000 3.778
72.00000 5.925
72.02000 0.853
72.04000 1.768
72.06000 -0.897
72.08000 -2.410
72.10000 -1.553
72.12000 2.619
72.14000 5.063
72.16000 6.199
72.18000 4.281
72.20000 -1.440
72.22000 0.166
72.24000 3.024
72.26000 2.749
72.28000 -0.803
72.30000 0.142
72.32000 3.113
72.34000 5.029
72.36000 5.086
72.38000 6.269
72.40000 6.043
72.42000 2.696
72.44000 1.966
72.46000 4.984
72.48000 6.389
72.50000 4.760
72.52000 7.625
72.54000 6.175
72.56000 5.618
72.58000 6.221
72.60000 2.315
72.62000 0.170
72.64000 -0.828
72.66000 -1.303
72.68000 2.052
72.70000 10.783
72.72000 9.833
72.74000 2.071
72.76000 3.559
72.78000 7.095
72.80000 5.248
72.82000 3.019
72.84000 1.562
72.86000 4.861
72.88000 1.397
72.90000 4.912
72.92000 3.808
72.94000 2.291
72.96000 0.939
72.98000 1.370
73.00000 -0.302
73.02000 2.678
73.04000 1.848
73.06000 1.353
73.08000 2.066
73.10000 4.941
73.12000 1.216
73.14000 3.149
73.16000 0.651
73.18000 -0.110
73.20000 4.818
73.22000 4.462
73.24000 0.642
73.26000 2.018
73.28000 1.382
73.30000 1.332
73.32000 4.068
73.34000 3.507
73.36000 4.487
73.38000 1.458
73.40000 0.065
73.42000 2.838
73.44000 5.964
73.46000 4.438
73.48000 3.302
73.50000 1.656
73.52000 3.052
73.54000 5.073
73.56000 3.530
73.58000 2.718
73.60000 2.623
73.62000 6.715
73.64000 5.711
73.66000 0.592
73.68000 1.446
73.70000 9.277
73.72000 6.438
73.74000 2.422
73.76000 5.371
73.78000 0.266
73.80000 1.436
73.82000 -2.386
73.84000 0.473
73.86000 1.237
73.88000 5.456
73.90000 5.121
73.92000 1.701
73.94000 1.387
73.96000 2.652
73.98000 5.017
74.00000 4.200
74.02000 1.650
74.04000 -1.295
74.06000 1.802
74.08000 5.154
74.10000 0.962
74.12000 -0.893
74.14000 3.375
74.16000 4.597
74.18000 3.385
74.20000 0.440
74.22000 2.246
74.24000 4.611
74.26000 -0.339
74.28000 3.893
74.30000 5.142
74.32000 0.232
74.34000 0.891
74.36000 2.753
74.38000 0.085
74.40000 -0.614
74.42000 -0.540
74.44000 2.966
74.46000 4.692
74.48000 4.089
74.50000 2.480
74.52000 3.171
74.54000 1.278
74.56000 4.932
74.58000 5.650
74.60000 2.832
74.62000 4.788
74.64000 4.298
74.66000 2.047
74.68000 2.532
74.70000 1.746
74.72000 -0.154
74.74000 2.128
74.76000 3.214
74.78000 3.337
74.80000 3.454
74.82000 2.695
74.84000 1.673
74.86000 4.894
74.88000 4.167
74.90000 -1.210
74.92000 0.175
74.94000 1.920
74.96000 2.386
74.98000 0.491
75.00000 2.118
75.02000 6.489
75.04000 4.061
75.06000 0.768
75.08000 0.139
75.10000 2.033
75.12000 0.914
75.14000 -1.586
75.16000 4.843
75.18000 1.455
75.20000 1.252
75.22000 6.518
75.24000 4.216
75.26000 -0.288
75.28000 2.143
75.30000 1.467
75.32000 7.808
75.34000 9.186
75.36000 1.129
75.38000 -2.408
75.40000 0.186
75.42000 6.286
75.44000 6.812
75.46000 4.075
75.48000 1.743
75.50000 1.811
75.52000 -1.723
75.54000 2.851
75.56000 0.671
75.58000 4.719
75.60000 3.309
75.62000 3.397
75.64000 6.610
75.66000 0.295
75.68000 0.501
75.70000 3.237
75.72000 -0.534
75.74000 0.880
75.76000 2.285
75.78000 5.758
75.80000 1.448
75.82000 -0.080
75.84000 1.862
75.86000 3.242
75.88000 3.682
75.90000 -1.406
75.92000 -1.102
75.94000 1.319
75.96000 1.457
75.98000 -2.399
76.00000 -1.116
76.02000 1.522
76.04000 -0.140
76.06000 0.810
76.08000 0.597
76.10000 1.619
76.12000 2.246
76.14000 6.601
76.16000 4.778
76.18000 1.007
76.20000 -0.417
76.22000 1.144
76.24000 0.280
76.26000 6.311
76.28000 9.187
76.30000 2.850
76.32000 4.520
76.34000 3.447
76.36000 -1.961
76.38000 3.559
76.40000 1.759
76.42000 -2.188
76.44000 7.072
76.46000 5.500
76.48000 3.223
76.50000 4.647
76.52000 3.513
76.54000 2.330
76.56000 2.228
76.58000 2.137
76.60000 4.596
76.62000 6.671
76.64000 3.656
76.66000 3.014
76.68000 3.966
76.70000 3.160
76.72000 5.503
76.74000 6.341
76.76000 0.799
76.78000 0.364
76.80000 3.859
76.82000 6.300
76.84000 7.417
76.86000 9.593
76.88000 8.348
76.90000 5.700
76.92000 7.018
76.94000 7.674
76.96000 2.438
76.98000 -2.392
77.00000 1.576
77.02000 3.038
77.04000 5.836
77.06000 3.876
77.08000 -0.679
77.10000 -0.618
77.12000 4.754
77.14000 4.077
77.16000 5.437
77.18000 4.516
77.20000 3.473
77.22000 0.214
77.24000 -1.977
77.26000 1.015
77.28000 2.318
77.30000 5.312
77.32000 4.518
77.34000 3.021
77.36000 6.662
77.38000 4.749
77.40000 2.053
77.42000 -1.053
77.44000 8.183
77.46000 7.938
77.48000 4.357
77.50000 1.652
77.52000 -0.177
77.54000 -0.864
77.56000 -0.925
77.58000 3.471
77.60000 6.243
77.62000 2.528
77.64000 5.507
77.66000 5.693
77.68000 2.931
77.70000 4.729
77.72000 2.666
77.74000 0.928
77.76000 4.278
77.78000 3.317
77.80000 1.206
77.82000 6.297
77.84000 6.946
77.86000 7.271
77.88000 0.828
77.90000 0.858
77.92000 6.119
77.94000 5.387
77.96000 3.192
77.98000 4.708
78.00000 9.238
78.02000 7.924
78.04000 8.127
78.06000 5.735
78.08000 7.922
78.10000 9.111
78.12000 8.493
78.14000 5.658
78.16000 4.626
78.18000 0.676
78.20000 2.004
78.22000 4.926
78.24000 5.775
78.26000 2.182
78.28000 3.441
78.30000 4.275
78.32000 2.277
78.34000 2.447
78.36000 1.239
78.38000 2.342
78.40000 8.771
78.42000 10.207
78.44000 4.748
78.46000 3.574
78.48000 -2.388
78.50000 0.332
78.52000 3.189
78.54000 -0.012
78.56000 6.137
78.58000 9.391
78.60000 8.299
78.62000 6.136
78.64000 5.334
78.66000 0.162
78.68000 6.595
78.70000 6.548
78.72000 2.644
78.74000 3.062
78.76000 4.488
78.78000 3.904
78.80000 4.387
78.82000 5.547
78.84000 6.740
78.86000 3.121
78.88000 -0.289
78.90000 2.636
78.92000 6.724
78.94000 2.691
78.96000 2.043
78.98000 5.279
79.00000 4.716
79.02000 1.396
79.04000 1.976
79.06000 -2.464
79.08000 -1.322
79.10000 6.802
79.12000 6.042
79.14000 2.623
79.16000 4.482
79.18000 6.119
79.20000 -0.205
79.22000 0.954
79.24000 1.340
79.26000 0.272
79.28000 -0.622
79.30000 -2.315
79.32000 2.406
79.34000 3.587
79.36000 2.256
79.38000 1.535
79.40000 -1.873
79.42000 -0.010
79.44000 2.515
79.46000 2.975
79.48000 2.040
79.50000 1.719
79.52000 5.338
79.54000 6.246
79.56000 6.544
79.58000 1.715
79.60000 0.286
79.62000 4.001
79.64000 3.095
79.66000 -0.239
79.68000 3.682
79.70000 6.454
79.72000 4.387
79.74000 6.790
79.76000 1.618
79.78000 1.322
79.80000 -2.246
79.82000 0.382
79.84000 1.294
79.86000 3.091
79.88000 8.752
79.90000 5.900
79.92000 1.336
79.94000 3.120
79.96000 4.031
79.98000 1.659
80.00000 3.148
80.02000 2.787
80.04000 -0.027
80.06000 4.600
80.08000 7.397
80.10000 -2.549
80.12000 -1.932
80.14000 0.108
80.16000 1.311
80.18000 1.511
80.20000 0.636
80.22000 7.262
80.24000 6.641
80.26000 10.387
80.28000 4.546
80.30000 1.878
80.32000 3.077
80.34000 2.094
80.36000 -1.006
80.38000 3.499
80.40000 1.131
80.42000 -0.262
80.44000 5.735
80.46000 0.843
80.48000 0.151
80.50000 -0.197
80.52000 -1.231
80.54000 4.549
80.56000 3.295
80.58000 4.647
80.60000 3.164
80.62000 6.736
80.64000 2.436
80.66000 1.432
80.68000 7.324
80.70000 4.581
80.72000 2.918
80.74000 7.569
80.76000 9.351
80.78000 7.777
80.80000 4.156
80.82000 6.568
80.84000 7.070
80.86000 3.764
80.88000 2.697
80.90000 1.605
80.92000 -0.005
80.94000 -0.934
80.96000 -0.150
80.98000 2.804
81.00000 -0.770
81.02000 -2.449
81.04000 3.243
81.06000 4.177
81.08000 6.101
81.10000 4.971
81.12000 1.564
81.14000 6.820
81.16000 6.820
81.18000 2.302
81.20000 4.094
81.22000 -0.654
81.24000 4.091
81.26000 3.985
81.28000 8.972
81.30000 5.699
81.32000 3.820
81.34000 6.569
81.36000 5.124
81.38000 7.257
81.40000 9.319
81.42000 13.579
81.44000 13.985
81.46000 11.521
81.48000 8.954
81.50000 10.014
81.52000 8.881
81.54000 8.936
81.56000 10.545
81.58000 10.758
81.60000 11.930
81.62000 12.884
81.64000 11.143
81.66000 16.939
81.68000 15.056
81.70000 13.888
81.72000 13.960
81.74000 14.140
81.76000 15.032
81.78000 15.283
81.80000 10.504
81.82000 10.017
81.84000 10.682
81.86000 10.123
81.88000 13.810
81.90000 18.856
81.92000 18.795
81.94000 20.908
81.96000 21.017
81.98000 18.097
82.00000 18.438
82.02000 20.459
82.04000 26.002
82.06000 26.430
82.08000 24.593
82.10000 28.129
82.12000 25.247
82.14000 18.925
82.16000 19.475
82.18000 22.052
82.20000 23.165
82.22000 26.301
82.24000 19.511
82.26000 19.860
82.28000 21.226
82.30000 23.944
82.32000 19.313
82.34000 17.391
82.36000 19.326
82.38000 21.224
82.40000 21.571
82.42000 18.882
82.44000 16.470
82.46000 27.180
82.48000 27.872
82.50000 26.219
82.52000 16.995
82.54000 14.320
82.56000 21.467
82.58000 22.593
82.60000 22.951
82.62000 27.133
82.64000 25.425
82.66000 19.070
82.68000 20.503
82.70000 24.463
82.72000 24.101
82.74000 25.700
82.76000 25.222
82.78000 21.225
82.80000 16.449
82.82000 17.041
82.84000 20.359
82.86000 23.843
82.88000 25.651
82.90000 19.872
82.92000 21.614
82.94000 16.965
82.96000 22.722
82.98000 19.404
83.00000 19.608
83.02000 23.101
83.04000 16.072
83.06000 13.769
83.08000 13.685
83.10000 10.504
83.12000 12.968
83.14000 14.487
83.16000 11.899
83.18000 13.715
83.20000 13.498
83.22000 15.433
83.24000 18.470
83.26000 17.630
83.28000 10.828
83.30000 12.927
83.32000 11.307
83.34000 10.678
83.36000 11.094
83.38000 12.396
83.40000 10.265
83.42000 10.214
83.44000 8.663
83.46000 10.335
83.48000 10.062
83.50000 8.741
83.52000 8.541
83.54000 8.071
83.56000 7.896
83.58000 8.986
83.60000 6.705
83.62000 5.372
83.64000 4.307
83.66000 3.208
83.68000 5.524
83.70000 6.417
83.72000 5.448
83.74000 4.388
83.76000 11.308
83.78000 8.306
83.80000 3.989
83.82000 5.884
83.84000 2.579
83.86000 0.385
83.88000 2.760
83.90000 3.170
83.92000 2.649
83.94000 0.756
83.96000 1.830
83.98000 7.715
84.00000 3.674
84.02000 1.420
84.04000 0.969
84.06000 4.409
84.08000 2.922
84.10000 -0.545
84.12000 1.672
84.14000 0.703
84.16000 1.663
84.18000 6.582
84.20000 3.221
84.22000 4.280
84.24000 3.841
84.26000 6.025
84.28000 4.734
84.30000 -0.842
84.32000 -1.238
84.34000 1.314
84.36000 0.312
84.38000 -0.323
84.40000 -2.573
84.42000 -1.044
84.44000 0.679
84.46000 3.395
84.48000 7.914
84.50000 2.520
84.52000 0.892
84.54000 2.143
84.56000 6.793
84.58000 3.378
84.60000 3.996
84.62000 2.781
84.64000 -0.179
84.66000 -2.213
84.68000 1.227
84.70000 4.747
84.72000 0.381
84.74000 1.356
84.76000 -2.367
84.78000 6.106
84.80000 1.359
84.82000 0.207
84.84000 -0.059
84.86000 3.768
84.88000 6.483
84.90000 6.107
84.92000 4.395
84.94000 9.697
84.96000 6.936
84.98000 6.325
85.00000 3.335
85.02000 -0.044
85.04000 5.388
85.06000 6.176
85.08000 3.553
85.10000 5.359
85.12000 3.713
85.14000 3.986
85.16000 -2.453
85.18000 0.902
85.20000 5.758
85.22000 9.672
85.24000 6.485
85.26000 2.084
85.28000 1.900
85.30000 4.504
85.32000 5.329
85.34000 7.621
85.36000 8.042
85.38000 6.324
85.40000 6.313
85.42000 7.121
85.44000 8.607
85.46000 9.303
85.48000 4.791
85.50000 6.035
85.52000 4.757
85.54000 13.141
85.56000 13.271
85.58000 5.469
85.60000 3.526
85.62000 4.843
85.64000 7.570
85.66000 9.871
85.68000 15.318
85.70000 17.037
85.72000 8.851
85.74000 11.459
85.76000 7.288
85.78000 6.182
85.80000 9.317
85.82000 6.275
85.84000 8.464
85.86000 11.489
85.88000 7.903
85.90000 12.764
85.92000 10.960
85.94000 8.848
85.96000 16.927
85.98000 16.614
86.00000 13.341
86.02000 9.006
86.04000 12.051
86.06000 11.489
86.08000 17.139
86.10000 17.310
86.12000 11.871
86.14000 12.837
86.16000 9.850
86.18000 13.397
86.20000 17.417
86.22000 15.924
86.24000 16.157
86.26000 14.086
86.28000 13.304
86.30000 15.967
86.32000 13.557
86.34000 14.476
86.36000 16.539
86.38000 17.919
86.40000 15.537
86.42000 15.118
86.44000 15.574
86.46000 22.605
86.48000 24.243
86.50000 19.612
86.52000 20.561
86.54000 26.526
86.56000 27.182
86.58000 29.517
86.60000 24.206
86.62000 22.518
86.64000 24.653
86.66000 25.314
86.68000 22.986
86.70000 27.982
86.72000 26.505
86.74000 20.451
86.76000 23.412
86.78000 25.420
86.80000 24.627
86.82000 27.405
86.84000 23.772
86.86000 24.228
86.88000 29.087
86.90000 31.345
86.92000 27.545
86.94000 28.781
86.96000 22.468
86.98000 22.041
87.00000 24.475
87.02000 27.847
87.04000 24.472
87.06000 21.996
87.08000 25.586
87.10000 28.649
87.12000 24.562
87.14000 22.314
87.16000 24.550
87.18000 22.876
87.20000 21.019
87.22000 21.490
87.24000 19.697
87.26000 17.152
87.28000 21.253
87.30000 24.439
87.32000 23.140
87.34000 22.532
87.36000 20.262
87.38000 16.793
87.40000 19.097
87.42000 14.945
87.44000 17.291
87.46000 16.003
87.48000 16.336
87.50000 17.095
87.52000 13.058
87.54000 12.041
87.56000 15.047
87.58000 12.581
87.60000 10.686
87.62000 12.563
87.64000 11.193
87.66000 10.475
87.68000 5.706
87.70000 10.358
87.72000 12.512
87.74000 11.874
87.76000 10.644
87.78000 8.532
87.80000 4.064
87.82000 9.073
87.84000 11.147
87.86000 10.889
87.88000 10.084
87.90000 3.801
87.92000 6.226
87.94000 11.387
87.96000 11.616
87.98000 7.585
88.00000 7.568
88.02000 4.649
88.04000 3.826
88.06000 4.597
88.08000 2.285
88.10000 4.943
88.12000 4.385
88.14000 1.939
88.16000 8.956
88.18000 5.990
88.20000 3.858
88.22000 5.383
88.24000 4.637
88.26000 3.713
88.28000 3.914
88.30000 3.332
88.32000 -0.128
88.34000 4.111
88.36000 6.557
88.38000 3.035
88.40000 4.559
88.42000 -0.432
88.44000 -0.016
88.46000 2.804
88.48000 -0.103
88.50000 0.474
88.52000 1.197
88.54000 -0.192
88.56000 -1.489
88.58000 -1.138
88.60000 -0.729
88.62000 -1.210
88.64000 -2.368
88.66000 -0.128
88.68000 2.038
88.70000 9.177
88.72000 8.029
88.74000 1.653
88.76000 5.325
88.78000 6.178
88.80000 5.219
88.82000 5.296
88.84000 7.720
88.86000 1.955
88.88000 0.510
88.90000 5.740
88.92000 1.517
88.94000 2.237
88.96000 -0.172
88.98000 3.587
89.00000 5.766
89.02000 4.376
89.04000 5.418
89.06000 3.326
89.08000 2.238
89.10000 -1.344
89.12000 -1.143
89.14000 1.592
89.16000 2.825
89.18000 2.716
89.20000 2.483
89.22000 4.058
89.24000 -0.302
89.26000 -2.284
89.28000 2.764
89.30000 1.773
89.32000 -0.042
89.34000 1.981
89.36000 4.296
89.38000 3.079
89.40000 4.867
89.42000 5.846
89.44000 3.921
89.46000 -1.915
89.48000 -0.860
89.50000 3.957
89.52000 2.515
89.54000 8.295
89.56000 6.974
89.58000 2.486
89.60000 6.822
89.62000 7.005
89.64000 6.790
89.66000 7.484
89.68000 5.481
89.70000 3.819
89.72000 2.971
89.74000 2.562
89.76000 5.331
89.78000 5.724
89.80000 3.225
89.82000 -2.239
89.84000 1.194
89.86000 2.154
89.88000 6.729
89.90000 5.045
89.92000 4.880
89.94000 3.258
89.96000 3.211
89.98000 2.723
90.00000 2.819
90.02000 3.752
90.04000 2.901
90.06000 1.862
90.08000 3.748
90.10000 5.730
90.12000 7.819
90.14000 3.671
90.16000 2.022
90.18000 1.432
90.20000 5.928
90.22000 4.038
90.24000 3.735
90.26000 3.763
90.28000 7.017
90.30000 5.569
90.32000 4.694
90.34000 2.781
90.36000 6.739
90.38000 6.184
90.40000 2.715
90.42000 3.708
90.44000 7.776
90.46000 4.050
90.48000 8.179
90.50000 8.921
90.52000 3.526
90.54000 -0.987
90.56000 1.813
90.58000 4.591
90.60000 6.470
90.62000 3.160
90.64000 2.624
90.66000 3.680
90.68000 0.774
90.70000 -0.130
90.72000 1.140
90.74000 5.812
90.76000 7.095
90.78000 6.054
90.80000 5.129
90.82000 6.186
90.84000 2.509
90.86000 3.820
90.88000 6.375
90.90000 5.387
90.92000 6.467
90.94000 2.791
90.96000 9.341
90.98000 7.707
91.00000 2.758
91.02000 1.877
91.04000 1.541
91.06000 4.188
91.08000 -0.789
91.10000 -2.269
91.12000 2.181
91.14000 5.569
91.16000 5.819
91.18000 3.033
91.20000 1.028
91.22000 0.560
91.24000 6.305
91.26000 8.505
91.28000 3.574
91.30000 4.632
91.32000 5.527
91.34000 0.827
91.36000 1.158
91.38000 1.928
91.40000 2.032
91.42000 3.094
91.44000 3.657
91.46000 5.545
91.48000 4.316
91.50000 5.062
91.52000 4.486
91.54000 3.983
91.56000 2.615
91.58000 3.062
91.60000 2.304
91.62000 1.978
91.64000 2.060
91.66000 0.721
91.68000 0.768
91.70000 3.148
91.72000 4.443
91.74000 7.029
91.76000 7.244
91.78000 -0.306
91.80000 -2.266
91.82000 3.459
91.84000 1.501
91.86000 8.282
91.88000 4.380
91.90000 6.240
91.92000 3.333
91.94000 2.409
91.96000 2.659
91.98000 3.025
92.00000 2.647
92.02000 2.965
92.04000 3.907
92.06000 6.980
92.08000 5.157
92.10000 4.286
92.12000 7.047
92.14000 4.521
92.16000 5.368
92.18000 9.243
92.20000 4.181
92.22000 -0.531
92.24000 2.540
92.26000 4.213
92.28000 1.484
92.30000 1.462
92.32000 5.898
92.34000 2.801
92.36000 0.004
92.38000 2.673
92.40000 1.738
92.42000 -0.428
92.44000 4.597
92.46000 15.598
92.48000 6.107
92.50000 3.392
92.52000 6.136
92.54000 5.423
92.56000 9.034
92.58000 6.258
92.60000 0.648
92.62000 1.949
92.64000 3.538
92.66000 4.264
92.68000 4.472
92.70000 4.463
92.72000 1.206
92.74000 4.655
92.76000 8.427
92.78000 5.241
92.80000 5.178
92.82000 2.532
92.84000 -1.281
92.86000 4.668
92.88000 6.439
92.90000 3.883
92.92000 -0.662
92.94000 -2.266
92.96000 1.734
92.98000 3.295
93.00000 4.027
93.02000 5.313
93.04000 5.712
93.06000 1.825
93.08000 6.059
93.10000 8.280
93.12000 6.157
93.14000 2.806
93.16000 -2.273
93.18000 0.448
93.20000 3.526
93.22000 6.880
93.24000 7.625
93.26000 4.308
93.28000 4.739
93.30000 6.349
93.32000 5.675
93.34000 2.368
93.36000 0.897
93.38000 4.362
93.40000 8.135
93.42000 8.406
93.44000 10.784
93.46000 6.480
93.48000 6.309
93.50000 0.433
93.52000 -0.946
93.54000 -0.024
93.56000 1.848
93.58000 0.226
93.60000 0.520
93.62000 5.328
93.64000 7.981
93.66000 2.044
93.68000 2.677
93.70000 3.162
93.72000 4.563
93.74000 3.468
93.76000 0.246
93.78000 3.792
93.80000 6.300
93.82000 4.548
93.84000 3.049
93.86000 3.685
93.88000 1.897
93.90000 7.014
93.92000 4.801
93.94000 6.399
93.96000 2.739
93.98000 2.850
94.00000 1.896
94.02000 2.598
94.04000 0.319
94.06000 2.934
94.08000 5.153
94.10000 6.736
94.12000 2.302
94.14000 -1.373
94.16000 1.278
94.18000 9.825
94.20000 7.158
94.22000 6.491
94.24000 3.320
94.26000 -0.122
94.28000 0.911
94.30000 5.555
94.32000 3.746
94.34000 4.765
94.36000 3.174
94.38000 -1.145
94.40000 -0.028
94.42000 2.778
94.44000 7.258
94.46000 4.374
94.48000 3.734
94.50000 4.402
94.52000 4.236
94.54000 8.987
94.56000 5.487
94.58000 -2.300
94.60000 3.872
94.62000 6.724
94.64000 6.596
94.66000 8.172
94.68000 6.158
94.70000 0.870
94.72000 0.845
94.74000 0.815
94.76000 2.608
94.78000 4.242
94.80000 0.091
94.82000 3.105
94.84000 5.850
94.86000 1.599
94.88000 2.623
94.90000 3.769
94.92000 2.627
94.94000 2.764
94.96000 2.558
94.98000 2.637
95.00000 5.081
95.02000 10.705
95.04000 1.560
95.06000 -0.652
95.08000 1.904
95.10000 -0.307
95.12000 -2.292
95.14000 4.640
95.16000 5.838
95.18000 6.208
95.20000 8.188
95.22000 4.619
95.24000 1.214
95.26000 -0.956
95.28000 1.552
95.30000 -0.642
95.32000 0.491
95.34000 1.089
95.36000 -0.188
95.38000 -0.520
95.40000 1.899
95.42000 2.527
95.44000 -0.394
95.46000 -1.596
95.48000 2.436
95.50000 6.834
95.52000 9.987
95.54000 4.378
95.56000 3.508
95.58000 5.919
95.60000 10.799
95.62000 7.206
95.64000 2.105
95.66000 4.092
95.68000 7.406
95.70000 3.769
95.72000 1.040
95.74000 7.386
95.76000 5.438
95.78000 3.777
95.80000 4.117
95.82000 6.841
95.84000 3.855
95.86000 3.223
95.88000 4.790
95.90000 -0.370
95.92000 -0.702
95.94000 3.026
95.96000 6.555
95.98000 3.746
96.00000 2.760
96.02000 6.561
96.04000 6.255
96.06000 2.418
96.08000 5.976
96.10000 9.172
96.12000 5.198
96.14000 1.073
96.16000 1.846
96.18000 0.600
96.20000 3.192
96.22000 2.109
96.24000 3.610
96.26000 3.607
96.28000 9.115
96.30000 7.827
96.32000 3.078
96.34000 2.534
96.36000 7.792
96.38000 5.906
96.40000 4.432
96.42000 5.787
96.44000 1.320
96.46000 3.732
96.48000 -2.264
96.50000 5.699
96.52000 13.432
96.54000 10.839
96.56000 5.748
96.58000 8.362
96.60000 6.571
96.62000 9.748
96.64000 2.309
96.66000 2.251
96.68000 7.101
96.70000 1.557
96.72000 1.154
96.74000 13.641
96.76000 5.632
96.78000 12.438
96.80000 11.662
96.82000 11.250
96.84000 2.786
96.86000 1.399
96.88000 5.135
96.90000 7.422
96.92000 8.579
96.94000 4.744
96.96000 8.441
96.98000 8.797
97.00000 6.731
97.02000 6.066
97.04000 -2.254
97.06000 2.631
97.08000 3.139
97.10000 2.431
97.12000 2.287
97.14000 4.638
97.16000 5.585
97.18000 9.767
97.20000 10.360
97.22000 2.685
97.24000 1.524
97.26000 1.176
97.28000 11.314
97.30000 9.156
97.32000 0.695
97.34000 6.219
97.36000 8.793
97.38000 8.758
97.40000 -0.341
97.42000 6.581
97.44000 9.531
97.46000 0.969
97.48000 1.566
97.50000 5.299
97.52000 5.958
97.54000 6.136
97.56000 10.655
97.58000 9.233
97.60000 4.139
97.62000 2.194
97.64000 0.485
97.66000 2.485
97.68000 3.607
97.70000 8.883
97.72000 10.341
97.74000 9.563
97.76000 11.690
97.78000 8.060
97.80000 3.879
97.82000 6.692
97.84000 6.166
97.86000 4.560
97.88000 13.381
97.90000 12.516
97.92000 11.897
97.94000 1.210
97.96000 -2.209
97.98000 7.179
98.00000 9.337
98.02000 14.295
98.04000 14.047
98.06000 16.695
98.08000 8.093
98.10000 9.028
98.12000 0.482
98.14000 6.362
98.16000 4.215
98.18000 10.435
98.20000 1.867
98.22000 6.591
98.24000 6.473
98.26000 -0.613
98.28000 -0.542
98.30000 1.979
98.32000 9.576
98.34000 2.375
98.36000 -1.950
98.38000 -0.067
98.40000 2.194
98.42000 -0.425
98.44000 9.438
98.46000 11.471
98.48000 11.225
98.50000 12.059
98.52000 3.629
98.54000 4.196
98.56000 4.761
98.58000 6.056
98.60000 14.925
98.62000 5.668
98.64000 7.207
98.66000 6.116
98.68000 7.990
98.70000 1.355
98.72000 6.716
98.74000 -2.210
98.76000 3.877
98.78000 11.214
98.80000 8.486
98.82000 7.892
98.84000 5.729
98.86000 -0.899
98.88000 -2.213
98.90000 1.521
98.92000 7.862
98.94000 3.169
98.96000 -1.449
98.98000 0.503
99.00000 8.856
99.02000 4.225
99.04000 15.200
99.06000 6.214
99.08000 11.777
99.10000 6.776
99.12000 11.544
99.14000 12.117
99.16000 6.804
99.18000 0.955
99.20000 5.026
99.22000 9.096
99.24000 7.701
99.26000 13.194
99.28000 17.914
99.30000 14.549
99.32000 6.546
99.34000 4.106
99.36000 -2.249
99.38000 3.766
99.40000 2.526
99.42000 12.077
99.44000 -2.320
99.46000 5.936
99.48000 13.571
99.50000 11.106
99.52000 10.932
99.54000 11.033
99.56000 2.856
99.58000 -2.283
99.60000 0.476
99.62000 2.565
99.64000 7.024
99.66000 -1.862
99.68000 2.122
99.70000 4.126
99.72000 -1.774
99.74000 -2.323
99.76000 1.026
99.78000 9.517
99.80000 2.517
99.82000 15.313
99.84000 -5.550
99.86000 -2.384
99.88000 7.815
99.90000 8.077
99.92000 0.789
99.94000 -0.410
99.96000 -2.441
99.98000 0.000
