'Id: "0011388" Comment: "Integrate frame 0011388_Au-Ir-Rh_Rh-rich_XRD-Mapping-097-0000.gfrmwith cursor Wedge Cursor #5" Operator: "B?rgel" Anode: "Cu" Wavelength: "1.5406" Scantype: "2Theta (TwoTheta)" TimePerStep: "1" X: "-31.5" Y: "-13.5" Z: "5.95" 
10.00000 0.000
10.02000 4.207
10.04000 -4.632
10.06000 -4.604
10.08000 -1.410
10.10000 -4.566
10.12000 21.148
10.14000 24.302
10.16000 3.426
10.18000 8.160
10.20000 12.541
10.22000 25.880
10.24000 19.220
10.26000 14.615
10.28000 0.938
10.30000 7.610
10.32000 1.371
10.34000 0.858
10.36000 0.045
10.38000 -2.082
10.40000 6.911
10.42000 11.394
10.44000 24.808
10.46000 9.305
10.48000 9.534
10.50000 17.319
10.52000 10.667
10.54000 3.259
10.56000 -4.428
10.58000 -0.870
10.60000 18.704
10.62000 18.932
10.64000 3.557
10.66000 -1.073
10.68000 13.677
10.70000 11.424
10.72000 6.040
10.74000 16.311
10.76000 15.484
10.78000 17.259
10.80000 11.364
10.82000 19.003
10.84000 16.614
10.86000 9.142
10.88000 5.604
10.90000 3.371
10.92000 18.049
10.94000 29.634
10.96000 22.340
10.98000 19.522
11.00000 16.691
11.02000 9.431
11.04000 28.139
11.06000 20.405
11.08000 21.351
11.10000 27.929
11.12000 9.012
11.14000 -2.154
11.16000 3.888
11.18000 19.222
11.20000 25.354
11.22000 22.239
11.24000 18.158
11.26000 15.112
11.28000 12.090
11.30000 23.869
11.32000 10.109
11.34000 4.809
11.36000 18.640
11.38000 19.715
11.40000 12.930
11.42000 13.793
11.44000 11.750
11.46000 10.185
11.48000 13.028
11.50000 14.730
11.52000 14.934
11.54000 8.086
11.56000 -1.016
11.58000 6.409
11.60000 18.338
11.62000 24.681
11.64000 21.906
11.66000 14.593
11.68000 10.217
11.70000 16.219
11.72000 12.637
11.74000 12.346
11.76000 22.587
11.78000 17.152
11.80000 8.842
11.82000 16.583
11.84000 32.476
11.86000 15.400
11.88000 0.335
11.90000 15.822
11.92000 19.769
11.94000 24.408
11.96000 10.080
11.98000 -4.119
12.00000 6.598
12.02000 9.104
12.04000 -4.421
12.06000 7.129
12.08000 14.251
12.10000 11.792
12.12000 23.103
12.14000 27.147
12.16000 24.432
12.18000 15.845
12.20000 10.815
12.22000 13.299
12.24000 14.768
12.26000 9.065
12.28000 8.431
12.30000 15.266
12.32000 10.282
12.34000 15.037
12.36000 15.360
12.38000 11.636
12.40000 11.996
12.42000 15.498
12.44000 13.540
12.46000 22.693
12.48000 19.350
12.50000 12.263
12.52000 12.653
12.54000 11.825
12.56000 2.861
12.58000 15.282
12.60000 17.924
12.62000 16.023
12.64000 10.801
12.66000 10.630
12.68000 13.027
12.70000 8.384
12.72000 16.382
12.74000 12.993
12.76000 9.417
12.78000 8.983
12.80000 17.293
12.82000 18.898
12.84000 16.949
12.86000 9.961
12.88000 8.072
12.90000 11.388
12.92000 12.140
12.94000 15.722
12.96000 4.342
12.98000 6.741
13.00000 12.484
13.02000 18.858
13.04000 20.565
13.06000 28.755
13.08000 18.497
13.10000 10.640
13.12000 22.339
13.14000 25.378
13.16000 20.612
13.18000 8.494
13.20000 15.815
13.22000 11.216
13.24000 5.862
13.26000 15.582
13.28000 14.898
13.30000 -1.043
13.32000 1.354
13.34000 -4.451
13.36000 2.586
13.38000 13.704
13.40000 10.208
13.42000 8.838
13.44000 5.078
13.46000 7.554
13.48000 15.161
13.50000 17.102
13.52000 12.488
13.54000 12.457
13.56000 3.858
13.58000 12.037
13.60000 17.170
13.62000 12.895
13.64000 10.046
13.66000 20.580
13.68000 18.285
13.70000 13.338
13.72000 11.726
13.74000 10.891
13.76000 10.601
13.78000 13.350
13.80000 6.855
13.82000 10.058
13.84000 9.515
13.86000 7.588
13.88000 6.525
13.90000 7.376
13.92000 3.326
13.94000 0.004
13.96000 7.594
13.98000 8.985
14.00000 10.324
14.02000 13.476
14.04000 12.220
14.06000 6.668
14.08000 14.585
14.10000 7.857
14.12000 10.507
14.14000 13.017
14.16000 9.264
14.18000 13.959
14.20000 11.400
14.22000 7.070
14.24000 11.838
14.26000 11.515
14.28000 5.643
14.30000 6.161
14.32000 4.985
14.34000 8.067
14.36000 11.962
14.38000 10.317
14.40000 7.585
14.42000 -1.050
14.44000 3.979
14.46000 8.485
14.48000 -1.703
14.50000 2.567
14.52000 4.894
14.54000 7.926
14.56000 6.727
14.58000 0.234
14.60000 -0.198
14.62000 0.991
14.64000 -0.914
14.66000 14.978
14.68000 12.113
14.70000 5.969
14.72000 -4.449
14.74000 -3.254
14.76000 1.422
14.78000 2.934
14.80000 4.609
14.82000 5.629
14.84000 8.540
14.86000 7.647
14.88000 5.605
14.90000 8.570
14.92000 18.343
14.94000 12.746
14.96000 2.119
14.98000 -3.209
15.00000 5.360
15.02000 2.211
15.04000 -3.461
15.06000 3.712
15.08000 2.630
15.10000 2.650
15.12000 11.734
15.14000 12.185
15.16000 13.404
15.18000 8.514
15.20000 10.771
15.22000 9.122
15.24000 10.790
15.26000 7.747
15.28000 8.508
15.30000 3.579
15.32000 -0.215
15.34000 6.706
15.36000 5.909
15.38000 3.978
15.40000 6.679
15.42000 7.017
15.44000 6.281
15.46000 8.515
15.48000 3.441
15.50000 8.849
15.52000 9.548
15.54000 0.820
15.56000 5.439
15.58000 9.782
15.60000 5.690
15.62000 -0.043
15.64000 5.301
15.66000 11.016
15.68000 7.952
15.70000 6.751
15.72000 5.802
15.74000 3.654
15.76000 4.337
15.78000 1.511
15.80000 0.345
15.82000 3.346
15.84000 11.953
15.86000 2.542
15.88000 -0.644
15.90000 6.281
15.92000 9.777
15.94000 1.545
15.96000 2.748
15.98000 8.055
16.00000 6.344
16.02000 -1.764
16.04000 6.726
16.06000 10.835
16.08000 4.848
16.10000 8.968
16.12000 11.472
16.14000 3.773
16.16000 -1.620
16.18000 -1.687
16.20000 -2.106
16.22000 3.926
16.24000 4.740
16.26000 3.487
16.28000 1.168
16.30000 -0.465
16.32000 -4.425
16.34000 -0.139
16.36000 10.597
16.38000 12.306
16.40000 3.683
16.42000 3.150
16.44000 3.632
16.46000 5.093
16.48000 1.914
16.50000 -0.931
16.52000 5.895
16.54000 4.439
16.56000 1.824
16.58000 6.540
16.60000 5.578
16.62000 0.490
16.64000 2.360
16.66000 4.492
16.68000 4.757
16.70000 6.435
16.72000 8.152
16.74000 6.184
16.76000 2.186
16.78000 2.922
16.80000 11.269
16.82000 7.559
16.84000 4.902
16.86000 5.087
16.88000 8.105
16.90000 1.655
16.92000 4.382
16.94000 7.710
16.96000 6.487
16.98000 10.739
17.00000 5.060
17.02000 2.441
17.04000 11.062
17.06000 13.454
17.08000 9.150
17.10000 0.953
17.12000 0.497
17.14000 -0.022
17.16000 5.809
17.18000 7.407
17.20000 5.762
17.22000 9.530
17.24000 5.921
17.26000 4.088
17.28000 8.876
17.30000 5.833
17.32000 6.053
17.34000 4.923
17.36000 10.440
17.38000 9.647
17.40000 8.932
17.42000 5.287
17.44000 4.319
17.46000 3.568
17.48000 0.342
17.50000 -0.503
17.52000 6.441
17.54000 5.052
17.56000 3.357
17.58000 2.711
17.60000 3.880
17.62000 6.226
17.64000 12.507
17.66000 8.803
17.68000 3.233
17.70000 4.892
17.72000 8.400
17.74000 8.264
17.76000 6.462
17.78000 13.398
17.80000 9.787
17.82000 3.023
17.84000 7.543
17.86000 11.290
17.88000 3.320
17.90000 8.870
17.92000 5.845
17.94000 7.251
17.96000 7.720
17.98000 8.686
18.00000 -2.348
18.02000 -2.558
18.04000 -1.019
18.06000 2.298
18.08000 2.222
18.10000 -3.103
18.12000 2.621
18.14000 4.951
18.16000 11.100
18.18000 7.938
18.20000 4.843
18.22000 2.786
18.24000 0.868
18.26000 7.442
18.28000 10.960
18.30000 6.893
18.32000 10.174
18.34000 21.064
18.36000 11.743
18.38000 2.174
18.40000 11.693
18.42000 4.694
18.44000 1.977
18.46000 4.146
18.48000 7.381
18.50000 12.971
18.52000 6.898
18.54000 3.721
18.56000 12.332
18.58000 5.204
18.60000 2.609
18.62000 6.660
18.64000 8.413
18.66000 -4.258
18.68000 0.402
18.70000 9.702
18.72000 3.395
18.74000 4.723
18.76000 6.777
18.78000 3.906
18.80000 2.306
18.82000 9.451
18.84000 12.058
18.86000 14.871
18.88000 10.156
18.90000 3.188
18.92000 7.276
18.94000 8.897
18.96000 14.818
18.98000 12.779
19.00000 12.048
19.02000 2.322
19.04000 5.260
19.06000 9.181
19.08000 1.877
19.10000 -0.862
19.12000 6.701
19.14000 10.078
19.16000 6.879
19.18000 0.968
19.20000 -1.007
19.22000 3.549
19.24000 5.801
19.26000 9.244
19.28000 9.752
19.30000 7.425
19.32000 7.452
19.34000 11.242
19.36000 12.249
19.38000 9.494
19.40000 6.336
19.42000 -0.296
19.44000 6.261
19.46000 9.471
19.48000 3.057
19.50000 -1.750
19.52000 2.230
19.54000 8.190
19.56000 -0.328
19.58000 2.270
19.60000 -0.827
19.62000 5.743
19.64000 8.781
19.66000 6.128
19.68000 -0.343
19.70000 -0.173
19.72000 1.667
19.74000 -1.533
19.76000 -1.775
19.78000 5.395
19.80000 6.436
19.82000 0.001
19.84000 3.425
19.86000 3.559
19.88000 2.597
19.90000 3.545
19.92000 5.072
19.94000 11.410
19.96000 8.471
19.98000 11.143
20.00000 7.037
20.02000 1.847
20.04000 6.350
20.06000 3.575
20.08000 8.212
20.10000 1.965
20.12000 -2.050
20.14000 1.920
20.16000 7.233
20.18000 3.986
20.20000 2.153
20.22000 0.515
20.24000 -0.136
20.26000 5.045
20.28000 6.706
20.30000 0.648
20.32000 1.478
20.34000 -1.196
20.36000 -4.187
20.38000 -1.084
20.40000 4.884
20.42000 -0.878
20.44000 3.975
20.46000 7.789
20.48000 1.518
20.50000 1.009
20.52000 -0.702
20.54000 2.248
20.56000 8.621
20.58000 6.513
20.60000 1.342
20.62000 3.117
20.64000 14.187
20.66000 10.277
20.68000 2.040
20.70000 7.465
20.72000 10.056
20.74000 9.461
20.76000 3.122
20.78000 5.145
20.80000 12.357
20.82000 5.512
20.84000 2.834
20.86000 3.713
20.88000 3.769
20.90000 1.389
20.92000 5.110
20.94000 7.105
20.96000 4.965
20.98000 4.942
21.00000 2.251
21.02000 7.733
21.04000 6.685
21.06000 4.351
21.08000 1.704
21.10000 5.131
21.12000 9.898
21.14000 5.510
21.16000 -4.114
21.18000 4.854
21.20000 7.046
21.22000 3.586
21.24000 7.254
21.26000 11.620
21.28000 11.970
21.30000 11.253
21.32000 4.766
21.34000 2.829
21.36000 3.722
21.38000 -0.587
21.40000 -0.162
21.42000 4.634
21.44000 3.965
21.46000 3.699
21.48000 3.773
21.50000 2.933
21.52000 7.443
21.54000 4.110
21.56000 0.875
21.58000 7.280
21.60000 5.084
21.62000 1.714
21.64000 2.288
21.66000 5.766
21.68000 12.283
21.70000 7.958
21.72000 6.466
21.74000 4.878
21.76000 8.222
21.78000 11.018
21.80000 0.610
21.82000 1.431
21.84000 1.029
21.86000 2.368
21.88000 6.347
21.90000 4.528
21.92000 6.597
21.94000 7.750
21.96000 7.495
21.98000 12.532
22.00000 7.335
22.02000 6.643
22.04000 2.389
22.06000 3.332
22.08000 4.513
22.10000 -4.097
22.12000 1.998
22.14000 3.797
22.16000 6.365
22.18000 4.571
22.20000 6.235
22.22000 2.556
22.24000 4.049
22.26000 4.961
22.28000 5.596
22.30000 -1.219
22.32000 -3.577
22.34000 4.618
22.36000 6.075
22.38000 7.797
22.40000 10.240
22.42000 5.669
22.44000 4.842
22.46000 1.451
22.48000 4.994
22.50000 5.904
22.52000 10.310
22.54000 9.679
22.56000 10.726
22.58000 0.206
22.60000 2.787
22.62000 2.937
22.64000 2.327
22.66000 2.432
22.68000 3.386
22.70000 8.012
22.72000 6.474
22.74000 7.698
22.76000 2.972
22.78000 4.704
22.80000 2.407
22.82000 4.473
22.84000 3.809
22.86000 6.034
22.88000 6.920
22.90000 5.106
22.92000 9.505
22.94000 9.222
22.96000 11.706
22.98000 9.907
23.00000 1.234
23.02000 0.642
23.04000 4.618
23.06000 -0.288
23.08000 2.790
23.10000 7.610
23.12000 7.697
23.14000 4.587
23.16000 5.240
23.18000 7.307
23.20000 2.116
23.22000 -3.933
23.24000 -0.839
23.26000 -2.000
23.28000 0.236
23.30000 1.820
23.32000 7.586
23.34000 5.515
23.36000 1.866
23.38000 -0.933
23.40000 1.259
23.42000 6.807
23.44000 1.641
23.46000 0.101
23.48000 -4.035
23.50000 -3.081
23.52000 -0.594
23.54000 -2.330
23.56000 -0.242
23.58000 4.349
23.60000 5.169
23.62000 1.983
23.64000 -1.173
23.66000 0.916
23.68000 2.770
23.70000 6.016
23.72000 2.138
23.74000 1.146
23.76000 1.887
23.78000 4.922
23.80000 9.822
23.82000 3.103
23.84000 -1.151
23.86000 4.397
23.88000 -2.028
23.90000 -4.010
23.92000 2.616
23.94000 6.578
23.96000 4.808
23.98000 2.071
24.00000 6.075
24.02000 3.072
24.04000 3.744
24.06000 0.678
24.08000 -1.045
24.10000 -1.973
24.12000 -2.516
24.14000 3.837
24.16000 3.936
24.18000 -2.335
24.20000 1.151
24.22000 0.232
24.24000 1.834
24.26000 0.064
24.28000 -0.516
24.30000 3.052
24.32000 4.044
24.34000 3.177
24.36000 1.718
24.38000 2.945
24.40000 3.056
24.42000 3.772
24.44000 5.164
24.46000 5.647
24.48000 2.908
24.50000 4.110
24.52000 9.832
24.54000 5.478
24.56000 2.113
24.58000 -2.265
24.60000 0.011
24.62000 3.043
24.64000 1.184
24.66000 -0.648
24.68000 -3.463
24.70000 -3.953
24.72000 2.732
24.74000 8.218
24.76000 5.839
24.78000 2.824
24.80000 -0.120
24.82000 1.686
24.84000 4.867
24.86000 4.990
24.88000 2.885
24.90000 7.709
24.92000 8.469
24.94000 3.356
24.96000 -2.149
24.98000 2.935
25.00000 8.454
25.02000 2.656
25.04000 1.236
25.06000 3.635
25.08000 8.951
25.10000 7.553
25.12000 6.386
25.14000 4.645
25.16000 4.599
25.18000 6.146
25.20000 5.598
25.22000 2.031
25.24000 -0.834
25.26000 0.784
25.28000 0.741
25.30000 1.617
25.32000 4.200
25.34000 4.497
25.36000 2.945
25.38000 6.083
25.40000 3.622
25.42000 1.221
25.44000 -3.205
25.46000 -3.495
25.48000 -0.171
25.50000 2.267
25.52000 3.736
25.54000 5.746
25.56000 1.510
25.58000 -3.916
25.60000 -1.674
25.62000 -1.154
25.64000 1.542
25.66000 1.466
25.68000 4.943
25.70000 4.544
25.72000 4.515
25.74000 6.080
25.76000 -0.792
25.78000 5.350
25.80000 2.715
25.82000 -1.375
25.84000 1.935
25.86000 0.230
25.88000 0.764
25.90000 1.186
25.92000 5.620
25.94000 7.959
25.96000 1.845
25.98000 -0.679
26.00000 -2.652
26.02000 -0.234
26.04000 1.699
26.06000 0.775
26.08000 0.634
26.10000 5.523
26.12000 -0.021
26.14000 0.689
26.16000 6.923
26.18000 9.288
26.20000 1.632
26.22000 5.390
26.24000 5.015
26.26000 3.341
26.28000 0.211
26.30000 4.982
26.32000 4.812
26.34000 -0.164
26.36000 -3.036
26.38000 -3.581
26.40000 1.978
26.42000 5.827
26.44000 -1.559
26.46000 -2.475
26.48000 1.888
26.50000 2.617
26.52000 -1.373
26.54000 -0.312
26.56000 4.851
26.58000 3.820
26.60000 2.807
26.62000 1.430
26.64000 -1.045
26.66000 -0.766
26.68000 6.486
26.70000 3.182
26.72000 1.590
26.74000 3.693
26.76000 6.147
26.78000 3.931
26.80000 4.892
26.82000 2.034
26.84000 -0.965
26.86000 0.620
26.88000 0.013
26.90000 1.390
26.92000 -0.446
26.94000 2.707
26.96000 4.534
26.98000 1.578
27.00000 -3.846
27.02000 -0.944
27.04000 3.822
27.06000 5.593
27.08000 4.599
27.10000 4.956
27.12000 3.659
27.14000 3.709
27.16000 5.259
27.18000 -1.208
27.20000 0.153
27.22000 0.163
27.24000 0.779
27.26000 4.356
27.28000 4.438
27.30000 4.864
27.32000 5.287
27.34000 3.989
27.36000 1.443
27.38000 7.638
27.40000 2.936
27.42000 0.669
27.44000 -0.147
27.46000 3.718
27.48000 3.728
27.50000 -3.804
27.52000 -1.459
27.54000 6.074
27.56000 4.004
27.58000 4.983
27.60000 4.493
27.62000 2.746
27.64000 -3.115
27.66000 -1.365
27.68000 3.000
27.70000 2.171
27.72000 2.331
27.74000 2.967
27.76000 5.324
27.78000 9.065
27.80000 1.972
27.82000 -3.772
27.84000 -0.084
27.86000 7.852
27.88000 10.323
27.90000 6.614
27.92000 1.588
27.94000 -0.347
27.96000 0.031
27.98000 1.010
28.00000 0.658
28.02000 2.350
28.04000 4.794
28.06000 5.496
28.08000 4.334
28.10000 1.790
28.12000 2.422
28.14000 6.952
28.16000 0.884
28.18000 -2.690
28.20000 2.585
28.22000 9.112
28.24000 3.388
28.26000 7.165
28.28000 3.219
28.30000 4.511
28.32000 11.162
28.34000 7.429
28.36000 2.368
28.38000 1.539
28.40000 3.204
28.42000 0.644
28.44000 0.090
28.46000 3.274
28.48000 2.116
28.50000 5.326
28.52000 5.100
28.54000 3.440
28.56000 2.464
28.58000 3.801
28.60000 0.521
28.62000 3.586
28.64000 9.746
28.66000 11.041
28.68000 7.021
28.70000 4.051
28.72000 2.078
28.74000 3.225
28.76000 4.922
28.78000 2.515
28.80000 1.090
28.82000 2.768
28.84000 -1.741
28.86000 -2.244
28.88000 5.124
28.90000 0.436
28.92000 2.637
28.94000 4.768
28.96000 0.982
28.98000 1.666
29.00000 4.446
29.02000 -2.803
29.04000 -1.169
29.06000 8.853
29.08000 10.375
29.10000 7.587
29.12000 4.694
29.14000 2.078
29.16000 3.612
29.18000 11.895
29.20000 6.350
29.22000 2.062
29.24000 4.209
29.26000 5.396
29.28000 1.046
29.30000 -2.738
29.32000 -0.359
29.34000 1.538
29.36000 4.641
29.38000 8.057
29.40000 2.030
29.42000 2.788
29.44000 2.263
29.46000 1.855
29.48000 0.693
29.50000 -1.091
29.52000 -1.197
29.54000 7.068
29.56000 4.860
29.58000 -0.276
29.60000 1.314
29.62000 -0.580
29.64000 -3.674
29.66000 -1.650
29.68000 6.568
29.70000 6.731
29.72000 4.546
29.74000 5.682
29.76000 4.365
29.78000 6.036
29.80000 4.499
29.82000 5.576
29.84000 3.800
29.86000 8.789
29.88000 4.660
29.90000 10.234
29.92000 9.167
29.94000 6.108
29.96000 5.128
29.98000 3.350
30.00000 5.618
30.02000 1.452
30.04000 -3.155
30.06000 -0.952
30.08000 1.692
30.10000 2.808
30.12000 -0.892
30.14000 1.363
30.16000 -0.364
30.18000 0.032
30.20000 3.262
30.22000 1.465
30.24000 4.443
30.26000 0.555
30.28000 0.700
30.30000 1.032
30.32000 4.460
30.34000 1.421
30.36000 6.280
30.38000 6.335
30.40000 5.516
30.42000 8.796
30.44000 4.155
30.46000 5.380
30.48000 5.117
30.50000 7.159
30.52000 10.374
30.54000 1.851
30.56000 -3.653
30.58000 3.360
30.60000 2.953
30.62000 7.903
30.64000 5.332
30.66000 3.944
30.68000 2.004
30.70000 0.324
30.72000 3.157
30.74000 2.532
30.76000 3.631
30.78000 2.805
30.80000 1.552
30.82000 -1.946
30.84000 -1.201
30.86000 3.521
30.88000 6.781
30.90000 6.763
30.92000 -0.327
30.94000 6.823
30.96000 8.164
30.98000 4.622
31.00000 -0.717
31.02000 0.578
31.04000 0.191
31.06000 2.396
31.08000 2.212
31.10000 3.476
31.12000 4.115
31.14000 6.833
31.16000 1.098
31.18000 -3.470
31.20000 0.467
31.22000 2.478
31.24000 4.390
31.26000 3.815
31.28000 -2.729
31.30000 -3.612
31.32000 -1.178
31.34000 -2.269
31.36000 3.417
31.38000 5.888
31.40000 3.514
31.42000 2.287
31.44000 2.370
31.46000 8.288
31.48000 9.264
31.50000 4.077
31.52000 3.487
31.54000 -1.732
31.56000 0.431
31.58000 -0.568
31.60000 -0.222
31.62000 0.269
31.64000 2.670
31.66000 3.564
31.68000 4.125
31.70000 6.100
31.72000 0.680
31.74000 -1.555
31.76000 -1.528
31.78000 1.272
31.80000 3.714
31.82000 3.858
31.84000 3.158
31.86000 2.591
31.88000 3.089
31.90000 2.282
31.92000 1.852
31.94000 -0.992
31.96000 -1.541
31.98000 -3.612
32.00000 -3.504
32.02000 -3.499
32.04000 3.378
32.06000 5.499
32.08000 4.592
32.10000 2.109
32.12000 1.226
32.14000 2.043
32.16000 -1.661
32.18000 -1.568
32.20000 -1.510
32.22000 -3.311
32.24000 2.744
32.26000 1.277
32.28000 0.559
32.30000 0.174
32.32000 1.513
32.34000 1.552
32.36000 0.019
32.38000 -1.800
32.40000 -1.743
32.42000 -2.019
32.44000 -0.105
32.46000 4.585
32.48000 4.978
32.50000 3.555
32.52000 3.234
32.54000 0.732
32.56000 0.656
32.58000 -1.583
32.60000 -3.151
32.62000 -3.592
32.64000 -0.264
32.66000 3.546
32.68000 -1.153
32.70000 1.453
32.72000 1.992
32.74000 2.137
32.76000 0.891
32.78000 1.031
32.80000 0.918
32.82000 2.604
32.84000 1.208
32.86000 1.564
32.88000 -3.585
32.90000 -2.422
32.92000 -0.588
32.94000 2.019
32.96000 0.838
32.98000 -1.332
33.00000 -0.921
33.02000 0.788
33.04000 2.613
33.06000 3.768
33.08000 1.740
33.10000 0.494
33.12000 1.667
33.14000 3.609
33.16000 1.440
33.18000 -0.202
33.20000 1.531
33.22000 1.194
33.24000 1.233
33.26000 -0.097
33.28000 -0.308
33.30000 6.287
33.32000 1.032
33.34000 -1.106
33.36000 0.031
33.38000 3.016
33.40000 0.592
33.42000 -3.007
33.44000 -0.453
33.46000 1.239
33.48000 -2.741
33.50000 -2.364
33.52000 -1.873
33.54000 0.588
33.56000 6.713
33.58000 1.200
33.60000 -3.550
33.62000 -1.200
33.64000 3.295
33.66000 4.086
33.68000 3.014
33.70000 4.715
33.72000 -0.702
33.74000 -2.212
33.76000 1.330
33.78000 -0.234
33.80000 -2.048
33.82000 1.829
33.84000 3.554
33.86000 0.470
33.88000 -3.541
33.90000 -0.798
33.92000 -0.478
33.94000 4.948
33.96000 9.512
33.98000 6.018
34.00000 4.059
34.02000 4.870
34.04000 3.771
34.06000 3.299
34.08000 0.900
34.10000 1.444
34.12000 3.392
34.14000 1.958
34.16000 1.262
34.18000 2.260
34.20000 6.835
34.22000 2.634
34.24000 5.779
34.26000 5.578
34.28000 1.302
34.30000 2.354
34.32000 4.766
34.34000 3.182
34.36000 6.549
34.38000 2.201
34.40000 -3.532
34.42000 -3.326
34.44000 0.874
34.46000 -2.404
34.48000 3.479
34.50000 2.306
34.52000 -0.743
34.54000 1.359
34.56000 1.548
34.58000 0.299
34.60000 1.185
34.62000 -1.428
34.64000 -0.988
34.66000 0.768
34.68000 -0.082
34.70000 5.231
34.72000 8.022
34.74000 5.131
34.76000 4.651
34.78000 2.727
34.80000 3.602
34.82000 -0.670
34.84000 0.987
34.86000 2.894
34.88000 0.553
34.90000 1.394
34.92000 5.382
34.94000 6.346
34.96000 -0.189
34.98000 0.214
35.00000 2.438
35.02000 6.796
35.04000 2.586
35.06000 -2.123
35.08000 -0.900
35.10000 -3.508
35.12000 1.738
35.14000 4.257
35.16000 1.228
35.18000 -3.518
35.20000 -1.140
35.22000 0.850
35.24000 2.171
35.26000 -1.773
35.28000 -0.256
35.30000 1.542
35.32000 0.624
35.34000 1.194
35.36000 2.427
35.38000 -0.314
35.40000 3.102
35.42000 4.141
35.44000 0.246
35.46000 -3.354
35.48000 3.759
35.50000 4.725
35.52000 2.151
35.54000 3.579
35.56000 1.681
35.58000 5.664
35.60000 3.836
35.62000 7.123
35.64000 6.671
35.66000 -1.285
35.68000 -3.500
35.70000 -0.594
35.72000 5.883
35.74000 2.487
35.76000 1.000
35.78000 2.019
35.80000 4.095
35.82000 1.182
35.84000 -0.098
35.86000 1.849
35.88000 -0.754
35.90000 -2.932
35.92000 1.184
35.94000 -0.406
35.96000 -3.499
35.98000 -0.157
36.00000 4.446
36.02000 -1.292
36.04000 -1.981
36.06000 -3.130
36.08000 3.704
36.10000 6.425
36.12000 0.404
36.14000 3.235
36.16000 2.531
36.18000 3.341
36.20000 0.073
36.22000 3.416
36.24000 1.726
36.26000 1.807
36.28000 4.608
36.30000 5.424
36.32000 7.249
36.34000 3.613
36.36000 5.441
36.38000 4.908
36.40000 5.136
36.42000 7.056
36.44000 4.339
36.46000 5.495
36.48000 7.124
36.50000 2.918
36.52000 0.170
36.54000 3.839
36.56000 7.377
36.58000 9.138
36.60000 7.946
36.62000 8.799
36.64000 0.089
36.66000 -3.481
36.68000 -1.817
36.70000 1.503
36.72000 2.647
36.74000 2.405
36.76000 3.682
36.78000 2.720
36.80000 7.608
36.82000 4.414
36.84000 0.950
36.86000 -1.741
36.88000 -2.527
36.90000 6.745
36.92000 3.756
36.94000 -1.822
36.96000 -1.481
36.98000 -0.450
37.00000 1.075
37.02000 4.254
37.04000 2.994
37.06000 -1.277
37.08000 -1.369
37.10000 0.996
37.12000 0.808
37.14000 -1.954
37.16000 -2.519
37.18000 -1.918
37.20000 -0.065
37.22000 -1.005
37.24000 -3.560
37.26000 1.114
37.28000 3.933
37.30000 2.145
37.32000 1.105
37.34000 3.438
37.36000 1.564
37.38000 5.717
37.40000 -2.701
37.42000 -1.484
37.44000 0.219
37.46000 1.192
37.48000 4.798
37.50000 2.655
37.52000 1.437
37.54000 2.099
37.56000 0.173
37.58000 0.703
37.60000 -1.781
37.62000 1.838
37.64000 -1.309
37.66000 -0.769
37.68000 0.989
37.70000 -0.306
37.72000 4.667
37.74000 0.473
37.76000 -0.199
37.78000 0.775
37.80000 3.677
37.82000 8.392
37.84000 5.623
37.86000 3.208
37.88000 -0.176
37.90000 0.122
37.92000 1.395
37.94000 2.481
37.96000 5.692
37.98000 2.838
38.00000 2.380
38.02000 4.098
38.04000 4.104
38.06000 5.216
38.08000 4.326
38.10000 5.940
38.12000 6.982
38.14000 6.654
38.16000 8.436
38.18000 11.336
38.20000 9.380
38.22000 5.048
38.24000 9.265
38.26000 9.279
38.28000 14.116
38.30000 11.008
38.32000 10.418
38.34000 12.724
38.36000 9.801
38.38000 9.187
38.40000 15.832
38.42000 9.375
38.44000 10.797
38.46000 14.776
38.48000 11.705
38.50000 13.891
38.52000 16.138
38.54000 19.375
38.56000 19.613
38.58000 15.302
38.60000 16.193
38.62000 16.051
38.64000 20.358
38.66000 18.267
38.68000 18.803
38.70000 18.792
38.72000 21.056
38.74000 21.515
38.76000 21.469
38.78000 19.657
38.80000 21.937
38.82000 24.214
38.84000 23.407
38.86000 25.264
38.88000 27.639
38.90000 26.054
38.92000 29.084
38.94000 30.554
38.96000 31.487
38.98000 31.952
39.00000 37.678
39.02000 36.751
39.04000 36.009
39.06000 32.664
39.08000 28.810
39.10000 32.068
39.12000 37.918
39.14000 42.195
39.16000 43.053
39.18000 44.898
39.20000 45.183
39.22000 51.660
39.24000 54.565
39.26000 58.869
39.28000 63.687
39.30000 59.422
39.32000 62.452
39.34000 63.283
39.36000 62.718
39.38000 69.612
39.40000 71.971
39.42000 73.042
39.44000 78.594
39.46000 77.996
39.48000 82.113
39.50000 86.379
39.52000 93.864
39.54000 100.666
39.56000 100.356
39.58000 109.235
39.60000 117.829
39.62000 121.431
39.64000 123.891
39.66000 135.785
39.68000 142.382
39.70000 152.495
39.72000 157.141
39.74000 162.288
39.76000 170.707
39.78000 183.003
39.80000 191.144
39.82000 199.657
39.84000 210.388
39.86000 220.890
39.88000 236.274
39.90000 256.426
39.92000 262.039
39.94000 265.819
39.96000 278.694
39.98000 295.309
40.00000 316.363
40.02000 329.405
40.04000 336.491
40.06000 357.584
40.08000 376.458
40.10000 391.425
40.12000 414.710
40.14000 430.271
40.16000 441.782
40.18000 447.763
40.20000 470.412
40.22000 487.679
40.24000 498.799
40.26000 510.705
40.28000 521.678
40.30000 543.224
40.32000 555.640
40.34000 553.395
40.36000 563.526
40.38000 574.010
40.40000 584.481
40.42000 591.052
40.44000 593.961
40.46000 593.975
40.48000 580.429
40.50000 568.390
40.52000 568.693
40.54000 558.903
40.56000 556.926
40.58000 548.387
40.60000 529.667
40.62000 527.551
40.64000 515.687
40.66000 499.670
40.68000 483.848
40.70000 465.212
40.72000 458.900
40.74000 442.329
40.76000 420.496
40.78000 407.783
40.80000 391.734
40.82000 368.760
40.84000 355.413
40.86000 341.086
40.88000 317.047
40.90000 306.530
40.92000 292.016
40.94000 278.325
40.96000 265.337
40.98000 255.976
41.00000 241.164
41.02000 230.467
41.04000 214.128
41.06000 206.420
41.08000 197.184
41.10000 187.198
41.12000 178.570
41.14000 163.874
41.16000 155.427
41.18000 144.953
41.20000 140.212
41.22000 133.102
41.24000 120.008
41.26000 122.948
41.28000 116.992
41.30000 106.840
41.32000 100.185
41.34000 99.775
41.36000 93.688
41.38000 88.432
41.40000 80.451
41.42000 77.213
41.44000 71.147
41.46000 66.039
41.48000 61.334
41.50000 59.296
41.52000 55.606
41.54000 54.468
41.56000 56.236
41.58000 54.369
41.60000 48.281
41.62000 41.331
41.64000 47.050
41.66000 44.959
41.68000 45.395
41.70000 40.540
41.72000 35.215
41.74000 27.665
41.76000 29.302
41.78000 26.601
41.80000 24.101
41.82000 24.605
41.84000 24.593
41.86000 24.729
41.88000 21.225
41.90000 19.928
41.92000 21.967
41.94000 19.049
41.96000 15.965
41.98000 15.409
42.00000 15.806
42.02000 18.178
42.04000 17.250
42.06000 12.140
42.08000 12.962
42.10000 14.977
42.12000 12.294
42.14000 10.480
42.16000 15.101
42.18000 14.582
42.20000 11.969
42.22000 12.657
42.24000 13.796
42.26000 10.317
42.28000 10.435
42.30000 8.247
42.32000 8.079
42.34000 7.415
42.36000 4.788
42.38000 10.236
42.40000 8.233
42.42000 6.525
42.44000 5.598
42.46000 4.420
42.48000 4.167
42.50000 5.738
42.52000 1.626
42.54000 -0.152
42.56000 2.964
42.58000 2.710
42.60000 4.338
42.62000 8.143
42.64000 10.836
42.66000 7.724
42.68000 -0.311
42.70000 3.942
42.72000 4.622
42.74000 4.051
42.76000 1.827
42.78000 -1.610
42.80000 1.536
42.82000 -2.273
42.84000 -0.089
42.86000 -0.305
42.88000 1.046
42.90000 2.322
42.92000 3.294
42.94000 4.386
42.96000 7.914
42.98000 2.239
43.00000 -2.718
43.02000 -3.071
43.04000 -2.220
43.06000 0.771
43.08000 -1.243
43.10000 2.967
43.12000 5.347
43.14000 5.562
43.16000 2.051
43.18000 -1.417
43.20000 -1.566
43.22000 2.121
43.24000 0.813
43.26000 0.918
43.28000 4.760
43.30000 3.223
43.32000 2.225
43.34000 3.740
43.36000 -1.454
43.38000 -0.387
43.40000 4.849
43.42000 3.669
43.44000 1.935
43.46000 1.971
43.48000 1.997
43.50000 -3.421
43.52000 -1.029
43.54000 -0.766
43.56000 1.328
43.58000 2.424
43.60000 1.837
43.62000 5.678
43.64000 4.400
43.66000 5.564
43.68000 3.808
43.70000 1.369
43.72000 0.838
43.74000 -0.178
43.76000 -1.066
43.78000 2.251
43.80000 4.039
43.82000 1.238
43.84000 4.154
43.86000 0.141
43.88000 -1.516
43.90000 2.404
43.92000 4.284
43.94000 0.345
43.96000 0.242
43.98000 -2.599
44.00000 1.330
44.02000 6.028
44.04000 2.985
44.06000 1.350
44.08000 2.565
44.10000 2.921
44.12000 2.049
44.14000 1.201
44.16000 -2.199
44.18000 -1.014
44.20000 -1.180
44.22000 -0.038
44.24000 0.917
44.26000 5.390
44.28000 5.809
44.30000 3.902
44.32000 2.315
44.34000 -0.265
44.36000 2.045
44.38000 1.958
44.40000 -3.386
44.42000 -1.328
44.44000 4.670
44.46000 5.699
44.48000 -0.944
44.50000 1.749
44.52000 7.837
44.54000 8.343
44.56000 4.098
44.58000 2.966
44.60000 4.870
44.62000 6.780
44.64000 4.772
44.66000 2.652
44.68000 1.597
44.70000 2.971
44.72000 2.461
44.74000 2.209
44.76000 0.207
44.78000 0.287
44.80000 2.044
44.82000 7.726
44.84000 6.736
44.86000 -2.608
44.88000 0.352
44.90000 5.392
44.92000 6.120
44.94000 6.908
44.96000 6.160
44.98000 1.415
45.00000 4.611
45.02000 3.577
45.04000 0.907
45.06000 2.863
45.08000 5.910
45.10000 3.484
45.12000 2.942
45.14000 4.269
45.16000 9.343
45.18000 9.751
45.20000 7.011
45.22000 1.411
45.24000 2.617
45.26000 1.875
45.28000 5.024
45.30000 1.565
45.32000 9.141
45.34000 12.452
45.36000 8.028
45.38000 7.490
45.40000 7.814
45.42000 8.735
45.44000 7.180
45.46000 14.512
45.48000 13.875
45.50000 12.517
45.52000 16.276
45.54000 11.967
45.56000 11.714
45.58000 16.456
45.60000 14.021
45.62000 13.138
45.64000 10.700
45.66000 13.073
45.68000 14.598
45.70000 16.742
45.72000 20.594
45.74000 16.114
45.76000 12.731
45.78000 16.976
45.80000 19.392
45.82000 22.651
45.84000 27.950
45.86000 31.641
45.88000 24.246
45.90000 21.426
45.92000 24.839
45.94000 27.448
45.96000 29.873
45.98000 36.173
46.00000 30.678
46.02000 30.114
46.04000 27.867
46.06000 25.774
46.08000 26.408
46.10000 31.642
46.12000 35.654
46.14000 36.066
46.16000 39.153
46.18000 33.225
46.20000 39.081
46.22000 41.166
46.24000 37.428
46.26000 41.033
46.28000 48.084
46.30000 52.107
46.32000 47.854
46.34000 47.767
46.36000 50.970
46.38000 53.389
46.40000 59.373
46.42000 56.835
46.44000 56.079
46.46000 57.189
46.48000 57.355
46.50000 62.809
46.52000 60.007
46.54000 59.541
46.56000 66.372
46.58000 70.550
46.60000 72.260
46.62000 73.972
46.64000 73.905
46.66000 77.560
46.68000 73.957
46.70000 75.156
46.72000 75.970
46.74000 82.880
46.76000 86.117
46.78000 86.152
46.80000 91.794
46.82000 88.951
46.84000 85.796
46.86000 85.796
46.88000 88.699
46.90000 83.025
46.92000 87.400
46.94000 82.799
46.96000 83.921
46.98000 92.512
47.00000 92.475
47.02000 88.195
47.04000 88.049
47.06000 93.778
47.08000 97.208
47.10000 90.369
47.12000 91.900
47.14000 88.899
47.16000 89.021
47.18000 91.601
47.20000 84.522
47.22000 85.790
47.24000 90.782
47.26000 87.909
47.28000 81.099
47.30000 88.848
47.32000 86.555
47.34000 79.267
47.36000 77.527
47.38000 76.686
47.40000 73.719
47.42000 68.323
47.44000 66.227
47.46000 66.899
47.48000 60.288
47.50000 64.769
47.52000 68.296
47.54000 67.768
47.56000 59.964
47.58000 52.159
47.60000 63.075
47.62000 61.602
47.64000 54.515
47.66000 53.305
47.68000 52.355
47.70000 50.963
47.72000 49.614
47.74000 40.535
47.76000 44.544
47.78000 39.321
47.80000 38.560
47.82000 43.326
47.84000 39.323
47.86000 34.891
47.88000 36.175
47.90000 31.288
47.92000 28.844
47.94000 30.883
47.96000 30.501
47.98000 33.652
48.00000 29.058
48.02000 22.818
48.04000 22.369
48.06000 19.180
48.08000 17.772
48.10000 23.491
48.12000 26.117
48.14000 24.175
48.16000 16.320
48.18000 15.464
48.20000 12.220
48.22000 15.573
48.24000 17.132
48.26000 12.218
48.28000 12.248
48.30000 9.769
48.32000 10.269
48.34000 8.169
48.36000 12.478
48.38000 11.533
48.40000 13.750
48.42000 14.724
48.44000 15.645
48.46000 8.324
48.48000 7.863
48.50000 8.302
48.52000 10.624
48.54000 11.247
48.56000 10.283
48.58000 9.792
48.60000 6.920
48.62000 9.909
48.64000 7.989
48.66000 4.454
48.68000 -3.105
48.70000 0.240
48.72000 1.859
48.74000 3.683
48.76000 5.122
48.78000 8.686
48.80000 4.942
48.82000 3.183
48.84000 4.234
48.86000 -0.102
48.88000 -2.711
48.90000 3.340
48.92000 7.616
48.94000 5.172
48.96000 6.622
48.98000 3.241
49.00000 2.207
49.02000 2.727
49.04000 5.718
49.06000 6.488
49.08000 8.126
49.10000 6.095
49.12000 1.156
49.14000 2.622
49.16000 4.760
49.18000 8.588
49.20000 3.293
49.22000 0.286
49.24000 4.879
49.26000 3.238
49.28000 -2.995
49.30000 -2.992
49.32000 0.229
49.34000 4.796
49.36000 4.029
49.38000 2.375
49.40000 5.594
49.42000 5.488
49.44000 0.974
49.46000 4.562
49.48000 1.645
49.50000 4.713
49.52000 0.000
49.54000 1.053
49.56000 2.228
49.58000 5.862
49.60000 8.148
49.62000 7.885
49.64000 1.144
49.66000 2.218
49.68000 6.022
49.70000 4.046
49.72000 5.022
49.74000 2.119
49.76000 3.364
49.78000 5.963
49.80000 2.663
49.82000 2.541
49.84000 1.253
49.86000 4.600
49.88000 2.747
49.90000 1.755
49.92000 4.534
49.94000 0.770
49.96000 4.425
49.98000 4.633
50.00000 2.389
50.02000 -2.921
50.04000 6.633
50.06000 5.675
50.08000 3.317
50.10000 0.608
50.12000 -0.138
50.14000 2.959
50.16000 1.822
50.18000 5.165
50.20000 7.877
50.22000 7.049
50.24000 5.653
50.26000 0.229
50.28000 -2.259
50.30000 3.175
50.32000 -0.833
50.34000 -1.514
50.36000 -1.667
50.38000 0.971
50.40000 2.389
50.42000 3.375
50.44000 6.802
50.46000 5.256
50.48000 -1.081
50.50000 1.707
50.52000 4.160
50.54000 4.106
50.56000 6.257
50.58000 4.263
50.60000 0.298
50.62000 3.465
50.64000 3.369
50.66000 5.078
50.68000 0.420
50.70000 -2.893
50.72000 4.198
50.74000 8.977
50.76000 2.362
50.78000 2.390
50.80000 2.938
50.82000 2.907
50.84000 1.308
50.86000 -1.706
50.88000 2.998
50.90000 2.383
50.92000 2.717
50.94000 -1.024
50.96000 2.535
50.98000 1.235
51.00000 3.697
51.02000 5.515
51.04000 5.084
51.06000 2.101
51.08000 5.082
51.10000 2.747
51.12000 2.977
51.14000 -0.888
51.16000 1.147
51.18000 3.428
51.20000 3.627
51.22000 0.248
51.24000 1.050
51.26000 1.551
51.28000 4.450
51.30000 4.689
51.32000 1.659
51.34000 3.037
51.36000 2.714
51.38000 -0.798
51.40000 -0.114
51.42000 5.181
51.44000 8.845
51.46000 8.369
51.48000 6.383
51.50000 -0.287
51.52000 -1.924
51.54000 3.369
51.56000 3.339
51.58000 3.981
51.60000 6.918
51.62000 2.583
51.64000 4.044
51.66000 4.937
51.68000 4.409
51.70000 6.567
51.72000 -1.286
51.74000 -0.273
51.76000 -0.697
51.78000 -2.850
51.80000 -2.713
51.82000 1.665
51.84000 3.964
51.86000 -0.215
51.88000 1.768
51.90000 3.687
51.92000 1.129
51.94000 6.051
51.96000 4.378
51.98000 -0.849
52.00000 1.484
52.02000 3.978
52.04000 5.110
52.06000 4.178
52.08000 2.455
52.10000 0.261
52.12000 -2.149
52.14000 0.398
52.16000 -1.286
52.18000 0.258
52.20000 -2.384
52.22000 -0.366
52.24000 -0.829
52.26000 4.157
52.28000 3.426
52.30000 2.622
52.32000 2.088
52.34000 5.464
52.36000 3.705
52.38000 4.995
52.40000 1.047
52.42000 0.410
52.44000 1.927
52.46000 2.966
52.48000 1.316
52.50000 5.575
52.52000 7.578
52.54000 1.153
52.56000 2.456
52.58000 1.365
52.60000 1.796
52.62000 -0.678
52.64000 0.585
52.66000 2.466
52.68000 1.620
52.70000 1.798
52.72000 1.935
52.74000 0.008
52.76000 0.544
52.78000 2.410
52.80000 4.721
52.82000 2.895
52.84000 2.270
52.86000 6.414
52.88000 2.865
52.90000 2.599
52.92000 2.058
52.94000 2.067
52.96000 0.538
52.98000 4.466
53.00000 7.256
53.02000 7.413
53.04000 5.411
53.06000 2.215
53.08000 1.766
53.10000 -2.798
53.12000 -0.635
53.14000 1.053
53.16000 3.464
53.18000 3.881
53.20000 2.802
53.22000 0.074
53.24000 3.555
53.26000 3.513
53.28000 1.366
53.30000 1.367
53.32000 4.686
53.34000 5.225
53.36000 6.374
53.38000 4.255
53.40000 1.544
53.42000 -2.770
53.44000 1.993
53.46000 1.120
53.48000 -1.929
53.50000 -2.632
53.52000 2.552
53.54000 9.078
53.56000 8.268
53.58000 5.158
53.60000 5.186
53.62000 2.868
53.64000 2.492
53.66000 3.758
53.68000 7.919
53.70000 4.602
53.72000 3.423
53.74000 5.950
53.76000 8.920
53.78000 6.976
53.80000 5.634
53.82000 2.159
53.84000 4.195
53.86000 2.575
53.88000 2.696
53.90000 6.516
53.92000 5.349
53.94000 -1.637
53.96000 1.196
53.98000 3.948
54.00000 -0.416
54.02000 -0.409
54.04000 2.384
54.06000 3.249
54.08000 4.781
54.10000 7.105
54.12000 6.667
54.14000 4.045
54.16000 2.455
54.18000 4.574
54.20000 1.802
54.22000 2.863
54.24000 2.961
54.26000 3.231
54.28000 -1.240
54.30000 -2.744
54.32000 -0.777
54.34000 1.463
54.36000 1.797
54.38000 5.046
54.40000 6.425
54.42000 3.022
54.44000 1.355
54.46000 3.149
54.48000 5.487
54.50000 9.457
54.52000 3.761
54.54000 4.445
54.56000 7.798
54.58000 9.602
54.60000 5.903
54.62000 3.183
54.64000 1.701
54.66000 0.087
54.68000 -1.953
54.70000 0.075
54.72000 0.816
54.74000 2.860
54.76000 2.229
54.78000 5.004
54.80000 8.468
54.82000 9.423
54.84000 4.605
54.86000 8.582
54.88000 9.182
54.90000 3.409
54.92000 7.896
54.94000 10.120
54.96000 6.844
54.98000 3.270
55.00000 1.448
55.02000 5.132
55.04000 2.796
55.06000 2.052
55.08000 4.504
55.10000 3.499
55.12000 7.125
55.14000 3.594
55.16000 4.088
55.18000 5.195
55.20000 -0.031
55.22000 -1.423
55.24000 2.199
55.26000 5.587
55.28000 2.852
55.30000 0.512
55.32000 4.451
55.34000 2.662
55.36000 2.165
55.38000 4.023
55.40000 4.676
55.42000 5.858
55.44000 5.408
55.46000 2.700
55.48000 1.613
55.50000 0.157
55.52000 1.851
55.54000 3.264
55.56000 1.550
55.58000 3.630
55.60000 3.870
55.62000 4.331
55.64000 5.341
55.66000 0.845
55.68000 1.483
55.70000 7.166
55.72000 4.679
55.74000 3.427
55.76000 5.142
55.78000 1.960
55.80000 0.097
55.82000 1.947
55.84000 8.429
55.86000 7.462
55.88000 4.614
55.90000 -2.682
55.92000 2.445
55.94000 6.711
55.96000 7.001
55.98000 2.555
56.00000 4.737
56.02000 7.832
56.04000 5.588
56.06000 6.363
56.08000 2.687
56.10000 2.204
56.12000 0.405
56.14000 3.977
56.16000 0.171
56.18000 5.300
56.20000 5.427
56.22000 7.947
56.24000 2.304
56.26000 -0.969
56.28000 3.561
56.30000 5.987
56.32000 5.944
56.34000 4.277
56.36000 -0.947
56.38000 2.481
56.40000 2.899
56.42000 3.479
56.44000 3.636
56.46000 4.012
56.48000 3.723
56.50000 6.452
56.52000 6.702
56.54000 7.844
56.56000 8.606
56.58000 6.437
56.60000 1.857
56.62000 4.087
56.64000 0.973
56.66000 2.823
56.68000 4.492
56.70000 4.757
56.72000 4.991
56.74000 3.501
56.76000 2.061
56.78000 1.767
56.80000 3.040
56.82000 1.254
56.84000 1.279
56.86000 4.573
56.88000 6.154
56.90000 4.258
56.92000 4.430
56.94000 8.441
56.96000 4.198
56.98000 1.011
57.00000 -2.096
57.02000 -0.036
57.04000 3.355
57.06000 4.540
57.08000 3.890
57.10000 3.910
57.12000 6.381
57.14000 9.646
57.16000 11.678
57.18000 6.546
57.20000 6.773
57.22000 7.817
57.24000 4.406
57.26000 2.958
57.28000 2.246
57.30000 2.195
57.32000 0.015
57.34000 5.228
57.36000 4.205
57.38000 5.370
57.40000 2.653
57.42000 -2.643
57.44000 1.810
57.46000 -0.750
57.48000 4.388
57.50000 6.025
57.52000 1.151
57.54000 -2.629
57.56000 0.664
57.58000 4.101
57.60000 4.534
57.62000 5.259
57.64000 2.190
57.66000 -0.869
57.68000 2.689
57.70000 4.813
57.72000 2.970
57.74000 5.914
57.76000 8.335
57.78000 1.850
57.80000 4.130
57.82000 8.826
57.84000 2.715
57.86000 2.110
57.88000 1.777
57.90000 3.306
57.92000 4.572
57.94000 3.112
57.96000 -0.446
57.98000 -2.626
58.00000 3.980
58.02000 5.352
58.04000 -0.785
58.06000 4.099
58.08000 3.476
58.10000 4.792
58.12000 6.882
58.14000 3.035
58.16000 3.746
58.18000 8.969
58.20000 7.655
58.22000 5.130
58.24000 0.583
58.26000 0.458
58.28000 2.354
58.30000 5.212
58.32000 6.988
58.34000 5.316
58.36000 2.521
58.38000 2.417
58.40000 2.461
58.42000 -0.724
58.44000 3.661
58.46000 5.041
58.48000 2.543
58.50000 3.246
58.52000 7.572
58.54000 6.302
58.56000 2.246
58.58000 2.460
58.60000 2.864
58.62000 0.926
58.64000 5.262
58.66000 7.336
58.68000 4.259
58.70000 5.018
58.72000 2.343
58.74000 7.472
58.76000 7.927
58.78000 5.484
58.80000 3.726
58.82000 1.971
58.84000 3.696
58.86000 4.229
58.88000 2.360
58.90000 -2.585
58.92000 5.526
58.94000 3.020
58.96000 3.462
58.98000 4.549
59.00000 1.775
59.02000 3.160
59.04000 10.460
59.06000 10.526
59.08000 3.272
59.10000 3.448
59.12000 1.940
59.14000 3.050
59.16000 2.564
59.18000 6.910
59.20000 6.780
59.22000 4.028
59.24000 -0.669
59.26000 3.055
59.28000 7.775
59.30000 4.605
59.32000 2.077
59.34000 0.551
59.36000 3.057
59.38000 7.489
59.40000 9.824
59.42000 0.865
59.44000 -0.877
59.46000 -1.030
59.48000 3.425
59.50000 3.392
59.52000 7.383
59.54000 6.348
59.56000 3.104
59.58000 2.878
59.60000 7.060
59.62000 3.169
59.64000 0.680
59.66000 1.340
59.68000 2.601
59.70000 2.409
59.72000 1.888
59.74000 6.262
59.76000 4.805
59.78000 6.388
59.80000 2.462
59.82000 3.628
59.84000 4.363
59.86000 3.198
59.88000 1.779
59.90000 2.093
59.92000 4.672
59.94000 1.477
59.96000 -2.571
59.98000 -1.743
60.00000 -0.201
60.02000 -2.438
60.04000 -2.326
60.06000 0.481
60.08000 3.946
60.10000 4.544
60.12000 0.683
60.14000 0.125
60.16000 4.844
60.18000 5.535
60.20000 2.242
60.22000 4.458
60.24000 3.895
60.26000 4.137
60.28000 1.885
60.30000 4.494
60.32000 0.406
60.34000 -0.138
60.36000 -0.276
60.38000 -0.180
60.40000 -1.859
60.42000 0.406
60.44000 -0.593
60.46000 1.151
60.48000 -1.329
60.50000 0.952
60.52000 1.520
60.54000 -0.258
60.56000 1.310
60.58000 1.223
60.60000 0.486
60.62000 2.804
60.64000 2.150
60.66000 1.987
60.68000 1.839
60.70000 -0.657
60.72000 3.232
60.74000 4.739
60.76000 1.055
60.78000 6.520
60.80000 8.166
60.82000 3.428
60.84000 1.980
60.86000 2.859
60.88000 4.689
60.90000 2.304
60.92000 3.339
60.94000 4.366
60.96000 4.589
60.98000 3.842
61.00000 -1.514
61.02000 -2.521
61.04000 0.333
61.06000 3.405
61.08000 6.865
61.10000 9.034
61.12000 6.512
61.14000 4.775
61.16000 4.022
61.18000 3.251
61.20000 5.514
61.22000 3.583
61.24000 3.679
61.26000 3.591
61.28000 10.083
61.30000 9.103
61.32000 8.908
61.34000 7.940
61.36000 5.920
61.38000 5.367
61.40000 1.255
61.42000 0.881
61.44000 2.281
61.46000 6.008
61.48000 7.142
61.50000 1.679
61.52000 3.981
61.54000 6.448
61.56000 5.040
61.58000 4.619
61.60000 2.134
61.62000 3.069
61.64000 4.842
61.66000 8.914
61.68000 7.964
61.70000 3.261
61.72000 2.969
61.74000 3.672
61.76000 2.228
61.78000 3.392
61.80000 0.809
61.82000 0.516
61.84000 2.954
61.86000 5.461
61.88000 4.548
61.90000 4.641
61.92000 3.847
61.94000 1.696
61.96000 4.723
61.98000 3.895
62.00000 -0.345
62.02000 1.016
62.04000 -0.285
62.06000 3.107
62.08000 6.004
62.10000 3.459
62.12000 5.579
62.14000 8.258
62.16000 3.033
62.18000 4.671
62.20000 4.155
62.22000 2.612
62.24000 3.166
62.26000 6.349
62.28000 9.676
62.30000 6.184
62.32000 5.350
62.34000 6.800
62.36000 0.037
62.38000 -2.462
62.40000 1.560
62.42000 5.594
62.44000 5.475
62.46000 2.802
62.48000 3.168
62.50000 3.891
62.52000 3.408
62.54000 6.029
62.56000 3.152
62.58000 4.521
62.60000 5.563
62.62000 4.065
62.64000 0.708
62.66000 2.424
62.68000 2.809
62.70000 4.204
62.72000 1.351
62.74000 -0.276
62.76000 3.659
62.78000 4.439
62.80000 2.688
62.82000 3.357
62.84000 6.443
62.86000 4.077
62.88000 2.536
62.90000 4.018
62.92000 2.864
62.94000 4.375
62.96000 0.410
62.98000 1.566
63.00000 3.816
63.02000 2.027
63.04000 4.634
63.06000 8.460
63.08000 3.128
63.10000 -0.545
63.12000 2.729
63.14000 4.694
63.16000 1.543
63.18000 4.854
63.20000 -0.725
63.22000 -1.940
63.24000 4.000
63.26000 4.313
63.28000 5.144
63.30000 0.214
63.32000 1.046
63.34000 1.930
63.36000 1.105
63.38000 1.838
63.40000 0.609
63.42000 1.262
63.44000 -2.044
63.46000 0.502
63.48000 3.627
63.50000 2.535
63.52000 2.398
63.54000 4.263
63.56000 3.261
63.58000 4.802
63.60000 1.671
63.62000 3.474
63.64000 3.839
63.66000 4.217
63.68000 1.151
63.70000 -1.253
63.72000 2.373
63.74000 2.669
63.76000 3.479
63.78000 -1.740
63.80000 -1.836
63.82000 -0.474
63.84000 -0.442
63.86000 -0.774
63.88000 0.238
63.90000 0.854
63.92000 2.789
63.94000 4.139
63.96000 4.020
63.98000 3.623
64.00000 3.594
64.02000 3.542
64.04000 2.929
64.06000 2.832
64.08000 2.414
64.10000 4.527
64.12000 7.956
64.14000 6.703
64.16000 0.649
64.18000 1.458
64.20000 2.855
64.22000 0.134
64.24000 2.777
64.26000 3.974
64.28000 1.987
64.30000 -2.482
64.32000 1.238
64.34000 4.447
64.36000 5.809
64.38000 5.099
64.40000 3.398
64.42000 3.552
64.44000 3.086
64.46000 -0.900
64.48000 2.524
64.50000 4.399
64.52000 2.212
64.54000 3.025
64.56000 1.403
64.58000 5.277
64.60000 4.994
64.62000 5.288
64.64000 5.569
64.66000 5.351
64.68000 2.522
64.70000 -0.223
64.72000 1.479
64.74000 -0.030
64.76000 3.626
64.78000 3.915
64.80000 1.213
64.82000 0.198
64.84000 -1.088
64.86000 3.180
64.88000 3.745
64.90000 1.141
64.92000 3.926
64.94000 4.319
64.96000 5.310
64.98000 3.301
65.00000 7.583
65.02000 5.311
65.04000 2.053
65.06000 3.161
65.08000 3.923
65.10000 3.074
65.12000 0.641
65.14000 2.228
65.16000 2.362
65.18000 1.627
65.20000 3.049
65.22000 -0.528
65.24000 2.835
65.26000 4.636
65.28000 4.419
65.30000 4.848
65.32000 3.273
65.34000 2.448
65.36000 4.627
65.38000 0.964
65.40000 1.453
65.42000 0.159
65.44000 2.748
65.46000 2.436
65.48000 5.831
65.50000 4.654
65.52000 2.689
65.54000 3.306
65.56000 2.303
65.58000 2.562
65.60000 3.186
65.62000 4.340
65.64000 5.688
65.66000 5.216
65.68000 -0.202
65.70000 -1.275
65.72000 2.211
65.74000 5.859
65.76000 7.077
65.78000 3.365
65.80000 1.244
65.82000 2.521
65.84000 6.088
65.86000 6.753
65.88000 5.178
65.90000 4.302
65.92000 4.194
65.94000 1.377
65.96000 2.994
65.98000 6.326
66.00000 2.223
66.02000 -1.502
66.04000 -2.484
66.06000 0.192
66.08000 4.369
66.10000 3.321
66.12000 4.788
66.14000 4.232
66.16000 5.610
66.18000 8.214
66.20000 5.112
66.22000 3.032
66.24000 6.182
66.26000 5.831
66.28000 6.890
66.30000 5.317
66.32000 1.502
66.34000 -0.616
66.36000 0.679
66.38000 1.277
66.40000 2.286
66.42000 1.813
66.44000 2.519
66.46000 2.640
66.48000 1.246
66.50000 2.358
66.52000 3.161
66.54000 7.897
66.56000 3.345
66.58000 -0.352
66.60000 0.585
66.62000 0.157
66.64000 1.429
66.66000 2.939
66.68000 3.559
66.70000 1.675
66.72000 1.711
66.74000 -0.015
66.76000 2.577
66.78000 4.656
66.80000 0.975
66.82000 1.113
66.84000 1.953
66.86000 3.484
66.88000 0.448
66.90000 1.473
66.92000 1.539
66.94000 -0.366
66.96000 0.859
66.98000 0.030
67.00000 1.801
67.02000 1.834
67.04000 0.951
67.06000 0.248
67.08000 1.188
67.10000 1.954
67.12000 1.755
67.14000 1.244
67.16000 2.511
67.18000 4.766
67.20000 5.834
67.22000 2.493
67.24000 3.211
67.26000 2.624
67.28000 5.767
67.30000 2.671
67.32000 2.802
67.34000 4.069
67.36000 2.627
67.38000 4.779
67.40000 6.245
67.42000 3.168
67.44000 3.494
67.46000 1.297
67.48000 4.077
67.50000 4.051
67.52000 2.387
67.54000 5.858
67.56000 4.277
67.58000 6.469
67.60000 4.305
67.62000 2.450
67.64000 4.348
67.66000 5.391
67.68000 6.021
67.70000 6.246
67.72000 5.146
67.74000 5.777
67.76000 5.224
67.78000 8.289
67.80000 7.710
67.82000 6.712
67.84000 3.615
67.86000 8.040
67.88000 10.675
67.90000 11.588
67.92000 11.041
67.94000 11.836
67.96000 12.442
67.98000 9.766
68.00000 7.332
68.02000 5.551
68.04000 7.714
68.06000 11.215
68.08000 10.589
68.10000 8.225
68.12000 9.189
68.14000 11.822
68.16000 12.890
68.18000 10.911
68.20000 10.240
68.22000 15.402
68.24000 11.299
68.26000 13.657
68.28000 13.159
68.30000 13.513
68.32000 17.523
68.34000 16.837
68.36000 17.158
68.38000 14.954
68.40000 16.513
68.42000 19.339
68.44000 18.736
68.46000 17.214
68.48000 17.811
68.50000 20.103
68.52000 18.621
68.54000 23.384
68.56000 21.029
68.58000 20.250
68.60000 22.595
68.62000 21.302
68.64000 20.773
68.66000 22.164
68.68000 21.434
68.70000 18.933
68.72000 18.564
68.74000 19.806
68.76000 20.174
68.78000 24.596
68.80000 22.576
68.82000 22.956
68.84000 25.379
68.86000 21.455
68.88000 18.926
68.90000 17.589
68.92000 19.953
68.94000 15.480
68.96000 14.986
68.98000 20.348
69.00000 18.006
69.02000 17.815
69.04000 15.760
69.06000 14.346
69.08000 15.403
69.10000 16.521
69.12000 18.304
69.14000 13.483
69.16000 15.080
69.18000 19.409
69.20000 18.369
69.22000 17.821
69.24000 20.532
69.26000 15.025
69.28000 14.415
69.30000 12.661
69.32000 13.826
69.34000 8.343
69.36000 10.906
69.38000 11.140
69.40000 9.747
69.42000 9.199
69.44000 6.781
69.46000 4.811
69.48000 8.495
69.50000 4.744
69.52000 2.206
69.54000 1.715
69.56000 5.540
69.58000 10.613
69.60000 6.810
69.62000 3.186
69.64000 1.316
69.66000 2.367
69.68000 5.451
69.70000 9.769
69.72000 7.406
69.74000 5.266
69.76000 6.172
69.78000 4.783
69.80000 2.610
69.82000 4.562
69.84000 5.026
69.86000 2.600
69.88000 3.774
69.90000 5.503
69.92000 4.398
69.94000 1.429
69.96000 2.033
69.98000 -0.437
70.00000 2.178
70.02000 3.967
70.04000 2.126
70.06000 3.155
70.08000 5.036
70.10000 1.829
70.12000 0.709
70.14000 3.523
70.16000 4.629
70.18000 5.939
70.20000 11.078
70.22000 6.783
70.24000 -0.134
70.26000 -0.128
70.28000 2.167
70.30000 4.303
70.32000 2.354
70.34000 0.333
70.36000 -2.483
70.38000 -0.777
70.40000 1.971
70.42000 1.324
70.44000 5.841
70.46000 3.128
70.48000 3.632
70.50000 3.179
70.52000 6.079
70.54000 4.945
70.56000 -0.361
70.58000 2.904
70.60000 5.334
70.62000 4.789
70.64000 4.627
70.66000 5.990
70.68000 2.888
70.70000 -0.825
70.72000 1.072
70.74000 6.447
70.76000 2.450
70.78000 3.974
70.80000 2.808
70.82000 1.824
70.84000 1.445
70.86000 -0.271
70.88000 3.945
70.90000 6.026
70.92000 2.648
70.94000 -1.223
70.96000 2.623
70.98000 0.428
71.00000 1.956
71.02000 4.956
71.04000 3.000
71.06000 3.911
71.08000 6.715
71.10000 1.764
71.12000 2.422
71.14000 1.451
71.16000 1.556
71.18000 1.440
71.20000 2.228
71.22000 3.195
71.24000 -1.850
71.26000 -2.399
71.28000 1.367
71.30000 6.095
71.32000 8.851
71.34000 6.126
71.36000 0.877
71.38000 0.039
71.40000 -0.150
71.42000 -0.125
71.44000 1.638
71.46000 -0.098
71.48000 3.286
71.50000 1.695
71.52000 5.398
71.54000 2.441
71.56000 0.115
71.58000 3.527
71.60000 0.914
71.62000 5.238
71.64000 2.227
71.66000 -1.156
71.68000 4.396
71.70000 -0.151
71.72000 1.043
71.74000 2.194
71.76000 2.559
71.78000 1.566
71.80000 -2.371
71.82000 3.754
71.84000 3.365
71.86000 3.621
71.88000 7.649
71.90000 4.020
71.92000 6.353
71.94000 5.734
71.96000 4.984
71.98000 3.960
72.00000 0.446
72.02000 0.883
72.04000 4.954
72.06000 4.533
72.08000 0.837
72.10000 2.101
72.12000 -1.119
72.14000 -0.310
72.16000 0.058
72.18000 3.481
72.20000 2.632
72.22000 2.962
72.24000 4.116
72.26000 4.606
72.28000 4.025
72.30000 -1.311
72.32000 -1.987
72.34000 -0.188
72.36000 0.671
72.38000 5.693
72.40000 4.198
72.42000 1.283
72.44000 3.122
72.46000 2.946
72.48000 1.610
72.50000 1.133
72.52000 0.980
72.54000 2.786
72.56000 0.714
72.58000 4.097
72.60000 1.277
72.62000 1.312
72.64000 1.593
72.66000 2.037
72.68000 -0.325
72.70000 2.843
72.72000 1.243
72.74000 0.296
72.76000 2.625
72.78000 -1.237
72.80000 -1.916
72.82000 3.103
72.84000 4.802
72.86000 5.068
72.88000 5.501
72.90000 1.290
72.92000 -0.523
72.94000 1.147
72.96000 -0.115
72.98000 -0.534
73.00000 1.701
73.02000 2.261
73.04000 3.238
73.06000 -0.439
73.08000 4.976
73.10000 1.776
73.12000 3.310
73.14000 8.724
73.16000 8.713
73.18000 4.062
73.20000 2.373
73.22000 1.656
73.24000 3.352
73.26000 6.855
73.28000 6.111
73.30000 2.823
73.32000 2.771
73.34000 1.076
73.36000 0.857
73.38000 2.500
73.40000 -2.294
73.42000 0.095
73.44000 0.149
73.46000 1.066
73.48000 4.224
73.50000 2.055
73.52000 1.411
73.54000 1.243
73.56000 5.110
73.58000 6.345
73.60000 7.614
73.62000 2.468
73.64000 2.468
73.66000 2.362
73.68000 8.043
73.70000 6.450
73.72000 2.002
73.74000 0.279
73.76000 5.273
73.78000 5.116
73.80000 4.800
73.82000 0.828
73.84000 1.319
73.86000 0.954
73.88000 8.113
73.90000 6.871
73.92000 4.939
73.94000 6.916
73.96000 6.660
73.98000 3.593
74.00000 4.967
74.02000 5.818
74.04000 9.632
74.06000 6.645
74.08000 6.933
74.10000 3.026
74.12000 1.160
74.14000 2.236
74.16000 2.486
74.18000 0.809
74.20000 -0.996
74.22000 3.840
74.24000 3.722
74.26000 0.604
74.28000 -1.568
74.30000 2.719
74.32000 3.412
74.34000 1.070
74.36000 -0.920
74.38000 -0.277
74.40000 0.263
74.42000 4.584
74.44000 5.751
74.46000 1.730
74.48000 -2.322
74.50000 -2.237
74.52000 4.075
74.54000 9.013
74.56000 7.122
74.58000 6.641
74.60000 3.442
74.62000 0.756
74.64000 5.140
74.66000 4.675
74.68000 1.962
74.70000 1.827
74.72000 4.355
74.74000 7.210
74.76000 5.686
74.78000 5.820
74.80000 4.455
74.82000 -1.045
74.84000 -0.856
74.86000 -0.344
74.88000 1.011
74.90000 -1.104
74.92000 0.331
74.94000 -2.330
74.96000 -0.544
74.98000 4.562
75.00000 1.542
75.02000 2.266
75.04000 4.232
75.06000 1.393
75.08000 -2.036
75.10000 1.364
75.12000 0.908
75.14000 4.132
75.16000 5.445
75.18000 5.507
75.20000 4.961
75.22000 2.833
75.24000 3.946
75.26000 0.248
75.28000 -0.304
75.30000 1.117
75.32000 6.450
75.34000 2.430
75.36000 1.795
75.38000 -2.345
75.40000 1.160
75.42000 -0.525
75.44000 -0.460
75.46000 1.659
75.48000 3.515
75.50000 4.203
75.52000 5.287
75.54000 4.498
75.56000 5.300
75.58000 1.261
75.60000 2.445
75.62000 1.356
75.64000 2.007
75.66000 1.815
75.68000 0.438
75.70000 3.649
75.72000 1.108
75.74000 0.446
75.76000 0.344
75.78000 4.986
75.80000 0.990
75.82000 1.548
75.84000 2.498
75.86000 3.873
75.88000 6.407
75.90000 6.422
75.92000 4.624
75.94000 0.323
75.96000 -0.705
75.98000 1.056
76.00000 0.897
76.02000 4.181
76.04000 0.571
76.06000 -0.784
76.08000 2.098
76.10000 5.877
76.12000 4.745
76.14000 -2.344
76.16000 0.359
76.18000 0.619
76.20000 0.535
76.22000 4.058
76.24000 1.288
76.26000 1.424
76.28000 1.426
76.30000 0.591
76.32000 1.852
76.34000 5.001
76.36000 3.596
76.38000 4.330
76.40000 5.858
76.42000 5.557
76.44000 3.234
76.46000 2.748
76.48000 5.032
76.50000 3.493
76.52000 4.527
76.54000 3.445
76.56000 5.933
76.58000 8.373
76.60000 8.064
76.62000 10.570
76.64000 6.308
76.66000 1.749
76.68000 0.909
76.70000 -2.318
76.72000 0.331
76.74000 6.664
76.76000 4.194
76.78000 5.858
76.80000 7.711
76.82000 10.069
76.84000 1.496
76.86000 -1.036
76.88000 3.511
76.90000 5.727
76.92000 2.183
76.94000 5.649
76.96000 8.856
76.98000 9.070
77.00000 7.436
77.02000 1.787
77.04000 1.973
77.06000 4.918
77.08000 6.309
77.10000 8.803
77.12000 3.277
77.14000 5.573
77.16000 4.443
77.18000 3.830
77.20000 5.046
77.22000 3.226
77.24000 1.263
77.26000 -2.322
77.28000 0.887
77.30000 3.089
77.32000 5.202
77.34000 5.922
77.36000 10.207
77.38000 5.334
77.40000 4.684
77.42000 4.207
77.44000 3.275
77.46000 3.281
77.48000 0.195
77.50000 2.350
77.52000 4.074
77.54000 5.502
77.56000 6.428
77.58000 2.813
77.60000 1.715
77.62000 2.584
77.64000 2.348
77.66000 5.623
77.68000 4.868
77.70000 1.922
77.72000 -0.432
77.74000 4.793
77.76000 7.903
77.78000 2.388
77.80000 4.718
77.82000 4.388
77.84000 -1.204
77.86000 3.344
77.88000 5.765
77.90000 3.245
77.92000 3.296
77.94000 1.968
77.96000 5.750
77.98000 3.374
78.00000 1.902
78.02000 3.549
78.04000 4.774
78.06000 2.999
78.08000 3.259
78.10000 9.789
78.12000 5.642
78.14000 3.069
78.16000 2.464
78.18000 2.927
78.20000 4.084
78.22000 3.921
78.24000 5.964
78.26000 6.003
78.28000 4.462
78.30000 0.855
78.32000 -0.157
78.34000 0.898
78.36000 0.625
78.38000 2.704
78.40000 3.520
78.42000 2.394
78.44000 4.674
78.46000 1.554
78.48000 3.236
78.50000 2.761
78.52000 6.503
78.54000 3.873
78.56000 -0.824
78.58000 0.480
78.60000 2.413
78.62000 6.803
78.64000 7.624
78.66000 8.089
78.68000 8.738
78.70000 3.572
78.72000 0.328
78.74000 2.882
78.76000 5.703
78.78000 4.428
78.80000 2.350
78.82000 -2.358
78.84000 0.039
78.86000 0.663
78.88000 2.780
78.90000 6.938
78.92000 7.919
78.94000 5.599
78.96000 7.886
78.98000 8.656
79.00000 5.663
79.02000 2.559
79.04000 6.856
79.06000 4.915
79.08000 5.721
79.10000 6.462
79.12000 7.485
79.14000 7.772
79.16000 4.336
79.18000 5.745
79.20000 8.281
79.22000 6.607
79.24000 7.268
79.26000 5.720
79.28000 6.253
79.30000 7.422
79.32000 5.355
79.34000 1.247
79.36000 -2.346
79.38000 6.448
79.40000 6.757
79.42000 2.074
79.44000 5.281
79.46000 7.582
79.48000 5.127
79.50000 7.722
79.52000 4.093
79.54000 0.015
79.56000 -0.485
79.58000 -1.468
79.60000 2.114
79.62000 5.902
79.64000 1.362
79.66000 -0.827
79.68000 2.795
79.70000 6.444
79.72000 8.973
79.74000 6.404
79.76000 2.368
79.78000 4.794
79.80000 8.226
79.82000 6.021
79.84000 1.372
79.86000 -0.253
79.88000 0.301
79.90000 1.367
79.92000 7.802
79.94000 4.269
79.96000 2.666
79.98000 5.625
80.00000 1.749
80.02000 3.875
80.04000 3.578
80.06000 5.734
80.08000 7.198
80.10000 6.420
80.12000 4.217
80.14000 2.621
80.16000 0.536
80.18000 2.293
80.20000 3.108
80.22000 5.221
80.24000 4.212
80.26000 2.021
80.28000 3.440
80.30000 4.137
80.32000 3.767
80.34000 7.355
80.36000 6.163
80.38000 3.274
80.40000 1.955
80.42000 0.975
80.44000 3.086
80.46000 3.676
80.48000 3.686
80.50000 -2.463
80.52000 2.503
80.54000 5.373
80.56000 -0.404
80.58000 -2.394
80.60000 0.823
80.62000 5.325
80.64000 3.806
80.66000 -0.104
80.68000 2.363
80.70000 2.237
80.72000 2.792
80.74000 2.547
80.76000 5.608
80.78000 1.831
80.80000 0.728
80.82000 1.309
80.84000 0.599
80.86000 3.186
80.88000 3.859
80.90000 5.722
80.92000 4.998
80.94000 4.433
80.96000 2.261
80.98000 0.705
81.00000 1.269
81.02000 2.129
81.04000 6.198
81.06000 5.260
81.08000 6.403
81.10000 8.034
81.12000 4.595
81.14000 6.409
81.16000 6.065
81.18000 6.970
81.20000 4.597
81.22000 1.687
81.24000 7.264
81.26000 5.523
81.28000 1.343
81.30000 -0.512
81.32000 -2.364
81.34000 -2.536
81.36000 3.214
81.38000 6.330
81.40000 7.252
81.42000 6.533
81.44000 5.796
81.46000 7.462
81.48000 4.633
81.50000 2.138
81.52000 0.430
81.54000 6.551
81.56000 5.863
81.58000 8.450
81.60000 6.299
81.62000 5.920
81.64000 5.069
81.66000 5.689
81.68000 6.021
81.70000 6.805
81.72000 8.770
81.74000 3.382
81.76000 7.313
81.78000 13.901
81.80000 17.631
81.82000 14.793
81.84000 14.975
81.86000 9.086
81.88000 7.940
81.90000 9.070
81.92000 9.740
81.94000 9.486
81.96000 12.783
81.98000 10.145
82.00000 9.584
82.02000 14.130
82.04000 16.044
82.06000 18.542
82.08000 15.934
82.10000 10.547
82.12000 9.658
82.14000 11.077
82.16000 13.864
82.18000 15.140
82.20000 21.594
82.22000 24.787
82.24000 18.704
82.26000 18.341
82.28000 19.665
82.30000 20.453
82.32000 18.562
82.34000 20.187
82.36000 21.525
82.38000 20.020
82.40000 20.876
82.42000 19.987
82.44000 22.275
82.46000 20.516
82.48000 21.089
82.50000 23.554
82.52000 21.648
82.54000 22.783
82.56000 24.842
82.58000 22.791
82.60000 22.570
82.62000 24.251
82.64000 25.251
82.66000 23.569
82.68000 20.417
82.70000 19.373
82.72000 23.403
82.74000 23.046
82.76000 23.808
82.78000 25.261
82.80000 28.863
82.82000 29.018
82.84000 23.596
82.86000 26.985
82.88000 24.910
82.90000 29.310
82.92000 31.828
82.94000 25.153
82.96000 28.567
82.98000 28.308
83.00000 26.993
83.02000 29.924
83.04000 31.782
83.06000 28.137
83.08000 29.636
83.10000 28.889
83.12000 24.156
83.14000 24.237
83.16000 30.222
83.18000 23.905
83.20000 27.659
83.22000 22.357
83.24000 19.791
83.26000 22.682
83.28000 19.200
83.30000 21.048
83.32000 24.653
83.34000 20.696
83.36000 21.833
83.38000 21.268
83.40000 20.981
83.42000 18.400
83.44000 18.907
83.46000 17.928
83.48000 16.665
83.50000 24.341
83.52000 27.781
83.54000 22.821
83.56000 15.190
83.58000 12.539
83.60000 12.077
83.62000 14.068
83.64000 15.317
83.66000 12.312
83.68000 10.365
83.70000 7.357
83.72000 8.952
83.74000 15.114
83.76000 12.493
83.78000 9.547
83.80000 14.601
83.82000 17.698
83.84000 14.073
83.86000 10.395
83.88000 11.296
83.90000 8.775
83.92000 10.142
83.94000 9.958
83.96000 8.841
83.98000 11.858
84.00000 8.504
84.02000 8.267
84.04000 8.566
84.06000 9.412
84.08000 11.815
84.10000 9.223
84.12000 3.210
84.14000 8.218
84.16000 9.302
84.18000 7.706
84.20000 8.363
84.22000 7.057
84.24000 6.369
84.26000 1.569
84.28000 4.124
84.30000 5.553
84.32000 1.116
84.34000 3.999
84.36000 4.565
84.38000 0.212
84.40000 4.273
84.42000 5.429
84.44000 6.620
84.46000 4.209
84.48000 3.632
84.50000 1.578
84.52000 0.640
84.54000 3.250
84.56000 8.135
84.58000 4.574
84.60000 3.289
84.62000 2.340
84.64000 3.332
84.66000 0.913
84.68000 1.804
84.70000 -1.818
84.72000 0.051
84.74000 6.268
84.76000 6.082
84.78000 0.782
84.80000 4.389
84.82000 6.700
84.84000 5.389
84.86000 4.403
84.88000 -1.210
84.90000 -2.437
84.92000 -0.674
84.94000 -1.706
84.96000 -1.140
84.98000 3.211
85.00000 5.102
85.02000 2.349
85.04000 1.653
85.06000 1.772
85.08000 4.028
85.10000 3.328
85.12000 -1.242
85.14000 -2.433
85.16000 1.571
85.18000 -1.328
85.20000 1.206
85.22000 0.476
85.24000 -1.051
85.26000 2.378
85.28000 2.749
85.30000 2.657
85.32000 2.901
85.34000 0.353
85.36000 2.343
85.38000 2.478
85.40000 3.500
85.42000 3.679
85.44000 2.023
85.46000 -0.129
85.48000 1.600
85.50000 1.245
85.52000 -0.309
85.54000 3.766
85.56000 5.003
85.58000 -1.784
85.60000 -2.388
85.62000 -1.673
85.64000 4.838
85.66000 3.283
85.68000 -1.997
85.70000 0.049
85.72000 1.760
85.74000 5.859
85.76000 3.688
85.78000 11.009
85.80000 10.320
85.82000 3.297
85.84000 0.596
85.86000 0.233
85.88000 -2.442
85.90000 2.276
85.92000 1.534
85.94000 1.808
85.96000 6.382
85.98000 6.406
86.00000 3.558
86.02000 5.674
86.04000 5.780
86.06000 2.081
86.08000 5.113
86.10000 3.823
86.12000 4.492
86.14000 5.908
86.16000 3.689
86.18000 4.103
86.20000 4.602
86.22000 9.662
86.24000 3.473
86.26000 4.866
86.28000 4.835
86.30000 2.647
86.32000 3.283
86.34000 5.458
86.36000 6.276
86.38000 7.523
86.40000 7.375
86.42000 4.606
86.44000 5.525
86.46000 11.920
86.48000 8.905
86.50000 5.568
86.52000 8.891
86.54000 11.719
86.56000 13.573
86.58000 13.976
86.60000 11.609
86.62000 8.986
86.64000 13.148
86.66000 14.017
86.68000 12.686
86.70000 11.524
86.72000 13.858
86.74000 12.857
86.76000 13.631
86.78000 14.039
86.80000 14.147
86.82000 9.589
86.84000 12.863
86.86000 16.245
86.88000 16.623
86.90000 18.152
86.92000 21.558
86.94000 19.163
86.96000 21.807
86.98000 18.409
87.00000 18.091
87.02000 19.186
87.04000 18.533
87.06000 16.470
87.08000 22.331
87.10000 25.545
87.12000 26.293
87.14000 27.956
87.16000 25.411
87.18000 27.454
87.20000 26.805
87.22000 23.036
87.24000 27.664
87.26000 20.952
87.28000 21.920
87.30000 26.824
87.32000 25.320
87.34000 24.974
87.36000 24.772
87.38000 27.396
87.40000 22.806
87.42000 26.169
87.44000 20.299
87.46000 20.560
87.48000 20.159
87.50000 20.532
87.52000 19.372
87.54000 23.225
87.56000 25.002
87.58000 20.329
87.60000 18.365
87.62000 18.696
87.64000 20.357
87.66000 15.498
87.68000 18.060
87.70000 18.999
87.72000 24.555
87.74000 22.888
87.76000 16.066
87.78000 17.341
87.80000 19.950
87.82000 22.597
87.84000 15.936
87.86000 11.421
87.88000 14.162
87.90000 18.655
87.92000 18.157
87.94000 13.136
87.96000 12.635
87.98000 9.122
88.00000 13.040
88.02000 13.162
88.04000 15.429
88.06000 13.574
88.08000 13.006
88.10000 10.234
88.12000 12.995
88.14000 16.832
88.16000 8.252
88.18000 4.972
88.20000 11.324
88.22000 13.140
88.24000 10.710
88.26000 7.103
88.28000 10.400
88.30000 13.751
88.32000 12.457
88.34000 8.502
88.36000 6.524
88.38000 11.024
88.40000 7.486
88.42000 11.032
88.44000 8.528
88.46000 5.055
88.48000 3.415
88.50000 6.334
88.52000 10.078
88.54000 6.888
88.56000 7.768
88.58000 7.352
88.60000 7.016
88.62000 7.397
88.64000 9.644
88.66000 5.801
88.68000 3.932
88.70000 5.478
88.72000 5.353
88.74000 0.890
88.76000 1.270
88.78000 3.076
88.80000 7.763
88.82000 6.108
88.84000 8.889
88.86000 6.822
88.88000 2.445
88.90000 2.609
88.92000 2.428
88.94000 4.849
88.96000 6.860
88.98000 5.205
89.00000 1.130
89.02000 4.048
89.04000 0.189
89.06000 3.502
89.08000 6.262
89.10000 6.603
89.12000 6.893
89.14000 7.785
89.16000 6.551
89.18000 -0.372
89.20000 -2.259
89.22000 3.424
89.24000 8.213
89.26000 3.834
89.28000 -1.340
89.30000 -0.870
89.32000 9.335
89.34000 4.747
89.36000 0.178
89.38000 2.409
89.40000 5.847
89.42000 7.854
89.44000 1.100
89.46000 -1.817
89.48000 -1.356
89.50000 1.107
89.52000 1.089
89.54000 0.229
89.56000 2.869
89.58000 1.503
89.60000 5.289
89.62000 1.838
89.64000 -1.851
89.66000 -1.301
89.68000 -1.559
89.70000 0.244
89.72000 0.645
89.74000 -0.799
89.76000 -1.041
89.78000 0.352
89.80000 1.040
89.82000 5.051
89.84000 4.181
89.86000 3.307
89.88000 2.778
89.90000 -0.960
89.92000 2.660
89.94000 4.161
89.96000 2.297
89.98000 2.674
90.00000 5.684
90.02000 4.929
90.04000 2.482
90.06000 2.719
90.08000 -0.912
90.10000 0.567
90.12000 5.729
90.14000 5.949
90.16000 4.197
90.18000 6.790
90.20000 6.766
90.22000 7.076
90.24000 5.655
90.26000 3.157
90.28000 3.660
90.30000 5.406
90.32000 3.289
90.34000 4.893
90.36000 5.820
90.38000 2.162
90.40000 2.195
90.42000 2.368
90.44000 4.048
90.46000 8.565
90.48000 5.746
90.50000 2.939
90.52000 0.033
90.54000 6.749
90.56000 6.549
90.58000 0.619
90.60000 0.175
90.62000 1.211
90.64000 2.521
90.66000 6.324
90.68000 0.011
90.70000 3.133
90.72000 1.964
90.74000 0.193
90.76000 7.142
90.78000 7.492
90.80000 4.493
90.82000 6.853
90.84000 2.992
90.86000 7.235
90.88000 9.316
90.90000 10.684
90.92000 5.897
90.94000 4.363
90.96000 1.398
90.98000 -2.147
91.00000 2.734
91.02000 6.348
91.04000 8.418
91.06000 6.329
91.08000 7.614
91.10000 8.502
91.12000 4.644
91.14000 7.724
91.16000 2.145
91.18000 3.103
91.20000 2.464
91.22000 1.835
91.24000 0.841
91.26000 6.464
91.28000 2.248
91.30000 4.068
91.32000 8.027
91.34000 8.662
91.36000 6.835
91.38000 8.445
91.40000 8.297
91.42000 5.324
91.44000 2.007
91.46000 1.886
91.48000 5.129
91.50000 3.893
91.52000 4.332
91.54000 4.109
91.56000 5.510
91.58000 8.378
91.60000 3.753
91.62000 2.439
91.64000 4.571
91.66000 5.071
91.68000 8.435
91.70000 3.797
91.72000 3.561
91.74000 2.731
91.76000 2.464
91.78000 4.136
91.80000 4.220
91.82000 7.020
91.84000 9.428
91.86000 5.843
91.88000 6.123
91.90000 2.497
91.92000 1.182
91.94000 4.045
91.96000 -0.190
91.98000 -2.201
92.00000 1.974
92.02000 0.751
92.04000 6.538
92.06000 8.894
92.08000 8.646
92.10000 1.006
92.12000 0.925
92.14000 2.091
92.16000 2.987
92.18000 6.547
92.20000 6.635
92.22000 4.286
92.24000 6.675
92.26000 2.210
92.28000 5.329
92.30000 7.086
92.32000 3.282
92.34000 -2.208
92.36000 -0.393
92.38000 2.618
92.40000 3.965
92.42000 3.701
92.44000 2.304
92.46000 4.876
92.48000 5.354
92.50000 3.578
92.52000 2.348
92.54000 4.230
92.56000 0.284
92.58000 -0.344
92.60000 0.181
92.62000 5.536
92.64000 8.141
92.66000 1.640
92.68000 4.821
92.70000 4.162
92.72000 2.974
92.74000 1.798
92.76000 6.345
92.78000 4.821
92.80000 3.549
92.82000 0.796
92.84000 0.256
92.86000 3.288
92.88000 3.562
92.90000 1.482
92.92000 2.705
92.94000 2.136
92.96000 4.861
92.98000 5.424
93.00000 1.850
93.02000 1.011
93.04000 5.180
93.06000 4.422
93.08000 2.451
93.10000 2.210
93.12000 1.676
93.14000 3.400
93.16000 7.224
93.18000 2.847
93.20000 -2.209
93.22000 1.598
93.24000 -0.057
93.26000 0.430
93.28000 2.966
93.30000 1.138
93.32000 2.453
93.34000 5.439
93.36000 3.791
93.38000 -0.156
93.40000 -0.897
93.42000 -0.713
93.44000 1.195
93.46000 5.534
93.48000 1.337
93.50000 1.596
93.52000 2.141
93.54000 2.936
93.56000 5.346
93.58000 6.445
93.60000 1.297
93.62000 -0.090
93.64000 -0.113
93.66000 2.176
93.68000 5.582
93.70000 3.986
93.72000 3.637
93.74000 8.222
93.76000 6.625
93.78000 3.981
93.80000 7.414
93.82000 10.309
93.84000 7.776
93.86000 12.305
93.88000 6.719
93.90000 5.509
93.92000 3.968
93.94000 -2.220
93.96000 7.169
93.98000 4.978
94.00000 0.264
94.02000 2.686
94.04000 6.620
94.06000 4.283
94.08000 0.401
94.10000 4.988
94.12000 5.252
94.14000 4.924
94.16000 1.410
94.18000 4.897
94.20000 6.626
94.22000 7.476
94.24000 10.500
94.26000 4.869
94.28000 4.842
94.30000 6.855
94.32000 10.691
94.34000 10.509
94.36000 3.172
94.38000 5.735
94.40000 3.641
94.42000 5.890
94.44000 3.557
94.46000 0.689
94.48000 1.426
94.50000 0.817
94.52000 -1.637
94.54000 -1.713
94.56000 3.256
94.58000 4.526
94.60000 0.409
94.62000 0.491
94.64000 -1.744
94.66000 1.421
94.68000 4.379
94.70000 3.278
94.72000 5.462
94.74000 3.832
94.76000 8.737
94.78000 7.289
94.80000 6.060
94.82000 5.911
94.84000 1.604
94.86000 -0.718
94.88000 6.198
94.90000 3.301
94.92000 1.311
94.94000 0.113
94.96000 5.741
94.98000 8.477
95.00000 3.964
95.02000 0.225
95.04000 2.837
95.06000 6.206
95.08000 11.947
95.10000 5.717
95.12000 1.489
95.14000 3.017
95.16000 1.897
95.18000 0.506
95.20000 2.976
95.22000 3.860
95.24000 5.070
95.26000 4.782
95.28000 5.645
95.30000 5.549
95.32000 2.801
95.34000 4.201
95.36000 6.180
95.38000 7.766
95.40000 4.967
95.42000 -0.491
95.44000 0.924
95.46000 6.206
95.48000 2.874
95.50000 2.955
95.52000 7.606
95.54000 4.810
95.56000 5.639
95.58000 6.596
95.60000 6.597
95.62000 7.847
95.64000 7.131
95.66000 8.441
95.68000 5.460
95.70000 4.401
95.72000 8.745
95.74000 7.032
95.76000 8.692
95.78000 7.130
95.80000 1.232
95.82000 6.096
95.84000 6.523
95.86000 4.005
95.88000 2.668
95.90000 3.132
95.92000 2.549
95.94000 7.334
95.96000 4.387
95.98000 3.156
96.00000 -1.978
96.02000 -2.162
96.04000 -0.934
96.06000 6.444
96.08000 6.834
96.10000 10.619
96.12000 7.319
96.14000 7.286
96.16000 3.444
96.18000 4.516
96.20000 4.142
96.22000 4.734
96.24000 7.613
96.26000 6.686
96.28000 3.461
96.30000 2.868
96.32000 5.800
96.34000 8.423
96.36000 9.287
96.38000 12.758
96.40000 10.690
96.42000 10.253
96.44000 8.319
96.46000 6.271
96.48000 4.503
96.50000 -2.133
96.52000 -0.108
96.54000 6.729
96.56000 7.805
96.58000 2.711
96.60000 4.119
96.62000 7.717
96.64000 4.123
96.66000 8.478
96.68000 8.875
96.70000 11.207
96.72000 11.591
96.74000 8.058
96.76000 9.712
96.78000 8.024
96.80000 9.052
96.82000 4.488
96.84000 3.911
96.86000 6.992
96.88000 4.771
96.90000 4.684
96.92000 12.261
96.94000 9.642
96.96000 8.104
96.98000 4.690
97.00000 -1.603
97.02000 2.682
97.04000 9.965
97.06000 9.542
97.08000 4.309
97.10000 8.664
97.12000 5.919
97.14000 0.612
97.16000 -1.700
97.18000 5.718
97.20000 8.267
97.22000 12.400
97.24000 12.752
97.26000 13.899
97.28000 6.499
97.30000 -0.804
97.32000 7.997
97.34000 9.497
97.36000 4.562
97.38000 5.541
97.40000 5.928
97.42000 3.366
97.44000 10.305
97.46000 6.902
97.48000 3.910
97.50000 10.730
97.52000 8.370
97.54000 1.453
97.56000 4.353
97.58000 2.113
97.60000 4.866
97.62000 2.431
97.64000 2.689
97.66000 2.930
97.68000 4.894
97.70000 12.505
97.72000 11.271
97.74000 11.781
97.76000 4.565
97.78000 2.017
97.80000 3.967
97.82000 2.520
97.84000 2.894
97.86000 9.540
97.88000 10.112
97.90000 8.444
97.92000 9.098
97.94000 8.944
97.96000 3.057
97.98000 2.121
98.00000 3.416
98.02000 1.840
98.04000 2.953
98.06000 5.624
98.08000 5.237
98.10000 6.119
98.12000 0.857
98.14000 6.600
98.16000 10.275
98.18000 17.569
98.20000 13.708
98.22000 7.905
98.24000 6.356
98.26000 0.332
98.28000 3.565
98.30000 11.048
98.32000 14.290
98.34000 14.870
98.36000 13.740
98.38000 11.713
98.40000 2.767
98.42000 1.655
98.44000 8.066
98.46000 12.197
98.48000 13.883
98.50000 13.918
98.52000 6.072
98.54000 7.433
98.56000 6.052
98.58000 -2.922
98.60000 4.636
98.62000 8.686
98.64000 12.826
98.66000 8.013
98.68000 8.970
98.70000 8.890
98.72000 7.271
98.74000 12.739
98.76000 13.628
98.78000 14.851
98.80000 10.549
98.82000 15.159
98.84000 7.154
98.86000 4.603
98.88000 4.277
98.90000 2.607
98.92000 6.884
98.94000 17.935
98.96000 15.734
98.98000 2.562
99.00000 -2.109
99.02000 3.893
99.04000 0.172
99.06000 8.339
99.08000 8.168
99.10000 6.845
99.12000 10.384
99.14000 14.667
99.16000 14.821
99.18000 13.291
99.20000 7.497
99.22000 5.010
99.24000 16.887
99.26000 16.631
99.28000 11.839
99.30000 6.977
99.32000 -3.550
99.34000 3.796
99.36000 5.392
99.38000 6.865
99.40000 12.241
99.42000 4.518
99.44000 2.617
99.46000 6.240
99.48000 12.648
99.50000 9.482
99.52000 8.856
99.54000 9.367
99.56000 -1.200
99.58000 3.176
99.60000 7.083
99.62000 6.287
99.64000 10.578
99.66000 8.524
99.68000 6.712
99.70000 3.224
99.72000 -2.135
99.74000 5.026
99.76000 4.002
99.78000 5.163
99.80000 11.550
99.82000 6.257
99.84000 3.169
99.86000 -2.191
99.88000 -2.211
99.90000 7.360
99.92000 -2.640
99.94000 6.598
99.96000 -2.360
99.98000 0.000
