'Id: "0011388" Comment: "Integrate frame 0011388_Au-Ir-Rh_Rh-rich_XRD-Mapping-298-0000.gfrmwith cursor Wedge Cursor #5" Operator: "B?rgel" Anode: "Cu" Wavelength: "1.5406" Scantype: "2Theta (TwoTheta)" TimePerStep: "1" X: "-22.5" Y: "31.5" Z: "5.95" 
10.00000 0.000
10.02000 3.746
10.04000 2.722
10.06000 6.240
10.08000 20.082
10.10000 21.661
10.12000 43.388
10.14000 40.687
10.16000 12.402
10.18000 4.391
10.20000 9.643
10.22000 14.308
10.24000 6.850
10.26000 21.240
10.28000 27.594
10.30000 37.895
10.32000 29.881
10.34000 19.042
10.36000 13.887
10.38000 13.577
10.40000 7.484
10.42000 11.678
10.44000 16.350
10.46000 24.420
10.48000 7.283
10.50000 -4.491
10.52000 5.775
10.54000 12.763
10.56000 6.717
10.58000 1.485
10.60000 2.765
10.62000 5.373
10.64000 20.022
10.66000 20.710
10.68000 15.973
10.70000 5.134
10.72000 2.678
10.74000 6.537
10.76000 3.310
10.78000 5.325
10.80000 15.383
10.82000 29.030
10.84000 26.537
10.86000 17.099
10.88000 10.767
10.90000 13.430
10.92000 15.596
10.94000 21.884
10.96000 15.093
10.98000 14.172
11.00000 11.994
11.02000 4.286
11.04000 9.145
11.06000 5.250
11.08000 14.975
11.10000 20.867
11.12000 14.421
11.14000 8.086
11.16000 15.050
11.18000 12.569
11.20000 11.765
11.22000 19.287
11.24000 12.031
11.26000 16.456
11.28000 19.525
11.30000 9.761
11.32000 3.112
11.34000 2.335
11.36000 14.476
11.38000 12.036
11.40000 3.370
11.42000 7.453
11.44000 8.932
11.46000 4.340
11.48000 5.176
11.50000 12.583
11.52000 -3.809
11.54000 -4.494
11.56000 10.592
11.58000 12.123
11.60000 18.543
11.62000 10.313
11.64000 9.222
11.66000 8.754
11.68000 8.538
11.70000 12.320
11.72000 9.615
11.74000 17.349
11.76000 19.349
11.78000 25.076
11.80000 23.086
11.82000 15.905
11.84000 5.395
11.86000 -0.662
11.88000 0.773
11.90000 8.342
11.92000 15.473
11.94000 19.254
11.96000 16.094
11.98000 8.836
12.00000 2.631
12.02000 4.431
12.04000 14.496
12.06000 26.390
12.08000 22.795
12.10000 11.796
12.12000 13.765
12.14000 6.849
12.16000 14.654
12.18000 12.866
12.20000 10.672
12.22000 11.034
12.24000 16.237
12.26000 8.336
12.28000 5.989
12.30000 4.370
12.32000 5.487
12.34000 5.018
12.36000 4.698
12.38000 9.963
12.40000 12.465
12.42000 20.876
12.44000 21.487
12.46000 8.896
12.48000 7.252
12.50000 10.732
12.52000 13.160
12.54000 14.204
12.56000 17.847
12.58000 11.453
12.60000 11.644
12.62000 17.616
12.64000 15.552
12.66000 11.733
12.68000 -2.326
12.70000 -3.297
12.72000 1.888
12.74000 14.005
12.76000 16.390
12.78000 18.109
12.80000 16.119
12.82000 15.588
12.84000 7.469
12.86000 2.250
12.88000 6.040
12.90000 6.426
12.92000 8.309
12.94000 11.088
12.96000 24.460
12.98000 20.194
13.00000 22.476
13.02000 20.397
13.04000 4.576
13.06000 -4.475
13.08000 3.894
13.10000 16.431
13.12000 14.450
13.14000 18.097
13.16000 15.937
13.18000 17.767
13.20000 20.750
13.22000 15.464
13.24000 15.398
13.26000 21.062
13.28000 18.344
13.30000 16.017
13.32000 21.590
13.34000 23.313
13.36000 21.748
13.38000 22.616
13.40000 23.060
13.42000 25.440
13.44000 29.934
13.46000 23.070
13.48000 17.914
13.50000 11.517
13.52000 14.605
13.54000 24.575
13.56000 20.114
13.58000 7.591
13.60000 -2.125
13.62000 -1.737
13.64000 9.534
13.66000 8.199
13.68000 7.803
13.70000 13.865
13.72000 14.865
13.74000 19.120
13.76000 23.738
13.78000 18.462
13.80000 13.518
13.82000 8.313
13.84000 7.038
13.86000 4.325
13.88000 13.877
13.90000 21.373
13.92000 18.775
13.94000 11.843
13.96000 22.472
13.98000 16.942
14.00000 4.407
14.02000 11.513
14.04000 6.393
14.06000 6.198
14.08000 9.812
14.10000 17.467
14.12000 14.793
14.14000 20.888
14.16000 8.395
14.18000 -4.490
14.20000 10.354
14.22000 8.819
14.24000 2.987
14.26000 8.143
14.28000 9.498
14.30000 7.654
14.32000 8.930
14.34000 17.771
14.36000 15.710
14.38000 7.485
14.40000 2.017
14.42000 7.984
14.44000 6.982
14.46000 16.145
14.48000 6.555
14.50000 8.749
14.52000 17.519
14.54000 10.741
14.56000 5.775
14.58000 5.841
14.60000 8.650
14.62000 11.613
14.64000 14.284
14.66000 5.800
14.68000 1.525
14.70000 9.521
14.72000 9.382
14.74000 7.278
14.76000 8.908
14.78000 3.655
14.80000 3.586
14.82000 -1.891
14.84000 0.994
14.86000 7.840
14.88000 5.760
14.90000 15.671
14.92000 14.708
14.94000 5.231
14.96000 4.008
14.98000 10.822
15.00000 15.877
15.02000 9.443
15.04000 5.754
15.06000 -2.422
15.08000 7.343
15.10000 3.781
15.12000 5.160
15.14000 4.191
15.16000 13.614
15.18000 17.903
15.20000 10.554
15.22000 7.456
15.24000 3.802
15.26000 2.540
15.28000 17.908
15.30000 15.978
15.32000 10.314
15.34000 -3.813
15.36000 0.862
15.38000 9.202
15.40000 18.059
15.42000 3.702
15.44000 10.484
15.46000 4.804
15.48000 7.196
15.50000 11.831
15.52000 8.924
15.54000 5.767
15.56000 8.777
15.58000 10.173
15.60000 12.614
15.62000 14.832
15.64000 6.478
15.66000 2.852
15.68000 5.500
15.70000 8.673
15.72000 12.690
15.74000 12.074
15.76000 7.620
15.78000 12.751
15.80000 11.102
15.82000 6.325
15.84000 9.929
15.86000 1.809
15.88000 1.500
15.90000 7.114
15.92000 6.197
15.94000 7.050
15.96000 3.527
15.98000 9.056
16.00000 3.184
16.02000 -4.469
16.04000 0.929
16.06000 -3.108
16.08000 3.658
16.10000 1.302
16.12000 5.075
16.14000 7.937
16.16000 5.684
16.18000 2.141
16.20000 5.576
16.22000 9.629
16.24000 10.171
16.26000 11.480
16.28000 7.837
16.30000 2.323
16.32000 0.135
16.34000 5.306
16.36000 6.660
16.38000 9.055
16.40000 11.587
16.42000 7.919
16.44000 15.843
16.46000 12.563
16.48000 9.411
16.50000 1.895
16.52000 8.246
16.54000 -2.210
16.56000 -3.460
16.58000 -2.367
16.60000 5.610
16.62000 -0.912
16.64000 -1.982
16.66000 7.500
16.68000 5.329
16.70000 1.931
16.72000 3.296
16.74000 7.218
16.76000 2.597
16.78000 -0.971
16.80000 6.768
16.82000 9.827
16.84000 14.550
16.86000 8.991
16.88000 13.081
16.90000 7.601
16.92000 3.650
16.94000 -2.384
16.96000 1.280
16.98000 5.545
17.00000 5.699
17.02000 3.450
17.04000 7.441
17.06000 -1.364
17.08000 6.770
17.10000 -0.916
17.12000 0.694
17.14000 10.919
17.16000 12.573
17.18000 0.786
17.20000 -1.386
17.22000 5.371
17.24000 11.867
17.26000 8.625
17.28000 3.857
17.30000 2.955
17.32000 -0.951
17.34000 4.505
17.36000 9.282
17.38000 11.917
17.40000 2.529
17.42000 7.575
17.44000 5.529
17.46000 9.207
17.48000 11.871
17.50000 6.096
17.52000 2.303
17.54000 5.199
17.56000 6.156
17.58000 7.989
17.60000 4.799
17.62000 4.424
17.64000 8.618
17.66000 13.163
17.68000 10.554
17.70000 9.695
17.72000 2.600
17.74000 4.245
17.76000 5.729
17.78000 6.618
17.80000 2.444
17.82000 -4.332
17.84000 -4.372
17.86000 3.632
17.88000 3.663
17.90000 4.572
17.92000 2.556
17.94000 6.865
17.96000 5.241
17.98000 3.686
18.00000 7.822
18.02000 14.153
18.04000 5.925
18.06000 2.461
18.08000 1.464
18.10000 9.670
18.12000 10.480
18.14000 6.167
18.16000 8.368
18.18000 11.523
18.20000 0.924
18.22000 2.964
18.24000 1.876
18.26000 1.405
18.28000 4.151
18.30000 10.352
18.32000 9.152
18.34000 1.374
18.36000 3.782
18.38000 1.513
18.40000 5.387
18.42000 4.486
18.44000 6.418
18.46000 -0.146
18.48000 -1.332
18.50000 5.594
18.52000 5.880
18.54000 -1.713
18.56000 1.722
18.58000 6.451
18.60000 7.382
18.62000 2.960
18.64000 4.057
18.66000 4.689
18.68000 1.605
18.70000 2.778
18.72000 5.074
18.74000 1.161
18.76000 4.336
18.78000 2.126
18.80000 4.930
18.82000 5.884
18.84000 2.738
18.86000 10.414
18.88000 11.231
18.90000 6.165
18.92000 7.966
18.94000 11.794
18.96000 7.571
18.98000 8.017
19.00000 2.124
19.02000 7.675
19.04000 5.104
19.06000 2.085
19.08000 3.576
19.10000 5.080
19.12000 4.924
19.14000 8.752
19.16000 9.112
19.18000 4.558
19.20000 3.136
19.22000 2.931
19.24000 6.932
19.26000 7.269
19.28000 6.587
19.30000 -3.327
19.32000 -4.288
19.34000 1.424
19.36000 4.418
19.38000 9.135
19.40000 6.162
19.42000 10.537
19.44000 4.859
19.46000 3.760
19.48000 4.269
19.50000 4.015
19.52000 9.356
19.54000 11.232
19.56000 2.998
19.58000 2.930
19.60000 4.060
19.62000 3.772
19.64000 2.783
19.66000 6.108
19.68000 -2.670
19.70000 1.875
19.72000 7.253
19.74000 4.243
19.76000 0.315
19.78000 1.052
19.80000 9.449
19.82000 3.707
19.84000 3.320
19.86000 5.564
19.88000 15.003
19.90000 8.237
19.92000 4.912
19.94000 3.031
19.96000 7.691
19.98000 6.074
20.00000 7.711
20.02000 18.162
20.04000 12.306
20.06000 3.006
20.08000 8.665
20.10000 10.779
20.12000 1.082
20.14000 -3.581
20.16000 3.959
20.18000 7.819
20.20000 8.874
20.22000 13.925
20.24000 11.820
20.26000 4.003
20.28000 1.799
20.30000 6.399
20.32000 8.821
20.34000 9.790
20.36000 21.465
20.38000 16.612
20.40000 13.149
20.42000 8.066
20.44000 2.684
20.46000 8.464
20.48000 4.980
20.50000 -4.194
20.52000 1.042
20.54000 5.437
20.56000 4.004
20.58000 4.435
20.60000 4.554
20.62000 7.837
20.64000 11.014
20.66000 10.778
20.68000 6.826
20.70000 4.707
20.72000 3.333
20.74000 2.176
20.76000 2.655
20.78000 6.522
20.80000 2.952
20.82000 1.756
20.84000 1.497
20.86000 6.977
20.88000 5.993
20.90000 8.859
20.92000 11.048
20.94000 7.848
20.96000 3.721
20.98000 3.659
21.00000 3.857
21.02000 1.771
21.04000 3.272
21.06000 3.145
21.08000 5.122
21.10000 2.962
21.12000 8.226
21.14000 1.376
21.16000 -1.318
21.18000 4.672
21.20000 7.688
21.22000 6.146
21.24000 7.251
21.26000 9.312
21.28000 8.593
21.30000 6.350
21.32000 5.766
21.34000 1.765
21.36000 2.682
21.38000 3.075
21.40000 5.093
21.42000 4.869
21.44000 8.509
21.46000 6.434
21.48000 4.956
21.50000 9.652
21.52000 10.196
21.54000 4.837
21.56000 5.666
21.58000 9.037
21.60000 8.699
21.62000 10.463
21.64000 8.538
21.66000 7.495
21.68000 6.914
21.70000 7.535
21.72000 9.575
21.74000 10.571
21.76000 8.612
21.78000 1.999
21.80000 3.085
21.82000 3.949
21.84000 -0.088
21.86000 4.292
21.88000 6.506
21.90000 5.732
21.92000 2.733
21.94000 2.486
21.96000 2.663
21.98000 3.576
22.00000 4.140
22.02000 2.521
22.04000 6.363
22.06000 7.999
22.08000 2.737
22.10000 6.178
22.12000 14.068
22.14000 4.707
22.16000 11.075
22.18000 7.831
22.20000 1.981
22.22000 0.967
22.24000 -4.119
22.26000 -2.579
22.28000 4.191
22.30000 -1.091
22.32000 5.483
22.34000 9.140
22.36000 8.403
22.38000 0.790
22.40000 5.489
22.42000 0.978
22.44000 -1.961
22.46000 4.591
22.48000 5.561
22.50000 -3.360
22.52000 -0.518
22.54000 2.079
22.56000 5.600
22.58000 1.502
22.60000 5.050
22.62000 4.498
22.64000 3.142
22.66000 -1.478
22.68000 1.469
22.70000 4.135
22.72000 2.115
22.74000 2.123
22.76000 1.429
22.78000 4.339
22.80000 10.178
22.82000 5.346
22.84000 0.354
22.86000 -2.824
22.88000 3.146
22.90000 -0.820
22.92000 0.552
22.94000 0.284
22.96000 0.908
22.98000 4.459
23.00000 -0.013
23.02000 -2.475
23.04000 5.541
23.06000 7.904
23.08000 4.989
23.10000 5.917
23.12000 8.371
23.14000 9.774
23.16000 8.602
23.18000 0.519
23.20000 -4.072
23.22000 12.741
23.24000 10.586
23.26000 5.784
23.28000 -0.506
23.30000 1.122
23.32000 5.145
23.34000 7.574
23.36000 5.950
23.38000 7.156
23.40000 7.887
23.42000 3.922
23.44000 2.590
23.46000 -4.064
23.48000 3.726
23.50000 6.220
23.52000 7.226
23.54000 8.743
23.56000 2.130
23.58000 -2.874
23.60000 -1.060
23.62000 2.272
23.64000 3.314
23.66000 4.372
23.68000 2.867
23.70000 2.829
23.72000 9.564
23.74000 9.352
23.76000 3.516
23.78000 -1.881
23.80000 4.256
23.82000 9.184
23.84000 3.113
23.86000 0.636
23.88000 4.024
23.90000 2.558
23.92000 6.570
23.94000 4.619
23.96000 1.543
23.98000 -0.006
24.00000 2.385
24.02000 0.610
24.04000 -3.766
24.06000 0.289
24.08000 4.286
24.10000 3.441
24.12000 0.823
24.14000 -0.344
24.16000 6.214
24.18000 8.018
24.20000 8.764
24.22000 6.177
24.24000 4.104
24.26000 3.052
24.28000 4.583
24.30000 0.259
24.32000 0.677
24.34000 -1.379
24.36000 0.004
24.38000 1.448
24.40000 3.599
24.42000 4.026
24.44000 2.347
24.46000 0.213
24.48000 -4.024
24.50000 -3.444
24.52000 4.724
24.54000 5.628
24.56000 3.850
24.58000 7.139
24.60000 9.221
24.62000 9.529
24.64000 7.549
24.66000 0.105
24.68000 2.573
24.70000 3.933
24.72000 5.156
24.74000 4.528
24.76000 6.134
24.78000 -0.147
24.80000 -0.443
24.82000 5.678
24.84000 2.371
24.86000 1.084
24.88000 2.169
24.90000 4.815
24.92000 0.192
24.94000 1.015
24.96000 2.318
24.98000 5.137
25.00000 -0.015
25.02000 -1.787
25.04000 1.900
25.06000 9.228
25.08000 9.745
25.10000 6.161
25.12000 -3.974
25.14000 2.683
25.16000 7.856
25.18000 11.505
25.20000 3.465
25.22000 4.814
25.24000 6.437
25.26000 2.599
25.28000 7.407
25.30000 5.915
25.32000 2.396
25.34000 5.210
25.36000 8.848
25.38000 3.644
25.40000 1.352
25.42000 2.859
25.44000 4.195
25.46000 2.942
25.48000 4.908
25.50000 5.299
25.52000 2.088
25.54000 0.526
25.56000 5.750
25.58000 2.937
25.60000 2.931
25.62000 -3.751
25.64000 -3.950
25.66000 -0.036
25.68000 1.581
25.70000 -0.802
25.72000 5.494
25.74000 3.116
25.76000 2.824
25.78000 2.376
25.80000 1.669
25.82000 0.832
25.84000 8.334
25.86000 8.077
25.88000 4.460
25.90000 5.092
25.92000 6.351
25.94000 4.456
25.96000 -0.779
25.98000 1.026
26.00000 6.266
26.02000 6.716
26.04000 7.702
26.06000 4.169
26.08000 4.733
26.10000 2.063
26.12000 0.108
26.14000 0.031
26.16000 2.546
26.18000 5.122
26.20000 -2.296
26.22000 -2.385
26.24000 -2.112
26.26000 -3.924
26.28000 -0.235
26.30000 2.382
26.32000 -0.321
26.34000 3.201
26.36000 9.692
26.38000 6.846
26.40000 3.910
26.42000 5.884
26.44000 -1.317
26.46000 -2.467
26.48000 2.087
26.50000 0.975
26.52000 -3.915
26.54000 -2.481
26.56000 0.814
26.58000 -3.052
26.60000 -3.380
26.62000 5.387
26.64000 6.693
26.66000 3.664
26.68000 1.631
26.70000 5.294
26.72000 3.780
26.74000 10.609
26.76000 10.481
26.78000 4.757
26.80000 3.136
26.82000 3.992
26.84000 0.333
26.86000 1.066
26.88000 2.583
26.90000 0.082
26.92000 -2.234
26.94000 3.188
26.96000 2.168
26.98000 5.630
27.00000 9.575
27.02000 7.843
27.04000 5.178
27.06000 3.003
27.08000 1.203
27.10000 0.526
27.12000 -0.297
27.14000 -3.645
27.16000 -3.410
27.18000 1.682
27.20000 -0.360
27.22000 -1.870
27.24000 2.568
27.26000 3.558
27.28000 3.870
27.30000 0.317
27.32000 -3.882
27.34000 -2.008
27.36000 2.345
27.38000 3.665
27.40000 6.944
27.42000 5.912
27.44000 6.344
27.46000 2.919
27.48000 0.854
27.50000 0.682
27.52000 3.582
27.54000 1.799
27.56000 -0.097
27.58000 0.777
27.60000 2.703
27.62000 3.320
27.64000 5.733
27.66000 5.578
27.68000 5.007
27.70000 3.898
27.72000 -1.392
27.74000 3.321
27.76000 6.369
27.78000 5.713
27.80000 3.620
27.82000 -0.580
27.84000 -3.844
27.86000 0.855
27.88000 -2.264
27.90000 2.468
27.92000 4.031
27.94000 3.843
27.96000 3.212
27.98000 1.743
28.00000 0.694
28.02000 3.475
28.04000 5.892
28.06000 2.350
28.08000 -1.732
28.10000 4.645
28.12000 10.950
28.14000 7.905
28.16000 -1.616
28.18000 -2.007
28.20000 -3.430
28.22000 -0.012
28.24000 4.917
28.26000 4.549
28.28000 7.712
28.30000 13.916
28.32000 13.668
28.34000 7.616
28.36000 1.349
28.38000 -0.495
28.40000 0.696
28.42000 6.057
28.44000 8.788
28.46000 9.010
28.48000 8.777
28.50000 6.364
28.52000 0.640
28.54000 -3.774
28.56000 -1.042
28.58000 3.445
28.60000 5.345
28.62000 5.126
28.64000 6.070
28.66000 7.027
28.68000 4.464
28.70000 6.266
28.72000 10.602
28.74000 9.405
28.76000 7.022
28.78000 0.793
28.80000 -0.005
28.82000 2.455
28.84000 4.424
28.86000 -0.435
28.88000 4.494
28.90000 9.949
28.92000 6.089
28.94000 3.868
28.96000 5.663
28.98000 4.337
29.00000 2.018
29.02000 0.018
29.04000 2.916
29.06000 11.765
29.08000 6.741
29.10000 7.569
29.12000 3.442
29.14000 3.106
29.16000 -0.494
29.18000 2.273
29.20000 7.724
29.22000 9.326
29.24000 3.117
29.26000 0.898
29.28000 5.234
29.30000 4.289
29.32000 7.087
29.34000 12.114
29.36000 12.386
29.38000 4.841
29.40000 4.281
29.42000 5.996
29.44000 2.446
29.46000 1.747
29.48000 0.803
29.50000 4.579
29.52000 2.475
29.54000 1.804
29.56000 -1.672
29.58000 3.031
29.60000 1.127
29.62000 3.744
29.64000 0.487
29.66000 -3.739
29.68000 0.444
29.70000 0.657
29.72000 0.392
29.74000 -0.472
29.76000 -1.422
29.78000 2.953
29.80000 4.509
29.82000 2.054
29.84000 0.960
29.86000 0.829
29.88000 1.836
29.90000 7.589
29.92000 4.173
29.94000 -1.614
29.96000 -2.550
29.98000 -0.529
30.00000 4.130
30.02000 5.198
30.04000 4.213
30.06000 4.102
30.08000 1.851
30.10000 1.157
30.12000 2.249
30.14000 2.682
30.16000 3.038
30.18000 2.120
30.20000 -0.534
30.22000 -1.721
30.24000 -2.350
30.26000 0.543
30.28000 2.647
30.30000 3.665
30.32000 7.157
30.34000 2.016
30.36000 2.185
30.38000 -0.239
30.40000 3.003
30.42000 2.462
30.44000 6.490
30.46000 10.272
30.48000 7.787
30.50000 4.817
30.52000 -0.720
30.54000 5.419
30.56000 4.908
30.58000 7.632
30.60000 3.489
30.62000 3.676
30.64000 2.193
30.66000 2.045
30.68000 3.477
30.70000 4.173
30.72000 7.466
30.74000 5.676
30.76000 9.361
30.78000 8.682
30.80000 4.786
30.82000 5.255
30.84000 3.600
30.86000 5.359
30.88000 6.992
30.90000 5.240
30.92000 3.421
30.94000 1.843
30.96000 6.370
30.98000 3.394
31.00000 3.956
31.02000 5.737
31.04000 6.366
31.06000 8.605
31.08000 4.918
31.10000 2.833
31.12000 5.136
31.14000 5.651
31.16000 -0.764
31.18000 -3.650
31.20000 -1.143
31.22000 1.444
31.24000 7.438
31.26000 8.368
31.28000 8.744
31.30000 5.608
31.32000 2.941
31.34000 3.388
31.36000 2.507
31.38000 -2.591
31.40000 -1.422
31.42000 1.612
31.44000 2.287
31.46000 5.148
31.48000 6.219
31.50000 2.493
31.52000 2.681
31.54000 1.206
31.56000 4.545
31.58000 3.944
31.60000 1.964
31.62000 4.474
31.64000 6.850
31.66000 6.380
31.68000 4.301
31.70000 2.094
31.72000 2.670
31.74000 3.185
31.76000 7.731
31.78000 5.208
31.80000 4.304
31.82000 4.178
31.84000 6.762
31.86000 7.028
31.88000 6.739
31.90000 5.753
31.92000 0.297
31.94000 3.020
31.96000 4.369
31.98000 1.047
32.00000 0.070
32.02000 -1.530
32.04000 -0.871
32.06000 -0.894
32.08000 -3.653
32.10000 0.864
32.12000 3.149
32.14000 1.461
32.16000 -3.194
32.18000 -0.564
32.20000 3.957
32.22000 3.683
32.24000 -1.754
32.26000 -3.223
32.28000 -0.025
32.30000 2.212
32.32000 -1.377
32.34000 -3.652
32.36000 -3.003
32.38000 0.561
32.40000 -1.107
32.42000 1.519
32.44000 -0.545
32.46000 2.515
32.48000 2.259
32.50000 3.557
32.52000 10.061
32.54000 8.086
32.56000 5.182
32.58000 -2.293
32.60000 -0.575
32.62000 -0.101
32.64000 3.617
32.66000 2.370
32.68000 2.126
32.70000 0.478
32.72000 -1.995
32.74000 -1.334
32.76000 -1.951
32.78000 -1.627
32.80000 2.964
32.82000 2.376
32.84000 3.347
32.86000 5.424
32.88000 0.412
32.90000 1.295
32.92000 2.240
32.94000 0.293
32.96000 4.701
32.98000 11.155
33.00000 5.215
33.02000 1.378
33.04000 7.268
33.06000 4.156
33.08000 -0.455
33.10000 1.561
33.12000 6.558
33.14000 -1.205
33.16000 -0.736
33.18000 -0.362
33.20000 -2.949
33.22000 -1.278
33.24000 2.894
33.26000 2.226
33.28000 -0.311
33.30000 -1.434
33.32000 0.429
33.34000 0.589
33.36000 0.337
33.38000 0.893
33.40000 2.925
33.42000 0.561
33.44000 -1.286
33.46000 2.839
33.48000 2.852
33.50000 1.150
33.52000 3.597
33.54000 1.211
33.56000 -1.474
33.58000 -2.079
33.60000 2.364
33.62000 -1.397
33.64000 2.690
33.66000 6.015
33.68000 2.758
33.70000 7.014
33.72000 10.047
33.74000 5.839
33.76000 4.319
33.78000 2.865
33.80000 1.029
33.82000 -0.637
33.84000 6.424
33.86000 7.375
33.88000 3.186
33.90000 -0.459
33.92000 2.898
33.94000 2.605
33.96000 1.177
33.98000 -0.329
34.00000 0.935
34.02000 -0.433
34.04000 0.045
34.06000 -1.634
34.08000 -3.620
34.10000 -0.972
34.12000 4.785
34.14000 3.543
34.16000 -0.024
34.18000 5.515
34.20000 5.564
34.22000 5.494
34.24000 5.577
34.26000 5.190
34.28000 2.498
34.30000 0.397
34.32000 0.078
34.34000 4.351
34.36000 4.379
34.38000 4.317
34.40000 2.764
34.42000 7.302
34.44000 7.114
34.46000 8.509
34.48000 4.901
34.50000 7.473
34.52000 9.838
34.54000 6.711
34.56000 6.025
34.58000 7.784
34.60000 7.743
34.62000 9.579
34.64000 8.161
34.66000 3.101
34.68000 -3.576
34.70000 0.020
34.72000 4.236
34.74000 2.432
34.76000 4.049
34.78000 2.570
34.80000 2.947
34.82000 2.679
34.84000 7.355
34.86000 6.417
34.88000 5.446
34.90000 7.276
34.92000 5.090
34.94000 -1.530
34.96000 0.372
34.98000 4.207
35.00000 0.027
35.02000 -0.934
35.04000 -3.493
35.06000 -3.142
35.08000 0.787
35.10000 -1.293
35.12000 -0.297
35.14000 0.253
35.16000 0.843
35.18000 2.552
35.20000 8.250
35.22000 5.916
35.24000 6.080
35.26000 4.109
35.28000 3.318
35.30000 6.223
35.32000 5.131
35.34000 2.256
35.36000 2.776
35.38000 0.432
35.40000 1.913
35.42000 -1.925
35.44000 -0.471
35.46000 1.991
35.48000 3.774
35.50000 1.119
35.52000 -0.592
35.54000 2.333
35.56000 5.319
35.58000 2.315
35.60000 -2.242
35.62000 0.244
35.64000 4.946
35.66000 6.327
35.68000 1.921
35.70000 -0.975
35.72000 -1.097
35.74000 -3.606
35.76000 -1.878
35.78000 3.922
35.80000 1.417
35.82000 0.204
35.84000 2.710
35.86000 2.599
35.88000 0.427
35.90000 7.482
35.92000 9.279
35.94000 4.786
35.96000 2.194
35.98000 2.255
36.00000 5.789
36.02000 -0.796
36.04000 2.024
36.06000 1.560
36.08000 -3.633
36.10000 -0.947
36.12000 6.056
36.14000 5.050
36.16000 -3.498
36.18000 -3.369
36.20000 1.769
36.22000 2.279
36.24000 2.660
36.26000 1.480
36.28000 -1.302
36.30000 -2.798
36.32000 -1.827
36.34000 2.176
36.36000 6.655
36.38000 2.004
36.40000 0.211
36.42000 -0.670
36.44000 -3.659
36.46000 -1.261
36.48000 1.429
36.50000 -1.964
36.52000 0.058
36.54000 7.718
36.56000 10.629
36.58000 1.721
36.60000 1.533
36.62000 0.398
36.64000 4.347
36.66000 1.333
36.68000 -1.046
36.70000 -0.222
36.72000 0.166
36.74000 4.849
36.76000 2.353
36.78000 -0.956
36.80000 -1.458
36.82000 -3.695
36.84000 -3.573
36.86000 -1.516
36.88000 -2.059
36.90000 2.997
36.92000 6.186
36.94000 -0.449
36.96000 -0.024
36.98000 1.596
37.00000 1.579
37.02000 0.606
37.04000 -0.014
37.06000 1.284
37.08000 1.901
37.10000 1.901
37.12000 1.609
37.14000 -3.730
37.16000 -1.670
37.18000 4.763
37.20000 5.975
37.22000 3.744
37.24000 0.704
37.26000 -1.544
37.28000 2.514
37.30000 6.101
37.32000 5.438
37.34000 5.536
37.36000 7.031
37.38000 1.628
37.40000 6.112
37.42000 3.942
37.44000 3.967
37.46000 5.585
37.48000 8.076
37.50000 4.653
37.52000 1.841
37.54000 5.994
37.56000 0.016
37.58000 1.687
37.60000 11.652
37.62000 7.000
37.64000 8.207
37.66000 9.676
37.68000 12.421
37.70000 8.554
37.72000 7.087
37.74000 9.562
37.76000 8.761
37.78000 10.068
37.80000 11.265
37.82000 8.979
37.84000 15.416
37.86000 18.727
37.88000 23.239
37.90000 17.732
37.92000 21.048
37.94000 19.461
37.96000 22.985
37.98000 22.964
38.00000 22.344
38.02000 17.990
38.04000 19.480
38.06000 21.424
38.08000 21.763
38.10000 25.442
38.12000 22.775
38.14000 19.271
38.16000 25.780
38.18000 29.323
38.20000 29.422
38.22000 25.571
38.24000 30.070
38.26000 33.332
38.28000 30.429
38.30000 28.610
38.32000 30.248
38.34000 32.503
38.36000 33.005
38.38000 30.836
38.40000 31.258
38.42000 37.363
38.44000 34.901
38.46000 37.991
38.48000 40.692
38.50000 48.295
38.52000 47.275
38.54000 50.289
38.56000 54.753
38.58000 51.582
38.60000 56.969
38.62000 54.575
38.64000 55.243
38.66000 58.626
38.68000 65.791
38.70000 67.815
38.72000 66.233
38.74000 66.803
38.76000 71.618
38.78000 74.618
38.80000 77.126
38.82000 85.745
38.84000 88.400
38.86000 87.751
38.88000 95.961
38.90000 99.934
38.92000 104.118
38.94000 100.013
38.96000 102.119
38.98000 112.168
39.00000 121.772
39.02000 121.928
39.04000 126.147
39.06000 131.009
39.08000 135.017
39.10000 147.228
39.12000 157.608
39.14000 162.615
39.16000 165.995
39.18000 175.710
39.20000 190.594
39.22000 188.582
39.24000 195.994
39.26000 205.337
39.28000 222.367
39.30000 235.324
39.32000 245.958
39.34000 258.183
39.36000 268.802
39.38000 296.494
39.40000 302.838
39.42000 308.337
39.44000 327.113
39.46000 343.736
39.48000 362.807
39.50000 381.131
39.52000 398.652
39.54000 408.435
39.56000 426.492
39.58000 441.560
39.60000 468.384
39.62000 492.226
39.64000 504.970
39.66000 528.996
39.68000 548.662
39.70000 570.367
39.72000 601.586
39.74000 628.365
39.76000 643.396
39.78000 654.574
39.80000 673.721
39.82000 686.235
39.84000 707.195
39.86000 739.778
39.88000 757.091
39.90000 778.280
39.92000 780.660
39.94000 771.633
39.96000 787.297
39.98000 812.579
40.00000 809.107
40.02000 806.785
40.04000 801.853
40.06000 787.384
40.08000 796.259
40.10000 794.916
40.12000 780.071
40.14000 774.555
40.16000 749.108
40.18000 728.776
40.20000 719.065
40.22000 704.596
40.24000 685.759
40.26000 665.473
40.28000 654.305
40.30000 628.071
40.32000 593.120
40.34000 563.455
40.36000 543.543
40.38000 529.062
40.40000 498.552
40.42000 476.633
40.44000 451.116
40.46000 420.423
40.48000 399.617
40.50000 385.990
40.52000 364.451
40.54000 357.167
40.56000 336.183
40.58000 311.586
40.60000 297.706
40.62000 279.641
40.64000 254.108
40.66000 234.125
40.68000 226.662
40.70000 208.751
40.72000 188.537
40.74000 178.488
40.76000 173.478
40.78000 166.280
40.80000 161.560
40.82000 155.200
40.84000 144.751
40.86000 132.245
40.88000 127.048
40.90000 117.485
40.92000 118.296
40.94000 109.182
40.96000 95.394
40.98000 95.597
41.00000 90.087
41.02000 84.840
41.04000 77.799
41.06000 73.286
41.08000 70.931
41.10000 65.061
41.12000 59.711
41.14000 54.567
41.16000 54.681
41.18000 50.679
41.20000 48.336
41.22000 43.102
41.24000 35.590
41.26000 40.792
41.28000 43.359
41.30000 35.755
41.32000 29.470
41.34000 30.265
41.36000 31.352
41.38000 32.552
41.40000 26.567
41.42000 22.062
41.44000 22.175
41.46000 25.283
41.48000 24.265
41.50000 21.803
41.52000 23.712
41.54000 19.015
41.56000 16.959
41.58000 13.541
41.60000 10.898
41.62000 14.139
41.64000 16.167
41.66000 11.469
41.68000 7.748
41.70000 13.495
41.72000 13.450
41.74000 11.921
41.76000 10.493
41.78000 12.818
41.80000 11.980
41.82000 7.245
41.84000 5.341
41.86000 4.574
41.88000 3.871
41.90000 4.650
41.92000 3.208
41.94000 7.686
41.96000 8.868
41.98000 6.377
42.00000 4.376
42.02000 6.181
42.04000 5.872
42.06000 2.404
42.08000 6.131
42.10000 4.664
42.12000 5.776
42.14000 6.056
42.16000 3.222
42.18000 0.953
42.20000 3.068
42.22000 3.005
42.24000 1.416
42.26000 2.927
42.28000 -2.384
42.30000 -3.244
42.32000 0.035
42.34000 4.309
42.36000 -1.163
42.38000 -2.560
42.40000 0.343
42.42000 -1.096
42.44000 -1.640
42.46000 -3.669
42.48000 1.166
42.50000 1.120
42.52000 5.362
42.54000 4.272
42.56000 -1.430
42.58000 -2.146
42.60000 -2.811
42.62000 -2.193
42.64000 -1.051
42.66000 -1.010
42.68000 -1.353
42.70000 2.419
42.72000 0.767
42.74000 1.705
42.76000 1.039
42.78000 -0.609
42.80000 0.099
42.82000 -1.576
42.84000 -0.433
42.86000 -1.031
42.88000 1.360
42.90000 -0.971
42.92000 0.717
42.94000 3.464
42.96000 4.934
42.98000 2.730
43.00000 -0.976
43.02000 -0.379
43.04000 2.421
43.06000 3.442
43.08000 3.684
43.10000 1.945
43.12000 0.305
43.14000 -3.595
43.16000 -1.413
43.18000 0.921
43.20000 0.018
43.22000 2.751
43.24000 2.351
43.26000 -1.159
43.28000 2.457
43.30000 2.010
43.32000 -1.413
43.34000 0.447
43.36000 -0.998
43.38000 -2.136
43.40000 0.903
43.42000 2.957
43.44000 0.706
43.46000 0.779
43.48000 5.306
43.50000 4.649
43.52000 5.261
43.54000 1.374
43.56000 0.963
43.58000 -0.524
43.60000 -1.074
43.62000 -1.178
43.64000 -3.589
43.66000 -0.946
43.68000 -1.579
43.70000 0.096
43.72000 2.592
43.74000 0.659
43.76000 0.746
43.78000 0.025
43.80000 2.152
43.82000 -0.071
43.84000 -1.500
43.86000 0.290
43.88000 -0.239
43.90000 0.321
43.92000 -0.132
43.94000 1.061
43.96000 0.436
43.98000 -2.340
44.00000 2.105
44.02000 4.368
44.04000 0.904
44.06000 0.982
44.08000 1.437
44.10000 -0.710
44.12000 -2.693
44.14000 -3.579
44.16000 -3.301
44.18000 2.092
44.20000 2.296
44.22000 2.018
44.24000 1.604
44.26000 -2.832
44.28000 -1.695
44.30000 -0.157
44.32000 2.154
44.34000 0.814
44.36000 -0.295
44.38000 -1.707
44.40000 -3.572
44.42000 5.114
44.44000 3.719
44.46000 5.748
44.48000 8.663
44.50000 9.586
44.52000 3.419
44.54000 4.292
44.56000 -0.390
44.58000 0.483
44.60000 2.587
44.62000 3.511
44.64000 3.547
44.66000 5.880
44.68000 7.563
44.70000 1.966
44.72000 -3.583
44.74000 2.297
44.76000 4.659
44.78000 4.080
44.80000 0.352
44.82000 2.200
44.84000 7.384
44.86000 7.621
44.88000 6.767
44.90000 7.967
44.92000 7.996
44.94000 12.098
44.96000 8.330
44.98000 4.762
45.00000 7.852
45.02000 12.096
45.04000 14.732
45.06000 15.219
45.08000 13.343
45.10000 10.643
45.12000 10.870
45.14000 12.998
45.16000 11.711
45.18000 18.209
45.20000 18.316
45.22000 17.459
45.24000 8.108
45.26000 15.505
45.28000 15.298
45.30000 17.954
45.32000 18.558
45.34000 17.879
45.36000 19.979
45.38000 28.672
45.40000 27.750
45.42000 17.522
45.44000 16.580
45.46000 22.938
45.48000 26.039
45.50000 20.038
45.52000 29.694
45.54000 33.413
45.56000 32.105
45.58000 34.212
45.60000 31.353
45.62000 30.913
45.64000 35.874
45.66000 34.322
45.68000 32.663
45.70000 32.316
45.72000 33.317
45.74000 28.337
45.76000 37.499
45.78000 39.038
45.80000 38.601
45.82000 44.629
45.84000 47.992
45.86000 44.307
45.88000 47.358
45.90000 46.657
45.92000 47.328
45.94000 51.083
45.96000 50.714
45.98000 52.099
46.00000 45.917
46.02000 56.680
46.04000 61.719
46.06000 61.961
46.08000 62.481
46.10000 69.042
46.12000 64.031
46.14000 65.040
46.16000 67.361
46.18000 58.472
46.20000 69.846
46.22000 75.351
46.24000 74.193
46.26000 71.420
46.28000 66.950
46.30000 69.292
46.32000 75.157
46.34000 77.091
46.36000 81.795
46.38000 79.987
46.40000 80.240
46.42000 77.338
46.44000 87.420
46.46000 86.848
46.48000 82.449
46.50000 85.643
46.52000 90.549
46.54000 87.087
46.56000 82.149
46.58000 78.283
46.60000 77.282
46.62000 82.415
46.64000 83.547
46.66000 88.438
46.68000 76.441
46.70000 82.370
46.72000 76.401
46.74000 80.162
46.76000 84.779
46.78000 81.136
46.80000 79.002
46.82000 79.535
46.84000 78.810
46.86000 74.510
46.88000 70.783
46.90000 68.896
46.92000 70.592
46.94000 66.193
46.96000 65.814
46.98000 64.734
47.00000 62.938
47.02000 57.241
47.04000 60.606
47.06000 61.787
47.08000 52.686
47.10000 53.268
47.12000 54.549
47.14000 57.643
47.16000 52.913
47.18000 48.183
47.20000 47.768
47.22000 44.662
47.24000 41.493
47.26000 47.905
47.28000 44.387
47.30000 35.476
47.32000 35.180
47.34000 32.713
47.36000 29.851
47.38000 28.331
47.40000 29.572
47.42000 28.488
47.44000 28.972
47.46000 32.542
47.48000 28.945
47.50000 28.982
47.52000 26.358
47.54000 25.464
47.56000 25.468
47.58000 18.650
47.60000 12.862
47.62000 8.731
47.64000 15.373
47.66000 19.798
47.68000 14.407
47.70000 5.534
47.72000 3.902
47.74000 11.764
47.76000 13.946
47.78000 5.280
47.80000 5.244
47.82000 13.084
47.84000 11.305
47.86000 8.857
47.88000 10.855
47.90000 11.798
47.92000 9.732
47.94000 10.705
47.96000 6.614
47.98000 16.199
48.00000 13.541
48.02000 4.777
48.04000 4.254
48.06000 1.065
48.08000 3.175
48.10000 5.628
48.12000 4.580
48.14000 1.080
48.16000 3.816
48.18000 0.938
48.20000 2.972
48.22000 4.115
48.24000 4.803
48.26000 0.840
48.28000 4.468
48.30000 3.947
48.32000 -0.361
48.34000 0.537
48.36000 3.665
48.38000 6.892
48.40000 6.702
48.42000 6.237
48.44000 12.873
48.46000 13.147
48.48000 13.563
48.50000 6.354
48.52000 1.564
48.54000 5.272
48.56000 8.080
48.58000 6.260
48.60000 6.518
48.62000 -0.354
48.64000 -3.241
48.66000 -0.699
48.68000 -2.167
48.70000 0.256
48.72000 5.052
48.74000 2.985
48.76000 5.148
48.78000 5.272
48.80000 3.407
48.82000 9.138
48.84000 5.915
48.86000 3.987
48.88000 5.112
48.90000 -3.221
48.92000 1.391
48.94000 4.642
48.96000 1.594
48.98000 0.597
49.00000 1.478
49.02000 1.344
49.04000 9.105
49.06000 2.243
49.08000 -2.068
49.10000 -0.157
49.12000 -0.518
49.14000 -2.546
49.16000 2.793
49.18000 6.668
49.20000 7.256
49.22000 5.750
49.24000 -1.818
49.26000 -2.974
49.28000 -3.189
49.30000 4.665
49.32000 4.428
49.34000 0.463
49.36000 -2.538
49.38000 0.685
49.40000 0.162
49.42000 -1.226
49.44000 -2.395
49.46000 2.529
49.48000 0.985
49.50000 3.029
49.52000 -2.907
49.54000 1.756
49.56000 1.907
49.58000 5.388
49.60000 4.949
49.62000 1.434
49.64000 0.293
49.66000 -2.783
49.68000 1.135
49.70000 -0.713
49.72000 5.512
49.74000 7.584
49.76000 7.018
49.78000 7.413
49.80000 5.281
49.82000 3.742
49.84000 5.948
49.86000 8.758
49.88000 2.593
49.90000 1.132
49.92000 2.486
49.94000 4.925
49.96000 2.219
49.98000 0.304
50.00000 0.949
50.02000 3.355
50.04000 1.707
50.06000 1.493
50.08000 -0.897
50.10000 -0.873
50.12000 2.299
50.14000 0.038
50.16000 -1.303
50.18000 -0.381
50.20000 0.305
50.22000 -2.847
50.24000 0.125
50.26000 1.979
50.28000 2.256
50.30000 2.257
50.32000 3.503
50.34000 0.790
50.36000 0.543
50.38000 -1.336
50.40000 1.800
50.42000 1.919
50.44000 0.738
50.46000 2.123
50.48000 1.237
50.50000 2.617
50.52000 3.003
50.54000 1.032
50.56000 0.697
50.58000 1.542
50.60000 2.494
50.62000 1.912
50.64000 4.975
50.66000 7.232
50.68000 7.341
50.70000 4.942
50.72000 -0.383
50.74000 1.120
50.76000 10.725
50.78000 6.001
50.80000 2.765
50.82000 6.757
50.84000 5.658
50.86000 4.191
50.88000 8.857
50.90000 5.693
50.92000 5.842
50.94000 6.432
50.96000 10.302
50.98000 10.099
51.00000 10.324
51.02000 7.874
51.04000 -3.235
51.06000 6.930
51.08000 16.371
51.10000 10.975
51.12000 11.104
51.14000 5.803
51.16000 5.351
51.18000 12.625
51.20000 11.893
51.22000 7.745
51.24000 12.280
51.26000 9.171
51.28000 3.178
51.30000 -0.907
51.32000 5.585
51.34000 3.942
51.36000 9.042
51.38000 6.074
51.40000 4.728
51.42000 8.631
51.44000 5.524
51.46000 5.185
51.48000 1.790
51.50000 9.258
51.52000 4.047
51.54000 1.574
51.56000 4.817
51.58000 4.848
51.60000 3.071
51.62000 6.942
51.64000 9.123
51.66000 13.874
51.68000 6.720
51.70000 7.479
51.72000 5.765
51.74000 5.345
51.76000 -2.424
51.78000 4.176
51.80000 6.982
51.82000 4.742
51.84000 3.001
51.86000 1.731
51.88000 4.242
51.90000 4.854
51.92000 3.097
51.94000 1.498
51.96000 4.371
51.98000 1.979
52.00000 -0.882
52.02000 0.275
52.04000 0.650
52.06000 2.909
52.08000 10.433
52.10000 2.961
52.12000 1.399
52.14000 0.008
52.16000 3.778
52.18000 9.425
52.20000 4.981
52.22000 -0.027
52.24000 -2.145
52.26000 7.456
52.28000 5.074
52.30000 0.125
52.32000 4.293
52.34000 10.935
52.36000 8.216
52.38000 6.119
52.40000 8.929
52.42000 4.217
52.44000 -2.185
52.46000 2.856
52.48000 6.566
52.50000 6.204
52.52000 4.716
52.54000 5.405
52.56000 2.960
52.58000 1.668
52.60000 -0.050
52.62000 5.298
52.64000 8.562
52.66000 4.211
52.68000 -0.211
52.70000 -1.859
52.72000 0.064
52.74000 6.250
52.76000 3.755
52.78000 -3.031
52.80000 -0.225
52.82000 5.364
52.84000 1.894
52.86000 4.951
52.88000 5.094
52.90000 2.747
52.92000 1.991
52.94000 -2.781
52.96000 6.428
52.98000 3.834
53.00000 3.505
53.02000 6.522
53.04000 3.143
53.06000 -0.453
53.08000 2.144
53.10000 2.434
53.12000 -0.573
53.14000 -1.593
53.16000 -1.185
53.18000 3.264
53.20000 -0.766
53.22000 7.419
53.24000 2.406
53.26000 0.910
53.28000 4.712
53.30000 1.232
53.32000 -1.286
53.34000 1.833
53.36000 0.519
53.38000 2.172
53.40000 4.602
53.42000 5.523
53.44000 -1.660
53.46000 -0.463
53.48000 7.741
53.50000 6.626
53.52000 -0.807
53.54000 -1.130
53.56000 -0.576
53.58000 -1.976
53.60000 -2.627
53.62000 2.513
53.64000 5.851
53.66000 6.917
53.68000 0.925
53.70000 0.746
53.72000 0.621
53.74000 -1.823
53.76000 -2.110
53.78000 2.956
53.80000 6.161
53.82000 4.763
53.84000 2.842
53.86000 4.480
53.88000 3.766
53.90000 0.741
53.92000 -3.000
53.94000 -0.050
53.96000 2.029
53.98000 2.002
54.00000 2.893
54.02000 1.581
54.04000 3.587
54.06000 3.537
54.08000 2.978
54.10000 1.751
54.12000 3.029
54.14000 -0.817
54.16000 -1.112
54.18000 4.033
54.20000 1.852
54.22000 3.297
54.24000 5.259
54.26000 2.524
54.28000 3.512
54.30000 0.026
54.32000 0.741
54.34000 2.107
54.36000 -2.984
54.38000 0.475
54.40000 2.746
54.42000 2.049
54.44000 5.956
54.46000 3.135
54.48000 4.891
54.50000 5.265
54.52000 2.830
54.54000 5.493
54.56000 3.844
54.58000 10.595
54.60000 2.967
54.62000 2.600
54.64000 7.232
54.66000 8.890
54.68000 1.381
54.70000 3.054
54.72000 5.269
54.74000 6.930
54.76000 3.953
54.78000 -2.970
54.80000 1.795
54.82000 4.775
54.84000 -0.829
54.86000 4.239
54.88000 2.157
54.90000 5.684
54.92000 4.387
54.94000 5.739
54.96000 3.636
54.98000 6.767
55.00000 2.140
55.02000 1.091
55.04000 5.171
55.06000 8.126
55.08000 6.733
55.10000 5.343
55.12000 5.134
55.14000 -1.905
55.16000 -0.501
55.18000 0.986
55.20000 4.091
55.22000 1.079
55.24000 -2.268
55.26000 -2.338
55.28000 -2.123
55.30000 -1.999
55.32000 -2.949
55.34000 -0.407
55.36000 3.814
55.38000 4.334
55.40000 4.445
55.42000 3.141
55.44000 4.252
55.46000 4.598
55.48000 3.938
55.50000 1.374
55.52000 -0.192
55.54000 1.791
55.56000 1.767
55.58000 0.194
55.60000 0.083
55.62000 -2.944
55.64000 3.783
55.66000 6.279
55.68000 10.385
55.70000 2.996
55.72000 2.542
55.74000 4.208
55.76000 6.635
55.78000 0.483
55.80000 1.544
55.82000 6.068
55.84000 2.344
55.86000 1.355
55.88000 0.709
55.90000 1.806
55.92000 3.360
55.94000 2.188
55.96000 7.099
55.98000 5.150
56.00000 4.634
56.02000 -1.674
56.04000 0.612
56.06000 5.841
56.08000 3.876
56.10000 0.175
56.12000 -0.909
56.14000 -1.384
56.16000 -1.464
56.18000 1.082
56.20000 6.624
56.22000 4.156
56.24000 1.631
56.26000 2.436
56.28000 1.116
56.30000 0.199
56.32000 3.570
56.34000 7.308
56.36000 5.136
56.38000 1.769
56.40000 -1.514
56.42000 -0.125
56.44000 1.053
56.46000 0.026
56.48000 5.057
56.50000 2.986
56.52000 -0.671
56.54000 -0.410
56.56000 2.257
56.58000 3.294
56.60000 4.867
56.62000 1.684
56.64000 6.821
56.66000 2.815
56.68000 0.093
56.70000 0.455
56.72000 -1.246
56.74000 -2.927
56.76000 -0.707
56.78000 -0.102
56.80000 2.379
56.82000 4.976
56.84000 3.753
56.86000 3.157
56.88000 -0.261
56.90000 2.870
56.92000 3.464
56.94000 2.234
56.96000 -1.894
56.98000 1.762
57.00000 1.666
57.02000 -0.940
57.04000 1.335
57.06000 1.404
57.08000 5.647
57.10000 8.021
57.12000 3.456
57.14000 3.240
57.16000 -1.549
57.18000 -2.802
57.20000 -0.798
57.22000 -2.895
57.24000 0.667
57.26000 5.090
57.28000 8.524
57.30000 0.334
57.32000 -2.082
57.34000 2.717
57.36000 5.545
57.38000 0.405
57.40000 2.036
57.42000 -0.327
57.44000 1.273
57.46000 2.410
57.48000 0.162
57.50000 -2.435
57.52000 1.910
57.54000 5.104
57.56000 3.716
57.58000 4.758
57.60000 5.969
57.62000 5.441
57.64000 4.463
57.66000 4.039
57.68000 4.753
57.70000 12.039
57.72000 6.413
57.74000 -1.140
57.76000 0.124
57.78000 0.979
57.80000 2.320
57.82000 4.072
57.84000 -1.470
57.86000 1.795
57.88000 1.573
57.90000 3.683
57.92000 5.010
57.94000 1.692
57.96000 0.540
57.98000 2.590
58.00000 5.222
58.02000 7.817
58.04000 8.988
58.06000 3.142
58.08000 5.000
58.10000 4.843
58.12000 4.643
58.14000 2.877
58.16000 2.353
58.18000 3.392
58.20000 1.665
58.22000 -1.489
58.24000 -0.522
58.26000 2.802
58.28000 6.298
58.30000 8.901
58.32000 3.648
58.34000 3.683
58.36000 5.298
58.38000 3.541
58.40000 6.401
58.42000 8.531
58.44000 3.982
58.46000 -2.217
58.48000 0.180
58.50000 2.095
58.52000 5.832
58.54000 5.630
58.56000 3.787
58.58000 0.854
58.60000 5.095
58.62000 6.692
58.64000 1.539
58.66000 1.090
58.68000 4.919
58.70000 1.546
58.72000 2.267
58.74000 3.534
58.76000 5.704
58.78000 3.051
58.80000 -2.820
58.82000 0.241
58.84000 5.717
58.86000 4.745
58.88000 0.883
58.90000 0.703
58.92000 8.885
58.94000 9.583
58.96000 2.087
58.98000 -1.421
59.00000 6.498
59.02000 7.121
59.04000 2.705
59.06000 -0.170
59.08000 6.296
59.10000 11.085
59.12000 5.627
59.14000 5.860
59.16000 2.612
59.18000 7.589
59.20000 5.123
59.22000 5.206
59.24000 5.636
59.26000 11.191
59.28000 7.903
59.30000 3.219
59.32000 1.065
59.34000 6.276
59.36000 5.306
59.38000 -1.609
59.40000 1.480
59.42000 3.989
59.44000 2.954
59.46000 -2.427
59.48000 3.620
59.50000 5.769
59.52000 8.598
59.54000 3.681
59.56000 2.126
59.58000 6.874
59.60000 5.662
59.62000 9.732
59.64000 7.670
59.66000 4.134
59.68000 -0.048
59.70000 -2.793
59.72000 1.145
59.74000 6.129
59.76000 0.710
59.78000 5.181
59.80000 5.732
59.82000 6.876
59.84000 9.616
59.86000 5.651
59.88000 1.077
59.90000 0.528
59.92000 1.889
59.94000 0.736
59.96000 5.922
59.98000 5.649
60.00000 3.713
60.02000 4.715
60.04000 1.455
60.06000 2.028
60.08000 0.806
60.10000 2.486
60.12000 3.715
60.14000 4.869
60.16000 6.928
60.18000 1.732
60.20000 3.285
60.22000 1.099
60.24000 1.471
60.26000 1.225
60.28000 2.031
60.30000 -0.553
60.32000 1.389
60.34000 3.304
60.36000 3.281
60.38000 0.339
60.40000 -1.076
60.42000 4.536
60.44000 2.005
60.46000 3.217
60.48000 3.274
60.50000 5.650
60.52000 0.969
60.54000 2.881
60.56000 -1.640
60.58000 0.419
60.60000 2.475
60.62000 1.923
60.64000 -1.323
60.66000 1.787
60.68000 3.791
60.70000 4.359
60.72000 -0.732
60.74000 -0.550
60.76000 1.300
60.78000 4.655
60.80000 3.125
60.82000 -0.023
60.84000 -2.747
60.86000 -1.260
60.88000 3.958
60.90000 1.711
60.92000 6.890
60.94000 2.765
60.96000 4.250
60.98000 7.155
61.00000 7.409
61.02000 2.899
61.04000 1.240
61.06000 -1.294
61.08000 5.781
61.10000 5.430
61.12000 3.491
61.14000 1.675
61.16000 3.308
61.18000 1.956
61.20000 -0.032
61.22000 -2.492
61.24000 0.069
61.26000 3.050
61.28000 -0.531
61.30000 1.629
61.32000 5.057
61.34000 3.271
61.36000 -0.169
61.38000 -0.172
61.40000 1.154
61.42000 -1.350
61.44000 2.946
61.46000 4.044
61.48000 4.484
61.50000 6.431
61.52000 5.687
61.54000 0.568
61.56000 -0.364
61.58000 3.092
61.60000 4.577
61.62000 5.534
61.64000 4.725
61.66000 0.622
61.68000 2.679
61.70000 6.169
61.72000 10.990
61.74000 8.199
61.76000 1.690
61.78000 0.637
61.80000 1.929
61.82000 3.228
61.84000 5.136
61.86000 -2.713
61.88000 5.035
61.90000 6.337
61.92000 3.740
61.94000 0.884
61.96000 0.544
61.98000 2.370
62.00000 2.234
62.02000 1.125
62.04000 2.059
62.06000 4.693
62.08000 2.342
62.10000 2.798
62.12000 4.525
62.14000 2.290
62.16000 0.310
62.18000 1.603
62.20000 5.617
62.22000 2.675
62.24000 -0.127
62.26000 6.018
62.28000 4.928
62.30000 6.192
62.32000 6.557
62.34000 7.431
62.36000 4.757
62.38000 3.650
62.40000 4.158
62.42000 2.063
62.44000 0.682
62.46000 0.971
62.48000 -0.336
62.50000 -1.686
62.52000 1.165
62.54000 2.495
62.56000 4.591
62.58000 1.772
62.60000 2.251
62.62000 2.400
62.64000 1.866
62.66000 2.659
62.68000 7.231
62.70000 1.926
62.72000 1.104
62.74000 4.635
62.76000 -0.338
62.78000 1.948
62.80000 0.641
62.82000 -1.436
62.84000 -2.544
62.86000 -1.207
62.88000 2.764
62.90000 1.956
62.92000 5.475
62.94000 1.671
62.96000 4.665
62.98000 -1.098
63.00000 -2.390
63.02000 0.035
63.04000 6.269
63.06000 6.333
63.08000 4.461
63.10000 2.165
63.12000 2.053
63.14000 2.449
63.16000 0.937
63.18000 -2.721
63.20000 0.654
63.22000 3.113
63.24000 4.080
63.26000 2.763
63.28000 1.430
63.30000 1.051
63.32000 2.397
63.34000 5.351
63.36000 4.099
63.38000 1.524
63.40000 3.772
63.42000 1.739
63.44000 -0.989
63.46000 0.598
63.48000 0.162
63.50000 2.236
63.52000 3.481
63.54000 0.531
63.56000 0.846
63.58000 5.127
63.60000 3.442
63.62000 -1.348
63.64000 7.663
63.66000 6.739
63.68000 1.205
63.70000 0.931
63.72000 5.510
63.74000 4.879
63.76000 1.059
63.78000 1.065
63.80000 11.416
63.82000 5.199
63.84000 -2.731
63.86000 -0.872
63.88000 3.050
63.90000 1.458
63.92000 1.116
63.94000 2.135
63.96000 0.699
63.98000 1.098
64.00000 2.675
64.02000 4.544
64.04000 6.012
64.06000 7.784
64.08000 3.380
64.10000 5.556
64.12000 1.705
64.14000 0.859
64.16000 2.737
64.18000 4.501
64.20000 5.641
64.22000 7.618
64.24000 3.290
64.26000 -2.740
64.28000 3.055
64.30000 5.545
64.32000 3.923
64.34000 3.280
64.36000 2.008
64.38000 -0.650
64.40000 2.005
64.42000 2.014
64.44000 3.198
64.46000 4.085
64.48000 5.818
64.50000 9.682
64.52000 2.206
64.54000 5.789
64.56000 4.864
64.58000 2.415
64.60000 -1.701
64.62000 -0.959
64.64000 5.117
64.66000 1.010
64.68000 -0.926
64.70000 3.375
64.72000 -1.194
64.74000 -1.220
64.76000 -1.391
64.78000 -0.560
64.80000 0.195
64.82000 -0.208
64.84000 -2.121
64.86000 -2.771
64.88000 2.435
64.90000 1.141
64.92000 -0.304
64.94000 2.401
64.96000 -0.671
64.98000 1.675
65.00000 1.518
65.02000 -2.414
65.04000 -2.446
65.06000 0.456
65.08000 -0.497
65.10000 0.830
65.12000 0.317
65.14000 0.570
65.16000 1.561
65.18000 2.999
65.20000 0.648
65.22000 3.116
65.24000 0.961
65.26000 0.673
65.28000 2.437
65.30000 2.519
65.32000 1.740
65.34000 2.654
65.36000 0.869
65.38000 -0.397
65.40000 1.393
65.42000 -0.674
65.44000 -0.595
65.46000 2.116
65.48000 -2.782
65.50000 -0.069
65.52000 -0.952
65.54000 0.703
65.56000 5.376
65.58000 4.667
65.60000 2.475
65.62000 4.594
65.64000 8.430
65.66000 5.415
65.68000 1.231
65.70000 -2.392
65.72000 0.222
65.74000 2.224
65.76000 2.896
65.78000 -0.580
65.80000 1.911
65.82000 0.373
65.84000 1.789
65.86000 -1.337
65.88000 -0.642
65.90000 2.890
65.92000 -2.568
65.94000 -1.011
65.96000 3.273
65.98000 -0.876
66.00000 2.054
66.02000 1.081
66.04000 3.086
66.06000 3.942
66.08000 4.339
66.10000 4.744
66.12000 3.102
66.14000 -0.758
66.16000 2.933
66.18000 1.220
66.20000 0.655
66.22000 1.534
66.24000 4.791
66.26000 2.678
66.28000 5.350
66.30000 3.454
66.32000 1.757
66.34000 1.199
66.36000 -1.040
66.38000 -0.611
66.40000 0.184
66.42000 1.370
66.44000 5.284
66.46000 -0.323
66.48000 -0.818
66.50000 2.921
66.52000 4.187
66.54000 0.674
66.56000 2.790
66.58000 7.637
66.60000 3.712
66.62000 8.697
66.64000 8.855
66.66000 7.534
66.68000 7.788
66.70000 11.369
66.72000 7.584
66.74000 3.678
66.76000 2.008
66.78000 2.329
66.80000 4.985
66.82000 6.523
66.84000 8.415
66.86000 7.997
66.88000 4.765
66.90000 3.356
66.92000 3.080
66.94000 8.908
66.96000 12.191
66.98000 8.584
67.00000 11.975
67.02000 13.278
67.04000 8.357
67.06000 7.263
67.08000 12.289
67.10000 15.303
67.12000 12.889
67.14000 10.651
67.16000 18.380
67.18000 16.012
67.20000 19.451
67.22000 17.143
67.24000 15.160
67.26000 15.901
67.28000 11.378
67.30000 14.717
67.32000 14.666
67.34000 13.115
67.36000 15.806
67.38000 15.684
67.40000 15.928
67.42000 17.921
67.44000 17.377
67.46000 24.538
67.48000 21.549
67.50000 20.999
67.52000 17.941
67.54000 19.957
67.56000 20.554
67.58000 23.126
67.60000 21.698
67.62000 14.804
67.64000 18.945
67.66000 14.504
67.68000 16.938
67.70000 16.244
67.72000 20.278
67.74000 23.950
67.76000 19.549
67.78000 19.628
67.80000 21.485
67.82000 23.740
67.84000 26.736
67.86000 23.697
67.88000 18.888
67.90000 18.259
67.92000 21.864
67.94000 18.798
67.96000 16.878
67.98000 22.051
68.00000 26.439
68.02000 26.520
68.04000 26.027
68.06000 24.808
68.08000 21.869
68.10000 22.082
68.12000 26.241
68.14000 29.374
68.16000 27.377
68.18000 25.776
68.20000 20.214
68.22000 18.131
68.24000 20.740
68.26000 26.195
68.28000 24.460
68.30000 22.689
68.32000 16.882
68.34000 18.344
68.36000 16.924
68.38000 19.010
68.40000 18.362
68.42000 14.280
68.44000 16.513
68.46000 15.410
68.48000 14.210
68.50000 16.001
68.52000 17.846
68.54000 13.517
68.56000 15.669
68.58000 14.065
68.60000 10.912
68.62000 11.047
68.64000 9.365
68.66000 9.298
68.68000 9.133
68.70000 11.289
68.72000 12.775
68.74000 11.092
68.76000 8.540
68.78000 4.780
68.80000 8.645
68.82000 10.392
68.84000 10.907
68.86000 13.288
68.88000 11.829
68.90000 8.599
68.92000 5.065
68.94000 8.880
68.96000 11.837
68.98000 11.115
69.00000 13.874
69.02000 9.605
69.04000 5.091
69.06000 9.890
69.08000 8.090
69.10000 1.744
69.12000 2.228
69.14000 7.523
69.16000 6.533
69.18000 5.232
69.20000 5.868
69.22000 2.681
69.24000 -1.663
69.26000 -2.742
69.28000 1.322
69.30000 1.124
69.32000 0.381
69.34000 1.971
69.36000 1.524
69.38000 3.166
69.40000 0.260
69.42000 -0.088
69.44000 1.481
69.46000 4.431
69.48000 8.879
69.50000 2.871
69.52000 0.679
69.54000 0.996
69.56000 0.624
69.58000 7.293
69.60000 6.347
69.62000 2.886
69.64000 -0.245
69.66000 -0.193
69.68000 1.817
69.70000 1.075
69.72000 2.195
69.74000 2.418
69.76000 -2.109
69.78000 1.658
69.80000 2.184
69.82000 1.381
69.84000 1.795
69.86000 -1.754
69.88000 2.506
69.90000 2.216
69.92000 0.862
69.94000 1.809
69.96000 2.648
69.98000 -1.451
70.00000 -2.696
70.02000 -1.877
70.04000 -0.245
70.06000 3.393
70.08000 1.708
70.10000 0.580
70.12000 2.057
70.14000 -0.187
70.16000 -0.233
70.18000 5.069
70.20000 1.423
70.22000 -1.335
70.24000 2.100
70.26000 -1.334
70.28000 2.854
70.30000 1.234
70.32000 -0.751
70.34000 -0.653
70.36000 0.810
70.38000 -0.268
70.40000 0.281
70.42000 2.932
70.44000 2.866
70.46000 1.440
70.48000 2.894
70.50000 3.810
70.52000 6.528
70.54000 -0.161
70.56000 0.350
70.58000 0.600
70.60000 0.508
70.62000 3.533
70.64000 -0.474
70.66000 -2.631
70.68000 -0.182
70.70000 0.032
70.72000 -0.318
70.74000 3.248
70.76000 6.813
70.78000 5.177
70.80000 2.652
70.82000 1.417
70.84000 4.621
70.86000 4.933
70.88000 5.908
70.90000 5.223
70.92000 4.946
70.94000 -1.454
70.96000 5.121
70.98000 2.876
71.00000 1.506
71.02000 0.844
71.04000 2.490
71.06000 0.723
71.08000 -0.422
71.10000 -2.260
71.12000 1.156
71.14000 6.140
71.16000 0.347
71.18000 1.084
71.20000 0.572
71.22000 1.475
71.24000 2.436
71.26000 7.327
71.28000 5.556
71.30000 4.118
71.32000 0.647
71.34000 2.355
71.36000 0.074
71.38000 -0.378
71.40000 6.618
71.42000 6.423
71.44000 8.163
71.46000 6.288
71.48000 0.570
71.50000 0.757
71.52000 1.274
71.54000 6.038
71.56000 6.616
71.58000 6.915
71.60000 6.184
71.62000 6.933
71.64000 2.489
71.66000 -0.429
71.68000 -2.563
71.70000 1.517
71.72000 5.135
71.74000 4.563
71.76000 2.321
71.78000 -1.426
71.80000 -0.976
71.82000 1.622
71.84000 3.595
71.86000 3.526
71.88000 5.491
71.90000 2.972
71.92000 2.183
71.94000 8.515
71.96000 6.608
71.98000 7.778
72.00000 5.127
72.02000 1.291
72.04000 -2.549
72.06000 2.226
72.08000 6.579
72.10000 8.382
72.12000 5.709
72.14000 2.548
72.16000 3.944
72.18000 5.628
72.20000 8.645
72.22000 6.017
72.24000 6.003
72.26000 6.307
72.28000 6.326
72.30000 8.232
72.32000 6.170
72.34000 6.702
72.36000 8.251
72.38000 7.044
72.40000 6.595
72.42000 6.891
72.44000 7.167
72.46000 5.285
72.48000 4.195
72.50000 5.829
72.52000 6.823
72.54000 6.649
72.56000 4.480
72.58000 2.440
72.60000 4.507
72.62000 3.819
72.64000 8.127
72.66000 -1.121
72.68000 0.400
72.70000 4.544
72.72000 8.441
72.74000 6.027
72.76000 4.060
72.78000 -2.512
72.80000 2.645
72.82000 1.695
72.84000 2.958
72.86000 7.249
72.88000 5.405
72.90000 4.410
72.92000 2.842
72.94000 2.332
72.96000 11.877
72.98000 8.190
73.00000 2.491
73.02000 5.724
73.04000 8.407
73.06000 7.754
73.08000 1.855
73.10000 4.778
73.12000 3.884
73.14000 1.929
73.16000 1.829
73.18000 2.385
73.20000 4.629
73.22000 5.407
73.24000 3.368
73.26000 1.242
73.28000 2.642
73.30000 -1.688
73.32000 2.945
73.34000 2.148
73.36000 2.723
73.38000 0.374
73.40000 2.260
73.42000 -0.140
73.44000 3.591
73.46000 0.538
73.48000 -1.988
73.50000 0.406
73.52000 4.922
73.54000 3.570
73.56000 1.545
73.58000 6.418
73.60000 7.095
73.62000 5.069
73.64000 1.304
73.66000 -1.408
73.68000 1.651
73.70000 3.637
73.72000 5.074
73.74000 3.161
73.76000 7.456
73.78000 5.617
73.80000 1.240
73.82000 -0.965
73.84000 1.694
73.86000 1.334
73.88000 -1.227
73.90000 2.198
73.92000 3.603
73.94000 5.786
73.96000 5.830
73.98000 0.693
74.00000 -0.015
74.02000 4.215
74.04000 2.863
74.06000 -0.261
74.08000 -0.210
74.10000 0.371
74.12000 0.819
74.14000 -0.941
74.16000 4.657
74.18000 8.576
74.20000 -1.903
74.22000 -2.191
74.24000 1.716
74.26000 0.897
74.28000 1.960
74.30000 3.075
74.32000 1.752
74.34000 5.655
74.36000 2.630
74.38000 0.334
74.40000 0.821
74.42000 6.071
74.44000 0.239
74.46000 0.739
74.48000 3.537
74.50000 5.921
74.52000 7.603
74.54000 2.100
74.56000 -2.525
74.58000 2.404
74.60000 2.807
74.62000 4.555
74.64000 3.935
74.66000 1.517
74.68000 2.568
74.70000 2.557
74.72000 2.949
74.74000 -0.371
74.76000 1.932
74.78000 1.448
74.80000 2.204
74.82000 3.988
74.84000 3.631
74.86000 5.162
74.88000 -0.431
74.90000 1.534
74.92000 1.872
74.94000 0.742
74.96000 4.904
74.98000 4.595
75.00000 3.271
75.02000 4.557
75.04000 4.999
75.06000 6.027
75.08000 -2.485
75.10000 2.258
75.12000 3.554
75.14000 3.278
75.16000 4.851
75.18000 4.505
75.20000 1.476
75.22000 3.445
75.24000 1.704
75.26000 7.636
75.28000 10.620
75.30000 8.879
75.32000 5.691
75.34000 5.598
75.36000 8.283
75.38000 15.364
75.40000 10.009
75.42000 6.600
75.44000 2.807
75.46000 1.090
75.48000 1.399
75.50000 2.708
75.52000 2.580
75.54000 5.502
75.56000 3.915
75.58000 5.933
75.60000 7.677
75.62000 6.005
75.64000 3.284
75.66000 8.300
75.68000 7.719
75.70000 8.661
75.72000 8.469
75.74000 8.781
75.76000 6.009
75.78000 9.180
75.80000 7.683
75.82000 5.122
75.84000 7.819
75.86000 7.110
75.88000 5.037
75.90000 4.076
75.92000 0.940
75.94000 -0.562
75.96000 -2.489
75.98000 2.081
76.00000 4.780
76.02000 7.460
76.04000 6.768
76.06000 6.172
76.08000 7.431
76.10000 6.363
76.12000 7.438
76.14000 13.323
76.16000 9.092
76.18000 8.523
76.20000 6.394
76.22000 9.229
76.24000 4.379
76.26000 6.395
76.28000 3.258
76.30000 3.724
76.32000 -0.488
76.34000 3.693
76.36000 3.313
76.38000 8.204
76.40000 12.361
76.42000 7.936
76.44000 8.006
76.46000 8.993
76.48000 4.538
76.50000 1.976
76.52000 1.071
76.54000 7.403
76.56000 7.089
76.58000 9.201
76.60000 7.200
76.62000 4.629
76.64000 7.783
76.66000 9.814
76.68000 7.350
76.70000 9.083
76.72000 3.187
76.74000 4.622
76.76000 5.785
76.78000 8.505
76.80000 5.537
76.82000 8.512
76.84000 5.590
76.86000 3.623
76.88000 7.277
76.90000 4.589
76.92000 3.657
76.94000 2.874
76.96000 2.608
76.98000 4.880
77.00000 5.029
77.02000 -2.493
77.04000 0.490
77.06000 5.488
77.08000 3.821
77.10000 5.454
77.12000 2.420
77.14000 2.449
77.16000 3.022
77.18000 0.738
77.20000 0.474
77.22000 -2.494
77.24000 4.821
77.26000 8.200
77.28000 6.016
77.30000 2.526
77.32000 1.621
77.34000 4.322
77.36000 9.314
77.38000 5.590
77.40000 5.828
77.42000 7.422
77.44000 4.924
77.46000 1.412
77.48000 0.608
77.50000 6.479
77.52000 10.983
77.54000 10.559
77.56000 4.681
77.58000 3.109
77.60000 2.527
77.62000 4.686
77.64000 3.222
77.66000 4.136
77.68000 1.861
77.70000 2.948
77.72000 0.331
77.74000 0.228
77.76000 5.069
77.78000 5.476
77.80000 2.115
77.82000 -0.121
77.84000 -2.077
77.86000 3.645
77.88000 4.346
77.90000 6.416
77.92000 5.157
77.94000 2.418
77.96000 4.824
77.98000 4.164
78.00000 0.916
78.02000 3.075
78.04000 1.041
78.06000 -2.045
78.08000 -2.595
78.10000 0.792
78.12000 0.749
78.14000 -0.517
78.16000 0.961
78.18000 3.192
78.20000 5.218
78.22000 1.454
78.24000 2.310
78.26000 -0.493
78.28000 1.163
78.30000 5.780
78.32000 2.863
78.34000 -1.353
78.36000 -2.386
78.38000 2.795
78.40000 6.646
78.42000 1.044
78.44000 -2.101
78.46000 -0.623
78.48000 3.219
78.50000 0.389
78.52000 -1.851
78.54000 2.738
78.56000 6.727
78.58000 1.009
78.60000 -1.474
78.62000 -0.725
78.64000 0.422
78.66000 3.084
78.68000 -2.646
78.70000 -1.403
78.72000 -0.420
78.74000 4.701
78.76000 2.499
78.78000 0.376
78.80000 -0.550
78.82000 4.515
78.84000 5.176
78.86000 1.323
78.88000 -1.994
78.90000 -0.362
78.92000 7.182
78.94000 4.789
78.96000 1.137
78.98000 -1.761
79.00000 -0.543
79.02000 2.729
79.04000 3.300
79.06000 3.684
79.08000 1.957
79.10000 5.011
79.12000 1.785
79.14000 0.358
79.16000 2.955
79.18000 4.325
79.20000 2.817
79.22000 5.974
79.24000 4.276
79.26000 3.838
79.28000 5.633
79.30000 3.140
79.32000 4.441
79.34000 2.367
79.36000 0.507
79.38000 2.180
79.40000 5.928
79.42000 1.222
79.44000 -0.943
79.46000 -1.570
79.48000 -0.341
79.50000 4.491
79.52000 5.405
79.54000 1.660
79.56000 -1.298
79.58000 5.951
79.60000 3.224
79.62000 3.209
79.64000 3.995
79.66000 0.900
79.68000 2.310
79.70000 3.661
79.72000 -1.257
79.74000 1.706
79.76000 1.164
79.78000 4.386
79.80000 -2.681
79.82000 -1.586
79.84000 0.530
79.86000 2.198
79.88000 4.790
79.90000 3.382
79.92000 0.022
79.94000 -0.558
79.96000 7.267
79.98000 11.037
80.00000 9.412
80.02000 8.270
80.04000 9.904
80.06000 7.350
80.08000 7.987
80.10000 6.380
80.12000 6.086
80.14000 5.060
80.16000 -1.507
80.18000 2.705
80.20000 8.630
80.22000 8.402
80.24000 9.318
80.26000 8.517
80.28000 4.264
80.30000 9.882
80.32000 10.012
80.34000 6.108
80.36000 4.953
80.38000 11.142
80.40000 4.564
80.42000 3.873
80.44000 3.652
80.46000 3.343
80.48000 4.462
80.50000 11.119
80.52000 9.149
80.54000 2.355
80.56000 4.989
80.58000 10.173
80.60000 11.695
80.62000 6.474
80.64000 7.180
80.66000 11.441
80.68000 10.698
80.70000 16.824
80.72000 13.954
80.74000 12.796
80.76000 5.062
80.78000 8.397
80.80000 15.604
80.82000 11.264
80.84000 4.575
80.86000 10.520
80.88000 13.793
80.90000 9.968
80.92000 10.756
80.94000 14.761
80.96000 6.749
80.98000 6.627
81.00000 6.685
81.02000 12.022
81.04000 13.264
81.06000 14.870
81.08000 12.556
81.10000 10.642
81.12000 8.226
81.14000 15.739
81.16000 11.218
81.18000 13.579
81.20000 15.037
81.22000 15.681
81.24000 14.892
81.26000 13.363
81.28000 17.617
81.30000 13.766
81.32000 15.962
81.34000 19.878
81.36000 21.732
81.38000 12.131
81.40000 8.810
81.42000 13.325
81.44000 13.358
81.46000 21.386
81.48000 19.629
81.50000 18.414
81.52000 24.389
81.54000 23.660
81.56000 14.558
81.58000 18.381
81.60000 16.475
81.62000 18.244
81.64000 25.195
81.66000 21.747
81.68000 18.768
81.70000 24.958
81.72000 23.322
81.74000 25.812
81.76000 21.665
81.78000 21.118
81.80000 22.476
81.82000 21.136
81.84000 22.495
81.86000 23.123
81.88000 23.923
81.90000 23.026
81.92000 23.969
81.94000 21.648
81.96000 17.909
81.98000 14.817
82.00000 19.017
82.02000 23.371
82.04000 28.822
82.06000 22.916
82.08000 26.154
82.10000 24.445
82.12000 23.257
82.14000 25.651
82.16000 28.552
82.18000 21.335
82.20000 18.723
82.22000 15.982
82.24000 27.680
82.26000 30.580
82.28000 27.037
82.30000 20.975
82.32000 20.244
82.34000 19.337
82.36000 19.804
82.38000 18.252
82.40000 16.001
82.42000 20.348
82.44000 18.894
82.46000 19.070
82.48000 17.114
82.50000 24.712
82.52000 24.469
82.54000 11.561
82.56000 10.766
82.58000 15.032
82.60000 16.770
82.62000 20.528
82.64000 17.689
82.66000 13.600
82.68000 9.799
82.70000 8.717
82.72000 15.183
82.74000 20.629
82.76000 15.797
82.78000 12.511
82.80000 16.528
82.82000 13.946
82.84000 10.860
82.86000 14.120
82.88000 14.803
82.90000 16.383
82.92000 10.199
82.94000 8.390
82.96000 8.060
82.98000 11.607
83.00000 9.272
83.02000 7.117
83.04000 9.203
83.06000 9.382
83.08000 7.773
83.10000 5.894
83.12000 4.779
83.14000 4.767
83.16000 4.792
83.18000 0.778
83.20000 3.088
83.22000 6.882
83.24000 8.663
83.26000 8.069
83.28000 9.183
83.30000 11.193
83.32000 4.398
83.34000 0.139
83.36000 2.952
83.38000 6.041
83.40000 -2.802
83.42000 -0.016
83.44000 2.485
83.46000 3.300
83.48000 5.048
83.50000 4.701
83.52000 1.993
83.54000 -2.731
83.56000 1.040
83.58000 0.834
83.60000 1.034
83.62000 0.573
83.64000 -0.443
83.66000 1.339
83.68000 5.475
83.70000 3.984
83.72000 3.797
83.74000 5.195
83.76000 1.171
83.78000 2.454
83.80000 10.580
83.82000 7.003
83.84000 2.178
83.86000 0.469
83.88000 1.863
83.90000 -2.775
83.92000 1.397
83.94000 -0.391
83.96000 0.761
83.98000 4.949
84.00000 4.841
84.02000 3.473
84.04000 3.807
84.06000 -2.570
84.08000 -0.209
84.10000 1.710
84.12000 -0.594
84.14000 1.646
84.16000 -0.757
84.18000 -1.695
84.20000 3.609
84.22000 2.547
84.24000 -0.118
84.26000 2.028
84.28000 4.297
84.30000 2.085
84.32000 1.046
84.34000 0.077
84.36000 -2.757
84.38000 -2.757
84.40000 -1.491
84.42000 4.349
84.44000 1.237
84.46000 -2.241
84.48000 0.054
84.50000 -0.752
84.52000 1.251
84.54000 -0.862
84.56000 5.974
84.58000 7.110
84.60000 6.277
84.62000 0.239
84.64000 -0.456
84.66000 2.754
84.68000 -0.499
84.70000 0.685
84.72000 0.222
84.74000 2.717
84.76000 -0.636
84.78000 4.987
84.80000 3.724
84.82000 1.662
84.84000 0.461
84.86000 4.103
84.88000 4.413
84.90000 6.390
84.92000 7.961
84.94000 5.749
84.96000 1.317
84.98000 -0.095
85.00000 5.254
85.02000 4.170
85.04000 -0.141
85.06000 -1.165
85.08000 2.778
85.10000 9.458
85.12000 12.191
85.14000 12.054
85.16000 7.972
85.18000 2.815
85.20000 5.251
85.22000 10.450
85.24000 10.471
85.26000 10.567
85.28000 9.571
85.30000 4.800
85.32000 9.205
85.34000 8.361
85.36000 11.376
85.38000 10.495
85.40000 17.222
85.42000 13.119
85.44000 16.009
85.46000 17.219
85.48000 15.533
85.50000 16.071
85.52000 17.342
85.54000 17.376
85.56000 20.361
85.58000 23.856
85.60000 21.579
85.62000 19.983
85.64000 23.053
85.66000 21.383
85.68000 25.340
85.70000 19.660
85.72000 19.649
85.74000 24.299
85.76000 33.839
85.78000 25.430
85.80000 29.845
85.82000 35.335
85.84000 27.735
85.86000 26.857
85.88000 28.164
85.90000 28.016
85.92000 27.981
85.94000 31.767
85.96000 34.564
85.98000 34.597
86.00000 33.157
86.02000 33.086
86.04000 35.925
86.06000 35.505
86.08000 36.969
86.10000 36.637
86.12000 33.793
86.14000 37.917
86.16000 39.200
86.18000 39.545
86.20000 38.588
86.22000 41.468
86.24000 38.023
86.26000 39.893
86.28000 33.107
86.30000 41.894
86.32000 41.839
86.34000 39.836
86.36000 44.327
86.38000 47.001
86.40000 43.404
86.42000 35.764
86.44000 35.029
86.46000 40.176
86.48000 47.371
86.50000 46.144
86.52000 39.602
86.54000 38.087
86.56000 38.891
86.58000 36.147
86.60000 32.766
86.62000 30.385
86.64000 40.734
86.66000 40.906
86.68000 33.799
86.70000 29.669
86.72000 31.271
86.74000 34.209
86.76000 34.566
86.78000 30.201
86.80000 33.373
86.82000 29.340
86.84000 32.019
86.86000 29.305
86.88000 28.683
86.90000 27.409
86.92000 28.828
86.94000 27.800
86.96000 29.238
86.98000 20.627
87.00000 19.845
87.02000 18.530
87.04000 13.449
87.06000 15.304
87.08000 24.014
87.10000 27.055
87.12000 21.421
87.14000 10.196
87.16000 11.690
87.18000 10.908
87.20000 8.228
87.22000 11.432
87.24000 15.718
87.26000 13.568
87.28000 14.918
87.30000 13.801
87.32000 13.553
87.34000 11.831
87.36000 8.436
87.38000 7.516
87.40000 5.471
87.42000 0.601
87.44000 2.496
87.46000 2.900
87.48000 7.240
87.50000 7.091
87.52000 8.245
87.54000 12.151
87.56000 15.763
87.58000 13.360
87.60000 10.553
87.62000 5.260
87.64000 1.959
87.66000 4.349
87.68000 13.103
87.70000 10.409
87.72000 2.204
87.74000 2.392
87.76000 -2.145
87.78000 3.949
87.80000 2.967
87.82000 5.214
87.84000 2.665
87.86000 2.334
87.88000 4.013
87.90000 3.114
87.92000 -0.649
87.94000 4.081
87.96000 1.693
87.98000 -1.067
88.00000 5.193
88.02000 5.246
88.04000 2.946
88.06000 2.660
88.08000 8.990
88.10000 4.466
88.12000 0.705
88.14000 4.920
88.16000 3.343
88.18000 4.022
88.20000 4.199
88.22000 2.130
88.24000 1.673
88.26000 8.686
88.28000 5.237
88.30000 2.682
88.32000 1.215
88.34000 0.912
88.36000 -2.482
88.38000 -1.065
88.40000 1.612
88.42000 2.213
88.44000 4.986
88.46000 4.474
88.48000 2.415
88.50000 1.827
88.52000 1.364
88.54000 1.965
88.56000 -1.082
88.58000 -0.621
88.60000 -2.134
88.62000 -0.793
88.64000 2.592
88.66000 0.766
88.68000 -0.184
88.70000 2.677
88.72000 3.965
88.74000 4.791
88.76000 2.234
88.78000 0.875
88.80000 -0.083
88.82000 -1.750
88.84000 -2.293
88.86000 0.742
88.88000 2.229
88.90000 3.257
88.92000 7.492
88.94000 4.840
88.96000 3.959
88.98000 1.967
89.00000 4.213
89.02000 1.128
89.04000 0.484
89.06000 -2.428
89.08000 -0.105
89.10000 5.230
89.12000 -0.860
89.14000 0.052
89.16000 2.725
89.18000 4.896
89.20000 2.948
89.22000 7.470
89.24000 2.224
89.26000 6.727
89.28000 5.476
89.30000 5.344
89.32000 5.408
89.34000 5.709
89.36000 7.032
89.38000 7.663
89.40000 3.869
89.42000 2.040
89.44000 4.276
89.46000 5.690
89.48000 4.197
89.50000 3.364
89.52000 6.558
89.54000 5.126
89.56000 5.180
89.58000 -1.285
89.60000 -1.192
89.62000 3.852
89.64000 3.343
89.66000 5.533
89.68000 3.438
89.70000 2.562
89.72000 4.221
89.74000 1.996
89.76000 5.303
89.78000 4.013
89.80000 1.662
89.82000 4.052
89.84000 6.086
89.86000 6.679
89.88000 4.893
89.90000 4.852
89.92000 3.673
89.94000 -2.360
89.96000 0.268
89.98000 5.582
90.00000 3.673
90.02000 2.924
90.04000 7.319
90.06000 5.472
90.08000 6.084
90.10000 6.138
90.12000 5.109
90.14000 2.475
90.16000 5.756
90.18000 1.490
90.20000 7.451
90.22000 4.822
90.24000 1.239
90.26000 1.285
90.28000 8.364
90.30000 6.159
90.32000 0.245
90.34000 -2.359
90.36000 3.303
90.38000 5.575
90.40000 2.087
90.42000 6.727
90.44000 7.552
90.46000 6.217
90.48000 4.688
90.50000 9.254
90.52000 7.298
90.54000 0.356
90.56000 -0.515
90.58000 0.695
90.60000 4.065
90.62000 3.139
90.64000 7.295
90.66000 7.142
90.68000 5.930
90.70000 3.161
90.72000 2.672
90.74000 5.689
90.76000 6.351
90.78000 4.691
90.80000 2.220
90.82000 5.081
90.84000 6.088
90.86000 7.582
90.88000 3.445
90.90000 -2.297
90.92000 1.348
90.94000 4.151
90.96000 2.047
90.98000 2.761
91.00000 0.671
91.02000 0.412
91.04000 1.909
91.06000 1.580
91.08000 2.956
91.10000 3.799
91.12000 6.498
91.14000 0.572
91.16000 -1.651
91.18000 3.923
91.20000 6.430
91.22000 0.677
91.24000 -2.383
91.26000 5.907
91.28000 5.017
91.30000 1.003
91.32000 0.633
91.34000 0.682
91.36000 2.706
91.38000 2.255
91.40000 3.870
91.42000 2.360
91.44000 2.773
91.46000 4.730
91.48000 7.558
91.50000 8.708
91.52000 11.430
91.54000 9.745
91.56000 3.558
91.58000 -0.633
91.60000 -0.094
91.62000 2.010
91.64000 4.309
91.66000 4.844
91.68000 4.307
91.70000 3.360
91.72000 3.640
91.74000 -1.364
91.76000 -0.550
91.78000 2.286
91.80000 5.243
91.82000 3.884
91.84000 4.174
91.86000 5.887
91.88000 3.192
91.90000 1.439
91.92000 -2.295
91.94000 2.308
91.96000 1.516
91.98000 0.656
92.00000 3.186
92.02000 9.879
92.04000 10.656
92.06000 6.112
92.08000 3.483
92.10000 0.133
92.12000 2.420
92.14000 6.064
92.16000 5.165
92.18000 0.119
92.20000 7.917
92.22000 8.396
92.24000 3.428
92.26000 1.826
92.28000 3.158
92.30000 0.108
92.32000 -1.032
92.34000 3.130
92.36000 4.578
92.38000 1.824
92.40000 4.282
92.42000 6.210
92.44000 5.205
92.46000 6.648
92.48000 7.329
92.50000 4.167
92.52000 7.797
92.54000 7.922
92.56000 4.994
92.58000 6.923
92.60000 1.742
92.62000 3.375
92.64000 4.426
92.66000 8.326
92.68000 10.845
92.70000 2.724
92.72000 1.789
92.74000 11.017
92.76000 8.289
92.78000 2.084
92.80000 5.233
92.82000 0.811
92.84000 -2.347
92.86000 0.480
92.88000 7.853
92.90000 11.270
92.92000 9.553
92.94000 12.114
92.96000 7.564
92.98000 5.688
93.00000 6.429
93.02000 5.389
93.04000 10.639
93.06000 10.052
93.08000 8.504
93.10000 6.232
93.12000 5.969
93.14000 7.161
93.16000 6.007
93.18000 1.348
93.20000 5.138
93.22000 2.615
93.24000 4.609
93.26000 4.796
93.28000 1.884
93.30000 1.356
93.32000 9.350
93.34000 10.140
93.36000 8.412
93.38000 10.952
93.40000 3.648
93.42000 8.082
93.44000 5.025
93.46000 2.221
93.48000 2.109
93.50000 -1.138
93.52000 7.058
93.54000 9.892
93.56000 7.399
93.58000 9.523
93.60000 0.627
93.62000 -2.387
93.64000 0.118
93.66000 1.538
93.68000 0.313
93.70000 0.325
93.72000 3.553
93.74000 6.154
93.76000 1.196
93.78000 3.901
93.80000 13.902
93.82000 9.668
93.84000 3.565
93.86000 5.935
93.88000 7.031
93.90000 3.084
93.92000 1.720
93.94000 4.425
93.96000 4.784
93.98000 4.899
94.00000 0.611
94.02000 0.408
94.04000 5.029
94.06000 4.248
94.08000 7.837
94.10000 9.153
94.12000 4.762
94.14000 -0.660
94.16000 4.116
94.18000 8.760
94.20000 8.680
94.22000 3.790
94.24000 1.697
94.26000 6.431
94.28000 5.614
94.30000 0.913
94.32000 2.683
94.34000 5.051
94.36000 1.317
94.38000 3.818
94.40000 8.032
94.42000 3.408
94.44000 -0.952
94.46000 -0.310
94.48000 2.815
94.50000 6.771
94.52000 7.650
94.54000 1.521
94.56000 4.218
94.58000 6.443
94.60000 9.397
94.62000 7.247
94.64000 2.807
94.66000 2.862
94.68000 5.329
94.70000 5.433
94.72000 1.734
94.74000 3.148
94.76000 4.837
94.78000 5.968
94.80000 5.608
94.82000 0.506
94.84000 6.626
94.86000 9.265
94.88000 6.014
94.90000 4.817
94.92000 6.415
94.94000 6.293
94.96000 1.989
94.98000 6.455
95.00000 5.870
95.02000 2.530
95.04000 7.355
95.06000 5.627
95.08000 4.606
95.10000 0.600
95.12000 -2.356
95.14000 6.990
95.16000 7.612
95.18000 9.755
95.20000 10.401
95.22000 8.931
95.24000 6.018
95.26000 4.148
95.28000 5.962
95.30000 10.133
95.32000 13.611
95.34000 9.319
95.36000 4.096
95.38000 6.715
95.40000 5.616
95.42000 9.924
95.44000 8.558
95.46000 4.729
95.48000 0.576
95.50000 2.935
95.52000 3.404
95.54000 7.222
95.56000 10.610
95.58000 8.898
95.60000 8.554
95.62000 7.681
95.64000 8.958
95.66000 6.694
95.68000 5.844
95.70000 9.960
95.72000 10.395
95.74000 6.810
95.76000 13.363
95.78000 8.804
95.80000 7.841
95.82000 9.508
95.84000 7.705
95.86000 5.050
95.88000 7.957
95.90000 3.708
95.92000 -0.845
95.94000 4.090
95.96000 1.585
95.98000 3.311
96.00000 2.943
96.02000 6.943
96.04000 4.024
96.06000 10.417
96.08000 -0.395
96.10000 2.108
96.12000 3.209
96.14000 9.199
96.16000 12.597
96.18000 6.180
96.20000 9.951
96.22000 15.735
96.24000 4.151
96.26000 6.866
96.28000 5.773
96.30000 6.150
96.32000 12.572
96.34000 10.691
96.36000 6.175
96.38000 9.518
96.40000 17.187
96.42000 17.759
96.44000 8.977
96.46000 6.278
96.48000 1.981
96.50000 5.475
96.52000 11.139
96.54000 8.891
96.56000 3.884
96.58000 4.714
96.60000 5.118
96.62000 6.520
96.64000 3.158
96.66000 1.012
96.68000 5.677
96.70000 6.749
96.72000 5.556
96.74000 10.383
96.76000 4.572
96.78000 5.139
96.80000 9.222
96.82000 4.659
96.84000 5.714
96.86000 1.531
96.88000 5.367
96.90000 15.844
96.92000 10.528
96.94000 7.946
96.96000 11.091
96.98000 9.797
97.00000 9.164
97.02000 11.638
97.04000 10.807
97.06000 8.222
97.08000 4.242
97.10000 4.898
97.12000 0.562
97.14000 -2.343
97.16000 0.488
97.18000 2.618
97.20000 5.530
97.22000 9.829
97.24000 9.493
97.26000 7.442
97.28000 0.758
97.30000 7.465
97.32000 10.946
97.34000 10.749
97.36000 13.632
97.38000 11.337
97.40000 12.711
97.42000 10.105
97.44000 13.207
97.46000 6.337
97.48000 8.786
97.50000 3.445
97.52000 4.095
97.54000 13.907
97.56000 15.129
97.58000 14.049
97.60000 10.278
97.62000 1.891
97.64000 2.216
97.66000 -0.305
97.68000 7.147
97.70000 8.388
97.72000 6.983
97.74000 7.364
97.76000 3.732
97.78000 6.017
97.80000 -0.873
97.82000 0.517
97.84000 3.916
97.86000 2.603
97.88000 9.208
97.90000 12.212
97.92000 9.788
97.94000 5.031
97.96000 0.385
97.98000 4.912
98.00000 8.015
98.02000 4.735
98.04000 3.798
98.06000 5.530
98.08000 9.505
98.10000 6.187
98.12000 5.897
98.14000 6.008
98.16000 13.044
98.18000 8.164
98.20000 2.047
98.22000 7.213
98.24000 7.381
98.26000 16.429
98.28000 0.361
98.30000 3.948
98.32000 -0.685
98.34000 5.876
98.36000 11.785
98.38000 4.288
98.40000 6.246
98.42000 6.215
98.44000 10.560
98.46000 8.658
98.48000 18.382
98.50000 11.769
98.52000 3.624
98.54000 7.273
98.56000 8.881
98.58000 5.793
98.60000 8.475
98.62000 11.334
98.64000 4.636
98.66000 4.216
98.68000 7.139
98.70000 11.244
98.72000 4.567
98.74000 8.179
98.76000 17.078
98.78000 10.429
98.80000 7.420
98.82000 0.415
98.84000 11.069
98.86000 12.695
98.88000 10.545
98.90000 14.523
98.92000 21.041
98.94000 20.581
98.96000 10.247
98.98000 7.726
99.00000 11.294
99.02000 12.281
99.04000 17.867
99.06000 14.813
99.08000 6.203
99.10000 5.494
99.12000 -2.245
99.14000 5.528
99.16000 6.636
99.18000 2.109
99.20000 -2.055
99.22000 4.242
99.24000 6.799
99.26000 4.997
99.28000 14.746
99.30000 17.453
99.32000 7.816
99.34000 11.686
99.36000 4.565
99.38000 7.764
99.40000 5.152
99.42000 6.030
99.44000 7.468
99.46000 11.726
99.48000 11.577
99.50000 7.788
99.52000 0.799
99.54000 -0.983
99.56000 8.766
99.58000 9.063
99.60000 10.253
99.62000 6.047
99.64000 7.345
99.66000 10.781
99.68000 5.145
99.70000 -2.379
99.72000 6.123
99.74000 8.512
99.76000 12.530
99.78000 1.243
99.80000 3.486
99.82000 5.054
99.84000 -2.431
99.86000 -2.443
99.88000 13.496
99.90000 23.108
99.92000 17.575
99.94000 13.223
99.96000 2.110
99.98000 0.000
