'Id: "0011389" Comment: "Integrate frame 0011389_Au-Ir-Rh_Au-Rich_XRD_Mapping-074-0000.gfrmwith cursor Wedge Cursor #5" Operator: "B?rgel" Anode: "Cu" Wavelength: "1.5406" Scantype: "2Theta (TwoTheta)" TimePerStep: "1" X: "40.5" Y: "-22.5" Z: "5.95" 
10.00000 0.000
10.02000 1.864
10.04000 -3.125
10.06000 4.217
10.08000 9.559
10.10000 2.682
10.12000 4.128
10.14000 3.300
10.16000 10.531
10.18000 12.208
10.20000 5.926
10.22000 10.113
10.24000 21.367
10.26000 19.424
10.28000 18.447
10.30000 21.544
10.32000 15.864
10.34000 20.112
10.36000 17.632
10.38000 15.814
10.40000 17.472
10.42000 15.032
10.44000 20.449
10.46000 15.543
10.48000 22.654
10.50000 25.760
10.52000 16.292
10.54000 12.962
10.56000 25.341
10.58000 25.527
10.60000 24.644
10.62000 29.218
10.64000 16.599
10.66000 13.583
10.68000 13.289
10.70000 21.572
10.72000 18.984
10.74000 20.660
10.76000 28.488
10.78000 25.911
10.80000 38.017
10.82000 22.820
10.84000 17.174
10.86000 25.102
10.88000 17.338
10.90000 14.728
10.92000 22.685
10.94000 31.720
10.96000 38.007
10.98000 21.496
11.00000 15.982
11.02000 14.862
11.04000 21.865
11.06000 27.057
11.08000 37.146
11.10000 41.680
11.12000 29.078
11.14000 20.592
11.16000 32.283
11.18000 29.310
11.20000 23.845
11.22000 25.562
11.24000 27.899
11.26000 31.918
11.28000 28.312
11.30000 29.658
11.32000 30.691
11.34000 33.863
11.36000 26.980
11.38000 37.651
11.40000 35.200
11.42000 35.624
11.44000 33.098
11.46000 27.704
11.48000 38.201
11.50000 38.449
11.52000 40.481
11.54000 34.386
11.56000 37.141
11.58000 26.516
11.60000 28.768
11.62000 38.046
11.64000 36.886
11.66000 37.539
11.68000 52.169
11.70000 49.493
11.72000 47.449
11.74000 41.090
11.76000 30.819
11.78000 21.808
11.80000 33.290
11.82000 37.435
11.84000 45.823
11.86000 38.057
11.88000 44.424
11.90000 41.799
11.92000 46.715
11.94000 49.799
11.96000 45.808
11.98000 35.324
12.00000 37.820
12.02000 42.260
12.04000 44.478
12.06000 46.204
12.08000 49.920
12.10000 43.496
12.12000 40.161
12.14000 43.883
12.16000 41.384
12.18000 42.353
12.20000 40.184
12.22000 43.071
12.24000 48.390
12.26000 44.329
12.28000 43.091
12.30000 37.573
12.32000 41.427
12.34000 51.852
12.36000 43.255
12.38000 33.867
12.40000 42.521
12.42000 48.427
12.44000 43.574
12.46000 50.477
12.48000 49.108
12.50000 47.064
12.52000 49.407
12.54000 46.518
12.56000 43.467
12.58000 46.987
12.60000 50.819
12.62000 44.557
12.64000 44.657
12.66000 44.966
12.68000 51.950
12.70000 44.273
12.72000 33.203
12.74000 42.667
12.76000 47.780
12.78000 49.912
12.80000 54.153
12.82000 56.050
12.84000 52.890
12.86000 49.014
12.88000 53.360
12.90000 51.783
12.92000 41.931
12.94000 45.101
12.96000 43.620
12.98000 41.129
13.00000 45.148
13.02000 45.718
13.04000 51.433
13.06000 44.471
13.08000 34.198
13.10000 40.125
13.12000 47.095
13.14000 37.540
13.16000 36.402
13.18000 35.305
13.20000 44.732
13.22000 31.390
13.24000 37.071
13.26000 42.678
13.28000 44.432
13.30000 47.063
13.32000 57.540
13.34000 54.386
13.36000 52.700
13.38000 51.218
13.40000 53.744
13.42000 43.644
13.44000 40.671
13.46000 41.792
13.48000 46.484
13.50000 46.141
13.52000 39.686
13.54000 41.560
13.56000 46.597
13.58000 46.953
13.60000 45.514
13.62000 44.905
13.64000 46.566
13.66000 49.074
13.68000 50.868
13.70000 55.736
13.72000 53.452
13.74000 47.963
13.76000 33.972
13.78000 33.936
13.80000 36.918
13.82000 37.299
13.84000 41.327
13.86000 45.282
13.88000 50.132
13.90000 40.748
13.92000 40.313
13.94000 45.521
13.96000 51.141
13.98000 42.477
14.00000 38.632
14.02000 40.172
14.04000 44.355
14.06000 40.876
14.08000 43.738
14.10000 40.844
14.12000 33.764
14.14000 35.711
14.16000 33.555
14.18000 32.861
14.20000 35.919
14.22000 29.507
14.24000 34.276
14.26000 38.332
14.28000 42.642
14.30000 35.706
14.32000 29.915
14.34000 33.650
14.36000 33.732
14.38000 35.973
14.40000 37.337
14.42000 25.502
14.44000 29.626
14.46000 33.909
14.48000 43.785
14.50000 41.993
14.52000 31.901
14.54000 34.790
14.56000 38.859
14.58000 35.484
14.60000 32.208
14.62000 33.155
14.64000 31.305
14.66000 32.300
14.68000 24.229
14.70000 31.039
14.72000 28.662
14.74000 29.704
14.76000 34.544
14.78000 31.308
14.80000 30.555
14.82000 28.848
14.84000 34.449
14.86000 37.291
14.88000 32.756
14.90000 34.491
14.92000 20.719
14.94000 19.029
14.96000 29.800
14.98000 27.421
15.00000 25.891
15.02000 18.963
15.04000 25.313
15.06000 19.630
15.08000 26.016
15.10000 24.370
15.12000 27.717
15.14000 25.667
15.16000 32.088
15.18000 33.201
15.20000 30.261
15.22000 22.508
15.24000 34.956
15.26000 36.288
15.28000 32.526
15.30000 30.452
15.32000 23.404
15.34000 24.720
15.36000 22.989
15.38000 29.287
15.40000 26.285
15.42000 22.703
15.44000 22.851
15.46000 28.003
15.48000 29.391
15.50000 24.419
15.52000 25.635
15.54000 21.208
15.56000 29.977
15.58000 21.314
15.60000 18.841
15.62000 26.983
15.64000 19.564
15.66000 20.523
15.68000 22.905
15.70000 19.459
15.72000 15.476
15.74000 12.137
15.76000 23.556
15.78000 22.787
15.80000 15.747
15.82000 20.674
15.84000 24.286
15.86000 22.133
15.88000 18.603
15.90000 17.655
15.92000 13.840
15.94000 18.868
15.96000 20.231
15.98000 22.121
16.00000 23.391
16.02000 20.797
16.04000 13.510
16.06000 23.019
16.08000 17.002
16.10000 15.513
16.12000 16.175
16.14000 22.168
16.16000 9.325
16.18000 13.336
16.20000 21.880
16.22000 20.402
16.24000 20.174
16.26000 23.597
16.28000 19.920
16.30000 12.746
16.32000 14.598
16.34000 16.039
16.36000 14.213
16.38000 17.207
16.40000 15.649
16.42000 17.614
16.44000 15.709
16.46000 18.122
16.48000 12.395
16.50000 14.109
16.52000 21.453
16.54000 19.935
16.56000 16.373
16.58000 12.786
16.60000 19.778
16.62000 17.680
16.64000 17.729
16.66000 18.001
16.68000 21.018
16.70000 10.976
16.72000 12.668
16.74000 14.982
16.76000 13.650
16.78000 17.067
16.80000 10.366
16.82000 12.583
16.84000 14.165
16.86000 17.627
16.88000 18.222
16.90000 16.069
16.92000 17.283
16.94000 12.266
16.96000 12.854
16.98000 12.584
17.00000 16.615
17.02000 6.171
17.04000 4.078
17.06000 15.524
17.08000 18.648
17.10000 16.076
17.12000 11.892
17.14000 10.355
17.16000 11.556
17.18000 11.084
17.20000 11.447
17.22000 8.310
17.24000 9.318
17.26000 7.833
17.28000 5.952
17.30000 13.025
17.32000 10.054
17.34000 11.621
17.36000 12.136
17.38000 9.249
17.40000 9.526
17.42000 15.808
17.44000 9.105
17.46000 6.555
17.48000 5.272
17.50000 12.654
17.52000 15.693
17.54000 15.698
17.56000 6.842
17.58000 8.770
17.60000 12.531
17.62000 6.177
17.64000 2.024
17.66000 4.506
17.68000 2.478
17.70000 2.646
17.72000 5.405
17.74000 12.163
17.76000 8.813
17.78000 7.220
17.80000 9.868
17.82000 11.117
17.84000 11.720
17.86000 4.962
17.88000 9.434
17.90000 11.953
17.92000 7.755
17.94000 6.493
17.96000 6.640
17.98000 2.570
18.00000 4.649
18.02000 9.049
18.04000 9.302
18.06000 7.689
18.08000 6.002
18.10000 4.452
18.12000 4.506
18.14000 10.876
18.16000 12.156
18.18000 7.247
18.20000 5.284
18.22000 5.773
18.24000 9.984
18.26000 15.362
18.28000 7.927
18.30000 10.692
18.32000 11.628
18.34000 4.978
18.36000 -0.002
18.38000 1.937
18.40000 3.804
18.42000 15.184
18.44000 13.015
18.46000 8.501
18.48000 6.162
18.50000 11.356
18.52000 10.880
18.54000 3.169
18.56000 -1.467
18.58000 4.239
18.60000 6.504
18.62000 10.489
18.64000 -1.657
18.66000 -3.648
18.68000 -4.276
18.70000 -0.966
18.72000 4.798
18.74000 9.463
18.76000 13.582
18.78000 5.971
18.80000 5.716
18.82000 13.438
18.84000 15.657
18.86000 6.976
18.88000 10.498
18.90000 5.191
18.92000 1.784
18.94000 6.722
18.96000 11.432
18.98000 14.117
19.00000 13.483
19.02000 5.128
19.04000 3.044
19.06000 5.358
19.08000 9.212
19.10000 11.408
19.12000 10.623
19.14000 8.609
19.16000 7.640
19.18000 1.560
19.20000 2.140
19.22000 6.885
19.24000 5.450
19.26000 6.250
19.28000 7.989
19.30000 3.843
19.32000 8.972
19.34000 11.991
19.36000 11.224
19.38000 7.904
19.40000 8.992
19.42000 10.532
19.44000 7.318
19.46000 4.177
19.48000 2.996
19.50000 -0.828
19.52000 2.218
19.54000 0.158
19.56000 -4.240
19.58000 -3.647
19.60000 2.103
19.62000 3.800
19.64000 6.343
19.66000 2.925
19.68000 8.898
19.70000 2.129
19.72000 -4.233
19.74000 5.626
19.76000 6.591
19.78000 10.781
19.80000 3.289
19.82000 -2.861
19.84000 2.044
19.86000 -0.482
19.88000 0.058
19.90000 -0.882
19.92000 4.267
19.94000 8.109
19.96000 3.802
19.98000 3.470
20.00000 5.769
20.02000 3.715
20.04000 1.327
20.06000 3.160
20.08000 4.395
20.10000 8.142
20.12000 1.692
20.14000 1.250
20.16000 5.560
20.18000 13.054
20.20000 6.360
20.22000 -0.577
20.24000 4.706
20.26000 7.087
20.28000 8.310
20.30000 6.655
20.32000 6.633
20.34000 5.678
20.36000 1.771
20.38000 2.032
20.40000 4.779
20.42000 1.389
20.44000 6.855
20.46000 0.370
20.48000 2.286
20.50000 8.002
20.52000 12.121
20.54000 9.691
20.56000 0.863
20.58000 7.984
20.60000 10.373
20.62000 8.452
20.64000 1.963
20.66000 1.730
20.68000 -4.172
20.70000 1.155
20.72000 6.689
20.74000 7.336
20.76000 8.802
20.78000 2.917
20.80000 7.281
20.82000 6.505
20.84000 7.009
20.86000 12.601
20.88000 13.811
20.90000 11.120
20.92000 3.222
20.94000 5.864
20.96000 1.959
20.98000 -1.541
21.00000 -4.152
21.02000 3.519
21.04000 3.728
21.06000 6.900
21.08000 11.641
21.10000 6.978
21.12000 -4.147
21.14000 -3.640
21.16000 4.429
21.18000 9.441
21.20000 7.573
21.22000 1.860
21.24000 4.457
21.26000 2.535
21.28000 3.957
21.30000 3.158
21.32000 -0.419
21.34000 -0.802
21.36000 -0.803
21.38000 8.723
21.40000 12.623
21.42000 3.904
21.44000 2.612
21.46000 4.126
21.48000 3.794
21.50000 -1.799
21.52000 -2.595
21.54000 7.296
21.56000 8.251
21.58000 6.528
21.60000 4.409
21.62000 3.280
21.64000 6.458
21.66000 7.059
21.68000 8.367
21.70000 4.175
21.72000 6.474
21.74000 2.724
21.76000 -1.600
21.78000 2.225
21.80000 -0.373
21.82000 -0.343
21.84000 1.822
21.86000 8.492
21.88000 3.670
21.90000 -3.696
21.92000 -2.129
21.94000 2.724
21.96000 2.685
21.98000 2.471
22.00000 -0.432
22.02000 3.017
22.04000 2.126
22.06000 5.559
22.08000 4.399
22.10000 3.665
22.12000 -0.162
22.14000 -0.482
22.16000 -1.172
22.18000 -1.429
22.20000 0.050
22.22000 4.645
22.24000 6.723
22.26000 4.387
22.28000 -0.215
22.30000 1.503
22.32000 -0.918
22.34000 -0.669
22.36000 -1.146
22.38000 -1.056
22.40000 -0.833
22.42000 -0.433
22.44000 -2.081
22.46000 -3.298
22.48000 0.993
22.50000 5.121
22.52000 8.173
22.54000 6.438
22.56000 0.871
22.58000 -3.630
22.60000 -1.369
22.62000 7.453
22.64000 -4.088
22.66000 -3.283
22.68000 3.563
22.70000 6.386
22.72000 8.114
22.74000 8.657
22.76000 -0.952
22.78000 6.036
22.80000 6.465
22.82000 4.113
22.84000 1.147
22.86000 -0.205
22.88000 -4.075
22.90000 -0.984
22.92000 0.489
22.94000 -0.225
22.96000 3.845
22.98000 2.845
23.00000 5.950
23.02000 3.761
23.04000 1.377
23.06000 -2.345
23.08000 1.581
23.10000 4.163
23.12000 1.160
23.14000 -0.521
23.16000 5.306
23.18000 9.456
23.20000 8.648
23.22000 4.373
23.24000 1.146
23.26000 -3.165
23.28000 -0.285
23.30000 3.744
23.32000 1.614
23.34000 8.186
23.36000 6.542
23.38000 8.471
23.40000 1.205
23.42000 1.538
23.44000 2.614
23.46000 3.600
23.48000 2.294
23.50000 1.140
23.52000 2.069
23.54000 1.717
23.56000 3.461
23.58000 6.628
23.60000 5.980
23.62000 -1.295
23.64000 -2.061
23.66000 0.665
23.68000 7.013
23.70000 3.555
23.72000 -3.710
23.74000 -0.062
23.76000 -1.070
23.78000 -1.421
23.80000 5.670
23.82000 4.031
23.84000 1.031
23.86000 3.252
23.88000 2.353
23.90000 -0.229
23.92000 0.622
23.94000 5.178
23.96000 2.251
23.98000 6.509
24.00000 6.025
24.02000 5.021
24.04000 0.713
24.06000 2.756
24.08000 5.543
24.10000 1.842
24.12000 0.564
24.14000 3.630
24.16000 5.165
24.18000 3.887
24.20000 0.524
24.22000 1.126
24.24000 0.269
24.26000 1.498
24.28000 0.056
24.30000 -2.087
24.32000 -1.269
24.34000 5.211
24.36000 5.802
24.38000 1.661
24.40000 2.831
24.42000 3.201
24.44000 1.398
24.46000 2.180
24.48000 0.849
24.50000 0.382
24.52000 1.253
24.54000 0.942
24.56000 7.113
24.58000 9.411
24.60000 3.981
24.62000 1.254
24.64000 2.762
24.66000 -0.249
24.68000 -3.966
24.70000 1.920
24.72000 7.500
24.74000 6.982
24.76000 1.554
24.78000 3.196
24.80000 7.436
24.82000 2.283
24.84000 -2.024
24.86000 2.467
24.88000 2.311
24.90000 1.470
24.92000 0.512
24.94000 -0.635
24.96000 4.541
24.98000 7.742
25.00000 3.525
25.02000 -1.280
25.04000 0.832
25.06000 4.731
25.08000 6.130
25.10000 -1.732
25.12000 -3.607
25.14000 1.537
25.16000 3.690
25.18000 6.358
25.20000 7.080
25.22000 11.172
25.24000 0.743
25.26000 -3.010
25.28000 6.436
25.30000 11.365
25.32000 5.681
25.34000 -1.177
25.36000 -3.055
25.38000 -0.698
25.40000 1.572
25.42000 6.286
25.44000 3.446
25.46000 8.274
25.48000 7.680
25.50000 4.188
25.52000 3.809
25.54000 5.693
25.56000 -0.693
25.58000 1.246
25.60000 -0.718
25.62000 -1.047
25.64000 -0.153
25.66000 -1.414
25.68000 0.886
25.70000 0.769
25.72000 0.887
25.74000 -0.386
25.76000 -3.904
25.78000 4.326
25.80000 8.070
25.82000 5.293
25.84000 4.805
25.86000 0.842
25.88000 5.059
25.90000 -1.227
25.92000 -0.183
25.94000 -1.528
25.96000 -3.025
25.98000 -0.065
26.00000 -0.978
26.02000 -0.706
26.04000 -1.598
26.06000 2.849
26.08000 -2.186
26.10000 -1.154
26.12000 4.724
26.14000 7.351
26.16000 8.261
26.18000 9.297
26.20000 5.714
26.22000 5.279
26.24000 8.675
26.26000 6.043
26.28000 4.008
26.30000 0.568
26.32000 2.260
26.34000 5.058
26.36000 4.772
26.38000 4.256
26.40000 3.205
26.42000 -2.188
26.44000 -1.299
26.46000 2.141
26.48000 0.612
26.50000 1.677
26.52000 3.705
26.54000 2.997
26.56000 -0.282
26.58000 -1.197
26.60000 1.384
26.62000 -0.935
26.64000 -3.856
26.66000 -1.052
26.68000 3.012
26.70000 1.370
26.72000 -0.148
26.74000 2.159
26.76000 4.275
26.78000 1.835
26.80000 1.040
26.82000 3.133
26.84000 4.069
26.86000 3.664
26.88000 6.536
26.90000 7.260
26.92000 3.291
26.94000 -0.491
26.96000 1.010
26.98000 4.762
27.00000 11.005
27.02000 8.758
27.04000 8.603
27.06000 4.774
27.08000 0.578
27.10000 2.049
27.12000 2.775
27.14000 4.408
27.16000 2.054
27.18000 2.955
27.20000 4.200
27.22000 3.645
27.24000 1.944
27.26000 -0.578
27.28000 2.033
27.30000 2.074
27.32000 4.804
27.34000 4.075
27.36000 -0.619
27.38000 0.293
27.40000 6.270
27.42000 3.078
27.44000 5.057
27.46000 3.350
27.48000 2.577
27.50000 -2.886
27.52000 1.145
27.54000 0.769
27.56000 -0.177
27.58000 -0.482
27.60000 0.956
27.62000 -1.900
27.64000 -3.672
27.66000 -1.985
27.68000 1.168
27.70000 8.707
27.72000 7.049
27.74000 5.724
27.76000 6.458
27.78000 4.104
27.80000 3.577
27.82000 1.930
27.84000 5.031
27.86000 5.113
27.88000 1.952
27.90000 -0.963
27.92000 0.140
27.94000 3.360
27.96000 -0.651
27.98000 2.080
28.00000 2.099
28.02000 0.750
28.04000 5.013
28.06000 7.759
28.08000 5.509
28.10000 3.429
28.12000 6.549
28.14000 5.211
28.16000 4.617
28.18000 7.006
28.20000 0.392
28.22000 4.514
28.24000 7.210
28.26000 4.978
28.28000 6.520
28.30000 6.598
28.32000 -0.106
28.34000 -0.567
28.36000 1.112
28.38000 1.889
28.40000 6.164
28.42000 2.789
28.44000 -3.760
28.46000 2.145
28.48000 9.178
28.50000 7.705
28.52000 3.411
28.54000 6.899
28.56000 7.595
28.58000 0.266
28.60000 -0.019
28.62000 -0.234
28.64000 9.320
28.66000 5.249
28.68000 3.502
28.70000 4.820
28.72000 3.841
28.74000 2.571
28.76000 3.865
28.78000 8.477
28.80000 5.586
28.82000 0.921
28.84000 -1.212
28.86000 -0.032
28.88000 1.031
28.90000 2.178
28.92000 2.155
28.94000 -1.130
28.96000 2.274
28.98000 5.456
29.00000 10.836
29.02000 7.792
29.04000 1.905
29.06000 4.439
29.08000 -0.574
29.10000 5.167
29.12000 8.315
29.14000 0.425
29.16000 -3.444
29.18000 -0.162
29.20000 1.176
29.22000 0.940
29.24000 2.438
29.26000 1.336
29.28000 3.553
29.30000 -0.061
29.32000 1.627
29.34000 3.913
29.36000 -0.755
29.38000 -0.637
29.40000 5.346
29.42000 3.365
29.44000 1.464
29.46000 6.603
29.48000 5.576
29.50000 1.972
29.52000 4.835
29.54000 8.470
29.56000 -1.789
29.58000 -2.553
29.60000 2.340
29.62000 -0.823
29.64000 7.055
29.66000 10.047
29.68000 2.900
29.70000 -1.107
29.72000 -3.697
29.74000 -2.204
29.76000 0.576
29.78000 1.353
29.80000 7.011
29.82000 3.854
29.84000 5.182
29.86000 6.750
29.88000 7.055
29.90000 2.317
29.92000 1.211
29.94000 3.599
29.96000 4.354
29.98000 3.442
30.00000 3.960
30.02000 5.493
30.04000 4.661
30.06000 3.110
30.08000 4.202
30.10000 8.299
30.12000 4.792
30.14000 2.246
30.16000 -1.963
30.18000 0.165
30.20000 1.675
30.22000 -3.641
30.24000 -2.894
30.26000 1.250
30.28000 7.377
30.30000 1.927
30.32000 1.127
30.34000 8.011
30.36000 -1.286
30.38000 -1.212
30.40000 -1.102
30.42000 -0.758
30.44000 -1.131
30.46000 -0.160
30.48000 2.340
30.50000 4.562
30.52000 7.660
30.54000 8.408
30.56000 4.818
30.58000 0.530
30.60000 0.567
30.62000 -0.146
30.64000 4.558
30.66000 3.091
30.68000 0.355
30.70000 -0.475
30.72000 -1.619
30.74000 -1.578
30.76000 2.273
30.78000 1.701
30.80000 3.450
30.82000 5.369
30.84000 2.897
30.86000 7.228
30.88000 3.773
30.90000 3.205
30.92000 -0.612
30.94000 4.220
30.96000 1.248
30.98000 -0.773
31.00000 1.337
31.02000 6.766
31.04000 6.837
31.06000 7.278
31.08000 11.055
31.10000 3.033
31.12000 2.076
31.14000 7.475
31.16000 -2.109
31.18000 0.435
31.20000 4.066
31.22000 4.429
31.24000 0.412
31.26000 -1.074
31.28000 0.921
31.30000 -0.447
31.32000 0.397
31.34000 5.743
31.36000 5.725
31.38000 1.090
31.40000 6.662
31.42000 -0.642
31.44000 -3.585
31.46000 -1.546
31.48000 1.013
31.50000 4.824
31.52000 7.580
31.54000 9.957
31.56000 9.015
31.58000 7.788
31.60000 10.096
31.62000 8.819
31.64000 9.023
31.66000 4.779
31.68000 4.995
31.70000 7.924
31.72000 4.147
31.74000 4.192
31.76000 7.930
31.78000 6.079
31.80000 5.852
31.82000 -0.457
31.84000 0.201
31.86000 2.601
31.88000 5.377
31.90000 5.717
31.92000 7.671
31.94000 4.136
31.96000 5.482
31.98000 2.070
32.00000 -0.915
32.02000 2.423
32.04000 9.017
32.06000 6.417
32.08000 2.755
32.10000 -3.574
32.12000 -0.181
32.14000 6.720
32.16000 8.007
32.18000 1.500
32.20000 8.245
32.22000 12.944
32.24000 8.380
32.26000 0.559
32.28000 3.394
32.30000 8.995
32.32000 6.935
32.34000 7.983
32.36000 9.417
32.38000 9.738
32.40000 7.253
32.42000 3.292
32.44000 -1.474
32.46000 2.425
32.48000 6.531
32.50000 3.313
32.52000 1.088
32.54000 1.658
32.56000 -1.910
32.58000 1.924
32.60000 -3.119
32.62000 -0.768
32.64000 -0.510
32.66000 0.702
32.68000 5.540
32.70000 8.705
32.72000 8.826
32.74000 11.271
32.76000 4.078
32.78000 1.388
32.80000 3.875
32.82000 6.342
32.84000 3.191
32.86000 5.081
32.88000 5.281
32.90000 4.955
32.92000 7.172
32.94000 7.111
32.96000 10.292
32.98000 4.197
33.00000 9.309
33.02000 8.823
33.04000 5.616
33.06000 4.182
33.08000 1.145
33.10000 -3.531
33.12000 6.527
33.14000 4.775
33.16000 5.008
33.18000 7.723
33.20000 6.847
33.22000 7.159
33.24000 1.323
33.26000 -1.760
33.28000 4.459
33.30000 9.543
33.32000 10.950
33.34000 7.034
33.36000 6.402
33.38000 9.413
33.40000 10.953
33.42000 10.486
33.44000 7.577
33.46000 4.375
33.48000 4.608
33.50000 7.593
33.52000 9.469
33.54000 8.482
33.56000 8.273
33.58000 7.176
33.60000 10.334
33.62000 6.833
33.64000 7.809
33.66000 5.026
33.68000 3.937
33.70000 10.343
33.72000 7.835
33.74000 6.719
33.76000 3.192
33.78000 4.799
33.80000 5.798
33.82000 5.685
33.84000 4.924
33.86000 8.146
33.88000 2.419
33.90000 2.778
33.92000 7.424
33.94000 8.511
33.96000 8.408
33.98000 6.325
34.00000 7.834
34.02000 7.808
34.04000 5.942
34.06000 3.591
34.08000 -2.488
34.10000 0.352
34.12000 5.981
34.14000 8.379
34.16000 8.518
34.18000 7.267
34.20000 11.205
34.22000 8.697
34.24000 5.296
34.26000 2.976
34.28000 5.303
34.30000 6.119
34.32000 3.032
34.34000 6.789
34.36000 7.731
34.38000 7.654
34.40000 8.013
34.42000 8.313
34.44000 7.080
34.46000 6.376
34.48000 5.619
34.50000 11.769
34.52000 16.337
34.54000 7.988
34.56000 6.497
34.58000 5.585
34.60000 10.824
34.62000 8.268
34.64000 5.989
34.66000 5.238
34.68000 5.317
34.70000 9.306
34.72000 8.130
34.74000 1.307
34.76000 4.695
34.78000 4.646
34.80000 4.608
34.82000 8.324
34.84000 7.605
34.86000 8.234
34.88000 7.472
34.90000 3.750
34.92000 2.661
34.94000 3.734
34.96000 5.809
34.98000 -3.478
35.00000 5.362
35.02000 6.575
35.04000 6.409
35.06000 5.371
35.08000 8.909
35.10000 3.820
35.12000 5.301
35.14000 9.433
35.16000 5.427
35.18000 3.907
35.20000 1.201
35.22000 7.667
35.24000 8.609
35.26000 6.375
35.28000 4.365
35.30000 4.393
35.32000 4.122
35.34000 5.187
35.36000 2.411
35.38000 3.933
35.40000 1.483
35.42000 2.697
35.44000 1.907
35.46000 -1.047
35.48000 3.454
35.50000 7.802
35.52000 3.590
35.54000 1.471
35.56000 -0.050
35.58000 3.599
35.60000 2.146
35.62000 0.029
35.64000 2.245
35.66000 5.242
35.68000 7.005
35.70000 8.654
35.72000 3.991
35.74000 6.539
35.76000 3.407
35.78000 3.927
35.80000 2.611
35.82000 -0.639
35.84000 -3.531
35.86000 -0.759
35.88000 4.556
35.90000 6.660
35.92000 9.298
35.94000 6.043
35.96000 1.536
35.98000 4.701
36.00000 7.063
36.02000 2.606
36.04000 0.282
36.06000 -0.187
36.08000 1.126
36.10000 0.662
36.12000 0.423
36.14000 0.269
36.16000 3.804
36.18000 8.341
36.20000 5.033
36.22000 3.971
36.24000 4.519
36.26000 6.139
36.28000 6.129
36.30000 3.779
36.32000 3.305
36.34000 5.165
36.36000 5.872
36.38000 0.817
36.40000 -0.623
36.42000 0.068
36.44000 -3.554
36.46000 2.497
36.48000 3.632
36.50000 1.518
36.52000 0.236
36.54000 -1.751
36.56000 1.431
36.58000 -2.177
36.60000 -1.153
36.62000 -1.147
36.64000 -2.581
36.66000 1.347
36.68000 2.782
36.70000 3.607
36.72000 7.285
36.74000 8.429
36.76000 0.744
36.78000 1.039
36.80000 4.775
36.82000 5.304
36.84000 2.918
36.86000 0.484
36.88000 4.964
36.90000 4.565
36.92000 5.175
36.94000 3.898
36.96000 4.004
36.98000 2.378
37.00000 0.855
37.02000 0.089
37.04000 -0.289
37.06000 -0.785
37.08000 -1.276
37.10000 -2.844
37.12000 -1.512
37.14000 1.673
37.16000 -0.313
37.18000 -1.323
37.20000 -2.003
37.22000 2.649
37.24000 3.629
37.26000 -3.089
37.28000 -1.496
37.30000 7.188
37.32000 7.061
37.34000 -1.154
37.36000 -2.627
37.38000 -2.144
37.40000 0.369
37.42000 1.582
37.44000 3.156
37.46000 3.611
37.48000 -0.409
37.50000 0.645
37.52000 0.534
37.54000 10.584
37.56000 4.805
37.58000 3.966
37.60000 3.904
37.62000 5.295
37.64000 6.528
37.66000 5.072
37.68000 4.329
37.70000 5.653
37.72000 4.790
37.74000 7.408
37.76000 13.394
37.78000 8.492
37.80000 9.694
37.82000 13.631
37.84000 10.918
37.86000 9.353
37.88000 5.713
37.90000 4.644
37.92000 7.338
37.94000 6.984
37.96000 11.360
37.98000 11.791
38.00000 10.768
38.02000 11.403
38.04000 10.320
38.06000 13.786
38.08000 14.946
38.10000 17.787
38.12000 13.880
38.14000 15.417
38.16000 17.314
38.18000 19.818
38.20000 17.650
38.22000 20.632
38.24000 15.268
38.26000 15.109
38.28000 14.864
38.30000 16.752
38.32000 27.186
38.34000 28.578
38.36000 28.243
38.38000 24.741
38.40000 28.202
38.42000 30.088
38.44000 26.519
38.46000 27.180
38.48000 30.082
38.50000 31.580
38.52000 33.019
38.54000 40.098
38.56000 37.809
38.58000 32.560
38.60000 31.746
38.62000 40.374
38.64000 40.863
38.66000 39.441
38.68000 40.193
38.70000 42.742
38.72000 44.224
38.74000 46.836
38.76000 49.549
38.78000 57.214
38.80000 54.353
38.82000 56.543
38.84000 57.901
38.86000 61.706
38.88000 62.441
38.90000 63.173
38.92000 63.377
38.94000 67.526
38.96000 74.845
38.98000 76.715
39.00000 78.398
39.02000 81.735
39.04000 89.286
39.06000 99.287
39.08000 104.326
39.10000 106.165
39.12000 109.441
39.14000 113.483
39.16000 119.373
39.18000 124.771
39.20000 134.386
39.22000 141.339
39.24000 153.447
39.26000 161.726
39.28000 167.707
39.30000 176.453
39.32000 181.293
39.34000 187.874
39.36000 200.575
39.38000 211.167
39.40000 218.548
39.42000 230.697
39.44000 244.666
39.46000 260.760
39.48000 279.368
39.50000 289.227
39.52000 305.828
39.54000 314.455
39.56000 331.534
39.58000 349.818
39.60000 361.429
39.62000 379.170
39.64000 395.332
39.66000 415.252
39.68000 444.779
39.70000 455.036
39.72000 474.398
39.74000 496.687
39.76000 508.219
39.78000 516.660
39.80000 529.182
39.82000 538.638
39.84000 553.419
39.86000 559.958
39.88000 573.922
39.90000 585.410
39.92000 582.469
39.94000 593.819
39.96000 600.688
39.98000 600.466
40.00000 592.351
40.02000 589.668
40.04000 590.858
40.06000 591.961
40.08000 582.638
40.10000 563.603
40.12000 557.307
40.14000 550.602
40.16000 533.716
40.18000 515.900
40.20000 487.202
40.22000 478.964
40.24000 463.373
40.26000 443.980
40.28000 423.088
40.30000 402.267
40.32000 386.269
40.34000 376.502
40.36000 354.846
40.38000 335.390
40.40000 326.747
40.42000 310.521
40.44000 288.952
40.46000 270.975
40.48000 259.248
40.50000 247.106
40.52000 231.244
40.54000 216.207
40.56000 198.702
40.58000 188.291
40.60000 175.129
40.62000 166.202
40.64000 164.000
40.66000 152.694
40.68000 135.821
40.70000 128.434
40.72000 126.664
40.74000 121.732
40.76000 106.889
40.78000 99.635
40.80000 103.292
40.82000 96.268
40.84000 88.736
40.86000 83.241
40.88000 77.000
40.90000 73.688
40.92000 67.924
40.94000 62.473
40.96000 60.840
40.98000 61.081
41.00000 58.889
41.02000 58.223
41.04000 53.906
41.06000 44.596
41.08000 44.003
41.10000 38.570
41.12000 36.204
41.14000 35.805
41.16000 34.468
41.18000 31.718
41.20000 25.689
41.22000 30.497
41.24000 29.072
41.26000 31.519
41.28000 28.294
41.30000 23.349
41.32000 26.873
41.34000 23.218
41.36000 21.408
41.38000 22.053
41.40000 21.805
41.42000 19.890
41.44000 18.970
41.46000 16.523
41.48000 18.946
41.50000 13.933
41.52000 15.510
41.54000 11.025
41.56000 9.808
41.58000 9.814
41.60000 13.025
41.62000 13.452
41.64000 10.681
41.66000 9.233
41.68000 9.260
41.70000 11.760
41.72000 8.937
41.74000 8.593
41.76000 5.767
41.78000 3.263
41.80000 3.837
41.82000 2.144
41.84000 7.744
41.86000 4.748
41.88000 3.895
41.90000 3.296
41.92000 3.242
41.94000 -0.278
41.96000 -1.201
41.98000 -2.356
42.00000 1.608
42.02000 2.105
42.04000 0.053
42.06000 0.095
42.08000 2.553
42.10000 5.291
42.12000 6.347
42.14000 0.971
42.16000 3.456
42.18000 2.585
42.20000 1.084
42.22000 -1.136
42.24000 1.783
42.26000 2.003
42.28000 2.883
42.30000 3.153
42.32000 4.921
42.34000 5.614
42.36000 0.755
42.38000 1.912
42.40000 -3.413
42.42000 -2.769
42.44000 2.112
42.46000 -1.565
42.48000 0.914
42.50000 -2.586
42.52000 -0.079
42.54000 0.878
42.56000 0.450
42.58000 0.657
42.60000 0.766
42.62000 4.462
42.64000 1.523
42.66000 1.819
42.68000 2.414
42.70000 3.305
42.72000 -0.455
42.74000 -0.273
42.76000 7.086
42.78000 0.558
42.80000 -0.581
42.82000 -1.311
42.84000 2.672
42.86000 4.211
42.88000 3.197
42.90000 3.893
42.92000 2.483
42.94000 2.405
42.96000 -3.311
42.98000 -2.874
43.00000 0.570
43.02000 1.254
43.04000 0.737
43.06000 1.327
43.08000 -0.390
43.10000 -2.092
43.12000 0.585
43.14000 1.802
43.16000 2.249
43.18000 -2.264
43.20000 -1.249
43.22000 0.179
43.24000 -0.313
43.26000 2.442
43.28000 1.096
43.30000 2.282
43.32000 1.815
43.34000 -0.446
43.36000 -2.797
43.38000 0.345
43.40000 -1.128
43.42000 -2.157
43.44000 -0.916
43.46000 3.103
43.48000 3.477
43.50000 3.026
43.52000 1.336
43.54000 3.231
43.56000 1.689
43.58000 1.590
43.60000 3.392
43.62000 2.062
43.64000 1.767
43.66000 0.685
43.68000 1.051
43.70000 1.621
43.72000 1.451
43.74000 2.313
43.76000 2.100
43.78000 -1.541
43.80000 -0.447
43.82000 6.379
43.84000 5.458
43.86000 -0.080
43.88000 -1.618
43.90000 -1.877
43.92000 0.407
43.94000 3.184
43.96000 -1.124
43.98000 -3.236
44.00000 3.751
44.02000 2.209
44.04000 1.118
44.06000 1.239
44.08000 0.259
44.10000 -0.738
44.12000 -0.121
44.14000 -2.609
44.16000 -1.704
44.18000 -1.832
44.20000 -0.782
44.22000 0.905
44.24000 -1.670
44.26000 -0.995
44.28000 -2.760
44.30000 -2.398
44.32000 0.666
44.34000 -3.207
44.36000 -3.237
44.38000 -1.364
44.40000 0.634
44.42000 2.548
44.44000 -0.065
44.46000 1.311
44.48000 -0.756
44.50000 -1.780
44.52000 0.684
44.54000 3.258
44.56000 1.446
44.58000 -1.916
44.60000 3.066
44.62000 -0.669
44.64000 0.545
44.66000 3.880
44.68000 1.275
44.70000 3.086
44.72000 4.949
44.74000 2.037
44.76000 3.147
44.78000 0.679
44.80000 -3.234
44.82000 0.498
44.84000 -0.938
44.86000 2.048
44.88000 -0.696
44.90000 1.768
44.92000 4.937
44.94000 1.831
44.96000 -0.240
44.98000 0.744
45.00000 1.752
45.02000 1.444
45.04000 3.620
45.06000 2.192
45.08000 3.931
45.10000 0.708
45.12000 -0.492
45.14000 3.738
45.16000 6.952
45.18000 4.869
45.20000 1.232
45.22000 2.690
45.24000 5.618
45.26000 4.428
45.28000 3.230
45.30000 6.364
45.32000 6.600
45.34000 5.980
45.36000 7.655
45.38000 3.786
45.40000 3.027
45.42000 6.671
45.44000 9.503
45.46000 10.714
45.48000 5.914
45.50000 7.913
45.52000 11.812
45.54000 11.078
45.56000 12.116
45.58000 14.221
45.60000 15.714
45.62000 12.125
45.64000 13.019
45.66000 17.037
45.68000 16.537
45.70000 20.868
45.72000 25.076
45.74000 18.376
45.76000 19.680
45.78000 21.535
45.80000 23.791
45.82000 24.065
45.84000 23.512
45.86000 24.479
45.88000 28.507
45.90000 27.702
45.92000 26.912
45.94000 30.094
45.96000 33.791
45.98000 33.365
46.00000 35.787
46.02000 35.563
46.04000 35.150
46.06000 39.414
46.08000 43.395
46.10000 42.612
46.12000 41.483
46.14000 38.471
46.16000 42.990
46.18000 41.692
46.20000 42.643
46.22000 52.160
46.24000 53.687
46.26000 52.863
46.28000 50.883
46.30000 55.076
46.32000 56.197
46.34000 55.679
46.36000 57.274
46.38000 64.495
46.40000 59.725
46.42000 58.122
46.44000 57.276
46.46000 52.383
46.48000 53.367
46.50000 56.420
46.52000 58.110
46.54000 58.414
46.56000 54.123
46.58000 61.959
46.60000 70.536
46.62000 65.024
46.64000 66.980
46.66000 66.439
46.68000 66.956
46.70000 61.779
46.72000 62.332
46.74000 63.103
46.76000 57.569
46.78000 60.732
46.80000 62.377
46.82000 60.274
46.84000 57.463
46.86000 59.096
46.88000 52.490
46.90000 50.092
46.92000 49.956
46.94000 45.146
46.96000 46.717
46.98000 49.621
47.00000 41.703
47.02000 37.100
47.04000 41.834
47.06000 37.040
47.08000 37.016
47.10000 33.999
47.12000 36.355
47.14000 39.637
47.16000 31.145
47.18000 25.234
47.20000 27.363
47.22000 31.452
47.24000 27.980
47.26000 24.909
47.28000 24.845
47.30000 25.611
47.32000 25.399
47.34000 22.837
47.36000 22.733
47.38000 19.764
47.40000 18.291
47.42000 14.381
47.44000 15.448
47.46000 17.628
47.48000 18.526
47.50000 18.127
47.52000 11.562
47.54000 8.713
47.56000 14.737
47.58000 14.982
47.60000 11.060
47.62000 10.899
47.64000 15.947
47.66000 4.839
47.68000 3.558
47.70000 6.910
47.72000 10.670
47.74000 5.448
47.76000 0.883
47.78000 4.527
47.80000 1.047
47.82000 0.691
47.84000 -0.234
47.86000 3.331
47.88000 5.369
47.90000 3.100
47.92000 2.756
47.94000 2.413
47.96000 4.457
47.98000 5.999
48.00000 -1.113
48.02000 -0.581
48.04000 1.214
48.06000 -1.305
48.08000 -2.987
48.10000 3.198
48.12000 5.437
48.14000 2.376
48.16000 -0.437
48.18000 -0.317
48.20000 0.507
48.22000 4.965
48.24000 1.509
48.26000 -1.431
48.28000 -1.542
48.30000 1.461
48.32000 4.980
48.34000 2.945
48.36000 4.451
48.38000 6.331
48.40000 -0.041
48.42000 -2.925
48.44000 -0.656
48.46000 0.996
48.48000 1.194
48.50000 2.275
48.52000 3.244
48.54000 4.715
48.56000 2.073
48.58000 1.495
48.60000 -0.268
48.62000 2.817
48.64000 3.480
48.66000 0.599
48.68000 -1.967
48.70000 -0.654
48.72000 0.836
48.74000 -1.176
48.76000 -2.510
48.78000 2.308
48.80000 2.037
48.82000 -1.103
48.84000 3.427
48.86000 3.076
48.88000 2.651
48.90000 -2.145
48.92000 -1.429
48.94000 0.460
48.96000 5.035
48.98000 0.243
49.00000 3.655
49.02000 5.509
49.04000 7.119
49.06000 -1.653
49.08000 3.381
49.10000 6.987
49.12000 3.525
49.14000 0.343
49.16000 -2.802
49.18000 -0.557
49.20000 0.760
49.22000 0.349
49.24000 0.276
49.26000 1.883
49.28000 1.095
49.30000 2.007
49.32000 3.256
49.34000 6.715
49.36000 6.364
49.38000 2.201
49.40000 1.300
49.42000 -1.158
49.44000 -2.776
49.46000 -0.511
49.48000 1.680
49.50000 1.004
49.52000 2.262
49.54000 6.911
49.56000 5.106
49.58000 0.024
49.60000 -1.488
49.62000 1.132
49.64000 2.188
49.66000 2.182
49.68000 4.881
49.70000 7.461
49.72000 3.891
49.74000 1.027
49.76000 4.336
49.78000 1.099
49.80000 -2.259
49.82000 -0.933
49.84000 0.779
49.86000 6.485
49.88000 6.095
49.90000 4.981
49.92000 4.716
49.94000 2.742
49.96000 1.413
49.98000 2.562
50.00000 5.210
50.02000 3.362
50.04000 3.129
50.06000 -0.587
50.08000 -0.943
50.10000 0.058
50.12000 1.375
50.14000 1.193
50.16000 2.352
50.18000 5.216
50.20000 5.682
50.22000 6.151
50.24000 7.357
50.26000 3.531
50.28000 1.411
50.30000 4.145
50.32000 4.122
50.34000 0.675
50.36000 3.887
50.38000 3.289
50.40000 2.151
50.42000 3.761
50.44000 0.376
50.46000 -1.235
50.48000 -2.696
50.50000 4.248
50.52000 5.510
50.54000 4.496
50.56000 9.090
50.58000 7.307
50.60000 3.685
50.62000 3.547
50.64000 1.173
50.66000 3.692
50.68000 5.702
50.70000 2.999
50.72000 4.722
50.74000 6.230
50.76000 7.524
50.78000 5.355
50.80000 6.603
50.82000 6.762
50.84000 6.856
50.86000 1.919
50.88000 2.491
50.90000 -1.769
50.92000 0.932
50.94000 5.614
50.96000 8.625
50.98000 12.855
51.00000 7.398
51.02000 2.283
51.04000 0.078
51.06000 -2.686
51.08000 -0.875
51.10000 1.233
51.12000 2.827
51.14000 0.435
51.16000 -2.452
51.18000 -2.686
51.20000 -2.098
51.22000 3.118
51.24000 6.546
51.26000 1.216
51.28000 0.674
51.30000 0.349
51.32000 4.618
51.34000 -0.060
51.36000 -0.324
51.38000 -0.508
51.40000 2.805
51.42000 2.247
51.44000 6.666
51.46000 4.316
51.48000 7.518
51.50000 6.829
51.52000 2.746
51.54000 2.299
51.56000 1.598
51.58000 1.028
51.60000 -2.681
51.62000 -1.983
51.64000 1.972
51.66000 3.146
51.68000 2.865
51.70000 3.207
51.72000 0.078
51.74000 -1.639
51.76000 2.229
51.78000 4.312
51.80000 6.599
51.82000 8.474
51.84000 4.916
51.86000 1.232
51.88000 1.170
51.90000 1.009
51.92000 1.546
51.94000 0.419
51.96000 0.134
51.98000 3.129
52.00000 2.077
52.02000 0.425
52.04000 1.754
52.06000 3.060
52.08000 2.464
52.10000 2.313
52.12000 1.862
52.14000 0.554
52.16000 2.684
52.18000 9.177
52.20000 10.590
52.22000 3.193
52.24000 4.124
52.26000 4.623
52.28000 2.192
52.30000 1.112
52.32000 -2.648
52.34000 0.427
52.36000 4.539
52.38000 4.099
52.40000 1.962
52.42000 3.980
52.44000 5.362
52.46000 6.373
52.48000 4.409
52.50000 0.393
52.52000 0.944
52.54000 3.909
52.56000 5.065
52.58000 2.551
52.60000 0.449
52.62000 -1.635
52.64000 0.388
52.66000 1.892
52.68000 3.857
52.70000 2.314
52.72000 5.180
52.74000 4.129
52.76000 5.568
52.78000 7.711
52.80000 7.309
52.82000 0.296
52.84000 -2.615
52.86000 4.199
52.88000 7.915
52.90000 6.933
52.92000 5.362
52.94000 2.810
52.96000 5.021
52.98000 3.116
53.00000 2.754
53.02000 1.418
53.04000 1.576
53.06000 1.080
53.08000 1.156
53.10000 0.028
53.12000 1.736
53.14000 1.556
53.16000 6.558
53.18000 4.090
53.20000 1.101
53.22000 2.052
53.24000 2.393
53.26000 2.712
53.28000 2.402
53.30000 2.996
53.32000 5.051
53.34000 4.222
53.36000 2.129
53.38000 -0.226
53.40000 -0.826
53.42000 0.536
53.44000 1.753
53.46000 4.364
53.48000 2.296
53.50000 3.946
53.52000 6.128
53.54000 0.480
53.56000 1.432
53.58000 3.598
53.60000 2.090
53.62000 0.881
53.64000 1.562
53.66000 2.550
53.68000 1.090
53.70000 0.648
53.72000 2.592
53.74000 2.211
53.76000 7.205
53.78000 6.563
53.80000 4.629
53.82000 2.382
53.84000 2.771
53.86000 3.929
53.88000 0.926
53.90000 2.852
53.92000 2.234
53.94000 2.753
53.96000 4.062
53.98000 5.959
54.00000 2.266
54.02000 -1.573
54.04000 0.798
54.06000 3.202
54.08000 1.159
54.10000 1.646
54.12000 0.399
54.14000 6.849
54.16000 1.436
54.18000 -2.612
54.20000 -0.370
54.22000 1.594
54.24000 -0.045
54.26000 3.852
54.28000 8.812
54.30000 7.300
54.32000 3.081
54.34000 6.336
54.36000 5.938
54.38000 9.387
54.40000 5.644
54.42000 2.616
54.44000 -1.131
54.46000 -0.324
54.48000 -1.127
54.50000 3.438
54.52000 4.627
54.54000 6.823
54.56000 5.079
54.58000 4.744
54.60000 0.554
54.62000 2.312
54.64000 2.414
54.66000 5.594
54.68000 4.070
54.70000 3.652
54.72000 5.430
54.74000 -1.004
54.76000 0.100
54.78000 1.595
54.80000 3.286
54.82000 8.005
54.84000 3.283
54.86000 3.121
54.88000 4.348
54.90000 4.152
54.92000 3.678
54.94000 -2.577
54.96000 3.892
54.98000 6.053
55.00000 9.011
55.02000 11.323
55.04000 5.408
55.06000 2.794
55.08000 2.624
55.10000 0.075
55.12000 1.365
55.14000 2.914
55.16000 6.762
55.18000 5.061
55.20000 1.489
55.22000 3.589
55.24000 2.179
55.26000 4.373
55.28000 8.776
55.30000 6.807
55.32000 5.019
55.34000 5.647
55.36000 3.635
55.38000 5.265
55.40000 5.486
55.42000 4.212
55.44000 4.477
55.46000 5.604
55.48000 6.895
55.50000 -0.315
55.52000 -2.551
55.54000 0.916
55.56000 0.355
55.58000 0.102
55.60000 3.848
55.62000 5.175
55.64000 1.166
55.66000 3.753
55.68000 4.433
55.70000 3.145
55.72000 5.888
55.74000 6.183
55.76000 4.295
55.78000 5.993
55.80000 4.581
55.82000 3.249
55.84000 5.845
55.86000 6.892
55.88000 7.018
55.90000 5.700
55.92000 2.162
55.94000 0.105
55.96000 4.061
55.98000 -0.042
56.00000 2.314
56.02000 1.675
56.04000 4.800
56.06000 5.299
56.08000 4.142
56.10000 1.414
56.12000 2.615
56.14000 0.144
56.16000 4.244
56.18000 1.436
56.20000 3.839
56.22000 5.978
56.24000 0.441
56.26000 -2.111
56.28000 1.232
56.30000 0.317
56.32000 1.065
56.34000 1.583
56.36000 1.141
56.38000 2.956
56.40000 2.160
56.42000 5.955
56.44000 1.606
56.46000 0.167
56.48000 0.275
56.50000 0.314
56.52000 1.827
56.54000 1.058
56.56000 0.100
56.58000 2.487
56.60000 3.123
56.62000 0.112
56.64000 1.421
56.66000 2.036
56.68000 1.756
56.70000 2.616
56.72000 3.183
56.74000 6.774
56.76000 3.026
56.78000 3.892
56.80000 5.743
56.82000 5.523
56.84000 4.705
56.86000 2.656
56.88000 2.296
56.90000 -0.118
56.92000 1.354
56.94000 2.876
56.96000 1.637
56.98000 1.795
57.00000 3.136
57.02000 5.506
57.04000 4.423
57.06000 -0.013
57.08000 2.820
57.10000 3.964
57.12000 4.003
57.14000 2.955
57.16000 1.347
57.18000 3.972
57.20000 2.597
57.22000 5.241
57.24000 5.872
57.26000 -0.085
57.28000 0.029
57.30000 3.045
57.32000 3.908
57.34000 3.119
57.36000 4.961
57.38000 2.744
57.40000 -2.514
57.42000 2.029
57.44000 4.075
57.46000 8.064
57.48000 7.173
57.50000 4.742
57.52000 6.499
57.54000 6.470
57.56000 5.630
57.58000 3.927
57.60000 4.466
57.62000 2.620
57.64000 1.935
57.66000 0.944
57.68000 -0.663
57.70000 -2.500
57.72000 -0.869
57.74000 -1.106
57.76000 2.376
57.78000 3.926
57.80000 1.690
57.82000 2.565
57.84000 3.524
57.86000 2.396
57.88000 0.795
57.90000 1.438
57.92000 4.474
57.94000 4.630
57.96000 -1.661
57.98000 2.175
58.00000 6.906
58.02000 4.013
58.04000 2.163
58.06000 1.709
58.08000 2.904
58.10000 2.374
58.12000 1.436
58.14000 0.884
58.16000 2.315
58.18000 4.663
58.20000 3.258
58.22000 3.638
58.24000 3.353
58.26000 0.115
58.28000 -1.901
58.30000 0.301
58.32000 1.995
58.34000 3.511
58.36000 0.410
58.38000 4.277
58.40000 3.717
58.42000 3.361
58.44000 3.016
58.46000 4.159
58.48000 1.657
58.50000 1.857
58.52000 3.115
58.54000 -1.679
58.56000 1.540
58.58000 -2.500
58.60000 -0.251
58.62000 2.626
58.64000 4.525
58.66000 2.471
58.68000 1.750
58.70000 4.469
58.72000 2.039
58.74000 1.246
58.76000 1.793
58.78000 0.567
58.80000 1.925
58.82000 2.748
58.84000 3.177
58.86000 4.599
58.88000 3.465
58.90000 3.084
58.92000 2.868
58.94000 1.385
58.96000 1.698
58.98000 0.929
59.00000 3.975
59.02000 0.253
59.04000 0.864
59.06000 -0.966
59.08000 -0.563
59.10000 5.079
59.12000 1.640
59.14000 2.609
59.16000 2.442
59.18000 3.738
59.20000 2.695
59.22000 4.239
59.24000 2.425
59.26000 4.284
59.28000 5.775
59.30000 3.409
59.32000 5.541
59.34000 5.694
59.36000 3.889
59.38000 5.813
59.40000 5.082
59.42000 2.402
59.44000 3.746
59.46000 4.317
59.48000 -1.446
59.50000 -2.451
59.52000 -0.163
59.54000 2.706
59.56000 4.680
59.58000 1.954
59.60000 1.218
59.62000 0.265
59.64000 1.117
59.66000 -0.420
59.68000 2.282
59.70000 1.524
59.72000 0.235
59.74000 6.384
59.76000 5.115
59.78000 3.291
59.80000 4.203
59.82000 4.431
59.84000 1.832
59.86000 3.539
59.88000 3.701
59.90000 3.028
59.92000 2.057
59.94000 1.179
59.96000 3.697
59.98000 2.032
60.00000 1.313
60.02000 2.896
60.04000 4.252
60.06000 3.329
60.08000 3.425
60.10000 1.853
60.12000 2.421
60.14000 2.284
60.16000 6.040
60.18000 3.241
60.20000 0.449
60.22000 3.353
60.24000 6.299
60.26000 2.179
60.28000 -0.593
60.30000 -0.422
60.32000 -0.921
60.34000 -2.439
60.36000 -1.580
60.38000 -2.249
60.40000 -0.042
60.42000 6.045
60.44000 5.725
60.46000 5.097
60.48000 1.763
60.50000 1.690
60.52000 4.620
60.54000 2.927
60.56000 1.564
60.58000 3.282
60.60000 1.617
60.62000 1.912
60.64000 2.918
60.66000 0.552
60.68000 -2.009
60.70000 1.075
60.72000 0.740
60.74000 1.264
60.76000 2.255
60.78000 -0.803
60.80000 1.711
60.82000 -1.528
60.84000 -0.939
60.86000 -2.413
60.88000 -0.951
60.90000 4.319
60.92000 6.142
60.94000 6.363
60.96000 6.666
60.98000 2.386
61.00000 5.204
61.02000 4.173
61.04000 4.347
61.06000 1.888
61.08000 -1.205
61.10000 0.630
61.12000 3.363
61.14000 0.582
61.16000 2.261
61.18000 4.611
61.20000 6.068
61.22000 4.745
61.24000 3.323
61.26000 3.073
61.28000 3.791
61.30000 5.931
61.32000 1.579
61.34000 2.506
61.36000 0.381
61.38000 0.722
61.40000 -0.772
61.42000 5.875
61.44000 11.094
61.46000 9.973
61.48000 5.878
61.50000 4.498
61.52000 4.001
61.54000 4.061
61.56000 5.297
61.58000 0.038
61.60000 1.909
61.62000 8.249
61.64000 6.168
61.66000 3.646
61.68000 5.191
61.70000 1.756
61.72000 3.046
61.74000 4.881
61.76000 4.015
61.78000 3.728
61.80000 -2.365
61.82000 1.527
61.84000 3.901
61.86000 8.209
61.88000 6.446
61.90000 6.939
61.92000 7.247
61.94000 9.378
61.96000 5.065
61.98000 3.444
62.00000 3.993
62.02000 1.378
62.04000 2.581
62.06000 1.939
62.08000 3.163
62.10000 5.811
62.12000 7.011
62.14000 8.019
62.16000 3.876
62.18000 3.414
62.20000 2.945
62.22000 4.736
62.24000 3.554
62.26000 4.232
62.28000 5.410
62.30000 3.518
62.32000 3.692
62.34000 5.416
62.36000 3.142
62.38000 -1.110
62.40000 1.731
62.42000 5.443
62.44000 7.260
62.46000 5.963
62.48000 4.070
62.50000 7.538
62.52000 6.821
62.54000 9.072
62.56000 6.983
62.58000 5.213
62.60000 7.317
62.62000 7.353
62.64000 4.572
62.66000 2.811
62.68000 4.837
62.70000 4.494
62.72000 4.309
62.74000 7.363
62.76000 5.974
62.78000 8.071
62.80000 8.951
62.82000 6.676
62.84000 2.485
62.86000 0.419
62.88000 -2.350
62.90000 1.809
62.92000 5.778
62.94000 0.934
62.96000 0.015
62.98000 -0.473
63.00000 2.040
63.02000 5.811
63.04000 5.909
63.06000 5.081
63.08000 3.803
63.10000 9.608
63.12000 6.894
63.14000 5.594
63.16000 3.844
63.18000 2.530
63.20000 2.222
63.22000 3.046
63.24000 4.411
63.26000 4.181
63.28000 3.453
63.30000 1.465
63.32000 1.707
63.34000 2.639
63.36000 3.885
63.38000 1.816
63.40000 -1.495
63.42000 -0.326
63.44000 -1.810
63.46000 3.791
63.48000 6.037
63.50000 3.301
63.52000 6.640
63.54000 3.350
63.56000 -0.354
63.58000 0.387
63.60000 4.443
63.62000 3.298
63.64000 4.557
63.66000 3.744
63.68000 2.231
63.70000 0.782
63.72000 -1.288
63.74000 3.130
63.76000 5.301
63.78000 -1.462
63.80000 -0.321
63.82000 0.291
63.84000 0.217
63.86000 -0.493
63.88000 1.466
63.90000 0.744
63.92000 -0.694
63.94000 1.295
63.96000 1.606
63.98000 -0.083
64.00000 1.055
64.02000 1.918
64.04000 0.475
64.06000 1.940
64.08000 1.203
64.10000 -0.357
64.12000 3.541
64.14000 0.610
64.16000 1.217
64.18000 2.945
64.20000 0.622
64.22000 1.161
64.24000 -0.876
64.26000 -1.620
64.28000 1.814
64.30000 1.229
64.32000 0.178
64.34000 -0.098
64.36000 2.895
64.38000 2.035
64.40000 2.048
64.42000 1.936
64.44000 -0.188
64.46000 1.221
64.48000 0.890
64.50000 -0.431
64.52000 2.794
64.54000 4.700
64.56000 3.580
64.58000 -0.341
64.60000 0.903
64.62000 -0.473
64.64000 -2.444
64.66000 1.626
64.68000 1.829
64.70000 1.463
64.72000 -1.086
64.74000 1.720
64.76000 2.436
64.78000 1.501
64.80000 2.026
64.82000 1.917
64.84000 4.516
64.86000 1.314
64.88000 0.152
64.90000 0.751
64.92000 0.167
64.94000 -0.616
64.96000 -0.268
64.98000 -0.460
65.00000 0.467
65.02000 0.004
65.04000 3.176
65.06000 1.535
65.08000 -0.760
65.10000 0.429
65.12000 -0.504
65.14000 2.663
65.16000 -1.010
65.18000 1.200
65.20000 2.884
65.22000 0.632
65.24000 -1.989
65.26000 -1.558
65.28000 -1.297
65.30000 1.055
65.32000 0.634
65.34000 2.493
65.36000 -0.249
65.38000 -2.009
65.40000 -0.423
65.42000 1.414
65.44000 2.217
65.46000 3.727
65.48000 3.137
65.50000 0.416
65.52000 0.329
65.54000 0.798
65.56000 3.560
65.58000 4.465
65.60000 5.417
65.62000 -0.506
65.64000 0.386
65.66000 1.141
65.68000 0.727
65.70000 -1.341
65.72000 -2.416
65.74000 -0.250
65.76000 1.567
65.78000 4.004
65.80000 0.108
65.82000 -0.979
65.84000 1.344
65.86000 3.094
65.88000 1.236
65.90000 2.654
65.92000 4.659
65.94000 4.035
65.96000 5.001
65.98000 5.497
66.00000 1.937
66.02000 3.726
66.04000 3.630
66.06000 6.192
66.08000 7.206
66.10000 4.416
66.12000 5.031
66.14000 5.098
66.16000 -0.170
66.18000 1.016
66.20000 3.564
66.22000 3.745
66.24000 2.708
66.26000 -0.343
66.28000 1.650
66.30000 6.228
66.32000 2.560
66.34000 3.148
66.36000 0.874
66.38000 -2.435
66.40000 0.321
66.42000 1.610
66.44000 -0.038
66.46000 0.639
66.48000 7.315
66.50000 6.813
66.52000 5.622
66.54000 5.622
66.56000 7.113
66.58000 5.456
66.60000 1.096
66.62000 2.568
66.64000 2.169
66.66000 4.557
66.68000 6.320
66.70000 0.830
66.72000 1.600
66.74000 5.349
66.76000 9.240
66.78000 6.727
66.80000 7.108
66.82000 8.544
66.84000 7.612
66.86000 5.690
66.88000 4.480
66.90000 5.383
66.92000 5.975
66.94000 6.855
66.96000 8.539
66.98000 7.784
67.00000 7.385
67.02000 3.917
67.04000 9.014
67.06000 6.937
67.08000 10.861
67.10000 9.207
67.12000 9.665
67.14000 8.443
67.16000 3.938
67.18000 6.471
67.20000 8.473
67.22000 11.377
67.24000 9.309
67.26000 11.118
67.28000 10.145
67.30000 13.440
67.32000 11.627
67.34000 11.953
67.36000 13.068
67.38000 13.326
67.40000 11.459
67.42000 8.390
67.44000 10.111
67.46000 12.238
67.48000 10.690
67.50000 9.571
67.52000 13.195
67.54000 14.429
67.56000 14.197
67.58000 14.823
67.60000 13.031
67.62000 15.896
67.64000 19.408
67.66000 17.383
67.68000 16.409
67.70000 16.636
67.72000 16.873
67.74000 18.415
67.76000 20.161
67.78000 17.139
67.80000 15.650
67.82000 16.893
67.84000 18.594
67.86000 15.863
67.88000 15.654
67.90000 17.917
67.92000 21.287
67.94000 22.475
67.96000 16.692
67.98000 13.838
68.00000 12.268
68.02000 14.793
68.04000 17.501
68.06000 15.949
68.08000 14.176
68.10000 16.754
68.12000 18.257
68.14000 19.435
68.16000 20.482
68.18000 16.532
68.20000 17.688
68.22000 15.761
68.24000 16.750
68.26000 15.294
68.28000 14.213
68.30000 13.488
68.32000 11.884
68.34000 11.631
68.36000 11.620
68.38000 13.205
68.40000 10.716
68.42000 11.901
68.44000 15.361
68.46000 11.748
68.48000 11.815
68.50000 11.501
68.52000 12.355
68.54000 10.036
68.56000 10.476
68.58000 6.044
68.60000 6.047
68.62000 7.886
68.64000 6.576
68.66000 4.885
68.68000 8.351
68.70000 6.958
68.72000 4.123
68.74000 3.221
68.76000 7.527
68.78000 7.329
68.80000 5.963
68.82000 5.072
68.84000 5.010
68.86000 1.181
68.88000 3.207
68.90000 4.738
68.92000 2.176
68.94000 2.376
68.96000 3.110
68.98000 4.908
69.00000 2.697
69.02000 3.745
69.04000 4.517
69.06000 5.088
69.08000 4.419
69.10000 1.164
69.12000 -0.488
69.14000 3.018
69.16000 2.356
69.18000 -2.427
69.20000 0.183
69.22000 2.998
69.24000 0.713
69.26000 1.544
69.28000 0.557
69.30000 -1.583
69.32000 -0.320
69.34000 3.449
69.36000 2.660
69.38000 2.620
69.40000 1.102
69.42000 -0.592
69.44000 1.245
69.46000 0.649
69.48000 0.302
69.50000 -1.065
69.52000 -0.062
69.54000 -0.683
69.56000 -1.268
69.58000 -0.971
69.60000 -0.967
69.62000 -0.920
69.64000 0.038
69.66000 -2.198
69.68000 -2.393
69.70000 2.763
69.72000 1.317
69.74000 1.953
69.76000 5.081
69.78000 1.897
69.80000 0.928
69.82000 -0.398
69.84000 -0.617
69.86000 2.703
69.88000 0.980
69.90000 -1.451
69.92000 0.491
69.94000 2.131
69.96000 2.668
69.98000 -0.446
70.00000 1.131
70.02000 0.109
70.04000 -2.361
70.06000 1.108
70.08000 2.531
70.10000 -0.399
70.12000 0.243
70.14000 3.656
70.16000 3.685
70.18000 4.310
70.20000 4.391
70.22000 3.697
70.24000 -1.380
70.26000 -1.719
70.28000 2.678
70.30000 3.604
70.32000 3.209
70.34000 4.530
70.36000 4.314
70.38000 1.463
70.40000 3.938
70.42000 2.726
70.44000 3.529
70.46000 4.566
70.48000 6.479
70.50000 2.018
70.52000 -1.056
70.54000 -2.312
70.56000 1.987
70.58000 4.032
70.60000 6.257
70.62000 5.945
70.64000 3.874
70.66000 3.545
70.68000 4.056
70.70000 1.792
70.72000 2.184
70.74000 2.957
70.76000 -0.073
70.78000 0.156
70.80000 2.633
70.82000 2.051
70.84000 1.566
70.86000 1.124
70.88000 3.521
70.90000 3.895
70.92000 1.972
70.94000 5.228
70.96000 4.413
70.98000 1.751
71.00000 1.748
71.02000 -0.611
71.04000 1.651
71.06000 0.597
71.08000 -0.915
71.10000 -0.032
71.12000 1.973
71.14000 1.003
71.16000 0.322
71.18000 0.026
71.20000 -0.509
71.22000 2.307
71.24000 0.469
71.26000 -2.028
71.28000 -1.011
71.30000 1.324
71.32000 0.071
71.34000 6.244
71.36000 3.038
71.38000 -0.789
71.40000 -2.279
71.42000 0.365
71.44000 0.548
71.46000 5.076
71.48000 3.463
71.50000 -0.523
71.52000 -2.273
71.54000 -0.992
71.56000 1.910
71.58000 0.424
71.60000 1.064
71.62000 3.769
71.64000 4.402
71.66000 3.507
71.68000 2.072
71.70000 3.058
71.72000 3.578
71.74000 0.466
71.76000 6.023
71.78000 4.329
71.80000 4.512
71.82000 1.762
71.84000 0.554
71.86000 0.559
71.88000 1.478
71.90000 0.047
71.92000 0.733
71.94000 1.514
71.96000 2.980
71.98000 0.683
72.00000 3.964
72.02000 2.492
72.04000 0.728
72.06000 0.853
72.08000 -1.919
72.10000 -0.455
72.12000 0.847
72.14000 3.071
72.16000 3.595
72.18000 2.437
72.20000 2.454
72.22000 4.296
72.24000 4.258
72.26000 2.011
72.28000 0.128
72.30000 4.421
72.32000 5.823
72.34000 3.038
72.36000 3.643
72.38000 2.194
72.40000 3.203
72.42000 3.318
72.44000 5.571
72.46000 4.487
72.48000 0.762
72.50000 2.814
72.52000 1.695
72.54000 -2.233
72.56000 0.050
72.58000 2.578
72.60000 2.058
72.62000 -2.229
72.64000 0.904
72.66000 2.672
72.68000 1.263
72.70000 1.965
72.72000 1.427
72.74000 0.456
72.76000 5.321
72.78000 4.527
72.80000 2.523
72.82000 1.934
72.84000 2.119
72.86000 3.167
72.88000 3.414
72.90000 1.357
72.92000 1.713
72.94000 4.042
72.96000 3.991
72.98000 2.330
73.00000 1.215
73.02000 2.496
73.04000 -0.047
73.06000 1.058
73.08000 5.247
73.10000 5.464
73.12000 2.391
73.14000 0.813
73.16000 0.978
73.18000 2.420
73.20000 1.796
73.22000 -0.128
73.24000 -1.324
73.26000 3.841
73.28000 3.080
73.30000 4.915
73.32000 3.842
73.34000 5.243
73.36000 3.271
73.38000 -1.572
73.40000 1.278
73.42000 3.579
73.44000 0.678
73.46000 3.078
73.48000 4.130
73.50000 3.556
73.52000 -1.457
73.54000 2.111
73.56000 2.678
73.58000 1.363
73.60000 -1.338
73.62000 2.816
73.64000 1.087
73.66000 -1.518
73.68000 0.278
73.70000 3.094
73.72000 0.799
73.74000 2.417
73.76000 1.863
73.78000 3.708
73.80000 0.892
73.82000 0.542
73.84000 6.606
73.86000 4.796
73.88000 1.477
73.90000 0.324
73.92000 5.578
73.94000 4.918
73.96000 5.883
73.98000 5.777
74.00000 5.078
74.02000 2.108
74.04000 1.419
74.06000 3.481
74.08000 5.976
74.10000 5.487
74.12000 4.774
74.14000 3.713
74.16000 1.584
74.18000 2.903
74.20000 2.788
74.22000 4.214
74.24000 4.934
74.26000 1.886
74.28000 0.346
74.30000 1.732
74.32000 -2.170
74.34000 0.691
74.36000 3.949
74.38000 2.918
74.40000 2.902
74.42000 4.924
74.44000 6.514
74.46000 6.464
74.48000 4.795
74.50000 5.756
74.52000 4.741
74.54000 2.055
74.56000 1.881
74.58000 1.215
74.60000 0.548
74.62000 4.517
74.64000 6.069
74.66000 7.870
74.68000 5.607
74.70000 5.450
74.72000 1.120
74.74000 1.495
74.76000 8.468
74.78000 4.872
74.80000 -1.190
74.82000 0.995
74.84000 5.043
74.86000 7.287
74.88000 7.077
74.90000 3.769
74.92000 4.204
74.94000 4.093
74.96000 4.587
74.98000 6.710
75.00000 4.832
75.02000 4.924
75.04000 4.416
75.06000 5.727
75.08000 -0.698
75.10000 -2.187
75.12000 -0.093
75.14000 6.781
75.16000 6.096
75.18000 3.343
75.20000 4.924
75.22000 5.595
75.24000 3.177
75.26000 2.154
75.28000 -1.715
75.30000 -1.455
75.32000 5.273
75.34000 4.708
75.36000 0.838
75.38000 1.917
75.40000 4.556
75.42000 1.495
75.44000 3.210
75.46000 0.793
75.48000 1.814
75.50000 2.699
75.52000 5.316
75.54000 2.142
75.56000 -0.107
75.58000 1.628
75.60000 -1.507
75.62000 2.067
75.64000 4.035
75.66000 5.388
75.68000 3.521
75.70000 6.839
75.72000 2.260
75.74000 4.850
75.76000 2.209
75.78000 5.015
75.80000 4.200
75.82000 4.218
75.84000 0.565
75.86000 -1.678
75.88000 2.049
75.90000 2.628
75.92000 3.102
75.94000 0.426
75.96000 2.036
75.98000 1.674
76.00000 -0.078
76.02000 2.524
76.04000 4.082
76.06000 4.870
76.08000 5.208
76.10000 2.994
76.12000 0.045
76.14000 1.923
76.16000 -0.883
76.18000 0.210
76.20000 4.936
76.22000 7.811
76.24000 8.208
76.26000 4.639
76.28000 5.031
76.30000 2.627
76.32000 3.601
76.34000 6.524
76.36000 5.580
76.38000 -0.953
76.40000 2.827
76.42000 3.748
76.44000 2.434
76.46000 3.072
76.48000 3.119
76.50000 1.289
76.52000 -0.595
76.54000 -2.233
76.56000 2.944
76.58000 5.419
76.60000 6.923
76.62000 5.404
76.64000 6.794
76.66000 6.059
76.68000 1.676
76.70000 4.876
76.72000 3.208
76.74000 1.292
76.76000 3.771
76.78000 3.737
76.80000 2.194
76.82000 0.500
76.84000 2.293
76.86000 2.751
76.88000 1.131
76.90000 -0.563
76.92000 2.370
76.94000 0.084
76.96000 1.102
76.98000 6.065
77.00000 4.902
77.02000 0.214
77.04000 3.715
77.06000 4.577
77.08000 1.447
77.10000 0.376
77.12000 2.478
77.14000 0.751
77.16000 -2.249
77.18000 3.258
77.20000 2.993
77.22000 3.733
77.24000 5.005
77.26000 2.949
77.28000 1.741
77.30000 4.181
77.32000 6.803
77.34000 2.091
77.36000 -2.248
77.38000 -1.862
77.40000 2.698
77.42000 3.750
77.44000 3.313
77.46000 6.334
77.48000 3.650
77.50000 3.675
77.52000 2.391
77.54000 3.243
77.56000 2.173
77.58000 1.598
77.60000 -1.260
77.62000 0.315
77.64000 -1.732
77.66000 1.645
77.68000 4.069
77.70000 2.742
77.72000 0.165
77.74000 0.380
77.76000 4.184
77.78000 7.031
77.80000 7.816
77.82000 4.800
77.84000 1.703
77.86000 3.309
77.88000 4.429
77.90000 6.769
77.92000 6.418
77.94000 6.214
77.96000 7.865
77.98000 10.241
78.00000 7.762
78.02000 3.100
78.04000 5.344
78.06000 3.014
78.08000 -1.642
78.10000 -0.757
78.12000 -1.399
78.14000 1.390
78.16000 1.177
78.18000 3.431
78.20000 1.436
78.22000 1.035
78.24000 3.899
78.26000 4.508
78.28000 0.544
78.30000 0.718
78.32000 1.644
78.34000 0.563
78.36000 3.559
78.38000 8.086
78.40000 3.619
78.42000 2.008
78.44000 -2.283
78.46000 2.855
78.48000 2.952
78.50000 3.278
78.52000 4.932
78.54000 3.218
78.56000 0.130
78.58000 -0.563
78.60000 0.126
78.62000 2.497
78.64000 2.507
78.66000 1.898
78.68000 1.943
78.70000 3.874
78.72000 3.134
78.74000 1.355
78.76000 -0.787
78.78000 -2.282
78.80000 3.849
78.82000 0.335
78.84000 5.601
78.86000 4.949
78.88000 4.030
78.90000 3.955
78.92000 0.079
78.94000 -0.336
78.96000 3.296
78.98000 4.459
79.00000 -0.953
79.02000 2.727
79.04000 2.220
79.06000 0.331
79.08000 4.095
79.10000 6.918
79.12000 3.621
79.14000 -2.306
79.16000 -2.141
79.18000 1.093
79.20000 1.239
79.22000 -1.036
79.24000 -0.152
79.26000 1.580
79.28000 2.752
79.30000 2.079
79.32000 -1.725
79.34000 -0.436
79.36000 1.026
79.38000 2.194
79.40000 5.464
79.42000 0.317
79.44000 -0.710
79.46000 -0.228
79.48000 -0.002
79.50000 4.101
79.52000 7.910
79.54000 6.261
79.56000 1.017
79.58000 -0.764
79.60000 0.322
79.62000 1.768
79.64000 3.392
79.66000 -1.441
79.68000 -1.093
79.70000 -1.975
79.72000 3.553
79.74000 6.945
79.76000 3.323
79.78000 2.206
79.80000 2.341
79.82000 4.033
79.84000 2.729
79.86000 0.273
79.88000 -0.673
79.90000 0.211
79.92000 -2.041
79.94000 -2.193
79.96000 -0.321
79.98000 3.015
80.00000 4.655
80.02000 2.004
80.04000 2.114
80.06000 1.508
80.08000 1.745
80.10000 -0.985
80.12000 -0.441
80.14000 3.466
80.16000 -0.685
80.18000 -0.164
80.20000 3.102
80.22000 1.919
80.24000 -0.039
80.26000 -0.797
80.28000 0.183
80.30000 1.391
80.32000 8.838
80.34000 7.546
80.36000 1.907
80.38000 3.675
80.40000 5.073
80.42000 6.364
80.44000 4.906
80.46000 -2.413
80.48000 2.007
80.50000 4.670
80.52000 -0.754
80.54000 -0.211
80.56000 6.159
80.58000 4.624
80.60000 4.463
80.62000 7.255
80.64000 5.881
80.66000 2.591
80.68000 2.038
80.70000 2.521
80.72000 3.482
80.74000 3.483
80.76000 4.322
80.78000 7.540
80.80000 10.852
80.82000 9.366
80.84000 7.739
80.86000 4.271
80.88000 4.488
80.90000 5.342
80.92000 5.761
80.94000 6.665
80.96000 7.815
80.98000 5.644
81.00000 10.042
81.02000 9.070
81.04000 7.488
81.06000 5.985
81.08000 8.078
81.10000 11.554
81.12000 13.596
81.14000 9.967
81.16000 10.190
81.18000 13.205
81.20000 14.593
81.22000 10.852
81.24000 14.086
81.26000 13.516
81.28000 11.037
81.30000 9.564
81.32000 8.417
81.34000 11.240
81.36000 9.759
81.38000 14.400
81.40000 14.857
81.42000 11.770
81.44000 16.293
81.46000 18.538
81.48000 18.377
81.50000 18.400
81.52000 17.301
81.54000 17.179
81.56000 13.199
81.58000 13.680
81.60000 18.317
81.62000 19.807
81.64000 17.644
81.66000 16.336
81.68000 20.793
81.70000 23.799
81.72000 19.291
81.74000 24.446
81.76000 25.777
81.78000 20.704
81.80000 17.367
81.82000 21.687
81.84000 26.924
81.86000 25.207
81.88000 18.742
81.90000 19.259
81.92000 20.966
81.94000 20.831
81.96000 21.767
81.98000 25.591
82.00000 27.670
82.02000 23.222
82.04000 23.709
82.06000 25.533
82.08000 22.498
82.10000 25.274
82.12000 20.247
82.14000 25.215
82.16000 26.806
82.18000 26.191
82.20000 24.383
82.22000 22.217
82.24000 21.823
82.26000 21.909
82.28000 19.892
82.30000 20.381
82.32000 21.514
82.34000 19.510
82.36000 18.861
82.38000 17.519
82.40000 17.232
82.42000 16.650
82.44000 17.561
82.46000 12.690
82.48000 11.072
82.50000 14.036
82.52000 16.657
82.54000 19.866
82.56000 21.445
82.58000 15.942
82.60000 15.760
82.62000 14.663
82.64000 13.698
82.66000 14.626
82.68000 11.950
82.70000 6.507
82.72000 9.689
82.74000 12.377
82.76000 11.401
82.78000 16.060
82.80000 10.098
82.82000 5.780
82.84000 7.291
82.86000 7.987
82.88000 14.212
82.90000 9.501
82.92000 5.898
82.94000 5.866
82.96000 8.502
82.98000 9.633
83.00000 10.095
83.02000 6.550
83.04000 11.498
83.06000 11.105
83.08000 7.877
83.10000 8.512
83.12000 6.415
83.14000 7.382
83.16000 5.407
83.18000 5.251
83.20000 7.473
83.22000 4.843
83.24000 6.150
83.26000 10.462
83.28000 7.443
83.30000 6.305
83.32000 4.842
83.34000 5.674
83.36000 3.053
83.38000 7.350
83.40000 4.870
83.42000 4.191
83.44000 4.381
83.46000 5.051
83.48000 3.961
83.50000 1.701
83.52000 1.915
83.54000 2.586
83.56000 1.773
83.58000 0.530
83.60000 -1.349
83.62000 2.902
83.64000 1.730
83.66000 4.155
83.68000 2.337
83.70000 1.664
83.72000 3.269
83.74000 5.845
83.76000 3.082
83.78000 -2.341
83.80000 0.997
83.82000 -0.120
83.84000 -1.027
83.86000 -1.130
83.88000 0.008
83.90000 4.570
83.92000 3.489
83.94000 3.390
83.96000 8.676
83.98000 4.537
84.00000 -1.793
84.02000 1.669
84.04000 3.038
84.06000 0.255
84.08000 0.594
84.10000 2.697
84.12000 0.188
84.14000 -0.624
84.16000 -0.516
84.18000 2.728
84.20000 8.061
84.22000 1.639
84.24000 -1.748
84.26000 -2.362
84.28000 1.593
84.30000 2.457
84.32000 4.008
84.34000 0.615
84.36000 -0.044
84.38000 -1.650
84.40000 -1.205
84.42000 -0.562
84.44000 1.543
84.46000 3.332
84.48000 2.796
84.50000 3.531
84.52000 7.592
84.54000 7.329
84.56000 0.946
84.58000 1.010
84.60000 -1.690
84.62000 -0.305
84.64000 1.156
84.66000 -0.187
84.68000 1.208
84.70000 2.731
84.72000 5.067
84.74000 4.827
84.76000 3.768
84.78000 3.651
84.80000 2.614
84.82000 3.208
84.84000 -0.359
84.86000 -1.437
84.88000 -0.110
84.90000 5.078
84.92000 1.639
84.94000 2.590
84.96000 4.256
84.98000 6.635
85.00000 6.018
85.02000 5.554
85.04000 5.155
85.06000 1.103
85.08000 0.175
85.10000 4.313
85.12000 2.067
85.14000 4.628
85.16000 7.682
85.18000 8.362
85.20000 3.733
85.22000 2.366
85.24000 8.777
85.26000 8.866
85.28000 1.302
85.30000 1.674
85.32000 4.363
85.34000 4.736
85.36000 4.046
85.38000 6.312
85.40000 5.827
85.42000 9.383
85.44000 8.420
85.46000 3.319
85.48000 1.472
85.50000 4.812
85.52000 2.135
85.54000 3.593
85.56000 4.724
85.58000 4.666
85.60000 5.319
85.62000 7.029
85.64000 7.166
85.66000 9.668
85.68000 8.843
85.70000 6.623
85.72000 4.256
85.74000 7.922
85.76000 9.395
85.78000 13.094
85.80000 16.149
85.82000 14.104
85.84000 14.130
85.86000 10.739
85.88000 12.345
85.90000 20.464
85.92000 17.659
85.94000 16.608
85.96000 11.635
85.98000 12.888
86.00000 19.235
86.02000 15.828
86.04000 14.554
86.06000 15.315
86.08000 18.117
86.10000 17.338
86.12000 17.540
86.14000 17.804
86.16000 17.163
86.18000 21.846
86.20000 24.314
86.22000 19.897
86.24000 23.283
86.26000 18.881
86.28000 20.570
86.30000 20.617
86.32000 18.864
86.34000 17.997
86.36000 15.110
86.38000 17.111
86.40000 19.760
86.42000 20.351
86.44000 21.897
86.46000 22.694
86.48000 18.381
86.50000 17.037
86.52000 16.321
86.54000 18.259
86.56000 16.959
86.58000 20.559
86.60000 25.684
86.62000 21.610
86.64000 16.698
86.66000 16.776
86.68000 16.778
86.70000 13.157
86.72000 10.605
86.74000 8.604
86.76000 6.238
86.78000 9.313
86.80000 12.466
86.82000 12.225
86.84000 13.370
86.86000 13.324
86.88000 9.995
86.90000 8.268
86.92000 7.336
86.94000 12.618
86.96000 9.599
86.98000 4.528
87.00000 6.146
87.02000 8.585
87.04000 7.871
87.06000 6.518
87.08000 6.683
87.10000 8.490
87.12000 8.162
87.14000 7.982
87.16000 8.372
87.18000 7.429
87.20000 9.978
87.22000 7.903
87.24000 8.120
87.26000 6.414
87.28000 4.291
87.30000 6.777
87.32000 6.879
87.34000 2.643
87.36000 3.119
87.38000 1.995
87.40000 4.502
87.42000 7.409
87.44000 9.845
87.46000 6.279
87.48000 1.528
87.50000 3.247
87.52000 2.114
87.54000 2.534
87.56000 0.454
87.58000 -2.211
87.60000 0.111
87.62000 4.855
87.64000 7.939
87.66000 8.462
87.68000 6.169
87.70000 -0.313
87.72000 -0.986
87.74000 2.243
87.76000 3.383
87.78000 2.102
87.80000 5.896
87.82000 8.609
87.84000 5.492
87.86000 0.298
87.88000 0.406
87.90000 1.531
87.92000 1.750
87.94000 1.637
87.96000 -0.470
87.98000 -2.168
88.00000 0.343
88.02000 2.173
88.04000 1.819
88.06000 2.773
88.08000 5.593
88.10000 5.872
88.12000 6.159
88.14000 0.902
88.16000 1.418
88.18000 5.350
88.20000 8.315
88.22000 6.971
88.24000 5.274
88.26000 2.613
88.28000 1.377
88.30000 2.474
88.32000 5.732
88.34000 6.530
88.36000 2.204
88.38000 0.556
88.40000 1.558
88.42000 2.634
88.44000 -0.202
88.46000 2.635
88.48000 5.023
88.50000 4.594
88.52000 1.777
88.54000 0.010
88.56000 3.071
88.58000 4.917
88.60000 3.570
88.62000 2.802
88.64000 5.823
88.66000 7.668
88.68000 2.600
88.70000 4.172
88.72000 4.692
88.74000 4.063
88.76000 6.818
88.78000 11.642
88.80000 5.039
88.82000 4.148
88.84000 5.167
88.86000 3.245
88.88000 1.550
88.90000 4.941
88.92000 4.608
88.94000 4.847
88.96000 5.309
88.98000 3.579
89.00000 6.957
89.02000 3.366
89.04000 5.891
89.06000 6.296
89.08000 6.751
89.10000 3.851
89.12000 -2.062
89.14000 -0.365
89.16000 4.100
89.18000 4.151
89.20000 3.329
89.22000 4.539
89.24000 5.074
89.26000 1.194
89.28000 2.346
89.30000 6.130
89.32000 5.055
89.34000 1.481
89.36000 4.042
89.38000 10.025
89.40000 6.894
89.42000 2.052
89.44000 -0.727
89.46000 1.232
89.48000 2.089
89.50000 1.342
89.52000 2.798
89.54000 1.477
89.56000 1.844
89.58000 3.562
89.60000 1.538
89.62000 0.819
89.64000 1.959
89.66000 2.741
89.68000 5.393
89.70000 7.410
89.72000 5.953
89.74000 2.620
89.76000 4.274
89.78000 0.426
89.80000 -0.653
89.82000 5.104
89.84000 2.050
89.86000 -2.092
89.88000 -0.197
89.90000 2.533
89.92000 3.877
89.94000 1.562
89.96000 -0.012
89.98000 1.019
90.00000 3.166
90.02000 2.434
90.04000 1.619
90.06000 4.219
90.08000 4.207
90.10000 5.454
90.12000 4.943
90.14000 4.228
90.16000 2.141
90.18000 -0.035
90.20000 -0.638
90.22000 -0.545
90.24000 -1.435
90.26000 -1.927
90.28000 1.312
90.30000 4.135
90.32000 5.663
90.34000 1.840
90.36000 3.458
90.38000 2.527
90.40000 4.487
90.42000 3.306
90.44000 0.071
90.46000 -0.962
90.48000 2.640
90.50000 0.139
90.52000 -0.431
90.54000 -0.441
90.56000 -0.112
90.58000 1.461
90.60000 0.624
90.62000 1.724
90.64000 2.826
90.66000 -0.609
90.68000 -1.119
90.70000 -1.002
90.72000 -0.061
90.74000 2.958
90.76000 0.951
90.78000 -0.950
90.80000 3.100
90.82000 1.730
90.84000 5.477
90.86000 2.911
90.88000 1.842
90.90000 1.942
90.92000 2.167
90.94000 1.757
90.96000 -0.472
90.98000 1.736
91.00000 3.145
91.02000 0.577
91.04000 2.998
91.06000 -0.175
91.08000 -0.110
91.10000 4.731
91.12000 3.855
91.14000 1.936
91.16000 3.766
91.18000 5.647
91.20000 7.019
91.22000 3.857
91.24000 0.407
91.26000 0.856
91.28000 2.729
91.30000 1.272
91.32000 0.063
91.34000 1.321
91.36000 -0.852
91.38000 -1.744
91.40000 -0.636
91.42000 -1.255
91.44000 -0.296
91.46000 1.426
91.48000 2.298
91.50000 1.088
91.52000 2.868
91.54000 1.188
91.56000 0.625
91.58000 0.276
91.60000 2.179
91.62000 1.414
91.64000 3.495
91.66000 0.450
91.68000 0.820
91.70000 3.363
91.72000 2.180
91.74000 -0.428
91.76000 -0.607
91.78000 -1.546
91.80000 0.576
91.82000 0.623
91.84000 -2.132
91.86000 -0.669
91.88000 -0.824
91.90000 0.869
91.92000 2.403
91.94000 2.477
91.96000 0.895
91.98000 -0.789
92.00000 2.660
92.02000 1.545
92.04000 1.186
92.06000 2.108
92.08000 -0.838
92.10000 -0.159
92.12000 5.513
92.14000 1.831
92.16000 0.040
92.18000 0.026
92.20000 0.523
92.22000 2.136
92.24000 0.194
92.26000 4.242
92.28000 2.115
92.30000 1.555
92.32000 7.295
92.34000 7.422
92.36000 2.380
92.38000 2.637
92.40000 2.698
92.42000 -0.899
92.44000 -0.433
92.46000 -1.073
92.48000 5.168
92.50000 3.435
92.52000 4.856
92.54000 3.309
92.56000 4.740
92.58000 7.261
92.60000 4.847
92.62000 2.332
92.64000 2.830
92.66000 0.055
92.68000 0.017
92.70000 3.683
92.72000 -1.067
92.74000 -2.122
92.76000 2.489
92.78000 1.362
92.80000 6.587
92.82000 5.337
92.84000 2.570
92.86000 4.754
92.88000 3.985
92.90000 6.086
92.92000 4.913
92.94000 1.921
92.96000 3.606
92.98000 3.819
93.00000 3.768
93.02000 2.215
93.04000 0.116
93.06000 2.165
93.08000 8.081
93.10000 3.814
93.12000 3.930
93.14000 6.513
93.16000 2.701
93.18000 1.914
93.20000 4.225
93.22000 0.950
93.24000 -2.103
93.26000 3.084
93.28000 3.815
93.30000 4.228
93.32000 1.722
93.34000 -0.087
93.36000 0.029
93.38000 0.469
93.40000 3.443
93.42000 6.118
93.44000 3.023
93.46000 1.063
93.48000 3.809
93.50000 5.111
93.52000 0.346
93.54000 -0.292
93.56000 3.395
93.58000 5.778
93.60000 3.764
93.62000 1.606
93.64000 -0.792
93.66000 1.354
93.68000 1.339
93.70000 0.383
93.72000 -0.427
93.74000 -2.101
93.76000 1.950
93.78000 0.925
93.80000 3.360
93.82000 8.771
93.84000 6.682
93.86000 2.909
93.88000 2.386
93.90000 5.635
93.92000 2.467
93.94000 5.604
93.96000 6.615
93.98000 0.218
94.00000 1.546
94.02000 0.859
94.04000 -0.441
94.06000 2.437
94.08000 3.060
94.10000 5.951
94.12000 6.404
94.14000 4.342
94.16000 5.005
94.18000 5.241
94.20000 5.693
94.22000 1.209
94.24000 -1.178
94.26000 3.221
94.28000 5.884
94.30000 2.561
94.32000 1.726
94.34000 -2.119
94.36000 -0.060
94.38000 4.547
94.40000 -0.959
94.42000 -0.595
94.44000 3.784
94.46000 0.573
94.48000 4.856
94.50000 8.720
94.52000 7.115
94.54000 -0.415
94.56000 1.346
94.58000 7.963
94.60000 5.267
94.62000 1.344
94.64000 4.176
94.66000 1.040
94.68000 0.768
94.70000 2.213
94.72000 3.087
94.74000 1.909
94.76000 0.106
94.78000 3.686
94.80000 0.101
94.82000 -2.114
94.84000 2.282
94.86000 4.898
94.88000 2.686
94.90000 9.168
94.92000 1.794
94.94000 -1.738
94.96000 0.362
94.98000 1.556
95.00000 2.256
95.02000 1.493
95.04000 2.690
95.06000 1.385
95.08000 0.373
95.10000 5.618
95.12000 4.441
95.14000 4.148
95.16000 3.902
95.18000 0.108
95.20000 2.036
95.22000 4.490
95.24000 7.455
95.26000 0.761
95.28000 1.177
95.30000 4.906
95.32000 5.918
95.34000 3.894
95.36000 3.953
95.38000 4.960
95.40000 8.865
95.42000 9.019
95.44000 3.062
95.46000 4.862
95.48000 3.606
95.50000 5.975
95.52000 5.810
95.54000 6.625
95.56000 3.945
95.58000 0.604
95.60000 4.790
95.62000 5.674
95.64000 3.339
95.66000 5.570
95.68000 7.232
95.70000 4.465
95.72000 3.848
95.74000 -0.066
95.76000 1.453
95.78000 8.301
95.80000 7.835
95.82000 6.437
95.84000 2.528
95.86000 9.179
95.88000 6.616
95.90000 6.373
95.92000 6.241
95.94000 5.150
95.96000 3.365
95.98000 5.106
96.00000 3.138
96.02000 3.103
96.04000 8.868
96.06000 7.890
96.08000 9.002
96.10000 10.432
96.12000 9.274
96.14000 3.606
96.16000 -2.102
96.18000 5.228
96.20000 8.739
96.22000 3.663
96.24000 -1.123
96.26000 7.236
96.28000 7.852
96.30000 5.497
96.32000 2.345
96.34000 6.010
96.36000 7.144
96.38000 5.362
96.40000 5.378
96.42000 3.520
96.44000 -2.087
96.46000 3.259
96.48000 6.600
96.50000 2.863
96.52000 -0.464
96.54000 0.372
96.56000 7.259
96.58000 5.111
96.60000 2.714
96.62000 7.395
96.64000 3.716
96.66000 1.526
96.68000 4.669
96.70000 5.713
96.72000 4.838
96.74000 5.383
96.76000 5.984
96.78000 6.377
96.80000 10.394
96.82000 5.673
96.84000 3.677
96.86000 7.444
96.88000 3.685
96.90000 -1.322
96.92000 6.572
96.94000 3.857
96.96000 3.983
96.98000 2.649
97.00000 8.208
97.02000 7.033
97.04000 10.040
97.06000 10.505
97.08000 2.023
97.10000 -0.171
97.12000 1.551
97.14000 0.046
97.16000 -0.468
97.18000 4.522
97.20000 7.611
97.22000 9.342
97.24000 7.347
97.26000 5.551
97.28000 0.459
97.30000 3.678
97.32000 1.346
97.34000 6.566
97.36000 13.588
97.38000 2.230
97.40000 5.025
97.42000 2.304
97.44000 6.422
97.46000 6.810
97.48000 1.237
97.50000 0.470
97.52000 1.425
97.54000 2.678
97.56000 4.095
97.58000 7.825
97.60000 2.232
97.62000 -0.100
97.64000 0.114
97.66000 -0.809
97.68000 0.575
97.70000 4.549
97.72000 2.045
97.74000 7.342
97.76000 6.648
97.78000 4.777
97.80000 5.677
97.82000 10.073
97.84000 11.871
97.86000 2.166
97.88000 0.628
97.90000 6.060
97.92000 12.387
97.94000 1.416
97.96000 1.152
97.98000 1.002
98.00000 1.777
98.02000 -0.949
98.04000 -2.074
98.06000 0.984
98.08000 7.067
98.10000 3.010
98.12000 2.182
98.14000 5.926
98.16000 10.156
98.18000 5.745
98.20000 1.790
98.22000 2.597
98.24000 10.743
98.26000 4.908
98.28000 1.789
98.30000 4.886
98.32000 1.958
98.34000 7.216
98.36000 12.683
98.38000 8.809
98.40000 4.264
98.42000 4.511
98.44000 8.957
98.46000 2.593
98.48000 8.564
98.50000 12.269
98.52000 7.928
98.54000 3.319
98.56000 2.125
98.58000 4.199
98.60000 2.446
98.62000 2.427
98.64000 7.696
98.66000 12.448
98.68000 14.786
98.70000 7.422
98.72000 5.438
98.74000 3.121
98.76000 -0.249
98.78000 2.340
98.80000 8.278
98.82000 7.316
98.84000 8.353
98.86000 5.600
98.88000 1.818
98.90000 2.515
98.92000 10.914
98.94000 11.306
98.96000 8.249
98.98000 6.716
99.00000 6.812
99.02000 -4.187
99.04000 3.417
99.06000 5.706
99.08000 7.567
99.10000 7.432
99.12000 8.507
99.14000 7.020
99.16000 12.712
99.18000 13.207
99.20000 7.157
99.22000 8.819
99.24000 4.733
99.26000 1.412
99.28000 -2.003
99.30000 8.745
99.32000 8.638
99.34000 8.954
99.36000 7.585
99.38000 17.910
99.40000 14.944
99.42000 6.419
99.44000 10.738
99.46000 13.447
99.48000 10.182
99.50000 12.321
99.52000 -1.548
99.54000 3.365
99.56000 6.438
99.58000 5.258
99.60000 7.443
99.62000 6.880
99.64000 14.849
99.66000 9.314
99.68000 5.361
99.70000 4.519
99.72000 -2.067
99.74000 4.587
99.76000 12.640
99.78000 11.882
99.80000 11.945
99.82000 11.394
99.84000 10.689
99.86000 10.568
99.88000 18.510
99.90000 14.009
99.92000 9.404
99.94000 7.114
99.96000 6.310
99.98000 0.000
