'Id: "0011387" Comment: "Integrate frame 0011387_Au-Ir-Rh_Rh-rich_XRD-Mapping-218-0000.gfrmwith cursor Wedge Cursor #5" Operator: "B?rgel" Anode: "Cu" Wavelength: "1.5406" Scantype: "2Theta (TwoTheta)" TimePerStep: "1" X: "40.5" Y: "9" Z: "5.95" 
10.00000 0.000
10.02000 0.023
10.04000 2.939
10.06000 -2.968
10.08000 1.592
10.10000 12.212
10.12000 2.657
10.14000 -0.303
10.16000 -0.086
10.18000 4.931
10.20000 15.509
10.22000 4.590
10.24000 0.402
10.26000 3.456
10.28000 13.844
10.30000 13.105
10.32000 6.196
10.34000 -1.930
10.36000 9.440
10.38000 12.502
10.40000 20.517
10.42000 6.629
10.44000 16.703
10.46000 17.637
10.48000 8.765
10.50000 15.195
10.52000 15.173
10.54000 15.171
10.56000 4.992
10.58000 13.353
10.60000 18.354
10.62000 1.992
10.64000 13.767
10.66000 27.449
10.68000 33.352
10.70000 30.292
10.72000 20.729
10.74000 12.374
10.76000 22.908
10.78000 19.967
10.80000 26.237
10.82000 25.519
10.84000 29.833
10.86000 35.194
10.88000 27.537
10.90000 32.731
10.92000 41.478
10.94000 31.960
10.96000 17.358
10.98000 26.768
11.00000 35.503
11.02000 35.283
11.04000 40.840
11.06000 33.345
11.08000 32.436
11.10000 38.733
11.12000 38.159
11.14000 27.912
11.16000 32.295
11.18000 26.530
11.20000 27.648
11.22000 31.246
11.24000 26.292
11.26000 31.271
11.28000 44.964
11.30000 39.083
11.32000 27.321
11.34000 32.906
11.36000 43.662
11.38000 39.014
11.40000 43.044
11.42000 46.246
11.44000 40.536
11.46000 34.193
11.48000 25.276
11.50000 31.251
11.52000 44.009
11.54000 40.920
11.56000 35.591
11.58000 38.172
11.60000 53.638
11.62000 55.292
11.64000 52.811
11.66000 45.228
11.68000 41.587
11.70000 44.199
11.72000 39.526
11.74000 39.934
11.76000 54.408
11.78000 46.186
11.80000 41.298
11.82000 37.908
11.84000 35.854
11.86000 40.585
11.88000 41.394
11.90000 49.440
11.92000 46.041
11.94000 43.166
11.96000 49.097
11.98000 46.383
12.00000 41.588
12.02000 39.788
12.04000 42.592
12.06000 59.063
12.08000 48.247
12.10000 38.994
12.12000 43.605
12.14000 43.072
12.16000 40.106
12.18000 50.714
12.20000 48.143
12.22000 56.766
12.24000 48.095
12.26000 45.400
12.28000 51.217
12.30000 48.887
12.32000 51.142
12.34000 50.130
12.36000 38.073
12.38000 39.369
12.40000 36.726
12.42000 42.752
12.44000 51.761
12.46000 57.253
12.48000 66.197
12.50000 58.733
12.52000 49.515
12.54000 49.329
12.56000 64.081
12.58000 69.814
12.60000 56.360
12.62000 55.545
12.64000 50.143
12.66000 52.305
12.68000 49.412
12.70000 47.286
12.72000 48.040
12.74000 47.280
12.76000 51.309
12.78000 60.071
12.80000 62.776
12.82000 62.298
12.84000 53.103
12.86000 62.397
12.88000 63.165
12.90000 53.104
12.92000 48.685
12.94000 42.884
12.96000 49.083
12.98000 51.257
13.00000 44.816
13.02000 51.280
13.04000 53.414
13.06000 50.953
13.08000 53.012
13.10000 49.340
13.12000 48.384
13.14000 55.186
13.16000 51.368
13.18000 47.429
13.20000 57.324
13.22000 56.624
13.24000 57.627
13.26000 56.355
13.28000 51.743
13.30000 48.837
13.32000 49.535
13.34000 52.058
13.36000 56.380
13.38000 51.060
13.40000 54.531
13.42000 50.784
13.44000 55.112
13.46000 54.908
13.48000 50.866
13.50000 50.028
13.52000 53.080
13.54000 56.579
13.56000 46.583
13.58000 48.578
13.60000 51.791
13.62000 42.776
13.64000 46.032
13.66000 43.773
13.68000 40.036
13.70000 41.226
13.72000 40.186
13.74000 49.682
13.76000 48.393
13.78000 47.292
13.80000 47.696
13.82000 47.575
13.84000 44.607
13.86000 45.375
13.88000 34.252
13.90000 40.402
13.92000 41.496
13.94000 44.833
13.96000 52.252
13.98000 47.070
14.00000 42.837
14.02000 48.531
14.04000 43.521
14.06000 45.117
14.08000 51.249
14.10000 46.725
14.12000 45.269
14.14000 45.153
14.16000 39.828
14.18000 45.539
14.20000 50.943
14.22000 41.514
14.24000 40.267
14.26000 41.624
14.28000 43.955
14.30000 54.595
14.32000 50.242
14.34000 51.531
14.36000 48.558
14.38000 36.930
14.40000 33.009
14.42000 35.753
14.44000 46.520
14.46000 43.381
14.48000 38.116
14.50000 32.193
14.52000 38.062
14.54000 30.656
14.56000 43.555
14.58000 42.179
14.60000 34.245
14.62000 35.953
14.64000 38.303
14.66000 41.508
14.68000 40.440
14.70000 35.690
14.72000 37.213
14.74000 44.102
14.76000 42.125
14.78000 43.985
14.80000 34.523
14.82000 25.865
14.84000 37.001
14.86000 38.152
14.88000 35.100
14.90000 39.202
14.92000 40.544
14.94000 44.552
14.96000 34.183
14.98000 32.316
15.00000 31.213
15.02000 29.579
15.04000 27.983
15.06000 29.364
15.08000 41.787
15.10000 35.983
15.12000 42.702
15.14000 32.170
15.16000 26.810
15.18000 30.796
15.20000 31.054
15.22000 36.747
15.24000 32.644
15.26000 34.034
15.28000 34.735
15.30000 33.245
15.32000 28.781
15.34000 22.651
15.36000 37.498
15.38000 29.167
15.40000 29.609
15.42000 28.577
15.44000 30.955
15.46000 36.527
15.48000 37.978
15.50000 38.246
15.52000 33.462
15.54000 24.525
15.56000 26.271
15.58000 22.660
15.60000 24.311
15.62000 19.488
15.64000 22.165
15.66000 31.963
15.68000 36.285
15.70000 40.793
15.72000 38.738
15.74000 36.271
15.76000 30.947
15.78000 35.696
15.80000 34.497
15.82000 28.032
15.84000 23.939
15.86000 29.346
15.88000 32.952
15.90000 43.862
15.92000 32.470
15.94000 30.733
15.96000 22.923
15.98000 27.004
16.00000 34.254
16.02000 28.384
16.04000 25.911
16.06000 22.763
16.08000 9.419
16.10000 20.766
16.12000 24.317
16.14000 29.029
16.16000 25.878
16.18000 24.662
16.20000 23.944
16.22000 21.962
16.24000 25.354
16.26000 22.742
16.28000 18.323
16.30000 16.277
16.32000 16.830
16.34000 18.018
16.36000 27.553
16.38000 26.523
16.40000 21.692
16.42000 18.992
16.44000 26.066
16.46000 31.532
16.48000 32.637
16.50000 28.415
16.52000 17.597
16.54000 14.655
16.56000 16.790
16.58000 31.461
16.60000 24.004
16.62000 15.425
16.64000 16.871
16.66000 21.043
16.68000 13.337
16.70000 8.243
16.72000 18.292
16.74000 20.496
16.76000 14.921
16.78000 14.208
16.80000 19.183
16.82000 15.307
16.84000 13.042
16.86000 17.041
16.88000 20.248
16.90000 19.562
16.92000 17.234
16.94000 13.132
16.96000 14.074
16.98000 17.038
17.00000 17.838
17.02000 9.730
17.04000 14.089
17.06000 11.922
17.08000 3.983
17.10000 3.356
17.12000 8.116
17.14000 15.627
17.16000 12.029
17.18000 10.015
17.20000 13.397
17.22000 6.583
17.24000 5.510
17.26000 10.522
17.28000 12.048
17.30000 14.286
17.32000 11.635
17.34000 11.894
17.36000 14.734
17.38000 12.119
17.40000 14.256
17.42000 13.119
17.44000 9.288
17.46000 8.466
17.48000 12.046
17.50000 8.512
17.52000 3.799
17.54000 9.860
17.56000 6.620
17.58000 7.088
17.60000 3.243
17.62000 8.291
17.64000 9.452
17.66000 17.426
17.68000 20.042
17.70000 14.066
17.72000 10.148
17.74000 11.219
17.76000 11.866
17.78000 8.270
17.80000 4.645
17.82000 4.876
17.84000 3.992
17.86000 10.272
17.88000 11.938
17.90000 5.043
17.92000 4.538
17.94000 12.593
17.96000 16.808
17.98000 13.733
18.00000 9.557
18.02000 9.032
18.04000 8.001
18.06000 5.845
18.08000 9.136
18.10000 9.810
18.12000 11.922
18.14000 21.347
18.16000 11.546
18.18000 7.104
18.20000 5.719
18.22000 -0.073
18.24000 2.336
18.26000 7.234
18.28000 14.723
18.30000 4.373
18.32000 -2.902
18.34000 -2.407
18.36000 -2.248
18.38000 0.404
18.40000 7.284
18.42000 5.960
18.44000 4.946
18.46000 9.193
18.48000 6.831
18.50000 10.774
18.52000 16.441
18.54000 11.685
18.56000 12.135
18.58000 12.011
18.60000 15.010
18.62000 4.300
18.64000 3.079
18.66000 1.439
18.68000 8.604
18.70000 10.063
18.72000 8.677
18.74000 12.801
18.76000 12.007
18.78000 2.220
18.80000 -1.353
18.82000 3.011
18.84000 2.841
18.86000 1.356
18.88000 3.470
18.90000 6.086
18.92000 3.724
18.94000 2.115
18.96000 7.087
18.98000 7.802
19.00000 5.088
19.02000 1.027
19.04000 2.807
19.06000 -4.225
19.08000 -2.545
19.10000 -0.145
19.12000 5.436
19.14000 7.305
19.16000 0.013
19.18000 -0.955
19.20000 2.513
19.22000 5.151
19.24000 8.415
19.26000 5.837
19.28000 -1.096
19.30000 1.098
19.32000 -4.288
19.34000 -1.920
19.36000 0.299
19.38000 4.823
19.40000 2.131
19.42000 4.928
19.44000 -2.326
19.46000 -1.663
19.48000 3.435
19.50000 7.776
19.52000 6.783
19.54000 9.681
19.56000 6.274
19.58000 2.638
19.60000 6.513
19.62000 -3.066
19.64000 1.163
19.66000 3.819
19.68000 6.164
19.70000 10.482
19.72000 9.189
19.74000 7.367
19.76000 12.745
19.78000 10.337
19.80000 6.460
19.82000 1.868
19.84000 1.905
19.86000 1.537
19.88000 3.231
19.90000 7.583
19.92000 2.065
19.94000 -0.859
19.96000 -0.255
19.98000 2.535
20.00000 3.423
20.02000 5.509
20.04000 7.884
20.06000 0.671
20.08000 -0.076
20.10000 4.388
20.12000 7.837
20.14000 8.545
20.16000 2.317
20.18000 5.250
20.20000 6.497
20.22000 -2.939
20.24000 -4.231
20.26000 2.723
20.28000 0.053
20.30000 -1.731
20.32000 -1.234
20.34000 -2.162
20.36000 10.761
20.38000 6.695
20.40000 3.325
20.42000 3.562
20.44000 2.987
20.46000 7.953
20.48000 9.245
20.50000 2.147
20.52000 -2.436
20.54000 -0.852
20.56000 8.830
20.58000 8.074
20.60000 5.131
20.62000 2.026
20.64000 3.347
20.66000 4.097
20.68000 1.475
20.70000 5.616
20.72000 1.611
20.74000 8.191
20.76000 12.932
20.78000 5.140
20.80000 12.294
20.82000 9.414
20.84000 -1.251
20.86000 5.396
20.88000 2.712
20.90000 5.419
20.92000 3.461
20.94000 -1.732
20.96000 -1.324
20.98000 -4.163
21.00000 -0.966
21.02000 1.407
21.04000 0.027
21.06000 3.959
21.08000 9.646
21.10000 11.566
21.12000 7.726
21.14000 4.819
21.16000 5.143
21.18000 9.611
21.20000 3.647
21.22000 6.666
21.24000 3.857
21.26000 9.139
21.28000 7.432
21.30000 9.003
21.32000 11.590
21.34000 7.669
21.36000 4.088
21.38000 4.968
21.40000 9.736
21.42000 9.339
21.44000 3.558
21.46000 3.879
21.48000 3.398
21.50000 11.986
21.52000 12.760
21.54000 10.678
21.56000 8.419
21.58000 4.989
21.60000 6.156
21.62000 1.206
21.64000 5.876
21.66000 7.154
21.68000 8.141
21.70000 6.322
21.72000 3.484
21.74000 2.760
21.76000 -4.121
21.78000 -1.060
21.80000 -1.978
21.82000 3.684
21.84000 3.515
21.86000 5.905
21.88000 4.520
21.90000 3.417
21.92000 8.284
21.94000 9.341
21.96000 1.113
21.98000 8.588
22.00000 10.785
22.02000 8.415
22.04000 6.870
22.06000 4.628
22.08000 6.023
22.10000 -0.602
22.12000 0.088
22.14000 6.322
22.16000 7.126
22.18000 4.937
22.20000 4.376
22.22000 3.457
22.24000 3.507
22.26000 7.240
22.28000 4.316
22.30000 -2.413
22.32000 -3.105
22.34000 -0.215
22.36000 3.516
22.38000 10.621
22.40000 12.565
22.42000 8.972
22.44000 4.556
22.46000 2.775
22.48000 7.424
22.50000 1.732
22.52000 7.632
22.54000 5.045
22.56000 2.181
22.58000 0.389
22.60000 9.864
22.62000 7.953
22.64000 7.075
22.66000 -0.250
22.68000 4.421
22.70000 0.969
22.72000 4.109
22.74000 8.787
22.76000 5.645
22.78000 6.983
22.80000 6.526
22.82000 1.830
22.84000 1.673
22.86000 7.889
22.88000 8.626
22.90000 2.705
22.92000 3.544
22.94000 3.855
22.96000 0.159
22.98000 -3.717
23.00000 -4.056
23.02000 4.845
23.04000 11.950
23.06000 11.380
23.08000 3.784
23.10000 8.834
23.12000 8.478
23.14000 9.982
23.16000 7.731
23.18000 3.937
23.20000 0.809
23.22000 -0.535
23.24000 -4.043
23.26000 0.076
23.28000 5.004
23.30000 5.297
23.32000 3.240
23.34000 3.225
23.36000 9.155
23.38000 4.996
23.40000 6.251
23.42000 7.161
23.44000 4.811
23.46000 3.178
23.48000 -0.251
23.50000 -2.242
23.52000 4.495
23.54000 5.643
23.56000 3.516
23.58000 9.990
23.60000 10.562
23.62000 8.058
23.64000 7.689
23.66000 4.859
23.68000 3.853
23.70000 3.757
23.72000 3.944
23.74000 1.473
23.76000 2.131
23.78000 5.822
23.80000 8.165
23.82000 4.898
23.84000 6.997
23.86000 4.770
23.88000 1.007
23.90000 10.527
23.92000 2.680
23.94000 -2.937
23.96000 -3.223
23.98000 2.659
24.00000 2.618
24.02000 -0.374
24.04000 2.791
24.06000 2.760
24.08000 10.632
24.10000 16.600
24.12000 12.167
24.14000 8.550
24.16000 0.349
24.18000 3.419
24.20000 8.201
24.22000 8.019
24.24000 10.330
24.26000 6.462
24.28000 5.043
24.30000 0.850
24.32000 1.227
24.34000 4.413
24.36000 3.918
24.38000 8.280
24.40000 3.171
24.42000 8.819
24.44000 9.331
24.46000 5.761
24.48000 7.760
24.50000 14.866
24.52000 8.831
24.54000 -2.152
24.56000 0.039
24.58000 4.503
24.60000 1.744
24.62000 2.009
24.64000 7.464
24.66000 6.637
24.68000 9.076
24.70000 1.991
24.72000 2.737
24.74000 3.450
24.76000 10.225
24.78000 7.705
24.80000 9.825
24.82000 2.330
24.84000 -3.935
24.86000 0.047
24.88000 9.810
24.90000 10.823
24.92000 7.379
24.94000 7.234
24.96000 8.693
24.98000 1.627
25.00000 1.208
25.02000 -0.093
25.04000 5.214
25.06000 8.884
25.08000 2.386
25.10000 -0.220
25.12000 5.397
25.14000 3.049
25.16000 5.120
25.18000 10.194
25.20000 10.241
25.22000 10.434
25.24000 5.379
25.26000 8.057
25.28000 4.804
25.30000 5.083
25.32000 1.789
25.34000 5.033
25.36000 5.322
25.38000 3.153
25.40000 4.595
25.42000 7.828
25.44000 4.592
25.46000 -0.889
25.48000 2.418
25.50000 3.883
25.52000 4.027
25.54000 0.294
25.56000 -0.055
25.58000 4.930
25.60000 3.760
25.62000 4.988
25.64000 1.428
25.66000 4.848
25.68000 3.968
25.70000 -0.610
25.72000 -1.494
25.74000 2.079
25.76000 5.052
25.78000 6.338
25.80000 4.335
25.82000 0.538
25.84000 3.530
25.86000 3.950
25.88000 2.479
25.90000 9.453
25.92000 5.102
25.94000 1.955
25.96000 0.389
25.98000 0.679
26.00000 0.986
26.02000 1.569
26.04000 3.132
26.06000 -0.224
26.08000 2.894
26.10000 5.082
26.12000 3.102
26.14000 3.547
26.16000 1.357
26.18000 -1.345
26.20000 1.196
26.22000 0.499
26.24000 5.954
26.26000 6.347
26.28000 2.510
26.30000 1.679
26.32000 -1.948
26.34000 0.394
26.36000 -1.122
26.38000 -0.239
26.40000 -1.248
26.42000 0.719
26.44000 2.988
26.46000 6.339
26.48000 8.332
26.50000 0.141
26.52000 1.099
26.54000 6.145
26.56000 4.504
26.58000 0.757
26.60000 -3.874
26.62000 2.815
26.64000 2.490
26.66000 7.421
26.68000 5.306
26.70000 3.069
26.72000 1.103
26.74000 2.225
26.76000 -2.459
26.78000 1.368
26.80000 1.696
26.82000 1.488
26.84000 3.694
26.86000 3.865
26.88000 -3.772
26.90000 0.517
26.92000 1.507
26.94000 -2.130
26.96000 1.691
26.98000 3.212
27.00000 -0.854
27.02000 3.793
27.04000 4.817
27.06000 3.535
27.08000 4.744
27.10000 1.888
27.12000 2.392
27.14000 1.971
27.16000 -0.570
27.18000 -3.272
27.20000 -2.760
27.22000 4.665
27.24000 4.234
27.26000 3.240
27.28000 3.574
27.30000 10.703
27.32000 5.086
27.34000 1.619
27.36000 3.081
27.38000 0.887
27.40000 4.003
27.42000 1.057
27.44000 -3.836
27.46000 0.214
27.48000 4.212
27.50000 1.013
27.52000 -1.841
27.54000 4.560
27.56000 8.303
27.58000 6.889
27.60000 0.125
27.62000 0.157
27.64000 4.140
27.66000 3.686
27.68000 -0.692
27.70000 -3.127
27.72000 0.115
27.74000 0.017
27.76000 0.577
27.78000 -2.744
27.80000 0.007
27.82000 4.594
27.84000 -0.990
27.86000 -1.073
27.88000 1.384
27.90000 1.968
27.92000 2.518
27.94000 -0.084
27.96000 3.988
27.98000 7.032
28.00000 2.728
28.02000 -0.288
28.04000 2.403
28.06000 2.347
28.08000 2.725
28.10000 3.246
28.12000 1.457
28.14000 6.151
28.16000 2.330
28.18000 2.138
28.20000 1.602
28.22000 2.843
28.24000 5.295
28.26000 3.806
28.28000 2.155
28.30000 -0.495
28.32000 1.690
28.34000 -0.624
28.36000 3.932
28.38000 5.427
28.40000 4.510
28.42000 9.028
28.44000 6.997
28.46000 7.325
28.48000 7.547
28.50000 6.368
28.52000 4.103
28.54000 5.442
28.56000 3.055
28.58000 5.550
28.60000 7.097
28.62000 4.326
28.64000 5.255
28.66000 3.811
28.68000 6.439
28.70000 5.004
28.72000 2.765
28.74000 5.589
28.76000 5.227
28.78000 3.665
28.80000 7.432
28.82000 6.831
28.84000 5.825
28.86000 4.624
28.88000 3.752
28.90000 1.032
28.92000 7.947
28.94000 9.204
28.96000 7.680
28.98000 9.188
29.00000 8.582
29.02000 7.277
29.04000 3.878
29.06000 2.324
29.08000 6.462
29.10000 6.243
29.12000 4.175
29.14000 0.712
29.16000 -3.699
29.18000 0.292
29.20000 6.708
29.22000 8.286
29.24000 3.731
29.26000 0.876
29.28000 4.599
29.30000 5.867
29.32000 5.072
29.34000 5.149
29.36000 5.711
29.38000 6.353
29.40000 6.787
29.42000 5.526
29.44000 5.540
29.46000 3.115
29.48000 2.689
29.50000 2.898
29.52000 2.885
29.54000 5.472
29.56000 2.990
29.58000 5.678
29.60000 10.269
29.62000 7.539
29.64000 7.494
29.66000 3.756
29.68000 1.069
29.70000 4.769
29.72000 1.874
29.74000 -1.352
29.76000 4.801
29.78000 2.722
29.80000 5.873
29.82000 7.233
29.84000 4.833
29.86000 6.138
29.88000 -0.983
29.90000 6.057
29.92000 6.542
29.94000 2.564
29.96000 3.547
29.98000 -0.356
30.00000 -1.450
30.02000 2.170
30.04000 2.589
30.06000 6.927
30.08000 9.924
30.10000 4.542
30.12000 5.884
30.14000 0.427
30.16000 2.625
30.18000 2.689
30.20000 -1.192
30.22000 -1.990
30.24000 1.966
30.26000 5.298
30.28000 5.603
30.30000 2.451
30.32000 5.081
30.34000 4.650
30.36000 1.252
30.38000 4.738
30.40000 3.432
30.42000 1.516
30.44000 0.306
30.46000 1.344
30.48000 -1.035
30.50000 -3.684
30.52000 3.041
30.54000 1.817
30.56000 -1.382
30.58000 -0.414
30.60000 5.972
30.62000 5.831
30.64000 3.511
30.66000 -0.120
30.68000 1.628
30.70000 4.336
30.72000 4.896
30.74000 3.726
30.76000 5.320
30.78000 6.304
30.80000 2.663
30.82000 5.172
30.84000 2.644
30.86000 0.815
30.88000 4.486
30.90000 2.215
30.92000 2.130
30.94000 4.109
30.96000 3.782
30.98000 -0.114
31.00000 2.751
31.02000 3.185
31.04000 8.060
31.06000 13.030
31.08000 4.890
31.10000 -2.571
31.12000 -0.911
31.14000 0.219
31.16000 2.179
31.18000 5.820
31.20000 5.422
31.22000 1.788
31.24000 2.897
31.26000 5.912
31.28000 1.668
31.30000 1.936
31.32000 1.450
31.34000 1.531
31.36000 1.822
31.38000 2.860
31.40000 1.540
31.42000 3.220
31.44000 3.636
31.46000 1.580
31.48000 0.843
31.50000 1.356
31.52000 3.011
31.54000 0.030
31.56000 -2.433
31.58000 -3.026
31.60000 1.636
31.62000 5.509
31.64000 10.310
31.66000 6.459
31.68000 5.180
31.70000 4.593
31.72000 4.540
31.74000 0.115
31.76000 -1.946
31.78000 -3.598
31.80000 4.298
31.82000 5.930
31.84000 6.473
31.86000 2.693
31.88000 1.970
31.90000 0.353
31.92000 2.692
31.94000 3.744
31.96000 4.514
31.98000 6.344
32.00000 6.375
32.02000 2.820
32.04000 1.065
32.06000 5.239
32.08000 6.989
32.10000 -2.050
32.12000 -2.709
32.14000 4.835
32.16000 7.072
32.18000 3.517
32.20000 2.364
32.22000 0.451
32.24000 3.072
32.26000 3.412
32.28000 6.148
32.30000 4.349
32.32000 6.594
32.34000 4.580
32.36000 1.278
32.38000 5.435
32.40000 2.812
32.42000 7.893
32.44000 9.636
32.46000 2.666
32.48000 7.749
32.50000 2.112
32.52000 -3.434
32.54000 1.464
32.56000 6.276
32.58000 1.661
32.60000 -3.089
32.62000 -0.257
32.64000 0.091
32.66000 1.823
32.68000 5.912
32.70000 5.472
32.72000 6.657
32.74000 1.908
32.76000 -1.269
32.78000 1.363
32.80000 1.926
32.82000 -2.305
32.84000 0.310
32.86000 -2.071
32.88000 -3.586
32.90000 -2.186
32.92000 0.925
32.94000 3.702
32.96000 3.453
32.98000 5.589
33.00000 3.233
33.02000 1.348
33.04000 2.959
33.06000 1.419
33.08000 -0.429
33.10000 -0.536
33.12000 3.888
33.14000 4.522
33.16000 6.431
33.18000 4.552
33.20000 1.251
33.22000 3.698
33.24000 6.775
33.26000 3.253
33.28000 1.076
33.30000 -1.688
33.32000 -3.583
33.34000 3.355
33.36000 3.927
33.38000 1.922
33.40000 2.885
33.42000 6.100
33.44000 4.027
33.46000 3.664
33.48000 4.095
33.50000 1.895
33.52000 1.810
33.54000 4.641
33.56000 0.626
33.58000 1.486
33.60000 4.394
33.62000 5.575
33.64000 4.352
33.66000 2.752
33.68000 2.155
33.70000 4.449
33.72000 1.981
33.74000 0.605
33.76000 4.598
33.78000 2.685
33.80000 4.005
33.82000 7.010
33.84000 6.049
33.86000 5.550
33.88000 6.647
33.90000 4.584
33.92000 0.951
33.94000 0.244
33.96000 -0.746
33.98000 0.762
34.00000 4.645
34.02000 -0.283
34.04000 5.364
34.06000 7.476
34.08000 5.291
34.10000 4.519
34.12000 4.327
34.14000 6.231
34.16000 5.418
34.18000 6.509
34.20000 3.300
34.22000 4.770
34.24000 4.220
34.26000 5.708
34.28000 5.987
34.30000 4.475
34.32000 3.953
34.34000 3.835
34.36000 3.275
34.38000 1.804
34.40000 4.083
34.42000 3.941
34.44000 6.700
34.46000 8.487
34.48000 4.686
34.50000 -2.109
34.52000 -0.668
34.54000 0.362
34.56000 3.695
34.58000 0.718
34.60000 2.968
34.62000 4.545
34.64000 0.763
34.66000 3.155
34.68000 4.086
34.70000 -1.931
34.72000 2.125
34.74000 2.329
34.76000 -0.771
34.78000 -0.005
34.80000 -3.521
34.82000 0.375
34.84000 4.131
34.86000 2.809
34.88000 -1.489
34.90000 0.821
34.92000 3.053
34.94000 1.799
34.96000 1.226
34.98000 3.129
35.00000 2.539
35.02000 5.197
35.04000 3.834
35.06000 0.553
35.08000 3.382
35.10000 2.762
35.12000 0.855
35.14000 -3.519
35.16000 -3.063
35.18000 -2.713
35.20000 4.870
35.22000 9.547
35.24000 6.537
35.26000 0.825
35.28000 2.581
35.30000 2.716
35.32000 3.047
35.34000 10.019
35.36000 2.049
35.38000 -3.415
35.40000 1.915
35.42000 2.999
35.44000 5.864
35.46000 11.356
35.48000 6.706
35.50000 2.639
35.52000 3.418
35.54000 -0.623
35.56000 -0.695
35.58000 1.013
35.60000 9.747
35.62000 7.690
35.64000 2.534
35.66000 2.405
35.68000 0.456
35.70000 -3.326
35.72000 2.042
35.74000 0.645
35.76000 -0.444
35.78000 2.994
35.80000 3.171
35.82000 3.157
35.84000 2.651
35.86000 4.883
35.88000 1.207
35.90000 -0.295
35.92000 -0.353
35.94000 3.494
35.96000 -0.600
35.98000 0.712
36.00000 2.975
36.02000 -3.499
36.04000 -0.141
36.06000 -1.569
36.08000 2.181
36.10000 6.244
36.12000 5.672
36.14000 1.656
36.16000 -0.789
36.18000 -0.818
36.20000 -2.112
36.22000 0.431
36.24000 1.409
36.26000 2.559
36.28000 0.472
36.30000 -1.811
36.32000 4.033
36.34000 2.704
36.36000 -0.451
36.38000 0.360
36.40000 4.231
36.42000 0.962
36.44000 0.340
36.46000 2.621
36.48000 1.304
36.50000 2.758
36.52000 6.935
36.54000 8.560
36.56000 5.826
36.58000 4.013
36.60000 3.995
36.62000 1.360
36.64000 2.741
36.66000 0.612
36.68000 -1.565
36.70000 3.136
36.72000 10.042
36.74000 8.357
36.76000 -1.620
36.78000 -1.479
36.80000 -3.510
36.82000 -1.814
36.84000 3.945
36.86000 3.735
36.88000 0.436
36.90000 -0.354
36.92000 5.773
36.94000 4.568
36.96000 1.482
36.98000 -2.248
37.00000 -1.377
37.02000 2.120
37.04000 6.157
37.06000 6.484
37.08000 2.329
37.10000 6.679
37.12000 4.866
37.14000 -1.251
37.16000 -0.461
37.18000 3.762
37.20000 5.859
37.22000 7.341
37.24000 5.335
37.26000 2.651
37.28000 1.817
37.30000 0.626
37.32000 3.266
37.34000 3.381
37.36000 2.647
37.38000 -2.422
37.40000 3.617
37.42000 5.106
37.44000 -0.383
37.46000 1.383
37.48000 3.700
37.50000 3.235
37.52000 3.168
37.54000 1.584
37.56000 0.498
37.58000 -3.559
37.60000 -0.660
37.62000 1.422
37.64000 1.705
37.66000 5.300
37.68000 6.807
37.70000 0.275
37.72000 1.979
37.74000 1.997
37.76000 2.040
37.78000 1.860
37.80000 5.780
37.82000 11.617
37.84000 6.947
37.86000 -0.317
37.88000 7.925
37.90000 7.590
37.92000 4.312
37.94000 3.450
37.96000 1.490
37.98000 4.664
38.00000 5.590
38.02000 9.003
38.04000 9.643
38.06000 9.376
38.08000 7.845
38.10000 7.508
38.12000 12.712
38.14000 13.585
38.16000 11.857
38.18000 11.408
38.20000 11.286
38.22000 10.624
38.24000 11.259
38.26000 10.591
38.28000 16.307
38.30000 17.399
38.32000 18.286
38.34000 18.260
38.36000 18.931
38.38000 11.762
38.40000 14.500
38.42000 13.400
38.44000 11.411
38.46000 17.883
38.48000 21.896
38.50000 20.133
38.52000 19.499
38.54000 21.589
38.56000 19.230
38.58000 19.972
38.60000 20.575
38.62000 23.202
38.64000 20.319
38.66000 19.278
38.68000 17.250
38.70000 19.004
38.72000 21.757
38.74000 21.550
38.76000 26.056
38.78000 27.782
38.80000 31.368
38.82000 28.593
38.84000 24.320
38.86000 24.783
38.88000 25.517
38.90000 28.630
38.92000 28.614
38.94000 27.699
38.96000 32.294
38.98000 31.114
39.00000 33.857
39.02000 28.207
39.04000 33.276
39.06000 40.747
39.08000 39.021
39.10000 32.863
39.12000 38.175
39.14000 39.545
39.16000 39.514
39.18000 36.996
39.20000 44.833
39.22000 47.768
39.24000 46.456
39.26000 52.205
39.28000 54.944
39.30000 48.430
39.32000 52.641
39.34000 58.823
39.36000 62.496
39.38000 60.240
39.40000 61.380
39.42000 66.384
39.44000 71.256
39.46000 73.825
39.48000 74.158
39.50000 82.363
39.52000 86.417
39.54000 87.111
39.56000 96.670
39.58000 99.448
39.60000 103.724
39.62000 106.046
39.64000 109.410
39.66000 114.776
39.68000 123.237
39.70000 135.303
39.72000 135.856
39.74000 141.294
39.76000 147.043
39.78000 156.024
39.80000 160.265
39.82000 172.891
39.84000 181.377
39.86000 194.442
39.88000 205.522
39.90000 212.374
39.92000 219.239
39.94000 233.231
39.96000 249.226
39.98000 259.500
40.00000 276.620
40.02000 296.511
40.04000 310.786
40.06000 325.985
40.08000 327.205
40.10000 344.762
40.12000 363.460
40.14000 370.762
40.16000 390.419
40.18000 407.844
40.20000 422.651
40.22000 436.772
40.24000 446.639
40.26000 464.310
40.28000 478.663
40.30000 487.110
40.32000 489.614
40.34000 508.304
40.36000 517.074
40.38000 528.257
40.40000 527.238
40.42000 530.412
40.44000 529.084
40.46000 529.047
40.48000 528.856
40.50000 528.406
40.52000 516.406
40.54000 514.680
40.56000 513.598
40.58000 505.842
40.60000 493.373
40.62000 481.744
40.64000 472.634
40.66000 464.246
40.68000 447.803
40.70000 432.413
40.72000 422.583
40.74000 409.234
40.76000 394.368
40.78000 383.564
40.80000 366.846
40.82000 351.389
40.84000 336.987
40.86000 319.236
40.88000 310.676
40.90000 298.431
40.92000 280.355
40.94000 274.033
40.96000 263.498
40.98000 251.959
41.00000 241.056
41.02000 224.118
41.04000 206.251
41.06000 193.704
41.08000 189.673
41.10000 183.611
41.12000 170.578
41.14000 158.823
41.16000 156.364
41.18000 147.319
41.20000 138.137
41.22000 134.168
41.24000 127.659
41.26000 120.422
41.28000 109.493
41.30000 102.088
41.32000 98.781
41.34000 92.140
41.36000 84.776
41.38000 80.996
41.40000 77.506
41.42000 72.870
41.44000 68.458
41.46000 66.287
41.48000 67.828
41.50000 62.671
41.52000 56.400
41.54000 52.958
41.56000 50.924
41.58000 55.985
41.60000 54.505
41.62000 49.069
41.64000 47.302
41.66000 42.537
41.68000 37.031
41.70000 37.113
41.72000 37.783
41.74000 34.572
41.76000 31.612
41.78000 33.075
41.80000 32.285
41.82000 30.367
41.84000 26.271
41.86000 24.865
41.88000 23.288
41.90000 22.101
41.92000 21.337
41.94000 22.390
41.96000 20.552
41.98000 17.765
42.00000 19.691
42.02000 20.697
42.04000 20.063
42.06000 20.702
42.08000 16.839
42.10000 13.740
42.12000 9.491
42.14000 9.136
42.16000 9.109
42.18000 6.747
42.20000 7.171
42.22000 9.961
42.24000 10.622
42.26000 6.796
42.28000 7.076
42.30000 8.552
42.32000 10.166
42.34000 9.561
42.36000 7.484
42.38000 7.821
42.40000 10.544
42.42000 7.460
42.44000 9.546
42.46000 7.958
42.48000 5.441
42.50000 6.642
42.52000 5.489
42.54000 3.666
42.56000 4.121
42.58000 4.524
42.60000 5.544
42.62000 1.874
42.64000 -2.151
42.66000 -0.162
42.68000 3.032
42.70000 6.520
42.72000 5.334
42.74000 2.769
42.76000 2.361
42.78000 2.110
42.80000 5.635
42.82000 0.581
42.84000 1.552
42.86000 3.620
42.88000 2.829
42.90000 1.570
42.92000 -0.205
42.94000 -1.100
42.96000 -0.829
42.98000 -1.038
43.00000 1.484
43.02000 5.176
43.04000 1.161
43.06000 3.321
43.08000 4.834
43.10000 5.617
43.12000 1.902
43.14000 0.120
43.16000 -1.964
43.18000 -2.270
43.20000 2.298
43.22000 -0.227
43.24000 0.118
43.26000 -1.492
43.28000 -0.963
43.30000 2.717
43.32000 4.740
43.34000 3.178
43.36000 -3.423
43.38000 -0.434
43.40000 0.323
43.42000 0.218
43.44000 1.405
43.46000 1.604
43.48000 -0.365
43.50000 -0.556
43.52000 2.423
43.54000 2.203
43.56000 -0.933
43.58000 -1.697
43.60000 -3.399
43.62000 0.701
43.64000 2.729
43.66000 0.120
43.68000 -1.777
43.70000 -0.129
43.72000 0.638
43.74000 0.556
43.76000 2.841
43.78000 1.383
43.80000 -0.162
43.82000 -1.060
43.84000 -1.237
43.86000 -2.711
43.88000 -3.102
43.90000 -1.080
43.92000 -2.927
43.94000 1.030
43.96000 -0.159
43.98000 -0.816
44.00000 -0.760
44.02000 0.794
44.04000 -0.852
44.06000 -3.070
44.08000 1.019
44.10000 0.570
44.12000 -0.036
44.14000 0.690
44.16000 -2.067
44.18000 -2.493
44.20000 -2.097
44.22000 1.529
44.24000 1.071
44.26000 -1.872
44.28000 -0.435
44.30000 1.086
44.32000 3.992
44.34000 2.052
44.36000 -1.195
44.38000 0.746
44.40000 -2.525
44.42000 -2.682
44.44000 -1.455
44.46000 -1.790
44.48000 -3.143
44.50000 0.250
44.52000 1.108
44.54000 4.026
44.56000 2.429
44.58000 -1.006
44.60000 -2.112
44.62000 -1.090
44.64000 -2.316
44.66000 -3.360
44.68000 2.577
44.70000 3.529
44.72000 3.571
44.74000 2.431
44.76000 -0.239
44.78000 1.296
44.80000 3.173
44.82000 1.178
44.84000 3.031
44.86000 5.761
44.88000 0.118
44.90000 2.723
44.92000 6.415
44.94000 3.756
44.96000 6.160
44.98000 3.944
45.00000 -2.059
45.02000 -3.336
45.04000 2.195
45.06000 2.485
45.08000 6.713
45.10000 6.304
45.12000 -0.682
45.14000 1.746
45.16000 2.921
45.18000 0.228
45.20000 -1.930
45.22000 -1.314
45.24000 5.418
45.26000 3.202
45.28000 5.146
45.30000 2.310
45.32000 5.647
45.34000 8.238
45.36000 7.214
45.38000 9.526
45.40000 8.667
45.42000 8.101
45.44000 8.768
45.46000 7.416
45.48000 5.291
45.50000 6.116
45.52000 5.942
45.54000 4.519
45.56000 5.751
45.58000 8.220
45.60000 9.438
45.62000 15.413
45.64000 13.462
45.66000 13.498
45.68000 14.658
45.70000 11.915
45.72000 14.773
45.74000 12.990
45.76000 13.783
45.78000 17.796
45.80000 22.881
45.82000 20.600
45.84000 19.492
45.86000 18.960
45.88000 18.575
45.90000 21.496
45.92000 24.610
45.94000 22.006
45.96000 15.858
45.98000 16.653
46.00000 20.876
46.02000 25.042
46.04000 27.363
46.06000 23.604
46.08000 21.197
46.10000 25.931
46.12000 27.638
46.14000 28.835
46.16000 26.020
46.18000 30.351
46.20000 29.276
46.22000 30.407
46.24000 38.306
46.26000 39.651
46.28000 35.167
46.30000 32.634
46.32000 38.478
46.34000 37.839
46.36000 37.134
46.38000 40.218
46.40000 42.308
46.42000 43.880
46.44000 44.555
46.46000 46.211
46.48000 53.945
46.50000 47.658
46.52000 48.222
46.54000 47.636
46.56000 51.576
46.58000 52.344
46.60000 55.105
46.62000 55.363
46.64000 55.802
46.66000 56.721
46.68000 55.677
46.70000 60.547
46.72000 66.875
46.74000 70.074
46.76000 70.272
46.78000 63.322
46.80000 72.507
46.82000 70.205
46.84000 70.447
46.86000 75.017
46.88000 71.612
46.90000 73.716
46.92000 76.435
46.94000 74.254
46.96000 78.012
46.98000 77.189
47.00000 80.861
47.02000 79.539
47.04000 81.961
47.06000 76.101
47.08000 75.263
47.10000 77.002
47.12000 79.357
47.14000 77.773
47.16000 72.779
47.18000 73.046
47.20000 80.080
47.22000 81.528
47.24000 78.113
47.26000 73.426
47.28000 75.116
47.30000 70.556
47.32000 69.792
47.34000 68.938
47.36000 67.020
47.38000 68.952
47.40000 70.322
47.42000 62.024
47.44000 64.678
47.46000 59.627
47.48000 60.068
47.50000 61.662
47.52000 60.637
47.54000 56.924
47.56000 53.922
47.58000 56.036
47.60000 55.449
47.62000 49.605
47.64000 53.185
47.66000 52.225
47.68000 48.372
47.70000 43.241
47.72000 39.365
47.74000 35.763
47.76000 37.782
47.78000 38.406
47.80000 39.815
47.82000 34.927
47.84000 26.336
47.86000 24.400
47.88000 29.363
47.90000 30.500
47.92000 27.170
47.94000 20.573
47.96000 25.936
47.98000 26.661
48.00000 24.071
48.02000 22.481
48.04000 19.973
48.06000 20.769
48.08000 17.106
48.10000 14.402
48.12000 20.132
48.14000 19.799
48.16000 16.266
48.18000 16.751
48.20000 12.945
48.22000 13.362
48.24000 12.984
48.26000 13.982
48.28000 10.650
48.30000 10.345
48.32000 14.151
48.34000 11.708
48.36000 8.903
48.38000 9.899
48.40000 5.221
48.42000 0.991
48.44000 1.459
48.46000 6.694
48.48000 6.437
48.50000 9.034
48.52000 5.865
48.54000 3.986
48.56000 3.741
48.58000 3.353
48.60000 5.096
48.62000 4.314
48.64000 5.047
48.66000 7.182
48.68000 8.961
48.70000 6.806
48.72000 6.421
48.74000 4.648
48.76000 1.878
48.78000 0.232
48.80000 3.661
48.82000 3.456
48.84000 -1.070
48.86000 0.099
48.88000 5.238
48.90000 -0.042
48.92000 0.013
48.94000 0.775
48.96000 0.331
48.98000 1.384
49.00000 -0.008
49.02000 -0.684
49.04000 0.420
49.06000 1.851
49.08000 2.372
49.10000 2.613
49.12000 -0.139
49.14000 0.500
49.16000 -0.815
49.18000 -2.257
49.20000 -1.212
49.22000 -2.102
49.24000 -2.931
49.26000 -2.619
49.28000 -1.564
49.30000 0.674
49.32000 -0.998
49.34000 -2.639
49.36000 -1.431
49.38000 2.414
49.40000 0.030
49.42000 -0.248
49.44000 -1.281
49.46000 -2.164
49.48000 -2.605
49.50000 2.202
49.52000 6.677
49.54000 3.468
49.56000 -2.898
49.58000 -1.459
49.60000 5.236
49.62000 4.162
49.64000 2.209
49.66000 5.012
49.68000 4.749
49.70000 2.873
49.72000 2.961
49.74000 6.105
49.76000 5.081
49.78000 2.713
49.80000 2.194
49.82000 -1.673
49.84000 5.310
49.86000 5.193
49.88000 2.716
49.90000 0.821
49.92000 0.162
49.94000 1.087
49.96000 1.122
49.98000 0.088
50.00000 2.645
50.02000 5.342
50.04000 2.479
50.06000 2.870
50.08000 4.715
50.10000 6.750
50.12000 2.720
50.14000 -2.353
50.16000 -2.188
50.18000 4.965
50.20000 4.244
50.22000 1.922
50.24000 1.915
50.26000 5.440
50.28000 1.246
50.30000 3.111
50.32000 2.464
50.34000 -0.527
50.36000 1.922
50.38000 4.658
50.40000 8.901
50.42000 3.987
50.44000 -0.177
50.46000 1.409
50.48000 -1.252
50.50000 1.475
50.52000 3.101
50.54000 2.466
50.56000 -0.245
50.58000 0.764
50.60000 1.490
50.62000 0.786
50.64000 -0.257
50.66000 6.017
50.68000 4.778
50.70000 0.257
50.72000 4.021
50.74000 6.869
50.76000 1.196
50.78000 6.719
50.80000 8.939
50.82000 2.815
50.84000 -2.767
50.86000 -1.210
50.88000 2.522
50.90000 5.079
50.92000 2.232
50.94000 7.421
50.96000 4.121
50.98000 4.245
51.00000 1.320
51.02000 0.196
51.04000 0.009
51.06000 1.717
51.08000 0.670
51.10000 4.230
51.12000 1.843
51.14000 3.600
51.16000 0.695
51.18000 1.337
51.20000 3.578
51.22000 1.635
51.24000 -1.056
51.26000 -0.778
51.28000 -2.743
51.30000 0.833
51.32000 0.059
51.34000 2.265
51.36000 1.866
51.38000 2.782
51.40000 3.445
51.42000 -0.088
51.44000 2.444
51.46000 3.941
51.48000 -1.374
51.50000 -1.434
51.52000 2.108
51.54000 0.349
51.56000 3.174
51.58000 6.583
51.60000 4.318
51.62000 4.225
51.64000 1.570
51.66000 6.000
51.68000 5.675
51.70000 6.082
51.72000 7.084
51.74000 2.757
51.76000 2.493
51.78000 1.461
51.80000 3.715
51.82000 4.167
51.84000 6.761
51.86000 5.171
51.88000 2.386
51.90000 2.559
51.92000 0.226
51.94000 1.075
51.96000 4.682
51.98000 7.355
52.00000 6.469
52.02000 4.252
52.04000 3.859
52.06000 2.917
52.08000 2.482
52.10000 5.495
52.12000 5.980
52.14000 3.354
52.16000 1.094
52.18000 6.060
52.20000 7.318
52.22000 3.028
52.24000 4.872
52.26000 5.406
52.28000 4.733
52.30000 6.598
52.32000 4.305
52.34000 -2.692
52.36000 -0.404
52.38000 7.681
52.40000 6.457
52.42000 2.205
52.44000 3.744
52.46000 3.803
52.48000 4.247
52.50000 1.884
52.52000 7.569
52.54000 5.051
52.56000 1.420
52.58000 3.357
52.60000 4.970
52.62000 4.798
52.64000 6.492
52.66000 4.357
52.68000 7.406
52.70000 3.937
52.72000 2.174
52.74000 -2.404
52.76000 -1.555
52.78000 4.642
52.80000 2.720
52.82000 3.388
52.84000 8.691
52.86000 3.989
52.88000 0.700
52.90000 -0.136
52.92000 0.043
52.94000 5.666
52.96000 7.526
52.98000 7.723
53.00000 2.444
53.02000 -2.092
53.04000 0.103
53.06000 5.532
53.08000 6.512
53.10000 3.296
53.12000 0.000
53.14000 3.647
53.16000 2.482
53.18000 0.043
53.20000 -0.816
53.22000 2.933
53.24000 3.925
53.26000 2.550
53.28000 1.898
53.30000 -1.333
53.32000 -1.161
53.34000 -2.672
53.36000 0.794
53.38000 1.696
53.40000 -0.386
53.42000 -0.395
53.44000 -0.192
53.46000 2.059
53.48000 4.435
53.50000 5.545
53.52000 4.938
53.54000 3.578
53.56000 2.747
53.58000 5.545
53.60000 5.101
53.62000 6.738
53.64000 4.213
53.66000 -1.038
53.68000 0.625
53.70000 -0.269
53.72000 2.461
53.74000 2.502
53.76000 2.723
53.78000 -0.335
53.80000 3.903
53.82000 5.562
53.84000 4.068
53.86000 3.112
53.88000 2.503
53.90000 -0.312
53.92000 3.112
53.94000 2.313
53.96000 1.708
53.98000 2.687
54.00000 3.918
54.02000 4.077
54.04000 2.548
54.06000 0.671
54.08000 -1.060
54.10000 4.295
54.12000 4.227
54.14000 2.001
54.16000 0.400
54.18000 4.600
54.20000 1.874
54.22000 -0.922
54.24000 -0.960
54.26000 2.961
54.28000 8.806
54.30000 7.996
54.32000 4.052
54.34000 2.707
54.36000 2.681
54.38000 6.249
54.40000 6.088
54.42000 5.069
54.44000 5.078
54.46000 1.770
54.48000 4.896
54.50000 2.411
54.52000 1.655
54.54000 6.323
54.56000 1.798
54.58000 0.084
54.60000 -0.424
54.62000 -0.082
54.64000 -0.517
54.66000 -0.155
54.68000 -0.797
54.70000 -0.129
54.72000 -0.830
54.74000 5.729
54.76000 5.127
54.78000 2.862
54.80000 2.077
54.82000 1.185
54.84000 3.708
54.86000 4.153
54.88000 2.333
54.90000 -1.348
54.92000 3.047
54.94000 8.853
54.96000 1.396
54.98000 -2.628
55.00000 -1.980
55.02000 1.195
55.04000 3.146
55.06000 1.849
55.08000 1.653
55.10000 0.836
55.12000 5.389
55.14000 7.094
55.16000 1.961
55.18000 1.655
55.20000 2.042
55.22000 -0.782
55.24000 1.557
55.26000 4.651
55.28000 5.299
55.30000 3.064
55.32000 6.349
55.34000 4.359
55.36000 2.631
55.38000 4.543
55.40000 2.031
55.42000 2.900
55.44000 -1.458
55.46000 2.176
55.48000 4.258
55.50000 7.114
55.52000 3.603
55.54000 3.643
55.56000 6.094
55.58000 3.720
55.60000 4.851
55.62000 0.577
55.64000 3.780
55.66000 4.112
55.68000 5.337
55.70000 3.626
55.72000 0.911
55.74000 3.240
55.76000 5.170
55.78000 4.054
55.80000 3.056
55.82000 6.135
55.84000 3.816
55.86000 -2.146
55.88000 1.999
55.90000 -1.430
55.92000 2.099
55.94000 3.995
55.96000 5.051
55.98000 5.244
56.00000 1.804
56.02000 -0.636
56.04000 -0.507
56.06000 5.039
56.08000 0.349
56.10000 0.088
56.12000 3.719
56.14000 4.207
56.16000 5.569
56.18000 3.606
56.20000 1.692
56.22000 1.386
56.24000 -2.602
56.26000 1.908
56.28000 3.080
56.30000 0.945
56.32000 3.032
56.34000 1.829
56.36000 -0.731
56.38000 3.164
56.40000 4.291
56.42000 1.030
56.44000 -1.875
56.46000 0.625
56.48000 5.526
56.50000 4.469
56.52000 2.195
56.54000 5.616
56.56000 5.346
56.58000 2.266
56.60000 1.726
56.62000 8.280
56.64000 3.380
56.66000 -0.172
56.68000 2.107
56.70000 3.306
56.72000 1.559
56.74000 2.514
56.76000 4.267
56.78000 4.055
56.80000 3.560
56.82000 6.185
56.84000 1.998
56.86000 0.904
56.88000 3.562
56.90000 4.337
56.92000 5.293
56.94000 -0.540
56.96000 -1.464
56.98000 0.258
57.00000 3.419
57.02000 6.884
57.04000 1.498
57.06000 1.235
57.08000 3.103
57.10000 2.525
57.12000 5.134
57.14000 6.563
57.16000 5.202
57.18000 2.958
57.20000 3.593
57.22000 3.824
57.24000 5.852
57.26000 3.629
57.28000 0.379
57.30000 -2.546
57.32000 -0.894
57.34000 1.372
57.36000 4.143
57.38000 2.091
57.40000 -0.208
57.42000 5.777
57.44000 3.385
57.46000 3.252
57.48000 3.354
57.50000 1.524
57.52000 4.723
57.54000 -0.799
57.56000 0.406
57.58000 0.490
57.60000 1.648
57.62000 3.429
57.64000 3.687
57.66000 2.428
57.68000 4.290
57.70000 1.533
57.72000 1.181
57.74000 0.432
57.76000 0.934
57.78000 2.280
57.80000 9.551
57.82000 9.254
57.84000 4.798
57.86000 3.279
57.88000 7.799
57.90000 10.201
57.92000 5.137
57.94000 2.533
57.96000 1.611
57.98000 2.267
58.00000 0.451
58.02000 0.405
58.04000 0.230
58.06000 0.914
58.08000 5.315
58.10000 3.398
58.12000 -1.558
58.14000 -0.230
58.16000 4.319
58.18000 4.246
58.20000 1.328
58.22000 3.258
58.24000 5.236
58.26000 5.014
58.28000 5.882
58.30000 4.153
58.32000 1.543
58.34000 1.384
58.36000 4.133
58.38000 5.930
58.40000 2.517
58.42000 3.203
58.44000 3.636
58.46000 8.168
58.48000 5.742
58.50000 3.745
58.52000 7.362
58.54000 3.273
58.56000 2.597
58.58000 -1.853
58.60000 2.258
58.62000 1.911
58.64000 -1.056
58.66000 2.953
58.68000 5.194
58.70000 4.837
58.72000 2.736
58.74000 1.578
58.76000 -1.274
58.78000 -2.535
58.80000 -0.136
58.82000 3.958
58.84000 -1.267
58.86000 0.657
58.88000 -1.003
58.90000 2.743
58.92000 0.577
58.94000 0.219
58.96000 1.153
58.98000 0.858
59.00000 2.836
59.02000 0.790
59.04000 -0.516
59.06000 1.339
59.08000 4.911
59.10000 1.836
59.12000 0.253
59.14000 -2.513
59.16000 -0.151
59.18000 5.781
59.20000 4.374
59.22000 5.591
59.24000 1.495
59.26000 2.331
59.28000 2.413
59.30000 2.167
59.32000 5.725
59.34000 9.398
59.36000 8.742
59.38000 4.247
59.40000 2.972
59.42000 2.150
59.44000 -2.042
59.46000 3.090
59.48000 2.945
59.50000 7.920
59.52000 5.745
59.54000 -1.616
59.56000 -0.537
59.58000 2.290
59.60000 -0.313
59.62000 0.878
59.64000 1.516
59.66000 0.029
59.68000 0.035
59.70000 -2.497
59.72000 0.988
59.74000 2.392
59.76000 1.835
59.78000 2.957
59.80000 0.692
59.82000 7.367
59.84000 4.895
59.86000 2.493
59.88000 1.153
59.90000 2.145
59.92000 0.848
59.94000 -1.907
59.96000 5.527
59.98000 0.440
60.00000 -0.473
60.02000 1.955
60.04000 4.420
60.06000 0.761
60.08000 3.889
60.10000 -0.669
60.12000 -2.482
60.14000 -0.471
60.16000 3.747
60.18000 3.342
60.20000 0.173
60.22000 -0.345
60.24000 2.340
60.26000 3.194
60.28000 2.180
60.30000 5.565
60.32000 0.020
60.34000 0.069
60.36000 -1.563
60.38000 -0.260
60.40000 -1.742
60.42000 -0.300
60.44000 3.737
60.46000 1.280
60.48000 1.063
60.50000 4.593
60.52000 0.504
60.54000 1.638
60.56000 3.026
60.58000 3.032
60.60000 2.998
60.62000 1.080
60.64000 3.039
60.66000 3.837
60.68000 -0.120
60.70000 -2.481
60.72000 -1.586
60.74000 2.619
60.76000 2.389
60.78000 3.140
60.80000 2.371
60.82000 0.000
60.84000 1.465
60.86000 1.038
60.88000 0.290
60.90000 -0.114
60.92000 2.346
60.94000 5.226
60.96000 5.060
60.98000 -0.545
61.00000 -0.696
61.02000 3.047
61.04000 4.042
61.06000 3.122
61.08000 1.238
61.10000 2.386
61.12000 -0.647
61.14000 3.550
61.16000 2.999
61.18000 1.633
61.20000 -1.647
61.22000 1.385
61.24000 3.949
61.26000 1.798
61.28000 1.590
61.30000 4.803
61.32000 7.506
61.34000 2.992
61.36000 -1.993
61.38000 1.577
61.40000 1.765
61.42000 3.109
61.44000 6.888
61.46000 6.665
61.48000 0.131
61.50000 2.152
61.52000 5.308
61.54000 3.371
61.56000 0.762
61.58000 0.877
61.60000 1.148
61.62000 3.013
61.64000 4.129
61.66000 4.043
61.68000 0.059
61.70000 4.606
61.72000 4.070
61.74000 6.182
61.76000 7.214
61.78000 7.267
61.80000 2.683
61.82000 4.777
61.84000 1.150
61.86000 0.297
61.88000 4.577
61.90000 2.462
61.92000 1.827
61.94000 4.460
61.96000 6.097
61.98000 4.777
62.00000 2.608
62.02000 2.713
62.04000 4.723
62.06000 3.446
62.08000 -2.401
62.10000 6.837
62.12000 7.430
62.14000 5.098
62.16000 5.069
62.18000 3.556
62.20000 5.686
62.22000 3.348
62.24000 0.111
62.26000 0.568
62.28000 4.498
62.30000 1.325
62.32000 1.620
62.34000 3.516
62.36000 3.674
62.38000 2.907
62.40000 3.999
62.42000 6.427
62.44000 2.462
62.46000 -0.415
62.48000 -2.227
62.50000 3.150
62.52000 5.887
62.54000 1.987
62.56000 0.960
62.58000 0.391
62.60000 3.450
62.62000 1.183
62.64000 3.978
62.66000 2.486
62.68000 -0.425
62.70000 4.726
62.72000 5.505
62.74000 4.623
62.76000 4.186
62.78000 4.394
62.80000 0.976
62.82000 1.146
62.84000 4.012
62.86000 1.573
62.88000 -1.353
62.90000 4.207
62.92000 3.088
62.94000 0.061
62.96000 6.052
62.98000 4.350
63.00000 -2.435
63.02000 0.403
63.04000 4.309
63.06000 2.533
63.08000 1.117
63.10000 -1.706
63.12000 4.014
63.14000 4.904
63.16000 -0.608
63.18000 -0.233
63.20000 0.362
63.22000 1.489
63.24000 -1.463
63.26000 0.054
63.28000 -0.127
63.30000 2.410
63.32000 3.740
63.34000 0.910
63.36000 -1.537
63.38000 -0.422
63.40000 0.111
63.42000 2.546
63.44000 1.790
63.46000 1.007
63.48000 -1.419
63.50000 0.034
63.52000 1.567
63.54000 -1.073
63.56000 -0.140
63.58000 -0.012
63.60000 0.231
63.62000 -0.631
63.64000 0.186
63.66000 1.445
63.68000 -0.826
63.70000 -0.984
63.72000 -2.212
63.74000 -0.115
63.76000 2.635
63.78000 0.511
63.80000 1.648
63.82000 3.487
63.84000 3.236
63.86000 4.881
63.88000 2.934
63.90000 1.775
63.92000 0.831
63.94000 -0.300
63.96000 -0.315
63.98000 2.556
64.00000 1.960
64.02000 0.987
64.04000 1.865
64.06000 3.377
64.08000 1.165
64.10000 -2.424
64.12000 -0.008
64.14000 1.026
64.16000 4.215
64.18000 4.453
64.20000 1.113
64.22000 0.653
64.24000 2.542
64.26000 5.874
64.28000 6.359
64.30000 5.005
64.32000 4.672
64.34000 3.300
64.36000 4.496
64.38000 2.748
64.40000 3.563
64.42000 7.899
64.44000 6.191
64.46000 4.913
64.48000 3.896
64.50000 7.090
64.52000 3.481
64.54000 -2.410
64.56000 -0.473
64.58000 1.952
64.60000 -2.409
64.62000 0.717
64.64000 -0.234
64.66000 1.220
64.68000 3.195
64.70000 2.419
64.72000 -1.300
64.74000 4.992
64.76000 6.093
64.78000 2.328
64.80000 -0.211
64.82000 0.131
64.84000 4.777
64.86000 4.520
64.88000 4.359
64.90000 2.769
64.92000 1.071
64.94000 0.067
64.96000 2.135
64.98000 3.283
65.00000 3.378
65.02000 2.327
65.04000 3.814
65.06000 3.339
65.08000 2.107
65.10000 3.011
65.12000 4.036
65.14000 3.851
65.16000 1.709
65.18000 2.415
65.20000 2.177
65.22000 -1.427
65.24000 -0.533
65.26000 -1.427
65.28000 4.265
65.30000 1.062
65.32000 -1.052
65.34000 1.917
65.36000 2.795
65.38000 1.249
65.40000 2.567
65.42000 4.084
65.44000 2.675
65.46000 1.778
65.48000 -0.958
65.50000 -1.656
65.52000 1.476
65.54000 1.694
65.56000 2.578
65.58000 3.238
65.60000 1.508
65.62000 -1.907
65.64000 0.948
65.66000 -0.620
65.68000 -2.445
65.70000 -0.256
65.72000 1.750
65.74000 4.383
65.76000 7.434
65.78000 3.361
65.80000 1.993
65.82000 1.566
65.84000 2.206
65.86000 2.381
65.88000 7.175
65.90000 6.676
65.92000 6.991
65.94000 2.806
65.96000 -0.594
65.98000 -0.154
66.00000 1.919
66.02000 0.876
66.04000 1.404
66.06000 2.049
66.08000 1.496
66.10000 2.687
66.12000 0.554
66.14000 -0.582
66.16000 -1.470
66.18000 3.500
66.20000 6.374
66.22000 2.114
66.24000 0.242
66.26000 1.676
66.28000 -1.255
66.30000 -2.433
66.32000 1.585
66.34000 1.993
66.36000 0.644
66.38000 2.618
66.40000 3.750
66.42000 4.199
66.44000 3.560
66.46000 3.341
66.48000 4.287
66.50000 4.027
66.52000 -0.977
66.54000 2.037
66.56000 4.156
66.58000 0.570
66.60000 -0.298
66.62000 2.872
66.64000 -1.262
66.66000 -2.354
66.68000 0.150
66.70000 2.389
66.72000 2.364
66.74000 0.339
66.76000 -0.162
66.78000 -0.884
66.80000 3.728
66.82000 2.214
66.84000 0.616
66.86000 2.129
66.88000 1.790
66.90000 2.583
66.92000 3.469
66.94000 1.791
66.96000 0.025
66.98000 1.759
67.00000 1.273
67.02000 -1.990
67.04000 -0.777
67.06000 1.662
67.08000 2.664
67.10000 1.903
67.12000 0.291
67.14000 -0.957
67.16000 -0.023
67.18000 0.397
67.20000 0.620
67.22000 0.846
67.24000 -1.727
67.26000 0.756
67.28000 2.224
67.30000 3.050
67.32000 1.033
67.34000 -0.410
67.36000 0.469
67.38000 -2.420
67.40000 1.840
67.42000 -2.324
67.44000 -1.343
67.46000 -2.536
67.48000 -1.391
67.50000 4.297
67.52000 3.375
67.54000 -1.044
67.56000 3.864
67.58000 6.126
67.60000 6.312
67.62000 5.032
67.64000 4.051
67.66000 3.040
67.68000 3.985
67.70000 2.132
67.72000 3.445
67.74000 3.981
67.76000 5.854
67.78000 5.628
67.80000 4.255
67.82000 1.704
67.84000 2.898
67.86000 4.123
67.88000 4.373
67.90000 2.979
67.92000 1.138
67.94000 3.882
67.96000 5.987
67.98000 7.065
68.00000 4.461
68.02000 4.068
68.04000 5.607
68.06000 10.570
68.08000 7.403
68.10000 6.176
68.12000 6.262
68.14000 9.150
68.16000 8.248
68.18000 8.045
68.20000 9.505
68.22000 10.382
68.24000 12.115
68.26000 7.365
68.28000 12.496
68.30000 16.661
68.32000 13.612
68.34000 12.931
68.36000 15.138
68.38000 11.426
68.40000 12.107
68.42000 13.471
68.44000 14.282
68.46000 13.720
68.48000 18.077
68.50000 18.209
68.52000 18.625
68.54000 19.846
68.56000 21.073
68.58000 20.181
68.60000 15.453
68.62000 16.204
68.64000 18.506
68.66000 19.176
68.68000 20.788
68.70000 22.895
68.72000 23.926
68.74000 23.594
68.76000 21.650
68.78000 22.521
68.80000 20.824
68.82000 17.847
68.84000 18.529
68.86000 20.446
68.88000 24.243
68.90000 23.652
68.92000 21.439
68.94000 19.963
68.96000 20.038
68.98000 19.685
69.00000 20.760
69.02000 21.393
69.04000 17.587
69.06000 13.824
69.08000 18.724
69.10000 23.810
69.12000 19.903
69.14000 18.958
69.16000 16.078
69.18000 14.813
69.20000 14.421
69.22000 17.049
69.24000 18.095
69.26000 17.749
69.28000 14.073
69.30000 15.093
69.32000 12.649
69.34000 8.726
69.36000 9.420
69.38000 11.327
69.40000 12.256
69.42000 10.180
69.44000 8.897
69.46000 9.502
69.48000 11.407
69.50000 10.484
69.52000 8.402
69.54000 7.386
69.56000 5.681
69.58000 9.215
69.60000 8.697
69.62000 6.664
69.64000 8.537
69.66000 10.947
69.68000 6.677
69.70000 5.953
69.72000 1.715
69.74000 0.061
69.76000 0.730
69.78000 5.979
69.80000 1.578
69.82000 4.810
69.84000 5.332
69.86000 5.458
69.88000 3.442
69.90000 1.759
69.92000 0.676
69.94000 0.076
69.96000 0.343
69.98000 2.305
70.00000 2.524
70.02000 -0.008
70.04000 2.663
70.06000 4.358
70.08000 0.846
70.10000 2.954
70.12000 6.169
70.14000 4.662
70.16000 3.302
70.18000 2.472
70.20000 1.004
70.22000 -1.404
70.24000 1.931
70.26000 -0.109
70.28000 -1.769
70.30000 -1.629
70.32000 1.110
70.34000 2.860
70.36000 2.694
70.38000 -1.367
70.40000 -2.396
70.42000 3.311
70.44000 2.269
70.46000 1.198
70.48000 0.891
70.50000 2.362
70.52000 1.021
70.54000 3.273
70.56000 -1.339
70.58000 0.714
70.60000 1.874
70.62000 2.585
70.64000 2.774
70.66000 5.511
70.68000 4.751
70.70000 2.402
70.72000 2.312
70.74000 -0.480
70.76000 -1.342
70.78000 -2.365
70.80000 -2.076
70.82000 -0.485
70.84000 -0.375
70.86000 1.318
70.88000 0.013
70.90000 2.590
70.92000 2.740
70.94000 2.737
70.96000 0.874
70.98000 -1.153
71.00000 2.499
71.02000 4.123
71.04000 0.577
71.06000 2.611
71.08000 3.577
71.10000 1.968
71.12000 3.758
71.14000 1.498
71.16000 1.022
71.18000 2.197
71.20000 3.824
71.22000 3.883
71.24000 3.477
71.26000 1.798
71.28000 0.515
71.30000 -2.329
71.32000 1.511
71.34000 4.360
71.36000 1.864
71.38000 0.272
71.40000 0.684
71.42000 0.819
71.44000 2.854
71.46000 2.009
71.48000 0.256
71.50000 2.817
71.52000 4.935
71.54000 2.991
71.56000 2.193
71.58000 2.074
71.60000 4.327
71.62000 4.978
71.64000 4.971
71.66000 4.546
71.68000 4.299
71.70000 4.798
71.72000 4.410
71.74000 7.856
71.76000 5.259
71.78000 7.487
71.80000 3.877
71.82000 1.969
71.84000 3.183
71.86000 6.062
71.88000 4.636
71.90000 0.098
71.92000 2.818
71.94000 3.500
71.96000 4.719
71.98000 6.321
72.00000 0.205
72.02000 -2.298
72.04000 -1.669
72.06000 3.101
72.08000 3.387
72.10000 -0.626
72.12000 2.535
72.14000 2.165
72.16000 0.550
72.18000 1.641
72.20000 1.700
72.22000 0.634
72.24000 -2.033
72.26000 -2.293
72.28000 -2.102
72.30000 0.031
72.32000 1.535
72.34000 5.354
72.36000 3.586
72.38000 1.389
72.40000 2.650
72.42000 1.004
72.44000 1.560
72.46000 3.076
72.48000 6.572
72.50000 3.725
72.52000 -0.397
72.54000 -0.611
72.56000 4.853
72.58000 2.823
72.60000 4.155
72.62000 4.385
72.64000 4.161
72.66000 2.987
72.68000 1.653
72.70000 1.158
72.72000 1.128
72.74000 1.811
72.76000 2.093
72.78000 2.166
72.80000 1.137
72.82000 0.503
72.84000 0.995
72.86000 -0.810
72.88000 2.284
72.90000 3.294
72.92000 -1.690
72.94000 -0.495
72.96000 3.594
72.98000 6.371
73.00000 1.986
73.02000 -2.266
73.04000 2.517
73.06000 2.068
73.08000 2.599
73.10000 0.773
73.12000 2.290
73.14000 4.230
73.16000 5.081
73.18000 2.781
73.20000 6.216
73.22000 5.221
73.24000 5.484
73.26000 5.275
73.28000 6.850
73.30000 0.830
73.32000 -0.126
73.34000 -0.385
73.36000 1.293
73.38000 4.845
73.40000 4.309
73.42000 4.429
73.44000 3.971
73.46000 1.538
73.48000 1.866
73.50000 0.202
73.52000 -0.067
73.54000 1.105
73.56000 2.918
73.58000 1.177
73.60000 -1.035
73.62000 -0.959
73.64000 1.780
73.66000 1.855
73.68000 2.176
73.70000 -0.087
73.72000 -2.261
73.74000 2.363
73.76000 7.554
73.78000 2.692
73.80000 4.837
73.82000 3.432
73.84000 3.725
73.86000 1.001
73.88000 1.151
73.90000 2.361
73.92000 0.878
73.94000 -0.997
73.96000 1.527
73.98000 0.021
74.00000 4.026
74.02000 3.636
74.04000 7.703
74.06000 0.952
74.08000 2.428
74.10000 5.845
74.12000 6.851
74.14000 6.361
74.16000 3.957
74.18000 1.314
74.20000 1.934
74.22000 0.563
74.24000 0.181
74.26000 1.513
74.28000 2.877
74.30000 1.399
74.32000 -2.252
74.34000 -1.461
74.36000 -0.180
74.38000 0.111
74.40000 3.294
74.42000 2.555
74.44000 0.294
74.46000 1.021
74.48000 0.009
74.50000 3.490
74.52000 -2.249
74.54000 -0.693
74.56000 -0.705
74.58000 3.553
74.60000 2.968
74.62000 0.978
74.64000 -0.801
74.66000 0.403
74.68000 2.003
74.70000 0.593
74.72000 1.271
74.74000 0.076
74.76000 7.363
74.78000 9.421
74.80000 5.943
74.82000 4.622
74.84000 5.137
74.86000 -0.334
74.88000 -0.937
74.90000 1.912
74.92000 -2.194
74.94000 -0.473
74.96000 1.687
74.98000 2.511
75.00000 0.820
75.02000 -1.783
75.04000 0.956
75.06000 4.356
75.08000 3.766
75.10000 5.864
75.12000 5.043
75.14000 3.074
75.16000 3.720
75.18000 1.534
75.20000 4.986
75.22000 0.468
75.24000 1.103
75.26000 0.037
75.28000 -2.213
75.30000 2.087
75.32000 4.937
75.34000 5.512
75.36000 6.218
75.38000 6.917
75.40000 7.364
75.42000 -0.771
75.44000 2.193
75.46000 3.697
75.48000 4.291
75.50000 5.052
75.52000 4.239
75.54000 3.470
75.56000 3.735
75.58000 2.922
75.60000 6.247
75.62000 11.095
75.64000 8.451
75.66000 5.708
75.68000 5.412
75.70000 3.323
75.72000 2.018
75.74000 3.895
75.76000 2.983
75.78000 3.697
75.80000 6.241
75.82000 3.171
75.84000 1.590
75.86000 4.252
75.88000 5.795
75.90000 7.068
75.92000 7.966
75.94000 5.714
75.96000 6.586
75.98000 4.859
76.00000 1.325
76.02000 -2.213
76.04000 0.573
76.06000 4.755
76.08000 4.961
76.10000 9.007
76.12000 5.203
76.14000 6.745
76.16000 5.413
76.18000 6.657
76.20000 0.782
76.22000 1.357
76.24000 3.225
76.26000 1.096
76.28000 1.553
76.30000 0.684
76.32000 2.692
76.34000 -2.227
76.36000 -0.711
76.38000 1.113
76.40000 3.207
76.42000 -0.134
76.44000 1.471
76.46000 3.903
76.48000 6.131
76.50000 4.102
76.52000 3.382
76.54000 0.963
76.56000 6.351
76.58000 6.463
76.60000 3.444
76.62000 4.540
76.64000 3.829
76.66000 10.275
76.68000 4.303
76.70000 0.417
76.72000 3.243
76.74000 4.575
76.76000 2.371
76.78000 -0.079
76.80000 -0.584
76.82000 4.118
76.84000 -0.106
76.86000 -0.456
76.88000 4.442
76.90000 6.138
76.92000 6.736
76.94000 4.251
76.96000 2.998
76.98000 1.679
77.00000 2.621
77.02000 1.959
77.04000 -0.102
77.06000 -2.254
77.08000 -0.514
77.10000 3.466
77.12000 3.910
77.14000 4.557
77.16000 7.283
77.18000 9.145
77.20000 2.518
77.22000 0.505
77.24000 3.498
77.26000 3.484
77.28000 3.116
77.30000 3.606
77.32000 5.488
77.34000 5.697
77.36000 3.380
77.38000 4.037
77.40000 2.004
77.42000 2.480
77.44000 4.022
77.46000 3.037
77.48000 -0.227
77.50000 3.968
77.52000 3.013
77.54000 -0.045
77.56000 -1.194
77.58000 3.904
77.60000 4.719
77.62000 -1.325
77.64000 0.720
77.66000 -1.293
77.68000 -1.009
77.70000 0.494
77.72000 3.608
77.74000 4.199
77.76000 2.680
77.78000 4.238
77.80000 3.310
77.82000 2.671
77.84000 -2.267
77.86000 -1.401
77.88000 0.890
77.90000 5.029
77.92000 1.111
77.94000 -1.984
77.96000 0.515
77.98000 0.363
78.00000 3.097
78.02000 5.102
78.04000 2.652
78.06000 1.422
78.08000 -0.447
78.10000 5.922
78.12000 1.512
78.14000 1.573
78.16000 1.107
78.18000 2.692
78.20000 4.360
78.22000 1.761
78.24000 1.958
78.26000 0.790
78.28000 -2.298
78.30000 -1.039
78.32000 1.482
78.34000 0.087
78.36000 2.405
78.38000 1.277
78.40000 -0.224
78.42000 1.781
78.44000 -0.856
78.46000 -1.194
78.48000 0.053
78.50000 1.994
78.52000 1.723
78.54000 -2.227
78.56000 1.149
78.58000 -0.867
78.60000 0.160
78.62000 -0.137
78.64000 -0.602
78.66000 1.979
78.68000 4.211
78.70000 3.423
78.72000 3.420
78.74000 2.727
78.76000 -0.560
78.78000 -0.131
78.80000 1.373
78.82000 -2.214
78.84000 -0.791
78.86000 3.653
78.88000 4.426
78.90000 -0.850
78.92000 -2.324
78.94000 -2.140
78.96000 1.495
78.98000 1.079
79.00000 -0.934
79.02000 -0.343
79.04000 3.142
79.06000 2.800
79.08000 1.488
79.10000 1.524
79.12000 3.086
79.14000 3.388
79.16000 3.926
79.18000 1.039
79.20000 0.716
79.22000 0.913
79.24000 1.555
79.26000 6.113
79.28000 4.025
79.30000 0.732
79.32000 1.241
79.34000 -1.137
79.36000 2.570
79.38000 1.517
79.40000 -0.191
79.42000 -1.101
79.44000 -2.329
79.46000 0.898
79.48000 1.507
79.50000 2.075
79.52000 -0.242
79.54000 -0.072
79.56000 0.874
79.58000 0.423
79.60000 0.309
79.62000 -0.887
79.64000 -2.042
79.66000 4.449
79.68000 3.326
79.70000 3.476
79.72000 0.528
79.74000 3.795
79.76000 0.725
79.78000 -2.329
79.80000 1.839
79.82000 5.059
79.84000 0.109
79.86000 0.434
79.88000 4.702
79.90000 3.190
79.92000 -1.989
79.94000 -0.619
79.96000 -1.156
79.98000 0.257
80.00000 2.004
80.02000 1.916
80.04000 1.662
80.06000 -1.737
80.08000 -2.342
80.10000 1.135
80.12000 2.848
80.14000 2.023
80.16000 3.037
80.18000 3.205
80.20000 2.704
80.22000 -0.781
80.24000 -0.855
80.26000 2.890
80.28000 3.625
80.30000 5.720
80.32000 2.645
80.34000 -0.257
80.36000 -0.649
80.38000 2.168
80.40000 0.597
80.42000 1.073
80.44000 2.885
80.46000 1.011
80.48000 -0.618
80.50000 -1.433
80.52000 0.531
80.54000 4.329
80.56000 0.054
80.58000 -1.363
80.60000 3.976
80.62000 2.780
80.64000 2.888
80.66000 2.780
80.68000 1.297
80.70000 0.846
80.72000 -1.802
80.74000 -1.631
80.76000 0.981
80.78000 -2.217
80.80000 1.557
80.82000 4.245
80.84000 5.841
80.86000 6.303
80.88000 8.795
80.90000 1.920
80.92000 1.881
80.94000 2.440
80.96000 0.917
80.98000 -0.696
81.00000 2.708
81.02000 3.282
81.04000 0.721
81.06000 -1.193
81.08000 -2.387
81.10000 -1.744
81.12000 -1.747
81.14000 0.657
81.16000 3.079
81.18000 6.420
81.20000 4.842
81.22000 1.874
81.24000 3.766
81.26000 6.957
81.28000 5.659
81.30000 4.349
81.32000 2.103
81.34000 4.200
81.36000 2.963
81.38000 0.430
81.40000 1.286
81.42000 3.514
81.44000 1.859
81.46000 1.459
81.48000 5.565
81.50000 2.468
81.52000 4.335
81.54000 7.960
81.56000 6.220
81.58000 3.202
81.60000 5.234
81.62000 8.593
81.64000 7.480
81.66000 7.830
81.68000 4.683
81.70000 2.715
81.72000 4.109
81.74000 2.285
81.76000 4.014
81.78000 3.510
81.80000 4.821
81.82000 5.760
81.84000 7.888
81.86000 10.853
81.88000 12.615
81.90000 9.934
81.92000 8.755
81.94000 9.231
81.96000 9.299
81.98000 8.810
82.00000 12.700
82.02000 10.953
82.04000 12.941
82.06000 13.859
82.08000 11.915
82.10000 10.024
82.12000 12.246
82.14000 16.740
82.16000 17.306
82.18000 16.634
82.20000 15.166
82.22000 11.486
82.24000 8.985
82.26000 11.516
82.28000 14.520
82.30000 15.337
82.32000 11.582
82.34000 15.025
82.36000 19.241
82.38000 15.213
82.40000 14.874
82.42000 18.665
82.44000 22.464
82.46000 19.777
82.48000 16.485
82.50000 16.313
82.52000 16.441
82.54000 20.760
82.56000 18.749
82.58000 18.017
82.60000 19.383
82.62000 20.630
82.64000 21.873
82.66000 22.109
82.68000 18.411
82.70000 20.838
82.72000 21.263
82.74000 21.484
82.76000 21.063
82.78000 22.387
82.80000 23.587
82.82000 27.996
82.84000 22.869
82.86000 23.573
82.88000 21.432
82.90000 24.730
82.92000 28.180
82.94000 25.483
82.96000 32.376
82.98000 32.449
83.00000 28.509
83.02000 24.271
83.04000 25.075
83.06000 29.455
83.08000 28.584
83.10000 27.636
83.12000 26.815
83.14000 28.024
83.16000 31.375
83.18000 30.281
83.20000 29.191
83.22000 25.933
83.24000 25.521
83.26000 28.200
83.28000 28.780
83.30000 27.926
83.32000 25.543
83.34000 21.756
83.36000 22.093
83.38000 21.305
83.40000 25.019
83.42000 24.110
83.44000 26.551
83.46000 27.388
83.48000 25.525
83.50000 19.958
83.52000 19.349
83.54000 18.354
83.56000 19.751
83.58000 17.989
83.60000 16.429
83.62000 19.969
83.64000 18.256
83.66000 17.314
83.68000 15.195
83.70000 13.388
83.72000 19.087
83.74000 18.861
83.76000 16.929
83.78000 13.774
83.80000 10.054
83.82000 9.871
83.84000 13.390
83.86000 14.815
83.88000 14.571
83.90000 15.085
83.92000 13.771
83.94000 10.815
83.96000 10.547
83.98000 7.866
84.00000 5.795
84.02000 8.496
84.04000 4.370
84.06000 7.862
84.08000 9.390
84.10000 12.796
84.12000 11.059
84.14000 8.553
84.16000 4.950
84.18000 4.421
84.20000 3.467
84.22000 4.426
84.24000 9.291
84.26000 3.100
84.28000 2.570
84.30000 4.009
84.32000 4.902
84.34000 5.760
84.36000 5.707
84.38000 4.751
84.40000 2.182
84.42000 1.360
84.44000 2.491
84.46000 4.866
84.48000 4.030
84.50000 2.159
84.52000 1.217
84.54000 2.393
84.56000 4.398
84.58000 3.648
84.60000 6.924
84.62000 9.610
84.64000 4.134
84.66000 1.756
84.68000 -2.140
84.70000 -0.631
84.72000 -0.322
84.74000 0.514
84.76000 4.625
84.78000 1.618
84.80000 4.115
84.82000 1.454
84.84000 -0.754
84.86000 -2.023
84.88000 -0.277
84.90000 2.782
84.92000 4.875
84.94000 3.609
84.96000 3.845
84.98000 1.088
85.00000 0.325
85.02000 5.745
85.04000 2.161
85.06000 3.924
85.08000 5.939
85.10000 4.633
85.12000 -0.270
85.14000 -1.711
85.16000 1.206
85.18000 2.443
85.20000 4.263
85.22000 1.052
85.24000 0.964
85.26000 2.478
85.28000 0.708
85.30000 -0.944
85.32000 1.780
85.34000 -0.674
85.36000 -2.308
85.38000 1.286
85.40000 -0.170
85.42000 -1.725
85.44000 1.407
85.46000 0.253
85.48000 4.684
85.50000 3.598
85.52000 1.234
85.54000 1.466
85.56000 2.734
85.58000 -0.742
85.60000 2.035
85.62000 4.781
85.64000 -0.426
85.66000 0.334
85.68000 2.433
85.70000 -0.102
85.72000 -0.542
85.74000 3.511
85.76000 0.054
85.78000 2.551
85.80000 2.514
85.82000 0.622
85.84000 0.894
85.86000 0.390
85.88000 3.568
85.90000 5.281
85.92000 8.165
85.94000 5.871
85.96000 -2.295
85.98000 -1.877
86.00000 0.166
86.02000 0.542
86.04000 5.324
86.06000 3.763
86.08000 5.110
86.10000 6.423
86.12000 5.850
86.14000 7.469
86.16000 6.536
86.18000 4.390
86.20000 -1.743
86.22000 2.265
86.24000 2.709
86.26000 5.266
86.28000 5.920
86.30000 2.440
86.32000 0.457
86.34000 5.040
86.36000 5.383
86.38000 2.823
86.40000 3.285
86.42000 3.216
86.44000 2.678
86.46000 1.084
86.48000 0.671
86.50000 3.085
86.52000 4.337
86.54000 4.194
86.56000 4.773
86.58000 5.809
86.60000 5.300
86.62000 5.434
86.64000 7.348
86.66000 7.441
86.68000 5.470
86.70000 8.046
86.72000 6.172
86.74000 8.572
86.76000 8.941
86.78000 6.357
86.80000 9.506
86.82000 9.274
86.84000 10.396
86.86000 9.092
86.88000 8.170
86.90000 8.402
86.92000 6.865
86.94000 7.081
86.96000 12.311
86.98000 9.706
87.00000 13.717
87.02000 15.115
87.04000 12.624
87.06000 10.072
87.08000 9.766
87.10000 9.059
87.12000 14.757
87.14000 12.812
87.16000 7.028
87.18000 9.532
87.20000 9.839
87.22000 13.579
87.24000 16.088
87.26000 9.239
87.28000 10.460
87.30000 13.886
87.32000 16.132
87.34000 17.929
87.36000 18.709
87.38000 18.333
87.40000 17.882
87.42000 16.417
87.44000 13.637
87.46000 13.801
87.48000 21.361
87.50000 24.903
87.52000 21.479
87.54000 16.902
87.56000 17.271
87.58000 18.615
87.60000 17.912
87.62000 22.278
87.64000 22.024
87.66000 16.041
87.68000 14.621
87.70000 16.462
87.72000 20.402
87.74000 16.105
87.76000 14.737
87.78000 13.378
87.80000 9.741
87.82000 14.015
87.84000 15.368
87.86000 18.209
87.88000 16.874
87.90000 15.156
87.92000 13.035
87.94000 13.307
87.96000 12.008
87.98000 9.948
88.00000 9.372
88.02000 12.389
88.04000 12.500
88.06000 15.295
88.08000 8.887
88.10000 8.001
88.12000 10.853
88.14000 5.980
88.16000 6.520
88.18000 10.179
88.20000 5.879
88.22000 6.439
88.24000 9.829
88.26000 9.342
88.28000 7.470
88.30000 4.705
88.32000 6.082
88.34000 5.389
88.36000 5.395
88.38000 7.944
88.40000 4.280
88.42000 8.320
88.44000 5.320
88.46000 7.653
88.48000 4.887
88.50000 1.514
88.52000 2.399
88.54000 5.863
88.56000 6.648
88.58000 3.391
88.60000 0.107
88.62000 6.939
88.64000 7.468
88.66000 4.950
88.68000 4.455
88.70000 5.621
88.72000 10.444
88.74000 3.645
88.76000 -1.238
88.78000 1.848
88.80000 -0.007
88.82000 1.391
88.84000 1.317
88.86000 1.095
88.88000 4.538
88.90000 5.234
88.92000 3.277
88.94000 4.380
88.96000 5.273
88.98000 7.519
89.00000 8.149
89.02000 6.336
89.04000 0.831
89.06000 -2.226
89.08000 0.106
89.10000 0.333
89.12000 0.714
89.14000 3.305
89.16000 1.160
89.18000 1.243
89.20000 3.514
89.22000 0.989
89.24000 3.254
89.26000 2.335
89.28000 5.735
89.30000 6.015
89.32000 3.524
89.34000 -1.444
89.36000 -0.841
89.38000 2.726
89.40000 2.285
89.42000 -0.543
89.44000 -0.968
89.46000 0.623
89.48000 1.876
89.50000 2.196
89.52000 -1.068
89.54000 -2.087
89.56000 2.560
89.58000 0.594
89.60000 -0.846
89.62000 -1.231
89.64000 -0.912
89.66000 -2.192
89.68000 -1.905
89.70000 0.576
89.72000 2.307
89.74000 -0.491
89.76000 -1.247
89.78000 0.398
89.80000 0.119
89.82000 0.127
89.84000 0.097
89.86000 3.966
89.88000 3.089
89.90000 3.595
89.92000 2.327
89.94000 2.754
89.96000 2.126
89.98000 1.075
90.00000 2.186
90.02000 3.889
90.04000 3.038
90.06000 0.550
90.08000 0.908
90.10000 5.225
90.12000 5.006
90.14000 2.093
90.16000 -2.153
90.18000 0.959
90.20000 6.158
90.22000 3.529
90.24000 3.076
90.26000 1.451
90.28000 0.421
90.30000 -1.196
90.32000 -0.678
90.34000 -2.154
90.36000 0.370
90.38000 1.820
90.40000 2.449
90.42000 1.262
90.44000 1.654
90.46000 0.439
90.48000 1.781
90.50000 0.277
90.52000 0.970
90.54000 2.581
90.56000 1.979
90.58000 3.379
90.60000 5.169
90.62000 4.038
90.64000 4.169
90.66000 5.539
90.68000 3.480
90.70000 4.655
90.72000 0.437
90.74000 2.994
90.76000 1.169
90.78000 -1.524
90.80000 2.851
90.82000 2.115
90.84000 4.558
90.86000 0.007
90.88000 4.907
90.90000 5.724
90.92000 4.301
90.94000 -0.931
90.96000 2.412
90.98000 3.615
91.00000 1.614
91.02000 1.381
91.04000 3.249
91.06000 1.869
91.08000 0.649
91.10000 -1.270
91.12000 -0.136
91.14000 2.170
91.16000 2.658
91.18000 1.605
91.20000 3.354
91.22000 2.581
91.24000 3.165
91.26000 2.545
91.28000 4.115
91.30000 2.483
91.32000 -0.442
91.34000 -2.129
91.36000 2.986
91.38000 2.971
91.40000 0.224
91.42000 -2.129
91.44000 -1.734
91.46000 3.000
91.48000 4.805
91.50000 6.115
91.52000 8.032
91.54000 4.256
91.56000 3.741
91.58000 2.337
91.60000 3.293
91.62000 -0.495
91.64000 0.445
91.66000 -0.854
91.68000 -1.628
91.70000 2.880
91.72000 3.282
91.74000 2.545
91.76000 4.591
91.78000 5.177
91.80000 4.732
91.82000 7.698
91.84000 1.110
91.86000 -0.909
91.88000 0.211
91.90000 -1.300
91.92000 -0.523
91.94000 -0.636
91.96000 3.310
91.98000 3.593
92.00000 4.453
92.02000 5.648
92.04000 0.663
92.06000 1.585
92.08000 1.750
92.10000 0.815
92.12000 2.231
92.14000 3.603
92.16000 7.912
92.18000 2.802
92.20000 -0.253
92.22000 4.355
92.24000 3.661
92.26000 0.271
92.28000 -2.132
92.30000 -0.090
92.32000 0.372
92.34000 2.625
92.36000 2.932
92.38000 1.166
92.40000 1.732
92.42000 1.433
92.44000 1.231
92.46000 3.917
92.48000 2.709
92.50000 5.088
92.52000 6.499
92.54000 3.499
92.56000 4.120
92.58000 10.545
92.60000 8.561
92.62000 5.203
92.64000 -1.007
92.66000 -1.758
92.68000 2.166
92.70000 7.532
92.72000 -0.669
92.74000 1.356
92.76000 -2.127
92.78000 1.547
92.80000 3.443
92.82000 1.168
92.84000 4.129
92.86000 5.441
92.88000 6.901
92.90000 3.296
92.92000 5.422
92.94000 4.806
92.96000 1.141
92.98000 -1.908
93.00000 1.551
93.02000 4.299
93.04000 5.137
93.06000 4.928
93.08000 6.389
93.10000 2.989
93.12000 6.457
93.14000 4.100
93.16000 3.492
93.18000 0.808
93.20000 3.713
93.22000 2.926
93.24000 4.231
93.26000 2.849
93.28000 2.442
93.30000 2.211
93.32000 0.781
93.34000 1.119
93.36000 -0.002
93.38000 3.608
93.40000 4.058
93.42000 2.385
93.44000 0.748
93.46000 -1.188
93.48000 4.749
93.50000 7.435
93.52000 0.757
93.54000 -0.737
93.56000 0.239
93.58000 -1.117
93.60000 0.755
93.62000 -0.204
93.64000 -2.137
93.66000 0.464
93.68000 4.438
93.70000 4.399
93.72000 4.802
93.74000 5.235
93.76000 2.483
93.78000 2.971
93.80000 3.846
93.82000 7.836
93.84000 3.461
93.86000 4.511
93.88000 5.479
93.90000 1.755
93.92000 0.466
93.94000 -2.127
93.96000 2.508
93.98000 3.281
94.00000 2.808
94.02000 3.875
94.04000 3.903
94.06000 5.261
94.08000 2.515
94.10000 6.740
94.12000 6.588
94.14000 2.977
94.16000 7.205
94.18000 9.159
94.20000 6.951
94.22000 2.647
94.24000 1.525
94.26000 4.527
94.28000 7.922
94.30000 5.790
94.32000 3.125
94.34000 3.354
94.36000 10.655
94.38000 8.553
94.40000 1.478
94.42000 -2.100
94.44000 1.896
94.46000 7.347
94.48000 4.294
94.50000 2.599
94.52000 0.896
94.54000 2.831
94.56000 4.187
94.58000 4.969
94.60000 6.605
94.62000 4.751
94.64000 7.573
94.66000 6.004
94.68000 4.718
94.70000 3.925
94.72000 2.827
94.74000 4.144
94.76000 3.449
94.78000 10.913
94.80000 7.630
94.82000 7.318
94.84000 6.457
94.86000 0.642
94.88000 -1.461
94.90000 0.637
94.92000 3.610
94.94000 3.556
94.96000 3.550
94.98000 4.681
95.00000 8.449
95.02000 6.168
95.04000 4.343
95.06000 3.179
95.08000 5.350
95.10000 8.014
95.12000 8.992
95.14000 2.297
95.16000 -0.237
95.18000 0.862
95.20000 5.596
95.22000 7.490
95.24000 7.089
95.26000 2.761
95.28000 3.672
95.30000 0.253
95.32000 0.288
95.34000 0.878
95.36000 2.427
95.38000 8.344
95.40000 8.741
95.42000 4.108
95.44000 1.707
95.46000 5.634
95.48000 7.633
95.50000 8.735
95.52000 11.066
95.54000 11.279
95.56000 7.712
95.58000 1.061
95.60000 3.012
95.62000 3.934
95.64000 0.140
95.66000 6.415
95.68000 1.507
95.70000 3.724
95.72000 5.189
95.74000 6.565
95.76000 2.561
95.78000 1.061
95.80000 4.289
95.82000 6.854
95.84000 2.942
95.86000 0.912
95.88000 2.512
95.90000 4.911
95.92000 7.447
95.94000 3.654
95.96000 5.314
95.98000 6.852
96.00000 4.197
96.02000 5.347
96.04000 6.813
96.06000 6.107
96.08000 2.708
96.10000 -2.104
96.12000 1.113
96.14000 9.189
96.16000 6.371
96.18000 2.202
96.20000 3.962
96.22000 2.379
96.24000 0.938
96.26000 2.904
96.28000 7.285
96.30000 5.351
96.32000 0.731
96.34000 2.021
96.36000 7.883
96.38000 5.508
96.40000 2.974
96.42000 3.402
96.44000 8.835
96.46000 5.690
96.48000 1.243
96.50000 -1.542
96.52000 -2.099
96.54000 1.290
96.56000 5.183
96.58000 6.825
96.60000 5.537
96.62000 3.946
96.64000 4.712
96.66000 10.109
96.68000 7.651
96.70000 6.661
96.72000 1.241
96.74000 1.082
96.76000 6.005
96.78000 8.071
96.80000 10.859
96.82000 9.696
96.84000 5.436
96.86000 4.316
96.88000 7.763
96.90000 6.490
96.92000 2.183
96.94000 7.698
96.96000 8.354
96.98000 7.725
97.00000 6.953
97.02000 4.376
97.04000 4.505
97.06000 1.491
97.08000 7.698
97.10000 6.666
97.12000 5.545
97.14000 7.520
97.16000 5.622
97.18000 2.341
97.20000 1.075
97.22000 -0.854
97.24000 3.036
97.26000 6.342
97.28000 6.018
97.30000 5.209
97.32000 3.901
97.34000 4.872
97.36000 6.521
97.38000 10.729
97.40000 11.124
97.42000 4.751
97.44000 0.703
97.46000 1.106
97.48000 3.599
97.50000 8.062
97.52000 4.314
97.54000 14.053
97.56000 11.752
97.58000 4.303
97.60000 3.441
97.62000 5.410
97.64000 4.172
97.66000 2.177
97.68000 3.960
97.70000 5.631
97.72000 7.878
97.74000 1.235
97.76000 3.114
97.78000 1.611
97.80000 4.800
97.82000 8.366
97.84000 11.623
97.86000 6.076
97.88000 8.772
97.90000 5.806
97.92000 1.929
97.94000 0.601
97.96000 3.071
97.98000 8.927
98.00000 1.366
98.02000 2.579
98.04000 4.701
98.06000 12.478
98.08000 8.449
98.10000 6.716
98.12000 3.298
98.14000 3.510
98.16000 0.768
98.18000 4.314
98.20000 4.353
98.22000 4.095
98.24000 10.175
98.26000 4.471
98.28000 -2.053
98.30000 3.337
98.32000 9.576
98.34000 7.244
98.36000 0.757
98.38000 6.998
98.40000 5.186
98.42000 8.258
98.44000 8.072
98.46000 9.418
98.48000 11.079
98.50000 7.379
98.52000 4.639
98.54000 7.920
98.56000 3.783
98.58000 6.561
98.60000 9.856
98.62000 8.371
98.64000 8.459
98.66000 6.450
98.68000 5.220
98.70000 3.398
98.72000 6.768
98.74000 10.422
98.76000 7.099
98.78000 3.704
98.80000 5.604
98.82000 6.961
98.84000 14.632
98.86000 7.915
98.88000 8.290
98.90000 7.691
98.92000 8.375
98.94000 2.983
98.96000 4.778
98.98000 5.036
99.00000 1.802
99.02000 8.832
99.04000 15.963
99.06000 11.335
99.08000 9.477
99.10000 4.969
99.12000 5.549
99.14000 6.027
99.16000 5.133
99.18000 4.451
99.20000 0.765
99.22000 -2.036
99.24000 5.269
99.26000 11.475
99.28000 6.271
99.30000 1.960
99.32000 -0.117
99.34000 6.736
99.36000 10.786
99.38000 11.461
99.40000 8.769
99.42000 5.730
99.44000 5.483
99.46000 4.033
99.48000 -0.174
99.50000 7.041
99.52000 4.411
99.54000 3.695
99.56000 1.408
99.58000 2.239
99.60000 5.499
99.62000 13.017
99.64000 10.612
99.66000 13.045
99.68000 5.110
99.70000 4.357
99.72000 -2.232
99.74000 5.832
99.76000 4.026
99.78000 5.867
99.80000 4.147
99.82000 -0.516
99.84000 1.567
99.86000 -2.150
99.88000 5.704
99.90000 0.161
99.92000 3.889
99.94000 5.354
99.96000 -0.274
99.98000 0.000
