'Id: "0011388" Comment: "Integrate frame 0011388_Au-Ir-Rh_Rh-rich_XRD-Mapping-082-0000.gfrmwith cursor Wedge Cursor #5" Operator: "B?rgel" Anode: "Cu" Wavelength: "1.5406" Scantype: "2Theta (TwoTheta)" TimePerStep: "1" X: "-9" Y: "-18" Z: "5.95" 
10.00000 0.000
10.02000 6.376
10.04000 11.712
10.06000 -0.085
10.08000 3.947
10.10000 2.557
10.12000 16.786
10.14000 15.869
10.16000 18.366
10.18000 19.475
10.20000 11.412
10.22000 12.215
10.24000 2.069
10.26000 -0.031
10.28000 3.655
10.30000 12.009
10.32000 5.812
10.34000 0.299
10.36000 3.266
10.38000 -2.846
10.40000 -5.086
10.42000 23.478
10.44000 30.676
10.46000 27.245
10.48000 29.547
10.50000 16.751
10.52000 22.121
10.54000 15.018
10.56000 16.534
10.58000 18.374
10.60000 23.716
10.62000 32.344
10.64000 29.655
10.66000 22.443
10.68000 19.241
10.70000 8.568
10.72000 11.592
10.74000 9.917
10.76000 13.227
10.78000 17.762
10.80000 16.314
10.82000 13.771
10.84000 13.203
10.86000 16.165
10.88000 22.721
10.90000 14.847
10.92000 2.524
10.94000 15.158
10.96000 23.248
10.98000 29.763
11.00000 22.442
11.02000 21.702
11.04000 19.709
11.06000 25.568
11.08000 16.401
11.10000 17.781
11.12000 23.719
11.14000 5.972
11.16000 -4.274
11.18000 13.944
11.20000 14.775
11.22000 22.594
11.24000 9.858
11.26000 21.434
11.28000 9.204
11.30000 6.239
11.32000 7.347
11.34000 13.565
11.36000 8.584
11.38000 17.359
11.40000 21.698
11.42000 5.231
11.44000 13.354
11.46000 17.427
11.48000 15.461
11.50000 12.468
11.52000 15.500
11.54000 16.373
11.56000 18.731
11.58000 18.966
11.60000 13.151
11.62000 13.214
11.64000 21.903
11.66000 19.355
11.68000 15.584
11.70000 13.056
11.72000 22.141
11.74000 13.833
11.76000 3.348
11.78000 17.055
11.80000 20.031
11.82000 14.549
11.84000 8.520
11.86000 14.790
11.88000 3.656
11.90000 3.044
11.92000 16.624
11.94000 10.791
11.96000 4.927
11.98000 19.358
12.00000 23.437
12.02000 14.583
12.04000 16.841
12.06000 6.627
12.08000 17.822
12.10000 19.130
12.12000 20.823
12.14000 9.046
12.16000 8.982
12.18000 11.017
12.20000 14.355
12.22000 15.512
12.24000 9.644
12.26000 12.141
12.28000 10.723
12.30000 6.978
12.32000 7.703
12.34000 4.265
12.36000 7.766
12.38000 16.509
12.40000 18.971
12.42000 15.041
12.44000 10.730
12.46000 0.249
12.48000 4.112
12.50000 16.655
12.52000 11.204
12.54000 11.008
12.56000 14.967
12.58000 11.966
12.60000 10.743
12.62000 14.506
12.64000 20.360
12.66000 23.263
12.68000 16.688
12.70000 13.563
12.72000 7.384
12.74000 9.974
12.76000 7.462
12.78000 17.045
12.80000 18.078
12.82000 8.183
12.84000 8.925
12.86000 13.618
12.88000 12.040
12.90000 19.224
12.92000 25.729
12.94000 19.009
12.96000 17.841
12.98000 19.417
13.00000 15.182
13.02000 12.758
13.04000 20.689
13.06000 14.609
13.08000 11.509
13.10000 13.402
13.12000 7.789
13.14000 23.121
13.16000 13.341
13.18000 7.411
13.20000 1.086
13.22000 8.419
13.24000 12.549
13.26000 12.456
13.28000 8.091
13.30000 12.791
13.32000 15.757
13.34000 12.260
13.36000 15.808
13.38000 17.381
13.40000 15.478
13.42000 14.612
13.44000 6.888
13.46000 13.220
13.48000 16.108
13.50000 10.365
13.52000 22.458
13.54000 20.827
13.56000 19.310
13.58000 13.935
13.60000 6.434
13.62000 5.545
13.64000 10.348
13.66000 19.815
13.68000 18.686
13.70000 11.616
13.72000 9.190
13.74000 10.500
13.76000 18.604
13.78000 15.181
13.80000 11.788
13.82000 5.300
13.84000 -2.150
13.86000 4.325
13.88000 18.415
13.90000 13.104
13.92000 4.827
13.94000 12.963
13.96000 14.337
13.98000 11.273
14.00000 7.923
14.02000 9.155
14.04000 12.708
14.06000 18.135
14.08000 14.633
14.10000 14.253
14.12000 16.642
14.14000 13.377
14.16000 8.713
14.18000 9.953
14.20000 8.926
14.22000 17.180
14.24000 16.041
14.26000 11.092
14.28000 9.674
14.30000 16.207
14.32000 4.494
14.34000 5.976
14.36000 2.660
14.38000 3.473
14.40000 13.967
14.42000 9.558
14.44000 16.535
14.46000 8.066
14.48000 0.056
14.50000 5.920
14.52000 11.640
14.54000 7.844
14.56000 5.852
14.58000 -0.876
14.60000 0.152
14.62000 2.693
14.64000 10.654
14.66000 17.541
14.68000 9.301
14.70000 1.862
14.72000 -0.451
14.74000 -0.075
14.76000 2.310
14.78000 12.276
14.80000 8.801
14.82000 8.650
14.84000 3.751
14.86000 6.368
14.88000 1.684
14.90000 7.734
14.92000 8.438
14.94000 0.852
14.96000 -4.425
14.98000 2.044
15.00000 9.454
15.02000 9.058
15.04000 6.765
15.06000 3.345
15.08000 5.771
15.10000 4.808
15.12000 14.377
15.14000 14.170
15.16000 17.005
15.18000 5.822
15.20000 2.063
15.22000 1.431
15.24000 6.060
15.26000 8.245
15.28000 8.243
15.30000 8.847
15.32000 9.714
15.34000 7.530
15.36000 12.441
15.38000 21.286
15.40000 9.324
15.42000 -0.455
15.44000 3.126
15.46000 1.507
15.48000 8.224
15.50000 14.996
15.52000 12.221
15.54000 1.994
15.56000 8.187
15.58000 4.175
15.60000 3.363
15.62000 3.322
15.64000 5.360
15.66000 6.373
15.68000 -1.866
15.70000 5.797
15.72000 9.188
15.74000 3.232
15.76000 -0.582
15.78000 8.408
15.80000 10.875
15.82000 12.317
15.84000 3.248
15.86000 5.289
15.88000 15.178
15.90000 18.313
15.92000 9.986
15.94000 0.935
15.96000 2.398
15.98000 3.539
16.00000 2.219
16.02000 5.903
16.04000 5.982
16.06000 0.383
16.08000 7.291
16.10000 7.546
16.12000 6.937
16.14000 2.458
16.16000 1.348
16.18000 5.842
16.20000 3.969
16.22000 5.896
16.24000 4.676
16.26000 8.257
16.28000 10.666
16.30000 4.595
16.32000 7.600
16.34000 1.551
16.36000 9.148
16.38000 10.472
16.40000 1.646
16.42000 6.362
16.44000 12.154
16.46000 12.809
16.48000 8.815
16.50000 8.480
16.52000 6.189
16.54000 3.887
16.56000 -0.197
16.58000 -1.836
16.60000 0.375
16.62000 2.972
16.64000 5.681
16.66000 10.925
16.68000 10.382
16.70000 9.364
16.72000 15.164
16.74000 12.001
16.76000 5.144
16.78000 -1.162
16.80000 1.313
16.82000 3.494
16.84000 9.953
16.86000 16.915
16.88000 10.575
16.90000 6.136
16.92000 13.350
16.94000 13.762
16.96000 2.831
16.98000 5.949
17.00000 7.813
17.02000 3.180
17.04000 2.053
17.06000 7.797
17.08000 1.921
17.10000 0.769
17.12000 2.372
17.14000 -1.946
17.16000 0.683
17.18000 3.043
17.20000 3.093
17.22000 12.383
17.24000 6.150
17.26000 1.405
17.28000 9.190
17.30000 5.827
17.32000 7.390
17.34000 1.697
17.36000 4.713
17.38000 1.769
17.40000 0.087
17.42000 1.092
17.44000 5.986
17.46000 10.878
17.48000 7.783
17.50000 6.942
17.52000 2.095
17.54000 9.028
17.56000 7.909
17.58000 3.403
17.60000 2.280
17.62000 6.176
17.64000 5.104
17.66000 7.606
17.68000 10.944
17.70000 21.171
17.72000 20.477
17.74000 18.239
17.76000 10.812
17.78000 9.766
17.80000 9.661
17.82000 8.519
17.84000 16.044
17.86000 6.754
17.88000 4.765
17.90000 7.862
17.92000 12.444
17.94000 6.859
17.96000 3.898
17.98000 2.059
18.00000 5.709
18.02000 6.324
18.04000 11.307
18.06000 12.265
18.08000 10.714
18.10000 8.381
18.12000 12.774
18.14000 11.541
18.16000 8.379
18.18000 10.252
18.20000 5.980
18.22000 4.468
18.24000 1.782
18.26000 -4.277
18.28000 -2.332
18.30000 3.339
18.32000 8.181
18.34000 9.507
18.36000 18.179
18.38000 9.272
18.40000 11.073
18.42000 11.228
18.44000 17.100
18.46000 14.497
18.48000 11.270
18.50000 9.335
18.52000 7.136
18.54000 8.847
18.56000 2.644
18.58000 6.120
18.60000 10.207
18.62000 5.603
18.64000 2.358
18.66000 9.253
18.68000 13.041
18.70000 13.684
18.72000 8.536
18.74000 4.948
18.76000 6.850
18.78000 9.116
18.80000 10.071
18.82000 14.871
18.84000 10.730
18.86000 14.989
18.88000 21.593
18.90000 17.573
18.92000 13.329
18.94000 8.414
18.96000 11.159
18.98000 14.332
19.00000 10.353
19.02000 2.827
19.04000 -4.221
19.06000 -0.520
19.08000 12.298
19.10000 11.089
19.12000 3.976
19.14000 3.683
19.16000 2.377
19.18000 5.343
19.20000 11.398
19.22000 4.989
19.24000 -0.975
19.26000 5.027
19.28000 17.939
19.30000 15.473
19.32000 14.162
19.34000 13.314
19.36000 6.965
19.38000 0.643
19.40000 2.735
19.42000 3.530
19.44000 2.887
19.46000 7.714
19.48000 9.030
19.50000 10.541
19.52000 15.467
19.54000 13.531
19.56000 12.454
19.58000 14.166
19.60000 14.265
19.62000 12.379
19.64000 8.766
19.66000 5.249
19.68000 4.498
19.70000 10.867
19.72000 -0.587
19.74000 -1.237
19.76000 1.973
19.78000 6.646
19.80000 6.925
19.82000 6.378
19.84000 6.852
19.86000 3.867
19.88000 2.220
19.90000 6.713
19.92000 6.324
19.94000 0.170
19.96000 1.095
19.98000 0.097
20.00000 -0.769
20.02000 -2.810
20.04000 -2.206
20.06000 -3.577
20.08000 3.347
20.10000 8.417
20.12000 6.055
20.14000 2.618
20.16000 0.482
20.18000 -1.543
20.20000 -0.498
20.22000 -0.946
20.24000 2.328
20.26000 6.318
20.28000 0.074
20.30000 1.884
20.32000 1.863
20.34000 2.378
20.36000 -0.519
20.38000 3.396
20.40000 6.137
20.42000 6.625
20.44000 1.508
20.46000 4.392
20.48000 12.887
20.50000 7.252
20.52000 5.855
20.54000 3.593
20.56000 2.086
20.58000 7.898
20.60000 2.194
20.62000 1.786
20.64000 1.553
20.66000 -0.016
20.68000 0.635
20.70000 1.014
20.72000 3.682
20.74000 -0.270
20.76000 0.233
20.78000 4.975
20.80000 0.916
20.82000 -1.926
20.84000 -1.303
20.86000 1.027
20.88000 1.927
20.90000 -0.141
20.92000 2.435
20.94000 5.209
20.96000 3.155
20.98000 2.888
21.00000 3.683
21.02000 7.439
21.04000 4.632
21.06000 1.903
21.08000 3.199
21.10000 -2.931
21.12000 -4.158
21.14000 -1.640
21.16000 3.037
21.18000 1.515
21.20000 -2.126
21.22000 -0.964
21.24000 8.138
21.26000 7.960
21.28000 1.363
21.30000 7.197
21.32000 7.454
21.34000 4.862
21.36000 9.186
21.38000 8.363
21.40000 0.843
21.42000 3.213
21.44000 4.812
21.46000 8.901
21.48000 3.612
21.50000 5.318
21.52000 3.726
21.54000 2.999
21.56000 4.480
21.58000 6.510
21.60000 1.532
21.62000 3.733
21.64000 -4.120
21.66000 4.403
21.68000 8.982
21.70000 6.652
21.72000 5.590
21.74000 7.790
21.76000 -0.452
21.78000 1.186
21.80000 -1.147
21.82000 -2.774
21.84000 -4.032
21.86000 0.826
21.88000 3.546
21.90000 -2.442
21.92000 3.777
21.94000 -1.796
21.96000 -0.252
21.98000 -0.579
22.00000 6.340
22.02000 12.256
22.04000 10.391
22.06000 1.523
22.08000 1.667
22.10000 4.306
22.12000 5.881
22.14000 4.484
22.16000 2.563
22.18000 -2.211
22.20000 5.710
22.22000 6.938
22.24000 0.028
22.26000 -2.341
22.28000 0.127
22.30000 -1.167
22.32000 -1.283
22.34000 1.230
22.36000 -1.011
22.38000 0.826
22.40000 7.832
22.42000 11.444
22.44000 4.829
22.46000 1.687
22.48000 0.724
22.50000 1.850
22.52000 8.928
22.54000 7.802
22.56000 3.678
22.58000 5.417
22.60000 6.531
22.62000 8.588
22.64000 7.105
22.66000 -0.770
22.68000 -0.683
22.70000 6.592
22.72000 6.244
22.74000 5.720
22.76000 3.194
22.78000 6.632
22.80000 9.849
22.82000 13.911
22.84000 8.432
22.86000 4.649
22.88000 2.904
22.90000 3.450
22.92000 -1.786
22.94000 3.910
22.96000 3.246
22.98000 4.487
23.00000 4.437
23.02000 4.728
23.04000 5.238
23.06000 5.476
23.08000 3.736
23.10000 5.903
23.12000 2.712
23.14000 -0.422
23.16000 5.053
23.18000 1.363
23.20000 6.668
23.22000 4.880
23.24000 4.784
23.26000 6.841
23.28000 7.309
23.30000 7.775
23.32000 8.043
23.34000 8.834
23.36000 6.880
23.38000 -4.023
23.40000 3.410
23.42000 7.418
23.44000 9.107
23.46000 9.038
23.48000 10.007
23.50000 4.164
23.52000 2.113
23.54000 -0.222
23.56000 -1.017
23.58000 -1.621
23.60000 0.831
23.62000 5.204
23.64000 6.493
23.66000 3.670
23.68000 -1.095
23.70000 2.745
23.72000 5.665
23.74000 2.067
23.76000 1.275
23.78000 -1.632
23.80000 2.062
23.82000 2.790
23.84000 -2.249
23.86000 6.262
23.88000 6.252
23.90000 7.406
23.92000 1.004
23.94000 2.703
23.96000 4.250
23.98000 3.598
24.00000 6.076
24.02000 8.401
24.04000 5.050
24.06000 1.148
24.08000 0.248
24.10000 1.239
24.12000 5.441
24.14000 6.153
24.16000 6.814
24.18000 3.949
24.20000 -0.601
24.22000 -0.662
24.24000 3.764
24.26000 9.879
24.28000 12.263
24.30000 5.767
24.32000 2.339
24.34000 5.571
24.36000 6.697
24.38000 2.186
24.40000 -1.612
24.42000 -1.992
24.44000 -1.599
24.46000 4.257
24.48000 11.304
24.50000 5.782
24.52000 4.099
24.54000 0.767
24.56000 1.781
24.58000 4.222
24.60000 9.325
24.62000 5.412
24.64000 2.994
24.66000 0.904
24.68000 3.046
24.70000 3.349
24.72000 3.851
24.74000 0.521
24.76000 3.420
24.78000 3.335
24.80000 3.624
24.82000 3.034
24.84000 5.376
24.86000 -0.833
24.88000 1.040
24.90000 0.612
24.92000 2.109
24.94000 4.110
24.96000 2.288
24.98000 1.861
25.00000 2.510
25.02000 4.612
25.04000 6.718
25.06000 -0.378
25.08000 1.809
25.10000 1.864
25.12000 6.078
25.14000 3.570
25.16000 2.235
25.18000 0.179
25.20000 0.458
25.22000 0.444
25.24000 9.323
25.26000 4.993
25.28000 -1.795
25.30000 0.134
25.32000 -2.250
25.34000 -1.427
25.36000 -3.883
25.38000 3.969
25.40000 8.726
25.42000 9.798
25.44000 0.232
25.46000 -0.460
25.48000 1.577
25.50000 3.817
25.52000 7.108
25.54000 6.127
25.56000 9.017
25.58000 11.543
25.60000 13.056
25.62000 9.907
25.64000 10.834
25.66000 4.729
25.68000 2.803
25.70000 2.673
25.72000 5.763
25.74000 7.403
25.76000 7.068
25.78000 3.440
25.80000 -2.059
25.82000 4.605
25.84000 9.625
25.86000 9.202
25.88000 6.850
25.90000 5.152
25.92000 6.482
25.94000 3.954
25.96000 5.263
25.98000 1.509
26.00000 2.414
26.02000 -1.780
26.04000 -1.405
26.06000 4.664
26.08000 1.424
26.10000 1.854
26.12000 8.607
26.14000 0.955
26.16000 2.532
26.18000 7.148
26.20000 6.953
26.22000 2.968
26.24000 0.291
26.26000 1.609
26.28000 0.649
26.30000 0.545
26.32000 6.197
26.34000 4.457
26.36000 4.103
26.38000 5.347
26.40000 2.459
26.42000 -2.008
26.44000 -3.860
26.46000 0.735
26.48000 7.118
26.50000 4.672
26.52000 2.757
26.54000 4.918
26.56000 5.322
26.58000 2.859
26.60000 3.658
26.62000 6.079
26.64000 5.349
26.66000 1.025
26.68000 2.720
26.70000 2.916
26.72000 6.044
26.74000 3.706
26.76000 6.178
26.78000 8.287
26.80000 4.976
26.82000 2.825
26.84000 -0.603
26.86000 6.227
26.88000 4.938
26.90000 6.417
26.92000 2.937
26.94000 6.073
26.96000 9.364
26.98000 8.123
27.00000 3.225
27.02000 1.562
27.04000 4.275
27.06000 1.850
27.08000 4.267
27.10000 7.705
27.12000 3.703
27.14000 0.674
27.16000 -2.525
27.18000 -0.922
27.20000 3.695
27.22000 5.346
27.24000 9.169
27.26000 1.371
27.28000 6.370
27.30000 10.368
27.32000 5.483
27.34000 4.642
27.36000 1.575
27.38000 5.449
27.40000 5.568
27.42000 6.276
27.44000 6.300
27.46000 -0.158
27.48000 2.515
27.50000 4.956
27.52000 6.377
27.54000 8.495
27.56000 6.220
27.58000 2.954
27.60000 -1.514
27.62000 0.137
27.64000 2.757
27.66000 1.828
27.68000 5.487
27.70000 7.018
27.72000 2.881
27.74000 3.112
27.76000 3.490
27.78000 0.610
27.80000 1.316
27.82000 2.101
27.84000 3.874
27.86000 1.343
27.88000 -2.265
27.90000 -2.917
27.92000 2.774
27.94000 2.416
27.96000 2.942
27.98000 4.444
28.00000 1.836
28.02000 0.562
28.04000 7.000
28.06000 6.739
28.08000 6.144
28.10000 4.518
28.12000 7.188
28.14000 6.032
28.16000 7.469
28.18000 6.265
28.20000 -0.688
28.22000 0.522
28.24000 4.930
28.26000 1.951
28.28000 3.016
28.30000 6.151
28.32000 9.363
28.34000 9.719
28.36000 7.933
28.38000 4.803
28.40000 10.084
28.42000 3.569
28.44000 5.937
28.46000 5.846
28.48000 3.766
28.50000 6.162
28.52000 9.468
28.54000 5.513
28.56000 5.531
28.58000 9.207
28.60000 5.308
28.62000 8.300
28.64000 12.019
28.66000 6.879
28.68000 5.201
28.70000 1.499
28.72000 -3.691
28.74000 1.525
28.76000 4.624
28.78000 6.515
28.80000 5.600
28.82000 7.726
28.84000 10.224
28.86000 9.290
28.88000 12.049
28.90000 7.406
28.92000 14.491
28.94000 8.223
28.96000 2.073
28.98000 3.671
29.00000 4.794
29.02000 8.160
29.04000 9.387
29.06000 4.684
29.08000 3.774
29.10000 3.016
29.12000 0.241
29.14000 1.966
29.16000 -1.560
29.18000 10.867
29.20000 8.099
29.22000 0.070
29.24000 0.529
29.26000 6.007
29.28000 5.765
29.30000 7.133
29.32000 4.011
29.34000 1.351
29.36000 6.425
29.38000 2.726
29.40000 1.906
29.42000 7.466
29.44000 3.913
29.46000 4.891
29.48000 5.421
29.50000 8.649
29.52000 4.870
29.54000 7.305
29.56000 8.547
29.58000 7.849
29.60000 3.190
29.62000 4.602
29.64000 0.916
29.66000 2.537
29.68000 5.169
29.70000 4.971
29.72000 3.167
29.74000 3.408
29.76000 -0.538
29.78000 -1.443
29.80000 4.406
29.82000 11.627
29.84000 -0.729
29.86000 0.345
29.88000 0.377
29.90000 0.637
29.92000 2.194
29.94000 3.834
29.96000 2.417
29.98000 2.138
30.00000 7.259
30.02000 6.573
30.04000 5.304
30.06000 3.137
30.08000 -0.419
30.10000 -0.999
30.12000 1.464
30.14000 -1.184
30.16000 1.539
30.18000 7.184
30.20000 4.783
30.22000 -1.656
30.24000 -3.657
30.26000 3.384
30.28000 4.803
30.30000 0.797
30.32000 -2.494
30.34000 -0.443
30.36000 4.279
30.38000 5.719
30.40000 -0.867
30.42000 1.791
30.44000 2.714
30.46000 4.514
30.48000 3.938
30.50000 3.314
30.52000 -0.145
30.54000 1.489
30.56000 6.526
30.58000 7.007
30.60000 5.066
30.62000 1.249
30.64000 2.341
30.66000 5.770
30.68000 0.031
30.70000 0.745
30.72000 0.953
30.74000 -1.674
30.76000 -1.361
30.78000 5.187
30.80000 0.507
30.82000 -1.543
30.84000 2.074
30.86000 7.381
30.88000 6.282
30.90000 2.041
30.92000 2.505
30.94000 2.864
30.96000 2.358
30.98000 2.020
31.00000 1.296
31.02000 3.292
31.04000 5.733
31.06000 4.400
31.08000 9.584
31.10000 4.157
31.12000 0.437
31.14000 2.817
31.16000 3.586
31.18000 -0.054
31.20000 1.900
31.22000 -2.020
31.24000 -2.617
31.26000 0.334
31.28000 4.110
31.30000 4.242
31.32000 5.317
31.34000 -0.196
31.36000 0.131
31.38000 3.019
31.40000 3.459
31.42000 3.165
31.44000 4.043
31.46000 4.157
31.48000 4.560
31.50000 3.019
31.52000 -2.167
31.54000 1.499
31.56000 3.472
31.58000 -0.355
31.60000 -1.035
31.62000 0.712
31.64000 0.077
31.66000 1.328
31.68000 2.822
31.70000 2.301
31.72000 3.636
31.74000 5.417
31.76000 6.213
31.78000 6.897
31.80000 3.549
31.82000 8.430
31.84000 9.435
31.86000 3.755
31.88000 3.060
31.90000 4.449
31.92000 3.939
31.94000 -0.581
31.96000 -2.844
31.98000 -3.528
32.00000 -3.576
32.02000 0.424
32.04000 -0.775
32.06000 4.881
32.08000 2.480
32.10000 2.266
32.12000 4.721
32.14000 5.842
32.16000 8.986
32.18000 7.870
32.20000 3.002
32.22000 3.075
32.24000 4.778
32.26000 2.602
32.28000 -0.857
32.30000 -0.675
32.32000 2.373
32.34000 3.168
32.36000 1.166
32.38000 -2.057
32.40000 -0.519
32.42000 3.925
32.44000 3.575
32.46000 6.060
32.48000 3.586
32.50000 1.790
32.52000 1.729
32.54000 5.220
32.56000 7.610
32.58000 2.507
32.60000 0.216
32.62000 3.187
32.64000 5.249
32.66000 2.758
32.68000 3.654
32.70000 3.847
32.72000 0.144
32.74000 -0.335
32.76000 -1.725
32.78000 2.417
32.80000 1.780
32.82000 3.505
32.84000 -0.382
32.86000 1.750
32.88000 3.142
32.90000 6.291
32.92000 7.239
32.94000 -0.048
32.96000 5.300
32.98000 3.705
33.00000 3.515
33.02000 1.439
33.04000 0.514
33.06000 6.033
33.08000 7.014
33.10000 0.265
33.12000 5.488
33.14000 5.154
33.16000 2.408
33.18000 5.650
33.20000 6.394
33.22000 7.015
33.24000 6.779
33.26000 4.352
33.28000 1.062
33.30000 -0.671
33.32000 -0.217
33.34000 1.929
33.36000 0.214
33.38000 7.940
33.40000 8.516
33.42000 -0.247
33.44000 -3.553
33.46000 1.441
33.48000 3.613
33.50000 4.312
33.52000 4.677
33.54000 0.500
33.56000 -0.786
33.58000 0.158
33.60000 5.727
33.62000 3.326
33.64000 3.382
33.66000 1.477
33.68000 4.917
33.70000 4.541
33.72000 8.115
33.74000 3.440
33.76000 2.343
33.78000 2.651
33.80000 0.096
33.82000 -1.688
33.84000 -1.792
33.86000 2.287
33.88000 5.289
33.90000 2.826
33.92000 2.178
33.94000 3.629
33.96000 4.048
33.98000 4.057
34.00000 4.868
34.02000 3.378
34.04000 2.436
34.06000 1.215
34.08000 -3.313
34.10000 -0.583
34.12000 5.624
34.14000 8.687
34.16000 3.528
34.18000 1.411
34.20000 -3.535
34.22000 1.026
34.24000 4.559
34.26000 3.364
34.28000 2.460
34.30000 -1.337
34.32000 -2.838
34.34000 0.420
34.36000 4.332
34.38000 4.347
34.40000 2.022
34.42000 0.071
34.44000 -3.528
34.46000 4.130
34.48000 1.525
34.50000 0.676
34.52000 5.758
34.54000 4.261
34.56000 6.936
34.58000 0.748
34.60000 1.439
34.62000 5.648
34.64000 2.077
34.66000 0.270
34.68000 1.622
34.70000 2.380
34.72000 4.646
34.74000 5.471
34.76000 2.349
34.78000 1.618
34.80000 5.140
34.82000 3.967
34.84000 1.675
34.86000 -2.930
34.88000 -2.334
34.90000 1.328
34.92000 5.035
34.94000 3.112
34.96000 2.804
34.98000 -0.434
35.00000 -0.085
35.02000 0.831
35.04000 2.513
35.06000 1.905
35.08000 -2.706
35.10000 2.141
35.12000 8.691
35.14000 4.196
35.16000 3.867
35.18000 5.571
35.20000 4.251
35.22000 2.790
35.24000 -0.241
35.26000 0.802
35.28000 3.660
35.30000 0.753
35.32000 -2.489
35.34000 -1.379
35.36000 -0.187
35.38000 -3.479
35.40000 -1.951
35.42000 2.063
35.44000 0.054
35.46000 2.888
35.48000 2.334
35.50000 1.280
35.52000 1.899
35.54000 4.299
35.56000 3.532
35.58000 2.363
35.60000 4.531
35.62000 6.063
35.64000 5.310
35.66000 3.788
35.68000 1.796
35.70000 0.166
35.72000 3.361
35.74000 1.284
35.76000 -0.726
35.78000 4.714
35.80000 4.912
35.82000 -1.510
35.84000 -0.051
35.86000 6.169
35.88000 1.152
35.90000 -1.278
35.92000 -0.184
35.94000 1.379
35.96000 4.077
35.98000 1.698
36.00000 2.617
36.02000 5.274
36.04000 5.484
36.06000 1.321
36.08000 3.607
36.10000 4.543
36.12000 3.283
36.14000 -0.745
36.16000 -0.252
36.18000 1.804
36.20000 0.790
36.22000 1.871
36.24000 -2.902
36.26000 -0.226
36.28000 3.077
36.30000 3.394
36.32000 1.369
36.34000 -3.507
36.36000 -2.666
36.38000 -0.497
36.40000 1.251
36.42000 -1.390
36.44000 0.391
36.46000 1.252
36.48000 5.414
36.50000 5.170
36.52000 1.828
36.54000 1.713
36.56000 1.636
36.58000 2.048
36.60000 -1.269
36.62000 2.464
36.64000 0.501
36.66000 0.728
36.68000 3.580
36.70000 -0.068
36.72000 -2.676
36.74000 -0.224
36.76000 -1.831
36.78000 -3.475
36.80000 2.082
36.82000 -1.494
36.84000 -2.612
36.86000 1.483
36.88000 4.809
36.90000 5.369
36.92000 1.875
36.94000 1.635
36.96000 1.302
36.98000 0.621
37.00000 2.415
37.02000 -0.834
37.04000 1.186
37.06000 -1.967
37.08000 -3.546
37.10000 -2.162
37.12000 -0.172
37.14000 2.038
37.16000 -1.250
37.18000 1.672
37.20000 1.927
37.22000 1.504
37.24000 -2.667
37.26000 -1.104
37.28000 1.663
37.30000 3.918
37.32000 2.267
37.34000 -2.882
37.36000 2.037
37.38000 1.687
37.40000 1.809
37.42000 1.936
37.44000 0.918
37.46000 2.100
37.48000 1.690
37.50000 2.684
37.52000 0.052
37.54000 -1.011
37.56000 -3.566
37.58000 2.509
37.60000 2.948
37.62000 6.189
37.64000 3.489
37.66000 3.687
37.68000 2.178
37.70000 -2.027
37.72000 1.834
37.74000 1.816
37.76000 -1.693
37.78000 1.902
37.80000 5.623
37.82000 5.766
37.84000 7.549
37.86000 4.619
37.88000 0.607
37.90000 1.762
37.92000 3.536
37.94000 1.324
37.96000 6.285
37.98000 6.809
38.00000 3.565
38.02000 6.777
38.04000 9.761
38.06000 4.213
38.08000 1.537
38.10000 6.537
38.12000 5.972
38.14000 11.042
38.16000 6.548
38.18000 5.771
38.20000 6.165
38.22000 6.652
38.24000 12.491
38.26000 13.193
38.28000 8.425
38.30000 9.550
38.32000 8.017
38.34000 8.204
38.36000 11.584
38.38000 9.486
38.40000 14.262
38.42000 13.485
38.44000 14.285
38.46000 12.339
38.48000 12.472
38.50000 10.735
38.52000 12.713
38.54000 12.951
38.56000 15.009
38.58000 16.307
38.60000 19.658
38.62000 15.195
38.64000 14.790
38.66000 14.399
38.68000 20.047
38.70000 21.442
38.72000 21.569
38.74000 14.245
38.76000 13.516
38.78000 18.408
38.80000 20.241
38.82000 18.536
38.84000 26.731
38.86000 27.172
38.88000 21.439
38.90000 20.018
38.92000 21.053
38.94000 23.850
38.96000 28.279
38.98000 29.328
39.00000 31.069
39.02000 31.545
39.04000 28.306
39.06000 26.808
39.08000 25.725
39.10000 29.302
39.12000 36.511
39.14000 38.796
39.16000 36.575
39.18000 37.611
39.20000 37.903
39.22000 40.922
39.24000 45.182
39.26000 45.604
39.28000 45.965
39.30000 48.346
39.32000 54.056
39.34000 54.738
39.36000 56.482
39.38000 61.550
39.40000 60.978
39.42000 57.279
39.44000 62.253
39.46000 68.432
39.48000 69.511
39.50000 71.608
39.52000 73.380
39.54000 81.135
39.56000 85.403
39.58000 77.741
39.60000 84.932
39.62000 91.903
39.64000 95.859
39.66000 100.591
39.68000 105.983
39.70000 120.056
39.72000 123.120
39.74000 122.297
39.76000 128.027
39.78000 135.359
39.80000 141.448
39.82000 148.384
39.84000 161.123
39.86000 164.583
39.88000 173.312
39.90000 183.234
39.92000 192.513
39.94000 198.003
39.96000 210.695
39.98000 223.387
40.00000 234.684
40.02000 251.021
40.04000 257.488
40.06000 269.825
40.08000 277.663
40.10000 293.060
40.12000 315.974
40.14000 324.731
40.16000 329.179
40.18000 345.577
40.20000 363.658
40.22000 376.452
40.24000 400.884
40.26000 413.583
40.28000 428.026
40.30000 437.153
40.32000 443.325
40.34000 464.105
40.36000 473.742
40.38000 481.142
40.40000 506.055
40.42000 509.644
40.44000 517.138
40.46000 530.948
40.48000 536.314
40.50000 539.446
40.52000 536.468
40.54000 522.438
40.56000 528.484
40.58000 538.744
40.60000 535.029
40.62000 539.995
40.64000 535.589
40.66000 533.457
40.68000 516.123
40.70000 497.935
40.72000 484.154
40.74000 485.821
40.76000 481.995
40.78000 463.102
40.80000 449.714
40.82000 436.177
40.84000 422.516
40.86000 408.022
40.88000 392.708
40.90000 384.284
40.92000 359.837
40.94000 350.881
40.96000 334.799
40.98000 320.395
41.00000 309.238
41.02000 297.178
41.04000 277.118
41.06000 271.329
41.08000 258.599
41.10000 239.096
41.12000 225.974
41.14000 227.041
41.16000 216.636
41.18000 198.735
41.20000 191.190
41.22000 181.259
41.24000 167.802
41.26000 157.401
41.28000 153.147
41.30000 147.246
41.32000 140.371
41.34000 129.025
41.36000 120.320
41.38000 115.831
41.40000 102.822
41.42000 96.271
41.44000 95.187
41.46000 96.416
41.48000 93.047
41.50000 86.882
41.52000 86.353
41.54000 82.329
41.56000 74.295
41.58000 72.941
41.60000 72.807
41.62000 68.868
41.64000 62.704
41.66000 56.387
41.68000 53.865
41.70000 53.919
41.72000 53.200
41.74000 45.795
41.76000 46.411
41.78000 45.246
41.80000 41.747
41.82000 35.164
41.84000 33.888
41.86000 33.909
41.88000 34.195
41.90000 33.908
41.92000 33.036
41.94000 30.196
41.96000 27.496
41.98000 26.097
42.00000 25.253
42.02000 23.539
42.04000 22.497
42.06000 24.146
42.08000 22.129
42.10000 20.354
42.12000 20.304
42.14000 23.976
42.16000 23.931
42.18000 19.608
42.20000 16.990
42.22000 11.732
42.24000 13.906
42.26000 14.452
42.28000 11.403
42.30000 13.050
42.32000 12.223
42.34000 12.125
42.36000 12.342
42.38000 14.073
42.40000 10.970
42.42000 10.308
42.44000 10.500
42.46000 7.116
42.48000 7.978
42.50000 9.392
42.52000 8.140
42.54000 11.802
42.56000 8.787
42.58000 8.588
42.60000 6.298
42.62000 5.063
42.64000 6.021
42.66000 5.747
42.68000 8.779
42.70000 5.176
42.72000 3.042
42.74000 5.384
42.76000 2.758
42.78000 6.054
42.80000 3.674
42.82000 2.511
42.84000 2.066
42.86000 -2.240
42.88000 -3.527
42.90000 0.188
42.92000 4.488
42.94000 6.447
42.96000 5.315
42.98000 0.329
43.00000 -1.024
43.02000 2.973
43.04000 5.112
43.06000 6.710
43.08000 1.734
43.10000 -0.719
43.12000 0.928
43.14000 -2.576
43.16000 -2.634
43.18000 2.250
43.20000 1.795
43.22000 0.423
43.24000 -1.643
43.26000 -1.349
43.28000 -2.330
43.30000 3.112
43.32000 5.852
43.34000 5.292
43.36000 4.478
43.38000 -2.938
43.40000 -1.503
43.42000 -2.610
43.44000 0.726
43.46000 1.639
43.48000 2.344
43.50000 2.370
43.52000 5.570
43.54000 0.060
43.56000 -2.530
43.58000 -2.565
43.60000 -2.290
43.62000 -1.136
43.64000 1.639
43.66000 1.542
43.68000 -0.662
43.70000 -0.343
43.72000 0.600
43.74000 2.480
43.76000 4.622
43.78000 3.456
43.80000 4.140
43.82000 1.455
43.84000 -1.228
43.86000 1.579
43.88000 -2.305
43.90000 -1.306
43.92000 -1.314
43.94000 -2.614
43.96000 0.198
43.98000 2.474
44.00000 -0.884
44.02000 2.642
44.04000 -1.476
44.06000 -0.098
44.08000 -0.658
44.10000 -3.451
44.12000 -2.735
44.14000 -1.667
44.16000 -1.139
44.18000 -1.734
44.20000 -0.975
44.22000 0.999
44.24000 2.887
44.26000 -1.628
44.28000 1.142
44.30000 1.482
44.32000 -0.792
44.34000 -0.620
44.36000 0.066
44.38000 -3.433
44.40000 -2.404
44.42000 2.730
44.44000 0.943
44.46000 3.224
44.48000 2.748
44.50000 2.664
44.52000 1.638
44.54000 4.185
44.56000 1.668
44.58000 1.797
44.60000 -3.433
44.62000 -1.931
44.64000 2.209
44.66000 3.715
44.68000 3.855
44.70000 1.946
44.72000 5.426
44.74000 1.766
44.76000 -2.288
44.78000 1.176
44.80000 3.562
44.82000 2.457
44.84000 2.221
44.86000 3.119
44.88000 4.634
44.90000 3.096
44.92000 0.020
44.94000 1.269
44.96000 0.858
44.98000 -1.663
45.00000 3.452
45.02000 4.153
45.04000 3.676
45.06000 5.965
45.08000 0.727
45.10000 1.821
45.12000 2.395
45.14000 3.443
45.16000 2.409
45.18000 7.066
45.20000 1.679
45.22000 0.421
45.24000 1.141
45.26000 8.607
45.28000 4.655
45.30000 0.858
45.32000 3.878
45.34000 6.103
45.36000 1.568
45.38000 3.490
45.40000 2.410
45.42000 3.378
45.44000 4.015
45.46000 2.933
45.48000 2.733
45.50000 -0.236
45.52000 0.656
45.54000 5.620
45.56000 6.564
45.58000 12.278
45.60000 13.238
45.62000 4.399
45.64000 5.432
45.66000 9.240
45.68000 11.099
45.70000 6.364
45.72000 5.333
45.74000 10.303
45.76000 16.751
45.78000 9.853
45.80000 10.712
45.82000 15.200
45.84000 12.315
45.86000 10.068
45.88000 17.842
45.90000 20.054
45.92000 14.913
45.94000 15.111
45.96000 17.340
45.98000 21.319
46.00000 22.050
46.02000 20.896
46.04000 26.452
46.06000 28.465
46.08000 33.900
46.10000 30.452
46.12000 28.193
46.14000 24.718
46.16000 28.922
46.18000 26.794
46.20000 35.604
46.22000 32.426
46.24000 23.890
46.26000 21.958
46.28000 36.314
46.30000 36.630
46.32000 37.600
46.34000 41.665
46.36000 43.710
46.38000 37.158
46.40000 45.089
46.42000 46.472
46.44000 43.560
46.46000 41.045
46.48000 42.361
46.50000 48.214
46.52000 50.682
46.54000 55.758
46.56000 55.086
46.58000 59.964
46.60000 53.691
46.62000 58.845
46.64000 61.336
46.66000 59.420
46.68000 59.576
46.70000 56.649
46.72000 60.242
46.74000 65.039
46.76000 63.661
46.78000 67.623
46.80000 68.598
46.82000 71.748
46.84000 70.047
46.86000 66.476
46.88000 66.767
46.90000 76.621
46.92000 78.240
46.94000 77.569
46.96000 77.036
46.98000 77.316
47.00000 84.713
47.02000 79.176
47.04000 77.231
47.06000 74.215
47.08000 72.163
47.10000 77.697
47.12000 75.696
47.14000 72.441
47.16000 74.158
47.18000 74.062
47.20000 74.528
47.22000 71.890
47.24000 72.637
47.26000 71.466
47.28000 79.286
47.30000 79.919
47.32000 79.231
47.34000 71.688
47.36000 71.336
47.38000 67.293
47.40000 67.488
47.42000 71.719
47.44000 69.082
47.46000 71.994
47.48000 72.650
47.50000 65.105
47.52000 63.502
47.54000 64.884
47.56000 64.855
47.58000 59.510
47.60000 60.505
47.62000 58.374
47.64000 59.103
47.66000 48.299
47.68000 47.116
47.70000 50.760
47.72000 51.252
47.74000 50.411
47.76000 43.339
47.78000 48.562
47.80000 55.232
47.82000 44.468
47.84000 46.404
47.86000 40.957
47.88000 39.063
47.90000 39.831
47.92000 40.467
47.94000 32.655
47.96000 31.966
47.98000 28.556
48.00000 26.305
48.02000 33.583
48.04000 36.585
48.06000 24.743
48.08000 18.151
48.10000 23.195
48.12000 27.862
48.14000 22.744
48.16000 21.010
48.18000 21.393
48.20000 17.552
48.22000 17.596
48.24000 16.292
48.26000 18.565
48.28000 26.412
48.30000 19.258
48.32000 18.476
48.34000 15.994
48.36000 15.693
48.38000 13.799
48.40000 13.101
48.42000 11.856
48.44000 11.796
48.46000 15.015
48.48000 13.451
48.50000 11.957
48.52000 11.936
48.54000 12.600
48.56000 13.010
48.58000 12.928
48.60000 15.466
48.62000 13.044
48.64000 7.621
48.66000 8.850
48.68000 11.012
48.70000 10.698
48.72000 8.470
48.74000 12.628
48.76000 6.761
48.78000 5.531
48.80000 5.576
48.82000 6.297
48.84000 7.411
48.86000 5.417
48.88000 5.650
48.90000 7.470
48.92000 8.768
48.94000 6.862
48.96000 8.632
48.98000 10.618
49.00000 5.069
49.02000 1.442
49.04000 -3.026
49.06000 -0.013
49.08000 3.122
49.10000 2.534
49.12000 4.110
49.14000 9.506
49.16000 8.059
49.18000 6.727
49.20000 7.689
49.22000 10.140
49.24000 3.319
49.26000 1.205
49.28000 -3.015
49.30000 3.514
49.32000 5.870
49.34000 -0.245
49.36000 5.132
49.38000 1.795
49.40000 -0.655
49.42000 3.888
49.44000 5.697
49.46000 3.878
49.48000 4.677
49.50000 -1.024
49.52000 -1.949
49.54000 1.003
49.56000 2.468
49.58000 3.610
49.60000 1.374
49.62000 3.514
49.64000 1.790
49.66000 -2.985
49.68000 2.794
49.70000 7.392
49.72000 2.696
49.74000 5.184
49.76000 5.200
49.78000 4.977
49.80000 3.810
49.82000 3.771
49.84000 6.111
49.86000 5.190
49.88000 7.756
49.90000 7.041
49.92000 0.878
49.94000 2.281
49.96000 2.774
49.98000 2.043
50.00000 3.939
50.02000 2.520
50.04000 -2.336
50.06000 1.823
50.08000 1.907
50.10000 -2.949
50.12000 -0.943
50.14000 8.702
50.16000 2.338
50.18000 1.121
50.20000 1.825
50.22000 2.080
50.24000 4.228
50.26000 2.713
50.28000 -0.225
50.30000 0.976
50.32000 1.720
50.34000 2.145
50.36000 1.833
50.38000 1.095
50.40000 3.560
50.42000 2.879
50.44000 2.044
50.46000 0.549
50.48000 -0.742
50.50000 3.842
50.52000 3.254
50.54000 3.138
50.56000 4.945
50.58000 0.585
50.60000 -1.927
50.62000 -2.909
50.64000 1.275
50.66000 4.001
50.68000 2.045
50.70000 5.160
50.72000 6.055
50.74000 1.055
50.76000 3.556
50.78000 -1.134
50.80000 1.441
50.82000 1.168
50.84000 -2.896
50.86000 0.592
50.88000 2.648
50.90000 1.529
50.92000 0.302
50.94000 3.072
50.96000 4.884
50.98000 3.772
51.00000 6.389
51.02000 6.272
51.04000 4.732
51.06000 5.169
51.08000 0.209
51.10000 5.757
51.12000 10.624
51.14000 5.463
51.16000 -0.079
51.18000 -1.356
51.20000 1.076
51.22000 3.859
51.24000 2.090
51.26000 6.295
51.28000 8.616
51.30000 4.051
51.32000 -2.885
51.34000 -2.400
51.36000 3.933
51.38000 4.385
51.40000 -0.291
51.42000 -0.852
51.44000 2.380
51.46000 1.144
51.48000 -0.318
51.50000 -2.082
51.52000 -2.006
51.54000 -2.847
51.56000 -0.809
51.58000 -0.431
51.60000 -1.015
51.62000 4.790
51.64000 5.061
51.66000 1.857
51.68000 2.762
51.70000 -2.610
51.72000 2.488
51.74000 2.394
51.76000 2.749
51.78000 -2.428
51.80000 -1.239
51.82000 5.857
51.84000 8.911
51.86000 2.466
51.88000 -2.315
51.90000 -2.589
51.92000 -1.285
51.94000 0.515
51.96000 0.518
51.98000 0.361
52.00000 2.767
52.02000 5.841
52.04000 1.481
52.06000 0.573
52.08000 0.289
52.10000 -0.916
52.12000 -2.863
52.14000 1.776
52.16000 -0.148
52.18000 1.569
52.20000 1.538
52.22000 0.596
52.24000 -1.450
52.26000 4.525
52.28000 5.165
52.30000 3.577
52.32000 -0.382
52.34000 -1.320
52.36000 5.281
52.38000 0.365
52.40000 -1.231
52.42000 -1.133
52.44000 0.378
52.46000 2.110
52.48000 -0.072
52.50000 0.374
52.52000 2.526
52.54000 3.010
52.56000 5.344
52.58000 3.170
52.60000 -2.123
52.62000 1.149
52.64000 4.127
52.66000 1.217
52.68000 0.248
52.70000 3.469
52.72000 -2.624
52.74000 1.340
52.76000 1.615
52.78000 0.283
52.80000 -1.980
52.82000 -2.116
52.84000 1.051
52.86000 1.324
52.88000 1.697
52.90000 0.795
52.92000 5.837
52.94000 7.780
52.96000 4.019
52.98000 5.306
53.00000 -0.151
53.02000 1.810
53.04000 3.751
53.06000 -0.679
53.08000 0.649
53.10000 1.559
53.12000 2.173
53.14000 0.636
53.16000 0.735
53.18000 -0.015
53.20000 1.254
53.22000 4.853
53.24000 -0.780
53.26000 -0.204
53.28000 2.255
53.30000 -0.512
53.32000 -1.357
53.34000 2.093
53.36000 4.346
53.38000 2.933
53.40000 1.293
53.42000 1.286
53.44000 -1.714
53.46000 -0.802
53.48000 0.368
53.50000 5.276
53.52000 5.698
53.54000 7.483
53.56000 4.840
53.58000 5.076
53.60000 1.526
53.62000 -1.096
53.64000 1.956
53.66000 5.061
53.68000 1.876
53.70000 2.843
53.72000 6.915
53.74000 3.658
53.76000 3.804
53.78000 3.170
53.80000 3.649
53.82000 8.749
53.84000 7.817
53.86000 4.037
53.88000 -0.677
53.90000 -1.390
53.92000 0.691
53.94000 -0.609
53.96000 3.637
53.98000 4.135
54.00000 4.301
54.02000 1.486
54.04000 4.898
54.06000 9.188
54.08000 13.039
54.10000 5.084
54.12000 2.280
54.14000 2.736
54.16000 -2.744
54.18000 3.113
54.20000 4.825
54.22000 1.940
54.24000 2.030
54.26000 3.935
54.28000 4.632
54.30000 4.120
54.32000 3.401
54.34000 1.936
54.36000 1.349
54.38000 2.024
54.40000 4.375
54.42000 0.949
54.44000 1.639
54.46000 4.617
54.48000 3.682
54.50000 1.694
54.52000 3.452
54.54000 0.436
54.56000 2.391
54.58000 7.694
54.60000 5.576
54.62000 6.521
54.64000 7.405
54.66000 3.621
54.68000 3.614
54.70000 2.639
54.72000 0.517
54.74000 4.570
54.76000 4.301
54.78000 -1.892
54.80000 0.053
54.82000 3.708
54.84000 5.529
54.86000 1.546
54.88000 1.080
54.90000 -2.167
54.92000 2.530
54.94000 7.815
54.96000 4.503
54.98000 3.194
55.00000 6.685
55.02000 3.941
55.04000 0.637
55.06000 2.778
55.08000 0.874
55.10000 -0.503
55.12000 0.938
55.14000 -0.132
55.16000 6.119
55.18000 7.357
55.20000 6.778
55.22000 3.835
55.24000 -0.952
55.26000 1.255
55.28000 0.566
55.30000 5.565
55.32000 4.711
55.34000 7.939
55.36000 1.290
55.38000 0.574
55.40000 2.201
55.42000 3.495
55.44000 0.284
55.46000 2.424
55.48000 2.372
55.50000 2.613
55.52000 7.522
55.54000 4.466
55.56000 2.866
55.58000 4.240
55.60000 1.413
55.62000 5.036
55.64000 1.124
55.66000 3.392
55.68000 4.126
55.70000 3.663
55.72000 1.996
55.74000 0.735
55.76000 0.875
55.78000 5.033
55.80000 5.322
55.82000 1.267
55.84000 4.407
55.86000 6.748
55.88000 6.543
55.90000 5.144
55.92000 -2.728
55.94000 1.125
55.96000 3.712
55.98000 3.977
56.00000 6.710
56.02000 7.237
56.04000 5.049
56.06000 8.237
56.08000 0.493
56.10000 0.626
56.12000 -2.249
56.14000 -0.677
56.16000 -1.648
56.18000 -1.185
56.20000 -1.161
56.22000 1.937
56.24000 3.871
56.26000 4.108
56.28000 1.170
56.30000 1.297
56.32000 2.230
56.34000 3.760
56.36000 2.796
56.38000 4.047
56.40000 3.040
56.42000 6.188
56.44000 6.047
56.46000 0.182
56.48000 3.343
56.50000 2.586
56.52000 3.271
56.54000 3.790
56.56000 6.132
56.58000 5.100
56.60000 3.237
56.62000 2.183
56.64000 0.008
56.66000 -0.662
56.68000 3.708
56.70000 4.882
56.72000 4.871
56.74000 5.350
56.76000 4.575
56.78000 3.149
56.80000 -2.010
56.82000 -2.677
56.84000 -1.897
56.86000 3.846
56.88000 3.012
56.90000 2.545
56.92000 4.228
56.94000 5.126
56.96000 2.850
56.98000 -0.828
57.00000 5.457
57.02000 2.848
57.04000 4.220
57.06000 3.091
57.08000 4.621
57.10000 2.534
57.12000 0.946
57.14000 1.353
57.16000 -0.108
57.18000 0.032
57.20000 1.281
57.22000 2.558
57.24000 4.486
57.26000 3.296
57.28000 -2.041
57.30000 3.347
57.32000 7.877
57.34000 5.582
57.36000 1.478
57.38000 -0.240
57.40000 1.504
57.42000 4.557
57.44000 1.887
57.46000 2.131
57.48000 3.082
57.50000 0.817
57.52000 0.129
57.54000 -0.062
57.56000 0.372
57.58000 3.922
57.60000 4.388
57.62000 -1.059
57.64000 0.532
57.66000 7.373
57.68000 6.514
57.70000 2.534
57.72000 -0.055
57.74000 3.784
57.76000 1.560
57.78000 2.619
57.80000 0.944
57.82000 4.261
57.84000 3.433
57.86000 1.197
57.88000 0.842
57.90000 2.992
57.92000 4.517
57.94000 5.766
57.96000 2.037
57.98000 -0.846
58.00000 -1.098
58.02000 1.533
58.04000 2.211
58.06000 6.189
58.08000 2.815
58.10000 0.891
58.12000 -0.949
58.14000 -1.403
58.16000 1.477
58.18000 2.237
58.20000 2.461
58.22000 7.813
58.24000 5.053
58.26000 2.116
58.28000 -1.270
58.30000 0.980
58.32000 -1.577
58.34000 -1.287
58.36000 -1.503
58.38000 -0.876
58.40000 2.564
58.42000 6.148
58.44000 7.321
58.46000 2.589
58.48000 1.131
58.50000 0.353
58.52000 0.748
58.54000 3.857
58.56000 4.098
58.58000 8.179
58.60000 8.501
58.62000 2.640
58.64000 0.002
58.66000 5.680
58.68000 7.372
58.70000 6.616
58.72000 0.972
58.74000 -2.657
58.76000 -0.822
58.78000 0.816
58.80000 0.333
58.82000 -0.137
58.84000 0.113
58.86000 3.460
58.88000 1.724
58.90000 6.282
58.92000 0.591
58.94000 -0.181
58.96000 2.188
58.98000 5.673
59.00000 2.747
59.02000 4.973
59.04000 7.438
59.06000 4.858
59.08000 4.320
59.10000 3.992
59.12000 3.767
59.14000 5.245
59.16000 5.563
59.18000 8.525
59.20000 2.554
59.22000 2.061
59.24000 0.051
59.26000 0.297
59.28000 5.514
59.30000 5.636
59.32000 7.905
59.34000 7.124
59.36000 3.585
59.38000 1.763
59.40000 2.361
59.42000 4.511
59.44000 1.665
59.46000 3.758
59.48000 5.793
59.50000 7.796
59.52000 4.704
59.54000 1.416
59.56000 -2.580
59.58000 6.622
59.60000 8.227
59.62000 8.311
59.64000 5.861
59.66000 6.034
59.68000 4.921
59.70000 4.672
59.72000 10.744
59.74000 8.082
59.76000 2.882
59.78000 1.876
59.80000 2.613
59.82000 4.064
59.84000 5.796
59.86000 3.796
59.88000 -1.936
59.90000 4.079
59.92000 8.199
59.94000 5.408
59.96000 1.092
59.98000 8.359
60.00000 8.870
60.02000 4.239
60.04000 4.767
60.06000 2.724
60.08000 5.047
60.10000 4.787
60.12000 7.671
60.14000 4.870
60.16000 2.089
60.18000 1.447
60.20000 5.724
60.22000 7.073
60.24000 9.083
60.26000 6.988
60.28000 4.475
60.30000 6.791
60.32000 8.365
60.34000 1.031
60.36000 4.757
60.38000 3.021
60.40000 4.514
60.42000 6.963
60.44000 6.709
60.46000 3.813
60.48000 4.541
60.50000 10.099
60.52000 7.289
60.54000 5.057
60.56000 7.216
60.58000 10.179
60.60000 5.586
60.62000 0.498
60.64000 -2.502
60.66000 3.161
60.68000 6.918
60.70000 7.237
60.72000 9.520
60.74000 9.952
60.76000 7.387
60.78000 6.153
60.80000 8.354
60.82000 6.305
60.84000 6.168
60.86000 11.718
60.88000 5.405
60.90000 1.362
60.92000 2.560
60.94000 5.666
60.96000 8.088
60.98000 3.259
61.00000 8.190
61.02000 9.734
61.04000 6.317
61.06000 4.711
61.08000 5.159
61.10000 5.755
61.12000 3.489
61.14000 3.270
61.16000 3.337
61.18000 2.120
61.20000 4.328
61.22000 2.751
61.24000 4.532
61.26000 5.611
61.28000 3.429
61.30000 3.747
61.32000 2.745
61.34000 9.530
61.36000 7.107
61.38000 4.539
61.40000 4.323
61.42000 1.296
61.44000 3.696
61.46000 4.516
61.48000 6.929
61.50000 9.000
61.52000 3.367
61.54000 4.200
61.56000 4.014
61.58000 6.360
61.60000 6.003
61.62000 1.850
61.64000 2.350
61.66000 2.148
61.68000 4.178
61.70000 2.815
61.72000 -0.202
61.74000 2.958
61.76000 5.219
61.78000 7.020
61.80000 6.723
61.82000 2.930
61.84000 0.048
61.86000 -1.714
61.88000 0.766
61.90000 0.894
61.92000 2.484
61.94000 3.267
61.96000 6.592
61.98000 4.005
62.00000 7.200
62.02000 5.747
62.04000 0.959
62.06000 3.950
62.08000 6.978
62.10000 1.824
62.12000 -1.896
62.14000 2.439
62.16000 6.022
62.18000 4.788
62.20000 3.509
62.22000 4.208
62.24000 5.262
62.26000 4.526
62.28000 0.600
62.30000 7.716
62.32000 8.115
62.34000 9.134
62.36000 5.638
62.38000 2.014
62.40000 4.222
62.42000 7.820
62.44000 11.450
62.46000 8.466
62.48000 9.727
62.50000 6.167
62.52000 4.323
62.54000 8.410
62.56000 3.727
62.58000 4.327
62.60000 9.208
62.62000 8.852
62.64000 6.038
62.66000 4.055
62.68000 1.082
62.70000 -2.479
62.72000 2.098
62.74000 10.207
62.76000 6.387
62.78000 1.440
62.80000 2.800
62.82000 3.401
62.84000 4.700
62.86000 4.942
62.88000 5.992
62.90000 4.711
62.92000 5.329
62.94000 2.614
62.96000 -0.802
62.98000 -0.417
63.00000 4.302
63.02000 4.356
63.04000 4.168
63.06000 2.555
63.08000 5.788
63.10000 5.828
63.12000 3.971
63.14000 3.413
63.16000 4.038
63.18000 6.888
63.20000 4.984
63.22000 2.758
63.24000 2.263
63.26000 4.579
63.28000 4.725
63.30000 2.562
63.32000 1.525
63.34000 4.798
63.36000 6.185
63.38000 8.461
63.40000 8.261
63.42000 1.607
63.44000 -0.721
63.46000 0.513
63.48000 1.202
63.50000 -0.112
63.52000 -1.500
63.54000 2.106
63.56000 2.921
63.58000 1.955
63.60000 3.832
63.62000 8.342
63.64000 4.593
63.66000 4.189
63.68000 5.296
63.70000 4.840
63.72000 -2.518
63.74000 1.276
63.76000 2.179
63.78000 -1.144
63.80000 1.101
63.82000 0.404
63.84000 1.785
63.86000 -2.519
63.88000 0.268
63.90000 3.406
63.92000 2.563
63.94000 3.130
63.96000 3.861
63.98000 4.240
64.00000 5.587
64.02000 -1.352
64.04000 1.791
64.06000 2.286
64.08000 1.840
64.10000 1.046
64.12000 1.205
64.14000 0.432
64.16000 5.121
64.18000 5.924
64.20000 3.021
64.22000 1.155
64.24000 1.835
64.26000 3.072
64.28000 4.975
64.30000 4.734
64.32000 1.717
64.34000 0.334
64.36000 2.012
64.38000 1.534
64.40000 -2.428
64.42000 0.531
64.44000 0.009
64.46000 -1.080
64.48000 0.501
64.50000 2.447
64.52000 2.806
64.54000 5.964
64.56000 8.433
64.58000 4.609
64.60000 -0.550
64.62000 0.768
64.64000 -1.370
64.66000 -1.346
64.68000 -1.094
64.70000 -2.212
64.72000 -1.918
64.74000 2.444
64.76000 1.286
64.78000 1.594
64.80000 5.945
64.82000 8.215
64.84000 3.714
64.86000 3.160
64.88000 1.628
64.90000 0.810
64.92000 3.234
64.94000 3.033
64.96000 3.250
64.98000 0.868
65.00000 3.243
65.02000 3.329
65.04000 1.354
65.06000 -0.950
65.08000 0.292
65.10000 1.649
65.12000 7.137
65.14000 5.708
65.16000 4.210
65.18000 6.491
65.20000 6.761
65.22000 6.631
65.24000 1.735
65.26000 2.767
65.28000 4.276
65.30000 4.200
65.32000 3.139
65.34000 -2.515
65.36000 -0.243
65.38000 2.811
65.40000 0.675
65.42000 5.150
65.44000 4.065
65.46000 2.052
65.48000 2.246
65.50000 5.211
65.52000 4.130
65.54000 6.595
65.56000 2.622
65.58000 -0.140
65.60000 2.707
65.62000 6.510
65.64000 3.473
65.66000 0.549
65.68000 2.760
65.70000 -0.607
65.72000 -0.756
65.74000 1.558
65.76000 5.132
65.78000 6.876
65.80000 8.213
65.82000 5.466
65.84000 1.049
65.86000 1.165
65.88000 3.158
65.90000 3.994
65.92000 5.171
65.94000 2.976
65.96000 3.853
65.98000 0.469
66.00000 3.394
66.02000 3.691
66.04000 3.955
66.06000 1.850
66.08000 1.780
66.10000 -1.384
66.12000 2.143
66.14000 3.527
66.16000 -0.156
66.18000 2.027
66.20000 2.481
66.22000 -0.954
66.24000 2.728
66.26000 7.653
66.28000 6.259
66.30000 4.150
66.32000 2.146
66.34000 4.765
66.36000 1.841
66.38000 0.474
66.40000 0.937
66.42000 -2.542
66.44000 -0.824
66.46000 -1.817
66.48000 1.925
66.50000 4.138
66.52000 3.211
66.54000 1.364
66.56000 -1.428
66.58000 -1.438
66.60000 -2.457
66.62000 4.727
66.64000 5.008
66.66000 2.440
66.68000 5.426
66.70000 4.545
66.72000 1.148
66.74000 3.874
66.76000 1.379
66.78000 0.898
66.80000 1.591
66.82000 -1.327
66.84000 2.876
66.86000 5.375
66.88000 2.721
66.90000 -2.435
66.92000 -0.841
66.94000 5.086
66.96000 3.224
66.98000 4.750
67.00000 4.405
67.02000 3.180
67.04000 4.773
67.06000 2.108
67.08000 1.424
67.10000 2.961
67.12000 -0.707
67.14000 1.632
67.16000 0.898
67.18000 4.961
67.20000 2.685
67.22000 -0.961
67.24000 -1.632
67.26000 0.137
67.28000 1.911
67.30000 -0.366
67.32000 0.546
67.34000 0.405
67.36000 2.062
67.38000 2.934
67.40000 0.589
67.42000 0.291
67.44000 -1.496
67.46000 -1.814
67.48000 0.417
67.50000 1.703
67.52000 0.813
67.54000 3.702
67.56000 3.865
67.58000 4.351
67.60000 4.574
67.62000 4.783
67.64000 4.713
67.66000 2.557
67.68000 2.921
67.70000 0.863
67.72000 1.044
67.74000 5.142
67.76000 5.865
67.78000 4.591
67.80000 6.115
67.82000 7.515
67.84000 5.500
67.86000 5.026
67.88000 7.953
67.90000 6.957
67.92000 6.584
67.94000 4.525
67.96000 4.577
67.98000 5.921
68.00000 3.140
68.02000 2.917
68.04000 5.582
68.06000 5.943
68.08000 7.751
68.10000 11.125
68.12000 15.018
68.14000 12.019
68.16000 9.169
68.18000 6.129
68.20000 10.399
68.22000 12.656
68.24000 12.409
68.26000 14.609
68.28000 16.447
68.30000 10.636
68.32000 13.735
68.34000 15.222
68.36000 16.074
68.38000 9.663
68.40000 7.200
68.42000 16.044
68.44000 16.355
68.46000 18.789
68.48000 19.380
68.50000 14.578
68.52000 16.397
68.54000 20.524
68.56000 16.289
68.58000 16.685
68.60000 19.069
68.62000 17.695
68.64000 14.876
68.66000 17.338
68.68000 16.749
68.70000 15.815
68.72000 20.078
68.74000 25.510
68.76000 19.847
68.78000 16.313
68.80000 21.804
68.82000 19.303
68.84000 17.664
68.86000 20.691
68.88000 21.585
68.90000 21.020
68.92000 26.170
68.94000 26.330
68.96000 23.039
68.98000 23.923
69.00000 21.356
69.02000 23.065
69.04000 23.065
69.06000 24.396
69.08000 25.539
69.10000 23.467
69.12000 26.785
69.14000 26.475
69.16000 21.721
69.18000 19.560
69.20000 21.357
69.22000 21.214
69.24000 18.865
69.26000 17.266
69.28000 15.703
69.30000 18.000
69.32000 17.472
69.34000 17.362
69.36000 18.711
69.38000 18.342
69.40000 16.927
69.42000 16.084
69.44000 16.246
69.46000 14.593
69.48000 9.013
69.50000 8.912
69.52000 13.107
69.54000 11.958
69.56000 11.103
69.58000 12.541
69.60000 11.638
69.62000 8.606
69.64000 11.699
69.66000 9.733
69.68000 9.759
69.70000 13.134
69.72000 8.779
69.74000 10.954
69.76000 14.317
69.78000 12.793
69.80000 10.003
69.82000 8.986
69.84000 7.455
69.86000 5.697
69.88000 6.768
69.90000 7.674
69.92000 3.586
69.94000 4.009
69.96000 7.167
69.98000 3.905
70.00000 1.696
70.02000 0.033
70.04000 4.489
70.06000 4.182
70.08000 3.162
70.10000 2.360
70.12000 4.249
70.14000 4.419
70.16000 3.909
70.18000 4.401
70.20000 3.247
70.22000 1.363
70.24000 -0.265
70.26000 3.211
70.28000 3.882
70.30000 7.124
70.32000 5.330
70.34000 4.830
70.36000 3.424
70.38000 2.236
70.40000 2.897
70.42000 5.298
70.44000 8.039
70.46000 5.197
70.48000 1.802
70.50000 3.187
70.52000 0.481
70.54000 0.677
70.56000 1.763
70.58000 6.120
70.60000 3.801
70.62000 0.664
70.64000 -2.485
70.66000 1.294
70.68000 6.551
70.70000 3.097
70.72000 3.022
70.74000 3.018
70.76000 3.412
70.78000 4.950
70.80000 6.343
70.82000 4.182
70.84000 1.171
70.86000 1.178
70.88000 3.497
70.90000 4.937
70.92000 6.539
70.94000 0.456
70.96000 -0.356
70.98000 1.663
71.00000 3.273
71.02000 1.251
71.04000 0.885
71.06000 2.075
71.08000 -2.092
71.10000 -2.448
71.12000 0.276
71.14000 -0.514
71.16000 5.189
71.18000 4.262
71.20000 4.228
71.22000 5.731
71.24000 5.088
71.26000 1.071
71.28000 -1.914
71.30000 -1.121
71.32000 -1.604
71.34000 4.067
71.36000 6.294
71.38000 6.902
71.40000 6.576
71.42000 1.735
71.44000 1.498
71.46000 3.101
71.48000 -0.343
71.50000 -0.448
71.52000 2.141
71.54000 4.928
71.56000 4.978
71.58000 1.463
71.60000 3.047
71.62000 7.149
71.64000 6.119
71.66000 2.763
71.68000 3.215
71.70000 3.430
71.72000 2.795
71.74000 1.191
71.76000 2.099
71.78000 1.296
71.80000 0.690
71.82000 5.187
71.84000 4.323
71.86000 4.058
71.88000 3.086
71.90000 -2.392
71.92000 0.953
71.94000 2.678
71.96000 1.970
71.98000 2.808
72.00000 -1.027
72.02000 -0.322
72.04000 0.623
72.06000 2.955
72.08000 2.829
72.10000 1.422
72.12000 -1.400
72.14000 -0.526
72.16000 2.889
72.18000 6.942
72.20000 0.926
72.22000 2.448
72.24000 -1.792
72.26000 -2.135
72.28000 -0.478
72.30000 2.980
72.32000 4.426
72.34000 6.457
72.36000 6.837
72.38000 4.282
72.40000 1.333
72.42000 1.483
72.44000 6.150
72.46000 5.032
72.48000 4.490
72.50000 2.279
72.52000 4.807
72.54000 0.374
72.56000 -0.084
72.58000 4.505
72.60000 2.723
72.62000 0.554
72.64000 1.448
72.66000 -0.273
72.68000 3.335
72.70000 -2.317
72.72000 1.008
72.74000 1.950
72.76000 -1.893
72.78000 -0.744
72.80000 4.363
72.82000 1.545
72.84000 1.809
72.86000 5.006
72.88000 3.329
72.90000 3.734
72.92000 4.372
72.94000 1.600
72.96000 1.444
72.98000 0.228
73.00000 1.989
73.02000 3.520
73.04000 4.646
73.06000 8.565
73.08000 6.034
73.10000 3.240
73.12000 4.758
73.14000 6.813
73.16000 1.472
73.18000 3.626
73.20000 5.565
73.22000 2.150
73.24000 5.117
73.26000 2.211
73.28000 1.428
73.30000 2.672
73.32000 4.324
73.34000 0.642
73.36000 -2.347
73.38000 0.396
73.40000 4.293
73.42000 6.558
73.44000 7.867
73.46000 8.656
73.48000 7.929
73.50000 5.997
73.52000 7.245
73.54000 5.734
73.56000 5.517
73.58000 7.560
73.60000 6.577
73.62000 5.520
73.64000 3.729
73.66000 2.549
73.68000 -2.320
73.70000 3.226
73.72000 3.385
73.74000 2.990
73.76000 6.643
73.78000 8.183
73.80000 5.913
73.82000 7.182
73.84000 3.388
73.86000 3.912
73.88000 4.756
73.90000 8.159
73.92000 -0.338
73.94000 4.381
73.96000 5.084
73.98000 3.586
74.00000 3.304
74.02000 5.048
74.04000 0.662
74.06000 1.839
74.08000 4.958
74.10000 7.403
74.12000 6.206
74.14000 4.954
74.16000 4.301
74.18000 3.763
74.20000 3.096
74.22000 1.275
74.24000 -2.310
74.26000 -0.131
74.28000 3.818
74.30000 4.353
74.32000 4.691
74.34000 2.660
74.36000 5.361
74.38000 7.416
74.40000 6.874
74.42000 4.696
74.44000 5.006
74.46000 3.315
74.48000 1.295
74.50000 3.547
74.52000 1.739
74.54000 3.271
74.56000 0.928
74.58000 -0.158
74.60000 -2.033
74.62000 2.330
74.64000 4.303
74.66000 8.889
74.68000 7.286
74.70000 0.198
74.72000 -1.196
74.74000 -0.515
74.76000 4.106
74.78000 7.998
74.80000 6.028
74.82000 6.195
74.84000 4.115
74.86000 4.332
74.88000 1.564
74.90000 4.865
74.92000 10.569
74.94000 1.094
74.96000 -0.514
74.98000 6.202
75.00000 9.829
75.02000 6.170
75.04000 7.930
75.06000 4.459
75.08000 4.866
75.10000 -1.528
75.12000 1.421
75.14000 1.147
75.16000 1.610
75.18000 1.018
75.20000 1.047
75.22000 1.347
75.24000 0.107
75.26000 2.234
75.28000 2.664
75.30000 2.818
75.32000 -0.699
75.34000 4.291
75.36000 6.594
75.38000 5.055
75.40000 1.132
75.42000 0.757
75.44000 2.836
75.46000 2.101
75.48000 3.229
75.50000 -0.789
75.52000 -1.128
75.54000 3.882
75.56000 0.857
75.58000 -2.350
75.60000 2.720
75.62000 6.834
75.64000 4.672
75.66000 0.343
75.68000 0.472
75.70000 5.246
75.72000 3.883
75.74000 1.481
75.76000 -0.630
75.78000 4.211
75.80000 3.283
75.82000 -0.390
75.84000 -1.332
75.86000 -0.081
75.88000 0.612
75.90000 -1.603
75.92000 6.362
75.94000 6.575
75.96000 4.175
75.98000 1.815
76.00000 1.870
76.02000 0.977
76.04000 6.170
76.06000 4.789
76.08000 2.154
76.10000 5.493
76.12000 6.895
76.14000 8.684
76.16000 6.930
76.18000 5.361
76.20000 5.025
76.22000 8.747
76.24000 4.657
76.26000 2.790
76.28000 3.362
76.30000 -1.963
76.32000 2.022
76.34000 4.082
76.36000 5.929
76.38000 6.285
76.40000 3.389
76.42000 1.327
76.44000 -0.774
76.46000 3.897
76.48000 4.239
76.50000 3.547
76.52000 2.361
76.54000 -1.569
76.56000 -2.346
76.58000 3.297
76.60000 3.354
76.62000 4.175
76.64000 1.647
76.66000 4.494
76.68000 4.841
76.70000 2.137
76.72000 4.856
76.74000 -0.983
76.76000 1.190
76.78000 2.205
76.80000 5.874
76.82000 7.566
76.84000 3.250
76.86000 5.157
76.88000 4.052
76.90000 4.143
76.92000 5.096
76.94000 3.722
76.96000 3.693
76.98000 5.478
77.00000 8.122
77.02000 6.928
77.04000 2.778
77.06000 -1.045
77.08000 3.644
77.10000 5.296
77.12000 1.427
77.14000 1.866
77.16000 3.603
77.18000 2.504
77.20000 2.514
77.22000 -0.322
77.24000 1.405
77.26000 1.161
77.28000 0.468
77.30000 0.347
77.32000 2.761
77.34000 3.858
77.36000 7.390
77.38000 3.070
77.40000 5.988
77.42000 2.567
77.44000 5.650
77.46000 5.375
77.48000 6.732
77.50000 -2.376
77.52000 0.499
77.54000 1.864
77.56000 0.668
77.58000 0.217
77.60000 1.897
77.62000 -0.031
77.64000 -1.418
77.66000 1.977
77.68000 3.219
77.70000 3.708
77.72000 1.517
77.74000 1.226
77.76000 -0.914
77.78000 3.176
77.80000 2.025
77.82000 -1.236
77.84000 2.259
77.86000 -0.708
77.88000 3.740
77.90000 6.423
77.92000 2.739
77.94000 3.466
77.96000 3.052
77.98000 5.109
78.00000 10.233
78.02000 6.073
78.04000 3.957
78.06000 4.809
78.08000 -2.380
78.10000 0.231
78.12000 -0.377
78.14000 4.293
78.16000 2.828
78.18000 0.629
78.20000 -2.380
78.22000 1.451
78.24000 -0.563
78.26000 0.444
78.28000 1.777
78.30000 -2.253
78.32000 -1.209
78.34000 0.877
78.36000 -0.176
78.38000 3.853
78.40000 2.561
78.42000 0.136
78.44000 -1.714
78.46000 3.781
78.48000 0.098
78.50000 1.370
78.52000 1.815
78.54000 -1.017
78.56000 -0.374
78.58000 2.548
78.60000 0.415
78.62000 -1.698
78.64000 1.461
78.66000 6.913
78.68000 5.470
78.70000 2.883
78.72000 1.198
78.74000 6.560
78.76000 2.737
78.78000 1.724
78.80000 2.956
78.82000 1.676
78.84000 1.670
78.86000 2.305
78.88000 0.703
78.90000 5.249
78.92000 6.895
78.94000 8.294
78.96000 5.115
78.98000 5.834
79.00000 6.546
79.02000 7.901
79.04000 7.853
79.06000 -0.682
79.08000 1.917
79.10000 4.312
79.12000 3.965
79.14000 4.056
79.16000 1.835
79.18000 0.882
79.20000 3.165
79.22000 0.919
79.24000 0.455
79.26000 3.587
79.28000 5.931
79.30000 5.339
79.32000 2.594
79.34000 5.311
79.36000 5.734
79.38000 -0.083
79.40000 2.640
79.42000 2.296
79.44000 2.223
79.46000 4.015
79.48000 4.291
79.50000 7.976
79.52000 8.617
79.54000 4.342
79.56000 4.463
79.58000 -0.012
79.60000 -2.367
79.62000 -0.983
79.64000 3.921
79.66000 5.298
79.68000 3.608
79.70000 2.490
79.72000 0.398
79.74000 5.093
79.76000 7.551
79.78000 3.852
79.80000 4.440
79.82000 4.950
79.84000 4.982
79.86000 0.278
79.88000 1.985
79.90000 1.846
79.92000 -0.274
79.94000 2.217
79.96000 6.692
79.98000 6.101
80.00000 3.002
80.02000 1.776
80.04000 -1.913
80.06000 -0.571
80.08000 1.159
80.10000 -0.662
80.12000 3.074
80.14000 5.448
80.16000 0.852
80.18000 0.746
80.20000 3.159
80.22000 1.784
80.24000 0.985
80.26000 -0.994
80.28000 0.822
80.30000 6.474
80.32000 7.058
80.34000 4.460
80.36000 0.053
80.38000 -1.987
80.40000 -1.104
80.42000 1.425
80.44000 1.106
80.46000 -0.371
80.48000 0.714
80.50000 4.431
80.52000 1.746
80.54000 1.428
80.56000 0.736
80.58000 -2.473
80.60000 0.233
80.62000 2.396
80.64000 3.538
80.66000 5.243
80.68000 7.680
80.70000 5.254
80.72000 6.257
80.74000 1.498
80.76000 -1.394
80.78000 -0.105
80.80000 4.336
80.82000 0.399
80.84000 3.394
80.86000 -0.195
80.88000 5.896
80.90000 3.967
80.92000 5.557
80.94000 3.937
80.96000 3.377
80.98000 2.975
81.00000 -0.866
81.02000 -0.257
81.04000 -1.033
81.06000 -1.471
81.08000 1.677
81.10000 1.513
81.12000 1.352
81.14000 1.370
81.16000 0.731
81.18000 4.947
81.20000 6.941
81.22000 5.584
81.24000 3.568
81.26000 1.102
81.28000 0.956
81.30000 -0.781
81.32000 -2.533
81.34000 -2.432
81.36000 2.290
81.38000 6.169
81.40000 5.678
81.42000 6.509
81.44000 1.411
81.46000 1.947
81.48000 5.542
81.50000 5.199
81.52000 6.095
81.54000 4.259
81.56000 4.878
81.58000 5.737
81.60000 7.470
81.62000 7.238
81.64000 7.555
81.66000 7.418
81.68000 13.687
81.70000 7.352
81.72000 3.797
81.74000 4.530
81.76000 6.675
81.78000 4.181
81.80000 8.216
81.82000 13.018
81.84000 10.519
81.86000 5.064
81.88000 10.070
81.90000 7.272
81.92000 8.911
81.94000 11.715
81.96000 12.158
81.98000 10.113
82.00000 10.412
82.02000 12.389
82.04000 15.943
82.06000 15.314
82.08000 10.696
82.10000 13.012
82.12000 14.144
82.14000 11.569
82.16000 10.823
82.18000 13.478
82.20000 15.001
82.22000 11.224
82.24000 12.011
82.26000 17.195
82.28000 18.670
82.30000 12.995
82.32000 17.364
82.34000 12.552
82.36000 12.610
82.38000 16.381
82.40000 17.847
82.42000 16.434
82.44000 15.613
82.46000 20.134
82.48000 25.346
82.50000 18.121
82.52000 16.939
82.54000 20.957
82.56000 19.643
82.58000 19.163
82.60000 19.021
82.62000 15.466
82.64000 19.173
82.66000 18.888
82.68000 18.613
82.70000 21.279
82.72000 16.908
82.74000 22.225
82.76000 18.920
82.78000 20.734
82.80000 21.648
82.82000 17.228
82.84000 23.019
82.86000 25.664
82.88000 31.343
82.90000 33.034
82.92000 33.716
82.94000 28.123
82.96000 22.153
82.98000 27.183
83.00000 26.789
83.02000 22.957
83.04000 26.498
83.06000 28.769
83.08000 31.344
83.10000 28.884
83.12000 24.773
83.14000 28.690
83.16000 30.014
83.18000 28.139
83.20000 24.351
83.22000 22.833
83.24000 22.411
83.26000 27.426
83.28000 26.662
83.30000 26.951
83.32000 23.428
83.34000 21.066
83.36000 24.717
83.38000 26.468
83.40000 23.789
83.42000 23.902
83.44000 24.999
83.46000 22.836
83.48000 26.486
83.50000 19.956
83.52000 26.962
83.54000 29.026
83.56000 23.226
83.58000 21.511
83.60000 24.989
83.62000 21.968
83.64000 18.862
83.66000 18.899
83.68000 22.876
83.70000 21.717
83.72000 20.458
83.74000 22.824
83.76000 23.640
83.78000 24.660
83.80000 19.413
83.82000 17.997
83.84000 21.870
83.86000 18.782
83.88000 18.249
83.90000 21.830
83.92000 19.892
83.94000 15.601
83.96000 14.440
83.98000 17.638
84.00000 14.008
84.02000 11.742
84.04000 18.321
84.06000 18.903
84.08000 15.272
84.10000 11.348
84.12000 11.678
84.14000 13.099
84.16000 10.527
84.18000 12.979
84.20000 13.053
84.22000 14.287
84.24000 17.036
84.26000 17.338
84.28000 18.521
84.30000 14.218
84.32000 14.932
84.34000 12.747
84.36000 11.909
84.38000 11.180
84.40000 6.528
84.42000 2.056
84.44000 7.118
84.46000 7.838
84.48000 9.549
84.50000 10.472
84.52000 15.411
84.54000 10.280
84.56000 11.481
84.58000 10.334
84.60000 11.762
84.62000 9.428
84.64000 8.568
84.66000 4.891
84.68000 6.960
84.70000 7.045
84.72000 8.228
84.74000 8.539
84.76000 6.182
84.78000 5.610
84.80000 6.369
84.82000 10.412
84.84000 8.418
84.86000 6.264
84.88000 4.839
84.90000 5.416
84.92000 6.134
84.94000 7.321
84.96000 5.990
84.98000 8.351
85.00000 8.447
85.02000 9.915
85.04000 8.420
85.06000 4.099
85.08000 5.187
85.10000 3.758
85.12000 -2.347
85.14000 3.364
85.16000 10.100
85.18000 7.822
85.20000 4.601
85.22000 8.379
85.24000 3.037
85.26000 2.609
85.28000 8.091
85.30000 7.208
85.32000 3.404
85.34000 4.025
85.36000 4.146
85.38000 7.938
85.40000 6.060
85.42000 3.407
85.44000 6.256
85.46000 2.975
85.48000 2.822
85.50000 1.532
85.52000 0.769
85.54000 5.866
85.56000 6.193
85.58000 2.390
85.60000 1.751
85.62000 2.528
85.64000 4.874
85.66000 3.191
85.68000 4.683
85.70000 5.444
85.72000 5.212
85.74000 2.529
85.76000 4.573
85.78000 5.992
85.80000 3.801
85.82000 -0.600
85.84000 1.396
85.86000 1.925
85.88000 -0.231
85.90000 1.717
85.92000 2.116
85.94000 3.759
85.96000 11.476
85.98000 4.734
86.00000 1.133
86.02000 -0.434
86.04000 0.553
86.06000 3.723
86.08000 5.679
86.10000 0.645
86.12000 0.899
86.14000 1.049
86.16000 2.939
86.18000 1.976
86.20000 4.628
86.22000 5.497
86.24000 4.526
86.26000 4.470
86.28000 4.653
86.30000 5.953
86.32000 2.678
86.34000 -2.397
86.36000 -2.436
86.38000 3.275
86.40000 6.904
86.42000 9.200
86.44000 11.118
86.46000 9.299
86.48000 8.380
86.50000 11.225
86.52000 12.733
86.54000 8.750
86.56000 6.122
86.58000 4.064
86.60000 3.776
86.62000 0.397
86.64000 -0.492
86.66000 7.561
86.68000 7.382
86.70000 6.447
86.72000 8.726
86.74000 6.518
86.76000 5.357
86.78000 9.160
86.80000 6.173
86.82000 3.231
86.84000 -2.453
86.86000 4.902
86.88000 6.856
86.90000 9.037
86.92000 6.897
86.94000 7.011
86.96000 8.994
86.98000 7.252
87.00000 8.975
87.02000 9.060
87.04000 10.191
87.06000 8.146
87.08000 12.988
87.10000 14.558
87.12000 9.968
87.14000 8.635
87.16000 12.669
87.18000 10.628
87.20000 12.740
87.22000 11.314
87.24000 12.157
87.26000 19.914
87.28000 20.493
87.30000 17.460
87.32000 18.174
87.34000 15.283
87.36000 19.099
87.38000 19.823
87.40000 14.489
87.42000 17.377
87.44000 17.465
87.46000 15.604
87.48000 20.829
87.50000 21.392
87.52000 18.245
87.54000 19.782
87.56000 22.301
87.58000 24.372
87.60000 19.561
87.62000 22.604
87.64000 23.463
87.66000 25.376
87.68000 24.369
87.70000 25.850
87.72000 23.417
87.74000 20.839
87.76000 22.652
87.78000 21.577
87.80000 20.932
87.82000 20.391
87.84000 20.505
87.86000 20.617
87.88000 18.035
87.90000 19.222
87.92000 19.974
87.94000 17.522
87.96000 20.150
87.98000 19.644
88.00000 20.225
88.02000 20.934
88.04000 18.388
88.06000 14.631
88.08000 20.578
88.10000 14.880
88.12000 10.857
88.14000 15.013
88.16000 12.673
88.18000 13.882
88.20000 13.888
88.22000 12.509
88.24000 11.068
88.26000 8.518
88.28000 5.940
88.30000 6.487
88.32000 8.875
88.34000 4.904
88.36000 5.939
88.38000 9.392
88.40000 13.745
88.42000 13.217
88.44000 12.868
88.46000 9.640
88.48000 3.965
88.50000 5.345
88.52000 4.116
88.54000 8.923
88.56000 8.025
88.58000 5.467
88.60000 4.406
88.62000 4.696
88.64000 10.330
88.66000 8.717
88.68000 12.330
88.70000 11.149
88.72000 7.650
88.74000 2.928
88.76000 0.007
88.78000 5.086
88.80000 8.238
88.82000 4.452
88.84000 3.533
88.86000 6.576
88.88000 7.661
88.90000 6.468
88.92000 2.719
88.94000 2.826
88.96000 3.836
88.98000 4.334
89.00000 4.869
89.02000 0.743
89.04000 2.345
89.06000 9.525
89.08000 9.561
89.10000 5.316
89.12000 -1.545
89.14000 -2.331
89.16000 0.423
89.18000 -0.248
89.20000 -0.723
89.22000 1.669
89.24000 2.062
89.26000 -1.895
89.28000 -0.654
89.30000 5.622
89.32000 8.140
89.34000 4.175
89.36000 5.253
89.38000 3.351
89.40000 1.000
89.42000 0.878
89.44000 2.003
89.46000 0.877
89.48000 0.702
89.50000 2.200
89.52000 6.666
89.54000 7.390
89.56000 2.394
89.58000 2.025
89.60000 2.372
89.62000 -1.786
89.64000 0.860
89.66000 -1.283
89.68000 0.362
89.70000 0.625
89.72000 0.863
89.74000 -0.740
89.76000 0.760
89.78000 2.526
89.80000 0.517
89.82000 3.883
89.84000 4.659
89.86000 2.149
89.88000 2.661
89.90000 5.088
89.92000 2.787
89.94000 1.055
89.96000 1.271
89.98000 4.688
90.00000 4.533
90.02000 1.741
90.04000 1.810
90.06000 1.148
90.08000 0.132
90.10000 2.087
90.12000 1.541
90.14000 0.444
90.16000 1.325
90.18000 2.721
90.20000 1.905
90.22000 2.220
90.24000 4.996
90.26000 -0.164
90.28000 -1.522
90.30000 2.391
90.32000 0.246
90.34000 1.237
90.36000 -0.754
90.38000 2.881
90.40000 1.654
90.42000 3.030
90.44000 1.777
90.46000 -0.967
90.48000 1.529
90.50000 4.271
90.52000 2.137
90.54000 1.373
90.56000 6.134
90.58000 3.587
90.60000 4.614
90.62000 2.438
90.64000 -0.441
90.66000 0.386
90.68000 0.975
90.70000 3.796
90.72000 2.197
90.74000 3.784
90.76000 4.632
90.78000 3.088
90.80000 3.167
90.82000 3.025
90.84000 5.759
90.86000 3.542
90.88000 0.723
90.90000 -2.191
90.92000 -0.238
90.94000 4.563
90.96000 4.547
90.98000 2.935
91.00000 4.600
91.02000 3.643
91.04000 3.181
91.06000 3.182
91.08000 3.927
91.10000 1.809
91.12000 1.737
91.14000 -0.272
91.16000 4.040
91.18000 6.737
91.20000 3.251
91.22000 5.122
91.24000 8.429
91.26000 6.002
91.28000 6.340
91.30000 3.883
91.32000 1.109
91.34000 1.587
91.36000 3.499
91.38000 3.188
91.40000 2.418
91.42000 6.197
91.44000 8.742
91.46000 3.540
91.48000 3.805
91.50000 0.475
91.52000 3.102
91.54000 6.129
91.56000 1.464
91.58000 -0.191
91.60000 2.602
91.62000 3.972
91.64000 5.784
91.66000 1.154
91.68000 5.126
91.70000 5.355
91.72000 6.576
91.74000 9.991
91.76000 9.934
91.78000 7.424
91.80000 7.394
91.82000 4.828
91.84000 7.382
91.86000 3.717
91.88000 6.933
91.90000 2.987
91.92000 -0.905
91.94000 0.470
91.96000 -1.549
91.98000 2.369
92.00000 4.240
92.02000 1.272
92.04000 -1.645
92.06000 3.596
92.08000 3.820
92.10000 1.855
92.12000 7.552
92.14000 5.868
92.16000 8.897
92.18000 5.458
92.20000 7.156
92.22000 7.008
92.24000 3.148
92.26000 4.513
92.28000 6.095
92.30000 4.754
92.32000 2.717
92.34000 5.503
92.36000 6.680
92.38000 10.492
92.40000 7.190
92.42000 9.420
92.44000 13.042
92.46000 -0.945
92.48000 -2.158
92.50000 1.213
92.52000 3.762
92.54000 6.202
92.56000 5.631
92.58000 2.326
92.60000 4.621
92.62000 4.720
92.64000 3.613
92.66000 9.077
92.68000 9.707
92.70000 10.436
92.72000 4.809
92.74000 4.049
92.76000 5.292
92.78000 4.716
92.80000 5.165
92.82000 7.453
92.84000 4.016
92.86000 1.791
92.88000 2.717
92.90000 3.941
92.92000 8.219
92.94000 4.927
92.96000 5.676
92.98000 6.123
93.00000 4.343
93.02000 7.895
93.04000 7.858
93.06000 5.686
93.08000 1.648
93.10000 -0.142
93.12000 -1.112
93.14000 -2.213
93.16000 4.052
93.18000 4.769
93.20000 4.772
93.22000 2.527
93.24000 4.425
93.26000 1.191
93.28000 2.019
93.30000 5.761
93.32000 3.236
93.34000 0.999
93.36000 4.458
93.38000 6.221
93.40000 7.702
93.42000 5.089
93.44000 6.875
93.46000 1.255
93.48000 -0.358
93.50000 3.203
93.52000 5.480
93.54000 3.277
93.56000 2.991
93.58000 0.601
93.60000 5.268
93.62000 5.557
93.64000 4.164
93.66000 6.257
93.68000 4.539
93.70000 6.207
93.72000 3.048
93.74000 0.795
93.76000 3.642
93.78000 7.366
93.80000 8.774
93.82000 6.563
93.84000 4.011
93.86000 7.010
93.88000 2.726
93.90000 7.614
93.92000 3.577
93.94000 0.223
93.96000 3.853
93.98000 0.250
94.00000 -1.357
94.02000 0.320
94.04000 3.288
94.06000 4.924
94.08000 8.800
94.10000 7.087
94.12000 4.420
94.14000 1.263
94.16000 0.768
94.18000 0.566
94.20000 2.425
94.22000 -2.251
94.24000 -1.093
94.26000 -0.561
94.28000 2.059
94.30000 9.500
94.32000 8.149
94.34000 4.120
94.36000 6.339
94.38000 3.662
94.40000 3.662
94.42000 6.154
94.44000 0.905
94.46000 -1.112
94.48000 3.121
94.50000 0.027
94.52000 1.295
94.54000 1.782
94.56000 -1.284
94.58000 0.696
94.60000 0.715
94.62000 3.070
94.64000 4.992
94.66000 -1.117
94.68000 -1.112
94.70000 -0.469
94.72000 1.165
94.74000 4.642
94.76000 6.832
94.78000 3.192
94.80000 5.831
94.82000 8.779
94.84000 11.099
94.86000 10.900
94.88000 3.924
94.90000 -0.826
94.92000 1.436
94.94000 1.256
94.96000 3.000
94.98000 0.885
95.00000 3.837
95.02000 4.159
95.04000 1.495
95.06000 3.290
95.08000 3.713
95.10000 0.591
95.12000 1.440
95.14000 6.671
95.16000 5.700
95.18000 -1.035
95.20000 0.903
95.22000 6.500
95.24000 6.141
95.26000 1.724
95.28000 9.307
95.30000 8.370
95.32000 1.881
95.34000 1.625
95.36000 1.357
95.38000 9.851
95.40000 9.641
95.42000 2.540
95.44000 2.483
95.46000 3.353
95.48000 8.517
95.50000 7.824
95.52000 2.151
95.54000 2.425
95.56000 4.973
95.58000 8.423
95.60000 6.421
95.62000 7.783
95.64000 6.120
95.66000 6.024
95.68000 5.269
95.70000 8.494
95.72000 8.329
95.74000 1.186
95.76000 -1.511
95.78000 0.467
95.80000 -0.004
95.82000 0.697
95.84000 1.115
95.86000 7.371
95.88000 5.796
95.90000 8.295
95.92000 7.440
95.94000 12.185
95.96000 6.776
95.98000 4.584
96.00000 8.633
96.02000 7.493
96.04000 3.666
96.06000 5.637
96.08000 3.080
96.10000 -1.117
96.12000 4.515
96.14000 -1.014
96.16000 0.767
96.18000 7.774
96.20000 -2.218
96.22000 -1.452
96.24000 1.252
96.26000 0.398
96.28000 4.761
96.30000 5.607
96.32000 2.380
96.34000 -1.773
96.36000 5.325
96.38000 3.528
96.40000 2.301
96.42000 9.367
96.44000 10.651
96.46000 3.508
96.48000 -1.590
96.50000 4.239
96.52000 3.252
96.54000 6.828
96.56000 5.999
96.58000 6.071
96.60000 1.895
96.62000 1.362
96.64000 1.936
96.66000 4.985
96.68000 12.289
96.70000 8.873
96.72000 5.238
96.74000 5.905
96.76000 5.430
96.78000 1.674
96.80000 5.894
96.82000 9.317
96.84000 4.592
96.86000 3.344
96.88000 9.530
96.90000 9.194
96.92000 8.259
96.94000 6.107
96.96000 3.505
96.98000 4.339
97.00000 7.116
97.02000 5.606
97.04000 5.304
97.06000 7.449
97.08000 2.765
97.10000 -1.566
97.12000 3.357
97.14000 5.446
97.16000 9.033
97.18000 10.572
97.20000 6.002
97.22000 6.700
97.24000 9.992
97.26000 8.914
97.28000 2.748
97.30000 5.410
97.32000 9.404
97.34000 0.264
97.36000 1.129
97.38000 4.070
97.40000 6.667
97.42000 8.853
97.44000 4.369
97.46000 3.665
97.48000 -0.532
97.50000 0.965
97.52000 2.977
97.54000 6.944
97.56000 5.572
97.58000 5.710
97.60000 6.986
97.62000 3.075
97.64000 5.701
97.66000 2.753
97.68000 4.766
97.70000 13.352
97.72000 9.189
97.74000 10.012
97.76000 -0.321
97.78000 2.177
97.80000 8.234
97.82000 7.152
97.84000 3.769
97.86000 9.550
97.88000 12.182
97.90000 7.033
97.92000 6.138
97.94000 7.344
97.96000 6.325
97.98000 3.375
98.00000 1.709
98.02000 -2.056
98.04000 0.384
98.06000 6.189
98.08000 9.393
98.10000 4.158
98.12000 7.065
98.14000 4.357
98.16000 8.798
98.18000 1.997
98.20000 10.235
98.22000 4.264
98.24000 2.591
98.26000 8.397
98.28000 7.532
98.30000 7.095
98.32000 5.811
98.34000 -3.410
98.36000 7.054
98.38000 5.461
98.40000 -2.140
98.42000 0.839
98.44000 4.280
98.46000 8.735
98.48000 7.341
98.50000 11.483
98.52000 16.246
98.54000 9.536
98.56000 7.787
98.58000 -1.271
98.60000 1.965
98.62000 6.402
98.64000 14.103
98.66000 10.631
98.68000 5.263
98.70000 4.372
98.72000 8.007
98.74000 4.658
98.76000 2.186
98.78000 4.246
98.80000 2.471
98.82000 7.802
98.84000 9.265
98.86000 12.293
98.88000 11.418
98.90000 11.635
98.92000 9.218
98.94000 8.305
98.96000 9.580
98.98000 10.422
99.00000 4.119
99.02000 7.742
99.04000 9.384
99.06000 8.550
99.08000 6.865
99.10000 15.049
99.12000 14.140
99.14000 2.876
99.16000 -1.165
99.18000 15.774
99.20000 4.915
99.22000 6.529
99.24000 7.834
99.26000 3.145
99.28000 -1.599
99.30000 7.091
99.32000 10.981
99.34000 8.211
99.36000 9.524
99.38000 1.497
99.40000 4.847
99.42000 0.637
99.44000 3.844
99.46000 11.117
99.48000 8.610
99.50000 -2.074
99.52000 0.039
99.54000 10.754
99.56000 7.688
99.58000 -2.896
99.60000 2.843
99.62000 -0.512
99.64000 8.935
99.66000 4.803
99.68000 2.901
99.70000 -1.754
99.72000 0.667
99.74000 -2.177
99.76000 1.863
99.78000 -0.355
99.80000 9.234
99.82000 6.423
99.84000 2.654
99.86000 4.308
99.88000 5.396
99.90000 -1.028
99.92000 -2.295
99.94000 0.537
99.96000 7.478
99.98000 0.000
