'Id: "0011389" Comment: "Integrate frame 0011389_Au-Ir-Rh_Au-Rich_XRD_Mapping-238-0000.gfrmwith cursor Wedge Cursor #5" Operator: "B?rgel" Anode: "Cu" Wavelength: "1.5406" Scantype: "2Theta (TwoTheta)" TimePerStep: "1" X: "36" Y: "13.5" Z: "5.95" 
10.00000 0.000
10.02000 -3.155
10.04000 -3.159
10.06000 7.330
10.08000 4.296
10.10000 11.315
10.12000 22.869
10.14000 17.748
10.16000 12.093
10.18000 7.696
10.20000 4.715
10.22000 11.215
10.24000 10.380
10.26000 16.842
10.28000 15.646
10.30000 13.839
10.32000 14.463
10.34000 9.337
10.36000 18.817
10.38000 22.216
10.40000 14.070
10.42000 32.960
10.44000 24.705
10.46000 20.244
10.48000 20.224
10.50000 18.980
10.52000 17.620
10.54000 17.488
10.56000 19.724
10.58000 13.177
10.60000 16.315
10.62000 25.854
10.64000 30.144
10.66000 27.739
10.68000 16.702
10.70000 22.317
10.72000 28.476
10.74000 33.376
10.76000 33.507
10.78000 39.797
10.80000 37.427
10.82000 25.949
10.84000 18.422
10.86000 18.724
10.88000 12.905
10.90000 18.928
10.92000 20.729
10.94000 27.954
10.96000 26.385
10.98000 25.551
11.00000 27.635
11.02000 35.000
11.04000 42.361
11.06000 42.071
11.08000 39.223
11.10000 34.509
11.12000 36.553
11.14000 24.988
11.16000 28.877
11.18000 37.355
11.20000 28.767
11.22000 27.181
11.24000 26.071
11.26000 36.622
11.28000 42.116
11.30000 40.824
11.32000 33.935
11.34000 44.414
11.36000 42.978
11.38000 49.554
11.40000 51.309
11.42000 36.885
11.44000 30.669
11.46000 43.042
11.48000 47.728
11.50000 47.747
11.52000 45.673
11.54000 35.810
11.56000 41.058
11.58000 40.069
11.60000 39.405
11.62000 41.671
11.64000 37.825
11.66000 41.212
11.68000 37.750
11.70000 45.779
11.72000 46.757
11.74000 42.628
11.76000 45.796
11.78000 38.942
11.80000 42.016
11.82000 48.970
11.84000 36.337
11.86000 34.954
11.88000 43.516
11.90000 48.721
11.92000 42.473
11.94000 45.269
11.96000 47.666
11.98000 49.237
12.00000 50.804
12.02000 50.076
12.04000 52.101
12.06000 46.763
12.08000 39.089
12.10000 45.809
12.12000 50.084
12.14000 47.109
12.16000 46.809
12.18000 46.234
12.20000 41.903
12.22000 36.068
12.24000 39.019
12.26000 42.954
12.28000 50.008
12.30000 52.193
12.32000 51.763
12.34000 52.864
12.36000 48.811
12.38000 47.798
12.40000 54.333
12.42000 47.321
12.44000 51.504
12.46000 53.682
12.48000 56.978
12.50000 49.428
12.52000 36.614
12.54000 37.763
12.56000 46.613
12.58000 49.056
12.60000 49.500
12.62000 41.991
12.64000 46.215
12.66000 40.356
12.68000 40.045
12.70000 39.725
12.72000 41.741
12.74000 42.241
12.76000 46.458
12.78000 52.011
12.80000 49.704
12.82000 58.275
12.84000 48.408
12.86000 44.382
12.88000 31.706
12.90000 39.860
12.92000 40.431
12.94000 41.762
12.96000 42.552
12.98000 41.160
13.00000 46.875
13.02000 48.896
13.04000 51.938
13.06000 54.140
13.08000 35.753
13.10000 34.013
13.12000 34.632
13.14000 50.860
13.16000 54.555
13.18000 53.673
13.20000 53.892
13.22000 57.509
13.24000 58.501
13.26000 50.480
13.28000 40.155
13.30000 49.045
13.32000 48.958
13.34000 44.565
13.36000 47.387
13.38000 41.723
13.40000 45.130
13.42000 40.318
13.44000 48.694
13.46000 43.417
13.48000 36.175
13.50000 36.952
13.52000 46.990
13.54000 54.422
13.56000 47.956
13.58000 31.577
13.60000 22.180
13.62000 32.059
13.64000 45.326
13.66000 36.032
13.68000 35.938
13.70000 44.871
13.72000 43.179
13.74000 47.881
13.76000 43.414
13.78000 37.267
13.80000 38.904
13.82000 28.976
13.84000 31.490
13.86000 42.204
13.88000 50.075
13.90000 51.739
13.92000 44.802
13.94000 38.076
13.96000 47.451
13.98000 46.061
14.00000 42.513
14.02000 28.689
14.04000 25.638
14.06000 33.984
14.08000 42.931
14.10000 44.911
14.12000 51.135
14.14000 45.284
14.16000 28.643
14.18000 28.511
14.20000 39.055
14.22000 40.125
14.24000 41.571
14.26000 36.780
14.28000 32.538
14.30000 40.648
14.32000 47.390
14.34000 38.989
14.36000 33.790
14.38000 33.290
14.40000 29.465
14.42000 35.923
14.44000 36.576
14.46000 37.422
14.48000 43.862
14.50000 42.534
14.52000 47.185
14.54000 39.583
14.56000 30.196
14.58000 34.572
14.60000 41.814
14.62000 44.438
14.64000 41.395
14.66000 38.924
14.68000 37.826
14.70000 31.967
14.72000 33.618
14.74000 28.553
14.76000 29.420
14.78000 24.924
14.80000 20.883
14.82000 28.930
14.84000 25.816
14.86000 27.023
14.88000 27.875
14.90000 27.026
14.92000 24.411
14.94000 27.630
14.96000 27.808
14.98000 32.093
15.00000 20.809
15.02000 21.853
15.04000 24.745
15.06000 24.048
15.08000 31.804
15.10000 23.404
15.12000 27.118
15.14000 33.345
15.16000 32.302
15.18000 32.432
15.20000 32.347
15.22000 30.260
15.24000 36.831
15.26000 34.593
15.28000 29.127
15.30000 26.302
15.32000 26.375
15.34000 30.552
15.36000 31.185
15.38000 29.816
15.40000 25.993
15.42000 27.682
15.44000 26.542
15.46000 22.172
15.48000 24.913
15.50000 22.628
15.52000 26.446
15.54000 26.428
15.56000 21.877
15.58000 22.240
15.60000 30.129
15.62000 22.891
15.64000 27.913
15.66000 32.630
15.68000 21.198
15.70000 22.386
15.72000 25.417
15.74000 16.923
15.76000 16.776
15.78000 23.258
15.80000 24.549
15.82000 23.693
15.84000 14.932
15.86000 20.737
15.88000 26.900
15.90000 29.433
15.92000 27.197
15.94000 25.033
15.96000 21.337
15.98000 27.558
16.00000 26.258
16.02000 26.318
16.04000 20.539
16.06000 11.299
16.08000 9.839
16.10000 25.434
16.12000 25.362
16.14000 20.073
16.16000 15.721
16.18000 19.981
16.20000 19.024
16.22000 18.632
16.24000 12.155
16.26000 12.734
16.28000 19.831
16.30000 11.624
16.32000 20.955
16.34000 26.309
16.36000 13.261
16.38000 12.127
16.40000 11.182
16.42000 18.947
16.44000 15.479
16.46000 21.575
16.48000 26.945
16.50000 23.369
16.52000 18.316
16.54000 12.431
16.56000 10.529
16.58000 15.944
16.60000 7.951
16.62000 14.780
16.64000 23.826
16.66000 21.213
16.68000 14.396
16.70000 17.008
16.72000 15.535
16.74000 16.429
16.76000 16.778
16.78000 12.491
16.80000 16.251
16.82000 5.356
16.84000 16.892
16.86000 13.351
16.88000 12.970
16.90000 8.398
16.92000 7.225
16.94000 9.635
16.96000 14.703
16.98000 18.027
17.00000 13.362
17.02000 10.205
17.04000 14.666
17.06000 4.687
17.08000 4.081
17.10000 12.053
17.12000 18.951
17.14000 17.305
17.16000 13.898
17.18000 19.562
17.20000 15.137
17.22000 17.119
17.24000 17.387
17.26000 3.920
17.28000 6.833
17.30000 5.994
17.32000 7.508
17.34000 11.323
17.36000 8.771
17.38000 9.664
17.40000 8.993
17.42000 16.370
17.44000 17.809
17.46000 12.509
17.48000 9.228
17.50000 12.263
17.52000 20.936
17.54000 21.885
17.56000 17.934
17.58000 15.321
17.60000 13.414
17.62000 10.543
17.64000 6.506
17.66000 -0.419
17.68000 -0.754
17.70000 5.740
17.72000 17.946
17.74000 17.756
17.76000 15.756
17.78000 10.293
17.80000 3.918
17.82000 1.872
17.84000 5.170
17.86000 6.907
17.88000 10.614
17.90000 6.366
17.92000 -2.642
17.94000 1.830
17.96000 9.407
17.98000 6.594
18.00000 0.562
18.02000 5.598
18.04000 12.675
18.06000 8.958
18.08000 1.918
18.10000 9.526
18.12000 11.303
18.14000 11.596
18.16000 7.357
18.18000 15.001
18.20000 13.562
18.22000 8.685
18.24000 2.153
18.26000 7.135
18.28000 9.282
18.30000 11.453
18.32000 8.676
18.34000 7.475
18.36000 8.410
18.38000 2.397
18.40000 -0.315
18.42000 4.818
18.44000 6.195
18.46000 3.205
18.48000 4.122
18.50000 0.180
18.52000 0.906
18.54000 2.299
18.56000 5.519
18.58000 3.060
18.60000 1.896
18.62000 8.709
18.64000 5.735
18.66000 3.770
18.68000 8.924
18.70000 3.091
18.72000 5.099
18.74000 0.780
18.76000 -1.433
18.78000 5.916
18.80000 7.665
18.82000 2.566
18.84000 3.083
18.86000 0.385
18.88000 -0.128
18.90000 -4.319
18.92000 5.540
18.94000 2.287
18.96000 -2.988
18.98000 4.642
19.00000 10.101
19.02000 10.559
19.04000 11.655
19.06000 15.207
19.08000 11.084
19.10000 11.170
19.12000 9.148
19.14000 9.911
19.16000 7.731
19.18000 2.937
19.20000 7.533
19.22000 4.999
19.24000 3.655
19.26000 -1.183
19.28000 4.934
19.30000 4.575
19.32000 6.190
19.34000 6.063
19.36000 5.006
19.38000 2.691
19.40000 5.438
19.42000 2.692
19.44000 11.784
19.46000 4.511
19.48000 0.513
19.50000 3.941
19.52000 8.769
19.54000 8.047
19.56000 5.705
19.58000 6.777
19.60000 15.084
19.62000 11.285
19.64000 9.326
19.66000 4.056
19.68000 -0.337
19.70000 7.829
19.72000 11.240
19.74000 11.953
19.76000 5.398
19.78000 6.046
19.80000 1.517
19.82000 -4.238
19.84000 -1.067
19.86000 -0.490
19.88000 -0.431
19.90000 4.714
19.92000 4.515
19.94000 7.866
19.96000 8.451
19.98000 4.633
20.00000 7.849
20.02000 7.234
20.04000 6.157
20.06000 6.694
20.08000 11.905
20.10000 10.692
20.12000 14.614
20.14000 5.264
20.16000 -3.635
20.18000 -1.539
20.20000 2.029
20.22000 6.785
20.24000 9.022
20.26000 5.933
20.28000 3.866
20.30000 8.201
20.32000 6.187
20.34000 4.784
20.36000 14.213
20.38000 6.535
20.40000 2.546
20.42000 10.365
20.44000 14.200
20.46000 10.445
20.48000 11.144
20.50000 4.356
20.52000 -0.969
20.54000 7.339
20.56000 9.733
20.58000 10.047
20.60000 13.891
20.62000 4.981
20.64000 6.252
20.66000 12.961
20.68000 11.184
20.70000 9.165
20.72000 9.315
20.74000 9.502
20.76000 9.987
20.78000 11.106
20.80000 17.521
20.82000 14.711
20.84000 7.550
20.86000 10.204
20.88000 9.722
20.90000 4.147
20.92000 4.279
20.94000 2.403
20.96000 4.085
20.98000 7.140
21.00000 8.597
21.02000 0.197
21.04000 2.474
21.06000 5.699
21.08000 6.927
21.10000 4.458
21.12000 8.341
21.14000 10.636
21.16000 13.336
21.18000 12.568
21.20000 7.255
21.22000 10.512
21.24000 9.005
21.26000 3.345
21.28000 6.106
21.30000 11.010
21.32000 11.011
21.34000 2.464
21.36000 3.233
21.38000 -4.149
21.40000 3.196
21.42000 9.726
21.44000 -0.203
21.46000 3.890
21.48000 7.939
21.50000 11.077
21.52000 13.960
21.54000 14.031
21.56000 4.807
21.58000 1.177
21.60000 8.552
21.62000 10.701
21.64000 4.225
21.66000 8.403
21.68000 6.873
21.70000 6.650
21.72000 5.824
21.74000 4.052
21.76000 7.727
21.78000 2.366
21.80000 2.303
21.82000 0.973
21.84000 0.918
21.86000 11.727
21.88000 19.393
21.90000 14.650
21.92000 10.473
21.94000 4.638
21.96000 -2.171
21.98000 -0.579
22.00000 3.639
22.02000 4.444
22.04000 10.614
22.06000 13.767
22.08000 13.245
22.10000 4.093
22.12000 3.476
22.14000 2.775
22.16000 3.504
22.18000 1.927
22.20000 -1.065
22.22000 -2.645
22.24000 1.981
22.26000 10.890
22.28000 13.196
22.30000 2.479
22.32000 1.708
22.34000 5.109
22.36000 6.122
22.38000 -2.977
22.40000 6.400
22.42000 7.918
22.44000 6.086
22.46000 -0.415
22.48000 -1.523
22.50000 -0.868
22.52000 1.116
22.54000 7.246
22.56000 9.174
22.58000 12.500
22.60000 11.837
22.62000 7.163
22.64000 3.511
22.66000 4.918
22.68000 3.215
22.70000 3.159
22.72000 6.276
22.74000 2.873
22.76000 -4.100
22.78000 -4.099
22.80000 6.758
22.82000 12.720
22.84000 7.902
22.86000 7.657
22.88000 6.294
22.90000 6.716
22.92000 5.497
22.94000 -4.095
22.96000 -1.886
22.98000 4.233
23.00000 5.780
23.02000 1.326
23.04000 -2.221
23.06000 3.378
23.08000 3.674
23.10000 4.008
23.12000 9.270
23.14000 4.781
23.16000 5.534
23.18000 3.015
23.20000 3.202
23.22000 7.575
23.24000 11.170
23.26000 6.496
23.28000 4.009
23.30000 2.811
23.32000 5.705
23.34000 3.610
23.36000 1.740
23.38000 -0.980
23.40000 -1.250
23.42000 -3.143
23.44000 -1.421
23.46000 5.488
23.48000 4.818
23.50000 1.225
23.52000 5.461
23.54000 6.235
23.56000 4.330
23.58000 5.031
23.60000 9.314
23.62000 7.826
23.64000 5.186
23.66000 4.389
23.68000 -1.530
23.70000 2.653
23.72000 8.379
23.74000 5.990
23.76000 4.100
23.78000 -0.180
23.80000 5.833
23.82000 3.990
23.84000 1.980
23.86000 -1.632
23.88000 -3.437
23.90000 3.399
23.92000 9.202
23.94000 2.243
23.96000 -0.707
23.98000 3.643
24.00000 7.092
24.02000 3.281
24.04000 -0.949
24.06000 -4.047
24.08000 1.466
24.10000 3.007
24.12000 0.695
24.14000 -1.483
24.16000 -1.059
24.18000 -3.792
24.20000 -1.892
24.22000 -0.784
24.24000 1.994
24.26000 3.092
24.28000 3.009
24.30000 1.107
24.32000 5.071
24.34000 2.245
24.36000 2.479
24.38000 0.445
24.40000 -0.794
24.42000 -1.527
24.44000 -1.099
24.46000 -0.615
24.48000 12.218
24.50000 10.823
24.52000 3.848
24.54000 3.876
24.56000 -1.114
24.58000 5.141
24.60000 6.114
24.62000 3.038
24.64000 -3.301
24.66000 -0.633
24.68000 5.241
24.70000 4.069
24.72000 4.099
24.74000 5.089
24.76000 3.167
24.78000 0.153
24.80000 1.399
24.82000 0.819
24.84000 -2.156
24.86000 -1.316
24.88000 3.105
24.90000 9.045
24.92000 1.796
24.94000 -3.228
24.96000 -1.871
24.98000 5.768
25.00000 6.775
25.02000 0.226
25.04000 -1.534
25.06000 5.158
25.08000 5.746
25.10000 5.266
25.12000 4.552
25.14000 3.295
25.16000 5.443
25.18000 4.127
25.20000 -0.518
25.22000 0.880
25.24000 4.153
25.26000 -1.554
25.28000 -1.305
25.30000 5.687
25.32000 2.837
25.34000 6.433
25.36000 3.013
25.38000 1.360
25.40000 -0.136
25.42000 5.608
25.44000 5.619
25.46000 8.681
25.48000 9.189
25.50000 5.515
25.52000 3.417
25.54000 -3.957
25.56000 3.945
25.58000 5.846
25.60000 11.832
25.62000 0.301
25.64000 -3.336
25.66000 -3.532
25.68000 -3.944
25.70000 4.851
25.72000 8.197
25.74000 -0.061
25.76000 -1.884
25.78000 4.534
25.80000 8.639
25.82000 8.833
25.84000 1.101
25.86000 0.340
25.88000 0.650
25.90000 1.964
25.92000 6.054
25.94000 5.971
25.96000 4.543
25.98000 2.534
26.00000 9.905
26.02000 9.298
26.04000 -1.791
26.06000 0.645
26.08000 5.456
26.10000 6.529
26.12000 10.033
26.14000 9.194
26.16000 0.907
26.18000 2.992
26.20000 9.585
26.22000 3.172
26.24000 2.085
26.26000 6.141
26.28000 2.809
26.30000 0.793
26.32000 -3.931
26.34000 2.398
26.36000 5.795
26.38000 6.020
26.40000 7.403
26.42000 -1.475
26.44000 3.478
26.46000 4.611
26.48000 0.282
26.50000 4.376
26.52000 2.014
26.54000 1.566
26.56000 7.349
26.58000 6.543
26.60000 3.862
26.62000 0.219
26.64000 3.164
26.66000 1.952
26.68000 2.528
26.70000 3.311
26.72000 6.101
26.74000 4.312
26.76000 2.673
26.78000 5.738
26.80000 3.103
26.82000 0.080
26.84000 -3.349
26.86000 -3.908
26.88000 -0.315
26.90000 8.160
26.92000 9.063
26.94000 4.370
26.96000 2.209
26.98000 0.717
27.00000 2.688
27.02000 1.036
27.04000 2.751
27.06000 4.011
27.08000 6.935
27.10000 3.442
27.12000 5.817
27.14000 13.774
27.16000 12.897
27.18000 7.013
27.20000 1.249
27.22000 5.570
27.24000 3.750
27.26000 0.413
27.28000 1.683
27.30000 2.265
27.32000 2.983
27.34000 -0.224
27.36000 12.861
27.38000 9.147
27.40000 4.694
27.42000 2.175
27.44000 0.904
27.46000 3.318
27.48000 0.898
27.50000 4.934
27.52000 10.960
27.54000 10.779
27.56000 6.320
27.58000 1.794
27.60000 3.341
27.62000 -2.093
27.64000 -3.853
27.66000 0.952
27.68000 5.934
27.70000 7.091
27.72000 8.271
27.74000 4.420
27.76000 2.906
27.78000 3.706
27.80000 6.789
27.82000 6.740
27.84000 9.336
27.86000 7.552
27.88000 7.723
27.90000 4.385
27.92000 1.021
27.94000 1.114
27.96000 3.582
27.98000 1.094
28.00000 0.877
28.02000 5.768
28.04000 4.270
28.06000 3.743
28.08000 7.117
28.10000 -1.054
28.12000 -0.262
28.14000 3.993
28.16000 7.337
28.18000 5.870
28.20000 6.804
28.22000 4.570
28.24000 -0.267
28.26000 -1.878
28.28000 2.996
28.30000 2.179
28.32000 -0.307
28.34000 -3.827
28.36000 -1.274
28.38000 7.939
28.40000 5.699
28.42000 4.168
28.44000 0.012
28.46000 -1.197
28.48000 4.091
28.50000 2.074
28.52000 2.671
28.54000 3.095
28.56000 4.843
28.58000 0.357
28.60000 0.830
28.62000 1.429
28.64000 0.083
28.66000 0.407
28.68000 0.399
28.70000 0.570
28.72000 3.583
28.74000 3.813
28.76000 0.463
28.78000 2.109
28.80000 3.042
28.82000 6.675
28.84000 7.201
28.86000 6.655
28.88000 9.105
28.90000 4.989
28.92000 3.398
28.94000 1.989
28.96000 4.249
28.98000 6.852
29.00000 4.045
29.02000 1.094
29.04000 3.434
29.06000 6.024
29.08000 3.378
29.10000 3.606
29.12000 -2.552
29.14000 1.971
29.16000 2.804
29.18000 0.617
29.20000 7.975
29.22000 4.876
29.24000 1.168
29.26000 5.495
29.28000 3.433
29.30000 5.714
29.32000 7.240
29.34000 6.936
29.36000 5.207
29.38000 9.587
29.40000 6.519
29.42000 2.302
29.44000 4.489
29.46000 6.502
29.48000 7.600
29.50000 5.622
29.52000 5.529
29.54000 6.269
29.56000 2.713
29.58000 3.298
29.60000 3.913
29.62000 -3.756
29.64000 -2.375
29.66000 -2.281
29.68000 -1.784
29.70000 0.672
29.72000 8.324
29.74000 7.480
29.76000 6.087
29.78000 4.821
29.80000 4.068
29.82000 2.569
29.84000 1.101
29.86000 5.002
29.88000 8.131
29.90000 8.477
29.92000 7.149
29.94000 3.496
29.96000 0.647
29.98000 2.989
30.00000 3.172
30.02000 1.574
30.04000 2.958
30.06000 3.388
30.08000 2.361
30.10000 0.960
30.12000 3.577
30.14000 6.614
30.16000 5.886
30.18000 2.323
30.20000 7.224
30.22000 8.791
30.24000 1.830
30.26000 0.506
30.28000 -2.137
30.30000 -3.724
30.32000 0.915
30.34000 2.689
30.36000 0.523
30.38000 1.617
30.40000 9.119
30.42000 8.120
30.44000 4.490
30.46000 -0.775
30.48000 0.710
30.50000 1.620
30.52000 1.331
30.54000 5.446
30.56000 6.291
30.58000 5.841
30.60000 3.071
30.62000 9.552
30.64000 10.769
30.66000 11.123
30.68000 5.700
30.70000 2.280
30.72000 -3.694
30.74000 3.822
30.76000 5.509
30.78000 5.438
30.80000 2.468
30.82000 -0.035
30.84000 4.301
30.86000 5.653
30.88000 4.570
30.90000 4.577
30.92000 5.884
30.94000 6.920
30.96000 5.815
30.98000 7.669
31.00000 6.509
31.02000 5.467
31.04000 2.148
31.06000 8.419
31.08000 5.343
31.10000 -0.057
31.12000 -1.174
31.14000 4.247
31.16000 6.509
31.18000 2.824
31.20000 1.687
31.22000 3.176
31.24000 6.494
31.26000 9.002
31.28000 7.526
31.30000 8.282
31.32000 2.697
31.34000 3.233
31.36000 2.601
31.38000 -1.674
31.40000 -2.626
31.42000 4.254
31.44000 1.209
31.46000 2.069
31.48000 9.160
31.50000 3.359
31.52000 4.361
31.54000 0.414
31.56000 0.434
31.58000 3.252
31.60000 5.633
31.62000 1.532
31.64000 3.688
31.66000 5.677
31.68000 3.379
31.70000 -3.674
31.72000 0.986
31.74000 5.222
31.76000 5.898
31.78000 2.210
31.80000 -0.588
31.82000 2.616
31.84000 6.517
31.86000 0.979
31.88000 2.717
31.90000 7.082
31.92000 3.355
31.94000 0.224
31.96000 3.596
31.98000 0.845
32.00000 4.944
32.02000 3.836
32.04000 0.675
32.06000 3.994
32.08000 6.034
32.10000 2.627
32.12000 4.278
32.14000 3.295
32.16000 3.934
32.18000 4.204
32.20000 4.369
32.22000 0.319
32.24000 3.362
32.26000 0.928
32.28000 2.268
32.30000 3.144
32.32000 3.581
32.34000 5.465
32.36000 3.301
32.38000 1.405
32.40000 10.226
32.42000 7.130
32.44000 2.902
32.46000 2.386
32.48000 -1.089
32.50000 -2.233
32.52000 -3.644
32.54000 4.699
32.56000 7.695
32.58000 3.576
32.60000 2.501
32.62000 4.557
32.64000 6.029
32.66000 7.892
32.68000 0.481
32.70000 1.231
32.72000 5.304
32.74000 6.723
32.76000 3.173
32.78000 2.916
32.80000 6.664
32.82000 1.877
32.84000 2.640
32.86000 10.696
32.88000 15.260
32.90000 9.830
32.92000 5.260
32.94000 2.698
32.96000 5.968
32.98000 7.026
33.00000 7.946
33.02000 6.899
33.04000 1.098
33.06000 3.391
33.08000 1.177
33.10000 3.497
33.12000 1.603
33.14000 3.248
33.16000 3.924
33.18000 2.333
33.20000 4.976
33.22000 1.751
33.24000 0.858
33.26000 -3.620
33.28000 0.583
33.30000 6.361
33.32000 11.441
33.34000 12.458
33.36000 3.710
33.38000 5.423
33.40000 3.485
33.42000 4.735
33.44000 7.357
33.46000 5.172
33.48000 7.339
33.50000 2.954
33.52000 -1.249
33.54000 4.382
33.56000 8.273
33.58000 7.207
33.60000 7.641
33.62000 14.518
33.64000 11.986
33.66000 4.888
33.68000 9.051
33.70000 8.717
33.72000 7.879
33.74000 5.972
33.76000 -1.378
33.78000 1.442
33.80000 -0.954
33.82000 0.056
33.84000 6.545
33.86000 8.440
33.88000 4.725
33.90000 5.666
33.92000 4.131
33.94000 3.205
33.96000 3.730
33.98000 3.188
34.00000 3.881
34.02000 3.468
34.04000 -2.363
34.06000 0.465
34.08000 3.509
34.10000 1.404
34.12000 0.853
34.14000 -0.601
34.16000 -0.641
34.18000 4.868
34.20000 3.386
34.22000 2.018
34.24000 3.841
34.26000 2.348
34.28000 -0.169
34.30000 5.459
34.32000 7.609
34.34000 0.340
34.36000 -1.154
34.38000 3.630
34.40000 2.635
34.42000 2.325
34.44000 -0.784
34.46000 -2.788
34.48000 -0.969
34.50000 5.307
34.52000 9.386
34.54000 5.785
34.56000 4.212
34.58000 3.848
34.60000 3.856
34.62000 8.472
34.64000 4.851
34.66000 -2.675
34.68000 -1.755
34.70000 -0.148
34.72000 2.402
34.74000 -1.368
34.76000 -0.239
34.78000 1.188
34.80000 -3.640
34.82000 -2.206
34.84000 -3.431
34.86000 -0.742
34.88000 0.200
34.90000 -0.556
34.92000 -1.818
34.94000 -0.049
34.96000 3.135
34.98000 -0.411
35.00000 4.293
35.02000 1.742
35.04000 -2.764
35.06000 0.105
35.08000 0.644
35.10000 3.316
35.12000 6.744
35.14000 4.942
35.16000 6.310
35.18000 1.653
35.20000 0.375
35.22000 1.443
35.24000 4.236
35.26000 1.852
35.28000 8.288
35.30000 9.626
35.32000 8.224
35.34000 3.428
35.36000 -1.616
35.38000 1.246
35.40000 1.786
35.42000 -0.223
35.44000 1.344
35.46000 3.585
35.48000 3.542
35.50000 4.676
35.52000 4.092
35.54000 5.447
35.56000 4.366
35.58000 3.385
35.60000 -1.825
35.62000 -1.353
35.64000 2.853
35.66000 6.226
35.68000 7.531
35.70000 -2.822
35.72000 -3.624
35.74000 3.526
35.76000 1.869
35.78000 5.196
35.80000 7.362
35.82000 1.031
35.84000 2.273
35.86000 2.587
35.88000 -1.492
35.90000 0.014
35.92000 3.647
35.94000 2.322
35.96000 3.108
35.98000 3.798
36.00000 2.094
36.02000 0.919
36.04000 0.330
36.06000 1.702
36.08000 2.978
36.10000 5.632
36.12000 3.009
36.14000 6.410
36.16000 2.621
36.18000 1.723
36.20000 4.756
36.22000 4.480
36.24000 6.168
36.26000 1.803
36.28000 -2.513
36.30000 2.609
36.32000 1.119
36.34000 -2.389
36.36000 -3.645
36.38000 1.673
36.40000 -0.088
36.42000 2.173
36.44000 2.284
36.46000 1.587
36.48000 6.049
36.50000 3.559
36.52000 3.174
36.54000 3.535
36.56000 0.806
36.58000 -2.785
36.60000 0.396
36.62000 -3.668
36.64000 -0.709
36.66000 2.404
36.68000 3.017
36.70000 2.205
36.72000 1.720
36.74000 3.712
36.76000 4.633
36.78000 2.963
36.80000 2.655
36.82000 2.324
36.84000 3.165
36.86000 7.134
36.88000 6.036
36.90000 2.737
36.92000 0.144
36.94000 5.150
36.96000 4.625
36.98000 5.737
37.00000 6.025
37.02000 4.860
37.04000 0.461
37.06000 0.029
37.08000 0.832
37.10000 -0.334
37.12000 -2.402
37.14000 1.447
37.16000 4.276
37.18000 7.915
37.20000 4.212
37.22000 6.133
37.24000 6.260
37.26000 4.773
37.28000 7.524
37.30000 9.175
37.32000 4.721
37.34000 5.018
37.36000 5.936
37.38000 8.507
37.40000 7.823
37.42000 8.297
37.44000 10.443
37.46000 9.792
37.48000 12.025
37.50000 10.128
37.52000 10.001
37.54000 9.170
37.56000 12.109
37.58000 13.836
37.60000 16.019
37.62000 15.012
37.64000 12.407
37.66000 8.600
37.68000 9.267
37.70000 11.688
37.72000 13.679
37.74000 18.418
37.76000 15.437
37.78000 16.882
37.80000 18.136
37.82000 20.437
37.84000 18.832
37.86000 16.072
37.88000 17.800
37.90000 20.412
37.92000 25.183
37.94000 23.789
37.96000 23.354
37.98000 25.859
38.00000 28.209
38.02000 23.993
38.04000 23.790
38.06000 24.341
38.08000 29.001
38.10000 25.337
38.12000 29.311
38.14000 32.595
38.16000 35.561
38.18000 32.352
38.20000 24.234
38.22000 32.513
38.24000 37.468
38.26000 37.582
38.28000 35.583
38.30000 39.139
38.32000 44.061
38.34000 43.615
38.36000 42.901
38.38000 45.600
38.40000 50.050
38.42000 48.655
38.44000 47.541
38.46000 47.559
38.48000 52.585
38.50000 60.613
38.52000 65.090
38.54000 65.956
38.56000 63.249
38.58000 65.500
38.60000 71.916
38.62000 71.314
38.64000 76.741
38.66000 81.227
38.68000 82.401
38.70000 84.167
38.72000 92.856
38.74000 96.233
38.76000 97.598
38.78000 100.454
38.80000 104.988
38.82000 112.841
38.84000 115.142
38.86000 127.738
38.88000 130.008
38.90000 134.083
38.92000 146.953
38.94000 154.098
38.96000 163.795
38.98000 168.101
39.00000 171.897
39.02000 183.560
39.04000 202.628
39.06000 211.832
39.08000 218.369
39.10000 240.003
39.12000 254.591
39.14000 274.114
39.16000 285.402
39.18000 295.060
39.20000 307.632
39.22000 323.189
39.24000 343.002
39.26000 364.213
39.28000 380.430
39.30000 390.140
39.32000 410.998
39.34000 437.208
39.36000 458.513
39.38000 477.295
39.40000 498.859
39.42000 516.733
39.44000 530.074
39.46000 543.784
39.48000 569.328
39.50000 588.746
39.52000 598.973
39.54000 606.166
39.56000 616.526
39.58000 626.910
39.60000 639.185
39.62000 639.367
39.64000 634.524
39.66000 636.020
39.68000 639.537
39.70000 628.228
39.72000 616.266
39.74000 601.022
39.76000 580.021
39.78000 566.499
39.80000 549.765
39.82000 531.010
39.84000 515.481
39.86000 497.885
39.88000 478.911
39.90000 444.897
39.92000 427.945
39.94000 408.988
39.96000 390.030
39.98000 379.131
40.00000 351.477
40.02000 327.301
40.04000 305.120
40.06000 288.621
40.08000 274.484
40.10000 258.935
40.12000 241.694
40.14000 229.154
40.16000 215.239
40.18000 202.245
40.20000 191.615
40.22000 179.749
40.24000 167.642
40.26000 155.865
40.28000 149.846
40.30000 138.636
40.32000 125.496
40.34000 113.071
40.36000 110.739
40.38000 102.545
40.40000 98.103
40.42000 91.243
40.44000 92.089
40.46000 85.727
40.48000 82.032
40.50000 74.076
40.52000 71.521
40.54000 63.220
40.56000 61.450
40.58000 58.048
40.60000 59.566
40.62000 52.470
40.64000 47.049
40.66000 45.814
40.68000 40.515
40.70000 39.327
40.72000 39.982
40.74000 38.839
40.76000 36.650
40.78000 34.852
40.80000 33.793
40.82000 29.512
40.84000 26.477
40.86000 29.599
40.88000 24.986
40.90000 27.326
40.92000 24.933
40.94000 23.206
40.96000 20.601
40.98000 23.633
41.00000 21.860
41.02000 18.241
41.04000 16.394
41.06000 14.877
41.08000 10.752
41.10000 11.995
41.12000 14.047
41.14000 12.635
41.16000 9.664
41.18000 10.741
41.20000 14.239
41.22000 11.180
41.24000 10.217
41.26000 8.771
41.28000 6.619
41.30000 8.856
41.32000 8.541
41.34000 9.037
41.36000 11.205
41.38000 5.786
41.40000 2.967
41.42000 2.846
41.44000 3.927
41.46000 2.137
41.48000 3.635
41.50000 2.853
41.52000 7.863
41.54000 7.553
41.56000 2.070
41.58000 -1.127
41.60000 -3.476
41.62000 2.295
41.64000 1.017
41.66000 0.175
41.68000 3.854
41.70000 4.649
41.72000 4.630
41.74000 1.708
41.76000 -0.323
41.78000 -2.517
41.80000 -2.818
41.82000 -1.915
41.84000 -1.469
41.86000 1.064
41.88000 -1.458
41.90000 -2.692
41.92000 -1.253
41.94000 -2.157
41.96000 -3.365
41.98000 1.892
42.00000 0.969
42.02000 -0.559
42.04000 -1.866
42.06000 0.778
42.08000 1.719
42.10000 -0.898
42.12000 3.384
42.14000 2.164
42.16000 -1.492
42.18000 -0.904
42.20000 -0.080
42.22000 -0.810
42.24000 -0.592
42.26000 0.276
42.28000 -3.355
42.30000 -2.795
42.32000 2.391
42.34000 2.832
42.36000 2.541
42.38000 -2.890
42.40000 -2.008
42.42000 0.350
42.44000 0.205
42.46000 0.269
42.48000 -0.720
42.50000 -1.085
42.52000 -0.161
42.54000 2.259
42.56000 4.372
42.58000 6.423
42.60000 0.360
42.62000 2.759
42.64000 0.751
42.66000 -2.925
42.68000 3.261
42.70000 7.114
42.72000 2.348
42.74000 -2.396
42.76000 1.105
42.78000 1.563
42.80000 -3.251
42.82000 -1.546
42.84000 0.069
42.86000 0.308
42.88000 -0.414
42.90000 -0.301
42.92000 -1.138
42.94000 1.915
42.96000 1.745
42.98000 -2.593
43.00000 -0.440
43.02000 0.223
43.04000 -2.750
43.06000 -1.656
43.08000 2.160
43.10000 4.457
43.12000 -0.830
43.14000 -3.214
43.16000 1.216
43.18000 5.352
43.20000 5.533
43.22000 2.939
43.24000 2.602
43.26000 4.456
43.28000 1.309
43.30000 3.647
43.32000 3.585
43.34000 4.738
43.36000 1.816
43.38000 1.058
43.40000 0.100
43.42000 -0.284
43.44000 -1.140
43.46000 -1.481
43.48000 -2.313
43.50000 -3.196
43.52000 -1.460
43.54000 0.326
43.56000 1.246
43.58000 0.334
43.60000 -1.323
43.62000 0.040
43.64000 1.883
43.66000 -1.679
43.68000 -2.691
43.70000 -1.181
43.72000 -1.230
43.74000 0.733
43.76000 -0.557
43.78000 -1.069
43.80000 -0.463
43.82000 -0.267
43.84000 -1.617
43.86000 -1.245
43.88000 0.641
43.90000 0.965
43.92000 1.764
43.94000 0.270
43.96000 3.191
43.98000 0.397
44.00000 3.184
44.02000 2.341
44.04000 -1.397
44.06000 2.032
44.08000 2.751
44.10000 -0.466
44.12000 -2.097
44.14000 -1.329
44.16000 -2.893
44.18000 -2.268
44.20000 1.731
44.22000 4.608
44.24000 2.033
44.26000 1.443
44.28000 0.451
44.30000 -3.137
44.32000 2.490
44.34000 0.292
44.36000 -1.249
44.38000 -0.274
44.40000 -0.987
44.42000 2.499
44.44000 1.537
44.46000 1.611
44.48000 1.929
44.50000 1.262
44.52000 2.330
44.54000 6.798
44.56000 3.938
44.58000 2.311
44.60000 2.059
44.62000 2.394
44.64000 2.250
44.66000 1.188
44.68000 2.623
44.70000 1.782
44.72000 -1.092
44.74000 -0.918
44.76000 1.195
44.78000 -0.742
44.80000 1.094
44.82000 0.589
44.84000 1.438
44.86000 5.021
44.88000 6.962
44.90000 5.476
44.92000 2.434
44.94000 3.407
44.96000 7.355
44.98000 5.179
45.00000 4.581
45.02000 7.866
45.04000 8.997
45.06000 10.017
45.08000 8.457
45.10000 6.503
45.12000 4.430
45.14000 5.258
45.16000 7.183
45.18000 12.516
45.20000 13.833
45.22000 11.039
45.24000 8.737
45.26000 10.892
45.28000 11.703
45.30000 14.091
45.32000 15.751
45.34000 15.575
45.36000 11.707
45.38000 10.675
45.40000 11.117
45.42000 13.920
45.44000 15.363
45.46000 19.064
45.48000 23.025
45.50000 19.343
45.52000 16.459
45.54000 20.523
45.56000 21.060
45.58000 20.506
45.60000 23.811
45.62000 28.797
45.64000 33.960
45.66000 33.687
45.68000 31.795
45.70000 31.365
45.72000 29.557
45.74000 32.811
45.76000 35.940
45.78000 35.605
45.80000 37.806
45.82000 41.152
45.84000 42.217
45.86000 43.753
45.88000 39.695
45.90000 44.345
45.92000 44.518
45.94000 48.660
45.96000 46.367
45.98000 46.340
46.00000 50.027
46.02000 48.529
46.04000 50.253
46.06000 55.401
46.08000 54.581
46.10000 56.357
46.12000 61.456
46.14000 61.661
46.16000 65.654
46.18000 60.096
46.20000 56.080
46.22000 59.168
46.24000 64.234
46.26000 65.613
46.28000 65.134
46.30000 63.423
46.32000 63.239
46.34000 66.501
46.36000 67.568
46.38000 64.892
46.40000 65.121
46.42000 68.003
46.44000 68.344
46.46000 62.808
46.48000 59.118
46.50000 54.857
46.52000 58.823
46.54000 61.493
46.56000 58.609
46.58000 56.401
46.60000 53.580
46.62000 48.784
46.64000 47.466
46.66000 46.478
46.68000 50.108
46.70000 53.996
46.72000 51.696
46.74000 43.059
46.76000 40.542
46.78000 37.829
46.80000 40.108
46.82000 35.479
46.84000 32.995
46.86000 32.217
46.88000 34.122
46.90000 34.240
46.92000 30.934
46.94000 26.994
46.96000 27.275
46.98000 26.715
47.00000 23.196
47.02000 23.574
47.04000 24.321
47.06000 25.248
47.08000 20.615
47.10000 19.853
47.12000 18.670
47.14000 14.966
47.16000 17.474
47.18000 19.003
47.20000 19.026
47.22000 15.288
47.24000 13.842
47.26000 9.017
47.28000 10.872
47.30000 12.140
47.32000 8.967
47.34000 9.435
47.36000 6.634
47.38000 7.622
47.40000 4.766
47.42000 6.809
47.44000 4.971
47.46000 4.646
47.48000 6.243
47.50000 4.944
47.52000 4.918
47.54000 6.649
47.56000 6.895
47.58000 3.243
47.60000 -0.954
47.62000 -2.193
47.64000 2.564
47.66000 1.824
47.68000 3.047
47.70000 2.417
47.72000 2.765
47.74000 2.815
47.76000 4.026
47.78000 0.309
47.80000 -0.024
47.82000 3.185
47.84000 -2.559
47.86000 -2.759
47.88000 4.360
47.90000 5.383
47.92000 6.483
47.94000 3.331
47.96000 6.043
47.98000 5.872
48.00000 6.309
48.02000 5.169
48.04000 2.389
48.06000 1.161
48.08000 2.109
48.10000 0.341
48.12000 1.029
48.14000 -0.830
48.16000 -1.483
48.18000 2.070
48.20000 4.318
48.22000 3.899
48.24000 2.651
48.26000 0.740
48.28000 1.802
48.30000 2.732
48.32000 1.681
48.34000 2.075
48.36000 2.045
48.38000 0.890
48.40000 2.059
48.42000 -1.832
48.44000 -2.639
48.46000 3.442
48.48000 0.243
48.50000 -1.351
48.52000 2.367
48.54000 5.902
48.56000 3.671
48.58000 1.385
48.60000 4.651
48.62000 6.162
48.64000 2.096
48.66000 0.369
48.68000 2.632
48.70000 3.746
48.72000 2.372
48.74000 -0.350
48.76000 -0.548
48.78000 0.835
48.80000 1.170
48.82000 0.621
48.84000 -2.617
48.86000 -1.156
48.88000 3.312
48.90000 -0.030
48.92000 1.400
48.94000 -1.895
48.96000 4.148
48.98000 4.095
49.00000 0.976
49.02000 3.111
49.04000 4.622
49.06000 4.175
49.08000 4.478
49.10000 1.360
49.12000 5.771
49.14000 5.370
49.16000 2.377
49.18000 -0.762
49.20000 -0.722
49.22000 0.052
49.24000 1.649
49.26000 -0.618
49.28000 1.614
49.30000 3.226
49.32000 2.924
49.34000 6.988
49.36000 3.555
49.38000 2.939
49.40000 5.008
49.42000 5.132
49.44000 4.728
49.46000 1.306
49.48000 -1.748
49.50000 -0.374
49.52000 3.187
49.54000 3.107
49.56000 3.631
49.58000 2.376
49.60000 1.563
49.62000 4.135
49.64000 5.642
49.66000 2.800
49.68000 0.819
49.70000 0.073
49.72000 -2.062
49.74000 3.575
49.76000 4.156
49.78000 0.631
49.80000 -0.925
49.82000 4.338
49.84000 3.927
49.86000 4.299
49.88000 4.043
49.90000 3.679
49.92000 -0.588
49.94000 -0.642
49.96000 2.395
49.98000 2.924
50.00000 3.087
50.02000 1.034
50.04000 0.435
50.06000 0.009
50.08000 -0.753
50.10000 -2.554
50.12000 -2.291
50.14000 1.646
50.16000 0.368
50.18000 3.222
50.20000 3.980
50.22000 -0.708
50.24000 -0.356
50.26000 2.047
50.28000 2.134
50.30000 2.414
50.32000 1.193
50.34000 -0.963
50.36000 3.398
50.38000 0.720
50.40000 3.806
50.42000 7.692
50.44000 4.426
50.46000 3.076
50.48000 3.098
50.50000 2.130
50.52000 4.259
50.54000 1.050
50.56000 3.917
50.58000 4.233
50.60000 1.436
50.62000 2.128
50.64000 4.343
50.66000 5.438
50.68000 4.358
50.70000 2.481
50.72000 3.549
50.74000 0.290
50.76000 -0.902
50.78000 0.986
50.80000 0.233
50.82000 1.376
50.84000 -0.762
50.86000 1.320
50.88000 1.286
50.90000 -0.290
50.92000 1.770
50.94000 0.641
50.96000 1.543
50.98000 3.267
51.00000 -0.339
51.02000 2.454
51.04000 1.226
51.06000 1.595
51.08000 2.594
51.10000 3.329
51.12000 -2.236
51.14000 -1.912
51.16000 2.476
51.18000 2.511
51.20000 3.821
51.22000 0.877
51.24000 1.297
51.26000 2.780
51.28000 0.989
51.30000 1.015
51.32000 1.986
51.34000 -0.092
51.36000 -1.365
51.38000 -1.675
51.40000 -2.524
51.42000 0.429
51.44000 1.387
51.46000 0.075
51.48000 3.683
51.50000 7.154
51.52000 1.246
51.54000 1.850
51.56000 2.022
51.58000 2.419
51.60000 1.730
51.62000 3.495
51.64000 5.606
51.66000 5.425
51.68000 2.065
51.70000 -0.487
51.72000 3.166
51.74000 0.590
51.76000 -1.966
51.78000 0.039
51.80000 1.311
51.82000 2.899
51.84000 4.902
51.86000 4.994
51.88000 -0.239
51.90000 -0.364
51.92000 2.532
51.94000 0.412
51.96000 0.417
51.98000 3.289
52.00000 5.077
52.02000 2.735
52.04000 2.946
52.06000 2.774
52.08000 -0.915
52.10000 -1.839
52.12000 -0.150
52.14000 -0.310
52.16000 0.693
52.18000 1.953
52.20000 0.893
52.22000 0.323
52.24000 2.336
52.26000 0.049
52.28000 1.069
52.30000 3.305
52.32000 0.829
52.34000 2.574
52.36000 4.337
52.38000 1.038
52.40000 0.239
52.42000 1.011
52.44000 -0.218
52.46000 0.756
52.48000 2.826
52.50000 2.294
52.52000 -2.106
52.54000 -1.115
52.56000 1.458
52.58000 2.856
52.60000 -1.064
52.62000 2.258
52.64000 4.543
52.66000 3.228
52.68000 5.666
52.70000 7.225
52.72000 3.484
52.74000 4.169
52.76000 2.095
52.78000 1.183
52.80000 3.295
52.82000 2.419
52.84000 6.236
52.86000 5.980
52.88000 4.014
52.90000 1.187
52.92000 -2.478
52.94000 -0.440
52.96000 5.763
52.98000 6.583
53.00000 4.765
53.02000 3.271
53.04000 4.650
53.06000 6.273
53.08000 4.845
53.10000 2.549
53.12000 3.233
53.14000 5.804
53.16000 1.254
53.18000 -2.475
53.20000 1.287
53.22000 2.443
53.24000 2.444
53.26000 0.502
53.28000 1.186
53.30000 -2.427
53.32000 0.282
53.34000 -0.473
53.36000 -1.442
53.38000 -0.062
53.40000 1.555
53.42000 4.649
53.44000 5.085
53.46000 0.477
53.48000 0.065
53.50000 -0.004
53.52000 0.006
53.54000 -0.943
53.56000 1.716
53.58000 2.491
53.60000 3.132
53.62000 2.965
53.64000 2.873
53.66000 3.513
53.68000 5.332
53.70000 3.406
53.72000 2.248
53.74000 1.944
53.76000 0.203
53.78000 -2.455
53.80000 -0.906
53.82000 2.874
53.84000 1.114
53.86000 1.654
53.88000 1.768
53.90000 -1.073
53.92000 -0.057
53.94000 2.841
53.96000 3.654
53.98000 3.342
54.00000 -0.386
54.02000 4.302
54.04000 1.469
54.06000 0.565
54.08000 1.095
54.10000 -0.678
54.12000 1.261
54.14000 1.119
54.16000 -0.417
54.18000 1.924
54.20000 0.604
54.22000 0.621
54.24000 2.543
54.26000 2.308
54.28000 -0.614
54.30000 0.292
54.32000 2.182
54.34000 1.387
54.36000 3.009
54.38000 0.642
54.40000 -0.828
54.42000 1.542
54.44000 -0.173
54.46000 -1.525
54.48000 -2.411
54.50000 -1.663
54.52000 -1.837
54.54000 -0.290
54.56000 0.086
54.58000 -0.294
54.60000 -1.117
54.62000 1.115
54.64000 2.129
54.66000 1.321
54.68000 0.286
54.70000 1.083
54.72000 3.319
54.74000 1.688
54.76000 -0.969
54.78000 -0.660
54.80000 2.608
54.82000 2.654
54.84000 1.618
54.86000 2.278
54.88000 1.667
54.90000 -0.924
54.92000 -2.463
54.94000 1.323
54.96000 -1.940
54.98000 -0.629
55.00000 -0.777
55.02000 -0.085
55.04000 1.611
55.06000 1.144
55.08000 0.578
55.10000 1.255
55.12000 0.425
55.14000 3.706
55.16000 2.676
55.18000 1.695
55.20000 0.735
55.22000 -0.403
55.24000 2.982
55.26000 2.107
55.28000 0.689
55.30000 1.038
55.32000 -0.342
55.34000 0.394
55.36000 1.282
55.38000 -0.460
55.40000 0.697
55.42000 0.382
55.44000 -0.591
55.46000 -1.031
55.48000 0.253
55.50000 2.068
55.52000 4.166
55.54000 8.619
55.56000 4.892
55.58000 1.219
55.60000 4.600
55.62000 4.888
55.64000 3.615
55.66000 4.939
55.68000 0.962
55.70000 -0.371
55.72000 -0.539
55.74000 1.344
55.76000 1.767
55.78000 1.989
55.80000 0.864
55.82000 2.133
55.84000 0.903
55.86000 -2.408
55.88000 0.267
55.90000 3.975
55.92000 2.941
55.94000 4.832
55.96000 5.650
55.98000 2.898
56.00000 0.436
56.02000 2.856
56.04000 3.992
56.06000 2.462
56.08000 -1.325
56.10000 -1.556
56.12000 1.371
56.14000 0.663
56.16000 0.168
56.18000 4.360
56.20000 5.948
56.22000 5.028
56.24000 3.738
56.26000 3.017
56.28000 1.633
56.30000 0.134
56.32000 -0.036
56.34000 3.438
56.36000 3.994
56.38000 2.314
56.40000 -2.413
56.42000 -0.397
56.44000 1.766
56.46000 0.569
56.48000 0.803
56.50000 -1.162
56.52000 2.516
56.54000 4.778
56.56000 7.225
56.58000 3.012
56.60000 -1.989
56.62000 -1.019
56.64000 -0.141
56.66000 -1.126
56.68000 0.246
56.70000 -0.625
56.72000 -0.711
56.74000 0.157
56.76000 -1.260
56.78000 1.800
56.80000 4.523
56.82000 1.078
56.84000 2.095
56.86000 2.117
56.88000 1.880
56.90000 1.199
56.92000 -2.251
56.94000 -0.974
56.96000 4.289
56.98000 0.767
57.00000 -1.912
57.02000 0.495
57.04000 -1.304
57.06000 0.865
57.08000 1.203
57.10000 0.915
57.12000 -0.182
57.14000 3.231
57.16000 5.477
57.18000 3.723
57.20000 1.514
57.22000 3.457
57.24000 2.567
57.26000 1.427
57.28000 0.568
57.30000 2.008
57.32000 1.628
57.34000 -0.055
57.36000 -0.579
57.38000 0.658
57.40000 3.168
57.42000 -2.382
57.44000 0.029
57.46000 1.187
57.48000 1.065
57.50000 4.667
57.52000 -1.414
57.54000 1.224
57.56000 2.780
57.58000 1.472
57.60000 0.872
57.62000 2.237
57.64000 0.897
57.66000 1.703
57.68000 4.559
57.70000 3.794
57.72000 1.404
57.74000 -0.406
57.76000 0.120
57.78000 0.813
57.80000 0.529
57.82000 1.568
57.84000 0.936
57.86000 -0.062
57.88000 0.513
57.90000 0.033
57.92000 3.373
57.94000 0.607
57.96000 -0.336
57.98000 1.712
58.00000 -2.351
58.02000 -0.832
58.04000 4.404
58.06000 0.743
58.08000 1.006
58.10000 2.063
58.12000 -1.882
58.14000 -1.467
58.16000 -1.727
58.18000 -0.186
58.20000 1.396
58.22000 2.657
58.24000 1.518
58.26000 3.116
58.28000 1.759
58.30000 1.679
58.32000 1.782
58.34000 1.115
58.36000 -0.953
58.38000 -1.455
58.40000 -1.268
58.42000 -0.483
58.44000 1.541
58.46000 2.267
58.48000 -1.075
58.50000 3.063
58.52000 1.716
58.54000 -0.005
58.56000 -0.636
58.58000 1.326
58.60000 0.501
58.62000 -0.672
58.64000 1.163
58.66000 1.486
58.68000 -1.143
58.70000 2.692
58.72000 3.130
58.74000 -1.440
58.76000 0.340
58.78000 -2.348
58.80000 0.287
58.82000 3.303
58.84000 -0.206
58.86000 -1.778
58.88000 -0.534
58.90000 1.257
58.92000 2.797
58.94000 1.218
58.96000 2.650
58.98000 5.079
59.00000 1.250
59.02000 -0.006
59.04000 1.225
59.06000 2.216
59.08000 -0.119
59.10000 -1.114
59.12000 -0.544
59.14000 3.095
59.16000 4.675
59.18000 2.659
59.20000 3.749
59.22000 7.414
59.24000 3.769
59.26000 -1.321
59.28000 -1.887
59.30000 0.722
59.32000 1.985
59.34000 1.450
59.36000 1.408
59.38000 1.978
59.40000 4.454
59.42000 3.715
59.44000 0.449
59.46000 -1.866
59.48000 3.373
59.50000 2.921
59.52000 2.849
59.54000 1.444
59.56000 3.914
59.58000 2.484
59.60000 0.201
59.62000 0.828
59.64000 0.592
59.66000 3.385
59.68000 0.405
59.70000 -2.296
59.72000 -2.295
59.74000 1.468
59.76000 0.261
59.78000 0.547
59.80000 3.150
59.82000 1.440
59.84000 4.055
59.86000 1.245
59.88000 0.696
59.90000 -0.147
59.92000 3.220
59.94000 2.626
59.96000 2.318
59.98000 2.709
60.00000 2.652
60.02000 1.949
60.04000 2.115
60.06000 2.654
60.08000 4.444
60.10000 0.921
60.12000 -0.497
60.14000 4.958
60.16000 3.399
60.18000 2.640
60.20000 1.572
60.22000 1.750
60.24000 1.025
60.26000 -0.385
60.28000 -0.350
60.30000 -0.100
60.32000 0.738
60.34000 0.899
60.36000 3.185
60.38000 2.348
60.40000 1.624
60.42000 0.710
60.44000 -1.651
60.46000 1.435
60.48000 0.355
60.50000 0.909
60.52000 0.284
60.54000 0.198
60.56000 0.249
60.58000 3.559
60.60000 3.250
60.62000 3.630
60.64000 2.631
60.66000 -0.945
60.68000 -1.393
60.70000 0.181
60.72000 3.924
60.74000 4.642
60.76000 1.347
60.78000 -1.926
60.80000 1.136
60.82000 -1.223
60.84000 2.070
60.86000 4.638
60.88000 3.627
60.90000 2.597
60.92000 2.858
60.94000 2.309
60.96000 -0.808
60.98000 2.408
61.00000 2.494
61.02000 2.534
61.04000 3.664
61.06000 2.798
61.08000 4.016
61.10000 3.735
61.12000 -0.183
61.14000 0.975
61.16000 7.249
61.18000 4.191
61.20000 2.391
61.22000 3.053
61.24000 2.554
61.26000 2.766
61.28000 0.802
61.30000 3.935
61.32000 1.836
61.34000 -2.232
61.36000 -1.075
61.38000 -0.107
61.40000 0.406
61.42000 2.407
61.44000 4.528
61.46000 7.277
61.48000 4.612
61.50000 4.818
61.52000 2.730
61.54000 0.505
61.56000 1.902
61.58000 2.728
61.60000 2.352
61.62000 7.184
61.64000 3.042
61.66000 3.626
61.68000 6.778
61.70000 1.512
61.72000 2.731
61.74000 3.941
61.76000 -0.728
61.78000 1.431
61.80000 0.630
61.82000 1.206
61.84000 1.483
61.86000 -0.333
61.88000 3.153
61.90000 1.158
61.92000 -1.305
61.94000 1.158
61.96000 1.487
61.98000 2.554
62.00000 5.424
62.02000 4.210
62.04000 3.448
62.06000 3.642
62.08000 2.195
62.10000 -2.245
62.12000 -2.084
62.14000 0.606
62.16000 2.010
62.18000 1.785
62.20000 0.488
62.22000 0.114
62.24000 1.594
62.26000 1.458
62.28000 0.851
62.30000 2.781
62.32000 0.975
62.34000 0.506
62.36000 3.502
62.38000 3.018
62.40000 -0.442
62.42000 -0.044
62.44000 -1.146
62.46000 -1.076
62.48000 1.690
62.50000 -0.927
62.52000 1.492
62.54000 2.070
62.56000 2.279
62.58000 0.205
62.60000 0.755
62.62000 1.940
62.64000 1.876
62.66000 3.522
62.68000 3.275
62.70000 0.775
62.72000 1.555
62.74000 2.156
62.76000 2.948
62.78000 0.839
62.80000 -1.749
62.82000 1.427
62.84000 1.360
62.86000 2.945
62.88000 2.698
62.90000 2.081
62.92000 4.018
62.94000 0.986
62.96000 2.917
62.98000 1.730
63.00000 0.781
63.02000 0.124
63.04000 -1.858
63.06000 0.977
63.08000 0.911
63.10000 0.843
63.12000 2.441
63.14000 3.340
63.16000 4.460
63.18000 3.067
63.20000 0.040
63.22000 -1.594
63.24000 -2.205
63.26000 -2.234
63.28000 2.114
63.30000 3.119
63.32000 2.344
63.34000 4.479
63.36000 5.157
63.38000 1.136
63.40000 0.159
63.42000 0.130
63.44000 1.431
63.46000 1.205
63.48000 1.357
63.50000 1.629
63.52000 3.692
63.54000 -1.050
63.56000 -2.202
63.58000 0.263
63.60000 1.989
63.62000 1.256
63.64000 1.009
63.66000 2.106
63.68000 0.126
63.70000 0.898
63.72000 1.141
63.74000 0.240
63.76000 0.275
63.78000 -0.828
63.80000 2.564
63.82000 4.303
63.84000 0.545
63.86000 1.526
63.88000 1.854
63.90000 -0.410
63.92000 -0.886
63.94000 -0.744
63.96000 2.577
63.98000 0.843
64.00000 -0.166
64.02000 -0.388
64.04000 -1.498
64.06000 -2.267
64.08000 0.062
64.10000 0.729
64.12000 -0.540
64.14000 0.254
64.16000 2.599
64.18000 -0.258
64.20000 -1.056
64.22000 0.105
64.24000 -0.237
64.26000 0.540
64.28000 1.170
64.30000 2.415
64.32000 4.492
64.34000 1.981
64.36000 0.565
64.38000 1.667
64.40000 4.566
64.42000 2.695
64.44000 1.925
64.46000 1.969
64.48000 -0.468
64.50000 1.751
64.52000 3.405
64.54000 2.242
64.56000 2.258
64.58000 -0.805
64.60000 1.757
64.62000 0.043
64.64000 0.024
64.66000 -0.006
64.68000 2.697
64.70000 5.809
64.72000 4.690
64.74000 2.443
64.76000 1.933
64.78000 1.722
64.80000 2.243
64.82000 -0.149
64.84000 -0.657
64.86000 -2.258
64.88000 -0.899
64.90000 -0.240
64.92000 4.330
64.94000 3.559
64.96000 2.740
64.98000 1.906
65.00000 -0.579
65.02000 -1.050
65.04000 1.356
65.06000 2.034
65.08000 2.787
65.10000 5.477
65.12000 1.940
65.14000 0.581
65.16000 3.334
65.18000 2.209
65.20000 -0.677
65.22000 0.255
65.24000 -0.012
65.26000 4.010
65.28000 2.998
65.30000 0.211
65.32000 0.320
65.34000 0.451
65.36000 -0.659
65.38000 0.642
65.40000 0.476
65.42000 -0.134
65.44000 1.352
65.46000 3.305
65.48000 0.315
65.50000 2.058
65.52000 0.942
65.54000 3.012
65.56000 2.080
65.58000 1.233
65.60000 1.416
65.62000 3.099
65.64000 3.910
65.66000 2.101
65.68000 -2.268
65.70000 -0.992
65.72000 -0.084
65.74000 -1.356
65.76000 -0.454
65.78000 3.374
65.80000 3.174
65.82000 2.172
65.84000 2.243
65.86000 -2.274
65.88000 -0.458
65.90000 1.046
65.92000 2.429
65.94000 2.244
65.96000 2.382
65.98000 -1.133
66.00000 0.057
66.02000 -1.700
66.04000 -0.005
66.06000 0.483
66.08000 1.308
66.10000 2.794
66.12000 0.728
66.14000 2.975
66.16000 4.295
66.18000 1.576
66.20000 2.213
66.22000 4.250
66.24000 2.718
66.26000 4.486
66.28000 3.232
66.30000 5.009
66.32000 4.654
66.34000 4.347
66.36000 0.815
66.38000 2.900
66.40000 4.245
66.42000 3.968
66.44000 6.046
66.46000 3.706
66.48000 3.368
66.50000 5.171
66.52000 2.998
66.54000 3.587
66.56000 3.677
66.58000 6.966
66.60000 6.038
66.62000 7.602
66.64000 6.855
66.66000 8.679
66.68000 7.092
66.70000 7.900
66.72000 10.039
66.74000 10.686
66.76000 7.182
66.78000 6.320
66.80000 7.327
66.82000 6.156
66.84000 10.314
66.86000 7.734
66.88000 10.457
66.90000 11.190
66.92000 10.448
66.94000 12.276
66.96000 9.432
66.98000 8.245
67.00000 10.753
67.02000 11.683
67.04000 9.882
67.06000 9.131
67.08000 12.148
67.10000 10.915
67.12000 10.549
67.14000 10.513
67.16000 13.126
67.18000 16.002
67.20000 12.970
67.22000 14.495
67.24000 17.143
67.26000 14.419
67.28000 15.203
67.30000 14.840
67.32000 17.751
67.34000 16.106
67.36000 16.166
67.38000 17.628
67.40000 16.784
67.42000 16.236
67.44000 15.704
67.46000 16.990
67.48000 15.215
67.50000 15.443
67.52000 17.411
67.54000 14.515
67.56000 13.607
67.58000 13.677
67.60000 14.179
67.62000 11.844
67.64000 10.694
67.66000 10.962
67.68000 13.847
67.70000 13.663
67.72000 12.074
67.74000 12.256
67.76000 11.815
67.78000 13.173
67.80000 10.355
67.82000 14.585
67.84000 12.207
67.86000 10.967
67.88000 10.945
67.90000 9.872
67.92000 10.839
67.94000 8.359
67.96000 9.149
67.98000 8.600
68.00000 8.265
68.02000 7.271
68.04000 6.110
68.06000 6.498
68.08000 5.136
68.10000 4.145
68.12000 4.848
68.14000 6.381
68.16000 4.505
68.18000 3.991
68.20000 5.372
68.22000 3.840
68.24000 2.876
68.26000 4.140
68.28000 5.003
68.30000 4.606
68.32000 3.748
68.34000 4.027
68.36000 4.838
68.38000 1.473
68.40000 2.889
68.42000 1.413
68.44000 -2.236
68.46000 -0.337
68.48000 1.030
68.50000 0.482
68.52000 0.844
68.54000 3.720
68.56000 2.439
68.58000 2.046
68.60000 1.021
68.62000 2.759
68.64000 3.047
68.66000 4.060
68.68000 2.571
68.70000 -0.007
68.72000 0.786
68.74000 2.723
68.76000 1.964
68.78000 3.445
68.80000 3.765
68.82000 2.468
68.84000 1.402
68.86000 0.828
68.88000 4.479
68.90000 3.079
68.92000 0.382
68.94000 0.238
68.96000 -2.203
68.98000 1.819
69.00000 2.901
69.02000 2.252
69.04000 1.679
69.06000 -0.704
69.08000 0.156
69.10000 4.140
69.12000 1.637
69.14000 0.239
69.16000 0.970
69.18000 -2.183
69.20000 -0.325
69.22000 1.761
69.24000 3.011
69.26000 0.898
69.28000 1.271
69.30000 -0.941
69.32000 0.817
69.34000 0.764
69.36000 0.178
69.38000 -0.819
69.40000 -2.095
69.42000 -1.395
69.44000 -0.748
69.46000 -0.884
69.48000 1.012
69.50000 0.812
69.52000 -1.592
69.54000 -2.179
69.56000 0.415
69.58000 2.495
69.60000 4.146
69.62000 4.882
69.64000 3.193
69.66000 1.874
69.68000 3.169
69.70000 0.640
69.72000 0.646
69.74000 0.930
69.76000 3.617
69.78000 4.798
69.80000 4.722
69.82000 0.747
69.84000 -0.937
69.86000 1.078
69.88000 2.257
69.90000 1.858
69.92000 0.345
69.94000 -0.139
69.96000 -0.707
69.98000 0.024
70.00000 -0.092
70.02000 2.251
70.04000 1.871
70.06000 -0.829
70.08000 -0.528
70.10000 0.698
70.12000 -0.304
70.14000 1.355
70.16000 0.384
70.18000 1.121
70.20000 0.770
70.22000 1.799
70.24000 2.967
70.26000 -0.866
70.28000 -2.141
70.30000 -1.219
70.32000 -1.901
70.34000 -0.686
70.36000 1.031
70.38000 1.323
70.40000 0.012
70.42000 -0.846
70.44000 -0.131
70.46000 1.521
70.48000 1.063
70.50000 1.843
70.52000 3.092
70.54000 1.401
70.56000 0.825
70.58000 -1.011
70.60000 -0.312
70.62000 1.060
70.64000 2.342
70.66000 4.366
70.68000 1.633
70.70000 1.228
70.72000 4.167
70.74000 5.323
70.76000 -0.368
70.78000 -1.524
70.80000 -1.581
70.82000 3.322
70.84000 5.002
70.86000 1.445
70.88000 1.769
70.90000 -1.410
70.92000 -0.164
70.94000 1.739
70.96000 2.753
70.98000 0.146
71.00000 -0.891
71.02000 1.110
71.04000 2.084
71.06000 2.082
71.08000 2.602
71.10000 2.189
71.12000 5.868
71.14000 6.119
71.16000 1.183
71.18000 0.018
71.20000 2.412
71.22000 3.075
71.24000 1.980
71.26000 -2.095
71.28000 -0.676
71.30000 3.267
71.32000 2.810
71.34000 2.008
71.36000 4.069
71.38000 2.242
71.40000 2.096
71.42000 3.584
71.44000 3.208
71.46000 2.101
71.48000 3.776
71.50000 2.827
71.52000 6.430
71.54000 5.374
71.56000 3.614
71.58000 1.954
71.60000 3.094
71.62000 3.784
71.64000 6.585
71.66000 1.494
71.68000 2.071
71.70000 1.930
71.72000 2.916
71.74000 2.988
71.76000 0.235
71.78000 -0.048
71.80000 0.788
71.82000 2.198
71.84000 1.966
71.86000 2.594
71.88000 4.512
71.90000 4.857
71.92000 -0.328
71.94000 -1.421
71.96000 3.569
71.98000 6.136
72.00000 4.779
72.02000 2.238
72.04000 1.924
72.06000 1.787
72.08000 2.674
72.10000 2.250
72.12000 0.013
72.14000 1.009
72.16000 0.783
72.18000 2.147
72.20000 2.193
72.22000 2.731
72.24000 4.586
72.26000 2.116
72.28000 2.387
72.30000 2.323
72.32000 -0.653
72.34000 -0.643
72.36000 -0.144
72.38000 -0.522
72.40000 2.182
72.42000 2.543
72.44000 0.844
72.46000 2.472
72.48000 -0.474
72.50000 2.607
72.52000 1.906
72.54000 3.213
72.56000 3.843
72.58000 3.606
72.60000 -0.965
72.62000 2.324
72.64000 0.857
72.66000 -2.078
72.68000 -1.577
72.70000 0.545
72.72000 1.288
72.74000 3.874
72.76000 1.481
72.78000 3.832
72.80000 4.757
72.82000 4.218
72.84000 3.349
72.86000 2.794
72.88000 1.333
72.90000 0.777
72.92000 1.732
72.94000 -1.433
72.96000 -2.071
72.98000 -0.095
73.00000 -1.809
73.02000 4.009
73.04000 3.206
73.06000 3.699
73.08000 3.347
73.10000 1.498
73.12000 2.042
73.14000 1.576
73.16000 3.789
73.18000 3.480
73.20000 2.379
73.22000 0.116
73.24000 0.953
73.26000 2.592
73.28000 4.169
73.30000 3.646
73.32000 -2.061
73.34000 -0.168
73.36000 1.143
73.38000 1.088
73.40000 0.002
73.42000 1.515
73.44000 1.610
73.46000 1.424
73.48000 6.370
73.50000 2.945
73.52000 0.987
73.54000 0.101
73.56000 2.420
73.58000 1.760
73.60000 1.882
73.62000 -1.772
73.64000 0.052
73.66000 2.673
73.68000 0.170
73.70000 2.692
73.72000 2.132
73.74000 4.114
73.76000 6.543
73.78000 2.920
73.80000 -0.162
73.82000 0.960
73.84000 2.807
73.86000 4.195
73.88000 3.295
73.90000 1.679
73.92000 1.017
73.94000 0.912
73.96000 -0.550
73.98000 1.504
74.00000 1.009
74.02000 0.466
74.04000 1.818
74.06000 2.616
74.08000 1.489
74.10000 -0.880
74.12000 0.461
74.14000 0.284
74.16000 1.455
74.18000 0.895
74.20000 3.702
74.22000 1.483
74.24000 1.237
74.26000 2.410
74.28000 2.386
74.30000 5.078
74.32000 2.886
74.34000 0.665
74.36000 0.006
74.38000 0.586
74.40000 0.069
74.42000 0.820
74.44000 3.850
74.46000 5.567
74.48000 2.631
74.50000 -1.124
74.52000 -2.054
74.54000 0.473
74.56000 3.108
74.58000 1.771
74.60000 0.217
74.62000 3.940
74.64000 4.479
74.66000 2.360
74.68000 0.776
74.70000 -1.672
74.72000 -0.738
74.74000 1.564
74.76000 1.057
74.78000 2.017
74.80000 1.584
74.82000 3.164
74.84000 2.208
74.86000 3.894
74.88000 5.358
74.90000 6.176
74.92000 3.257
74.94000 3.415
74.96000 1.693
74.98000 -0.816
75.00000 -1.650
75.02000 0.006
75.04000 2.974
75.06000 0.930
75.08000 -2.079
75.10000 2.126
75.12000 5.759
75.14000 3.403
75.16000 1.027
75.18000 -1.084
75.20000 0.516
75.22000 4.346
75.24000 2.465
75.26000 1.621
75.28000 2.917
75.30000 1.601
75.32000 5.563
75.34000 1.922
75.36000 -0.143
75.38000 3.302
75.40000 3.797
75.42000 0.047
75.44000 2.269
75.46000 3.104
75.48000 2.947
75.50000 0.411
75.52000 -1.449
75.54000 -1.098
75.56000 -1.307
75.58000 -0.905
75.60000 3.236
75.62000 3.695
75.64000 0.819
75.66000 -2.103
75.68000 1.726
75.70000 3.025
75.72000 1.216
75.74000 -0.484
75.76000 1.580
75.78000 2.898
75.80000 1.105
75.82000 -0.613
75.84000 3.316
75.86000 2.011
75.88000 -0.396
75.90000 3.032
75.92000 1.677
75.94000 0.740
75.96000 1.192
75.98000 4.432
76.00000 3.162
76.02000 -1.041
76.04000 -1.405
76.06000 0.089
76.08000 5.214
76.10000 1.075
76.12000 0.439
76.14000 1.890
76.16000 -0.790
76.18000 1.813
76.20000 2.590
76.22000 1.582
76.24000 0.866
76.26000 1.323
76.28000 1.923
76.30000 3.703
76.32000 -0.025
76.34000 -0.497
76.36000 1.761
76.38000 1.107
76.40000 0.808
76.42000 2.182
76.44000 4.932
76.46000 1.979
76.48000 1.420
76.50000 3.175
76.52000 -2.121
76.54000 -0.287
76.56000 3.451
76.58000 6.034
76.60000 4.406
76.62000 2.624
76.64000 3.262
76.66000 3.884
76.68000 2.140
76.70000 -1.184
76.72000 1.911
76.74000 0.567
76.76000 3.378
76.78000 0.217
76.80000 1.901
76.82000 -0.487
76.84000 -0.024
76.86000 5.470
76.88000 3.908
76.90000 0.909
76.92000 2.284
76.94000 0.677
76.96000 -1.018
76.98000 2.042
77.00000 2.385
77.02000 2.915
77.04000 5.216
77.06000 4.100
77.08000 3.256
77.10000 2.799
77.12000 5.839
77.14000 2.843
77.16000 1.931
77.18000 2.513
77.20000 1.755
77.22000 1.117
77.24000 0.579
77.26000 -0.424
77.28000 -2.096
77.30000 2.180
77.32000 3.727
77.34000 2.633
77.36000 3.513
77.38000 7.177
77.40000 7.011
77.42000 6.535
77.44000 2.312
77.46000 1.395
77.48000 2.141
77.50000 5.342
77.52000 4.854
77.54000 5.014
77.56000 3.897
77.58000 1.101
77.60000 1.736
77.62000 2.117
77.64000 3.326
77.66000 3.414
77.68000 3.729
77.70000 3.179
77.72000 1.558
77.74000 2.658
77.76000 0.487
77.78000 -2.114
77.80000 -0.965
77.82000 0.995
77.84000 2.212
77.86000 1.565
77.88000 5.036
77.90000 6.063
77.92000 3.105
77.94000 3.812
77.96000 0.543
77.98000 -0.344
78.00000 -1.321
78.02000 3.101
78.04000 0.957
78.06000 -1.343
78.08000 1.410
78.10000 1.588
78.12000 1.511
78.14000 -1.182
78.16000 -0.897
78.18000 0.383
78.20000 -0.370
78.22000 -0.042
78.24000 5.231
78.26000 6.348
78.28000 6.621
78.30000 5.971
78.32000 8.434
78.34000 5.636
78.36000 1.555
78.38000 1.846
78.40000 -0.353
78.42000 -0.549
78.44000 -1.497
78.46000 2.977
78.48000 2.929
78.50000 7.784
78.52000 7.633
78.54000 6.830
78.56000 6.378
78.58000 0.124
78.60000 -2.149
78.62000 2.034
78.64000 2.625
78.66000 1.472
78.68000 5.518
78.70000 5.960
78.72000 3.664
78.74000 3.514
78.76000 2.827
78.78000 4.045
78.80000 2.181
78.82000 2.098
78.84000 1.964
78.86000 2.610
78.88000 1.197
78.90000 2.109
78.92000 3.262
78.94000 -0.492
78.96000 0.798
78.98000 3.961
79.00000 3.770
79.02000 2.539
79.04000 3.645
79.06000 5.194
79.08000 -2.084
79.10000 0.265
79.12000 0.598
79.14000 0.321
79.16000 -1.410
79.18000 3.985
79.20000 2.332
79.22000 5.314
79.24000 6.881
79.26000 4.005
79.28000 6.208
79.30000 1.926
79.32000 0.003
79.34000 -2.174
79.36000 0.571
79.38000 3.034
79.40000 5.412
79.42000 1.987
79.44000 2.858
79.46000 5.537
79.48000 2.694
79.50000 5.277
79.52000 6.541
79.54000 2.969
79.56000 1.266
79.58000 2.511
79.60000 3.160
79.62000 6.803
79.64000 7.885
79.66000 5.197
79.68000 3.082
79.70000 1.108
79.72000 0.069
79.74000 2.016
79.76000 0.321
79.78000 1.466
79.80000 2.024
79.82000 2.035
79.84000 1.793
79.86000 5.224
79.88000 3.643
79.90000 4.708
79.92000 7.420
79.94000 3.706
79.96000 6.281
79.98000 4.139
80.00000 3.738
80.02000 5.785
80.04000 3.184
80.06000 4.255
80.08000 5.416
80.10000 7.779
80.12000 1.242
80.14000 2.736
80.16000 9.649
80.18000 8.374
80.20000 4.725
80.22000 7.848
80.24000 10.294
80.26000 7.359
80.28000 4.470
80.30000 2.852
80.32000 3.277
80.34000 7.193
80.36000 7.764
80.38000 6.023
80.40000 6.868
80.42000 10.840
80.44000 13.369
80.46000 7.080
80.48000 9.011
80.50000 6.159
80.52000 13.245
80.54000 9.025
80.56000 10.401
80.58000 10.630
80.60000 10.697
80.62000 11.454
80.64000 11.146
80.66000 15.545
80.68000 15.783
80.70000 13.960
80.72000 14.960
80.74000 17.113
80.76000 16.684
80.78000 17.220
80.80000 17.438
80.82000 15.956
80.84000 19.517
80.86000 19.893
80.88000 16.491
80.90000 19.842
80.92000 20.448
80.94000 18.638
80.96000 18.225
80.98000 19.055
81.00000 19.816
81.02000 22.130
81.04000 23.290
81.06000 24.597
81.08000 20.700
81.10000 19.848
81.12000 17.719
81.14000 21.255
81.16000 22.486
81.18000 20.973
81.20000 20.951
81.22000 23.025
81.24000 26.642
81.26000 26.081
81.28000 23.798
81.30000 20.476
81.32000 23.874
81.34000 22.701
81.36000 20.391
81.38000 24.513
81.40000 23.299
81.42000 26.623
81.44000 23.287
81.46000 24.797
81.48000 22.484
81.50000 26.560
81.52000 24.841
81.54000 25.538
81.56000 23.269
81.58000 26.911
81.60000 26.182
81.62000 19.110
81.64000 14.390
81.66000 17.745
81.68000 17.216
81.70000 20.662
81.72000 22.669
81.74000 20.225
81.76000 22.997
81.78000 19.832
81.80000 18.922
81.82000 18.339
81.84000 19.328
81.86000 18.359
81.88000 16.227
81.90000 18.914
81.92000 16.012
81.94000 16.635
81.96000 17.066
81.98000 14.367
82.00000 16.681
82.02000 16.978
82.04000 16.293
82.06000 14.420
82.08000 12.543
82.10000 16.395
82.12000 15.320
82.14000 11.645
82.16000 8.002
82.18000 8.999
82.20000 12.335
82.22000 11.583
82.24000 8.984
82.26000 7.846
82.28000 6.655
82.30000 10.863
82.32000 9.280
82.34000 8.364
82.36000 7.954
82.38000 9.299
82.40000 9.284
82.42000 5.815
82.44000 5.507
82.46000 10.546
82.48000 8.621
82.50000 5.960
82.52000 5.384
82.54000 7.738
82.56000 5.382
82.58000 5.809
82.60000 6.118
82.62000 7.382
82.64000 4.867
82.66000 4.866
82.68000 6.197
82.70000 4.045
82.72000 3.630
82.74000 3.660
82.76000 6.808
82.78000 5.463
82.80000 2.506
82.82000 3.946
82.84000 4.320
82.86000 4.892
82.88000 0.725
82.90000 -1.964
82.92000 -2.246
82.94000 1.829
82.96000 5.386
82.98000 2.944
83.00000 4.394
83.02000 4.914
83.04000 2.729
83.06000 -0.961
83.08000 -0.605
83.10000 3.194
83.12000 3.237
83.14000 -1.508
83.16000 0.848
83.18000 5.139
83.20000 0.531
83.22000 1.731
83.24000 3.407
83.26000 4.107
83.28000 5.823
83.30000 3.363
83.32000 -1.681
83.34000 -2.255
83.36000 1.099
83.38000 2.606
83.40000 -0.251
83.42000 0.816
83.44000 1.430
83.46000 2.837
83.48000 2.147
83.50000 0.011
83.52000 0.541
83.54000 0.607
83.56000 3.713
83.58000 1.003
83.60000 1.638
83.62000 -0.005
83.64000 1.466
83.66000 -1.506
83.68000 -0.805
83.70000 -0.883
83.72000 1.160
83.74000 2.760
83.76000 1.799
83.78000 -0.369
83.80000 5.818
83.82000 2.463
83.84000 0.912
83.86000 1.617
83.88000 1.749
83.90000 0.404
83.92000 2.864
83.94000 2.851
83.96000 1.882
83.98000 2.822
84.00000 2.747
84.02000 0.668
84.04000 2.867
84.06000 6.982
84.08000 4.465
84.10000 1.746
84.12000 -1.369
84.14000 -2.286
84.16000 1.949
84.18000 2.645
84.20000 2.992
84.22000 2.434
84.24000 5.488
84.26000 3.080
84.28000 3.393
84.30000 3.555
84.32000 4.612
84.34000 4.905
84.36000 7.693
84.38000 11.776
84.40000 9.217
84.42000 7.601
84.44000 4.657
84.46000 3.090
84.48000 7.599
84.50000 9.704
84.52000 6.030
84.54000 6.998
84.56000 8.852
84.58000 10.514
84.60000 12.061
84.62000 13.376
84.64000 9.922
84.66000 9.556
84.68000 8.433
84.70000 7.969
84.72000 8.349
84.74000 12.892
84.76000 10.661
84.78000 14.938
84.80000 14.881
84.82000 15.159
84.84000 17.606
84.86000 19.738
84.88000 15.962
84.90000 14.678
84.92000 13.079
84.94000 14.185
84.96000 16.407
84.98000 14.483
85.00000 14.726
85.02000 15.130
85.04000 14.688
85.06000 18.846
85.08000 16.704
85.10000 17.947
85.12000 18.352
85.14000 15.474
85.16000 20.281
85.18000 21.417
85.20000 16.837
85.22000 15.338
85.24000 13.731
85.26000 18.843
85.28000 19.083
85.30000 17.366
85.32000 20.542
85.34000 22.883
85.36000 20.311
85.38000 19.080
85.40000 21.452
85.42000 19.096
85.44000 20.011
85.46000 18.807
85.48000 18.206
85.50000 20.356
85.52000 21.264
85.54000 16.575
85.56000 16.455
85.58000 18.413
85.60000 19.785
85.62000 19.577
85.64000 19.824
85.66000 23.401
85.68000 22.117
85.70000 20.635
85.72000 18.288
85.74000 15.897
85.76000 16.315
85.78000 18.659
85.80000 16.364
85.82000 12.738
85.84000 14.324
85.86000 13.371
85.88000 11.946
85.90000 13.487
85.92000 12.348
85.94000 5.991
85.96000 8.346
85.98000 13.457
86.00000 10.044
86.02000 9.261
86.04000 9.271
86.06000 9.396
86.08000 10.973
86.10000 11.351
86.12000 13.315
86.14000 9.443
86.16000 9.142
86.18000 5.373
86.20000 0.714
86.22000 2.707
86.24000 5.327
86.26000 7.470
86.28000 7.637
86.30000 2.860
86.32000 3.369
86.34000 1.733
86.36000 3.179
86.38000 1.763
86.40000 1.112
86.42000 1.533
86.44000 3.804
86.46000 5.468
86.48000 4.297
86.50000 2.646
86.52000 1.747
86.54000 1.626
86.56000 0.824
86.58000 0.821
86.60000 0.980
86.62000 -2.099
86.64000 2.816
86.66000 5.526
86.68000 2.827
86.70000 0.219
86.72000 0.613
86.74000 -0.063
86.76000 -0.602
86.78000 2.443
86.80000 0.495
86.82000 2.989
86.84000 -0.167
86.86000 0.365
86.88000 0.517
86.90000 -1.355
86.92000 0.281
86.94000 -1.208
86.96000 -1.093
86.98000 -1.422
87.00000 -0.836
87.02000 -0.641
87.04000 1.896
87.06000 2.195
87.08000 3.134
87.10000 2.960
87.12000 6.557
87.14000 0.534
87.16000 -1.358
87.18000 2.795
87.20000 2.828
87.22000 6.988
87.24000 2.046
87.26000 -1.411
87.28000 0.458
87.30000 -2.018
87.32000 -1.861
87.34000 0.208
87.36000 1.986
87.38000 4.279
87.40000 7.929
87.42000 1.415
87.44000 -1.276
87.46000 1.293
87.48000 2.464
87.50000 1.363
87.52000 -1.986
87.54000 0.824
87.56000 0.577
87.58000 3.332
87.60000 2.368
87.62000 0.562
87.64000 -0.301
87.66000 0.200
87.68000 2.444
87.70000 2.243
87.72000 4.111
87.74000 0.770
87.76000 0.241
87.78000 2.321
87.80000 0.957
87.82000 1.024
87.84000 0.167
87.86000 4.172
87.88000 3.564
87.90000 -0.179
87.92000 0.781
87.94000 3.124
87.96000 1.574
87.98000 0.637
88.00000 1.295
88.02000 1.581
88.04000 0.493
88.06000 0.963
88.08000 0.382
88.10000 0.402
88.12000 0.890
88.14000 -0.194
88.16000 0.959
88.18000 -1.973
88.20000 0.280
88.22000 2.865
88.24000 2.437
88.26000 3.604
88.28000 3.895
88.30000 2.175
88.32000 1.562
88.34000 0.170
88.36000 -0.592
88.38000 -0.597
88.40000 0.018
88.42000 2.956
88.44000 3.763
88.46000 4.740
88.48000 2.177
88.50000 2.700
88.52000 1.379
88.54000 1.131
88.56000 2.002
88.58000 1.760
88.60000 -1.060
88.62000 1.174
88.64000 -0.526
88.66000 2.711
88.68000 2.853
88.70000 0.742
88.72000 -0.416
88.74000 -0.697
88.76000 -0.006
88.78000 0.129
88.80000 -1.007
88.82000 -0.988
88.84000 -1.978
88.86000 2.431
88.88000 1.897
88.90000 0.561
88.92000 0.150
88.94000 1.832
88.96000 1.587
88.98000 1.885
89.00000 3.207
89.02000 0.806
89.04000 2.203
89.06000 2.430
89.08000 1.359
89.10000 -0.515
89.12000 3.358
89.14000 1.078
89.16000 2.820
89.18000 5.442
89.20000 1.673
89.22000 -0.017
89.24000 -0.526
89.26000 -0.443
89.28000 1.803
89.30000 1.532
89.32000 4.948
89.34000 2.235
89.36000 -0.871
89.38000 1.455
89.40000 3.727
89.42000 4.639
89.44000 3.149
89.46000 0.155
89.48000 -0.194
89.50000 -1.960
89.52000 -1.036
89.54000 0.109
89.56000 0.362
89.58000 2.208
89.60000 6.253
89.62000 3.353
89.64000 1.363
89.66000 0.347
89.68000 -0.543
89.70000 1.390
89.72000 2.045
89.74000 3.162
89.76000 5.109
89.78000 3.961
89.80000 1.815
89.82000 1.211
89.84000 0.917
89.86000 2.129
89.88000 0.032
89.90000 -1.943
89.92000 -1.812
89.94000 0.386
89.96000 3.127
89.98000 2.951
90.00000 1.857
90.02000 1.558
90.04000 3.190
90.06000 4.689
90.08000 3.434
90.10000 1.729
90.12000 2.406
90.14000 -0.772
90.16000 1.422
90.18000 1.224
90.20000 2.994
90.22000 2.795
90.24000 4.336
90.26000 0.685
90.28000 1.242
90.30000 0.551
90.32000 -0.096
90.34000 0.855
90.36000 5.736
90.38000 2.386
90.40000 0.450
90.42000 -0.885
90.44000 -0.753
90.46000 2.259
90.48000 3.673
90.50000 2.435
90.52000 -1.944
90.54000 -1.372
90.56000 0.641
90.58000 2.739
90.60000 3.675
90.62000 0.304
90.64000 2.605
90.66000 5.180
90.68000 3.737
90.70000 0.456
90.72000 0.953
90.74000 3.640
90.76000 5.212
90.78000 4.940
90.80000 3.389
90.82000 2.536
90.84000 2.247
90.86000 2.132
90.88000 4.370
90.90000 5.522
90.92000 7.540
90.94000 2.202
90.96000 4.242
90.98000 2.440
91.00000 2.598
91.02000 2.702
91.04000 -0.462
91.06000 1.681
91.08000 3.717
91.10000 3.828
91.12000 2.456
91.14000 0.314
91.16000 -1.938
91.18000 1.235
91.20000 2.302
91.22000 -1.002
91.24000 2.295
91.26000 1.597
91.28000 4.884
91.30000 6.135
91.32000 5.815
91.34000 3.378
91.36000 2.716
91.38000 3.956
91.40000 2.044
91.42000 1.806
91.44000 1.297
91.46000 1.236
91.48000 2.565
91.50000 1.656
91.52000 -1.933
91.54000 3.980
91.56000 4.900
91.58000 5.594
91.60000 2.886
91.62000 4.383
91.64000 6.807
91.66000 4.071
91.68000 3.818
91.70000 4.336
91.72000 2.288
91.74000 1.845
91.76000 0.478
91.78000 -0.230
91.80000 1.686
91.82000 2.862
91.84000 3.458
91.86000 0.926
91.88000 0.992
91.90000 1.307
91.92000 0.718
91.94000 -0.340
91.96000 -1.719
91.98000 -0.141
92.00000 2.199
92.02000 3.754
92.04000 5.189
92.06000 3.663
92.08000 4.779
92.10000 0.531
92.12000 1.142
92.14000 -0.066
92.16000 -1.331
92.18000 -1.969
92.20000 2.219
92.22000 4.863
92.24000 4.505
92.26000 1.135
92.28000 -1.728
92.30000 -0.583
92.32000 1.545
92.34000 2.458
92.36000 2.353
92.38000 2.352
92.40000 2.586
92.42000 3.076
92.44000 2.196
92.46000 5.579
92.48000 -1.236
92.50000 3.167
92.52000 4.043
92.54000 5.387
92.56000 6.170
92.58000 2.230
92.60000 2.838
92.62000 0.435
92.64000 0.494
92.66000 1.699
92.68000 2.112
92.70000 1.785
92.72000 3.531
92.74000 5.589
92.76000 2.572
92.78000 1.243
92.80000 1.861
92.82000 2.017
92.84000 -1.966
92.86000 4.883
92.88000 6.210
92.90000 2.322
92.92000 0.893
92.94000 3.315
92.96000 0.323
92.98000 -0.365
93.00000 2.298
93.02000 0.871
93.04000 -0.003
93.06000 3.100
93.08000 1.464
93.10000 -0.727
93.12000 3.019
93.14000 5.044
93.16000 -0.871
93.18000 -0.198
93.20000 4.714
93.22000 2.008
93.24000 2.432
93.26000 -0.110
93.28000 0.965
93.30000 3.031
93.32000 2.532
93.34000 3.675
93.36000 2.113
93.38000 3.273
93.40000 -0.494
93.42000 -0.229
93.44000 2.668
93.46000 1.300
93.48000 2.379
93.50000 1.947
93.52000 0.452
93.54000 0.734
93.56000 2.969
93.58000 4.129
93.60000 4.373
93.62000 1.228
93.64000 0.616
93.66000 -1.960
93.68000 2.088
93.70000 3.049
93.72000 4.188
93.74000 1.324
93.76000 1.989
93.78000 4.794
93.80000 5.299
93.82000 0.563
93.84000 0.969
93.86000 1.903
93.88000 2.080
93.90000 0.147
93.92000 -0.624
93.94000 0.165
93.96000 5.078
93.98000 3.000
94.00000 1.480
94.02000 0.548
94.04000 1.062
94.06000 -0.316
94.08000 -0.990
94.10000 3.459
94.12000 4.618
94.14000 6.472
94.16000 4.699
94.18000 3.480
94.20000 -0.267
94.22000 -1.979
94.24000 4.442
94.26000 4.646
94.28000 4.155
94.30000 -0.482
94.32000 -1.660
94.34000 -0.818
94.36000 1.795
94.38000 1.660
94.40000 -1.718
94.42000 1.473
94.44000 3.530
94.46000 1.466
94.48000 1.819
94.50000 3.910
94.52000 3.431
94.54000 1.320
94.56000 1.376
94.58000 0.984
94.60000 2.731
94.62000 2.366
94.64000 2.023
94.66000 3.459
94.68000 5.025
94.70000 0.891
94.72000 0.765
94.74000 -1.987
94.76000 0.471
94.78000 -0.418
94.80000 1.678
94.82000 3.792
94.84000 3.718
94.86000 6.701
94.88000 4.052
94.90000 0.590
94.92000 3.170
94.94000 3.018
94.96000 1.695
94.98000 0.838
95.00000 2.407
95.02000 1.317
95.04000 2.678
95.06000 6.242
95.08000 0.986
95.10000 -0.253
95.12000 -1.980
95.14000 -0.141
95.16000 -1.753
95.18000 -0.063
95.20000 0.906
95.22000 7.572
95.24000 4.185
95.26000 4.863
95.28000 2.835
95.30000 2.689
95.32000 4.648
95.34000 3.946
95.36000 5.346
95.38000 0.951
95.40000 -0.493
95.42000 1.248
95.44000 1.283
95.46000 2.161
95.48000 4.832
95.50000 3.969
95.52000 4.013
95.54000 4.772
95.56000 2.935
95.58000 3.911
95.60000 5.800
95.62000 7.538
95.64000 0.184
95.66000 -1.230
95.68000 -0.294
95.70000 0.134
95.72000 0.212
95.74000 3.331
95.76000 0.380
95.78000 2.282
95.80000 5.291
95.82000 1.099
95.84000 0.616
95.86000 4.334
95.88000 7.093
95.90000 4.056
95.92000 4.653
95.94000 3.418
95.96000 2.474
95.98000 4.696
96.00000 2.316
96.02000 4.547
96.04000 7.763
96.06000 7.513
96.08000 5.441
96.10000 5.193
96.12000 4.454
96.14000 6.400
96.16000 6.596
96.18000 3.470
96.20000 -0.791
96.22000 -0.434
96.24000 -0.276
96.26000 3.480
96.28000 5.393
96.30000 0.893
96.32000 1.221
96.34000 2.457
96.36000 1.772
96.38000 0.869
96.40000 3.912
96.42000 0.447
96.44000 3.075
96.46000 4.463
96.48000 4.663
96.50000 6.121
96.52000 5.247
96.54000 9.616
96.56000 5.445
96.58000 4.283
96.60000 2.197
96.62000 -0.373
96.64000 -1.959
96.66000 -1.647
96.68000 1.168
96.70000 6.158
96.72000 6.267
96.74000 2.402
96.76000 4.340
96.78000 6.216
96.80000 2.772
96.82000 1.958
96.84000 0.588
96.86000 1.527
96.88000 2.446
96.90000 4.140
96.92000 5.008
96.94000 7.255
96.96000 2.296
96.98000 0.898
97.00000 5.584
97.02000 5.892
97.04000 3.722
97.06000 2.183
97.08000 3.131
97.10000 3.404
97.12000 1.989
97.14000 -1.281
97.16000 -0.455
97.18000 0.885
97.20000 5.306
97.22000 6.030
97.24000 4.109
97.26000 0.866
97.28000 1.150
97.30000 1.613
97.32000 0.818
97.34000 3.415
97.36000 0.781
97.38000 0.316
97.40000 0.868
97.42000 -0.010
97.44000 0.040
97.46000 1.433
97.48000 1.357
97.50000 -0.957
97.52000 1.361
97.54000 2.541
97.56000 1.348
97.58000 7.362
97.60000 2.546
97.62000 1.719
97.64000 3.155
97.66000 -0.519
97.68000 0.879
97.70000 1.358
97.72000 -1.295
97.74000 0.873
97.76000 -0.850
97.78000 0.292
97.80000 0.810
97.82000 -0.795
97.84000 4.808
97.86000 4.540
97.88000 5.974
97.90000 5.832
97.92000 4.562
97.94000 8.550
97.96000 7.391
97.98000 -0.879
98.00000 1.242
98.02000 1.826
98.04000 11.490
98.06000 1.654
98.08000 1.104
98.10000 0.978
98.12000 -1.733
98.14000 -1.341
98.16000 0.971
98.18000 0.854
98.20000 2.591
98.22000 5.189
98.24000 3.403
98.26000 0.441
98.28000 4.225
98.30000 -1.041
98.32000 1.377
98.34000 6.687
98.36000 5.525
98.38000 2.024
98.40000 1.011
98.42000 3.605
98.44000 5.832
98.46000 0.052
98.48000 5.085
98.50000 2.945
98.52000 1.800
98.54000 8.207
98.56000 9.036
98.58000 6.042
98.60000 2.412
98.62000 4.603
98.64000 3.228
98.66000 7.102
98.68000 8.285
98.70000 3.263
98.72000 2.772
98.74000 4.045
98.76000 7.475
98.78000 7.410
98.80000 10.068
98.82000 9.675
98.84000 0.593
98.86000 1.540
98.88000 6.172
98.90000 10.196
98.92000 5.211
98.94000 -1.906
98.96000 -1.373
98.98000 6.086
99.00000 3.082
99.02000 7.521
99.04000 0.919
99.06000 -1.905
99.08000 -0.635
99.10000 -1.237
99.12000 -1.384
99.14000 5.409
99.16000 1.483
99.18000 10.370
99.20000 3.655
99.22000 3.628
99.24000 9.716
99.26000 9.390
99.28000 9.338
99.30000 12.096
99.32000 7.734
99.34000 1.022
99.36000 -1.900
99.38000 2.674
99.40000 6.653
99.42000 0.904
99.44000 2.712
99.46000 2.509
99.48000 7.604
99.50000 5.301
99.52000 3.213
99.54000 2.589
99.56000 4.463
99.58000 1.325
99.60000 0.633
99.62000 0.682
99.64000 2.029
99.66000 1.413
99.68000 10.613
99.70000 6.775
99.72000 9.729
99.74000 7.610
99.76000 10.172
99.78000 3.389
99.80000 4.840
99.82000 8.128
99.84000 2.445
99.86000 2.715
99.88000 -1.958
99.90000 4.732
99.92000 4.831
99.94000 3.807
99.96000 2.731
99.98000 0.000
