'Id: "0011389" Comment: "Integrate frame 0011389_Au-Ir-Rh_Au-Rich_XRD_Mapping-340-0000.gfrmwith cursor Wedge Cursor #5" Operator: "B?rgel" Anode: "Cu" Wavelength: "1.5406" Scantype: "2Theta (TwoTheta)" TimePerStep: "1" X: "9" Y: "45" Z: "5.95" 
10.00000 0.000
10.02000 -4.420
10.04000 -4.389
10.06000 5.438
10.08000 -0.268
10.10000 -4.375
10.12000 9.164
10.14000 0.460
10.16000 15.048
10.18000 -1.096
10.20000 8.832
10.22000 17.078
10.24000 7.735
10.26000 14.922
10.28000 15.533
10.30000 14.486
10.32000 0.484
10.34000 0.063
10.36000 3.189
10.38000 -2.554
10.40000 7.959
10.42000 22.729
10.44000 18.195
10.46000 10.067
10.48000 2.337
10.50000 3.407
10.52000 3.433
10.54000 12.968
10.56000 7.408
10.58000 9.986
10.60000 13.786
10.62000 15.920
10.64000 3.319
10.66000 -4.391
10.68000 13.537
10.70000 19.996
10.72000 14.535
10.74000 7.824
10.76000 9.397
10.78000 13.086
10.80000 9.557
10.82000 -2.410
10.84000 -4.398
10.86000 2.450
10.88000 6.554
10.90000 23.861
10.92000 18.014
10.94000 17.168
10.96000 15.459
10.98000 5.844
11.00000 11.752
11.02000 16.265
11.04000 12.855
11.06000 20.063
11.08000 18.886
11.10000 20.442
11.12000 7.021
11.14000 3.651
11.16000 5.481
11.18000 8.290
11.20000 20.432
11.22000 16.469
11.24000 16.274
11.26000 17.490
11.28000 10.455
11.30000 5.251
11.32000 13.907
11.34000 17.850
11.36000 6.207
11.38000 5.936
11.40000 5.494
11.42000 7.370
11.44000 12.663
11.46000 14.024
11.48000 27.061
11.50000 15.185
11.52000 14.484
11.54000 23.433
11.56000 30.628
11.58000 21.379
11.60000 21.978
11.62000 25.332
11.64000 22.485
11.66000 10.824
11.68000 9.643
11.70000 21.838
11.72000 17.289
11.74000 17.658
11.76000 22.128
11.78000 20.430
11.80000 19.183
11.82000 9.437
11.84000 16.916
11.86000 19.964
11.88000 22.889
11.90000 6.991
11.92000 16.015
11.94000 20.263
11.96000 6.696
11.98000 19.203
12.00000 24.739
12.02000 19.784
12.04000 18.829
12.06000 12.841
12.08000 8.575
12.10000 3.939
12.12000 -4.473
12.14000 10.065
12.16000 21.628
12.18000 12.179
12.20000 18.518
12.22000 17.522
12.24000 1.612
12.26000 6.709
12.28000 19.237
12.30000 20.145
12.32000 18.233
12.34000 12.883
12.36000 12.357
12.38000 12.222
12.40000 1.342
12.42000 13.963
12.44000 13.525
12.46000 18.022
12.48000 10.240
12.50000 12.035
12.52000 15.931
12.54000 12.775
12.56000 12.419
12.58000 5.089
12.60000 16.852
12.62000 15.940
12.64000 4.571
12.66000 3.501
12.68000 14.177
12.70000 9.216
12.72000 8.637
12.74000 -2.333
12.76000 -0.032
12.78000 9.496
12.80000 16.430
12.82000 15.839
12.84000 12.829
12.86000 16.265
12.88000 13.995
12.90000 18.294
12.92000 20.192
12.94000 16.610
12.96000 16.140
12.98000 18.009
13.00000 16.611
13.02000 4.095
13.04000 9.920
13.06000 16.752
13.08000 5.076
13.10000 6.707
13.12000 13.790
13.14000 8.448
13.16000 12.778
13.18000 16.923
13.20000 15.581
13.22000 8.702
13.24000 9.169
13.26000 16.910
13.28000 20.525
13.30000 22.344
13.32000 14.956
13.34000 12.811
13.36000 12.075
13.38000 18.258
13.40000 16.729
13.42000 15.884
13.44000 15.492
13.46000 15.283
13.48000 9.933
13.50000 4.598
13.52000 9.755
13.54000 7.937
13.56000 18.603
13.58000 6.471
13.60000 15.336
13.62000 10.387
13.64000 4.797
13.66000 7.374
13.68000 12.766
13.70000 22.890
13.72000 20.156
13.74000 21.478
13.76000 20.780
13.78000 9.207
13.80000 6.171
13.82000 13.577
13.84000 16.040
13.86000 12.240
13.88000 5.524
13.90000 8.438
13.92000 3.944
13.94000 -0.917
13.96000 0.628
13.98000 -3.882
14.00000 -4.517
14.02000 -1.243
14.04000 5.264
14.06000 18.389
14.08000 8.421
14.10000 14.244
14.12000 16.899
14.14000 9.787
14.16000 0.517
14.18000 2.671
14.20000 9.745
14.22000 11.037
14.24000 4.625
14.26000 12.107
14.28000 22.320
14.30000 23.044
14.32000 17.635
14.34000 14.830
14.36000 5.382
14.38000 8.737
14.40000 6.200
14.42000 -1.417
14.44000 4.992
14.46000 16.179
14.48000 16.617
14.50000 8.130
14.52000 9.526
14.54000 0.459
14.56000 -1.836
14.58000 5.779
14.60000 12.711
14.62000 13.432
14.64000 12.995
14.66000 9.449
14.68000 3.397
14.70000 7.954
14.72000 12.290
14.74000 5.406
14.76000 3.169
14.78000 6.274
14.80000 4.910
14.82000 11.376
14.84000 25.881
14.86000 18.946
14.88000 15.117
14.90000 13.062
14.92000 6.721
14.94000 17.454
14.96000 15.675
14.98000 6.138
15.00000 11.514
15.02000 8.432
15.04000 4.483
15.06000 3.877
15.08000 3.390
15.10000 5.969
15.12000 9.572
15.14000 2.029
15.16000 8.984
15.18000 10.540
15.20000 7.638
15.22000 10.812
15.24000 15.648
15.26000 13.157
15.28000 12.354
15.30000 9.298
15.32000 6.712
15.34000 2.723
15.36000 7.954
15.38000 7.937
15.40000 -2.481
15.42000 -2.935
15.44000 3.841
15.46000 10.413
15.48000 17.242
15.50000 17.452
15.52000 8.085
15.54000 10.339
15.56000 6.095
15.58000 2.938
15.60000 2.134
15.62000 4.208
15.64000 4.926
15.66000 9.416
15.68000 8.123
15.70000 13.180
15.72000 20.561
15.74000 3.501
15.76000 1.243
15.78000 4.491
15.80000 8.178
15.82000 9.382
15.84000 1.121
15.86000 5.343
15.88000 1.349
15.90000 7.400
15.92000 1.805
15.94000 6.842
15.96000 11.830
15.98000 12.282
16.00000 2.728
16.02000 5.973
16.04000 1.184
16.06000 5.657
16.08000 6.012
16.10000 11.499
16.12000 9.128
16.14000 8.449
16.16000 16.936
16.18000 8.094
16.20000 9.501
16.22000 7.191
16.24000 3.721
16.26000 -4.478
16.28000 -3.486
16.30000 -2.804
16.32000 6.262
16.34000 7.943
16.36000 11.686
16.38000 8.414
16.40000 2.620
16.42000 -2.216
16.44000 0.425
16.46000 7.738
16.48000 4.836
16.50000 6.665
16.52000 1.759
16.54000 5.974
16.56000 9.577
16.58000 4.962
16.60000 -1.593
16.62000 1.901
16.64000 3.711
16.66000 5.722
16.68000 2.815
16.70000 6.669
16.72000 9.133
16.74000 15.139
16.76000 7.968
16.78000 2.985
16.80000 2.046
16.82000 1.069
16.84000 3.367
16.86000 10.528
16.88000 13.915
16.90000 9.986
16.92000 5.682
16.94000 6.834
16.96000 3.593
16.98000 2.951
17.00000 3.617
17.02000 4.405
17.04000 10.160
17.06000 11.822
17.08000 0.432
17.10000 -1.654
17.12000 4.557
17.14000 11.603
17.16000 4.028
17.18000 3.633
17.20000 8.194
17.22000 4.207
17.24000 10.321
17.26000 6.356
17.28000 5.092
17.30000 9.345
17.32000 17.396
17.34000 8.449
17.36000 6.091
17.38000 5.132
17.40000 -0.457
17.42000 3.087
17.44000 11.397
17.46000 16.003
17.48000 17.009
17.50000 13.918
17.52000 13.537
17.54000 6.929
17.56000 4.418
17.58000 6.571
17.60000 9.404
17.62000 7.878
17.64000 1.698
17.66000 -3.280
17.68000 1.765
17.70000 5.723
17.72000 8.084
17.74000 4.547
17.76000 -4.381
17.78000 0.555
17.80000 1.213
17.82000 12.251
17.84000 5.779
17.86000 2.467
17.88000 5.845
17.90000 6.072
17.92000 6.584
17.94000 10.584
17.96000 15.087
17.98000 12.401
18.00000 5.138
18.02000 2.907
18.04000 2.378
18.06000 0.313
18.08000 3.635
18.10000 4.474
18.12000 3.234
18.14000 3.174
18.16000 4.361
18.18000 -4.360
18.20000 6.943
18.22000 12.516
18.24000 15.619
18.26000 12.456
18.28000 7.780
18.30000 3.439
18.32000 8.413
18.34000 4.567
18.36000 -0.350
18.38000 1.451
18.40000 0.378
18.42000 5.342
18.44000 10.418
18.46000 4.121
18.48000 9.672
18.50000 13.845
18.52000 6.475
18.54000 6.162
18.56000 0.528
18.58000 6.318
18.60000 9.729
18.62000 2.357
18.64000 0.041
18.66000 -0.031
18.68000 7.600
18.70000 8.177
18.72000 6.494
18.74000 2.496
18.76000 7.041
18.78000 3.611
18.80000 2.174
18.82000 -1.275
18.84000 3.856
18.86000 8.167
18.88000 5.531
18.90000 3.281
18.92000 2.499
18.94000 -2.182
18.96000 -4.322
18.98000 3.229
19.00000 5.862
19.02000 2.983
19.04000 -0.144
19.06000 7.209
19.08000 3.696
19.10000 3.045
19.12000 3.208
19.14000 6.661
19.16000 7.354
19.18000 10.552
19.20000 7.149
19.22000 8.804
19.24000 3.667
19.26000 8.762
19.28000 8.218
19.30000 6.535
19.32000 5.988
19.34000 9.504
19.36000 5.477
19.38000 6.383
19.40000 11.538
19.42000 8.541
19.44000 4.676
19.46000 7.883
19.48000 3.156
19.50000 0.212
19.52000 3.926
19.54000 6.270
19.56000 3.653
19.58000 5.535
19.60000 7.373
19.62000 12.178
19.64000 6.539
19.66000 7.828
19.68000 7.521
19.70000 6.959
19.72000 3.990
19.74000 -1.365
19.76000 0.927
19.78000 5.519
19.80000 9.327
19.82000 -1.369
19.84000 2.416
19.86000 3.498
19.88000 2.623
19.90000 9.365
19.92000 1.763
19.94000 7.579
19.96000 8.678
19.98000 8.928
20.00000 -0.832
20.02000 0.615
20.04000 -1.065
20.06000 15.148
20.08000 11.470
20.10000 1.925
20.12000 3.074
20.14000 2.074
20.16000 4.874
20.18000 4.131
20.20000 2.438
20.22000 4.412
20.24000 4.241
20.26000 7.257
20.28000 -4.231
20.30000 -0.202
20.32000 1.294
20.34000 -1.921
20.36000 2.855
20.38000 6.074
20.40000 2.951
20.42000 7.273
20.44000 5.117
20.46000 3.739
20.48000 3.868
20.50000 6.974
20.52000 5.399
20.54000 3.664
20.56000 3.753
20.58000 7.314
20.60000 14.999
20.62000 7.178
20.64000 4.288
20.66000 0.940
20.68000 7.694
20.70000 5.222
20.72000 5.903
20.74000 9.123
20.76000 11.421
20.78000 7.387
20.80000 9.832
20.82000 14.565
20.84000 11.636
20.86000 6.396
20.88000 3.369
20.90000 -4.195
20.92000 3.465
20.94000 6.454
20.96000 6.728
20.98000 0.156
21.00000 5.677
21.02000 3.528
21.04000 -3.021
21.06000 2.529
21.08000 1.750
21.10000 4.883
21.12000 4.266
21.14000 3.193
21.16000 -0.856
21.18000 7.606
21.20000 3.656
21.22000 1.704
21.24000 2.226
21.26000 1.720
21.28000 3.665
21.30000 9.467
21.32000 9.094
21.34000 7.538
21.36000 4.583
21.38000 3.650
21.40000 -0.107
21.42000 -2.110
21.44000 1.283
21.46000 6.684
21.48000 13.943
21.50000 6.663
21.52000 1.061
21.54000 3.766
21.56000 1.965
21.58000 2.036
21.60000 1.281
21.62000 7.124
21.64000 12.680
21.66000 9.052
21.68000 6.366
21.70000 2.754
21.72000 8.713
21.74000 9.632
21.76000 6.805
21.78000 7.809
21.80000 6.245
21.82000 5.094
21.84000 7.263
21.86000 6.077
21.88000 5.680
21.90000 4.831
21.92000 4.764
21.94000 4.698
21.96000 1.891
21.98000 8.221
22.00000 8.192
22.02000 7.105
22.04000 2.911
22.06000 3.516
22.08000 -1.107
22.10000 -0.812
22.12000 3.574
22.14000 11.200
22.16000 11.011
22.18000 6.996
22.20000 9.181
22.22000 13.026
22.24000 11.325
22.26000 13.068
22.28000 13.534
22.30000 6.291
22.32000 4.326
22.34000 5.389
22.36000 4.440
22.38000 2.139
22.40000 1.505
22.42000 1.665
22.44000 5.556
22.46000 6.956
22.48000 6.211
22.50000 1.388
22.52000 8.188
22.54000 7.845
22.56000 3.457
22.58000 5.938
22.60000 4.939
22.62000 9.479
22.64000 8.983
22.66000 9.133
22.68000 9.144
22.70000 5.071
22.72000 4.871
22.74000 8.990
22.76000 6.680
22.78000 2.748
22.80000 8.941
22.82000 7.794
22.84000 0.385
22.86000 13.736
22.88000 9.442
22.90000 5.806
22.92000 5.178
22.94000 1.369
22.96000 1.654
22.98000 2.919
23.00000 5.059
23.02000 3.078
23.04000 5.985
23.06000 8.280
23.08000 8.496
23.10000 11.154
23.12000 14.710
23.14000 14.146
23.16000 12.609
23.18000 15.211
23.20000 7.714
23.22000 3.673
23.24000 7.217
23.26000 12.735
23.28000 10.515
23.30000 8.906
23.32000 9.502
23.34000 12.032
23.36000 11.525
23.38000 5.751
23.40000 8.548
23.42000 6.683
23.44000 -4.018
23.46000 6.188
23.48000 9.679
23.50000 5.845
23.52000 3.431
23.54000 7.947
23.56000 7.657
23.58000 6.091
23.60000 12.394
23.62000 10.092
23.64000 6.409
23.66000 11.106
23.68000 8.747
23.70000 4.839
23.72000 4.038
23.74000 10.633
23.76000 10.034
23.78000 3.517
23.80000 3.704
23.82000 6.748
23.84000 4.175
23.86000 4.555
23.88000 9.939
23.90000 6.766
23.92000 7.814
23.94000 4.293
23.96000 6.944
23.98000 10.398
24.00000 10.265
24.02000 6.141
24.04000 8.306
24.06000 8.550
24.08000 7.813
24.10000 5.768
24.12000 5.188
24.14000 6.638
24.16000 9.826
24.18000 10.164
24.20000 2.710
24.22000 -0.523
24.24000 -2.526
24.26000 9.057
24.28000 8.941
24.30000 4.161
24.32000 5.748
24.34000 2.572
24.36000 3.194
24.38000 3.012
24.40000 6.248
24.42000 2.610
24.44000 4.545
24.46000 3.097
24.48000 7.989
24.50000 0.808
24.52000 3.819
24.54000 -1.407
24.56000 3.389
24.58000 7.307
24.60000 9.923
24.62000 11.253
24.64000 13.919
24.66000 9.006
24.68000 3.890
24.70000 4.497
24.72000 5.955
24.74000 5.333
24.76000 5.739
24.78000 1.507
24.80000 3.747
24.82000 6.492
24.84000 -0.461
24.86000 1.808
24.88000 7.668
24.90000 5.984
24.92000 8.255
24.94000 7.110
24.96000 6.987
24.98000 4.666
25.00000 1.531
25.02000 3.240
25.04000 -0.033
25.06000 7.932
25.08000 0.491
25.10000 4.955
25.12000 6.049
25.14000 7.728
25.16000 4.074
25.18000 10.350
25.20000 8.418
25.22000 7.701
25.24000 2.829
25.26000 5.229
25.28000 6.231
25.30000 2.989
25.32000 2.892
25.34000 4.854
25.36000 6.687
25.38000 9.411
25.40000 6.603
25.42000 2.466
25.44000 5.977
25.46000 3.916
25.48000 5.907
25.50000 7.525
25.52000 6.789
25.54000 9.722
25.56000 4.016
25.58000 4.841
25.60000 6.836
25.62000 3.643
25.64000 7.217
25.66000 4.889
25.68000 9.862
25.70000 5.608
25.72000 1.762
25.74000 2.117
25.76000 2.187
25.78000 -1.730
25.80000 1.339
25.82000 7.512
25.84000 4.031
25.86000 4.726
25.88000 8.849
25.90000 7.134
25.92000 7.470
25.94000 5.747
25.96000 -3.928
25.98000 0.806
26.00000 3.420
26.02000 0.764
26.04000 5.130
26.06000 5.451
26.08000 4.807
26.10000 1.065
26.12000 5.225
26.14000 8.877
26.16000 4.615
26.18000 3.917
26.20000 5.322
26.22000 1.344
26.24000 1.118
26.26000 5.557
26.28000 3.999
26.30000 6.852
26.32000 4.383
26.34000 1.300
26.36000 5.783
26.38000 6.489
26.40000 1.416
26.42000 3.932
26.44000 9.581
26.46000 0.931
26.48000 -1.416
26.50000 -1.966
26.52000 -0.375
26.54000 4.075
26.56000 8.029
26.58000 9.245
26.60000 5.206
26.62000 3.350
26.64000 -0.033
26.66000 1.071
26.68000 2.926
26.70000 3.086
26.72000 2.497
26.74000 3.590
26.76000 4.037
26.78000 3.499
26.80000 6.311
26.82000 6.308
26.84000 -1.378
26.86000 -2.841
26.88000 -3.762
26.90000 1.063
26.92000 8.443
26.94000 4.302
26.96000 7.773
26.98000 9.829
27.00000 6.109
27.02000 4.460
27.04000 0.525
27.06000 -1.772
27.08000 1.619
27.10000 0.077
27.12000 0.935
27.14000 1.925
27.16000 4.509
27.18000 8.074
27.20000 6.092
27.22000 4.901
27.24000 5.476
27.26000 4.445
27.28000 3.925
27.30000 -0.649
27.32000 -3.884
27.34000 2.026
27.36000 1.591
27.38000 0.071
27.40000 -0.147
27.42000 1.535
27.44000 5.945
27.46000 7.425
27.48000 3.509
27.50000 7.308
27.52000 5.443
27.54000 6.895
27.56000 6.292
27.58000 3.799
27.60000 0.831
27.62000 -2.624
27.64000 -0.483
27.66000 3.570
27.68000 1.743
27.70000 2.259
27.72000 4.102
27.74000 3.833
27.76000 4.956
27.78000 4.087
27.80000 7.825
27.82000 4.669
27.84000 0.776
27.86000 4.934
27.88000 4.623
27.90000 2.098
27.92000 3.244
27.94000 -2.807
27.96000 2.434
27.98000 5.013
28.00000 6.621
28.02000 7.199
28.04000 6.992
28.06000 9.117
28.08000 0.567
28.10000 -0.905
28.12000 6.491
28.14000 8.189
28.16000 3.044
28.18000 2.013
28.20000 6.891
28.22000 7.246
28.24000 6.995
28.26000 6.291
28.28000 3.296
28.30000 3.568
28.32000 5.146
28.34000 5.554
28.36000 2.214
28.38000 -0.152
28.40000 3.391
28.42000 7.485
28.44000 6.927
28.46000 3.302
28.48000 5.399
28.50000 7.701
28.52000 3.666
28.54000 0.163
28.56000 4.133
28.58000 3.151
28.60000 5.524
28.62000 6.780
28.64000 5.308
28.66000 2.864
28.68000 4.573
28.70000 0.728
28.72000 -3.776
28.74000 4.730
28.76000 8.731
28.78000 8.091
28.80000 6.929
28.82000 5.609
28.84000 3.724
28.86000 4.190
28.88000 4.518
28.90000 6.873
28.92000 6.987
28.94000 6.347
28.96000 2.279
28.98000 2.493
29.00000 5.585
29.02000 5.829
29.04000 8.001
29.06000 6.316
29.08000 4.047
29.10000 8.528
29.12000 7.112
29.14000 1.111
29.16000 1.177
29.18000 -1.578
29.20000 2.045
29.22000 6.083
29.24000 8.874
29.26000 8.468
29.28000 3.728
29.30000 5.729
29.32000 6.443
29.34000 2.521
29.36000 5.453
29.38000 9.353
29.40000 4.805
29.42000 -0.551
29.44000 0.205
29.46000 -3.639
29.48000 2.440
29.50000 2.523
29.52000 2.705
29.54000 -2.058
29.56000 3.396
29.58000 4.313
29.60000 5.940
29.62000 7.085
29.64000 0.524
29.66000 -3.633
29.68000 -1.084
29.70000 3.352
29.72000 2.494
29.74000 3.731
29.76000 5.459
29.78000 3.848
29.80000 1.223
29.82000 0.654
29.84000 2.369
29.86000 5.527
29.88000 5.908
29.90000 6.444
29.92000 3.395
29.94000 7.921
29.96000 5.227
29.98000 0.616
30.00000 -3.005
30.02000 -0.183
30.04000 -3.745
30.06000 0.658
30.08000 1.549
30.10000 2.507
30.12000 -1.936
30.14000 2.574
30.16000 5.586
30.18000 0.412
30.20000 1.096
30.22000 3.667
30.24000 -0.010
30.26000 -0.265
30.28000 -1.823
30.30000 -2.415
30.32000 1.517
30.34000 7.722
30.36000 3.006
30.38000 6.170
30.40000 4.780
30.42000 5.352
30.44000 5.034
30.46000 6.145
30.48000 4.584
30.50000 5.149
30.52000 5.316
30.54000 3.356
30.56000 2.209
30.58000 5.980
30.60000 5.694
30.62000 3.630
30.64000 2.102
30.66000 -0.657
30.68000 -0.672
30.70000 4.579
30.72000 5.961
30.74000 2.765
30.76000 11.345
30.78000 9.963
30.80000 5.712
30.82000 10.609
30.84000 9.358
30.86000 5.064
30.88000 1.938
30.90000 9.330
30.92000 8.287
30.94000 7.334
30.96000 5.387
30.98000 6.692
31.00000 6.387
31.02000 9.532
31.04000 6.850
31.06000 7.545
31.08000 1.749
31.10000 0.958
31.12000 1.673
31.14000 1.232
31.16000 6.499
31.18000 4.263
31.20000 3.297
31.22000 2.399
31.24000 5.748
31.26000 6.698
31.28000 5.558
31.30000 -0.219
31.32000 -3.683
31.34000 -3.017
31.36000 0.706
31.38000 1.258
31.40000 -0.236
31.42000 -3.562
31.44000 1.286
31.46000 1.499
31.48000 0.369
31.50000 3.169
31.52000 1.019
31.54000 4.185
31.56000 4.548
31.58000 2.718
31.60000 2.068
31.62000 1.254
31.64000 1.857
31.66000 0.130
31.68000 2.057
31.70000 2.948
31.72000 3.534
31.74000 2.838
31.76000 3.495
31.78000 3.024
31.80000 0.914
31.82000 5.366
31.84000 8.166
31.86000 8.710
31.88000 4.513
31.90000 4.724
31.92000 5.946
31.94000 6.697
31.96000 4.728
31.98000 -0.287
32.00000 3.585
32.02000 3.366
32.04000 1.799
32.06000 3.835
32.08000 2.870
32.10000 2.668
32.12000 3.860
32.14000 3.388
32.16000 5.500
32.18000 7.740
32.20000 11.192
32.22000 9.433
32.24000 5.501
32.26000 10.640
32.28000 9.796
32.30000 8.022
32.32000 5.819
32.34000 8.598
32.36000 8.733
32.38000 10.076
32.40000 7.888
32.42000 8.551
32.44000 7.959
32.46000 7.004
32.48000 5.460
32.50000 -3.618
32.52000 0.714
32.54000 2.654
32.56000 -0.390
32.58000 4.287
32.60000 6.390
32.62000 1.922
32.64000 0.507
32.66000 5.407
32.68000 9.694
32.70000 6.560
32.72000 5.464
32.74000 4.935
32.76000 5.227
32.78000 1.910
32.80000 6.642
32.82000 11.299
32.84000 9.156
32.86000 8.643
32.88000 9.634
32.90000 6.570
32.92000 5.549
32.94000 5.105
32.96000 7.412
32.98000 4.642
33.00000 5.356
33.02000 6.320
33.04000 6.795
33.06000 4.326
33.08000 -2.856
33.10000 3.313
33.12000 2.167
33.14000 7.285
33.16000 5.171
33.18000 -2.010
33.20000 -2.742
33.22000 3.727
33.24000 6.114
33.26000 4.814
33.28000 0.729
33.30000 5.505
33.32000 8.445
33.34000 3.872
33.36000 0.696
33.38000 7.001
33.40000 6.992
33.42000 2.490
33.44000 4.987
33.46000 3.690
33.48000 5.588
33.50000 4.847
33.52000 3.211
33.54000 0.855
33.56000 2.718
33.58000 5.910
33.60000 4.130
33.62000 6.852
33.64000 11.984
33.66000 7.069
33.68000 3.324
33.70000 4.882
33.72000 5.827
33.74000 11.982
33.76000 3.565
33.78000 5.696
33.80000 2.107
33.82000 0.081
33.84000 5.177
33.86000 9.551
33.88000 7.970
33.90000 1.778
33.92000 4.595
33.94000 5.135
33.96000 6.165
33.98000 5.906
34.00000 4.114
34.02000 3.986
34.04000 6.672
34.06000 7.128
34.08000 -0.874
34.10000 -2.105
34.12000 2.873
34.14000 8.148
34.16000 6.684
34.18000 2.251
34.20000 0.974
34.22000 2.260
34.24000 -3.639
34.26000 0.915
34.28000 6.125
34.30000 4.994
34.32000 7.197
34.34000 5.515
34.36000 4.500
34.38000 6.547
34.40000 -2.495
34.42000 -1.409
34.44000 1.395
34.46000 2.443
34.48000 1.534
34.50000 2.025
34.52000 4.306
34.54000 3.944
34.56000 0.960
34.58000 -2.868
34.60000 -3.504
34.62000 0.751
34.64000 2.162
34.66000 6.899
34.68000 3.029
34.70000 -2.119
34.72000 1.972
34.74000 0.735
34.76000 -0.970
34.78000 8.748
34.80000 9.119
34.82000 2.268
34.84000 2.013
34.86000 2.412
34.88000 2.698
34.90000 -0.271
34.92000 -0.569
34.94000 -2.905
34.96000 0.910
34.98000 3.731
35.00000 0.194
35.02000 -1.265
35.04000 -0.062
35.06000 2.013
35.08000 3.201
35.10000 0.411
35.12000 7.252
35.14000 2.445
35.16000 1.948
35.18000 4.294
35.20000 -0.229
35.22000 -0.399
35.24000 -0.194
35.26000 -1.640
35.28000 -1.450
35.30000 -0.494
35.32000 3.729
35.34000 2.967
35.36000 -0.069
35.38000 -1.373
35.40000 -3.663
35.42000 3.366
35.44000 2.096
35.46000 -0.057
35.48000 -1.226
35.50000 0.996
35.52000 2.208
35.54000 7.422
35.56000 6.940
35.58000 4.480
35.60000 1.628
35.62000 -1.141
35.64000 -0.411
35.66000 3.612
35.68000 -1.586
35.70000 3.186
35.72000 8.580
35.74000 4.433
35.76000 -1.374
35.78000 1.191
35.80000 0.982
35.82000 0.333
35.84000 -1.131
35.86000 1.074
35.88000 -3.348
35.90000 0.157
35.92000 5.511
35.94000 1.076
35.96000 -2.940
35.98000 3.829
36.00000 3.706
36.02000 -1.295
36.04000 2.185
36.06000 4.112
36.08000 4.366
36.10000 3.370
36.12000 4.065
36.14000 4.032
36.16000 3.109
36.18000 5.375
36.20000 -0.243
36.22000 0.985
36.24000 3.059
36.26000 6.720
36.28000 5.747
36.30000 2.993
36.32000 -0.446
36.34000 -3.722
36.36000 0.481
36.38000 2.579
36.40000 1.340
36.42000 7.318
36.44000 5.984
36.46000 2.456
36.48000 2.691
36.50000 0.494
36.52000 -0.088
36.54000 4.055
36.56000 5.925
36.58000 2.956
36.60000 2.389
36.62000 5.062
36.64000 4.201
36.66000 7.590
36.68000 1.556
36.70000 3.584
36.72000 1.759
36.74000 1.613
36.76000 5.055
36.78000 1.303
36.80000 -2.364
36.82000 5.436
36.84000 9.080
36.86000 5.605
36.88000 2.552
36.90000 12.521
36.92000 8.967
36.94000 5.547
36.96000 6.566
36.98000 3.826
37.00000 6.342
37.02000 6.828
37.04000 9.267
37.06000 8.755
37.08000 14.103
37.10000 17.727
37.12000 10.814
37.14000 11.756
37.16000 8.118
37.18000 13.521
37.20000 13.268
37.22000 12.068
37.24000 8.877
37.26000 11.137
37.28000 13.878
37.30000 19.473
37.32000 16.349
37.34000 12.969
37.36000 13.808
37.38000 18.445
37.40000 26.530
37.42000 25.443
37.44000 17.420
37.46000 16.487
37.48000 20.879
37.50000 24.280
37.52000 25.030
37.54000 24.219
37.56000 23.029
37.58000 29.085
37.60000 27.142
37.62000 26.529
37.64000 29.123
37.66000 25.913
37.68000 28.408
37.70000 27.770
37.72000 31.432
37.74000 38.157
37.76000 37.337
37.78000 31.096
37.80000 31.761
37.82000 34.258
37.84000 34.859
37.86000 39.309
37.88000 37.576
37.90000 38.272
37.92000 38.535
37.94000 37.820
37.96000 44.992
37.98000 46.020
38.00000 43.924
38.02000 45.383
38.04000 43.955
38.06000 46.695
38.08000 56.731
38.10000 55.743
38.12000 62.124
38.14000 63.045
38.16000 62.505
38.18000 65.597
38.20000 66.854
38.22000 70.183
38.24000 76.144
38.26000 75.960
38.28000 74.002
38.30000 74.887
38.32000 82.400
38.34000 86.381
38.36000 92.077
38.38000 98.572
38.40000 104.728
38.42000 110.353
38.44000 110.047
38.46000 116.972
38.48000 128.266
38.50000 128.894
38.52000 133.437
38.54000 146.743
38.56000 163.392
38.58000 173.313
38.60000 176.135
38.62000 183.015
38.64000 192.869
38.66000 206.114
38.68000 217.492
38.70000 226.510
38.72000 233.342
38.74000 242.393
38.76000 245.362
38.78000 260.298
38.80000 279.464
38.82000 283.721
38.84000 297.063
38.86000 302.597
38.88000 311.679
38.90000 319.600
38.92000 315.137
38.94000 311.655
38.96000 315.383
38.98000 319.741
39.00000 313.864
39.02000 310.722
39.04000 301.822
39.06000 300.015
39.08000 290.390
39.10000 292.403
39.12000 280.266
39.14000 272.261
39.16000 261.265
39.18000 246.622
39.20000 238.838
39.22000 233.634
39.24000 220.077
39.26000 202.329
39.28000 187.792
39.30000 187.940
39.32000 177.746
39.34000 160.303
39.36000 145.277
39.38000 137.918
39.40000 131.921
39.42000 122.039
39.44000 114.375
39.46000 112.910
39.48000 105.953
39.50000 96.052
39.52000 93.561
39.54000 90.209
39.56000 88.639
39.58000 81.587
39.60000 73.360
39.62000 70.221
39.64000 72.027
39.66000 68.148
39.68000 59.568
39.70000 61.383
39.72000 66.920
39.74000 58.345
39.76000 53.172
39.78000 53.385
39.80000 47.608
39.82000 42.476
39.84000 40.770
39.86000 41.471
39.88000 42.476
39.90000 38.807
39.92000 39.371
39.94000 27.444
39.96000 31.346
39.98000 31.914
40.00000 28.963
40.02000 26.338
40.04000 29.125
40.06000 30.286
40.08000 26.775
40.10000 25.184
40.12000 26.396
40.14000 21.963
40.16000 22.832
40.18000 25.921
40.20000 26.316
40.22000 20.094
40.24000 17.518
40.26000 17.598
40.28000 16.684
40.30000 15.171
40.32000 17.003
40.34000 18.024
40.36000 13.791
40.38000 16.141
40.40000 18.263
40.42000 17.859
40.44000 14.321
40.46000 14.628
40.48000 13.444
40.50000 12.151
40.52000 12.401
40.54000 8.417
40.56000 9.338
40.58000 11.531
40.60000 9.111
40.62000 8.453
40.64000 7.351
40.66000 8.786
40.68000 9.905
40.70000 8.880
40.72000 9.379
40.74000 10.569
40.76000 9.691
40.78000 9.404
40.80000 9.685
40.82000 7.795
40.84000 3.031
40.86000 -1.934
40.88000 3.203
40.90000 4.475
40.92000 4.667
40.94000 4.658
40.96000 7.973
40.98000 7.020
41.00000 8.860
41.02000 10.844
41.04000 1.675
41.06000 -1.791
41.08000 -1.053
41.10000 -0.625
41.12000 3.884
41.14000 3.285
41.16000 2.422
41.18000 2.785
41.20000 5.698
41.22000 7.233
41.24000 6.440
41.26000 2.852
41.28000 -3.537
41.30000 0.660
41.32000 2.565
41.34000 1.949
41.36000 -0.549
41.38000 1.761
41.40000 1.889
41.42000 2.206
41.44000 -1.289
41.46000 -1.305
41.48000 -0.644
41.50000 5.217
41.52000 4.329
41.54000 0.999
41.56000 -1.509
41.58000 -1.117
41.60000 0.335
41.62000 -1.716
41.64000 -2.240
41.66000 2.502
41.68000 4.444
41.70000 4.438
41.72000 -1.535
41.74000 0.730
41.76000 1.713
41.78000 -2.528
41.80000 -2.435
41.82000 -3.468
41.84000 -0.850
41.86000 -1.224
41.88000 0.488
41.90000 -0.009
41.92000 2.385
41.94000 3.693
41.96000 5.672
41.98000 4.385
42.00000 1.152
42.02000 2.936
42.04000 1.927
42.06000 -3.192
42.08000 -0.791
42.10000 3.688
42.12000 3.077
42.14000 1.350
42.16000 -0.079
42.18000 1.580
42.20000 -0.653
42.22000 -1.531
42.24000 -0.914
42.26000 0.239
42.28000 2.341
42.30000 2.056
42.32000 -1.578
42.34000 -0.875
42.36000 -0.884
42.38000 2.157
42.40000 0.252
42.42000 1.024
42.44000 2.080
42.46000 2.323
42.48000 1.394
42.50000 4.156
42.52000 0.650
42.54000 -3.374
42.56000 2.020
42.58000 4.410
42.60000 4.454
42.62000 2.334
42.64000 0.033
42.66000 1.763
42.68000 1.213
42.70000 1.522
42.72000 1.809
42.74000 2.669
42.76000 1.430
42.78000 -0.157
42.80000 -0.081
42.82000 -2.654
42.84000 -1.839
42.86000 -2.832
42.88000 3.563
42.90000 2.003
42.92000 2.195
42.94000 -0.862
42.96000 -0.904
42.98000 2.962
43.00000 1.791
43.02000 2.434
43.04000 2.536
43.06000 4.696
43.08000 3.060
43.10000 -1.290
43.12000 -3.287
43.14000 -2.913
43.16000 -1.806
43.18000 2.376
43.20000 4.371
43.22000 2.900
43.24000 4.344
43.26000 4.656
43.28000 3.289
43.30000 4.260
43.32000 2.356
43.34000 0.507
43.36000 0.870
43.38000 -0.445
43.40000 2.864
43.42000 4.293
43.44000 4.170
43.46000 1.299
43.48000 2.317
43.50000 4.431
43.52000 5.306
43.54000 2.566
43.56000 0.316
43.58000 -1.269
43.60000 -1.293
43.62000 -0.143
43.64000 1.859
43.66000 3.884
43.68000 3.867
43.70000 1.995
43.72000 -0.145
43.74000 -1.792
43.76000 0.307
43.78000 5.058
43.80000 2.133
43.82000 0.790
43.84000 3.156
43.86000 2.206
43.88000 2.901
43.90000 7.056
43.92000 7.468
43.94000 4.238
43.96000 2.351
43.98000 2.489
44.00000 3.702
44.02000 -0.095
44.04000 0.609
44.06000 3.410
44.08000 3.188
44.10000 2.756
44.12000 7.114
44.14000 7.776
44.16000 8.686
44.18000 10.649
44.20000 9.094
44.22000 8.761
44.24000 11.323
44.26000 10.766
44.28000 8.617
44.30000 6.152
44.32000 8.987
44.34000 12.370
44.36000 12.796
44.38000 11.677
44.40000 14.238
44.42000 12.597
44.44000 10.280
44.46000 8.838
44.48000 12.037
44.50000 12.697
44.52000 14.676
44.54000 16.563
44.56000 16.223
44.58000 21.398
44.60000 25.204
44.62000 21.485
44.64000 22.120
44.66000 23.859
44.68000 26.505
44.70000 29.763
44.72000 26.185
44.74000 28.095
44.76000 29.778
44.78000 38.927
44.80000 41.352
44.82000 40.233
44.84000 37.187
44.86000 45.774
44.88000 49.400
44.90000 49.573
44.92000 53.478
44.94000 53.359
44.96000 57.642
44.98000 63.127
45.00000 63.680
45.02000 65.087
45.04000 69.126
45.06000 76.540
45.08000 78.977
45.10000 88.879
45.12000 88.851
45.14000 86.320
45.16000 90.549
45.18000 87.911
45.20000 93.445
45.22000 104.976
45.24000 106.643
45.26000 106.219
45.28000 106.132
45.30000 112.528
45.32000 112.088
45.34000 122.780
45.36000 123.053
45.38000 124.149
45.40000 124.372
45.42000 120.374
45.44000 123.831
45.46000 125.911
45.48000 116.800
45.50000 117.761
45.52000 124.429
45.54000 120.290
45.56000 114.966
45.58000 108.949
45.60000 108.685
45.62000 117.282
45.64000 113.024
45.66000 101.313
45.68000 96.563
45.70000 91.575
45.72000 86.095
45.74000 82.040
45.76000 76.118
45.78000 80.637
45.80000 81.269
45.82000 73.554
45.84000 72.945
45.86000 64.643
45.88000 61.495
45.90000 57.920
45.92000 53.403
45.94000 49.923
45.96000 49.968
45.98000 46.170
46.00000 43.166
46.02000 42.761
46.04000 40.935
46.06000 41.119
46.08000 37.942
46.10000 35.652
46.12000 30.462
46.14000 26.155
46.16000 23.555
46.18000 22.830
46.20000 23.709
46.22000 21.336
46.24000 19.229
46.26000 17.898
46.28000 19.634
46.30000 20.848
46.32000 19.704
46.34000 16.016
46.36000 8.837
46.38000 9.712
46.40000 8.581
46.42000 10.625
46.44000 7.545
46.46000 9.217
46.48000 6.558
46.50000 2.781
46.52000 5.612
46.54000 9.609
46.56000 7.805
46.58000 4.976
46.60000 6.307
46.62000 6.579
46.64000 6.987
46.66000 3.269
46.68000 2.665
46.70000 8.630
46.72000 7.360
46.74000 0.215
46.76000 6.229
46.78000 5.367
46.80000 1.106
46.82000 0.104
46.84000 1.372
46.86000 3.218
46.88000 1.141
46.90000 -1.311
46.92000 -1.763
46.94000 0.525
46.96000 2.409
46.98000 1.931
47.00000 -2.836
47.02000 -0.394
47.04000 2.864
47.06000 3.889
47.08000 -0.990
47.10000 0.953
47.12000 0.875
47.14000 -2.035
47.16000 -0.383
47.18000 3.747
47.20000 3.006
47.22000 0.255
47.24000 -2.807
47.26000 -1.371
47.28000 -1.819
47.30000 -2.899
47.32000 -0.617
47.34000 1.492
47.36000 -0.727
47.38000 -0.765
47.40000 0.008
47.42000 1.839
47.44000 -1.132
47.46000 -0.244
47.48000 0.333
47.50000 2.520
47.52000 1.819
47.54000 0.652
47.56000 -0.420
47.58000 1.566
47.60000 0.870
47.62000 -0.584
47.64000 -2.198
47.66000 1.291
47.68000 6.518
47.70000 9.715
47.72000 3.381
47.74000 0.506
47.76000 -1.754
47.78000 -0.424
47.80000 4.216
47.82000 2.969
47.84000 6.301
47.86000 4.049
47.88000 4.395
47.90000 1.472
47.92000 1.040
47.94000 1.882
47.96000 6.980
47.98000 7.556
48.00000 2.098
48.02000 -0.376
48.04000 0.123
48.06000 6.091
48.08000 3.621
48.10000 0.618
48.12000 -0.016
48.14000 4.489
48.16000 4.596
48.18000 0.127
48.20000 0.278
48.22000 4.256
48.24000 2.084
48.26000 -2.785
48.28000 -1.653
48.30000 4.853
48.32000 1.552
48.34000 2.622
48.36000 2.396
48.38000 1.844
48.40000 -2.198
48.42000 -2.455
48.44000 4.310
48.46000 -0.852
48.48000 0.215
48.50000 6.539
48.52000 3.459
48.54000 -1.960
48.56000 -2.621
48.58000 -0.160
48.60000 6.248
48.62000 7.628
48.64000 7.498
48.66000 1.034
48.68000 -1.877
48.70000 3.673
48.72000 4.647
48.74000 2.733
48.76000 2.857
48.78000 7.003
48.80000 1.216
48.82000 -2.540
48.84000 -0.190
48.86000 1.881
48.88000 2.509
48.90000 -1.913
48.92000 -2.497
48.94000 3.558
48.96000 2.567
48.98000 7.317
49.00000 6.822
49.02000 1.540
49.04000 2.798
49.06000 1.208
49.08000 0.486
49.10000 4.013
49.12000 6.768
49.14000 1.876
49.16000 3.451
49.18000 2.347
49.20000 2.693
49.22000 5.183
49.24000 4.596
49.26000 2.352
49.28000 3.836
49.30000 3.450
49.32000 2.382
49.34000 1.150
49.36000 3.646
49.38000 0.666
49.40000 5.426
49.42000 1.883
49.44000 -2.687
49.46000 1.478
49.48000 2.576
49.50000 0.896
49.52000 4.679
49.54000 4.593
49.56000 1.205
49.58000 0.891
49.60000 2.336
49.62000 5.148
49.64000 8.617
49.66000 3.929
49.68000 5.623
49.70000 1.903
49.72000 1.205
49.74000 0.225
49.76000 1.959
49.78000 4.867
49.80000 2.878
49.82000 0.909
49.84000 0.628
49.86000 3.231
49.88000 1.648
49.90000 3.682
49.92000 -1.470
49.94000 3.668
49.96000 6.352
49.98000 1.363
50.00000 4.921
50.02000 2.750
50.04000 3.218
50.06000 6.776
50.08000 2.610
50.10000 -1.241
50.12000 2.212
50.14000 2.382
50.16000 3.487
50.18000 1.749
50.20000 -0.935
50.22000 1.327
50.24000 0.590
50.26000 -0.524
50.28000 -2.247
50.30000 0.559
50.32000 0.710
50.34000 2.120
50.36000 -1.253
50.38000 -2.367
50.40000 -1.361
50.42000 1.936
50.44000 -0.843
50.46000 2.393
50.48000 4.632
50.50000 2.577
50.52000 9.808
50.54000 8.968
50.56000 1.181
50.58000 1.042
50.60000 1.936
50.62000 3.957
50.64000 6.283
50.66000 2.054
50.68000 2.076
50.70000 3.685
50.72000 2.657
50.74000 2.283
50.76000 0.765
50.78000 1.077
50.80000 -0.415
50.82000 -2.027
50.84000 -1.908
50.86000 0.541
50.88000 1.637
50.90000 2.221
50.92000 0.152
50.94000 -0.645
50.96000 1.247
50.98000 1.779
51.00000 0.965
51.02000 0.936
51.04000 1.827
51.06000 5.243
51.08000 6.934
51.10000 2.951
51.12000 4.418
51.14000 0.588
51.16000 1.407
51.18000 0.076
51.20000 -2.256
51.22000 0.215
51.24000 2.542
51.26000 5.661
51.28000 8.120
51.30000 9.881
51.32000 6.180
51.34000 2.809
51.36000 0.501
51.38000 1.201
51.40000 -2.654
51.42000 -1.583
51.44000 1.490
51.46000 2.851
51.48000 1.788
51.50000 4.005
51.52000 4.759
51.54000 1.320
51.56000 1.047
51.58000 3.323
51.60000 3.430
51.62000 4.320
51.64000 3.181
51.66000 1.819
51.68000 2.828
51.70000 3.527
51.72000 3.253
51.74000 0.899
51.76000 0.073
51.78000 2.791
51.80000 4.177
51.82000 1.698
51.84000 -0.116
51.86000 -1.396
51.88000 0.604
51.90000 2.022
51.92000 2.053
51.94000 -0.301
51.96000 0.995
51.98000 -1.150
52.00000 0.241
52.02000 -0.920
52.04000 -1.093
52.06000 -1.972
52.08000 3.750
52.10000 5.421
52.12000 5.001
52.14000 3.550
52.16000 3.363
52.18000 3.661
52.20000 1.722
52.22000 0.809
52.24000 5.732
52.26000 7.539
52.28000 2.509
52.30000 1.116
52.32000 3.115
52.34000 5.217
52.36000 3.523
52.38000 3.612
52.40000 1.103
52.42000 -0.590
52.44000 0.964
52.46000 2.617
52.48000 2.513
52.50000 4.151
52.52000 3.930
52.54000 3.246
52.56000 4.792
52.58000 4.245
52.60000 0.566
52.62000 3.278
52.64000 -0.451
52.66000 3.448
52.68000 4.304
52.70000 4.525
52.72000 5.292
52.74000 4.363
52.76000 2.996
52.78000 3.338
52.80000 1.330
52.82000 4.457
52.84000 3.202
52.86000 1.911
52.88000 1.526
52.90000 2.194
52.92000 -2.602
52.94000 -0.398
52.96000 2.221
52.98000 5.593
53.00000 4.971
53.02000 3.112
53.04000 2.154
53.06000 -1.333
53.08000 -0.288
53.10000 0.754
53.12000 3.494
53.14000 3.516
53.16000 2.028
53.18000 3.038
53.20000 5.499
53.22000 4.620
53.24000 -0.349
53.26000 3.919
53.28000 0.875
53.30000 -1.965
53.32000 0.444
53.34000 -0.326
53.36000 4.632
53.38000 3.480
53.40000 2.496
53.42000 1.377
53.44000 1.273
53.46000 4.212
53.48000 5.827
53.50000 -0.098
53.52000 3.351
53.54000 4.860
53.56000 2.405
53.58000 1.556
53.60000 0.256
53.62000 0.521
53.64000 6.018
53.66000 3.592
53.68000 2.330
53.70000 5.231
53.72000 3.901
53.74000 6.875
53.76000 7.965
53.78000 6.436
53.80000 4.775
53.82000 6.167
53.84000 2.623
53.86000 -0.154
53.88000 2.587
53.90000 4.343
53.92000 1.165
53.94000 1.904
53.96000 4.785
53.98000 6.345
54.00000 4.148
54.02000 -1.253
54.04000 1.619
54.06000 -2.554
54.08000 2.839
54.10000 5.139
54.12000 1.600
54.14000 3.987
54.16000 5.679
54.18000 9.969
54.20000 6.471
54.22000 3.228
54.24000 -2.548
54.26000 -0.109
54.28000 5.599
54.30000 1.147
54.32000 1.434
54.34000 2.483
54.36000 3.444
54.38000 10.009
54.40000 8.374
54.42000 6.361
54.44000 3.121
54.46000 1.453
54.48000 1.718
54.50000 0.164
54.52000 -0.101
54.54000 -0.563
54.56000 3.065
54.58000 4.530
54.60000 6.699
54.62000 4.631
54.64000 5.512
54.66000 8.910
54.68000 8.027
54.70000 4.989
54.72000 5.500
54.74000 7.026
54.76000 6.189
54.78000 6.000
54.80000 3.882
54.82000 4.216
54.84000 1.240
54.86000 5.367
54.88000 2.627
54.90000 3.989
54.92000 5.144
54.94000 3.933
54.96000 2.966
54.98000 5.599
55.00000 1.230
55.02000 2.354
55.04000 1.917
55.06000 2.252
55.08000 3.271
55.10000 2.384
55.12000 4.145
55.14000 1.214
55.16000 4.371
55.18000 -0.001
55.20000 0.028
55.22000 -0.490
55.24000 0.197
55.26000 3.830
55.28000 5.206
55.30000 6.497
55.32000 4.883
55.34000 -2.543
55.36000 0.632
55.38000 3.107
55.40000 2.423
55.42000 2.460
55.44000 1.926
55.46000 0.998
55.48000 -0.915
55.50000 -1.247
55.52000 -1.665
55.54000 3.867
55.56000 7.410
55.58000 5.189
55.60000 3.464
55.62000 5.645
55.64000 2.193
55.66000 -1.593
55.68000 1.014
55.70000 3.803
55.72000 4.466
55.74000 -0.490
55.76000 -0.136
55.78000 -2.083
55.80000 -0.746
55.82000 -0.017
55.84000 2.919
55.86000 6.970
55.88000 3.373
55.90000 3.521
55.92000 0.115
55.94000 2.481
55.96000 1.817
55.98000 2.592
56.00000 1.759
56.02000 1.298
56.04000 0.254
56.06000 3.508
56.08000 3.338
56.10000 5.880
56.12000 3.857
56.14000 -2.244
56.16000 -0.779
56.18000 3.739
56.20000 4.851
56.22000 2.928
56.24000 -0.095
56.26000 -0.385
56.28000 1.604
56.30000 5.077
56.32000 4.326
56.34000 3.599
56.36000 5.242
56.38000 -0.886
56.40000 -1.066
56.42000 -1.667
56.44000 -0.978
56.46000 2.620
56.48000 3.348
56.50000 1.261
56.52000 1.779
56.54000 1.858
56.56000 2.585
56.58000 5.571
56.60000 4.254
56.62000 1.884
56.64000 1.599
56.66000 0.055
56.68000 2.137
56.70000 0.623
56.72000 -0.502
56.74000 0.633
56.76000 0.797
56.78000 1.568
56.80000 -0.180
56.82000 0.440
56.84000 0.439
56.86000 1.717
56.88000 1.101
56.90000 0.483
56.92000 -1.748
56.94000 0.413
56.96000 1.203
56.98000 -2.525
57.00000 -2.363
57.02000 0.675
57.04000 1.294
57.06000 1.178
57.08000 5.265
57.10000 6.613
57.12000 1.641
57.14000 -0.272
57.16000 0.966
57.18000 -2.387
57.20000 -0.263
57.22000 2.687
57.24000 2.818
57.26000 3.779
57.28000 3.743
57.30000 6.643
57.32000 4.446
57.34000 2.608
57.36000 1.373
57.38000 1.812
57.40000 -0.980
57.42000 -2.508
57.44000 4.278
57.46000 4.155
57.48000 2.057
57.50000 1.029
57.52000 4.063
57.54000 2.767
57.56000 1.160
57.58000 0.051
57.60000 1.744
57.62000 1.423
57.64000 2.615
57.66000 1.420
57.68000 3.155
57.70000 -0.868
57.72000 1.356
57.74000 -1.590
57.76000 0.842
57.78000 -0.861
57.80000 0.104
57.82000 -1.886
57.84000 0.059
57.86000 1.537
57.88000 1.578
57.90000 -1.751
57.92000 2.637
57.94000 0.826
57.96000 0.745
57.98000 -0.787
58.00000 3.040
58.02000 -1.752
58.04000 -2.491
58.06000 2.202
58.08000 -1.099
58.10000 -1.569
58.12000 -1.319
58.14000 1.456
58.16000 3.912
58.18000 2.717
58.20000 3.498
58.22000 -0.108
58.24000 0.275
58.26000 -0.177
58.28000 -1.448
58.30000 2.742
58.32000 1.189
58.34000 -1.408
58.36000 -1.482
58.38000 1.274
58.40000 5.637
58.42000 6.380
58.44000 2.941
58.46000 -1.146
58.48000 -1.018
58.50000 3.900
58.52000 3.429
58.54000 1.110
58.56000 -1.671
58.58000 0.096
58.60000 -1.882
58.62000 2.141
58.64000 5.263
58.66000 5.663
58.68000 2.475
58.70000 -2.452
58.72000 -0.150
58.74000 2.525
58.76000 0.771
58.78000 1.994
58.80000 1.053
58.82000 0.944
58.84000 -1.636
58.86000 -0.431
58.88000 4.871
58.90000 4.049
58.92000 1.786
58.94000 2.390
58.96000 5.918
58.98000 5.338
59.00000 3.074
59.02000 4.007
59.04000 2.330
59.06000 3.810
59.08000 2.767
59.10000 6.030
59.12000 1.799
59.14000 2.179
59.16000 5.509
59.18000 8.973
59.20000 7.355
59.22000 6.562
59.24000 4.372
59.26000 -2.410
59.28000 -1.034
59.30000 1.367
59.32000 5.342
59.34000 7.357
59.36000 1.283
59.38000 2.278
59.40000 4.646
59.42000 -0.839
59.44000 -0.099
59.46000 2.461
59.48000 1.400
59.50000 0.177
59.52000 -0.862
59.54000 0.070
59.56000 -1.651
59.58000 0.805
59.60000 -0.843
59.62000 3.222
59.64000 5.837
59.66000 4.570
59.68000 3.134
59.70000 0.061
59.72000 -1.909
59.74000 1.320
59.76000 4.457
59.78000 3.748
59.80000 3.609
59.82000 2.212
59.84000 1.062
59.86000 0.640
59.88000 2.373
59.90000 5.222
59.92000 6.559
59.94000 5.146
59.96000 3.102
59.98000 -0.771
60.00000 1.773
60.02000 5.626
60.04000 1.026
60.06000 1.750
60.08000 0.017
60.10000 1.217
60.12000 -0.167
60.14000 -1.005
60.16000 -1.706
60.18000 -1.237
60.20000 5.048
60.22000 7.005
60.24000 2.848
60.26000 6.333
60.28000 6.449
60.30000 4.995
60.32000 3.637
60.34000 -0.258
60.36000 -0.511
60.38000 3.810
60.40000 4.572
60.42000 4.106
60.44000 3.260
60.46000 -0.629
60.48000 -0.226
60.50000 3.578
60.52000 5.037
60.54000 3.285
60.56000 0.042
60.58000 1.528
60.60000 0.514
60.62000 -1.134
60.64000 -0.580
60.66000 1.284
60.68000 -0.023
60.70000 0.224
60.72000 -1.941
60.74000 -1.279
60.76000 0.483
60.78000 1.448
60.80000 1.869
60.82000 -1.296
60.84000 0.700
60.86000 4.417
60.88000 4.146
60.90000 1.537
60.92000 -2.027
60.94000 -1.786
60.96000 -2.250
60.98000 -0.861
61.00000 -1.697
61.02000 -0.870
61.04000 0.527
61.06000 -0.318
61.08000 1.751
61.10000 4.497
61.12000 4.648
61.14000 2.197
61.16000 2.164
61.18000 3.300
61.20000 3.676
61.22000 1.139
61.24000 3.040
61.26000 2.478
61.28000 -0.583
61.30000 0.900
61.32000 4.404
61.34000 1.591
61.36000 4.097
61.38000 3.433
61.40000 1.896
61.42000 1.395
61.44000 -2.359
61.46000 -0.448
61.48000 1.252
61.50000 0.670
61.52000 0.158
61.54000 0.184
61.56000 -2.348
61.58000 -1.559
61.60000 -1.326
61.62000 1.502
61.64000 1.953
61.66000 2.667
61.68000 1.458
61.70000 3.341
61.72000 2.435
61.74000 3.085
61.76000 3.545
61.78000 5.232
61.80000 4.068
61.82000 2.649
61.84000 0.302
61.86000 1.186
61.88000 0.592
61.90000 0.362
61.92000 4.100
61.94000 4.329
61.96000 1.487
61.98000 0.055
62.00000 6.220
62.02000 7.379
62.04000 0.736
62.06000 1.653
62.08000 0.640
62.10000 3.196
62.12000 2.662
62.14000 3.036
62.16000 0.037
62.18000 -2.339
62.20000 -0.792
62.22000 1.441
62.24000 5.272
62.26000 6.656
62.28000 4.910
62.30000 0.918
62.32000 -0.759
62.34000 2.584
62.36000 0.071
62.38000 -1.999
62.40000 -1.221
62.42000 -2.165
62.44000 -0.871
62.46000 0.239
62.48000 1.567
62.50000 1.499
62.52000 2.223
62.54000 0.303
62.56000 -2.102
62.58000 0.058
62.60000 3.100
62.62000 3.129
62.64000 2.893
62.66000 3.237
62.68000 1.051
62.70000 -1.363
62.72000 2.045
62.74000 1.167
62.76000 2.485
62.78000 5.225
62.80000 2.505
62.82000 2.965
62.84000 0.234
62.86000 1.011
62.88000 -0.145
62.90000 -1.176
62.92000 2.232
62.94000 3.241
62.96000 1.117
62.98000 -1.152
63.00000 0.891
63.02000 0.819
63.04000 -1.132
63.06000 -1.558
63.08000 0.307
63.10000 3.674
63.12000 4.104
63.14000 2.109
63.16000 0.760
63.18000 -0.217
63.20000 -1.024
63.22000 3.462
63.24000 3.234
63.26000 -2.330
63.28000 -1.177
63.30000 -0.596
63.32000 2.577
63.34000 0.273
63.36000 -0.974
63.38000 1.675
63.40000 3.148
63.42000 4.263
63.44000 3.014
63.46000 3.799
63.48000 -0.325
63.50000 -2.320
63.52000 -0.605
63.54000 2.988
63.56000 0.968
63.58000 -0.674
63.60000 -1.835
63.62000 2.693
63.64000 5.417
63.66000 4.211
63.68000 3.527
63.70000 2.686
63.72000 -0.107
63.74000 1.017
63.76000 4.761
63.78000 4.492
63.80000 2.366
63.82000 -1.772
63.84000 -1.374
63.86000 -0.122
63.88000 -0.359
63.90000 -0.062
63.92000 -1.498
63.94000 1.058
63.96000 2.015
63.98000 1.426
64.00000 3.564
64.02000 -0.552
64.04000 -0.076
64.06000 0.228
64.08000 1.295
64.10000 0.942
64.12000 1.274
64.14000 -2.197
64.16000 -0.090
64.18000 -1.010
64.20000 -1.848
64.22000 -1.035
64.24000 -0.093
64.26000 1.307
64.28000 0.077
64.30000 2.556
64.32000 3.351
64.34000 0.939
64.36000 1.059
64.38000 1.115
64.40000 -0.436
64.42000 -2.330
64.44000 0.547
64.46000 4.959
64.48000 5.521
64.50000 5.109
64.52000 4.072
64.54000 2.928
64.56000 0.308
64.58000 -1.396
64.60000 0.944
64.62000 1.611
64.64000 0.768
64.66000 1.037
64.68000 3.894
64.70000 3.368
64.72000 -1.939
64.74000 0.831
64.76000 4.950
64.78000 0.392
64.80000 -1.127
64.82000 -1.808
64.84000 -0.801
64.86000 -1.943
64.88000 0.699
64.90000 -1.114
64.92000 -2.141
64.94000 -2.207
64.96000 2.367
64.98000 3.820
65.00000 0.575
65.02000 0.513
65.04000 -0.326
65.06000 -1.090
65.08000 -1.547
65.10000 0.811
65.12000 -0.682
65.14000 1.372
65.16000 2.235
65.18000 1.877
65.20000 2.124
65.22000 2.008
65.24000 3.586
65.26000 2.624
65.28000 2.063
65.30000 -0.531
65.32000 -2.357
65.34000 -0.300
65.36000 1.657
65.38000 2.789
65.40000 0.494
65.42000 2.045
65.44000 3.850
65.46000 1.789
65.48000 1.457
65.50000 2.498
65.52000 2.803
65.54000 3.340
65.56000 3.226
65.58000 6.160
65.60000 3.989
65.62000 3.358
65.64000 3.554
65.66000 6.433
65.68000 6.932
65.70000 5.787
65.72000 4.892
65.74000 3.935
65.76000 4.895
65.78000 5.319
65.80000 2.471
65.82000 4.733
65.84000 2.539
65.86000 2.730
65.88000 3.314
65.90000 5.852
65.92000 8.365
65.94000 5.925
65.96000 7.316
65.98000 7.691
66.00000 9.943
66.02000 8.997
66.04000 9.609
66.06000 5.407
66.08000 2.773
66.10000 5.715
66.12000 8.066
66.14000 8.189
66.16000 6.061
66.18000 9.335
66.20000 9.853
66.22000 5.108
66.24000 4.116
66.26000 7.224
66.28000 8.539
66.30000 7.688
66.32000 5.827
66.34000 4.252
66.36000 6.603
66.38000 8.353
66.40000 6.492
66.42000 5.786
66.44000 7.647
66.46000 7.768
66.48000 6.573
66.50000 5.219
66.52000 6.198
66.54000 5.029
66.56000 4.002
66.58000 1.842
66.60000 3.226
66.62000 2.926
66.64000 2.774
66.66000 2.512
66.68000 1.599
66.70000 3.462
66.72000 4.151
66.74000 3.731
66.76000 -0.689
66.78000 -2.305
66.80000 0.084
66.82000 0.011
66.84000 1.174
66.86000 2.563
66.88000 0.384
66.90000 -0.483
66.92000 -1.213
66.94000 -0.632
66.96000 0.679
66.98000 2.332
67.00000 1.156
67.02000 2.023
67.04000 0.551
67.06000 0.118
67.08000 0.791
67.10000 3.433
67.12000 4.872
67.14000 -0.079
67.16000 -1.588
67.18000 -2.099
67.20000 3.731
67.22000 2.292
67.24000 0.671
67.26000 -0.335
67.28000 3.511
67.30000 2.808
67.32000 1.429
67.34000 2.337
67.36000 1.328
67.38000 3.126
67.40000 1.451
67.42000 -0.236
67.44000 -2.256
67.46000 -0.127
67.48000 1.822
67.50000 1.334
67.52000 0.487
67.54000 1.050
67.56000 2.908
67.58000 0.051
67.60000 2.135
67.62000 0.156
67.64000 -0.551
67.66000 -2.234
67.68000 1.448
67.70000 1.849
67.72000 3.115
67.74000 3.007
67.76000 4.151
67.78000 6.054
67.80000 0.739
67.82000 1.094
67.84000 3.436
67.86000 3.600
67.88000 2.988
67.90000 1.277
67.92000 3.221
67.94000 2.264
67.96000 3.927
67.98000 2.079
68.00000 2.915
68.02000 0.194
68.04000 -0.635
68.06000 -1.279
68.08000 1.373
68.10000 0.458
68.12000 0.517
68.14000 1.099
68.16000 -0.884
68.18000 0.157
68.20000 1.058
68.22000 -0.965
68.24000 -2.195
68.26000 -0.056
68.28000 -0.294
68.30000 3.560
68.32000 8.240
68.34000 3.766
68.36000 1.654
68.38000 0.536
68.40000 1.383
68.42000 1.145
68.44000 0.703
68.46000 1.234
68.48000 2.304
68.50000 3.821
68.52000 2.584
68.54000 1.918
68.56000 2.206
68.58000 4.430
68.60000 3.200
68.62000 1.962
68.64000 -0.217
68.66000 0.001
68.68000 2.280
68.70000 2.889
68.72000 3.930
68.74000 3.456
68.76000 -0.939
68.78000 0.945
68.80000 1.887
68.82000 2.924
68.84000 -0.802
68.86000 0.767
68.88000 3.068
68.90000 1.094
68.92000 2.007
68.94000 2.139
68.96000 0.101
68.98000 1.402
69.00000 0.515
69.02000 3.689
69.04000 2.859
69.06000 3.947
69.08000 2.426
69.10000 2.727
69.12000 -1.293
69.14000 -1.820
69.16000 0.521
69.18000 1.346
69.20000 1.740
69.22000 0.326
69.24000 2.971
69.26000 3.690
69.28000 3.639
69.30000 3.051
69.32000 -0.891
69.34000 -2.156
69.36000 0.355
69.38000 -0.158
69.40000 1.716
69.42000 2.604
69.44000 5.251
69.46000 4.012
69.48000 1.777
69.50000 -1.834
69.52000 -0.546
69.54000 0.381
69.56000 1.197
69.58000 3.232
69.60000 2.898
69.62000 -0.323
69.64000 0.135
69.66000 3.694
69.68000 0.592
69.70000 -0.137
69.72000 1.428
69.74000 2.051
69.76000 0.522
69.78000 2.613
69.80000 3.582
69.82000 3.050
69.84000 2.838
69.86000 1.688
69.88000 1.121
69.90000 2.930
69.92000 1.855
69.94000 1.483
69.96000 2.152
69.98000 0.438
70.00000 -1.363
70.02000 0.214
70.04000 0.433
70.06000 2.555
70.08000 1.516
70.10000 -0.502
70.12000 0.982
70.14000 2.098
70.16000 1.591
70.18000 1.166
70.20000 2.628
70.22000 2.324
70.24000 0.740
70.26000 0.764
70.28000 -2.145
70.30000 -0.733
70.32000 -1.284
70.34000 -1.304
70.36000 0.000
70.38000 2.634
70.40000 0.623
70.42000 -1.316
70.44000 -1.112
70.46000 -0.180
70.48000 -1.835
70.50000 -0.473
70.52000 -1.379
70.54000 -2.054
70.56000 0.179
70.58000 0.162
70.60000 -0.058
70.62000 -0.503
70.64000 0.227
70.66000 1.363
70.68000 3.080
70.70000 1.192
70.72000 -0.478
70.74000 0.308
70.76000 0.465
70.78000 -1.075
70.80000 -0.226
70.82000 -0.034
70.84000 0.369
70.86000 -1.335
70.88000 1.168
70.90000 0.632
70.92000 1.207
70.94000 0.650
70.96000 -0.983
70.98000 -0.058
71.00000 3.085
71.02000 -0.836
71.04000 -0.606
71.06000 1.209
71.08000 1.988
71.10000 2.317
71.12000 3.431
71.14000 0.183
71.16000 0.836
71.18000 1.671
71.20000 0.480
71.22000 -2.097
71.24000 -2.096
71.26000 2.500
71.28000 5.802
71.30000 3.892
71.32000 3.294
71.34000 1.496
71.36000 0.109
71.38000 2.712
71.40000 3.442
71.42000 1.330
71.44000 -0.501
71.46000 -1.364
71.48000 -2.086
71.50000 1.312
71.52000 3.165
71.54000 0.013
71.56000 0.795
71.58000 3.305
71.60000 3.381
71.62000 2.766
71.64000 -0.441
71.66000 1.767
71.68000 3.446
71.70000 3.633
71.72000 3.399
71.74000 2.077
71.76000 1.913
71.78000 0.372
71.80000 1.403
71.82000 2.331
71.84000 2.594
71.86000 -0.999
71.88000 0.495
71.90000 0.001
71.92000 -1.669
71.94000 -1.648
71.96000 -0.625
71.98000 0.579
72.00000 -0.179
72.02000 0.689
72.04000 3.736
72.06000 1.930
72.08000 0.568
72.10000 2.087
72.12000 2.778
72.14000 3.175
72.16000 -0.858
72.18000 -1.998
72.20000 2.295
72.22000 5.216
72.24000 1.515
72.26000 1.836
72.28000 3.961
72.30000 2.468
72.32000 1.777
72.34000 0.662
72.36000 -0.938
72.38000 -2.046
72.40000 0.718
72.42000 0.549
72.44000 0.738
72.46000 3.221
72.48000 3.678
72.50000 3.628
72.52000 0.226
72.54000 -1.353
72.56000 0.753
72.58000 0.489
72.60000 1.078
72.62000 2.294
72.64000 0.377
72.66000 1.464
72.68000 -0.225
72.70000 1.326
72.72000 3.381
72.74000 1.215
72.76000 -0.857
72.78000 -1.769
72.80000 -1.592
72.82000 0.286
72.84000 2.680
72.86000 4.799
72.88000 2.718
72.90000 4.580
72.92000 4.717
72.94000 2.836
72.96000 0.356
72.98000 -0.002
73.00000 1.461
73.02000 -1.363
73.04000 2.244
73.06000 3.202
73.08000 1.201
73.10000 -0.862
73.12000 0.894
73.14000 1.876
73.16000 0.371
73.18000 1.816
73.20000 1.903
73.22000 -0.241
73.24000 0.552
73.26000 -0.914
73.28000 1.084
73.30000 3.716
73.32000 3.706
73.34000 4.668
73.36000 5.239
73.38000 4.243
73.40000 3.513
73.42000 1.696
73.44000 2.860
73.46000 -0.144
73.48000 -0.222
73.50000 0.698
73.52000 4.127
73.54000 1.275
73.56000 -1.728
73.58000 -1.614
73.60000 -2.045
73.62000 0.556
73.64000 4.580
73.66000 3.456
73.68000 2.547
73.70000 0.613
73.72000 1.001
73.74000 3.504
73.76000 6.503
73.78000 5.183
73.80000 1.214
73.82000 1.582
73.84000 4.684
73.86000 0.752
73.88000 4.832
73.90000 2.986
73.92000 0.887
73.94000 1.551
73.96000 4.567
73.98000 5.939
74.00000 3.619
74.02000 4.299
74.04000 1.211
74.06000 -1.039
74.08000 1.371
74.10000 4.106
74.12000 1.294
74.14000 -0.073
74.16000 -2.032
74.18000 0.157
74.20000 0.852
74.22000 -2.032
74.24000 -0.169
74.26000 -0.821
74.28000 3.428
74.30000 4.936
74.32000 2.622
74.34000 0.464
74.36000 2.143
74.38000 2.581
74.40000 1.562
74.42000 0.254
74.44000 5.466
74.46000 6.633
74.48000 5.085
74.50000 7.913
74.52000 5.271
74.54000 4.387
74.56000 1.653
74.58000 -0.485
74.60000 1.851
74.62000 2.396
74.64000 4.897
74.66000 4.720
74.68000 2.149
74.70000 1.326
74.72000 4.196
74.74000 6.336
74.76000 4.565
74.78000 0.461
74.80000 1.475
74.82000 2.994
74.84000 1.401
74.86000 1.950
74.88000 5.706
74.90000 3.216
74.92000 3.577
74.94000 6.223
74.96000 3.498
74.98000 1.615
75.00000 1.007
75.02000 4.173
75.04000 3.371
75.06000 -0.279
75.08000 3.091
75.10000 4.055
75.12000 1.490
75.14000 -2.046
75.16000 3.157
75.18000 2.419
75.20000 -1.555
75.22000 -0.118
75.24000 3.903
75.26000 3.435
75.28000 3.233
75.30000 0.039
75.32000 -1.263
75.34000 -0.199
75.36000 1.078
75.38000 3.438
75.40000 2.696
75.42000 1.745
75.44000 -2.065
75.46000 -0.889
75.48000 -0.041
75.50000 -0.030
75.52000 -1.202
75.54000 1.566
75.56000 4.842
75.58000 3.174
75.60000 1.361
75.62000 0.380
75.64000 0.025
75.66000 -0.163
75.68000 0.159
75.70000 -0.012
75.72000 -1.292
75.74000 2.198
75.76000 2.102
75.78000 -0.868
75.80000 1.785
75.82000 1.041
75.84000 0.177
75.86000 4.176
75.88000 2.976
75.90000 2.024
75.92000 1.639
75.94000 2.528
75.96000 2.407
75.98000 0.667
76.00000 -0.842
76.02000 -2.089
76.04000 -0.496
76.06000 2.151
76.08000 1.716
76.10000 0.452
76.12000 2.107
76.14000 3.863
76.16000 0.286
76.18000 0.673
76.20000 0.474
76.22000 3.734
76.24000 2.054
76.26000 1.177
76.28000 3.571
76.30000 2.301
76.32000 3.413
76.34000 2.108
76.36000 3.498
76.38000 0.980
76.40000 0.504
76.42000 3.259
76.44000 0.065
76.46000 0.788
76.48000 0.017
76.50000 1.026
76.52000 3.844
76.54000 1.202
76.56000 0.984
76.58000 -0.624
76.60000 1.547
76.62000 2.971
76.64000 4.067
76.66000 2.379
76.68000 -0.763
76.70000 0.195
76.72000 1.386
76.74000 -0.199
76.76000 -1.092
76.78000 1.707
76.80000 4.753
76.82000 2.236
76.84000 1.429
76.86000 2.624
76.88000 0.787
76.90000 2.760
76.92000 4.096
76.94000 1.328
76.96000 2.083
76.98000 3.483
77.00000 4.158
77.02000 4.922
77.04000 4.346
77.06000 1.404
77.08000 2.017
77.10000 0.567
77.12000 0.329
77.14000 2.409
77.16000 3.468
77.18000 3.966
77.20000 4.602
77.22000 2.215
77.24000 -1.310
77.26000 0.797
77.28000 2.706
77.30000 2.555
77.32000 4.076
77.34000 4.375
77.36000 5.358
77.38000 2.861
77.40000 4.000
77.42000 6.029
77.44000 7.117
77.46000 5.221
77.48000 1.831
77.50000 2.317
77.52000 4.490
77.54000 3.581
77.56000 2.911
77.58000 0.819
77.60000 1.409
77.62000 1.121
77.64000 -2.079
77.66000 1.286
77.68000 5.684
77.70000 7.198
77.72000 4.098
77.74000 6.677
77.76000 4.545
77.78000 3.065
77.80000 3.884
77.82000 5.853
77.84000 9.149
77.86000 5.038
77.88000 5.606
77.90000 5.600
77.92000 4.011
77.94000 4.089
77.96000 2.198
77.98000 3.807
78.00000 2.388
78.02000 3.542
78.04000 4.447
78.06000 4.341
78.08000 2.347
78.10000 1.035
78.12000 0.513
78.14000 2.911
78.16000 5.236
78.18000 4.239
78.20000 5.852
78.22000 2.559
78.24000 4.782
78.26000 4.722
78.28000 5.143
78.30000 6.973
78.32000 6.211
78.34000 5.319
78.36000 2.653
78.38000 3.270
78.40000 1.690
78.42000 1.315
78.44000 4.693
78.46000 3.327
78.48000 8.872
78.50000 9.264
78.52000 6.610
78.54000 5.608
78.56000 4.621
78.58000 5.224
78.60000 8.555
78.62000 4.892
78.64000 9.011
78.66000 9.407
78.68000 6.525
78.70000 6.603
78.72000 6.846
78.74000 5.671
78.76000 9.543
78.78000 11.092
78.80000 10.248
78.82000 10.511
78.84000 14.764
78.86000 12.835
78.88000 12.819
78.90000 14.032
78.92000 13.233
78.94000 14.574
78.96000 10.270
78.98000 13.453
79.00000 14.400
79.02000 16.984
79.04000 19.120
79.06000 20.880
79.08000 22.220
79.10000 24.210
79.12000 23.806
79.14000 24.330
79.16000 21.288
79.18000 21.788
79.20000 25.853
79.22000 27.972
79.24000 24.673
79.26000 30.218
79.28000 29.314
79.30000 29.517
79.32000 30.601
79.34000 33.756
79.36000 35.578
79.38000 36.150
79.40000 35.052
79.42000 36.066
79.44000 37.085
79.46000 35.118
79.48000 32.092
79.50000 34.346
79.52000 36.862
79.54000 37.099
79.56000 34.699
79.58000 34.036
79.60000 33.607
79.62000 28.832
79.64000 33.285
79.66000 34.930
79.68000 31.225
79.70000 32.796
79.72000 36.709
79.74000 30.804
79.76000 33.776
79.78000 35.281
79.80000 30.658
79.82000 26.412
79.84000 31.313
79.86000 32.793
79.88000 34.003
79.90000 29.867
79.92000 25.887
79.94000 22.122
79.96000 26.020
79.98000 25.771
80.00000 27.106
80.02000 23.805
80.04000 21.491
80.06000 23.427
80.08000 22.601
80.10000 17.554
80.12000 18.888
80.14000 21.660
80.16000 19.289
80.18000 16.528
80.20000 15.227
80.22000 16.849
80.24000 15.667
80.26000 12.293
80.28000 9.189
80.30000 11.036
80.32000 10.299
80.34000 14.103
80.36000 9.895
80.38000 5.660
80.40000 1.384
80.42000 6.363
80.44000 10.751
80.46000 7.648
80.48000 5.910
80.50000 8.425
80.52000 8.892
80.54000 7.549
80.56000 6.174
80.58000 2.911
80.60000 8.117
80.62000 6.378
80.64000 4.813
80.66000 2.209
80.68000 4.412
80.70000 5.130
80.72000 3.481
80.74000 3.307
80.76000 5.459
80.78000 2.445
80.80000 1.147
80.82000 4.736
80.84000 3.473
80.86000 2.754
80.88000 5.032
80.90000 6.239
80.92000 3.048
80.94000 1.618
80.96000 -2.330
80.98000 1.625
81.00000 4.013
81.02000 4.070
81.04000 2.038
81.06000 0.688
81.08000 0.403
81.10000 -0.194
81.12000 0.890
81.14000 4.163
81.16000 2.154
81.18000 5.276
81.20000 2.118
81.22000 -1.895
81.24000 -1.855
81.26000 -0.679
81.28000 -0.651
81.30000 -0.052
81.32000 3.899
81.34000 5.134
81.36000 4.195
81.38000 3.185
81.40000 1.362
81.42000 2.318
81.44000 0.735
81.46000 -2.366
81.48000 0.035
81.50000 5.241
81.52000 5.144
81.54000 3.496
81.56000 2.404
81.58000 1.548
81.60000 3.534
81.62000 2.355
81.64000 0.791
81.66000 -0.257
81.68000 4.481
81.70000 3.099
81.72000 -0.409
81.74000 1.790
81.76000 2.455
81.78000 2.731
81.80000 1.359
81.82000 1.773
81.84000 -0.458
81.86000 2.789
81.88000 4.058
81.90000 6.150
81.92000 6.733
81.94000 3.996
81.96000 1.959
81.98000 2.628
82.00000 4.324
82.02000 2.591
82.04000 2.927
82.06000 2.175
82.08000 2.455
82.10000 0.447
82.12000 3.285
82.14000 5.170
82.16000 5.458
82.18000 4.836
82.20000 6.826
82.22000 3.932
82.24000 6.348
82.26000 6.967
82.28000 5.169
82.30000 9.330
82.32000 6.306
82.34000 5.681
82.36000 3.955
82.38000 5.914
82.40000 4.291
82.42000 8.922
82.44000 9.344
82.46000 4.582
82.48000 8.158
82.50000 8.576
82.52000 9.338
82.54000 9.797
82.56000 10.743
82.58000 11.351
82.60000 7.271
82.62000 12.429
82.64000 17.059
82.66000 16.793
82.68000 15.151
82.70000 15.391
82.72000 13.225
82.74000 18.105
82.76000 20.443
82.78000 25.429
82.80000 24.343
82.82000 24.384
82.84000 24.964
82.86000 25.370
82.88000 25.656
82.90000 29.118
82.92000 29.726
82.94000 29.477
82.96000 27.663
82.98000 28.465
83.00000 29.558
83.02000 32.334
83.04000 36.746
83.06000 36.854
83.08000 32.745
83.10000 36.076
83.12000 41.927
83.14000 42.516
83.16000 47.008
83.18000 47.332
83.20000 46.615
83.22000 44.946
83.24000 49.857
83.26000 53.395
83.28000 57.590
83.30000 59.411
83.32000 58.650
83.34000 62.107
83.36000 65.565
83.38000 60.824
83.40000 63.386
83.42000 68.362
83.44000 70.546
83.46000 68.432
83.48000 71.017
83.50000 72.578
83.52000 74.591
83.54000 70.757
83.56000 69.949
83.58000 79.608
83.60000 76.909
83.62000 76.474
83.64000 77.776
83.66000 77.786
83.68000 76.913
83.70000 77.623
83.72000 74.325
83.74000 74.481
83.76000 75.615
83.78000 73.598
83.80000 72.831
83.82000 73.540
83.84000 71.505
83.86000 70.167
83.88000 71.397
83.90000 67.761
83.92000 62.182
83.94000 57.594
83.96000 59.247
83.98000 57.224
84.00000 53.865
84.02000 54.833
84.04000 52.985
84.06000 48.816
84.08000 49.085
84.10000 44.413
84.12000 36.325
84.14000 41.808
84.16000 38.122
84.18000 35.851
84.20000 40.944
84.22000 41.751
84.24000 34.340
84.26000 31.013
84.28000 28.100
84.30000 28.313
84.32000 27.480
84.34000 27.027
84.36000 24.669
84.38000 17.027
84.40000 17.805
84.42000 18.747
84.44000 17.833
84.46000 19.766
84.48000 21.561
84.50000 18.715
84.52000 14.022
84.54000 12.379
84.56000 13.969
84.58000 12.457
84.60000 10.057
84.62000 6.810
84.64000 5.855
84.66000 7.520
84.68000 10.914
84.70000 10.386
84.72000 8.210
84.74000 5.865
84.76000 7.327
84.78000 5.029
84.80000 9.415
84.82000 7.055
84.84000 5.477
84.86000 1.877
84.88000 1.587
84.90000 2.276
84.92000 1.543
84.94000 -1.022
84.96000 1.394
84.98000 1.126
85.00000 2.799
85.02000 4.616
85.04000 2.778
85.06000 1.500
85.08000 1.238
85.10000 2.636
85.12000 2.503
85.14000 1.560
85.16000 4.002
85.18000 1.188
85.20000 -0.499
85.22000 -0.134
85.24000 1.110
85.26000 2.348
85.28000 3.423
85.30000 -0.956
85.32000 -0.530
85.34000 -1.804
85.36000 -1.416
85.38000 -0.207
85.40000 2.936
85.42000 0.943
85.44000 -2.116
85.46000 1.324
85.48000 -0.927
85.50000 1.827
85.52000 0.742
85.54000 0.304
85.56000 0.816
85.58000 3.655
85.60000 3.301
85.62000 -0.839
85.64000 -0.999
85.66000 4.229
85.68000 1.855
85.70000 1.310
85.72000 -0.204
85.74000 1.693
85.76000 2.146
85.78000 0.447
85.80000 4.312
85.82000 2.349
85.84000 -1.195
85.86000 -0.486
85.88000 -1.555
85.90000 -0.879
85.92000 0.225
85.94000 0.661
85.96000 0.338
85.98000 -0.933
86.00000 0.051
86.02000 3.638
86.04000 -0.368
86.06000 -1.594
86.08000 -0.958
86.10000 -2.000
86.12000 0.578
86.14000 3.116
86.16000 2.119
86.18000 2.113
86.20000 0.823
86.22000 1.569
86.24000 0.129
86.26000 -0.306
86.28000 3.372
86.30000 1.209
86.32000 -1.978
86.34000 -0.607
86.36000 0.418
86.38000 1.703
86.40000 3.109
86.42000 6.381
86.44000 3.462
86.46000 3.225
86.48000 2.366
86.50000 4.115
86.52000 2.890
86.54000 1.993
86.56000 0.899
86.58000 2.997
86.60000 3.447
86.62000 2.385
86.64000 2.914
86.66000 3.249
86.68000 0.538
86.70000 -1.323
86.72000 4.537
86.74000 6.235
86.76000 3.685
86.78000 0.718
86.80000 -0.540
86.82000 0.898
86.84000 -0.136
86.86000 -1.523
86.88000 0.873
86.90000 2.018
86.92000 3.276
86.94000 2.210
86.96000 -0.848
86.98000 0.519
87.00000 2.638
87.02000 5.760
87.04000 1.858
87.06000 -0.390
87.08000 0.007
87.10000 0.607
87.12000 1.344
87.14000 -0.606
87.16000 1.995
87.18000 2.645
87.20000 -1.936
87.22000 0.941
87.24000 5.056
87.26000 4.635
87.28000 4.025
87.30000 0.736
87.32000 2.372
87.34000 2.533
87.36000 4.411
87.38000 0.644
87.40000 -0.508
87.42000 0.801
87.44000 0.489
87.46000 -0.473
87.48000 2.047
87.50000 5.517
87.52000 3.860
87.54000 5.734
87.56000 3.466
87.58000 0.476
87.60000 -0.117
87.62000 0.559
87.64000 2.218
87.66000 3.793
87.68000 4.312
87.70000 3.698
87.72000 2.947
87.74000 -0.573
87.76000 -0.618
87.78000 2.823
87.80000 3.553
87.82000 0.503
87.84000 -1.870
87.86000 0.652
87.88000 -1.914
87.90000 -0.439
87.92000 0.721
87.94000 3.279
87.96000 1.714
87.98000 1.188
88.00000 2.077
88.02000 0.288
88.04000 2.195
88.06000 6.950
88.08000 6.214
88.10000 1.751
88.12000 0.683
88.14000 0.422
88.16000 -0.042
88.18000 1.343
88.20000 2.349
88.22000 2.184
88.24000 0.693
88.26000 2.716
88.28000 0.717
88.30000 1.362
88.32000 4.105
88.34000 0.746
88.36000 2.282
88.38000 -0.060
88.40000 -1.492
88.42000 0.582
88.44000 0.412
88.46000 3.688
88.48000 1.174
88.50000 0.042
88.52000 0.690
88.54000 0.802
88.56000 0.562
88.58000 2.399
88.60000 0.555
88.62000 0.455
88.64000 -1.899
88.66000 0.566
88.68000 0.018
88.70000 -0.868
88.72000 0.226
88.74000 0.804
88.76000 -1.900
88.78000 -1.267
88.80000 0.412
88.82000 1.704
88.84000 3.188
88.86000 2.012
88.88000 3.267
88.90000 3.931
88.92000 4.461
88.94000 1.592
88.96000 -0.095
88.98000 1.567
89.00000 5.933
89.02000 3.770
89.04000 3.871
89.06000 1.115
89.08000 2.910
89.10000 -0.640
89.12000 -1.604
89.14000 -0.561
89.16000 -0.077
89.18000 1.688
89.20000 5.013
89.22000 4.221
89.24000 2.336
89.26000 1.419
89.28000 1.107
89.30000 -0.005
89.32000 0.738
89.34000 -0.067
89.36000 -0.125
89.38000 -0.482
89.40000 4.051
89.42000 3.465
89.44000 2.549
89.46000 -0.459
89.48000 -0.191
89.50000 -0.114
89.52000 0.842
89.54000 3.318
89.56000 4.513
89.58000 1.850
89.60000 -1.905
89.62000 -0.534
89.64000 3.926
89.66000 -0.009
89.68000 0.466
89.70000 0.002
89.72000 3.717
89.74000 4.021
89.76000 2.713
89.78000 2.028
89.80000 1.984
89.82000 3.394
89.84000 2.793
89.86000 1.931
89.88000 2.510
89.90000 1.769
89.92000 0.905
89.94000 1.801
89.96000 4.003
89.98000 2.289
90.00000 -0.063
90.02000 0.333
90.04000 1.222
90.06000 1.830
90.08000 -0.139
90.10000 3.548
90.12000 4.041
90.14000 3.673
90.16000 7.373
90.18000 3.161
90.20000 -0.093
90.22000 -1.888
90.24000 5.514
90.26000 1.130
90.28000 -1.366
90.30000 2.550
90.32000 5.692
90.34000 2.236
90.36000 -1.814
90.38000 -1.884
90.40000 2.125
90.42000 1.357
90.44000 0.382
90.46000 4.942
90.48000 4.978
90.50000 4.491
90.52000 6.423
90.54000 5.039
90.56000 1.644
90.58000 2.777
90.60000 1.479
90.62000 1.607
90.64000 0.843
90.66000 0.865
90.68000 -0.418
90.70000 -0.721
90.72000 -1.891
90.74000 1.490
90.76000 6.754
90.78000 1.588
90.80000 1.527
90.82000 2.954
90.84000 4.451
90.86000 5.060
90.88000 3.189
90.90000 2.948
90.92000 0.323
90.94000 0.683
90.96000 1.226
90.98000 3.661
91.00000 4.616
91.02000 6.996
91.04000 3.885
91.06000 -0.103
91.08000 -0.478
91.10000 0.566
91.12000 1.625
91.14000 3.877
91.16000 3.056
91.18000 3.642
91.20000 5.678
91.22000 3.300
91.24000 -1.776
91.26000 -1.242
91.28000 -0.087
91.30000 -0.057
91.32000 -1.895
91.34000 -1.512
91.36000 4.068
91.38000 4.171
91.40000 2.350
91.42000 1.792
91.44000 1.690
91.46000 0.257
91.48000 3.785
91.50000 5.713
91.52000 2.441
91.54000 2.693
91.56000 4.595
91.58000 -0.059
91.60000 -0.373
91.62000 3.729
91.64000 2.182
91.66000 -0.417
91.68000 0.045
91.70000 -0.933
91.72000 0.433
91.74000 -0.740
91.76000 2.249
91.78000 0.232
91.80000 2.058
91.82000 2.314
91.84000 5.650
91.86000 7.421
91.88000 3.446
91.90000 1.362
91.92000 2.369
91.94000 2.320
91.96000 0.809
91.98000 0.823
92.00000 0.958
92.02000 0.362
92.04000 -1.567
92.06000 -1.288
92.08000 -1.914
92.10000 1.073
92.12000 0.610
92.14000 5.628
92.16000 3.798
92.18000 2.875
92.20000 1.110
92.22000 -0.175
92.24000 0.403
92.26000 3.382
92.28000 2.208
92.30000 -1.916
92.32000 -0.903
92.34000 2.164
92.36000 -0.983
92.38000 3.956
92.40000 4.289
92.42000 2.927
92.44000 1.544
92.46000 -0.254
92.48000 1.627
92.50000 1.525
92.52000 -0.869
92.54000 0.755
92.56000 2.033
92.58000 1.236
92.60000 2.445
92.62000 1.377
92.64000 -0.074
92.66000 2.655
92.68000 2.140
92.70000 0.931
92.72000 5.041
92.74000 1.625
92.76000 -0.303
92.78000 1.651
92.80000 0.242
92.82000 -0.358
92.84000 0.996
92.86000 4.547
92.88000 4.938
92.90000 6.462
92.92000 3.661
92.94000 -1.127
92.96000 -1.282
92.98000 3.220
93.00000 0.667
93.02000 3.700
93.04000 2.442
93.06000 1.897
93.08000 2.589
93.10000 0.402
93.12000 0.900
93.14000 2.816
93.16000 2.028
93.18000 1.855
93.20000 -0.146
93.22000 -1.598
93.24000 -0.523
93.26000 4.344
93.28000 6.967
93.30000 3.725
93.32000 0.742
93.34000 -0.652
93.36000 -1.902
93.38000 -0.334
93.40000 0.275
93.42000 0.271
93.44000 1.844
93.46000 2.019
93.48000 1.156
93.50000 1.287
93.52000 8.438
93.54000 7.323
93.56000 5.592
93.58000 1.809
93.60000 2.614
93.62000 4.407
93.64000 4.835
93.66000 4.956
93.68000 3.810
93.70000 4.964
93.72000 3.483
93.74000 2.293
93.76000 1.680
93.78000 0.858
93.80000 1.739
93.82000 3.026
93.84000 2.255
93.86000 4.035
93.88000 3.839
93.90000 2.012
93.92000 -1.915
93.94000 0.882
93.96000 1.916
93.98000 4.766
94.00000 0.054
94.02000 1.947
94.04000 0.949
94.06000 2.263
94.08000 3.116
94.10000 3.027
94.12000 -0.364
94.14000 -0.307
94.16000 1.943
94.18000 2.877
94.20000 0.338
94.22000 2.661
94.24000 0.707
94.26000 4.059
94.28000 5.368
94.30000 2.749
94.32000 4.576
94.34000 6.891
94.36000 2.904
94.38000 -0.500
94.40000 0.400
94.42000 1.894
94.44000 4.071
94.46000 4.543
94.48000 1.029
94.50000 1.718
94.52000 3.539
94.54000 2.626
94.56000 -1.736
94.58000 2.014
94.60000 0.943
94.62000 -0.843
94.64000 0.738
94.66000 0.344
94.68000 2.296
94.70000 4.664
94.72000 3.829
94.74000 4.391
94.76000 2.046
94.78000 2.459
94.80000 0.810
94.82000 0.767
94.84000 1.887
94.86000 4.326
94.88000 6.606
94.90000 3.772
94.92000 1.191
94.94000 1.290
94.96000 0.023
94.98000 3.272
95.00000 3.109
95.02000 -1.934
95.04000 -1.835
95.06000 -1.645
95.08000 1.157
95.10000 1.438
95.12000 3.326
95.14000 -0.192
95.16000 -0.309
95.18000 0.599
95.20000 3.902
95.22000 2.676
95.24000 -0.359
95.26000 2.675
95.28000 3.946
95.30000 4.941
95.32000 1.464
95.34000 -1.925
95.36000 0.441
95.38000 3.856
95.40000 3.684
95.42000 5.605
95.44000 6.852
95.46000 7.267
95.48000 3.717
95.50000 0.250
95.52000 2.142
95.54000 6.814
95.56000 4.866
95.58000 2.477
95.60000 3.114
95.62000 5.730
95.64000 8.219
95.66000 3.591
95.68000 1.596
95.70000 0.600
95.72000 0.877
95.74000 2.286
95.76000 6.541
95.78000 3.436
95.80000 2.187
95.82000 -1.905
95.84000 -1.522
95.86000 4.240
95.88000 2.570
95.90000 2.629
95.92000 4.543
95.94000 3.070
95.96000 1.514
95.98000 2.773
96.00000 4.200
96.02000 2.941
96.04000 3.453
96.06000 1.340
96.08000 2.891
96.10000 -0.820
96.12000 0.403
96.14000 5.535
96.16000 2.731
96.18000 2.095
96.20000 7.904
96.22000 8.157
96.24000 4.577
96.26000 2.901
96.28000 -0.502
96.30000 2.620
96.32000 4.604
96.34000 2.986
96.36000 3.793
96.38000 3.904
96.40000 4.917
96.42000 2.517
96.44000 1.149
96.46000 -0.301
96.48000 0.716
96.50000 4.105
96.52000 4.943
96.54000 2.426
96.56000 0.209
96.58000 2.995
96.60000 6.172
96.62000 3.445
96.64000 1.443
96.66000 3.372
96.68000 4.584
96.70000 4.980
96.72000 4.360
96.74000 3.449
96.76000 4.572
96.78000 2.667
96.80000 3.698
96.82000 1.985
96.84000 2.730
96.86000 2.448
96.88000 1.022
96.90000 2.473
96.92000 4.769
96.94000 4.517
96.96000 2.329
96.98000 6.241
97.00000 13.038
97.02000 10.685
97.04000 8.152
97.06000 7.285
97.08000 5.644
97.10000 3.733
97.12000 3.361
97.14000 3.812
97.16000 2.752
97.18000 5.364
97.20000 3.855
97.22000 4.395
97.24000 8.275
97.26000 3.452
97.28000 3.477
97.30000 4.917
97.32000 5.438
97.34000 6.362
97.36000 5.475
97.38000 6.309
97.40000 5.688
97.42000 5.468
97.44000 2.672
97.46000 -1.549
97.48000 -1.865
97.50000 0.177
97.52000 2.343
97.54000 7.010
97.56000 8.374
97.58000 1.066
97.60000 1.559
97.62000 8.011
97.64000 4.661
97.66000 5.113
97.68000 6.616
97.70000 9.608
97.72000 6.555
97.74000 4.242
97.76000 4.895
97.78000 5.059
97.80000 1.762
97.82000 5.371
97.84000 6.784
97.86000 7.994
97.88000 5.157
97.90000 3.954
97.92000 3.770
97.94000 2.808
97.96000 0.725
97.98000 3.504
98.00000 6.873
98.02000 1.038
98.04000 5.695
98.06000 6.139
98.08000 5.867
98.10000 5.162
98.12000 3.229
98.14000 0.875
98.16000 2.365
98.18000 2.493
98.20000 3.469
98.22000 8.216
98.24000 6.605
98.26000 9.115
98.28000 5.599
98.30000 3.191
98.32000 1.986
98.34000 5.990
98.36000 1.871
98.38000 2.658
98.40000 4.138
98.42000 -0.099
98.44000 3.122
98.46000 3.367
98.48000 2.926
98.50000 5.451
98.52000 7.442
98.54000 1.954
98.56000 5.527
98.58000 3.427
98.60000 3.184
98.62000 7.801
98.64000 5.557
98.66000 5.696
98.68000 6.250
98.70000 9.851
98.72000 7.078
98.74000 4.308
98.76000 2.184
98.78000 5.709
98.80000 8.080
98.82000 -0.028
98.84000 -1.818
98.86000 0.788
98.88000 7.986
98.90000 8.805
98.92000 12.348
98.94000 10.803
98.96000 2.781
98.98000 -0.442
99.00000 2.321
99.02000 -1.029
99.04000 6.236
99.06000 3.029
99.08000 2.732
99.10000 9.616
99.12000 5.160
99.14000 4.628
99.16000 6.155
99.18000 4.560
99.20000 8.354
99.22000 8.200
99.24000 5.722
99.26000 6.125
99.28000 -0.347
99.30000 -1.861
99.32000 6.543
99.34000 10.655
99.36000 10.290
99.38000 7.726
99.40000 -1.053
99.42000 2.084
99.44000 7.665
99.46000 5.256
99.48000 7.211
99.50000 5.960
99.52000 5.492
99.54000 3.218
99.56000 2.622
99.58000 2.826
99.60000 2.956
99.62000 10.120
99.64000 3.696
99.66000 4.209
99.68000 1.075
99.70000 0.876
99.72000 5.227
99.74000 5.462
99.76000 -1.895
99.78000 0.964
99.80000 5.456
99.82000 5.210
99.84000 -1.999
99.86000 -1.787
99.88000 0.359
99.90000 0.119
99.92000 -2.037
99.94000 -2.065
99.96000 3.753
99.98000 0.000
