'Id: "0011388" Comment: "Integrate frame 0011388_Au-Ir-Rh_Rh-rich_XRD-Mapping-292-0000.gfrmwith cursor Wedge Cursor #5" Operator: "B?rgel" Anode: "Cu" Wavelength: "1.5406" Scantype: "2Theta (TwoTheta)" TimePerStep: "1" X: "22.5" Y: "27" Z: "5.95" 
10.00000 0.000
10.02000 10.990
10.04000 9.754
10.06000 6.010
10.08000 6.518
10.10000 6.244
10.12000 2.378
10.14000 3.300
10.16000 10.252
10.18000 -3.292
10.20000 -3.867
10.22000 -3.868
10.24000 -3.872
10.26000 -3.876
10.28000 6.413
10.30000 11.058
10.32000 24.147
10.34000 23.418
10.36000 15.152
10.38000 2.022
10.40000 9.324
10.42000 11.706
10.44000 15.103
10.46000 16.746
10.48000 9.936
10.50000 17.642
10.52000 16.109
10.54000 3.556
10.56000 2.178
10.58000 12.374
10.60000 20.743
10.62000 17.510
10.64000 21.926
10.66000 14.299
10.68000 9.527
10.70000 4.792
10.72000 6.315
10.74000 19.017
10.76000 14.067
10.78000 10.121
10.80000 12.517
10.82000 5.361
10.84000 13.304
10.86000 15.961
10.88000 10.223
10.90000 20.337
10.92000 24.075
10.94000 20.827
10.96000 11.539
10.98000 11.115
11.00000 15.962
11.02000 6.709
11.04000 19.781
11.06000 17.090
11.08000 13.369
11.10000 20.678
11.12000 22.419
11.14000 14.410
11.16000 11.269
11.18000 6.992
11.20000 21.224
11.22000 25.383
11.24000 23.506
11.26000 21.551
11.28000 6.002
11.30000 11.397
11.32000 15.413
11.34000 11.348
11.36000 8.532
11.38000 12.813
11.40000 10.078
11.42000 6.297
11.44000 12.511
11.46000 19.007
11.48000 11.244
11.50000 13.597
11.52000 10.728
11.54000 12.405
11.56000 12.281
11.58000 11.954
11.60000 13.799
11.62000 9.778
11.64000 5.198
11.66000 17.707
11.68000 20.931
11.70000 27.912
11.72000 27.168
11.74000 21.607
11.76000 25.834
11.78000 16.456
11.80000 11.218
11.82000 4.693
11.84000 17.989
11.86000 20.941
11.88000 15.032
11.90000 17.013
11.92000 22.000
11.94000 23.936
11.96000 12.602
11.98000 13.183
12.00000 18.181
12.02000 21.661
12.04000 28.488
12.06000 26.193
12.08000 20.293
12.10000 24.481
12.12000 16.813
12.14000 20.270
12.16000 30.794
12.18000 21.156
12.20000 11.467
12.22000 9.589
12.24000 10.821
12.26000 14.325
12.28000 17.732
12.30000 26.642
12.32000 24.380
12.34000 15.908
12.36000 16.544
12.38000 26.437
12.40000 29.583
12.42000 23.405
12.44000 14.328
12.46000 7.342
12.48000 27.077
12.50000 28.313
12.52000 15.334
12.54000 18.339
12.56000 22.195
12.58000 32.907
12.60000 34.058
12.62000 27.840
12.64000 23.633
12.66000 15.522
12.68000 18.186
12.70000 15.457
12.72000 16.668
12.74000 12.812
12.76000 12.356
12.78000 22.573
12.80000 27.596
12.82000 23.122
12.84000 20.819
12.86000 28.180
12.88000 17.879
12.90000 21.142
12.92000 18.333
12.94000 14.779
12.96000 16.580
12.98000 20.411
13.00000 27.997
13.02000 28.706
13.04000 17.309
13.06000 11.643
13.08000 21.650
13.10000 23.250
13.12000 19.127
13.14000 16.274
13.16000 26.543
13.18000 30.429
13.20000 26.572
13.22000 33.862
13.24000 27.611
13.26000 20.167
13.28000 18.301
13.30000 18.379
13.32000 12.357
13.34000 16.376
13.36000 8.618
13.38000 15.833
13.40000 21.391
13.42000 22.751
13.44000 11.438
13.46000 16.753
13.48000 24.458
13.50000 21.270
13.52000 18.696
13.54000 24.045
13.56000 16.119
13.58000 14.239
13.60000 10.605
13.62000 19.016
13.64000 14.930
13.66000 9.730
13.68000 6.918
13.70000 8.048
13.72000 21.070
13.74000 15.419
13.76000 13.092
13.78000 15.977
13.80000 17.033
13.82000 25.450
13.84000 25.084
13.86000 14.577
13.88000 8.927
13.90000 12.054
13.92000 18.246
13.94000 14.430
13.96000 14.872
13.98000 17.879
14.00000 17.580
14.02000 12.329
14.04000 7.862
14.06000 7.861
14.08000 13.430
14.10000 13.566
14.12000 15.074
14.14000 12.065
14.16000 7.308
14.18000 -1.475
14.20000 6.812
14.22000 5.640
14.24000 10.574
14.26000 8.229
14.28000 7.766
14.30000 11.013
14.32000 19.160
14.34000 14.813
14.36000 10.561
14.38000 6.717
14.40000 6.071
14.42000 12.034
14.44000 15.672
14.46000 13.682
14.48000 12.055
14.50000 20.645
14.52000 18.740
14.54000 21.628
14.56000 24.340
14.58000 10.888
14.60000 9.303
14.62000 11.888
14.64000 15.503
14.66000 18.146
14.68000 15.801
14.70000 11.655
14.72000 12.168
14.74000 10.587
14.76000 3.503
14.78000 5.614
14.80000 12.174
14.82000 21.686
14.84000 13.980
14.86000 7.959
14.88000 6.382
14.90000 12.085
14.92000 17.000
14.94000 11.083
14.96000 8.386
14.98000 4.216
15.00000 3.469
15.02000 2.801
15.04000 5.284
15.06000 5.776
15.08000 10.725
15.10000 8.618
15.12000 4.607
15.14000 6.165
15.16000 -0.670
15.18000 4.930
15.20000 7.202
15.22000 2.893
15.24000 10.433
15.26000 13.594
15.28000 5.173
15.30000 7.311
15.32000 9.596
15.34000 14.160
15.36000 11.250
15.38000 5.952
15.40000 5.717
15.42000 12.477
15.44000 12.211
15.46000 6.308
15.48000 2.646
15.50000 1.102
15.52000 8.076
15.54000 0.512
15.56000 -4.475
15.58000 2.292
15.60000 10.196
15.62000 8.452
15.64000 9.308
15.66000 11.691
15.68000 7.020
15.70000 5.680
15.72000 10.135
15.74000 10.712
15.76000 6.419
15.78000 7.787
15.80000 7.563
15.82000 6.465
15.84000 11.663
15.86000 9.624
15.88000 6.203
15.90000 5.375
15.92000 5.577
15.94000 3.259
15.96000 3.191
15.98000 12.943
16.00000 3.453
16.02000 9.908
16.04000 14.778
16.06000 9.188
16.08000 12.195
16.10000 13.054
16.12000 18.962
16.14000 6.712
16.16000 2.814
16.18000 0.387
16.20000 7.227
16.22000 8.092
16.24000 10.404
16.26000 15.614
16.28000 9.199
16.30000 6.632
16.32000 5.038
16.34000 -1.115
16.36000 10.271
16.38000 13.061
16.40000 10.137
16.42000 9.684
16.44000 1.610
16.46000 0.802
16.48000 4.140
16.50000 5.815
16.52000 5.866
16.54000 -2.390
16.56000 6.001
16.58000 7.436
16.60000 2.155
16.62000 -1.122
16.64000 9.443
16.66000 7.085
16.68000 6.196
16.70000 1.052
16.72000 9.656
16.74000 10.706
16.76000 7.326
16.78000 6.258
16.80000 -1.499
16.82000 -0.723
16.84000 3.961
16.86000 9.113
16.88000 9.506
16.90000 13.917
16.92000 16.990
16.94000 8.139
16.96000 1.392
16.98000 0.028
17.00000 2.988
17.02000 9.278
17.04000 9.614
17.06000 5.536
17.08000 0.750
17.10000 -3.943
17.12000 0.711
17.14000 6.211
17.16000 11.032
17.18000 14.622
17.20000 11.167
17.22000 6.561
17.24000 9.722
17.26000 11.506
17.28000 7.697
17.30000 0.081
17.32000 -3.664
17.34000 2.234
17.36000 4.985
17.38000 2.750
17.40000 1.526
17.42000 -4.416
17.44000 -0.996
17.46000 9.606
17.48000 14.891
17.50000 8.129
17.52000 2.892
17.54000 0.964
17.56000 5.342
17.58000 8.453
17.60000 2.606
17.62000 1.858
17.64000 5.181
17.66000 1.944
17.68000 6.460
17.70000 2.604
17.72000 5.058
17.74000 3.632
17.76000 -3.233
17.78000 -4.392
17.80000 2.133
17.82000 1.208
17.84000 4.059
17.86000 9.170
17.88000 14.886
17.90000 6.166
17.92000 -2.558
17.94000 2.755
17.96000 9.920
17.98000 11.093
18.00000 5.836
18.02000 7.207
18.04000 8.707
18.06000 11.417
18.08000 4.757
18.10000 1.921
18.12000 7.372
18.14000 2.424
18.16000 4.452
18.18000 3.662
18.20000 0.149
18.22000 7.789
18.24000 7.949
18.26000 11.329
18.28000 1.329
18.30000 -4.360
18.32000 -0.473
18.34000 5.542
18.36000 6.246
18.38000 2.183
18.40000 6.695
18.42000 1.138
18.44000 1.753
18.46000 -1.680
18.48000 2.775
18.50000 -0.553
18.52000 -3.512
18.54000 0.120
18.56000 3.274
18.58000 1.820
18.60000 -0.236
18.62000 5.673
18.64000 5.917
18.66000 6.420
18.68000 8.278
18.70000 10.906
18.72000 4.976
18.74000 4.571
18.76000 3.384
18.78000 0.727
18.80000 3.266
18.82000 3.003
18.84000 0.044
18.86000 6.601
18.88000 3.634
18.90000 1.823
18.92000 3.951
18.94000 8.855
18.96000 8.990
18.98000 7.550
19.00000 6.302
19.02000 8.314
19.04000 3.162
19.06000 5.270
19.08000 6.393
19.10000 10.561
19.12000 8.419
19.14000 8.244
19.16000 7.463
19.18000 -0.893
19.20000 -0.121
19.22000 -0.265
19.24000 -2.736
19.26000 6.543
19.28000 1.848
19.30000 0.773
19.32000 9.308
19.34000 7.042
19.36000 0.954
19.38000 7.125
19.40000 9.267
19.42000 6.852
19.44000 5.759
19.46000 -2.636
19.48000 1.012
19.50000 4.536
19.52000 3.970
19.54000 8.368
19.56000 5.456
19.58000 6.902
19.60000 8.984
19.62000 7.962
19.64000 4.612
19.66000 0.024
19.68000 13.320
19.70000 15.083
19.72000 3.990
19.74000 -4.251
19.76000 1.758
19.78000 11.929
19.80000 1.437
19.82000 -2.852
19.84000 3.494
19.86000 2.535
19.88000 3.374
19.90000 12.701
19.92000 13.539
19.94000 10.282
19.96000 4.531
19.98000 7.150
20.00000 8.283
20.02000 8.684
20.04000 8.760
20.06000 7.530
20.08000 6.940
20.10000 7.617
20.12000 2.317
20.14000 1.728
20.16000 -3.540
20.18000 -3.067
20.20000 3.174
20.22000 2.642
20.24000 3.674
20.26000 6.045
20.28000 5.344
20.30000 3.843
20.32000 3.919
20.34000 2.916
20.36000 2.432
20.38000 1.407
20.40000 0.196
20.42000 1.678
20.44000 10.130
20.46000 5.327
20.48000 0.344
20.50000 0.047
20.52000 7.285
20.54000 8.692
20.56000 1.020
20.58000 1.057
20.60000 6.940
20.62000 3.377
20.64000 3.953
20.66000 9.113
20.68000 2.370
20.70000 8.896
20.72000 5.785
20.74000 1.270
20.76000 0.266
20.78000 2.906
20.80000 6.445
20.82000 6.329
20.84000 10.981
20.86000 3.242
20.88000 -0.044
20.90000 6.685
20.92000 9.946
20.94000 0.567
20.96000 -1.679
20.98000 3.231
21.00000 3.000
21.02000 5.102
21.04000 4.268
21.06000 5.092
21.08000 2.784
21.10000 4.676
21.12000 9.295
21.14000 4.249
21.16000 4.983
21.18000 5.694
21.20000 2.736
21.22000 3.653
21.24000 0.850
21.26000 2.499
21.28000 9.031
21.30000 15.744
21.32000 13.397
21.34000 -1.490
21.36000 -4.183
21.38000 -2.998
21.40000 3.452
21.42000 -4.005
21.44000 -0.057
21.46000 2.846
21.48000 7.746
21.50000 5.497
21.52000 2.870
21.54000 5.188
21.56000 5.606
21.58000 -1.357
21.60000 -0.919
21.62000 -1.561
21.64000 7.153
21.66000 8.522
21.68000 5.171
21.70000 5.226
21.72000 2.117
21.74000 -2.986
21.76000 2.746
21.78000 -4.170
21.80000 2.686
21.82000 -0.395
21.84000 1.233
21.86000 1.166
21.88000 1.527
21.90000 4.092
21.92000 6.774
21.94000 3.151
21.96000 2.799
21.98000 -0.519
22.00000 1.421
22.02000 3.986
22.04000 0.367
22.06000 2.588
22.08000 4.900
22.10000 -0.958
22.12000 4.849
22.14000 1.379
22.16000 5.820
22.18000 1.956
22.20000 4.175
22.22000 3.191
22.24000 4.161
22.26000 1.308
22.28000 3.202
22.30000 6.722
22.32000 6.029
22.34000 0.449
22.36000 4.584
22.38000 6.513
22.40000 3.222
22.42000 3.067
22.44000 2.619
22.46000 1.396
22.48000 -0.973
22.50000 5.636
22.52000 5.086
22.54000 4.579
22.56000 1.987
22.58000 -4.131
22.60000 6.175
22.62000 7.324
22.64000 10.067
22.66000 8.222
22.68000 8.142
22.70000 6.716
22.72000 6.464
22.74000 7.262
22.76000 8.360
22.78000 5.831
22.80000 8.516
22.82000 4.272
22.84000 1.958
22.86000 -0.102
22.88000 1.395
22.90000 8.735
22.92000 7.696
22.94000 4.814
22.96000 6.381
22.98000 6.945
23.00000 2.766
23.02000 5.534
23.04000 9.955
23.06000 13.211
23.08000 6.601
23.10000 6.638
23.12000 4.238
23.14000 2.303
23.16000 4.103
23.18000 5.534
23.20000 3.394
23.22000 4.322
23.24000 2.363
23.26000 8.120
23.28000 7.470
23.30000 -1.136
23.32000 0.507
23.34000 9.428
23.36000 8.579
23.38000 4.499
23.40000 0.025
23.42000 3.675
23.44000 8.881
23.46000 8.085
23.48000 5.317
23.50000 0.174
23.52000 2.403
23.54000 6.726
23.56000 7.029
23.58000 2.295
23.60000 8.047
23.62000 8.614
23.64000 11.493
23.66000 6.744
23.68000 11.255
23.70000 13.546
23.72000 11.938
23.74000 9.735
23.76000 5.555
23.78000 7.244
23.80000 7.152
23.82000 -1.651
23.84000 -4.045
23.86000 2.260
23.88000 4.578
23.90000 5.769
23.92000 -0.184
23.94000 0.875
23.96000 2.595
23.98000 7.759
24.00000 5.041
24.02000 2.798
24.04000 6.682
24.06000 1.664
24.08000 2.499
24.10000 8.375
24.12000 11.749
24.14000 16.040
24.16000 11.212
24.18000 9.710
24.20000 2.045
24.22000 0.958
24.24000 1.122
24.26000 0.192
24.28000 -0.541
24.30000 2.085
24.32000 6.770
24.34000 1.458
24.36000 5.692
24.38000 6.661
24.40000 4.846
24.42000 2.212
24.44000 0.794
24.46000 -0.574
24.48000 -4.015
24.50000 -0.764
24.52000 1.946
24.54000 0.762
24.56000 0.596
24.58000 3.259
24.60000 7.107
24.62000 4.560
24.64000 3.394
24.66000 2.988
24.68000 -2.168
24.70000 1.685
24.72000 0.616
24.74000 -1.477
24.76000 -1.670
24.78000 4.015
24.80000 3.557
24.82000 -3.885
24.84000 3.721
24.86000 5.237
24.88000 2.203
24.90000 2.194
24.92000 0.270
24.94000 0.260
24.96000 -1.030
24.98000 3.901
25.00000 9.790
25.02000 2.486
25.04000 2.051
25.06000 2.609
25.08000 2.017
25.10000 2.812
25.12000 -1.466
25.14000 -1.263
25.16000 0.848
25.18000 1.072
25.20000 -0.721
25.22000 5.978
25.24000 8.441
25.26000 5.874
25.28000 3.030
25.30000 5.197
25.32000 5.383
25.34000 3.644
25.36000 3.022
25.38000 5.231
25.40000 4.623
25.42000 3.412
25.44000 4.142
25.46000 3.803
25.48000 7.806
25.50000 6.473
25.52000 1.107
25.54000 2.137
25.56000 -1.434
25.58000 1.939
25.60000 1.540
25.62000 -1.659
25.64000 3.170
25.66000 3.759
25.68000 2.761
25.70000 1.995
25.72000 0.779
25.74000 8.512
25.76000 3.214
25.78000 -0.389
25.80000 2.210
25.82000 3.141
25.84000 5.033
25.86000 -0.393
25.88000 1.442
25.90000 0.185
25.92000 0.583
25.94000 -0.061
25.96000 2.866
25.98000 10.311
26.00000 12.777
26.02000 5.681
26.04000 -3.913
26.06000 -0.952
26.08000 0.304
26.10000 -1.767
26.12000 1.162
26.14000 7.226
26.16000 4.345
26.18000 2.205
26.20000 4.579
26.22000 2.668
26.24000 4.159
26.26000 -1.691
26.28000 -2.670
26.30000 2.112
26.32000 6.820
26.34000 2.124
26.36000 -1.001
26.38000 -3.268
26.40000 3.186
26.42000 11.140
26.44000 15.132
26.46000 11.175
26.48000 1.474
26.50000 -1.084
26.52000 4.864
26.54000 3.586
26.56000 4.782
26.58000 7.346
26.60000 6.223
26.62000 1.523
26.64000 3.472
26.66000 7.830
26.68000 6.638
26.70000 5.847
26.72000 1.985
26.74000 2.265
26.76000 3.514
26.78000 3.865
26.80000 -0.150
26.82000 -3.880
26.84000 1.682
26.86000 6.057
26.88000 7.216
26.90000 9.259
26.92000 5.508
26.94000 6.605
26.96000 11.491
26.98000 6.576
27.00000 4.852
27.02000 9.329
27.04000 9.082
27.06000 3.932
27.08000 -0.423
27.10000 -3.877
27.12000 -0.048
27.14000 6.303
27.16000 7.297
27.18000 5.720
27.20000 1.931
27.22000 5.487
27.24000 6.914
27.26000 8.780
27.28000 12.974
27.30000 5.615
27.32000 -0.479
27.34000 5.286
27.36000 7.319
27.38000 2.858
27.40000 1.237
27.42000 5.962
27.44000 8.228
27.46000 0.488
27.48000 -1.172
27.50000 7.118
27.52000 4.112
27.54000 1.821
27.56000 -2.404
27.58000 -2.303
27.60000 -2.245
27.62000 -0.448
27.64000 1.153
27.66000 -3.871
27.68000 -1.200
27.70000 -3.616
27.72000 1.048
27.74000 2.238
27.76000 0.380
27.78000 2.564
27.80000 -0.727
27.82000 2.364
27.84000 3.201
27.86000 1.232
27.88000 -3.193
27.90000 -1.999
27.92000 -2.497
27.94000 -2.010
27.96000 -0.825
27.98000 1.381
28.00000 0.198
28.02000 1.365
28.04000 -2.446
28.06000 -0.885
28.08000 0.520
28.10000 -0.938
28.12000 0.862
28.14000 -0.265
28.16000 2.915
28.18000 0.711
28.20000 1.838
28.22000 1.210
28.24000 -0.952
28.26000 -3.219
28.28000 0.740
28.30000 -2.195
28.32000 -1.988
28.34000 3.296
28.36000 -1.234
28.38000 0.355
28.40000 2.749
28.42000 0.372
28.44000 -3.045
28.46000 -3.287
28.48000 0.952
28.50000 1.837
28.52000 3.376
28.54000 2.876
28.56000 -0.694
28.58000 -2.435
28.60000 1.109
28.62000 0.311
28.64000 0.052
28.66000 -0.804
28.68000 -0.641
28.70000 -0.802
28.72000 1.648
28.74000 2.547
28.76000 1.887
28.78000 -0.708
28.80000 3.956
28.82000 2.885
28.84000 -3.299
28.86000 0.069
28.88000 -0.898
28.90000 -3.573
28.92000 -0.941
28.94000 0.878
28.96000 1.703
28.98000 3.794
29.00000 -2.168
29.02000 -3.216
29.04000 1.795
29.06000 7.087
29.08000 4.911
29.10000 2.083
29.12000 -1.562
29.14000 -3.784
29.16000 -1.447
29.18000 1.554
29.20000 2.688
29.22000 4.249
29.24000 8.080
29.26000 10.212
29.28000 7.341
29.30000 1.162
29.32000 -2.523
29.34000 2.652
29.36000 -0.141
29.38000 4.253
29.40000 5.031
29.42000 2.388
29.44000 -3.768
29.46000 -2.503
29.48000 -0.748
29.50000 -2.377
29.52000 -1.463
29.54000 7.463
29.56000 7.810
29.58000 7.476
29.60000 3.900
29.62000 4.309
29.64000 1.190
29.66000 5.295
29.68000 2.647
29.70000 3.340
29.72000 4.483
29.74000 -2.856
29.76000 -1.317
29.78000 -1.114
29.80000 2.650
29.82000 -0.391
29.84000 -3.755
29.86000 1.549
29.88000 0.999
29.90000 4.481
29.92000 3.307
29.94000 3.007
29.96000 3.003
29.98000 4.688
30.00000 5.293
30.02000 5.201
30.04000 0.611
30.06000 4.371
30.08000 -1.735
30.10000 1.379
30.12000 -2.151
30.14000 1.133
30.16000 -0.726
30.18000 -3.035
30.20000 3.523
30.22000 7.064
30.24000 11.209
30.26000 5.984
30.28000 -0.160
30.30000 -1.338
30.32000 -2.104
30.34000 -1.564
30.36000 -0.208
30.38000 1.184
30.40000 4.218
30.42000 2.273
30.44000 -0.355
30.46000 1.408
30.48000 2.237
30.50000 4.178
30.52000 1.395
30.54000 1.358
30.56000 0.936
30.58000 1.474
30.60000 3.727
30.62000 6.364
30.64000 6.291
30.66000 6.687
30.68000 2.423
30.70000 -0.527
30.72000 -2.004
30.74000 -3.056
30.76000 0.172
30.78000 -0.728
30.80000 0.973
30.82000 0.074
30.84000 -0.409
30.86000 1.560
30.88000 1.711
30.90000 3.158
30.92000 5.188
30.94000 6.883
30.96000 5.906
30.98000 -0.572
31.00000 2.207
31.02000 -2.042
31.04000 -0.585
31.06000 -0.209
31.08000 3.863
31.10000 -0.387
31.12000 -1.485
31.14000 5.978
31.16000 0.923
31.18000 -3.689
31.20000 0.994
31.22000 4.192
31.24000 2.716
31.26000 4.689
31.28000 4.496
31.30000 -0.272
31.32000 -0.365
31.34000 2.525
31.36000 1.920
31.38000 2.044
31.40000 0.857
31.42000 1.005
31.44000 -0.281
31.46000 2.094
31.48000 1.051
31.50000 -1.104
31.52000 3.409
31.54000 7.331
31.56000 7.733
31.58000 6.021
31.60000 4.003
31.62000 6.617
31.64000 7.513
31.66000 3.993
31.68000 -0.308
31.70000 1.509
31.72000 2.907
31.74000 -1.533
31.76000 0.775
31.78000 4.533
31.80000 5.191
31.82000 3.147
31.84000 4.723
31.86000 2.987
31.88000 -3.643
31.90000 0.765
31.92000 5.937
31.94000 5.850
31.96000 5.392
31.98000 1.859
32.00000 -2.069
32.02000 -3.551
32.04000 1.891
32.06000 1.367
32.08000 3.096
32.10000 1.934
32.12000 0.418
32.14000 0.471
32.16000 1.093
32.18000 -0.600
32.20000 3.414
32.22000 2.785
32.24000 -3.025
32.26000 1.904
32.28000 5.684
32.30000 5.920
32.32000 4.478
32.34000 10.574
32.36000 7.497
32.38000 5.273
32.40000 3.990
32.42000 5.303
32.44000 2.269
32.46000 1.483
32.48000 -3.154
32.50000 2.202
32.52000 6.183
32.54000 7.605
32.56000 2.492
32.58000 3.245
32.60000 2.598
32.62000 5.720
32.64000 10.132
32.66000 4.484
32.68000 5.680
32.70000 2.561
32.72000 -1.306
32.74000 -2.466
32.76000 -0.209
32.78000 7.271
32.80000 9.545
32.82000 12.918
32.84000 4.029
32.86000 -3.613
32.88000 1.602
32.90000 4.613
32.92000 7.154
32.94000 7.360
32.96000 4.765
32.98000 9.571
33.00000 4.037
33.02000 3.295
33.04000 4.431
33.06000 1.007
33.08000 0.544
33.10000 -0.451
33.12000 2.613
33.14000 0.213
33.16000 4.319
33.18000 5.119
33.20000 4.827
33.22000 0.628
33.24000 0.766
33.26000 4.790
33.28000 2.498
33.30000 2.224
33.32000 5.880
33.34000 3.708
33.36000 5.919
33.38000 8.553
33.40000 -1.194
33.42000 1.907
33.44000 5.376
33.46000 5.097
33.48000 5.556
33.50000 5.161
33.52000 6.138
33.54000 8.358
33.56000 9.562
33.58000 7.544
33.60000 5.339
33.62000 5.169
33.64000 6.269
33.66000 4.169
33.68000 4.868
33.70000 1.911
33.72000 -2.515
33.74000 2.839
33.76000 -0.525
33.78000 4.059
33.80000 10.521
33.82000 8.385
33.84000 3.683
33.86000 2.014
33.88000 2.947
33.90000 5.560
33.92000 5.463
33.94000 -0.445
33.96000 4.606
33.98000 7.725
34.00000 1.162
34.02000 0.628
34.04000 5.824
34.06000 10.112
34.08000 5.251
34.10000 3.651
34.12000 8.275
34.14000 11.577
34.16000 2.587
34.18000 1.818
34.20000 3.791
34.22000 0.905
34.24000 2.194
34.26000 1.557
34.28000 1.362
34.30000 6.171
34.32000 10.867
34.34000 11.064
34.36000 6.425
34.38000 4.088
34.40000 3.970
34.42000 3.864
34.44000 1.299
34.46000 3.667
34.48000 5.948
34.50000 4.584
34.52000 8.875
34.54000 5.220
34.56000 4.739
34.58000 4.776
34.60000 8.063
34.62000 6.596
34.64000 3.909
34.66000 3.592
34.68000 5.006
34.70000 -3.545
34.72000 -0.965
34.74000 6.481
34.76000 4.170
34.78000 6.586
34.80000 10.098
34.82000 9.208
34.84000 8.120
34.86000 8.300
34.88000 6.005
34.90000 2.595
34.92000 8.093
34.94000 7.623
34.96000 5.049
34.98000 2.025
35.00000 3.782
35.02000 3.022
35.04000 -1.199
35.06000 -0.240
35.08000 1.927
35.10000 2.773
35.12000 5.983
35.14000 0.307
35.16000 -3.191
35.18000 0.864
35.20000 8.584
35.22000 8.099
35.24000 2.964
35.26000 -1.202
35.28000 1.209
35.30000 1.816
35.32000 6.115
35.34000 5.004
35.36000 6.745
35.38000 2.280
35.40000 2.576
35.42000 5.772
35.44000 1.303
35.46000 3.587
35.48000 7.928
35.50000 5.108
35.52000 6.437
35.54000 5.348
35.56000 3.724
35.58000 2.582
35.60000 1.762
35.62000 3.464
35.64000 -1.567
35.66000 0.811
35.68000 -0.421
35.70000 -1.469
35.72000 1.315
35.74000 5.495
35.76000 3.929
35.78000 4.291
35.80000 7.672
35.82000 5.454
35.84000 5.795
35.86000 9.214
35.88000 1.908
35.90000 5.003
35.92000 10.361
35.94000 10.687
35.96000 0.147
35.98000 -1.490
36.00000 2.614
36.02000 5.045
36.04000 2.917
36.06000 2.227
36.08000 4.212
36.10000 5.649
36.12000 2.460
36.14000 2.870
36.16000 3.658
36.18000 1.729
36.20000 -3.574
36.22000 0.365
36.24000 1.754
36.26000 7.540
36.28000 3.542
36.30000 4.869
36.32000 6.055
36.34000 -2.973
36.36000 1.148
36.38000 9.988
36.40000 5.201
36.42000 3.413
36.44000 0.899
36.46000 0.661
36.48000 5.433
36.50000 1.032
36.52000 2.146
36.54000 4.845
36.56000 1.348
36.58000 1.096
36.60000 -1.095
36.62000 -1.400
36.64000 4.987
36.66000 5.548
36.68000 7.916
36.70000 6.980
36.72000 4.776
36.74000 4.729
36.76000 3.480
36.78000 -3.610
36.80000 -0.400
36.82000 1.657
36.84000 3.686
36.86000 2.179
36.88000 2.948
36.90000 2.372
36.92000 -0.193
36.94000 -2.090
36.96000 -0.806
36.98000 0.725
37.00000 1.604
37.02000 2.423
37.04000 4.083
37.06000 1.654
37.08000 -2.510
37.10000 -0.057
37.12000 2.304
37.14000 0.587
37.16000 -2.410
37.18000 -2.915
37.20000 4.708
37.22000 5.144
37.24000 4.527
37.26000 1.313
37.28000 1.148
37.30000 2.662
37.32000 0.677
37.34000 -2.547
37.36000 -2.089
37.38000 -3.510
37.40000 -1.383
37.42000 0.427
37.44000 0.711
37.46000 1.694
37.48000 -2.185
37.50000 -1.951
37.52000 3.223
37.54000 3.274
37.56000 -3.676
37.58000 3.756
37.60000 7.358
37.62000 6.472
37.64000 6.379
37.66000 7.739
37.68000 -1.173
37.70000 -1.084
37.72000 4.349
37.74000 3.828
37.76000 1.627
37.78000 4.377
37.80000 3.435
37.82000 3.148
37.84000 4.810
37.86000 6.286
37.88000 4.820
37.90000 7.257
37.92000 9.753
37.94000 5.487
37.96000 10.666
37.98000 12.470
38.00000 9.843
38.02000 6.072
38.04000 7.192
38.06000 9.756
38.08000 13.145
38.10000 11.067
38.12000 9.561
38.14000 14.418
38.16000 18.970
38.18000 15.093
38.20000 10.850
38.22000 10.776
38.24000 13.742
38.26000 11.595
38.28000 14.228
38.30000 17.414
38.32000 16.218
38.34000 19.356
38.36000 20.476
38.38000 19.787
38.40000 24.337
38.42000 21.787
38.44000 17.872
38.46000 16.600
38.48000 19.039
38.50000 20.760
38.52000 20.388
38.54000 21.591
38.56000 22.712
38.58000 26.919
38.60000 24.579
38.62000 21.296
38.64000 29.137
38.66000 24.543
38.68000 23.521
38.70000 22.610
38.72000 25.645
38.74000 23.696
38.76000 24.939
38.78000 32.047
38.80000 34.417
38.82000 32.531
38.84000 33.154
38.86000 31.840
38.88000 37.294
38.90000 33.986
38.92000 34.258
38.94000 31.548
38.96000 38.194
38.98000 39.605
39.00000 42.939
39.02000 48.634
39.04000 43.657
39.06000 44.454
39.08000 48.074
39.10000 46.493
39.12000 49.324
39.14000 46.673
39.16000 57.189
39.18000 62.262
39.20000 62.181
39.22000 59.515
39.24000 56.413
39.26000 66.122
39.28000 62.994
39.30000 66.801
39.32000 73.395
39.34000 83.644
39.36000 81.792
39.38000 90.990
39.40000 95.745
39.42000 98.245
39.44000 101.429
39.46000 105.146
39.48000 107.220
39.50000 110.625
39.52000 119.360
39.54000 126.048
39.56000 127.439
39.58000 125.678
39.60000 141.315
39.62000 151.941
39.64000 151.187
39.66000 159.118
39.68000 168.205
39.70000 173.407
39.72000 179.288
39.74000 188.010
39.76000 199.945
39.78000 212.556
39.80000 221.329
39.82000 232.892
39.84000 240.999
39.86000 258.984
39.88000 260.870
39.90000 272.305
39.92000 290.612
39.94000 302.913
39.96000 313.247
39.98000 329.794
40.00000 345.676
40.02000 357.252
40.04000 375.214
40.06000 395.562
40.08000 417.008
40.10000 435.252
40.12000 457.418
40.14000 469.208
40.16000 489.690
40.18000 505.864
40.20000 513.735
40.22000 537.097
40.24000 550.116
40.26000 568.448
40.28000 595.086
40.30000 609.713
40.32000 619.138
40.34000 641.096
40.36000 651.476
40.38000 659.741
40.40000 671.437
40.42000 666.298
40.44000 674.172
40.46000 693.163
40.48000 694.283
40.50000 685.580
40.52000 693.228
40.54000 702.135
40.56000 694.448
40.58000 675.487
40.60000 664.584
40.62000 664.026
40.64000 665.030
40.66000 642.867
40.68000 628.258
40.70000 616.435
40.72000 599.568
40.74000 587.005
40.76000 580.005
40.78000 559.747
40.80000 543.698
40.82000 520.911
40.84000 498.705
40.86000 478.874
40.88000 463.201
40.90000 442.853
40.92000 421.841
40.94000 410.845
40.96000 386.201
40.98000 367.413
41.00000 346.439
41.02000 325.985
41.04000 300.969
41.06000 294.705
41.08000 285.053
41.10000 273.585
41.12000 259.712
41.14000 246.850
41.16000 236.136
41.18000 221.250
41.20000 202.804
41.22000 197.281
41.24000 187.969
41.26000 172.638
41.28000 162.199
41.30000 159.979
41.32000 156.453
41.34000 143.890
41.36000 132.043
41.38000 126.793
41.40000 119.293
41.42000 115.349
41.44000 109.238
41.46000 99.951
41.48000 96.028
41.50000 96.190
41.52000 90.309
41.54000 90.594
41.56000 82.934
41.58000 74.139
41.60000 68.599
41.62000 65.302
41.64000 65.800
41.66000 65.684
41.68000 61.725
41.70000 54.763
41.72000 51.717
41.74000 48.399
41.76000 45.673
41.78000 43.042
41.80000 43.905
41.82000 38.673
41.84000 39.326
41.86000 38.044
41.88000 36.112
41.90000 34.462
41.92000 36.602
41.94000 33.450
41.96000 28.255
41.98000 29.398
42.00000 26.285
42.02000 27.211
42.04000 24.251
42.06000 25.894
42.08000 21.202
42.10000 23.772
42.12000 21.117
42.14000 21.572
42.16000 19.880
42.18000 19.365
42.20000 16.436
42.22000 16.442
42.24000 10.757
42.26000 9.934
42.28000 9.385
42.30000 13.995
42.32000 13.905
42.34000 10.307
42.36000 10.497
42.38000 10.727
42.40000 13.619
42.42000 11.881
42.44000 10.709
42.46000 8.941
42.48000 7.510
42.50000 8.255
42.52000 11.160
42.54000 10.620
42.56000 10.050
42.58000 8.209
42.60000 5.381
42.62000 6.861
42.64000 2.851
42.66000 6.397
42.68000 6.610
42.70000 5.087
42.72000 0.336
42.74000 -1.516
42.76000 -0.697
42.78000 5.640
42.80000 6.072
42.82000 1.144
42.84000 1.414
42.86000 4.578
42.88000 7.296
42.90000 8.776
42.92000 6.213
42.94000 3.180
42.96000 5.397
42.98000 0.294
43.00000 -0.737
43.02000 -3.252
43.04000 0.359
43.06000 -1.553
43.08000 1.560
43.10000 2.783
43.12000 3.008
43.14000 2.887
43.16000 7.083
43.18000 0.943
43.20000 1.627
43.22000 5.528
43.24000 1.848
43.26000 -0.212
43.28000 -1.549
43.30000 1.584
43.32000 2.107
43.34000 3.746
43.36000 0.171
43.38000 1.368
43.40000 -3.572
43.42000 -0.713
43.44000 2.260
43.46000 2.878
43.48000 4.073
43.50000 0.341
43.52000 1.634
43.54000 2.335
43.56000 5.107
43.58000 3.604
43.60000 -1.892
43.62000 -3.549
43.64000 1.082
43.66000 3.486
43.68000 5.511
43.70000 6.313
43.72000 5.252
43.74000 5.775
43.76000 4.789
43.78000 3.882
43.80000 3.500
43.82000 4.675
43.84000 0.940
43.86000 1.073
43.88000 4.713
43.90000 4.878
43.92000 7.080
43.94000 4.246
43.96000 -1.909
43.98000 -3.539
44.00000 -1.590
44.02000 1.759
44.04000 1.802
44.06000 -1.562
44.08000 3.894
44.10000 4.574
44.12000 6.052
44.14000 5.332
44.16000 1.950
44.18000 4.861
44.20000 5.193
44.22000 2.847
44.24000 2.624
44.26000 1.698
44.28000 0.491
44.30000 -1.686
44.32000 -0.026
44.34000 6.133
44.36000 4.466
44.38000 -0.431
44.40000 -0.558
44.42000 -0.322
44.44000 -3.548
44.46000 -2.090
44.48000 3.669
44.50000 4.760
44.52000 -0.396
44.54000 1.610
44.56000 4.445
44.58000 4.690
44.60000 0.028
44.62000 5.379
44.64000 4.638
44.66000 4.094
44.68000 2.867
44.70000 -0.963
44.72000 0.687
44.74000 6.824
44.76000 4.443
44.78000 2.260
44.80000 1.222
44.82000 -0.972
44.84000 5.555
44.86000 6.374
44.88000 2.526
44.90000 -0.773
44.92000 -0.061
44.94000 0.113
44.96000 -1.660
44.98000 -0.483
45.00000 1.924
45.02000 1.098
45.04000 4.757
45.06000 5.529
45.08000 3.993
45.10000 -0.443
45.12000 3.796
45.14000 1.903
45.16000 1.781
45.18000 6.112
45.20000 7.840
45.22000 5.253
45.24000 5.754
45.26000 2.803
45.28000 7.603
45.30000 8.542
45.32000 7.247
45.34000 10.247
45.36000 6.526
45.38000 8.715
45.40000 9.867
45.42000 8.852
45.44000 3.380
45.46000 4.091
45.48000 9.081
45.50000 6.869
45.52000 8.044
45.54000 12.818
45.56000 11.439
45.58000 15.562
45.60000 17.264
45.62000 15.428
45.64000 12.287
45.66000 14.801
45.68000 14.565
45.70000 12.730
45.72000 11.593
45.74000 10.742
45.76000 17.020
45.78000 21.098
45.80000 15.577
45.82000 19.699
45.84000 20.071
45.86000 23.612
45.88000 20.715
45.90000 21.628
45.92000 17.844
45.94000 18.584
45.96000 27.296
45.98000 25.268
46.00000 28.567
46.02000 33.528
46.04000 27.901
46.06000 27.297
46.08000 26.996
46.10000 31.509
46.12000 36.227
46.14000 33.232
46.16000 40.170
46.18000 38.418
46.20000 40.172
46.22000 28.322
46.24000 33.740
46.26000 40.736
46.28000 42.196
46.30000 38.304
46.32000 43.847
46.34000 44.551
46.36000 42.028
46.38000 41.145
46.40000 42.292
46.42000 43.169
46.44000 49.530
46.46000 48.392
46.48000 50.290
46.50000 55.855
46.52000 55.785
46.54000 61.041
46.56000 59.066
46.58000 61.564
46.60000 60.549
46.62000 66.235
46.64000 59.025
46.66000 55.317
46.68000 61.963
46.70000 67.450
46.72000 63.652
46.74000 64.227
46.76000 70.686
46.78000 68.357
46.80000 67.653
46.82000 76.972
46.84000 78.258
46.86000 76.258
46.88000 74.718
46.90000 73.115
46.92000 80.715
46.94000 81.727
46.96000 80.670
46.98000 77.985
47.00000 78.503
47.02000 72.089
47.04000 77.120
47.06000 79.923
47.08000 81.583
47.10000 80.105
47.12000 82.166
47.14000 83.119
47.16000 81.410
47.18000 76.096
47.20000 78.303
47.22000 71.823
47.24000 75.156
47.26000 76.754
47.28000 73.902
47.30000 76.787
47.32000 69.502
47.34000 69.982
47.36000 71.764
47.38000 76.034
47.40000 69.514
47.42000 64.235
47.44000 61.116
47.46000 59.397
47.48000 67.851
47.50000 70.073
47.52000 58.410
47.54000 51.831
47.56000 55.752
47.58000 57.185
47.60000 63.571
47.62000 60.338
47.64000 48.611
47.66000 48.336
47.68000 46.111
47.70000 35.867
47.72000 37.685
47.74000 43.161
47.76000 41.866
47.78000 42.405
47.80000 43.540
47.82000 42.334
47.84000 35.344
47.86000 30.228
47.88000 35.674
47.90000 27.161
47.92000 20.752
47.94000 29.480
47.96000 25.788
47.98000 24.114
48.00000 25.280
48.02000 16.527
48.04000 20.369
48.06000 21.073
48.08000 20.362
48.10000 17.836
48.12000 22.257
48.14000 17.560
48.16000 10.964
48.18000 10.608
48.20000 10.750
48.22000 12.547
48.24000 16.664
48.26000 14.067
48.28000 8.962
48.30000 8.362
48.32000 7.140
48.34000 16.962
48.36000 18.662
48.38000 13.422
48.40000 13.139
48.42000 4.879
48.44000 6.244
48.46000 3.848
48.48000 5.819
48.50000 13.466
48.52000 8.797
48.54000 6.240
48.56000 5.600
48.58000 3.963
48.60000 1.811
48.62000 6.685
48.64000 7.739
48.66000 3.893
48.68000 6.513
48.70000 3.630
48.72000 -0.970
48.74000 5.633
48.76000 6.932
48.78000 3.382
48.80000 2.285
48.82000 3.299
48.84000 0.260
48.86000 3.195
48.88000 6.652
48.90000 1.488
48.92000 7.869
48.94000 7.053
48.96000 -3.243
48.98000 -0.292
49.00000 3.516
49.02000 -0.143
49.04000 -1.786
49.06000 -0.477
49.08000 2.669
49.10000 0.460
49.12000 1.499
49.14000 3.354
49.16000 -1.492
49.18000 0.955
49.20000 -1.242
49.22000 -0.311
49.24000 4.836
49.26000 4.935
49.28000 1.790
49.30000 3.864
49.32000 2.850
49.34000 4.610
49.36000 4.531
49.38000 -0.225
49.40000 -1.104
49.42000 -3.088
49.44000 1.073
49.46000 7.341
49.48000 6.284
49.50000 1.505
49.52000 -2.554
49.54000 0.716
49.56000 -1.086
49.58000 -1.745
49.60000 1.884
49.62000 0.870
49.64000 3.341
49.66000 -0.934
49.68000 1.108
49.70000 4.694
49.72000 6.698
49.74000 1.680
49.76000 1.628
49.78000 0.220
49.80000 2.070
49.82000 1.919
49.84000 1.760
49.86000 5.389
49.88000 3.291
49.90000 3.353
49.92000 -0.506
49.94000 0.198
49.96000 6.146
49.98000 5.261
50.00000 -1.306
50.02000 -3.081
50.04000 1.955
50.06000 -2.755
50.08000 -0.511
50.10000 -0.039
50.12000 0.686
50.14000 3.274
50.16000 3.289
50.18000 4.317
50.20000 6.881
50.22000 2.801
50.24000 4.238
50.26000 4.788
50.28000 4.106
50.30000 0.689
50.32000 -2.351
50.34000 -0.016
50.36000 -1.332
50.38000 4.172
50.40000 2.433
50.42000 3.387
50.44000 2.515
50.46000 2.138
50.48000 6.468
50.50000 5.211
50.52000 6.827
50.54000 6.431
50.56000 9.878
50.58000 7.715
50.60000 2.430
50.62000 -1.316
50.64000 0.951
50.66000 3.492
50.68000 1.506
50.70000 6.656
50.72000 2.731
50.74000 4.836
50.76000 4.955
50.78000 4.225
50.80000 6.925
50.82000 3.423
50.84000 -1.287
50.86000 6.758
50.88000 3.743
50.90000 3.947
50.92000 4.626
50.94000 0.196
50.96000 2.817
50.98000 10.112
51.00000 13.277
51.02000 9.173
51.04000 6.916
51.06000 8.006
51.08000 4.888
51.10000 8.688
51.12000 7.258
51.14000 4.484
51.16000 0.507
51.18000 -0.575
51.20000 -3.005
51.22000 3.009
51.24000 3.811
51.26000 4.198
51.28000 7.678
51.30000 6.530
51.32000 7.460
51.34000 6.497
51.36000 7.724
51.38000 4.751
51.40000 7.561
51.42000 5.649
51.44000 4.745
51.46000 6.045
51.48000 6.188
51.50000 3.852
51.52000 -1.129
51.54000 -0.866
51.56000 2.453
51.58000 4.321
51.60000 7.856
51.62000 4.714
51.64000 7.439
51.66000 5.188
51.68000 6.998
51.70000 9.008
51.72000 9.335
51.74000 4.857
51.76000 7.254
51.78000 6.716
51.80000 2.325
51.82000 4.225
51.84000 7.703
51.86000 9.229
51.88000 7.425
51.90000 14.409
51.92000 8.785
51.94000 4.744
51.96000 3.648
51.98000 9.866
52.00000 11.738
52.02000 10.151
52.04000 7.719
52.06000 6.221
52.08000 5.537
52.10000 6.105
52.12000 6.446
52.14000 8.368
52.16000 6.606
52.18000 9.087
52.20000 6.846
52.22000 4.446
52.24000 -1.202
52.26000 1.188
52.28000 4.025
52.30000 5.825
52.32000 4.056
52.34000 7.027
52.36000 11.183
52.38000 7.257
52.40000 3.348
52.42000 -2.931
52.44000 4.298
52.46000 4.128
52.48000 5.566
52.50000 4.655
52.52000 4.937
52.54000 6.459
52.56000 6.855
52.58000 3.553
52.60000 1.039
52.62000 9.348
52.64000 12.526
52.66000 6.561
52.68000 -0.252
52.70000 -2.274
52.72000 7.479
52.74000 6.005
52.76000 2.927
52.78000 -0.655
52.80000 -2.907
52.82000 0.009
52.84000 1.463
52.86000 2.467
52.88000 6.282
52.90000 3.698
52.92000 9.473
52.94000 7.172
52.96000 4.054
52.98000 4.871
53.00000 3.998
53.02000 6.081
53.04000 4.944
53.06000 3.167
53.08000 4.123
53.10000 4.406
53.12000 1.987
53.14000 5.286
53.16000 9.938
53.18000 2.243
53.20000 3.693
53.22000 5.054
53.24000 -0.017
53.26000 -0.919
53.28000 4.092
53.30000 5.582
53.32000 7.575
53.34000 5.428
53.36000 4.253
53.38000 1.880
53.40000 -0.924
53.42000 1.772
53.44000 7.832
53.46000 1.720
53.48000 -1.507
53.50000 -1.057
53.52000 3.434
53.54000 6.602
53.56000 5.692
53.58000 3.124
53.60000 -0.052
53.62000 3.694
53.64000 5.890
53.66000 4.639
53.68000 6.111
53.70000 6.831
53.72000 8.442
53.74000 0.811
53.76000 1.629
53.78000 1.656
53.80000 1.117
53.82000 2.823
53.84000 -0.147
53.86000 1.593
53.88000 4.335
53.90000 4.909
53.92000 3.237
53.94000 -1.752
53.96000 -0.467
53.98000 -0.120
54.00000 1.425
54.02000 -2.280
54.04000 0.051
54.06000 4.386
54.08000 0.089
54.10000 1.451
54.12000 2.087
54.14000 1.790
54.16000 4.466
54.18000 4.672
54.20000 5.600
54.22000 3.505
54.24000 3.367
54.26000 3.214
54.28000 0.129
54.30000 0.254
54.32000 -1.535
54.34000 0.085
54.36000 3.295
54.38000 0.885
54.40000 5.304
54.42000 2.425
54.44000 8.720
54.46000 4.892
54.48000 3.486
54.50000 1.679
54.52000 4.462
54.54000 5.807
54.56000 0.011
54.58000 1.329
54.60000 1.060
54.62000 -0.936
54.64000 -2.366
54.66000 3.174
54.68000 8.719
54.70000 3.859
54.72000 2.754
54.74000 8.543
54.76000 8.962
54.78000 6.139
54.80000 3.848
54.82000 -2.885
54.84000 -0.732
54.86000 4.411
54.88000 4.296
54.90000 2.923
54.92000 0.629
54.94000 7.349
54.96000 5.471
54.98000 7.316
55.00000 7.808
55.02000 8.595
55.04000 4.035
55.06000 2.083
55.08000 -0.222
55.10000 4.282
55.12000 8.665
55.14000 10.516
55.16000 10.098
55.18000 8.882
55.20000 11.192
55.22000 7.531
55.24000 0.894
55.26000 -1.130
55.28000 -2.875
55.30000 -2.368
55.32000 2.149
55.34000 6.986
55.36000 5.893
55.38000 3.282
55.40000 4.335
55.42000 3.015
55.44000 2.851
55.46000 0.401
55.48000 1.241
55.50000 2.766
55.52000 -0.280
55.54000 7.760
55.56000 3.893
55.58000 6.161
55.60000 3.451
55.62000 11.119
55.64000 7.189
55.66000 7.726
55.68000 5.610
55.70000 4.864
55.72000 4.850
55.74000 4.805
55.76000 4.143
55.78000 3.114
55.80000 1.066
55.82000 0.089
55.84000 0.966
55.86000 0.290
55.88000 1.662
55.90000 5.860
55.92000 6.042
55.94000 3.729
55.96000 1.738
55.98000 4.236
56.00000 3.302
56.02000 1.025
56.04000 1.555
56.06000 4.564
56.08000 7.763
56.10000 5.648
56.12000 6.099
56.14000 3.214
56.16000 3.365
56.18000 6.142
56.20000 4.992
56.22000 5.605
56.24000 8.712
56.26000 5.963
56.28000 3.904
56.30000 2.242
56.32000 4.030
56.34000 2.505
56.36000 3.100
56.38000 5.124
56.40000 6.621
56.42000 6.646
56.44000 0.882
56.46000 1.112
56.48000 0.314
56.50000 1.586
56.52000 0.208
56.54000 5.184
56.56000 9.581
56.58000 10.054
56.60000 6.966
56.62000 1.008
56.64000 -0.944
56.66000 9.817
56.68000 6.801
56.70000 -1.986
56.72000 3.298
56.74000 4.101
56.76000 2.107
56.78000 3.795
56.80000 5.237
56.82000 5.440
56.84000 3.836
56.86000 5.483
56.88000 7.484
56.90000 3.785
56.92000 3.318
56.94000 1.338
56.96000 2.092
56.98000 4.469
57.00000 6.675
57.02000 4.698
57.04000 1.119
57.06000 -2.819
57.08000 2.720
57.10000 3.868
57.12000 8.646
57.14000 7.297
57.16000 5.339
57.18000 2.750
57.20000 3.231
57.22000 4.831
57.24000 5.504
57.26000 4.727
57.28000 7.674
57.30000 6.323
57.32000 6.074
57.34000 9.548
57.36000 9.404
57.38000 2.615
57.40000 -1.032
57.42000 -1.041
57.44000 2.773
57.46000 2.219
57.48000 -0.755
57.50000 5.259
57.52000 7.052
57.54000 6.476
57.56000 7.868
57.58000 6.930
57.60000 5.271
57.62000 7.058
57.64000 3.020
57.66000 5.718
57.68000 5.821
57.70000 4.448
57.72000 0.140
57.74000 -0.480
57.76000 -0.859
57.78000 0.612
57.80000 2.866
57.82000 2.784
57.84000 7.618
57.86000 1.417
57.88000 0.441
57.90000 1.688
57.92000 5.749
57.94000 9.186
57.96000 6.610
57.98000 4.331
58.00000 0.542
58.02000 1.552
58.04000 0.007
58.06000 4.749
58.08000 7.148
58.10000 1.974
58.12000 4.896
58.14000 11.797
58.16000 6.989
58.18000 7.052
58.20000 6.083
58.22000 4.396
58.24000 0.716
58.26000 0.007
58.28000 0.046
58.30000 4.427
58.32000 9.815
58.34000 11.968
58.36000 4.926
58.38000 5.597
58.40000 -0.256
58.42000 -0.996
58.44000 2.544
58.46000 -0.723
58.48000 1.657
58.50000 0.705
58.52000 2.020
58.54000 8.460
58.56000 4.466
58.58000 -2.754
58.60000 0.578
58.62000 3.499
58.64000 8.288
58.66000 1.014
58.68000 -0.503
58.70000 5.975
58.72000 2.217
58.74000 5.538
58.76000 5.255
58.78000 5.032
58.80000 7.183
58.82000 4.220
58.84000 7.787
58.86000 6.003
58.88000 7.019
58.90000 4.427
58.92000 4.005
58.94000 5.879
58.96000 7.561
58.98000 6.309
59.00000 8.121
59.02000 3.504
59.04000 7.225
59.06000 5.948
59.08000 4.408
59.10000 5.227
59.12000 0.957
59.14000 -0.878
59.16000 2.240
59.18000 5.749
59.20000 -0.682
59.22000 3.555
59.24000 6.599
59.26000 9.712
59.28000 4.304
59.30000 2.772
59.32000 1.559
59.34000 1.747
59.36000 0.502
59.38000 1.491
59.40000 2.853
59.42000 1.472
59.44000 -0.696
59.46000 -0.519
59.48000 1.797
59.50000 6.835
59.52000 5.467
59.54000 4.346
59.56000 -1.348
59.58000 0.460
59.60000 -1.647
59.62000 1.224
59.64000 7.266
59.66000 12.402
59.68000 4.145
59.70000 2.131
59.72000 1.053
59.74000 -1.553
59.76000 -2.738
59.78000 -1.901
59.80000 2.381
59.82000 -0.400
59.84000 -1.083
59.86000 0.117
59.88000 5.506
59.90000 4.354
59.92000 6.032
59.94000 2.198
59.96000 1.028
59.98000 3.933
60.00000 2.692
60.02000 1.697
60.04000 3.895
60.06000 3.326
60.08000 3.124
60.10000 5.253
60.12000 6.803
60.14000 4.573
60.16000 4.857
60.18000 1.952
60.20000 3.472
60.22000 6.118
60.24000 4.187
60.26000 4.038
60.28000 2.666
60.30000 -0.085
60.32000 3.526
60.34000 3.869
60.36000 4.855
60.38000 1.584
60.40000 3.588
60.42000 2.726
60.44000 -0.747
60.46000 -0.230
60.48000 0.793
60.50000 -1.223
60.52000 2.056
60.54000 2.836
60.56000 -1.947
60.58000 3.705
60.60000 3.104
60.62000 -0.814
60.64000 0.542
60.66000 2.099
60.68000 0.226
60.70000 -1.937
60.72000 0.466
60.74000 1.623
60.76000 0.117
60.78000 3.056
60.80000 2.687
60.82000 4.281
60.84000 4.571
60.86000 -0.365
60.88000 -0.586
60.90000 -0.499
60.92000 -0.432
60.94000 0.374
60.96000 -0.645
60.98000 -2.456
61.00000 -2.714
61.02000 4.372
61.04000 5.799
61.06000 2.576
61.08000 -1.358
61.10000 3.516
61.12000 6.428
61.14000 3.694
61.16000 1.182
61.18000 1.426
61.20000 6.237
61.22000 2.029
61.24000 3.954
61.26000 2.549
61.28000 5.943
61.30000 6.508
61.32000 4.732
61.34000 4.094
61.36000 3.317
61.38000 4.856
61.40000 3.755
61.42000 7.430
61.44000 10.750
61.46000 7.485
61.48000 5.498
61.50000 3.884
61.52000 -1.001
61.54000 3.972
61.56000 3.009
61.58000 2.151
61.60000 3.836
61.62000 4.568
61.64000 9.002
61.66000 7.927
61.68000 8.450
61.70000 5.271
61.72000 -2.671
61.74000 0.042
61.76000 4.515
61.78000 0.494
61.80000 0.317
61.82000 2.355
61.84000 6.244
61.86000 -0.384
61.88000 2.873
61.90000 1.565
61.92000 -0.832
61.94000 1.700
61.96000 5.567
61.98000 5.548
62.00000 5.341
62.02000 6.390
62.04000 2.870
62.06000 -1.228
62.08000 -1.746
62.10000 0.600
62.12000 1.264
62.14000 2.753
62.16000 1.621
62.18000 -2.671
62.20000 2.952
62.22000 5.183
62.24000 6.471
62.26000 2.614
62.28000 -0.096
62.30000 3.101
62.32000 1.192
62.34000 4.458
62.36000 4.490
62.38000 0.530
62.40000 1.773
62.42000 2.084
62.44000 1.789
62.46000 0.235
62.48000 2.905
62.50000 1.196
62.52000 2.241
62.54000 3.301
62.56000 4.992
62.58000 7.251
62.60000 4.414
62.62000 3.781
62.64000 1.530
62.66000 1.420
62.68000 3.972
62.70000 3.655
62.72000 3.762
62.74000 2.814
62.76000 2.697
62.78000 5.965
62.80000 5.440
62.82000 -1.671
62.84000 1.271
62.86000 2.910
62.88000 2.150
62.90000 5.951
62.92000 4.203
62.94000 1.789
62.96000 5.487
62.98000 4.745
63.00000 3.696
63.02000 3.785
63.04000 1.652
63.06000 5.137
63.08000 6.029
63.10000 1.311
63.12000 2.367
63.14000 3.171
63.16000 -1.057
63.18000 -0.398
63.20000 2.405
63.22000 3.710
63.24000 4.349
63.26000 -0.425
63.28000 1.261
63.30000 4.930
63.32000 3.033
63.34000 4.853
63.36000 4.907
63.38000 0.839
63.40000 -0.424
63.42000 1.520
63.44000 0.287
63.46000 0.857
63.48000 0.031
63.50000 -2.661
63.52000 -0.142
63.54000 2.536
63.56000 3.755
63.58000 0.562
63.60000 0.772
63.62000 6.253
63.64000 5.497
63.66000 1.023
63.68000 -0.553
63.70000 2.258
63.72000 0.135
63.74000 0.703
63.76000 3.172
63.78000 4.381
63.80000 5.023
63.82000 3.935
63.84000 1.115
63.86000 4.630
63.88000 4.920
63.90000 1.678
63.92000 -1.987
63.94000 -0.747
63.96000 2.258
63.98000 6.868
64.00000 5.139
64.02000 8.974
64.04000 8.965
64.06000 5.153
64.08000 6.029
64.10000 4.757
64.12000 5.745
64.14000 4.201
64.16000 3.889
64.18000 2.813
64.20000 5.194
64.22000 7.892
64.24000 8.009
64.26000 3.260
64.28000 2.765
64.30000 3.186
64.32000 0.495
64.34000 -1.965
64.36000 -0.351
64.38000 2.267
64.40000 4.109
64.42000 1.417
64.44000 -0.089
64.46000 -2.455
64.48000 -1.457
64.50000 -0.075
64.52000 2.533
64.54000 1.960
64.56000 1.991
64.58000 3.630
64.60000 1.268
64.62000 -0.799
64.64000 2.647
64.66000 2.224
64.68000 3.764
64.70000 8.216
64.72000 8.159
64.74000 8.551
64.76000 1.028
64.78000 -2.370
64.80000 -1.166
64.82000 -2.670
64.84000 1.523
64.86000 2.377
64.88000 3.442
64.90000 2.354
64.92000 0.495
64.94000 -1.360
64.96000 -0.082
64.98000 5.216
65.00000 5.397
65.02000 5.056
65.04000 5.530
65.06000 4.314
65.08000 4.071
65.10000 4.430
65.12000 6.299
65.14000 5.133
65.16000 2.598
65.18000 7.510
65.20000 3.423
65.22000 2.319
65.24000 2.450
65.26000 2.375
65.28000 3.645
65.30000 1.083
65.32000 4.318
65.34000 3.391
65.36000 5.710
65.38000 6.358
65.40000 6.888
65.42000 -0.478
65.44000 -0.960
65.46000 -1.783
65.48000 -2.091
65.50000 -1.269
65.52000 1.778
65.54000 -1.208
65.56000 2.901
65.58000 0.443
65.60000 1.881
65.62000 2.722
65.64000 1.600
65.66000 -0.151
65.68000 0.874
65.70000 -1.265
65.72000 -1.961
65.74000 -2.704
65.76000 -1.541
65.78000 -1.013
65.80000 -2.069
65.82000 0.757
65.84000 2.557
65.86000 2.657
65.88000 -1.913
65.90000 1.773
65.92000 4.475
65.94000 4.393
65.96000 -1.108
65.98000 -2.618
66.00000 -0.995
66.02000 3.809
66.04000 0.746
66.06000 -0.706
66.08000 5.419
66.10000 1.645
66.12000 -1.995
66.14000 -1.377
66.16000 -0.230
66.18000 4.745
66.20000 3.108
66.22000 1.003
66.24000 -0.128
66.26000 -2.540
66.28000 -2.715
66.30000 1.370
66.32000 5.976
66.34000 5.473
66.36000 2.646
66.38000 6.520
66.40000 5.201
66.42000 1.985
66.44000 2.228
66.46000 4.075
66.48000 2.640
66.50000 0.260
66.52000 2.641
66.54000 2.210
66.56000 4.986
66.58000 2.800
66.60000 4.156
66.62000 2.538
66.64000 -0.566
66.66000 -0.908
66.68000 1.102
66.70000 1.139
66.72000 3.657
66.74000 4.854
66.76000 5.764
66.78000 1.990
66.80000 5.046
66.82000 3.011
66.84000 0.164
66.86000 4.261
66.88000 3.149
66.90000 1.524
66.92000 0.128
66.94000 0.482
66.96000 -2.739
66.98000 -2.740
67.00000 3.916
67.02000 9.182
67.04000 8.359
67.06000 3.582
67.08000 -1.502
67.10000 0.759
67.12000 3.864
67.14000 5.923
67.16000 3.587
67.18000 3.128
67.20000 4.445
67.22000 3.251
67.24000 1.532
67.26000 3.655
67.28000 4.933
67.30000 4.551
67.32000 4.867
67.34000 5.882
67.36000 10.491
67.38000 6.362
67.40000 0.819
67.42000 3.220
67.44000 4.997
67.46000 6.626
67.48000 7.090
67.50000 7.850
67.52000 6.259
67.54000 4.422
67.56000 5.596
67.58000 9.321
67.60000 9.461
67.62000 8.593
67.64000 6.546
67.66000 6.696
67.68000 6.270
67.70000 10.131
67.72000 10.660
67.74000 9.806
67.76000 9.750
67.78000 12.532
67.80000 8.814
67.82000 7.661
67.84000 11.207
67.86000 12.088
67.88000 8.796
67.90000 11.224
67.92000 11.916
67.94000 11.380
67.96000 8.915
67.98000 8.553
68.00000 9.582
68.02000 10.622
68.04000 15.091
68.06000 15.913
68.08000 19.622
68.10000 19.718
68.12000 20.025
68.14000 20.257
68.16000 18.477
68.18000 16.263
68.20000 16.346
68.22000 17.682
68.24000 19.868
68.26000 24.271
68.28000 20.776
68.30000 14.094
68.32000 14.552
68.34000 21.369
68.36000 18.987
68.38000 20.187
68.40000 23.434
68.42000 27.134
68.44000 28.302
68.46000 30.657
68.48000 24.773
68.50000 23.913
68.52000 24.950
68.54000 30.021
68.56000 29.299
68.58000 28.658
68.60000 31.378
68.62000 33.905
68.64000 27.545
68.66000 27.879
68.68000 31.923
68.70000 31.147
68.72000 32.345
68.74000 33.045
68.76000 26.947
68.78000 28.245
68.80000 30.298
68.82000 29.188
68.84000 29.346
68.86000 29.823
68.88000 33.660
68.90000 35.756
68.92000 34.509
68.94000 33.638
68.96000 29.334
68.98000 24.353
69.00000 28.580
69.02000 29.601
69.04000 26.504
69.06000 34.744
69.08000 37.444
69.10000 28.613
69.12000 30.072
69.14000 24.489
69.16000 26.762
69.18000 29.617
69.20000 27.129
69.22000 23.253
69.24000 25.418
69.26000 27.657
69.28000 28.496
69.30000 28.204
69.32000 23.151
69.34000 18.823
69.36000 23.623
69.38000 23.273
69.40000 18.870
69.42000 20.643
69.44000 19.317
69.46000 15.839
69.48000 18.597
69.50000 22.604
69.52000 22.881
69.54000 20.727
69.56000 19.224
69.58000 15.801
69.60000 16.636
69.62000 13.254
69.64000 14.260
69.66000 12.576
69.68000 8.149
69.70000 9.729
69.72000 10.817
69.74000 8.958
69.76000 10.294
69.78000 10.221
69.80000 12.894
69.82000 13.888
69.84000 14.945
69.86000 12.311
69.88000 8.982
69.90000 4.203
69.92000 2.563
69.94000 6.582
69.96000 7.295
69.98000 8.060
70.00000 9.010
70.02000 8.375
70.04000 3.621
70.06000 -2.125
70.08000 2.439
70.10000 2.626
70.12000 -0.358
70.14000 -0.701
70.16000 3.832
70.18000 5.249
70.20000 4.842
70.22000 2.853
70.24000 2.530
70.26000 8.779
70.28000 1.503
70.30000 1.247
70.32000 0.133
70.34000 3.394
70.36000 2.653
70.38000 0.868
70.40000 3.811
70.42000 5.167
70.44000 6.135
70.46000 1.390
70.48000 3.900
70.50000 3.940
70.52000 3.354
70.54000 0.925
70.56000 -1.190
70.58000 2.806
70.60000 6.403
70.62000 1.977
70.64000 0.553
70.66000 -2.618
70.68000 1.356
70.70000 3.306
70.72000 2.370
70.74000 5.435
70.76000 5.340
70.78000 2.261
70.80000 3.108
70.82000 4.173
70.84000 0.753
70.86000 0.721
70.88000 3.626
70.90000 4.181
70.92000 1.497
70.94000 -0.474
70.96000 0.179
70.98000 3.103
71.00000 2.821
71.02000 0.346
71.04000 2.579
71.06000 3.258
71.08000 2.093
71.10000 1.359
71.12000 1.786
71.14000 4.718
71.16000 2.943
71.18000 0.730
71.20000 3.545
71.22000 7.220
71.24000 8.544
71.26000 8.437
71.28000 5.627
71.30000 2.035
71.32000 1.808
71.34000 0.156
71.36000 3.186
71.38000 1.152
71.40000 -0.885
71.42000 1.494
71.44000 -1.683
71.46000 -2.555
71.48000 -1.231
71.50000 3.822
71.52000 7.664
71.54000 6.333
71.56000 5.588
71.58000 5.680
71.60000 1.991
71.62000 -0.158
71.64000 0.908
71.66000 3.119
71.68000 1.559
71.70000 3.685
71.72000 -0.853
71.74000 -1.993
71.76000 -2.099
71.78000 0.593
71.80000 1.752
71.82000 6.119
71.84000 7.762
71.86000 3.106
71.88000 2.247
71.90000 2.221
71.92000 2.440
71.94000 5.267
71.96000 1.994
71.98000 3.154
72.00000 3.172
72.02000 0.325
72.04000 0.162
72.06000 -0.702
72.08000 -0.202
72.10000 0.873
72.12000 -0.378
72.14000 -2.208
72.16000 -1.799
72.18000 1.434
72.20000 3.133
72.22000 3.185
72.24000 3.900
72.26000 6.302
72.28000 9.052
72.30000 5.229
72.32000 -0.063
72.34000 3.041
72.36000 1.589
72.38000 6.222
72.40000 5.917
72.42000 2.334
72.44000 5.433
72.46000 5.372
72.48000 -0.581
72.50000 -2.491
72.52000 1.295
72.54000 2.665
72.56000 6.291
72.58000 7.991
72.60000 8.533
72.62000 1.811
72.64000 -0.090
72.66000 0.162
72.68000 2.380
72.70000 2.763
72.72000 8.402
72.74000 3.678
72.76000 3.103
72.78000 9.205
72.80000 1.606
72.82000 -0.596
72.84000 -1.434
72.86000 4.199
72.88000 8.777
72.90000 10.554
72.92000 6.904
72.94000 4.593
72.96000 5.653
72.98000 2.599
73.00000 0.843
73.02000 4.640
73.04000 5.199
73.06000 4.609
73.08000 3.435
73.10000 3.495
73.12000 1.432
73.14000 0.585
73.16000 1.459
73.18000 4.916
73.20000 3.054
73.22000 0.728
73.24000 0.060
73.26000 1.231
73.28000 -0.298
73.30000 1.025
73.32000 -0.393
73.34000 0.957
73.36000 -1.193
73.38000 -2.005
73.40000 3.601
73.42000 8.359
73.44000 7.820
73.46000 0.176
73.48000 -2.141
73.50000 -0.024
73.52000 0.146
73.54000 2.515
73.56000 3.484
73.58000 5.297
73.60000 6.644
73.62000 5.728
73.64000 4.150
73.66000 0.809
73.68000 3.347
73.70000 2.415
73.72000 -0.769
73.74000 0.395
73.76000 2.030
73.78000 -0.706
73.80000 1.279
73.82000 5.254
73.84000 1.560
73.86000 4.067
73.88000 2.998
73.90000 4.293
73.92000 3.811
73.94000 6.543
73.96000 8.359
73.98000 1.526
74.00000 -2.320
74.02000 -2.299
74.04000 3.135
74.06000 5.703
74.08000 2.983
74.10000 7.073
74.12000 1.636
74.14000 3.758
74.16000 5.176
74.18000 1.681
74.20000 1.830
74.22000 1.486
74.24000 0.863
74.26000 -2.463
74.28000 3.235
74.30000 4.872
74.32000 0.468
74.34000 1.580
74.36000 -2.465
74.38000 4.440
74.40000 5.740
74.42000 3.835
74.44000 3.890
74.46000 2.196
74.48000 5.123
74.50000 1.766
74.52000 -2.454
74.54000 -0.081
74.56000 5.110
74.58000 3.253
74.60000 7.359
74.62000 5.961
74.64000 5.610
74.66000 4.750
74.68000 3.400
74.70000 0.927
74.72000 1.865
74.74000 0.648
74.76000 2.362
74.78000 2.183
74.80000 2.060
74.82000 1.525
74.84000 2.021
74.86000 5.218
74.88000 7.019
74.90000 1.862
74.92000 0.370
74.94000 3.742
74.96000 5.245
74.98000 4.910
75.00000 5.190
75.02000 3.715
75.04000 0.263
75.06000 1.690
75.08000 3.092
75.10000 1.398
75.12000 1.900
75.14000 8.893
75.16000 7.320
75.18000 2.688
75.20000 3.508
75.22000 -0.404
75.24000 -0.484
75.26000 2.074
75.28000 0.589
75.30000 -2.467
75.32000 2.333
75.34000 -1.497
75.36000 3.955
75.38000 11.612
75.40000 8.313
75.42000 3.807
75.44000 3.522
75.46000 0.960
75.48000 -0.138
75.50000 3.438
75.52000 0.784
75.54000 -2.016
75.56000 -1.165
75.58000 4.847
75.60000 0.049
75.62000 0.216
75.64000 3.274
75.66000 -0.243
75.68000 -2.482
75.70000 4.015
75.72000 6.366
75.74000 4.690
75.76000 3.361
75.78000 2.387
75.80000 2.709
75.82000 3.273
75.84000 3.083
75.86000 3.756
75.88000 2.825
75.90000 3.623
75.92000 2.860
75.94000 5.771
75.96000 2.490
75.98000 -2.127
76.00000 0.089
76.02000 3.600
76.04000 2.471
76.06000 3.155
76.08000 2.222
76.10000 0.938
76.12000 2.093
76.14000 0.121
76.16000 1.892
76.18000 3.682
76.20000 1.849
76.22000 1.533
76.24000 1.839
76.26000 -2.493
76.28000 1.975
76.30000 3.418
76.32000 1.121
76.34000 3.215
76.36000 3.807
76.38000 -0.796
76.40000 3.487
76.42000 1.003
76.44000 2.873
76.46000 3.276
76.48000 1.273
76.50000 -1.887
76.52000 -2.493
76.54000 -2.206
76.56000 1.708
76.58000 2.169
76.60000 3.646
76.62000 2.678
76.64000 2.310
76.66000 2.473
76.68000 4.673
76.70000 2.703
76.72000 3.094
76.74000 2.245
76.76000 6.401
76.78000 7.269
76.80000 9.359
76.82000 7.566
76.84000 6.445
76.86000 2.886
76.88000 3.834
76.90000 4.000
76.92000 1.694
76.94000 3.285
76.96000 2.456
76.98000 2.590
77.00000 4.679
77.02000 -0.920
77.04000 2.639
77.06000 3.747
77.08000 5.205
77.10000 -0.125
77.12000 1.867
77.14000 6.790
77.16000 5.047
77.18000 5.985
77.20000 8.440
77.22000 6.282
77.24000 2.818
77.26000 -1.746
77.28000 2.596
77.30000 2.444
77.32000 3.459
77.34000 1.848
77.36000 0.633
77.38000 1.489
77.40000 1.216
77.42000 5.042
77.44000 3.267
77.46000 0.316
77.48000 5.886
77.50000 7.918
77.52000 6.657
77.54000 5.520
77.56000 6.083
77.58000 5.901
77.60000 7.037
77.62000 0.659
77.64000 6.470
77.66000 6.020
77.68000 8.428
77.70000 6.220
77.72000 6.156
77.74000 5.355
77.76000 4.230
77.78000 -2.443
77.80000 4.880
77.82000 5.975
77.84000 6.667
77.86000 7.814
77.88000 4.900
77.90000 5.389
77.92000 5.858
77.94000 4.239
77.96000 3.230
77.98000 10.877
78.00000 12.967
78.02000 6.222
78.04000 6.489
78.06000 11.302
78.08000 9.818
78.10000 6.981
78.12000 1.690
78.14000 3.334
78.16000 2.337
78.18000 2.043
78.20000 6.692
78.22000 10.084
78.24000 8.215
78.26000 6.614
78.28000 4.539
78.30000 1.468
78.32000 0.053
78.34000 3.097
78.36000 5.471
78.38000 9.109
78.40000 11.672
78.42000 5.848
78.44000 6.179
78.46000 2.846
78.48000 -0.832
78.50000 4.621
78.52000 4.365
78.54000 4.435
78.56000 5.557
78.58000 4.036
78.60000 1.644
78.62000 2.390
78.64000 2.246
78.66000 2.962
78.68000 -0.191
78.70000 0.962
78.72000 2.546
78.74000 4.924
78.76000 2.979
78.78000 2.101
78.80000 -1.640
78.82000 2.021
78.84000 2.616
78.86000 3.737
78.88000 5.678
78.90000 4.719
78.92000 4.314
78.94000 4.894
78.96000 3.974
78.98000 -0.443
79.00000 -2.504
79.02000 1.566
79.04000 1.877
79.06000 4.402
79.08000 6.972
79.10000 9.501
79.12000 9.164
79.14000 4.206
79.16000 5.870
79.18000 2.098
79.20000 4.522
79.22000 3.589
79.24000 -0.830
79.26000 2.255
79.28000 -0.215
79.30000 3.723
79.32000 6.089
79.34000 6.837
79.36000 6.126
79.38000 9.944
79.40000 8.270
79.42000 2.987
79.44000 4.051
79.46000 4.448
79.48000 5.649
79.50000 3.517
79.52000 5.612
79.54000 2.932
79.56000 4.832
79.58000 2.745
79.60000 6.639
79.62000 8.164
79.64000 5.381
79.66000 5.019
79.68000 3.866
79.70000 10.020
79.72000 5.299
79.74000 0.090
79.76000 3.246
79.78000 3.864
79.80000 2.501
79.82000 -2.563
79.84000 1.858
79.86000 2.968
79.88000 -0.044
79.90000 4.341
79.92000 2.154
79.94000 3.706
79.96000 0.410
79.98000 4.228
80.00000 8.613
80.02000 9.821
80.04000 4.727
80.06000 0.677
80.08000 1.519
80.10000 4.917
80.12000 7.317
80.14000 6.740
80.16000 3.938
80.18000 0.186
80.20000 -2.583
80.22000 3.310
80.24000 7.346
80.26000 11.047
80.28000 6.546
80.30000 7.596
80.32000 1.882
80.34000 2.690
80.36000 0.586
80.38000 0.569
80.40000 -1.013
80.42000 3.084
80.44000 3.841
80.46000 5.532
80.48000 3.972
80.50000 7.975
80.52000 7.543
80.54000 -2.597
80.56000 0.817
80.58000 2.710
80.60000 3.749
80.62000 6.693
80.64000 4.101
80.66000 3.372
80.68000 0.262
80.70000 3.074
80.72000 3.259
80.74000 2.027
80.76000 5.263
80.78000 4.082
80.80000 -1.090
80.82000 2.714
80.84000 6.978
80.86000 3.500
80.88000 7.937
80.90000 2.905
80.92000 2.688
80.94000 8.179
80.96000 8.706
80.98000 8.047
81.00000 -2.073
81.02000 -2.309
81.04000 0.922
81.06000 -1.794
81.08000 -0.161
81.10000 1.093
81.12000 0.999
81.14000 -1.191
81.16000 5.705
81.18000 7.611
81.20000 4.598
81.22000 0.309
81.24000 1.355
81.26000 3.795
81.28000 3.684
81.30000 3.248
81.32000 -1.168
81.34000 0.853
81.36000 4.525
81.38000 5.752
81.40000 4.657
81.42000 5.569
81.44000 0.445
81.46000 2.920
81.48000 1.371
81.50000 5.134
81.52000 8.456
81.54000 6.315
81.56000 7.786
81.58000 4.924
81.60000 2.756
81.62000 1.856
81.64000 1.296
81.66000 2.432
81.68000 2.969
81.70000 9.478
81.72000 7.243
81.74000 6.224
81.76000 5.091
81.78000 3.431
81.80000 3.779
81.82000 7.621
81.84000 8.441
81.86000 9.740
81.88000 5.124
81.90000 4.544
81.92000 10.137
81.94000 6.817
81.96000 1.944
81.98000 9.964
82.00000 14.501
82.02000 12.947
82.04000 6.715
82.06000 6.546
82.08000 10.389
82.10000 14.677
82.12000 13.393
82.14000 17.235
82.16000 16.277
82.18000 11.224
82.20000 13.604
82.22000 11.813
82.24000 15.059
82.26000 17.195
82.28000 13.641
82.30000 5.463
82.32000 8.954
82.34000 16.805
82.36000 17.536
82.38000 14.811
82.40000 16.496
82.42000 15.869
82.44000 15.003
82.46000 15.083
82.48000 12.207
82.50000 12.780
82.52000 17.298
82.54000 25.856
82.56000 26.128
82.58000 21.471
82.60000 22.222
82.62000 22.742
82.64000 23.191
82.66000 21.735
82.68000 19.888
82.70000 20.882
82.72000 18.235
82.74000 24.100
82.76000 28.295
82.78000 27.764
82.80000 24.317
82.82000 26.794
82.84000 27.754
82.86000 30.671
82.88000 34.367
82.90000 37.198
82.92000 35.861
82.94000 31.352
82.96000 30.927
82.98000 30.061
83.00000 32.765
83.02000 33.511
83.04000 33.812
83.06000 33.995
83.08000 27.459
83.10000 26.000
83.12000 32.551
83.14000 34.079
83.16000 34.993
83.18000 31.825
83.20000 29.746
83.22000 28.652
83.24000 30.786
83.26000 33.389
83.28000 30.611
83.30000 28.448
83.32000 26.797
83.34000 28.484
83.36000 27.108
83.38000 29.583
83.40000 29.849
83.42000 29.885
83.44000 25.738
83.46000 28.967
83.48000 30.875
83.50000 29.855
83.52000 29.223
83.54000 26.324
83.56000 25.883
83.58000 28.214
83.60000 27.416
83.62000 28.195
83.64000 27.268
83.66000 26.043
83.68000 26.241
83.70000 28.605
83.72000 32.540
83.74000 26.431
83.76000 20.246
83.78000 21.747
83.80000 23.471
83.82000 24.984
83.84000 33.949
83.86000 27.329
83.88000 19.348
83.90000 17.335
83.92000 21.747
83.94000 18.879
83.96000 16.068
83.98000 17.542
84.00000 18.593
84.02000 18.401
84.04000 17.058
84.06000 13.225
84.08000 17.517
84.10000 19.297
84.12000 14.539
84.14000 17.365
84.16000 21.873
84.18000 20.250
84.20000 11.415
84.22000 13.274
84.24000 13.565
84.26000 10.446
84.28000 14.174
84.30000 18.946
84.32000 17.656
84.34000 15.954
84.36000 7.148
84.38000 3.722
84.40000 5.541
84.42000 7.373
84.44000 7.327
84.46000 7.654
84.48000 12.912
84.50000 8.252
84.52000 16.381
84.54000 16.573
84.56000 11.068
84.58000 6.940
84.60000 5.801
84.62000 6.800
84.64000 5.229
84.66000 5.748
84.68000 10.974
84.70000 7.042
84.72000 2.833
84.74000 2.830
84.76000 4.538
84.78000 4.101
84.80000 5.110
84.82000 0.304
84.84000 3.671
84.86000 8.761
84.88000 4.175
84.90000 4.993
84.92000 8.191
84.94000 7.125
84.96000 3.709
84.98000 2.618
85.00000 1.046
85.02000 1.574
85.04000 1.204
85.06000 -2.576
85.08000 -1.454
85.10000 9.539
85.12000 4.792
85.14000 3.558
85.16000 5.477
85.18000 6.576
85.20000 6.023
85.22000 3.768
85.24000 -0.308
85.26000 6.869
85.28000 13.587
85.30000 2.984
85.32000 6.688
85.34000 7.315
85.36000 3.450
85.38000 1.740
85.40000 1.372
85.42000 2.914
85.44000 4.723
85.46000 4.430
85.48000 0.622
85.50000 0.713
85.52000 -0.733
85.54000 0.498
85.56000 4.027
85.58000 4.439
85.60000 3.348
85.62000 0.929
85.64000 3.890
85.66000 5.425
85.68000 5.208
85.70000 3.920
85.72000 1.004
85.74000 3.586
85.76000 1.677
85.78000 2.316
85.80000 2.782
85.82000 -0.958
85.84000 2.922
85.86000 4.210
85.88000 6.694
85.90000 7.074
85.92000 1.361
85.94000 -2.564
85.96000 1.802
85.98000 -0.016
86.00000 1.997
86.02000 5.195
86.04000 7.167
86.06000 3.383
86.08000 0.226
86.10000 1.532
86.12000 4.111
86.14000 5.450
86.16000 1.822
86.18000 5.194
86.20000 8.797
86.22000 4.236
86.24000 1.874
86.26000 3.004
86.28000 5.047
86.30000 4.625
86.32000 3.553
86.34000 2.610
86.36000 5.855
86.38000 1.680
86.40000 4.629
86.42000 8.350
86.44000 10.039
86.46000 6.650
86.48000 4.985
86.50000 1.476
86.52000 5.652
86.54000 12.217
86.56000 9.171
86.58000 8.610
86.60000 7.402
86.62000 13.679
86.64000 12.522
86.66000 8.806
86.68000 10.069
86.70000 14.968
86.72000 13.182
86.74000 11.957
86.76000 9.775
86.78000 13.123
86.80000 13.946
86.82000 17.941
86.84000 12.781
86.86000 10.322
86.88000 9.785
86.90000 15.911
86.92000 15.272
86.94000 13.522
86.96000 10.821
86.98000 15.210
87.00000 16.135
87.02000 22.411
87.04000 16.561
87.06000 13.032
87.08000 13.129
87.10000 16.313
87.12000 17.004
87.14000 20.692
87.16000 19.811
87.18000 22.567
87.20000 26.061
87.22000 24.900
87.24000 24.252
87.26000 22.541
87.28000 26.955
87.30000 29.029
87.32000 27.055
87.34000 23.771
87.36000 24.969
87.38000 26.106
87.40000 24.904
87.42000 25.963
87.44000 30.730
87.46000 30.775
87.48000 27.902
87.50000 27.616
87.52000 30.750
87.54000 23.478
87.56000 24.242
87.58000 28.410
87.60000 32.036
87.62000 35.190
87.64000 34.333
87.66000 33.910
87.68000 27.280
87.70000 31.070
87.72000 31.794
87.74000 33.550
87.76000 36.066
87.78000 30.669
87.80000 29.608
87.82000 33.082
87.84000 37.428
87.86000 32.065
87.88000 23.898
87.90000 24.640
87.92000 29.592
87.94000 32.673
87.96000 35.221
87.98000 34.086
88.00000 32.518
88.02000 27.150
88.04000 23.589
88.06000 23.400
88.08000 26.888
88.10000 29.939
88.12000 28.930
88.14000 24.717
88.16000 24.998
88.18000 30.975
88.20000 27.119
88.22000 24.131
88.24000 20.207
88.26000 19.973
88.28000 20.353
88.30000 21.466
88.32000 23.557
88.34000 22.141
88.36000 18.372
88.38000 17.213
88.40000 18.860
88.42000 18.864
88.44000 18.511
88.46000 20.846
88.48000 12.371
88.50000 19.324
88.52000 20.826
88.54000 16.944
88.56000 15.201
88.58000 6.811
88.60000 5.921
88.62000 12.024
88.64000 14.497
88.66000 15.386
88.68000 16.355
88.70000 13.860
88.72000 11.354
88.74000 11.793
88.76000 10.277
88.78000 10.455
88.80000 10.352
88.82000 7.278
88.84000 8.522
88.86000 11.468
88.88000 9.918
88.90000 12.128
88.92000 10.682
88.94000 5.072
88.96000 11.213
88.98000 12.946
89.00000 7.821
89.02000 7.520
89.04000 7.831
89.06000 9.935
89.08000 4.745
89.10000 8.215
89.12000 5.467
89.14000 8.790
89.16000 2.869
89.18000 7.264
89.20000 9.817
89.22000 12.111
89.24000 11.071
89.26000 11.507
89.28000 6.504
89.30000 4.379
89.32000 6.802
89.34000 11.749
89.36000 3.839
89.38000 2.504
89.40000 1.728
89.42000 -2.353
89.44000 5.148
89.46000 9.366
89.48000 9.544
89.50000 3.277
89.52000 5.180
89.54000 5.165
89.56000 3.048
89.58000 6.464
89.60000 6.143
89.62000 10.770
89.64000 9.352
89.66000 5.476
89.68000 6.194
89.70000 5.188
89.72000 4.153
89.74000 10.459
89.76000 3.299
89.78000 -0.876
89.80000 7.609
89.82000 3.057
89.84000 1.227
89.86000 5.060
89.88000 5.524
89.90000 6.377
89.92000 8.336
89.94000 7.300
89.96000 6.506
89.98000 3.233
90.00000 0.375
90.02000 4.331
90.04000 8.891
90.06000 8.745
90.08000 5.910
90.10000 5.205
90.12000 5.035
90.14000 6.482
90.16000 2.993
90.18000 2.193
90.20000 -2.085
90.22000 3.710
90.24000 8.434
90.26000 5.742
90.28000 7.487
90.30000 11.321
90.32000 5.987
90.34000 4.439
90.36000 -2.341
90.38000 5.852
90.40000 0.489
90.42000 2.797
90.44000 4.814
90.46000 8.068
90.48000 6.392
90.50000 4.628
90.52000 3.746
90.54000 3.767
90.56000 -2.334
90.58000 -0.578
90.60000 5.796
90.62000 5.117
90.64000 6.225
90.66000 7.948
90.68000 6.254
90.70000 -0.771
90.72000 3.700
90.74000 7.405
90.76000 6.480
90.78000 6.346
90.80000 7.483
90.82000 5.042
90.84000 6.702
90.86000 3.481
90.88000 5.853
90.90000 8.413
90.92000 8.483
90.94000 7.443
90.96000 7.052
90.98000 5.282
91.00000 -1.040
91.02000 2.655
91.04000 1.726
91.06000 3.524
91.08000 4.709
91.10000 4.471
91.12000 2.652
91.14000 0.058
91.16000 2.542
91.18000 5.030
91.20000 4.842
91.22000 6.169
91.24000 7.625
91.26000 3.471
91.28000 -2.283
91.30000 6.439
91.32000 9.450
91.34000 5.945
91.36000 6.450
91.38000 8.424
91.40000 4.381
91.42000 2.122
91.44000 4.912
91.46000 4.139
91.48000 5.664
91.50000 6.681
91.52000 3.880
91.54000 2.159
91.56000 7.208
91.58000 6.424
91.60000 3.575
91.62000 5.509
91.64000 7.811
91.66000 6.206
91.68000 7.154
91.70000 7.935
91.72000 4.556
91.74000 1.804
91.76000 6.311
91.78000 1.725
91.80000 2.180
91.82000 4.123
91.84000 2.373
91.86000 3.211
91.88000 9.287
91.90000 4.706
91.92000 5.521
91.94000 10.072
91.96000 13.338
91.98000 7.262
92.00000 5.091
92.02000 6.148
92.04000 5.586
92.06000 10.177
92.08000 0.125
92.10000 0.143
92.12000 0.501
92.14000 -0.989
92.16000 1.763
92.18000 2.996
92.20000 5.372
92.22000 5.398
92.24000 2.900
92.26000 3.284
92.28000 1.320
92.30000 3.899
92.32000 3.610
92.34000 5.295
92.36000 9.780
92.38000 8.601
92.40000 8.996
92.42000 3.501
92.44000 1.286
92.46000 2.818
92.48000 2.741
92.50000 9.545
92.52000 2.467
92.54000 -0.004
92.56000 7.835
92.58000 7.823
92.60000 0.248
92.62000 2.071
92.64000 4.103
92.66000 3.583
92.68000 4.816
92.70000 3.940
92.72000 -0.137
92.74000 -2.339
92.76000 3.500
92.78000 8.831
92.80000 7.487
92.82000 9.284
92.84000 8.662
92.86000 5.210
92.88000 1.136
92.90000 4.094
92.92000 4.784
92.94000 6.667
92.96000 5.194
92.98000 0.696
93.00000 -0.017
93.02000 6.237
93.04000 6.663
93.06000 3.547
93.08000 1.425
93.10000 7.735
93.12000 2.572
93.14000 5.018
93.16000 4.843
93.18000 4.401
93.20000 10.848
93.22000 4.724
93.24000 5.212
93.26000 5.385
93.28000 4.154
93.30000 8.577
93.32000 5.426
93.34000 7.800
93.36000 2.932
93.38000 -2.312
93.40000 5.825
93.42000 10.886
93.44000 12.356
93.46000 8.445
93.48000 4.111
93.50000 4.617
93.52000 5.171
93.54000 5.365
93.56000 1.880
93.58000 1.409
93.60000 2.778
93.62000 1.761
93.64000 0.670
93.66000 1.533
93.68000 6.895
93.70000 11.827
93.72000 6.675
93.74000 -2.333
93.76000 -0.354
93.78000 7.408
93.80000 9.657
93.82000 9.183
93.84000 2.353
93.86000 2.535
93.88000 3.962
93.90000 2.671
93.92000 2.699
93.94000 7.281
93.96000 10.751
93.98000 7.523
94.00000 3.156
94.02000 -2.342
94.04000 0.351
94.06000 3.996
94.08000 3.440
94.10000 2.033
94.12000 1.250
94.14000 5.748
94.16000 8.911
94.18000 4.930
94.20000 2.493
94.22000 5.614
94.24000 -1.898
94.26000 1.426
94.28000 1.833
94.30000 -0.998
94.32000 0.761
94.34000 4.876
94.36000 4.808
94.38000 0.901
94.40000 1.238
94.42000 3.072
94.44000 7.027
94.46000 10.499
94.48000 8.359
94.50000 3.092
94.52000 4.094
94.54000 0.788
94.56000 2.588
94.58000 -0.231
94.60000 -0.289
94.62000 7.039
94.64000 3.163
94.66000 4.902
94.68000 6.647
94.70000 2.571
94.72000 -1.947
94.74000 0.741
94.76000 2.006
94.78000 2.222
94.80000 -0.345
94.82000 3.202
94.84000 4.649
94.86000 2.477
94.88000 2.900
94.90000 1.945
94.92000 3.378
94.94000 2.181
94.96000 3.088
94.98000 3.083
95.00000 3.570
95.02000 9.445
95.04000 -0.320
95.06000 4.781
95.08000 5.549
95.10000 4.899
95.12000 7.583
95.14000 3.238
95.16000 0.613
95.18000 3.289
95.20000 2.059
95.22000 1.590
95.24000 -0.467
95.26000 -1.277
95.28000 3.681
95.30000 5.382
95.32000 3.116
95.34000 6.567
95.36000 5.937
95.38000 4.511
95.40000 8.025
95.42000 9.706
95.44000 7.409
95.46000 8.852
95.48000 13.537
95.50000 5.754
95.52000 3.157
95.54000 3.103
95.56000 8.749
95.58000 11.173
95.60000 7.835
95.62000 -2.165
95.64000 -2.331
95.66000 6.649
95.68000 3.831
95.70000 4.905
95.72000 0.959
95.74000 3.647
95.76000 5.561
95.78000 3.345
95.80000 6.612
95.82000 7.249
95.84000 7.433
95.86000 9.739
95.88000 10.388
95.90000 12.311
95.92000 9.191
95.94000 6.517
95.96000 1.423
95.98000 0.517
96.00000 7.250
96.02000 13.459
96.04000 11.639
96.06000 8.338
96.08000 2.538
96.10000 10.413
96.12000 7.926
96.14000 4.903
96.16000 4.241
96.18000 5.830
96.20000 11.475
96.22000 0.322
96.24000 5.471
96.26000 4.393
96.28000 10.356
96.30000 3.415
96.32000 2.535
96.34000 6.710
96.36000 7.812
96.38000 3.211
96.40000 3.667
96.42000 10.100
96.44000 3.740
96.46000 0.117
96.48000 -2.332
96.50000 -1.638
96.52000 0.377
96.54000 6.865
96.56000 9.294
96.58000 5.815
96.60000 3.897
96.62000 -2.336
96.64000 1.202
96.66000 7.147
96.68000 5.051
96.70000 1.115
96.72000 1.755
96.74000 4.192
96.76000 0.341
96.78000 2.259
96.80000 1.831
96.82000 9.916
96.84000 7.995
96.86000 -0.202
96.88000 1.648
96.90000 9.103
96.92000 1.083
96.94000 1.097
96.96000 2.233
96.98000 1.550
97.00000 0.618
97.02000 5.866
97.04000 14.065
97.06000 8.058
97.08000 2.910
97.10000 0.474
97.12000 7.379
97.14000 14.156
97.16000 5.035
97.18000 -1.316
97.20000 9.704
97.22000 12.460
97.24000 14.630
97.26000 2.948
97.28000 0.995
97.30000 3.087
97.32000 -2.339
97.34000 -0.543
97.36000 0.313
97.38000 7.151
97.40000 6.274
97.42000 2.931
97.44000 1.860
97.46000 4.088
97.48000 1.225
97.50000 2.942
97.52000 3.610
97.54000 5.336
97.56000 7.077
97.58000 7.622
97.60000 8.136
97.62000 5.421
97.64000 3.067
97.66000 1.901
97.68000 6.170
97.70000 4.564
97.72000 8.334
97.74000 6.558
97.76000 8.234
97.78000 5.096
97.80000 7.672
97.82000 5.727
97.84000 1.296
97.86000 3.838
97.88000 7.339
97.90000 5.810
97.92000 7.404
97.94000 2.028
97.96000 0.077
97.98000 5.786
98.00000 10.384
98.02000 9.626
98.04000 3.910
98.06000 1.964
98.08000 -0.574
98.10000 1.163
98.12000 0.985
98.14000 2.360
98.16000 3.655
98.18000 0.242
98.20000 4.766
98.22000 7.839
98.24000 2.261
98.26000 2.443
98.28000 4.364
98.30000 10.133
98.32000 11.534
98.34000 10.434
98.36000 9.887
98.38000 6.249
98.40000 5.489
98.42000 4.951
98.44000 5.322
98.46000 0.108
98.48000 8.877
98.50000 20.148
98.52000 16.203
98.54000 0.244
98.56000 0.399
98.58000 3.292
98.60000 -0.240
98.62000 -0.394
98.64000 9.099
98.66000 14.324
98.68000 4.970
98.70000 6.667
98.72000 0.517
98.74000 -2.298
98.76000 -1.602
98.78000 7.018
98.80000 5.482
98.82000 3.388
98.84000 7.199
98.86000 15.586
98.88000 16.746
98.90000 9.499
98.92000 6.561
98.94000 6.260
98.96000 12.539
98.98000 7.659
99.00000 9.651
99.02000 5.748
99.04000 3.221
99.06000 4.574
99.08000 1.442
99.10000 6.319
99.12000 12.742
99.14000 6.708
99.16000 6.692
99.18000 0.831
99.20000 11.373
99.22000 6.034
99.24000 1.267
99.26000 5.437
99.28000 2.163
99.30000 1.783
99.32000 10.788
99.34000 16.968
99.36000 13.178
99.38000 12.198
99.40000 10.326
99.42000 -2.810
99.44000 6.893
99.46000 11.728
99.48000 11.714
99.50000 12.768
99.52000 6.120
99.54000 -1.160
99.56000 -2.303
99.58000 5.426
99.60000 10.216
99.62000 8.811
99.64000 -0.530
99.66000 -2.316
99.68000 5.123
99.70000 -1.153
99.72000 1.806
99.74000 5.788
99.76000 1.269
99.78000 2.637
99.80000 11.124
99.82000 21.344
99.84000 20.293
99.86000 1.058
99.88000 -0.306
99.90000 -2.345
99.92000 3.155
99.94000 11.837
99.96000 11.115
99.98000 0.000
