'Id: "0011388" Comment: "Integrate frame 0011388_Au-Ir-Rh_Rh-rich_XRD-Mapping-296-0000.gfrmwith cursor Wedge Cursor #5" Operator: "B?rgel" Anode: "Cu" Wavelength: "1.5406" Scantype: "2Theta (TwoTheta)" TimePerStep: "1" X: "-31.5" Y: "31.5" Z: "5.95" 
10.00000 0.000
10.02000 -4.766
10.04000 -4.627
10.06000 -4.617
10.08000 14.803
10.10000 12.167
10.12000 12.600
10.14000 17.488
10.16000 5.817
10.18000 9.979
10.20000 12.041
10.22000 -4.568
10.24000 -1.209
10.26000 13.012
10.28000 19.672
10.30000 20.188
10.32000 22.765
10.34000 1.252
10.36000 12.006
10.38000 8.285
10.40000 -4.029
10.42000 4.902
10.44000 9.537
10.46000 15.016
10.48000 33.611
10.50000 25.219
10.52000 7.221
10.54000 8.737
10.56000 18.457
10.58000 20.870
10.60000 23.693
10.62000 34.636
10.64000 13.106
10.66000 6.132
10.68000 1.665
10.70000 14.064
10.72000 16.831
10.74000 26.518
10.76000 11.263
10.78000 -4.505
10.80000 1.805
10.82000 -4.368
10.84000 -1.836
10.86000 17.840
10.88000 27.597
10.90000 20.168
10.92000 17.867
10.94000 24.447
10.96000 22.982
10.98000 18.219
11.00000 6.718
11.02000 -2.019
11.04000 3.505
11.06000 14.710
11.08000 4.318
11.10000 6.688
11.12000 14.086
11.14000 -1.429
11.16000 7.779
11.18000 10.905
11.20000 7.954
11.22000 29.020
11.24000 28.679
11.26000 18.113
11.28000 24.276
11.30000 13.046
11.32000 15.446
11.34000 4.086
11.36000 10.902
11.38000 5.890
11.40000 9.159
11.42000 8.156
11.44000 11.409
11.46000 9.616
11.48000 8.413
11.50000 6.241
11.52000 -4.517
11.54000 6.274
11.56000 9.828
11.58000 6.032
11.60000 11.659
11.62000 10.677
11.64000 10.712
11.66000 11.411
11.68000 2.614
11.70000 5.427
11.72000 5.987
11.74000 10.469
11.76000 10.913
11.78000 -2.362
11.80000 -1.114
11.82000 10.900
11.84000 3.511
11.86000 10.201
11.88000 7.473
11.90000 11.161
11.92000 8.187
11.94000 5.027
11.96000 7.863
11.98000 12.125
12.00000 6.378
12.02000 5.747
12.04000 14.867
12.06000 10.906
12.08000 5.070
12.10000 22.878
12.12000 15.214
12.14000 22.579
12.16000 18.732
12.18000 14.973
12.20000 16.539
12.22000 17.496
12.24000 22.383
12.26000 23.859
12.28000 12.569
12.30000 18.070
12.32000 10.170
12.34000 8.214
12.36000 -2.350
12.38000 15.924
12.40000 18.290
12.42000 12.732
12.44000 24.336
12.46000 16.832
12.48000 6.177
12.50000 7.939
12.52000 15.165
12.54000 16.051
12.56000 11.274
12.58000 3.759
12.60000 -0.481
12.62000 -0.116
12.64000 -0.630
12.66000 7.777
12.68000 7.526
12.70000 5.902
12.72000 10.381
12.74000 12.981
12.76000 11.368
12.78000 11.979
12.80000 6.242
12.82000 2.841
12.84000 12.522
12.86000 17.298
12.88000 10.054
12.90000 1.561
12.92000 8.341
12.94000 12.800
12.96000 6.125
12.98000 10.090
13.00000 5.138
13.02000 8.684
13.04000 7.932
13.06000 12.952
13.08000 13.598
13.10000 11.422
13.12000 17.620
13.14000 8.708
13.16000 4.158
13.18000 13.441
13.20000 12.523
13.22000 4.966
13.24000 9.858
13.26000 3.256
13.28000 0.882
13.30000 -4.555
13.32000 -2.413
13.34000 4.771
13.36000 13.880
13.38000 6.889
13.40000 10.263
13.42000 7.778
13.44000 5.653
13.46000 4.813
13.48000 0.848
13.50000 4.036
13.52000 12.328
13.54000 13.760
13.56000 12.794
13.58000 7.125
13.60000 5.541
13.62000 7.198
13.64000 7.475
13.66000 8.946
13.68000 1.279
13.70000 13.553
13.72000 12.944
13.74000 8.200
13.76000 5.879
13.78000 10.201
13.80000 4.977
13.82000 -3.078
13.84000 3.271
13.86000 6.346
13.88000 7.669
13.90000 10.683
13.92000 10.826
13.94000 11.427
13.96000 14.454
13.98000 12.416
14.00000 1.581
14.02000 0.746
14.04000 14.576
14.06000 13.782
14.08000 14.444
14.10000 -1.536
14.12000 -0.688
14.14000 1.571
14.16000 8.830
14.18000 12.590
14.20000 8.533
14.22000 1.714
14.24000 2.342
14.26000 13.488
14.28000 11.844
14.30000 5.396
14.32000 1.258
14.34000 10.857
14.36000 0.894
14.38000 -1.435
14.40000 5.831
14.42000 3.000
14.44000 3.924
14.46000 10.914
14.48000 6.303
14.50000 6.479
14.52000 6.892
14.54000 0.804
14.56000 0.322
14.58000 6.394
14.60000 9.389
14.62000 2.566
14.64000 1.442
14.66000 -1.802
14.68000 6.601
14.70000 4.769
14.72000 3.091
14.74000 -3.415
14.76000 1.997
14.78000 3.832
14.80000 -4.525
14.82000 -2.435
14.84000 0.690
14.86000 4.106
14.88000 1.304
14.90000 12.271
14.92000 12.718
14.94000 8.989
14.96000 12.894
14.98000 11.434
15.00000 12.017
15.02000 4.069
15.04000 5.693
15.06000 4.786
15.08000 4.274
15.10000 4.588
15.12000 8.900
15.14000 5.562
15.16000 -2.752
15.18000 8.649
15.20000 3.874
15.22000 -0.285
15.24000 1.596
15.26000 -2.655
15.28000 0.185
15.30000 12.314
15.32000 13.854
15.34000 2.358
15.36000 1.382
15.38000 3.759
15.40000 8.702
15.42000 -4.468
15.44000 -3.681
15.46000 5.863
15.48000 10.844
15.50000 6.374
15.52000 1.783
15.54000 5.235
15.56000 6.953
15.58000 11.852
15.60000 4.866
15.62000 6.816
15.64000 -0.017
15.66000 -2.315
15.68000 4.437
15.70000 2.374
15.72000 -4.480
15.74000 12.601
15.76000 12.809
15.78000 10.874
15.80000 6.716
15.82000 7.174
15.84000 8.197
15.86000 10.547
15.88000 8.444
15.90000 -3.483
15.92000 -4.358
15.94000 4.412
15.96000 12.731
15.98000 10.567
16.00000 5.012
16.02000 11.691
16.04000 4.679
16.06000 -3.999
16.08000 -4.466
16.10000 -2.555
16.12000 7.322
16.14000 9.139
16.16000 9.000
16.18000 11.064
16.20000 13.476
16.22000 2.422
16.24000 4.309
16.26000 5.002
16.28000 6.021
16.30000 12.069
16.32000 8.697
16.34000 6.157
16.36000 -0.162
16.38000 2.221
16.40000 2.736
16.42000 2.965
16.44000 3.503
16.46000 2.530
16.48000 -2.650
16.50000 6.155
16.52000 10.553
16.54000 2.247
16.56000 -3.015
16.58000 5.894
16.60000 1.172
16.62000 5.044
16.64000 7.001
16.66000 4.690
16.68000 3.495
16.70000 1.104
16.72000 4.667
16.74000 18.506
16.76000 10.083
16.78000 4.922
16.80000 6.125
16.82000 -4.433
16.84000 -2.049
16.86000 2.063
16.88000 5.503
16.90000 6.547
16.92000 -0.177
16.94000 -0.878
16.96000 5.160
16.98000 -0.235
17.00000 2.072
17.02000 4.736
17.04000 0.779
17.06000 -2.022
17.08000 -1.368
17.10000 3.665
17.12000 5.748
17.14000 5.093
17.16000 5.701
17.18000 8.892
17.20000 6.433
17.22000 8.581
17.24000 11.785
17.26000 3.569
17.28000 5.048
17.30000 1.869
17.32000 -4.400
17.34000 -1.707
17.36000 0.482
17.38000 4.867
17.40000 12.015
17.42000 6.122
17.44000 9.979
17.46000 14.453
17.48000 7.043
17.50000 0.423
17.52000 6.244
17.54000 3.450
17.56000 2.839
17.58000 6.415
17.60000 2.680
17.62000 -0.492
17.64000 -1.789
17.66000 -1.220
17.68000 3.416
17.70000 -0.035
17.72000 -2.517
17.74000 2.560
17.76000 8.302
17.78000 6.356
17.80000 8.188
17.82000 3.353
17.84000 5.623
17.86000 4.249
17.88000 0.264
17.90000 4.675
17.92000 4.704
17.94000 4.882
17.96000 4.753
17.98000 2.229
18.00000 -3.189
18.02000 3.097
18.04000 5.247
18.06000 3.541
18.08000 -0.140
18.10000 1.005
18.12000 5.334
18.14000 4.502
18.16000 4.529
18.18000 5.173
18.20000 2.090
18.22000 -0.539
18.24000 5.924
18.26000 2.871
18.28000 6.496
18.30000 5.639
18.32000 2.766
18.34000 3.042
18.36000 3.956
18.38000 5.971
18.40000 8.064
18.42000 9.269
18.44000 4.869
18.46000 2.148
18.48000 -2.442
18.50000 -4.351
18.52000 0.183
18.54000 1.230
18.56000 5.013
18.58000 7.439
18.60000 -1.096
18.62000 -1.247
18.64000 -1.891
18.66000 -1.004
18.68000 -2.885
18.70000 -1.251
18.72000 1.230
18.74000 -1.568
18.76000 -2.529
18.78000 -0.442
18.80000 2.535
18.82000 0.929
18.84000 -3.402
18.86000 6.430
18.88000 2.532
18.90000 0.155
18.92000 -1.874
18.94000 0.557
18.96000 -2.485
18.98000 3.104
19.00000 2.467
19.02000 -0.145
19.04000 5.101
19.06000 6.648
19.08000 1.135
19.10000 -4.324
19.12000 1.492
19.14000 4.346
19.16000 1.784
19.18000 -1.274
19.20000 3.317
19.22000 6.716
19.24000 3.819
19.26000 1.232
19.28000 4.973
19.30000 5.274
19.32000 4.804
19.34000 -1.601
19.36000 1.065
19.38000 6.601
19.40000 6.609
19.42000 5.084
19.44000 1.442
19.46000 7.816
19.48000 6.915
19.50000 2.292
19.52000 0.480
19.54000 7.242
19.56000 5.707
19.58000 3.621
19.60000 2.787
19.62000 0.427
19.64000 2.759
19.66000 6.562
19.68000 3.992
19.70000 -0.308
19.72000 2.691
19.74000 -0.180
19.76000 -1.470
19.78000 6.869
19.80000 9.017
19.82000 4.912
19.84000 1.398
19.86000 4.252
19.88000 -2.696
19.90000 -2.366
19.92000 1.737
19.94000 6.709
19.96000 1.507
19.98000 2.674
20.00000 0.427
20.02000 -4.265
20.04000 -4.199
20.06000 4.364
20.08000 0.983
20.10000 6.146
20.12000 9.357
20.14000 9.786
20.16000 4.666
20.18000 4.913
20.20000 2.864
20.22000 3.336
20.24000 12.489
20.26000 11.140
20.28000 9.837
20.30000 5.998
20.32000 1.882
20.34000 6.311
20.36000 2.640
20.38000 4.510
20.40000 1.271
20.42000 -2.068
20.44000 -1.819
20.46000 0.042
20.48000 -3.013
20.50000 0.846
20.52000 8.868
20.54000 4.128
20.56000 4.321
20.58000 4.063
20.60000 4.349
20.62000 0.663
20.64000 3.320
20.66000 2.505
20.68000 3.818
20.70000 12.953
20.72000 3.208
20.74000 6.768
20.76000 2.104
20.78000 -2.449
20.80000 -3.127
20.82000 3.227
20.84000 2.150
20.86000 9.079
20.88000 11.941
20.90000 6.932
20.92000 6.463
20.94000 4.406
20.96000 3.472
20.98000 0.156
21.00000 -1.361
21.02000 9.101
21.04000 1.795
21.06000 -4.183
21.08000 7.687
21.10000 3.750
21.12000 3.084
21.14000 0.978
21.16000 2.476
21.18000 2.598
21.20000 8.462
21.22000 6.725
21.24000 6.599
21.26000 -2.495
21.28000 0.619
21.30000 -0.430
21.32000 3.546
21.34000 -1.139
21.36000 -2.230
21.38000 3.698
21.40000 0.478
21.42000 -0.429
21.44000 4.837
21.46000 4.591
21.48000 5.344
21.50000 3.744
21.52000 8.630
21.54000 16.022
21.56000 11.040
21.58000 3.699
21.60000 2.376
21.62000 3.802
21.64000 3.306
21.66000 -0.379
21.68000 0.264
21.70000 2.685
21.72000 -1.248
21.74000 1.955
21.76000 4.221
21.78000 4.143
21.80000 7.097
21.82000 7.205
21.84000 5.666
21.86000 10.192
21.88000 4.000
21.90000 3.817
21.92000 -0.900
21.94000 4.789
21.96000 7.782
21.98000 0.941
22.00000 6.570
22.02000 6.587
22.04000 4.469
22.06000 3.989
22.08000 3.214
22.10000 3.302
22.12000 3.890
22.14000 -0.982
22.16000 -1.204
22.18000 1.489
22.20000 3.504
22.22000 4.447
22.24000 3.529
22.26000 4.694
22.28000 3.401
22.30000 9.838
22.32000 4.305
22.34000 -3.315
22.36000 3.627
22.38000 -1.243
22.40000 0.669
22.42000 2.552
22.44000 4.021
22.46000 0.247
22.48000 -0.960
22.50000 -0.370
22.52000 2.658
22.54000 -2.340
22.56000 2.135
22.58000 3.585
22.60000 0.874
22.62000 -1.143
22.64000 0.891
22.66000 1.757
22.68000 0.263
22.70000 3.522
22.72000 7.631
22.74000 4.647
22.76000 0.719
22.78000 9.920
22.80000 -0.065
22.82000 -4.114
22.84000 -2.671
22.86000 -2.348
22.88000 -0.633
22.90000 1.753
22.92000 3.243
22.94000 9.210
22.96000 3.187
22.98000 2.262
23.00000 5.708
23.02000 1.742
23.04000 0.898
23.06000 1.116
23.08000 -2.557
23.10000 1.209
23.12000 5.374
23.14000 4.422
23.16000 3.873
23.18000 1.832
23.20000 3.788
23.22000 3.129
23.24000 3.487
23.26000 4.065
23.28000 10.125
23.30000 8.698
23.32000 8.851
23.34000 6.127
23.36000 3.927
23.38000 2.901
23.40000 7.246
23.42000 2.755
23.44000 -1.746
23.46000 -1.654
23.48000 -4.054
23.50000 11.272
23.52000 1.796
23.54000 -2.656
23.56000 4.958
23.58000 -1.928
23.60000 -0.878
23.62000 -2.316
23.64000 -2.898
23.66000 -1.686
23.68000 1.333
23.70000 6.372
23.72000 8.576
23.74000 9.390
23.76000 4.740
23.78000 5.028
23.80000 3.426
23.82000 7.773
23.84000 4.468
23.86000 4.775
23.88000 6.049
23.90000 4.737
23.92000 7.467
23.94000 1.354
23.96000 1.716
23.98000 9.539
24.00000 7.751
24.02000 9.382
24.04000 5.882
24.06000 7.000
24.08000 6.715
24.10000 10.109
24.12000 11.365
24.14000 8.229
24.16000 2.087
24.18000 3.732
24.20000 8.166
24.22000 6.674
24.24000 2.757
24.26000 -1.059
24.28000 -0.310
24.30000 0.988
24.32000 5.471
24.34000 7.109
24.36000 7.993
24.38000 0.814
24.40000 -0.407
24.42000 2.349
24.44000 7.363
24.46000 3.480
24.48000 0.752
24.50000 3.308
24.52000 -2.594
24.54000 1.803
24.56000 2.601
24.58000 6.432
24.60000 2.123
24.62000 5.510
24.64000 5.773
24.66000 -1.190
24.68000 -3.769
24.70000 -3.311
24.72000 0.763
24.74000 2.354
24.76000 6.109
24.78000 2.726
24.80000 2.615
24.82000 0.055
24.84000 0.521
24.86000 -1.914
24.88000 2.568
24.90000 2.188
24.92000 0.637
24.94000 0.800
24.96000 2.322
24.98000 -3.980
25.00000 0.337
25.02000 0.367
25.04000 5.875
25.06000 8.248
25.08000 9.997
25.10000 6.590
25.12000 8.954
25.14000 7.569
25.16000 5.431
25.18000 2.693
25.20000 0.615
25.22000 6.210
25.24000 6.681
25.26000 6.798
25.28000 5.536
25.30000 -3.963
25.32000 -2.961
25.34000 1.238
25.36000 1.417
25.38000 1.229
25.40000 11.458
25.42000 6.839
25.44000 6.902
25.46000 1.139
25.48000 1.281
25.50000 1.113
25.52000 2.108
25.54000 3.718
25.56000 6.022
25.58000 0.463
25.60000 -2.837
25.62000 1.557
25.64000 2.923
25.66000 0.485
25.68000 -2.711
25.70000 -1.625
25.72000 0.668
25.74000 2.904
25.76000 11.250
25.78000 5.913
25.80000 5.458
25.82000 6.305
25.84000 6.023
25.86000 7.966
25.88000 6.915
25.90000 2.381
25.92000 1.653
25.94000 5.034
25.96000 3.405
25.98000 -3.948
26.00000 2.387
26.02000 2.211
26.04000 -0.551
26.06000 0.680
26.08000 5.468
26.10000 9.064
26.12000 8.315
26.14000 2.273
26.16000 3.341
26.18000 6.145
26.20000 5.138
26.22000 4.799
26.24000 4.308
26.26000 3.022
26.28000 1.994
26.30000 2.192
26.32000 2.701
26.34000 1.682
26.36000 3.440
26.38000 4.138
26.40000 1.785
26.42000 -1.339
26.44000 -1.769
26.46000 -2.712
26.48000 -0.685
26.50000 6.298
26.52000 3.169
26.54000 -3.919
26.56000 -0.818
26.58000 1.815
26.60000 0.367
26.62000 -3.567
26.64000 -2.597
26.66000 3.802
26.68000 1.270
26.70000 3.586
26.72000 8.631
26.74000 3.021
26.76000 4.621
26.78000 6.951
26.80000 6.332
26.82000 4.142
26.84000 3.417
26.86000 6.229
26.88000 2.803
26.90000 5.415
26.92000 0.221
26.94000 6.191
26.96000 7.003
26.98000 2.304
27.00000 0.525
27.02000 2.907
27.04000 5.110
27.06000 3.155
27.08000 3.618
27.10000 -1.970
27.12000 -3.493
27.14000 -1.220
27.16000 -3.876
27.18000 -3.875
27.20000 3.378
27.22000 7.707
27.24000 3.633
27.26000 -0.879
27.28000 6.637
27.30000 1.011
27.32000 5.008
27.34000 6.410
27.36000 4.345
27.38000 1.742
27.40000 -0.396
27.42000 -3.513
27.44000 -1.057
27.46000 1.802
27.48000 4.030
27.50000 2.089
27.52000 2.505
27.54000 8.988
27.56000 1.668
27.58000 4.844
27.60000 2.251
27.62000 -0.683
27.64000 0.266
27.66000 3.507
27.68000 3.182
27.70000 3.298
27.72000 1.032
27.74000 2.120
27.76000 5.064
27.78000 2.154
27.80000 1.114
27.82000 4.598
27.84000 3.124
27.86000 0.176
27.88000 1.442
27.90000 4.191
27.92000 3.065
27.94000 -0.379
27.96000 0.519
27.98000 -0.728
28.00000 2.459
28.02000 5.164
28.04000 4.592
28.06000 1.821
28.08000 2.881
28.10000 0.453
28.12000 -1.665
28.14000 1.231
28.16000 2.438
28.18000 4.661
28.20000 4.599
28.22000 3.034
28.24000 2.126
28.26000 3.535
28.28000 0.484
28.30000 -1.340
28.32000 0.943
28.34000 1.363
28.36000 2.406
28.38000 8.693
28.40000 4.906
28.42000 1.434
28.44000 -0.625
28.46000 -3.806
28.48000 0.493
28.50000 -0.323
28.52000 -0.121
28.54000 0.419
28.56000 0.226
28.58000 -1.205
28.60000 4.182
28.62000 7.902
28.64000 6.767
28.66000 5.945
28.68000 4.053
28.70000 0.757
28.72000 -3.523
28.74000 3.887
28.76000 3.435
28.78000 -0.031
28.80000 -0.772
28.82000 1.972
28.84000 1.768
28.86000 5.445
28.88000 0.513
28.90000 -1.269
28.92000 -2.696
28.94000 -3.562
28.96000 0.560
28.98000 -2.925
29.00000 0.808
29.02000 5.678
29.04000 2.999
29.06000 2.899
29.08000 2.212
29.10000 3.313
29.12000 2.382
29.14000 1.218
29.16000 1.205
29.18000 2.504
29.20000 2.346
29.22000 4.990
29.24000 6.383
29.26000 3.427
29.28000 2.914
29.30000 -0.055
29.32000 3.854
29.34000 3.611
29.36000 7.358
29.38000 5.457
29.40000 3.635
29.42000 -0.546
29.44000 -2.317
29.46000 -1.226
29.48000 -1.013
29.50000 -3.756
29.52000 1.260
29.54000 4.031
29.56000 3.603
29.58000 6.289
29.60000 7.299
29.62000 7.294
29.64000 3.043
29.66000 -3.302
29.68000 0.180
29.70000 5.966
29.72000 -1.792
29.74000 0.959
29.76000 6.132
29.78000 4.777
29.80000 6.283
29.82000 4.694
29.84000 -0.441
29.86000 -1.761
29.88000 -0.930
29.90000 -3.621
29.92000 2.847
29.94000 6.179
29.96000 -2.584
29.98000 0.201
30.00000 1.105
30.02000 3.646
30.04000 2.648
30.06000 4.823
30.08000 3.309
30.10000 1.581
30.12000 0.139
30.14000 5.778
30.16000 2.873
30.18000 5.421
30.20000 4.190
30.22000 4.218
30.24000 2.834
30.26000 4.661
30.28000 2.623
30.30000 1.538
30.32000 1.519
30.34000 -0.089
30.36000 -0.625
30.38000 -1.040
30.40000 3.540
30.42000 4.165
30.44000 5.212
30.46000 0.985
30.48000 3.262
30.50000 -0.782
30.52000 3.109
30.54000 5.331
30.56000 4.126
30.58000 6.351
30.60000 1.477
30.62000 4.439
30.64000 2.598
30.66000 -2.095
30.68000 2.340
30.70000 -1.804
30.72000 -3.710
30.74000 0.389
30.76000 0.633
30.78000 -3.241
30.80000 2.373
30.82000 -3.503
30.84000 1.049
30.86000 2.349
30.88000 -0.993
30.90000 -3.703
30.92000 -2.566
30.94000 0.265
30.96000 -0.759
30.98000 -3.045
31.00000 -0.890
31.02000 -0.406
31.04000 6.073
31.06000 8.422
31.08000 3.565
31.10000 3.678
31.12000 4.264
31.14000 2.179
31.16000 0.941
31.18000 -2.527
31.20000 3.564
31.22000 7.977
31.24000 8.993
31.26000 3.539
31.28000 4.447
31.30000 5.430
31.32000 1.626
31.34000 -3.259
31.36000 -3.689
31.38000 2.732
31.40000 3.112
31.42000 1.514
31.44000 -3.176
31.46000 0.426
31.48000 -1.665
31.50000 -3.543
31.52000 8.482
31.54000 7.208
31.56000 3.791
31.58000 1.264
31.60000 -1.923
31.62000 -0.386
31.64000 7.335
31.66000 6.924
31.68000 2.689
31.70000 1.257
31.72000 0.806
31.74000 -1.108
31.76000 2.194
31.78000 0.172
31.80000 -1.198
31.82000 -3.290
31.84000 -0.867
31.86000 0.416
31.88000 -1.026
31.90000 3.512
31.92000 1.879
31.94000 -1.803
31.96000 -1.613
31.98000 -1.707
32.00000 1.067
32.02000 -3.100
32.04000 -1.595
32.06000 2.760
32.08000 2.566
32.10000 -0.843
32.12000 2.541
32.14000 5.271
32.16000 1.632
32.18000 2.419
32.20000 3.697
32.22000 3.766
32.24000 -3.643
32.26000 -0.703
32.28000 2.212
32.30000 1.962
32.32000 -1.698
32.34000 0.507
32.36000 5.743
32.38000 1.941
32.40000 2.181
32.42000 2.226
32.44000 2.270
32.46000 3.129
32.48000 -3.105
32.50000 -3.624
32.52000 -1.079
32.54000 1.344
32.56000 1.706
32.58000 6.368
32.60000 8.153
32.62000 4.372
32.64000 4.017
32.66000 4.494
32.68000 5.532
32.70000 1.847
32.72000 2.204
32.74000 -1.225
32.76000 3.096
32.78000 4.624
32.80000 4.079
32.82000 6.990
32.84000 8.359
32.86000 5.202
32.88000 6.153
32.90000 5.544
32.92000 3.408
32.94000 6.370
32.96000 4.816
32.98000 3.250
33.00000 1.092
33.02000 4.292
33.04000 -0.129
33.06000 -3.590
33.08000 2.118
33.10000 7.556
33.12000 6.013
33.14000 2.222
33.16000 2.665
33.18000 1.465
33.20000 -1.318
33.22000 -3.207
33.24000 2.249
33.26000 3.741
33.28000 1.567
33.30000 1.443
33.32000 2.477
33.34000 6.014
33.36000 5.963
33.38000 7.739
33.40000 2.521
33.42000 -2.464
33.44000 1.853
33.46000 0.827
33.48000 3.193
33.50000 12.120
33.52000 13.155
33.54000 7.988
33.56000 5.757
33.58000 4.107
33.60000 3.073
33.62000 6.557
33.64000 4.332
33.66000 2.708
33.68000 0.633
33.70000 2.843
33.72000 3.282
33.74000 1.575
33.76000 -1.501
33.78000 2.556
33.80000 5.012
33.82000 2.061
33.84000 1.129
33.86000 5.897
33.88000 4.776
33.90000 2.686
33.92000 5.805
33.94000 6.156
33.96000 -0.764
33.98000 0.595
34.00000 0.870
34.02000 -3.612
34.04000 -0.922
34.06000 1.945
34.08000 1.189
34.10000 7.808
34.12000 7.795
34.14000 2.824
34.16000 4.756
34.18000 6.821
34.20000 8.136
34.22000 4.872
34.24000 2.324
34.26000 2.522
34.28000 0.307
34.30000 -3.327
34.32000 -2.123
34.34000 -0.643
34.36000 6.054
34.38000 5.463
34.40000 -1.933
34.42000 4.422
34.44000 5.539
34.46000 3.401
34.48000 4.087
34.50000 0.016
34.52000 -2.616
34.54000 -2.408
34.56000 4.716
34.58000 4.844
34.60000 5.616
34.62000 6.875
34.64000 8.513
34.66000 5.519
34.68000 -0.348
34.70000 1.582
34.72000 1.692
34.74000 -0.955
34.76000 1.174
34.78000 4.607
34.80000 -1.195
34.82000 1.801
34.84000 1.472
34.86000 4.130
34.88000 4.930
34.90000 4.414
34.92000 2.195
34.94000 -1.114
34.96000 0.020
34.98000 -3.327
35.00000 1.406
35.02000 1.276
35.04000 1.792
35.06000 -1.281
35.08000 -3.619
35.10000 -1.579
35.12000 0.929
35.14000 2.476
35.16000 2.768
35.18000 -1.156
35.20000 -1.628
35.22000 4.175
35.24000 2.402
35.26000 2.855
35.28000 7.688
35.30000 5.527
35.32000 -3.612
35.34000 0.456
35.36000 3.449
35.38000 -0.352
35.40000 0.533
35.42000 3.009
35.44000 -1.218
35.46000 -1.271
35.48000 -0.827
35.50000 0.951
35.52000 5.636
35.54000 3.918
35.56000 0.896
35.58000 -2.485
35.60000 1.039
35.62000 1.214
35.64000 3.938
35.66000 3.389
35.68000 7.922
35.70000 4.660
35.72000 1.157
35.74000 0.952
35.76000 3.397
35.78000 5.005
35.80000 2.070
35.82000 -0.356
35.84000 -2.341
35.86000 -2.328
35.88000 2.051
35.90000 7.661
35.92000 6.401
35.94000 -0.151
35.96000 1.359
35.98000 4.854
36.00000 4.805
36.02000 4.572
36.04000 3.275
36.06000 -2.174
36.08000 0.837
36.10000 3.082
36.12000 2.858
36.14000 1.269
36.16000 6.756
36.18000 6.950
36.20000 4.284
36.22000 5.547
36.24000 6.365
36.26000 2.472
36.28000 4.337
36.30000 7.922
36.32000 7.751
36.34000 0.541
36.36000 2.491
36.38000 10.635
36.40000 11.115
36.42000 11.659
36.44000 6.344
36.46000 1.206
36.48000 -2.236
36.50000 -3.638
36.52000 3.826
36.54000 7.095
36.56000 5.488
36.58000 3.864
36.60000 1.645
36.62000 8.989
36.64000 4.786
36.66000 3.917
36.68000 2.846
36.70000 2.095
36.72000 1.911
36.74000 4.615
36.76000 3.505
36.78000 4.041
36.80000 5.193
36.82000 1.886
36.84000 0.309
36.86000 -0.032
36.88000 1.384
36.90000 -0.181
36.92000 2.409
36.94000 0.428
36.96000 -0.443
36.98000 -3.708
37.00000 -2.590
37.02000 -0.083
37.04000 -2.343
37.06000 0.987
37.08000 7.644
37.10000 6.559
37.12000 2.593
37.14000 -2.212
37.16000 1.581
37.18000 1.051
37.20000 4.879
37.22000 5.300
37.24000 4.719
37.26000 -3.045
37.28000 3.111
37.30000 6.606
37.32000 6.754
37.34000 6.451
37.36000 5.386
37.38000 3.514
37.40000 7.541
37.42000 12.123
37.44000 6.289
37.46000 10.851
37.48000 11.685
37.50000 6.627
37.52000 10.849
37.54000 9.326
37.56000 6.717
37.58000 5.651
37.60000 5.233
37.62000 7.713
37.64000 8.964
37.66000 13.952
37.68000 13.620
37.70000 10.740
37.72000 12.053
37.74000 13.200
37.76000 14.656
37.78000 12.570
37.80000 18.370
37.82000 19.076
37.84000 14.560
37.86000 14.267
37.88000 16.737
37.90000 14.484
37.92000 15.244
37.94000 17.788
37.96000 22.796
37.98000 22.749
38.00000 21.282
38.02000 21.469
38.04000 25.147
38.06000 29.033
38.08000 29.232
38.10000 27.396
38.12000 25.840
38.14000 27.867
38.16000 24.557
38.18000 27.383
38.20000 32.878
38.22000 34.438
38.24000 35.827
38.26000 31.578
38.28000 38.272
38.30000 39.184
38.32000 38.116
38.34000 41.638
38.36000 42.886
38.38000 45.719
38.40000 51.133
38.42000 45.264
38.44000 42.774
38.46000 50.522
38.48000 51.524
38.50000 54.231
38.52000 59.014
38.54000 58.601
38.56000 61.652
38.58000 68.057
38.60000 66.797
38.62000 68.950
38.64000 76.727
38.66000 79.799
38.68000 80.373
38.70000 81.796
38.72000 84.817
38.74000 86.815
38.76000 84.104
38.78000 85.151
38.80000 94.370
38.82000 100.525
38.84000 102.139
38.86000 101.923
38.88000 109.773
38.90000 114.581
38.92000 119.418
38.94000 123.892
38.96000 134.247
38.98000 134.341
39.00000 141.112
39.02000 153.938
39.04000 165.325
39.06000 170.744
39.08000 172.176
39.10000 180.556
39.12000 187.450
39.14000 196.622
39.16000 209.735
39.18000 220.983
39.20000 226.046
39.22000 236.449
39.24000 252.194
39.26000 266.639
39.28000 275.013
39.30000 285.517
39.32000 300.673
39.34000 320.504
39.36000 336.963
39.38000 356.476
39.40000 373.557
39.42000 391.917
39.44000 404.479
39.46000 425.767
39.48000 440.191
39.50000 464.824
39.52000 495.434
39.54000 520.572
39.56000 544.205
39.58000 560.715
39.60000 583.012
39.62000 616.472
39.64000 632.900
39.66000 651.473
39.68000 680.488
39.70000 711.107
39.72000 734.788
39.74000 759.178
39.76000 789.531
39.78000 796.437
39.80000 809.138
39.82000 829.904
39.84000 827.723
39.86000 844.156
39.88000 876.735
39.90000 872.296
39.92000 886.740
39.94000 873.095
39.96000 865.745
39.98000 865.402
40.00000 859.195
40.02000 846.411
40.04000 859.433
40.06000 846.567
40.08000 817.648
40.10000 796.501
40.12000 777.926
40.14000 761.043
40.16000 739.815
40.18000 699.247
40.20000 672.896
40.22000 651.343
40.24000 623.720
40.26000 616.431
40.28000 606.399
40.30000 561.315
40.32000 514.958
40.34000 485.488
40.36000 463.126
40.38000 448.797
40.40000 431.550
40.42000 406.453
40.44000 381.432
40.46000 355.263
40.48000 340.649
40.50000 316.241
40.52000 303.281
40.54000 282.865
40.56000 258.193
40.58000 245.926
40.60000 229.693
40.62000 216.202
40.64000 206.209
40.66000 188.967
40.68000 178.495
40.70000 162.091
40.72000 152.067
40.74000 143.847
40.76000 132.597
40.78000 131.559
40.80000 122.971
40.82000 116.878
40.84000 106.713
40.86000 100.942
40.88000 95.328
40.90000 90.976
40.92000 81.205
40.94000 85.424
40.96000 81.766
40.98000 72.576
41.00000 68.826
41.02000 63.532
41.04000 61.793
41.06000 55.897
41.08000 52.758
41.10000 44.553
41.12000 45.582
41.14000 44.008
41.16000 44.500
41.18000 41.344
41.20000 38.256
41.22000 36.147
41.24000 33.909
41.26000 37.159
41.28000 29.615
41.30000 24.261
41.32000 25.981
41.34000 24.478
41.36000 23.605
41.38000 21.021
41.40000 17.741
41.42000 18.840
41.44000 15.191
41.46000 16.227
41.48000 15.834
41.50000 16.116
41.52000 14.007
41.54000 6.981
41.56000 9.408
41.58000 9.862
41.60000 13.089
41.62000 9.662
41.64000 7.539
41.66000 9.966
41.68000 10.949
41.70000 5.030
41.72000 3.621
41.74000 2.872
41.76000 0.352
41.78000 3.665
41.80000 6.010
41.82000 3.623
41.84000 4.944
41.86000 4.648
41.88000 3.512
41.90000 2.052
41.92000 4.460
41.94000 2.249
41.96000 0.661
41.98000 3.927
42.00000 1.558
42.02000 0.647
42.04000 0.668
42.06000 0.290
42.08000 -1.973
42.10000 0.239
42.12000 2.510
42.14000 3.725
42.16000 3.669
42.18000 6.082
42.20000 0.514
42.22000 -2.026
42.24000 -3.695
42.26000 -2.873
42.28000 1.269
42.30000 3.630
42.32000 1.150
42.34000 -0.811
42.36000 1.415
42.38000 4.292
42.40000 2.400
42.42000 5.536
42.44000 5.047
42.46000 5.510
42.48000 3.095
42.50000 1.586
42.52000 2.408
42.54000 -1.583
42.56000 -2.370
42.58000 -1.599
42.60000 -2.777
42.62000 2.782
42.64000 1.841
42.66000 -1.601
42.68000 5.926
42.70000 0.471
42.72000 -1.575
42.74000 1.669
42.76000 0.877
42.78000 1.997
42.80000 1.948
42.82000 3.141
42.84000 2.976
42.86000 2.592
42.88000 6.770
42.90000 6.474
42.92000 5.318
42.94000 2.663
42.96000 4.027
42.98000 5.880
43.00000 3.003
43.02000 0.348
43.04000 2.288
43.06000 -0.179
43.08000 0.462
43.10000 5.661
43.12000 8.315
43.14000 6.991
43.16000 7.263
43.18000 0.681
43.20000 0.733
43.22000 0.897
43.24000 -3.552
43.26000 1.268
43.28000 4.496
43.30000 7.143
43.32000 4.867
43.34000 1.559
43.36000 -0.709
43.38000 2.196
43.40000 3.709
43.42000 0.145
43.44000 4.042
43.46000 7.009
43.48000 7.777
43.50000 3.548
43.52000 1.517
43.54000 3.134
43.56000 4.534
43.58000 2.736
43.60000 2.443
43.62000 4.544
43.64000 -0.754
43.66000 2.410
43.68000 4.491
43.70000 4.052
43.72000 -2.963
43.74000 -3.028
43.76000 -2.295
43.78000 -1.484
43.80000 4.280
43.82000 5.081
43.84000 2.402
43.86000 4.532
43.88000 2.744
43.90000 3.975
43.92000 -0.290
43.94000 -2.672
43.96000 -3.569
43.98000 -1.538
44.00000 -1.810
44.02000 -2.460
44.04000 3.731
44.06000 3.771
44.08000 3.075
44.10000 2.083
44.12000 1.573
44.14000 -1.229
44.16000 1.042
44.18000 -3.170
44.20000 -2.622
44.22000 1.321
44.24000 7.086
44.26000 7.558
44.28000 7.155
44.30000 7.810
44.32000 3.141
44.34000 1.798
44.36000 -0.511
44.38000 1.475
44.40000 7.120
44.42000 8.619
44.44000 9.613
44.46000 7.779
44.48000 5.496
44.50000 1.712
44.52000 5.780
44.54000 4.327
44.56000 0.620
44.58000 0.490
44.60000 2.081
44.62000 4.035
44.64000 6.186
44.66000 7.145
44.68000 4.617
44.70000 7.456
44.72000 3.771
44.74000 2.599
44.76000 -0.845
44.78000 2.029
44.80000 2.686
44.82000 0.629
44.84000 3.078
44.86000 10.289
44.88000 12.740
44.90000 10.353
44.92000 12.736
44.94000 10.829
44.96000 12.100
44.98000 4.464
45.00000 5.458
45.02000 6.858
45.04000 4.252
45.06000 6.158
45.08000 3.984
45.10000 8.743
45.12000 14.945
45.14000 20.075
45.16000 18.715
45.18000 15.099
45.20000 16.767
45.22000 12.314
45.24000 16.299
45.26000 14.787
45.28000 10.912
45.30000 18.619
45.32000 18.855
45.34000 17.244
45.36000 24.129
45.38000 26.961
45.40000 23.492
45.42000 27.327
45.44000 26.160
45.46000 27.034
45.48000 29.577
45.50000 24.532
45.52000 24.763
45.54000 18.403
45.56000 22.372
45.58000 30.526
45.60000 28.977
45.62000 30.082
45.64000 37.868
45.66000 42.143
45.68000 39.611
45.70000 32.156
45.72000 32.701
45.74000 33.048
45.76000 33.039
45.78000 35.380
45.80000 40.117
45.82000 43.570
45.84000 46.196
45.86000 44.109
45.88000 43.523
45.90000 48.600
45.92000 50.227
45.94000 50.494
45.96000 51.474
45.98000 53.473
46.00000 54.785
46.02000 55.674
46.04000 63.647
46.06000 61.818
46.08000 59.016
46.10000 60.247
46.12000 59.503
46.14000 60.343
46.16000 68.897
46.18000 67.168
46.20000 60.742
46.22000 65.943
46.24000 70.293
46.26000 76.720
46.28000 77.870
46.30000 71.310
46.32000 77.984
46.34000 79.455
46.36000 81.523
46.38000 78.901
46.40000 77.956
46.42000 80.986
46.44000 81.550
46.46000 80.681
46.48000 86.432
46.50000 84.000
46.52000 77.578
46.54000 81.288
46.56000 79.308
46.58000 85.677
46.60000 83.338
46.62000 75.085
46.64000 78.176
46.66000 84.290
46.68000 77.113
46.70000 76.162
46.72000 72.404
46.74000 68.951
46.76000 67.568
46.78000 69.949
46.80000 65.953
46.82000 61.501
46.84000 61.351
46.86000 60.536
46.88000 55.291
46.90000 52.920
46.92000 64.900
46.94000 62.481
46.96000 59.058
46.98000 49.198
47.00000 51.907
47.02000 50.026
47.04000 48.471
47.06000 46.342
47.08000 42.334
47.10000 44.737
47.12000 45.730
47.14000 41.694
47.16000 40.787
47.18000 44.917
47.20000 47.280
47.22000 31.742
47.24000 33.291
47.26000 34.282
47.28000 37.106
47.30000 29.255
47.32000 25.960
47.34000 25.922
47.36000 24.086
47.38000 20.694
47.40000 20.079
47.42000 24.923
47.44000 21.390
47.46000 23.993
47.48000 14.516
47.50000 15.353
47.52000 11.832
47.54000 15.876
47.56000 20.029
47.58000 17.643
47.60000 16.891
47.62000 10.091
47.64000 11.042
47.66000 5.399
47.68000 6.269
47.70000 12.394
47.72000 16.459
47.74000 12.399
47.76000 7.531
47.78000 -1.504
47.80000 0.765
47.82000 2.135
47.84000 3.952
47.86000 2.481
47.88000 9.555
47.90000 12.580
47.92000 4.973
47.94000 3.454
47.96000 2.949
47.98000 7.392
48.00000 4.326
48.02000 3.508
48.04000 4.070
48.06000 5.549
48.08000 0.756
48.10000 1.785
48.12000 6.419
48.14000 7.061
48.16000 10.177
48.18000 3.752
48.20000 2.960
48.22000 2.470
48.24000 2.513
48.26000 1.987
48.28000 2.093
48.30000 2.166
48.32000 0.364
48.34000 1.170
48.36000 -0.585
48.38000 0.080
48.40000 -3.329
48.42000 0.589
48.44000 3.212
48.46000 2.350
48.48000 3.004
48.50000 2.182
48.52000 2.676
48.54000 2.886
48.56000 -2.595
48.58000 -1.006
48.60000 1.708
48.62000 -0.719
48.64000 -1.006
48.66000 -0.329
48.68000 0.824
48.70000 -0.471
48.72000 -3.053
48.74000 -1.362
48.76000 -0.641
48.78000 -2.900
48.80000 8.939
48.82000 3.119
48.84000 -3.211
48.86000 3.898
48.88000 2.308
48.90000 0.729
48.92000 -0.156
48.94000 6.302
48.96000 8.548
48.98000 2.577
49.00000 2.999
49.02000 8.584
49.04000 9.329
49.06000 5.425
49.08000 2.456
49.10000 -2.270
49.12000 -0.334
49.14000 3.782
49.16000 4.159
49.18000 3.651
49.20000 1.151
49.22000 -2.928
49.24000 -0.775
49.26000 -3.175
49.28000 0.962
49.30000 2.537
49.32000 0.796
49.34000 4.198
49.36000 7.446
49.38000 5.215
49.40000 3.424
49.42000 7.310
49.44000 10.474
49.46000 8.833
49.48000 6.834
49.50000 4.229
49.52000 0.612
49.54000 0.012
49.56000 -0.859
49.58000 1.492
49.60000 5.861
49.62000 -0.342
49.64000 2.713
49.66000 3.504
49.68000 3.830
49.70000 7.522
49.72000 2.731
49.74000 -0.218
49.76000 1.215
49.78000 7.066
49.80000 5.583
49.82000 7.907
49.84000 9.492
49.86000 9.996
49.88000 6.777
49.90000 0.870
49.92000 1.618
49.94000 3.323
49.96000 0.331
49.98000 1.084
50.00000 -0.141
50.02000 4.223
50.04000 3.532
50.06000 2.783
50.08000 -0.375
50.10000 1.894
50.12000 0.386
50.14000 -3.151
50.16000 -1.660
50.18000 -1.062
50.20000 4.575
50.22000 3.599
50.24000 1.264
50.26000 4.408
50.28000 -0.062
50.30000 1.724
50.32000 0.416
50.34000 1.549
50.36000 5.078
50.38000 -1.349
50.40000 -2.929
50.42000 1.478
50.44000 4.661
50.46000 -1.084
50.48000 -3.141
50.50000 0.823
50.52000 2.967
50.54000 4.414
50.56000 0.435
50.58000 4.936
50.60000 5.224
50.62000 2.806
50.64000 5.939
50.66000 4.863
50.68000 -1.360
50.70000 -1.318
50.72000 1.153
50.74000 0.670
50.76000 2.617
50.78000 2.159
50.80000 -0.565
50.82000 6.775
50.84000 1.812
50.86000 1.227
50.88000 2.770
50.90000 2.631
50.92000 2.770
50.94000 -0.985
50.96000 5.005
50.98000 4.262
51.00000 6.662
51.02000 4.526
51.04000 1.361
51.06000 7.335
51.08000 -1.509
51.10000 1.180
51.12000 2.768
51.14000 7.374
51.16000 4.321
51.18000 10.291
51.20000 5.184
51.22000 8.318
51.24000 10.354
51.26000 2.405
51.28000 5.397
51.30000 4.449
51.32000 -2.780
51.34000 -0.253
51.36000 -0.763
51.38000 -1.000
51.40000 3.557
51.42000 2.775
51.44000 1.904
51.46000 5.030
51.48000 5.268
51.50000 4.367
51.52000 6.451
51.54000 0.853
51.56000 3.269
51.58000 -0.129
51.60000 -0.024
51.62000 -3.057
51.64000 1.913
51.66000 4.555
51.68000 3.397
51.70000 3.615
51.72000 4.067
51.74000 8.813
51.76000 1.618
51.78000 -1.089
51.80000 1.430
51.82000 2.646
51.84000 0.374
51.86000 3.483
51.88000 8.186
51.90000 6.658
51.92000 1.865
51.94000 2.053
51.96000 -2.432
51.98000 -0.711
52.00000 -1.419
52.02000 6.574
52.04000 1.370
52.06000 -3.039
52.08000 3.067
52.10000 4.540
52.12000 0.955
52.14000 4.405
52.16000 8.486
52.18000 2.937
52.20000 7.035
52.22000 14.662
52.24000 9.079
52.26000 4.342
52.28000 7.437
52.30000 5.941
52.32000 -2.777
52.34000 6.116
52.36000 12.674
52.38000 4.907
52.40000 2.597
52.42000 7.225
52.44000 6.260
52.46000 6.521
52.48000 5.344
52.50000 4.326
52.52000 5.775
52.54000 2.157
52.56000 3.967
52.58000 6.591
52.60000 8.898
52.62000 2.147
52.64000 -2.503
52.66000 2.665
52.68000 2.539
52.70000 -1.631
52.72000 -0.838
52.74000 -3.031
52.76000 -2.787
52.78000 2.455
52.80000 2.789
52.82000 6.643
52.84000 1.645
52.86000 2.100
52.88000 6.136
52.90000 6.186
52.92000 7.505
52.94000 4.119
52.96000 2.708
52.98000 5.246
53.00000 6.407
53.02000 4.059
53.04000 1.083
53.06000 0.685
53.08000 8.706
53.10000 3.605
53.12000 0.291
53.14000 6.446
53.16000 9.637
53.18000 7.943
53.20000 6.466
53.22000 0.794
53.24000 1.353
53.26000 1.741
53.28000 5.303
53.30000 2.854
53.32000 0.354
53.34000 -1.904
53.36000 -0.543
53.38000 0.799
53.40000 2.830
53.42000 4.180
53.44000 3.376
53.46000 2.583
53.48000 5.383
53.50000 8.901
53.52000 6.251
53.54000 1.853
53.56000 1.939
53.58000 0.011
53.60000 0.836
53.62000 1.735
53.64000 3.508
53.66000 9.060
53.68000 9.541
53.70000 6.742
53.72000 5.244
53.74000 8.520
53.76000 2.824
53.78000 4.712
53.80000 4.553
53.82000 1.249
53.84000 1.618
53.86000 5.906
53.88000 2.580
53.90000 2.048
53.92000 -0.675
53.94000 1.088
53.96000 2.543
53.98000 6.902
54.00000 7.277
54.02000 6.614
54.04000 4.258
54.06000 4.048
54.08000 0.483
54.10000 2.638
54.12000 5.466
54.14000 3.860
54.16000 8.049
54.18000 4.858
54.20000 6.380
54.22000 12.728
54.24000 9.480
54.26000 2.435
54.28000 -2.926
54.30000 0.192
54.32000 7.989
54.34000 7.969
54.36000 5.075
54.38000 5.565
54.40000 4.853
54.42000 5.230
54.44000 4.213
54.46000 10.030
54.48000 13.921
54.50000 4.370
54.52000 3.831
54.54000 5.842
54.56000 4.440
54.58000 9.584
54.60000 3.415
54.62000 3.937
54.64000 6.260
54.66000 2.061
54.68000 3.567
54.70000 12.265
54.72000 13.312
54.74000 8.631
54.76000 6.282
54.78000 5.781
54.80000 8.585
54.82000 4.699
54.84000 5.865
54.86000 6.682
54.88000 13.035
54.90000 10.499
54.92000 1.655
54.94000 7.598
54.96000 2.650
54.98000 3.905
55.00000 5.331
55.02000 7.356
55.04000 6.158
55.06000 8.843
55.08000 5.588
55.10000 3.969
55.12000 12.917
55.14000 7.841
55.16000 6.847
55.18000 8.450
55.20000 5.563
55.22000 5.955
55.24000 6.892
55.26000 12.509
55.28000 18.759
55.30000 12.164
55.32000 7.931
55.34000 8.049
55.36000 4.874
55.38000 4.926
55.40000 6.313
55.42000 6.556
55.44000 7.618
55.46000 5.857
55.48000 -2.900
55.50000 3.244
55.52000 5.673
55.54000 2.424
55.56000 7.185
55.58000 5.066
55.60000 8.291
55.62000 4.778
55.64000 5.708
55.66000 5.921
55.68000 -0.008
55.70000 3.930
55.72000 5.833
55.74000 2.496
55.76000 5.838
55.78000 9.430
55.80000 12.118
55.82000 10.560
55.84000 6.058
55.86000 5.148
55.88000 4.989
55.90000 4.694
55.92000 2.393
55.94000 2.785
55.96000 5.022
55.98000 4.102
56.00000 1.983
56.02000 6.081
56.04000 5.127
56.06000 6.021
56.08000 6.855
56.10000 4.659
56.12000 4.551
56.14000 4.879
56.16000 1.569
56.18000 7.411
56.20000 4.591
56.22000 6.948
56.24000 4.503
56.26000 5.310
56.28000 7.075
56.30000 10.200
56.32000 5.675
56.34000 2.389
56.36000 4.214
56.38000 2.834
56.40000 4.152
56.42000 3.420
56.44000 0.685
56.46000 6.840
56.48000 2.482
56.50000 2.206
56.52000 0.370
56.54000 -0.490
56.56000 3.629
56.58000 2.016
56.60000 0.279
56.62000 3.437
56.64000 2.777
56.66000 4.949
56.68000 4.513
56.70000 2.198
56.72000 3.426
56.74000 -0.929
56.76000 1.242
56.78000 2.626
56.80000 6.816
56.82000 4.131
56.84000 1.157
56.86000 3.385
56.88000 2.460
56.90000 5.714
56.92000 5.416
56.94000 2.931
56.96000 3.944
56.98000 2.990
57.00000 1.561
57.02000 2.910
57.04000 0.752
57.06000 0.601
57.08000 1.974
57.10000 1.941
57.12000 3.103
57.14000 -1.283
57.16000 -2.311
57.18000 -0.439
57.20000 2.284
57.22000 3.397
57.24000 2.240
57.26000 1.770
57.28000 0.762
57.30000 1.889
57.32000 2.832
57.34000 2.895
57.36000 0.895
57.38000 2.171
57.40000 9.620
57.42000 7.583
57.44000 6.056
57.46000 3.174
57.48000 4.321
57.50000 5.117
57.52000 0.843
57.54000 2.194
57.56000 3.211
57.58000 4.323
57.60000 -0.659
57.62000 0.258
57.64000 0.404
57.66000 -0.851
57.68000 2.028
57.70000 2.695
57.72000 5.573
57.74000 -2.878
57.76000 1.783
57.78000 5.166
57.80000 6.533
57.82000 3.483
57.84000 3.193
57.86000 5.047
57.88000 1.273
57.90000 1.330
57.92000 0.206
57.94000 -0.297
57.96000 1.145
57.98000 2.088
58.00000 8.102
58.02000 8.348
58.04000 7.150
58.06000 8.115
58.08000 3.843
58.10000 0.334
58.12000 4.190
58.14000 6.827
58.16000 4.749
58.18000 3.214
58.20000 5.603
58.22000 -1.398
58.24000 2.391
58.26000 3.623
58.28000 3.826
58.30000 6.414
58.32000 5.619
58.34000 0.020
58.36000 6.482
58.38000 7.547
58.40000 4.022
58.42000 4.279
58.44000 5.091
58.46000 -1.401
58.48000 -0.633
58.50000 3.941
58.52000 4.400
58.54000 -1.463
58.56000 -0.942
58.58000 -2.136
58.60000 -2.164
58.62000 -2.092
58.64000 7.061
58.66000 -0.208
58.68000 -2.889
58.70000 -0.489
58.72000 3.348
58.74000 1.069
58.76000 -0.860
58.78000 2.310
58.80000 4.477
58.82000 0.299
58.84000 0.690
58.86000 -2.346
58.88000 3.497
58.90000 -0.648
58.92000 -2.498
58.94000 -1.228
58.96000 3.478
58.98000 1.140
59.00000 -1.583
59.02000 -0.617
59.04000 0.823
59.06000 2.179
59.08000 1.523
59.10000 2.881
59.12000 0.227
59.14000 2.227
59.16000 3.907
59.18000 0.729
59.20000 1.960
59.22000 3.620
59.24000 3.186
59.26000 3.524
59.28000 -0.498
59.30000 6.278
59.32000 7.307
59.34000 0.592
59.36000 -2.280
59.38000 1.037
59.40000 -0.612
59.42000 -1.080
59.44000 0.565
59.46000 1.507
59.48000 -1.026
59.50000 -0.991
59.52000 1.911
59.54000 0.405
59.56000 2.432
59.58000 4.969
59.60000 4.685
59.62000 7.406
59.64000 1.870
59.66000 0.541
59.68000 2.909
59.70000 7.469
59.72000 6.770
59.74000 10.833
59.76000 9.939
59.78000 4.181
59.80000 1.222
59.82000 3.276
59.84000 6.060
59.86000 3.522
59.88000 6.298
59.90000 9.365
59.92000 4.415
59.94000 4.292
59.96000 4.383
59.98000 2.698
60.00000 2.570
60.02000 3.372
60.04000 4.386
60.06000 5.477
60.08000 6.651
60.10000 2.199
60.12000 9.908
60.14000 7.840
60.16000 5.395
60.18000 0.608
60.20000 -0.206
60.22000 4.007
60.24000 11.428
60.26000 11.616
60.28000 12.124
60.30000 5.523
60.32000 7.992
60.34000 3.743
60.36000 -0.002
60.38000 1.411
60.40000 2.862
60.42000 5.823
60.44000 10.059
60.46000 14.843
60.48000 1.487
60.50000 2.412
60.52000 6.862
60.54000 1.685
60.56000 1.647
60.58000 1.654
60.60000 5.890
60.62000 2.148
60.64000 5.049
60.66000 1.719
60.68000 -2.725
60.70000 1.090
60.72000 3.243
60.74000 8.011
60.76000 7.336
60.78000 5.527
60.80000 3.302
60.82000 -2.434
60.84000 1.052
60.86000 1.962
60.88000 -2.714
60.90000 1.543
60.92000 8.859
60.94000 8.390
60.96000 4.175
60.98000 4.123
61.00000 6.947
61.02000 8.307
61.04000 3.599
61.06000 5.804
61.08000 4.148
61.10000 1.487
61.12000 5.911
61.14000 6.221
61.16000 3.621
61.18000 5.248
61.20000 7.247
61.22000 7.935
61.24000 6.553
61.26000 2.113
61.28000 0.403
61.30000 2.957
61.32000 4.417
61.34000 6.393
61.36000 4.568
61.38000 4.000
61.40000 5.756
61.42000 6.709
61.44000 3.933
61.46000 3.909
61.48000 9.476
61.50000 10.838
61.52000 5.172
61.54000 5.623
61.56000 4.469
61.58000 3.064
61.60000 0.173
61.62000 5.431
61.64000 3.965
61.66000 2.809
61.68000 6.698
61.70000 6.880
61.72000 0.099
61.74000 3.271
61.76000 3.404
61.78000 2.804
61.80000 5.386
61.82000 4.622
61.84000 7.030
61.86000 4.523
61.88000 3.735
61.90000 2.534
61.92000 2.414
61.94000 3.272
61.96000 -0.779
61.98000 5.815
62.00000 6.328
62.02000 1.400
62.04000 1.429
62.06000 3.762
62.08000 3.451
62.10000 2.157
62.12000 5.834
62.14000 3.008
62.16000 2.051
62.18000 1.611
62.20000 1.225
62.22000 3.838
62.24000 4.776
62.26000 3.076
62.28000 3.837
62.30000 3.024
62.32000 3.441
62.34000 3.090
62.36000 5.264
62.38000 4.332
62.40000 2.551
62.42000 2.336
62.44000 6.433
62.46000 5.362
62.48000 5.627
62.50000 5.850
62.52000 2.319
62.54000 3.749
62.56000 5.347
62.58000 9.523
62.60000 8.883
62.62000 3.820
62.64000 -2.695
62.66000 2.958
62.68000 8.565
62.70000 6.242
62.72000 5.506
62.74000 9.671
62.76000 6.977
62.78000 7.625
62.80000 4.822
62.82000 2.143
62.84000 6.406
62.86000 8.295
62.88000 6.451
62.90000 8.323
62.92000 13.509
62.94000 8.207
62.96000 4.919
62.98000 2.440
63.00000 4.384
63.02000 4.549
63.04000 2.273
63.06000 0.299
63.08000 6.199
63.10000 5.602
63.12000 3.574
63.14000 1.956
63.16000 2.470
63.18000 -1.788
63.20000 1.272
63.22000 2.168
63.24000 9.483
63.26000 11.046
63.28000 7.129
63.30000 2.888
63.32000 2.035
63.34000 4.639
63.36000 6.343
63.38000 10.334
63.40000 12.355
63.42000 8.375
63.44000 5.677
63.46000 4.490
63.48000 3.443
63.50000 2.791
63.52000 8.825
63.54000 6.666
63.56000 3.982
63.58000 5.771
63.60000 1.225
63.62000 1.667
63.64000 5.951
63.66000 7.401
63.68000 6.027
63.70000 4.066
63.72000 9.708
63.74000 9.461
63.76000 3.226
63.78000 -2.692
63.80000 0.700
63.82000 5.793
63.84000 6.432
63.86000 7.889
63.88000 7.773
63.90000 7.269
63.92000 8.001
63.94000 5.585
63.96000 5.692
63.98000 0.997
64.00000 4.754
64.02000 6.407
64.04000 4.350
64.06000 3.959
64.08000 5.950
64.10000 7.125
64.12000 8.403
64.14000 7.878
64.16000 7.006
64.18000 2.460
64.20000 3.425
64.22000 2.230
64.24000 3.685
64.26000 5.090
64.28000 7.691
64.30000 7.569
64.32000 3.289
64.34000 2.628
64.36000 5.529
64.38000 5.798
64.40000 9.363
64.42000 8.194
64.44000 2.659
64.46000 4.214
64.48000 1.852
64.50000 3.625
64.52000 1.998
64.54000 3.225
64.56000 2.232
64.58000 1.193
64.60000 2.384
64.62000 2.441
64.64000 4.274
64.66000 5.169
64.68000 6.836
64.70000 4.343
64.72000 1.434
64.74000 0.233
64.76000 7.201
64.78000 3.322
64.80000 -2.727
64.82000 4.535
64.84000 3.306
64.86000 -1.241
64.88000 1.454
64.90000 6.992
64.92000 10.779
64.94000 7.026
64.96000 6.432
64.98000 7.689
65.00000 7.328
65.02000 2.122
65.04000 0.908
65.06000 2.371
65.08000 2.375
65.10000 4.128
65.12000 5.311
65.14000 7.809
65.16000 4.070
65.18000 -0.926
65.20000 0.728
65.22000 2.508
65.24000 3.549
65.26000 3.206
65.28000 0.843
65.30000 0.576
65.32000 1.362
65.34000 7.274
65.36000 3.202
65.38000 -2.017
65.40000 -0.127
65.42000 4.902
65.44000 5.066
65.46000 6.369
65.48000 0.992
65.50000 2.050
65.52000 2.517
65.54000 1.768
65.56000 3.522
65.58000 6.361
65.60000 6.248
65.62000 -0.134
65.64000 -2.507
65.66000 0.348
65.68000 5.609
65.70000 2.739
65.72000 8.357
65.74000 2.422
65.76000 0.430
65.78000 1.904
65.80000 4.967
65.82000 -2.153
65.84000 -2.802
65.86000 -2.021
65.88000 2.678
65.90000 2.066
65.92000 3.914
65.94000 7.041
65.96000 5.807
65.98000 5.901
66.00000 9.752
66.02000 6.972
66.04000 2.827
66.06000 4.954
66.08000 11.827
66.10000 6.124
66.12000 6.193
66.14000 8.457
66.16000 8.317
66.18000 5.087
66.20000 0.836
66.22000 4.082
66.24000 9.133
66.26000 3.201
66.28000 4.462
66.30000 4.956
66.32000 3.115
66.34000 5.971
66.36000 2.632
66.38000 5.436
66.40000 10.768
66.42000 8.365
66.44000 2.299
66.46000 6.131
66.48000 5.303
66.50000 4.863
66.52000 4.001
66.54000 5.944
66.56000 6.802
66.58000 4.618
66.60000 5.790
66.62000 4.391
66.64000 6.540
66.66000 7.254
66.68000 9.513
66.70000 11.918
66.72000 9.376
66.74000 8.598
66.76000 10.209
66.78000 9.926
66.80000 6.787
66.82000 7.612
66.84000 11.196
66.86000 13.950
66.88000 15.800
66.90000 14.463
66.92000 10.618
66.94000 11.992
66.96000 12.436
66.98000 9.622
67.00000 10.132
67.02000 10.893
67.04000 10.497
67.06000 13.316
67.08000 15.685
67.10000 16.876
67.12000 14.961
67.14000 14.672
67.16000 14.924
67.18000 13.906
67.20000 17.269
67.22000 15.998
67.24000 16.815
67.26000 19.898
67.28000 17.711
67.30000 18.730
67.32000 23.570
67.34000 21.321
67.36000 20.095
67.38000 23.288
67.40000 21.656
67.42000 20.176
67.44000 21.956
67.46000 22.181
67.48000 20.903
67.50000 20.494
67.52000 21.441
67.54000 19.567
67.56000 20.980
67.58000 17.906
67.60000 18.432
67.62000 22.336
67.64000 21.158
67.66000 20.444
67.68000 25.579
67.70000 25.142
67.72000 25.210
67.74000 22.691
67.76000 23.486
67.78000 22.934
67.80000 21.876
67.82000 20.964
67.84000 23.250
67.86000 20.849
67.88000 21.453
67.90000 21.354
67.92000 21.585
67.94000 20.394
67.96000 21.590
67.98000 21.145
68.00000 18.406
68.02000 19.485
68.04000 22.831
68.06000 20.452
68.08000 21.030
68.10000 19.067
68.12000 19.598
68.14000 19.796
68.16000 21.265
68.18000 22.066
68.20000 22.772
68.22000 16.696
68.24000 14.439
68.26000 11.707
68.28000 13.074
68.30000 14.765
68.32000 15.325
68.34000 10.537
68.36000 16.574
68.38000 17.615
68.40000 16.899
68.42000 14.738
68.44000 13.371
68.46000 8.670
68.48000 14.856
68.50000 14.206
68.52000 12.340
68.54000 12.263
68.56000 13.791
68.58000 8.447
68.60000 3.850
68.62000 3.462
68.64000 12.804
68.66000 7.202
68.68000 5.948
68.70000 9.078
68.72000 9.671
68.74000 9.952
68.76000 8.984
68.78000 8.211
68.80000 8.879
68.82000 4.838
68.84000 1.106
68.86000 7.981
68.88000 8.654
68.90000 10.059
68.92000 9.921
68.94000 7.708
68.96000 5.831
68.98000 6.308
69.00000 10.717
69.02000 11.696
69.04000 5.803
69.06000 7.401
69.08000 5.700
69.10000 8.425
69.12000 6.634
69.14000 2.361
69.16000 -2.727
69.18000 -2.049
69.20000 3.468
69.22000 0.585
69.24000 1.743
69.26000 5.425
69.28000 6.857
69.30000 8.759
69.32000 6.461
69.34000 5.603
69.36000 5.971
69.38000 4.927
69.40000 -0.239
69.42000 -0.271
69.44000 2.014
69.46000 2.454
69.48000 1.569
69.50000 6.876
69.52000 6.383
69.54000 6.528
69.56000 6.380
69.58000 4.989
69.60000 2.046
69.62000 2.876
69.64000 3.532
69.66000 4.495
69.68000 5.394
69.70000 2.033
69.72000 5.847
69.74000 5.305
69.76000 1.959
69.78000 3.003
69.80000 3.188
69.82000 5.100
69.84000 1.513
69.86000 -2.640
69.88000 -0.074
69.90000 6.986
69.92000 10.594
69.94000 11.731
69.96000 6.565
69.98000 3.421
70.00000 3.116
70.02000 8.335
70.04000 5.790
70.06000 7.037
70.08000 2.578
70.10000 2.554
70.12000 5.410
70.14000 3.463
70.16000 -2.618
70.18000 0.788
70.20000 5.361
70.22000 9.553
70.24000 7.366
70.26000 5.346
70.28000 6.586
70.30000 7.007
70.32000 11.190
70.34000 8.677
70.36000 6.663
70.38000 3.950
70.40000 0.509
70.42000 1.235
70.44000 2.612
70.46000 7.170
70.48000 6.584
70.50000 5.849
70.52000 9.049
70.54000 7.896
70.56000 11.219
70.58000 8.542
70.60000 2.785
70.62000 -2.179
70.64000 0.772
70.66000 3.011
70.68000 6.260
70.70000 6.960
70.72000 6.703
70.74000 4.987
70.76000 4.259
70.78000 -1.833
70.80000 0.087
70.82000 6.994
70.84000 8.721
70.86000 6.702
70.88000 5.094
70.90000 4.929
70.92000 3.517
70.94000 7.504
70.96000 6.201
70.98000 0.847
71.00000 4.926
71.02000 3.542
71.04000 -2.608
71.06000 4.832
71.08000 2.186
71.10000 -0.196
71.12000 -0.772
71.14000 4.622
71.16000 6.287
71.18000 6.299
71.20000 2.568
71.22000 3.208
71.24000 6.046
71.26000 3.112
71.28000 3.617
71.30000 1.618
71.32000 0.668
71.34000 2.493
71.36000 7.736
71.38000 6.939
71.40000 7.168
71.42000 -0.842
71.44000 3.128
71.46000 7.454
71.48000 7.323
71.50000 8.178
71.52000 11.727
71.54000 5.107
71.56000 3.857
71.58000 7.629
71.60000 5.913
71.62000 7.705
71.64000 6.692
71.66000 6.550
71.68000 6.514
71.70000 11.422
71.72000 8.209
71.74000 6.743
71.76000 6.725
71.78000 3.560
71.80000 4.843
71.82000 0.741
71.84000 -1.776
71.86000 3.914
71.88000 6.820
71.90000 1.569
71.92000 -2.544
71.94000 -0.406
71.96000 -0.345
71.98000 2.950
72.00000 3.334
72.02000 1.906
72.04000 5.467
72.06000 8.275
72.08000 6.361
72.10000 3.852
72.12000 5.402
72.14000 1.950
72.16000 -1.564
72.18000 -2.222
72.20000 -0.441
72.22000 -1.074
72.24000 4.450
72.26000 4.628
72.28000 1.747
72.30000 4.092
72.32000 5.222
72.34000 7.853
72.36000 3.900
72.38000 1.014
72.40000 0.300
72.42000 2.472
72.44000 2.838
72.46000 1.313
72.48000 2.252
72.50000 7.042
72.52000 6.575
72.54000 4.020
72.56000 7.083
72.58000 8.279
72.60000 5.260
72.62000 2.035
72.64000 3.988
72.66000 3.510
72.68000 10.223
72.70000 6.480
72.72000 5.394
72.74000 7.984
72.76000 6.428
72.78000 10.213
72.80000 10.945
72.82000 7.240
72.84000 5.829
72.86000 4.309
72.88000 4.271
72.90000 5.496
72.92000 6.304
72.94000 1.237
72.96000 4.870
72.98000 5.999
73.00000 2.087
73.02000 8.549
73.04000 6.269
73.06000 1.648
73.08000 1.458
73.10000 2.538
73.12000 7.268
73.14000 10.406
73.16000 -0.235
73.18000 -0.681
73.20000 5.729
73.22000 11.554
73.24000 7.698
73.26000 5.589
73.28000 7.570
73.30000 7.667
73.32000 4.383
73.34000 5.270
73.36000 4.521
73.38000 2.695
73.40000 5.260
73.42000 4.493
73.44000 -2.474
73.46000 3.809
73.48000 6.228
73.50000 2.966
73.52000 5.403
73.54000 6.106
73.56000 7.823
73.58000 10.322
73.60000 9.236
73.62000 4.373
73.64000 7.088
73.66000 8.982
73.68000 9.150
73.70000 7.194
73.72000 7.498
73.74000 8.888
73.76000 6.342
73.78000 5.277
73.80000 1.829
73.82000 1.749
73.84000 1.441
73.86000 4.570
73.88000 4.517
73.90000 6.385
73.92000 5.727
73.94000 6.983
73.96000 8.181
73.98000 11.735
74.00000 6.768
74.02000 1.121
74.04000 -1.296
74.06000 1.204
74.08000 -0.479
74.10000 3.301
74.12000 4.279
74.14000 4.282
74.16000 0.916
74.18000 -0.321
74.20000 -1.693
74.22000 -0.870
74.24000 1.893
74.26000 1.253
74.28000 -1.665
74.30000 2.889
74.32000 6.528
74.34000 5.347
74.36000 5.273
74.38000 8.582
74.40000 6.523
74.42000 4.839
74.44000 5.254
74.46000 10.829
74.48000 9.517
74.50000 8.944
74.52000 7.771
74.54000 6.369
74.56000 6.166
74.58000 2.720
74.60000 3.405
74.62000 -1.684
74.64000 0.772
74.66000 4.260
74.68000 4.871
74.70000 5.176
74.72000 5.212
74.74000 4.331
74.76000 0.087
74.78000 -1.022
74.80000 1.465
74.82000 7.084
74.84000 -0.567
74.86000 2.279
74.88000 3.292
74.90000 2.703
74.92000 0.305
74.94000 3.455
74.96000 5.133
74.98000 5.502
75.00000 9.647
75.02000 10.284
75.04000 11.780
75.06000 6.542
75.08000 4.173
75.10000 4.504
75.12000 3.809
75.14000 5.209
75.16000 -0.271
75.18000 -2.169
75.20000 -2.524
75.22000 -1.795
75.24000 0.881
75.26000 3.414
75.28000 7.636
75.30000 5.693
75.32000 7.443
75.34000 7.377
75.36000 9.502
75.38000 6.692
75.40000 6.632
75.42000 9.342
75.44000 2.978
75.46000 -2.512
75.48000 -0.703
75.50000 -0.274
75.52000 2.910
75.54000 0.338
75.56000 2.493
75.58000 5.372
75.60000 7.431
75.62000 7.999
75.64000 3.983
75.66000 -2.511
75.68000 4.553
75.70000 8.096
75.72000 6.063
75.74000 6.392
75.76000 8.598
75.78000 4.550
75.80000 5.491
75.82000 6.548
75.84000 2.058
75.86000 1.479
75.88000 1.793
75.90000 2.318
75.92000 1.998
75.94000 1.757
75.96000 1.059
75.98000 -0.360
76.00000 0.808
76.02000 3.214
76.04000 4.385
76.06000 3.313
76.08000 4.236
76.10000 5.066
76.12000 2.688
76.14000 3.912
76.16000 0.135
76.18000 -0.927
76.20000 5.150
76.22000 10.164
76.24000 6.123
76.26000 3.994
76.28000 8.214
76.30000 5.645
76.32000 3.773
76.34000 3.391
76.36000 -0.114
76.38000 -0.313
76.40000 3.387
76.42000 3.882
76.44000 1.317
76.46000 4.699
76.48000 3.993
76.50000 2.604
76.52000 1.959
76.54000 4.487
76.56000 11.541
76.58000 9.542
76.60000 7.174
76.62000 1.753
76.64000 4.158
76.66000 3.445
76.68000 5.378
76.70000 5.583
76.72000 5.169
76.74000 -2.239
76.76000 0.081
76.78000 1.044
76.80000 2.234
76.82000 1.682
76.84000 6.813
76.86000 9.611
76.88000 2.526
76.90000 3.217
76.92000 -2.472
76.94000 0.434
76.96000 3.855
76.98000 4.181
77.00000 -2.578
77.02000 0.189
77.04000 -1.359
77.06000 0.804
77.08000 2.698
77.10000 1.017
77.12000 1.739
77.14000 0.105
77.16000 5.018
77.18000 4.474
77.20000 2.365
77.22000 -0.050
77.24000 3.090
77.26000 4.085
77.28000 4.265
77.30000 -1.286
77.32000 0.661
77.34000 1.135
77.36000 6.527
77.38000 9.530
77.40000 4.531
77.42000 0.539
77.44000 0.335
77.46000 0.946
77.48000 5.238
77.50000 2.667
77.52000 0.349
77.54000 3.061
77.56000 8.451
77.58000 6.073
77.60000 3.323
77.62000 1.740
77.64000 0.158
77.66000 -1.835
77.68000 2.672
77.70000 5.279
77.72000 5.444
77.74000 0.459
77.76000 0.883
77.78000 0.740
77.80000 3.343
77.82000 0.640
77.84000 -0.043
77.86000 3.758
77.88000 1.702
77.90000 3.833
77.92000 0.280
77.94000 0.098
77.96000 1.385
77.98000 11.740
78.00000 9.697
78.02000 -0.653
78.04000 4.524
78.06000 7.202
78.08000 6.199
78.10000 5.861
78.12000 1.456
78.14000 0.219
78.16000 4.844
78.18000 2.703
78.20000 1.235
78.22000 1.949
78.24000 5.687
78.26000 5.665
78.28000 3.485
78.30000 3.133
78.32000 4.819
78.34000 4.966
78.36000 0.775
78.38000 2.210
78.40000 11.853
78.42000 7.767
78.44000 -1.111
78.46000 -2.608
78.48000 3.978
78.50000 1.821
78.52000 4.467
78.54000 2.850
78.56000 9.232
78.58000 11.647
78.60000 4.114
78.62000 6.123
78.64000 3.362
78.66000 1.024
78.68000 6.914
78.70000 7.659
78.72000 0.316
78.74000 7.196
78.76000 10.186
78.78000 5.926
78.80000 7.669
78.82000 5.928
78.84000 4.909
78.86000 3.331
78.88000 2.486
78.90000 0.246
78.92000 3.159
78.94000 4.341
78.96000 4.442
78.98000 2.613
79.00000 3.895
79.02000 4.534
79.04000 5.426
79.06000 4.930
79.08000 2.342
79.10000 8.303
79.12000 6.923
79.14000 2.100
79.16000 2.795
79.18000 9.300
79.20000 1.785
79.22000 4.512
79.24000 4.356
79.26000 0.732
79.28000 6.076
79.30000 0.451
79.32000 2.420
79.34000 3.282
79.36000 7.667
79.38000 7.675
79.40000 11.618
79.42000 8.761
79.44000 -0.579
79.46000 -2.670
79.48000 1.100
79.50000 0.403
79.52000 3.052
79.54000 3.511
79.56000 6.156
79.58000 10.143
79.60000 -0.830
79.62000 0.719
79.64000 3.708
79.66000 2.702
79.68000 6.035
79.70000 6.186
79.72000 2.713
79.74000 6.073
79.76000 3.905
79.78000 -1.186
79.80000 3.635
79.82000 3.933
79.84000 3.409
79.86000 7.940
79.88000 8.344
79.90000 4.774
79.92000 6.994
79.94000 5.927
79.96000 11.290
79.98000 10.031
80.00000 8.244
80.02000 10.399
80.04000 7.553
80.06000 4.317
80.08000 3.446
80.10000 4.972
80.12000 6.652
80.14000 4.048
80.16000 6.514
80.18000 8.603
80.20000 3.886
80.22000 1.799
80.24000 2.010
80.26000 1.135
80.28000 1.308
80.30000 6.079
80.32000 9.230
80.34000 1.515
80.36000 11.866
80.38000 16.800
80.40000 12.902
80.42000 7.838
80.44000 7.830
80.46000 4.978
80.48000 5.752
80.50000 11.347
80.52000 10.397
80.54000 5.194
80.56000 6.654
80.58000 16.342
80.60000 14.836
80.62000 7.081
80.64000 5.467
80.66000 10.673
80.68000 10.780
80.70000 11.067
80.72000 9.604
80.74000 4.583
80.76000 9.988
80.78000 13.022
80.80000 10.885
80.82000 11.830
80.84000 11.545
80.86000 9.751
80.88000 8.808
80.90000 8.555
80.92000 8.282
80.94000 11.555
80.96000 17.682
80.98000 14.080
81.00000 15.346
81.02000 17.123
81.04000 16.878
81.06000 18.126
81.08000 19.689
81.10000 14.880
81.12000 8.399
81.14000 7.242
81.16000 13.024
81.18000 11.813
81.20000 12.127
81.22000 15.156
81.24000 16.207
81.26000 19.593
81.28000 22.999
81.30000 20.212
81.32000 20.939
81.34000 22.261
81.36000 21.777
81.38000 22.352
81.40000 20.419
81.42000 22.334
81.44000 20.549
81.46000 20.659
81.48000 21.404
81.50000 21.847
81.52000 21.840
81.54000 25.517
81.56000 24.514
81.58000 21.725
81.60000 19.732
81.62000 25.257
81.64000 22.812
81.66000 20.148
81.68000 17.033
81.70000 16.842
81.72000 22.964
81.74000 20.620
81.76000 29.918
81.78000 25.715
81.80000 26.850
81.82000 26.856
81.84000 30.314
81.86000 32.886
81.88000 38.899
81.90000 28.608
81.92000 28.462
81.94000 26.592
81.96000 22.346
81.98000 29.552
82.00000 23.203
82.02000 17.569
82.04000 20.755
82.06000 28.362
82.08000 27.053
82.10000 19.605
82.12000 24.166
82.14000 26.760
82.16000 23.314
82.18000 21.638
82.20000 28.314
82.22000 22.383
82.24000 26.329
82.26000 21.447
82.28000 23.189
82.30000 23.749
82.32000 25.595
82.34000 26.489
82.36000 24.313
82.38000 16.598
82.40000 14.650
82.42000 16.065
82.44000 21.937
82.46000 22.193
82.48000 20.188
82.50000 22.902
82.52000 22.442
82.54000 21.876
82.56000 20.784
82.58000 15.986
82.60000 12.467
82.62000 10.607
82.64000 14.532
82.66000 16.778
82.68000 19.531
82.70000 11.922
82.72000 11.709
82.74000 9.557
82.76000 10.843
82.78000 8.057
82.80000 11.408
82.82000 10.941
82.84000 11.041
82.86000 9.086
82.88000 5.958
82.90000 8.443
82.92000 7.973
82.94000 10.190
82.96000 8.267
82.98000 10.833
83.00000 8.797
83.02000 10.012
83.04000 10.200
83.06000 2.938
83.08000 7.582
83.10000 8.837
83.12000 9.265
83.14000 10.762
83.16000 9.360
83.18000 4.649
83.20000 10.687
83.22000 12.604
83.24000 12.515
83.26000 8.743
83.28000 3.116
83.30000 0.238
83.32000 4.138
83.34000 8.400
83.36000 5.398
83.38000 5.099
83.40000 -0.546
83.42000 -2.786
83.44000 1.437
83.46000 2.946
83.48000 2.736
83.50000 2.135
83.52000 6.087
83.54000 12.901
83.56000 11.672
83.58000 5.858
83.60000 -1.882
83.62000 0.660
83.64000 2.730
83.66000 2.854
83.68000 3.759
83.70000 9.105
83.72000 -1.246
83.74000 3.929
83.76000 2.531
83.78000 0.302
83.80000 -1.089
83.82000 5.101
83.84000 2.915
83.86000 -0.157
83.88000 1.836
83.90000 0.568
83.92000 -0.744
83.94000 -1.728
83.96000 0.335
83.98000 2.714
84.00000 2.885
84.02000 3.959
84.04000 5.158
84.06000 2.986
84.08000 0.737
84.10000 -2.685
84.12000 0.460
84.14000 4.926
84.16000 -0.932
84.18000 -2.820
84.20000 -1.286
84.22000 2.202
84.24000 1.708
84.26000 3.152
84.28000 1.018
84.30000 -0.547
84.32000 1.222
84.34000 0.563
84.36000 2.758
84.38000 3.287
84.40000 -0.358
84.42000 0.457
84.44000 4.627
84.46000 1.299
84.48000 3.152
84.50000 3.148
84.52000 -0.076
84.54000 3.056
84.56000 2.725
84.58000 2.173
84.60000 3.057
84.62000 3.922
84.64000 0.935
84.66000 3.652
84.68000 4.564
84.70000 7.070
84.72000 5.913
84.74000 3.594
84.76000 2.933
84.78000 4.826
84.80000 0.927
84.82000 1.934
84.84000 4.349
84.86000 6.571
84.88000 8.253
84.90000 12.904
84.92000 12.941
84.94000 12.392
84.96000 8.119
84.98000 12.826
85.00000 14.651
85.02000 18.721
85.04000 18.362
85.06000 14.338
85.08000 11.698
85.10000 6.863
85.12000 11.285
85.14000 19.357
85.16000 22.847
85.18000 14.871
85.20000 18.581
85.22000 18.406
85.24000 20.046
85.26000 16.959
85.28000 20.425
85.30000 26.041
85.32000 26.578
85.34000 32.050
85.36000 33.786
85.38000 27.479
85.40000 24.459
85.42000 28.306
85.44000 27.608
85.46000 33.553
85.48000 31.795
85.50000 34.262
85.52000 41.009
85.54000 35.709
85.56000 38.028
85.58000 36.054
85.60000 36.261
85.62000 36.013
85.64000 39.285
85.66000 41.288
85.68000 40.739
85.70000 42.146
85.72000 39.970
85.74000 46.182
85.76000 47.834
85.78000 47.935
85.80000 43.266
85.82000 42.896
85.84000 46.451
85.86000 46.733
85.88000 51.982
85.90000 55.559
85.92000 56.423
85.94000 56.545
85.96000 50.218
85.98000 54.391
86.00000 59.566
86.02000 55.971
86.04000 51.624
86.06000 50.583
86.08000 57.622
86.10000 57.227
86.12000 58.971
86.14000 54.594
86.16000 48.906
86.18000 54.189
86.20000 58.055
86.22000 55.855
86.24000 50.408
86.26000 48.864
86.28000 54.258
86.30000 44.970
86.32000 38.330
86.34000 43.218
86.36000 49.412
86.38000 53.381
86.40000 55.087
86.42000 56.088
86.44000 48.840
86.46000 36.866
86.48000 38.213
86.50000 44.082
86.52000 41.638
86.54000 37.165
86.56000 39.617
86.58000 36.950
86.60000 38.230
86.62000 38.440
86.64000 37.904
86.66000 32.059
86.68000 29.995
86.70000 31.158
86.72000 29.389
86.74000 32.659
86.76000 32.063
86.78000 22.988
86.80000 25.809
86.82000 22.765
86.84000 22.147
86.86000 27.559
86.88000 25.063
86.90000 22.002
86.92000 16.577
86.94000 15.852
86.96000 23.058
86.98000 22.413
87.00000 13.910
87.02000 15.274
87.04000 13.141
87.06000 15.888
87.08000 13.114
87.10000 5.994
87.12000 9.477
87.14000 15.557
87.16000 12.719
87.18000 10.521
87.20000 6.619
87.22000 9.604
87.24000 12.942
87.26000 12.778
87.28000 9.772
87.30000 7.686
87.32000 6.157
87.34000 6.215
87.36000 4.350
87.38000 5.315
87.40000 9.872
87.42000 6.017
87.44000 6.764
87.46000 12.429
87.48000 6.083
87.50000 0.687
87.52000 2.602
87.54000 11.086
87.56000 7.356
87.58000 1.228
87.60000 5.233
87.62000 7.394
87.64000 2.411
87.66000 2.586
87.68000 4.699
87.70000 3.751
87.72000 7.625
87.74000 9.364
87.76000 1.987
87.78000 -1.698
87.80000 -1.439
87.82000 0.671
87.84000 -0.164
87.86000 -1.544
87.88000 -0.648
87.90000 4.536
87.92000 -0.280
87.94000 -1.509
87.96000 3.133
87.98000 7.061
88.00000 5.118
88.02000 0.210
88.04000 -0.943
88.06000 2.422
88.08000 7.527
88.10000 3.194
88.12000 3.674
88.14000 3.570
88.16000 4.105
88.18000 4.859
88.20000 5.971
88.22000 3.590
88.24000 -2.483
88.26000 -1.092
88.28000 6.942
88.30000 1.696
88.32000 0.204
88.34000 4.050
88.36000 5.925
88.38000 5.585
88.40000 7.139
88.42000 5.976
88.44000 2.906
88.46000 0.830
88.48000 -1.783
88.50000 -1.222
88.52000 1.459
88.54000 2.814
88.56000 6.293
88.58000 4.387
88.60000 6.892
88.62000 2.088
88.64000 4.199
88.66000 4.057
88.68000 5.530
88.70000 8.093
88.72000 6.018
88.74000 9.429
88.76000 4.815
88.78000 5.236
88.80000 9.045
88.82000 12.981
88.84000 2.845
88.86000 1.275
88.88000 7.247
88.90000 3.576
88.92000 0.003
88.94000 -2.402
88.96000 -0.561
88.98000 -1.515
89.00000 3.681
89.02000 9.174
89.04000 10.183
89.06000 13.539
89.08000 7.975
89.10000 4.191
89.12000 4.892
89.14000 5.996
89.16000 8.853
89.18000 7.861
89.20000 3.530
89.22000 0.137
89.24000 1.337
89.26000 2.104
89.28000 1.512
89.30000 3.067
89.32000 3.302
89.34000 3.794
89.36000 8.197
89.38000 5.575
89.40000 8.667
89.42000 2.654
89.44000 2.183
89.46000 1.410
89.48000 1.958
89.50000 5.622
89.52000 6.829
89.54000 2.574
89.56000 1.085
89.58000 0.604
89.60000 -2.052
89.62000 3.299
89.64000 1.032
89.66000 3.952
89.68000 5.836
89.70000 3.147
89.72000 -0.788
89.74000 -0.726
89.76000 3.197
89.78000 5.565
89.80000 7.604
89.82000 6.943
89.84000 10.224
89.86000 7.889
89.88000 0.478
89.90000 -0.192
89.92000 3.394
89.94000 1.758
89.96000 2.418
89.98000 5.147
90.00000 0.839
90.02000 -2.392
90.04000 4.034
90.06000 7.973
90.08000 4.872
90.10000 5.915
90.12000 7.119
90.14000 5.114
90.16000 4.354
90.18000 7.748
90.20000 7.004
90.22000 3.773
90.24000 3.933
90.26000 5.978
90.28000 6.450
90.30000 5.877
90.32000 4.380
90.34000 1.480
90.36000 -0.394
90.38000 1.823
90.40000 0.425
90.42000 3.139
90.44000 8.028
90.46000 4.528
90.48000 2.340
90.50000 2.015
90.52000 2.754
90.54000 4.979
90.56000 5.717
90.58000 3.119
90.60000 1.896
90.62000 1.453
90.64000 7.241
90.66000 3.159
90.68000 3.824
90.70000 2.379
90.72000 -0.660
90.74000 -2.389
90.76000 0.222
90.78000 3.032
90.80000 4.679
90.82000 4.245
90.84000 3.250
90.86000 3.836
90.88000 2.131
90.90000 -1.371
90.92000 1.876
90.94000 6.799
90.96000 4.347
90.98000 2.252
91.00000 3.528
91.02000 5.755
91.04000 5.686
91.06000 7.060
91.08000 8.119
91.10000 6.469
91.12000 7.123
91.14000 4.119
91.16000 8.619
91.18000 11.136
91.20000 7.384
91.22000 1.924
91.24000 2.237
91.26000 4.182
91.28000 2.077
91.30000 0.513
91.32000 4.999
91.34000 11.945
91.36000 8.011
91.38000 4.969
91.40000 2.478
91.42000 2.990
91.44000 8.615
91.46000 7.651
91.48000 8.034
91.50000 8.957
91.52000 1.856
91.54000 1.657
91.56000 7.897
91.58000 3.788
91.60000 1.064
91.62000 1.642
91.64000 0.931
91.66000 3.800
91.68000 4.955
91.70000 2.071
91.72000 0.633
91.74000 6.474
91.76000 6.334
91.78000 -0.633
91.80000 -0.695
91.82000 4.520
91.84000 6.281
91.86000 -0.376
91.88000 -2.397
91.90000 5.255
91.92000 8.945
91.94000 6.916
91.96000 9.749
91.98000 6.856
92.00000 8.080
92.02000 4.906
92.04000 8.188
92.06000 8.327
92.08000 8.532
92.10000 9.498
92.12000 3.416
92.14000 7.415
92.16000 4.110
92.18000 2.429
92.20000 5.718
92.22000 4.407
92.24000 -1.446
92.26000 -0.353
92.28000 -1.055
92.30000 0.083
92.32000 2.525
92.34000 4.608
92.36000 6.264
92.38000 7.225
92.40000 2.877
92.42000 1.838
92.44000 0.759
92.46000 -0.990
92.48000 -0.052
92.50000 -1.614
92.52000 0.721
92.54000 4.690
92.56000 2.588
92.58000 -0.382
92.60000 2.186
92.62000 4.993
92.64000 5.787
92.66000 1.352
92.68000 0.206
92.70000 1.535
92.72000 0.513
92.74000 -1.906
92.76000 7.075
92.78000 4.967
92.80000 2.345
92.82000 3.482
92.84000 2.474
92.86000 2.906
92.88000 2.097
92.90000 4.742
92.92000 6.560
92.94000 2.141
92.96000 1.525
92.98000 2.700
93.00000 4.262
93.02000 6.391
93.04000 6.463
93.06000 0.925
93.08000 6.043
93.10000 5.926
93.12000 4.955
93.14000 3.941
93.16000 6.365
93.18000 4.402
93.20000 5.883
93.22000 4.304
93.24000 2.934
93.26000 3.465
93.28000 2.819
93.30000 6.055
93.32000 7.830
93.34000 4.894
93.36000 1.196
93.38000 -0.514
93.40000 -0.141
93.42000 2.930
93.44000 6.265
93.46000 8.407
93.48000 1.722
93.50000 -0.424
93.52000 3.584
93.54000 5.952
93.56000 6.277
93.58000 3.594
93.60000 0.086
93.62000 4.491
93.64000 2.666
93.66000 3.872
93.68000 2.034
93.70000 4.164
93.72000 10.048
93.74000 8.367
93.76000 5.961
93.78000 0.169
93.80000 -2.422
93.82000 -0.038
93.84000 2.029
93.86000 4.645
93.88000 5.358
93.90000 6.369
93.92000 -0.894
93.94000 -1.210
93.96000 4.853
93.98000 7.734
94.00000 6.239
94.02000 0.331
94.04000 1.804
94.06000 1.016
94.08000 -0.711
94.10000 0.567
94.12000 7.312
94.14000 7.542
94.16000 3.237
94.18000 6.925
94.20000 9.699
94.22000 6.304
94.24000 1.968
94.26000 3.907
94.28000 1.804
94.30000 2.452
94.32000 1.860
94.34000 -2.406
94.36000 3.113
94.38000 3.415
94.40000 0.447
94.42000 2.052
94.44000 3.675
94.46000 5.780
94.48000 5.913
94.50000 -2.685
94.52000 6.226
94.54000 5.531
94.56000 5.510
94.58000 6.596
94.60000 8.467
94.62000 6.485
94.64000 0.146
94.66000 0.796
94.68000 -1.509
94.70000 3.325
94.72000 6.063
94.74000 12.023
94.76000 3.945
94.78000 5.982
94.80000 6.706
94.82000 5.376
94.84000 3.437
94.86000 4.085
94.88000 5.335
94.90000 6.296
94.92000 2.920
94.94000 2.500
94.96000 7.160
94.98000 2.355
95.00000 5.642
95.02000 5.382
95.04000 4.270
95.06000 2.479
95.08000 4.999
95.10000 5.674
95.12000 -1.978
95.14000 5.487
95.16000 4.411
95.18000 4.528
95.20000 7.305
95.22000 1.081
95.24000 2.316
95.26000 9.175
95.28000 9.356
95.30000 7.183
95.32000 1.071
95.34000 8.552
95.36000 6.596
95.38000 1.940
95.40000 0.606
95.42000 5.809
95.44000 16.599
95.46000 12.960
95.48000 8.311
95.50000 2.730
95.52000 10.162
95.54000 15.639
95.56000 11.853
95.58000 7.713
95.60000 7.951
95.62000 1.444
95.64000 -0.851
95.66000 3.418
95.68000 0.446
95.70000 3.171
95.72000 1.420
95.74000 6.087
95.76000 11.381
95.78000 15.614
95.80000 10.282
95.82000 9.086
95.84000 2.461
95.86000 3.745
95.88000 4.107
95.90000 4.531
95.92000 10.081
95.94000 8.758
95.96000 0.283
95.98000 3.584
96.00000 9.286
96.02000 8.672
96.04000 5.103
96.06000 -2.379
96.08000 3.818
96.10000 4.340
96.12000 6.366
96.14000 7.633
96.16000 1.642
96.18000 5.377
96.20000 15.868
96.22000 13.977
96.24000 8.260
96.26000 18.493
96.28000 10.376
96.30000 9.716
96.32000 4.514
96.34000 9.227
96.36000 6.901
96.38000 0.641
96.40000 3.295
96.42000 1.450
96.44000 7.894
96.46000 6.263
96.48000 2.380
96.50000 7.255
96.52000 4.943
96.54000 0.965
96.56000 0.438
96.58000 7.029
96.60000 1.319
96.62000 4.918
96.64000 7.152
96.66000 8.289
96.68000 6.290
96.70000 17.426
96.72000 13.998
96.74000 3.106
96.76000 4.319
96.78000 9.225
96.80000 6.083
96.82000 8.296
96.84000 8.439
96.86000 11.740
96.88000 9.452
96.90000 -0.417
96.92000 8.189
96.94000 6.761
96.96000 -0.669
96.98000 -0.727
97.00000 9.283
97.02000 1.392
97.04000 0.312
97.06000 8.042
97.08000 10.996
97.10000 7.182
97.12000 9.385
97.14000 4.655
97.16000 -0.777
97.18000 3.030
97.20000 1.860
97.22000 6.594
97.24000 14.827
97.26000 10.476
97.28000 5.120
97.30000 5.590
97.32000 5.225
97.34000 2.409
97.36000 7.314
97.38000 16.444
97.40000 10.520
97.42000 7.058
97.44000 7.433
97.46000 5.190
97.48000 -1.407
97.50000 -2.359
97.52000 4.444
97.54000 8.502
97.56000 7.615
97.58000 11.058
97.60000 8.484
97.62000 8.227
97.64000 8.921
97.66000 13.724
97.68000 8.613
97.70000 12.331
97.72000 5.960
97.74000 8.899
97.76000 14.492
97.78000 8.799
97.80000 2.084
97.82000 7.286
97.84000 4.675
97.86000 6.197
97.88000 3.256
97.90000 10.282
97.92000 12.593
97.94000 3.620
97.96000 1.314
97.98000 12.279
98.00000 7.520
98.02000 2.404
98.04000 8.205
98.06000 10.068
98.08000 5.677
98.10000 6.943
98.12000 5.352
98.14000 6.815
98.16000 0.434
98.18000 8.794
98.20000 5.056
98.22000 2.968
98.24000 11.109
98.26000 7.410
98.28000 6.513
98.30000 8.201
98.32000 8.281
98.34000 7.612
98.36000 4.296
98.38000 9.124
98.40000 10.692
98.42000 12.121
98.44000 13.685
98.46000 15.666
98.48000 2.058
98.50000 7.932
98.52000 4.975
98.54000 15.046
98.56000 2.552
98.58000 7.914
98.60000 7.680
98.62000 5.817
98.64000 9.909
98.66000 7.360
98.68000 8.097
98.70000 7.942
98.72000 11.367
98.74000 9.290
98.76000 1.681
98.78000 6.328
98.80000 5.441
98.82000 8.151
98.84000 14.298
98.86000 9.017
98.88000 9.411
98.90000 8.362
98.92000 6.899
98.94000 14.443
98.96000 15.846
98.98000 18.833
99.00000 9.441
99.02000 -5.128
99.04000 1.915
99.06000 14.663
99.08000 25.585
99.10000 21.285
99.12000 9.287
99.14000 12.078
99.16000 19.057
99.18000 17.058
99.20000 11.244
99.22000 17.520
99.24000 13.473
99.26000 10.230
99.28000 9.473
99.30000 8.801
99.32000 12.116
99.34000 9.776
99.36000 5.072
99.38000 2.608
99.40000 12.227
99.42000 11.739
99.44000 3.686
99.46000 -2.320
99.48000 3.314
99.50000 2.047
99.52000 2.605
99.54000 11.450
99.56000 8.680
99.58000 3.187
99.60000 2.010
99.62000 10.310
99.64000 13.156
99.66000 9.406
99.68000 8.455
99.70000 5.524
99.72000 13.348
99.74000 9.769
99.76000 5.878
99.78000 9.496
99.80000 2.355
99.82000 -1.203
99.84000 10.003
99.86000 -2.478
99.88000 -0.476
99.90000 4.580
99.92000 8.606
99.94000 2.407
99.96000 0.290
99.98000 0.000
