'Id: "0011387" Comment: "Integrate frame 0011387_Au-Ir-Rh_Rh-rich_XRD-Mapping-300-0000.gfrmwith cursor Wedge Cursor #5" Operator: "B?rgel" Anode: "Cu" Wavelength: "1.5406" Scantype: "2Theta (TwoTheta)" TimePerStep: "1" X: "-13.5" Y: "31.5" Z: "5.95" 
10.00000 0.000
10.02000 -2.002
10.04000 -4.486
10.06000 -3.881
10.08000 -4.444
10.10000 4.918
10.12000 9.516
10.14000 8.932
10.16000 18.525
10.18000 21.869
10.20000 26.217
10.22000 19.106
10.24000 28.502
10.26000 24.333
10.28000 27.746
10.30000 25.046
10.32000 8.603
10.34000 -4.339
10.36000 0.160
10.38000 10.671
10.40000 18.707
10.42000 22.083
10.44000 25.017
10.46000 13.648
10.48000 13.599
10.50000 17.681
10.52000 11.247
10.54000 6.827
10.56000 27.958
10.58000 47.093
10.60000 39.458
10.62000 21.128
10.64000 10.136
10.66000 11.010
10.68000 20.754
10.70000 13.026
10.72000 11.900
10.74000 13.864
10.76000 24.820
10.78000 21.528
10.80000 24.753
10.82000 17.677
10.84000 20.058
10.86000 20.632
10.88000 15.096
10.90000 27.335
10.92000 37.095
10.94000 21.404
10.96000 15.431
10.98000 19.127
11.00000 12.021
11.02000 11.446
11.04000 3.279
11.06000 13.106
11.08000 21.167
11.10000 12.016
11.12000 11.141
11.14000 11.440
11.16000 9.923
11.18000 13.317
11.20000 13.775
11.22000 8.917
11.24000 5.011
11.26000 -3.533
11.28000 9.086
11.30000 12.494
11.32000 7.983
11.34000 -0.532
11.36000 10.123
11.38000 20.157
11.40000 29.128
11.42000 26.803
11.44000 25.557
11.46000 14.521
11.48000 13.813
11.50000 9.417
11.52000 13.960
11.54000 4.661
11.56000 7.324
11.58000 3.201
11.60000 5.917
11.62000 13.619
11.64000 20.408
11.66000 20.241
11.68000 23.290
11.70000 21.090
11.72000 10.044
11.74000 8.132
11.76000 9.665
11.78000 5.889
11.80000 16.414
11.82000 10.106
11.84000 0.008
11.86000 6.613
11.88000 22.459
11.90000 26.848
11.92000 21.443
11.94000 8.895
11.96000 10.985
11.98000 11.778
12.00000 16.608
12.02000 12.425
12.04000 16.616
12.06000 10.966
12.08000 7.937
12.10000 7.285
12.12000 14.442
12.14000 2.395
12.16000 1.402
12.18000 7.863
12.20000 4.489
12.22000 12.255
12.24000 24.474
12.26000 24.995
12.28000 11.746
12.30000 15.000
12.32000 16.069
12.34000 9.184
12.36000 -4.474
12.38000 7.665
12.40000 4.017
12.42000 12.664
12.44000 23.151
12.46000 12.777
12.48000 13.584
12.50000 3.108
12.52000 7.007
12.54000 10.453
12.56000 10.935
12.58000 20.884
12.60000 14.688
12.62000 13.218
12.64000 18.178
12.66000 25.713
12.68000 21.042
12.70000 18.463
12.72000 13.506
12.74000 8.180
12.76000 11.702
12.78000 9.766
12.80000 14.791
12.82000 4.441
12.84000 8.207
12.86000 18.149
12.88000 10.556
12.90000 0.946
12.92000 11.029
12.94000 20.783
12.96000 15.435
12.98000 11.248
13.00000 10.085
13.02000 14.368
13.04000 14.606
13.06000 16.900
13.08000 8.051
13.10000 3.307
13.12000 13.492
13.14000 14.647
13.16000 10.548
13.18000 18.829
13.20000 13.411
13.22000 12.127
13.24000 14.336
13.26000 4.400
13.28000 7.761
13.30000 13.464
13.32000 16.981
13.34000 20.709
13.36000 14.074
13.38000 16.293
13.40000 4.693
13.42000 5.694
13.44000 13.379
13.46000 6.455
13.48000 17.010
13.50000 15.143
13.52000 15.332
13.54000 12.159
13.56000 13.734
13.58000 18.081
13.60000 12.136
13.62000 14.087
13.64000 19.091
13.66000 11.424
13.68000 11.204
13.70000 14.523
13.72000 11.681
13.74000 5.636
13.76000 10.694
13.78000 7.373
13.80000 10.478
13.82000 14.092
13.84000 18.325
13.86000 6.936
13.88000 -4.492
13.90000 5.219
13.92000 6.313
13.94000 1.241
13.96000 9.665
13.98000 5.821
14.00000 3.772
14.02000 9.095
14.04000 17.124
14.06000 12.840
14.08000 8.880
14.10000 2.472
14.12000 11.487
14.14000 17.178
14.16000 7.539
14.18000 11.465
14.20000 11.523
14.22000 8.916
14.24000 7.834
14.26000 4.591
14.28000 7.485
14.30000 1.142
14.32000 7.690
14.34000 14.267
14.36000 8.832
14.38000 1.644
14.40000 5.858
14.42000 7.429
14.44000 13.688
14.46000 13.758
14.48000 13.853
14.50000 9.747
14.52000 6.627
14.54000 5.887
14.56000 9.851
14.58000 5.611
14.60000 12.320
14.62000 6.824
14.64000 12.640
14.66000 9.117
14.68000 5.237
14.70000 12.660
14.72000 8.615
14.74000 11.427
14.76000 10.491
14.78000 6.673
14.80000 3.001
14.82000 7.361
14.84000 6.696
14.86000 3.844
14.88000 7.101
14.90000 6.770
14.92000 11.985
14.94000 18.253
14.96000 15.300
14.98000 12.550
15.00000 18.069
15.02000 16.505
15.04000 1.571
15.06000 3.557
15.08000 10.532
15.10000 7.871
15.12000 4.904
15.14000 6.139
15.16000 2.653
15.18000 -0.694
15.20000 1.683
15.22000 2.213
15.24000 5.963
15.26000 18.187
15.28000 0.503
15.30000 -1.127
15.32000 12.884
15.34000 14.841
15.36000 19.822
15.38000 18.371
15.40000 8.663
15.42000 9.768
15.44000 15.056
15.46000 4.552
15.48000 2.583
15.50000 13.192
15.52000 13.667
15.54000 17.654
15.56000 15.085
15.58000 14.641
15.60000 12.153
15.62000 4.033
15.64000 -0.099
15.66000 1.666
15.68000 5.902
15.70000 9.263
15.72000 6.698
15.74000 4.822
15.76000 10.684
15.78000 12.041
15.80000 8.161
15.82000 9.144
15.84000 7.043
15.86000 11.721
15.88000 10.553
15.90000 6.569
15.92000 6.352
15.94000 8.170
15.96000 12.552
15.98000 7.728
16.00000 6.607
16.02000 8.380
16.04000 13.997
16.06000 14.986
16.08000 6.874
16.10000 11.242
16.12000 13.147
16.14000 13.670
16.16000 8.031
16.18000 6.972
16.20000 7.901
16.22000 5.028
16.24000 1.114
16.26000 13.321
16.28000 5.275
16.30000 -4.373
16.32000 3.329
16.34000 11.309
16.36000 14.198
16.38000 10.465
16.40000 7.755
16.42000 8.256
16.44000 12.896
16.46000 14.504
16.48000 13.942
16.50000 10.330
16.52000 14.227
16.54000 12.206
16.56000 3.522
16.58000 7.158
16.60000 15.249
16.62000 17.420
16.64000 18.090
16.66000 10.921
16.68000 8.068
16.70000 12.370
16.72000 10.952
16.74000 8.464
16.76000 7.764
16.78000 11.084
16.80000 12.542
16.82000 16.002
16.84000 12.734
16.86000 13.957
16.88000 16.154
16.90000 1.291
16.92000 -0.369
16.94000 10.442
16.96000 10.819
16.98000 10.503
17.00000 6.426
17.02000 10.967
17.04000 11.380
17.06000 8.961
17.08000 5.455
17.10000 5.494
17.12000 9.166
17.14000 9.407
17.16000 6.241
17.18000 11.933
17.20000 17.436
17.22000 9.057
17.24000 4.139
17.26000 0.216
17.28000 0.184
17.30000 5.778
17.32000 5.914
17.34000 3.230
17.36000 0.308
17.38000 4.773
17.40000 12.900
17.42000 14.253
17.44000 14.003
17.46000 8.798
17.48000 9.285
17.50000 14.036
17.52000 12.137
17.54000 13.464
17.56000 11.823
17.58000 12.218
17.60000 8.862
17.62000 3.075
17.64000 1.668
17.66000 7.279
17.68000 6.975
17.70000 1.502
17.72000 -3.998
17.74000 0.124
17.76000 4.680
17.78000 2.293
17.80000 12.144
17.82000 8.467
17.84000 3.316
17.86000 0.586
17.88000 9.832
17.90000 13.079
17.92000 0.986
17.94000 9.064
17.96000 7.744
17.98000 7.011
18.00000 15.007
18.02000 9.137
18.04000 1.544
18.06000 2.290
18.08000 7.878
18.10000 12.011
18.12000 8.011
18.14000 7.188
18.16000 -0.171
18.18000 -1.564
18.20000 2.962
18.22000 -2.381
18.24000 -0.128
18.26000 2.583
18.28000 4.359
18.30000 0.754
18.32000 -0.670
18.34000 -2.968
18.36000 2.662
18.38000 -4.330
18.40000 2.487
18.42000 7.599
18.44000 11.885
18.46000 7.987
18.48000 1.817
18.50000 5.560
18.52000 9.162
18.54000 6.639
18.56000 0.900
18.58000 -0.094
18.60000 0.655
18.62000 1.805
18.64000 2.328
18.66000 4.826
18.68000 5.728
18.70000 3.037
18.72000 6.245
18.74000 1.591
18.76000 0.361
18.78000 8.257
18.80000 5.855
18.82000 2.462
18.84000 -1.833
18.86000 3.981
18.88000 4.231
18.90000 8.349
18.92000 3.828
18.94000 5.609
18.96000 3.735
18.98000 7.082
19.00000 4.790
19.02000 5.356
19.04000 4.954
19.06000 -0.393
19.08000 0.072
19.10000 7.556
19.12000 -0.140
19.14000 1.736
19.16000 4.195
19.18000 6.526
19.20000 12.967
19.22000 9.008
19.24000 -4.270
19.26000 3.965
19.28000 -0.313
19.30000 -2.368
19.32000 7.462
19.34000 13.355
19.36000 10.326
19.38000 10.396
19.40000 15.033
19.42000 5.073
19.44000 -0.968
19.46000 3.358
19.48000 16.703
19.50000 8.141
19.52000 3.822
19.54000 5.787
19.56000 3.209
19.58000 5.280
19.60000 5.376
19.62000 6.787
19.64000 7.333
19.66000 2.679
19.68000 0.146
19.70000 -1.785
19.72000 2.551
19.74000 6.567
19.76000 -0.294
19.78000 0.872
19.80000 2.853
19.82000 0.603
19.84000 0.102
19.86000 1.694
19.88000 -1.034
19.90000 -1.544
19.92000 3.892
19.94000 -1.732
19.96000 -2.956
19.98000 6.101
20.00000 8.882
20.02000 8.517
20.04000 3.995
20.06000 7.191
20.08000 6.789
20.10000 6.541
20.12000 10.456
20.14000 1.539
20.16000 2.188
20.18000 2.967
20.20000 -1.405
20.22000 0.880
20.24000 4.978
20.26000 9.355
20.28000 9.857
20.30000 3.255
20.32000 8.139
20.34000 6.660
20.36000 4.475
20.38000 8.064
20.40000 0.861
20.42000 -0.762
20.44000 1.557
20.46000 7.643
20.48000 7.941
20.50000 10.678
20.52000 7.659
20.54000 6.509
20.56000 3.294
20.58000 4.209
20.60000 5.630
20.62000 3.818
20.64000 9.733
20.66000 11.425
20.68000 6.125
20.70000 6.708
20.72000 6.415
20.74000 3.052
20.76000 5.788
20.78000 8.570
20.80000 2.080
20.82000 -2.711
20.84000 -4.149
20.86000 -4.192
20.88000 1.692
20.90000 3.851
20.92000 -0.214
20.94000 0.791
20.96000 2.860
20.98000 3.434
21.00000 3.407
21.02000 4.578
21.04000 1.652
21.06000 0.490
21.08000 8.318
21.10000 9.064
21.12000 1.830
21.14000 5.550
21.16000 10.362
21.18000 10.497
21.20000 4.898
21.22000 2.458
21.24000 -0.757
21.26000 0.597
21.28000 5.375
21.30000 -2.269
21.32000 2.839
21.34000 1.983
21.36000 3.724
21.38000 3.979
21.40000 0.624
21.42000 2.676
21.44000 3.743
21.46000 -3.378
21.48000 2.074
21.50000 -2.312
21.52000 -2.944
21.54000 -4.173
21.56000 -1.235
21.58000 -1.045
21.60000 -1.651
21.62000 2.874
21.64000 -1.027
21.66000 0.256
21.68000 -1.438
21.70000 0.832
21.72000 2.671
21.74000 2.347
21.76000 1.479
21.78000 1.400
21.80000 -1.973
21.82000 1.124
21.84000 -3.777
21.86000 -2.626
21.88000 0.032
21.90000 0.384
21.92000 1.753
21.94000 6.034
21.96000 -0.067
21.98000 -2.745
22.00000 -0.560
22.02000 -3.350
22.04000 7.602
22.06000 14.391
22.08000 0.401
22.10000 3.010
22.12000 5.720
22.14000 3.476
22.16000 -2.956
22.18000 -2.736
22.20000 3.361
22.22000 -1.971
22.24000 -0.831
22.26000 4.002
22.28000 1.295
22.30000 5.246
22.32000 5.534
22.34000 0.441
22.36000 1.762
22.38000 -0.163
22.40000 -1.836
22.42000 -0.285
22.44000 -1.709
22.46000 5.306
22.48000 6.729
22.50000 2.945
22.52000 7.347
22.54000 2.667
22.56000 0.081
22.58000 2.820
22.60000 4.193
22.62000 6.828
22.64000 2.855
22.66000 1.976
22.68000 -0.102
22.70000 5.167
22.72000 0.933
22.74000 3.152
22.76000 2.570
22.78000 1.254
22.80000 0.091
22.82000 -1.270
22.84000 -1.298
22.86000 4.384
22.88000 1.940
22.90000 -1.496
22.92000 -1.332
22.94000 0.052
22.96000 3.757
22.98000 3.549
23.00000 -2.598
23.02000 -1.415
23.04000 -3.935
23.06000 -1.826
23.08000 -0.154
23.10000 -0.593
23.12000 4.868
23.14000 2.655
23.16000 2.410
23.18000 -2.634
23.20000 -1.659
23.22000 2.846
23.24000 -2.427
23.26000 -4.097
23.28000 -2.122
23.30000 3.992
23.32000 5.338
23.34000 1.958
23.36000 -0.744
23.38000 -3.209
23.40000 0.990
23.42000 1.294
23.44000 -1.115
23.46000 1.241
23.48000 -1.283
23.50000 -3.729
23.52000 -3.665
23.54000 1.350
23.56000 6.059
23.58000 5.095
23.60000 3.620
23.62000 4.237
23.64000 3.931
23.66000 8.467
23.68000 8.691
23.70000 10.551
23.72000 9.826
23.74000 4.864
23.76000 -1.482
23.78000 -3.776
23.80000 -0.890
23.82000 0.742
23.84000 1.537
23.86000 3.108
23.88000 -0.195
23.90000 -4.051
23.92000 0.079
23.94000 1.211
23.96000 -0.311
23.98000 1.962
24.00000 6.980
24.02000 4.600
24.04000 -2.129
24.06000 0.717
24.08000 2.140
24.10000 -3.893
24.12000 -1.512
24.14000 4.514
24.16000 0.311
24.18000 -0.266
24.20000 3.183
24.22000 7.478
24.24000 1.118
24.26000 -2.679
24.28000 -1.410
24.30000 1.481
24.32000 10.091
24.34000 9.034
24.36000 8.263
24.38000 5.244
24.40000 9.538
24.42000 6.276
24.44000 1.450
24.46000 1.426
24.48000 0.222
24.50000 3.515
24.52000 3.210
24.54000 7.373
24.56000 4.956
24.58000 2.450
24.60000 4.071
24.62000 1.518
24.64000 1.611
24.66000 2.159
24.68000 5.085
24.70000 4.865
24.72000 3.359
24.74000 4.146
24.76000 2.217
24.78000 3.242
24.80000 5.005
24.82000 9.812
24.84000 9.171
24.86000 11.407
24.88000 8.336
24.90000 7.660
24.92000 5.627
24.94000 3.729
24.96000 1.183
24.98000 0.902
25.00000 -3.953
25.02000 -0.101
25.04000 3.263
25.06000 7.279
25.08000 12.005
25.10000 2.318
25.12000 -1.271
25.14000 6.784
25.16000 5.027
25.18000 -2.514
25.20000 -1.452
25.22000 1.349
25.24000 7.983
25.26000 6.662
25.28000 4.028
25.30000 5.196
25.32000 6.881
25.34000 10.680
25.36000 6.113
25.38000 -1.577
25.40000 0.549
25.42000 2.343
25.44000 0.696
25.46000 3.569
25.48000 8.139
25.50000 0.680
25.52000 -0.288
25.54000 2.746
25.56000 3.059
25.58000 -1.193
25.60000 -1.108
25.62000 -0.166
25.64000 2.640
25.66000 4.296
25.68000 6.081
25.70000 6.190
25.72000 0.380
25.74000 0.187
25.76000 -0.296
25.78000 0.836
25.80000 2.277
25.82000 4.864
25.84000 0.893
25.86000 10.158
25.88000 6.592
25.90000 1.027
25.92000 1.539
25.94000 9.827
25.96000 7.659
25.98000 2.927
26.00000 -2.832
26.02000 1.109
26.04000 2.317
26.06000 0.488
26.08000 5.461
26.10000 5.369
26.12000 3.616
26.14000 3.909
26.16000 0.328
26.18000 1.264
26.20000 -2.211
26.22000 1.399
26.24000 0.936
26.26000 3.873
26.28000 4.246
26.30000 1.922
26.32000 0.224
26.34000 1.826
26.36000 -0.792
26.38000 5.350
26.40000 6.108
26.42000 1.954
26.44000 1.241
26.46000 1.907
26.48000 0.188
26.50000 2.043
26.52000 3.539
26.54000 4.308
26.56000 1.298
26.58000 0.049
26.60000 0.955
26.62000 1.328
26.64000 1.031
26.66000 0.193
26.68000 0.399
26.70000 2.365
26.72000 8.624
26.74000 6.575
26.76000 -3.102
26.78000 0.957
26.80000 2.931
26.82000 13.450
26.84000 6.808
26.86000 2.222
26.88000 6.399
26.90000 0.973
26.92000 4.856
26.94000 7.540
26.96000 7.765
26.98000 5.187
27.00000 -2.193
27.02000 -0.274
27.04000 6.354
27.06000 6.727
27.08000 3.811
27.10000 4.029
27.12000 6.573
27.14000 3.267
27.16000 2.969
27.18000 0.950
27.20000 1.954
27.22000 2.795
27.24000 7.596
27.26000 7.631
27.28000 2.786
27.30000 4.574
27.32000 7.814
27.34000 11.600
27.36000 5.048
27.38000 6.504
27.40000 4.477
27.42000 -3.803
27.44000 2.048
27.46000 2.636
27.48000 2.010
27.50000 7.853
27.52000 13.951
27.54000 9.267
27.56000 8.480
27.58000 8.989
27.60000 1.874
27.62000 -1.581
27.64000 2.326
27.66000 6.002
27.68000 10.348
27.70000 8.122
27.72000 5.558
27.74000 4.479
27.76000 5.272
27.78000 8.490
27.80000 11.035
27.82000 4.307
27.84000 6.917
27.86000 3.777
27.88000 3.710
27.90000 2.834
27.92000 -0.325
27.94000 3.157
27.96000 4.897
27.98000 5.191
28.00000 6.247
28.02000 4.828
28.04000 1.810
28.06000 -0.483
28.08000 -0.709
28.10000 4.054
28.12000 3.876
28.14000 5.358
28.16000 6.841
28.18000 6.255
28.20000 -0.028
28.22000 -1.700
28.24000 -0.682
28.26000 5.641
28.28000 6.611
28.30000 0.309
28.32000 -2.563
28.34000 -1.006
28.36000 0.180
28.38000 1.443
28.40000 0.698
28.42000 -1.502
28.44000 4.616
28.46000 0.172
28.48000 -2.747
28.50000 -1.102
28.52000 2.691
28.54000 0.160
28.56000 -0.600
28.58000 4.397
28.60000 2.842
28.62000 3.861
28.64000 7.146
28.66000 2.599
28.68000 4.980
28.70000 2.450
28.72000 2.671
28.74000 -2.816
28.76000 3.594
28.78000 6.005
28.80000 6.516
28.82000 8.976
28.84000 5.907
28.86000 2.212
28.88000 -3.774
28.90000 0.693
28.92000 1.841
28.94000 -1.315
28.96000 0.963
28.98000 0.700
29.00000 3.080
29.02000 3.464
29.04000 8.969
29.06000 4.448
29.08000 5.851
29.10000 3.150
29.12000 5.621
29.14000 -0.407
29.16000 -3.756
29.18000 -0.937
29.20000 8.203
29.22000 8.203
29.24000 -0.117
29.26000 0.639
29.28000 3.555
29.30000 5.081
29.32000 3.801
29.34000 5.887
29.36000 7.746
29.38000 6.473
29.40000 6.340
29.42000 5.242
29.44000 2.215
29.46000 2.965
29.48000 -1.201
29.50000 -1.434
29.52000 0.999
29.54000 1.780
29.56000 0.726
29.58000 1.230
29.60000 4.660
29.62000 6.085
29.64000 4.339
29.66000 1.706
29.68000 2.502
29.70000 3.015
29.72000 1.594
29.74000 2.985
29.76000 9.047
29.78000 3.927
29.80000 1.717
29.82000 0.865
29.84000 1.613
29.86000 -0.841
29.88000 0.086
29.90000 -0.635
29.92000 -3.701
29.94000 0.459
29.96000 5.175
29.98000 6.532
30.00000 6.425
30.02000 3.747
30.04000 3.524
30.06000 4.154
30.08000 2.435
30.10000 1.258
30.12000 2.750
30.14000 4.518
30.16000 4.878
30.18000 3.119
30.20000 6.659
30.22000 10.353
30.24000 5.784
30.26000 2.909
30.28000 2.995
30.30000 -0.116
30.32000 2.665
30.34000 -1.918
30.36000 -0.477
30.38000 5.592
30.40000 8.791
30.42000 4.902
30.44000 -1.290
30.46000 0.249
30.48000 1.196
30.50000 -0.877
30.52000 2.557
30.54000 2.689
30.56000 -0.272
30.58000 10.411
30.60000 6.859
30.62000 5.723
30.64000 3.724
30.66000 3.126
30.68000 -1.201
30.70000 0.803
30.72000 2.415
30.74000 6.780
30.76000 6.349
30.78000 1.040
30.80000 -1.087
30.82000 1.981
30.84000 6.322
30.86000 5.746
30.88000 6.479
30.90000 4.473
30.92000 1.272
30.94000 3.999
30.96000 4.856
30.98000 4.216
31.00000 3.636
31.02000 4.185
31.04000 5.693
31.06000 4.380
31.08000 0.865
31.10000 0.935
31.12000 6.908
31.14000 1.759
31.16000 2.403
31.18000 3.648
31.20000 0.826
31.22000 0.333
31.24000 1.615
31.26000 1.012
31.28000 -1.435
31.30000 -1.231
31.32000 -3.011
31.34000 -0.993
31.36000 6.599
31.38000 8.487
31.40000 6.897
31.42000 9.119
31.44000 5.936
31.46000 4.411
31.48000 -0.543
31.50000 3.453
31.52000 4.349
31.54000 2.870
31.56000 1.498
31.58000 0.252
31.60000 -1.110
31.62000 -0.084
31.64000 3.774
31.66000 1.519
31.68000 4.219
31.70000 3.182
31.72000 4.458
31.74000 5.569
31.76000 5.941
31.78000 9.024
31.80000 3.362
31.82000 -3.596
31.84000 2.006
31.86000 5.900
31.88000 7.496
31.90000 5.474
31.92000 4.473
31.94000 7.930
31.96000 11.486
31.98000 -0.111
32.00000 1.810
32.02000 7.543
32.04000 8.173
32.06000 9.729
32.08000 9.451
32.10000 5.605
32.12000 1.381
32.14000 4.368
32.16000 8.187
32.18000 12.400
32.20000 4.439
32.22000 -3.147
32.24000 2.294
32.26000 6.749
32.28000 9.283
32.30000 5.613
32.32000 4.941
32.34000 8.651
32.36000 3.941
32.38000 7.435
32.40000 3.655
32.42000 -2.301
32.44000 2.516
32.46000 2.520
32.48000 5.673
32.50000 8.988
32.52000 11.526
32.54000 4.763
32.56000 0.689
32.58000 -0.298
32.60000 -0.921
32.62000 -3.573
32.64000 0.764
32.66000 3.964
32.68000 0.969
32.70000 0.740
32.72000 5.028
32.74000 6.900
32.76000 2.803
32.78000 -0.755
32.80000 5.084
32.82000 5.808
32.84000 6.278
32.86000 2.433
32.88000 1.843
32.90000 1.017
32.92000 4.297
32.94000 0.193
32.96000 2.620
32.98000 5.782
33.00000 3.017
33.02000 2.404
33.04000 -0.394
33.06000 -0.036
33.08000 5.064
33.10000 8.665
33.12000 3.160
33.14000 -2.068
33.16000 1.399
33.18000 4.324
33.20000 5.630
33.22000 5.123
33.24000 2.900
33.26000 3.422
33.28000 1.937
33.30000 3.128
33.32000 8.263
33.34000 3.923
33.36000 5.408
33.38000 6.879
33.40000 6.989
33.42000 4.283
33.44000 4.248
33.46000 3.352
33.48000 1.395
33.50000 3.241
33.52000 2.826
33.54000 -0.038
33.56000 3.224
33.58000 2.909
33.60000 2.187
33.62000 8.436
33.64000 4.368
33.66000 4.287
33.68000 2.571
33.70000 4.072
33.72000 10.083
33.74000 6.697
33.76000 1.997
33.78000 -3.581
33.80000 -1.180
33.82000 -2.861
33.84000 -0.810
33.86000 3.688
33.88000 4.194
33.90000 4.170
33.92000 3.072
33.94000 7.268
33.96000 1.486
33.98000 -2.607
34.00000 -0.023
34.02000 4.795
34.04000 4.541
34.06000 4.102
34.08000 0.263
34.10000 0.096
34.12000 4.242
34.14000 3.536
34.16000 4.135
34.18000 3.645
34.20000 5.295
34.22000 2.370
34.24000 4.177
34.26000 3.415
34.28000 5.663
34.30000 6.954
34.32000 3.501
34.34000 8.028
34.36000 6.955
34.38000 3.369
34.40000 4.772
34.42000 4.109
34.44000 0.422
34.46000 2.639
34.48000 4.348
34.50000 -2.434
34.52000 -2.695
34.54000 0.859
34.56000 3.015
34.58000 -0.394
34.60000 3.403
34.62000 3.028
34.64000 -0.188
34.66000 4.406
34.68000 5.972
34.70000 0.743
34.72000 0.670
34.74000 2.271
34.76000 2.389
34.78000 0.150
34.80000 -0.122
34.82000 3.280
34.84000 -1.552
34.86000 -3.557
34.88000 2.672
34.90000 5.184
34.92000 3.158
34.94000 2.746
34.96000 0.888
34.98000 -3.415
35.00000 3.706
35.02000 -0.341
35.04000 0.161
35.06000 2.408
35.08000 2.677
35.10000 5.381
35.12000 2.885
35.14000 -3.552
35.16000 -1.439
35.18000 2.553
35.20000 0.584
35.22000 -1.303
35.24000 -2.837
35.26000 1.332
35.28000 4.958
35.30000 -0.080
35.32000 -2.713
35.34000 6.006
35.36000 4.278
35.38000 -0.629
35.40000 1.924
35.42000 4.525
35.44000 -0.186
35.46000 0.601
35.48000 2.370
35.50000 -0.672
35.52000 1.742
35.54000 3.049
35.56000 4.392
35.58000 2.931
35.60000 2.008
35.62000 3.935
35.64000 0.607
35.66000 6.162
35.68000 5.967
35.70000 1.659
35.72000 2.243
35.74000 3.385
35.76000 1.474
35.78000 0.032
35.80000 1.493
35.82000 1.418
35.84000 5.876
35.86000 1.517
35.88000 -2.040
35.90000 -3.548
35.92000 3.349
35.94000 3.991
35.96000 0.967
35.98000 0.430
36.00000 3.131
36.02000 6.687
36.04000 2.552
36.06000 2.711
36.08000 4.357
36.10000 9.304
36.12000 9.346
36.14000 6.508
36.16000 4.817
36.18000 3.416
36.20000 -0.859
36.22000 1.042
36.24000 1.727
36.26000 4.164
36.28000 3.230
36.30000 -0.047
36.32000 0.515
36.34000 2.550
36.36000 4.142
36.38000 2.195
36.40000 4.914
36.42000 4.564
36.44000 5.334
36.46000 3.389
36.48000 1.026
36.50000 1.225
36.52000 1.886
36.54000 3.600
36.56000 8.940
36.58000 3.571
36.60000 0.989
36.62000 3.688
36.64000 8.694
36.66000 6.336
36.68000 4.338
36.70000 1.473
36.72000 -0.713
36.74000 -1.633
36.76000 -3.604
36.78000 -0.996
36.80000 1.738
36.82000 7.202
36.84000 3.582
36.86000 3.104
36.88000 6.000
36.90000 0.711
36.92000 5.288
36.94000 5.964
36.96000 0.368
36.98000 -3.288
37.00000 -2.679
37.02000 -0.455
37.04000 3.396
37.06000 5.768
37.08000 3.027
37.10000 7.600
37.12000 5.260
37.14000 3.605
37.16000 4.859
37.18000 1.862
37.20000 0.018
37.22000 4.006
37.24000 5.038
37.26000 3.194
37.28000 4.210
37.30000 2.053
37.32000 1.322
37.34000 8.132
37.36000 2.501
37.38000 0.301
37.40000 4.243
37.42000 4.877
37.44000 5.944
37.46000 6.029
37.48000 10.157
37.50000 6.110
37.52000 3.642
37.54000 5.419
37.56000 11.348
37.58000 5.471
37.60000 5.998
37.62000 4.164
37.64000 5.274
37.66000 8.394
37.68000 11.761
37.70000 10.549
37.72000 8.329
37.74000 9.524
37.76000 12.045
37.78000 10.032
37.80000 15.897
37.82000 14.691
37.84000 13.104
37.86000 16.301
37.88000 15.921
37.90000 15.221
37.92000 14.753
37.94000 15.544
37.96000 17.094
37.98000 22.124
38.00000 19.975
38.02000 18.379
38.04000 14.174
38.06000 16.093
38.08000 21.186
38.10000 21.432
38.12000 17.985
38.14000 18.489
38.16000 21.639
38.18000 24.653
38.20000 22.815
38.22000 25.556
38.24000 24.981
38.26000 26.438
38.28000 28.113
38.30000 29.661
38.32000 25.249
38.34000 28.359
38.36000 32.103
38.38000 40.161
38.40000 39.303
38.42000 36.521
38.44000 37.306
38.46000 30.931
38.48000 39.757
38.50000 47.088
38.52000 47.256
38.54000 43.007
38.56000 40.883
38.58000 41.952
38.60000 46.735
38.62000 47.116
38.64000 49.518
38.66000 53.784
38.68000 55.589
38.70000 57.579
38.72000 58.567
38.74000 60.582
38.76000 63.483
38.78000 67.772
38.80000 70.346
38.82000 73.480
38.84000 80.062
38.86000 80.426
38.88000 88.665
38.90000 96.566
38.92000 96.940
38.94000 94.482
38.96000 102.132
38.98000 105.946
39.00000 109.677
39.02000 116.614
39.04000 127.767
39.06000 125.293
39.08000 127.748
39.10000 136.930
39.12000 143.162
39.14000 152.162
39.16000 154.479
39.18000 163.435
39.20000 178.504
39.22000 187.802
39.24000 197.383
39.26000 201.156
39.28000 207.798
39.30000 220.804
39.32000 232.183
39.34000 243.544
39.36000 255.071
39.38000 259.749
39.40000 275.824
39.42000 290.937
39.44000 307.337
39.46000 321.419
39.48000 340.401
39.50000 364.032
39.52000 384.163
39.54000 393.064
39.56000 412.499
39.58000 424.889
39.60000 451.062
39.62000 476.315
39.64000 492.160
39.66000 508.904
39.68000 532.705
39.70000 553.164
39.72000 578.205
39.74000 609.755
39.76000 621.101
39.78000 629.760
39.80000 642.900
39.82000 659.825
39.84000 683.676
39.86000 704.970
39.88000 724.679
39.90000 722.991
39.92000 732.820
39.94000 750.557
39.96000 753.272
39.98000 744.275
40.00000 732.959
40.02000 729.881
40.04000 725.790
40.06000 724.654
40.08000 724.472
40.10000 724.616
40.12000 706.991
40.14000 691.934
40.16000 671.213
40.18000 641.832
40.20000 629.116
40.22000 613.881
40.24000 592.751
40.26000 564.895
40.28000 549.959
40.30000 532.453
40.32000 505.890
40.34000 482.269
40.36000 461.513
40.38000 438.463
40.40000 423.014
40.42000 398.135
40.44000 379.751
40.46000 361.451
40.48000 344.960
40.50000 327.545
40.52000 306.496
40.54000 291.467
40.56000 281.553
40.58000 264.170
40.60000 246.983
40.62000 230.920
40.64000 223.771
40.66000 206.825
40.68000 193.411
40.70000 188.850
40.72000 177.158
40.74000 167.903
40.76000 153.435
40.78000 146.629
40.80000 131.992
40.82000 125.948
40.84000 121.881
40.86000 113.744
40.88000 106.205
40.90000 103.403
40.92000 99.353
40.94000 94.377
40.96000 87.799
40.98000 79.525
41.00000 79.967
41.02000 73.546
41.04000 69.944
41.06000 63.646
41.08000 61.444
41.10000 56.594
41.12000 51.547
41.14000 45.580
41.16000 47.400
41.18000 51.669
41.20000 46.069
41.22000 37.431
41.24000 34.192
41.26000 37.188
41.28000 34.851
41.30000 30.860
41.32000 30.329
41.34000 31.685
41.36000 32.194
41.38000 33.318
41.40000 26.124
41.42000 24.581
41.44000 27.206
41.46000 19.693
41.48000 20.777
41.50000 19.307
41.52000 16.554
41.54000 18.585
41.56000 15.315
41.58000 14.073
41.60000 18.825
41.62000 18.901
41.64000 14.886
41.66000 16.240
41.68000 16.412
41.70000 15.919
41.72000 12.309
41.74000 11.672
41.76000 9.723
41.78000 9.128
41.80000 11.883
41.82000 8.967
41.84000 8.674
41.86000 4.125
41.88000 2.752
41.90000 6.091
41.92000 5.296
41.94000 2.713
41.96000 4.241
41.98000 3.355
42.00000 2.409
42.02000 -0.490
42.04000 -0.573
42.06000 2.565
42.08000 2.105
42.10000 2.401
42.12000 4.919
42.14000 3.009
42.16000 3.460
42.18000 1.674
42.20000 4.329
42.22000 3.000
42.24000 1.648
42.26000 2.220
42.28000 1.417
42.30000 4.070
42.32000 2.290
42.34000 -0.491
42.36000 -0.076
42.38000 3.193
42.40000 0.870
42.42000 4.582
42.44000 6.903
42.46000 2.407
42.48000 1.560
42.50000 2.746
42.52000 2.575
42.54000 0.623
42.56000 3.284
42.58000 0.392
42.60000 -0.743
42.62000 -1.408
42.64000 -1.000
42.66000 -0.844
42.68000 0.548
42.70000 3.011
42.72000 1.984
42.74000 -3.249
42.76000 -3.435
42.78000 1.106
42.80000 0.587
42.82000 4.371
42.84000 3.216
42.86000 0.863
42.88000 2.267
42.90000 3.333
42.92000 1.166
42.94000 2.022
42.96000 3.426
42.98000 1.221
43.00000 -1.845
43.02000 2.862
43.04000 4.612
43.06000 6.251
43.08000 1.871
43.10000 0.347
43.12000 2.906
43.14000 9.193
43.16000 7.992
43.18000 3.065
43.20000 3.810
43.22000 4.335
43.24000 3.699
43.26000 3.535
43.28000 1.150
43.30000 0.106
43.32000 0.970
43.34000 0.070
43.36000 -0.857
43.38000 -1.257
43.40000 -0.302
43.42000 4.548
43.44000 7.053
43.46000 4.178
43.48000 5.748
43.50000 8.272
43.52000 4.372
43.54000 5.716
43.56000 0.953
43.58000 -3.317
43.60000 -3.111
43.62000 -0.476
43.64000 3.559
43.66000 4.673
43.68000 4.692
43.70000 5.880
43.72000 2.853
43.74000 4.792
43.76000 2.757
43.78000 -0.901
43.80000 -2.480
43.82000 1.021
43.84000 7.430
43.86000 6.307
43.88000 6.018
43.90000 3.995
43.92000 6.678
43.94000 5.097
43.96000 2.716
43.98000 3.847
44.00000 3.859
44.02000 1.052
44.04000 2.359
44.06000 5.510
44.08000 2.236
44.10000 0.683
44.12000 0.801
44.14000 0.680
44.16000 -3.154
44.18000 -2.941
44.20000 -2.867
44.22000 1.247
44.24000 -0.033
44.26000 -0.756
44.28000 2.657
44.30000 -3.346
44.32000 -0.455
44.34000 5.855
44.36000 2.617
44.38000 -2.438
44.40000 -0.280
44.42000 1.837
44.44000 1.627
44.46000 3.988
44.48000 3.485
44.50000 6.313
44.52000 6.263
44.54000 7.217
44.56000 4.249
44.58000 -0.088
44.60000 -2.005
44.62000 0.967
44.64000 -0.714
44.66000 0.268
44.68000 2.731
44.70000 2.425
44.72000 0.273
44.74000 2.755
44.76000 2.472
44.78000 5.956
44.80000 3.148
44.82000 -0.379
44.84000 1.692
44.86000 8.158
44.88000 10.520
44.90000 5.055
44.92000 9.789
44.94000 7.130
44.96000 12.749
44.98000 12.252
45.00000 10.574
45.02000 9.058
45.04000 3.460
45.06000 3.434
45.08000 12.776
45.10000 16.608
45.12000 14.130
45.14000 16.043
45.16000 12.207
45.18000 10.611
45.20000 9.148
45.22000 15.861
45.24000 14.522
45.26000 12.855
45.28000 17.111
45.30000 17.025
45.32000 14.760
45.34000 18.503
45.36000 15.303
45.38000 14.542
45.40000 21.924
45.42000 23.865
45.44000 26.077
45.46000 21.151
45.48000 21.619
45.50000 25.706
45.52000 26.145
45.54000 25.378
45.56000 27.542
45.58000 27.552
45.60000 32.080
45.62000 33.563
45.64000 28.065
45.66000 26.099
45.68000 29.766
45.70000 29.593
45.72000 34.688
45.74000 48.474
45.76000 49.880
45.78000 43.136
45.80000 45.427
45.82000 47.229
45.84000 43.304
45.86000 42.969
45.88000 47.286
45.90000 53.490
45.92000 52.840
45.94000 55.671
45.96000 54.289
45.98000 54.782
46.00000 57.681
46.02000 55.988
46.04000 61.066
46.06000 63.771
46.08000 68.982
46.10000 76.756
46.12000 74.208
46.14000 73.375
46.16000 80.250
46.18000 83.609
46.20000 85.705
46.22000 85.468
46.24000 90.056
46.26000 88.220
46.28000 90.680
46.30000 89.930
46.32000 95.343
46.34000 101.111
46.36000 105.140
46.38000 104.656
46.40000 104.802
46.42000 103.953
46.44000 103.393
46.46000 106.393
46.48000 109.894
46.50000 111.360
46.52000 116.762
46.54000 112.596
46.56000 115.429
46.58000 118.365
46.60000 118.219
46.62000 119.758
46.64000 118.690
46.66000 116.230
46.68000 117.428
46.70000 121.388
46.72000 125.658
46.74000 125.825
46.76000 122.711
46.78000 116.671
46.80000 113.910
46.82000 112.892
46.84000 113.500
46.86000 115.040
46.88000 108.928
46.90000 104.532
46.92000 107.904
46.94000 107.476
46.96000 100.731
46.98000 91.862
47.00000 92.171
47.02000 93.002
47.04000 89.358
47.06000 83.876
47.08000 86.022
47.10000 85.836
47.12000 83.058
47.14000 72.771
47.16000 69.085
47.18000 66.847
47.20000 71.732
47.22000 72.632
47.24000 72.098
47.26000 64.549
47.28000 57.654
47.30000 53.330
47.32000 49.418
47.34000 48.266
47.36000 46.814
47.38000 50.124
47.40000 48.312
47.42000 43.302
47.44000 42.756
47.46000 39.134
47.48000 32.359
47.50000 32.977
47.52000 33.534
47.54000 30.985
47.56000 23.865
47.58000 24.658
47.60000 25.347
47.62000 24.187
47.64000 21.370
47.66000 21.472
47.68000 26.810
47.70000 19.364
47.72000 21.262
47.74000 17.390
47.76000 18.671
47.78000 20.452
47.80000 19.165
47.82000 13.178
47.84000 10.780
47.86000 10.777
47.88000 14.055
47.90000 13.934
47.92000 11.218
47.94000 9.464
47.96000 9.215
47.98000 7.616
48.00000 8.257
48.02000 9.713
48.04000 6.493
48.06000 8.058
48.08000 9.362
48.10000 8.871
48.12000 12.683
48.14000 6.696
48.16000 2.476
48.18000 2.553
48.20000 2.397
48.22000 1.026
48.24000 4.035
48.26000 5.792
48.28000 6.388
48.30000 -2.954
48.32000 -0.506
48.34000 1.291
48.36000 3.102
48.38000 -0.229
48.40000 1.381
48.42000 2.631
48.44000 1.972
48.46000 6.015
48.48000 3.555
48.50000 -0.726
48.52000 -2.158
48.54000 1.898
48.56000 3.110
48.58000 5.658
48.60000 6.786
48.62000 -0.223
48.64000 -0.307
48.66000 -0.028
48.68000 0.679
48.70000 1.280
48.72000 3.061
48.74000 1.690
48.76000 3.558
48.78000 5.287
48.80000 5.643
48.82000 3.838
48.84000 1.011
48.86000 -2.842
48.88000 0.406
48.90000 3.018
48.92000 3.574
48.94000 9.987
48.96000 10.533
48.98000 8.364
49.00000 8.155
49.02000 2.318
49.04000 1.251
49.06000 4.386
49.08000 3.147
49.10000 5.644
49.12000 3.262
49.14000 4.776
49.16000 2.763
49.18000 3.149
49.20000 3.792
49.22000 6.310
49.24000 7.048
49.26000 2.337
49.28000 1.876
49.30000 -1.613
49.32000 -2.789
49.34000 2.816
49.36000 4.782
49.38000 3.581
49.40000 1.919
49.42000 3.106
49.44000 2.429
49.46000 5.806
49.48000 3.037
49.50000 1.715
49.52000 0.021
49.54000 0.083
49.56000 1.947
49.58000 3.230
49.60000 4.164
49.62000 2.547
49.64000 4.048
49.66000 5.006
49.68000 5.363
49.70000 -2.406
49.72000 -1.014
49.74000 2.204
49.76000 2.345
49.78000 3.923
49.80000 4.065
49.82000 6.034
49.84000 3.427
49.86000 1.996
49.88000 1.035
49.90000 -1.273
49.92000 2.663
49.94000 1.433
49.96000 1.184
49.98000 3.807
50.00000 0.093
50.02000 -0.816
50.04000 0.972
50.06000 -0.364
50.08000 0.707
50.10000 0.548
50.12000 -2.652
50.14000 0.451
50.16000 1.770
50.18000 6.773
50.20000 3.746
50.22000 4.054
50.24000 5.481
50.26000 4.496
50.28000 5.669
50.30000 3.868
50.32000 -1.740
50.34000 -0.144
50.36000 0.428
50.38000 -2.744
50.40000 3.099
50.42000 3.099
50.44000 1.035
50.46000 4.890
50.48000 6.562
50.50000 3.626
50.52000 4.294
50.54000 0.582
50.56000 2.170
50.58000 3.046
50.60000 -1.352
50.62000 4.330
50.64000 6.401
50.66000 3.684
50.68000 1.259
50.70000 1.926
50.72000 1.741
50.74000 2.010
50.76000 1.117
50.78000 1.108
50.80000 1.433
50.82000 0.575
50.84000 1.116
50.86000 2.868
50.88000 0.869
50.90000 1.406
50.92000 -1.988
50.94000 -0.731
50.96000 -2.705
50.98000 -0.300
51.00000 2.221
51.02000 0.735
51.04000 0.768
51.06000 1.588
51.08000 -0.108
51.10000 0.259
51.12000 3.810
51.14000 4.881
51.16000 4.071
51.18000 5.283
51.20000 2.587
51.22000 7.212
51.24000 4.350
51.26000 3.933
51.28000 5.190
51.30000 2.798
51.32000 2.930
51.34000 2.611
51.36000 6.645
51.38000 3.802
51.40000 3.460
51.42000 -0.170
51.44000 -0.381
51.46000 5.091
51.48000 2.328
51.50000 1.620
51.52000 1.832
51.54000 0.627
51.56000 -0.322
51.58000 -2.687
51.60000 3.696
51.62000 1.661
51.64000 3.052
51.66000 3.746
51.68000 5.282
51.70000 6.799
51.72000 4.053
51.74000 3.939
51.76000 5.241
51.78000 3.575
51.80000 2.207
51.82000 3.765
51.84000 1.781
51.86000 4.776
51.88000 5.135
51.90000 4.080
51.92000 -0.786
51.94000 0.295
51.96000 2.659
51.98000 4.046
52.00000 1.687
52.02000 0.919
52.04000 3.519
52.06000 4.613
52.08000 2.179
52.10000 0.931
52.12000 3.056
52.14000 2.845
52.16000 3.811
52.18000 3.205
52.20000 5.148
52.22000 1.693
52.24000 3.509
52.26000 7.534
52.28000 7.533
52.30000 3.822
52.32000 4.341
52.34000 7.115
52.36000 5.611
52.38000 5.184
52.40000 -0.367
52.42000 -1.619
52.44000 3.396
52.46000 5.245
52.48000 2.473
52.50000 2.192
52.52000 0.730
52.54000 -2.621
52.56000 -0.412
52.58000 4.648
52.60000 4.711
52.62000 3.617
52.64000 4.623
52.66000 4.238
52.68000 4.892
52.70000 8.179
52.72000 4.996
52.74000 6.720
52.76000 3.859
52.78000 3.756
52.80000 5.181
52.82000 3.417
52.84000 7.315
52.86000 5.130
52.88000 3.127
52.90000 2.238
52.92000 2.601
52.94000 1.048
52.96000 2.394
52.98000 3.491
53.00000 6.323
53.02000 5.658
53.04000 1.221
53.06000 -0.361
53.08000 3.770
53.10000 2.465
53.12000 3.633
53.14000 1.019
53.16000 -0.770
53.18000 1.537
53.20000 4.631
53.22000 5.454
53.24000 0.971
53.26000 2.473
53.28000 5.495
53.30000 0.702
53.32000 4.423
53.34000 4.549
53.36000 5.237
53.38000 7.159
53.40000 3.042
53.42000 2.138
53.44000 -1.132
53.46000 -1.003
53.48000 0.990
53.50000 1.923
53.52000 -0.622
53.54000 -0.608
53.56000 4.798
53.58000 6.175
53.60000 2.875
53.62000 0.368
53.64000 -0.232
53.66000 1.149
53.68000 -1.344
53.70000 4.214
53.72000 6.429
53.74000 1.075
53.76000 5.244
53.78000 5.815
53.80000 3.685
53.82000 1.012
53.84000 -0.789
53.86000 0.066
53.88000 -1.167
53.90000 -1.495
53.92000 -0.272
53.94000 5.822
53.96000 3.922
53.98000 1.487
54.00000 -2.591
54.02000 0.889
54.04000 5.623
54.06000 2.668
54.08000 2.790
54.10000 4.533
54.12000 3.284
54.14000 3.645
54.16000 2.176
54.18000 2.892
54.20000 0.514
54.22000 2.554
54.24000 7.624
54.26000 4.383
54.28000 1.234
54.30000 0.045
54.32000 2.350
54.34000 0.413
54.36000 0.174
54.38000 4.513
54.40000 3.316
54.42000 6.266
54.44000 3.226
54.46000 2.321
54.48000 3.497
54.50000 3.985
54.52000 3.909
54.54000 7.287
54.56000 3.189
54.58000 6.297
54.60000 5.421
54.62000 4.595
54.64000 4.655
54.66000 4.589
54.68000 -0.819
54.70000 -1.508
54.72000 -2.165
54.74000 1.975
54.76000 7.286
54.78000 7.302
54.80000 5.354
54.82000 1.739
54.84000 -0.971
54.86000 -2.537
54.88000 -1.555
54.90000 1.098
54.92000 5.417
54.94000 6.256
54.96000 4.974
54.98000 6.122
55.00000 3.629
55.02000 7.836
55.04000 5.636
55.06000 4.221
55.08000 2.433
55.10000 6.004
55.12000 4.898
55.14000 1.551
55.16000 0.418
55.18000 2.440
55.20000 6.614
55.22000 2.649
55.24000 2.205
55.26000 4.898
55.28000 1.526
55.30000 2.283
55.32000 2.594
55.34000 2.952
55.36000 4.188
55.38000 7.305
55.40000 5.777
55.42000 3.403
55.44000 2.318
55.46000 -0.089
55.48000 2.389
55.50000 1.274
55.52000 -2.123
55.54000 0.026
55.56000 4.542
55.58000 4.704
55.60000 4.304
55.62000 6.686
55.64000 7.641
55.66000 4.106
55.68000 4.647
55.70000 8.088
55.72000 4.678
55.74000 7.376
55.76000 6.758
55.78000 3.071
55.80000 0.474
55.82000 0.380
55.84000 -2.515
55.86000 2.877
55.88000 8.238
55.90000 6.262
55.92000 0.764
55.94000 -0.314
55.96000 2.142
55.98000 1.999
56.00000 4.297
56.02000 4.454
56.04000 1.325
56.06000 1.929
56.08000 3.508
56.10000 5.283
56.12000 7.183
56.14000 4.772
56.16000 4.164
56.18000 3.648
56.20000 5.908
56.22000 8.484
56.24000 3.059
56.26000 0.633
56.28000 0.998
56.30000 -1.449
56.32000 4.206
56.34000 5.104
56.36000 1.988
56.38000 5.030
56.40000 1.794
56.42000 -0.692
56.44000 2.678
56.46000 7.074
56.48000 4.806
56.50000 7.115
56.52000 3.527
56.54000 3.359
56.56000 2.957
56.58000 4.830
56.60000 3.741
56.62000 0.775
56.64000 -0.225
56.66000 3.061
56.68000 2.992
56.70000 4.082
56.72000 2.188
56.74000 4.390
56.76000 4.244
56.78000 6.065
56.80000 5.963
56.82000 3.672
56.84000 5.097
56.86000 4.491
56.88000 3.156
56.90000 3.686
56.92000 2.151
56.94000 2.722
56.96000 0.498
56.98000 -2.492
57.00000 -1.025
57.02000 6.392
57.04000 1.626
57.06000 1.093
57.08000 2.890
57.10000 4.896
57.12000 3.423
57.14000 5.671
57.16000 4.348
57.18000 -1.243
57.20000 -2.361
57.22000 -0.224
57.24000 0.114
57.26000 -2.499
57.28000 0.947
57.30000 2.357
57.32000 1.861
57.34000 1.743
57.36000 3.733
57.38000 4.066
57.40000 3.707
57.42000 4.479
57.44000 6.769
57.46000 6.765
57.48000 4.162
57.50000 6.230
57.52000 9.190
57.54000 5.270
57.56000 4.965
57.58000 5.516
57.60000 3.944
57.62000 1.887
57.64000 0.727
57.66000 1.647
57.68000 4.414
57.70000 2.088
57.72000 0.290
57.74000 1.543
57.76000 1.800
57.78000 5.096
57.80000 2.973
57.82000 2.673
57.84000 3.218
57.86000 0.289
57.88000 -0.539
57.90000 -1.084
57.92000 -1.194
57.94000 5.195
57.96000 8.361
57.98000 1.958
58.00000 1.977
58.02000 2.158
58.04000 3.810
58.06000 2.498
58.08000 2.541
58.10000 6.994
58.12000 5.941
58.14000 3.618
58.16000 4.112
58.18000 3.385
58.20000 2.237
58.22000 1.645
58.24000 4.817
58.26000 1.647
58.28000 1.518
58.30000 0.215
58.32000 -0.865
58.34000 -1.531
58.36000 -2.480
58.38000 -0.331
58.40000 0.662
58.42000 4.954
58.44000 3.595
58.46000 1.573
58.48000 0.226
58.50000 3.139
58.52000 4.377
58.54000 3.980
58.56000 1.743
58.58000 -0.207
58.60000 3.522
58.62000 4.779
58.64000 4.543
58.66000 3.636
58.68000 3.892
58.70000 4.447
58.72000 0.931
58.74000 3.428
58.76000 3.725
58.78000 0.539
58.80000 2.716
58.82000 2.145
58.84000 0.914
58.86000 0.662
58.88000 1.904
58.90000 3.809
58.92000 0.907
58.94000 1.586
58.96000 1.684
58.98000 1.051
59.00000 3.952
59.02000 2.059
59.04000 2.508
59.06000 0.056
59.08000 1.182
59.10000 0.078
59.12000 3.275
59.14000 4.860
59.16000 3.056
59.18000 4.634
59.20000 4.682
59.22000 5.811
59.24000 0.657
59.26000 1.919
59.28000 1.743
59.30000 4.820
59.32000 2.521
59.34000 0.203
59.36000 0.750
59.38000 0.674
59.40000 -0.808
59.42000 6.643
59.44000 6.317
59.46000 0.471
59.48000 -2.451
59.50000 0.917
59.52000 2.395
59.54000 5.606
59.56000 4.369
59.58000 0.778
59.60000 -0.193
59.62000 2.545
59.64000 3.604
59.66000 1.851
59.68000 3.505
59.70000 1.308
59.72000 -1.031
59.74000 0.220
59.76000 4.554
59.78000 5.067
59.80000 4.260
59.82000 2.340
59.84000 3.881
59.86000 0.311
59.88000 0.471
59.90000 -1.231
59.92000 3.062
59.94000 0.059
59.96000 1.310
59.98000 2.523
60.00000 3.074
60.02000 -0.963
60.04000 0.084
60.06000 3.992
60.08000 4.872
60.10000 4.803
60.12000 0.715
60.14000 5.583
60.16000 7.205
60.18000 0.740
60.20000 0.021
60.22000 2.784
60.24000 3.019
60.26000 1.120
60.28000 -2.426
60.30000 0.992
60.32000 2.649
60.34000 2.999
60.36000 0.542
60.38000 0.160
60.40000 1.912
60.42000 1.211
60.44000 -1.516
60.46000 0.259
60.48000 0.492
60.50000 -1.286
60.52000 0.118
60.54000 -0.880
60.56000 0.383
60.58000 1.676
60.60000 5.842
60.62000 2.120
60.64000 -1.048
60.66000 5.557
60.68000 7.211
60.70000 4.195
60.72000 1.151
60.74000 -0.180
60.76000 -0.177
60.78000 -0.567
60.80000 0.025
60.82000 0.021
60.84000 -1.565
60.86000 -1.116
60.88000 1.283
60.90000 4.459
60.92000 3.078
60.94000 1.087
60.96000 -0.176
60.98000 -1.498
61.00000 -0.300
61.02000 -2.322
61.04000 1.154
61.06000 4.301
61.08000 2.687
61.10000 2.780
61.12000 1.778
61.14000 1.486
61.16000 7.657
61.18000 3.650
61.20000 3.689
61.22000 -1.258
61.24000 -2.404
61.26000 -1.844
61.28000 3.381
61.30000 -0.007
61.32000 -1.210
61.34000 -0.009
61.36000 -1.133
61.38000 1.455
61.40000 4.702
61.42000 4.897
61.44000 2.278
61.46000 -0.323
61.48000 0.315
61.50000 -2.389
61.52000 -1.305
61.54000 2.188
61.56000 5.078
61.58000 2.261
61.60000 2.214
61.62000 -0.393
61.64000 1.864
61.66000 2.605
61.68000 3.400
61.70000 -1.003
61.72000 -1.896
61.74000 -0.888
61.76000 0.973
61.78000 3.981
61.80000 2.087
61.82000 0.541
61.84000 3.087
61.86000 -0.132
61.88000 1.520
61.90000 2.220
61.92000 2.692
61.94000 2.907
61.96000 -0.054
61.98000 0.782
62.00000 2.058
62.02000 2.142
62.04000 5.057
62.06000 3.015
62.08000 2.395
62.10000 1.522
62.12000 2.159
62.14000 0.526
62.16000 -0.323
62.18000 1.329
62.20000 -0.939
62.22000 -0.823
62.24000 -2.396
62.26000 -0.587
62.28000 3.139
62.30000 1.675
62.32000 2.356
62.34000 4.257
62.36000 1.808
62.38000 0.253
62.40000 -1.043
62.42000 -1.774
62.44000 2.899
62.46000 5.235
62.48000 1.706
62.50000 1.626
62.52000 -2.389
62.54000 -0.682
62.56000 4.688
62.58000 5.894
62.60000 3.131
62.62000 1.047
62.64000 1.820
62.66000 2.856
62.68000 3.906
62.70000 1.171
62.72000 1.355
62.74000 -1.361
62.76000 0.448
62.78000 3.749
62.80000 1.807
62.82000 4.833
62.84000 3.177
62.86000 5.926
62.88000 1.832
62.90000 1.071
62.92000 1.868
62.94000 1.668
62.96000 0.461
62.98000 2.166
63.00000 3.132
63.02000 2.455
63.04000 4.004
63.06000 4.085
63.08000 1.004
63.10000 0.044
63.12000 1.827
63.14000 0.067
63.16000 -2.300
63.18000 3.092
63.20000 -0.739
63.22000 -0.181
63.24000 3.348
63.26000 4.085
63.28000 4.720
63.30000 4.818
63.32000 4.613
63.34000 4.797
63.36000 1.765
63.38000 0.797
63.40000 2.468
63.42000 0.938
63.44000 4.953
63.46000 5.231
63.48000 5.746
63.50000 1.644
63.52000 -1.737
63.54000 -2.365
63.56000 1.338
63.58000 3.027
63.60000 1.088
63.62000 1.652
63.64000 5.124
63.66000 4.280
63.68000 4.983
63.70000 1.532
63.72000 3.010
63.74000 3.949
63.76000 2.834
63.78000 2.652
63.80000 3.324
63.82000 0.897
63.84000 3.886
63.86000 2.101
63.88000 -2.368
63.90000 0.314
63.92000 3.579
63.94000 3.157
63.96000 3.581
63.98000 1.695
64.00000 2.322
64.02000 0.558
64.04000 2.244
64.06000 1.348
64.08000 1.659
64.10000 1.294
64.12000 0.294
64.14000 2.160
64.16000 2.657
64.18000 2.464
64.20000 0.233
64.22000 0.091
64.24000 -0.378
64.26000 -1.291
64.28000 -0.340
64.30000 2.021
64.32000 2.496
64.34000 2.547
64.36000 2.132
64.38000 2.876
64.40000 0.440
64.42000 -0.642
64.44000 -0.689
64.46000 1.230
64.48000 3.767
64.50000 1.458
64.52000 -0.651
64.54000 0.925
64.56000 -0.203
64.58000 0.183
64.60000 1.522
64.62000 0.474
64.64000 -0.471
64.66000 2.662
64.68000 3.576
64.70000 4.453
64.72000 2.431
64.74000 3.291
64.76000 2.250
64.78000 -0.283
64.80000 3.329
64.82000 0.686
64.84000 -0.402
64.86000 0.520
64.88000 2.380
64.90000 2.390
64.92000 6.572
64.94000 4.979
64.96000 3.854
64.98000 3.024
65.00000 1.646
65.02000 0.603
65.04000 3.343
65.06000 -0.300
65.08000 -0.040
65.10000 -1.254
65.12000 1.101
65.14000 0.541
65.16000 -0.920
65.18000 2.548
65.20000 2.595
65.22000 1.627
65.24000 -0.647
65.26000 -2.348
65.28000 -0.147
65.30000 0.971
65.32000 3.875
65.34000 5.921
65.36000 5.239
65.38000 3.144
65.40000 0.243
65.42000 2.998
65.44000 2.240
65.46000 5.151
65.48000 1.707
65.50000 1.428
65.52000 2.405
65.54000 6.126
65.56000 4.805
65.58000 -0.301
65.60000 -1.369
65.62000 -1.887
65.64000 -2.408
65.66000 0.391
65.68000 3.632
65.70000 0.866
65.72000 0.002
65.74000 -0.820
65.76000 2.118
65.78000 4.807
65.80000 2.349
65.82000 2.889
65.84000 3.952
65.86000 3.215
65.88000 2.130
65.90000 3.087
65.92000 3.826
65.94000 3.371
65.96000 1.664
65.98000 2.355
66.00000 -0.516
66.02000 2.825
66.04000 0.998
66.06000 3.305
66.08000 1.942
66.10000 -0.145
66.12000 0.053
66.14000 1.850
66.16000 5.113
66.18000 2.699
66.20000 2.958
66.22000 3.279
66.24000 -0.631
66.26000 -2.478
66.28000 1.167
66.30000 2.457
66.32000 3.815
66.34000 2.882
66.36000 2.114
66.38000 0.117
66.40000 2.292
66.42000 0.772
66.44000 2.059
66.46000 1.979
66.48000 3.974
66.50000 2.951
66.52000 2.629
66.54000 0.969
66.56000 0.670
66.58000 2.759
66.60000 2.100
66.62000 3.890
66.64000 4.112
66.66000 1.987
66.68000 4.557
66.70000 8.131
66.72000 5.216
66.74000 3.877
66.76000 4.195
66.78000 3.973
66.80000 1.509
66.82000 2.607
66.84000 6.282
66.86000 6.972
66.88000 6.226
66.90000 6.264
66.92000 5.294
66.94000 9.860
66.96000 9.246
66.98000 6.661
67.00000 6.383
67.02000 4.493
67.04000 8.832
67.06000 10.238
67.08000 10.796
67.10000 7.669
67.12000 6.690
67.14000 7.186
67.16000 9.731
67.18000 10.653
67.20000 8.486
67.22000 8.713
67.24000 9.800
67.26000 13.859
67.28000 11.464
67.30000 10.537
67.32000 6.535
67.34000 11.976
67.36000 9.386
67.38000 8.392
67.40000 11.879
67.42000 13.815
67.44000 15.213
67.46000 14.709
67.48000 14.893
67.50000 17.680
67.52000 19.280
67.54000 19.720
67.56000 21.349
67.58000 18.735
67.60000 18.387
67.62000 17.912
67.64000 17.597
67.66000 19.327
67.68000 15.201
67.70000 13.335
67.72000 16.487
67.74000 22.056
67.76000 24.744
67.78000 23.405
67.80000 22.344
67.82000 22.374
67.84000 23.984
67.86000 20.707
67.88000 21.710
67.90000 21.800
67.92000 26.102
67.94000 26.700
67.96000 27.619
67.98000 26.045
68.00000 23.516
68.02000 23.708
68.04000 25.070
68.06000 23.109
68.08000 22.780
68.10000 22.984
68.12000 24.231
68.14000 26.180
68.16000 25.139
68.18000 22.446
68.20000 22.299
68.22000 23.730
68.24000 23.296
68.26000 22.339
68.28000 22.994
68.30000 21.122
68.32000 23.224
68.34000 24.852
68.36000 23.897
68.38000 24.588
68.40000 19.173
68.42000 19.876
68.44000 20.492
68.46000 17.356
68.48000 19.319
68.50000 17.668
68.52000 15.271
68.54000 13.777
68.56000 15.427
68.58000 12.644
68.60000 11.650
68.62000 16.611
68.64000 19.242
68.66000 20.201
68.68000 15.748
68.70000 12.021
68.72000 12.229
68.74000 10.991
68.76000 9.567
68.78000 9.114
68.80000 6.300
68.82000 8.873
68.84000 12.509
68.86000 12.793
68.88000 11.833
68.90000 12.546
68.92000 10.913
68.94000 6.039
68.96000 4.916
68.98000 7.352
69.00000 7.598
69.02000 6.249
69.04000 6.702
69.06000 6.743
69.08000 7.132
69.10000 4.638
69.12000 4.064
69.14000 1.940
69.16000 1.659
69.18000 2.846
69.20000 4.381
69.22000 2.396
69.24000 2.991
69.26000 2.715
69.28000 4.263
69.30000 0.514
69.32000 4.061
69.34000 4.760
69.36000 1.857
69.38000 1.322
69.40000 0.294
69.42000 0.567
69.44000 4.242
69.46000 3.705
69.48000 6.890
69.50000 5.787
69.52000 1.617
69.54000 1.315
69.56000 3.895
69.58000 3.014
69.60000 5.028
69.62000 2.129
69.64000 3.975
69.66000 5.255
69.68000 4.875
69.70000 -1.108
69.72000 -1.150
69.74000 3.629
69.76000 2.914
69.78000 1.589
69.80000 1.447
69.82000 -1.623
69.84000 -2.326
69.86000 2.070
69.88000 0.549
69.90000 1.115
69.92000 3.153
69.94000 2.797
69.96000 4.402
69.98000 2.483
70.00000 -0.083
70.02000 2.809
70.04000 1.933
70.06000 0.090
70.08000 0.822
70.10000 2.857
70.12000 2.254
70.14000 3.928
70.16000 4.076
70.18000 2.304
70.20000 0.442
70.22000 2.640
70.24000 3.758
70.26000 3.776
70.28000 4.530
70.30000 1.465
70.32000 1.894
70.34000 2.145
70.36000 3.273
70.38000 3.928
70.40000 4.136
70.42000 -0.515
70.44000 -2.298
70.46000 1.835
70.48000 4.202
70.50000 2.335
70.52000 1.871
70.54000 2.791
70.56000 -0.102
70.58000 1.956
70.60000 1.543
70.62000 2.952
70.64000 1.251
70.66000 2.022
70.68000 3.430
70.70000 0.778
70.72000 0.759
70.74000 5.536
70.76000 5.778
70.78000 6.590
70.80000 6.438
70.82000 5.990
70.84000 3.273
70.86000 0.967
70.88000 1.618
70.90000 2.476
70.92000 -1.262
70.94000 -1.060
70.96000 -0.680
70.98000 1.184
71.00000 2.614
71.02000 2.783
71.04000 4.463
71.06000 1.880
71.08000 -2.280
71.10000 0.333
71.12000 2.680
71.14000 1.109
71.16000 -0.319
71.18000 -1.228
71.20000 1.279
71.22000 1.688
71.24000 0.361
71.26000 -0.215
71.28000 0.403
71.30000 3.008
71.32000 5.255
71.34000 5.142
71.36000 5.421
71.38000 3.259
71.40000 2.265
71.42000 1.284
71.44000 -2.023
71.46000 3.050
71.48000 2.774
71.50000 -0.390
71.52000 0.887
71.54000 -2.285
71.56000 1.729
71.58000 2.636
71.60000 4.271
71.62000 3.342
71.64000 2.584
71.66000 4.386
71.68000 1.240
71.70000 1.128
71.72000 0.104
71.74000 -0.266
71.76000 1.589
71.78000 2.649
71.80000 -1.391
71.82000 1.827
71.84000 3.822
71.86000 -1.359
71.88000 0.201
71.90000 3.065
71.92000 3.397
71.94000 2.691
71.96000 2.699
71.98000 0.330
72.00000 2.301
72.02000 1.149
72.04000 -0.365
72.06000 -0.380
72.08000 -1.176
72.10000 -0.864
72.12000 -1.875
72.14000 -1.108
72.16000 3.905
72.18000 4.555
72.20000 -1.561
72.22000 0.753
72.24000 3.024
72.26000 -0.630
72.28000 -1.529
72.30000 -1.947
72.32000 1.784
72.34000 4.010
72.36000 -1.530
72.38000 -0.378
72.40000 3.291
72.42000 -0.515
72.44000 2.261
72.46000 1.230
72.48000 -1.577
72.50000 -0.408
72.52000 2.396
72.54000 -2.244
72.56000 1.940
72.58000 6.245
72.60000 6.071
72.62000 5.351
72.64000 -0.353
72.66000 -1.691
72.68000 1.424
72.70000 -0.393
72.72000 1.303
72.74000 -0.312
72.76000 1.019
72.78000 -1.001
72.80000 -1.231
72.82000 2.504
72.84000 3.484
72.86000 0.083
72.88000 -1.808
72.90000 2.268
72.92000 1.270
72.94000 1.140
72.96000 1.668
72.98000 -0.295
73.00000 -1.244
73.02000 -2.074
73.04000 1.380
73.06000 3.275
73.08000 -0.210
73.10000 1.469
73.12000 3.699
73.14000 2.483
73.16000 -1.996
73.18000 0.665
73.20000 -0.740
73.22000 0.157
73.24000 1.630
73.26000 -1.105
73.28000 1.075
73.30000 -1.939
73.32000 -1.846
73.34000 -2.134
73.36000 -1.746
73.38000 0.593
73.40000 1.018
73.42000 6.136
73.44000 1.827
73.46000 1.773
73.48000 2.696
73.50000 5.172
73.52000 2.555
73.54000 -0.437
73.56000 -2.243
73.58000 -1.494
73.60000 0.934
73.62000 0.793
73.64000 2.510
73.66000 2.676
73.68000 -0.935
73.70000 -0.229
73.72000 1.941
73.74000 -1.403
73.76000 2.743
73.78000 4.025
73.80000 4.735
73.82000 0.283
73.84000 1.247
73.86000 2.224
73.88000 -1.994
73.90000 -0.614
73.92000 3.834
73.94000 0.499
73.96000 0.992
73.98000 -0.746
74.00000 -2.206
74.02000 -0.416
74.04000 0.966
74.06000 2.713
74.08000 2.233
74.10000 3.298
74.12000 4.780
74.14000 1.989
74.16000 3.366
74.18000 2.492
74.20000 1.025
74.22000 -0.929
74.24000 0.961
74.26000 0.243
74.28000 2.176
74.30000 1.114
74.32000 2.057
74.34000 0.436
74.36000 2.354
74.38000 5.642
74.40000 7.505
74.42000 5.884
74.44000 1.108
74.46000 -2.191
74.48000 -0.781
74.50000 0.338
74.52000 -0.914
74.54000 1.365
74.56000 1.987
74.58000 -1.804
74.60000 2.230
74.62000 4.543
74.64000 0.944
74.66000 -1.876
74.68000 5.310
74.70000 2.601
74.72000 2.438
74.74000 3.591
74.76000 -0.686
74.78000 2.790
74.80000 2.508
74.82000 3.212
74.84000 6.266
74.86000 3.555
74.88000 3.500
74.90000 1.984
74.92000 2.046
74.94000 2.825
74.96000 3.978
74.98000 4.194
75.00000 3.983
75.02000 4.803
75.04000 2.334
75.06000 2.900
75.08000 4.537
75.10000 6.917
75.12000 2.460
75.14000 3.285
75.16000 1.469
75.18000 -0.027
75.20000 2.658
75.22000 3.053
75.24000 1.876
75.26000 7.016
75.28000 1.773
75.30000 1.986
75.32000 4.475
75.34000 6.549
75.36000 5.104
75.38000 4.397
75.40000 0.885
75.42000 4.212
75.44000 5.097
75.46000 -0.377
75.48000 -2.210
75.50000 2.945
75.52000 1.833
75.54000 3.631
75.56000 7.698
75.58000 5.635
75.60000 6.294
75.62000 2.542
75.64000 6.344
75.66000 1.008
75.68000 3.044
75.70000 0.243
75.72000 -0.928
75.74000 2.501
75.76000 3.986
75.78000 2.529
75.80000 0.056
75.82000 2.367
75.84000 3.422
75.86000 0.899
75.88000 0.235
75.90000 1.996
75.92000 4.164
75.94000 3.514
75.96000 3.207
75.98000 1.310
76.00000 1.303
76.02000 0.309
76.04000 -0.733
76.06000 0.029
76.08000 4.100
76.10000 6.514
76.12000 1.929
76.14000 2.656
76.16000 0.953
76.18000 3.807
76.20000 3.079
76.22000 0.684
76.24000 0.562
76.26000 1.074
76.28000 2.851
76.30000 0.174
76.32000 -1.211
76.34000 -0.005
76.36000 4.274
76.38000 -1.184
76.40000 -1.873
76.42000 2.449
76.44000 3.290
76.46000 4.702
76.48000 4.540
76.50000 5.265
76.52000 2.339
76.54000 0.939
76.56000 -1.103
76.58000 -2.092
76.60000 -2.233
76.62000 -0.138
76.64000 7.122
76.66000 3.582
76.68000 -0.602
76.70000 -1.327
76.72000 2.868
76.74000 4.515
76.76000 -0.667
76.78000 1.426
76.80000 1.850
76.82000 3.910
76.84000 4.571
76.86000 3.329
76.88000 3.967
76.90000 3.528
76.92000 2.666
76.94000 0.236
76.96000 0.961
76.98000 3.696
77.00000 0.132
77.02000 1.643
77.04000 4.487
77.06000 2.574
77.08000 -1.316
77.10000 -0.973
77.12000 -0.991
77.14000 -0.261
77.16000 1.672
77.18000 2.582
77.20000 0.822
77.22000 0.095
77.24000 5.226
77.26000 1.565
77.28000 0.080
77.30000 1.335
77.32000 3.903
77.34000 1.746
77.36000 1.982
77.38000 3.565
77.40000 5.400
77.42000 3.343
77.44000 5.252
77.46000 7.741
77.48000 5.443
77.50000 2.348
77.52000 3.794
77.54000 -0.307
77.56000 3.704
77.58000 4.137
77.60000 3.966
77.62000 7.588
77.64000 6.313
77.66000 4.609
77.68000 3.257
77.70000 3.846
77.72000 3.213
77.74000 5.416
77.76000 6.543
77.78000 3.788
77.80000 6.305
77.82000 2.412
77.84000 3.539
77.86000 3.890
77.88000 -0.474
77.90000 1.848
77.92000 6.296
77.94000 2.523
77.96000 3.034
77.98000 3.093
78.00000 -2.210
78.02000 -0.309
78.04000 2.444
78.06000 2.952
78.08000 2.363
78.10000 3.610
78.12000 3.913
78.14000 1.401
78.16000 1.513
78.18000 2.622
78.20000 0.830
78.22000 2.684
78.24000 7.179
78.26000 6.290
78.28000 5.548
78.30000 4.031
78.32000 1.094
78.34000 4.016
78.36000 2.014
78.38000 2.312
78.40000 4.713
78.42000 -0.969
78.44000 -0.846
78.46000 4.902
78.48000 4.744
78.50000 5.293
78.52000 6.124
78.54000 1.697
78.56000 3.653
78.58000 2.629
78.60000 -0.181
78.62000 1.526
78.64000 2.971
78.66000 3.121
78.68000 3.307
78.70000 6.398
78.72000 4.131
78.74000 5.998
78.76000 1.931
78.78000 0.678
78.80000 1.973
78.82000 1.518
78.84000 0.844
78.86000 -1.691
78.88000 1.835
78.90000 4.016
78.92000 2.725
78.94000 0.799
78.96000 3.258
78.98000 2.919
79.00000 4.208
79.02000 2.000
79.04000 1.712
79.06000 0.050
79.08000 -0.947
79.10000 -1.883
79.12000 -0.998
79.14000 -2.329
79.16000 -1.251
79.18000 3.911
79.20000 3.784
79.22000 5.108
79.24000 2.994
79.26000 2.565
79.28000 1.900
79.30000 0.482
79.32000 2.242
79.34000 2.394
79.36000 0.622
79.38000 2.732
79.40000 4.472
79.42000 -0.295
79.44000 1.645
79.46000 3.598
79.48000 1.344
79.50000 -0.223
79.52000 1.070
79.54000 1.090
79.56000 3.490
79.58000 4.276
79.60000 2.686
79.62000 -2.125
79.64000 0.576
79.66000 0.161
79.68000 -0.978
79.70000 1.542
79.72000 1.263
79.74000 -1.140
79.76000 1.314
79.78000 2.286
79.80000 -0.317
79.82000 -0.317
79.84000 -2.387
79.86000 -2.389
79.88000 0.111
79.90000 1.300
79.92000 1.075
79.94000 -0.192
79.96000 -2.399
79.98000 3.207
80.00000 4.677
80.02000 6.686
80.04000 6.003
80.06000 5.720
80.08000 1.719
80.10000 -0.152
80.12000 -1.580
80.14000 -0.072
80.16000 6.591
80.18000 6.423
80.20000 8.882
80.22000 4.154
80.24000 2.237
80.26000 3.359
80.28000 2.376
80.30000 3.422
80.32000 3.645
80.34000 2.432
80.36000 0.792
80.38000 0.214
80.40000 2.679
80.42000 2.440
80.44000 4.441
80.46000 6.593
80.48000 5.777
80.50000 4.812
80.52000 3.813
80.54000 3.172
80.56000 6.204
80.58000 4.893
80.60000 3.402
80.62000 2.714
80.64000 0.293
80.66000 -0.040
80.68000 2.094
80.70000 -0.551
80.72000 2.896
80.74000 5.812
80.76000 4.748
80.78000 4.432
80.80000 3.755
80.82000 7.336
80.84000 8.429
80.86000 6.857
80.88000 6.687
80.90000 5.048
80.92000 6.266
80.94000 7.225
80.96000 5.519
80.98000 6.848
81.00000 9.127
81.02000 7.551
81.04000 8.981
81.06000 11.541
81.08000 3.269
81.10000 8.308
81.12000 10.461
81.14000 11.033
81.16000 12.669
81.18000 11.680
81.20000 11.437
81.22000 14.564
81.24000 14.947
81.26000 13.525
81.28000 9.895
81.30000 13.536
81.32000 18.759
81.34000 16.157
81.36000 14.501
81.38000 14.430
81.40000 16.814
81.42000 20.918
81.44000 17.181
81.46000 16.432
81.48000 15.495
81.50000 17.993
81.52000 20.423
81.54000 19.619
81.56000 20.326
81.58000 17.035
81.60000 22.307
81.62000 19.932
81.64000 19.091
81.66000 16.078
81.68000 23.866
81.70000 27.239
81.72000 28.507
81.74000 26.631
81.76000 25.904
81.78000 26.501
81.80000 28.482
81.82000 26.913
81.84000 24.644
81.86000 20.035
81.88000 27.590
81.90000 28.368
81.92000 32.373
81.94000 33.968
81.96000 29.302
81.98000 29.557
82.00000 26.684
82.02000 27.857
82.04000 25.378
82.06000 28.208
82.08000 30.619
82.10000 31.826
82.12000 28.020
82.14000 27.881
82.16000 26.905
82.18000 28.746
82.20000 35.527
82.22000 33.371
82.24000 29.257
82.26000 32.252
82.28000 29.694
82.30000 29.973
82.32000 30.952
82.34000 32.484
82.36000 24.973
82.38000 26.554
82.40000 30.614
82.42000 28.441
82.44000 26.037
82.46000 25.079
82.48000 24.503
82.50000 23.879
82.52000 20.543
82.54000 19.402
82.56000 22.895
82.58000 24.366
82.60000 28.099
82.62000 25.248
82.64000 25.718
82.66000 18.673
82.68000 19.784
82.70000 23.272
82.72000 20.699
82.74000 21.884
82.76000 19.459
82.78000 19.196
82.80000 20.634
82.82000 18.723
82.84000 17.330
82.86000 16.886
82.88000 10.095
82.90000 12.095
82.92000 17.977
82.94000 20.248
82.96000 14.210
82.98000 13.290
83.00000 11.043
83.02000 12.021
83.04000 12.297
83.06000 10.316
83.08000 6.525
83.10000 7.395
83.12000 7.222
83.14000 9.612
83.16000 7.687
83.18000 7.298
83.20000 5.917
83.22000 8.977
83.24000 2.905
83.26000 4.266
83.28000 6.660
83.30000 4.781
83.32000 5.450
83.34000 2.529
83.36000 5.056
83.38000 4.335
83.40000 6.445
83.42000 5.829
83.44000 4.004
83.46000 6.768
83.48000 7.427
83.50000 2.349
83.52000 5.047
83.54000 8.196
83.56000 2.100
83.58000 2.978
83.60000 1.437
83.62000 1.986
83.64000 4.816
83.66000 2.009
83.68000 3.779
83.70000 3.996
83.72000 1.585
83.74000 2.008
83.76000 0.689
83.78000 1.736
83.80000 3.055
83.82000 0.168
83.84000 0.003
83.86000 0.224
83.88000 1.396
83.90000 3.089
83.92000 5.365
83.94000 6.740
83.96000 8.035
83.98000 1.846
84.00000 2.169
84.02000 5.032
84.04000 7.423
84.06000 4.198
84.08000 3.294
84.10000 3.496
84.12000 3.769
84.14000 1.635
84.16000 5.184
84.18000 6.112
84.20000 2.561
84.22000 1.017
84.24000 0.490
84.26000 2.758
84.28000 -1.643
84.30000 -2.324
84.32000 2.625
84.34000 3.437
84.36000 1.126
84.38000 5.238
84.40000 13.856
84.42000 6.973
84.44000 5.767
84.46000 2.160
84.48000 3.640
84.50000 6.918
84.52000 7.579
84.54000 3.511
84.56000 4.854
84.58000 1.530
84.60000 0.731
84.62000 3.331
84.64000 3.093
84.66000 1.122
84.68000 -0.702
84.70000 1.920
84.72000 2.240
84.74000 3.421
84.76000 7.332
84.78000 7.550
84.80000 -2.370
84.82000 1.835
84.84000 2.796
84.86000 2.682
84.88000 4.110
84.90000 3.079
84.92000 2.591
84.94000 5.115
84.96000 3.024
84.98000 6.437
85.00000 2.771
85.02000 3.524
85.04000 5.619
85.06000 -0.246
85.08000 2.738
85.10000 6.780
85.12000 6.797
85.14000 4.442
85.16000 4.232
85.18000 2.593
85.20000 3.441
85.22000 2.182
85.24000 3.628
85.26000 3.857
85.28000 4.278
85.30000 4.322
85.32000 5.144
85.34000 1.428
85.36000 2.025
85.38000 5.668
85.40000 7.148
85.42000 7.951
85.44000 8.405
85.46000 11.404
85.48000 12.613
85.50000 13.258
85.52000 13.128
85.54000 9.404
85.56000 8.672
85.58000 10.926
85.60000 11.889
85.62000 16.216
85.64000 12.948
85.66000 6.577
85.68000 10.925
85.70000 10.892
85.72000 14.230
85.74000 14.547
85.76000 13.826
85.78000 14.054
85.80000 15.919
85.82000 18.415
85.84000 14.431
85.86000 17.174
85.88000 17.564
85.90000 20.106
85.92000 20.595
85.94000 17.467
85.96000 17.178
85.98000 13.615
86.00000 16.343
86.02000 19.960
86.04000 23.714
86.06000 25.542
86.08000 16.199
86.10000 15.858
86.12000 23.648
86.14000 24.396
86.16000 24.271
86.18000 23.633
86.20000 24.193
86.22000 26.663
86.24000 25.714
86.26000 23.695
86.28000 21.205
86.30000 21.478
86.32000 19.947
86.34000 23.962
86.36000 25.901
86.38000 19.626
86.40000 21.426
86.42000 21.792
86.44000 24.527
86.46000 18.222
86.48000 21.501
86.50000 23.899
86.52000 22.075
86.54000 20.167
86.56000 18.564
86.58000 20.232
86.60000 21.988
86.62000 23.473
86.64000 21.181
86.66000 17.662
86.68000 23.040
86.70000 25.945
86.72000 17.904
86.74000 14.674
86.76000 12.666
86.78000 14.074
86.80000 16.212
86.82000 16.905
86.84000 18.767
86.86000 15.230
86.88000 14.905
86.90000 15.540
86.92000 13.298
86.94000 7.908
86.96000 5.601
86.98000 7.109
87.00000 9.148
87.02000 8.896
87.04000 6.579
87.06000 9.073
87.08000 9.392
87.10000 6.928
87.12000 4.179
87.14000 3.245
87.16000 6.518
87.18000 8.012
87.20000 3.905
87.22000 6.104
87.24000 7.161
87.26000 8.292
87.28000 6.131
87.30000 3.427
87.32000 6.336
87.34000 8.385
87.36000 10.023
87.38000 6.121
87.40000 3.791
87.42000 4.728
87.44000 3.527
87.46000 -0.949
87.48000 -0.957
87.50000 2.839
87.52000 3.105
87.54000 4.777
87.56000 3.327
87.58000 0.799
87.60000 1.793
87.62000 2.403
87.64000 0.087
87.66000 -0.940
87.68000 0.619
87.70000 2.694
87.72000 2.220
87.74000 2.468
87.76000 -2.253
87.78000 -1.740
87.80000 4.804
87.82000 0.780
87.84000 0.269
87.86000 -2.239
87.88000 0.009
87.90000 1.672
87.92000 -0.596
87.94000 0.828
87.96000 -0.085
87.98000 3.029
88.00000 0.996
88.02000 4.072
88.04000 -1.424
88.06000 -0.579
88.08000 2.484
88.10000 -0.954
88.12000 -2.016
88.14000 0.601
88.16000 -1.434
88.18000 -0.648
88.20000 1.115
88.22000 0.943
88.24000 2.515
88.26000 -0.274
88.28000 -1.240
88.30000 1.447
88.32000 2.292
88.34000 2.978
88.36000 1.828
88.38000 -0.819
88.40000 1.180
88.42000 1.153
88.44000 -0.862
88.46000 -0.788
88.48000 1.524
88.50000 0.854
88.52000 2.439
88.54000 1.051
88.56000 0.505
88.58000 5.367
88.60000 6.304
88.62000 1.997
88.64000 5.110
88.66000 -1.515
88.68000 1.424
88.70000 4.617
88.72000 1.815
88.74000 1.428
88.76000 3.061
88.78000 1.748
88.80000 0.957
88.82000 -1.186
88.84000 1.094
88.86000 0.740
88.88000 -2.100
88.90000 1.917
88.92000 3.113
88.94000 2.730
88.96000 1.383
88.98000 3.597
89.00000 5.954
89.02000 7.092
89.04000 6.103
89.06000 5.374
89.08000 5.327
89.10000 4.398
89.12000 -0.589
89.14000 1.594
89.16000 4.701
89.18000 5.739
89.20000 7.206
89.22000 5.503
89.24000 4.828
89.26000 5.314
89.28000 2.590
89.30000 1.242
89.32000 -2.107
89.34000 2.675
89.36000 1.989
89.38000 0.960
89.40000 4.001
89.42000 1.472
89.44000 4.482
89.46000 1.534
89.48000 1.788
89.50000 3.763
89.52000 0.668
89.54000 4.327
89.56000 6.928
89.58000 4.400
89.60000 2.454
89.62000 0.750
89.64000 3.909
89.66000 3.545
89.68000 3.280
89.70000 -1.005
89.72000 -1.446
89.74000 -1.505
89.76000 2.730
89.78000 4.430
89.80000 0.265
89.82000 -0.594
89.84000 0.861
89.86000 3.244
89.88000 1.224
89.90000 -1.875
89.92000 0.231
89.94000 3.274
89.96000 3.182
89.98000 2.093
90.00000 3.130
90.02000 5.258
90.04000 6.897
90.06000 4.883
90.08000 -0.283
90.10000 -2.090
90.12000 1.153
90.14000 4.241
90.16000 3.872
90.18000 4.609
90.20000 5.960
90.22000 6.961
90.24000 5.434
90.26000 2.879
90.28000 0.687
90.30000 1.341
90.32000 0.909
90.34000 1.667
90.36000 1.639
90.38000 2.372
90.40000 2.238
90.42000 4.128
90.44000 -1.669
90.46000 3.899
90.48000 5.216
90.50000 7.895
90.52000 3.847
90.54000 1.455
90.56000 -0.947
90.58000 1.130
90.60000 1.098
90.62000 3.445
90.64000 2.489
90.66000 -1.131
90.68000 -1.472
90.70000 0.154
90.72000 -0.504
90.74000 -1.905
90.76000 0.286
90.78000 0.363
90.80000 2.353
90.82000 1.251
90.84000 1.244
90.86000 2.924
90.88000 2.705
90.90000 1.365
90.92000 3.441
90.94000 0.260
90.96000 -1.563
90.98000 -0.826
91.00000 1.085
91.02000 4.620
91.04000 4.098
91.06000 3.583
91.08000 1.348
91.10000 1.862
91.12000 -0.751
91.14000 1.671
91.16000 5.428
91.18000 5.420
91.20000 4.210
91.22000 3.095
91.24000 2.144
91.26000 1.226
91.28000 1.233
91.30000 0.740
91.32000 -0.264
91.34000 -2.106
91.36000 2.047
91.38000 4.050
91.40000 0.624
91.42000 0.943
91.44000 0.871
91.46000 1.043
91.48000 3.890
91.50000 4.293
91.52000 1.338
91.54000 1.301
91.56000 2.388
91.58000 1.981
91.60000 0.639
91.62000 3.130
91.64000 1.387
91.66000 3.722
91.68000 4.887
91.70000 3.589
91.72000 -0.575
91.74000 1.101
91.76000 4.175
91.78000 2.523
91.80000 2.600
91.82000 1.711
91.84000 4.718
91.86000 3.534
91.88000 3.785
91.90000 1.194
91.92000 -2.082
91.94000 2.262
91.96000 2.483
91.98000 0.624
92.00000 3.299
92.02000 3.687
92.04000 0.378
92.06000 -0.880
92.08000 3.242
92.10000 3.463
92.12000 1.610
92.14000 6.434
92.16000 2.601
92.18000 3.878
92.20000 2.460
92.22000 1.123
92.24000 4.728
92.26000 7.621
92.28000 3.050
92.30000 5.172
92.32000 1.996
92.34000 0.322
92.36000 -0.643
92.38000 1.734
92.40000 3.789
92.42000 3.635
92.44000 1.277
92.46000 2.733
92.48000 -2.098
92.50000 -0.632
92.52000 1.053
92.54000 6.679
92.56000 4.308
92.58000 2.269
92.60000 -0.207
92.62000 -0.405
92.64000 2.916
92.66000 4.618
92.68000 4.192
92.70000 3.211
92.72000 6.093
92.74000 3.163
92.76000 5.730
92.78000 1.663
92.80000 2.053
92.82000 2.124
92.84000 2.744
92.86000 1.921
92.88000 4.754
92.90000 3.038
92.92000 2.301
92.94000 2.047
92.96000 -0.443
92.98000 0.427
93.00000 2.271
93.02000 -0.191
93.04000 1.380
93.06000 3.851
93.08000 3.042
93.10000 -0.058
93.12000 -0.818
93.14000 -0.204
93.16000 0.770
93.18000 -0.722
93.20000 4.536
93.22000 4.385
93.24000 2.361
93.26000 1.851
93.28000 2.604
93.30000 4.136
93.32000 0.373
93.34000 0.036
93.36000 -1.525
93.38000 -2.119
93.40000 -1.639
93.42000 4.720
93.44000 3.754
93.46000 2.622
93.48000 4.374
93.50000 2.156
93.52000 4.051
93.54000 4.391
93.56000 3.019
93.58000 5.224
93.60000 1.515
93.62000 -1.041
93.64000 2.582
93.66000 4.906
93.68000 5.903
93.70000 3.004
93.72000 2.707
93.74000 1.690
93.76000 -0.562
93.78000 4.338
93.80000 4.976
93.82000 3.095
93.84000 0.294
93.86000 2.159
93.88000 0.529
93.90000 2.987
93.92000 -2.142
93.94000 0.397
93.96000 -0.764
93.98000 -1.152
94.00000 2.225
94.02000 2.493
94.04000 3.456
94.06000 3.016
94.08000 0.373
94.10000 -0.957
94.12000 -0.285
94.14000 -0.228
94.16000 -0.065
94.18000 1.204
94.20000 -0.380
94.22000 0.140
94.24000 -0.016
94.26000 -1.502
94.28000 -1.892
94.30000 0.894
94.32000 -1.743
94.34000 1.549
94.36000 2.140
94.38000 6.387
94.40000 5.865
94.42000 1.533
94.44000 0.456
94.46000 4.012
94.48000 0.541
94.50000 -0.082
94.52000 3.330
94.54000 3.863
94.56000 4.383
94.58000 0.668
94.60000 4.330
94.62000 0.693
94.64000 0.128
94.66000 0.788
94.68000 -1.292
94.70000 -2.130
94.72000 2.501
94.74000 3.317
94.76000 4.688
94.78000 5.556
94.80000 -2.129
94.82000 -1.280
94.84000 4.057
94.86000 4.357
94.88000 -0.639
94.90000 0.237
94.92000 1.637
94.94000 2.390
94.96000 5.246
94.98000 6.012
95.00000 4.671
95.02000 2.357
95.04000 4.515
95.06000 4.383
95.08000 -0.505
95.10000 3.226
95.12000 2.636
95.14000 1.365
95.16000 -0.173
95.18000 1.709
95.20000 1.165
95.22000 -1.202
95.24000 2.596
95.26000 4.468
95.28000 4.075
95.30000 3.709
95.32000 4.596
95.34000 3.973
95.36000 7.231
95.38000 10.762
95.40000 7.018
95.42000 6.613
95.44000 4.963
95.46000 4.240
95.48000 1.725
95.50000 -1.230
95.52000 3.341
95.54000 4.925
95.56000 1.734
95.58000 6.046
95.60000 4.658
95.62000 5.610
95.64000 6.905
95.66000 1.197
95.68000 0.509
95.70000 2.699
95.72000 2.735
95.74000 2.595
95.76000 -2.078
95.78000 0.913
95.80000 6.364
95.82000 7.018
95.84000 3.563
95.86000 7.117
95.88000 4.700
95.90000 6.466
95.92000 5.026
95.94000 3.442
95.96000 1.819
95.98000 7.135
96.00000 7.911
96.02000 7.129
96.04000 7.981
96.06000 9.306
96.08000 5.761
96.10000 2.052
96.12000 4.755
96.14000 2.751
96.16000 1.985
96.18000 2.959
96.20000 6.856
96.22000 13.392
96.24000 7.146
96.26000 4.265
96.28000 5.553
96.30000 2.279
96.32000 1.301
96.34000 2.912
96.36000 5.343
96.38000 3.207
96.40000 3.160
96.42000 0.875
96.44000 2.098
96.46000 4.406
96.48000 7.213
96.50000 4.946
96.52000 4.253
96.54000 3.725
96.56000 3.757
96.58000 6.445
96.60000 5.568
96.62000 1.996
96.64000 1.697
96.66000 2.000
96.68000 4.566
96.70000 8.764
96.72000 7.390
96.74000 4.801
96.76000 4.130
96.78000 6.320
96.80000 3.661
96.82000 3.461
96.84000 4.802
96.86000 6.946
96.88000 4.972
96.90000 6.162
96.92000 7.170
96.94000 12.361
96.96000 8.506
96.98000 5.915
97.00000 7.403
97.02000 9.722
97.04000 6.010
97.06000 4.725
97.08000 7.485
97.10000 6.047
97.12000 5.409
97.14000 3.212
97.16000 2.902
97.18000 5.517
97.20000 7.055
97.22000 13.604
97.24000 4.919
97.26000 3.600
97.28000 2.475
97.30000 -2.012
97.32000 -0.587
97.34000 6.258
97.36000 9.128
97.38000 14.701
97.40000 14.337
97.42000 7.695
97.44000 6.180
97.46000 6.087
97.48000 6.385
97.50000 8.313
97.52000 8.365
97.54000 5.591
97.56000 5.520
97.58000 9.212
97.60000 7.475
97.62000 3.774
97.64000 9.407
97.66000 13.001
97.68000 7.375
97.70000 2.524
97.72000 8.410
97.74000 4.964
97.76000 9.396
97.78000 14.498
97.80000 12.269
97.82000 8.162
97.84000 13.312
97.86000 15.424
97.88000 10.381
97.90000 12.728
97.92000 10.632
97.94000 4.781
97.96000 4.020
97.98000 5.375
98.00000 1.373
98.02000 -0.900
98.04000 4.313
98.06000 11.372
98.08000 6.963
98.10000 8.941
98.12000 13.079
98.14000 8.997
98.16000 8.189
98.18000 3.533
98.20000 5.663
98.22000 4.665
98.24000 1.559
98.26000 2.353
98.28000 0.788
98.30000 7.147
98.32000 5.119
98.34000 5.998
98.36000 2.859
98.38000 2.210
98.40000 1.708
98.42000 7.370
98.44000 13.154
98.46000 15.491
98.48000 12.605
98.50000 7.074
98.52000 6.470
98.54000 4.806
98.56000 4.875
98.58000 3.791
98.60000 10.072
98.62000 13.076
98.64000 11.026
98.66000 7.631
98.68000 9.963
98.70000 5.540
98.72000 -0.120
98.74000 -0.869
98.76000 7.174
98.78000 8.628
98.80000 8.336
98.82000 11.270
98.84000 10.742
98.86000 1.851
98.88000 -0.657
98.90000 -1.992
98.92000 4.648
98.94000 4.954
98.96000 -0.425
98.98000 6.774
99.00000 8.274
99.02000 10.668
99.04000 9.881
99.06000 1.850
99.08000 4.861
99.10000 -1.236
99.12000 5.224
99.14000 3.973
99.16000 2.495
99.18000 5.422
99.20000 4.641
99.22000 6.561
99.24000 4.364
99.26000 0.360
99.28000 3.960
99.30000 -0.099
99.32000 2.114
99.34000 10.526
99.36000 4.676
99.38000 5.392
99.40000 -2.048
99.42000 3.718
99.44000 6.922
99.46000 10.432
99.48000 8.179
99.50000 11.678
99.52000 3.360
99.54000 5.733
99.56000 6.766
99.58000 2.048
99.60000 7.110
99.62000 10.972
99.64000 8.800
99.66000 4.782
99.68000 12.756
99.70000 2.918
99.72000 4.817
99.74000 -2.311
99.76000 5.133
99.78000 9.075
99.80000 10.835
99.82000 9.352
99.84000 -0.133
99.86000 1.881
99.88000 0.986
99.90000 3.014
99.92000 -1.430
99.94000 1.303
99.96000 -2.274
99.98000 0.000
