'Id: "0011387" Comment: "Integrate frame 0011387_Au-Ir-Rh_Rh-rich_XRD-Mapping-246-0000.gfrmwith cursor Wedge Cursor #5" Operator: "B?rgel" Anode: "Cu" Wavelength: "1.5406" Scantype: "2Theta (TwoTheta)" TimePerStep: "1" X: "-18" Y: "18" Z: "5.95" 
10.00000 0.000
10.02000 1.359
10.04000 3.523
10.06000 9.426
10.08000 9.472
10.10000 18.992
10.12000 18.312
10.14000 17.802
10.16000 14.390
10.18000 9.722
10.20000 4.405
10.22000 21.299
10.24000 11.900
10.26000 0.591
10.28000 9.992
10.30000 12.828
10.32000 7.020
10.34000 -0.574
10.36000 6.973
10.38000 15.957
10.40000 16.967
10.42000 20.544
10.44000 29.854
10.46000 14.019
10.48000 2.135
10.50000 12.029
10.52000 8.224
10.54000 11.140
10.56000 17.331
10.58000 11.294
10.60000 22.424
10.62000 6.849
10.64000 2.855
10.66000 22.262
10.68000 25.632
10.70000 17.289
10.72000 12.108
10.74000 20.696
10.76000 20.381
10.78000 32.785
10.80000 16.211
10.82000 6.652
10.84000 2.750
10.86000 15.202
10.88000 17.217
10.90000 18.440
10.92000 18.976
10.94000 26.789
10.96000 23.807
10.98000 15.061
11.00000 10.179
11.02000 11.080
11.04000 21.110
11.06000 25.090
11.08000 23.239
11.10000 23.643
11.12000 9.320
11.14000 10.729
11.16000 10.927
11.18000 17.936
11.20000 11.124
11.22000 14.233
11.24000 14.379
11.26000 13.821
11.28000 10.901
11.30000 1.932
11.32000 13.298
11.34000 18.772
11.36000 21.065
11.38000 12.702
11.40000 10.496
11.42000 7.446
11.44000 0.217
11.46000 -3.142
11.48000 -2.279
11.50000 -4.408
11.52000 3.053
11.54000 3.499
11.56000 9.166
11.58000 16.333
11.60000 14.906
11.62000 17.843
11.64000 13.306
11.66000 3.470
11.68000 11.382
11.70000 16.245
11.72000 12.503
11.74000 17.781
11.76000 16.039
11.78000 15.180
11.80000 13.446
11.82000 -2.968
11.84000 -1.137
11.86000 2.821
11.88000 2.017
11.90000 1.351
11.92000 15.547
11.94000 22.703
11.96000 14.541
11.98000 23.909
12.00000 29.878
12.02000 23.080
12.04000 24.261
12.06000 24.790
12.08000 12.048
12.10000 11.575
12.12000 11.899
12.14000 16.942
12.16000 24.968
12.18000 19.253
12.20000 13.647
12.22000 16.938
12.24000 13.332
12.26000 5.762
12.28000 -0.536
12.30000 10.814
12.32000 20.545
12.34000 15.431
12.36000 14.263
12.38000 6.204
12.40000 5.665
12.42000 10.419
12.44000 12.898
12.46000 0.221
12.48000 -1.398
12.50000 -1.348
12.52000 8.165
12.54000 8.589
12.56000 11.590
12.58000 2.218
12.60000 12.565
12.62000 15.747
12.64000 8.071
12.66000 11.875
12.68000 13.417
12.70000 10.530
12.72000 12.493
12.74000 9.311
12.76000 15.482
12.78000 24.642
12.80000 19.860
12.82000 13.040
12.84000 18.137
12.86000 9.202
12.88000 14.833
12.90000 20.735
12.92000 11.732
12.94000 -3.261
12.96000 2.412
12.98000 2.013
13.00000 2.642
13.02000 3.714
13.04000 1.350
13.06000 3.393
13.08000 8.019
13.10000 13.124
13.12000 10.616
13.14000 5.833
13.16000 2.811
13.18000 3.589
13.20000 9.448
13.22000 16.724
13.24000 14.660
13.26000 1.762
13.28000 1.774
13.30000 15.941
13.32000 11.235
13.34000 7.452
13.36000 4.472
13.38000 -0.687
13.40000 1.390
13.42000 4.783
13.44000 10.372
13.46000 2.273
13.48000 2.572
13.50000 5.891
13.52000 8.856
13.54000 10.335
13.56000 7.779
13.58000 6.907
13.60000 9.050
13.62000 11.510
13.64000 4.938
13.66000 8.847
13.68000 14.189
13.70000 13.076
13.72000 6.743
13.74000 11.419
13.76000 11.619
13.78000 14.143
13.80000 6.443
13.82000 4.424
13.84000 2.351
13.86000 -2.689
13.88000 3.568
13.90000 1.961
13.92000 10.822
13.94000 10.390
13.96000 8.448
13.98000 7.022
14.00000 6.829
14.02000 3.759
14.04000 5.245
14.06000 5.089
14.08000 6.920
14.10000 4.254
14.12000 -0.760
14.14000 5.745
14.16000 9.591
14.18000 2.638
14.20000 8.831
14.22000 11.365
14.24000 17.891
14.26000 7.323
14.28000 12.200
14.30000 7.858
14.32000 8.010
14.34000 7.315
14.36000 2.076
14.38000 2.240
14.40000 8.375
14.42000 12.197
14.44000 6.667
14.46000 8.733
14.48000 3.829
14.50000 3.123
14.52000 -0.885
14.54000 7.606
14.56000 11.894
14.58000 12.781
14.60000 11.221
14.62000 10.496
14.64000 8.437
14.66000 0.450
14.68000 6.279
14.70000 6.795
14.72000 7.007
14.74000 6.430
14.76000 5.706
14.78000 2.261
14.80000 2.820
14.82000 15.367
14.84000 10.571
14.86000 3.411
14.88000 4.623
14.90000 1.138
14.92000 10.841
14.94000 11.461
14.96000 10.093
14.98000 5.086
15.00000 1.173
15.02000 1.095
15.04000 6.235
15.06000 15.405
15.08000 11.303
15.10000 9.977
15.12000 10.035
15.14000 6.948
15.16000 3.938
15.18000 8.793
15.20000 6.774
15.22000 9.501
15.24000 11.540
15.26000 19.696
15.28000 11.144
15.30000 2.908
15.32000 4.688
15.34000 8.454
15.36000 7.401
15.38000 9.381
15.40000 10.039
15.42000 9.853
15.44000 19.797
15.46000 7.309
15.48000 0.940
15.50000 3.126
15.52000 7.254
15.54000 0.085
15.56000 8.572
15.58000 8.571
15.60000 5.918
15.62000 3.506
15.64000 1.513
15.66000 9.490
15.68000 3.129
15.70000 -3.026
15.72000 -4.430
15.74000 1.003
15.76000 3.398
15.78000 11.767
15.80000 14.088
15.82000 14.717
15.84000 19.133
15.86000 6.437
15.88000 -3.455
15.90000 6.627
15.92000 13.648
15.94000 12.771
15.96000 13.220
15.98000 7.358
16.00000 0.741
16.02000 -0.770
16.04000 4.579
16.06000 5.285
16.08000 4.021
16.10000 8.192
16.12000 8.624
16.14000 8.721
16.16000 7.046
16.18000 0.434
16.20000 6.130
16.22000 9.353
16.24000 13.624
16.26000 4.318
16.28000 10.237
16.30000 9.304
16.32000 4.195
16.34000 13.138
16.36000 15.138
16.38000 12.267
16.40000 5.053
16.42000 7.951
16.44000 15.488
16.46000 16.249
16.48000 14.379
16.50000 12.846
16.52000 4.930
16.54000 12.865
16.56000 16.112
16.58000 12.623
16.60000 3.151
16.62000 -4.365
16.64000 3.475
16.66000 13.156
16.68000 12.156
16.70000 13.389
16.72000 13.899
16.74000 13.508
16.76000 14.218
16.78000 16.855
16.80000 14.192
16.82000 14.327
16.84000 7.053
16.86000 12.763
16.88000 5.371
16.90000 9.772
16.92000 17.433
16.94000 8.597
16.96000 6.852
16.98000 9.405
17.00000 10.221
17.02000 5.882
17.04000 13.215
17.06000 9.701
17.08000 11.650
17.10000 13.659
17.12000 3.090
17.14000 2.203
17.16000 4.787
17.18000 11.019
17.20000 6.358
17.22000 12.274
17.24000 6.718
17.26000 7.984
17.28000 12.772
17.30000 13.059
17.32000 8.954
17.34000 8.824
17.36000 13.702
17.38000 11.206
17.40000 0.423
17.42000 -2.199
17.44000 5.527
17.46000 12.812
17.48000 6.299
17.50000 4.365
17.52000 9.192
17.54000 8.042
17.56000 13.402
17.58000 15.054
17.60000 12.089
17.62000 13.515
17.64000 5.178
17.66000 5.792
17.68000 4.392
17.70000 3.467
17.72000 3.321
17.74000 10.484
17.76000 8.851
17.78000 7.018
17.80000 6.912
17.82000 1.694
17.84000 1.867
17.86000 0.482
17.88000 6.946
17.90000 9.934
17.92000 7.293
17.94000 6.004
17.96000 0.126
17.98000 0.786
18.00000 9.511
18.02000 9.424
18.04000 2.354
18.06000 -1.616
18.08000 6.029
18.10000 3.705
18.12000 -2.567
18.14000 1.006
18.16000 6.970
18.18000 12.915
18.20000 9.665
18.22000 8.565
18.24000 6.816
18.26000 12.716
18.28000 9.373
18.30000 9.778
18.32000 9.227
18.34000 3.998
18.36000 2.825
18.38000 -0.775
18.40000 5.665
18.42000 2.240
18.44000 0.546
18.46000 0.032
18.48000 -1.928
18.50000 -2.286
18.52000 -1.134
18.54000 0.741
18.56000 5.141
18.58000 10.280
18.60000 8.891
18.62000 13.726
18.64000 7.070
18.66000 7.792
18.68000 12.449
18.70000 10.299
18.72000 7.789
18.74000 -4.272
18.76000 1.559
18.78000 8.844
18.80000 10.175
18.82000 7.660
18.84000 3.418
18.86000 4.588
18.88000 1.111
18.90000 -1.672
18.92000 3.312
18.94000 5.277
18.96000 1.809
18.98000 6.639
19.00000 8.695
19.02000 3.195
19.04000 1.879
19.06000 8.312
19.08000 0.552
19.10000 1.514
19.12000 2.265
19.14000 3.375
19.16000 4.659
19.18000 10.674
19.20000 10.092
19.22000 3.104
19.24000 -0.444
19.26000 -2.388
19.28000 2.488
19.30000 7.825
19.32000 3.220
19.34000 5.266
19.36000 5.580
19.38000 5.847
19.40000 3.311
19.42000 6.950
19.44000 6.053
19.46000 3.623
19.48000 0.231
19.50000 2.804
19.52000 10.009
19.54000 6.707
19.56000 5.764
19.58000 7.981
19.60000 10.563
19.62000 9.807
19.64000 12.915
19.66000 13.735
19.68000 14.136
19.70000 5.633
19.72000 2.169
19.74000 5.001
19.76000 4.113
19.78000 6.368
19.80000 5.826
19.82000 3.814
19.84000 5.682
19.86000 5.632
19.88000 6.531
19.90000 4.128
19.92000 4.639
19.94000 8.595
19.96000 9.743
19.98000 11.609
20.00000 10.257
20.02000 17.973
20.04000 10.848
20.06000 8.497
20.08000 8.808
20.10000 7.389
20.12000 10.812
20.14000 8.274
20.16000 10.927
20.18000 5.198
20.20000 -0.721
20.22000 -4.179
20.24000 11.194
20.26000 11.346
20.28000 1.950
20.30000 6.109
20.32000 2.692
20.34000 4.949
20.36000 7.248
20.38000 2.279
20.40000 -1.031
20.42000 -2.376
20.44000 5.853
20.46000 3.521
20.48000 8.075
20.50000 10.318
20.52000 4.611
20.54000 7.201
20.56000 7.001
20.58000 6.313
20.60000 6.423
20.62000 5.258
20.64000 4.612
20.66000 -0.643
20.68000 7.337
20.70000 -1.122
20.72000 -1.975
20.74000 10.325
20.76000 15.824
20.78000 12.342
20.80000 8.732
20.82000 3.937
20.84000 -3.444
20.86000 3.432
20.88000 9.396
20.90000 3.135
20.92000 -0.243
20.94000 -2.744
20.96000 -2.113
20.98000 -2.713
21.00000 4.388
21.02000 4.927
21.04000 -4.177
21.06000 1.981
21.08000 11.214
21.10000 4.597
21.12000 4.485
21.14000 2.267
21.16000 0.909
21.18000 2.299
21.20000 1.442
21.22000 0.787
21.24000 5.652
21.26000 5.834
21.28000 4.400
21.30000 1.443
21.32000 9.040
21.34000 4.371
21.36000 4.065
21.38000 1.697
21.40000 5.768
21.42000 12.390
21.44000 7.318
21.46000 7.337
21.48000 3.749
21.50000 0.636
21.52000 0.742
21.54000 -3.150
21.56000 -0.890
21.58000 -3.704
21.60000 -2.513
21.62000 5.823
21.64000 3.971
21.66000 3.998
21.68000 5.167
21.70000 -1.950
21.72000 -0.419
21.74000 1.698
21.76000 -0.560
21.78000 -1.627
21.80000 5.152
21.82000 8.412
21.84000 -1.079
21.86000 -2.129
21.88000 2.912
21.90000 3.074
21.92000 -1.195
21.94000 3.501
21.96000 2.299
21.98000 6.286
22.00000 1.557
22.02000 1.293
22.04000 3.625
22.06000 8.188
22.08000 9.321
22.10000 -0.803
22.12000 0.218
22.14000 0.351
22.16000 -1.764
22.18000 -3.342
22.20000 0.821
22.22000 0.155
22.24000 0.014
22.26000 0.374
22.28000 5.168
22.30000 7.165
22.32000 -1.147
22.34000 3.592
22.36000 9.281
22.38000 9.031
22.40000 6.153
22.42000 -4.111
22.44000 2.104
22.46000 5.208
22.48000 6.950
22.50000 3.923
22.52000 1.199
22.54000 0.556
22.56000 -1.230
22.58000 2.185
22.60000 5.568
22.62000 5.678
22.64000 4.357
22.66000 2.386
22.68000 4.673
22.70000 8.445
22.72000 5.954
22.74000 6.889
22.76000 8.094
22.78000 4.095
22.80000 0.242
22.82000 -2.367
22.84000 -4.079
22.86000 2.887
22.88000 5.461
22.90000 -3.142
22.92000 2.198
22.94000 -1.878
22.96000 4.913
22.98000 1.587
23.00000 1.059
23.02000 -3.132
23.04000 -4.070
23.06000 4.178
23.08000 -0.363
23.10000 -0.789
23.12000 4.586
23.14000 0.340
23.16000 2.145
23.18000 4.457
23.20000 6.860
23.22000 5.430
23.24000 1.565
23.26000 -0.281
23.28000 2.411
23.30000 3.279
23.32000 3.825
23.34000 5.224
23.36000 7.262
23.38000 2.153
23.40000 5.632
23.42000 4.624
23.44000 2.975
23.46000 1.800
23.48000 -2.159
23.50000 1.283
23.52000 3.045
23.54000 2.796
23.56000 5.829
23.58000 0.584
23.60000 1.600
23.62000 2.396
23.64000 3.735
23.66000 2.030
23.68000 2.815
23.70000 8.137
23.72000 7.794
23.74000 8.488
23.76000 8.654
23.78000 9.951
23.80000 5.425
23.82000 0.095
23.84000 -0.780
23.86000 0.967
23.88000 1.859
23.90000 -0.978
23.92000 3.663
23.94000 9.706
23.96000 3.544
23.98000 6.327
24.00000 11.499
24.02000 6.599
24.04000 0.311
24.06000 4.206
24.08000 7.358
24.10000 5.458
24.12000 10.341
24.14000 14.182
24.16000 6.422
24.18000 1.518
24.20000 0.599
24.22000 2.472
24.24000 4.780
24.26000 5.882
24.28000 7.335
24.30000 8.204
24.32000 4.301
24.34000 4.590
24.36000 4.134
24.38000 8.137
24.40000 9.183
24.42000 7.610
24.44000 4.245
24.46000 2.355
24.48000 -0.475
24.50000 2.500
24.52000 3.122
24.54000 3.644
24.56000 7.240
24.58000 3.767
24.60000 -3.954
24.62000 -3.655
24.64000 1.040
24.66000 8.797
24.68000 10.423
24.70000 7.131
24.72000 6.091
24.74000 9.408
24.76000 10.361
24.78000 8.941
24.80000 7.645
24.82000 9.828
24.84000 7.109
24.86000 7.930
24.88000 12.974
24.90000 11.058
24.92000 8.028
24.94000 9.146
24.96000 6.276
24.98000 7.386
25.00000 10.223
25.02000 7.653
25.04000 5.202
25.06000 3.637
25.08000 -1.465
25.10000 1.361
25.12000 -3.910
25.14000 -0.662
25.16000 4.028
25.18000 6.490
25.20000 8.710
25.22000 11.825
25.24000 10.369
25.26000 6.243
25.28000 2.622
25.30000 2.108
25.32000 4.005
25.34000 3.535
25.36000 5.330
25.38000 4.473
25.40000 5.024
25.42000 3.405
25.44000 3.811
25.46000 2.667
25.48000 6.865
25.50000 5.858
25.52000 8.127
25.54000 13.667
25.56000 10.453
25.58000 6.826
25.60000 7.235
25.62000 8.908
25.64000 8.077
25.66000 10.010
25.68000 10.542
25.70000 9.081
25.72000 6.111
25.74000 0.118
25.76000 5.449
25.78000 6.622
25.80000 3.095
25.82000 9.354
25.84000 6.999
25.86000 -3.886
25.88000 1.299
25.90000 5.189
25.92000 4.406
25.94000 6.277
25.96000 2.720
25.98000 3.162
26.00000 5.033
26.02000 3.069
26.04000 -2.762
26.06000 -3.108
26.08000 -2.083
26.10000 -0.588
26.12000 0.911
26.14000 2.668
26.16000 0.256
26.18000 4.228
26.20000 3.072
26.22000 1.104
26.24000 3.006
26.26000 2.216
26.28000 7.142
26.30000 7.493
26.32000 3.601
26.34000 -0.365
26.36000 -2.638
26.38000 0.731
26.40000 -0.941
26.42000 2.618
26.44000 1.058
26.46000 5.886
26.48000 3.171
26.50000 1.225
26.52000 5.789
26.54000 16.527
26.56000 11.757
26.58000 5.125
26.60000 3.810
26.62000 7.323
26.64000 6.131
26.66000 0.899
26.68000 2.921
26.70000 7.424
26.72000 0.582
26.74000 -1.778
26.76000 2.874
26.78000 2.228
26.80000 3.849
26.82000 4.234
26.84000 3.426
26.86000 4.492
26.88000 2.380
26.90000 -0.243
26.92000 2.845
26.94000 3.999
26.96000 3.483
26.98000 1.722
27.00000 4.777
27.02000 2.282
27.04000 8.978
27.06000 8.845
27.08000 2.605
27.10000 1.306
27.12000 5.175
27.14000 7.769
27.16000 5.797
27.18000 6.170
27.20000 4.635
27.22000 2.517
27.24000 4.084
27.26000 9.360
27.28000 5.614
27.30000 3.604
27.32000 2.264
27.34000 4.704
27.36000 0.498
27.38000 3.561
27.40000 2.123
27.42000 3.196
27.44000 -3.807
27.46000 -2.827
27.48000 0.698
27.50000 0.607
27.52000 1.208
27.54000 1.056
27.56000 -2.182
27.58000 -1.819
27.60000 0.649
27.62000 2.381
27.64000 0.469
27.66000 -2.932
27.68000 1.293
27.70000 3.741
27.72000 0.349
27.74000 1.646
27.76000 -0.731
27.78000 -1.021
27.80000 -0.065
27.82000 -2.576
27.84000 1.080
27.86000 5.788
27.88000 2.100
27.90000 -0.039
27.92000 3.718
27.94000 0.167
27.96000 -2.607
27.98000 -1.566
28.00000 1.173
28.02000 4.350
28.04000 3.592
28.06000 4.844
28.08000 2.742
28.10000 4.221
28.12000 6.622
28.14000 0.299
28.16000 1.004
28.18000 4.313
28.20000 6.559
28.22000 4.704
28.24000 -1.338
28.26000 -3.276
28.28000 -0.402
28.30000 -0.141
28.32000 0.699
28.34000 3.139
28.36000 1.382
28.38000 2.125
28.40000 2.562
28.42000 2.369
28.44000 -2.344
28.46000 -3.793
28.48000 -2.592
28.50000 -2.496
28.52000 -2.695
28.54000 0.071
28.56000 0.277
28.58000 -2.559
28.60000 0.440
28.62000 1.508
28.64000 1.041
28.66000 1.711
28.68000 0.928
28.70000 1.192
28.72000 4.019
28.74000 -1.119
28.76000 4.246
28.78000 3.693
28.80000 3.055
28.82000 4.493
28.84000 0.492
28.86000 -3.325
28.88000 -3.261
28.90000 1.344
28.92000 -0.859
28.94000 0.411
28.96000 2.545
28.98000 3.013
29.00000 6.561
29.02000 5.227
29.04000 1.919
29.06000 0.981
29.08000 2.382
29.10000 -3.033
29.12000 -2.674
29.14000 -1.109
29.16000 1.447
29.18000 -3.755
29.20000 1.603
29.22000 2.887
29.24000 0.389
29.26000 5.348
29.28000 3.893
29.30000 -0.491
29.32000 -2.141
29.34000 -1.620
29.36000 0.427
29.38000 6.543
29.40000 6.281
29.42000 6.873
29.44000 4.674
29.46000 2.677
29.48000 1.576
29.50000 -1.495
29.52000 -3.272
29.54000 -3.731
29.56000 -0.254
29.58000 -1.516
29.60000 3.059
29.62000 0.103
29.64000 1.426
29.66000 2.296
29.68000 0.759
29.70000 4.796
29.72000 -0.490
29.74000 -0.516
29.76000 2.084
29.78000 2.163
29.80000 -1.664
29.82000 -3.470
29.84000 -0.087
29.86000 3.799
29.88000 -3.257
29.90000 -2.653
29.92000 1.401
29.94000 -0.371
29.96000 -1.224
29.98000 2.771
30.00000 2.221
30.02000 -1.265
30.04000 0.147
30.06000 1.111
30.08000 8.825
30.10000 7.375
30.12000 5.655
30.14000 0.390
30.16000 1.478
30.18000 4.172
30.20000 1.118
30.22000 2.566
30.24000 -0.586
30.26000 -3.676
30.28000 0.840
30.30000 7.773
30.32000 5.693
30.34000 8.686
30.36000 5.660
30.38000 -0.983
30.40000 3.514
30.42000 4.405
30.44000 7.255
30.46000 5.210
30.48000 1.677
30.50000 -2.151
30.52000 -2.777
30.54000 1.952
30.56000 5.196
30.58000 3.655
30.60000 0.349
30.62000 0.858
30.64000 4.915
30.66000 3.731
30.68000 5.171
30.70000 6.281
30.72000 6.508
30.74000 -0.292
30.76000 6.977
30.78000 5.863
30.80000 7.123
30.82000 7.673
30.84000 4.599
30.86000 2.423
30.88000 3.781
30.90000 -0.263
30.92000 1.635
30.94000 1.506
30.96000 3.401
30.98000 4.508
31.00000 2.372
31.02000 0.571
31.04000 -3.641
31.06000 -1.024
31.08000 4.085
31.10000 2.579
31.12000 2.653
31.14000 5.485
31.16000 3.401
31.18000 -0.166
31.20000 0.140
31.22000 -1.723
31.24000 4.849
31.26000 6.677
31.28000 3.677
31.30000 2.363
31.32000 -2.193
31.34000 -1.894
31.36000 -0.880
31.38000 -1.931
31.40000 -0.750
31.42000 3.294
31.44000 -0.227
31.46000 3.090
31.48000 7.518
31.50000 3.436
31.52000 2.378
31.54000 -0.452
31.56000 -3.617
31.58000 -0.379
31.60000 6.231
31.62000 3.084
31.64000 -0.059
31.66000 0.165
31.68000 3.231
31.70000 5.767
31.72000 5.932
31.74000 5.212
31.76000 0.564
31.78000 1.511
31.80000 5.409
31.82000 5.022
31.84000 2.221
31.86000 0.613
31.88000 4.473
31.90000 7.811
31.92000 7.933
31.94000 6.130
31.96000 5.090
31.98000 -0.768
32.00000 0.007
32.02000 -0.861
32.04000 -3.596
32.06000 -0.668
32.08000 0.487
32.10000 3.011
32.12000 6.002
32.14000 5.512
32.16000 2.686
32.18000 0.383
32.20000 0.697
32.22000 2.268
32.24000 1.657
32.26000 0.782
32.28000 -1.753
32.30000 2.313
32.32000 3.608
32.34000 2.915
32.36000 4.130
32.38000 4.102
32.40000 1.721
32.42000 -0.397
32.44000 3.873
32.46000 4.035
32.48000 3.278
32.50000 2.174
32.52000 3.645
32.54000 3.497
32.56000 0.461
32.58000 -1.406
32.60000 -2.010
32.62000 -3.602
32.64000 1.084
32.66000 0.647
32.68000 -2.809
32.70000 -3.318
32.72000 3.760
32.74000 3.418
32.76000 1.025
32.78000 -2.593
32.80000 0.448
32.82000 4.637
32.84000 2.283
32.86000 -0.149
32.88000 4.361
32.90000 -0.406
32.92000 -3.585
32.94000 4.170
32.96000 -2.760
32.98000 1.175
33.00000 1.544
33.02000 -2.450
33.04000 0.960
33.06000 1.348
33.08000 4.079
33.10000 5.222
33.12000 3.875
33.14000 -0.003
33.16000 -0.331
33.18000 0.135
33.20000 -3.200
33.22000 -0.482
33.24000 0.353
33.26000 5.298
33.28000 1.961
33.30000 -0.450
33.32000 -0.523
33.34000 -0.309
33.36000 -2.878
33.38000 -0.453
33.40000 -1.947
33.42000 -1.847
33.44000 4.067
33.46000 2.898
33.48000 3.823
33.50000 5.355
33.52000 1.672
33.54000 -0.862
33.56000 -1.802
33.58000 2.402
33.60000 0.624
33.62000 3.759
33.64000 3.683
33.66000 2.072
33.68000 1.612
33.70000 7.405
33.72000 5.738
33.74000 -1.000
33.76000 -0.369
33.78000 2.936
33.80000 5.241
33.82000 3.448
33.84000 -0.302
33.86000 0.271
33.88000 4.152
33.90000 3.512
33.92000 2.309
33.94000 0.942
33.96000 8.314
33.98000 9.154
34.00000 9.192
34.02000 2.948
34.04000 2.386
34.06000 6.326
34.08000 9.460
34.10000 5.349
34.12000 -1.379
34.14000 -0.432
34.16000 -0.060
34.18000 0.905
34.20000 5.816
34.22000 3.222
34.24000 -0.643
34.26000 1.926
34.28000 3.498
34.30000 2.188
34.32000 2.748
34.34000 1.845
34.36000 2.756
34.38000 6.134
34.40000 5.984
34.42000 7.371
34.44000 2.646
34.46000 -1.979
34.48000 -3.535
34.50000 -2.631
34.52000 4.257
34.54000 3.552
34.56000 -1.945
34.58000 -2.281
34.60000 3.426
34.62000 2.304
34.64000 -3.385
34.66000 -1.674
34.68000 2.114
34.70000 4.544
34.72000 4.653
34.74000 4.564
34.76000 2.902
34.78000 2.655
34.80000 -2.717
34.82000 0.565
34.84000 -0.285
34.86000 -2.437
34.88000 -1.946
34.90000 -3.536
34.92000 2.129
34.94000 6.743
34.96000 0.951
34.98000 1.322
35.00000 2.029
35.02000 4.029
35.04000 2.128
35.06000 0.412
35.08000 1.844
35.10000 -1.031
35.12000 6.060
35.14000 4.185
35.16000 -0.307
35.18000 -2.779
35.20000 0.667
35.22000 3.266
35.24000 3.115
35.26000 2.494
35.28000 0.762
35.30000 2.370
35.32000 6.452
35.34000 4.448
35.36000 9.247
35.38000 2.093
35.40000 1.154
35.42000 3.745
35.44000 -0.588
35.46000 0.984
35.48000 1.663
35.50000 2.489
35.52000 3.522
35.54000 5.008
35.56000 3.310
35.58000 5.430
35.60000 4.210
35.62000 3.880
35.64000 2.591
35.66000 -0.700
35.68000 -3.512
35.70000 0.728
35.72000 5.470
35.74000 4.774
35.76000 9.848
35.78000 3.220
35.80000 0.380
35.82000 3.346
35.84000 2.318
35.86000 4.566
35.88000 4.951
35.90000 3.433
35.92000 1.406
35.94000 4.014
35.96000 4.099
35.98000 2.988
36.00000 3.299
36.02000 0.794
36.04000 -0.454
36.06000 -3.523
36.08000 -2.977
36.10000 -2.832
36.12000 0.168
36.14000 1.947
36.16000 0.211
36.18000 5.220
36.20000 6.833
36.22000 3.756
36.24000 3.880
36.26000 1.825
36.28000 -0.185
36.30000 -1.880
36.32000 1.622
36.34000 5.871
36.36000 6.813
36.38000 2.728
36.40000 4.320
36.42000 0.675
36.44000 1.160
36.46000 -0.999
36.48000 -1.026
36.50000 -1.848
36.52000 3.120
36.54000 5.819
36.56000 6.232
36.58000 6.566
36.60000 3.217
36.62000 -1.713
36.64000 1.336
36.66000 3.524
36.68000 2.981
36.70000 0.417
36.72000 4.594
36.74000 3.720
36.76000 3.393
36.78000 5.111
36.80000 3.192
36.82000 4.095
36.84000 3.826
36.86000 4.349
36.88000 1.259
36.90000 -0.158
36.92000 -3.556
36.94000 1.674
36.96000 2.191
36.98000 3.375
37.00000 5.531
37.02000 2.933
37.04000 2.563
37.06000 4.564
37.08000 1.742
37.10000 4.253
37.12000 4.942
37.14000 4.802
37.16000 5.383
37.18000 4.889
37.20000 2.383
37.22000 -1.303
37.24000 1.202
37.26000 1.973
37.28000 1.032
37.30000 0.837
37.32000 1.737
37.34000 5.848
37.36000 1.875
37.38000 -0.923
37.40000 0.704
37.42000 -0.585
37.44000 -3.340
37.46000 -0.834
37.48000 2.957
37.50000 7.890
37.52000 5.222
37.54000 5.130
37.56000 2.885
37.58000 6.489
37.60000 8.612
37.62000 5.879
37.64000 2.209
37.66000 4.242
37.68000 1.102
37.70000 3.987
37.72000 5.594
37.74000 6.236
37.76000 2.684
37.78000 7.688
37.80000 8.857
37.82000 6.939
37.84000 8.648
37.86000 11.651
37.88000 11.736
37.90000 11.275
37.92000 9.036
37.94000 8.363
37.96000 11.518
37.98000 12.723
38.00000 15.788
38.02000 14.411
38.04000 18.220
38.06000 16.665
38.08000 12.391
38.10000 15.911
38.12000 15.646
38.14000 17.810
38.16000 21.811
38.18000 21.659
38.20000 14.600
38.22000 15.248
38.24000 16.877
38.26000 21.786
38.28000 21.246
38.30000 22.007
38.32000 25.250
38.34000 25.249
38.36000 22.776
38.38000 21.370
38.40000 25.470
38.42000 24.034
38.44000 21.130
38.46000 26.551
38.48000 32.954
38.50000 30.754
38.52000 25.053
38.54000 24.562
38.56000 28.014
38.58000 35.719
38.60000 34.007
38.62000 31.484
38.64000 35.094
38.66000 41.144
38.68000 38.297
38.70000 42.367
38.72000 45.055
38.74000 40.843
38.76000 43.946
38.78000 44.387
38.80000 41.006
38.82000 44.663
38.84000 46.094
38.86000 48.603
38.88000 54.623
38.90000 60.659
38.92000 63.832
38.94000 62.946
38.96000 59.202
38.98000 64.986
39.00000 66.754
39.02000 69.035
39.04000 75.858
39.06000 82.333
39.08000 87.696
39.10000 85.573
39.12000 86.015
39.14000 93.759
39.16000 100.438
39.18000 106.341
39.20000 113.065
39.22000 114.176
39.24000 112.373
39.26000 116.334
39.28000 120.642
39.30000 130.687
39.32000 137.230
39.34000 145.940
39.36000 159.447
39.38000 160.670
39.40000 165.891
39.42000 172.149
39.44000 182.050
39.46000 194.900
39.48000 203.942
39.50000 222.245
39.52000 236.540
39.54000 240.940
39.56000 255.007
39.58000 275.052
39.60000 286.629
39.62000 300.004
39.64000 308.696
39.66000 324.073
39.68000 333.420
39.70000 356.823
39.72000 378.480
39.74000 402.571
39.76000 417.649
39.78000 427.084
39.80000 455.305
39.82000 485.568
39.84000 505.275
39.86000 525.085
39.88000 553.000
39.90000 575.325
39.92000 589.630
39.94000 613.414
39.96000 637.132
39.98000 658.524
40.00000 677.215
40.02000 700.527
40.04000 714.861
40.06000 729.414
40.08000 747.063
40.10000 745.394
40.12000 752.772
40.14000 748.698
40.16000 755.816
40.18000 763.423
40.20000 767.841
40.22000 749.476
40.24000 740.466
40.26000 738.013
40.28000 730.113
40.30000 721.045
40.32000 709.804
40.34000 688.768
40.36000 671.122
40.38000 650.555
40.40000 639.742
40.42000 621.319
40.44000 598.539
40.46000 573.915
40.48000 552.314
40.50000 529.777
40.52000 505.706
40.54000 487.970
40.56000 463.023
40.58000 439.113
40.60000 427.003
40.62000 413.740
40.64000 395.083
40.66000 369.460
40.68000 348.534
40.70000 320.503
40.72000 306.512
40.74000 293.826
40.76000 278.124
40.78000 261.458
40.80000 250.519
40.82000 233.799
40.84000 224.655
40.86000 217.735
40.88000 203.208
40.90000 192.667
40.92000 186.329
40.94000 168.312
40.96000 152.214
40.98000 149.057
41.00000 143.206
41.02000 134.421
41.04000 125.890
41.06000 123.359
41.08000 115.438
41.10000 108.629
41.12000 99.741
41.14000 100.377
41.16000 94.664
41.18000 85.202
41.20000 80.400
41.22000 71.957
41.24000 71.782
41.26000 66.034
41.28000 62.648
41.30000 63.108
41.32000 55.811
41.34000 52.968
41.36000 49.064
41.38000 48.436
41.40000 45.511
41.42000 40.936
41.44000 41.728
41.46000 41.048
41.48000 39.847
41.50000 39.710
41.52000 39.934
41.54000 39.266
41.56000 34.885
41.58000 30.334
41.60000 30.533
41.62000 25.764
41.64000 25.383
41.66000 23.303
41.68000 24.570
41.70000 29.623
41.72000 25.549
41.74000 25.494
41.76000 20.245
41.78000 17.623
41.80000 16.139
41.82000 16.143
41.84000 17.149
41.86000 13.378
41.88000 9.113
41.90000 8.791
41.92000 12.148
41.94000 9.397
41.96000 12.669
41.98000 7.544
42.00000 8.049
42.02000 9.616
42.04000 9.393
42.06000 11.381
42.08000 11.314
42.10000 3.452
42.12000 2.817
42.14000 9.103
42.16000 6.778
42.18000 8.947
42.20000 4.816
42.22000 3.798
42.24000 5.356
42.26000 3.975
42.28000 3.935
42.30000 6.856
42.32000 6.490
42.34000 3.024
42.36000 1.219
42.38000 3.785
42.40000 2.877
42.42000 3.454
42.44000 0.513
42.46000 3.342
42.48000 5.997
42.50000 5.826
42.52000 6.503
42.54000 3.773
42.56000 2.778
42.58000 -1.056
42.60000 1.656
42.62000 0.570
42.64000 -0.687
42.66000 -3.482
42.68000 -0.525
42.70000 4.187
42.72000 4.690
42.74000 0.842
42.76000 1.430
42.78000 -0.354
42.80000 3.599
42.82000 3.637
42.84000 5.942
42.86000 5.102
42.88000 1.151
42.90000 1.310
42.92000 0.716
42.94000 -1.973
42.96000 -2.094
42.98000 -1.507
43.00000 0.772
43.02000 -0.102
43.04000 3.608
43.06000 6.288
43.08000 4.727
43.10000 -1.174
43.12000 -1.249
43.14000 1.137
43.16000 1.740
43.18000 -0.081
43.20000 -0.855
43.22000 -2.195
43.24000 -1.253
43.26000 -1.760
43.28000 4.973
43.30000 3.372
43.32000 -0.218
43.34000 1.877
43.36000 -1.199
43.38000 1.632
43.40000 1.378
43.42000 -0.558
43.44000 0.430
43.46000 -0.042
43.48000 3.070
43.50000 0.440
43.52000 4.635
43.54000 2.438
43.56000 -0.526
43.58000 2.271
43.60000 -0.156
43.62000 1.551
43.64000 2.879
43.66000 -0.252
43.68000 -0.444
43.70000 0.592
43.72000 0.235
43.74000 -2.774
43.76000 -0.092
43.78000 3.711
43.80000 3.497
43.82000 4.202
43.84000 2.210
43.86000 2.087
43.88000 0.676
43.90000 -2.111
43.92000 -3.171
43.94000 -3.347
43.96000 0.121
43.98000 0.812
44.00000 -1.404
44.02000 1.215
44.04000 1.477
44.06000 2.910
44.08000 -1.389
44.10000 -2.849
44.12000 1.461
44.14000 2.541
44.16000 1.924
44.18000 -1.069
44.20000 -2.732
44.22000 -0.702
44.24000 1.766
44.26000 2.545
44.28000 -2.767
44.30000 2.110
44.32000 3.891
44.34000 3.449
44.36000 1.386
44.38000 -1.621
44.40000 1.735
44.42000 0.352
44.44000 -2.573
44.46000 -3.135
44.48000 0.611
44.50000 1.971
44.52000 -2.022
44.54000 1.989
44.56000 4.591
44.58000 5.101
44.60000 2.623
44.62000 2.026
44.64000 0.962
44.66000 -3.342
44.68000 5.481
44.70000 5.288
44.72000 3.336
44.74000 2.315
44.76000 0.676
44.78000 2.886
44.80000 4.363
44.82000 3.180
44.84000 1.330
44.86000 1.167
44.88000 3.229
44.90000 4.745
44.92000 5.731
44.94000 4.781
44.96000 6.190
44.98000 6.358
45.00000 4.788
45.02000 2.909
45.04000 4.560
45.06000 6.390
45.08000 10.145
45.10000 9.253
45.12000 7.246
45.14000 8.071
45.16000 8.551
45.18000 10.504
45.20000 12.023
45.22000 13.346
45.24000 13.170
45.26000 8.531
45.28000 12.037
45.30000 11.589
45.32000 11.053
45.34000 18.448
45.36000 18.668
45.38000 13.030
45.40000 16.777
45.42000 17.620
45.44000 16.241
45.46000 15.019
45.48000 15.125
45.50000 16.573
45.52000 16.636
45.54000 21.950
45.56000 22.382
45.58000 21.509
45.60000 28.944
45.62000 25.369
45.64000 20.640
45.66000 26.060
45.68000 23.519
45.70000 23.343
45.72000 23.184
45.74000 26.175
45.76000 33.206
45.78000 33.114
45.80000 36.059
45.82000 37.257
45.84000 37.275
45.86000 42.771
45.88000 47.403
45.90000 45.961
45.92000 45.464
45.94000 50.189
45.96000 50.489
45.98000 54.985
46.00000 54.754
46.02000 53.379
46.04000 57.727
46.06000 61.637
46.08000 63.967
46.10000 67.329
46.12000 64.830
46.14000 66.425
46.16000 66.539
46.18000 74.115
46.20000 75.842
46.22000 75.491
46.24000 77.129
46.26000 81.450
46.28000 80.477
46.30000 81.299
46.32000 84.469
46.34000 89.200
46.36000 96.641
46.38000 102.856
46.40000 104.647
46.42000 99.570
46.44000 107.582
46.46000 109.883
46.48000 113.602
46.50000 116.075
46.52000 121.895
46.54000 123.793
46.56000 126.107
46.58000 125.298
46.60000 125.111
46.62000 132.451
46.64000 125.314
46.66000 135.110
46.68000 133.015
46.70000 134.416
46.72000 141.641
46.74000 137.339
46.76000 139.855
46.78000 145.571
46.80000 147.798
46.82000 142.280
46.84000 139.439
46.86000 142.204
46.88000 140.332
46.90000 137.219
46.92000 140.223
46.94000 150.093
46.96000 141.529
46.98000 137.739
47.00000 137.035
47.02000 132.885
47.04000 130.402
47.06000 129.291
47.08000 128.948
47.10000 127.439
47.12000 123.134
47.14000 123.674
47.16000 118.580
47.18000 113.946
47.20000 110.852
47.22000 104.556
47.24000 103.708
47.26000 100.735
47.28000 94.622
47.30000 89.982
47.32000 83.746
47.34000 86.245
47.36000 81.488
47.38000 75.788
47.40000 71.650
47.42000 67.734
47.44000 67.716
47.46000 64.434
47.48000 52.973
47.50000 53.670
47.52000 56.395
47.54000 52.887
47.56000 50.382
47.58000 53.127
47.60000 49.636
47.62000 40.664
47.64000 40.167
47.66000 37.985
47.68000 37.262
47.70000 35.451
47.72000 35.100
47.74000 30.782
47.76000 28.751
47.78000 29.324
47.80000 29.160
47.82000 24.082
47.84000 17.369
47.86000 19.652
47.88000 21.611
47.90000 21.740
47.92000 17.117
47.94000 17.225
47.96000 14.735
47.98000 13.393
48.00000 12.728
48.02000 10.731
48.04000 13.325
48.06000 8.281
48.08000 14.415
48.10000 16.398
48.12000 16.571
48.14000 16.835
48.16000 12.392
48.18000 6.064
48.20000 6.595
48.22000 8.667
48.24000 7.944
48.26000 5.409
48.28000 4.553
48.30000 8.330
48.32000 9.459
48.34000 9.738
48.36000 7.240
48.38000 6.085
48.40000 6.647
48.42000 6.522
48.44000 5.811
48.46000 8.664
48.48000 9.405
48.50000 8.665
48.52000 2.439
48.54000 2.516
48.56000 7.402
48.58000 8.761
48.60000 4.732
48.62000 -1.098
48.64000 -2.930
48.66000 0.789
48.68000 4.660
48.70000 6.681
48.72000 8.114
48.74000 8.429
48.76000 3.165
48.78000 -1.548
48.80000 -1.194
48.82000 5.716
48.84000 7.506
48.86000 4.433
48.88000 0.466
48.90000 -2.875
48.92000 -0.464
48.94000 1.214
48.96000 1.850
48.98000 5.654
49.00000 2.088
49.02000 0.590
49.04000 4.456
49.06000 1.821
49.08000 -0.906
49.10000 -1.028
49.12000 -0.218
49.14000 1.599
49.16000 0.851
49.18000 0.098
49.20000 -2.305
49.22000 -1.708
49.24000 1.343
49.26000 -0.388
49.28000 4.826
49.30000 3.390
49.32000 2.387
49.34000 1.769
49.36000 -0.587
49.38000 -1.942
49.40000 -2.331
49.42000 0.105
49.44000 -0.424
49.46000 -1.951
49.48000 -2.835
49.50000 -0.979
49.52000 -1.372
49.54000 -2.475
49.56000 -2.546
49.58000 0.393
49.60000 1.223
49.62000 -2.460
49.64000 -2.445
49.66000 1.271
49.68000 0.890
49.70000 4.596
49.72000 4.672
49.74000 2.227
49.76000 4.942
49.78000 1.271
49.80000 -0.390
49.82000 1.393
49.84000 1.821
49.86000 1.037
49.88000 2.068
49.90000 3.798
49.92000 1.488
49.94000 0.843
49.96000 4.335
49.98000 1.233
50.00000 3.429
50.02000 0.994
50.04000 1.962
50.06000 5.353
50.08000 4.614
50.10000 1.697
50.12000 4.445
50.14000 -0.811
50.16000 -2.761
50.18000 0.576
50.20000 -0.570
50.22000 2.673
50.24000 3.103
50.26000 3.047
50.28000 0.032
50.30000 3.968
50.32000 4.359
50.34000 0.998
50.36000 0.543
50.38000 0.742
50.40000 2.096
50.42000 3.484
50.44000 1.235
50.46000 8.473
50.48000 8.711
50.50000 5.382
50.52000 4.947
50.54000 0.732
50.56000 -2.208
50.58000 2.346
50.60000 1.195
50.62000 -1.192
50.64000 0.772
50.66000 0.753
50.68000 0.113
50.70000 -0.231
50.72000 -2.727
50.74000 -0.126
50.76000 -0.658
50.78000 0.362
50.80000 2.207
50.82000 0.946
50.84000 -1.132
50.86000 -0.561
50.88000 3.423
50.90000 1.116
50.92000 1.809
50.94000 3.613
50.96000 -0.506
50.98000 1.387
51.00000 3.086
51.02000 -2.202
51.04000 1.517
51.06000 2.745
51.08000 2.887
51.10000 2.320
51.12000 2.858
51.14000 2.253
51.16000 0.848
51.18000 2.405
51.20000 -2.312
51.22000 1.582
51.24000 1.131
51.26000 1.871
51.28000 -0.041
51.30000 1.353
51.32000 2.308
51.34000 0.533
51.36000 0.465
51.38000 1.804
51.40000 -1.378
51.42000 -1.199
51.44000 2.299
51.46000 -0.008
51.48000 3.526
51.50000 4.658
51.52000 -2.083
51.54000 -1.570
51.56000 3.311
51.58000 1.621
51.60000 1.630
51.62000 2.499
51.64000 2.796
51.66000 5.475
51.68000 2.598
51.70000 6.187
51.72000 7.717
51.74000 1.715
51.76000 1.103
51.78000 -2.651
51.80000 0.774
51.82000 3.925
51.84000 1.671
51.86000 2.960
51.88000 2.206
51.90000 4.634
51.92000 3.726
51.94000 6.091
51.96000 4.146
51.98000 1.949
52.00000 0.984
52.02000 0.207
52.04000 4.372
52.06000 3.608
52.08000 4.453
52.10000 3.222
52.12000 3.271
52.14000 2.294
52.16000 2.674
52.18000 6.307
52.20000 3.994
52.22000 0.811
52.24000 2.803
52.26000 5.454
52.28000 6.454
52.30000 1.950
52.32000 1.703
52.34000 2.604
52.36000 3.468
52.38000 1.476
52.40000 4.408
52.42000 2.050
52.44000 2.239
52.46000 5.316
52.48000 3.973
52.50000 4.256
52.52000 1.811
52.54000 -0.670
52.56000 3.038
52.58000 1.864
52.60000 2.460
52.62000 3.286
52.64000 2.672
52.66000 3.270
52.68000 1.491
52.70000 0.698
52.72000 0.128
52.74000 -1.858
52.76000 -1.920
52.78000 6.215
52.80000 6.110
52.82000 7.334
52.84000 2.332
52.86000 2.500
52.88000 1.488
52.90000 1.730
52.92000 4.403
52.94000 4.596
52.96000 1.758
52.98000 -2.623
53.00000 0.235
53.02000 -0.825
53.04000 0.996
53.06000 -1.875
53.08000 3.201
53.10000 4.791
53.12000 0.322
53.14000 -0.733
53.16000 -1.873
53.18000 -1.399
53.20000 -2.467
53.22000 -0.524
53.24000 1.506
53.26000 4.024
53.28000 2.859
53.30000 2.831
53.32000 3.514
53.34000 -0.142
53.36000 1.170
53.38000 -0.627
53.40000 -1.190
53.42000 0.150
53.44000 3.534
53.46000 4.069
53.48000 1.286
53.50000 0.105
53.52000 1.634
53.54000 3.392
53.56000 2.940
53.58000 0.606
53.60000 -1.145
53.62000 -1.916
53.64000 3.968
53.66000 2.077
53.68000 2.044
53.70000 1.490
53.72000 2.379
53.74000 1.236
53.76000 1.986
53.78000 -2.587
53.80000 3.379
53.82000 3.879
53.84000 2.434
53.86000 -1.124
53.88000 -2.581
53.90000 0.431
53.92000 1.329
53.94000 3.896
53.96000 3.247
53.98000 2.451
54.00000 0.652
54.02000 -1.032
54.04000 -1.134
54.06000 0.809
54.08000 1.242
54.10000 1.990
54.12000 4.723
54.14000 3.448
54.16000 0.726
54.18000 4.694
54.20000 -1.665
54.22000 3.308
54.24000 3.051
54.26000 -1.360
54.28000 0.561
54.30000 3.066
54.32000 2.638
54.34000 5.537
54.36000 3.165
54.38000 4.492
54.40000 5.970
54.42000 4.651
54.44000 2.367
54.46000 4.666
54.48000 3.100
54.50000 0.844
54.52000 1.995
54.54000 -2.588
54.56000 -1.532
54.58000 -0.035
54.60000 -0.700
54.62000 2.811
54.64000 -1.484
54.66000 1.018
54.68000 3.519
54.70000 0.833
54.72000 0.021
54.74000 1.932
54.76000 3.753
54.78000 2.060
54.80000 0.902
54.82000 -1.254
54.84000 -0.400
54.86000 0.765
54.88000 -0.018
54.90000 -2.580
54.92000 0.182
54.94000 3.515
54.96000 0.589
54.98000 1.906
55.00000 2.358
55.02000 0.692
55.04000 -0.466
55.06000 1.117
55.08000 2.982
55.10000 0.110
55.12000 -0.237
55.14000 3.808
55.16000 5.587
55.18000 8.136
55.20000 3.796
55.22000 2.798
55.24000 -1.514
55.26000 -0.358
55.28000 2.913
55.30000 0.958
55.32000 2.517
55.34000 1.663
55.36000 -0.076
55.38000 1.204
55.40000 0.819
55.42000 -1.449
55.44000 0.724
55.46000 2.444
55.48000 0.671
55.50000 4.932
55.52000 4.124
55.54000 2.511
55.56000 1.960
55.58000 -1.521
55.60000 -2.567
55.62000 -0.435
55.64000 -0.374
55.66000 1.870
55.68000 2.969
55.70000 -0.335
55.72000 -0.608
55.74000 0.129
55.76000 0.017
55.78000 2.058
55.80000 2.304
55.82000 -1.255
55.84000 -0.115
55.86000 1.264
55.88000 1.621
55.90000 -1.191
55.92000 1.129
55.94000 0.815
55.96000 -0.713
55.98000 0.460
56.00000 -0.808
56.02000 0.241
56.04000 0.212
56.06000 -0.548
56.08000 2.022
56.10000 -0.392
56.12000 -0.290
56.14000 1.453
56.16000 2.087
56.18000 0.304
56.20000 -2.552
56.22000 -1.747
56.24000 2.433
56.26000 -0.873
56.28000 1.375
56.30000 -0.319
56.32000 -0.781
56.34000 -0.371
56.36000 2.046
56.38000 0.466
56.40000 2.088
56.42000 3.065
56.44000 0.388
56.46000 -0.779
56.48000 1.094
56.50000 1.414
56.52000 0.578
56.54000 4.249
56.56000 4.709
56.58000 6.025
56.60000 3.136
56.62000 6.362
56.64000 5.288
56.66000 3.400
56.68000 5.042
56.70000 3.666
56.72000 4.984
56.74000 6.955
56.76000 3.302
56.78000 0.622
56.80000 3.469
56.82000 4.908
56.84000 4.454
56.86000 3.844
56.88000 1.006
56.90000 -2.512
56.92000 2.310
56.94000 5.340
56.96000 6.576
56.98000 4.048
57.00000 -0.336
57.02000 3.265
57.04000 1.961
57.06000 0.043
57.08000 4.469
57.10000 2.902
57.12000 2.001
57.14000 4.871
57.16000 1.467
57.18000 -2.306
57.20000 -1.266
57.22000 1.921
57.24000 2.090
57.26000 -0.215
57.28000 3.000
57.30000 2.738
57.32000 5.480
57.34000 6.830
57.36000 1.973
57.38000 -1.658
57.40000 -1.798
57.42000 -0.780
57.44000 -0.012
57.46000 -0.195
57.48000 -0.862
57.50000 -0.958
57.52000 -2.504
57.54000 0.910
57.56000 0.865
57.58000 -0.083
57.60000 1.844
57.62000 1.715
57.64000 2.315
57.66000 0.433
57.68000 4.557
57.70000 5.072
57.72000 3.436
57.74000 4.667
57.76000 3.089
57.78000 1.059
57.80000 2.883
57.82000 3.191
57.84000 -0.208
57.86000 2.058
57.88000 4.467
57.90000 7.868
57.92000 5.794
57.94000 1.559
57.96000 -0.669
57.98000 -1.413
58.00000 2.015
58.02000 3.806
58.04000 4.230
58.06000 2.682
58.08000 4.001
58.10000 5.741
58.12000 2.691
58.14000 4.644
58.16000 5.543
58.18000 0.602
58.20000 1.013
58.22000 3.334
58.24000 5.407
58.26000 2.635
58.28000 0.147
58.30000 -2.469
58.32000 -1.443
58.34000 -2.466
58.36000 -1.708
58.38000 3.564
58.40000 1.558
58.42000 1.767
58.44000 3.142
58.46000 2.491
58.48000 1.799
58.50000 4.876
58.52000 0.906
58.54000 2.403
58.56000 2.280
58.58000 0.980
58.60000 -1.056
58.62000 -0.475
58.64000 3.050
58.66000 1.895
58.68000 -1.831
58.70000 -0.138
58.72000 -0.799
58.74000 -2.468
58.76000 -2.346
58.78000 1.645
58.80000 -0.172
58.82000 0.877
58.84000 1.766
58.86000 4.555
58.88000 4.197
58.90000 3.098
58.92000 2.268
58.94000 4.704
58.96000 3.385
58.98000 -1.242
59.00000 1.852
59.02000 3.881
59.04000 -0.212
59.06000 -1.223
59.08000 -2.230
59.10000 -1.022
59.12000 0.125
59.14000 -0.396
59.16000 0.388
59.18000 1.122
59.20000 0.402
59.22000 0.706
59.24000 0.442
59.26000 2.645
59.28000 0.816
59.30000 2.939
59.32000 0.114
59.34000 1.624
59.36000 3.996
59.38000 4.168
59.40000 3.284
59.42000 -0.497
59.44000 3.490
59.46000 4.740
59.48000 6.402
59.50000 7.620
59.52000 4.935
59.54000 4.442
59.56000 -0.998
59.58000 1.820
59.60000 0.688
59.62000 2.176
59.64000 1.963
59.66000 0.042
59.68000 -2.428
59.70000 -2.180
59.72000 -0.012
59.74000 2.674
59.76000 1.654
59.78000 2.860
59.80000 2.395
59.82000 2.007
59.84000 -0.262
59.86000 0.446
59.88000 1.719
59.90000 -0.546
59.92000 0.501
59.94000 1.557
59.96000 2.578
59.98000 3.044
60.00000 3.620
60.02000 0.298
60.04000 1.089
60.06000 4.279
60.08000 1.144
60.10000 1.304
60.12000 1.096
60.14000 -1.149
60.16000 -1.326
60.18000 2.487
60.20000 1.243
60.22000 7.053
60.24000 9.142
60.26000 3.811
60.28000 4.035
60.30000 4.483
60.32000 -0.274
60.34000 0.955
60.36000 1.936
60.38000 1.390
60.40000 -1.067
60.42000 5.571
60.44000 7.052
60.46000 5.562
60.48000 6.467
60.50000 8.764
60.52000 10.641
60.54000 4.826
60.56000 2.561
60.58000 0.217
60.60000 1.839
60.62000 5.139
60.64000 6.311
60.66000 3.043
60.68000 4.285
60.70000 6.322
60.72000 8.378
60.74000 1.722
60.76000 -2.357
60.78000 0.397
60.80000 1.186
60.82000 2.839
60.84000 7.577
60.86000 7.611
60.88000 5.388
60.90000 2.580
60.92000 0.199
60.94000 2.036
60.96000 5.395
60.98000 4.393
61.00000 4.209
61.02000 5.006
61.04000 -0.793
61.06000 -0.061
61.08000 5.369
61.10000 2.423
61.12000 -1.228
61.14000 0.465
61.16000 5.309
61.18000 6.092
61.20000 3.459
61.22000 1.265
61.24000 -0.055
61.26000 2.917
61.28000 5.493
61.30000 3.284
61.32000 0.220
61.34000 -1.189
61.36000 2.763
61.38000 0.603
61.40000 -2.359
61.42000 -0.205
61.44000 -0.042
61.46000 4.279
61.48000 1.024
61.50000 0.091
61.52000 0.314
61.54000 2.348
61.56000 1.558
61.58000 -0.058
61.60000 3.289
61.62000 2.488
61.64000 1.496
61.66000 3.838
61.68000 4.822
61.70000 5.642
61.72000 4.630
61.74000 5.555
61.76000 4.072
61.78000 2.285
61.80000 1.184
61.82000 1.173
61.84000 0.808
61.86000 3.719
61.88000 2.230
61.90000 1.320
61.92000 5.929
61.94000 2.204
61.96000 -0.278
61.98000 1.035
62.00000 3.275
62.02000 1.913
62.04000 2.403
62.06000 3.549
62.08000 2.773
62.10000 1.927
62.12000 2.106
62.14000 3.107
62.16000 -0.466
62.18000 2.911
62.20000 1.843
62.22000 0.096
62.24000 0.657
62.26000 1.353
62.28000 1.734
62.30000 2.635
62.32000 1.561
62.34000 3.613
62.36000 -0.409
62.38000 -1.783
62.40000 2.653
62.42000 2.660
62.44000 2.318
62.46000 6.037
62.48000 5.704
62.50000 1.859
62.52000 -1.807
62.54000 1.859
62.56000 4.350
62.58000 1.120
62.60000 2.981
62.62000 1.778
62.64000 -0.551
62.66000 -2.367
62.68000 -2.362
62.70000 -2.363
62.72000 0.524
62.74000 0.371
62.76000 2.193
62.78000 1.248
62.80000 2.778
62.82000 3.610
62.84000 3.682
62.86000 3.769
62.88000 2.168
62.90000 -1.600
62.92000 0.280
62.94000 3.159
62.96000 4.003
62.98000 2.702
63.00000 0.636
63.02000 0.187
63.04000 -0.492
63.06000 0.844
63.08000 3.588
63.10000 4.130
63.12000 1.132
63.14000 -2.287
63.16000 -1.113
63.18000 4.293
63.20000 3.476
63.22000 0.100
63.24000 1.069
63.26000 2.136
63.28000 2.656
63.30000 2.859
63.32000 1.059
63.34000 -2.367
63.36000 1.312
63.38000 1.511
63.40000 -2.367
63.42000 -0.993
63.44000 0.083
63.46000 -1.721
63.48000 0.162
63.50000 -0.705
63.52000 -0.906
63.54000 -0.216
63.56000 -1.403
63.58000 -1.542
63.60000 0.762
63.62000 4.847
63.64000 4.172
63.66000 2.128
63.68000 0.026
63.70000 -0.212
63.72000 0.339
63.74000 1.440
63.76000 3.343
63.78000 0.206
63.80000 0.376
63.82000 -0.411
63.84000 1.168
63.86000 0.391
63.88000 0.244
63.90000 4.448
63.92000 1.983
63.94000 3.180
63.96000 3.053
63.98000 3.167
64.00000 0.761
64.02000 2.636
64.04000 1.322
64.06000 -0.039
64.08000 -1.274
64.10000 0.194
64.12000 1.549
64.14000 2.207
64.16000 2.736
64.18000 4.113
64.20000 5.732
64.22000 5.369
64.24000 1.909
64.26000 0.657
64.28000 1.258
64.30000 0.883
64.32000 -1.699
64.34000 0.601
64.36000 3.634
64.38000 2.850
64.40000 2.652
64.42000 0.469
64.44000 0.894
64.46000 4.206
64.48000 4.776
64.50000 0.745
64.52000 -0.139
64.54000 1.142
64.56000 2.248
64.58000 3.763
64.60000 3.016
64.62000 2.714
64.64000 2.456
64.66000 2.486
64.68000 1.005
64.70000 -2.353
64.72000 -1.345
64.74000 1.797
64.76000 6.515
64.78000 2.908
64.80000 1.562
64.82000 1.557
64.84000 -0.693
64.86000 0.683
64.88000 0.835
64.90000 6.679
64.92000 6.248
64.94000 4.612
64.96000 -0.586
64.98000 -0.796
65.00000 -1.611
65.02000 -1.240
65.04000 0.590
65.06000 4.405
65.08000 1.554
65.10000 0.244
65.12000 3.781
65.14000 5.974
65.16000 4.533
65.18000 2.231
65.20000 2.054
65.22000 3.089
65.24000 3.127
65.26000 2.085
65.28000 1.750
65.30000 7.248
65.32000 5.701
65.34000 -0.634
65.36000 -0.617
65.38000 -0.429
65.40000 0.447
65.42000 1.965
65.44000 0.405
65.46000 2.342
65.48000 -0.039
65.50000 0.073
65.52000 1.736
65.54000 2.262
65.56000 2.177
65.58000 3.571
65.60000 2.603
65.62000 0.507
65.64000 5.431
65.66000 0.983
65.68000 -2.410
65.70000 -1.319
65.72000 -0.480
65.74000 0.576
65.76000 1.226
65.78000 3.113
65.80000 1.453
65.82000 -0.500
65.84000 -2.421
65.86000 -1.583
65.88000 0.623
65.90000 -0.765
65.92000 -0.151
65.94000 -0.278
65.96000 -1.159
65.98000 -0.640
66.00000 -0.865
66.02000 4.477
66.04000 4.025
66.06000 -1.372
66.08000 -1.204
66.10000 -1.486
66.12000 -0.850
66.14000 4.405
66.16000 3.447
66.18000 2.489
66.20000 0.312
66.22000 -2.285
66.24000 2.817
66.26000 2.081
66.28000 -1.355
66.30000 -0.203
66.32000 4.876
66.34000 5.393
66.36000 4.328
66.38000 0.045
66.40000 -2.457
66.42000 -0.722
66.44000 5.405
66.46000 4.426
66.48000 2.237
66.50000 -0.003
66.52000 -0.341
66.54000 2.351
66.56000 0.670
66.58000 -0.693
66.60000 -0.275
66.62000 3.475
66.64000 1.879
66.66000 2.282
66.68000 3.300
66.70000 1.139
66.72000 3.352
66.74000 2.209
66.76000 0.303
66.78000 3.213
66.80000 1.381
66.82000 3.831
66.84000 3.390
66.86000 3.296
66.88000 3.508
66.90000 3.011
66.92000 3.522
66.94000 4.160
66.96000 3.684
66.98000 5.328
67.00000 4.233
67.02000 5.008
67.04000 4.241
67.06000 -0.106
67.08000 3.705
67.10000 -0.831
67.12000 0.336
67.14000 4.723
67.16000 5.568
67.18000 3.773
67.20000 3.786
67.22000 5.206
67.24000 5.419
67.26000 4.176
67.28000 2.111
67.30000 4.393
67.32000 4.963
67.34000 3.393
67.36000 3.040
67.38000 3.985
67.40000 9.411
67.42000 8.581
67.44000 8.543
67.46000 9.483
67.48000 10.730
67.50000 10.262
67.52000 9.237
67.54000 10.098
67.56000 9.612
67.58000 9.296
67.60000 11.882
67.62000 8.443
67.64000 14.504
67.66000 13.233
67.68000 13.137
67.70000 15.966
67.72000 19.121
67.74000 16.854
67.76000 16.584
67.78000 14.982
67.80000 13.141
67.82000 18.118
67.84000 14.499
67.86000 14.351
67.88000 15.138
67.90000 19.237
67.92000 20.337
67.94000 19.879
67.96000 17.263
67.98000 20.568
68.00000 19.966
68.02000 19.831
68.04000 21.067
68.06000 20.251
68.08000 22.360
68.10000 20.131
68.12000 20.399
68.14000 26.214
68.16000 29.014
68.18000 28.440
68.20000 24.307
68.22000 25.800
68.24000 25.367
68.26000 23.903
68.28000 25.786
68.30000 32.792
68.32000 29.945
68.34000 26.608
68.36000 29.014
68.38000 27.868
68.40000 26.467
68.42000 29.103
68.44000 29.792
68.46000 30.189
68.48000 30.217
68.50000 31.997
68.52000 31.728
68.54000 31.949
68.56000 29.923
68.58000 31.466
68.60000 29.830
68.62000 28.104
68.64000 25.953
68.66000 27.650
68.68000 25.438
68.70000 21.294
68.72000 20.302
68.74000 24.556
68.76000 22.951
68.78000 22.419
68.80000 22.771
68.82000 20.779
68.84000 21.318
68.86000 18.702
68.88000 18.837
68.90000 21.923
68.92000 20.506
68.94000 18.346
68.96000 16.766
68.98000 19.316
69.00000 14.188
69.02000 10.060
69.04000 11.037
69.06000 12.822
69.08000 11.439
69.10000 10.117
69.12000 8.010
69.14000 5.445
69.16000 5.408
69.18000 4.460
69.20000 3.723
69.22000 6.988
69.24000 6.245
69.26000 4.516
69.28000 4.449
69.30000 5.396
69.32000 6.306
69.34000 5.437
69.36000 5.625
69.38000 0.286
69.40000 1.026
69.42000 2.244
69.44000 4.538
69.46000 6.344
69.48000 3.224
69.50000 5.000
69.52000 5.004
69.54000 1.533
69.56000 0.015
69.58000 1.428
69.60000 1.844
69.62000 0.554
69.64000 -1.409
69.66000 1.274
69.68000 -2.430
69.70000 -2.292
69.72000 1.012
69.74000 2.003
69.76000 1.675
69.78000 -0.823
69.80000 -0.043
69.82000 3.092
69.84000 1.618
69.86000 1.803
69.88000 1.227
69.90000 0.392
69.92000 2.276
69.94000 0.478
69.96000 -1.622
69.98000 -0.898
70.00000 -1.962
70.02000 -0.697
70.04000 -2.147
70.06000 2.945
70.08000 1.553
70.10000 1.085
70.12000 2.152
70.14000 0.792
70.16000 1.147
70.18000 -2.358
70.20000 -1.423
70.22000 2.957
70.24000 2.440
70.26000 2.047
70.28000 2.578
70.30000 -0.471
70.32000 -0.260
70.34000 1.581
70.36000 0.381
70.38000 1.671
70.40000 2.669
70.42000 0.651
70.44000 4.999
70.46000 0.132
70.48000 0.724
70.50000 1.620
70.52000 0.935
70.54000 3.058
70.56000 4.308
70.58000 3.101
70.60000 2.363
70.62000 2.500
70.64000 2.496
70.66000 2.749
70.68000 -1.135
70.70000 -2.035
70.72000 3.421
70.74000 1.738
70.76000 1.564
70.78000 2.701
70.80000 2.097
70.82000 0.555
70.84000 0.271
70.86000 1.240
70.88000 2.424
70.90000 0.222
70.92000 -2.279
70.94000 -0.064
70.96000 0.291
70.98000 3.653
71.00000 -0.114
71.02000 0.048
71.04000 -2.276
71.06000 2.692
71.08000 3.097
71.10000 7.173
71.12000 5.165
71.14000 4.259
71.16000 4.977
71.18000 1.978
71.20000 3.250
71.22000 2.693
71.24000 -1.512
71.26000 2.040
71.28000 2.058
71.30000 0.389
71.32000 1.716
71.34000 5.383
71.36000 4.986
71.38000 5.405
71.40000 -0.331
71.42000 3.075
71.44000 3.823
71.46000 -0.370
71.48000 -0.149
71.50000 -1.552
71.52000 -0.759
71.54000 1.233
71.56000 1.272
71.58000 1.354
71.60000 1.150
71.62000 4.046
71.64000 2.341
71.66000 0.833
71.68000 -0.999
71.70000 1.406
71.72000 1.532
71.74000 1.703
71.76000 2.393
71.78000 3.522
71.80000 0.260
71.82000 -0.063
71.84000 2.820
71.86000 5.850
71.88000 3.199
71.90000 2.288
71.92000 1.243
71.94000 2.102
71.96000 5.603
71.98000 4.962
72.00000 1.716
72.02000 2.168
72.04000 3.530
72.06000 1.034
72.08000 -0.777
72.10000 3.017
72.12000 4.170
72.14000 1.711
72.16000 2.329
72.18000 3.662
72.20000 3.842
72.22000 2.238
72.24000 0.790
72.26000 1.711
72.28000 1.975
72.30000 0.438
72.32000 3.013
72.34000 2.950
72.36000 3.017
72.38000 0.679
72.40000 5.362
72.42000 5.649
72.44000 5.387
72.46000 1.694
72.48000 3.142
72.50000 3.879
72.52000 2.392
72.54000 2.482
72.56000 -2.205
72.58000 0.312
72.60000 0.464
72.62000 3.967
72.64000 0.116
72.66000 0.959
72.68000 4.438
72.70000 3.428
72.72000 1.883
72.74000 3.241
72.76000 5.910
72.78000 3.977
72.80000 1.073
72.82000 0.358
72.84000 -2.205
72.86000 -0.933
72.88000 1.004
72.90000 4.610
72.92000 3.831
72.94000 0.984
72.96000 1.549
72.98000 2.198
73.00000 3.930
73.02000 4.621
73.04000 1.876
73.06000 2.462
73.08000 4.218
73.10000 2.146
73.12000 3.746
73.14000 2.210
73.16000 0.187
73.18000 0.686
73.20000 -0.145
73.22000 5.310
73.24000 6.947
73.26000 0.634
73.28000 2.270
73.30000 1.983
73.32000 0.565
73.34000 0.540
73.36000 5.967
73.38000 5.641
73.40000 6.043
73.42000 6.484
73.44000 6.033
73.46000 3.934
73.48000 0.905
73.50000 -1.306
73.52000 3.763
73.54000 6.379
73.56000 5.144
73.58000 6.249
73.60000 3.275
73.62000 5.954
73.64000 3.019
73.66000 1.621
73.68000 1.231
73.70000 3.571
73.72000 6.376
73.74000 5.878
73.76000 6.952
73.78000 4.337
73.80000 8.937
73.82000 6.392
73.84000 2.857
73.86000 -0.531
73.88000 -2.144
73.90000 2.600
73.92000 2.510
73.94000 4.503
73.96000 2.914
73.98000 2.551
74.00000 1.583
74.02000 4.024
74.04000 1.643
74.06000 3.434
74.08000 4.222
74.10000 3.340
74.12000 2.903
74.14000 2.079
74.16000 1.122
74.18000 1.506
74.20000 1.994
74.22000 2.686
74.24000 7.081
74.26000 10.827
74.28000 8.732
74.30000 4.342
74.32000 4.629
74.34000 1.672
74.36000 5.749
74.38000 1.179
74.40000 3.617
74.42000 2.883
74.44000 -2.112
74.46000 -0.005
74.48000 8.089
74.50000 9.431
74.52000 5.137
74.54000 3.993
74.56000 6.824
74.58000 7.617
74.60000 7.969
74.62000 8.118
74.64000 5.268
74.66000 5.198
74.68000 4.970
74.70000 5.829
74.72000 6.402
74.74000 4.015
74.76000 4.171
74.78000 5.812
74.80000 1.845
74.82000 1.280
74.84000 4.427
74.86000 6.227
74.88000 6.184
74.90000 6.223
74.92000 8.143
74.94000 6.548
74.96000 2.802
74.98000 3.265
75.00000 7.304
75.02000 3.558
75.04000 2.108
75.06000 2.053
75.08000 3.561
75.10000 7.026
75.12000 5.572
75.14000 3.066
75.16000 -0.175
75.18000 -0.096
75.20000 3.938
75.22000 5.202
75.24000 5.253
75.26000 4.994
75.28000 3.308
75.30000 1.715
75.32000 0.504
75.34000 1.128
75.36000 4.568
75.38000 9.159
75.40000 1.280
75.42000 1.109
75.44000 2.991
75.46000 6.554
75.48000 5.356
75.50000 5.226
75.52000 1.943
75.54000 1.690
75.56000 5.968
75.58000 5.960
75.60000 4.996
75.62000 3.667
75.64000 4.640
75.66000 6.119
75.68000 3.442
75.70000 3.226
75.72000 6.170
75.74000 4.806
75.76000 3.715
75.78000 4.821
75.80000 1.029
75.82000 -2.183
75.84000 -1.422
75.86000 3.563
75.88000 2.973
75.90000 3.267
75.92000 4.242
75.94000 -0.179
75.96000 4.573
75.98000 2.494
76.00000 2.055
76.02000 -1.413
76.04000 -0.479
76.06000 0.895
76.08000 0.298
76.10000 1.371
76.12000 0.021
76.14000 3.619
76.16000 4.248
76.18000 3.693
76.20000 3.810
76.22000 0.772
76.24000 2.385
76.26000 1.041
76.28000 3.775
76.30000 2.953
76.32000 1.558
76.34000 2.512
76.36000 3.494
76.38000 4.868
76.40000 2.144
76.42000 1.473
76.44000 1.187
76.46000 2.327
76.48000 1.348
76.50000 1.841
76.52000 4.011
76.54000 0.934
76.56000 0.605
76.58000 0.459
76.60000 -0.164
76.62000 2.970
76.64000 1.106
76.66000 0.132
76.68000 3.696
76.70000 2.320
76.72000 -1.514
76.74000 -0.922
76.76000 -0.412
76.78000 0.403
76.80000 1.054
76.82000 1.783
76.84000 2.730
76.86000 1.214
76.88000 2.513
76.90000 2.783
76.92000 3.625
76.94000 0.891
76.96000 3.318
76.98000 1.412
77.00000 -0.708
77.02000 2.296
77.04000 -1.357
77.06000 -0.854
77.08000 0.123
77.10000 -2.251
77.12000 -2.035
77.14000 2.349
77.16000 -0.769
77.18000 0.982
77.20000 -0.438
77.22000 0.587
77.24000 0.585
77.26000 3.799
77.28000 1.655
77.30000 3.148
77.32000 4.634
77.34000 4.674
77.36000 -0.877
77.38000 0.343
77.40000 -2.252
77.42000 1.867
77.44000 5.818
77.46000 6.789
77.48000 3.047
77.50000 0.112
77.52000 -2.248
77.54000 1.194
77.56000 3.974
77.58000 2.084
77.60000 1.042
77.62000 1.881
77.64000 -0.168
77.66000 -0.130
77.68000 1.320
77.70000 0.219
77.72000 5.419
77.74000 4.117
77.76000 2.419
77.78000 0.725
77.80000 0.490
77.82000 0.130
77.84000 -0.686
77.86000 0.469
77.88000 4.934
77.90000 6.353
77.92000 5.683
77.94000 2.534
77.96000 -0.530
77.98000 3.143
78.00000 4.512
78.02000 3.729
78.04000 5.741
78.06000 2.051
78.08000 2.390
78.10000 1.984
78.12000 3.134
78.14000 2.285
78.16000 -2.232
78.18000 2.534
78.20000 3.141
78.22000 0.542
78.24000 0.237
78.26000 -0.130
78.28000 -1.623
78.30000 -0.469
78.32000 1.689
78.34000 1.509
78.36000 2.208
78.38000 0.509
78.40000 1.276
78.42000 -0.064
78.44000 0.968
78.46000 -0.442
78.48000 2.106
78.50000 3.993
78.52000 5.323
78.54000 6.438
78.56000 6.896
78.58000 3.589
78.60000 1.602
78.62000 -0.298
78.64000 -0.198
78.66000 2.696
78.68000 2.306
78.70000 1.928
78.72000 2.153
78.74000 1.152
78.76000 3.521
78.78000 2.487
78.80000 0.131
78.82000 -0.408
78.84000 3.034
78.86000 3.589
78.88000 2.967
78.90000 4.990
78.92000 1.844
78.94000 -1.327
78.96000 -2.272
78.98000 -1.081
79.00000 -2.116
79.02000 7.691
79.04000 6.870
79.06000 3.186
79.08000 3.905
79.10000 -0.052
79.12000 1.870
79.14000 2.237
79.16000 2.199
79.18000 4.821
79.20000 5.060
79.22000 1.360
79.24000 3.914
79.26000 1.932
79.28000 0.282
79.30000 -0.812
79.32000 -0.929
79.34000 2.826
79.36000 -0.336
79.38000 2.702
79.40000 -1.632
79.42000 -2.297
79.44000 -2.300
79.46000 4.389
79.48000 -0.245
79.50000 -2.298
79.52000 0.039
79.54000 2.742
79.56000 1.964
79.58000 0.467
79.60000 3.569
79.62000 2.468
79.64000 3.805
79.66000 2.767
79.68000 3.232
79.70000 3.997
79.72000 3.924
79.74000 7.956
79.76000 3.440
79.78000 4.046
79.80000 1.612
79.82000 -0.501
79.84000 1.859
79.86000 3.657
79.88000 4.771
79.90000 3.933
79.92000 7.212
79.94000 -1.438
79.96000 -2.376
79.98000 -0.703
80.00000 -2.051
80.02000 -1.876
80.04000 -2.356
80.06000 -0.322
80.08000 4.943
80.10000 3.406
80.12000 -1.377
80.14000 -0.161
80.16000 1.712
80.18000 1.196
80.20000 -0.485
80.22000 -1.098
80.24000 1.856
80.26000 5.310
80.28000 3.320
80.30000 0.631
80.32000 2.451
80.34000 5.785
80.36000 8.529
80.38000 5.805
80.40000 0.113
80.42000 -0.982
80.44000 -2.427
80.46000 -0.692
80.48000 4.181
80.50000 1.687
80.52000 5.069
80.54000 1.468
80.56000 -1.732
80.58000 0.077
80.60000 1.021
80.62000 -1.059
80.64000 1.167
80.66000 1.265
80.68000 4.490
80.70000 2.178
80.72000 1.845
80.74000 -1.668
80.76000 -0.936
80.78000 2.503
80.80000 2.520
80.82000 3.464
80.84000 3.480
80.86000 4.116
80.88000 2.329
80.90000 1.576
80.92000 2.350
80.94000 3.505
80.96000 3.693
80.98000 0.641
81.00000 0.041
81.02000 4.330
81.04000 2.122
81.06000 6.778
81.08000 6.598
81.10000 9.764
81.12000 8.276
81.14000 3.290
81.16000 3.126
81.18000 9.914
81.20000 6.623
81.22000 3.620
81.24000 1.491
81.26000 3.772
81.28000 1.990
81.30000 1.399
81.32000 4.243
81.34000 5.788
81.36000 8.257
81.38000 5.329
81.40000 3.569
81.42000 9.018
81.44000 9.090
81.46000 4.359
81.48000 10.792
81.50000 9.105
81.52000 7.761
81.54000 7.794
81.56000 10.325
81.58000 12.708
81.60000 15.308
81.62000 14.784
81.64000 15.168
81.66000 15.364
81.68000 15.921
81.70000 14.331
81.72000 13.062
81.74000 14.123
81.76000 20.710
81.78000 21.626
81.80000 21.008
81.82000 21.051
81.84000 15.640
81.86000 15.096
81.88000 19.118
81.90000 23.871
81.92000 21.022
81.94000 20.999
81.96000 23.226
81.98000 27.570
82.00000 23.664
82.02000 26.428
82.04000 19.874
82.06000 20.224
82.08000 24.047
82.10000 30.647
82.12000 26.813
82.14000 26.332
82.16000 25.142
82.18000 30.710
82.20000 30.169
82.22000 29.059
82.24000 38.045
82.26000 35.747
82.28000 33.657
82.30000 35.309
82.32000 35.831
82.34000 32.095
82.36000 36.160
82.38000 31.855
82.40000 35.557
82.42000 37.728
82.44000 36.661
82.46000 43.876
82.48000 38.745
82.50000 33.509
82.52000 36.938
82.54000 37.861
82.56000 37.430
82.58000 34.809
82.60000 35.613
82.62000 35.370
82.64000 38.978
82.66000 38.039
82.68000 34.689
82.70000 34.065
82.72000 39.514
82.74000 33.880
82.76000 34.660
82.78000 33.572
82.80000 31.362
82.82000 30.146
82.84000 27.465
82.86000 28.450
82.88000 27.493
82.90000 27.544
82.92000 27.267
82.94000 29.123
82.96000 23.710
82.98000 28.960
83.00000 25.798
83.02000 23.176
83.04000 24.850
83.06000 23.386
83.08000 23.659
83.10000 23.895
83.12000 17.834
83.14000 18.440
83.16000 18.694
83.18000 16.583
83.20000 19.204
83.22000 16.137
83.24000 13.479
83.26000 15.647
83.28000 15.774
83.30000 13.940
83.32000 12.970
83.34000 12.283
83.36000 15.139
83.38000 14.414
83.40000 10.361
83.42000 11.703
83.44000 10.153
83.46000 9.153
83.48000 11.578
83.50000 12.416
83.52000 8.987
83.54000 8.765
83.56000 8.382
83.58000 8.597
83.60000 10.743
83.62000 9.939
83.64000 6.326
83.66000 5.077
83.68000 4.269
83.70000 2.326
83.72000 4.001
83.74000 5.995
83.76000 4.496
83.78000 0.485
83.80000 3.562
83.82000 2.827
83.84000 5.163
83.86000 5.264
83.88000 4.639
83.90000 3.346
83.92000 3.324
83.94000 2.142
83.96000 4.119
83.98000 2.153
84.00000 0.955
84.02000 1.249
84.04000 3.090
84.06000 3.448
84.08000 4.975
84.10000 -2.353
84.12000 -1.099
84.14000 1.472
84.16000 0.387
84.18000 -0.188
84.20000 0.300
84.22000 3.984
84.24000 3.945
84.26000 -1.965
84.28000 -2.379
84.30000 4.415
84.32000 5.199
84.34000 5.102
84.36000 4.319
84.38000 3.439
84.40000 2.600
84.42000 1.002
84.44000 3.413
84.46000 2.319
84.48000 -1.773
84.50000 -1.618
84.52000 6.233
84.54000 3.822
84.56000 1.650
84.58000 -1.368
84.60000 0.342
84.62000 1.874
84.64000 0.209
84.66000 0.920
84.68000 -1.516
84.70000 2.115
84.72000 3.792
84.74000 2.723
84.76000 4.272
84.78000 4.981
84.80000 6.024
84.82000 5.065
84.84000 1.265
84.86000 -1.459
84.88000 3.274
84.90000 5.110
84.92000 2.307
84.94000 3.279
84.96000 -0.586
84.98000 -2.306
85.00000 -0.656
85.02000 1.016
85.04000 4.514
85.06000 7.059
85.08000 6.603
85.10000 2.132
85.12000 2.278
85.14000 3.817
85.16000 0.909
85.18000 0.165
85.20000 4.447
85.22000 5.771
85.24000 5.233
85.26000 4.367
85.28000 0.345
85.30000 2.193
85.32000 3.451
85.34000 5.161
85.36000 -0.104
85.38000 -0.029
85.40000 4.786
85.42000 7.774
85.44000 6.723
85.46000 7.147
85.48000 -1.143
85.50000 -2.320
85.52000 0.863
85.54000 5.501
85.56000 3.050
85.58000 4.808
85.60000 5.784
85.62000 7.761
85.64000 6.360
85.66000 4.312
85.68000 1.410
85.70000 1.559
85.72000 6.672
85.74000 7.289
85.76000 7.346
85.78000 8.182
85.80000 11.166
85.82000 7.471
85.84000 5.767
85.86000 6.593
85.88000 8.981
85.90000 8.420
85.92000 7.025
85.94000 8.251
85.96000 13.570
85.98000 11.408
86.00000 10.521
86.02000 10.019
86.04000 9.814
86.06000 10.965
86.08000 8.448
86.10000 9.799
86.12000 13.352
86.14000 14.983
86.16000 16.458
86.18000 15.562
86.20000 8.819
86.22000 12.671
86.24000 15.872
86.26000 14.877
86.28000 17.087
86.30000 15.360
86.32000 18.997
86.34000 16.291
86.36000 19.275
86.38000 15.956
86.40000 15.226
86.42000 20.708
86.44000 20.225
86.46000 20.546
86.48000 15.910
86.50000 17.973
86.52000 16.751
86.54000 18.154
86.56000 20.295
86.58000 24.362
86.60000 26.495
86.62000 25.795
86.64000 21.550
86.66000 18.227
86.68000 22.608
86.70000 20.898
86.72000 22.266
86.74000 25.554
86.76000 24.096
86.78000 20.488
86.80000 18.854
86.82000 24.323
86.84000 20.739
86.86000 17.767
86.88000 18.261
86.90000 21.674
86.92000 20.779
86.94000 17.893
86.96000 20.827
86.98000 19.777
87.00000 22.918
87.02000 20.896
87.04000 14.691
87.06000 16.956
87.08000 20.400
87.10000 20.784
87.12000 18.565
87.14000 17.364
87.16000 19.439
87.18000 16.305
87.20000 15.212
87.22000 16.135
87.24000 16.340
87.26000 14.822
87.28000 17.991
87.30000 14.167
87.32000 11.642
87.34000 10.179
87.36000 11.264
87.38000 17.585
87.40000 15.897
87.42000 13.475
87.44000 14.096
87.46000 10.448
87.48000 7.379
87.50000 3.510
87.52000 6.200
87.54000 9.211
87.56000 9.668
87.58000 8.906
87.60000 7.371
87.62000 8.276
87.64000 5.009
87.66000 6.544
87.68000 4.818
87.70000 4.307
87.72000 5.813
87.74000 5.092
87.76000 4.528
87.78000 4.886
87.80000 6.148
87.82000 2.562
87.84000 2.055
87.86000 3.769
87.88000 3.565
87.90000 5.741
87.92000 4.395
87.94000 0.550
87.96000 3.970
87.98000 5.775
88.00000 4.499
88.02000 8.088
88.04000 5.029
88.06000 5.002
88.08000 2.214
88.10000 1.662
88.12000 1.646
88.14000 0.898
88.16000 0.688
88.18000 -2.235
88.20000 -0.506
88.22000 2.207
88.24000 4.944
88.26000 5.208
88.28000 1.493
88.30000 1.478
88.32000 -0.544
88.34000 2.425
88.36000 2.782
88.38000 5.288
88.40000 4.445
88.42000 3.203
88.44000 1.380
88.46000 0.225
88.48000 -0.173
88.50000 1.478
88.52000 5.958
88.54000 5.711
88.56000 2.814
88.58000 4.869
88.60000 -1.853
88.62000 -0.123
88.64000 -0.242
88.66000 1.764
88.68000 2.398
88.70000 0.666
88.72000 3.705
88.74000 4.111
88.76000 1.408
88.78000 -0.163
88.80000 2.601
88.82000 3.558
88.84000 2.028
88.86000 1.972
88.88000 0.987
88.90000 -0.181
88.92000 0.697
88.94000 -2.041
88.96000 -2.129
88.98000 -1.744
89.00000 -1.369
89.02000 1.939
89.04000 -1.698
89.06000 0.869
89.08000 4.316
89.10000 5.985
89.12000 4.743
89.14000 6.543
89.16000 1.322
89.18000 -1.691
89.20000 0.732
89.22000 2.589
89.24000 1.321
89.26000 -2.095
89.28000 -0.321
89.30000 0.593
89.32000 0.764
89.34000 3.721
89.36000 -1.893
89.38000 0.536
89.40000 -0.138
89.42000 1.980
89.44000 6.136
89.46000 7.717
89.48000 7.286
89.50000 7.910
89.52000 11.016
89.54000 4.876
89.56000 2.578
89.58000 1.746
89.60000 -1.132
89.62000 3.672
89.64000 -0.220
89.66000 2.500
89.68000 1.124
89.70000 0.692
89.72000 2.076
89.74000 -0.807
89.76000 -1.253
89.78000 2.760
89.80000 5.744
89.82000 7.923
89.84000 4.137
89.86000 2.515
89.88000 -0.025
89.90000 1.287
89.92000 5.132
89.94000 6.401
89.96000 5.658
89.98000 4.365
90.00000 2.630
90.02000 2.193
90.04000 4.992
90.06000 6.938
90.08000 4.450
90.10000 3.867
90.12000 3.760
90.14000 4.417
90.16000 -2.037
90.18000 0.784
90.20000 2.962
90.22000 2.254
90.24000 1.804
90.26000 3.731
90.28000 8.808
90.30000 2.885
90.32000 0.740
90.34000 1.025
90.36000 2.669
90.38000 4.999
90.40000 5.503
90.42000 7.342
90.44000 1.875
90.46000 1.420
90.48000 1.054
90.50000 4.083
90.52000 5.130
90.54000 2.609
90.56000 1.709
90.58000 3.696
90.60000 7.801
90.62000 9.210
90.64000 4.231
90.66000 1.071
90.68000 -0.628
90.70000 4.975
90.72000 2.535
90.74000 4.365
90.76000 2.254
90.78000 2.299
90.80000 1.315
90.82000 2.503
90.84000 2.318
90.86000 4.967
90.88000 4.025
90.90000 3.709
90.92000 2.210
90.94000 1.597
90.96000 0.621
90.98000 1.167
91.00000 1.860
91.02000 5.389
91.04000 2.572
91.06000 2.276
91.08000 1.511
91.10000 -0.049
91.12000 -2.085
91.14000 0.763
91.16000 -0.679
91.18000 -0.829
91.20000 2.667
91.22000 3.723
91.24000 4.934
91.26000 7.318
91.28000 4.513
91.30000 0.802
91.32000 -0.010
91.34000 1.649
91.36000 6.390
91.38000 5.894
91.40000 0.207
91.42000 -1.044
91.44000 1.053
91.46000 -2.083
91.48000 -0.775
91.50000 1.146
91.52000 2.970
91.54000 2.435
91.56000 0.524
91.58000 3.850
91.60000 1.727
91.62000 2.370
91.64000 5.115
91.66000 4.302
91.68000 3.240
91.70000 4.494
91.72000 6.300
91.74000 3.385
91.76000 1.060
91.78000 1.604
91.80000 2.554
91.82000 3.446
91.84000 2.926
91.86000 4.002
91.88000 5.768
91.90000 6.500
91.92000 4.047
91.94000 4.604
91.96000 3.611
91.98000 0.611
92.00000 0.296
92.02000 -0.702
92.04000 2.931
92.06000 3.347
92.08000 2.068
92.10000 3.649
92.12000 5.581
92.14000 6.919
92.16000 10.177
92.18000 10.088
92.20000 3.495
92.22000 1.748
92.24000 -2.039
92.26000 4.068
92.28000 2.343
92.30000 2.144
92.32000 5.975
92.34000 5.433
92.36000 3.335
92.38000 3.047
92.40000 7.282
92.42000 7.479
92.44000 2.048
92.46000 4.976
92.48000 6.294
92.50000 3.483
92.52000 1.712
92.54000 2.878
92.56000 1.345
92.58000 3.597
92.60000 -0.307
92.62000 5.434
92.64000 1.069
92.66000 0.421
92.68000 5.108
92.70000 7.545
92.72000 9.405
92.74000 12.453
92.76000 7.775
92.78000 4.418
92.80000 2.493
92.82000 7.103
92.84000 7.548
92.86000 8.689
92.88000 8.475
92.90000 7.730
92.92000 6.282
92.94000 6.755
92.96000 8.172
92.98000 7.583
93.00000 7.691
93.02000 6.136
93.04000 6.229
93.06000 5.655
93.08000 2.586
93.10000 2.350
93.12000 1.180
93.14000 -2.012
93.16000 4.907
93.18000 6.644
93.20000 5.549
93.22000 5.915
93.24000 7.254
93.26000 2.767
93.28000 2.833
93.30000 6.483
93.32000 7.580
93.34000 3.048
93.36000 1.153
93.38000 0.618
93.40000 2.136
93.42000 5.378
93.44000 6.542
93.46000 6.766
93.48000 3.177
93.50000 7.629
93.52000 9.560
93.54000 4.924
93.56000 6.350
93.58000 5.604
93.60000 8.278
93.62000 6.908
93.64000 5.589
93.66000 3.691
93.68000 2.349
93.70000 4.481
93.72000 2.903
93.74000 2.640
93.76000 1.626
93.78000 3.087
93.80000 2.331
93.82000 6.330
93.84000 3.648
93.86000 1.041
93.88000 5.373
93.90000 6.262
93.92000 3.687
93.94000 2.689
93.96000 3.168
93.98000 4.662
94.00000 3.484
94.02000 3.178
94.04000 2.978
94.06000 2.652
94.08000 0.581
94.10000 1.101
94.12000 1.160
94.14000 3.719
94.16000 4.957
94.18000 4.936
94.20000 3.984
94.22000 4.754
94.24000 4.519
94.26000 4.971
94.28000 1.803
94.30000 4.425
94.32000 5.177
94.34000 5.282
94.36000 5.323
94.38000 3.026
94.40000 0.803
94.42000 2.884
94.44000 3.918
94.46000 2.211
94.48000 1.769
94.50000 0.718
94.52000 6.720
94.54000 5.270
94.56000 7.142
94.58000 5.318
94.60000 3.944
94.62000 3.289
94.64000 1.524
94.66000 4.640
94.68000 8.512
94.70000 7.239
94.72000 5.334
94.74000 5.475
94.76000 7.307
94.78000 3.886
94.80000 5.959
94.82000 6.454
94.84000 -2.079
94.86000 -1.392
94.88000 2.072
94.90000 0.602
94.92000 -0.471
94.94000 2.137
94.96000 1.732
94.98000 5.858
95.00000 7.025
95.02000 3.010
95.04000 6.159
95.06000 5.893
95.08000 1.792
95.10000 0.102
95.12000 2.676
95.14000 5.482
95.16000 7.755
95.18000 7.575
95.20000 2.633
95.22000 7.166
95.24000 4.731
95.26000 4.137
95.28000 3.357
95.30000 4.933
95.32000 6.737
95.34000 5.699
95.36000 5.555
95.38000 4.054
95.40000 3.961
95.42000 5.204
95.44000 5.915
95.46000 6.842
95.48000 5.840
95.50000 4.750
95.52000 6.301
95.54000 9.244
95.56000 4.782
95.58000 3.052
95.60000 2.212
95.62000 0.545
95.64000 -0.979
95.66000 -2.105
95.68000 2.133
95.70000 6.154
95.72000 1.939
95.74000 -0.122
95.76000 0.350
95.78000 6.073
95.80000 6.064
95.82000 -1.434
95.84000 0.934
95.86000 -0.505
95.88000 3.179
95.90000 1.900
95.92000 2.112
95.94000 6.855
95.96000 -0.486
95.98000 3.579
96.00000 0.504
96.02000 4.514
96.04000 -0.344
96.06000 0.535
96.08000 -1.476
96.10000 -0.531
96.12000 6.127
96.14000 7.113
96.16000 6.736
96.18000 5.163
96.20000 2.976
96.22000 4.713
96.24000 2.568
96.26000 2.373
96.28000 5.358
96.30000 2.910
96.32000 7.461
96.34000 9.183
96.36000 3.548
96.38000 2.300
96.40000 8.235
96.42000 8.110
96.44000 3.695
96.46000 4.835
96.48000 1.584
96.50000 -1.848
96.52000 3.490
96.54000 5.596
96.56000 5.009
96.58000 4.537
96.60000 1.651
96.62000 0.975
96.64000 7.343
96.66000 -0.112
96.68000 1.760
96.70000 4.020
96.72000 -0.084
96.74000 0.751
96.76000 -0.432
96.78000 4.242
96.80000 7.807
96.82000 11.062
96.84000 5.620
96.86000 0.512
96.88000 4.041
96.90000 1.160
96.92000 0.009
96.94000 0.321
96.96000 0.489
96.98000 -0.453
97.00000 2.089
97.02000 7.932
97.04000 3.242
97.06000 9.164
97.08000 5.314
97.10000 4.505
97.12000 8.688
97.14000 3.314
97.16000 5.689
97.18000 1.688
97.20000 0.370
97.22000 5.955
97.24000 7.782
97.26000 1.462
97.28000 0.943
97.30000 0.090
97.32000 0.013
97.34000 -0.239
97.36000 4.940
97.38000 5.743
97.40000 3.702
97.42000 6.474
97.44000 3.050
97.46000 2.374
97.48000 -0.405
97.50000 -0.247
97.52000 5.312
97.54000 8.917
97.56000 11.850
97.58000 6.824
97.60000 6.829
97.62000 2.860
97.64000 2.642
97.66000 5.935
97.68000 7.116
97.70000 5.957
97.72000 6.868
97.74000 2.782
97.76000 1.801
97.78000 2.665
97.80000 2.328
97.82000 5.335
97.84000 4.487
97.86000 6.573
97.88000 3.061
97.90000 6.427
97.92000 6.723
97.94000 -2.049
97.96000 0.665
97.98000 1.481
98.00000 3.458
98.02000 5.274
98.04000 0.289
98.06000 0.397
98.08000 3.331
98.10000 5.729
98.12000 8.175
98.14000 8.239
98.16000 4.158
98.18000 3.821
98.20000 6.748
98.22000 6.350
98.24000 0.218
98.26000 -2.024
98.28000 1.608
98.30000 0.899
98.32000 3.579
98.34000 9.621
98.36000 4.311
98.38000 1.001
98.40000 6.783
98.42000 6.047
98.44000 9.111
98.46000 5.551
98.48000 7.135
98.50000 10.297
98.52000 10.868
98.54000 0.631
98.56000 -1.562
98.58000 3.449
98.60000 3.799
98.62000 2.415
98.64000 2.994
98.66000 11.451
98.68000 7.916
98.70000 8.174
98.72000 2.038
98.74000 5.681
98.76000 8.025
98.78000 12.692
98.80000 7.153
98.82000 8.425
98.84000 6.191
98.86000 -1.123
98.88000 4.692
98.90000 6.786
98.92000 4.217
98.94000 7.193
98.96000 13.104
98.98000 11.235
99.00000 10.894
99.02000 10.172
99.04000 13.301
99.06000 3.604
99.08000 1.716
99.10000 4.935
99.12000 8.221
99.14000 4.125
99.16000 6.922
99.18000 7.609
99.20000 6.514
99.22000 6.478
99.24000 2.809
99.26000 3.250
99.28000 2.802
99.30000 9.971
99.32000 13.333
99.34000 3.598
99.36000 9.677
99.38000 12.467
99.40000 1.855
99.42000 -2.005
99.44000 -1.611
99.46000 7.481
99.48000 6.978
99.50000 11.303
99.52000 7.786
99.54000 9.403
99.56000 10.370
99.58000 8.755
99.60000 3.779
99.62000 -2.015
99.64000 1.288
99.66000 -0.732
99.68000 -0.418
99.70000 3.549
99.72000 10.417
99.74000 5.680
99.76000 2.144
99.78000 5.951
99.80000 2.873
99.82000 1.338
99.84000 8.369
99.86000 3.485
99.88000 -2.190
99.90000 2.702
99.92000 9.118
99.94000 4.951
99.96000 2.219
99.98000 0.000
