'Id: "0011388" Comment: "Integrate frame 0011388_Au-Ir-Rh_Rh-rich_XRD-Mapping-222-0000.gfrmwith cursor Wedge Cursor #5" Operator: "B?rgel" Anode: "Cu" Wavelength: "1.5406" Scantype: "2Theta (TwoTheta)" TimePerStep: "1" X: "-36" Y: "13.5" Z: "5.95" 
10.00000 0.000
10.02000 6.406
10.04000 -4.597
10.06000 -3.217
10.08000 18.118
10.10000 40.285
10.12000 42.606
10.14000 39.068
10.16000 41.272
10.18000 26.960
10.20000 19.720
10.22000 21.553
10.24000 31.539
10.26000 27.143
10.28000 23.974
10.30000 38.353
10.32000 22.804
10.34000 20.661
10.36000 13.132
10.38000 12.416
10.40000 10.852
10.42000 19.462
10.44000 20.526
10.46000 21.957
10.48000 18.192
10.50000 27.278
10.52000 22.414
10.54000 15.525
10.56000 22.461
10.58000 33.872
10.60000 34.510
10.62000 32.118
10.64000 19.100
10.66000 24.330
10.68000 22.063
10.70000 11.296
10.72000 23.742
10.74000 22.966
10.76000 38.489
10.78000 38.980
10.80000 23.989
10.82000 26.137
10.84000 27.460
10.86000 16.144
10.88000 27.566
10.90000 22.569
10.92000 21.467
10.94000 21.769
10.96000 27.250
10.98000 12.751
11.00000 24.417
11.02000 22.107
11.04000 25.228
11.06000 21.365
11.08000 23.293
11.10000 23.757
11.12000 14.435
11.14000 18.637
11.16000 15.903
11.18000 9.430
11.20000 4.872
11.22000 4.157
11.24000 8.183
11.26000 24.808
11.28000 23.561
11.30000 22.670
11.32000 25.204
11.34000 27.914
11.36000 19.754
11.38000 4.605
11.40000 5.518
11.42000 15.483
11.44000 11.210
11.46000 9.007
11.48000 12.205
11.50000 11.805
11.52000 12.911
11.54000 18.034
11.56000 7.463
11.58000 18.427
11.60000 21.236
11.62000 22.070
11.64000 21.603
11.66000 7.688
11.68000 -4.442
11.70000 4.228
11.72000 14.685
11.74000 22.443
11.76000 26.896
11.78000 22.248
11.80000 20.847
11.82000 16.142
11.84000 4.750
11.86000 2.067
11.88000 6.911
11.90000 4.630
11.92000 16.336
11.94000 20.820
11.96000 20.968
11.98000 18.940
12.00000 22.889
12.02000 28.675
12.04000 31.046
12.06000 27.671
12.08000 16.420
12.10000 18.265
12.12000 15.460
12.14000 20.228
12.16000 19.525
12.18000 18.957
12.20000 14.462
12.22000 2.557
12.24000 8.326
12.26000 21.449
12.28000 21.602
12.30000 10.016
12.32000 16.404
12.34000 12.998
12.36000 11.391
12.38000 11.535
12.40000 7.522
12.42000 11.121
12.44000 7.808
12.46000 4.239
12.48000 14.284
12.50000 5.699
12.52000 1.608
12.54000 6.593
12.56000 24.236
12.58000 22.704
12.60000 15.737
12.62000 18.975
12.64000 13.536
12.66000 16.408
12.68000 7.539
12.70000 7.572
12.72000 10.611
12.74000 0.274
12.76000 12.479
12.78000 23.185
12.80000 17.718
12.82000 16.109
12.84000 11.945
12.86000 16.008
12.88000 17.414
12.90000 11.118
12.92000 17.225
12.94000 15.005
12.96000 11.230
12.98000 9.276
13.00000 4.578
13.02000 6.767
13.04000 8.181
13.06000 0.701
13.08000 1.360
13.10000 -4.482
13.12000 3.809
13.14000 9.039
13.16000 7.946
13.18000 8.065
13.20000 8.302
13.22000 20.751
13.24000 19.362
13.26000 22.744
13.28000 18.916
13.30000 19.350
13.32000 14.708
13.34000 10.243
13.36000 12.478
13.38000 11.024
13.40000 20.365
13.42000 28.678
13.44000 21.369
13.46000 10.489
13.48000 10.839
13.50000 18.208
13.52000 16.408
13.54000 11.060
13.56000 9.709
13.58000 9.127
13.60000 1.890
13.62000 3.635
13.64000 4.995
13.66000 3.734
13.68000 4.781
13.70000 14.785
13.72000 4.890
13.74000 7.452
13.76000 6.613
13.78000 5.325
13.80000 6.394
13.82000 17.331
13.84000 2.641
13.86000 -4.478
13.88000 3.659
13.90000 6.429
13.92000 0.843
13.94000 8.994
13.96000 19.521
13.98000 9.252
14.00000 2.509
14.02000 6.125
14.04000 9.079
14.06000 5.050
14.08000 8.370
14.10000 10.373
14.12000 9.988
14.14000 7.946
14.16000 10.163
14.18000 9.531
14.20000 3.295
14.22000 2.944
14.24000 6.116
14.26000 1.648
14.28000 -0.467
14.30000 4.794
14.32000 13.017
14.34000 24.010
14.36000 18.527
14.38000 8.992
14.40000 5.123
14.42000 7.887
14.44000 10.257
14.46000 8.534
14.48000 12.488
14.50000 11.038
14.52000 10.052
14.54000 6.553
14.56000 5.892
14.58000 1.552
14.60000 7.224
14.62000 5.413
14.64000 8.757
14.66000 -0.448
14.68000 3.656
14.70000 11.159
14.72000 8.102
14.74000 -2.663
14.76000 -4.075
14.78000 -3.629
14.80000 -4.474
14.82000 5.739
14.84000 18.133
14.86000 10.741
14.88000 5.942
14.90000 6.322
14.92000 10.678
14.94000 8.963
14.96000 5.239
14.98000 14.174
15.00000 10.939
15.02000 13.679
15.04000 9.634
15.06000 4.357
15.08000 2.514
15.10000 4.463
15.12000 7.917
15.14000 5.595
15.16000 -1.683
15.18000 0.513
15.20000 0.246
15.22000 2.692
15.24000 0.523
15.26000 6.480
15.28000 12.059
15.30000 10.772
15.32000 7.332
15.34000 3.965
15.36000 11.767
15.38000 8.930
15.40000 -0.580
15.42000 5.344
15.44000 11.621
15.46000 7.242
15.48000 6.645
15.50000 5.190
15.52000 0.038
15.54000 7.191
15.56000 8.447
15.58000 12.578
15.60000 9.410
15.62000 0.885
15.64000 -0.906
15.66000 6.427
15.68000 14.121
15.70000 11.172
15.72000 1.920
15.74000 2.501
15.76000 -0.056
15.78000 7.168
15.80000 3.119
15.82000 5.139
15.84000 2.445
15.86000 -0.492
15.88000 9.602
15.90000 6.448
15.92000 5.768
15.94000 5.593
15.96000 3.459
15.98000 1.143
16.00000 6.650
16.02000 12.441
16.04000 22.948
16.06000 3.004
16.08000 -0.336
16.10000 7.072
16.12000 10.758
16.14000 6.628
16.16000 5.149
16.18000 11.684
16.20000 7.865
16.22000 1.205
16.24000 0.113
16.26000 1.631
16.28000 1.665
16.30000 4.342
16.32000 6.961
16.34000 9.357
16.36000 3.527
16.38000 5.850
16.40000 -0.938
16.42000 -4.399
16.44000 -0.486
16.46000 8.342
16.48000 8.149
16.50000 6.727
16.52000 14.832
16.54000 6.890
16.56000 11.475
16.58000 17.470
16.60000 15.817
16.62000 8.250
16.64000 11.520
16.66000 6.886
16.68000 4.873
16.70000 8.062
16.72000 10.306
16.74000 15.313
16.76000 12.127
16.78000 10.978
16.80000 9.322
16.82000 -4.369
16.84000 6.138
16.86000 20.458
16.88000 21.713
16.90000 14.849
16.92000 7.888
16.94000 7.765
16.96000 4.478
16.98000 17.211
17.00000 14.631
17.02000 17.867
17.04000 10.089
17.06000 7.224
17.08000 3.056
17.10000 3.593
17.12000 5.883
17.14000 6.438
17.16000 8.643
17.18000 8.233
17.20000 8.331
17.22000 15.904
17.24000 16.033
17.26000 15.407
17.28000 4.618
17.30000 10.937
17.32000 9.294
17.34000 14.851
17.36000 16.665
17.38000 12.120
17.40000 9.826
17.42000 -0.320
17.44000 -2.281
17.46000 -1.407
17.48000 5.458
17.50000 1.429
17.52000 5.209
17.54000 12.152
17.56000 9.996
17.58000 6.441
17.60000 5.685
17.62000 9.879
17.64000 11.145
17.66000 11.922
17.68000 12.921
17.70000 -0.266
17.72000 -1.039
17.74000 2.680
17.76000 6.061
17.78000 5.408
17.80000 10.287
17.82000 10.099
17.84000 8.634
17.86000 11.601
17.88000 4.242
17.90000 9.044
17.92000 5.484
17.94000 3.249
17.96000 4.305
17.98000 3.851
18.00000 7.349
18.02000 11.576
18.04000 8.437
18.06000 7.794
18.08000 0.721
18.10000 1.384
18.12000 1.635
18.14000 2.447
18.16000 8.725
18.18000 8.149
18.20000 5.365
18.22000 10.189
18.24000 9.735
18.26000 9.109
18.28000 5.081
18.30000 3.446
18.32000 5.159
18.34000 10.983
18.36000 12.435
18.38000 11.766
18.40000 14.275
18.42000 15.514
18.44000 17.090
18.46000 7.425
18.48000 -4.295
18.50000 7.101
18.52000 12.151
18.54000 7.175
18.56000 5.579
18.58000 9.064
18.60000 5.651
18.62000 8.590
18.64000 11.757
18.66000 12.109
18.68000 14.040
18.70000 7.960
18.72000 4.881
18.74000 3.655
18.76000 8.010
18.78000 11.735
18.80000 9.333
18.82000 6.387
18.84000 8.359
18.86000 6.213
18.88000 4.620
18.90000 5.340
18.92000 9.447
18.94000 13.088
18.96000 6.536
18.98000 8.089
19.00000 7.083
19.02000 3.521
19.04000 9.207
19.06000 0.734
19.08000 5.765
19.10000 5.735
19.12000 10.600
19.14000 4.044
19.16000 7.986
19.18000 13.052
19.20000 8.594
19.22000 11.072
19.24000 10.348
19.26000 6.798
19.28000 1.734
19.30000 -1.073
19.32000 10.684
19.34000 15.641
19.36000 10.806
19.38000 16.830
19.40000 10.456
19.42000 -0.559
19.44000 2.483
19.46000 -0.770
19.48000 -4.211
19.50000 0.974
19.52000 5.350
19.54000 11.267
19.56000 8.884
19.58000 9.790
19.60000 0.699
19.62000 3.826
19.64000 8.382
19.66000 6.067
19.68000 10.654
19.70000 11.601
19.72000 8.683
19.74000 6.115
19.76000 1.613
19.78000 3.274
19.80000 7.242
19.82000 3.402
19.84000 6.341
19.86000 10.629
19.88000 12.972
19.90000 9.484
19.92000 11.064
19.94000 1.803
19.96000 -4.192
19.98000 6.390
20.00000 15.477
20.02000 10.077
20.04000 2.533
20.06000 -1.297
20.08000 7.489
20.10000 14.393
20.12000 10.202
20.14000 12.289
20.16000 11.985
20.18000 12.277
20.20000 12.774
20.22000 6.053
20.24000 -0.378
20.26000 2.200
20.28000 4.525
20.30000 0.905
20.32000 5.559
20.34000 5.341
20.36000 9.822
20.38000 13.860
20.40000 12.394
20.42000 9.198
20.44000 9.875
20.46000 8.672
20.48000 10.002
20.50000 13.135
20.52000 7.400
20.54000 3.043
20.56000 3.475
20.58000 6.233
20.60000 3.641
20.62000 7.742
20.64000 -2.197
20.66000 0.640
20.68000 7.228
20.70000 4.553
20.72000 0.250
20.74000 2.890
20.76000 5.919
20.78000 8.029
20.80000 5.612
20.82000 3.743
20.84000 3.731
20.86000 10.422
20.88000 11.049
20.90000 14.315
20.92000 9.329
20.94000 1.764
20.96000 4.218
20.98000 3.716
21.00000 7.782
21.02000 8.286
21.04000 4.588
21.06000 0.088
21.08000 6.274
21.10000 6.486
21.12000 1.988
21.14000 -2.226
21.16000 -2.899
21.18000 6.190
21.20000 7.755
21.22000 4.859
21.24000 5.287
21.26000 -1.729
21.28000 0.692
21.30000 2.649
21.32000 5.241
21.34000 9.193
21.36000 7.953
21.38000 5.413
21.40000 6.805
21.42000 -4.163
21.44000 -0.913
21.46000 3.019
21.48000 3.412
21.50000 1.958
21.52000 3.980
21.54000 3.467
21.56000 1.318
21.58000 4.678
21.60000 3.161
21.62000 -1.877
21.64000 -0.646
21.66000 3.424
21.68000 8.235
21.70000 2.749
21.72000 4.995
21.74000 8.167
21.76000 2.153
21.78000 -4.145
21.80000 1.744
21.82000 4.744
21.84000 4.559
21.86000 5.725
21.88000 5.555
21.90000 1.331
21.92000 -0.379
21.94000 3.044
21.96000 1.635
21.98000 0.676
22.00000 7.721
22.02000 12.481
22.04000 8.574
22.06000 2.474
22.08000 4.739
22.10000 3.155
22.12000 6.342
22.14000 -0.639
22.16000 3.256
22.18000 3.538
22.20000 1.249
22.22000 -4.119
22.24000 -0.159
22.26000 3.318
22.28000 3.651
22.30000 7.358
22.32000 9.576
22.34000 12.069
22.36000 4.877
22.38000 -1.376
22.40000 3.595
22.42000 6.037
22.44000 -0.701
22.46000 5.569
22.48000 6.545
22.50000 4.184
22.52000 1.839
22.54000 5.191
22.56000 7.866
22.58000 5.355
22.60000 5.298
22.62000 7.900
22.64000 3.093
22.66000 3.242
22.68000 7.751
22.70000 11.560
22.72000 11.849
22.74000 3.918
22.76000 -0.004
22.78000 0.245
22.80000 7.321
22.82000 7.682
22.84000 5.209
22.86000 0.870
22.88000 4.988
22.90000 5.295
22.92000 3.373
22.94000 3.037
22.96000 4.957
22.98000 1.423
23.00000 5.509
23.02000 5.045
23.04000 2.902
23.06000 4.663
23.08000 8.735
23.10000 5.064
23.12000 6.969
23.14000 7.990
23.16000 -4.036
23.18000 -2.738
23.20000 3.890
23.22000 7.674
23.24000 6.689
23.26000 7.668
23.28000 1.302
23.30000 -0.434
23.32000 0.860
23.34000 7.988
23.36000 3.239
23.38000 -2.007
23.40000 4.476
23.42000 4.546
23.44000 7.706
23.46000 -0.047
23.48000 -2.114
23.50000 3.333
23.52000 10.749
23.54000 11.820
23.56000 2.539
23.58000 -0.085
23.60000 3.075
23.62000 2.566
23.64000 -4.031
23.66000 -0.678
23.68000 10.897
23.70000 8.492
23.72000 3.664
23.74000 -0.132
23.76000 6.295
23.78000 4.963
23.80000 4.922
23.82000 -0.135
23.84000 2.278
23.86000 1.513
23.88000 1.797
23.90000 3.729
23.92000 7.204
23.94000 4.400
23.96000 11.953
23.98000 7.936
24.00000 1.190
24.02000 -0.167
24.04000 2.448
24.06000 6.338
24.08000 8.101
24.10000 5.643
24.12000 5.905
24.14000 -0.751
24.16000 0.743
24.18000 1.126
24.20000 0.613
24.22000 7.966
24.24000 6.535
24.26000 -1.937
24.28000 -0.646
24.30000 -1.672
24.32000 -1.277
24.34000 5.743
24.36000 8.852
24.38000 1.556
24.40000 -2.048
24.42000 5.960
24.44000 3.402
24.46000 4.168
24.48000 2.831
24.50000 5.297
24.52000 7.156
24.54000 7.317
24.56000 4.103
24.58000 -0.080
24.60000 3.151
24.62000 6.152
24.64000 1.618
24.66000 0.865
24.68000 2.564
24.70000 4.415
24.72000 7.789
24.74000 9.194
24.76000 2.803
24.78000 -0.777
24.80000 4.319
24.82000 0.613
24.84000 -0.118
24.86000 -2.338
24.88000 0.569
24.90000 3.457
24.92000 3.555
24.94000 3.519
24.96000 8.920
24.98000 8.870
25.00000 4.670
25.02000 7.158
25.04000 5.694
25.06000 1.863
25.08000 2.184
25.10000 5.016
25.12000 6.105
25.14000 0.435
25.16000 6.066
25.18000 5.568
25.20000 2.298
25.22000 -3.945
25.24000 4.097
25.26000 6.075
25.28000 7.698
25.30000 7.431
25.32000 6.012
25.34000 7.842
25.36000 2.631
25.38000 5.333
25.40000 7.426
25.42000 2.084
25.44000 -1.088
25.46000 -1.881
25.48000 2.115
25.50000 -1.831
25.52000 2.193
25.54000 3.756
25.56000 2.486
25.58000 2.110
25.60000 2.067
25.62000 -0.581
25.64000 -0.780
25.66000 0.704
25.68000 4.128
25.70000 6.101
25.72000 5.156
25.74000 1.964
25.76000 6.157
25.78000 3.158
25.80000 4.071
25.82000 5.163
25.84000 7.412
25.86000 6.476
25.88000 8.439
25.90000 7.903
25.92000 2.923
25.94000 -0.371
25.96000 0.237
25.98000 5.668
26.00000 4.166
26.02000 5.389
26.04000 13.384
26.06000 11.656
26.08000 7.161
26.10000 0.531
26.12000 1.169
26.14000 4.314
26.16000 3.030
26.18000 -3.880
26.20000 -2.158
26.22000 4.535
26.24000 2.885
26.26000 0.443
26.28000 1.901
26.30000 -1.203
26.32000 3.356
26.34000 5.179
26.36000 4.265
26.38000 2.947
26.40000 1.898
26.42000 4.766
26.44000 5.218
26.46000 2.506
26.48000 -2.587
26.50000 1.006
26.52000 4.881
26.54000 6.572
26.56000 5.763
26.58000 5.007
26.60000 1.857
26.62000 -0.477
26.64000 2.711
26.66000 7.630
26.68000 8.197
26.70000 5.180
26.72000 7.093
26.74000 8.824
26.76000 7.374
26.78000 1.938
26.80000 -2.785
26.82000 -3.065
26.84000 -3.622
26.86000 1.047
26.88000 -3.841
26.90000 -3.334
26.92000 1.008
26.94000 2.646
26.96000 5.305
26.98000 7.499
27.00000 10.002
27.02000 6.906
27.04000 8.000
27.06000 7.348
27.08000 3.492
27.10000 -0.428
27.12000 1.946
27.14000 0.013
27.16000 2.891
27.18000 8.427
27.20000 7.277
27.22000 1.683
27.24000 7.019
27.26000 -0.335
27.28000 3.477
27.30000 4.189
27.32000 1.806
27.34000 1.754
27.36000 3.342
27.38000 0.864
27.40000 2.225
27.42000 -2.179
27.44000 -3.830
27.46000 -1.933
27.48000 1.391
27.50000 -1.020
27.52000 2.647
27.54000 8.957
27.56000 6.668
27.58000 7.570
27.60000 9.476
27.62000 5.904
27.64000 1.762
27.66000 4.156
27.68000 2.175
27.70000 -3.451
27.72000 3.388
27.74000 5.113
27.76000 0.084
27.78000 1.437
27.80000 5.521
27.82000 9.169
27.84000 2.696
27.86000 2.019
27.88000 2.846
27.90000 3.780
27.92000 2.982
27.94000 4.317
27.96000 6.513
27.98000 4.051
28.00000 4.782
28.02000 2.030
28.04000 1.170
28.06000 0.162
28.08000 0.929
28.10000 5.345
28.12000 1.677
28.14000 -2.838
28.16000 0.544
28.18000 -0.777
28.20000 2.365
28.22000 2.416
28.24000 -1.461
28.26000 3.722
28.28000 1.898
28.30000 6.463
28.32000 3.406
28.34000 7.484
28.36000 7.059
28.38000 3.046
28.40000 3.082
28.42000 0.723
28.44000 -0.652
28.46000 0.347
28.48000 2.081
28.50000 4.992
28.52000 7.247
28.54000 6.816
28.56000 3.446
28.58000 3.546
28.60000 0.367
28.62000 -0.333
28.64000 0.268
28.66000 1.483
28.68000 6.059
28.70000 6.497
28.72000 7.543
28.74000 1.607
28.76000 1.440
28.78000 2.162
28.80000 -0.697
28.82000 0.946
28.84000 7.069
28.86000 8.553
28.88000 1.391
28.90000 0.025
28.92000 1.835
28.94000 3.988
28.96000 2.235
28.98000 1.000
29.00000 5.299
29.02000 9.642
29.04000 7.676
29.06000 0.548
29.08000 -1.931
29.10000 3.077
29.12000 2.218
29.14000 1.598
29.16000 4.979
29.18000 9.320
29.20000 9.259
29.22000 6.160
29.24000 3.736
29.26000 3.057
29.28000 1.745
29.30000 -3.710
29.32000 0.300
29.34000 3.241
29.36000 6.296
29.38000 2.002
29.40000 2.321
29.42000 7.088
29.44000 3.953
29.46000 3.430
29.48000 7.001
29.50000 6.858
29.52000 10.232
29.54000 6.147
29.56000 3.481
29.58000 6.089
29.60000 10.730
29.62000 7.385
29.64000 6.168
29.66000 3.493
29.68000 5.871
29.70000 3.737
29.72000 7.410
29.74000 8.232
29.76000 6.258
29.78000 -2.098
29.80000 -2.701
29.82000 -3.694
29.84000 1.340
29.86000 7.062
29.88000 -0.122
29.90000 -2.806
29.92000 0.314
29.94000 4.110
29.96000 13.063
29.98000 5.641
30.00000 1.385
30.02000 4.733
30.04000 2.631
30.06000 6.978
30.08000 5.767
30.10000 -1.430
30.12000 -1.186
30.14000 1.548
30.16000 2.205
30.18000 5.334
30.20000 8.177
30.22000 7.395
30.24000 4.693
30.26000 2.426
30.28000 1.136
30.30000 1.522
30.32000 6.680
30.34000 5.355
30.36000 3.807
30.38000 6.820
30.40000 6.250
30.42000 3.688
30.44000 1.501
30.46000 0.267
30.48000 -1.210
30.50000 2.082
30.52000 1.767
30.54000 0.103
30.56000 1.906
30.58000 -1.010
30.60000 0.116
30.62000 4.264
30.64000 0.798
30.66000 8.472
30.68000 4.105
30.70000 -0.607
30.72000 0.346
30.74000 -0.375
30.76000 4.904
30.78000 4.473
30.80000 7.182
30.82000 2.481
30.84000 5.341
30.86000 4.133
30.88000 -0.232
30.90000 3.663
30.92000 -0.475
30.94000 0.064
30.96000 -1.400
30.98000 0.768
31.00000 3.959
31.02000 3.477
31.04000 7.168
31.06000 3.618
31.08000 2.687
31.10000 3.252
31.12000 3.730
31.14000 1.005
31.16000 -0.426
31.18000 -1.436
31.20000 1.755
31.22000 2.186
31.24000 1.597
31.26000 -2.020
31.28000 -3.656
31.30000 -0.664
31.32000 -0.551
31.34000 -3.653
31.36000 2.653
31.38000 3.118
31.40000 2.491
31.42000 1.305
31.44000 -3.607
31.46000 2.334
31.48000 2.423
31.50000 -1.879
31.52000 -1.648
31.54000 0.064
31.56000 -0.982
31.58000 -1.324
31.60000 1.801
31.62000 1.463
31.64000 1.501
31.66000 -1.033
31.68000 -0.517
31.70000 -0.380
31.72000 0.456
31.74000 2.144
31.76000 3.068
31.78000 3.763
31.80000 -1.806
31.82000 0.980
31.84000 3.821
31.86000 -0.369
31.88000 3.498
31.90000 1.187
31.92000 -1.360
31.94000 1.312
31.96000 3.620
31.98000 2.292
32.00000 -1.762
32.02000 1.620
32.04000 4.958
32.06000 5.488
32.08000 -1.146
32.10000 0.043
32.12000 4.078
32.14000 2.248
32.16000 3.033
32.18000 6.034
32.20000 1.775
32.22000 4.369
32.24000 1.622
32.26000 2.021
32.28000 6.559
32.30000 0.609
32.32000 2.664
32.34000 4.730
32.36000 4.057
32.38000 3.073
32.40000 4.318
32.42000 3.304
32.44000 4.707
32.46000 5.621
32.48000 6.750
32.50000 2.593
32.52000 6.131
32.54000 4.108
32.56000 2.501
32.58000 6.681
32.60000 4.417
32.62000 6.590
32.64000 5.252
32.66000 7.408
32.68000 9.229
32.70000 8.339
32.72000 1.129
32.74000 1.966
32.76000 0.538
32.78000 3.605
32.80000 3.065
32.82000 0.990
32.84000 3.685
32.86000 4.645
32.88000 6.320
32.90000 3.626
32.92000 3.073
32.94000 2.581
32.96000 2.782
32.98000 1.255
33.00000 3.160
33.02000 -3.550
33.04000 -0.232
33.06000 6.127
33.08000 3.658
33.10000 3.434
33.12000 4.834
33.14000 7.813
33.16000 12.419
33.18000 7.093
33.20000 6.323
33.22000 8.300
33.24000 11.105
33.26000 6.318
33.28000 -0.048
33.30000 -1.309
33.32000 3.114
33.34000 6.126
33.36000 5.138
33.38000 4.169
33.40000 3.195
33.42000 3.793
33.44000 4.412
33.46000 9.898
33.48000 3.274
33.50000 0.444
33.52000 5.823
33.54000 4.922
33.56000 5.351
33.58000 13.205
33.60000 6.458
33.62000 5.371
33.64000 2.943
33.66000 3.352
33.68000 -0.312
33.70000 -1.285
33.72000 0.661
33.74000 4.124
33.76000 0.335
33.78000 -1.787
33.80000 2.571
33.82000 4.617
33.84000 5.946
33.86000 2.688
33.88000 2.335
33.90000 2.674
33.92000 6.516
33.94000 5.612
33.96000 1.837
33.98000 -2.794
34.00000 -0.222
34.02000 4.614
34.04000 3.360
34.06000 -3.270
34.08000 3.355
34.10000 5.102
34.12000 1.030
34.14000 2.078
34.16000 5.433
34.18000 0.567
34.20000 5.239
34.22000 4.987
34.24000 0.680
34.26000 4.139
34.28000 1.326
34.30000 1.352
34.32000 7.363
34.34000 5.580
34.36000 2.816
34.38000 1.053
34.40000 -0.658
34.42000 -2.046
34.44000 3.844
34.46000 7.760
34.48000 2.744
34.50000 4.215
34.52000 3.821
34.54000 2.527
34.56000 5.465
34.58000 5.444
34.60000 6.494
34.62000 9.109
34.64000 1.559
34.66000 1.303
34.68000 8.690
34.70000 5.369
34.72000 4.010
34.74000 2.580
34.76000 -1.216
34.78000 -1.897
34.80000 2.018
34.82000 1.120
34.84000 1.338
34.86000 2.037
34.88000 0.850
34.90000 1.502
34.92000 4.686
34.94000 6.220
34.96000 5.990
34.98000 -0.736
35.00000 3.223
35.02000 4.748
35.04000 0.041
35.06000 0.766
35.08000 4.701
35.10000 0.840
35.12000 0.210
35.14000 -2.064
35.16000 -0.254
35.18000 2.486
35.20000 -0.130
35.22000 6.426
35.24000 -1.353
35.26000 -3.529
35.28000 -1.829
35.30000 1.415
35.32000 6.222
35.34000 2.472
35.36000 2.895
35.38000 4.113
35.40000 4.153
35.42000 2.290
35.44000 1.107
35.46000 0.983
35.48000 1.382
35.50000 3.165
35.52000 4.301
35.54000 4.491
35.56000 3.313
35.58000 5.624
35.60000 5.997
35.62000 4.229
35.64000 6.316
35.66000 0.444
35.68000 0.817
35.70000 2.583
35.72000 3.465
35.74000 4.059
35.76000 0.739
35.78000 -0.485
35.80000 -3.472
35.82000 -1.846
35.84000 -2.181
35.86000 2.523
35.88000 5.064
35.90000 4.450
35.92000 4.616
35.94000 0.935
35.96000 0.918
35.98000 1.613
36.00000 -3.559
36.02000 -1.710
36.04000 1.348
36.06000 -0.583
36.08000 2.120
36.10000 3.682
36.12000 2.014
36.14000 3.537
36.16000 3.502
36.18000 5.911
36.20000 3.388
36.22000 4.528
36.24000 -3.583
36.26000 -0.888
36.28000 0.021
36.30000 2.954
36.32000 0.363
36.34000 7.199
36.36000 10.473
36.38000 6.122
36.40000 -1.991
36.42000 -1.743
36.44000 3.860
36.46000 0.864
36.48000 1.898
36.50000 1.491
36.52000 -2.994
36.54000 0.257
36.56000 5.340
36.58000 4.010
36.60000 0.022
36.62000 -2.692
36.64000 3.033
36.66000 3.367
36.68000 6.368
36.70000 -3.627
36.72000 -1.825
36.74000 -1.250
36.76000 0.219
36.78000 0.578
36.80000 -0.434
36.82000 -0.133
36.84000 5.765
36.86000 7.242
36.88000 3.077
36.90000 5.780
36.92000 6.593
36.94000 1.354
36.96000 2.971
36.98000 3.455
37.00000 -0.204
37.02000 -3.134
37.04000 -2.295
37.06000 0.065
37.08000 0.156
37.10000 -1.679
37.12000 -1.544
37.14000 -0.023
37.16000 6.968
37.18000 3.741
37.20000 -1.318
37.22000 -3.371
37.24000 -1.341
37.26000 -1.543
37.28000 0.346
37.30000 -2.970
37.32000 2.052
37.34000 2.586
37.36000 1.746
37.38000 0.207
37.40000 0.932
37.42000 7.207
37.44000 2.507
37.46000 3.666
37.48000 3.702
37.50000 -1.567
37.52000 -3.696
37.54000 8.633
37.56000 8.498
37.58000 7.018
37.60000 5.436
37.62000 4.374
37.64000 4.282
37.66000 5.567
37.68000 6.744
37.70000 6.600
37.72000 8.762
37.74000 6.550
37.76000 2.695
37.78000 2.088
37.80000 7.400
37.82000 10.034
37.84000 10.581
37.86000 12.356
37.88000 10.499
37.90000 7.764
37.92000 10.640
37.94000 12.145
37.96000 11.381
37.98000 14.842
38.00000 11.038
38.02000 13.013
38.04000 21.331
38.06000 21.304
38.08000 14.986
38.10000 16.637
38.12000 18.844
38.14000 19.589
38.16000 20.891
38.18000 18.551
38.20000 22.708
38.22000 23.227
38.24000 17.820
38.26000 23.804
38.28000 19.402
38.30000 18.320
38.32000 21.795
38.34000 23.968
38.36000 26.269
38.38000 26.095
38.40000 27.346
38.42000 25.217
38.44000 30.159
38.46000 37.746
38.48000 35.295
38.50000 32.153
38.52000 31.874
38.54000 36.552
38.56000 33.978
38.58000 34.048
38.60000 34.124
38.62000 43.251
38.64000 43.081
38.66000 46.155
38.68000 52.938
38.70000 49.503
38.72000 47.814
38.74000 51.606
38.76000 49.594
38.78000 51.641
38.80000 55.017
38.82000 55.138
38.84000 57.340
38.86000 58.606
38.88000 62.118
38.90000 70.296
38.92000 73.855
38.94000 75.585
38.96000 79.129
38.98000 79.997
39.00000 83.921
39.02000 90.061
39.04000 89.015
39.06000 96.185
39.08000 98.218
39.10000 98.499
39.12000 104.690
39.14000 102.845
39.16000 115.818
39.18000 123.436
39.20000 125.181
39.22000 133.347
39.24000 137.378
39.26000 150.673
39.28000 157.324
39.30000 162.413
39.32000 170.665
39.34000 183.982
39.36000 186.328
39.38000 192.732
39.40000 201.101
39.42000 211.212
39.44000 221.048
39.46000 231.024
39.48000 242.938
39.50000 250.420
39.52000 265.349
39.54000 277.479
39.56000 289.803
39.58000 303.156
39.60000 316.850
39.62000 328.451
39.64000 343.395
39.66000 362.025
39.68000 374.501
39.70000 393.666
39.72000 417.136
39.74000 437.838
39.76000 443.373
39.78000 458.921
39.80000 481.505
39.82000 495.278
39.84000 506.649
39.86000 539.085
39.88000 565.663
39.90000 572.774
39.92000 591.772
39.94000 610.566
39.96000 618.058
39.98000 621.442
40.00000 640.693
40.02000 653.576
40.04000 663.043
40.06000 664.597
40.08000 681.053
40.10000 700.817
40.12000 694.266
40.14000 696.956
40.16000 688.523
40.18000 677.185
40.20000 666.570
40.22000 670.695
40.24000 659.069
40.26000 647.334
40.28000 639.871
40.30000 634.802
40.32000 609.590
40.34000 591.149
40.36000 565.281
40.38000 564.161
40.40000 556.296
40.42000 532.863
40.44000 509.834
40.46000 479.534
40.48000 465.032
40.50000 447.137
40.52000 429.820
40.54000 404.801
40.56000 391.237
40.58000 367.832
40.60000 355.003
40.62000 331.225
40.64000 312.982
40.66000 304.638
40.68000 285.828
40.70000 267.340
40.72000 250.196
40.74000 241.978
40.76000 232.439
40.78000 218.828
40.80000 201.872
40.82000 189.237
40.84000 181.219
40.86000 163.229
40.88000 163.525
40.90000 158.829
40.92000 145.922
40.94000 137.258
40.96000 130.563
40.98000 125.578
41.00000 116.598
41.02000 109.350
41.04000 97.895
41.06000 90.080
41.08000 90.191
41.10000 86.065
41.12000 81.280
41.14000 80.429
41.16000 71.520
41.18000 70.228
41.20000 65.618
41.22000 56.423
41.24000 55.685
41.26000 52.557
41.28000 46.105
41.30000 47.266
41.32000 47.612
41.34000 41.985
41.36000 45.977
41.38000 46.477
41.40000 41.722
41.42000 41.584
41.44000 34.324
41.46000 29.622
41.48000 27.409
41.50000 29.851
41.52000 25.047
41.54000 25.175
41.56000 23.914
41.58000 25.002
41.60000 28.287
41.62000 25.193
41.64000 20.291
41.66000 19.886
41.68000 20.737
41.70000 18.261
41.72000 14.211
41.74000 17.014
41.76000 18.871
41.78000 13.634
41.80000 14.313
41.82000 15.936
41.84000 12.580
41.86000 12.014
41.88000 9.852
41.90000 10.423
41.92000 14.346
41.94000 12.587
41.96000 11.069
41.98000 10.998
42.00000 8.982
42.02000 4.875
42.04000 6.504
42.06000 9.064
42.08000 8.769
42.10000 6.420
42.12000 4.716
42.14000 5.988
42.16000 5.977
42.18000 5.565
42.20000 6.815
42.22000 9.045
42.24000 9.039
42.26000 5.403
42.28000 6.504
42.30000 7.801
42.32000 3.982
42.34000 3.043
42.36000 9.738
42.38000 11.681
42.40000 5.790
42.42000 5.280
42.44000 4.586
42.46000 1.200
42.48000 -1.488
42.50000 2.471
42.52000 7.020
42.54000 3.090
42.56000 0.897
42.58000 -0.441
42.60000 -2.579
42.62000 -3.543
42.64000 1.922
42.66000 8.466
42.68000 7.948
42.70000 3.566
42.72000 4.634
42.74000 4.782
42.76000 3.845
42.78000 0.271
42.80000 6.158
42.82000 6.047
42.84000 2.612
42.86000 1.975
42.88000 0.686
42.90000 1.181
42.92000 1.018
42.94000 2.664
42.96000 4.709
42.98000 2.952
43.00000 1.598
43.02000 1.133
43.04000 1.851
43.06000 3.099
43.08000 4.401
43.10000 3.913
43.12000 -2.006
43.14000 -2.160
43.16000 0.024
43.18000 0.290
43.20000 -0.248
43.22000 1.966
43.24000 3.017
43.26000 5.788
43.28000 5.487
43.30000 2.041
43.32000 2.919
43.34000 3.087
43.36000 -2.099
43.38000 1.264
43.40000 3.281
43.42000 3.183
43.44000 2.434
43.46000 3.408
43.48000 1.587
43.50000 -0.612
43.52000 -0.941
43.54000 -2.963
43.56000 -1.907
43.58000 -1.770
43.60000 0.268
43.62000 -1.685
43.64000 0.088
43.66000 -1.549
43.68000 0.848
43.70000 3.610
43.72000 2.486
43.74000 3.274
43.76000 6.217
43.78000 2.595
43.80000 1.262
43.82000 -3.496
43.84000 -2.360
43.86000 3.766
43.88000 3.395
43.90000 3.645
43.92000 4.172
43.94000 0.649
43.96000 2.126
43.98000 0.358
44.00000 0.159
44.02000 2.202
44.04000 1.018
44.06000 4.088
44.08000 3.105
44.10000 1.541
44.12000 4.775
44.14000 -1.590
44.16000 1.506
44.18000 -2.661
44.20000 -0.580
44.22000 1.709
44.24000 2.243
44.26000 4.396
44.28000 4.733
44.30000 2.337
44.32000 7.899
44.34000 8.120
44.36000 4.195
44.38000 9.576
44.40000 2.721
44.42000 0.240
44.44000 -3.509
44.46000 -3.144
44.48000 0.060
44.50000 0.879
44.52000 4.627
44.54000 4.029
44.56000 0.629
44.58000 -0.612
44.60000 4.430
44.62000 7.280
44.64000 4.335
44.66000 -0.653
44.68000 -0.888
44.70000 -0.709
44.72000 6.509
44.74000 9.557
44.76000 2.587
44.78000 2.384
44.80000 4.168
44.82000 11.222
44.84000 4.181
44.86000 3.143
44.88000 -0.665
44.90000 4.008
44.92000 13.780
44.94000 6.485
44.96000 11.217
44.98000 14.290
45.00000 8.842
45.02000 7.914
45.04000 9.747
45.06000 6.170
45.08000 5.518
45.10000 9.631
45.12000 9.856
45.14000 6.282
45.16000 4.437
45.18000 6.411
45.20000 9.429
45.22000 12.647
45.24000 14.415
45.26000 14.578
45.28000 16.047
45.30000 18.993
45.32000 17.700
45.34000 13.791
45.36000 14.560
45.38000 16.165
45.40000 12.360
45.42000 16.966
45.44000 20.208
45.46000 18.300
45.48000 19.713
45.50000 20.296
45.52000 18.554
45.54000 17.645
45.56000 17.978
45.58000 24.157
45.60000 25.370
45.62000 26.347
45.64000 25.998
45.66000 29.349
45.68000 29.206
45.70000 24.936
45.72000 25.527
45.74000 30.357
45.76000 35.869
45.78000 35.035
45.80000 42.495
45.82000 37.521
45.84000 37.829
45.86000 38.571
45.88000 37.145
45.90000 38.134
45.92000 43.403
45.94000 43.652
45.96000 41.345
45.98000 46.394
46.00000 52.026
46.02000 55.201
46.04000 46.824
46.06000 48.379
46.08000 46.470
46.10000 49.738
46.12000 47.189
46.14000 50.941
46.16000 53.113
46.18000 53.797
46.20000 55.910
46.22000 62.854
46.24000 63.489
46.26000 62.576
46.28000 57.848
46.30000 64.739
46.32000 66.036
46.34000 72.248
46.36000 78.163
46.38000 74.822
46.40000 70.059
46.42000 66.465
46.44000 75.660
46.46000 73.999
46.48000 74.416
46.50000 79.358
46.52000 78.936
46.54000 78.713
46.56000 79.971
46.58000 79.046
46.60000 83.559
46.62000 89.392
46.64000 85.884
46.66000 87.358
46.68000 83.196
46.70000 81.014
46.72000 82.740
46.74000 84.840
46.76000 85.037
46.78000 81.467
46.80000 84.448
46.82000 80.911
46.84000 88.230
46.86000 91.028
46.88000 82.783
46.90000 79.765
46.92000 71.375
46.94000 72.586
46.96000 79.272
46.98000 82.215
47.00000 78.461
47.02000 73.285
47.04000 73.509
47.06000 67.268
47.08000 68.820
47.10000 71.205
47.12000 63.922
47.14000 63.601
47.16000 64.296
47.18000 59.613
47.20000 56.085
47.22000 55.247
47.24000 51.514
47.26000 52.212
47.28000 51.563
47.30000 53.923
47.32000 47.007
47.34000 50.434
47.36000 48.139
47.38000 41.193
47.40000 41.280
47.42000 42.299
47.44000 45.237
47.46000 45.930
47.48000 37.441
47.50000 39.108
47.52000 35.469
47.54000 32.100
47.56000 37.142
47.58000 34.330
47.60000 32.541
47.62000 30.052
47.64000 28.435
47.66000 23.139
47.68000 22.753
47.70000 23.698
47.72000 21.237
47.74000 23.331
47.76000 18.509
47.78000 17.432
47.80000 20.282
47.82000 21.633
47.84000 16.177
47.86000 12.745
47.88000 10.691
47.90000 13.185
47.92000 15.758
47.94000 18.889
47.96000 11.206
47.98000 13.764
48.00000 12.908
48.02000 13.478
48.04000 12.604
48.06000 9.979
48.08000 11.612
48.10000 5.058
48.12000 10.844
48.14000 10.061
48.16000 3.564
48.18000 5.163
48.20000 6.195
48.22000 6.311
48.24000 10.809
48.26000 9.931
48.28000 8.805
48.30000 2.476
48.32000 2.188
48.34000 9.369
48.36000 6.083
48.38000 4.340
48.40000 -0.710
48.42000 -3.205
48.44000 4.638
48.46000 7.297
48.48000 8.347
48.50000 10.137
48.52000 0.803
48.54000 -2.133
48.56000 -2.086
48.58000 5.311
48.60000 4.178
48.62000 4.694
48.64000 4.578
48.66000 4.838
48.68000 6.851
48.70000 7.960
48.72000 3.816
48.74000 3.681
48.76000 -1.850
48.78000 0.652
48.80000 2.058
48.82000 -1.736
48.84000 2.728
48.86000 5.498
48.88000 11.139
48.90000 10.472
48.92000 8.276
48.94000 0.415
48.96000 -3.130
48.98000 1.172
49.00000 6.013
49.02000 1.972
49.04000 0.161
49.06000 -0.027
49.08000 -0.532
49.10000 3.646
49.12000 6.708
49.14000 5.495
49.16000 -2.833
49.18000 1.767
49.20000 -1.597
49.22000 3.842
49.24000 0.688
49.26000 7.252
49.28000 6.434
49.30000 2.766
49.32000 2.016
49.34000 2.452
49.36000 1.053
49.38000 6.717
49.40000 8.047
49.42000 5.208
49.44000 -3.099
49.46000 1.880
49.48000 4.524
49.50000 1.170
49.52000 0.909
49.54000 2.196
49.56000 -0.013
49.58000 0.086
49.60000 0.505
49.62000 1.233
49.64000 5.313
49.66000 2.503
49.68000 -1.138
49.70000 1.603
49.72000 -1.249
49.74000 -0.871
49.76000 -0.196
49.78000 1.570
49.80000 0.071
49.82000 -2.670
49.84000 -0.897
49.86000 1.041
49.88000 1.029
49.90000 -1.452
49.92000 1.488
49.94000 5.295
49.96000 4.503
49.98000 -0.363
50.00000 1.644
50.02000 4.227
50.04000 7.350
50.06000 9.748
50.08000 4.095
50.10000 1.192
50.12000 3.463
50.14000 -1.821
50.16000 1.236
50.18000 6.073
50.20000 10.715
50.22000 4.541
50.24000 -3.031
50.26000 -2.018
50.28000 1.155
50.30000 1.326
50.32000 2.295
50.34000 0.682
50.36000 0.487
50.38000 -2.953
50.40000 0.768
50.42000 1.514
50.44000 3.015
50.46000 1.979
50.48000 5.445
50.50000 -0.808
50.52000 -2.218
50.54000 3.574
50.56000 5.891
50.58000 5.000
50.60000 4.976
50.62000 -0.628
50.64000 0.830
50.66000 1.693
50.68000 -2.995
50.70000 1.795
50.72000 5.061
50.74000 2.033
50.76000 1.743
50.78000 2.002
50.80000 5.123
50.82000 4.268
50.84000 5.966
50.86000 4.237
50.88000 4.786
50.90000 -0.051
50.92000 -2.081
50.94000 4.381
50.96000 8.999
50.98000 5.188
51.00000 2.110
51.02000 0.273
51.04000 4.173
51.06000 3.948
51.08000 5.728
51.10000 2.100
51.12000 6.607
51.14000 8.780
51.16000 7.702
51.18000 5.443
51.20000 3.410
51.22000 5.438
51.24000 3.857
51.26000 6.340
51.28000 5.854
51.30000 5.386
51.32000 5.186
51.34000 5.224
51.36000 2.399
51.38000 3.918
51.40000 4.223
51.42000 -1.847
51.44000 3.317
51.46000 5.467
51.48000 4.430
51.50000 5.939
51.52000 9.124
51.54000 6.804
51.56000 6.102
51.58000 4.649
51.60000 2.891
51.62000 -2.918
51.64000 0.869
51.66000 10.134
51.68000 4.886
51.70000 3.959
51.72000 4.530
51.74000 4.472
51.76000 2.997
51.78000 2.355
51.80000 5.683
51.82000 4.344
51.84000 1.952
51.86000 4.328
51.88000 5.823
51.90000 7.300
51.92000 5.983
51.94000 2.444
51.96000 0.359
51.98000 -1.496
52.00000 -1.311
52.02000 3.573
52.04000 2.741
52.06000 2.188
52.08000 4.910
52.10000 5.377
52.12000 1.120
52.14000 3.860
52.16000 2.777
52.18000 2.359
52.20000 7.499
52.22000 3.995
52.24000 7.876
52.26000 10.438
52.28000 8.025
52.30000 10.196
52.32000 10.525
52.34000 10.421
52.36000 7.437
52.38000 0.673
52.40000 -0.759
52.42000 1.427
52.44000 4.542
52.46000 -0.573
52.48000 0.817
52.50000 1.999
52.52000 2.115
52.54000 5.684
52.56000 6.965
52.58000 7.962
52.60000 4.533
52.62000 2.957
52.64000 6.641
52.66000 7.140
52.68000 2.208
52.70000 8.098
52.72000 3.913
52.74000 1.356
52.76000 2.654
52.78000 4.463
52.80000 6.778
52.82000 11.252
52.84000 4.216
52.86000 3.958
52.88000 -0.162
52.90000 7.438
52.92000 7.879
52.94000 11.880
52.96000 11.309
52.98000 8.145
53.00000 5.401
53.02000 5.631
53.04000 1.984
53.06000 0.227
53.08000 6.527
53.10000 3.729
53.12000 2.870
53.14000 3.793
53.16000 6.765
53.18000 5.681
53.20000 5.151
53.22000 -2.877
53.24000 3.277
53.26000 4.584
53.28000 4.641
53.30000 3.106
53.32000 4.879
53.34000 1.364
53.36000 2.530
53.38000 4.009
53.40000 7.571
53.42000 4.941
53.44000 4.118
53.46000 8.711
53.48000 6.569
53.50000 6.363
53.52000 4.431
53.54000 6.984
53.56000 3.546
53.58000 0.675
53.60000 -2.846
53.62000 0.444
53.64000 2.190
53.66000 1.522
53.68000 2.716
53.70000 3.375
53.72000 5.803
53.74000 0.917
53.76000 1.505
53.78000 1.126
53.80000 3.194
53.82000 3.991
53.84000 1.854
53.86000 -0.654
53.88000 1.967
53.90000 3.414
53.92000 2.402
53.94000 2.531
53.96000 4.853
53.98000 7.376
54.00000 6.405
54.02000 0.527
54.04000 1.950
54.06000 6.709
54.08000 7.289
54.10000 4.391
54.12000 2.637
54.14000 8.835
54.16000 5.428
54.18000 2.930
54.20000 -2.858
54.22000 4.508
54.24000 8.094
54.26000 7.879
54.28000 5.649
54.30000 3.263
54.32000 0.629
54.34000 1.252
54.36000 4.672
54.38000 2.466
54.40000 1.062
54.42000 -0.245
54.44000 -1.353
54.46000 6.009
54.48000 4.636
54.50000 2.289
54.52000 2.785
54.54000 4.090
54.56000 10.724
54.58000 6.012
54.60000 1.319
54.62000 3.301
54.64000 5.479
54.66000 4.387
54.68000 4.473
54.70000 5.428
54.72000 4.433
54.74000 0.666
54.76000 4.047
54.78000 5.273
54.80000 5.531
54.82000 5.491
54.84000 3.966
54.86000 5.055
54.88000 2.683
54.90000 1.836
54.92000 1.865
54.94000 5.359
54.96000 3.125
54.98000 -0.607
55.00000 3.422
55.02000 7.950
55.04000 6.974
55.06000 3.229
55.08000 1.698
55.10000 5.678
55.12000 4.463
55.14000 7.831
55.16000 4.360
55.18000 7.376
55.20000 6.821
55.22000 4.941
55.24000 1.538
55.26000 1.285
55.28000 3.966
55.30000 3.785
55.32000 -0.538
55.34000 3.923
55.36000 4.815
55.38000 2.903
55.40000 2.992
55.42000 0.558
55.44000 4.430
55.46000 0.714
55.48000 0.673
55.50000 0.373
55.52000 -2.833
55.54000 -1.845
55.56000 -0.349
55.58000 -0.594
55.60000 0.586
55.62000 2.819
55.64000 4.496
55.66000 4.430
55.68000 3.830
55.70000 1.914
55.72000 8.029
55.74000 8.134
55.76000 5.238
55.78000 8.919
55.80000 6.990
55.82000 8.813
55.84000 10.341
55.86000 8.153
55.88000 5.670
55.90000 0.964
55.92000 1.835
55.94000 3.458
55.96000 5.255
55.98000 4.731
56.00000 3.233
56.02000 6.385
56.04000 11.063
56.06000 6.889
56.08000 3.605
56.10000 6.189
56.12000 4.565
56.14000 3.961
56.16000 3.437
56.18000 1.939
56.20000 3.252
56.22000 6.086
56.24000 9.783
56.26000 6.643
56.28000 3.700
56.30000 9.322
56.32000 7.541
56.34000 0.987
56.36000 -2.776
56.38000 1.572
56.40000 6.681
56.42000 7.015
56.44000 7.441
56.46000 5.858
56.48000 3.536
56.50000 7.608
56.52000 8.129
56.54000 0.081
56.56000 4.173
56.58000 5.609
56.60000 3.744
56.62000 6.611
56.64000 1.845
56.66000 4.826
56.68000 4.946
56.70000 4.869
56.72000 5.466
56.74000 6.251
56.76000 3.994
56.78000 2.764
56.80000 1.919
56.82000 0.029
56.84000 0.841
56.86000 2.789
56.88000 3.051
56.90000 0.331
56.92000 2.480
56.94000 2.741
56.96000 4.404
56.98000 5.687
57.00000 1.230
57.02000 1.175
57.04000 2.030
57.06000 10.678
57.08000 5.503
57.10000 -0.425
57.12000 6.510
57.14000 3.147
57.16000 4.049
57.18000 4.070
57.20000 6.531
57.22000 3.380
57.24000 5.746
57.26000 6.119
57.28000 2.068
57.30000 2.832
57.32000 4.474
57.34000 7.562
57.36000 2.969
57.38000 0.562
57.40000 6.256
57.42000 3.756
57.44000 7.314
57.46000 4.440
57.48000 4.302
57.50000 1.334
57.52000 4.583
57.54000 5.105
57.56000 1.677
57.58000 -1.692
57.60000 -1.107
57.62000 6.520
57.64000 4.166
57.66000 1.667
57.68000 2.669
57.70000 0.989
57.72000 1.900
57.74000 3.053
57.76000 4.670
57.78000 6.443
57.80000 3.812
57.82000 3.515
57.84000 -0.337
57.86000 0.418
57.88000 5.524
57.90000 2.454
57.92000 7.461
57.94000 4.524
57.96000 6.523
57.98000 1.391
58.00000 6.631
58.02000 10.075
58.04000 3.723
58.06000 1.206
58.08000 5.066
58.10000 5.694
58.12000 1.622
58.14000 4.542
58.16000 6.943
58.18000 3.545
58.20000 -1.503
58.22000 -2.723
58.24000 2.400
58.26000 5.613
58.28000 10.351
58.30000 9.954
58.32000 5.572
58.34000 -0.654
58.36000 -1.400
58.38000 1.420
58.40000 0.946
58.42000 2.882
58.44000 7.508
58.46000 3.170
58.48000 -0.941
58.50000 2.135
58.52000 -0.279
58.54000 4.303
58.56000 0.912
58.58000 2.823
58.60000 7.178
58.62000 8.020
58.64000 4.116
58.66000 1.592
58.68000 -2.713
58.70000 1.732
58.72000 1.887
58.74000 5.397
58.76000 4.775
58.78000 6.993
58.80000 6.769
58.82000 10.326
58.84000 9.807
58.86000 14.460
58.88000 9.178
58.90000 2.632
58.92000 -0.330
58.94000 0.689
58.96000 4.711
58.98000 4.305
59.00000 3.793
59.02000 3.865
59.04000 8.388
59.06000 6.449
59.08000 3.077
59.10000 7.264
59.12000 1.758
59.14000 1.929
59.16000 5.577
59.18000 5.112
59.20000 2.623
59.22000 3.111
59.24000 3.457
59.26000 2.188
59.28000 4.193
59.30000 6.782
59.32000 9.968
59.34000 8.276
59.36000 6.176
59.38000 11.118
59.40000 9.540
59.42000 8.485
59.44000 2.492
59.46000 5.364
59.48000 8.107
59.50000 4.893
59.52000 -2.672
59.54000 5.150
59.56000 7.944
59.58000 8.281
59.60000 4.148
59.62000 4.631
59.64000 2.297
59.66000 8.958
59.68000 7.289
59.70000 3.367
59.72000 4.491
59.74000 6.880
59.76000 5.350
59.78000 4.457
59.80000 7.610
59.82000 6.135
59.84000 5.757
59.86000 2.441
59.88000 5.239
59.90000 5.458
59.92000 5.745
59.94000 3.679
59.96000 0.707
59.98000 7.249
60.00000 12.917
60.02000 6.057
60.04000 4.681
60.06000 5.737
60.08000 6.185
60.10000 5.609
60.12000 2.229
60.14000 -1.542
60.16000 -2.668
60.18000 -0.129
60.20000 5.970
60.22000 2.828
60.24000 0.855
60.26000 1.435
60.28000 2.295
60.30000 5.675
60.32000 5.576
60.34000 2.088
60.36000 -0.020
60.38000 2.069
60.40000 4.515
60.42000 2.530
60.44000 4.586
60.46000 13.234
60.48000 9.175
60.50000 6.697
60.52000 5.180
60.54000 7.263
60.56000 10.520
60.58000 3.615
60.60000 3.171
60.62000 2.318
60.64000 -0.979
60.66000 -2.649
60.68000 -0.998
60.70000 6.861
60.72000 8.633
60.74000 4.852
60.76000 3.024
60.78000 3.551
60.80000 2.825
60.82000 3.468
60.84000 4.566
60.86000 4.625
60.88000 4.741
60.90000 6.465
60.92000 3.771
60.94000 7.870
60.96000 9.385
60.98000 7.932
61.00000 6.434
61.02000 4.746
61.04000 7.234
61.06000 7.438
61.08000 4.353
61.10000 3.202
61.12000 2.840
61.14000 0.816
61.16000 1.079
61.18000 1.559
61.20000 1.758
61.22000 3.574
61.24000 1.753
61.26000 2.791
61.28000 1.681
61.30000 1.199
61.32000 0.909
61.34000 0.871
61.36000 -0.278
61.38000 1.802
61.40000 1.960
61.42000 -0.143
61.44000 -1.920
61.46000 2.540
61.48000 4.199
61.50000 0.878
61.52000 0.964
61.54000 -1.573
61.56000 0.896
61.58000 6.176
61.60000 6.278
61.62000 -1.955
61.64000 1.193
61.66000 3.254
61.68000 7.025
61.70000 3.382
61.72000 0.257
61.74000 1.400
61.76000 2.808
61.78000 6.018
61.80000 2.397
61.82000 2.193
61.84000 2.770
61.86000 5.373
61.88000 -1.047
61.90000 -2.637
61.92000 0.037
61.94000 3.008
61.96000 2.547
61.98000 1.463
62.00000 0.421
62.02000 1.886
62.04000 2.924
62.06000 2.377
62.08000 1.547
62.10000 -0.058
62.12000 2.411
62.14000 4.522
62.16000 6.648
62.18000 4.709
62.20000 -0.732
62.22000 1.510
62.24000 1.449
62.26000 1.121
62.28000 2.196
62.30000 0.602
62.32000 2.541
62.34000 2.822
62.36000 5.027
62.38000 0.076
62.40000 1.930
62.42000 1.347
62.44000 2.894
62.46000 1.067
62.48000 2.622
62.50000 0.334
62.52000 0.333
62.54000 -1.786
62.56000 1.799
62.58000 0.436
62.60000 3.089
62.62000 5.285
62.64000 4.305
62.66000 0.508
62.68000 -2.623
62.70000 -2.450
62.72000 2.176
62.74000 5.111
62.76000 3.471
62.78000 1.431
62.80000 1.796
62.82000 1.709
62.84000 3.469
62.86000 1.967
62.88000 2.985
62.90000 1.736
62.92000 0.671
62.94000 -2.611
62.96000 -2.209
62.98000 0.239
63.00000 -0.715
63.02000 0.997
63.04000 3.501
63.06000 2.471
63.08000 5.113
63.10000 4.095
63.12000 -1.952
63.14000 -2.571
63.16000 1.527
63.18000 3.709
63.20000 4.022
63.22000 1.967
63.24000 2.187
63.26000 4.559
63.28000 2.143
63.30000 2.019
63.32000 2.859
63.34000 1.096
63.36000 1.260
63.38000 -0.110
63.40000 2.230
63.42000 3.039
63.44000 3.409
63.46000 5.885
63.48000 0.077
63.50000 2.907
63.52000 1.608
63.54000 0.499
63.56000 2.419
63.58000 2.410
63.60000 2.916
63.62000 1.024
63.64000 -0.348
63.66000 0.767
63.68000 3.865
63.70000 1.812
63.72000 1.083
63.74000 -1.735
63.76000 0.354
63.78000 -0.665
63.80000 -0.956
63.82000 -1.904
63.84000 -2.190
63.86000 -2.618
63.88000 -0.836
63.90000 1.757
63.92000 0.996
63.94000 2.619
63.96000 2.925
63.98000 3.098
64.00000 2.485
64.02000 5.373
64.04000 3.394
64.06000 4.757
64.08000 1.837
64.10000 -0.406
64.12000 5.780
64.14000 7.443
64.16000 10.212
64.18000 1.511
64.20000 -2.623
64.22000 -2.484
64.24000 -0.486
64.26000 2.651
64.28000 2.712
64.30000 0.012
64.32000 -1.632
64.34000 0.559
64.36000 5.140
64.38000 2.469
64.40000 -1.451
64.42000 1.731
64.44000 -0.321
64.46000 -1.386
64.48000 1.383
64.50000 1.503
64.52000 2.481
64.54000 6.400
64.56000 3.264
64.58000 -0.494
64.60000 -0.606
64.62000 -1.551
64.64000 1.984
64.66000 4.042
64.68000 -0.478
64.70000 -0.118
64.72000 4.295
64.74000 3.086
64.76000 1.466
64.78000 0.524
64.80000 3.577
64.82000 -2.644
64.84000 1.583
64.86000 5.933
64.88000 0.657
64.90000 -1.196
64.92000 0.514
64.94000 2.227
64.96000 3.430
64.98000 0.612
65.00000 -2.667
65.02000 0.217
65.04000 0.301
65.06000 -0.266
65.08000 3.929
65.10000 2.211
65.12000 0.524
65.14000 0.158
65.16000 -0.665
65.18000 0.132
65.20000 -1.347
65.22000 0.188
65.24000 1.095
65.26000 -2.251
65.28000 -0.858
65.30000 2.131
65.32000 1.264
65.34000 -1.553
65.36000 2.567
65.38000 2.238
65.40000 2.262
65.42000 3.447
65.44000 1.742
65.46000 -2.677
65.48000 -0.594
65.50000 -1.290
65.52000 1.546
65.54000 0.290
65.56000 0.430
65.58000 0.232
65.60000 4.239
65.62000 6.541
65.64000 1.440
65.66000 -0.484
65.68000 -2.694
65.70000 -0.070
65.72000 1.819
65.74000 -0.323
65.76000 2.596
65.78000 0.191
65.80000 -0.269
65.82000 1.676
65.84000 -1.652
65.86000 -0.231
65.88000 -0.644
65.90000 -1.353
65.92000 2.377
65.94000 2.523
65.96000 -0.179
65.98000 0.763
66.00000 1.849
66.02000 3.401
66.04000 0.058
66.06000 0.061
66.08000 4.732
66.10000 3.252
66.12000 1.218
66.14000 -0.988
66.16000 3.229
66.18000 2.442
66.20000 4.189
66.22000 7.224
66.24000 6.319
66.26000 4.214
66.28000 -1.486
66.30000 -0.547
66.32000 1.297
66.34000 1.560
66.36000 1.859
66.38000 -2.035
66.40000 -0.518
66.42000 -2.744
66.44000 2.897
66.46000 3.101
66.48000 0.449
66.50000 2.896
66.52000 0.958
66.54000 2.861
66.56000 2.288
66.58000 3.449
66.60000 4.814
66.62000 5.526
66.64000 3.499
66.66000 1.119
66.68000 1.762
66.70000 3.798
66.72000 4.400
66.74000 2.680
66.76000 -1.442
66.78000 -2.651
66.80000 1.932
66.82000 2.829
66.84000 3.962
66.86000 2.784
66.88000 7.272
66.90000 6.956
66.92000 3.051
66.94000 1.502
66.96000 0.305
66.98000 2.585
67.00000 3.207
67.02000 3.677
67.04000 5.196
67.06000 7.577
67.08000 5.186
67.10000 1.818
67.12000 5.722
67.14000 6.186
67.16000 7.977
67.18000 9.234
67.20000 11.629
67.22000 9.662
67.24000 7.828
67.26000 13.719
67.28000 11.584
67.30000 8.832
67.32000 8.858
67.34000 7.303
67.36000 12.817
67.38000 13.829
67.40000 7.361
67.42000 7.812
67.44000 9.128
67.46000 9.779
67.48000 8.487
67.50000 10.500
67.52000 12.786
67.54000 18.173
67.56000 16.090
67.58000 17.431
67.60000 12.309
67.62000 11.563
67.64000 17.879
67.66000 13.082
67.68000 12.718
67.70000 15.211
67.72000 13.397
67.74000 13.963
67.76000 14.909
67.78000 18.646
67.80000 19.722
67.82000 17.317
67.84000 16.187
67.86000 14.981
67.88000 18.344
67.90000 19.960
67.92000 19.662
67.94000 12.992
67.96000 12.068
67.98000 16.508
68.00000 20.448
68.02000 21.941
68.04000 24.382
68.06000 20.473
68.08000 20.443
68.10000 18.090
68.12000 20.125
68.14000 19.080
68.16000 17.923
68.18000 21.124
68.20000 17.620
68.22000 20.835
68.24000 20.531
68.26000 18.771
68.28000 19.029
68.30000 17.596
68.32000 17.967
68.34000 16.774
68.36000 19.830
68.38000 21.053
68.40000 18.557
68.42000 17.002
68.44000 17.567
68.46000 16.302
68.48000 18.503
68.50000 17.617
68.52000 20.411
68.54000 17.614
68.56000 16.622
68.58000 19.399
68.60000 19.260
68.62000 18.158
68.64000 13.387
68.66000 10.433
68.68000 13.442
68.70000 14.350
68.72000 9.183
68.74000 8.952
68.76000 11.764
68.78000 10.113
68.80000 7.873
68.82000 10.609
68.84000 12.762
68.86000 10.895
68.88000 9.345
68.90000 7.788
68.92000 4.994
68.94000 12.340
68.96000 11.957
68.98000 7.654
69.00000 7.252
69.02000 4.487
69.04000 2.238
69.06000 1.426
69.08000 2.926
69.10000 5.424
69.12000 0.275
69.14000 4.562
69.16000 6.982
69.18000 -0.691
69.20000 -1.943
69.22000 0.945
69.24000 3.971
69.26000 4.164
69.28000 2.066
69.30000 0.318
69.32000 4.193
69.34000 2.665
69.36000 -0.628
69.38000 0.559
69.40000 2.003
69.42000 1.759
69.44000 2.271
69.46000 3.503
69.48000 4.265
69.50000 3.201
69.52000 1.945
69.54000 -1.603
69.56000 -0.183
69.58000 3.563
69.60000 2.163
69.62000 4.222
69.64000 4.535
69.66000 1.134
69.68000 1.920
69.70000 5.169
69.72000 3.690
69.74000 2.930
69.76000 3.881
69.78000 2.851
69.80000 -0.213
69.82000 0.224
69.84000 0.805
69.86000 -0.274
69.88000 0.040
69.90000 -1.336
69.92000 -1.656
69.94000 0.007
69.96000 2.742
69.98000 1.736
70.00000 -1.690
70.02000 -0.656
70.04000 1.198
70.06000 -2.592
70.08000 -1.578
70.10000 1.886
70.12000 3.222
70.14000 0.978
70.16000 2.659
70.18000 1.394
70.20000 3.866
70.22000 -1.429
70.24000 -0.138
70.26000 1.552
70.28000 1.883
70.30000 1.790
70.32000 0.540
70.34000 1.149
70.36000 2.881
70.38000 0.366
70.40000 -0.469
70.42000 -1.497
70.44000 -2.542
70.46000 -2.031
70.48000 2.579
70.50000 6.081
70.52000 6.932
70.54000 7.464
70.56000 3.764
70.58000 1.268
70.60000 2.220
70.62000 2.866
70.64000 6.675
70.66000 3.998
70.68000 2.050
70.70000 0.896
70.72000 -2.000
70.74000 1.962
70.76000 2.078
70.78000 2.845
70.80000 3.284
70.82000 3.318
70.84000 3.972
70.86000 3.525
70.88000 2.943
70.90000 2.730
70.92000 1.277
70.94000 4.889
70.96000 -1.019
70.98000 0.041
71.00000 1.482
71.02000 8.865
71.04000 8.007
71.06000 -1.231
71.08000 -2.514
71.10000 -1.118
71.12000 0.458
71.14000 -0.077
71.16000 0.773
71.18000 1.075
71.20000 1.041
71.22000 1.745
71.24000 3.488
71.26000 6.558
71.28000 0.636
71.30000 2.385
71.32000 3.031
71.34000 6.679
71.36000 4.174
71.38000 2.426
71.40000 0.462
71.42000 1.980
71.44000 2.031
71.46000 1.244
71.48000 1.422
71.50000 -0.096
71.52000 0.411
71.54000 0.250
71.56000 5.029
71.58000 3.730
71.60000 3.362
71.62000 4.711
71.64000 0.042
71.66000 2.517
71.68000 5.553
71.70000 3.722
71.72000 2.255
71.74000 2.468
71.76000 4.097
71.78000 0.355
71.80000 0.697
71.82000 3.409
71.84000 3.591
71.86000 4.990
71.88000 0.846
71.90000 5.085
71.92000 5.569
71.94000 1.621
71.96000 7.072
71.98000 10.819
72.00000 9.486
72.02000 4.236
72.04000 2.790
72.06000 1.677
72.08000 2.556
72.10000 2.019
72.12000 3.266
72.14000 2.941
72.16000 4.588
72.18000 5.656
72.20000 5.321
72.22000 7.651
72.24000 6.035
72.26000 1.907
72.28000 2.199
72.30000 3.620
72.32000 6.948
72.34000 4.393
72.36000 6.852
72.38000 7.806
72.40000 4.271
72.42000 4.833
72.44000 5.372
72.46000 3.471
72.48000 3.217
72.50000 5.752
72.52000 5.990
72.54000 6.800
72.56000 9.096
72.58000 6.049
72.60000 8.161
72.62000 9.466
72.64000 6.584
72.66000 1.863
72.68000 7.590
72.70000 7.975
72.72000 5.144
72.74000 5.913
72.76000 2.913
72.78000 -1.137
72.80000 -2.385
72.82000 5.135
72.84000 9.564
72.86000 5.967
72.88000 4.631
72.90000 3.803
72.92000 6.455
72.94000 8.081
72.96000 7.706
72.98000 6.576
73.00000 4.739
73.02000 3.517
73.04000 2.943
73.06000 2.299
73.08000 5.515
73.10000 6.360
73.12000 11.630
73.14000 11.072
73.16000 11.868
73.18000 2.491
73.20000 3.819
73.22000 6.500
73.24000 1.128
73.26000 -1.221
73.28000 4.550
73.30000 4.352
73.32000 6.625
73.34000 7.434
73.36000 5.157
73.38000 5.034
73.40000 2.898
73.42000 -0.718
73.44000 4.230
73.46000 7.744
73.48000 9.288
73.50000 11.748
73.52000 3.664
73.54000 3.352
73.56000 5.388
73.58000 7.044
73.60000 5.166
73.62000 2.257
73.64000 3.290
73.66000 4.163
73.68000 3.140
73.70000 4.343
73.72000 8.675
73.74000 5.014
73.76000 1.390
73.78000 1.142
73.80000 4.692
73.82000 6.003
73.84000 3.852
73.86000 1.221
73.88000 3.935
73.90000 0.068
73.92000 1.291
73.94000 3.737
73.96000 10.555
73.98000 3.154
74.00000 -2.427
74.02000 0.089
74.04000 3.866
74.06000 5.041
74.08000 2.922
74.10000 2.289
74.12000 3.102
74.14000 4.502
74.16000 6.739
74.18000 2.535
74.20000 5.421
74.22000 -0.583
74.24000 3.405
74.26000 4.258
74.28000 5.764
74.30000 4.276
74.32000 0.693
74.34000 0.914
74.36000 2.452
74.38000 2.000
74.40000 4.924
74.42000 0.937
74.44000 1.563
74.46000 5.495
74.48000 3.973
74.50000 6.951
74.52000 1.846
74.54000 2.374
74.56000 -0.528
74.58000 -2.268
74.60000 1.145
74.62000 4.280
74.64000 -0.138
74.66000 0.429
74.68000 1.200
74.70000 2.177
74.72000 0.085
74.74000 -1.045
74.76000 0.866
74.78000 4.118
74.80000 7.673
74.82000 6.623
74.84000 5.995
74.86000 3.971
74.88000 5.335
74.90000 3.590
74.92000 3.682
74.94000 1.094
74.96000 -2.303
74.98000 -1.319
75.00000 2.216
75.02000 4.106
75.04000 1.944
75.06000 6.877
75.08000 4.143
75.10000 3.398
75.12000 5.158
75.14000 5.759
75.16000 2.238
75.18000 4.289
75.20000 1.588
75.22000 4.477
75.24000 2.954
75.26000 2.183
75.28000 0.932
75.30000 6.267
75.32000 7.718
75.34000 3.135
75.36000 2.860
75.38000 3.859
75.40000 6.970
75.42000 8.152
75.44000 7.831
75.46000 6.209
75.48000 3.267
75.50000 3.543
75.52000 1.743
75.54000 1.339
75.56000 2.312
75.58000 3.193
75.60000 0.693
75.62000 1.160
75.64000 0.703
75.66000 2.064
75.68000 2.243
75.70000 3.164
75.72000 3.725
75.74000 6.459
75.76000 8.785
75.78000 6.178
75.80000 -2.417
75.82000 -1.668
75.84000 2.492
75.86000 5.976
75.88000 4.747
75.90000 5.568
75.92000 4.542
75.94000 3.451
75.96000 2.737
75.98000 2.761
76.00000 5.432
76.02000 2.622
76.04000 2.516
76.06000 -0.222
76.08000 0.150
76.10000 7.084
76.12000 13.875
76.14000 11.902
76.16000 7.699
76.18000 6.126
76.20000 3.274
76.22000 1.222
76.24000 3.987
76.26000 8.670
76.28000 9.781
76.30000 6.574
76.32000 3.139
76.34000 0.746
76.36000 3.582
76.38000 3.812
76.40000 2.912
76.42000 5.560
76.44000 2.071
76.46000 3.064
76.48000 2.799
76.50000 4.120
76.52000 4.740
76.54000 2.819
76.56000 4.812
76.58000 8.338
76.60000 6.344
76.62000 1.660
76.64000 0.663
76.66000 2.925
76.68000 3.339
76.70000 3.166
76.72000 0.476
76.74000 3.112
76.76000 6.363
76.78000 6.599
76.80000 3.872
76.82000 8.266
76.84000 7.493
76.86000 6.797
76.88000 2.855
76.90000 1.950
76.92000 1.743
76.94000 1.229
76.96000 3.588
76.98000 2.972
77.00000 5.254
77.02000 1.149
77.04000 3.160
77.06000 -0.053
77.08000 -1.371
77.10000 -1.302
77.12000 -0.039
77.14000 5.771
77.16000 6.754
77.18000 4.233
77.20000 5.516
77.22000 4.345
77.24000 4.125
77.26000 4.284
77.28000 4.931
77.30000 7.222
77.32000 4.799
77.34000 8.625
77.36000 4.658
77.38000 0.697
77.40000 -0.085
77.42000 5.712
77.44000 5.504
77.46000 0.333
77.48000 -2.461
77.50000 5.136
77.52000 3.565
77.54000 4.830
77.56000 9.699
77.58000 7.573
77.60000 5.257
77.62000 2.056
77.64000 4.710
77.66000 3.282
77.68000 6.608
77.70000 1.899
77.72000 4.361
77.74000 5.028
77.76000 4.307
77.78000 3.532
77.80000 3.353
77.82000 3.652
77.84000 1.875
77.86000 1.478
77.88000 2.474
77.90000 1.051
77.92000 3.874
77.94000 4.679
77.96000 3.480
77.98000 7.066
78.00000 5.891
78.02000 5.527
78.04000 5.824
78.06000 5.153
78.08000 1.357
78.10000 3.420
78.12000 3.617
78.14000 1.299
78.16000 -0.410
78.18000 2.859
78.20000 5.257
78.22000 8.870
78.24000 6.821
78.26000 2.136
78.28000 3.936
78.30000 5.304
78.32000 3.265
78.34000 1.711
78.36000 5.996
78.38000 10.971
78.40000 10.788
78.42000 7.536
78.44000 10.303
78.46000 9.037
78.48000 6.697
78.50000 4.183
78.52000 3.053
78.54000 2.727
78.56000 2.795
78.58000 5.917
78.60000 4.077
78.62000 -2.474
78.64000 2.765
78.66000 2.686
78.68000 2.768
78.70000 6.497
78.72000 8.045
78.74000 3.019
78.76000 0.883
78.78000 6.040
78.80000 3.555
78.82000 3.416
78.84000 7.787
78.86000 9.620
78.88000 9.469
78.90000 6.268
78.92000 2.925
78.94000 3.713
78.96000 5.986
78.98000 7.087
79.00000 5.034
79.02000 2.947
79.04000 2.480
79.06000 0.528
79.08000 -2.532
79.10000 1.666
79.12000 6.602
79.14000 9.223
79.16000 11.023
79.18000 0.538
79.20000 -2.471
79.22000 1.054
79.24000 5.624
79.26000 3.691
79.28000 1.738
79.30000 1.564
79.32000 8.141
79.34000 7.901
79.36000 6.463
79.38000 3.300
79.40000 3.599
79.42000 0.693
79.44000 2.988
79.46000 3.370
79.48000 2.105
79.50000 -0.544
79.52000 -1.682
79.54000 3.903
79.56000 1.314
79.58000 3.680
79.60000 -2.586
79.62000 2.878
79.64000 3.429
79.66000 3.125
79.68000 -1.985
79.70000 -1.940
79.72000 3.074
79.74000 4.778
79.76000 2.702
79.78000 1.527
79.80000 3.320
79.82000 3.122
79.84000 5.937
79.86000 3.899
79.88000 8.481
79.90000 8.266
79.92000 3.428
79.94000 -2.009
79.96000 0.445
79.98000 0.689
80.00000 6.726
80.02000 9.010
80.04000 5.179
80.06000 1.060
80.08000 0.817
80.10000 5.610
80.12000 2.031
80.14000 0.271
80.16000 -0.746
80.18000 -0.192
80.20000 -0.805
80.22000 3.455
80.24000 7.858
80.26000 5.399
80.28000 1.236
80.30000 4.887
80.32000 7.682
80.34000 9.154
80.36000 7.136
80.38000 1.710
80.40000 0.088
80.42000 -2.658
80.44000 1.588
80.46000 3.069
80.48000 3.822
80.50000 5.274
80.52000 3.937
80.54000 4.964
80.56000 5.742
80.58000 6.490
80.60000 8.438
80.62000 3.354
80.64000 8.078
80.66000 7.760
80.68000 6.648
80.70000 8.925
80.72000 7.028
80.74000 7.625
80.76000 8.731
80.78000 4.874
80.80000 4.061
80.82000 3.582
80.84000 0.593
80.86000 1.573
80.88000 9.663
80.90000 10.766
80.92000 9.766
80.94000 9.235
80.96000 8.548
80.98000 9.783
81.00000 11.087
81.02000 9.917
81.04000 3.804
81.06000 6.570
81.08000 10.940
81.10000 6.233
81.12000 10.510
81.14000 9.928
81.16000 11.742
81.18000 14.144
81.20000 11.686
81.22000 11.657
81.24000 10.523
81.26000 10.124
81.28000 4.465
81.30000 10.057
81.32000 10.187
81.34000 6.781
81.36000 11.272
81.38000 8.472
81.40000 13.459
81.42000 11.855
81.44000 12.708
81.46000 15.910
81.48000 12.887
81.50000 9.538
81.52000 12.900
81.54000 18.832
81.56000 12.761
81.58000 12.744
81.60000 12.349
81.62000 13.917
81.64000 13.750
81.66000 19.408
81.68000 19.440
81.70000 17.785
81.72000 18.145
81.74000 17.545
81.76000 18.462
81.78000 21.892
81.80000 17.939
81.82000 17.816
81.84000 25.290
81.86000 23.515
81.88000 15.386
81.90000 16.704
81.92000 21.980
81.94000 20.693
81.96000 21.009
81.98000 20.553
82.00000 20.666
82.02000 23.781
82.04000 24.012
82.06000 17.850
82.08000 14.683
82.10000 18.514
82.12000 20.583
82.14000 18.869
82.16000 19.020
82.18000 20.701
82.20000 24.913
82.22000 23.828
82.24000 22.224
82.26000 19.950
82.28000 26.824
82.30000 23.564
82.32000 24.128
82.34000 27.646
82.36000 24.018
82.38000 22.149
82.40000 24.917
82.42000 21.870
82.44000 22.930
82.46000 19.632
82.48000 19.889
82.50000 18.003
82.52000 16.652
82.54000 24.890
82.56000 25.339
82.58000 20.575
82.60000 20.572
82.62000 16.886
82.64000 22.632
82.66000 19.724
82.68000 14.091
82.70000 22.377
82.72000 22.695
82.74000 19.405
82.76000 17.253
82.78000 20.850
82.80000 18.254
82.82000 11.358
82.84000 14.089
82.86000 12.718
82.88000 12.953
82.90000 20.281
82.92000 15.415
82.94000 9.339
82.96000 14.971
82.98000 12.169
83.00000 11.153
83.02000 7.148
83.04000 8.711
83.06000 11.122
83.08000 11.849
83.10000 12.954
83.12000 7.451
83.14000 7.519
83.16000 7.360
83.18000 8.708
83.20000 7.324
83.22000 12.465
83.24000 7.857
83.26000 3.318
83.28000 4.776
83.30000 1.984
83.32000 2.738
83.34000 9.075
83.36000 12.004
83.38000 10.277
83.40000 10.151
83.42000 5.255
83.44000 5.477
83.46000 2.389
83.48000 2.793
83.50000 4.029
83.52000 5.584
83.54000 5.549
83.56000 3.948
83.58000 5.609
83.60000 9.997
83.62000 9.772
83.64000 3.520
83.66000 -2.396
83.68000 2.139
83.70000 -0.529
83.72000 3.088
83.74000 2.201
83.76000 3.585
83.78000 3.926
83.80000 4.141
83.82000 5.835
83.84000 0.765
83.86000 -1.645
83.88000 -2.416
83.90000 -1.721
83.92000 0.105
83.94000 6.009
83.96000 6.120
83.98000 0.093
84.00000 2.476
84.02000 1.402
84.04000 -1.286
84.06000 3.400
84.08000 6.530
84.10000 -0.748
84.12000 4.464
84.14000 1.967
84.16000 3.639
84.18000 6.447
84.20000 5.816
84.22000 4.791
84.24000 -2.623
84.26000 -2.408
84.28000 -2.621
84.30000 -1.844
84.32000 -0.506
84.34000 4.950
84.36000 4.719
84.38000 9.559
84.40000 10.514
84.42000 1.730
84.44000 0.825
84.46000 4.173
84.48000 2.117
84.50000 3.122
84.52000 0.354
84.54000 1.896
84.56000 4.078
84.58000 2.737
84.60000 1.085
84.62000 2.748
84.64000 0.446
84.66000 4.970
84.68000 5.111
84.70000 0.468
84.72000 -2.618
84.74000 -2.165
84.76000 1.786
84.78000 0.594
84.80000 4.600
84.82000 2.246
84.84000 1.059
84.86000 4.104
84.88000 4.340
84.90000 9.309
84.92000 0.406
84.94000 -1.974
84.96000 4.942
84.98000 5.050
85.00000 -0.213
85.02000 1.596
85.04000 1.569
85.06000 -2.632
85.08000 1.301
85.10000 4.592
85.12000 6.145
85.14000 0.683
85.16000 1.942
85.18000 6.505
85.20000 6.187
85.22000 8.516
85.24000 4.873
85.26000 5.113
85.28000 9.984
85.30000 7.303
85.32000 4.517
85.34000 3.332
85.36000 2.702
85.38000 1.920
85.40000 9.325
85.42000 5.768
85.44000 2.251
85.46000 9.226
85.48000 11.904
85.50000 13.867
85.52000 7.053
85.54000 7.367
85.56000 12.637
85.58000 11.275
85.60000 12.452
85.62000 10.528
85.64000 11.426
85.66000 9.744
85.68000 9.941
85.70000 8.805
85.72000 7.655
85.74000 9.949
85.76000 13.355
85.78000 12.516
85.80000 11.424
85.82000 10.541
85.84000 10.318
85.86000 11.680
85.88000 16.211
85.90000 20.260
85.92000 21.695
85.94000 17.720
85.96000 21.155
85.98000 24.216
86.00000 18.500
86.02000 15.134
86.04000 21.605
86.06000 21.572
86.08000 25.981
86.10000 21.526
86.12000 22.298
86.14000 25.236
86.16000 26.391
86.18000 21.780
86.20000 22.329
86.22000 28.801
86.24000 29.651
86.26000 30.168
86.28000 27.749
86.30000 28.669
86.32000 23.997
86.34000 24.001
86.36000 21.728
86.38000 20.615
86.40000 30.852
86.42000 39.041
86.44000 33.825
86.46000 34.131
86.48000 27.939
86.50000 30.132
86.52000 30.080
86.54000 30.058
86.56000 29.085
86.58000 26.294
86.60000 24.482
86.62000 33.784
86.64000 30.610
86.66000 35.747
86.68000 34.089
86.70000 31.779
86.72000 28.927
86.74000 33.116
86.76000 33.450
86.78000 29.777
86.80000 29.375
86.82000 29.891
86.84000 24.936
86.86000 25.810
86.88000 30.762
86.90000 27.684
86.92000 32.754
86.94000 25.908
86.96000 26.113
86.98000 27.601
87.00000 24.229
87.02000 20.178
87.04000 22.614
87.06000 24.098
87.08000 18.161
87.10000 26.382
87.12000 26.253
87.14000 22.043
87.16000 15.262
87.18000 13.917
87.20000 19.003
87.22000 20.041
87.24000 14.282
87.26000 10.497
87.28000 9.413
87.30000 18.498
87.32000 15.496
87.34000 16.121
87.36000 14.172
87.38000 13.389
87.40000 10.827
87.42000 12.680
87.44000 13.548
87.46000 9.758
87.48000 12.920
87.50000 12.763
87.52000 11.914
87.54000 8.802
87.56000 12.767
87.58000 15.578
87.60000 7.778
87.62000 4.150
87.64000 3.633
87.66000 7.372
87.68000 9.746
87.70000 10.994
87.72000 12.437
87.74000 8.645
87.76000 5.952
87.78000 7.411
87.80000 3.771
87.82000 7.282
87.84000 6.953
87.86000 6.276
87.88000 2.844
87.90000 1.340
87.92000 2.569
87.94000 1.819
87.96000 3.868
87.98000 7.273
88.00000 7.667
88.02000 6.742
88.04000 5.871
88.06000 5.443
88.08000 8.257
88.10000 4.523
88.12000 5.129
88.14000 1.634
88.16000 0.416
88.18000 2.010
88.20000 0.650
88.22000 0.608
88.24000 3.789
88.26000 3.247
88.28000 0.445
88.30000 1.033
88.32000 0.634
88.34000 8.640
88.36000 1.588
88.38000 2.252
88.40000 7.217
88.42000 3.684
88.44000 -0.235
88.46000 0.840
88.48000 2.178
88.50000 2.248
88.52000 1.998
88.54000 1.532
88.56000 2.263
88.58000 2.716
88.60000 6.071
88.62000 7.791
88.64000 5.019
88.66000 0.836
88.68000 1.252
88.70000 7.343
88.72000 4.233
88.74000 2.920
88.76000 4.956
88.78000 5.019
88.80000 7.489
88.82000 6.285
88.84000 3.290
88.86000 -2.309
88.88000 7.236
88.90000 4.635
88.92000 5.255
88.94000 2.726
88.96000 5.003
88.98000 7.808
89.00000 7.859
89.02000 5.914
89.04000 7.984
89.06000 4.067
89.08000 4.497
89.10000 4.244
89.12000 2.934
89.14000 10.408
89.16000 0.811
89.18000 3.049
89.20000 5.816
89.22000 1.670
89.24000 2.151
89.26000 5.020
89.28000 1.960
89.30000 -2.317
89.32000 2.189
89.34000 0.195
89.36000 5.635
89.38000 9.981
89.40000 4.872
89.42000 2.210
89.44000 2.138
89.46000 2.429
89.48000 5.671
89.50000 3.481
89.52000 2.358
89.54000 4.579
89.56000 1.240
89.58000 4.065
89.60000 5.423
89.62000 -0.705
89.64000 1.241
89.66000 1.089
89.68000 1.671
89.70000 1.847
89.72000 1.805
89.74000 2.458
89.76000 2.939
89.78000 2.523
89.80000 5.027
89.82000 2.514
89.84000 3.225
89.86000 -0.496
89.88000 6.282
89.90000 3.296
89.92000 -1.388
89.94000 -2.229
89.96000 1.332
89.98000 0.653
90.00000 2.518
90.02000 7.162
90.04000 6.238
90.06000 5.594
90.08000 4.764
90.10000 7.615
90.12000 -1.354
90.14000 5.547
90.16000 6.560
90.18000 2.119
90.20000 1.698
90.22000 2.041
90.24000 -0.492
90.26000 -0.681
90.28000 5.226
90.30000 1.861
90.32000 2.271
90.34000 5.500
90.36000 2.756
90.38000 2.576
90.40000 6.827
90.42000 10.557
90.44000 2.007
90.46000 3.066
90.48000 3.184
90.50000 4.370
90.52000 5.238
90.54000 3.347
90.56000 2.123
90.58000 3.243
90.60000 2.354
90.62000 0.358
90.64000 -0.103
90.66000 -0.486
90.68000 -0.158
90.70000 -2.319
90.72000 -1.676
90.74000 3.232
90.76000 4.845
90.78000 4.261
90.80000 3.128
90.82000 0.934
90.84000 3.966
90.86000 3.821
90.88000 5.778
90.90000 2.944
90.92000 3.053
90.94000 4.681
90.96000 7.096
90.98000 5.140
91.00000 6.866
91.02000 3.089
91.04000 -0.153
91.06000 -2.318
91.08000 -2.020
91.10000 3.077
91.12000 6.988
91.14000 8.099
91.16000 10.076
91.18000 8.867
91.20000 4.137
91.22000 2.346
91.24000 4.168
91.26000 -0.854
91.28000 -0.347
91.30000 2.778
91.32000 5.020
91.34000 1.522
91.36000 1.797
91.38000 5.205
91.40000 4.968
91.42000 2.492
91.44000 0.266
91.46000 -1.662
91.48000 5.963
91.50000 6.957
91.52000 8.814
91.54000 4.237
91.56000 -0.652
91.58000 0.103
91.60000 0.187
91.62000 4.444
91.64000 5.723
91.66000 7.951
91.68000 5.217
91.70000 3.311
91.72000 6.346
91.74000 8.396
91.76000 0.241
91.78000 -0.477
91.80000 4.347
91.82000 4.896
91.84000 6.322
91.86000 6.159
91.88000 6.069
91.90000 4.395
91.92000 2.473
91.94000 1.581
91.96000 5.437
91.98000 5.747
92.00000 5.838
92.02000 5.402
92.04000 -2.293
92.06000 0.319
92.08000 3.907
92.10000 4.877
92.12000 6.788
92.14000 5.449
92.16000 5.041
92.18000 9.939
92.20000 6.020
92.22000 7.873
92.24000 4.723
92.26000 8.408
92.28000 6.736
92.30000 4.425
92.32000 -0.501
92.34000 -0.060
92.36000 0.474
92.38000 3.727
92.40000 3.438
92.42000 -1.898
92.44000 3.480
92.46000 1.939
92.48000 6.683
92.50000 10.308
92.52000 5.725
92.54000 3.084
92.56000 4.127
92.58000 1.262
92.60000 3.885
92.62000 9.753
92.64000 5.253
92.66000 5.377
92.68000 5.220
92.70000 -0.222
92.72000 -2.286
92.74000 2.523
92.76000 5.819
92.78000 2.149
92.80000 2.174
92.82000 4.753
92.84000 3.740
92.86000 3.056
92.88000 2.003
92.90000 -0.258
92.92000 0.241
92.94000 2.622
92.96000 1.869
92.98000 -1.849
93.00000 0.029
93.02000 3.554
93.04000 4.764
93.06000 6.583
93.08000 0.908
93.10000 5.249
93.12000 7.654
93.14000 2.020
93.16000 4.251
93.18000 5.799
93.20000 4.732
93.22000 0.114
93.24000 1.728
93.26000 0.799
93.28000 2.164
93.30000 2.089
93.32000 -1.084
93.34000 -0.814
93.36000 -1.157
93.38000 -0.676
93.40000 2.081
93.42000 0.041
93.44000 2.147
93.46000 1.074
93.48000 8.881
93.50000 -0.938
93.52000 1.577
93.54000 0.970
93.56000 6.000
93.58000 6.033
93.60000 -0.730
93.62000 0.602
93.64000 5.520
93.66000 10.329
93.68000 8.349
93.70000 4.718
93.72000 7.339
93.74000 3.733
93.76000 2.455
93.78000 2.360
93.80000 5.176
93.82000 8.248
93.84000 4.529
93.86000 3.994
93.88000 5.145
93.90000 6.567
93.92000 0.460
93.94000 2.173
93.96000 5.015
93.98000 7.825
94.00000 5.757
94.02000 6.332
94.04000 10.151
94.06000 7.096
94.08000 5.187
94.10000 3.810
94.12000 6.356
94.14000 3.979
94.16000 6.435
94.18000 5.868
94.20000 4.552
94.22000 5.094
94.24000 1.719
94.26000 5.547
94.28000 8.293
94.30000 7.315
94.32000 5.423
94.34000 1.652
94.36000 -0.620
94.38000 -0.877
94.40000 -2.337
94.42000 2.698
94.44000 3.877
94.46000 3.256
94.48000 1.673
94.50000 7.277
94.52000 6.212
94.54000 3.754
94.56000 1.525
94.58000 3.860
94.60000 6.711
94.62000 12.186
94.64000 10.693
94.66000 6.147
94.68000 4.491
94.70000 2.675
94.72000 2.828
94.74000 1.798
94.76000 3.807
94.78000 7.459
94.80000 8.486
94.82000 4.794
94.84000 5.196
94.86000 9.892
94.88000 8.579
94.90000 8.902
94.92000 11.536
94.94000 3.911
94.96000 1.566
94.98000 5.691
95.00000 3.504
95.02000 1.062
95.04000 4.053
95.06000 1.672
95.08000 2.124
95.10000 6.594
95.12000 5.257
95.14000 4.266
95.16000 7.169
95.18000 6.261
95.20000 2.371
95.22000 -1.928
95.24000 2.307
95.26000 2.006
95.28000 0.781
95.30000 1.358
95.32000 5.767
95.34000 7.101
95.36000 3.367
95.38000 9.199
95.40000 9.224
95.42000 0.677
95.44000 -2.318
95.46000 0.568
95.48000 8.897
95.50000 6.405
95.52000 2.000
95.54000 8.247
95.56000 4.763
95.58000 3.234
95.60000 0.081
95.62000 5.512
95.64000 8.146
95.66000 5.835
95.68000 3.398
95.70000 9.270
95.72000 6.335
95.74000 3.882
95.76000 1.294
95.78000 6.102
95.80000 0.019
95.82000 0.510
95.84000 3.287
95.86000 6.968
95.88000 11.501
95.90000 5.147
95.92000 1.370
95.94000 -0.464
95.96000 -1.972
95.98000 5.530
96.00000 2.821
96.02000 6.731
96.04000 7.735
96.06000 2.800
96.08000 4.593
96.10000 12.454
96.12000 13.016
96.14000 7.117
96.16000 8.969
96.18000 2.053
96.20000 3.653
96.22000 5.445
96.24000 7.467
96.26000 7.124
96.28000 1.916
96.30000 5.028
96.32000 1.374
96.34000 7.345
96.36000 8.342
96.38000 11.099
96.40000 6.489
96.42000 5.943
96.44000 10.500
96.46000 8.689
96.48000 7.372
96.50000 8.844
96.52000 8.486
96.54000 12.723
96.56000 10.500
96.58000 9.114
96.60000 5.909
96.62000 2.005
96.64000 0.469
96.66000 4.575
96.68000 11.719
96.70000 9.029
96.72000 12.908
96.74000 13.431
96.76000 15.939
96.78000 11.341
96.80000 11.110
96.82000 8.968
96.84000 3.008
96.86000 3.071
96.88000 3.757
96.90000 10.243
96.92000 5.086
96.94000 -2.279
96.96000 2.582
96.98000 8.318
97.00000 3.567
97.02000 2.523
97.04000 1.561
97.06000 -1.471
97.08000 9.640
97.10000 13.329
97.12000 9.720
97.14000 10.079
97.16000 5.378
97.18000 4.883
97.20000 2.429
97.22000 4.659
97.24000 9.450
97.26000 3.399
97.28000 -1.433
97.30000 3.308
97.32000 9.025
97.34000 9.316
97.36000 7.527
97.38000 15.769
97.40000 20.329
97.42000 5.559
97.44000 7.210
97.46000 5.708
97.48000 4.908
97.50000 3.204
97.52000 2.130
97.54000 10.533
97.56000 6.698
97.58000 6.545
97.60000 10.027
97.62000 6.902
97.64000 4.308
97.66000 5.464
97.68000 7.717
97.70000 9.965
97.72000 4.591
97.74000 1.334
97.76000 4.904
97.78000 6.859
97.80000 7.773
97.82000 5.363
97.84000 3.129
97.86000 5.128
97.88000 13.369
97.90000 8.273
97.92000 2.423
97.94000 5.442
97.96000 1.219
97.98000 0.407
98.00000 4.584
98.02000 7.064
98.04000 6.665
98.06000 3.152
98.08000 3.391
98.10000 1.881
98.12000 1.040
98.14000 -1.004
98.16000 1.886
98.18000 12.647
98.20000 14.736
98.22000 5.929
98.24000 -0.017
98.26000 2.127
98.28000 4.077
98.30000 6.547
98.32000 8.111
98.34000 10.380
98.36000 1.375
98.38000 -1.791
98.40000 -2.298
98.42000 -1.155
98.44000 2.124
98.46000 8.105
98.48000 5.184
98.50000 0.887
98.52000 4.723
98.54000 4.841
98.56000 6.435
98.58000 9.717
98.60000 9.209
98.62000 4.926
98.64000 -2.061
98.66000 7.613
98.68000 -0.379
98.70000 6.238
98.72000 4.116
98.74000 0.697
98.76000 8.188
98.78000 12.275
98.80000 3.737
98.82000 4.250
98.84000 -0.289
98.86000 2.899
98.88000 6.721
98.90000 14.009
98.92000 9.985
98.94000 5.495
98.96000 2.772
98.98000 7.573
99.00000 8.318
99.02000 7.747
99.04000 4.849
99.06000 8.239
99.08000 10.729
99.10000 -0.438
99.12000 3.214
99.14000 -4.936
99.16000 8.482
99.18000 9.140
99.20000 5.497
99.22000 6.430
99.24000 2.950
99.26000 -3.354
99.28000 21.691
99.30000 10.665
99.32000 0.128
99.34000 1.724
99.36000 3.863
99.38000 4.457
99.40000 7.155
99.42000 6.354
99.44000 1.158
99.46000 8.486
99.48000 17.857
99.50000 6.076
99.52000 8.380
99.54000 10.181
99.56000 6.462
99.58000 -1.305
99.60000 5.292
99.62000 5.912
99.64000 0.168
99.66000 -2.265
99.68000 3.549
99.70000 -3.521
99.72000 10.648
99.74000 10.974
99.76000 2.539
99.78000 5.255
99.80000 2.065
99.82000 1.988
99.84000 -2.302
99.86000 2.809
99.88000 1.822
99.90000 -2.406
99.92000 1.341
99.94000 6.938
99.96000 6.645
99.98000 0.000
