'Id: "0011388" Comment: "Integrate frame 0011388_Au-Ir-Rh_Rh-rich_XRD-Mapping-179-0000.gfrmwith cursor Wedge Cursor #5" Operator: "B?rgel" Anode: "Cu" Wavelength: "1.5406" Scantype: "2Theta (TwoTheta)" TimePerStep: "1" X: "-40.5" Y: "4.5" Z: "5.95" 
10.00000 0.000
10.02000 3.642
10.04000 6.540
10.06000 15.338
10.08000 20.911
10.10000 10.324
10.12000 0.009
10.14000 -1.952
10.16000 14.991
10.18000 10.464
10.20000 -4.452
10.22000 2.426
10.24000 14.626
10.26000 13.420
10.28000 16.221
10.30000 30.067
10.32000 21.212
10.34000 21.627
10.36000 31.252
10.38000 19.186
10.40000 7.404
10.42000 22.817
10.44000 20.150
10.46000 15.107
10.48000 22.875
10.50000 5.179
10.52000 2.091
10.54000 5.560
10.56000 28.470
10.58000 31.745
10.60000 15.376
10.62000 17.634
10.64000 22.645
10.66000 15.665
10.68000 5.334
10.70000 -3.945
10.72000 2.362
10.74000 10.979
10.76000 23.084
10.78000 31.903
10.80000 20.972
10.82000 1.022
10.84000 27.205
10.86000 0.184
10.88000 -0.332
10.90000 9.751
10.92000 21.211
10.94000 16.897
10.96000 20.481
10.98000 24.707
11.00000 4.322
11.02000 26.032
11.04000 14.026
11.06000 5.012
11.08000 14.994
11.10000 26.171
11.12000 28.025
11.14000 20.940
11.16000 15.267
11.18000 10.238
11.20000 30.474
11.22000 20.124
11.24000 14.570
11.26000 25.260
11.28000 26.213
11.30000 20.779
11.32000 17.064
11.34000 3.427
11.36000 9.922
11.38000 5.334
11.40000 11.491
11.42000 -4.480
11.44000 -3.352
11.46000 6.615
11.48000 12.773
11.50000 14.954
11.52000 9.634
11.54000 13.845
11.56000 6.375
11.58000 1.140
11.60000 18.434
11.62000 13.765
11.64000 4.052
11.66000 -0.688
11.68000 4.917
11.70000 9.569
11.72000 5.968
11.74000 4.512
11.76000 3.297
11.78000 0.007
11.80000 13.457
11.82000 13.805
11.84000 21.048
11.86000 11.592
11.88000 15.791
11.90000 15.346
11.92000 4.920
11.94000 8.516
11.96000 3.362
11.98000 -1.558
12.00000 3.192
12.02000 3.649
12.04000 6.999
12.06000 13.960
12.08000 6.445
12.10000 11.137
12.12000 17.492
12.14000 15.299
12.16000 7.987
12.18000 5.503
12.20000 4.249
12.22000 4.562
12.24000 7.703
12.26000 7.648
12.28000 11.679
12.30000 12.864
12.32000 16.379
12.34000 13.374
12.36000 7.988
12.38000 7.933
12.40000 8.606
12.42000 11.603
12.44000 9.339
12.46000 12.245
12.48000 12.615
12.50000 2.110
12.52000 10.310
12.54000 5.236
12.56000 4.344
12.58000 -0.504
12.60000 12.310
12.62000 11.134
12.64000 10.601
12.66000 8.573
12.68000 9.971
12.70000 4.995
12.72000 4.073
12.74000 8.828
12.76000 2.837
12.78000 -0.869
12.80000 2.812
12.82000 7.474
12.84000 9.734
12.86000 -4.249
12.88000 -3.081
12.90000 2.402
12.92000 0.396
12.94000 2.587
12.96000 3.497
12.98000 12.912
13.00000 7.320
13.02000 -0.662
13.04000 21.128
13.06000 25.750
13.08000 14.999
13.10000 13.474
13.12000 5.542
13.14000 0.034
13.16000 2.976
13.18000 0.754
13.20000 4.057
13.22000 11.954
13.24000 8.626
13.26000 13.507
13.28000 10.977
13.30000 8.305
13.32000 11.204
13.34000 2.660
13.36000 -0.480
13.38000 5.272
13.40000 6.803
13.42000 15.795
13.44000 15.712
13.46000 7.526
13.48000 8.657
13.50000 8.941
13.52000 7.876
13.54000 13.299
13.56000 10.754
13.58000 12.200
13.60000 14.075
13.62000 7.872
13.64000 8.684
13.66000 6.682
13.68000 17.064
13.70000 12.222
13.72000 10.707
13.74000 11.971
13.76000 2.899
13.78000 3.261
13.80000 5.655
13.82000 11.536
13.84000 12.686
13.86000 13.874
13.88000 14.056
13.90000 6.492
13.92000 4.254
13.94000 3.209
13.96000 12.106
13.98000 12.130
14.00000 9.025
14.02000 16.331
14.04000 15.484
14.06000 13.663
14.08000 14.374
14.10000 6.924
14.12000 2.363
14.14000 8.707
14.16000 10.547
14.18000 1.179
14.20000 5.776
14.22000 13.085
14.24000 6.193
14.26000 15.658
14.28000 14.276
14.30000 11.247
14.32000 5.796
14.34000 13.096
14.36000 4.071
14.38000 -1.576
14.40000 7.769
14.42000 19.786
14.44000 14.252
14.46000 8.364
14.48000 0.848
14.50000 11.402
14.52000 10.775
14.54000 1.656
14.56000 1.052
14.58000 10.057
14.60000 6.456
14.62000 12.549
14.64000 2.011
14.66000 2.136
14.68000 7.598
14.70000 13.058
14.72000 10.217
14.74000 -0.473
14.76000 -4.436
14.78000 10.868
14.80000 1.097
14.82000 1.416
14.84000 -3.490
14.86000 7.029
14.88000 10.867
14.90000 3.902
14.92000 2.795
14.94000 7.685
14.96000 8.422
14.98000 11.851
15.00000 7.781
15.02000 6.791
15.04000 8.664
15.06000 11.998
15.08000 14.255
15.10000 6.900
15.12000 -0.399
15.14000 3.368
15.16000 14.655
15.18000 22.831
15.20000 14.600
15.22000 11.154
15.24000 10.262
15.26000 9.693
15.28000 9.694
15.30000 15.989
15.32000 17.169
15.34000 16.152
15.36000 13.018
15.38000 19.189
15.40000 12.578
15.42000 5.252
15.44000 7.244
15.46000 15.804
15.48000 12.933
15.50000 8.230
15.52000 5.753
15.54000 11.047
15.56000 14.188
15.58000 6.122
15.60000 2.414
15.62000 6.679
15.64000 4.772
15.66000 9.322
15.68000 7.522
15.70000 11.441
15.72000 4.659
15.74000 -1.314
15.76000 -3.252
15.78000 1.797
15.80000 4.414
15.82000 6.860
15.84000 5.051
15.86000 12.126
15.88000 2.688
15.90000 -0.411
15.92000 9.490
15.94000 13.355
15.96000 9.787
15.98000 4.213
16.00000 -1.613
16.02000 2.258
16.04000 1.370
16.06000 -3.455
16.08000 0.257
16.10000 2.019
16.12000 9.743
16.14000 14.123
16.16000 2.804
16.18000 -2.826
16.20000 7.143
16.22000 16.375
16.24000 8.220
16.26000 -0.298
16.28000 6.505
16.30000 4.138
16.32000 7.506
16.34000 8.504
16.36000 6.165
16.38000 2.645
16.40000 7.457
16.42000 4.174
16.44000 3.649
16.46000 7.927
16.48000 8.445
16.50000 4.347
16.52000 10.083
16.54000 5.586
16.56000 5.383
16.58000 7.637
16.60000 2.970
16.62000 0.216
16.64000 4.071
16.66000 11.057
16.68000 2.784
16.70000 -4.397
16.72000 -1.490
16.74000 5.424
16.76000 3.337
16.78000 4.325
16.80000 11.121
16.82000 2.479
16.84000 5.492
16.86000 8.328
16.88000 6.610
16.90000 15.312
16.92000 12.928
16.94000 6.035
16.96000 6.555
16.98000 4.111
17.00000 8.397
17.02000 9.871
17.04000 5.656
17.06000 9.703
17.08000 4.474
17.10000 8.098
17.12000 4.732
17.14000 0.955
17.16000 -2.123
17.18000 -2.302
17.20000 0.576
17.22000 5.773
17.24000 10.565
17.26000 11.764
17.28000 6.017
17.30000 3.662
17.32000 0.853
17.34000 5.154
17.36000 13.510
17.38000 10.925
17.40000 4.104
17.42000 0.472
17.44000 4.428
17.46000 5.539
17.48000 7.901
17.50000 2.754
17.52000 4.741
17.54000 3.322
17.56000 -0.802
17.58000 4.289
17.60000 10.636
17.62000 8.223
17.64000 1.199
17.66000 5.079
17.68000 5.616
17.70000 15.447
17.72000 13.931
17.74000 8.159
17.76000 4.028
17.78000 -4.334
17.80000 1.721
17.82000 6.759
17.84000 9.030
17.86000 3.980
17.88000 4.772
17.90000 5.856
17.92000 1.682
17.94000 0.866
17.96000 11.211
17.98000 10.224
18.00000 9.321
18.02000 10.125
18.04000 3.519
18.06000 -4.321
18.08000 -4.205
18.10000 -0.272
18.12000 3.532
18.14000 3.319
18.16000 -3.415
18.18000 2.559
18.20000 6.566
18.22000 0.833
18.24000 0.056
18.26000 13.644
18.28000 11.274
18.30000 5.935
18.32000 3.840
18.34000 4.768
18.36000 10.305
18.38000 5.169
18.40000 -0.813
18.42000 3.158
18.44000 6.552
18.46000 4.739
18.48000 1.056
18.50000 7.141
18.52000 7.518
18.54000 7.696
18.56000 5.863
18.58000 6.538
18.60000 5.756
18.62000 -0.050
18.64000 6.274
18.66000 4.602
18.68000 8.865
18.70000 9.367
18.72000 7.429
18.74000 1.271
18.76000 3.441
18.78000 2.615
18.80000 0.958
18.82000 1.087
18.84000 3.399
18.86000 5.514
18.88000 4.926
18.90000 2.448
18.92000 5.283
18.94000 4.453
18.96000 1.889
18.98000 1.792
19.00000 7.921
19.02000 3.885
19.04000 -0.177
19.06000 0.940
19.08000 3.495
19.10000 8.991
19.12000 10.839
19.14000 8.685
19.16000 8.003
19.18000 2.795
19.20000 -0.794
19.22000 -3.929
19.24000 1.049
19.26000 5.274
19.28000 4.592
19.30000 3.351
19.32000 1.724
19.34000 4.178
19.36000 7.947
19.38000 9.524
19.40000 6.870
19.42000 2.538
19.44000 0.615
19.46000 1.874
19.48000 -3.098
19.50000 1.073
19.52000 5.097
19.54000 3.034
19.56000 -0.764
19.58000 -0.037
19.60000 -1.451
19.62000 -4.245
19.64000 0.556
19.66000 4.059
19.68000 6.227
19.70000 1.504
19.72000 2.276
19.74000 5.309
19.76000 6.682
19.78000 2.269
19.80000 4.766
19.82000 5.553
19.84000 11.595
19.86000 10.508
19.88000 8.240
19.90000 9.254
19.92000 4.565
19.94000 4.574
19.96000 3.210
19.98000 -1.031
20.00000 3.425
20.02000 4.649
20.04000 -0.451
20.06000 3.601
20.08000 5.014
20.10000 10.370
20.12000 2.622
20.14000 0.267
20.16000 8.539
20.18000 10.679
20.20000 8.128
20.22000 4.816
20.24000 -2.900
20.26000 -2.516
20.28000 -0.985
20.30000 2.931
20.32000 5.177
20.34000 -1.575
20.36000 2.531
20.38000 5.283
20.40000 5.516
20.42000 3.350
20.44000 0.669
20.46000 6.505
20.48000 6.382
20.50000 -0.786
20.52000 7.636
20.54000 10.186
20.56000 4.755
20.58000 5.377
20.60000 8.712
20.62000 4.514
20.64000 4.757
20.66000 -2.557
20.68000 2.531
20.70000 4.744
20.72000 0.308
20.74000 4.065
20.76000 6.872
20.78000 7.369
20.80000 5.014
20.82000 3.769
20.84000 2.528
20.86000 -4.173
20.88000 -0.241
20.90000 6.414
20.92000 7.742
20.94000 7.027
20.96000 4.977
20.98000 7.043
21.00000 6.522
21.02000 9.644
21.04000 -1.766
21.06000 -0.337
21.08000 7.049
21.10000 5.332
21.12000 7.201
21.14000 4.196
21.16000 2.065
21.18000 5.133
21.20000 5.525
21.22000 5.219
21.24000 9.853
21.26000 7.275
21.28000 7.768
21.30000 4.532
21.32000 1.149
21.34000 3.967
21.36000 8.439
21.38000 2.928
21.40000 3.847
21.42000 9.852
21.44000 9.521
21.46000 3.559
21.48000 5.639
21.50000 9.298
21.52000 8.144
21.54000 -4.115
21.56000 0.331
21.58000 6.290
21.60000 2.506
21.62000 3.491
21.64000 7.650
21.66000 8.709
21.68000 12.798
21.70000 11.582
21.72000 6.501
21.74000 5.577
21.76000 4.114
21.78000 3.494
21.80000 7.141
21.82000 16.522
21.84000 14.317
21.86000 7.017
21.88000 3.497
21.90000 4.856
21.92000 9.055
21.94000 7.578
21.96000 3.298
21.98000 6.059
22.00000 9.471
22.02000 6.562
22.04000 -0.110
22.06000 2.371
22.08000 8.370
22.10000 8.962
22.12000 5.434
22.14000 7.840
22.16000 9.573
22.18000 3.277
22.20000 5.185
22.22000 10.531
22.24000 16.342
22.26000 9.081
22.28000 0.213
22.30000 -0.158
22.32000 2.008
22.34000 6.268
22.36000 4.538
22.38000 6.739
22.40000 8.841
22.42000 3.490
22.44000 -0.848
22.46000 -3.249
22.48000 5.398
22.50000 0.945
22.52000 -0.051
22.54000 8.857
22.56000 2.963
22.58000 0.641
22.60000 -3.189
22.62000 4.052
22.64000 2.172
22.66000 5.421
22.68000 -0.144
22.70000 1.454
22.72000 5.850
22.74000 4.541
22.76000 5.476
22.78000 5.072
22.80000 0.483
22.82000 4.907
22.84000 0.900
22.86000 -3.512
22.88000 4.160
22.90000 7.041
22.92000 6.556
22.94000 4.006
22.96000 6.064
22.98000 8.104
23.00000 10.687
23.02000 10.400
23.04000 -1.584
23.06000 3.548
23.08000 9.073
23.10000 4.466
23.12000 -0.868
23.14000 4.388
23.16000 3.642
23.18000 -0.082
23.20000 11.694
23.22000 5.424
23.24000 0.850
23.26000 5.832
23.28000 3.580
23.30000 -2.100
23.32000 0.941
23.34000 2.824
23.36000 4.822
23.38000 5.383
23.40000 3.872
23.42000 6.557
23.44000 10.458
23.46000 1.762
23.48000 -2.549
23.50000 -2.881
23.52000 0.464
23.54000 3.672
23.56000 8.094
23.58000 7.741
23.60000 7.753
23.62000 6.367
23.64000 4.870
23.66000 5.610
23.68000 6.388
23.70000 8.269
23.72000 11.136
23.74000 9.104
23.76000 11.237
23.78000 5.334
23.80000 9.820
23.82000 12.099
23.84000 10.047
23.86000 8.915
23.88000 5.215
23.90000 1.065
23.92000 1.454
23.94000 6.850
23.96000 7.907
23.98000 5.871
24.00000 5.492
24.02000 2.920
24.04000 -1.681
24.06000 13.589
24.08000 13.913
24.10000 4.196
24.12000 -3.957
24.14000 5.157
24.16000 1.732
24.18000 -0.526
24.20000 7.698
24.22000 12.009
24.24000 9.638
24.26000 9.485
24.28000 5.861
24.30000 5.258
24.32000 -3.666
24.34000 -2.952
24.36000 3.771
24.38000 4.759
24.40000 2.982
24.42000 0.482
24.44000 0.773
24.46000 5.863
24.48000 1.087
24.50000 0.985
24.52000 2.934
24.54000 4.949
24.56000 7.942
24.58000 1.514
24.60000 2.050
24.62000 4.403
24.64000 3.116
24.66000 8.723
24.68000 6.768
24.70000 6.527
24.72000 4.769
24.74000 1.603
24.76000 5.890
24.78000 13.756
24.80000 15.970
24.82000 11.468
24.84000 6.511
24.86000 2.970
24.88000 9.373
24.90000 6.899
24.92000 0.460
24.94000 2.300
24.96000 7.322
24.98000 9.313
25.00000 7.129
25.02000 11.837
25.04000 12.167
25.06000 5.899
25.08000 7.023
25.10000 9.163
25.12000 11.448
25.14000 8.966
25.16000 5.034
25.18000 -0.153
25.20000 2.422
25.22000 7.757
25.24000 8.733
25.26000 7.141
25.28000 5.571
25.30000 4.185
25.32000 -3.899
25.34000 -0.986
25.36000 6.324
25.38000 5.999
25.40000 3.604
25.42000 3.149
25.44000 3.718
25.46000 5.763
25.48000 5.442
25.50000 7.863
25.52000 7.697
25.54000 9.893
25.56000 12.863
25.58000 5.125
25.60000 1.329
25.62000 2.721
25.64000 3.090
25.66000 1.507
25.68000 7.709
25.70000 1.151
25.72000 6.544
25.74000 3.706
25.76000 4.401
25.78000 10.878
25.80000 10.825
25.82000 5.320
25.84000 -3.878
25.86000 -0.569
25.88000 0.692
25.90000 3.509
25.92000 1.681
25.94000 4.218
25.96000 3.154
25.98000 4.625
26.00000 5.060
26.02000 2.958
26.04000 4.711
26.06000 5.295
26.08000 8.002
26.10000 1.202
26.12000 3.010
26.14000 2.245
26.16000 2.819
26.18000 0.572
26.20000 2.161
26.22000 3.231
26.24000 8.002
26.26000 10.816
26.28000 3.789
26.30000 5.390
26.32000 4.706
26.34000 4.329
26.36000 2.500
26.38000 1.978
26.40000 4.659
26.42000 8.980
26.44000 6.253
26.46000 1.489
26.48000 1.887
26.50000 6.675
26.52000 5.153
26.54000 1.281
26.56000 -1.117
26.58000 1.124
26.60000 4.402
26.62000 -1.471
26.64000 -1.966
26.66000 -1.546
26.68000 2.981
26.70000 6.261
26.72000 6.981
26.74000 3.604
26.76000 -1.620
26.78000 1.242
26.80000 4.584
26.82000 4.774
26.84000 4.627
26.86000 7.183
26.88000 6.127
26.90000 -0.397
26.92000 0.329
26.94000 3.609
26.96000 1.709
26.98000 -2.961
27.00000 -2.408
27.02000 -0.502
27.04000 4.591
27.06000 6.532
27.08000 3.460
27.10000 0.991
27.12000 4.897
27.14000 3.109
27.16000 -0.449
27.18000 2.104
27.20000 9.424
27.22000 8.143
27.24000 2.903
27.26000 3.781
27.28000 4.073
27.30000 -1.619
27.32000 0.266
27.34000 3.663
27.36000 4.596
27.38000 0.812
27.40000 0.292
27.42000 -1.938
27.44000 0.581
27.46000 1.073
27.48000 2.283
27.50000 2.017
27.52000 3.874
27.54000 1.495
27.56000 0.386
27.58000 3.147
27.60000 5.707
27.62000 3.241
27.64000 6.015
27.66000 7.930
27.68000 8.839
27.70000 3.337
27.72000 1.111
27.74000 6.239
27.76000 6.324
27.78000 5.591
27.80000 1.806
27.82000 -3.499
27.84000 -1.223
27.86000 3.349
27.88000 3.754
27.90000 0.725
27.92000 -0.335
27.94000 -0.786
27.96000 -1.228
27.98000 1.175
28.00000 1.974
28.02000 2.433
28.04000 -2.861
28.06000 0.139
28.08000 -1.109
28.10000 3.326
28.12000 8.652
28.14000 7.201
28.16000 3.613
28.18000 3.311
28.20000 1.440
28.22000 2.230
28.24000 4.409
28.26000 4.535
28.28000 3.856
28.30000 5.796
28.32000 5.007
28.34000 6.683
28.36000 3.115
28.38000 -3.758
28.40000 -0.906
28.42000 4.792
28.44000 7.115
28.46000 8.316
28.48000 4.523
28.50000 3.490
28.52000 0.680
28.54000 4.279
28.56000 4.062
28.58000 4.936
28.60000 3.568
28.62000 4.930
28.64000 6.398
28.66000 2.444
28.68000 2.482
28.70000 3.448
28.72000 10.239
28.74000 12.638
28.76000 6.942
28.78000 1.795
28.80000 1.252
28.82000 1.601
28.84000 3.668
28.86000 5.266
28.88000 1.740
28.90000 2.419
28.92000 2.474
28.94000 3.939
28.96000 0.568
28.98000 0.742
29.00000 1.746
29.02000 -1.589
29.04000 0.613
29.06000 3.944
29.08000 3.302
29.10000 5.835
29.12000 1.726
29.14000 -2.351
29.16000 -3.716
29.18000 1.787
29.20000 0.209
29.22000 0.565
29.24000 4.225
29.26000 4.310
29.28000 4.464
29.30000 6.078
29.32000 6.553
29.34000 14.241
29.36000 8.694
29.38000 6.413
29.40000 4.460
29.42000 7.739
29.44000 8.433
29.46000 7.149
29.48000 2.152
29.50000 1.945
29.52000 0.721
29.54000 3.068
29.56000 2.089
29.58000 6.191
29.60000 3.964
29.62000 4.944
29.64000 2.810
29.66000 0.814
29.68000 2.526
29.70000 2.674
29.72000 1.269
29.74000 1.920
29.76000 2.524
29.78000 4.682
29.80000 4.263
29.82000 3.692
29.84000 3.736
29.86000 4.552
29.88000 5.953
29.90000 7.809
29.92000 4.114
29.94000 2.548
29.96000 3.905
29.98000 1.374
30.00000 5.336
30.02000 -2.649
30.04000 -0.377
30.06000 0.477
30.08000 3.876
30.10000 3.614
30.12000 1.770
30.14000 5.765
30.16000 5.963
30.18000 4.055
30.20000 1.512
30.22000 0.754
30.24000 3.988
30.26000 4.794
30.28000 3.330
30.30000 1.705
30.32000 3.369
30.34000 5.554
30.36000 4.102
30.38000 6.801
30.40000 5.354
30.42000 -3.657
30.44000 -0.009
30.46000 3.259
30.48000 3.246
30.50000 -0.176
30.52000 -1.911
30.54000 2.369
30.56000 7.799
30.58000 5.875
30.60000 3.987
30.62000 3.801
30.64000 2.339
30.66000 1.054
30.68000 2.240
30.70000 3.360
30.72000 2.205
30.74000 1.413
30.76000 -3.035
30.78000 -3.120
30.80000 4.331
30.82000 5.150
30.84000 3.573
30.86000 6.468
30.88000 5.974
30.90000 3.614
30.92000 -0.301
30.94000 -1.723
30.96000 -3.643
30.98000 3.191
31.00000 5.892
31.02000 4.517
31.04000 0.709
31.06000 3.557
31.08000 4.492
31.10000 2.799
31.12000 1.230
31.14000 0.948
31.16000 3.728
31.18000 1.071
31.20000 -1.715
31.22000 0.640
31.24000 0.167
31.26000 4.909
31.28000 4.165
31.30000 2.400
31.32000 3.667
31.34000 3.504
31.36000 5.285
31.38000 4.634
31.40000 3.729
31.42000 0.728
31.44000 1.341
31.46000 4.352
31.48000 3.954
31.50000 -1.509
31.52000 -1.309
31.54000 4.126
31.56000 0.607
31.58000 2.051
31.60000 2.383
31.62000 1.610
31.64000 5.881
31.66000 4.382
31.68000 2.652
31.70000 1.710
31.72000 2.254
31.74000 3.486
31.76000 5.150
31.78000 5.762
31.80000 3.334
31.82000 3.661
31.84000 6.710
31.86000 6.801
31.88000 0.174
31.90000 0.086
31.92000 -1.085
31.94000 1.117
31.96000 2.754
31.98000 1.496
32.00000 -3.609
32.02000 -0.062
32.04000 6.445
32.06000 0.696
32.08000 2.957
32.10000 1.277
32.12000 -0.219
32.14000 0.798
32.16000 1.389
32.18000 2.397
32.20000 0.279
32.22000 -0.691
32.24000 0.966
32.26000 3.934
32.28000 0.290
32.30000 -1.908
32.32000 4.180
32.34000 6.793
32.36000 4.587
32.38000 -0.543
32.40000 -1.872
32.42000 4.683
32.44000 4.613
32.46000 2.241
32.48000 0.784
32.50000 -2.243
32.52000 1.669
32.54000 -0.174
32.56000 -2.552
32.58000 -3.235
32.60000 -1.877
32.62000 6.032
32.64000 10.314
32.66000 6.325
32.68000 -1.775
32.70000 -1.679
32.72000 2.631
32.74000 -0.526
32.76000 5.184
32.78000 1.101
32.80000 0.832
32.82000 2.592
32.84000 2.274
32.86000 1.374
32.88000 3.235
32.90000 4.325
32.92000 7.530
32.94000 9.735
32.96000 5.569
32.98000 -0.195
33.00000 1.095
33.02000 -0.184
33.04000 2.716
33.06000 4.095
33.08000 0.460
33.10000 -3.553
33.12000 2.877
33.14000 7.998
33.16000 5.595
33.18000 3.484
33.20000 5.225
33.22000 5.040
33.24000 3.079
33.26000 0.975
33.28000 2.802
33.30000 6.315
33.32000 5.654
33.34000 1.324
33.36000 2.713
33.38000 7.270
33.40000 6.995
33.42000 4.300
33.44000 2.541
33.46000 0.461
33.48000 4.274
33.50000 4.909
33.52000 3.076
33.54000 2.833
33.56000 1.162
33.58000 4.370
33.60000 5.886
33.62000 5.521
33.64000 0.660
33.66000 -3.516
33.68000 2.999
33.70000 11.244
33.72000 4.412
33.74000 -1.472
33.76000 1.054
33.78000 1.209
33.80000 3.847
33.82000 1.627
33.84000 3.677
33.86000 4.171
33.88000 2.505
33.90000 0.132
33.92000 4.670
33.94000 1.447
33.96000 1.417
33.98000 3.453
34.00000 4.122
34.02000 4.178
34.04000 4.231
34.06000 2.894
34.08000 -0.021
34.10000 -3.082
34.12000 3.029
34.14000 5.505
34.16000 3.716
34.18000 5.562
34.20000 5.764
34.22000 6.400
34.24000 7.326
34.26000 4.452
34.28000 4.919
34.30000 5.267
34.32000 0.043
34.34000 0.398
34.36000 4.287
34.38000 6.978
34.40000 6.031
34.42000 6.431
34.44000 8.161
34.46000 5.297
34.48000 2.140
34.50000 0.768
34.52000 1.034
34.54000 -3.539
34.56000 -1.986
34.58000 4.025
34.60000 10.377
34.62000 7.069
34.64000 8.890
34.66000 8.343
34.68000 -0.862
34.70000 -0.584
34.72000 7.125
34.74000 4.962
34.76000 3.376
34.78000 3.223
34.80000 -0.397
34.82000 2.406
34.84000 2.893
34.86000 5.856
34.88000 2.407
34.90000 5.424
34.92000 2.513
34.94000 1.516
34.96000 4.333
34.98000 3.782
35.00000 5.309
35.02000 2.554
35.04000 0.757
35.06000 -3.540
35.08000 -1.714
35.10000 2.731
35.12000 1.324
35.14000 2.507
35.16000 3.842
35.18000 3.360
35.20000 -1.862
35.22000 -1.713
35.24000 -3.311
35.26000 -1.723
35.28000 0.221
35.30000 5.337
35.32000 4.064
35.34000 2.340
35.36000 -1.824
35.38000 0.837
35.40000 0.310
35.42000 2.810
35.44000 0.476
35.46000 2.771
35.48000 2.119
35.50000 4.112
35.52000 2.422
35.54000 3.761
35.56000 5.382
35.58000 3.216
35.60000 -0.732
35.62000 -3.528
35.64000 0.399
35.66000 3.755
35.68000 3.373
35.70000 0.255
35.72000 -2.912
35.74000 -2.754
35.76000 -2.269
35.78000 -1.151
35.80000 -2.016
35.82000 -2.421
35.84000 0.937
35.86000 -0.909
35.88000 -0.366
35.90000 4.739
35.92000 2.814
35.94000 5.095
35.96000 4.778
35.98000 4.471
36.00000 4.484
36.02000 4.151
36.04000 -0.549
36.06000 4.489
36.08000 5.686
36.10000 3.678
36.12000 1.138
36.14000 1.601
36.16000 1.002
36.18000 -1.831
36.20000 -1.020
36.22000 -1.228
36.24000 0.054
36.26000 1.802
36.28000 0.965
36.30000 -2.063
36.32000 -3.540
36.34000 2.589
36.36000 4.265
36.38000 0.014
36.40000 -0.700
36.42000 2.757
36.44000 3.207
36.46000 0.008
36.48000 -3.543
36.50000 1.525
36.52000 5.464
36.54000 3.537
36.56000 2.548
36.58000 -0.365
36.60000 2.208
36.62000 3.330
36.64000 2.842
36.66000 4.057
36.68000 4.169
36.70000 5.057
36.72000 4.536
36.74000 4.237
36.76000 3.738
36.78000 -0.936
36.80000 2.253
36.82000 7.684
36.84000 3.899
36.86000 -1.690
36.88000 -0.207
36.90000 -0.779
36.92000 4.647
36.94000 3.537
36.96000 3.838
36.98000 3.206
37.00000 4.571
37.02000 -2.186
37.04000 -0.418
37.06000 4.992
37.08000 4.583
37.10000 4.899
37.12000 4.083
37.14000 3.205
37.16000 7.742
37.18000 3.055
37.20000 -2.887
37.22000 0.617
37.24000 4.964
37.26000 7.090
37.28000 6.077
37.30000 8.774
37.32000 5.719
37.34000 -2.441
37.36000 -3.605
37.38000 0.685
37.40000 3.161
37.42000 -0.927
37.44000 0.557
37.46000 2.846
37.48000 2.606
37.50000 1.862
37.52000 -0.479
37.54000 -1.987
37.56000 3.325
37.58000 5.618
37.60000 3.900
37.62000 5.032
37.64000 7.412
37.66000 8.625
37.68000 8.503
37.70000 4.352
37.72000 1.800
37.74000 8.314
37.76000 8.395
37.78000 12.463
37.80000 13.205
37.82000 8.073
37.84000 6.231
37.86000 10.583
37.88000 11.344
37.90000 11.823
37.92000 8.924
37.94000 6.800
37.96000 10.298
37.98000 10.050
38.00000 8.620
38.02000 9.466
38.04000 11.075
38.06000 12.529
38.08000 8.384
38.10000 10.331
38.12000 14.541
38.14000 15.921
38.16000 19.135
38.18000 19.169
38.20000 20.259
38.22000 17.643
38.24000 15.702
38.26000 15.637
38.28000 17.298
38.30000 18.713
38.32000 17.934
38.34000 21.546
38.36000 22.814
38.38000 20.784
38.40000 21.301
38.42000 22.238
38.44000 26.963
38.46000 21.421
38.48000 24.246
38.50000 23.559
38.52000 21.089
38.54000 26.294
38.56000 23.254
38.58000 22.940
38.60000 26.167
38.62000 29.831
38.64000 29.305
38.66000 32.418
38.68000 36.127
38.70000 39.646
38.72000 40.930
38.74000 37.965
38.76000 40.804
38.78000 39.735
38.80000 41.970
38.82000 43.207
38.84000 46.705
38.86000 52.688
38.88000 49.675
38.90000 54.736
38.92000 57.433
38.94000 55.197
38.96000 55.315
38.98000 64.514
39.00000 70.648
39.02000 71.923
39.04000 69.501
39.06000 71.937
39.08000 72.109
39.10000 74.552
39.12000 72.399
39.14000 79.029
39.16000 83.661
39.18000 91.077
39.20000 92.641
39.22000 97.339
39.24000 104.751
39.26000 105.092
39.28000 113.163
39.30000 117.545
39.32000 119.635
39.34000 126.652
39.36000 132.810
39.38000 138.747
39.40000 146.307
39.42000 153.098
39.44000 167.471
39.46000 169.212
39.48000 174.338
39.50000 185.843
39.52000 193.339
39.54000 210.258
39.56000 220.385
39.58000 226.375
39.60000 240.954
39.62000 251.475
39.64000 260.037
39.66000 259.642
39.68000 278.540
39.70000 293.129
39.72000 321.082
39.74000 335.672
39.76000 343.226
39.78000 360.899
39.80000 378.568
39.82000 392.681
39.84000 403.449
39.86000 422.538
39.88000 442.306
39.90000 453.927
39.92000 474.561
39.94000 495.594
39.96000 511.571
39.98000 531.462
40.00000 541.039
40.02000 556.135
40.04000 565.831
40.06000 580.919
40.08000 595.618
40.10000 605.951
40.12000 622.670
40.14000 634.511
40.16000 640.455
40.18000 639.948
40.20000 633.587
40.22000 628.488
40.24000 644.593
40.26000 644.513
40.28000 650.525
40.30000 639.404
40.32000 614.724
40.34000 607.614
40.36000 601.339
40.38000 580.994
40.40000 582.195
40.42000 560.402
40.44000 550.041
40.46000 533.568
40.48000 518.043
40.50000 505.544
40.52000 490.377
40.54000 469.351
40.56000 438.678
40.58000 416.290
40.60000 402.636
40.62000 390.811
40.64000 372.187
40.66000 351.814
40.68000 330.558
40.70000 315.475
40.72000 300.586
40.74000 287.460
40.76000 276.456
40.78000 265.038
40.80000 256.638
40.82000 236.539
40.84000 219.604
40.86000 211.213
40.88000 194.073
40.90000 184.136
40.92000 178.908
40.94000 167.251
40.96000 157.008
40.98000 144.224
41.00000 137.686
41.02000 125.831
41.04000 118.134
41.06000 113.195
41.08000 106.309
41.10000 98.898
41.12000 94.062
41.14000 87.492
41.16000 90.195
41.18000 82.280
41.20000 79.472
41.22000 77.067
41.24000 66.189
41.26000 65.573
41.28000 65.663
41.30000 60.193
41.32000 63.350
41.34000 56.116
41.36000 56.751
41.38000 54.128
41.40000 49.919
41.42000 44.244
41.44000 40.457
41.46000 38.083
41.48000 34.934
41.50000 32.270
41.52000 36.435
41.54000 31.056
41.56000 24.628
41.58000 25.686
41.60000 30.585
41.62000 25.460
41.64000 23.179
41.66000 21.402
41.68000 15.167
41.70000 16.825
41.72000 19.551
41.74000 17.043
41.76000 16.318
41.78000 16.865
41.80000 12.774
41.82000 16.261
41.84000 12.813
41.86000 11.814
41.88000 14.394
41.90000 10.431
41.92000 12.092
41.94000 12.068
41.96000 8.584
41.98000 6.511
42.00000 7.311
42.02000 9.821
42.04000 10.376
42.06000 10.992
42.08000 9.242
42.10000 7.564
42.12000 4.952
42.14000 7.934
42.16000 8.654
42.18000 9.105
42.20000 7.284
42.22000 -0.298
42.24000 -3.612
42.26000 2.653
42.28000 9.788
42.30000 6.416
42.32000 3.645
42.34000 3.972
42.36000 -3.206
42.38000 -2.592
42.40000 2.602
42.42000 4.350
42.44000 0.471
42.46000 3.066
42.48000 1.513
42.50000 1.071
42.52000 3.426
42.54000 1.532
42.56000 3.252
42.58000 2.014
42.60000 4.008
42.62000 2.265
42.64000 0.321
42.66000 6.480
42.68000 4.593
42.70000 -0.543
42.72000 -1.941
42.74000 -2.476
42.76000 1.415
42.78000 6.607
42.80000 -0.531
42.82000 -2.558
42.84000 -2.003
42.86000 -3.536
42.88000 -0.688
42.90000 -0.684
42.92000 1.567
42.94000 0.105
42.96000 1.168
42.98000 1.227
43.00000 1.060
43.02000 -3.520
43.04000 -3.027
43.06000 -0.972
43.08000 -1.180
43.10000 -0.376
43.12000 0.881
43.14000 -0.470
43.16000 -1.863
43.18000 -2.462
43.20000 -3.225
43.22000 -1.504
43.24000 1.757
43.26000 1.466
43.28000 -0.466
43.30000 3.610
43.32000 4.179
43.34000 2.362
43.36000 1.650
43.38000 2.909
43.40000 -0.176
43.42000 -2.506
43.44000 -0.923
43.46000 0.219
43.48000 3.163
43.50000 4.421
43.52000 4.375
43.54000 4.219
43.56000 3.166
43.58000 -2.517
43.60000 -0.580
43.62000 4.462
43.64000 0.747
43.66000 -2.032
43.68000 3.495
43.70000 8.538
43.72000 1.192
43.74000 -0.710
43.76000 -0.084
43.78000 -3.459
43.80000 1.034
43.82000 3.554
43.84000 2.356
43.86000 -1.221
43.88000 0.640
43.90000 1.533
43.92000 3.326
43.94000 5.644
43.96000 4.787
43.98000 1.624
44.00000 0.000
44.02000 -0.492
44.04000 2.810
44.06000 1.389
44.08000 6.205
44.10000 4.931
44.12000 4.860
44.14000 4.810
44.16000 6.080
44.18000 2.949
44.20000 -0.383
44.22000 -1.770
44.24000 1.214
44.26000 2.057
44.28000 3.392
44.30000 8.142
44.32000 4.015
44.34000 1.242
44.36000 7.787
44.38000 6.942
44.40000 4.864
44.42000 5.558
44.44000 0.316
44.46000 3.657
44.48000 7.446
44.50000 6.051
44.52000 7.961
44.54000 4.153
44.56000 -3.464
44.58000 -0.870
44.60000 0.398
44.62000 3.162
44.64000 5.261
44.66000 10.478
44.68000 6.872
44.70000 7.240
44.72000 4.329
44.74000 2.180
44.76000 -0.845
44.78000 4.655
44.80000 8.281
44.82000 8.904
44.84000 7.750
44.86000 5.533
44.88000 0.305
44.90000 2.589
44.92000 1.538
44.94000 3.614
44.96000 10.244
44.98000 8.656
45.00000 9.411
45.02000 6.731
45.04000 7.444
45.06000 7.049
45.08000 9.588
45.10000 9.603
45.12000 7.806
45.14000 11.930
45.16000 11.457
45.18000 10.797
45.20000 11.627
45.22000 13.546
45.24000 18.261
45.26000 13.558
45.28000 14.171
45.30000 14.539
45.32000 13.723
45.34000 15.913
45.36000 18.391
45.38000 25.330
45.40000 22.946
45.42000 21.627
45.44000 23.243
45.46000 21.069
45.48000 20.865
45.50000 20.017
45.52000 19.276
45.54000 21.424
45.56000 20.706
45.58000 22.159
45.60000 26.889
45.62000 27.532
45.64000 24.136
45.66000 23.314
45.68000 28.754
45.70000 23.205
45.72000 30.166
45.74000 33.117
45.76000 37.345
45.78000 30.983
45.80000 28.007
45.82000 31.441
45.84000 32.677
45.86000 33.207
45.88000 31.698
45.90000 27.845
45.92000 32.678
45.94000 41.189
45.96000 40.181
45.98000 38.646
46.00000 41.226
46.02000 41.768
46.04000 41.543
46.06000 48.834
46.08000 49.299
46.10000 50.906
46.12000 53.230
46.14000 50.348
46.16000 53.338
46.18000 57.586
46.20000 59.964
46.22000 65.697
46.24000 64.338
46.26000 63.534
46.28000 64.114
46.30000 65.625
46.32000 68.630
46.34000 66.353
46.36000 62.643
46.38000 65.740
46.40000 67.129
46.42000 70.781
46.44000 77.139
46.46000 73.930
46.48000 72.509
46.50000 75.486
46.52000 81.483
46.54000 85.106
46.56000 82.560
46.58000 81.943
46.60000 77.236
46.62000 81.455
46.64000 83.613
46.66000 86.429
46.68000 85.571
46.70000 83.588
46.72000 86.197
46.74000 91.419
46.76000 87.634
46.78000 90.808
46.80000 86.606
46.82000 90.304
46.84000 90.584
46.86000 94.257
46.88000 90.345
46.90000 86.444
46.92000 83.753
46.94000 85.382
46.96000 86.843
46.98000 83.976
47.00000 84.757
47.02000 88.701
47.04000 88.250
47.06000 88.313
47.08000 82.709
47.10000 80.929
47.12000 82.475
47.14000 84.451
47.16000 72.831
47.18000 69.293
47.20000 73.794
47.22000 72.558
47.24000 76.006
47.26000 73.762
47.28000 72.019
47.30000 76.140
47.32000 71.766
47.34000 57.127
47.36000 61.498
47.38000 60.361
47.40000 61.166
47.42000 56.697
47.44000 54.485
47.46000 51.380
47.48000 55.039
47.50000 44.654
47.52000 39.880
47.54000 41.109
47.56000 42.495
47.58000 35.088
47.60000 37.442
47.62000 38.650
47.64000 41.394
47.66000 33.295
47.68000 31.790
47.70000 32.209
47.72000 31.717
47.74000 28.516
47.76000 32.061
47.78000 31.370
47.80000 28.725
47.82000 23.824
47.84000 22.680
47.86000 21.233
47.88000 19.555
47.90000 16.837
47.92000 20.526
47.94000 16.241
47.96000 19.769
47.98000 21.461
48.00000 20.814
48.02000 23.064
48.04000 18.865
48.06000 14.926
48.08000 17.609
48.10000 14.660
48.12000 14.616
48.14000 16.623
48.16000 16.571
48.18000 14.305
48.20000 15.900
48.22000 11.343
48.24000 10.643
48.26000 11.710
48.28000 8.733
48.30000 5.893
48.32000 5.931
48.34000 6.076
48.36000 4.659
48.38000 8.859
48.40000 15.925
48.42000 4.673
48.44000 4.715
48.46000 7.265
48.48000 7.937
48.50000 7.437
48.52000 7.216
48.54000 -0.438
48.56000 1.111
48.58000 0.822
48.60000 6.302
48.62000 9.045
48.64000 7.756
48.66000 5.339
48.68000 2.947
48.70000 0.463
48.72000 2.200
48.74000 3.716
48.76000 1.323
48.78000 -3.000
48.80000 5.003
48.82000 7.597
48.84000 5.620
48.86000 4.518
48.88000 2.025
48.90000 5.418
48.92000 2.905
48.94000 4.221
48.96000 7.569
48.98000 1.528
49.00000 -1.210
49.02000 7.511
49.04000 9.225
49.06000 -2.313
49.08000 -3.045
49.10000 4.345
49.12000 8.445
49.14000 10.834
49.16000 7.935
49.18000 7.192
49.20000 9.122
49.22000 5.318
49.24000 6.180
49.26000 4.119
49.28000 4.050
49.30000 1.408
49.32000 -0.624
49.34000 6.320
49.36000 1.402
49.38000 2.883
49.40000 0.171
49.42000 2.072
49.44000 1.462
49.46000 4.683
49.48000 7.560
49.50000 8.703
49.52000 8.555
49.54000 7.864
49.56000 5.921
49.58000 5.956
49.60000 6.882
49.62000 8.384
49.64000 7.040
49.66000 4.416
49.68000 5.180
49.70000 4.403
49.72000 6.202
49.74000 11.540
49.76000 10.350
49.78000 7.863
49.80000 7.982
49.82000 8.152
49.84000 7.115
49.86000 1.973
49.88000 -0.735
49.90000 4.046
49.92000 4.967
49.94000 7.758
49.96000 12.284
49.98000 7.562
50.00000 3.363
50.02000 5.943
50.04000 6.488
50.06000 3.105
50.08000 2.637
50.10000 4.067
50.12000 7.817
50.14000 1.584
50.16000 -0.404
50.18000 -2.933
50.20000 -2.154
50.22000 0.390
50.24000 4.531
50.26000 7.844
50.28000 5.139
50.30000 4.109
50.32000 5.747
50.34000 6.356
50.36000 7.521
50.38000 3.972
50.40000 2.153
50.42000 7.647
50.44000 7.363
50.46000 7.157
50.48000 7.761
50.50000 3.850
50.52000 3.267
50.54000 5.075
50.56000 6.754
50.58000 7.327
50.60000 5.390
50.62000 4.877
50.64000 4.425
50.66000 4.412
50.68000 5.294
50.70000 6.041
50.72000 4.192
50.74000 2.281
50.76000 -0.379
50.78000 -0.517
50.80000 -0.812
50.82000 -0.651
50.84000 1.762
50.86000 -0.677
50.88000 -0.229
50.90000 -2.407
50.92000 6.153
50.94000 5.015
50.96000 1.858
50.98000 -1.643
51.00000 3.055
51.02000 2.243
51.04000 2.831
51.06000 2.814
51.08000 0.999
51.10000 3.550
51.12000 3.640
51.14000 5.193
51.16000 5.246
51.18000 5.439
51.20000 2.640
51.22000 0.810
51.24000 5.916
51.26000 3.645
51.28000 5.009
51.30000 0.907
51.32000 0.479
51.34000 0.868
51.36000 0.451
51.38000 4.873
51.40000 0.335
51.42000 -0.058
51.44000 -2.630
51.46000 1.089
51.48000 5.010
51.50000 -0.181
51.52000 -2.908
51.54000 0.184
51.56000 1.211
51.58000 3.110
51.60000 3.084
51.62000 3.395
51.64000 0.137
51.66000 3.644
51.68000 9.227
51.70000 8.508
51.72000 2.598
51.74000 1.246
51.76000 1.833
51.78000 4.532
51.80000 2.309
51.82000 1.251
51.84000 -1.852
51.86000 -1.769
51.88000 6.669
51.90000 6.345
51.92000 5.644
51.94000 4.177
51.96000 1.165
51.98000 2.631
52.00000 1.317
52.02000 3.910
52.04000 9.562
52.06000 5.836
52.08000 5.424
52.10000 4.763
52.12000 7.113
52.14000 5.360
52.16000 3.748
52.18000 3.151
52.20000 0.946
52.22000 0.615
52.24000 -1.792
52.26000 -2.290
52.28000 -2.862
52.30000 3.729
52.32000 8.750
52.34000 10.024
52.36000 2.574
52.38000 7.277
52.40000 4.530
52.42000 6.295
52.44000 4.579
52.46000 4.236
52.48000 3.241
52.50000 0.861
52.52000 4.581
52.54000 3.620
52.56000 5.512
52.58000 10.120
52.60000 4.574
52.62000 1.747
52.64000 3.370
52.66000 2.351
52.68000 2.022
52.70000 5.447
52.72000 5.186
52.74000 4.417
52.76000 1.033
52.78000 0.557
52.80000 4.121
52.82000 5.098
52.84000 2.090
52.86000 1.197
52.88000 6.126
52.90000 6.144
52.92000 6.563
52.94000 7.165
52.96000 4.613
52.98000 3.614
53.00000 4.426
53.02000 6.636
53.04000 4.963
53.06000 7.576
53.08000 3.467
53.10000 4.143
53.12000 9.588
53.14000 8.605
53.16000 3.328
53.18000 4.431
53.20000 4.371
53.22000 5.822
53.24000 2.251
53.26000 0.467
53.28000 -2.829
53.30000 -0.717
53.32000 -1.496
53.34000 3.060
53.36000 7.905
53.38000 -1.143
53.40000 -1.746
53.42000 3.736
53.44000 7.586
53.46000 3.194
53.48000 2.549
53.50000 3.186
53.52000 4.462
53.54000 2.737
53.56000 -0.003
53.58000 -0.103
53.60000 -1.592
53.62000 2.487
53.64000 6.127
53.66000 5.791
53.68000 6.086
53.70000 5.503
53.72000 5.372
53.74000 5.663
53.76000 2.187
53.78000 2.067
53.80000 5.216
53.82000 6.005
53.84000 5.438
53.86000 3.418
53.88000 3.232
53.90000 9.763
53.92000 8.927
53.94000 5.806
53.96000 3.401
53.98000 4.609
54.00000 6.644
54.02000 10.254
54.04000 6.135
54.06000 7.901
54.08000 8.678
54.10000 5.574
54.12000 8.557
54.14000 7.402
54.16000 6.473
54.18000 5.004
54.20000 5.892
54.22000 5.818
54.24000 6.499
54.26000 2.608
54.28000 -2.780
54.30000 3.042
54.32000 4.005
54.34000 4.766
54.36000 6.304
54.38000 1.260
54.40000 3.347
54.42000 2.426
54.44000 1.324
54.46000 3.086
54.48000 2.384
54.50000 3.700
54.52000 0.748
54.54000 1.104
54.56000 5.768
54.58000 7.752
54.60000 2.542
54.62000 6.367
54.64000 9.583
54.66000 2.961
54.68000 2.813
54.70000 0.945
54.72000 6.897
54.74000 6.933
54.76000 8.498
54.78000 11.530
54.80000 9.357
54.82000 8.901
54.84000 5.145
54.86000 6.058
54.88000 4.560
54.90000 7.941
54.92000 5.206
54.94000 -0.322
54.96000 4.453
54.98000 8.387
55.00000 4.650
55.02000 2.398
55.04000 3.287
55.06000 3.852
55.08000 4.726
55.10000 7.410
55.12000 3.008
55.14000 2.954
55.16000 0.953
55.18000 -2.304
55.20000 1.470
55.22000 -0.038
55.24000 0.244
55.26000 3.811
55.28000 4.287
55.30000 1.489
55.32000 2.099
55.34000 4.325
55.36000 6.898
55.38000 6.191
55.40000 6.697
55.42000 5.037
55.44000 3.550
55.46000 1.926
55.48000 0.556
55.50000 2.383
55.52000 2.899
55.54000 3.494
55.56000 4.264
55.58000 5.301
55.60000 1.727
55.62000 6.926
55.64000 5.954
55.66000 3.175
55.68000 1.447
55.70000 7.538
55.72000 3.673
55.74000 0.792
55.76000 2.346
55.78000 6.802
55.80000 3.049
55.82000 1.737
55.84000 7.511
55.86000 5.113
55.88000 0.119
55.90000 -1.834
55.92000 -0.240
55.94000 -0.137
55.96000 1.039
55.98000 -2.565
56.00000 -1.302
56.02000 0.515
56.04000 6.658
56.06000 7.213
56.08000 4.567
56.10000 0.635
56.12000 3.275
56.14000 3.480
56.16000 -2.749
56.18000 -0.553
56.20000 2.722
56.22000 4.783
56.24000 9.646
56.26000 3.867
56.28000 3.301
56.30000 3.540
56.32000 -0.582
56.34000 1.618
56.36000 0.595
56.38000 2.811
56.40000 2.260
56.42000 6.340
56.44000 4.545
56.46000 2.980
56.48000 6.228
56.50000 5.999
56.52000 6.414
56.54000 0.837
56.56000 6.887
56.58000 8.387
56.60000 6.034
56.62000 8.157
56.64000 9.119
56.66000 6.542
56.68000 4.657
56.70000 6.688
56.72000 1.208
56.74000 -2.730
56.76000 -1.952
56.78000 -0.299
56.80000 3.391
56.82000 3.917
56.84000 1.309
56.86000 0.016
56.88000 -1.771
56.90000 1.242
56.92000 3.444
56.94000 6.827
56.96000 5.768
56.98000 1.616
57.00000 2.275
57.02000 2.266
57.04000 -0.475
57.06000 1.408
57.08000 6.500
57.10000 3.911
57.12000 4.466
57.14000 3.038
57.16000 6.856
57.18000 4.935
57.20000 4.065
57.22000 -1.924
57.24000 1.025
57.26000 4.474
57.28000 0.745
57.30000 -0.056
57.32000 3.184
57.34000 3.242
57.36000 -2.741
57.38000 1.661
57.40000 3.533
57.42000 2.085
57.44000 2.901
57.46000 0.292
57.48000 -2.365
57.50000 3.672
57.52000 6.261
57.54000 2.704
57.56000 1.177
57.58000 -0.808
57.60000 -0.684
57.62000 -1.962
57.64000 -0.430
57.66000 1.217
57.68000 0.132
57.70000 3.423
57.72000 5.907
57.74000 3.087
57.76000 -1.555
57.78000 -2.567
57.80000 2.538
57.82000 2.099
57.84000 0.699
57.86000 -0.455
57.88000 -1.734
57.90000 -0.698
57.92000 2.458
57.94000 1.044
57.96000 2.422
57.98000 -1.488
58.00000 5.673
58.02000 6.134
58.04000 4.497
58.06000 1.731
58.08000 1.004
58.10000 -1.122
58.12000 1.573
58.14000 -0.062
58.16000 6.838
58.18000 -0.644
58.20000 0.751
58.22000 0.339
58.24000 1.292
58.26000 0.441
58.28000 -0.741
58.30000 -1.973
58.32000 2.617
58.34000 -2.713
58.36000 -0.265
58.38000 -0.987
58.40000 0.156
58.42000 1.056
58.44000 2.293
58.46000 6.352
58.48000 7.285
58.50000 1.671
58.52000 -2.282
58.54000 -2.616
58.56000 -2.709
58.58000 2.696
58.60000 4.761
58.62000 3.707
58.64000 2.157
58.66000 4.140
58.68000 3.706
58.70000 -0.396
58.72000 -0.564
58.74000 2.268
58.76000 1.414
58.78000 1.431
58.80000 0.283
58.82000 0.433
58.84000 -1.750
58.86000 1.620
58.88000 1.863
58.90000 1.198
58.92000 -0.552
58.94000 2.000
58.96000 -0.014
58.98000 -0.821
59.00000 0.487
59.02000 2.077
59.04000 5.061
59.06000 0.365
59.08000 -2.428
59.10000 1.473
59.12000 -2.698
59.14000 -2.423
59.16000 -0.045
59.18000 3.779
59.20000 6.436
59.22000 2.178
59.24000 -2.061
59.26000 2.326
59.28000 1.127
59.30000 -2.033
59.32000 0.812
59.34000 1.703
59.36000 1.600
59.38000 3.690
59.40000 2.324
59.42000 1.587
59.44000 -2.176
59.46000 -1.385
59.48000 1.202
59.50000 3.176
59.52000 3.453
59.54000 2.517
59.56000 6.475
59.58000 10.816
59.60000 6.820
59.62000 0.598
59.64000 0.486
59.66000 1.568
59.68000 -2.235
59.70000 -2.675
59.72000 -2.552
59.74000 -0.591
59.76000 2.493
59.78000 4.311
59.80000 4.689
59.82000 -0.494
59.84000 2.268
59.86000 3.461
59.88000 -0.583
59.90000 3.920
59.92000 3.781
59.94000 3.966
59.96000 2.897
59.98000 8.532
60.00000 3.609
60.02000 -2.643
60.04000 -1.832
60.06000 1.539
60.08000 3.326
60.10000 1.959
60.12000 3.409
60.14000 -0.419
60.16000 1.266
60.18000 4.157
60.20000 2.594
60.22000 2.405
60.24000 1.932
60.26000 -2.162
60.28000 -0.548
60.30000 -2.657
60.32000 -1.242
60.34000 0.107
60.36000 1.052
60.38000 -0.420
60.40000 -1.058
60.42000 1.349
60.44000 0.447
60.46000 -0.401
60.48000 1.419
60.50000 2.487
60.52000 -0.312
60.54000 -2.102
60.56000 -1.825
60.58000 -0.798
60.60000 0.961
60.62000 5.045
60.64000 5.046
60.66000 -0.214
60.68000 4.161
60.70000 3.918
60.72000 -1.773
60.74000 1.409
60.76000 3.801
60.78000 -0.097
60.80000 0.138
60.82000 -2.639
60.84000 0.422
60.86000 4.529
60.88000 -0.276
60.90000 1.767
60.92000 2.004
60.94000 3.709
60.96000 0.818
60.98000 3.068
61.00000 0.221
61.02000 4.768
61.04000 2.230
61.06000 2.015
61.08000 0.551
61.10000 -1.068
61.12000 4.987
61.14000 0.476
61.16000 0.794
61.18000 5.098
61.20000 2.949
61.22000 -1.788
61.24000 -1.938
61.26000 -0.740
61.28000 0.830
61.30000 1.425
61.32000 0.959
61.34000 1.156
61.36000 7.888
61.38000 5.235
61.40000 1.148
61.42000 0.337
61.44000 2.183
61.46000 3.699
61.48000 1.894
61.50000 0.910
61.52000 2.520
61.54000 1.652
61.56000 5.044
61.58000 2.758
61.60000 2.840
61.62000 4.846
61.64000 6.220
61.66000 1.582
61.68000 4.115
61.70000 6.237
61.72000 2.093
61.74000 1.867
61.76000 4.188
61.78000 1.604
61.80000 -2.572
61.82000 2.159
61.84000 1.239
61.86000 2.068
61.88000 4.658
61.90000 4.998
61.92000 3.113
61.94000 4.412
61.96000 3.885
61.98000 6.323
62.00000 -0.541
62.02000 -0.527
62.04000 0.868
62.06000 2.086
62.08000 4.454
62.10000 1.496
62.12000 1.282
62.14000 1.778
62.16000 2.141
62.18000 2.603
62.20000 4.723
62.22000 5.016
62.24000 3.034
62.26000 -2.411
62.28000 -0.690
62.30000 0.205
62.32000 -0.465
62.34000 -1.968
62.36000 0.373
62.38000 1.127
62.40000 -0.490
62.42000 -2.586
62.44000 -0.160
62.46000 0.474
62.48000 3.933
62.50000 5.594
62.52000 1.674
62.54000 0.309
62.56000 3.090
62.58000 1.082
62.60000 1.289
62.62000 1.233
62.64000 1.484
62.66000 3.798
62.68000 6.507
62.70000 6.020
62.72000 1.770
62.74000 2.161
62.76000 3.477
62.78000 2.799
62.80000 -1.032
62.82000 -1.164
62.84000 3.743
62.86000 8.658
62.88000 5.272
62.90000 4.916
62.92000 6.241
62.94000 -0.262
62.96000 -0.636
62.98000 2.451
63.00000 2.847
63.02000 -0.262
63.04000 -0.656
63.06000 2.888
63.08000 5.641
63.10000 3.541
63.12000 -0.391
63.14000 4.484
63.16000 4.884
63.18000 1.812
63.20000 1.359
63.22000 -2.572
63.24000 1.424
63.26000 7.698
63.28000 7.079
63.30000 2.378
63.32000 1.661
63.34000 2.741
63.36000 -1.106
63.38000 -2.567
63.40000 0.396
63.42000 1.983
63.44000 1.229
63.46000 -0.523
63.48000 -2.457
63.50000 -0.984
63.52000 4.410
63.54000 3.665
63.56000 2.247
63.58000 4.905
63.60000 2.573
63.62000 -0.308
63.64000 1.081
63.66000 5.491
63.68000 6.387
63.70000 5.288
63.72000 3.090
63.74000 6.043
63.76000 3.775
63.78000 -0.622
63.80000 0.294
63.82000 5.288
63.84000 3.149
63.86000 -0.465
63.88000 0.636
63.90000 1.228
63.92000 -1.124
63.94000 -0.070
63.96000 -1.833
63.98000 -1.444
64.00000 2.220
64.02000 1.706
64.04000 0.472
64.06000 2.824
64.08000 2.552
64.10000 2.646
64.12000 -0.374
64.14000 -0.337
64.16000 0.677
64.18000 1.996
64.20000 -1.147
64.22000 -2.594
64.24000 2.089
64.26000 1.882
64.28000 -2.045
64.30000 1.700
64.32000 3.817
64.34000 -2.458
64.36000 0.116
64.38000 4.879
64.40000 -1.143
64.42000 -1.766
64.44000 -0.062
64.46000 -1.455
64.48000 0.832
64.50000 1.024
64.52000 1.902
64.54000 0.528
64.56000 3.655
64.58000 6.931
64.60000 -0.094
64.62000 1.142
64.64000 1.448
64.66000 0.552
64.68000 2.581
64.70000 3.130
64.72000 3.264
64.74000 3.235
64.76000 -2.592
64.78000 -0.507
64.80000 3.532
64.82000 0.800
64.84000 -0.558
64.86000 4.327
64.88000 7.320
64.90000 2.525
64.92000 1.614
64.94000 3.891
64.96000 2.859
64.98000 2.196
65.00000 3.054
65.02000 -0.542
65.04000 2.183
65.06000 2.698
65.08000 2.623
65.10000 3.256
65.12000 -1.429
65.14000 -2.580
65.16000 6.090
65.18000 7.250
65.20000 3.713
65.22000 0.600
65.24000 -0.069
65.26000 6.406
65.28000 1.186
65.30000 -1.683
65.32000 0.290
65.34000 -0.727
65.36000 6.000
65.38000 0.375
65.40000 1.678
65.42000 0.114
65.44000 0.379
65.46000 -0.367
65.48000 1.485
65.50000 4.684
65.52000 3.232
65.54000 1.899
65.56000 2.841
65.58000 0.693
65.60000 -2.580
65.62000 0.844
65.64000 1.682
65.66000 3.876
65.68000 6.080
65.70000 3.070
65.72000 1.291
65.74000 4.078
65.76000 6.013
65.78000 8.277
65.80000 5.647
65.82000 6.701
65.84000 3.322
65.86000 2.118
65.88000 2.739
65.90000 3.956
65.92000 5.436
65.94000 4.746
65.96000 3.478
65.98000 2.988
66.00000 -2.585
66.02000 2.991
66.04000 6.882
66.06000 0.041
66.08000 -2.058
66.10000 1.265
66.12000 4.602
66.14000 6.904
66.16000 2.200
66.18000 1.716
66.20000 3.654
66.22000 2.641
66.24000 3.328
66.26000 4.977
66.28000 5.770
66.30000 0.943
66.32000 6.672
66.34000 4.416
66.36000 6.357
66.38000 7.529
66.40000 5.668
66.42000 6.109
66.44000 7.378
66.46000 3.491
66.48000 6.699
66.50000 4.814
66.52000 1.398
66.54000 0.861
66.56000 5.760
66.58000 6.068
66.60000 5.526
66.62000 9.109
66.64000 7.202
66.66000 6.902
66.68000 5.972
66.70000 4.538
66.72000 4.653
66.74000 1.503
66.76000 1.452
66.78000 5.085
66.80000 0.963
66.82000 0.701
66.84000 5.623
66.86000 5.390
66.88000 7.628
66.90000 7.160
66.92000 3.411
66.94000 2.443
66.96000 8.093
66.98000 4.363
67.00000 2.707
67.02000 1.318
67.04000 7.519
67.06000 7.113
67.08000 4.654
67.10000 1.872
67.12000 3.464
67.14000 5.760
67.16000 6.155
67.18000 6.105
67.20000 6.636
67.22000 6.627
67.24000 8.745
67.26000 4.657
67.28000 2.651
67.30000 4.269
67.32000 4.753
67.34000 8.082
67.36000 5.946
67.38000 7.342
67.40000 7.859
67.42000 9.038
67.44000 9.925
67.46000 8.990
67.48000 8.071
67.50000 6.023
67.52000 9.858
67.54000 10.001
67.56000 10.563
67.58000 10.647
67.60000 9.818
67.62000 13.083
67.64000 15.035
67.66000 14.451
67.68000 14.089
67.70000 11.185
67.72000 10.041
67.74000 12.449
67.76000 13.540
67.78000 14.818
67.80000 16.466
67.82000 16.936
67.84000 18.531
67.86000 19.011
67.88000 19.968
67.90000 20.134
67.92000 18.734
67.94000 15.554
67.96000 13.731
67.98000 15.421
68.00000 15.013
68.02000 14.889
68.04000 17.186
68.06000 20.930
68.08000 23.238
68.10000 19.285
68.12000 20.369
68.14000 22.085
68.16000 20.858
68.18000 17.722
68.20000 20.295
68.22000 22.355
68.24000 24.074
68.26000 19.533
68.28000 20.258
68.30000 24.932
68.32000 20.806
68.34000 22.966
68.36000 22.237
68.38000 16.954
68.40000 17.366
68.42000 20.643
68.44000 22.684
68.46000 17.721
68.48000 15.753
68.50000 18.216
68.52000 19.641
68.54000 19.553
68.56000 19.234
68.58000 16.213
68.60000 15.008
68.62000 18.069
68.64000 17.160
68.66000 16.651
68.68000 13.561
68.70000 13.875
68.72000 17.025
68.74000 18.757
68.76000 15.568
68.78000 17.160
68.80000 12.527
68.82000 9.656
68.84000 9.707
68.86000 13.165
68.88000 10.188
68.90000 13.586
68.92000 10.899
68.94000 10.554
68.96000 10.789
68.98000 11.078
69.00000 13.326
69.02000 10.823
69.04000 8.635
69.06000 7.994
69.08000 6.265
69.10000 6.482
69.12000 7.359
69.14000 5.765
69.16000 6.154
69.18000 9.778
69.20000 9.647
69.22000 7.668
69.24000 6.037
69.26000 5.590
69.28000 6.884
69.30000 8.397
69.32000 4.576
69.34000 4.896
69.36000 4.433
69.38000 3.275
69.40000 0.434
69.42000 1.982
69.44000 5.118
69.46000 7.783
69.48000 4.808
69.50000 0.968
69.52000 -0.363
69.54000 4.909
69.56000 0.840
69.58000 2.759
69.60000 2.635
69.62000 3.652
69.64000 1.524
69.66000 -2.367
69.68000 -0.851
69.70000 3.252
69.72000 1.312
69.74000 1.115
69.76000 -2.570
69.78000 -0.633
69.80000 1.587
69.82000 5.342
69.84000 4.399
69.86000 6.171
69.88000 9.352
69.90000 3.542
69.92000 1.162
69.94000 3.560
69.96000 5.035
69.98000 2.566
70.00000 4.604
70.02000 4.125
70.04000 3.951
70.06000 -0.035
70.08000 2.342
70.10000 1.622
70.12000 1.109
70.14000 3.688
70.16000 1.995
70.18000 5.882
70.20000 2.390
70.22000 -0.738
70.24000 1.233
70.26000 0.702
70.28000 -2.198
70.30000 -2.531
70.32000 -2.014
70.34000 3.290
70.36000 4.062
70.38000 -0.001
70.40000 0.074
70.42000 -0.897
70.44000 -0.965
70.46000 -0.514
70.48000 0.151
70.50000 1.087
70.52000 3.690
70.54000 3.339
70.56000 2.890
70.58000 0.891
70.60000 3.043
70.62000 4.853
70.64000 5.590
70.66000 4.905
70.68000 2.804
70.70000 4.730
70.72000 2.340
70.74000 2.250
70.76000 4.274
70.78000 0.846
70.80000 0.029
70.82000 0.866
70.84000 1.192
70.86000 4.586
70.88000 1.734
70.90000 -2.479
70.92000 0.973
70.94000 2.926
70.96000 5.217
70.98000 6.000
71.00000 0.670
71.02000 2.918
71.04000 2.092
71.06000 2.001
71.08000 2.235
71.10000 2.420
71.12000 -0.335
71.14000 0.043
71.16000 -0.470
71.18000 -1.228
71.20000 5.034
71.22000 6.744
71.24000 3.882
71.26000 4.647
71.28000 5.428
71.30000 5.881
71.32000 1.133
71.34000 5.381
71.36000 3.015
71.38000 8.597
71.40000 5.004
71.42000 1.451
71.44000 4.681
71.46000 7.701
71.48000 2.817
71.50000 3.267
71.52000 1.152
71.54000 3.199
71.56000 1.343
71.58000 0.449
71.60000 0.678
71.62000 2.778
71.64000 -0.708
71.66000 0.111
71.68000 2.215
71.70000 0.910
71.72000 1.708
71.74000 1.005
71.76000 2.890
71.78000 4.426
71.80000 3.956
71.82000 0.206
71.84000 -2.290
71.86000 1.365
71.88000 1.573
71.90000 0.586
71.92000 1.203
71.94000 -0.626
71.96000 -2.428
71.98000 -1.139
72.00000 2.674
72.02000 3.600
72.04000 5.057
72.06000 4.347
72.08000 3.618
72.10000 -1.003
72.12000 0.437
72.14000 4.159
72.16000 7.460
72.18000 6.600
72.20000 8.311
72.22000 3.622
72.24000 3.211
72.26000 3.942
72.28000 1.529
72.30000 2.237
72.32000 0.050
72.34000 2.569
72.36000 2.024
72.38000 2.213
72.40000 0.834
72.42000 3.262
72.44000 7.272
72.46000 5.638
72.48000 7.821
72.50000 8.932
72.52000 0.248
72.54000 -0.470
72.56000 4.235
72.58000 6.310
72.60000 9.651
72.62000 5.387
72.64000 8.216
72.66000 3.587
72.68000 1.610
72.70000 -2.379
72.72000 -1.331
72.74000 1.696
72.76000 4.306
72.78000 5.373
72.80000 8.962
72.82000 8.332
72.84000 1.066
72.86000 1.108
72.88000 0.937
72.90000 4.055
72.92000 1.554
72.94000 -2.392
72.96000 2.593
72.98000 2.395
73.00000 2.757
73.02000 3.601
73.04000 1.246
73.06000 2.605
73.08000 5.645
73.10000 4.026
73.12000 1.493
73.14000 6.195
73.16000 5.682
73.18000 1.429
73.20000 2.515
73.22000 7.320
73.24000 4.472
73.26000 0.377
73.28000 2.524
73.30000 1.168
73.32000 -0.352
73.34000 0.355
73.36000 0.775
73.38000 -1.395
73.40000 0.634
73.42000 4.168
73.44000 0.647
73.46000 -1.404
73.48000 1.131
73.50000 2.040
73.52000 6.728
73.54000 6.172
73.56000 4.627
73.58000 4.026
73.60000 4.253
73.62000 6.240
73.64000 8.909
73.66000 3.621
73.68000 6.051
73.70000 0.548
73.72000 -0.440
73.74000 -1.489
73.76000 -1.946
73.78000 3.791
73.80000 6.164
73.82000 -1.224
73.84000 -2.404
73.86000 -1.625
73.88000 -0.184
73.90000 5.533
73.92000 3.519
73.94000 -1.503
73.96000 -0.297
73.98000 1.629
74.00000 1.975
74.02000 0.953
74.04000 3.602
74.06000 1.852
74.08000 5.293
74.10000 5.624
74.12000 1.760
74.14000 0.494
74.16000 5.203
74.18000 4.497
74.20000 1.108
74.22000 3.284
74.24000 3.341
74.26000 2.560
74.28000 4.196
74.30000 6.488
74.32000 0.337
74.34000 -0.421
74.36000 0.844
74.38000 -0.746
74.40000 -2.383
74.42000 -1.865
74.44000 2.597
74.46000 6.044
74.48000 3.299
74.50000 2.544
74.52000 0.875
74.54000 2.182
74.56000 1.803
74.58000 2.994
74.60000 4.661
74.62000 2.661
74.64000 2.570
74.66000 2.438
74.68000 -0.417
74.70000 5.659
74.72000 3.862
74.74000 3.839
74.76000 6.158
74.78000 8.430
74.80000 9.022
74.82000 8.510
74.84000 6.376
74.86000 3.401
74.88000 4.565
74.90000 2.555
74.92000 -0.713
74.94000 3.515
74.96000 6.681
74.98000 5.910
75.00000 4.670
75.02000 2.158
75.04000 6.719
75.06000 6.680
75.08000 3.659
75.10000 2.208
75.12000 3.573
75.14000 1.808
75.16000 1.372
75.18000 7.105
75.20000 4.939
75.22000 7.352
75.24000 9.431
75.26000 7.225
75.28000 4.211
75.30000 4.114
75.32000 6.393
75.34000 8.656
75.36000 3.938
75.38000 9.049
75.40000 8.533
75.42000 4.535
75.44000 5.008
75.46000 6.194
75.48000 4.212
75.50000 4.687
75.52000 -0.941
75.54000 -2.343
75.56000 5.466
75.58000 8.444
75.60000 6.907
75.62000 7.757
75.64000 11.150
75.66000 4.440
75.68000 -1.150
75.70000 -1.111
75.72000 2.535
75.74000 5.894
75.76000 2.463
75.78000 7.005
75.80000 4.729
75.82000 -0.403
75.84000 2.161
75.86000 4.732
75.88000 6.320
75.90000 4.235
75.92000 5.945
75.94000 6.582
75.96000 9.951
75.98000 4.361
76.00000 -1.132
76.02000 2.707
76.04000 9.955
76.06000 4.664
76.08000 5.050
76.10000 4.844
76.12000 3.817
76.14000 7.279
76.16000 6.564
76.18000 11.121
76.20000 7.014
76.22000 4.516
76.24000 4.489
76.26000 -0.296
76.28000 -1.015
76.30000 0.886
76.32000 -2.402
76.34000 1.425
76.36000 5.896
76.38000 6.986
76.40000 4.504
76.42000 2.993
76.44000 0.710
76.46000 6.084
76.48000 6.718
76.50000 4.879
76.52000 0.997
76.54000 3.285
76.56000 1.003
76.58000 2.603
76.60000 4.318
76.62000 5.747
76.64000 4.547
76.66000 1.448
76.68000 1.094
76.70000 2.761
76.72000 1.868
76.74000 1.910
76.76000 0.173
76.78000 3.001
76.80000 6.662
76.82000 3.233
76.84000 0.328
76.86000 2.169
76.88000 5.666
76.90000 0.630
76.92000 -0.677
76.94000 -0.328
76.96000 -1.963
76.98000 -1.346
77.00000 3.528
77.02000 6.132
77.04000 1.695
77.06000 -0.441
77.08000 2.632
77.10000 -1.584
77.12000 0.155
77.14000 5.348
77.16000 9.543
77.18000 5.958
77.20000 2.267
77.22000 -1.597
77.24000 -0.981
77.26000 -0.945
77.28000 0.702
77.30000 2.981
77.32000 4.946
77.34000 0.364
77.36000 1.594
77.38000 3.208
77.40000 1.151
77.42000 2.845
77.44000 -0.142
77.46000 -1.383
77.48000 -2.412
77.50000 1.699
77.52000 3.398
77.54000 8.511
77.56000 7.624
77.58000 3.495
77.60000 -1.140
77.62000 1.021
77.64000 2.460
77.66000 2.924
77.68000 4.390
77.70000 5.669
77.72000 5.625
77.74000 5.205
77.76000 6.125
77.78000 0.210
77.80000 2.262
77.82000 3.595
77.84000 3.961
77.86000 0.904
77.88000 2.635
77.90000 4.454
77.92000 1.287
77.94000 1.620
77.96000 0.379
77.98000 2.521
78.00000 4.439
78.02000 3.106
78.04000 1.073
78.06000 -0.412
78.08000 -2.430
78.10000 3.832
78.12000 6.101
78.14000 3.988
78.16000 4.222
78.18000 3.801
78.20000 5.259
78.22000 4.070
78.24000 4.331
78.26000 3.967
78.28000 3.497
78.30000 8.314
78.32000 7.294
78.34000 4.929
78.36000 0.620
78.38000 4.530
78.40000 9.379
78.42000 6.803
78.44000 7.206
78.46000 0.145
78.48000 2.928
78.50000 2.208
78.52000 2.908
78.54000 3.171
78.56000 4.939
78.58000 4.743
78.60000 3.058
78.62000 5.423
78.64000 3.431
78.66000 2.837
78.68000 3.362
78.70000 5.604
78.72000 6.430
78.74000 9.273
78.76000 10.996
78.78000 6.129
78.80000 -2.427
78.82000 3.924
78.84000 3.507
78.86000 1.176
78.88000 8.504
78.90000 6.750
78.92000 3.422
78.94000 5.772
78.96000 4.427
78.98000 3.551
79.00000 5.814
79.02000 8.379
79.04000 7.834
79.06000 6.380
79.08000 3.996
79.10000 1.243
79.12000 2.647
79.14000 3.885
79.16000 1.252
79.18000 -1.095
79.20000 4.494
79.22000 6.093
79.24000 3.286
79.26000 5.287
79.28000 8.474
79.30000 6.348
79.32000 4.476
79.34000 6.417
79.36000 -2.461
79.38000 -0.341
79.40000 -0.783
79.42000 3.992
79.44000 2.046
79.46000 -0.414
79.48000 3.943
79.50000 3.178
79.52000 -0.778
79.54000 5.768
79.56000 4.499
79.58000 10.217
79.60000 7.551
79.62000 7.430
79.64000 5.806
79.66000 5.191
79.68000 5.210
79.70000 2.470
79.72000 2.352
79.74000 7.456
79.76000 5.342
79.78000 0.368
79.80000 2.398
79.82000 3.773
79.84000 0.553
79.86000 0.081
79.88000 0.775
79.90000 0.906
79.92000 5.792
79.94000 2.713
79.96000 -2.533
79.98000 6.682
80.00000 9.822
80.02000 5.677
80.04000 -0.730
80.06000 0.264
80.08000 2.997
80.10000 -1.506
80.12000 3.201
80.14000 3.914
80.16000 3.980
80.18000 3.799
80.20000 -0.561
80.22000 -0.653
80.24000 2.607
80.26000 0.906
80.28000 3.562
80.30000 6.771
80.32000 3.448
80.34000 3.454
80.36000 -0.178
80.38000 0.125
80.40000 4.070
80.42000 0.135
80.44000 -2.573
80.46000 3.784
80.48000 3.376
80.50000 5.549
80.52000 0.906
80.54000 4.231
80.56000 7.893
80.58000 5.990
80.60000 8.734
80.62000 8.001
80.64000 7.756
80.66000 7.865
80.68000 6.744
80.70000 7.545
80.72000 4.945
80.74000 -2.567
80.76000 0.615
80.78000 2.773
80.80000 5.305
80.82000 10.257
80.84000 6.002
80.86000 5.046
80.88000 4.453
80.90000 -0.985
80.92000 6.692
80.94000 7.819
80.96000 6.707
80.98000 5.804
81.00000 7.341
81.02000 6.250
81.04000 4.706
81.06000 5.452
81.08000 6.616
81.10000 9.591
81.12000 13.110
81.14000 14.657
81.16000 12.451
81.18000 9.146
81.20000 8.296
81.22000 8.768
81.24000 9.927
81.26000 12.230
81.28000 13.898
81.30000 12.344
81.32000 6.729
81.34000 6.305
81.36000 12.204
81.38000 13.670
81.40000 11.228
81.42000 15.809
81.44000 18.328
81.46000 13.488
81.48000 13.276
81.50000 10.575
81.52000 15.718
81.54000 12.118
81.56000 10.710
81.58000 14.263
81.60000 15.169
81.62000 16.469
81.64000 12.934
81.66000 14.952
81.68000 12.570
81.70000 18.212
81.72000 20.506
81.74000 20.391
81.76000 20.289
81.78000 26.206
81.80000 17.569
81.82000 14.665
81.84000 12.794
81.86000 17.565
81.88000 20.449
81.90000 22.900
81.92000 20.618
81.94000 20.613
81.96000 17.659
81.98000 15.727
82.00000 17.570
82.02000 21.019
82.04000 26.772
82.06000 25.317
82.08000 20.719
82.10000 20.701
82.12000 20.502
82.14000 19.793
82.16000 23.798
82.18000 24.710
82.20000 21.972
82.22000 25.671
82.24000 20.407
82.26000 21.792
82.28000 24.117
82.30000 24.098
82.32000 26.896
82.34000 25.230
82.36000 23.791
82.38000 22.327
82.40000 20.358
82.42000 23.591
82.44000 25.866
82.46000 21.827
82.48000 23.594
82.50000 25.677
82.52000 23.614
82.54000 26.847
82.56000 30.234
82.58000 25.939
82.60000 22.216
82.62000 24.223
82.64000 25.807
82.66000 21.010
82.68000 17.280
82.70000 21.980
82.72000 22.464
82.74000 27.161
82.76000 22.428
82.78000 20.815
82.80000 24.368
82.82000 25.338
82.84000 18.948
82.86000 10.841
82.88000 11.046
82.90000 13.444
82.92000 17.450
82.94000 17.353
82.96000 16.151
82.98000 17.963
83.00000 18.948
83.02000 19.190
83.04000 15.307
83.06000 17.090
83.08000 18.208
83.10000 15.476
83.12000 21.486
83.14000 19.806
83.16000 18.883
83.18000 16.520
83.20000 13.673
83.22000 12.313
83.24000 10.394
83.26000 10.080
83.28000 8.124
83.30000 11.083
83.32000 10.308
83.34000 13.678
83.36000 14.810
83.38000 13.225
83.40000 9.606
83.42000 14.273
83.44000 6.806
83.46000 8.244
83.48000 8.895
83.50000 14.006
83.52000 12.555
83.54000 7.890
83.56000 5.109
83.58000 4.068
83.60000 3.249
83.62000 3.570
83.64000 8.317
83.66000 12.130
83.68000 10.945
83.70000 3.500
83.72000 7.881
83.74000 10.773
83.76000 5.109
83.78000 2.021
83.80000 1.059
83.82000 0.663
83.84000 4.966
83.86000 3.795
83.88000 2.677
83.90000 4.907
83.92000 9.255
83.94000 5.583
83.96000 3.608
83.98000 0.089
84.00000 1.434
84.02000 1.791
84.04000 3.571
84.06000 4.597
84.08000 4.238
84.10000 7.913
84.12000 6.185
84.14000 5.447
84.16000 7.348
84.18000 9.955
84.20000 7.186
84.22000 4.692
84.24000 0.743
84.26000 0.466
84.28000 4.431
84.30000 -2.527
84.32000 -0.152
84.34000 5.688
84.36000 6.623
84.38000 8.933
84.40000 7.466
84.42000 1.516
84.44000 1.838
84.46000 0.232
84.48000 3.343
84.50000 7.011
84.52000 5.111
84.54000 7.289
84.56000 4.513
84.58000 6.404
84.60000 6.916
84.62000 7.690
84.64000 3.936
84.66000 3.468
84.68000 4.980
84.70000 0.612
84.72000 -0.343
84.74000 -2.052
84.76000 0.035
84.78000 6.936
84.80000 3.940
84.82000 1.690
84.84000 -2.499
84.86000 3.125
84.88000 5.277
84.90000 7.073
84.92000 2.647
84.94000 1.571
84.96000 1.864
84.98000 3.612
85.00000 1.492
85.02000 2.756
85.04000 4.009
85.06000 4.967
85.08000 2.839
85.10000 4.539
85.12000 3.146
85.14000 -1.722
85.16000 0.774
85.18000 1.471
85.20000 -1.465
85.22000 1.533
85.24000 8.744
85.26000 8.867
85.28000 -0.371
85.30000 4.785
85.32000 15.462
85.34000 9.444
85.36000 6.410
85.38000 7.604
85.40000 5.861
85.42000 4.979
85.44000 11.875
85.46000 8.197
85.48000 1.786
85.50000 0.811
85.52000 0.798
85.54000 2.979
85.56000 5.978
85.58000 5.674
85.60000 5.642
85.62000 2.963
85.64000 4.193
85.66000 8.427
85.68000 7.301
85.70000 8.342
85.72000 6.597
85.74000 5.580
85.76000 8.865
85.78000 7.334
85.80000 9.987
85.82000 7.657
85.84000 9.795
85.86000 8.159
85.88000 5.962
85.90000 5.570
85.92000 6.231
85.94000 6.034
85.96000 5.379
85.98000 5.877
86.00000 10.567
86.02000 12.141
86.04000 15.111
86.06000 9.019
86.08000 16.342
86.10000 14.641
86.12000 11.956
86.14000 12.410
86.16000 16.539
86.18000 17.674
86.20000 16.785
86.22000 18.406
86.24000 17.297
86.26000 16.696
86.28000 19.042
86.30000 19.403
86.32000 17.568
86.34000 25.727
86.36000 26.468
86.38000 23.682
86.40000 19.125
86.42000 23.836
86.44000 23.369
86.46000 26.031
86.48000 25.822
86.50000 22.172
86.52000 23.294
86.54000 27.273
86.56000 21.495
86.58000 25.765
86.60000 26.380
86.62000 28.983
86.64000 23.109
86.66000 22.234
86.68000 25.801
86.70000 27.957
86.72000 26.793
86.74000 25.803
86.76000 21.708
86.78000 25.945
86.80000 24.730
86.82000 29.450
86.84000 32.589
86.86000 31.049
86.88000 31.293
86.90000 34.482
86.92000 26.068
86.94000 27.265
86.96000 24.790
86.98000 21.294
87.00000 25.046
87.02000 29.986
87.04000 26.770
87.06000 27.493
87.08000 23.155
87.10000 24.829
87.12000 28.695
87.14000 29.591
87.16000 26.126
87.18000 23.013
87.20000 23.874
87.22000 22.798
87.24000 23.000
87.26000 21.611
87.28000 21.857
87.30000 21.939
87.32000 17.929
87.34000 18.870
87.36000 16.276
87.38000 14.172
87.40000 17.861
87.42000 20.897
87.44000 21.651
87.46000 15.530
87.48000 15.747
87.50000 14.332
87.52000 9.797
87.54000 14.050
87.56000 17.448
87.58000 11.393
87.60000 10.597
87.62000 14.059
87.64000 11.734
87.66000 13.023
87.68000 17.791
87.70000 15.026
87.72000 11.815
87.74000 10.698
87.76000 6.637
87.78000 8.319
87.80000 9.938
87.82000 8.835
87.84000 10.013
87.86000 7.849
87.88000 3.567
87.90000 2.804
87.92000 4.505
87.94000 7.564
87.96000 11.535
87.98000 10.466
88.00000 10.810
88.02000 7.089
88.04000 4.022
88.06000 9.456
88.08000 13.744
88.10000 6.883
88.12000 4.846
88.14000 1.393
88.16000 0.159
88.18000 1.150
88.20000 4.128
88.22000 2.896
88.24000 4.737
88.26000 6.773
88.28000 -0.263
88.30000 5.906
88.32000 5.587
88.34000 1.958
88.36000 4.883
88.38000 4.237
88.40000 7.528
88.42000 7.061
88.44000 4.774
88.46000 0.422
88.48000 1.137
88.50000 7.489
88.52000 9.289
88.54000 8.902
88.56000 5.481
88.58000 4.866
88.60000 7.042
88.62000 3.877
88.64000 1.719
88.66000 6.384
88.68000 6.669
88.70000 7.584
88.72000 1.016
88.74000 -2.274
88.76000 3.453
88.78000 6.264
88.80000 2.043
88.82000 4.679
88.84000 7.940
88.86000 5.787
88.88000 1.971
88.90000 7.077
88.92000 7.407
88.94000 7.768
88.96000 7.230
88.98000 3.700
89.00000 5.247
89.02000 7.689
89.04000 11.458
89.06000 8.127
89.08000 7.239
89.10000 6.643
89.12000 5.617
89.14000 3.191
89.16000 -0.009
89.18000 4.143
89.20000 9.638
89.22000 9.506
89.24000 6.068
89.26000 0.409
89.28000 0.086
89.30000 4.387
89.32000 -2.245
89.34000 -1.492
89.36000 4.389
89.38000 7.091
89.40000 9.310
89.42000 7.677
89.44000 5.505
89.46000 4.780
89.48000 6.702
89.50000 3.461
89.52000 6.841
89.54000 1.747
89.56000 -0.180
89.58000 5.456
89.60000 8.348
89.62000 5.805
89.64000 4.290
89.66000 5.454
89.68000 5.205
89.70000 5.277
89.72000 4.122
89.74000 5.026
89.76000 3.787
89.78000 2.032
89.80000 1.856
89.82000 6.283
89.84000 5.504
89.86000 3.568
89.88000 5.765
89.90000 4.188
89.92000 3.811
89.94000 5.930
89.96000 5.969
89.98000 6.576
90.00000 9.091
90.02000 9.839
90.04000 6.724
90.06000 3.085
90.08000 -0.126
90.10000 0.516
90.12000 2.297
90.14000 0.825
90.16000 2.182
90.18000 0.841
90.20000 5.214
90.22000 2.749
90.24000 3.879
90.26000 1.837
90.28000 4.903
90.30000 2.338
90.32000 1.992
90.34000 3.187
90.36000 3.817
90.38000 3.960
90.40000 5.517
90.42000 4.580
90.44000 2.109
90.46000 5.935
90.48000 3.932
90.50000 7.123
90.52000 5.953
90.54000 5.545
90.56000 -2.217
90.58000 1.523
90.60000 7.272
90.62000 8.300
90.64000 8.496
90.66000 7.127
90.68000 7.497
90.70000 5.661
90.72000 7.649
90.74000 5.963
90.76000 9.034
90.78000 6.767
90.80000 3.958
90.82000 7.740
90.84000 9.238
90.86000 7.331
90.88000 8.287
90.90000 6.363
90.92000 9.869
90.94000 5.408
90.96000 3.287
90.98000 4.300
91.00000 2.935
91.02000 3.642
91.04000 6.761
91.06000 10.181
91.08000 9.166
91.10000 9.476
91.12000 8.819
91.14000 9.008
91.16000 6.793
91.18000 6.651
91.20000 8.480
91.22000 3.094
91.24000 0.969
91.26000 -2.115
91.28000 1.904
91.30000 3.774
91.32000 4.747
91.34000 2.687
91.36000 6.638
91.38000 11.249
91.40000 6.332
91.42000 3.822
91.44000 7.025
91.46000 5.353
91.48000 3.457
91.50000 5.238
91.52000 9.339
91.54000 8.592
91.56000 1.886
91.58000 -2.259
91.60000 0.146
91.62000 0.723
91.64000 5.875
91.66000 6.282
91.68000 8.217
91.70000 9.451
91.72000 6.447
91.74000 2.808
91.76000 4.301
91.78000 3.262
91.80000 6.174
91.82000 3.910
91.84000 7.665
91.86000 9.910
91.88000 4.819
91.90000 4.926
91.92000 2.078
91.94000 3.117
91.96000 4.294
91.98000 3.485
92.00000 3.415
92.02000 4.838
92.04000 2.920
92.06000 4.175
92.08000 6.787
92.10000 3.968
92.12000 -2.271
92.14000 3.819
92.16000 2.993
92.18000 5.399
92.20000 5.772
92.22000 5.355
92.24000 5.897
92.26000 9.477
92.28000 3.538
92.30000 2.027
92.32000 3.184
92.34000 4.177
92.36000 3.709
92.38000 3.688
92.40000 9.194
92.42000 8.487
92.44000 5.298
92.46000 0.310
92.48000 2.444
92.50000 3.362
92.52000 7.385
92.54000 5.533
92.56000 5.881
92.58000 7.320
92.60000 0.510
92.62000 4.680
92.64000 4.624
92.66000 4.929
92.68000 5.925
92.70000 1.516
92.72000 5.159
92.74000 4.054
92.76000 5.761
92.78000 0.460
92.80000 3.023
92.82000 5.782
92.84000 7.829
92.86000 10.072
92.88000 6.679
92.90000 5.703
92.92000 0.531
92.94000 1.179
92.96000 4.341
92.98000 6.585
93.00000 6.836
93.02000 4.834
93.04000 0.645
93.06000 1.413
93.08000 2.039
93.10000 4.663
93.12000 5.634
93.14000 0.493
93.16000 -2.252
93.18000 0.430
93.20000 1.136
93.22000 8.558
93.24000 10.087
93.26000 6.657
93.28000 9.410
93.30000 4.812
93.32000 1.888
93.34000 -2.262
93.36000 0.464
93.38000 0.938
93.40000 3.245
93.42000 7.014
93.44000 5.592
93.46000 0.891
93.48000 4.293
93.50000 1.931
93.52000 0.809
93.54000 1.799
93.56000 6.828
93.58000 6.756
93.60000 6.781
93.62000 8.301
93.64000 7.167
93.66000 8.255
93.68000 2.310
93.70000 3.004
93.72000 1.819
93.74000 -2.278
93.76000 0.906
93.78000 4.297
93.80000 4.133
93.82000 3.989
93.84000 -0.313
93.86000 5.457
93.88000 10.725
93.90000 3.616
93.92000 5.628
93.94000 8.128
93.96000 3.258
93.98000 8.908
94.00000 9.529
94.02000 0.341
94.04000 4.849
94.06000 5.387
94.08000 4.587
94.10000 6.806
94.12000 0.110
94.14000 0.469
94.16000 1.458
94.18000 1.280
94.20000 0.912
94.22000 1.108
94.24000 0.998
94.26000 3.801
94.28000 3.317
94.30000 5.770
94.32000 5.057
94.34000 -2.288
94.36000 1.582
94.38000 1.663
94.40000 0.117
94.42000 3.168
94.44000 4.927
94.46000 3.908
94.48000 -1.845
94.50000 0.289
94.52000 -0.025
94.54000 0.076
94.56000 -0.609
94.58000 -1.984
94.60000 -0.502
94.62000 -2.235
94.64000 0.232
94.66000 4.622
94.68000 1.926
94.70000 3.313
94.72000 3.213
94.74000 1.969
94.76000 2.525
94.78000 2.797
94.80000 1.343
94.82000 5.360
94.84000 7.702
94.86000 6.398
94.88000 5.069
94.90000 0.829
94.92000 1.846
94.94000 -1.051
94.96000 1.750
94.98000 1.135
95.00000 1.784
95.02000 3.131
95.04000 -2.123
95.06000 0.711
95.08000 4.380
95.10000 1.688
95.12000 3.574
95.14000 2.396
95.16000 7.411
95.18000 4.688
95.20000 3.088
95.22000 3.520
95.24000 -0.135
95.26000 -1.416
95.28000 -1.693
95.30000 3.734
95.32000 9.874
95.34000 6.768
95.36000 -1.190
95.38000 2.349
95.40000 6.583
95.42000 0.425
95.44000 -2.316
95.46000 5.854
95.48000 11.081
95.50000 7.396
95.52000 0.147
95.54000 -0.288
95.56000 -0.256
95.58000 3.721
95.60000 6.965
95.62000 6.573
95.64000 1.294
95.66000 3.987
95.68000 5.800
95.70000 0.983
95.72000 5.496
95.74000 1.113
95.76000 3.781
95.78000 3.470
95.80000 4.054
95.82000 1.624
95.84000 4.043
95.86000 7.640
95.88000 4.689
95.90000 3.954
95.92000 9.084
95.94000 4.955
95.96000 1.911
95.98000 2.454
96.00000 -2.294
96.02000 1.393
96.04000 0.802
96.06000 3.787
96.08000 6.215
96.10000 9.171
96.12000 2.696
96.14000 6.397
96.16000 10.732
96.18000 10.268
96.20000 2.121
96.22000 9.231
96.24000 10.521
96.26000 9.801
96.28000 14.148
96.30000 11.481
96.32000 6.689
96.34000 6.050
96.36000 5.465
96.38000 5.811
96.40000 7.496
96.42000 -0.335
96.44000 -2.269
96.46000 5.590
96.48000 5.291
96.50000 7.905
96.52000 8.832
96.54000 10.989
96.56000 7.794
96.58000 4.577
96.60000 10.815
96.62000 4.056
96.64000 5.839
96.66000 9.432
96.68000 8.963
96.70000 8.536
96.72000 3.625
96.74000 2.219
96.76000 5.066
96.78000 5.197
96.80000 6.808
96.82000 9.370
96.84000 3.685
96.86000 -0.459
96.88000 0.919
96.90000 6.199
96.92000 4.621
96.94000 -2.261
96.96000 4.213
96.98000 3.528
97.00000 2.703
97.02000 10.987
97.04000 13.045
97.06000 14.382
97.08000 10.780
97.10000 3.203
97.12000 3.018
97.14000 3.797
97.16000 8.008
97.18000 7.293
97.20000 2.703
97.22000 7.961
97.24000 9.409
97.26000 3.555
97.28000 4.185
97.30000 8.951
97.32000 5.924
97.34000 12.351
97.36000 8.820
97.38000 7.417
97.40000 14.346
97.42000 15.538
97.44000 5.308
97.46000 7.785
97.48000 0.773
97.50000 2.668
97.52000 3.046
97.54000 4.685
97.56000 9.484
97.58000 3.502
97.60000 0.303
97.62000 1.591
97.64000 4.006
97.66000 8.232
97.68000 13.246
97.70000 15.724
97.72000 12.258
97.74000 10.604
97.76000 4.487
97.78000 7.521
97.80000 3.726
97.82000 9.218
97.84000 9.432
97.86000 12.519
97.88000 6.780
97.90000 16.161
97.92000 9.706
97.94000 7.700
97.96000 4.106
97.98000 8.341
98.00000 6.665
98.02000 7.970
98.04000 17.369
98.06000 10.536
98.08000 5.787
98.10000 -0.302
98.12000 -2.213
98.14000 8.251
98.16000 8.147
98.18000 7.686
98.20000 18.033
98.22000 6.108
98.24000 1.247
98.26000 -1.748
98.28000 -1.645
98.30000 8.471
98.32000 9.502
98.34000 4.914
98.36000 6.030
98.38000 3.509
98.40000 -0.195
98.42000 6.501
98.44000 5.119
98.46000 9.450
98.48000 9.359
98.50000 7.448
98.52000 8.938
98.54000 4.938
98.56000 5.739
98.58000 1.118
98.60000 8.362
98.62000 11.736
98.64000 12.072
98.66000 7.401
98.68000 9.509
98.70000 11.079
98.72000 3.498
98.74000 7.185
98.76000 4.703
98.78000 9.467
98.80000 16.604
98.82000 8.028
98.84000 7.122
98.86000 8.784
98.88000 -0.897
98.90000 1.662
98.92000 8.168
98.94000 12.561
98.96000 16.449
98.98000 2.105
99.00000 -2.159
99.02000 -1.503
99.04000 7.591
99.06000 11.157
99.08000 11.962
99.10000 15.081
99.12000 5.444
99.14000 0.848
99.16000 -0.348
99.18000 5.160
99.20000 6.675
99.22000 7.176
99.24000 10.108
99.26000 7.619
99.28000 7.377
99.30000 16.151
99.32000 19.922
99.34000 3.846
99.36000 8.275
99.38000 3.787
99.40000 3.428
99.42000 -0.302
99.44000 -0.802
99.46000 12.873
99.48000 5.358
99.50000 3.231
99.52000 8.616
99.54000 0.692
99.56000 1.615
99.58000 -0.133
99.60000 3.901
99.62000 7.216
99.64000 2.723
99.66000 15.256
99.68000 14.009
99.70000 7.669
99.72000 10.226
99.74000 16.634
99.76000 17.486
99.78000 16.756
99.80000 12.353
99.82000 3.194
99.84000 1.129
99.86000 -0.541
99.88000 -2.330
99.90000 -2.349
99.92000 1.885
99.94000 6.644
99.96000 -2.441
99.98000 0.000
