'Id: "0011388" Comment: "Integrate frame 0011388_Au-Ir-Rh_Rh-rich_XRD-Mapping-218-0000.gfrmwith cursor Wedge Cursor #5" Operator: "B?rgel" Anode: "Cu" Wavelength: "1.5406" Scantype: "2Theta (TwoTheta)" TimePerStep: "1" X: "40.5" Y: "9" Z: "5.95" 
10.00000 0.000
10.02000 -3.018
10.04000 -2.231
10.06000 -1.575
10.08000 -2.626
10.10000 -3.026
10.12000 3.544
10.14000 3.774
10.16000 5.110
10.18000 13.304
10.20000 1.708
10.22000 2.383
10.24000 14.627
10.26000 9.854
10.28000 12.267
10.30000 9.033
10.32000 6.743
10.34000 11.709
10.36000 9.250
10.38000 12.684
10.40000 2.166
10.42000 9.018
10.44000 13.215
10.46000 11.124
10.48000 25.860
10.50000 22.741
10.52000 20.584
10.54000 19.183
10.56000 20.503
10.58000 11.755
10.60000 15.682
10.62000 23.569
10.64000 21.042
10.66000 20.373
10.68000 29.649
10.70000 23.239
10.72000 23.926
10.74000 26.321
10.76000 28.321
10.78000 25.782
10.80000 22.912
10.82000 27.457
10.84000 21.076
10.86000 29.996
10.88000 30.978
10.90000 14.592
10.92000 25.788
10.94000 19.295
10.96000 19.157
10.98000 26.187
11.00000 33.556
11.02000 19.363
11.04000 27.339
11.06000 19.048
11.08000 18.263
11.10000 27.776
11.12000 28.622
11.14000 25.519
11.16000 27.502
11.18000 34.668
11.20000 30.353
11.22000 37.736
11.24000 31.089
11.26000 28.734
11.28000 32.652
11.30000 23.028
11.32000 25.374
11.34000 27.083
11.36000 24.540
11.38000 34.979
11.40000 45.546
11.42000 38.346
11.44000 23.593
11.46000 26.732
11.48000 30.149
11.50000 32.987
11.52000 29.861
11.54000 28.732
11.56000 32.878
11.58000 29.257
11.60000 30.150
11.62000 32.033
11.64000 30.189
11.66000 27.297
11.68000 26.111
11.70000 29.086
11.72000 29.104
11.74000 30.685
11.76000 34.243
11.78000 41.811
11.80000 43.996
11.82000 37.926
11.84000 30.313
11.86000 31.018
11.88000 31.345
11.90000 31.346
11.92000 33.298
11.94000 38.737
11.96000 38.984
11.98000 44.772
12.00000 37.273
12.02000 44.350
12.04000 46.581
12.06000 45.987
12.08000 36.716
12.10000 32.635
12.12000 36.983
12.14000 37.633
12.16000 45.377
12.18000 52.830
12.20000 46.041
12.22000 42.507
12.24000 51.068
12.26000 50.778
12.28000 49.042
12.30000 44.526
12.32000 49.120
12.34000 43.086
12.36000 46.434
12.38000 56.589
12.40000 51.187
12.42000 39.798
12.44000 50.661
12.46000 47.398
12.48000 48.695
12.50000 48.716
12.52000 44.845
12.54000 51.082
12.56000 47.648
12.58000 41.895
12.60000 51.224
12.62000 44.789
12.64000 48.894
12.66000 48.375
12.68000 50.243
12.70000 56.857
12.72000 48.780
12.74000 38.681
12.76000 40.875
12.78000 42.358
12.80000 47.405
12.82000 44.592
12.84000 48.519
12.86000 39.992
12.88000 46.534
12.90000 55.688
12.92000 47.365
12.94000 53.445
12.96000 58.183
12.98000 43.519
13.00000 33.244
13.02000 43.753
13.04000 52.873
13.06000 59.415
13.08000 56.524
13.10000 55.248
13.12000 47.935
13.14000 44.984
13.16000 43.495
13.18000 39.819
13.20000 51.850
13.22000 52.883
13.24000 57.301
13.26000 52.148
13.28000 47.400
13.30000 46.345
13.32000 49.366
13.34000 53.329
13.36000 46.264
13.38000 42.638
13.40000 48.900
13.42000 50.053
13.44000 40.450
13.46000 46.971
13.48000 45.046
13.50000 48.741
13.52000 35.711
13.54000 33.930
13.56000 41.602
13.58000 38.582
13.60000 38.685
13.62000 43.621
13.64000 47.954
13.66000 41.037
13.68000 40.971
13.70000 38.619
13.72000 38.779
13.74000 39.333
13.76000 38.655
13.78000 39.865
13.80000 34.194
13.82000 31.745
13.84000 26.117
13.86000 38.382
13.88000 43.581
13.90000 46.131
13.92000 49.643
13.94000 48.099
13.96000 44.983
13.98000 47.308
14.00000 39.450
14.02000 35.129
14.04000 30.253
14.06000 33.118
14.08000 43.478
14.10000 39.628
14.12000 29.787
14.14000 34.545
14.16000 34.312
14.18000 40.554
14.20000 42.853
14.22000 41.461
14.24000 43.281
14.26000 37.855
14.28000 37.670
14.30000 34.147
14.32000 28.642
14.34000 30.907
14.36000 31.560
14.38000 28.931
14.40000 29.085
14.42000 41.532
14.44000 42.551
14.46000 37.470
14.48000 32.456
14.50000 36.593
14.52000 36.890
14.54000 32.059
14.56000 31.322
14.58000 30.506
14.60000 32.348
14.62000 25.674
14.64000 30.848
14.66000 27.723
14.68000 32.385
14.70000 30.115
14.72000 17.352
14.74000 24.057
14.76000 30.005
14.78000 24.760
14.80000 30.715
14.82000 26.639
14.84000 22.487
14.86000 28.684
14.88000 24.822
14.90000 17.774
14.92000 26.021
14.94000 29.028
14.96000 34.417
14.98000 35.744
15.00000 36.342
15.02000 28.098
15.04000 21.907
15.06000 22.148
15.08000 27.750
15.10000 21.813
15.12000 28.559
15.14000 25.059
15.16000 26.011
15.18000 24.873
15.20000 20.012
15.22000 23.747
15.24000 25.772
15.26000 27.882
15.28000 32.050
15.30000 22.791
15.32000 26.348
15.34000 24.935
15.36000 27.352
15.38000 17.457
15.40000 19.289
15.42000 20.842
15.44000 21.485
15.46000 21.208
15.48000 25.033
15.50000 26.478
15.52000 29.731
15.54000 25.757
15.56000 23.230
15.58000 18.837
15.60000 24.387
15.62000 26.895
15.64000 27.502
15.66000 26.625
15.68000 24.796
15.70000 20.153
15.72000 14.257
15.74000 8.239
15.76000 19.526
15.78000 20.594
15.80000 18.278
15.82000 15.880
15.84000 20.997
15.86000 26.329
15.88000 20.851
15.90000 14.769
15.92000 20.724
15.94000 19.081
15.96000 20.219
15.98000 16.883
16.00000 11.497
16.02000 22.142
16.04000 25.600
16.06000 25.262
16.08000 18.074
16.10000 20.955
16.12000 14.664
16.14000 13.990
16.16000 8.806
16.18000 7.247
16.20000 15.842
16.22000 19.422
16.24000 18.971
16.26000 7.643
16.28000 8.231
16.30000 14.461
16.32000 12.163
16.34000 11.584
16.36000 21.092
16.38000 25.018
16.40000 13.785
16.42000 9.575
16.44000 16.021
16.46000 10.104
16.48000 9.563
16.50000 17.498
16.52000 15.257
16.54000 7.968
16.56000 4.535
16.58000 18.032
16.60000 8.255
16.62000 4.925
16.64000 1.462
16.66000 1.176
16.68000 7.579
16.70000 18.417
16.72000 16.190
16.74000 11.518
16.76000 12.871
16.78000 2.937
16.80000 9.223
16.82000 8.400
16.84000 5.616
16.86000 1.327
16.88000 8.479
16.90000 11.987
16.92000 15.117
16.94000 11.229
16.96000 10.637
16.98000 15.803
17.00000 15.063
17.02000 11.128
17.04000 4.037
17.06000 3.024
17.08000 11.110
17.10000 10.568
17.12000 7.661
17.14000 11.324
17.16000 14.514
17.18000 2.946
17.20000 0.920
17.22000 5.451
17.24000 10.184
17.26000 10.691
17.28000 12.139
17.30000 16.166
17.32000 14.254
17.34000 11.285
17.36000 12.074
17.38000 11.585
17.40000 4.480
17.42000 5.485
17.44000 13.188
17.46000 5.104
17.48000 6.551
17.50000 14.944
17.52000 17.286
17.54000 13.613
17.56000 -0.674
17.58000 -0.209
17.60000 8.788
17.62000 9.407
17.64000 11.765
17.66000 14.194
17.68000 2.495
17.70000 0.631
17.72000 2.315
17.74000 8.329
17.76000 7.034
17.78000 2.855
17.80000 4.400
17.82000 2.191
17.84000 -0.280
17.86000 -4.363
17.88000 -1.386
17.90000 -2.061
17.92000 -0.616
17.94000 3.000
17.96000 2.634
17.98000 9.577
18.00000 7.639
18.02000 0.525
18.04000 3.570
18.06000 3.162
18.08000 7.641
18.10000 4.899
18.12000 3.231
18.14000 -2.048
18.16000 -3.991
18.18000 1.181
18.20000 0.660
18.22000 -2.391
18.24000 3.011
18.26000 10.243
18.28000 7.511
18.30000 9.966
18.32000 3.793
18.34000 -1.769
18.36000 6.664
18.38000 4.308
18.40000 2.156
18.42000 4.567
18.44000 6.321
18.46000 9.519
18.48000 7.728
18.50000 6.058
18.52000 7.145
18.54000 2.952
18.56000 -1.261
18.58000 2.775
18.60000 4.482
18.62000 0.849
18.64000 -2.775
18.66000 0.218
18.68000 0.569
18.70000 4.030
18.72000 -2.562
18.74000 -2.636
18.76000 6.939
18.78000 11.872
18.80000 10.512
18.82000 6.063
18.84000 6.960
18.86000 3.811
18.88000 -2.875
18.90000 -1.606
18.92000 4.599
18.94000 7.069
18.96000 5.686
18.98000 3.746
19.00000 4.384
19.02000 7.564
19.04000 3.546
19.06000 6.119
19.08000 1.942
19.10000 -3.404
19.12000 4.395
19.14000 5.243
19.16000 1.886
19.18000 6.244
19.20000 0.308
19.22000 -1.503
19.24000 5.274
19.26000 6.111
19.28000 4.363
19.30000 1.338
19.32000 -0.206
19.34000 0.827
19.36000 -2.234
19.38000 -2.032
19.40000 7.834
19.42000 8.484
19.44000 3.646
19.46000 7.998
19.48000 1.326
19.50000 0.715
19.52000 2.385
19.54000 3.847
19.56000 5.167
19.58000 -0.541
19.60000 -0.087
19.62000 5.676
19.64000 6.110
19.66000 3.072
19.68000 4.846
19.70000 2.662
19.72000 6.842
19.74000 13.692
19.76000 11.909
19.78000 6.303
19.80000 4.790
19.82000 7.009
19.84000 4.955
19.86000 4.201
19.88000 5.508
19.90000 12.421
19.92000 -0.772
19.94000 -1.668
19.96000 0.323
19.98000 -0.091
20.00000 -4.227
20.02000 -1.242
20.04000 3.090
20.06000 5.428
20.08000 -1.273
20.10000 5.508
20.12000 6.163
20.14000 3.884
20.16000 4.502
20.18000 8.616
20.20000 6.646
20.22000 9.498
20.24000 9.081
20.26000 13.196
20.28000 11.136
20.30000 1.238
20.32000 2.368
20.34000 1.092
20.36000 4.115
20.38000 4.986
20.40000 4.898
20.42000 1.292
20.44000 6.216
20.46000 9.138
20.48000 6.937
20.50000 7.833
20.52000 6.561
20.54000 5.605
20.56000 9.363
20.58000 15.936
20.60000 14.065
20.62000 5.686
20.64000 9.422
20.66000 13.488
20.68000 10.449
20.70000 -0.548
20.72000 -4.171
20.74000 2.041
20.76000 7.224
20.78000 7.551
20.80000 14.813
20.82000 13.593
20.84000 10.729
20.86000 5.594
20.88000 7.439
20.90000 2.715
20.92000 12.600
20.94000 12.913
20.96000 1.682
20.98000 2.401
21.00000 2.897
21.02000 4.356
21.04000 5.711
21.06000 7.325
21.08000 12.874
21.10000 11.218
21.12000 8.467
21.14000 13.850
21.16000 13.474
21.18000 8.953
21.20000 7.895
21.22000 2.718
21.24000 1.078
21.26000 3.750
21.28000 5.928
21.30000 11.460
21.32000 2.393
21.34000 -0.764
21.36000 4.158
21.38000 1.550
21.40000 6.666
21.42000 11.135
21.44000 6.794
21.46000 6.640
21.48000 7.506
21.50000 9.701
21.52000 3.299
21.54000 -4.138
21.56000 2.082
21.58000 -0.196
21.60000 5.931
21.62000 5.223
21.64000 1.654
21.66000 3.808
21.68000 6.478
21.70000 8.424
21.72000 7.556
21.74000 2.812
21.76000 2.919
21.78000 4.463
21.80000 8.145
21.82000 5.552
21.84000 6.671
21.86000 21.358
21.88000 15.854
21.90000 7.625
21.92000 0.297
21.94000 1.180
21.96000 6.144
21.98000 5.015
22.00000 2.462
22.02000 3.167
22.04000 -0.108
22.06000 2.590
22.08000 0.918
22.10000 1.429
22.12000 2.024
22.14000 1.466
22.16000 2.277
22.18000 3.785
22.20000 5.218
22.22000 6.018
22.24000 6.801
22.26000 6.300
22.28000 2.553
22.30000 0.906
22.32000 -0.226
22.34000 6.838
22.36000 4.759
22.38000 3.695
22.40000 4.569
22.42000 3.970
22.44000 4.832
22.46000 5.303
22.48000 0.881
22.50000 -2.082
22.52000 6.337
22.54000 12.099
22.56000 9.347
22.58000 1.177
22.60000 2.705
22.62000 4.766
22.64000 7.554
22.66000 5.904
22.68000 2.933
22.70000 1.225
22.72000 5.500
22.74000 6.631
22.76000 1.929
22.78000 1.207
22.80000 -1.068
22.82000 -0.893
22.84000 6.368
22.86000 5.884
22.88000 8.560
22.90000 8.020
22.92000 2.989
22.94000 1.401
22.96000 0.949
22.98000 5.081
23.00000 4.628
23.02000 1.712
23.04000 -1.400
23.06000 1.835
23.08000 3.571
23.10000 3.064
23.12000 2.119
23.14000 0.248
23.16000 1.905
23.18000 2.493
23.20000 4.959
23.22000 4.731
23.24000 -3.023
23.26000 -0.107
23.28000 6.158
23.30000 2.200
23.32000 -4.053
23.34000 2.173
23.36000 6.070
23.38000 7.221
23.40000 7.936
23.42000 4.968
23.44000 3.729
23.46000 1.870
23.48000 3.534
23.50000 2.911
23.52000 1.146
23.54000 5.651
23.56000 2.977
23.58000 2.796
23.60000 6.287
23.62000 4.702
23.64000 -0.940
23.66000 4.678
23.68000 8.839
23.70000 5.243
23.72000 4.761
23.74000 8.393
23.76000 4.966
23.78000 2.983
23.80000 6.509
23.82000 10.689
23.84000 3.070
23.86000 -0.714
23.88000 4.443
23.90000 2.204
23.92000 3.250
23.94000 7.442
23.96000 3.547
23.98000 -1.545
24.00000 5.770
24.02000 5.941
24.04000 5.136
24.06000 9.729
24.08000 8.389
24.10000 6.481
24.12000 8.128
24.14000 5.969
24.16000 0.993
24.18000 2.402
24.20000 2.687
24.22000 -0.844
24.24000 -1.898
24.26000 3.675
24.28000 3.992
24.30000 0.967
24.32000 1.051
24.34000 3.145
24.36000 1.860
24.38000 6.144
24.40000 2.640
24.42000 6.204
24.44000 5.465
24.46000 -0.165
24.48000 2.484
24.50000 3.235
24.52000 6.915
24.54000 6.068
24.56000 7.489
24.58000 1.404
24.60000 4.546
24.62000 4.238
24.64000 4.834
24.66000 2.157
24.68000 -1.399
24.70000 -3.480
24.72000 4.290
24.74000 7.859
24.76000 10.099
24.78000 6.222
24.80000 0.495
24.82000 0.589
24.84000 3.535
24.86000 3.540
24.88000 3.153
24.90000 4.774
24.92000 5.597
24.94000 1.977
24.96000 6.636
24.98000 8.458
25.00000 6.410
25.02000 6.113
25.04000 9.257
25.06000 3.228
25.08000 -0.514
25.10000 0.150
25.12000 8.057
25.14000 7.440
25.16000 -0.022
25.18000 0.922
25.20000 3.848
25.22000 1.174
25.24000 -3.952
25.26000 2.871
25.28000 3.866
25.30000 8.441
25.32000 2.917
25.34000 3.806
25.36000 2.724
25.38000 3.916
25.40000 5.168
25.42000 7.402
25.44000 5.780
25.46000 0.880
25.48000 6.205
25.50000 9.019
25.52000 3.869
25.54000 2.831
25.56000 2.730
25.58000 3.572
25.60000 8.854
25.62000 3.455
25.64000 0.608
25.66000 7.487
25.68000 7.228
25.70000 5.163
25.72000 8.179
25.74000 3.351
25.76000 5.201
25.78000 8.577
25.80000 10.418
25.82000 1.409
25.84000 -0.827
25.86000 -2.865
25.88000 -1.509
25.90000 3.034
25.92000 1.148
25.94000 4.445
25.96000 5.795
25.98000 4.797
26.00000 3.056
26.02000 3.075
26.04000 6.420
26.06000 2.425
26.08000 -1.575
26.10000 -3.907
26.12000 -2.357
26.14000 3.113
26.16000 1.068
26.18000 3.872
26.20000 8.501
26.22000 5.825
26.24000 7.819
26.26000 8.926
26.28000 3.010
26.30000 3.748
26.32000 1.171
26.34000 2.483
26.36000 0.281
26.38000 1.465
26.40000 3.465
26.42000 7.849
26.44000 4.079
26.46000 4.386
26.48000 6.789
26.50000 9.622
26.52000 6.801
26.54000 -0.190
26.56000 -1.797
26.58000 3.778
26.60000 3.355
26.62000 -0.380
26.64000 -2.316
26.66000 -3.070
26.68000 3.564
26.70000 4.235
26.72000 6.442
26.74000 7.967
26.76000 2.695
26.78000 5.278
26.80000 1.289
26.82000 1.892
26.84000 1.789
26.86000 5.141
26.88000 6.493
26.90000 6.961
26.92000 3.624
26.94000 -1.205
26.96000 -1.014
26.98000 -0.866
27.00000 1.753
27.02000 8.372
27.04000 9.008
27.06000 8.462
27.08000 11.246
27.10000 6.514
27.12000 9.141
27.14000 7.328
27.16000 5.141
27.18000 -1.261
27.20000 2.018
27.22000 2.430
27.24000 -1.850
27.26000 -3.719
27.28000 4.011
27.30000 6.412
27.32000 4.394
27.34000 1.789
27.36000 1.455
27.38000 4.893
27.40000 10.224
27.42000 9.999
27.44000 4.099
27.46000 5.555
27.48000 10.916
27.50000 4.001
27.52000 0.399
27.54000 3.928
27.56000 5.542
27.58000 2.492
27.60000 2.057
27.62000 1.851
27.64000 -0.555
27.66000 5.106
27.68000 7.474
27.70000 -0.879
27.72000 -1.059
27.74000 0.102
27.76000 2.728
27.78000 7.472
27.80000 6.785
27.82000 2.808
27.84000 4.178
27.86000 3.090
27.88000 4.198
27.90000 6.916
27.92000 6.748
27.94000 1.991
27.96000 2.275
27.98000 3.013
28.00000 6.971
28.02000 5.007
28.04000 5.477
28.06000 3.667
28.08000 4.726
28.10000 -3.779
28.12000 -2.996
28.14000 5.451
28.16000 5.311
28.18000 -1.759
28.20000 5.669
28.22000 6.148
28.24000 6.450
28.26000 10.366
28.28000 8.572
28.30000 6.654
28.32000 6.612
28.34000 4.768
28.36000 5.436
28.38000 6.036
28.40000 9.157
28.42000 5.151
28.44000 8.335
28.46000 8.016
28.48000 4.637
28.50000 3.182
28.52000 1.135
28.54000 4.294
28.56000 4.372
28.58000 4.275
28.60000 6.720
28.62000 3.369
28.64000 6.110
28.66000 7.986
28.68000 10.499
28.70000 4.391
28.72000 2.028
28.74000 2.740
28.76000 4.157
28.78000 1.310
28.80000 -3.746
28.82000 0.308
28.84000 5.142
28.86000 3.718
28.88000 -3.685
28.90000 1.349
28.92000 5.403
28.94000 4.197
28.96000 5.808
28.98000 4.352
29.00000 1.567
29.02000 2.670
29.04000 7.005
29.06000 6.657
29.08000 4.545
29.10000 6.731
29.12000 6.127
29.14000 9.896
29.16000 5.669
29.18000 1.517
29.20000 3.682
29.22000 5.269
29.24000 4.493
29.26000 3.908
29.28000 4.436
29.30000 5.999
29.32000 6.525
29.34000 5.634
29.36000 3.064
29.38000 3.211
29.40000 5.399
29.42000 4.966
29.44000 5.499
29.46000 6.943
29.48000 -2.478
29.50000 -3.702
29.52000 -0.074
29.54000 4.403
29.56000 1.774
29.58000 3.601
29.60000 2.406
29.62000 3.440
29.64000 1.332
29.66000 -1.358
29.68000 -1.988
29.70000 -2.637
29.72000 6.157
29.74000 1.278
29.76000 2.407
29.78000 3.315
29.80000 0.159
29.82000 3.663
29.84000 0.838
29.86000 1.136
29.88000 4.305
29.90000 3.187
29.92000 3.444
29.94000 6.804
29.96000 6.261
29.98000 4.800
30.00000 6.760
30.02000 3.448
30.04000 0.344
30.06000 -0.512
30.08000 -0.577
30.10000 -2.384
30.12000 0.802
30.14000 0.548
30.16000 -1.298
30.18000 4.091
30.20000 8.198
30.22000 6.320
30.24000 -1.860
30.26000 -0.930
30.28000 3.547
30.30000 2.819
30.32000 -0.592
30.34000 0.905
30.36000 2.181
30.38000 10.199
30.40000 7.068
30.42000 3.138
30.44000 -0.562
30.46000 1.099
30.48000 3.669
30.50000 -2.736
30.52000 1.203
30.54000 3.426
30.56000 -0.696
30.58000 0.568
30.60000 4.410
30.62000 6.103
30.64000 2.255
30.66000 1.715
30.68000 2.117
30.70000 3.762
30.72000 3.493
30.74000 1.955
30.76000 2.878
30.78000 1.267
30.80000 2.601
30.82000 0.231
30.84000 1.147
30.86000 -1.442
30.88000 -2.915
30.90000 2.690
30.92000 4.083
30.94000 0.935
30.96000 2.089
30.98000 3.105
31.00000 1.553
31.02000 -2.772
31.04000 -1.897
31.06000 0.907
31.08000 2.903
31.10000 1.275
31.12000 5.734
31.14000 3.744
31.16000 -3.349
31.18000 -1.075
31.20000 -0.268
31.22000 0.512
31.24000 3.612
31.26000 2.873
31.28000 6.356
31.30000 4.969
31.32000 3.513
31.34000 2.677
31.36000 2.476
31.38000 1.501
31.40000 3.089
31.42000 2.585
31.44000 2.244
31.46000 5.533
31.48000 6.148
31.50000 0.949
31.52000 0.226
31.54000 -0.892
31.56000 2.897
31.58000 6.390
31.60000 5.892
31.62000 1.723
31.64000 5.392
31.66000 5.171
31.68000 8.503
31.70000 6.356
31.72000 6.459
31.74000 10.280
31.76000 11.244
31.78000 4.201
31.80000 6.137
31.82000 7.099
31.84000 7.786
31.86000 10.631
31.88000 10.622
31.90000 3.098
31.92000 1.422
31.94000 7.440
31.96000 5.661
31.98000 4.736
32.00000 6.539
32.02000 7.750
32.04000 6.408
32.06000 6.595
32.08000 2.519
32.10000 5.421
32.12000 6.367
32.14000 6.688
32.16000 5.568
32.18000 5.386
32.20000 4.015
32.22000 -1.185
32.24000 -3.569
32.26000 1.985
32.28000 11.221
32.30000 12.683
32.32000 9.913
32.34000 11.467
32.36000 13.758
32.38000 8.276
32.40000 3.138
32.42000 -3.574
32.44000 2.072
32.46000 5.619
32.48000 5.104
32.50000 2.999
32.52000 5.315
32.54000 10.381
32.56000 7.777
32.58000 7.960
32.60000 7.221
32.62000 7.287
32.64000 3.911
32.66000 -1.215
32.68000 -2.852
32.70000 -0.852
32.72000 2.213
32.74000 -1.443
32.76000 1.562
32.78000 0.351
32.80000 2.717
32.82000 -2.815
32.84000 -0.226
32.86000 -0.883
32.88000 0.993
32.90000 6.909
32.92000 2.458
32.94000 4.317
32.96000 0.319
32.98000 2.323
33.00000 -1.212
33.02000 3.313
33.04000 7.571
33.06000 2.512
33.08000 2.516
33.10000 2.248
33.12000 0.729
33.14000 -2.778
33.16000 -0.056
33.18000 4.160
33.20000 1.976
33.22000 1.226
33.24000 0.597
33.26000 2.576
33.28000 5.914
33.30000 6.400
33.32000 6.362
33.34000 3.543
33.36000 -1.724
33.38000 5.960
33.40000 2.179
33.42000 0.911
33.44000 3.718
33.46000 -2.067
33.48000 -3.440
33.50000 -3.007
33.52000 -3.342
33.54000 4.775
33.56000 3.267
33.58000 2.361
33.60000 4.133
33.62000 4.177
33.64000 5.770
33.66000 2.869
33.68000 -1.925
33.70000 -2.130
33.72000 4.333
33.74000 2.701
33.76000 0.003
33.78000 3.931
33.80000 3.478
33.82000 -0.018
33.84000 1.485
33.86000 -0.171
33.88000 2.903
33.90000 9.353
33.92000 10.116
33.94000 6.521
33.96000 5.915
33.98000 6.790
34.00000 5.122
34.02000 -0.068
34.04000 3.738
34.06000 1.224
34.08000 0.878
34.10000 -0.531
34.12000 5.010
34.14000 3.745
34.16000 2.280
34.18000 -0.529
34.20000 4.457
34.22000 2.511
34.24000 4.429
34.26000 6.253
34.28000 -0.831
34.30000 1.010
34.32000 1.099
34.34000 -3.118
34.36000 -1.100
34.38000 -0.665
34.40000 0.732
34.42000 5.100
34.44000 2.626
34.46000 -3.570
34.48000 -2.756
34.50000 -1.491
34.52000 5.212
34.54000 4.382
34.56000 -0.495
34.58000 0.288
34.60000 5.309
34.62000 6.501
34.64000 6.028
34.66000 1.235
34.68000 -1.935
34.70000 0.821
34.72000 3.851
34.74000 1.756
34.76000 1.967
34.78000 2.729
34.80000 -3.553
34.82000 -0.494
34.84000 2.747
34.86000 3.244
34.88000 9.500
34.90000 7.526
34.92000 2.361
34.94000 -1.392
34.96000 -1.329
34.98000 0.281
35.00000 0.273
35.02000 2.134
35.04000 -1.357
35.06000 -0.832
35.08000 5.667
35.10000 5.585
35.12000 1.615
35.14000 -0.627
35.16000 -0.176
35.18000 -1.026
35.20000 -2.060
35.22000 -3.541
35.24000 -2.207
35.26000 -0.416
35.28000 1.510
35.30000 2.614
35.32000 -0.011
35.34000 1.131
35.36000 2.195
35.38000 1.648
35.40000 2.991
35.42000 0.900
35.44000 -2.956
35.46000 0.539
35.48000 3.569
35.50000 5.417
35.52000 2.046
35.54000 2.656
35.56000 -2.981
35.58000 1.386
35.60000 5.396
35.62000 5.930
35.64000 4.232
35.66000 -1.606
35.68000 -2.856
35.70000 3.617
35.72000 6.617
35.74000 3.007
35.76000 0.646
35.78000 5.716
35.80000 3.439
35.82000 -1.723
35.84000 0.915
35.86000 -0.419
35.88000 2.794
35.90000 4.575
35.92000 0.426
35.94000 2.832
35.96000 2.989
35.98000 1.555
36.00000 4.279
36.02000 1.687
36.04000 1.312
36.06000 -3.537
36.08000 1.544
36.10000 5.735
36.12000 5.236
36.14000 2.284
36.16000 3.813
36.18000 5.075
36.20000 -3.172
36.22000 0.927
36.24000 1.719
36.26000 1.531
36.28000 4.069
36.30000 1.445
36.32000 3.308
36.34000 2.417
36.36000 -2.224
36.38000 1.382
36.40000 1.103
36.42000 4.658
36.44000 5.724
36.46000 -3.400
36.48000 -2.351
36.50000 -1.545
36.52000 -0.536
36.54000 0.147
36.56000 2.905
36.58000 1.152
36.60000 0.941
36.62000 2.981
36.64000 2.571
36.66000 5.493
36.68000 6.119
36.70000 1.430
36.72000 -2.509
36.74000 0.454
36.76000 -2.425
36.78000 -1.391
36.80000 -3.444
36.82000 0.880
36.84000 2.020
36.86000 0.861
36.88000 1.294
36.90000 -0.074
36.92000 -2.354
36.94000 1.736
36.96000 1.813
36.98000 -0.988
37.00000 -1.690
37.02000 -0.144
37.04000 3.805
37.06000 0.314
37.08000 2.965
37.10000 5.602
37.12000 5.310
37.14000 6.754
37.16000 6.353
37.18000 3.282
37.20000 4.747
37.22000 5.647
37.24000 5.909
37.26000 3.774
37.28000 2.549
37.30000 0.052
37.32000 -3.578
37.34000 -2.512
37.36000 3.136
37.38000 3.505
37.40000 2.862
37.42000 4.900
37.44000 3.020
37.46000 5.803
37.48000 3.868
37.50000 3.798
37.52000 2.824
37.54000 3.755
37.56000 0.751
37.58000 0.617
37.60000 -2.321
37.62000 0.880
37.64000 7.357
37.66000 6.726
37.68000 2.007
37.70000 -0.804
37.72000 -1.883
37.74000 0.950
37.76000 -0.046
37.78000 1.791
37.80000 1.871
37.82000 6.520
37.84000 5.409
37.86000 -0.531
37.88000 -1.958
37.90000 1.281
37.92000 6.043
37.94000 2.012
37.96000 -0.003
37.98000 4.024
38.00000 3.028
38.02000 1.311
38.04000 2.921
38.06000 7.747
38.08000 2.506
38.10000 5.493
38.12000 6.937
38.14000 7.354
38.16000 8.105
38.18000 6.723
38.20000 3.489
38.22000 8.412
38.24000 7.552
38.26000 5.630
38.28000 10.649
38.30000 13.883
38.32000 17.798
38.34000 11.809
38.36000 10.580
38.38000 11.418
38.40000 9.179
38.42000 8.664
38.44000 14.658
38.46000 15.718
38.48000 12.475
38.50000 16.729
38.52000 11.828
38.54000 13.384
38.56000 13.566
38.58000 13.195
38.60000 13.365
38.62000 16.905
38.64000 20.206
38.66000 20.185
38.68000 18.081
38.70000 17.842
38.72000 21.328
38.74000 20.382
38.76000 24.037
38.78000 28.152
38.80000 26.314
38.82000 22.887
38.84000 26.312
38.86000 25.927
38.88000 27.387
38.90000 29.415
38.92000 27.665
38.94000 28.776
38.96000 29.068
38.98000 30.266
39.00000 30.171
39.02000 24.073
39.04000 28.657
39.06000 29.476
39.08000 30.792
39.10000 32.661
39.12000 31.196
39.14000 32.972
39.16000 42.112
39.18000 35.965
39.20000 37.941
39.22000 42.326
39.24000 42.771
39.26000 43.168
39.28000 45.677
39.30000 51.047
39.32000 54.546
39.34000 51.820
39.36000 51.456
39.38000 51.544
39.40000 53.445
39.42000 54.334
39.44000 59.346
39.46000 60.103
39.48000 62.866
39.50000 69.490
39.52000 68.547
39.54000 71.241
39.56000 73.556
39.58000 80.279
39.60000 82.434
39.62000 89.158
39.64000 84.024
39.66000 88.750
39.68000 92.558
39.70000 98.318
39.72000 102.845
39.74000 108.665
39.76000 112.050
39.78000 117.287
39.80000 122.742
39.82000 128.040
39.84000 138.005
39.86000 145.220
39.88000 149.301
39.90000 159.310
39.92000 165.598
39.94000 177.459
39.96000 180.361
39.98000 184.068
40.00000 190.200
40.02000 203.818
40.04000 212.778
40.06000 220.351
40.08000 240.583
40.10000 259.684
40.12000 269.676
40.14000 284.482
40.16000 284.372
40.18000 295.011
40.20000 316.622
40.22000 339.637
40.24000 353.216
40.26000 366.264
40.28000 380.689
40.30000 398.006
40.32000 411.164
40.34000 433.491
40.36000 454.169
40.38000 482.593
40.40000 504.390
40.42000 513.473
40.44000 532.630
40.46000 552.242
40.48000 576.139
40.50000 592.876
40.52000 605.761
40.54000 625.449
40.56000 640.538
40.58000 664.572
40.60000 678.749
40.62000 684.995
40.64000 698.666
40.66000 713.832
40.68000 702.525
40.70000 719.917
40.72000 723.860
40.74000 727.496
40.76000 725.473
40.78000 727.527
40.80000 729.651
40.82000 721.588
40.84000 716.395
40.86000 696.768
40.88000 681.623
40.90000 680.845
40.92000 673.432
40.94000 661.888
40.96000 654.559
40.98000 633.452
41.00000 614.821
41.02000 591.091
41.04000 567.059
41.06000 554.543
41.08000 537.813
41.10000 509.875
41.12000 482.530
41.14000 456.252
41.16000 442.721
41.18000 427.555
41.20000 409.726
41.22000 382.561
41.24000 362.431
41.26000 354.699
41.28000 334.196
41.30000 317.593
41.32000 300.939
41.34000 282.658
41.36000 272.621
41.38000 262.292
41.40000 243.520
41.42000 228.756
41.44000 219.995
41.46000 205.674
41.48000 193.500
41.50000 180.778
41.52000 176.082
41.54000 166.287
41.56000 157.948
41.58000 145.027
41.60000 141.062
41.62000 134.616
41.64000 126.835
41.66000 120.099
41.68000 115.350
41.70000 108.120
41.72000 103.585
41.74000 95.989
41.76000 85.652
41.78000 87.226
41.80000 88.647
41.82000 79.256
41.84000 75.597
41.86000 77.184
41.88000 68.211
41.90000 67.718
41.92000 59.951
41.94000 52.609
41.96000 50.170
41.98000 56.426
42.00000 50.545
42.02000 47.713
42.04000 43.873
42.06000 42.029
42.08000 36.772
42.10000 37.089
42.12000 39.801
42.14000 36.452
42.16000 39.186
42.18000 34.456
42.20000 29.763
42.22000 28.813
42.24000 25.065
42.26000 20.020
42.28000 24.497
42.30000 31.190
42.32000 25.020
42.34000 23.783
42.36000 21.174
42.38000 21.570
42.40000 18.176
42.42000 16.399
42.44000 16.237
42.46000 17.053
42.48000 12.541
42.50000 12.287
42.52000 13.736
42.54000 14.187
42.56000 11.012
42.58000 12.317
42.60000 15.669
42.62000 11.544
42.64000 6.170
42.66000 6.833
42.68000 11.456
42.70000 8.508
42.72000 6.530
42.74000 11.055
42.76000 7.976
42.78000 4.668
42.80000 8.409
42.82000 6.948
42.84000 4.797
42.86000 5.331
42.88000 3.527
42.90000 3.573
42.92000 -0.177
42.94000 4.178
42.96000 2.192
42.98000 1.728
43.00000 -1.324
43.02000 -3.702
43.04000 1.006
43.06000 7.912
43.08000 4.176
43.10000 5.122
43.12000 8.996
43.14000 6.262
43.16000 0.840
43.18000 -1.167
43.20000 0.885
43.22000 2.386
43.24000 2.277
43.26000 0.187
43.28000 2.369
43.30000 -0.327
43.32000 -1.058
43.34000 3.119
43.36000 7.810
43.38000 0.719
43.40000 -1.221
43.42000 4.825
43.44000 0.760
43.46000 -3.654
43.48000 -1.550
43.50000 1.668
43.52000 3.226
43.54000 2.411
43.56000 1.939
43.58000 7.467
43.60000 2.662
43.62000 3.268
43.64000 5.190
43.66000 2.244
43.68000 -1.279
43.70000 1.547
43.72000 -0.507
43.74000 -2.631
43.76000 -0.237
43.78000 -1.112
43.80000 2.499
43.82000 7.705
43.84000 3.306
43.86000 -0.899
43.88000 2.286
43.90000 5.453
43.92000 2.932
43.94000 3.247
43.96000 4.510
43.98000 5.314
44.00000 5.591
44.02000 2.117
44.04000 1.008
44.06000 2.870
44.08000 1.933
44.10000 1.505
44.12000 1.016
44.14000 2.787
44.16000 5.815
44.18000 -0.471
44.20000 1.515
44.22000 3.708
44.24000 -3.550
44.26000 1.483
44.28000 9.038
44.30000 5.651
44.32000 4.859
44.34000 1.169
44.36000 -3.307
44.38000 -1.699
44.40000 1.182
44.42000 4.774
44.44000 9.200
44.46000 7.462
44.48000 3.471
44.50000 5.372
44.52000 0.130
44.54000 0.025
44.56000 1.475
44.58000 0.460
44.60000 -1.442
44.62000 -0.828
44.64000 4.948
44.66000 5.458
44.68000 -1.638
44.70000 -0.903
44.72000 -0.074
44.74000 0.689
44.76000 2.182
44.78000 7.019
44.80000 10.596
44.82000 3.097
44.84000 1.174
44.86000 5.797
44.88000 4.757
44.90000 4.588
44.92000 6.612
44.94000 4.671
44.96000 0.840
44.98000 -0.934
45.00000 -3.569
45.02000 1.793
45.04000 1.432
45.06000 2.278
45.08000 3.159
45.10000 2.476
45.12000 4.423
45.14000 6.336
45.16000 3.302
45.18000 5.347
45.20000 0.107
45.22000 -3.120
45.24000 0.860
45.26000 4.396
45.28000 7.943
45.30000 6.172
45.32000 4.101
45.34000 9.422
45.36000 7.471
45.38000 4.265
45.40000 0.366
45.42000 1.776
45.44000 3.471
45.46000 4.399
45.48000 7.174
45.50000 9.690
45.52000 7.450
45.54000 -0.028
45.56000 4.245
45.58000 8.962
45.60000 7.381
45.62000 6.752
45.64000 5.955
45.66000 6.249
45.68000 10.448
45.70000 8.490
45.72000 10.806
45.74000 15.631
45.76000 13.653
45.78000 7.351
45.80000 4.620
45.82000 4.351
45.84000 9.455
45.86000 8.680
45.88000 2.912
45.90000 4.161
45.92000 10.728
45.94000 12.001
45.96000 12.828
45.98000 20.623
46.00000 16.744
46.02000 14.522
46.04000 19.674
46.06000 20.463
46.08000 12.675
46.10000 11.441
46.12000 15.717
46.14000 19.505
46.16000 19.129
46.18000 17.695
46.20000 27.742
46.22000 31.559
46.24000 26.850
46.26000 22.304
46.28000 30.798
46.30000 32.119
46.32000 26.606
46.34000 20.746
46.36000 25.424
46.38000 25.893
46.40000 26.337
46.42000 29.076
46.44000 33.316
46.46000 38.828
46.48000 44.948
46.50000 49.134
46.52000 46.866
46.54000 39.012
46.56000 39.228
46.58000 39.970
46.60000 39.402
46.62000 42.598
46.64000 40.874
46.66000 43.439
46.68000 52.120
46.70000 53.695
46.72000 45.267
46.74000 43.363
46.76000 53.055
46.78000 48.832
46.80000 50.667
46.82000 59.101
46.84000 55.169
46.86000 57.003
46.88000 61.978
46.90000 66.510
46.92000 63.718
46.94000 68.620
46.96000 71.727
46.98000 72.393
47.00000 69.300
47.02000 71.689
47.04000 74.218
47.06000 75.679
47.08000 68.668
47.10000 67.984
47.12000 68.302
47.14000 66.287
47.16000 68.254
47.18000 68.838
47.20000 79.415
47.22000 81.499
47.24000 83.543
47.26000 73.464
47.28000 72.535
47.30000 71.233
47.32000 69.788
47.34000 78.396
47.36000 79.399
47.38000 74.961
47.40000 77.044
47.42000 85.368
47.44000 80.395
47.46000 76.034
47.48000 74.289
47.50000 71.251
47.52000 78.381
47.54000 76.093
47.56000 74.905
47.58000 71.839
47.60000 75.412
47.62000 74.641
47.64000 60.201
47.66000 57.664
47.68000 52.833
47.70000 49.379
47.72000 57.313
47.74000 56.549
47.76000 59.612
47.78000 55.736
47.80000 53.398
47.82000 54.885
47.84000 52.498
47.86000 47.691
47.88000 50.553
47.90000 47.887
47.92000 47.419
47.94000 43.881
47.96000 37.927
47.98000 32.201
48.00000 36.531
48.02000 38.520
48.04000 32.444
48.06000 32.281
48.08000 38.162
48.10000 35.838
48.12000 40.825
48.14000 36.365
48.16000 30.461
48.18000 22.424
48.20000 23.801
48.22000 26.377
48.24000 23.636
48.26000 21.506
48.28000 12.279
48.30000 19.432
48.32000 19.474
48.34000 16.468
48.36000 18.199
48.38000 19.693
48.40000 20.005
48.42000 14.034
48.44000 11.765
48.46000 11.348
48.48000 19.787
48.50000 11.523
48.52000 11.007
48.54000 14.056
48.56000 16.156
48.58000 14.745
48.60000 17.682
48.62000 11.454
48.64000 14.430
48.66000 9.884
48.68000 3.612
48.70000 6.764
48.72000 2.760
48.74000 6.607
48.76000 6.982
48.78000 4.159
48.80000 9.381
48.82000 11.428
48.84000 7.618
48.86000 0.221
48.88000 -3.290
48.90000 1.459
48.92000 7.264
48.94000 13.612
48.96000 10.938
48.98000 8.539
49.00000 5.478
49.02000 0.281
49.04000 3.502
49.06000 4.434
49.08000 1.486
49.10000 3.188
49.12000 5.417
49.14000 6.994
49.16000 -1.432
49.18000 4.635
49.20000 0.776
49.22000 -0.060
49.24000 2.767
49.26000 0.293
49.28000 -0.406
49.30000 5.776
49.32000 3.789
49.34000 1.542
49.36000 4.770
49.38000 2.908
49.40000 6.101
49.42000 9.711
49.44000 7.600
49.46000 6.882
49.48000 4.378
49.50000 7.352
49.52000 10.646
49.54000 11.465
49.56000 8.313
49.58000 10.162
49.60000 4.035
49.62000 -3.135
49.64000 -0.064
49.66000 6.007
49.68000 7.731
49.70000 4.467
49.72000 3.569
49.74000 4.360
49.76000 8.214
49.78000 7.595
49.80000 4.938
49.82000 2.972
49.84000 0.694
49.86000 0.399
49.88000 -0.056
49.90000 -3.098
49.92000 0.205
49.94000 5.853
49.96000 9.692
49.98000 5.251
50.00000 4.703
50.02000 -2.450
50.04000 -1.234
50.06000 4.522
50.08000 9.557
50.10000 6.420
50.12000 7.541
50.14000 6.339
50.16000 7.171
50.18000 9.311
50.20000 8.059
50.22000 5.452
50.24000 4.642
50.26000 4.506
50.28000 4.335
50.30000 9.311
50.32000 4.091
50.34000 -0.245
50.36000 1.315
50.38000 3.234
50.40000 7.050
50.42000 2.273
50.44000 -0.161
50.46000 -0.559
50.48000 -0.560
50.50000 0.852
50.52000 -1.616
50.54000 2.192
50.56000 0.687
50.58000 -1.824
50.60000 3.864
50.62000 5.943
50.64000 5.410
50.66000 1.315
50.68000 1.306
50.70000 3.829
50.72000 3.843
50.74000 6.814
50.76000 1.884
50.78000 -0.078
50.80000 2.897
50.82000 0.868
50.84000 1.994
50.86000 3.048
50.88000 1.211
50.90000 5.022
50.92000 7.736
50.94000 8.040
50.96000 1.546
50.98000 2.750
51.00000 7.695
51.02000 3.349
51.04000 -1.349
51.06000 6.732
51.08000 7.255
51.10000 1.830
51.12000 1.834
51.14000 2.271
51.16000 -1.501
51.18000 -2.858
51.20000 -1.862
51.22000 3.420
51.24000 2.421
51.26000 -0.789
51.28000 4.165
51.30000 6.984
51.32000 7.161
51.34000 4.876
51.36000 10.689
51.38000 9.246
51.40000 3.815
51.42000 2.361
51.44000 9.782
51.46000 5.990
51.48000 -3.031
51.50000 -2.583
51.52000 2.142
51.54000 8.207
51.56000 8.207
51.58000 -0.029
51.60000 1.401
51.62000 5.995
51.64000 1.832
51.66000 -2.221
51.68000 0.218
51.70000 -0.470
51.72000 2.478
51.74000 4.450
51.76000 -1.468
51.78000 4.178
51.80000 2.869
51.82000 4.211
51.84000 4.816
51.86000 5.066
51.88000 11.572
51.90000 7.877
51.92000 6.953
51.94000 5.486
51.96000 1.581
51.98000 -1.026
52.00000 1.186
52.02000 6.662
52.04000 3.393
52.06000 1.732
52.08000 6.645
52.10000 6.897
52.12000 1.895
52.14000 2.587
52.16000 7.076
52.18000 6.706
52.20000 8.546
52.22000 5.383
52.24000 2.905
52.26000 -2.980
52.28000 1.257
52.30000 1.641
52.32000 5.106
52.34000 7.270
52.36000 4.878
52.38000 7.591
52.40000 12.262
52.42000 5.561
52.44000 5.594
52.46000 3.084
52.48000 3.747
52.50000 0.530
52.52000 1.054
52.54000 7.134
52.56000 3.961
52.58000 3.198
52.60000 3.523
52.62000 3.116
52.64000 7.112
52.66000 5.916
52.68000 2.081
52.70000 5.895
52.72000 3.028
52.74000 5.229
52.76000 1.462
52.78000 -0.212
52.80000 1.989
52.82000 7.270
52.84000 3.752
52.86000 6.029
52.88000 7.483
52.90000 8.296
52.92000 4.370
52.94000 -0.812
52.96000 4.082
52.98000 2.041
53.00000 5.799
53.02000 7.337
53.04000 0.637
53.06000 2.318
53.08000 0.564
53.10000 1.269
53.12000 -2.982
53.14000 4.224
53.16000 4.625
53.18000 1.325
53.20000 3.778
53.22000 4.371
53.24000 0.934
53.26000 2.295
53.28000 3.114
53.30000 1.894
53.32000 4.993
53.34000 6.118
53.36000 4.605
53.38000 -0.350
53.40000 0.558
53.42000 5.212
53.44000 2.589
53.46000 4.905
53.48000 7.919
53.50000 3.703
53.52000 -2.976
53.54000 0.149
53.56000 2.013
53.58000 2.152
53.60000 3.377
53.62000 4.847
53.64000 -1.219
53.66000 7.658
53.68000 3.604
53.70000 0.225
53.72000 3.278
53.74000 1.892
53.76000 0.768
53.78000 2.969
53.80000 5.822
53.82000 1.853
53.84000 3.640
53.86000 7.161
53.88000 0.719
53.90000 -1.257
53.92000 -0.078
53.94000 0.533
53.96000 0.540
53.98000 -1.661
54.00000 -2.963
54.02000 -1.400
54.04000 3.100
54.06000 5.415
54.08000 2.347
54.10000 3.231
54.12000 2.305
54.14000 0.456
54.16000 2.008
54.18000 5.137
54.20000 9.798
54.22000 4.181
54.24000 3.184
54.26000 1.947
54.28000 1.468
54.30000 -2.258
54.32000 -2.090
54.34000 -0.547
54.36000 2.546
54.38000 4.831
54.40000 5.862
54.42000 5.449
54.44000 7.201
54.46000 5.617
54.48000 4.853
54.50000 3.057
54.52000 -0.025
54.54000 -2.934
54.56000 -2.767
54.58000 -2.280
54.60000 6.759
54.62000 5.873
54.64000 4.499
54.66000 7.609
54.68000 2.300
54.70000 1.205
54.72000 4.030
54.74000 1.890
54.76000 -0.848
54.78000 1.622
54.80000 7.506
54.82000 1.217
54.84000 -2.933
54.86000 3.602
54.88000 7.220
54.90000 3.975
54.92000 -0.044
54.94000 6.026
54.96000 2.807
54.98000 3.658
55.00000 3.944
55.02000 5.092
55.04000 5.045
55.06000 0.095
55.08000 -0.130
55.10000 3.695
55.12000 2.407
55.14000 -1.714
55.16000 3.292
55.18000 3.501
55.20000 3.901
55.22000 4.552
55.24000 5.268
55.26000 3.715
55.28000 -0.842
55.30000 0.232
55.32000 0.684
55.34000 -2.553
55.36000 5.533
55.38000 8.415
55.40000 6.725
55.42000 3.573
55.44000 4.839
55.46000 5.830
55.48000 0.085
55.50000 -2.911
55.52000 -2.289
55.54000 4.508
55.56000 -2.204
55.58000 -1.128
55.60000 5.077
55.62000 6.416
55.64000 1.026
55.66000 -2.042
55.68000 5.458
55.70000 2.253
55.72000 1.991
55.74000 -1.186
55.76000 6.635
55.78000 5.221
55.80000 0.834
55.82000 -0.312
55.84000 2.917
55.86000 -0.606
55.88000 0.554
55.90000 4.329
55.92000 4.865
55.94000 6.198
55.96000 4.705
55.98000 -1.992
56.00000 -0.257
56.02000 4.217
56.04000 2.743
56.06000 6.396
56.08000 4.104
56.10000 6.611
56.12000 4.051
56.14000 -1.503
56.16000 0.608
56.18000 1.447
56.20000 2.632
56.22000 3.184
56.24000 7.836
56.26000 9.594
56.28000 2.421
56.30000 1.190
56.32000 1.247
56.34000 1.173
56.36000 1.977
56.38000 4.200
56.40000 3.898
56.42000 3.260
56.44000 -0.291
56.46000 3.245
56.48000 4.810
56.50000 3.724
56.52000 5.749
56.54000 4.230
56.56000 -0.208
56.58000 0.426
56.60000 5.584
56.62000 3.577
56.64000 6.175
56.66000 2.352
56.68000 4.592
56.70000 -0.064
56.72000 2.549
56.74000 3.391
56.76000 3.843
56.78000 5.075
56.80000 -2.005
56.82000 1.142
56.84000 2.595
56.86000 5.740
56.88000 7.248
56.90000 3.394
56.92000 5.481
56.94000 0.758
56.96000 1.238
56.98000 -1.270
57.00000 2.488
57.02000 3.037
57.04000 4.852
57.06000 -1.405
57.08000 -1.134
57.10000 5.603
57.12000 9.659
57.14000 6.707
57.16000 11.235
57.18000 12.657
57.20000 8.094
57.22000 7.049
57.24000 6.209
57.26000 5.464
57.28000 5.011
57.30000 5.989
57.32000 7.388
57.34000 7.018
57.36000 3.091
57.38000 -2.809
57.40000 -0.805
57.42000 3.536
57.44000 9.661
57.46000 4.408
57.48000 3.941
57.50000 2.975
57.52000 4.039
57.54000 3.950
57.56000 6.585
57.58000 4.530
57.60000 4.977
57.62000 2.337
57.64000 2.375
57.66000 3.850
57.68000 6.399
57.70000 7.725
57.72000 1.940
57.74000 1.143
57.76000 0.965
57.78000 9.288
57.80000 6.975
57.82000 7.892
57.84000 6.654
57.86000 3.105
57.88000 1.790
57.90000 5.455
57.92000 5.092
57.94000 6.261
57.96000 0.231
57.98000 2.051
58.00000 8.536
58.02000 6.005
58.04000 2.960
58.06000 0.516
58.08000 -2.134
58.10000 1.659
58.12000 1.963
58.14000 2.996
58.16000 6.672
58.18000 6.608
58.20000 5.159
58.22000 4.021
58.24000 4.983
58.26000 5.830
58.28000 8.863
58.30000 7.449
58.32000 6.654
58.34000 -0.227
58.36000 -0.672
58.38000 1.062
58.40000 3.344
58.42000 0.931
58.44000 -1.164
58.46000 2.685
58.48000 1.281
58.50000 0.261
58.52000 -0.140
58.54000 -2.556
58.56000 -2.791
58.58000 -1.807
58.60000 -1.398
58.62000 2.483
58.64000 0.195
58.66000 1.390
58.68000 5.227
58.70000 2.769
58.72000 3.858
58.74000 2.822
58.76000 1.653
58.78000 1.702
58.80000 5.777
58.82000 6.030
58.84000 10.183
58.86000 5.564
58.88000 8.909
58.90000 6.160
58.92000 3.660
58.94000 7.191
58.96000 6.214
58.98000 -1.367
59.00000 1.022
59.02000 1.191
59.04000 0.386
59.06000 2.862
59.08000 4.569
59.10000 6.481
59.12000 1.468
59.14000 -1.935
59.16000 -2.767
59.18000 -0.390
59.20000 0.753
59.22000 0.634
59.24000 4.060
59.26000 6.650
59.28000 6.883
59.30000 5.956
59.32000 4.023
59.34000 7.310
59.36000 2.545
59.38000 0.570
59.40000 4.535
59.42000 7.575
59.44000 2.559
59.46000 6.538
59.48000 6.271
59.50000 1.203
59.52000 1.693
59.54000 1.485
59.56000 4.375
59.58000 3.963
59.60000 2.693
59.62000 -2.099
59.64000 -2.739
59.66000 2.908
59.68000 1.264
59.70000 7.199
59.72000 8.179
59.74000 4.899
59.76000 7.315
59.78000 7.585
59.80000 5.565
59.82000 7.023
59.84000 8.628
59.86000 5.384
59.88000 0.170
59.90000 4.051
59.92000 4.880
59.94000 6.471
59.96000 4.562
59.98000 0.695
60.00000 5.342
60.02000 5.224
60.04000 4.495
60.06000 6.252
60.08000 1.445
60.10000 2.660
60.12000 5.643
60.14000 8.648
60.16000 12.456
60.18000 3.905
60.20000 3.317
60.22000 3.489
60.24000 3.770
60.26000 2.846
60.28000 0.335
60.30000 6.498
60.32000 11.952
60.34000 10.114
60.36000 5.443
60.38000 1.490
60.40000 2.874
60.42000 3.253
60.44000 4.172
60.46000 4.961
60.48000 -0.087
60.50000 1.321
60.52000 -0.801
60.54000 -0.987
60.56000 4.431
60.58000 6.056
60.60000 4.846
60.62000 1.993
60.64000 6.023
60.66000 10.696
60.68000 5.393
60.70000 2.555
60.72000 5.082
60.74000 10.291
60.76000 5.085
60.78000 4.990
60.80000 8.413
60.82000 8.406
60.84000 8.531
60.86000 3.439
60.88000 5.265
60.90000 3.437
60.92000 5.240
60.94000 1.235
60.96000 5.392
60.98000 6.179
61.00000 6.998
61.02000 8.781
61.04000 6.799
61.06000 7.655
61.08000 6.353
61.10000 6.200
61.12000 3.888
61.14000 6.685
61.16000 4.084
61.18000 5.172
61.20000 9.542
61.22000 4.875
61.24000 6.293
61.26000 6.318
61.28000 3.666
61.30000 1.488
61.32000 6.900
61.34000 7.135
61.36000 1.760
61.38000 3.870
61.40000 8.469
61.42000 8.887
61.44000 6.170
61.46000 0.014
61.48000 -0.261
61.50000 -2.631
61.52000 0.854
61.54000 4.848
61.56000 3.496
61.58000 7.056
61.60000 5.336
61.62000 2.853
61.64000 6.936
61.66000 7.722
61.68000 6.050
61.70000 8.826
61.72000 4.904
61.74000 7.329
61.76000 7.442
61.78000 9.928
61.80000 8.402
61.82000 6.387
61.84000 7.055
61.86000 5.685
61.88000 7.984
61.90000 8.069
61.92000 4.457
61.94000 4.327
61.96000 5.121
61.98000 5.258
62.00000 7.595
62.02000 5.822
62.04000 3.844
62.06000 5.410
62.08000 4.648
62.10000 6.882
62.12000 3.174
62.14000 1.431
62.16000 7.200
62.18000 6.373
62.20000 2.166
62.22000 5.378
62.24000 6.781
62.26000 5.908
62.28000 5.736
62.30000 9.320
62.32000 6.150
62.34000 5.054
62.36000 6.974
62.38000 4.496
62.40000 7.986
62.42000 8.634
62.44000 1.181
62.46000 -2.639
62.48000 3.799
62.50000 1.790
62.52000 5.401
62.54000 5.697
62.56000 1.946
62.58000 0.971
62.60000 5.207
62.62000 6.130
62.64000 5.990
62.66000 10.108
62.68000 7.351
62.70000 7.244
62.72000 10.063
62.74000 11.479
62.76000 8.431
62.78000 7.616
62.80000 5.553
62.82000 4.789
62.84000 3.194
62.86000 6.179
62.88000 7.166
62.90000 3.724
62.92000 4.110
62.94000 3.432
62.96000 -0.433
62.98000 -0.333
63.00000 1.724
63.02000 5.266
63.04000 4.148
63.06000 4.062
63.08000 4.734
63.10000 3.990
63.12000 0.477
63.14000 1.082
63.16000 1.703
63.18000 -2.160
63.20000 3.597
63.22000 2.802
63.24000 3.292
63.26000 2.409
63.28000 1.367
63.30000 6.751
63.32000 1.925
63.34000 5.675
63.36000 2.230
63.38000 4.351
63.40000 4.076
63.42000 2.851
63.44000 2.813
63.46000 -2.653
63.48000 0.470
63.50000 -1.239
63.52000 -1.627
63.54000 -0.489
63.56000 0.780
63.58000 2.144
63.60000 3.557
63.62000 1.673
63.64000 -1.252
63.66000 0.247
63.68000 4.135
63.70000 0.872
63.72000 1.917
63.74000 5.448
63.76000 5.707
63.78000 1.339
63.80000 -2.658
63.82000 0.271
63.84000 4.180
63.86000 6.957
63.88000 2.064
63.90000 0.304
63.92000 0.540
63.94000 0.670
63.96000 3.702
63.98000 -0.537
64.00000 3.864
64.02000 1.875
64.04000 1.475
64.06000 2.796
64.08000 6.064
64.10000 2.420
64.12000 1.574
64.14000 4.221
64.16000 2.642
64.18000 2.736
64.20000 3.559
64.22000 4.663
64.24000 2.584
64.26000 0.945
64.28000 2.847
64.30000 2.214
64.32000 -1.247
64.34000 -0.275
64.36000 2.285
64.38000 7.316
64.40000 5.962
64.42000 5.939
64.44000 4.197
64.46000 1.682
64.48000 2.937
64.50000 0.699
64.52000 -0.279
64.54000 -1.109
64.56000 -1.713
64.58000 -0.323
64.60000 6.864
64.62000 6.250
64.64000 2.293
64.66000 0.811
64.68000 4.833
64.70000 0.382
64.72000 -1.268
64.74000 1.466
64.76000 2.702
64.78000 2.212
64.80000 2.600
64.82000 1.787
64.84000 -0.072
64.86000 -0.498
64.88000 4.564
64.90000 7.024
64.92000 1.194
64.94000 -0.312
64.96000 0.815
64.98000 -0.372
65.00000 -0.856
65.02000 -1.924
65.04000 -2.637
65.06000 5.060
65.08000 5.518
65.10000 7.638
65.12000 3.049
65.14000 0.745
65.16000 -0.378
65.18000 1.940
65.20000 -0.126
65.22000 0.276
65.24000 4.977
65.26000 4.175
65.28000 2.236
65.30000 3.104
65.32000 5.452
65.34000 3.090
65.36000 1.203
65.38000 0.223
65.40000 2.081
65.42000 1.335
65.44000 -0.210
65.46000 -1.592
65.48000 0.408
65.50000 -2.611
65.52000 1.182
65.54000 3.974
65.56000 5.102
65.58000 1.497
65.60000 5.786
65.62000 4.023
65.64000 2.047
65.66000 -0.014
65.68000 0.768
65.70000 5.848
65.72000 3.086
65.74000 4.445
65.76000 5.008
65.78000 5.758
65.80000 5.204
65.82000 0.772
65.84000 0.211
65.86000 4.628
65.88000 8.606
65.90000 1.745
65.92000 0.108
65.94000 3.885
65.96000 6.764
65.98000 0.216
66.00000 -2.589
66.02000 -0.570
66.04000 1.146
66.06000 1.775
66.08000 4.612
66.10000 6.826
66.12000 8.908
66.14000 6.632
66.16000 3.836
66.18000 3.222
66.20000 1.338
66.22000 3.021
66.24000 3.826
66.26000 3.609
66.28000 1.593
66.30000 2.422
66.32000 5.192
66.34000 0.599
66.36000 -0.693
66.38000 0.540
66.40000 3.022
66.42000 3.931
66.44000 2.945
66.46000 4.243
66.48000 2.302
66.50000 1.936
66.52000 3.298
66.54000 4.244
66.56000 2.084
66.58000 -2.605
66.60000 0.325
66.62000 -0.212
66.64000 2.806
66.66000 6.242
66.68000 1.839
66.70000 2.177
66.72000 3.191
66.74000 2.577
66.76000 2.595
66.78000 4.517
66.80000 2.626
66.82000 0.218
66.84000 -1.540
66.86000 -0.062
66.88000 -2.174
66.90000 -2.613
66.92000 0.973
66.94000 1.676
66.96000 -0.133
66.98000 2.513
67.00000 1.179
67.02000 -0.085
67.04000 1.365
67.06000 0.585
67.08000 -1.161
67.10000 -0.610
67.12000 1.017
67.14000 -0.023
67.16000 2.660
67.18000 3.871
67.20000 4.798
67.22000 0.406
67.24000 1.681
67.26000 3.879
67.28000 2.159
67.30000 1.932
67.32000 3.189
67.34000 -0.299
67.36000 -1.936
67.38000 2.547
67.40000 3.839
67.42000 1.789
67.44000 4.694
67.46000 4.558
67.48000 2.677
67.50000 0.543
67.52000 -2.348
67.54000 -2.636
67.56000 -0.310
67.58000 -1.012
67.60000 -1.154
67.62000 -0.161
67.64000 0.923
67.66000 0.801
67.68000 0.048
67.70000 -1.910
67.72000 0.721
67.74000 0.447
67.76000 2.278
67.78000 4.221
67.80000 3.388
67.82000 2.413
67.84000 -0.221
67.86000 1.801
67.88000 3.868
67.90000 5.249
67.92000 3.769
67.94000 3.749
67.96000 3.872
67.98000 1.970
68.00000 1.419
68.02000 2.429
68.04000 2.825
68.06000 4.429
68.08000 2.947
68.10000 3.365
68.12000 2.685
68.14000 3.020
68.16000 6.549
68.18000 5.042
68.20000 9.620
68.22000 9.573
68.24000 9.102
68.26000 5.075
68.28000 5.698
68.30000 9.207
68.32000 4.369
68.34000 7.109
68.36000 9.559
68.38000 9.097
68.40000 8.881
68.42000 8.567
68.44000 4.927
68.46000 7.657
68.48000 10.258
68.50000 8.529
68.52000 11.115
68.54000 13.711
68.56000 14.392
68.58000 13.440
68.60000 12.659
68.62000 13.554
68.64000 17.564
68.66000 17.847
68.68000 18.004
68.70000 17.113
68.72000 15.139
68.74000 14.917
68.76000 15.450
68.78000 18.528
68.80000 20.657
68.82000 25.985
68.84000 26.181
68.86000 25.231
68.88000 26.895
68.90000 23.352
68.92000 28.455
68.94000 25.499
68.96000 21.738
68.98000 20.761
69.00000 22.452
69.02000 24.339
69.04000 25.689
69.06000 24.282
69.08000 28.199
69.10000 31.707
69.12000 28.694
69.14000 27.648
69.16000 31.008
69.18000 31.945
69.20000 29.033
69.22000 29.567
69.24000 29.889
69.26000 28.146
69.28000 29.391
69.30000 32.220
69.32000 30.442
69.34000 26.916
69.36000 24.882
69.38000 28.630
69.40000 28.949
69.42000 27.767
69.44000 29.812
69.46000 29.614
69.48000 28.759
69.50000 32.197
69.52000 31.438
69.54000 26.352
69.56000 23.169
69.58000 25.856
69.60000 23.605
69.62000 20.240
69.64000 19.635
69.66000 20.006
69.68000 19.631
69.70000 15.426
69.72000 17.952
69.74000 21.602
69.76000 20.447
69.78000 16.578
69.80000 16.654
69.82000 17.221
69.84000 15.789
69.86000 15.307
69.88000 19.101
69.90000 14.599
69.92000 10.678
69.94000 10.377
69.96000 10.296
69.98000 14.213
70.00000 13.708
70.02000 16.869
70.04000 11.738
70.06000 8.568
70.08000 9.747
70.10000 10.851
70.12000 7.672
70.14000 10.367
70.16000 7.494
70.18000 4.569
70.20000 10.994
70.22000 5.880
70.24000 2.498
70.26000 4.022
70.28000 3.625
70.30000 3.613
70.32000 1.990
70.34000 1.875
70.36000 4.805
70.38000 4.969
70.40000 6.488
70.42000 7.196
70.44000 4.953
70.46000 2.951
70.48000 5.033
70.50000 3.432
70.52000 9.187
70.54000 9.199
70.56000 6.357
70.58000 7.070
70.60000 7.824
70.62000 5.894
70.64000 0.557
70.66000 -1.867
70.68000 -0.511
70.70000 -2.498
70.72000 0.750
70.74000 0.641
70.76000 2.535
70.78000 -0.556
70.80000 0.031
70.82000 2.823
70.84000 2.366
70.86000 3.360
70.88000 1.547
70.90000 1.107
70.92000 5.079
70.94000 -1.661
70.96000 -0.668
70.98000 -2.463
71.00000 -1.378
71.02000 2.047
71.04000 2.165
71.06000 0.118
71.08000 2.625
71.10000 2.653
71.12000 4.630
71.14000 4.843
71.16000 1.729
71.18000 -1.546
71.20000 -0.785
71.22000 0.559
71.24000 -0.577
71.26000 0.275
71.28000 5.155
71.30000 7.482
71.32000 6.431
71.34000 4.477
71.36000 4.078
71.38000 1.446
71.40000 2.517
71.42000 4.033
71.44000 1.598
71.46000 -1.413
71.48000 -1.482
71.50000 2.771
71.52000 5.740
71.54000 3.657
71.56000 0.098
71.58000 -1.750
71.60000 -1.138
71.62000 0.881
71.64000 0.562
71.66000 3.545
71.68000 4.212
71.70000 2.546
71.72000 -0.704
71.74000 1.204
71.76000 1.584
71.78000 1.663
71.80000 -0.438
71.82000 1.452
71.84000 6.021
71.86000 3.174
71.88000 3.362
71.90000 3.133
71.92000 5.968
71.94000 5.589
71.96000 4.001
71.98000 3.690
72.00000 4.091
72.02000 0.722
72.04000 -0.872
72.06000 2.029
72.08000 -2.315
72.10000 -1.262
72.12000 2.107
72.14000 0.704
72.16000 1.369
72.18000 4.448
72.20000 1.895
72.22000 4.293
72.24000 5.289
72.26000 1.233
72.28000 3.007
72.30000 2.937
72.32000 2.425
72.34000 3.342
72.36000 -0.267
72.38000 1.284
72.40000 0.794
72.42000 0.568
72.44000 0.119
72.46000 0.879
72.48000 2.030
72.50000 2.138
72.52000 2.034
72.54000 3.466
72.56000 6.656
72.58000 4.798
72.60000 2.963
72.62000 2.437
72.64000 -2.323
72.66000 0.269
72.68000 2.179
72.70000 3.668
72.72000 0.891
72.74000 5.401
72.76000 1.852
72.78000 -1.618
72.80000 2.579
72.82000 2.849
72.84000 2.106
72.86000 0.698
72.88000 1.892
72.90000 2.242
72.92000 2.419
72.94000 2.724
72.96000 2.567
72.98000 0.862
73.00000 0.513
73.02000 1.659
73.04000 1.761
73.06000 0.283
73.08000 3.928
73.10000 4.371
73.12000 4.617
73.14000 3.044
73.16000 3.231
73.18000 2.860
73.20000 4.039
73.22000 2.422
73.24000 1.785
73.26000 -1.137
73.28000 -0.395
73.30000 0.201
73.32000 0.445
73.34000 2.223
73.36000 6.254
73.38000 5.302
73.40000 7.707
73.42000 4.336
73.44000 6.280
73.46000 5.251
73.48000 0.066
73.50000 -2.304
73.52000 1.822
73.54000 2.964
73.56000 1.260
73.58000 3.644
73.60000 7.219
73.62000 2.506
73.64000 2.720
73.66000 3.438
73.68000 1.568
73.70000 -0.852
73.72000 -1.969
73.74000 -2.215
73.76000 1.485
73.78000 2.004
73.80000 1.040
73.82000 2.487
73.84000 4.360
73.86000 6.194
73.88000 4.385
73.90000 5.548
73.92000 3.772
73.94000 5.311
73.96000 1.705
73.98000 5.054
74.00000 7.133
74.02000 0.697
74.04000 -0.808
74.06000 -2.089
74.08000 -2.285
74.10000 -0.932
74.12000 2.973
74.14000 4.446
74.16000 6.319
74.18000 -0.090
74.20000 1.392
74.22000 2.673
74.24000 1.052
74.26000 0.338
74.28000 3.646
74.30000 5.500
74.32000 6.943
74.34000 2.366
74.36000 2.493
74.38000 4.507
74.40000 2.388
74.42000 8.467
74.44000 9.303
74.46000 2.187
74.48000 -2.272
74.50000 2.542
74.52000 1.470
74.54000 1.276
74.56000 1.234
74.58000 5.708
74.60000 6.663
74.62000 3.339
74.64000 4.125
74.66000 2.387
74.68000 2.178
74.70000 3.106
74.72000 3.474
74.74000 2.395
74.76000 0.408
74.78000 5.389
74.80000 5.889
74.82000 2.183
74.84000 -1.797
74.86000 -0.104
74.88000 5.359
74.90000 5.472
74.92000 5.346
74.94000 1.739
74.96000 4.279
74.98000 6.196
75.00000 9.871
75.02000 8.261
75.04000 8.203
75.06000 2.929
75.08000 1.784
75.10000 4.026
75.12000 7.930
75.14000 8.507
75.16000 5.857
75.18000 6.532
75.20000 3.470
75.22000 0.884
75.24000 -2.227
75.26000 5.634
75.28000 4.828
75.30000 1.875
75.32000 8.879
75.34000 12.337
75.36000 9.663
75.38000 5.850
75.40000 6.237
75.42000 3.010
75.44000 9.004
75.46000 7.705
75.48000 8.127
75.50000 6.273
75.52000 3.907
75.54000 3.346
75.56000 3.691
75.58000 5.712
75.60000 3.564
75.62000 1.625
75.64000 3.386
75.66000 2.667
75.68000 -0.706
75.70000 0.336
75.72000 5.557
75.74000 7.863
75.76000 5.785
75.78000 2.043
75.80000 4.955
75.82000 0.808
75.84000 -1.251
75.86000 4.689
75.88000 4.923
75.90000 3.958
75.92000 -0.407
75.94000 3.319
75.96000 1.785
75.98000 -1.555
76.00000 1.141
76.02000 4.425
76.04000 4.962
76.06000 3.740
76.08000 4.297
76.10000 2.874
76.12000 3.905
76.14000 4.123
76.16000 2.194
76.18000 -0.571
76.20000 3.640
76.22000 4.420
76.24000 0.510
76.26000 0.634
76.28000 5.347
76.30000 3.194
76.32000 5.718
76.34000 5.613
76.36000 0.918
76.38000 4.113
76.40000 9.061
76.42000 7.487
76.44000 4.764
76.46000 5.825
76.48000 4.239
76.50000 0.938
76.52000 4.607
76.54000 4.895
76.56000 4.296
76.58000 3.432
76.60000 5.198
76.62000 3.301
76.64000 1.529
76.66000 3.797
76.68000 5.783
76.70000 2.962
76.72000 1.929
76.74000 3.887
76.76000 -2.236
76.78000 0.152
76.80000 2.235
76.82000 4.792
76.84000 3.652
76.86000 -1.514
76.88000 4.882
76.90000 3.790
76.92000 2.005
76.94000 3.739
76.96000 5.710
76.98000 6.847
77.00000 7.535
77.02000 6.158
77.04000 1.690
77.06000 3.460
77.08000 0.187
77.10000 4.900
77.12000 4.502
77.14000 1.429
77.16000 1.933
77.18000 3.351
77.20000 2.545
77.22000 5.142
77.24000 4.621
77.26000 0.304
77.28000 -2.227
77.30000 0.103
77.32000 5.445
77.34000 1.363
77.36000 1.698
77.38000 0.165
77.40000 2.690
77.42000 1.975
77.44000 1.813
77.46000 3.178
77.48000 2.746
77.50000 -0.902
77.52000 0.673
77.54000 -2.225
77.56000 -0.074
77.58000 -0.283
77.60000 1.191
77.62000 1.837
77.64000 4.598
77.66000 3.878
77.68000 6.515
77.70000 5.739
77.72000 6.684
77.74000 6.642
77.76000 1.490
77.78000 1.827
77.80000 6.104
77.82000 5.127
77.84000 5.901
77.86000 5.209
77.88000 1.871
77.90000 3.102
77.92000 -0.145
77.94000 0.665
77.96000 -0.213
77.98000 -1.551
78.00000 0.005
78.02000 0.717
78.04000 4.372
78.06000 5.771
78.08000 0.212
78.10000 -0.697
78.12000 3.323
78.14000 6.154
78.16000 5.066
78.18000 4.389
78.20000 4.679
78.22000 -0.653
78.24000 -2.296
78.26000 2.138
78.28000 0.717
78.30000 -2.111
78.32000 -0.018
78.34000 4.727
78.36000 7.828
78.38000 4.334
78.40000 3.902
78.42000 3.370
78.44000 3.718
78.46000 0.034
78.48000 1.687
78.50000 0.921
78.52000 3.808
78.54000 1.912
78.56000 1.384
78.58000 7.271
78.60000 6.714
78.62000 9.268
78.64000 7.983
78.66000 1.799
78.68000 0.214
78.70000 -0.980
78.72000 0.314
78.74000 6.847
78.76000 7.186
78.78000 2.337
78.80000 0.682
78.82000 2.054
78.84000 1.741
78.86000 2.966
78.88000 2.971
78.90000 1.983
78.92000 0.489
78.94000 -2.285
78.96000 3.375
78.98000 0.927
79.00000 3.018
79.02000 3.778
79.04000 3.492
79.06000 2.140
79.08000 5.952
79.10000 6.097
79.12000 6.343
79.14000 2.811
79.16000 -0.192
79.18000 1.858
79.20000 10.271
79.22000 6.929
79.24000 5.298
79.26000 2.946
79.28000 0.864
79.30000 -2.278
79.32000 2.217
79.34000 3.282
79.36000 8.383
79.38000 4.128
79.40000 3.529
79.42000 9.117
79.44000 8.695
79.46000 2.231
79.48000 4.107
79.50000 -1.999
79.52000 0.718
79.54000 5.543
79.56000 5.970
79.58000 3.668
79.60000 1.421
79.62000 2.578
79.64000 2.883
79.66000 1.328
79.68000 -1.184
79.70000 1.944
79.72000 -0.879
79.74000 2.026
79.76000 5.025
79.78000 7.097
79.80000 4.116
79.82000 -0.699
79.84000 2.935
79.86000 2.761
79.88000 2.706
79.90000 4.695
79.92000 6.197
79.94000 3.231
79.96000 2.537
79.98000 1.894
80.00000 2.707
80.02000 5.838
80.04000 4.967
80.06000 2.540
80.08000 0.045
80.10000 -0.481
80.12000 1.586
80.14000 3.264
80.16000 -0.211
80.18000 -0.665
80.20000 -2.322
80.22000 -1.814
80.24000 4.091
80.26000 4.363
80.28000 4.979
80.30000 3.446
80.32000 4.090
80.34000 1.051
80.36000 -2.093
80.38000 -1.861
80.40000 4.105
80.42000 3.752
80.44000 -1.316
80.46000 2.886
80.48000 6.149
80.50000 6.713
80.52000 2.253
80.54000 -1.032
80.56000 1.812
80.58000 1.200
80.60000 0.702
80.62000 0.332
80.64000 3.817
80.66000 5.984
80.68000 5.418
80.70000 7.650
80.72000 7.573
80.74000 7.346
80.76000 5.693
80.78000 2.401
80.80000 1.320
80.82000 0.812
80.84000 0.461
80.86000 2.406
80.88000 5.374
80.90000 4.935
80.92000 7.546
80.94000 3.935
80.96000 -0.481
80.98000 4.241
81.00000 3.532
81.02000 1.514
81.04000 3.640
81.06000 1.730
81.08000 1.677
81.10000 3.863
81.12000 2.770
81.14000 0.777
81.16000 4.057
81.18000 3.878
81.20000 4.985
81.22000 5.143
81.24000 8.512
81.26000 7.578
81.28000 5.143
81.30000 2.768
81.32000 -0.752
81.34000 -0.638
81.36000 2.365
81.38000 8.299
81.40000 9.775
81.42000 4.247
81.44000 2.804
81.46000 -2.335
81.48000 3.309
81.50000 5.796
81.52000 7.709
81.54000 1.328
81.56000 -1.617
81.58000 4.186
81.60000 4.841
81.62000 2.757
81.64000 4.030
81.66000 4.234
81.68000 7.206
81.70000 5.493
81.72000 2.749
81.74000 3.061
81.76000 4.839
81.78000 10.337
81.80000 5.455
81.82000 3.895
81.84000 4.556
81.86000 6.066
81.88000 7.380
81.90000 7.807
81.92000 0.700
81.94000 3.894
81.96000 4.647
81.98000 7.532
82.00000 3.147
82.02000 -1.661
82.04000 2.881
82.06000 6.728
82.08000 8.674
82.10000 5.921
82.12000 9.462
82.14000 7.908
82.16000 10.448
82.18000 9.034
82.20000 4.854
82.22000 9.943
82.24000 6.647
82.26000 4.648
82.28000 4.971
82.30000 10.625
82.32000 7.728
82.34000 2.856
82.36000 3.363
82.38000 5.689
82.40000 6.938
82.42000 7.678
82.44000 3.409
82.46000 5.576
82.48000 8.069
82.50000 11.008
82.52000 7.644
82.54000 0.244
82.56000 4.786
82.58000 11.815
82.60000 14.099
82.62000 11.791
82.64000 11.221
82.66000 14.043
82.68000 10.012
82.70000 10.438
82.72000 11.248
82.74000 11.999
82.76000 11.203
82.78000 11.230
82.80000 10.022
82.82000 11.709
82.84000 10.785
82.86000 9.981
82.88000 10.037
82.90000 11.134
82.92000 10.913
82.94000 15.385
82.96000 16.848
82.98000 18.907
83.00000 17.180
83.02000 16.002
83.04000 15.330
83.06000 20.881
83.08000 17.080
83.10000 17.575
83.12000 24.522
83.14000 23.632
83.16000 24.101
83.18000 15.845
83.20000 22.873
83.22000 18.237
83.24000 18.791
83.26000 18.627
83.28000 21.332
83.30000 20.809
83.32000 19.064
83.34000 21.197
83.36000 23.130
83.38000 22.812
83.40000 24.675
83.42000 23.875
83.44000 20.892
83.46000 22.848
83.48000 24.609
83.50000 27.465
83.52000 26.512
83.54000 24.214
83.56000 24.622
83.58000 28.882
83.60000 27.168
83.62000 26.514
83.64000 27.784
83.66000 31.883
83.68000 30.934
83.70000 29.021
83.72000 23.319
83.74000 28.449
83.76000 31.277
83.78000 27.396
83.80000 26.211
83.82000 22.709
83.84000 20.107
83.86000 21.893
83.88000 22.668
83.90000 24.808
83.92000 25.104
83.94000 20.818
83.96000 27.488
83.98000 27.446
84.00000 22.760
84.02000 17.644
84.04000 20.765
84.06000 20.061
84.08000 24.595
84.10000 24.137
84.12000 21.886
84.14000 20.279
84.16000 24.473
84.18000 22.503
84.20000 21.036
84.22000 19.267
84.24000 20.319
84.26000 17.664
84.28000 15.736
84.30000 19.801
84.32000 18.804
84.34000 16.972
84.36000 18.442
84.38000 14.498
84.40000 13.538
84.42000 12.168
84.44000 8.147
84.46000 7.513
84.48000 10.669
84.50000 11.363
84.52000 8.808
84.54000 11.768
84.56000 10.050
84.58000 9.082
84.60000 10.151
84.62000 12.751
84.64000 12.280
84.66000 8.708
84.68000 10.437
84.70000 10.221
84.72000 5.238
84.74000 3.259
84.76000 5.006
84.78000 9.552
84.80000 7.651
84.82000 2.707
84.84000 7.573
84.86000 5.393
84.88000 5.660
84.90000 6.296
84.92000 4.550
84.94000 3.165
84.96000 1.911
84.98000 3.800
85.00000 5.957
85.02000 6.624
85.04000 -0.752
85.06000 0.869
85.08000 1.047
85.10000 0.025
85.12000 2.022
85.14000 3.674
85.16000 6.010
85.18000 2.015
85.20000 5.479
85.22000 -1.028
85.24000 2.013
85.26000 4.851
85.28000 3.158
85.30000 0.797
85.32000 2.367
85.34000 -0.129
85.36000 3.283
85.38000 0.286
85.40000 0.871
85.42000 2.888
85.44000 2.519
85.46000 2.159
85.48000 1.615
85.50000 2.350
85.52000 2.267
85.54000 2.993
85.56000 2.727
85.58000 -1.993
85.60000 -1.796
85.62000 0.164
85.64000 -0.628
85.66000 -0.228
85.68000 -2.418
85.70000 -1.969
85.72000 2.228
85.74000 1.362
85.76000 2.668
85.78000 2.951
85.80000 -0.587
85.82000 3.025
85.84000 4.935
85.86000 3.616
85.88000 -1.410
85.90000 -0.076
85.92000 -2.118
85.94000 -0.514
85.96000 -2.379
85.98000 2.381
86.00000 5.993
86.02000 7.921
86.04000 2.910
86.06000 -0.175
86.08000 -2.179
86.10000 0.382
86.12000 3.466
86.14000 0.172
86.16000 4.431
86.18000 5.142
86.20000 5.443
86.22000 1.052
86.24000 -1.557
86.26000 -0.365
86.28000 2.528
86.30000 2.232
86.32000 3.402
86.34000 3.755
86.36000 2.331
86.38000 -0.890
86.40000 -2.355
86.42000 0.919
86.44000 -0.203
86.46000 5.168
86.48000 3.113
86.50000 2.520
86.52000 4.484
86.54000 5.146
86.56000 4.386
86.58000 6.740
86.60000 5.670
86.62000 2.517
86.64000 0.195
86.66000 2.663
86.68000 5.372
86.70000 3.004
86.72000 3.758
86.74000 7.297
86.76000 5.810
86.78000 4.408
86.80000 6.753
86.82000 6.258
86.84000 2.062
86.86000 -0.057
86.88000 1.822
86.90000 3.689
86.92000 3.983
86.94000 4.678
86.96000 4.993
86.98000 4.954
87.00000 4.471
87.02000 5.449
87.04000 11.293
87.06000 6.560
87.08000 5.043
87.10000 6.231
87.12000 2.861
87.14000 6.184
87.16000 11.336
87.18000 10.690
87.20000 6.800
87.22000 3.611
87.24000 3.501
87.26000 9.882
87.28000 13.757
87.30000 9.311
87.32000 3.950
87.34000 8.321
87.36000 8.069
87.38000 6.392
87.40000 6.696
87.42000 7.153
87.44000 7.036
87.46000 6.680
87.48000 10.673
87.50000 12.258
87.52000 15.760
87.54000 15.573
87.56000 10.553
87.58000 14.727
87.60000 14.850
87.62000 14.206
87.64000 15.331
87.66000 16.370
87.68000 17.871
87.70000 16.153
87.72000 16.657
87.74000 15.206
87.76000 12.791
87.78000 15.474
87.80000 15.341
87.82000 15.956
87.84000 13.532
87.86000 14.409
87.88000 18.205
87.90000 21.000
87.92000 20.045
87.94000 21.928
87.96000 21.063
87.98000 19.799
88.00000 18.576
88.02000 26.218
88.04000 23.617
88.06000 22.495
88.08000 26.519
88.10000 28.277
88.12000 30.735
88.14000 24.704
88.16000 27.526
88.18000 26.011
88.20000 24.862
88.22000 27.690
88.24000 29.649
88.26000 27.670
88.28000 26.767
88.30000 24.687
88.32000 27.799
88.34000 32.090
88.36000 28.120
88.38000 26.683
88.40000 24.785
88.42000 24.227
88.44000 22.408
88.46000 22.750
88.48000 22.398
88.50000 26.009
88.52000 30.122
88.54000 27.980
88.56000 26.180
88.58000 25.671
88.60000 22.213
88.62000 22.324
88.64000 24.045
88.66000 26.974
88.68000 25.132
88.70000 24.969
88.72000 21.310
88.74000 18.919
88.76000 15.419
88.78000 22.431
88.80000 25.633
88.82000 19.192
88.84000 24.004
88.86000 19.815
88.88000 16.380
88.90000 16.478
88.92000 18.561
88.94000 19.410
88.96000 12.609
88.98000 11.176
89.00000 10.914
89.02000 9.222
89.04000 13.740
89.06000 14.155
89.08000 16.974
89.10000 7.507
89.12000 8.282
89.14000 6.936
89.16000 6.346
89.18000 7.947
89.20000 9.200
89.22000 8.273
89.24000 10.912
89.26000 12.264
89.28000 8.942
89.30000 3.743
89.32000 5.026
89.34000 2.884
89.36000 2.312
89.38000 5.872
89.40000 0.468
89.42000 4.521
89.44000 5.976
89.46000 8.137
89.48000 7.917
89.50000 6.734
89.52000 3.051
89.54000 2.726
89.56000 5.901
89.58000 2.555
89.60000 -0.379
89.62000 4.493
89.64000 6.326
89.66000 4.675
89.68000 1.902
89.70000 -1.045
89.72000 3.127
89.74000 5.615
89.76000 6.341
89.78000 -1.008
89.80000 0.837
89.82000 4.575
89.84000 1.384
89.86000 -2.302
89.88000 1.085
89.90000 4.917
89.92000 4.295
89.94000 4.052
89.96000 1.832
89.98000 0.973
90.00000 0.527
90.02000 -0.814
90.04000 0.313
90.06000 0.222
90.08000 -1.846
90.10000 1.160
90.12000 2.394
90.14000 0.688
90.16000 3.702
90.18000 1.251
90.20000 5.662
90.22000 3.568
90.24000 1.360
90.26000 4.168
90.28000 2.298
90.30000 1.215
90.32000 4.701
90.34000 2.100
90.36000 1.432
90.38000 2.944
90.40000 1.776
90.42000 6.272
90.44000 3.327
90.46000 3.680
90.48000 7.680
90.50000 5.172
90.52000 2.471
90.54000 3.826
90.56000 0.838
90.58000 4.316
90.60000 5.414
90.62000 9.023
90.64000 8.921
90.66000 6.823
90.68000 10.897
90.70000 6.148
90.72000 -2.172
90.74000 2.708
90.76000 3.637
90.78000 3.800
90.80000 4.905
90.82000 6.135
90.84000 6.110
90.86000 3.028
90.88000 -1.855
90.90000 2.355
90.92000 3.835
90.94000 -0.131
90.96000 3.383
90.98000 5.323
91.00000 8.694
91.02000 4.635
91.04000 3.694
91.06000 4.034
91.08000 3.903
91.10000 4.072
91.12000 4.873
91.14000 5.364
91.16000 0.256
91.18000 4.175
91.20000 5.117
91.22000 0.656
91.24000 3.255
91.26000 4.138
91.28000 1.574
91.30000 2.739
91.32000 1.631
91.34000 2.611
91.36000 0.265
91.38000 2.470
91.40000 2.945
91.42000 6.085
91.44000 1.333
91.46000 -0.779
91.48000 3.421
91.50000 3.291
91.52000 3.546
91.54000 2.566
91.56000 0.967
91.58000 1.300
91.60000 1.954
91.62000 3.541
91.64000 4.556
91.66000 -2.208
91.68000 -1.309
91.70000 3.357
91.72000 4.913
91.74000 3.152
91.76000 0.264
91.78000 -1.075
91.80000 0.578
91.82000 5.111
91.84000 3.355
91.86000 2.869
91.88000 -2.074
91.90000 1.041
91.92000 5.283
91.94000 -1.001
91.96000 1.800
91.98000 4.234
92.00000 3.577
92.02000 -0.207
92.04000 1.126
92.06000 1.440
92.08000 0.912
92.10000 5.721
92.12000 2.914
92.14000 3.380
92.16000 3.727
92.18000 0.509
92.20000 1.062
92.22000 2.580
92.24000 3.025
92.26000 5.212
92.28000 4.605
92.30000 5.464
92.32000 4.221
92.34000 -2.195
92.36000 -2.159
92.38000 -0.330
92.40000 -1.675
92.42000 -0.046
92.44000 1.697
92.46000 5.362
92.48000 6.612
92.50000 3.525
92.52000 1.659
92.54000 3.142
92.56000 -0.163
92.58000 3.841
92.60000 4.636
92.62000 4.196
92.64000 5.275
92.66000 5.116
92.68000 4.973
92.70000 6.253
92.72000 4.509
92.74000 2.004
92.76000 2.604
92.78000 6.645
92.80000 1.319
92.82000 -1.792
92.84000 -2.177
92.86000 4.300
92.88000 7.470
92.90000 5.029
92.92000 8.219
92.94000 7.531
92.96000 3.033
92.98000 0.392
93.00000 2.715
93.02000 3.102
93.04000 4.022
93.06000 0.003
93.08000 0.607
93.10000 1.931
93.12000 3.583
93.14000 4.045
93.16000 2.379
93.18000 3.909
93.20000 4.589
93.22000 5.037
93.24000 5.233
93.26000 5.756
93.28000 5.869
93.30000 3.722
93.32000 -1.378
93.34000 -0.865
93.36000 -0.115
93.38000 4.560
93.40000 5.454
93.42000 5.802
93.44000 3.178
93.46000 3.487
93.48000 7.210
93.50000 6.548
93.52000 4.915
93.54000 3.205
93.56000 3.988
93.58000 4.127
93.60000 4.034
93.62000 4.982
93.64000 5.649
93.66000 2.816
93.68000 -0.514
93.70000 -0.019
93.72000 3.346
93.74000 2.842
93.76000 3.093
93.78000 1.492
93.80000 -0.679
93.82000 -0.968
93.84000 -0.042
93.86000 5.387
93.88000 6.010
93.90000 0.151
93.92000 -2.172
93.94000 2.315
93.96000 4.980
93.98000 2.156
94.00000 -0.789
94.02000 1.553
94.04000 5.004
94.06000 5.762
94.08000 5.828
94.10000 6.910
94.12000 5.440
94.14000 8.063
94.16000 8.670
94.18000 6.635
94.20000 7.312
94.22000 4.899
94.24000 1.695
94.26000 1.231
94.28000 3.234
94.30000 6.702
94.32000 7.002
94.34000 3.821
94.36000 -1.405
94.38000 1.609
94.40000 -0.606
94.42000 0.949
94.44000 5.931
94.46000 7.224
94.48000 4.216
94.50000 3.246
94.52000 7.184
94.54000 5.034
94.56000 3.536
94.58000 5.584
94.60000 2.141
94.62000 3.551
94.64000 0.321
94.66000 -2.154
94.68000 -0.288
94.70000 3.792
94.72000 5.509
94.74000 5.265
94.76000 1.925
94.78000 3.748
94.80000 4.197
94.82000 1.437
94.84000 4.259
94.86000 7.251
94.88000 5.094
94.90000 5.114
94.92000 3.108
94.94000 -0.174
94.96000 1.653
94.98000 3.154
95.00000 2.042
95.02000 5.320
95.04000 3.924
95.06000 5.186
95.08000 2.855
95.10000 4.512
95.12000 6.466
95.14000 2.702
95.16000 3.443
95.18000 1.938
95.20000 2.007
95.22000 -1.681
95.24000 7.683
95.26000 6.848
95.28000 2.246
95.30000 7.609
95.32000 6.834
95.34000 2.242
95.36000 4.160
95.38000 2.549
95.40000 1.171
95.42000 4.388
95.44000 3.415
95.46000 3.433
95.48000 3.706
95.50000 1.117
95.52000 5.694
95.54000 8.627
95.56000 5.224
95.58000 2.698
95.60000 1.484
95.62000 0.727
95.64000 5.166
95.66000 5.092
95.68000 6.935
95.70000 7.143
95.72000 8.908
95.74000 9.158
95.76000 4.925
95.78000 3.463
95.80000 2.503
95.82000 3.650
95.84000 0.077
95.86000 1.045
95.88000 6.613
95.90000 2.296
95.92000 -0.277
95.94000 3.663
95.96000 3.892
95.98000 2.415
96.00000 6.005
96.02000 4.939
96.04000 8.717
96.06000 5.991
96.08000 7.697
96.10000 7.514
96.12000 0.835
96.14000 2.978
96.16000 2.905
96.18000 6.883
96.20000 6.977
96.22000 2.267
96.24000 -2.137
96.26000 5.215
96.28000 7.189
96.30000 4.619
96.32000 1.568
96.34000 1.168
96.36000 5.415
96.38000 8.734
96.40000 5.230
96.42000 4.087
96.44000 5.253
96.46000 5.859
96.48000 6.633
96.50000 12.521
96.52000 9.482
96.54000 7.882
96.56000 6.583
96.58000 2.426
96.60000 1.751
96.62000 6.097
96.64000 5.329
96.66000 2.517
96.68000 2.221
96.70000 6.255
96.72000 7.440
96.74000 3.867
96.76000 2.148
96.78000 4.017
96.80000 0.184
96.82000 1.040
96.84000 6.425
96.86000 16.042
96.88000 10.930
96.90000 8.085
96.92000 8.463
96.94000 4.513
96.96000 1.299
96.98000 4.686
97.00000 5.427
97.02000 4.151
97.04000 1.392
97.06000 4.693
97.08000 2.687
97.10000 4.621
97.12000 3.681
97.14000 -0.624
97.16000 0.385
97.18000 3.827
97.20000 3.615
97.22000 2.016
97.24000 6.065
97.26000 7.037
97.28000 3.623
97.30000 7.871
97.32000 11.177
97.34000 7.553
97.36000 2.554
97.38000 3.338
97.40000 2.660
97.42000 4.775
97.44000 2.398
97.46000 9.300
97.48000 5.936
97.50000 4.220
97.52000 1.272
97.54000 -0.580
97.56000 1.550
97.58000 2.007
97.60000 4.198
97.62000 5.205
97.64000 3.578
97.66000 2.385
97.68000 4.333
97.70000 3.521
97.72000 1.112
97.74000 1.694
97.76000 0.797
97.78000 0.839
97.80000 6.067
97.82000 4.590
97.84000 7.188
97.86000 5.787
97.88000 5.831
97.90000 5.047
97.92000 0.493
97.94000 4.741
97.96000 5.362
97.98000 -2.118
98.00000 1.422
98.02000 5.769
98.04000 9.652
98.06000 7.020
98.08000 6.444
98.10000 4.732
98.12000 1.574
98.14000 4.546
98.16000 2.780
98.18000 6.882
98.20000 6.887
98.22000 2.256
98.24000 0.198
98.26000 3.636
98.28000 3.596
98.30000 -0.434
98.32000 2.229
98.34000 5.163
98.36000 3.179
98.38000 -0.682
98.40000 -0.583
98.42000 1.766
98.44000 3.331
98.46000 5.743
98.48000 5.735
98.50000 7.476
98.52000 1.469
98.54000 1.061
98.56000 2.191
98.58000 1.995
98.60000 1.485
98.62000 6.457
98.64000 9.939
98.66000 8.302
98.68000 9.893
98.70000 6.950
98.72000 4.856
98.74000 1.593
98.76000 6.032
98.78000 7.711
98.80000 6.015
98.82000 9.932
98.84000 7.982
98.86000 2.712
98.88000 3.951
98.90000 -0.567
98.92000 1.822
98.94000 4.144
98.96000 10.539
98.98000 8.649
99.00000 0.906
99.02000 0.579
99.04000 7.973
99.06000 10.556
99.08000 9.545
99.10000 6.983
99.12000 9.239
99.14000 10.220
99.16000 9.536
99.18000 5.668
99.20000 5.753
99.22000 2.399
99.24000 -2.281
99.26000 8.272
99.28000 18.027
99.30000 9.533
99.32000 8.702
99.34000 17.152
99.36000 10.369
99.38000 12.106
99.40000 5.293
99.42000 6.387
99.44000 14.603
99.46000 20.170
99.48000 4.926
99.50000 -0.392
99.52000 8.559
99.54000 10.204
99.56000 14.026
99.58000 7.400
99.60000 10.576
99.62000 7.572
99.64000 4.002
99.66000 3.138
99.68000 -3.008
99.70000 7.062
99.72000 4.440
99.74000 12.969
99.76000 11.616
99.78000 9.081
99.80000 7.090
99.82000 3.562
99.84000 -0.501
99.86000 0.515
99.88000 2.565
99.90000 1.267
99.92000 3.166
99.94000 5.539
99.96000 -2.215
99.98000 0.000
