'Id: "0011388" Comment: "Integrate frame 0011388_Au-Ir-Rh_Rh-rich_XRD-Mapping-149-0000.gfrmwith cursor Wedge Cursor #5" Operator: "B?rgel" Anode: "Cu" Wavelength: "1.5406" Scantype: "2Theta (TwoTheta)" TimePerStep: "1" X: "13.5" Y: "-4.5" Z: "5.95" 
10.00000 0.000
10.02000 8.653
10.04000 5.421
10.06000 10.853
10.08000 21.611
10.10000 25.164
10.12000 14.071
10.14000 27.583
10.16000 19.658
10.18000 0.497
10.20000 8.746
10.22000 22.001
10.24000 18.857
10.26000 14.350
10.28000 12.679
10.30000 21.706
10.32000 11.123
10.34000 -7.067
10.36000 7.890
10.38000 18.156
10.40000 12.744
10.42000 33.031
10.44000 23.450
10.46000 9.846
10.48000 16.339
10.50000 19.837
10.52000 14.839
10.54000 8.599
10.56000 10.707
10.58000 17.183
10.60000 21.676
10.62000 28.631
10.64000 27.556
10.66000 22.031
10.68000 23.064
10.70000 7.215
10.72000 17.993
10.74000 5.368
10.76000 8.669
10.78000 20.007
10.80000 32.817
10.82000 24.681
10.84000 25.384
10.86000 32.617
10.88000 24.782
10.90000 22.734
10.92000 15.339
10.94000 17.642
10.96000 27.142
10.98000 6.304
11.00000 12.131
11.02000 17.497
11.04000 20.868
11.06000 32.520
11.08000 20.139
11.10000 17.585
11.12000 24.248
11.14000 18.270
11.16000 17.085
11.18000 17.260
11.20000 17.117
11.22000 21.476
11.24000 20.279
11.26000 22.943
11.28000 15.601
11.30000 17.748
11.32000 21.601
11.34000 21.297
11.36000 20.937
11.38000 27.139
11.40000 20.933
11.42000 17.579
11.44000 20.148
11.46000 14.408
11.48000 13.331
11.50000 18.415
11.52000 19.983
11.54000 18.856
11.56000 16.139
11.58000 15.993
11.60000 13.709
11.62000 20.808
11.64000 19.279
11.66000 26.249
11.68000 17.800
11.70000 15.466
11.72000 14.773
11.74000 16.309
11.76000 16.868
11.78000 19.846
11.80000 28.069
11.82000 31.357
11.84000 28.476
11.86000 22.694
11.88000 26.752
11.90000 18.254
11.92000 17.579
11.94000 23.256
11.96000 23.482
11.98000 14.548
12.00000 14.923
12.02000 22.514
12.04000 13.255
12.06000 13.027
12.08000 15.718
12.10000 22.739
12.12000 29.299
12.14000 20.990
12.16000 13.598
12.18000 17.940
12.20000 33.881
12.22000 21.775
12.24000 19.251
12.26000 28.100
12.28000 29.731
12.30000 21.548
12.32000 23.661
12.34000 18.195
12.36000 12.226
12.38000 16.797
12.40000 24.210
12.42000 24.139
12.44000 28.039
12.46000 28.065
12.48000 25.509
12.50000 15.963
12.52000 19.728
12.54000 24.855
12.56000 22.907
12.58000 25.675
12.60000 30.933
12.62000 25.530
12.64000 31.646
12.66000 30.908
12.68000 30.596
12.70000 37.344
12.72000 25.694
12.74000 14.780
12.76000 16.966
12.78000 19.117
12.80000 11.609
12.82000 17.224
12.84000 25.186
12.86000 18.817
12.88000 16.028
12.90000 18.598
12.92000 20.537
12.94000 26.186
12.96000 23.743
12.98000 21.707
13.00000 34.077
13.02000 25.421
13.04000 23.111
13.06000 22.681
13.08000 21.544
13.10000 31.836
13.12000 35.012
13.14000 30.632
13.16000 30.344
13.18000 26.430
13.20000 20.641
13.22000 22.997
13.24000 30.871
13.26000 19.247
13.28000 11.309
13.30000 14.142
13.32000 19.213
13.34000 18.807
13.36000 25.111
13.38000 28.006
13.40000 24.935
13.42000 24.217
13.44000 20.917
13.46000 17.407
13.48000 24.709
13.50000 15.540
13.52000 23.432
13.54000 26.914
13.56000 23.500
13.58000 22.982
13.60000 20.142
13.62000 18.253
13.64000 15.652
13.66000 13.878
13.68000 21.088
13.70000 22.494
13.72000 20.136
13.74000 23.779
13.76000 21.630
13.78000 12.551
13.80000 12.352
13.82000 12.221
13.84000 14.354
13.86000 23.113
13.88000 24.501
13.90000 21.720
13.92000 13.705
13.94000 10.258
13.96000 14.649
13.98000 15.294
14.00000 14.301
14.02000 14.745
14.04000 16.279
14.06000 16.381
14.08000 8.599
14.10000 14.759
14.12000 4.476
14.14000 16.310
14.16000 22.600
14.18000 20.667
14.20000 24.399
14.22000 21.905
14.24000 21.148
14.26000 20.262
14.28000 26.406
14.30000 32.227
14.32000 24.945
14.34000 23.232
14.36000 13.509
14.38000 10.590
14.40000 6.733
14.42000 8.193
14.44000 16.495
14.46000 20.286
14.48000 17.075
14.50000 9.108
14.52000 6.752
14.54000 16.482
14.56000 14.707
14.58000 13.420
14.60000 9.609
14.62000 22.602
14.64000 18.938
14.66000 10.592
14.68000 18.282
14.70000 18.949
14.72000 20.873
14.74000 16.403
14.76000 17.822
14.78000 13.181
14.80000 15.136
14.82000 9.531
14.84000 10.695
14.86000 8.109
14.88000 9.781
14.90000 13.022
14.92000 17.414
14.94000 10.057
14.96000 8.168
14.98000 13.567
15.00000 17.156
15.02000 5.233
15.04000 6.999
15.06000 15.582
15.08000 19.912
15.10000 20.429
15.12000 12.697
15.14000 6.108
15.16000 12.641
15.18000 5.457
15.20000 9.506
15.22000 8.781
15.24000 8.053
15.26000 14.705
15.28000 27.981
15.30000 15.674
15.32000 5.300
15.34000 8.453
15.36000 3.677
15.38000 8.181
15.40000 15.708
15.42000 8.975
15.44000 16.628
15.46000 16.716
15.48000 9.077
15.50000 6.982
15.52000 15.336
15.54000 14.847
15.56000 10.071
15.58000 9.825
15.60000 6.249
15.62000 4.401
15.64000 10.537
15.66000 15.871
15.68000 13.845
15.70000 15.829
15.72000 9.091
15.74000 10.327
15.76000 10.148
15.78000 4.029
15.80000 5.555
15.82000 6.973
15.84000 14.592
15.86000 20.404
15.88000 11.089
15.90000 7.504
15.92000 9.560
15.94000 11.101
15.96000 3.158
15.98000 11.203
16.00000 15.714
16.02000 18.038
16.04000 5.011
16.06000 -2.867
16.08000 -4.379
16.10000 5.547
16.12000 8.229
16.14000 12.694
16.16000 19.579
16.18000 12.687
16.20000 9.280
16.22000 10.957
16.24000 5.519
16.26000 4.816
16.28000 13.444
16.30000 12.852
16.32000 13.546
16.34000 9.272
16.36000 14.894
16.38000 17.357
16.40000 5.071
16.42000 4.224
16.44000 8.799
16.46000 7.986
16.48000 5.199
16.50000 9.073
16.52000 9.000
16.54000 2.188
16.56000 0.828
16.58000 6.035
16.60000 -1.314
16.62000 2.472
16.64000 5.714
16.66000 6.008
16.68000 10.050
16.70000 10.508
16.72000 -0.791
16.74000 -0.574
16.76000 10.629
16.78000 9.423
16.80000 13.787
16.82000 8.481
16.84000 11.454
16.86000 6.550
16.88000 8.762
16.90000 17.901
16.92000 16.699
16.94000 12.201
16.96000 9.011
16.98000 10.601
17.00000 15.713
17.02000 16.150
17.04000 13.275
17.06000 10.650
17.08000 7.829
17.10000 -1.714
17.12000 0.844
17.14000 6.224
17.16000 9.539
17.18000 8.935
17.20000 7.663
17.22000 4.802
17.24000 10.369
17.26000 9.546
17.28000 0.808
17.30000 -2.501
17.32000 -4.373
17.34000 -1.398
17.36000 0.203
17.38000 3.998
17.40000 -0.670
17.42000 2.465
17.44000 12.172
17.46000 15.618
17.48000 11.056
17.50000 1.619
17.52000 -0.021
17.54000 3.753
17.56000 4.583
17.58000 -1.669
17.60000 2.590
17.62000 5.579
17.64000 6.412
17.66000 13.266
17.68000 5.187
17.70000 1.921
17.72000 2.991
17.74000 1.881
17.76000 -0.571
17.78000 3.309
17.80000 5.109
17.82000 8.229
17.84000 6.364
17.86000 4.773
17.88000 2.416
17.90000 1.556
17.92000 6.035
17.94000 5.542
17.96000 2.386
17.98000 6.482
18.00000 5.362
18.02000 1.307
18.04000 -2.380
18.06000 1.756
18.08000 0.707
18.10000 1.073
18.12000 1.197
18.14000 -4.342
18.16000 -3.370
18.18000 10.781
18.20000 4.107
18.22000 -4.337
18.24000 1.748
18.26000 5.207
18.28000 7.022
18.30000 4.233
18.32000 1.384
18.34000 4.252
18.36000 4.625
18.38000 3.789
18.40000 3.664
18.42000 4.470
18.44000 -1.320
18.46000 0.985
18.48000 4.973
18.50000 5.910
18.52000 6.463
18.54000 1.963
18.56000 -1.019
18.58000 -2.755
18.60000 6.035
18.62000 -4.317
18.64000 -4.204
18.66000 3.240
18.68000 5.372
18.70000 3.908
18.72000 1.471
18.74000 -3.679
18.76000 0.949
18.78000 6.357
18.80000 5.526
18.82000 10.338
18.84000 3.596
18.86000 0.024
18.88000 2.228
18.90000 6.763
18.92000 6.480
18.94000 7.280
18.96000 5.800
18.98000 5.046
19.00000 4.780
19.02000 7.248
19.04000 9.946
19.06000 3.081
19.08000 1.551
19.10000 2.908
19.12000 3.038
19.14000 4.992
19.16000 6.551
19.18000 4.691
19.20000 0.938
19.22000 -2.127
19.24000 -4.272
19.26000 0.267
19.28000 3.009
19.30000 1.711
19.32000 -4.268
19.34000 0.268
19.36000 0.029
19.38000 0.060
19.40000 5.786
19.42000 -0.172
19.44000 1.134
19.46000 0.071
19.48000 -1.832
19.50000 1.624
19.52000 -1.835
19.54000 1.432
19.56000 8.577
19.58000 5.116
19.60000 1.022
19.62000 1.804
19.64000 7.322
19.66000 5.823
19.68000 5.566
19.70000 6.397
19.72000 8.210
19.74000 6.541
19.76000 8.907
19.78000 2.094
19.80000 4.767
19.82000 4.641
19.84000 3.753
19.86000 9.421
19.88000 8.837
19.90000 10.221
19.92000 4.291
19.94000 -0.713
19.96000 5.404
19.98000 2.576
20.00000 -2.525
20.02000 -0.915
20.04000 -2.553
20.06000 -0.780
20.08000 1.971
20.10000 5.907
20.12000 2.029
20.14000 -1.362
20.16000 4.267
20.18000 5.117
20.20000 6.846
20.22000 9.168
20.24000 0.431
20.26000 -1.029
20.28000 3.364
20.30000 8.151
20.32000 13.099
20.34000 8.371
20.36000 3.858
20.38000 0.499
20.40000 0.476
20.42000 5.884
20.44000 5.099
20.46000 7.245
20.48000 -0.243
20.50000 -4.013
20.52000 -1.152
20.54000 0.767
20.56000 -0.375
20.58000 2.279
20.60000 11.619
20.62000 12.979
20.64000 8.717
20.66000 -1.774
20.68000 -3.500
20.70000 -2.129
20.72000 -1.289
20.74000 1.478
20.76000 -0.430
20.78000 -2.027
20.80000 1.734
20.82000 0.230
20.84000 2.704
20.86000 4.239
20.88000 1.734
20.90000 5.012
20.92000 1.727
20.94000 4.444
20.96000 2.632
20.98000 -0.483
21.00000 11.166
21.02000 7.656
21.04000 4.847
21.06000 7.928
21.08000 6.110
21.10000 2.872
21.12000 8.852
21.14000 6.704
21.16000 2.222
21.18000 1.766
21.20000 2.427
21.22000 6.290
21.24000 5.494
21.26000 12.515
21.28000 6.725
21.30000 4.946
21.32000 -0.840
21.34000 -0.786
21.36000 -1.398
21.38000 -4.136
21.40000 4.923
21.42000 9.066
21.44000 2.103
21.46000 3.766
21.48000 8.977
21.50000 2.802
21.52000 1.190
21.54000 10.607
21.56000 11.199
21.58000 6.439
21.60000 2.025
21.62000 6.308
21.64000 4.568
21.66000 9.000
21.68000 9.211
21.70000 13.129
21.72000 12.464
21.74000 7.999
21.76000 10.756
21.78000 11.377
21.80000 9.146
21.82000 0.663
21.84000 -4.104
21.86000 -2.779
21.88000 6.144
21.90000 7.665
21.92000 6.239
21.94000 4.915
21.96000 5.304
21.98000 8.830
22.00000 7.109
22.02000 5.688
22.04000 -1.648
22.06000 2.764
22.08000 1.558
22.10000 3.649
22.12000 12.258
22.14000 8.976
22.16000 5.422
22.18000 2.954
22.20000 0.642
22.22000 3.110
22.24000 5.577
22.26000 4.633
22.28000 4.409
22.30000 1.667
22.32000 5.169
22.34000 4.418
22.36000 12.048
22.38000 11.438
22.40000 3.292
22.42000 2.555
22.44000 1.106
22.46000 -1.093
22.48000 0.252
22.50000 7.140
22.52000 9.864
22.54000 8.298
22.56000 -1.876
22.58000 -2.521
22.60000 1.465
22.62000 2.717
22.64000 7.991
22.66000 6.025
22.68000 7.344
22.70000 13.958
22.72000 4.108
22.74000 3.166
22.76000 6.653
22.78000 10.636
22.80000 3.123
22.82000 3.692
22.84000 6.422
22.86000 6.069
22.88000 3.047
22.90000 8.504
22.92000 6.327
22.94000 6.125
22.96000 12.351
22.98000 5.940
23.00000 -0.166
23.02000 5.741
23.04000 2.297
23.06000 1.756
23.08000 -4.057
23.10000 -0.984
23.12000 4.200
23.14000 8.146
23.16000 4.344
23.18000 2.009
23.20000 3.355
23.22000 10.364
23.24000 6.882
23.26000 6.551
23.28000 1.266
23.30000 7.753
23.32000 5.201
23.34000 -1.849
23.36000 1.383
23.38000 2.660
23.40000 4.517
23.42000 4.804
23.44000 7.856
23.46000 2.850
23.48000 0.332
23.50000 1.787
23.52000 6.492
23.54000 6.061
23.56000 -2.557
23.58000 0.493
23.60000 3.435
23.62000 4.249
23.64000 6.164
23.66000 3.446
23.68000 4.797
23.70000 6.159
23.72000 5.855
23.74000 5.324
23.76000 7.541
23.78000 5.714
23.80000 5.232
23.82000 5.141
23.84000 4.720
23.86000 6.418
23.88000 2.930
23.90000 -2.798
23.92000 3.137
23.94000 5.257
23.96000 3.626
23.98000 7.892
24.00000 7.153
24.02000 2.451
24.04000 1.972
24.06000 3.887
24.08000 5.852
24.10000 0.001
24.12000 0.165
24.14000 2.994
24.16000 4.789
24.18000 2.765
24.20000 7.039
24.22000 12.205
24.24000 5.068
24.26000 0.040
24.28000 3.799
24.30000 6.481
24.32000 7.919
24.34000 11.469
24.36000 9.336
24.38000 6.189
24.40000 3.341
24.42000 2.935
24.44000 4.421
24.46000 -0.237
24.48000 1.875
24.50000 2.056
24.52000 -1.122
24.54000 2.232
24.56000 9.945
24.58000 2.260
24.60000 -0.147
24.62000 7.214
24.64000 8.872
24.66000 4.993
24.68000 3.194
24.70000 4.057
24.72000 -0.701
24.74000 -2.766
24.76000 7.014
24.78000 9.397
24.80000 8.798
24.82000 9.537
24.84000 4.879
24.86000 6.882
24.88000 3.041
24.90000 -3.940
24.92000 0.387
24.94000 4.922
24.96000 5.462
24.98000 6.424
25.00000 10.567
25.02000 4.216
25.04000 2.225
25.06000 1.561
25.08000 -3.932
25.10000 -1.989
25.12000 3.525
25.14000 1.671
25.16000 3.290
25.18000 0.713
25.20000 2.488
25.22000 5.118
25.24000 2.627
25.26000 0.226
25.28000 0.446
25.30000 5.052
25.32000 2.679
25.34000 -3.920
25.36000 2.350
25.38000 6.304
25.40000 9.670
25.42000 8.778
25.44000 4.147
25.46000 7.966
25.48000 8.319
25.50000 5.098
25.52000 1.183
25.54000 0.969
25.56000 -3.084
25.58000 -1.719
25.60000 6.103
25.62000 3.479
25.64000 -2.532
25.66000 -0.682
25.68000 5.876
25.70000 1.603
25.72000 0.735
25.74000 1.782
25.76000 -0.226
25.78000 1.429
25.80000 2.534
25.82000 6.482
25.84000 2.466
25.86000 6.550
25.88000 9.783
25.90000 1.694
25.92000 -2.548
25.94000 -3.158
25.96000 -1.689
25.98000 0.259
26.00000 -3.043
26.02000 1.623
26.04000 5.413
26.06000 6.488
26.08000 4.452
26.10000 1.149
26.12000 0.929
26.14000 2.597
26.16000 2.008
26.18000 0.576
26.20000 -3.283
26.22000 -3.183
26.24000 -0.057
26.26000 -1.111
26.28000 1.597
26.30000 0.632
26.32000 -3.898
26.34000 -3.172
26.36000 2.187
26.38000 8.873
26.40000 5.423
26.42000 4.127
26.44000 -2.542
26.46000 0.147
26.48000 2.988
26.50000 3.000
26.52000 7.833
26.54000 4.293
26.56000 -3.276
26.58000 -2.303
26.60000 -1.288
26.62000 0.873
26.64000 5.013
26.66000 2.315
26.68000 0.355
26.70000 0.410
26.72000 -2.300
26.74000 0.485
26.76000 3.656
26.78000 2.196
26.80000 0.413
26.82000 3.576
26.84000 3.083
26.86000 3.310
26.88000 -0.204
26.90000 -0.389
26.92000 0.276
26.94000 2.371
26.96000 -0.412
26.98000 0.010
27.00000 6.619
27.02000 5.955
27.04000 4.047
27.06000 8.115
27.08000 6.241
27.10000 2.123
27.12000 3.600
27.14000 4.415
27.16000 6.685
27.18000 7.153
27.20000 5.839
27.22000 2.572
27.24000 1.354
27.26000 2.367
27.28000 4.087
27.30000 7.017
27.32000 2.491
27.34000 7.651
27.36000 7.355
27.38000 5.493
27.40000 6.746
27.42000 1.058
27.44000 -2.306
27.46000 -3.831
27.48000 -0.186
27.50000 4.912
27.52000 6.668
27.54000 6.957
27.56000 5.704
27.58000 -0.493
27.60000 2.373
27.62000 2.703
27.64000 -0.351
27.66000 -0.327
27.68000 6.173
27.70000 1.111
27.72000 -1.414
27.74000 3.578
27.76000 5.609
27.78000 4.380
27.80000 -0.216
27.82000 2.650
27.84000 2.840
27.86000 0.437
27.88000 3.176
27.90000 4.071
27.92000 -1.706
27.94000 -0.873
27.96000 -1.218
27.98000 3.125
28.00000 11.804
28.02000 8.627
28.04000 3.233
28.06000 -0.337
28.08000 0.515
28.10000 3.412
28.12000 2.747
28.14000 5.694
28.16000 6.164
28.18000 8.174
28.20000 8.682
28.22000 7.572
28.24000 9.796
28.26000 4.708
28.28000 6.012
28.30000 1.861
28.32000 1.397
28.34000 5.201
28.36000 3.612
28.38000 3.132
28.40000 1.459
28.42000 1.434
28.44000 4.184
28.46000 6.215
28.48000 2.754
28.50000 2.594
28.52000 8.444
28.54000 6.776
28.56000 -1.415
28.58000 -3.733
28.60000 -3.148
28.62000 1.533
28.64000 5.818
28.66000 4.019
28.68000 5.116
28.70000 7.391
28.72000 7.214
28.74000 6.644
28.76000 7.182
28.78000 7.302
28.80000 8.581
28.82000 11.362
28.84000 15.126
28.86000 10.723
28.88000 6.498
28.90000 2.114
28.92000 2.534
28.94000 4.130
28.96000 3.018
28.98000 9.849
29.00000 7.806
29.02000 6.668
29.04000 3.318
29.06000 5.933
29.08000 6.402
29.10000 5.606
29.12000 6.083
29.14000 1.108
29.16000 5.624
29.18000 8.590
29.20000 5.986
29.22000 4.044
29.24000 10.290
29.26000 6.775
29.28000 -3.170
29.30000 -3.702
29.32000 1.767
29.34000 8.585
29.36000 9.338
29.38000 8.921
29.40000 8.526
29.42000 5.218
29.44000 5.192
29.46000 5.604
29.48000 8.332
29.50000 6.874
29.52000 4.657
29.54000 -0.540
29.56000 2.576
29.58000 3.568
29.60000 1.336
29.62000 2.317
29.64000 -0.670
29.66000 -1.126
29.68000 1.059
29.70000 0.095
29.72000 -3.691
29.74000 -3.632
29.76000 2.864
29.78000 4.469
29.80000 5.869
29.82000 9.025
29.84000 5.459
29.86000 4.054
29.88000 5.488
29.90000 1.366
29.92000 1.718
29.94000 3.088
29.96000 4.034
29.98000 4.157
30.00000 4.400
30.02000 0.113
30.04000 4.153
30.06000 3.498
30.08000 6.452
30.10000 8.698
30.12000 9.403
30.14000 6.247
30.16000 5.250
30.18000 3.330
30.20000 2.261
30.22000 2.039
30.24000 1.253
30.26000 2.781
30.28000 8.165
30.30000 9.826
30.32000 6.551
30.34000 3.076
30.36000 0.901
30.38000 7.257
30.40000 6.396
30.42000 2.218
30.44000 4.955
30.46000 6.033
30.48000 1.922
30.50000 5.150
30.52000 2.049
30.54000 5.219
30.56000 0.969
30.58000 0.388
30.60000 1.492
30.62000 0.892
30.64000 2.291
30.66000 4.230
30.68000 5.235
30.70000 2.927
30.72000 7.229
30.74000 10.589
30.76000 3.471
30.78000 -1.037
30.80000 -0.690
30.82000 -1.029
30.84000 1.396
30.86000 3.445
30.88000 0.108
30.90000 -3.664
30.92000 -2.621
30.94000 3.583
30.96000 2.170
30.98000 -0.794
31.00000 0.345
31.02000 -1.890
31.04000 1.392
31.06000 -0.318
31.08000 -1.327
31.10000 2.274
31.12000 1.055
31.14000 0.355
31.16000 -3.578
31.18000 -1.743
31.20000 -0.159
31.22000 2.013
31.24000 -2.147
31.26000 -2.502
31.28000 -0.209
31.30000 -3.654
31.32000 0.462
31.34000 3.881
31.36000 5.361
31.38000 2.287
31.40000 0.892
31.42000 2.492
31.44000 1.586
31.46000 1.594
31.48000 -0.548
31.50000 0.213
31.52000 1.103
31.54000 7.434
31.56000 9.320
31.58000 3.938
31.60000 1.309
31.62000 0.239
31.64000 -0.076
31.66000 2.567
31.68000 1.456
31.70000 0.288
31.72000 1.928
31.74000 3.380
31.76000 7.625
31.78000 9.589
31.80000 0.782
31.82000 -0.259
31.84000 0.320
31.86000 0.466
31.88000 -2.101
31.90000 1.565
31.92000 1.997
31.94000 1.324
31.96000 2.580
31.98000 -0.651
32.00000 -1.004
32.02000 1.377
32.04000 1.383
32.06000 -2.584
32.08000 3.621
32.10000 0.333
32.12000 -3.319
32.14000 -0.493
32.16000 0.862
32.18000 0.051
32.20000 -3.607
32.22000 -1.610
32.24000 0.259
32.26000 3.875
32.28000 2.133
32.30000 7.155
32.32000 10.385
32.34000 0.851
32.36000 0.021
32.38000 2.301
32.40000 0.927
32.42000 2.056
32.44000 6.531
32.46000 2.261
32.48000 1.807
32.50000 2.357
32.52000 0.190
32.54000 5.099
32.56000 3.452
32.58000 8.928
32.60000 8.026
32.62000 5.806
32.64000 3.697
32.66000 3.418
32.68000 1.393
32.70000 4.059
32.72000 7.374
32.74000 2.252
32.76000 2.824
32.78000 0.111
32.80000 -1.824
32.82000 -3.085
32.84000 0.660
32.86000 0.243
32.88000 0.925
32.90000 -3.589
32.92000 0.939
32.94000 1.031
32.96000 5.703
32.98000 7.448
33.00000 6.327
33.02000 3.844
33.04000 3.770
33.06000 0.986
33.08000 3.345
33.10000 2.732
33.12000 6.235
33.14000 -0.028
33.16000 -2.506
33.18000 2.651
33.20000 8.023
33.22000 1.444
33.24000 4.007
33.26000 5.010
33.28000 3.197
33.30000 8.454
33.32000 10.560
33.34000 7.768
33.36000 3.529
33.38000 -3.569
33.40000 4.865
33.42000 5.156
33.44000 4.170
33.46000 4.952
33.48000 0.713
33.50000 1.891
33.52000 6.788
33.54000 1.057
33.56000 4.576
33.58000 -1.148
33.60000 5.270
33.62000 1.701
33.64000 2.877
33.66000 -0.103
33.68000 1.384
33.70000 5.787
33.72000 4.887
33.74000 4.552
33.76000 5.725
33.78000 5.751
33.80000 -0.705
33.82000 2.141
33.84000 3.281
33.86000 3.963
33.88000 5.715
33.90000 2.302
33.92000 -2.847
33.94000 -2.235
33.96000 1.868
33.98000 0.089
34.00000 3.519
34.02000 3.250
34.04000 -2.605
34.06000 5.904
34.08000 7.899
34.10000 6.035
34.12000 6.012
34.14000 1.600
34.16000 2.213
34.18000 10.245
34.20000 5.811
34.22000 1.528
34.24000 -1.615
34.26000 1.538
34.28000 4.115
34.30000 3.701
34.32000 -0.428
34.34000 0.925
34.36000 6.210
34.38000 6.785
34.40000 6.144
34.42000 2.061
34.44000 2.901
34.46000 3.097
34.48000 -0.142
34.50000 -0.960
34.52000 5.171
34.54000 3.128
34.56000 -0.470
34.58000 -1.028
34.60000 -0.555
34.62000 10.279
34.64000 6.113
34.66000 1.978
34.68000 -1.080
34.70000 0.498
34.72000 2.623
34.74000 5.605
34.76000 5.243
34.78000 3.388
34.80000 1.103
34.82000 7.013
34.84000 1.276
34.86000 0.383
34.88000 -0.972
34.90000 0.476
34.92000 4.104
34.94000 2.132
34.96000 1.106
34.98000 2.188
35.00000 1.847
35.02000 0.273
35.04000 4.825
35.06000 10.024
35.08000 8.902
35.10000 4.885
35.12000 3.621
35.14000 0.589
35.16000 0.035
35.18000 3.991
35.20000 7.146
35.22000 6.636
35.24000 0.820
35.26000 -3.298
35.28000 -3.490
35.30000 3.486
35.32000 4.188
35.34000 3.104
35.36000 4.926
35.38000 7.058
35.40000 10.176
35.42000 3.044
35.44000 4.426
35.46000 3.114
35.48000 2.528
35.50000 5.037
35.52000 5.867
35.54000 2.335
35.56000 4.051
35.58000 3.613
35.60000 1.334
35.62000 0.092
35.64000 3.729
35.66000 -0.732
35.68000 2.043
35.70000 1.648
35.72000 2.399
35.74000 3.367
35.76000 -0.514
35.78000 -2.935
35.80000 -1.360
35.82000 1.043
35.84000 2.469
35.86000 4.180
35.88000 4.454
35.90000 1.700
35.92000 4.011
35.94000 8.645
35.96000 5.571
35.98000 2.240
36.00000 -0.817
36.02000 3.172
36.04000 0.705
36.06000 0.766
36.08000 1.871
36.10000 4.050
36.12000 6.588
36.14000 2.427
36.16000 2.728
36.18000 1.265
36.20000 -0.257
36.22000 0.577
36.24000 1.069
36.26000 0.928
36.28000 2.293
36.30000 7.257
36.32000 0.526
36.34000 -3.452
36.36000 -0.357
36.38000 -0.872
36.40000 1.452
36.42000 -0.948
36.44000 0.140
36.46000 -0.489
36.48000 -0.404
36.50000 -3.533
36.52000 -1.050
36.54000 -0.944
36.56000 -2.262
36.58000 -0.564
36.60000 1.082
36.62000 -3.162
36.64000 -3.099
36.66000 -0.813
36.68000 3.115
36.70000 3.305
36.72000 5.601
36.74000 5.082
36.76000 0.742
36.78000 -1.392
36.80000 -0.610
36.82000 -2.375
36.84000 0.511
36.86000 4.746
36.88000 3.413
36.90000 4.936
36.92000 7.771
36.94000 5.291
36.96000 1.314
36.98000 4.455
37.00000 3.386
37.02000 1.522
37.04000 -0.492
37.06000 -0.901
37.08000 2.160
37.10000 -0.271
37.12000 -2.800
37.14000 -0.569
37.16000 4.138
37.18000 1.803
37.20000 2.801
37.22000 0.119
37.24000 1.135
37.26000 -1.810
37.28000 -1.815
37.30000 3.508
37.32000 0.614
37.34000 -2.970
37.36000 -0.483
37.38000 -1.674
37.40000 1.192
37.42000 3.462
37.44000 2.706
37.46000 2.082
37.48000 0.579
37.50000 3.352
37.52000 1.402
37.54000 -1.772
37.56000 2.386
37.58000 3.330
37.60000 1.924
37.62000 2.504
37.64000 -3.599
37.66000 -2.778
37.68000 1.108
37.70000 1.516
37.72000 -0.639
37.74000 1.059
37.76000 1.251
37.78000 4.331
37.80000 7.742
37.82000 6.074
37.84000 -2.532
37.86000 -1.608
37.88000 0.270
37.90000 1.008
37.92000 4.051
37.94000 4.425
37.96000 7.492
37.98000 11.197
38.00000 8.200
38.02000 7.586
38.04000 7.523
38.06000 4.597
38.08000 7.713
38.10000 10.130
38.12000 7.359
38.14000 7.308
38.16000 2.268
38.18000 2.937
38.20000 7.692
38.22000 10.190
38.24000 5.525
38.26000 6.534
38.28000 14.681
38.30000 14.753
38.32000 10.641
38.34000 11.149
38.36000 15.638
38.38000 18.519
38.40000 11.484
38.42000 8.836
38.44000 7.567
38.46000 11.532
38.48000 11.978
38.50000 13.854
38.52000 15.172
38.54000 18.886
38.56000 22.604
38.58000 18.072
38.60000 18.014
38.62000 20.408
38.64000 18.991
38.66000 18.135
38.68000 20.970
38.70000 19.223
38.72000 16.864
38.74000 16.314
38.76000 19.280
38.78000 23.423
38.80000 20.678
38.82000 19.310
38.84000 15.673
38.86000 21.990
38.88000 23.940
38.90000 23.043
38.92000 29.492
38.94000 26.732
38.96000 28.919
38.98000 28.367
39.00000 28.944
39.02000 31.801
39.04000 34.607
39.06000 32.827
39.08000 32.560
39.10000 34.911
39.12000 33.305
39.14000 31.344
39.16000 38.050
39.18000 39.333
39.20000 37.377
39.22000 47.196
39.24000 49.088
39.26000 55.098
39.28000 49.359
39.30000 46.988
39.32000 50.224
39.34000 55.026
39.36000 51.180
39.38000 55.791
39.40000 60.979
39.42000 62.543
39.44000 61.523
39.46000 64.032
39.48000 68.132
39.50000 72.769
39.52000 74.205
39.54000 81.266
39.56000 83.710
39.58000 88.946
39.60000 93.504
39.62000 95.180
39.64000 95.126
39.66000 94.557
39.68000 101.366
39.70000 110.010
39.72000 120.419
39.74000 127.136
39.76000 122.995
39.78000 139.259
39.80000 146.726
39.82000 146.274
39.84000 152.227
39.86000 165.815
39.88000 165.704
39.90000 175.225
39.92000 190.786
39.94000 196.418
39.96000 198.795
39.98000 205.975
40.00000 218.645
40.02000 229.164
40.04000 241.811
40.06000 247.512
40.08000 262.688
40.10000 281.035
40.12000 289.143
40.14000 306.784
40.16000 315.968
40.18000 332.007
40.20000 342.473
40.22000 360.870
40.24000 378.473
40.26000 391.632
40.28000 408.366
40.30000 410.965
40.32000 419.529
40.34000 436.050
40.36000 454.221
40.38000 470.364
40.40000 478.700
40.42000 482.460
40.44000 494.461
40.46000 511.402
40.48000 521.795
40.50000 530.869
40.52000 532.708
40.54000 532.433
40.56000 530.028
40.58000 539.546
40.60000 551.218
40.62000 551.993
40.64000 557.342
40.66000 540.769
40.68000 522.939
40.70000 517.035
40.72000 522.295
40.74000 524.677
40.76000 501.392
40.78000 500.730
40.80000 491.906
40.82000 476.440
40.84000 464.088
40.86000 445.884
40.88000 438.452
40.90000 427.682
40.92000 411.405
40.94000 393.687
40.96000 381.908
40.98000 363.241
41.00000 350.234
41.02000 337.195
41.04000 323.064
41.06000 305.295
41.08000 291.681
41.10000 280.390
41.12000 267.632
41.14000 254.986
41.16000 243.342
41.18000 234.873
41.20000 228.814
41.22000 212.443
41.24000 201.089
41.26000 193.318
41.28000 182.512
41.30000 177.325
41.32000 171.848
41.34000 159.916
41.36000 148.439
41.38000 142.184
41.40000 130.688
41.42000 124.182
41.44000 121.440
41.46000 113.652
41.48000 112.454
41.50000 105.398
41.52000 99.399
41.54000 96.067
41.56000 91.965
41.58000 87.520
41.60000 83.008
41.62000 78.538
41.64000 72.494
41.66000 69.028
41.68000 64.474
41.70000 61.070
41.72000 59.519
41.74000 57.765
41.76000 50.747
41.78000 45.373
41.80000 49.521
41.82000 47.021
41.84000 44.833
41.86000 42.944
41.88000 38.986
41.90000 34.927
41.92000 32.787
41.94000 35.568
41.96000 32.891
41.98000 32.929
42.00000 33.440
42.02000 28.337
42.04000 26.445
42.06000 22.154
42.08000 23.930
42.10000 20.184
42.12000 18.287
42.14000 19.544
42.16000 24.183
42.18000 19.412
42.20000 20.169
42.22000 21.803
42.24000 21.441
42.26000 18.050
42.28000 13.747
42.30000 14.236
42.32000 12.117
42.34000 14.507
42.36000 18.225
42.38000 13.332
42.40000 13.074
42.42000 8.515
42.44000 9.933
42.46000 8.616
42.48000 8.465
42.50000 13.760
42.52000 10.755
42.54000 9.835
42.56000 12.258
42.58000 10.323
42.60000 5.298
42.62000 10.463
42.64000 6.551
42.66000 8.523
42.68000 11.257
42.70000 11.645
42.72000 11.331
42.74000 2.235
42.76000 1.479
42.78000 3.640
42.80000 5.001
42.82000 4.721
42.84000 -0.478
42.86000 1.268
42.88000 3.705
42.90000 6.372
42.92000 7.557
42.94000 5.726
42.96000 5.868
42.98000 7.806
43.00000 2.138
43.02000 4.591
43.04000 4.582
43.06000 2.986
43.08000 8.310
43.10000 5.093
43.12000 2.134
43.14000 6.007
43.16000 5.938
43.18000 5.531
43.20000 0.137
43.22000 -3.521
43.24000 1.854
43.26000 2.616
43.28000 4.235
43.30000 3.673
43.32000 -0.507
43.34000 1.853
43.36000 2.289
43.38000 2.945
43.40000 5.614
43.42000 2.503
43.44000 0.781
43.46000 -0.330
43.48000 3.326
43.50000 2.761
43.52000 5.590
43.54000 3.271
43.56000 3.665
43.58000 5.072
43.60000 6.335
43.62000 8.329
43.64000 5.741
43.66000 5.411
43.68000 7.370
43.70000 2.739
43.72000 2.317
43.74000 5.635
43.76000 7.106
43.78000 8.666
43.80000 12.648
43.82000 8.650
43.84000 4.496
43.86000 1.880
43.88000 2.229
43.90000 0.080
43.92000 -3.437
43.94000 -2.084
43.96000 4.460
43.98000 5.732
44.00000 5.410
44.02000 5.081
44.04000 3.625
44.06000 -0.378
44.08000 1.591
44.10000 4.393
44.12000 7.100
44.14000 4.158
44.16000 2.385
44.18000 0.410
44.20000 -0.818
44.22000 2.157
44.24000 1.597
44.26000 2.872
44.28000 1.201
44.30000 -0.764
44.32000 2.374
44.34000 0.917
44.36000 -0.239
44.38000 0.913
44.40000 2.620
44.42000 1.344
44.44000 -0.185
44.46000 -0.186
44.48000 2.553
44.50000 -0.265
44.52000 -3.451
44.54000 0.361
44.56000 -0.653
44.58000 4.629
44.60000 6.652
44.62000 2.747
44.64000 2.492
44.66000 3.157
44.68000 2.831
44.70000 -0.341
44.72000 -1.105
44.74000 2.721
44.76000 3.753
44.78000 5.520
44.80000 0.393
44.82000 2.245
44.84000 3.830
44.86000 1.170
44.88000 1.379
44.90000 2.782
44.92000 9.519
44.94000 0.987
44.96000 2.763
44.98000 -0.298
45.00000 -2.714
45.02000 -3.456
45.04000 2.559
45.06000 7.084
45.08000 10.692
45.10000 9.475
45.12000 2.590
45.14000 1.240
45.16000 3.540
45.18000 2.741
45.20000 0.489
45.22000 4.224
45.24000 7.383
45.26000 7.657
45.28000 1.502
45.30000 2.573
45.32000 2.717
45.34000 8.278
45.36000 8.065
45.38000 8.539
45.40000 11.305
45.42000 0.057
45.44000 2.953
45.46000 11.468
45.48000 8.074
45.50000 12.221
45.52000 9.681
45.54000 6.662
45.56000 10.962
45.58000 12.550
45.60000 17.485
45.62000 11.643
45.64000 7.992
45.66000 9.980
45.68000 10.880
45.70000 10.379
45.72000 19.347
45.74000 23.762
45.76000 21.769
45.78000 19.198
45.80000 12.948
45.82000 9.383
45.84000 12.674
45.86000 16.210
45.88000 16.136
45.90000 21.066
45.92000 22.697
45.94000 23.496
45.96000 19.549
45.98000 20.606
46.00000 21.177
46.02000 22.463
46.04000 24.771
46.06000 18.816
46.08000 19.544
46.10000 21.835
46.12000 23.762
46.14000 30.638
46.16000 28.436
46.18000 27.673
46.20000 36.264
46.22000 33.022
46.24000 26.657
46.26000 26.792
46.28000 31.478
46.30000 36.110
46.32000 35.994
46.34000 37.633
46.36000 31.968
46.38000 40.575
46.40000 40.987
46.42000 42.130
46.44000 37.691
46.46000 41.682
46.48000 41.814
46.50000 48.521
46.52000 52.278
46.54000 53.412
46.56000 57.050
46.58000 51.403
46.60000 51.335
46.62000 45.098
46.64000 50.307
46.66000 53.995
46.68000 55.245
46.70000 51.893
46.72000 58.682
46.74000 56.940
46.76000 63.311
46.78000 66.002
46.80000 61.222
46.82000 60.230
46.84000 62.369
46.86000 62.235
46.88000 67.014
46.90000 72.949
46.92000 65.487
46.94000 70.478
46.96000 69.637
46.98000 65.086
47.00000 67.309
47.02000 77.072
47.04000 73.622
47.06000 68.786
47.08000 67.074
47.10000 69.039
47.12000 74.134
47.14000 80.461
47.16000 75.963
47.18000 67.225
47.20000 70.127
47.22000 68.784
47.24000 72.792
47.26000 72.049
47.28000 75.240
47.30000 73.449
47.32000 67.254
47.34000 66.647
47.36000 62.663
47.38000 67.135
47.40000 64.959
47.42000 64.356
47.44000 65.267
47.46000 63.014
47.48000 58.512
47.50000 59.668
47.52000 54.575
47.54000 56.369
47.56000 63.273
47.58000 56.703
47.60000 52.725
47.62000 55.726
47.64000 50.885
47.66000 41.269
47.68000 49.169
47.70000 50.486
47.72000 50.461
47.74000 48.767
47.76000 43.670
47.78000 45.269
47.80000 47.069
47.82000 45.232
47.84000 42.978
47.86000 42.770
47.88000 40.906
47.90000 37.407
47.92000 38.817
47.94000 32.974
47.96000 30.736
47.98000 26.354
48.00000 30.576
48.02000 33.206
48.04000 26.340
48.06000 23.616
48.08000 26.581
48.10000 23.490
48.12000 23.430
48.14000 25.685
48.16000 24.858
48.18000 23.093
48.20000 15.722
48.22000 19.019
48.24000 20.137
48.26000 20.866
48.28000 19.195
48.30000 14.640
48.32000 15.059
48.34000 16.720
48.36000 13.351
48.38000 8.998
48.40000 8.787
48.42000 11.941
48.44000 11.814
48.46000 9.573
48.48000 17.990
48.50000 16.239
48.52000 4.891
48.54000 3.136
48.56000 6.164
48.58000 6.642
48.60000 4.790
48.62000 3.612
48.64000 2.139
48.66000 4.626
48.68000 9.371
48.70000 5.957
48.72000 8.155
48.74000 6.706
48.76000 3.687
48.78000 6.706
48.80000 3.384
48.82000 -1.380
48.84000 0.108
48.86000 6.273
48.88000 7.213
48.90000 5.744
48.92000 3.284
48.94000 1.277
48.96000 2.617
48.98000 5.140
49.00000 15.493
49.02000 8.850
49.04000 5.897
49.06000 -0.124
49.08000 5.124
49.10000 8.257
49.12000 1.356
49.14000 2.899
49.16000 -3.102
49.18000 -3.099
49.20000 4.485
49.22000 3.102
49.24000 8.982
49.26000 10.954
49.28000 7.430
49.30000 3.886
49.32000 1.806
49.34000 9.848
49.36000 9.254
49.38000 7.113
49.40000 1.420
49.42000 1.846
49.44000 0.142
49.46000 5.270
49.48000 12.849
49.50000 7.235
49.52000 7.122
49.54000 7.351
49.56000 5.779
49.58000 0.837
49.60000 -3.076
49.62000 1.502
49.64000 5.169
49.66000 4.098
49.68000 4.094
49.70000 5.012
49.72000 -0.455
49.74000 0.861
49.76000 0.977
49.78000 4.418
49.80000 3.822
49.82000 3.318
49.84000 0.219
49.86000 1.424
49.88000 2.966
49.90000 2.800
49.92000 4.781
49.94000 0.445
49.96000 -0.914
49.98000 1.292
50.00000 0.467
50.02000 -0.719
50.04000 4.672
50.06000 3.527
50.08000 -0.447
50.10000 -0.061
50.12000 -0.281
50.14000 -0.971
50.16000 -0.722
50.18000 3.844
50.20000 6.920
50.22000 0.006
50.24000 -0.046
50.26000 -1.633
50.28000 1.165
50.30000 5.142
50.32000 3.278
50.34000 -1.302
50.36000 2.317
50.38000 2.605
50.40000 3.895
50.42000 4.635
50.44000 0.947
50.46000 1.689
50.48000 3.200
50.50000 4.584
50.52000 -0.068
50.54000 0.729
50.56000 -1.942
50.58000 -2.995
50.60000 0.482
50.62000 1.141
50.64000 -0.506
50.66000 -0.387
50.68000 0.861
50.70000 3.764
50.72000 1.158
50.74000 -1.048
50.76000 1.613
50.78000 2.643
50.80000 -0.369
50.82000 -2.486
50.84000 4.902
50.86000 2.798
50.88000 -1.741
50.90000 -2.449
50.92000 1.736
50.94000 4.201
50.96000 6.540
50.98000 3.531
51.00000 2.344
51.02000 7.327
51.04000 2.300
51.06000 0.544
51.08000 -1.678
51.10000 -0.964
51.12000 2.622
51.14000 2.653
51.16000 -1.589
51.18000 1.190
51.20000 3.260
51.22000 4.155
51.24000 5.068
51.26000 2.199
51.28000 3.609
51.30000 9.051
51.32000 5.918
51.34000 -2.948
51.36000 -2.624
51.38000 6.753
51.40000 8.858
51.42000 3.237
51.44000 3.109
51.46000 3.891
51.48000 -1.300
51.50000 0.091
51.52000 0.613
51.54000 3.267
51.56000 1.769
51.58000 -0.746
51.60000 -0.074
51.62000 5.430
51.64000 2.923
51.66000 1.071
51.68000 4.415
51.70000 7.486
51.72000 -0.135
51.74000 -1.897
51.76000 5.735
51.78000 1.530
51.80000 -0.590
51.82000 1.812
51.84000 4.969
51.86000 4.543
51.88000 2.740
51.90000 -2.915
51.92000 0.365
51.94000 4.793
51.96000 6.902
51.98000 3.468
52.00000 1.212
52.02000 5.896
52.04000 7.339
52.06000 5.246
52.08000 2.725
52.10000 4.635
52.12000 1.301
52.14000 3.759
52.16000 5.940
52.18000 3.334
52.20000 -1.593
52.22000 4.798
52.24000 -0.924
52.26000 -0.944
52.28000 -0.139
52.30000 -1.543
52.32000 3.576
52.34000 1.966
52.36000 1.094
52.38000 3.667
52.40000 11.506
52.42000 7.988
52.44000 8.709
52.46000 5.524
52.48000 4.634
52.50000 2.213
52.52000 0.366
52.54000 2.630
52.56000 3.309
52.58000 1.977
52.60000 8.310
52.62000 8.510
52.64000 9.279
52.66000 5.654
52.68000 5.024
52.70000 10.127
52.72000 1.772
52.74000 -2.833
52.76000 2.367
52.78000 5.811
52.80000 1.164
52.82000 4.199
52.84000 3.922
52.86000 5.361
52.88000 5.877
52.90000 4.408
52.92000 6.546
52.94000 5.955
52.96000 3.786
52.98000 8.880
53.00000 13.868
53.02000 10.931
53.04000 7.531
53.06000 2.709
53.08000 -0.326
53.10000 2.150
53.12000 5.997
53.14000 8.060
53.16000 14.316
53.18000 8.235
53.20000 1.930
53.22000 2.473
53.24000 5.717
53.26000 2.621
53.28000 7.810
53.30000 11.698
53.32000 2.478
53.34000 3.892
53.36000 0.907
53.38000 2.417
53.40000 5.777
53.42000 4.756
53.44000 -2.824
53.46000 0.496
53.48000 5.791
53.50000 6.424
53.52000 10.428
53.54000 9.218
53.56000 1.922
53.58000 5.603
53.60000 6.466
53.62000 4.564
53.64000 4.829
53.66000 8.001
53.68000 8.237
53.70000 2.340
53.72000 4.076
53.74000 2.167
53.76000 2.104
53.78000 3.074
53.80000 1.062
53.82000 1.668
53.84000 5.649
53.86000 5.332
53.88000 5.016
53.90000 10.428
53.92000 12.719
53.94000 5.060
53.96000 0.566
53.98000 3.327
54.00000 -2.241
54.02000 0.061
54.04000 10.285
54.06000 6.071
54.08000 0.885
54.10000 3.938
54.12000 2.295
54.14000 7.020
54.16000 5.808
54.18000 8.368
54.20000 6.743
54.22000 2.319
54.24000 2.756
54.26000 6.346
54.28000 3.660
54.30000 1.954
54.32000 2.579
54.34000 1.659
54.36000 3.458
54.38000 4.073
54.40000 5.007
54.42000 -0.627
54.44000 -1.704
54.46000 -0.970
54.48000 5.584
54.50000 7.301
54.52000 4.862
54.54000 6.898
54.56000 5.987
54.58000 0.975
54.60000 2.099
54.62000 6.400
54.64000 6.487
54.66000 8.160
54.68000 8.434
54.70000 2.608
54.72000 2.543
54.74000 6.949
54.76000 4.739
54.78000 4.270
54.80000 2.897
54.82000 1.312
54.84000 -2.055
54.86000 -0.447
54.88000 1.985
54.90000 5.643
54.92000 3.526
54.94000 0.363
54.96000 4.535
54.98000 5.104
55.00000 1.195
55.02000 0.069
55.04000 5.087
55.06000 8.503
55.08000 9.779
55.10000 4.104
55.12000 0.154
55.14000 -2.792
55.16000 -1.629
55.18000 5.317
55.20000 8.520
55.22000 8.024
55.24000 2.512
55.26000 3.620
55.28000 9.121
55.30000 7.405
55.32000 0.681
55.34000 0.340
55.36000 2.309
55.38000 -0.644
55.40000 -0.119
55.42000 0.592
55.44000 2.935
55.46000 4.159
55.48000 1.977
55.50000 3.076
55.52000 3.682
55.54000 1.413
55.56000 2.562
55.58000 4.870
55.60000 1.052
55.62000 3.989
55.64000 1.743
55.66000 4.254
55.68000 2.483
55.70000 -1.768
55.72000 2.971
55.74000 8.322
55.76000 7.512
55.78000 2.092
55.80000 -1.471
55.82000 4.723
55.84000 -0.004
55.86000 -2.646
55.88000 3.501
55.90000 6.865
55.92000 3.889
55.94000 1.887
55.96000 4.312
55.98000 4.534
56.00000 1.971
56.02000 2.721
56.04000 7.440
56.06000 4.109
56.08000 5.136
56.10000 0.667
56.12000 0.139
56.14000 2.804
56.16000 -1.142
56.18000 -1.298
56.20000 1.633
56.22000 8.040
56.24000 4.397
56.26000 0.023
56.28000 -2.802
56.30000 1.876
56.32000 0.729
56.34000 1.973
56.36000 1.856
56.38000 3.579
56.40000 -0.684
56.42000 2.626
56.44000 3.169
56.46000 4.143
56.48000 0.564
56.50000 0.757
56.52000 4.216
56.54000 3.491
56.56000 1.390
56.58000 2.533
56.60000 4.956
56.62000 5.567
56.64000 3.971
56.66000 0.079
56.68000 -2.650
56.70000 0.299
56.72000 2.043
56.74000 -0.950
56.76000 -0.779
56.78000 -2.553
56.80000 -2.311
56.82000 -1.663
56.84000 5.740
56.86000 3.105
56.88000 2.918
56.90000 -1.105
56.92000 1.957
56.94000 5.710
56.96000 1.328
56.98000 -0.970
57.00000 0.538
57.02000 5.856
57.04000 0.602
57.06000 1.719
57.08000 2.139
57.10000 1.933
57.12000 1.191
57.14000 1.509
57.16000 2.418
57.18000 3.716
57.20000 0.387
57.22000 -2.764
57.24000 -0.723
57.26000 1.936
57.28000 0.427
57.30000 -0.964
57.32000 0.563
57.34000 -0.684
57.36000 2.118
57.38000 8.191
57.40000 1.575
57.42000 -0.881
57.44000 -0.016
57.46000 0.496
57.48000 -0.506
57.50000 0.907
57.52000 2.362
57.54000 0.994
57.56000 3.880
57.58000 3.206
57.60000 0.845
57.62000 2.049
57.64000 -1.716
57.66000 0.860
57.68000 2.245
57.70000 -2.002
57.72000 -1.200
57.74000 1.727
57.76000 1.467
57.78000 3.568
57.80000 1.702
57.82000 -2.740
57.84000 -0.553
57.86000 -1.934
57.88000 -0.578
57.90000 3.078
57.92000 9.087
57.94000 6.632
57.96000 1.715
57.98000 0.106
58.00000 3.653
58.02000 4.377
58.04000 -0.337
58.06000 -0.310
58.08000 2.693
58.10000 6.376
58.12000 4.244
58.14000 1.962
58.16000 4.734
58.18000 5.205
58.20000 6.372
58.22000 2.597
58.24000 1.170
58.26000 5.116
58.28000 1.950
58.30000 1.975
58.32000 6.607
58.34000 2.130
58.36000 1.003
58.38000 3.303
58.40000 0.847
58.42000 0.034
58.44000 1.464
58.46000 0.360
58.48000 0.875
58.50000 4.588
58.52000 3.100
58.54000 0.319
58.56000 -1.963
58.58000 0.595
58.60000 1.608
58.62000 0.842
58.64000 2.333
58.66000 1.679
58.68000 7.468
58.70000 8.549
58.72000 2.516
58.74000 5.537
58.76000 7.739
58.78000 4.944
58.80000 2.516
58.82000 5.148
58.84000 4.538
58.86000 5.555
58.88000 4.213
58.90000 6.664
58.92000 4.162
58.94000 3.637
58.96000 5.408
58.98000 7.759
59.00000 8.528
59.02000 2.320
59.04000 -0.654
59.06000 5.871
59.08000 4.344
59.10000 1.639
59.12000 -2.634
59.14000 -0.585
59.16000 5.564
59.18000 9.179
59.20000 8.676
59.22000 1.057
59.24000 2.585
59.26000 1.062
59.28000 3.278
59.30000 2.150
59.32000 5.587
59.34000 7.354
59.36000 8.667
59.38000 5.237
59.40000 6.749
59.42000 9.387
59.44000 6.749
59.46000 3.076
59.48000 -1.726
59.50000 0.812
59.52000 4.214
59.54000 2.468
59.56000 4.055
59.58000 5.407
59.60000 5.688
59.62000 6.023
59.64000 6.778
59.66000 4.743
59.68000 8.078
59.70000 9.188
59.72000 5.802
59.74000 3.238
59.76000 4.642
59.78000 2.550
59.80000 0.981
59.82000 6.619
59.84000 7.483
59.86000 7.799
59.88000 8.023
59.90000 3.447
59.92000 4.247
59.94000 4.192
59.96000 4.878
59.98000 6.829
60.00000 6.938
60.02000 3.465
60.04000 1.769
60.06000 2.577
60.08000 0.587
60.10000 2.837
60.12000 1.624
60.14000 -0.073
60.16000 -2.282
60.18000 -1.553
60.20000 0.596
60.22000 1.555
60.24000 1.579
60.26000 3.271
60.28000 6.001
60.30000 8.421
60.32000 6.635
60.34000 3.754
60.36000 2.987
60.38000 1.176
60.40000 -0.758
60.42000 1.008
60.44000 2.016
60.46000 -2.632
60.48000 2.689
60.50000 1.307
60.52000 2.072
60.54000 3.700
60.56000 4.268
60.58000 4.567
60.60000 1.766
60.62000 1.131
60.64000 0.032
60.66000 0.208
60.68000 2.531
60.70000 3.171
60.72000 0.966
60.74000 -1.998
60.76000 -0.515
60.78000 0.432
60.80000 5.269
60.82000 0.727
60.84000 2.994
60.86000 1.224
60.88000 -0.013
60.90000 3.102
60.92000 2.115
60.94000 -1.964
60.96000 -0.793
60.98000 -0.929
61.00000 -2.639
61.02000 -0.562
61.04000 1.726
61.06000 0.858
61.08000 2.500
61.10000 5.452
61.12000 2.605
61.14000 2.124
61.16000 2.050
61.18000 3.241
61.20000 3.976
61.22000 2.587
61.24000 -0.718
61.26000 -1.509
61.28000 0.674
61.30000 1.133
61.32000 2.367
61.34000 0.022
61.36000 -0.134
61.38000 5.897
61.40000 7.134
61.42000 1.933
61.44000 3.198
61.46000 2.033
61.48000 1.740
61.50000 -1.267
61.52000 -0.009
61.54000 2.301
61.56000 7.702
61.58000 5.856
61.60000 3.161
61.62000 -2.248
61.64000 0.162
61.66000 6.096
61.68000 3.772
61.70000 2.871
61.72000 1.895
61.74000 5.252
61.76000 2.785
61.78000 2.115
61.80000 -0.949
61.82000 1.493
61.84000 0.248
61.86000 -2.579
61.88000 0.131
61.90000 3.275
61.92000 4.370
61.94000 6.882
61.96000 5.349
61.98000 2.195
62.00000 1.181
62.02000 -0.086
62.04000 3.188
62.06000 0.741
62.08000 -2.600
62.10000 -1.331
62.12000 -0.611
62.14000 4.118
62.16000 4.516
62.18000 6.884
62.20000 8.778
62.22000 5.898
62.24000 2.250
62.26000 1.999
62.28000 1.578
62.30000 2.016
62.32000 4.223
62.34000 3.475
62.36000 1.796
62.38000 0.610
62.40000 -1.664
62.42000 -0.758
62.44000 1.614
62.46000 5.476
62.48000 4.687
62.50000 2.688
62.52000 4.569
62.54000 1.188
62.56000 0.458
62.58000 5.541
62.60000 -0.524
62.62000 -2.287
62.64000 3.918
62.66000 1.298
62.68000 0.891
62.70000 0.938
62.72000 0.905
62.74000 2.715
62.76000 3.213
62.78000 1.044
62.80000 1.278
62.82000 3.812
62.84000 2.807
62.86000 3.347
62.88000 2.774
62.90000 0.955
62.92000 4.194
62.94000 2.052
62.96000 -2.350
62.98000 -1.656
63.00000 0.670
63.02000 5.117
63.04000 5.876
63.06000 4.182
63.08000 -2.571
63.10000 -2.416
63.12000 4.707
63.14000 5.969
63.16000 0.911
63.18000 3.917
63.20000 6.709
63.22000 5.348
63.24000 3.662
63.26000 2.091
63.28000 -1.412
63.30000 1.130
63.32000 6.891
63.34000 5.758
63.36000 2.874
63.38000 1.126
63.40000 -0.874
63.42000 -0.944
63.44000 -1.570
63.46000 3.023
63.48000 1.194
63.50000 0.817
63.52000 1.452
63.54000 -0.271
63.56000 2.012
63.58000 -0.506
63.60000 0.435
63.62000 5.533
63.64000 4.042
63.66000 0.449
63.68000 3.813
63.70000 3.179
63.72000 0.730
63.74000 1.448
63.76000 1.796
63.78000 0.561
63.80000 -2.085
63.82000 -0.049
63.84000 1.811
63.86000 1.744
63.88000 3.823
63.90000 3.019
63.92000 -1.939
63.94000 -1.056
63.96000 3.474
63.98000 -2.603
64.00000 -1.729
64.02000 2.131
64.04000 1.980
64.06000 4.117
64.08000 2.600
64.10000 0.601
64.12000 -2.604
64.14000 -2.153
64.16000 -2.112
64.18000 1.634
64.20000 1.901
64.22000 3.278
64.24000 2.569
64.26000 1.134
64.28000 2.687
64.30000 4.248
64.32000 0.181
64.34000 -0.954
64.36000 0.472
64.38000 3.780
64.40000 1.764
64.42000 -1.631
64.44000 2.080
64.46000 2.515
64.48000 -1.349
64.50000 2.945
64.52000 5.821
64.54000 4.047
64.56000 2.196
64.58000 3.490
64.60000 3.815
64.62000 3.844
64.64000 1.206
64.66000 -0.633
64.68000 2.533
64.70000 3.385
64.72000 2.036
64.74000 2.742
64.76000 0.911
64.78000 2.195
64.80000 1.041
64.82000 -1.950
64.84000 0.699
64.86000 -2.327
64.88000 1.371
64.90000 2.044
64.92000 1.582
64.94000 2.794
64.96000 0.035
64.98000 1.949
65.00000 5.833
65.02000 5.132
65.04000 1.051
65.06000 6.527
65.08000 4.123
65.10000 3.349
65.12000 1.351
65.14000 5.744
65.16000 3.464
65.18000 2.058
65.20000 2.643
65.22000 4.149
65.24000 6.716
65.26000 3.550
65.28000 2.530
65.30000 3.024
65.32000 4.769
65.34000 5.073
65.36000 6.367
65.38000 5.040
65.40000 1.885
65.42000 -0.067
65.44000 -1.094
65.46000 0.470
65.48000 3.660
65.50000 3.567
65.52000 1.795
65.54000 1.720
65.56000 2.617
65.58000 2.976
65.60000 1.570
65.62000 4.723
65.64000 3.086
65.66000 6.812
65.68000 2.714
65.70000 1.900
65.72000 2.290
65.74000 3.493
65.76000 5.234
65.78000 5.769
65.80000 7.511
65.82000 2.221
65.84000 -2.564
65.86000 3.053
65.88000 5.068
65.90000 5.460
65.92000 4.218
65.94000 6.379
65.96000 7.870
65.98000 5.859
66.00000 0.990
66.02000 0.053
66.04000 2.424
66.06000 2.243
66.08000 2.915
66.10000 2.414
66.12000 1.854
66.14000 0.586
66.16000 1.129
66.18000 2.576
66.20000 4.099
66.22000 5.907
66.24000 4.691
66.26000 3.921
66.28000 -1.746
66.30000 -0.205
66.32000 5.441
66.34000 4.624
66.36000 1.786
66.38000 3.229
66.40000 2.745
66.42000 2.046
66.44000 3.174
66.46000 3.887
66.48000 2.363
66.50000 -0.449
66.52000 4.089
66.54000 4.615
66.56000 2.784
66.58000 4.765
66.60000 4.689
66.62000 10.480
66.64000 2.358
66.66000 -0.859
66.68000 -1.453
66.70000 0.784
66.72000 4.566
66.74000 2.036
66.76000 0.687
66.78000 4.123
66.80000 2.712
66.82000 2.284
66.84000 3.048
66.86000 1.849
66.88000 1.717
66.90000 -2.645
66.92000 -1.053
66.94000 -1.183
66.96000 2.805
66.98000 4.977
67.00000 5.355
67.02000 2.171
67.04000 2.680
67.06000 1.111
67.08000 4.619
67.10000 4.063
67.12000 0.746
67.14000 4.967
67.16000 3.047
67.18000 2.499
67.20000 -0.869
67.22000 1.187
67.24000 2.114
67.26000 1.112
67.28000 1.130
67.30000 0.840
67.32000 1.514
67.34000 0.186
67.36000 1.062
67.38000 -0.768
67.40000 1.007
67.42000 3.485
67.44000 2.489
67.46000 -2.532
67.48000 0.039
67.50000 3.882
67.52000 3.541
67.54000 2.032
67.56000 8.061
67.58000 4.283
67.60000 2.039
67.62000 4.261
67.64000 0.766
67.66000 -0.354
67.68000 3.659
67.70000 3.828
67.72000 7.148
67.74000 9.085
67.76000 5.720
67.78000 3.860
67.80000 2.477
67.82000 2.819
67.84000 8.059
67.86000 8.123
67.88000 7.712
67.90000 7.025
67.92000 6.807
67.94000 4.644
67.96000 5.213
67.98000 9.933
68.00000 13.296
68.02000 11.041
68.04000 9.617
68.06000 10.411
68.08000 6.797
68.10000 5.471
68.12000 5.852
68.14000 11.131
68.16000 8.366
68.18000 12.545
68.20000 14.320
68.22000 9.793
68.24000 9.381
68.26000 13.294
68.28000 13.951
68.30000 15.182
68.32000 12.080
68.34000 14.227
68.36000 17.280
68.38000 14.383
68.40000 15.067
68.42000 13.710
68.44000 18.417
68.46000 18.517
68.48000 20.254
68.50000 20.810
68.52000 22.467
68.54000 23.367
68.56000 21.029
68.58000 21.190
68.60000 21.523
68.62000 20.735
68.64000 22.218
68.66000 23.986
68.68000 19.883
68.70000 21.866
68.72000 25.117
68.74000 23.751
68.76000 24.264
68.78000 24.097
68.80000 22.972
68.82000 23.449
68.84000 24.286
68.86000 26.441
68.88000 25.322
68.90000 24.603
68.92000 26.681
68.94000 31.125
68.96000 28.171
68.98000 22.340
69.00000 22.934
69.02000 26.627
69.04000 26.979
69.06000 26.319
69.08000 26.372
69.10000 25.379
69.12000 24.414
69.14000 24.483
69.16000 25.807
69.18000 28.686
69.20000 25.040
69.22000 23.472
69.24000 22.387
69.26000 25.769
69.28000 27.108
69.30000 22.564
69.32000 19.991
69.34000 21.805
69.36000 22.869
69.38000 20.459
69.40000 19.473
69.42000 21.399
69.44000 26.476
69.46000 22.965
69.48000 16.541
69.50000 16.615
69.52000 18.164
69.54000 18.521
69.56000 16.023
69.58000 15.603
69.60000 15.089
69.62000 15.137
69.64000 16.976
69.66000 14.395
69.68000 12.151
69.70000 7.986
69.72000 10.018
69.74000 10.780
69.76000 10.929
69.78000 10.660
69.80000 12.326
69.82000 4.702
69.84000 4.933
69.86000 7.208
69.88000 7.964
69.90000 6.822
69.92000 2.535
69.94000 7.286
69.96000 6.520
69.98000 7.450
70.00000 8.347
70.02000 8.866
70.04000 6.078
70.06000 0.533
70.08000 3.449
70.10000 4.880
70.12000 6.141
70.14000 7.851
70.16000 3.405
70.18000 4.515
70.20000 5.445
70.22000 4.127
70.24000 5.910
70.26000 7.673
70.28000 3.823
70.30000 5.450
70.32000 5.925
70.34000 5.318
70.36000 5.802
70.38000 4.272
70.40000 8.620
70.42000 9.531
70.44000 5.707
70.46000 6.233
70.48000 1.695
70.50000 1.798
70.52000 4.852
70.54000 5.105
70.56000 5.937
70.58000 1.466
70.60000 4.187
70.62000 6.627
70.64000 1.088
70.66000 -2.532
70.68000 0.722
70.70000 6.809
70.72000 5.336
70.74000 6.092
70.76000 4.668
70.78000 4.714
70.80000 4.623
70.82000 -0.731
70.84000 0.907
70.86000 0.579
70.88000 2.887
70.90000 6.842
70.92000 8.048
70.94000 8.634
70.96000 3.386
70.98000 -2.488
71.00000 -0.935
71.02000 3.185
71.04000 8.553
71.06000 8.401
71.08000 4.970
71.10000 1.464
71.12000 5.407
71.14000 7.408
71.16000 11.505
71.18000 7.617
71.20000 4.434
71.22000 2.865
71.24000 3.815
71.26000 10.707
71.28000 10.149
71.30000 4.147
71.32000 3.253
71.34000 4.867
71.36000 5.205
71.38000 6.406
71.40000 7.556
71.42000 6.249
71.44000 7.022
71.46000 0.513
71.48000 0.615
71.50000 -2.043
71.52000 -2.118
71.54000 4.344
71.56000 8.285
71.58000 4.577
71.60000 4.618
71.62000 7.861
71.64000 6.387
71.66000 3.579
71.68000 -2.428
71.70000 2.299
71.72000 2.941
71.74000 5.181
71.76000 3.352
71.78000 4.678
71.80000 4.017
71.82000 2.410
71.84000 2.883
71.86000 5.073
71.88000 6.884
71.90000 6.299
71.92000 7.958
71.94000 5.778
71.96000 3.843
71.98000 5.989
72.00000 9.482
72.02000 6.691
72.04000 4.947
72.06000 4.885
72.08000 3.981
72.10000 2.376
72.12000 7.933
72.14000 4.662
72.16000 1.417
72.18000 1.840
72.20000 0.902
72.22000 1.314
72.24000 4.620
72.26000 4.129
72.28000 6.078
72.30000 4.531
72.32000 2.269
72.34000 4.438
72.36000 3.350
72.38000 7.308
72.40000 1.880
72.42000 3.522
72.44000 4.296
72.46000 3.092
72.48000 3.281
72.50000 9.318
72.52000 4.667
72.54000 2.239
72.56000 1.984
72.58000 1.648
72.60000 3.600
72.62000 5.967
72.64000 3.802
72.66000 5.524
72.68000 5.459
72.70000 6.022
72.72000 4.486
72.74000 7.605
72.76000 6.656
72.78000 2.078
72.80000 -0.407
72.82000 2.715
72.84000 3.043
72.86000 -2.378
72.88000 2.642
72.90000 2.302
72.92000 3.518
72.94000 5.031
72.96000 8.624
72.98000 3.498
73.00000 5.031
73.02000 3.623
73.04000 6.110
73.06000 5.411
73.08000 1.502
73.10000 1.638
73.12000 6.361
73.14000 3.923
73.16000 2.413
73.18000 4.588
73.20000 2.887
73.22000 1.649
73.24000 4.017
73.26000 8.242
73.28000 10.331
73.30000 4.083
73.32000 5.996
73.34000 13.016
73.36000 6.902
73.38000 5.664
73.40000 4.346
73.42000 5.088
73.44000 4.342
73.46000 4.617
73.48000 5.669
73.50000 5.955
73.52000 3.867
73.54000 0.850
73.56000 4.895
73.58000 4.486
73.60000 0.644
73.62000 0.413
73.64000 5.313
73.66000 8.419
73.68000 5.025
73.70000 5.018
73.72000 0.748
73.74000 0.324
73.76000 1.062
73.78000 4.769
73.80000 4.643
73.82000 4.532
73.84000 6.173
73.86000 3.685
73.88000 5.070
73.90000 3.961
73.92000 5.430
73.94000 5.244
73.96000 4.509
73.98000 4.473
74.00000 5.854
74.02000 2.764
74.04000 3.606
74.06000 5.549
74.08000 6.513
74.10000 4.588
74.12000 5.564
74.14000 4.594
74.16000 1.394
74.18000 2.055
74.20000 6.405
74.22000 2.876
74.24000 5.163
74.26000 3.968
74.28000 6.945
74.30000 9.454
74.32000 6.183
74.34000 9.719
74.36000 7.202
74.38000 0.983
74.40000 1.682
74.42000 4.431
74.44000 1.566
74.46000 -2.328
74.48000 5.368
74.50000 9.692
74.52000 11.223
74.54000 9.675
74.56000 6.188
74.58000 5.800
74.60000 5.196
74.62000 3.220
74.64000 1.414
74.66000 4.661
74.68000 5.388
74.70000 3.330
74.72000 1.933
74.74000 2.046
74.76000 4.223
74.78000 2.252
74.80000 5.361
74.82000 5.532
74.84000 1.604
74.86000 1.501
74.88000 0.169
74.90000 5.247
74.92000 7.446
74.94000 4.652
74.96000 5.163
74.98000 1.520
75.00000 0.687
75.02000 1.248
75.04000 3.197
75.06000 6.497
75.08000 2.907
75.10000 4.997
75.12000 5.794
75.14000 9.597
75.16000 7.837
75.18000 3.304
75.20000 -2.131
75.22000 2.428
75.24000 6.264
75.26000 9.302
75.28000 4.159
75.30000 -0.236
75.32000 2.629
75.34000 4.825
75.36000 6.288
75.38000 5.664
75.40000 5.533
75.42000 4.033
75.44000 2.833
75.46000 4.300
75.48000 3.582
75.50000 5.082
75.52000 5.516
75.54000 7.109
75.56000 6.939
75.58000 5.576
75.60000 4.953
75.62000 3.879
75.64000 0.960
75.66000 -1.245
75.68000 0.653
75.70000 -0.189
75.72000 0.622
75.74000 1.851
75.76000 0.694
75.78000 5.569
75.80000 4.087
75.82000 2.800
75.84000 2.293
75.86000 4.081
75.88000 8.335
75.90000 4.707
75.92000 -0.262
75.94000 -0.015
75.96000 -0.762
75.98000 2.519
76.00000 -1.087
76.02000 -2.386
76.04000 1.680
76.06000 5.249
76.08000 7.246
76.10000 3.307
76.12000 -1.444
76.14000 -1.980
76.16000 0.793
76.18000 4.866
76.20000 3.718
76.22000 2.692
76.24000 4.381
76.26000 5.556
76.28000 5.047
76.30000 2.197
76.32000 2.345
76.34000 4.644
76.36000 5.226
76.38000 6.065
76.40000 4.911
76.42000 3.448
76.44000 4.056
76.46000 4.199
76.48000 1.492
76.50000 5.893
76.52000 0.727
76.54000 3.807
76.56000 6.919
76.58000 7.381
76.60000 4.610
76.62000 3.759
76.64000 4.575
76.66000 3.163
76.68000 2.926
76.70000 1.130
76.72000 2.007
76.74000 3.953
76.76000 4.612
76.78000 5.680
76.80000 3.792
76.82000 2.466
76.84000 5.000
76.86000 5.193
76.88000 3.319
76.90000 -1.396
76.92000 -0.274
76.94000 4.936
76.96000 3.582
76.98000 7.815
77.00000 9.330
77.02000 7.427
77.04000 7.901
77.06000 7.357
77.08000 2.482
77.10000 -2.406
77.12000 -0.872
77.14000 1.252
77.16000 5.094
77.18000 5.015
77.20000 3.091
77.22000 -0.818
77.24000 -0.642
77.26000 3.019
77.28000 6.673
77.30000 0.864
77.32000 4.040
77.34000 2.417
77.36000 6.711
77.38000 6.839
77.40000 0.260
77.42000 1.828
77.44000 -0.373
77.46000 0.531
77.48000 5.579
77.50000 2.192
77.52000 4.472
77.54000 1.780
77.56000 -1.604
77.58000 7.422
77.60000 7.358
77.62000 1.716
77.64000 4.916
77.66000 6.383
77.68000 6.469
77.70000 11.065
77.72000 11.179
77.74000 6.050
77.76000 2.660
77.78000 7.100
77.80000 1.693
77.82000 2.179
77.84000 5.005
77.86000 6.641
77.88000 5.228
77.90000 7.473
77.92000 7.726
77.94000 4.352
77.96000 3.480
77.98000 3.915
78.00000 5.085
78.02000 6.769
78.04000 4.763
78.06000 6.306
78.08000 4.566
78.10000 4.924
78.12000 2.072
78.14000 0.891
78.16000 3.606
78.18000 6.484
78.20000 7.665
78.22000 5.823
78.24000 7.112
78.26000 6.891
78.28000 5.071
78.30000 9.513
78.32000 5.796
78.34000 -1.004
78.36000 -0.478
78.38000 -2.414
78.40000 3.696
78.42000 1.178
78.44000 0.207
78.46000 1.229
78.48000 1.449
78.50000 0.411
78.52000 4.574
78.54000 5.409
78.56000 6.862
78.58000 4.670
78.60000 0.581
78.62000 2.178
78.64000 4.798
78.66000 4.057
78.68000 4.077
78.70000 0.633
78.72000 4.186
78.74000 2.600
78.76000 3.635
78.78000 1.442
78.80000 -0.191
78.82000 1.393
78.84000 4.851
78.86000 7.884
78.88000 4.265
78.90000 1.726
78.92000 3.557
78.94000 0.637
78.96000 5.519
78.98000 4.309
79.00000 5.476
79.02000 1.387
79.04000 -0.935
79.06000 2.657
79.08000 9.172
79.10000 5.189
79.12000 3.992
79.14000 3.381
79.16000 -2.415
79.18000 1.996
79.20000 6.680
79.22000 2.970
79.24000 1.561
79.26000 1.688
79.28000 0.501
79.30000 2.961
79.32000 6.805
79.34000 6.020
79.36000 1.062
79.38000 1.254
79.40000 6.424
79.42000 5.049
79.44000 4.306
79.46000 1.948
79.48000 2.852
79.50000 4.415
79.52000 3.404
79.54000 2.436
79.56000 7.792
79.58000 6.696
79.60000 3.196
79.62000 2.695
79.64000 5.920
79.66000 7.647
79.68000 5.994
79.70000 -0.958
79.72000 2.227
79.74000 4.822
79.76000 3.311
79.78000 -0.844
79.80000 -2.439
79.82000 0.060
79.84000 2.627
79.86000 4.625
79.88000 4.976
79.90000 8.242
79.92000 3.832
79.94000 1.787
79.96000 2.273
79.98000 1.516
80.00000 -1.305
80.02000 -1.760
80.04000 2.056
80.06000 5.864
80.08000 3.390
80.10000 2.094
80.12000 4.401
80.14000 2.530
80.16000 1.844
80.18000 5.844
80.20000 4.868
80.22000 8.445
80.24000 5.068
80.26000 7.369
80.28000 4.669
80.30000 10.193
80.32000 7.699
80.34000 6.242
80.36000 2.878
80.38000 -0.519
80.40000 -1.788
80.42000 2.918
80.44000 5.341
80.46000 0.222
80.48000 0.718
80.50000 5.042
80.52000 5.685
80.54000 3.346
80.56000 6.359
80.58000 5.193
80.60000 1.861
80.62000 5.735
80.64000 1.765
80.66000 -2.488
80.68000 3.250
80.70000 5.268
80.72000 6.487
80.74000 3.192
80.76000 0.339
80.78000 -1.232
80.80000 0.567
80.82000 4.114
80.84000 2.586
80.86000 4.810
80.88000 6.293
80.90000 7.158
80.92000 1.711
80.94000 -0.462
80.96000 0.001
80.98000 2.076
81.00000 0.072
81.02000 3.179
81.04000 1.615
81.06000 4.413
81.08000 4.054
81.10000 4.396
81.12000 8.971
81.14000 7.524
81.16000 7.738
81.18000 4.555
81.20000 2.894
81.22000 2.274
81.24000 3.925
81.26000 4.226
81.28000 -1.105
81.30000 0.368
81.32000 7.427
81.34000 10.289
81.36000 7.507
81.38000 6.331
81.40000 5.247
81.42000 0.087
81.44000 -2.544
81.46000 3.892
81.48000 9.827
81.50000 5.740
81.52000 2.910
81.54000 5.910
81.56000 8.917
81.58000 10.670
81.60000 8.180
81.62000 4.991
81.64000 6.372
81.66000 9.351
81.68000 8.357
81.70000 9.699
81.72000 10.033
81.74000 6.440
81.76000 2.178
81.78000 7.076
81.80000 3.396
81.82000 9.211
81.84000 9.753
81.86000 7.372
81.88000 8.993
81.90000 9.091
81.92000 6.734
81.94000 7.741
81.96000 9.444
81.98000 10.071
82.00000 11.142
82.02000 6.715
82.04000 7.777
82.06000 5.823
82.08000 8.185
82.10000 11.264
82.12000 6.831
82.14000 9.812
82.16000 15.480
82.18000 13.955
82.20000 10.088
82.22000 9.630
82.24000 9.481
82.26000 16.511
82.28000 18.881
82.30000 15.422
82.32000 14.755
82.34000 16.895
82.36000 9.817
82.38000 16.692
82.40000 13.055
82.42000 11.730
82.44000 13.222
82.46000 15.394
82.48000 12.580
82.50000 13.028
82.52000 10.507
82.54000 12.299
82.56000 17.847
82.58000 20.428
82.60000 19.420
82.62000 20.741
82.64000 21.339
82.66000 22.112
82.68000 21.679
82.70000 20.052
82.72000 20.749
82.74000 17.356
82.76000 18.570
82.78000 23.526
82.80000 25.318
82.82000 18.432
82.84000 18.056
82.86000 18.867
82.88000 14.946
82.90000 13.200
82.92000 15.794
82.94000 22.204
82.96000 25.671
82.98000 21.125
83.00000 21.548
83.02000 27.519
83.04000 30.317
83.06000 23.811
83.08000 21.162
83.10000 28.617
83.12000 25.256
83.14000 25.772
83.16000 24.577
83.18000 25.931
83.20000 28.058
83.22000 24.023
83.24000 24.466
83.26000 24.080
83.28000 26.385
83.30000 28.684
83.32000 29.083
83.34000 28.001
83.36000 27.365
83.38000 24.681
83.40000 29.664
83.42000 25.933
83.44000 25.031
83.46000 26.143
83.48000 27.657
83.50000 26.902
83.52000 29.807
83.54000 28.398
83.56000 25.746
83.58000 28.379
83.60000 24.031
83.62000 22.604
83.64000 29.838
83.66000 19.067
83.68000 22.512
83.70000 18.448
83.72000 18.456
83.74000 19.824
83.76000 20.045
83.78000 18.910
83.80000 19.269
83.82000 15.717
83.84000 15.217
83.86000 17.939
83.88000 17.442
83.90000 15.174
83.92000 18.166
83.94000 19.295
83.96000 17.407
83.98000 16.864
84.00000 13.212
84.02000 16.363
84.04000 17.107
84.06000 14.470
84.08000 17.082
84.10000 13.744
84.12000 17.734
84.14000 17.459
84.16000 14.239
84.18000 10.581
84.20000 9.414
84.22000 12.770
84.24000 13.206
84.26000 12.657
84.28000 8.529
84.30000 6.668
84.32000 5.246
84.34000 8.136
84.36000 7.480
84.38000 13.229
84.40000 11.233
84.42000 9.950
84.44000 8.818
84.46000 12.118
84.48000 8.569
84.50000 6.375
84.52000 8.445
84.54000 11.437
84.56000 9.504
84.58000 4.147
84.60000 4.625
84.62000 5.297
84.64000 9.835
84.66000 8.703
84.68000 -0.787
84.70000 -2.561
84.72000 2.768
84.74000 0.759
84.76000 1.449
84.78000 4.039
84.80000 0.975
84.82000 -0.166
84.84000 -0.725
84.86000 2.030
84.88000 0.457
84.90000 2.006
84.92000 0.995
84.94000 5.763
84.96000 0.404
84.98000 1.558
85.00000 0.369
85.02000 4.735
85.04000 1.877
85.06000 -0.682
85.08000 1.328
85.10000 4.985
85.12000 4.457
85.14000 4.461
85.16000 -1.728
85.18000 3.059
85.20000 3.399
85.22000 -2.124
85.24000 0.852
85.26000 1.555
85.28000 1.464
85.30000 -0.736
85.32000 2.246
85.34000 -1.034
85.36000 -2.510
85.38000 -0.495
85.40000 2.701
85.42000 5.238
85.44000 3.999
85.46000 -0.344
85.48000 -0.621
85.50000 -1.731
85.52000 0.999
85.54000 -0.900
85.56000 4.246
85.58000 6.974
85.60000 3.744
85.62000 2.381
85.64000 4.347
85.66000 4.074
85.68000 2.852
85.70000 4.087
85.72000 3.695
85.74000 0.715
85.76000 1.511
85.78000 6.268
85.80000 3.861
85.82000 2.046
85.84000 4.902
85.86000 5.072
85.88000 0.873
85.90000 0.563
85.92000 2.942
85.94000 4.462
85.96000 0.147
85.98000 -2.494
86.00000 -0.375
86.02000 -0.786
86.04000 3.093
86.06000 2.116
86.08000 7.703
86.10000 6.679
86.12000 2.964
86.14000 4.706
86.16000 7.506
86.18000 4.677
86.20000 3.954
86.22000 6.360
86.24000 0.423
86.26000 1.872
86.28000 3.267
86.30000 5.327
86.32000 1.821
86.34000 0.638
86.36000 2.500
86.38000 -0.366
86.40000 -1.249
86.42000 0.735
86.44000 -1.670
86.46000 -1.283
86.48000 2.295
86.50000 4.379
86.52000 6.660
86.54000 8.260
86.56000 7.823
86.58000 10.989
86.60000 11.104
86.62000 5.682
86.64000 2.299
86.66000 -2.488
86.68000 1.511
86.70000 4.756
86.72000 4.837
86.74000 4.631
86.76000 5.721
86.78000 5.460
86.80000 4.450
86.82000 2.401
86.84000 4.017
86.86000 4.657
86.88000 8.350
86.90000 9.097
86.92000 10.184
86.94000 10.783
86.96000 9.964
86.98000 12.839
87.00000 12.385
87.02000 10.444
87.04000 2.537
87.06000 3.179
87.08000 5.683
87.10000 10.160
87.12000 12.870
87.14000 14.838
87.16000 11.029
87.18000 8.807
87.20000 10.424
87.22000 9.378
87.24000 16.976
87.26000 13.993
87.28000 17.198
87.30000 12.267
87.32000 10.542
87.34000 10.353
87.36000 12.639
87.38000 15.642
87.40000 19.055
87.42000 17.205
87.44000 16.219
87.46000 14.112
87.48000 15.017
87.50000 13.998
87.52000 15.836
87.54000 18.180
87.56000 15.609
87.58000 13.724
87.60000 17.761
87.62000 24.042
87.64000 24.552
87.66000 14.834
87.68000 13.007
87.70000 14.503
87.72000 17.574
87.74000 15.274
87.76000 18.117
87.78000 15.038
87.80000 16.857
87.82000 15.497
87.84000 17.509
87.86000 21.423
87.88000 24.158
87.90000 27.305
87.92000 22.831
87.94000 16.200
87.96000 20.063
87.98000 18.394
88.00000 18.182
88.02000 16.533
88.04000 18.515
88.06000 14.206
88.08000 13.747
88.10000 21.884
88.12000 20.231
88.14000 18.335
88.16000 19.622
88.18000 21.984
88.20000 20.690
88.22000 19.927
88.24000 20.181
88.26000 19.317
88.28000 18.841
88.30000 16.338
88.32000 16.844
88.34000 14.979
88.36000 15.331
88.38000 13.988
88.40000 12.797
88.42000 15.795
88.44000 11.670
88.46000 15.424
88.48000 14.123
88.50000 7.989
88.52000 13.358
88.54000 16.128
88.56000 14.964
88.58000 10.235
88.60000 10.860
88.62000 9.692
88.64000 13.206
88.66000 16.792
88.68000 9.534
88.70000 7.580
88.72000 8.995
88.74000 9.178
88.76000 7.534
88.78000 3.577
88.80000 6.212
88.82000 9.738
88.84000 17.747
88.86000 9.424
88.88000 0.025
88.90000 -0.449
88.92000 6.189
88.94000 6.095
88.96000 3.212
88.98000 4.500
89.00000 8.257
89.02000 4.263
89.04000 4.834
89.06000 10.152
89.08000 9.176
89.10000 8.410
89.12000 6.408
89.14000 9.595
89.16000 8.391
89.18000 7.116
89.20000 8.377
89.22000 2.839
89.24000 2.449
89.26000 2.563
89.28000 4.490
89.30000 4.432
89.32000 6.261
89.34000 5.490
89.36000 1.969
89.38000 2.838
89.40000 5.043
89.42000 6.228
89.44000 3.322
89.46000 -0.573
89.48000 -0.884
89.50000 1.877
89.52000 6.173
89.54000 4.692
89.56000 5.340
89.58000 6.811
89.60000 4.940
89.62000 2.515
89.64000 1.806
89.66000 5.025
89.68000 2.887
89.70000 2.365
89.72000 2.234
89.74000 5.424
89.76000 4.921
89.78000 2.402
89.80000 5.761
89.82000 3.695
89.84000 4.107
89.86000 -0.096
89.88000 -2.277
89.90000 3.011
89.92000 5.758
89.94000 5.675
89.96000 6.191
89.98000 5.973
90.00000 3.695
90.02000 2.562
90.04000 3.112
90.06000 4.269
90.08000 5.043
90.10000 5.513
90.12000 9.038
90.14000 11.580
90.16000 8.583
90.18000 3.834
90.20000 0.868
90.22000 3.974
90.24000 1.996
90.26000 3.991
90.28000 1.084
90.30000 3.395
90.32000 8.281
90.34000 4.366
90.36000 2.584
90.38000 1.222
90.40000 8.242
90.42000 10.122
90.44000 2.981
90.46000 2.002
90.48000 3.087
90.50000 3.728
90.52000 5.511
90.54000 6.437
90.56000 6.979
90.58000 8.543
90.60000 4.429
90.62000 4.251
90.64000 4.279
90.66000 5.739
90.68000 7.581
90.70000 4.492
90.72000 6.768
90.74000 4.635
90.76000 3.167
90.78000 -0.761
90.80000 1.955
90.82000 3.614
90.84000 1.397
90.86000 0.814
90.88000 4.607
90.90000 8.150
90.92000 6.407
90.94000 5.482
90.96000 4.145
90.98000 -2.256
91.00000 -1.625
91.02000 2.487
91.04000 -0.742
91.06000 4.191
91.08000 9.682
91.10000 5.963
91.12000 4.505
91.14000 3.368
91.16000 4.541
91.18000 4.001
91.20000 5.476
91.22000 3.248
91.24000 0.854
91.26000 5.039
91.28000 11.105
91.30000 6.402
91.32000 6.279
91.34000 6.550
91.36000 7.059
91.38000 7.640
91.40000 5.685
91.42000 4.662
91.44000 6.823
91.46000 0.657
91.48000 -2.256
91.50000 2.371
91.52000 7.182
91.54000 5.841
91.56000 4.912
91.58000 9.961
91.60000 6.253
91.62000 0.735
91.64000 0.776
91.66000 4.422
91.68000 9.717
91.70000 3.332
91.72000 3.855
91.74000 6.110
91.76000 6.604
91.78000 5.158
91.80000 3.731
91.82000 2.983
91.84000 -0.934
91.86000 4.807
91.88000 3.117
91.90000 4.323
91.92000 7.076
91.94000 3.584
91.96000 0.804
91.98000 0.017
92.00000 3.412
92.02000 6.040
92.04000 4.747
92.06000 6.718
92.08000 5.376
92.10000 -0.170
92.12000 -2.036
92.14000 2.525
92.16000 2.735
92.18000 7.635
92.20000 11.733
92.22000 6.880
92.24000 3.786
92.26000 2.418
92.28000 3.321
92.30000 7.112
92.32000 7.010
92.34000 8.893
92.36000 3.815
92.38000 2.367
92.40000 8.113
92.42000 7.080
92.44000 -2.249
92.46000 2.201
92.48000 9.413
92.50000 8.845
92.52000 6.227
92.54000 4.297
92.56000 4.221
92.58000 5.606
92.60000 3.661
92.62000 6.498
92.64000 7.724
92.66000 5.577
92.68000 1.703
92.70000 4.455
92.72000 7.433
92.74000 1.473
92.76000 5.345
92.78000 7.015
92.80000 2.770
92.82000 3.976
92.84000 6.188
92.86000 4.597
92.88000 7.357
92.90000 6.358
92.92000 -2.247
92.94000 0.596
92.96000 1.985
92.98000 2.411
93.00000 1.624
93.02000 6.318
93.04000 5.489
93.06000 9.455
93.08000 10.628
93.10000 3.471
93.12000 2.052
93.14000 4.069
93.16000 5.258
93.18000 2.342
93.20000 -0.932
93.22000 -1.781
93.24000 1.116
93.26000 3.278
93.28000 1.512
93.30000 -0.601
93.32000 1.061
93.34000 3.007
93.36000 5.493
93.38000 8.777
93.40000 4.019
93.42000 4.378
93.44000 7.349
93.46000 3.474
93.48000 2.319
93.50000 4.813
93.52000 2.921
93.54000 5.923
93.56000 10.517
93.58000 -0.614
93.60000 2.858
93.62000 3.827
93.64000 1.151
93.66000 1.955
93.68000 0.371
93.70000 2.975
93.72000 2.163
93.74000 -2.244
93.76000 4.345
93.78000 5.331
93.80000 9.055
93.82000 9.691
93.84000 2.366
93.86000 4.232
93.88000 6.311
93.90000 4.398
93.92000 2.393
93.94000 4.100
93.96000 5.014
93.98000 0.780
94.00000 4.498
94.02000 5.158
94.04000 5.100
94.06000 2.781
94.08000 2.102
94.10000 0.413
94.12000 4.970
94.14000 6.241
94.16000 6.094
94.18000 10.102
94.20000 7.615
94.22000 3.267
94.24000 1.478
94.26000 2.609
94.28000 3.741
94.30000 5.396
94.32000 3.571
94.34000 0.269
94.36000 1.689
94.38000 2.649
94.40000 2.428
94.42000 0.830
94.44000 5.253
94.46000 6.091
94.48000 8.734
94.50000 8.369
94.52000 8.035
94.54000 3.326
94.56000 6.904
94.58000 3.023
94.60000 4.620
94.62000 5.044
94.64000 6.102
94.66000 3.162
94.68000 2.450
94.70000 3.693
94.72000 6.110
94.74000 7.456
94.76000 9.532
94.78000 4.651
94.80000 1.308
94.82000 7.276
94.84000 9.665
94.86000 12.198
94.88000 13.709
94.90000 4.896
94.92000 5.312
94.94000 8.529
94.96000 9.631
94.98000 7.179
95.00000 3.983
95.02000 7.538
95.04000 8.744
95.06000 3.882
95.08000 -2.243
95.10000 0.101
95.12000 5.200
95.14000 -1.316
95.16000 4.838
95.18000 6.644
95.20000 5.293
95.22000 5.247
95.24000 9.147
95.26000 3.434
95.28000 2.336
95.30000 10.070
95.32000 6.277
95.34000 5.862
95.36000 7.592
95.38000 6.774
95.40000 6.167
95.42000 10.148
95.44000 7.357
95.46000 7.070
95.48000 6.688
95.50000 4.035
95.52000 0.522
95.54000 2.783
95.56000 4.471
95.58000 4.411
95.60000 3.278
95.62000 5.903
95.64000 -2.181
95.66000 -0.287
95.68000 8.740
95.70000 6.603
95.72000 -0.182
95.74000 -0.168
95.76000 0.662
95.78000 -2.267
95.80000 1.587
95.82000 3.356
95.84000 8.055
95.86000 7.039
95.88000 9.554
95.90000 7.892
95.92000 6.776
95.94000 2.297
95.96000 5.732
95.98000 9.477
96.00000 5.842
96.02000 0.711
96.04000 4.878
96.06000 13.133
96.08000 5.085
96.10000 8.711
96.12000 3.903
96.14000 2.810
96.16000 3.350
96.18000 4.947
96.20000 8.123
96.22000 4.820
96.24000 3.361
96.26000 2.975
96.28000 2.486
96.30000 5.689
96.32000 3.602
96.34000 1.254
96.36000 4.784
96.38000 9.679
96.40000 7.327
96.42000 8.373
96.44000 4.442
96.46000 1.280
96.48000 6.114
96.50000 10.302
96.52000 4.352
96.54000 3.639
96.56000 4.179
96.58000 10.167
96.60000 6.929
96.62000 7.557
96.64000 3.260
96.66000 4.675
96.68000 7.374
96.70000 3.966
96.72000 0.248
96.74000 5.662
96.76000 7.115
96.78000 8.638
96.80000 11.502
96.82000 10.990
96.84000 4.395
96.86000 11.339
96.88000 14.523
96.90000 9.956
96.92000 13.513
96.94000 13.219
96.96000 6.699
96.98000 7.375
97.00000 5.576
97.02000 1.658
97.04000 -0.266
97.06000 8.652
97.08000 6.212
97.10000 8.426
97.12000 10.637
97.14000 5.403
97.16000 5.645
97.18000 4.423
97.20000 4.063
97.22000 5.356
97.24000 8.226
97.26000 11.123
97.28000 7.158
97.30000 8.926
97.32000 9.520
97.34000 7.759
97.36000 9.855
97.38000 14.174
97.40000 11.468
97.42000 11.837
97.44000 12.875
97.46000 12.300
97.48000 5.199
97.50000 4.797
97.52000 8.483
97.54000 11.234
97.56000 9.094
97.58000 10.924
97.60000 11.626
97.62000 5.122
97.64000 6.750
97.66000 12.621
97.68000 12.584
97.70000 9.725
97.72000 6.976
97.74000 7.401
97.76000 4.845
97.78000 -2.147
97.80000 5.486
97.82000 9.863
97.84000 10.367
97.86000 4.123
97.88000 8.907
97.90000 10.239
97.92000 4.005
97.94000 1.069
97.96000 -0.510
97.98000 -0.473
98.00000 6.879
98.02000 9.947
98.04000 9.917
98.06000 15.107
98.08000 9.030
98.10000 14.400
98.12000 8.859
98.14000 4.550
98.16000 6.668
98.18000 15.348
98.20000 15.438
98.22000 16.449
98.24000 2.922
98.26000 3.712
98.28000 14.909
98.30000 7.621
98.32000 1.427
98.34000 5.132
98.36000 11.009
98.38000 2.827
98.40000 6.813
98.42000 5.543
98.44000 4.490
98.46000 11.763
98.48000 9.862
98.50000 8.912
98.52000 9.055
98.54000 11.972
98.56000 5.983
98.58000 4.114
98.60000 9.310
98.62000 13.006
98.64000 10.667
98.66000 6.279
98.68000 2.544
98.70000 2.279
98.72000 5.039
98.74000 8.787
98.76000 2.440
98.78000 0.325
98.80000 11.378
98.82000 8.761
98.84000 1.499
98.86000 7.213
98.88000 11.699
98.90000 7.311
98.92000 16.759
98.94000 7.634
98.96000 6.486
98.98000 14.174
99.00000 12.673
99.02000 9.899
99.04000 19.819
99.06000 15.195
99.08000 13.281
99.10000 17.377
99.12000 20.482
99.14000 13.211
99.16000 17.626
99.18000 13.576
99.20000 5.814
99.22000 4.858
99.24000 2.971
99.26000 2.490
99.28000 1.314
99.30000 3.727
99.32000 5.112
99.34000 4.993
99.36000 1.362
99.38000 10.779
99.40000 11.052
99.42000 -2.277
99.44000 -0.034
99.46000 8.463
99.48000 11.301
99.50000 14.356
99.52000 6.602
99.54000 5.803
99.56000 8.693
99.58000 6.633
99.60000 16.616
99.62000 12.152
99.64000 7.320
99.66000 7.235
99.68000 9.462
99.70000 11.069
99.72000 6.685
99.74000 4.954
99.76000 19.403
99.78000 16.933
99.80000 16.797
99.82000 11.101
99.84000 9.097
99.86000 14.390
99.88000 20.205
99.90000 24.069
99.92000 21.149
99.94000 19.777
99.96000 9.151
99.98000 0.000
