'Id: "0011388" Comment: "Integrate frame 0011388_Au-Ir-Rh_Rh-rich_XRD-Mapping-211-0000.gfrmwith cursor Wedge Cursor #5" Operator: "B?rgel" Anode: "Cu" Wavelength: "1.5406" Scantype: "2Theta (TwoTheta)" TimePerStep: "1" X: "9" Y: "9" Z: "5.95" 
10.00000 0.000
10.02000 -4.041
10.04000 7.637
10.06000 5.318
10.08000 4.507
10.10000 3.569
10.12000 2.289
10.14000 8.532
10.16000 10.932
10.18000 -1.299
10.20000 -3.975
10.22000 -3.975
10.24000 -0.055
10.26000 0.139
10.28000 -2.047
10.30000 12.127
10.32000 12.763
10.34000 0.526
10.36000 5.844
10.38000 0.752
10.40000 9.051
10.42000 28.808
10.44000 36.835
10.46000 27.203
10.48000 30.889
10.50000 11.740
10.52000 2.874
10.54000 0.326
10.56000 12.175
10.58000 14.953
10.60000 9.366
10.62000 16.259
10.64000 23.875
10.66000 5.767
10.68000 3.133
10.70000 5.445
10.72000 7.009
10.74000 20.961
10.76000 19.128
10.78000 13.993
10.80000 14.841
10.82000 13.243
10.84000 16.598
10.86000 9.031
10.88000 10.165
10.90000 11.277
10.92000 12.708
10.94000 15.752
10.96000 17.775
10.98000 8.963
11.00000 4.762
11.02000 1.547
11.04000 10.031
11.06000 16.004
11.08000 16.003
11.10000 11.846
11.12000 9.208
11.14000 7.421
11.16000 13.651
11.18000 9.748
11.20000 17.799
11.22000 23.429
11.24000 21.248
11.26000 13.960
11.28000 10.383
11.30000 11.138
11.32000 11.459
11.34000 -1.338
11.36000 1.793
11.38000 12.291
11.40000 7.454
11.42000 14.160
11.44000 23.859
11.46000 12.359
11.48000 3.061
11.50000 0.722
11.52000 4.754
11.54000 22.166
11.56000 20.941
11.58000 12.166
11.60000 7.380
11.62000 12.986
11.64000 7.283
11.66000 4.725
11.68000 2.441
11.70000 7.820
11.72000 8.717
11.74000 10.569
11.76000 16.620
11.78000 18.269
11.80000 15.206
11.82000 13.595
11.84000 10.523
11.86000 9.403
11.88000 1.171
11.90000 6.234
11.92000 16.466
11.94000 16.138
11.96000 8.592
11.98000 15.761
12.00000 15.950
12.02000 21.192
12.04000 13.819
12.06000 13.803
12.08000 24.242
12.10000 27.464
12.12000 12.562
12.14000 11.600
12.16000 17.380
12.18000 17.473
12.20000 7.315
12.22000 8.161
12.24000 19.205
12.26000 28.408
12.28000 31.603
12.30000 20.858
12.32000 20.156
12.34000 21.028
12.36000 21.794
12.38000 20.514
12.40000 21.110
12.42000 16.949
12.44000 23.352
12.46000 17.412
12.48000 8.884
12.50000 14.461
12.52000 24.837
12.54000 27.782
12.56000 27.621
12.58000 30.964
12.60000 25.962
12.62000 16.421
12.64000 5.047
12.66000 14.519
12.68000 11.793
12.70000 10.369
12.72000 22.408
12.74000 17.853
12.76000 12.966
12.78000 7.997
12.80000 8.718
12.82000 15.412
12.84000 24.030
12.86000 13.315
12.88000 17.519
12.90000 20.886
12.92000 10.201
12.94000 10.146
12.96000 9.460
12.98000 9.479
13.00000 11.895
13.02000 10.956
13.04000 10.014
13.06000 18.626
13.08000 25.120
13.10000 24.974
13.12000 17.356
13.14000 21.090
13.16000 19.142
13.18000 19.680
13.20000 20.392
13.22000 24.093
13.24000 26.076
13.26000 20.275
13.28000 13.471
13.30000 19.375
13.32000 29.782
13.34000 24.648
13.36000 17.979
13.38000 20.270
13.40000 23.233
13.42000 20.100
13.44000 9.685
13.46000 10.179
13.48000 6.361
13.50000 2.179
13.52000 13.683
13.54000 16.563
13.56000 18.068
13.58000 12.657
13.60000 12.622
13.62000 18.985
13.64000 9.234
13.66000 8.506
13.68000 12.468
13.70000 15.208
13.72000 11.468
13.74000 12.541
13.76000 14.891
13.78000 14.395
13.80000 16.397
13.82000 12.349
13.84000 12.099
13.86000 13.505
13.88000 17.581
13.90000 18.101
13.92000 18.852
13.94000 17.433
13.96000 7.726
13.98000 7.083
14.00000 7.368
14.02000 16.677
14.04000 19.878
14.06000 12.269
14.08000 22.932
14.10000 16.665
14.12000 6.266
14.14000 14.435
14.16000 14.400
14.18000 11.299
14.20000 12.191
14.22000 12.164
14.24000 21.221
14.26000 15.643
14.28000 18.457
14.30000 5.503
14.32000 9.424
14.34000 1.538
14.36000 7.659
14.38000 13.706
14.40000 7.492
14.42000 9.643
14.44000 17.516
14.46000 11.407
14.48000 8.086
14.50000 15.644
14.52000 15.361
14.54000 15.800
14.56000 16.110
14.58000 11.509
14.60000 6.530
14.62000 14.755
14.64000 12.357
14.66000 7.552
14.68000 3.894
14.70000 3.542
14.72000 5.861
14.74000 12.248
14.76000 9.685
14.78000 9.076
14.80000 10.858
14.82000 18.541
14.84000 24.591
14.86000 19.149
14.88000 6.230
14.90000 2.914
14.92000 -1.853
14.94000 10.471
14.96000 15.068
14.98000 13.368
15.00000 2.735
15.02000 1.959
15.04000 10.412
15.06000 7.059
15.08000 6.601
15.10000 1.233
15.12000 8.152
15.14000 4.481
15.16000 6.941
15.18000 6.057
15.20000 0.925
15.22000 -0.145
15.24000 3.863
15.26000 -1.533
15.28000 2.941
15.30000 9.156
15.32000 14.287
15.34000 18.358
15.36000 23.080
15.38000 14.340
15.40000 14.305
15.42000 15.834
15.44000 7.653
15.46000 9.645
15.48000 11.010
15.50000 13.440
15.52000 13.355
15.54000 4.329
15.56000 10.153
15.58000 13.736
15.60000 15.573
15.62000 11.292
15.64000 1.774
15.66000 -3.173
15.68000 -1.461
15.70000 6.766
15.72000 15.330
15.74000 10.225
15.76000 14.931
15.78000 15.009
15.80000 22.368
15.82000 7.586
15.84000 0.883
15.86000 2.361
15.88000 8.951
15.90000 14.410
15.92000 10.250
15.94000 11.024
15.96000 9.312
15.98000 0.847
16.00000 -4.408
16.02000 0.414
16.04000 10.256
16.06000 -1.336
16.08000 6.372
16.10000 5.539
16.12000 11.122
16.14000 6.280
16.16000 8.919
16.18000 14.585
16.20000 9.722
16.22000 7.580
16.24000 9.123
16.26000 13.900
16.28000 4.883
16.30000 -2.655
16.32000 4.848
16.34000 1.821
16.36000 -1.876
16.38000 -0.066
16.40000 1.545
16.42000 4.072
16.44000 2.017
16.46000 1.108
16.48000 7.733
16.50000 19.631
16.52000 8.773
16.54000 3.626
16.56000 12.278
16.58000 6.165
16.60000 -1.218
16.62000 3.948
16.64000 5.747
16.66000 4.931
16.68000 6.307
16.70000 11.271
16.72000 7.694
16.74000 5.467
16.76000 9.123
16.78000 7.178
16.80000 10.730
16.82000 11.972
16.84000 16.620
16.86000 15.223
16.88000 8.317
16.90000 6.029
16.92000 6.885
16.94000 8.367
16.96000 11.973
16.98000 9.367
17.00000 12.342
17.02000 11.357
17.04000 10.363
17.06000 5.981
17.08000 6.207
17.10000 10.688
17.12000 11.481
17.14000 8.366
17.16000 9.282
17.18000 9.393
17.20000 9.836
17.22000 13.215
17.24000 11.913
17.26000 11.064
17.28000 17.824
17.30000 14.990
17.32000 16.428
17.34000 11.106
17.36000 0.803
17.38000 -4.335
17.40000 6.920
17.42000 17.356
17.44000 11.774
17.46000 14.350
17.48000 19.339
17.50000 19.561
17.52000 7.633
17.54000 4.881
17.56000 1.937
17.58000 3.754
17.60000 13.758
17.62000 6.742
17.64000 7.716
17.66000 5.053
17.68000 12.268
17.70000 10.056
17.72000 15.192
17.74000 13.128
17.76000 9.415
17.78000 2.815
17.80000 3.300
17.82000 9.056
17.84000 8.919
17.86000 8.979
17.88000 5.523
17.90000 6.599
17.92000 2.439
17.94000 -0.842
17.96000 -2.182
17.98000 -1.856
18.00000 11.113
18.02000 15.572
18.04000 8.227
18.06000 -0.251
18.08000 -1.590
18.10000 5.958
18.12000 19.212
18.14000 12.838
18.16000 10.587
18.18000 1.809
18.20000 6.881
18.22000 4.215
18.24000 4.060
18.26000 2.477
18.28000 -1.753
18.30000 8.906
18.32000 4.569
18.34000 14.261
18.36000 8.081
18.38000 8.097
18.40000 11.337
18.42000 12.085
18.44000 14.635
18.46000 11.606
18.48000 7.700
18.50000 6.752
18.52000 5.661
18.54000 1.765
18.56000 6.077
18.58000 6.284
18.60000 8.063
18.62000 0.240
18.64000 -2.892
18.66000 4.718
18.68000 6.716
18.70000 10.147
18.72000 10.498
18.74000 12.816
18.76000 7.874
18.78000 10.281
18.80000 7.596
18.82000 1.596
18.84000 4.459
18.86000 3.260
18.88000 3.494
18.90000 13.055
18.92000 14.791
18.94000 11.131
18.96000 8.608
18.98000 5.770
19.00000 7.043
19.02000 10.200
19.04000 5.670
19.06000 0.718
19.08000 4.893
19.10000 4.393
19.12000 -0.345
19.14000 -4.268
19.16000 4.383
19.18000 6.277
19.20000 10.884
19.22000 20.944
19.24000 12.167
19.26000 5.469
19.28000 3.159
19.30000 11.729
19.32000 6.625
19.34000 5.770
19.36000 5.258
19.38000 4.782
19.40000 12.059
19.42000 13.130
19.44000 4.365
19.46000 3.608
19.48000 2.854
19.50000 7.325
19.52000 5.126
19.54000 6.677
19.56000 14.334
19.58000 14.791
19.60000 5.968
19.62000 5.053
19.64000 2.002
19.66000 4.914
19.68000 0.108
19.70000 1.579
19.72000 7.490
19.74000 6.077
19.76000 4.977
19.78000 8.474
19.80000 3.877
19.82000 0.418
19.84000 4.754
19.86000 3.300
19.88000 1.254
19.90000 10.241
19.92000 8.533
19.94000 0.996
19.96000 2.419
19.98000 1.519
20.00000 -0.389
20.02000 -0.432
20.04000 4.805
20.06000 6.007
20.08000 1.514
20.10000 5.052
20.12000 10.320
20.14000 1.834
20.16000 0.413
20.18000 4.605
20.20000 1.219
20.22000 7.918
20.24000 4.467
20.26000 7.363
20.28000 8.281
20.30000 13.092
20.32000 3.750
20.34000 2.291
20.36000 3.066
20.38000 -1.917
20.40000 6.062
20.42000 5.740
20.44000 11.012
20.46000 7.880
20.48000 7.329
20.50000 2.213
20.52000 7.774
20.54000 9.988
20.56000 5.459
20.58000 4.695
20.60000 1.811
20.62000 7.819
20.64000 4.693
20.66000 -1.914
20.68000 -3.495
20.70000 -4.208
20.72000 -0.168
20.74000 3.443
20.76000 6.985
20.78000 -0.048
20.80000 -0.424
20.82000 -3.328
20.84000 4.182
20.86000 2.332
20.88000 1.580
20.90000 3.722
20.92000 8.254
20.94000 10.401
20.96000 4.123
20.98000 4.352
21.00000 4.665
21.02000 6.225
21.04000 2.213
21.06000 -0.194
21.08000 1.065
21.10000 1.217
21.12000 6.413
21.14000 7.741
21.16000 2.588
21.18000 3.902
21.20000 1.772
21.22000 3.756
21.24000 2.840
21.26000 2.761
21.28000 8.908
21.30000 0.115
21.32000 -0.148
21.34000 5.603
21.36000 4.067
21.38000 -0.180
21.40000 -0.968
21.42000 7.737
21.44000 10.513
21.46000 4.358
21.48000 6.431
21.50000 4.957
21.52000 1.849
21.54000 5.896
21.56000 5.575
21.58000 3.120
21.60000 -1.117
21.62000 -1.761
21.64000 -0.822
21.66000 9.180
21.68000 14.806
21.70000 18.087
21.72000 16.810
21.74000 9.345
21.76000 -4.147
21.78000 0.126
21.80000 1.452
21.82000 4.898
21.84000 5.158
21.86000 2.105
21.88000 -1.100
21.90000 2.174
21.92000 2.552
21.94000 2.088
21.96000 4.067
21.98000 9.377
22.00000 7.133
22.02000 1.605
22.04000 -3.104
22.06000 -2.098
22.08000 5.852
22.10000 9.364
22.12000 1.941
22.14000 1.521
22.16000 -0.516
22.18000 5.501
22.20000 6.572
22.22000 4.420
22.24000 4.465
22.26000 2.342
22.28000 1.430
22.30000 3.109
22.32000 3.725
22.34000 4.522
22.36000 7.294
22.38000 6.272
22.40000 2.762
22.42000 -1.695
22.44000 -0.898
22.46000 -0.826
22.48000 1.823
22.50000 0.090
22.52000 1.201
22.54000 0.439
22.56000 5.272
22.58000 0.409
22.60000 1.338
22.62000 1.914
22.64000 1.612
22.66000 1.608
22.68000 -0.907
22.70000 1.917
22.72000 5.284
22.74000 7.424
22.76000 9.234
22.78000 13.289
22.80000 7.733
22.82000 -0.135
22.84000 0.718
22.86000 -1.121
22.88000 -0.878
22.90000 8.714
22.92000 6.128
22.94000 3.125
22.96000 4.514
22.98000 5.728
23.00000 3.599
23.02000 3.902
23.04000 4.805
23.06000 -2.229
23.08000 -1.238
23.10000 4.561
23.12000 7.034
23.14000 7.882
23.16000 5.077
23.18000 6.442
23.20000 5.055
23.22000 4.357
23.24000 3.924
23.26000 8.285
23.28000 1.399
23.30000 -3.019
23.32000 -4.063
23.34000 1.795
23.36000 0.398
23.38000 -1.889
23.40000 3.104
23.42000 5.022
23.44000 5.260
23.46000 1.194
23.48000 -0.590
23.50000 3.792
23.52000 3.866
23.54000 7.216
23.56000 2.614
23.58000 1.264
23.60000 1.997
23.62000 -0.581
23.64000 2.405
23.66000 -1.348
23.68000 4.522
23.70000 6.816
23.72000 4.192
23.74000 2.184
23.76000 9.264
23.78000 8.082
23.80000 5.311
23.82000 3.979
23.84000 -3.494
23.86000 -4.033
23.88000 -0.981
23.90000 0.008
23.92000 2.480
23.94000 4.908
23.96000 7.065
23.98000 6.163
24.00000 -0.720
24.02000 4.516
24.04000 6.122
24.06000 9.180
24.08000 1.012
24.10000 -0.160
24.12000 3.205
24.14000 3.756
24.16000 4.286
24.18000 1.492
24.20000 -1.571
24.22000 6.955
24.24000 3.648
24.26000 4.007
24.28000 -0.038
24.30000 3.561
24.32000 -0.150
24.34000 1.443
24.36000 2.970
24.38000 3.983
24.40000 9.628
24.42000 4.682
24.44000 4.018
24.46000 7.024
24.48000 0.883
24.50000 1.118
24.52000 7.193
24.54000 6.453
24.56000 6.044
24.58000 6.349
24.60000 9.479
24.62000 0.148
24.64000 0.424
24.66000 -1.921
24.68000 -3.978
24.70000 5.182
24.72000 6.291
24.74000 3.119
24.76000 1.199
24.78000 0.781
24.80000 4.361
24.82000 4.097
24.84000 5.782
24.86000 6.361
24.88000 0.090
24.90000 4.309
24.92000 9.161
24.94000 6.271
24.96000 3.912
24.98000 2.937
25.00000 0.471
25.02000 5.021
25.04000 9.661
25.06000 5.018
25.08000 1.064
25.10000 0.298
25.12000 2.217
25.14000 -3.968
25.16000 1.586
25.18000 2.488
25.20000 3.659
25.22000 5.195
25.24000 -0.592
25.26000 -1.326
25.28000 0.957
25.30000 2.640
25.32000 8.226
25.34000 7.455
25.36000 3.987
25.38000 3.463
25.40000 5.445
25.42000 1.943
25.44000 -0.674
25.46000 0.005
25.48000 -2.466
25.50000 -0.671
25.52000 2.171
25.54000 2.275
25.56000 4.649
25.58000 6.094
25.60000 6.440
25.62000 -1.254
25.64000 -1.313
25.66000 0.244
25.68000 3.102
25.70000 -2.862
25.72000 -1.976
25.74000 0.997
25.76000 2.165
25.78000 2.580
25.80000 -3.477
25.82000 -3.492
25.84000 -2.406
25.86000 -1.083
25.88000 -3.939
25.90000 -3.687
25.92000 2.022
25.94000 1.348
25.96000 3.298
25.98000 4.496
26.00000 3.702
26.02000 0.033
26.04000 -1.014
26.06000 -0.217
26.08000 -0.106
26.10000 -0.704
26.12000 1.866
26.14000 0.503
26.16000 3.123
26.18000 4.745
26.20000 4.269
26.22000 3.007
26.24000 -0.219
26.26000 4.522
26.28000 3.984
26.30000 0.475
26.32000 0.249
26.34000 5.404
26.36000 3.968
26.38000 4.255
26.40000 1.399
26.42000 -3.907
26.44000 -1.644
26.46000 1.928
26.48000 1.757
26.50000 2.124
26.52000 2.930
26.54000 0.783
26.56000 1.934
26.58000 0.794
26.60000 2.048
26.62000 0.663
26.64000 -0.645
26.66000 2.697
26.68000 -0.691
26.70000 2.336
26.72000 5.793
26.74000 2.577
26.76000 -2.638
26.78000 2.115
26.80000 3.845
26.82000 3.118
26.84000 -1.014
26.86000 3.244
26.88000 2.341
26.90000 -0.328
26.92000 1.788
26.94000 2.154
26.96000 2.384
26.98000 0.104
27.00000 -2.225
27.02000 0.138
27.04000 4.976
27.06000 5.009
27.08000 -3.665
27.10000 -3.047
27.12000 4.906
27.14000 1.255
27.16000 4.689
27.18000 4.185
27.20000 4.551
27.22000 8.964
27.24000 7.238
27.26000 5.630
27.28000 -1.047
27.30000 0.593
27.32000 3.646
27.34000 7.783
27.36000 4.056
27.38000 -3.837
27.40000 3.366
27.42000 4.559
27.44000 2.653
27.46000 0.408
27.48000 7.762
27.50000 5.852
27.52000 2.464
27.54000 3.190
27.56000 1.431
27.58000 0.495
27.60000 6.008
27.62000 3.638
27.64000 4.652
27.66000 3.189
27.68000 -0.718
27.70000 3.296
27.72000 3.196
27.74000 5.320
27.76000 5.250
27.78000 3.738
27.80000 6.615
27.82000 6.386
27.84000 0.457
27.86000 -2.543
27.88000 2.256
27.90000 9.784
27.92000 9.000
27.94000 6.199
27.96000 4.519
27.98000 0.496
28.00000 -0.237
28.02000 3.098
28.04000 2.815
28.06000 1.063
28.08000 3.963
28.10000 9.928
28.12000 5.556
28.14000 -1.023
28.16000 6.288
28.18000 5.789
28.20000 6.512
28.22000 4.330
28.24000 4.490
28.26000 0.032
28.28000 6.087
28.30000 3.569
28.32000 2.052
28.34000 5.504
28.36000 9.838
28.38000 6.998
28.40000 6.827
28.42000 5.727
28.44000 2.482
28.46000 2.564
28.48000 3.476
28.50000 5.530
28.52000 5.921
28.54000 9.333
28.56000 11.702
28.58000 5.120
28.60000 0.193
28.62000 -3.749
28.64000 -2.729
28.66000 4.581
28.68000 6.603
28.70000 5.336
28.72000 1.077
28.74000 0.689
28.76000 4.836
28.78000 11.019
28.80000 7.932
28.82000 4.537
28.84000 3.911
28.86000 7.592
28.88000 7.280
28.90000 -0.854
28.92000 2.285
28.94000 6.728
28.96000 9.686
28.98000 9.584
29.00000 1.893
29.02000 4.525
29.04000 8.480
29.06000 6.556
29.08000 1.968
29.10000 1.322
29.12000 0.653
29.14000 0.622
29.16000 3.002
29.18000 5.151
29.20000 0.687
29.22000 2.067
29.24000 1.928
29.26000 0.372
29.28000 1.798
29.30000 6.716
29.32000 3.437
29.34000 -0.680
29.36000 4.014
29.38000 5.530
29.40000 6.090
29.42000 4.889
29.44000 4.006
29.46000 3.371
29.48000 5.285
29.50000 5.784
29.52000 2.487
29.54000 0.296
29.56000 -0.089
29.58000 1.333
29.60000 6.477
29.62000 7.243
29.64000 2.673
29.66000 4.803
29.68000 2.955
29.70000 1.493
29.72000 -2.739
29.74000 -1.650
29.76000 1.921
29.78000 1.054
29.80000 -3.708
29.82000 -0.156
29.84000 4.090
29.86000 8.138
29.88000 8.294
29.90000 6.120
29.92000 8.358
29.94000 2.526
29.96000 2.646
29.98000 1.217
30.00000 4.592
30.02000 1.675
30.04000 4.675
30.06000 4.335
30.08000 3.754
30.10000 2.675
30.12000 2.991
30.14000 1.146
30.16000 -1.219
30.18000 -3.686
30.20000 0.224
30.22000 8.662
30.24000 8.339
30.26000 7.122
30.28000 8.953
30.30000 5.010
30.32000 4.778
30.34000 4.235
30.36000 2.024
30.38000 -0.210
30.40000 2.217
30.42000 4.372
30.44000 6.670
30.46000 2.540
30.48000 2.239
30.50000 1.334
30.52000 0.685
30.54000 -0.003
30.56000 4.793
30.58000 0.689
30.60000 7.553
30.62000 4.241
30.64000 -2.590
30.66000 -3.667
30.68000 1.480
30.70000 4.584
30.72000 8.118
30.74000 4.981
30.76000 3.936
30.78000 1.582
30.80000 2.109
30.82000 3.743
30.84000 0.185
30.86000 4.520
30.88000 6.399
30.90000 1.407
30.92000 0.276
30.94000 4.401
30.96000 5.479
30.98000 6.447
31.00000 1.682
31.02000 2.914
31.04000 1.044
31.06000 4.077
31.08000 7.073
31.10000 5.907
31.12000 -1.225
31.14000 -1.202
31.16000 3.765
31.18000 2.992
31.20000 -0.130
31.22000 -0.242
31.24000 5.354
31.26000 5.821
31.28000 6.077
31.30000 5.671
31.32000 10.478
31.34000 8.950
31.36000 8.034
31.38000 9.459
31.40000 2.328
31.42000 -0.836
31.44000 5.893
31.46000 5.986
31.48000 0.688
31.50000 -3.136
31.52000 0.483
31.54000 2.629
31.56000 2.011
31.58000 1.341
31.60000 -2.365
31.62000 3.548
31.64000 3.498
31.66000 4.870
31.68000 3.052
31.70000 0.651
31.72000 -1.622
31.74000 0.369
31.76000 -0.987
31.78000 2.307
31.80000 3.567
31.82000 4.394
31.84000 4.180
31.86000 3.589
31.88000 5.241
31.90000 7.970
31.92000 12.123
31.94000 8.163
31.96000 4.741
31.98000 2.362
32.00000 -1.713
32.02000 -2.400
32.04000 5.914
32.06000 4.373
32.08000 8.037
32.10000 5.423
32.12000 4.286
32.14000 4.371
32.16000 -2.218
32.18000 3.022
32.20000 4.067
32.22000 8.709
32.24000 3.719
32.26000 0.304
32.28000 -1.830
32.30000 -3.597
32.32000 2.754
32.34000 4.678
32.36000 1.181
32.38000 3.012
32.40000 9.616
32.42000 7.916
32.44000 3.276
32.46000 2.525
32.48000 5.070
32.50000 2.452
32.52000 2.200
32.54000 3.151
32.56000 1.409
32.58000 -0.504
32.60000 4.404
32.62000 6.400
32.64000 4.432
32.66000 3.158
32.68000 0.003
32.70000 0.153
32.72000 -0.895
32.74000 -2.200
32.76000 0.675
32.78000 -0.328
32.80000 -0.031
32.82000 -1.907
32.84000 -3.094
32.86000 -1.690
32.88000 -2.177
32.90000 3.385
32.92000 2.098
32.94000 0.645
32.96000 1.826
32.98000 1.935
33.00000 1.984
33.02000 -1.594
33.04000 -2.587
33.06000 -3.602
33.08000 -1.031
33.10000 0.445
33.12000 -0.262
33.14000 1.605
33.16000 1.253
33.18000 1.468
33.20000 0.344
33.22000 -0.549
33.24000 0.545
33.26000 0.642
33.28000 -1.573
33.30000 6.112
33.32000 7.388
33.34000 8.306
33.36000 3.690
33.38000 -0.237
33.40000 -0.548
33.42000 1.248
33.44000 4.594
33.46000 5.459
33.48000 7.640
33.50000 1.679
33.52000 0.240
33.54000 0.173
33.56000 4.592
33.58000 4.970
33.60000 -1.008
33.62000 2.282
33.64000 0.127
33.66000 0.820
33.68000 2.479
33.70000 2.270
33.72000 1.760
33.74000 3.805
33.76000 4.927
33.78000 0.972
33.80000 1.239
33.82000 1.222
33.84000 6.977
33.86000 7.652
33.88000 6.092
33.90000 4.015
33.92000 4.356
33.94000 2.162
33.96000 -0.716
33.98000 -0.867
34.00000 -0.953
34.02000 -3.104
34.04000 -2.862
34.06000 1.009
34.08000 -0.929
34.10000 -3.588
34.12000 -2.214
34.14000 -0.193
34.16000 0.046
34.18000 -3.160
34.20000 0.915
34.22000 5.269
34.24000 7.186
34.26000 2.434
34.28000 -1.247
34.30000 3.034
34.32000 -1.236
34.34000 2.843
34.36000 9.586
34.38000 6.633
34.40000 1.459
34.42000 4.086
34.44000 4.175
34.46000 2.846
34.48000 -0.940
34.50000 1.325
34.52000 3.757
34.54000 0.263
34.56000 -0.895
34.58000 1.234
34.60000 1.673
34.62000 -0.232
34.64000 5.708
34.66000 2.572
34.68000 -0.802
34.70000 -0.257
34.72000 0.951
34.74000 0.024
34.76000 -3.583
34.78000 -3.123
34.80000 0.128
34.82000 5.455
34.84000 1.836
34.86000 -0.563
34.88000 -0.825
34.90000 0.241
34.92000 2.127
34.94000 2.874
34.96000 1.196
34.98000 -2.956
35.00000 -2.200
35.02000 3.129
35.04000 -0.240
35.06000 -0.404
35.08000 -1.259
35.10000 -1.896
35.12000 -2.724
35.14000 -0.959
35.16000 3.492
35.18000 3.548
35.20000 -0.984
35.22000 -2.575
35.24000 -1.089
35.26000 4.498
35.28000 5.311
35.30000 1.910
35.32000 -1.527
35.34000 -1.281
35.36000 -1.228
35.38000 0.698
35.40000 4.062
35.42000 2.705
35.44000 -1.720
35.46000 -3.567
35.48000 -3.081
35.50000 1.236
35.52000 1.065
35.54000 2.838
35.56000 8.080
35.58000 0.011
35.60000 -2.809
35.62000 -0.972
35.64000 0.886
35.66000 0.372
35.68000 -3.146
35.70000 -2.447
35.72000 -1.286
35.74000 -3.224
35.76000 -0.909
35.78000 -2.263
35.80000 0.460
35.82000 -1.372
35.84000 -2.593
35.86000 -2.247
35.88000 -3.504
35.90000 -0.546
35.92000 2.453
35.94000 -1.263
35.96000 -0.562
35.98000 2.513
36.00000 4.289
36.02000 -2.467
36.04000 0.593
36.06000 -0.793
36.08000 -0.759
36.10000 2.002
36.12000 1.487
36.14000 -0.350
36.16000 -1.024
36.18000 -2.576
36.20000 -3.393
36.22000 0.688
36.24000 2.640
36.26000 2.160
36.28000 -3.102
36.30000 -0.135
36.32000 -0.976
36.34000 -0.487
36.36000 2.160
36.38000 3.849
36.40000 -0.581
36.42000 -0.961
36.44000 1.234
36.46000 -0.195
36.48000 -3.125
36.50000 -2.467
36.52000 1.333
36.54000 2.108
36.56000 1.561
36.58000 0.341
36.60000 3.801
36.62000 2.349
36.64000 1.135
36.66000 -0.692
36.68000 -1.280
36.70000 -2.328
36.72000 -0.602
36.74000 -3.214
36.76000 0.303
36.78000 -1.857
36.80000 -2.969
36.82000 1.388
36.84000 1.459
36.86000 1.631
36.88000 9.625
36.90000 5.748
36.92000 1.865
36.94000 4.149
36.96000 7.155
36.98000 4.558
37.00000 -2.907
37.02000 -2.409
37.04000 2.341
37.06000 1.644
37.08000 0.378
37.10000 3.530
37.12000 1.908
37.14000 2.275
37.16000 -0.643
37.18000 -3.556
37.20000 1.975
37.22000 0.912
37.24000 6.276
37.26000 0.779
37.28000 -2.986
37.30000 0.343
37.32000 -0.020
37.34000 -2.184
37.36000 2.621
37.38000 4.164
37.40000 4.782
37.42000 5.739
37.44000 4.035
37.46000 4.311
37.48000 3.231
37.50000 3.511
37.52000 3.214
37.54000 1.126
37.56000 1.134
37.58000 3.078
37.60000 3.566
37.62000 2.698
37.64000 7.452
37.66000 7.065
37.68000 2.995
37.70000 4.765
37.72000 5.435
37.74000 1.039
37.76000 -3.619
37.78000 -2.043
37.80000 2.481
37.82000 3.973
37.84000 8.381
37.86000 8.716
37.88000 6.147
37.90000 1.484
37.92000 6.295
37.94000 8.547
37.96000 8.133
37.98000 7.718
38.00000 6.893
38.02000 8.793
38.04000 8.479
38.06000 9.369
38.08000 10.204
38.10000 11.190
38.12000 12.714
38.14000 10.215
38.16000 11.521
38.18000 9.231
38.20000 7.385
38.22000 11.236
38.24000 13.712
38.26000 17.735
38.28000 15.283
38.30000 14.027
38.32000 16.246
38.34000 20.663
38.36000 17.613
38.38000 13.788
38.40000 14.988
38.42000 19.127
38.44000 20.758
38.46000 17.052
38.48000 18.590
38.50000 22.588
38.52000 23.175
38.54000 17.442
38.56000 14.250
38.58000 17.729
38.60000 18.193
38.62000 20.321
38.64000 21.923
38.66000 24.268
38.68000 23.471
38.70000 23.210
38.72000 22.032
38.74000 25.149
38.76000 27.319
38.78000 23.731
38.80000 26.222
38.82000 31.595
38.84000 33.653
38.86000 31.692
38.88000 34.052
38.90000 28.398
38.92000 30.582
38.94000 29.658
38.96000 38.858
38.98000 42.783
39.00000 39.533
39.02000 34.473
39.04000 36.402
39.06000 39.489
39.08000 43.764
39.10000 46.683
39.12000 49.746
39.14000 46.808
39.16000 50.045
39.18000 46.522
39.20000 52.770
39.22000 58.814
39.24000 59.998
39.26000 57.493
39.28000 58.330
39.30000 61.899
39.32000 66.709
39.34000 71.185
39.36000 70.355
39.38000 76.840
39.40000 82.853
39.42000 86.662
39.44000 83.440
39.46000 84.722
39.48000 88.249
39.50000 94.210
39.52000 99.690
39.54000 106.379
39.56000 111.325
39.58000 113.775
39.60000 121.672
39.62000 120.899
39.64000 123.904
39.66000 132.652
39.68000 143.382
39.70000 150.117
39.72000 159.825
39.74000 171.898
39.76000 174.950
39.78000 177.684
39.80000 190.434
39.82000 201.296
39.84000 209.398
39.86000 222.449
39.88000 230.408
39.90000 236.189
39.92000 249.527
39.94000 270.989
39.96000 283.418
39.98000 287.455
40.00000 304.325
40.02000 312.009
40.04000 330.939
40.06000 338.879
40.08000 358.785
40.10000 368.004
40.12000 380.669
40.14000 396.811
40.16000 411.166
40.18000 426.880
40.20000 437.595
40.22000 457.907
40.24000 467.256
40.26000 478.451
40.28000 493.579
40.30000 495.950
40.32000 510.604
40.34000 531.377
40.36000 545.286
40.38000 546.878
40.40000 550.118
40.42000 553.536
40.44000 570.491
40.46000 572.933
40.48000 574.619
40.50000 568.688
40.52000 564.097
40.54000 560.272
40.56000 551.316
40.58000 551.324
40.60000 549.745
40.62000 542.520
40.64000 538.862
40.66000 528.984
40.68000 506.900
40.70000 500.809
40.72000 487.125
40.74000 469.940
40.76000 467.650
40.78000 452.912
40.80000 434.442
40.82000 424.356
40.84000 404.825
40.86000 389.507
40.88000 367.182
40.90000 355.424
40.92000 343.406
40.94000 319.152
40.96000 308.213
40.98000 298.642
41.00000 281.403
41.02000 268.274
41.04000 262.087
41.06000 250.401
41.08000 236.071
41.10000 225.125
41.12000 212.481
41.14000 204.251
41.16000 195.068
41.18000 181.963
41.20000 173.961
41.22000 171.580
41.24000 162.415
41.26000 149.884
41.28000 136.808
41.30000 131.392
41.32000 123.669
41.34000 121.493
41.36000 112.539
41.38000 106.793
41.40000 104.181
41.42000 99.815
41.44000 86.234
41.46000 75.312
41.48000 81.945
41.50000 77.777
41.52000 74.356
41.54000 68.180
41.56000 66.557
41.58000 62.996
41.60000 59.646
41.62000 49.822
41.64000 49.495
41.66000 55.779
41.68000 51.792
41.70000 45.334
41.72000 44.130
41.74000 42.661
41.76000 39.002
41.78000 37.988
41.80000 35.612
41.82000 33.952
41.84000 34.818
41.86000 35.516
41.88000 35.332
41.90000 29.389
41.92000 24.806
41.94000 24.437
41.96000 26.133
41.98000 23.266
42.00000 24.562
42.02000 23.497
42.04000 20.908
42.06000 17.982
42.08000 14.728
42.10000 13.406
42.12000 18.386
42.14000 17.198
42.16000 13.575
42.18000 15.480
42.20000 15.969
42.22000 16.927
42.24000 17.745
42.26000 12.226
42.28000 4.575
42.30000 6.057
42.32000 6.890
42.34000 5.022
42.36000 11.521
42.38000 3.349
42.40000 4.468
42.42000 5.397
42.44000 3.272
42.46000 1.035
42.48000 0.577
42.50000 2.786
42.52000 5.476
42.54000 3.310
42.56000 5.442
42.58000 1.488
42.60000 3.660
42.62000 2.259
42.64000 -0.388
42.66000 2.789
42.68000 1.475
42.70000 1.433
42.72000 3.479
42.74000 0.757
42.76000 -1.997
42.78000 -0.002
42.80000 -1.050
42.82000 -0.889
42.84000 -1.237
42.86000 0.504
42.88000 3.405
42.90000 0.561
42.92000 1.054
42.94000 0.471
42.96000 -1.439
42.98000 -2.922
43.00000 1.487
43.02000 -0.988
43.04000 -1.482
43.06000 3.469
43.08000 3.320
43.10000 0.662
43.12000 4.586
43.14000 2.512
43.16000 -0.418
43.18000 -3.574
43.20000 -1.797
43.22000 -1.467
43.24000 -2.266
43.26000 -0.418
43.28000 2.034
43.30000 2.683
43.32000 2.720
43.34000 -2.785
43.36000 -3.053
43.38000 -1.675
43.40000 0.790
43.42000 -0.428
43.44000 1.050
43.46000 -1.703
43.48000 -2.257
43.50000 -1.886
43.52000 -2.380
43.54000 -3.185
43.56000 0.955
43.58000 2.871
43.60000 2.139
43.62000 -1.343
43.64000 -1.333
43.66000 1.495
43.68000 2.302
43.70000 1.107
43.72000 -1.689
43.74000 -0.617
43.76000 2.155
43.78000 0.055
43.80000 2.497
43.82000 0.549
43.84000 -2.108
43.86000 0.597
43.88000 1.729
43.90000 1.503
43.92000 1.031
43.94000 1.035
43.96000 -0.952
43.98000 -2.830
44.00000 -3.489
44.02000 -1.596
44.04000 -2.658
44.06000 -1.013
44.08000 0.926
44.10000 1.169
44.12000 -1.639
44.14000 -0.476
44.16000 1.772
44.18000 -0.058
44.20000 -3.290
44.22000 1.075
44.24000 4.781
44.26000 2.744
44.28000 -2.275
44.30000 -1.753
44.32000 2.900
44.34000 5.830
44.36000 7.378
44.38000 -0.723
44.40000 1.461
44.42000 1.093
44.44000 -0.683
44.46000 4.478
44.48000 -0.386
44.50000 -1.323
44.52000 -1.107
44.54000 0.851
44.56000 -2.631
44.58000 -1.048
44.60000 -1.630
44.62000 -2.321
44.64000 -3.489
44.66000 -2.956
44.68000 1.165
44.70000 1.442
44.72000 3.736
44.74000 3.091
44.76000 2.767
44.78000 3.539
44.80000 0.624
44.82000 2.930
44.84000 1.383
44.86000 0.852
44.88000 2.069
44.90000 5.463
44.92000 2.483
44.94000 2.189
44.96000 0.249
44.98000 2.360
45.00000 1.663
45.02000 1.610
45.04000 5.718
45.06000 9.238
45.08000 2.479
45.10000 1.897
45.12000 4.293
45.14000 5.358
45.16000 8.524
45.18000 5.252
45.20000 3.875
45.22000 4.693
45.24000 3.115
45.26000 6.035
45.28000 3.912
45.30000 5.144
45.32000 5.793
45.34000 5.272
45.36000 7.331
45.38000 7.444
45.40000 0.799
45.42000 6.173
45.44000 9.302
45.46000 6.845
45.48000 6.582
45.50000 4.212
45.52000 7.677
45.54000 9.543
45.56000 9.075
45.58000 8.209
45.60000 12.633
45.62000 14.125
45.64000 14.763
45.66000 18.925
45.68000 14.102
45.70000 6.893
45.72000 13.162
45.74000 18.420
45.76000 13.530
45.78000 18.163
45.80000 19.029
45.82000 20.077
45.84000 21.224
45.86000 19.772
45.88000 19.675
45.90000 22.839
45.92000 25.816
45.94000 29.357
45.96000 32.271
45.98000 25.203
46.00000 24.562
46.02000 25.020
46.04000 33.472
46.06000 31.583
46.08000 29.074
46.10000 36.953
46.12000 32.543
46.14000 32.753
46.16000 35.146
46.18000 35.441
46.20000 35.292
46.22000 33.950
46.24000 38.513
46.26000 40.129
46.28000 44.623
46.30000 42.818
46.32000 42.620
46.34000 44.105
46.36000 44.599
46.38000 45.295
46.40000 52.464
46.42000 48.340
46.44000 50.525
46.46000 51.059
46.48000 54.886
46.50000 48.506
46.52000 50.664
46.54000 51.501
46.56000 56.563
46.58000 60.716
46.60000 66.327
46.62000 60.836
46.64000 58.152
46.66000 61.503
46.68000 64.540
46.70000 67.989
46.72000 69.100
46.74000 66.941
46.76000 74.134
46.78000 68.251
46.80000 73.976
46.82000 77.199
46.84000 72.568
46.86000 66.747
46.88000 67.736
46.90000 72.090
46.92000 80.399
46.94000 83.100
46.96000 78.499
46.98000 70.844
47.00000 69.428
47.02000 75.017
47.04000 81.121
47.06000 78.578
47.08000 77.333
47.10000 75.570
47.12000 75.671
47.14000 76.897
47.16000 75.505
47.18000 74.426
47.20000 77.820
47.22000 74.126
47.24000 77.218
47.26000 71.793
47.28000 65.261
47.30000 71.672
47.32000 73.479
47.34000 73.193
47.36000 73.031
47.38000 73.871
47.40000 70.080
47.42000 63.979
47.44000 67.909
47.46000 68.469
47.48000 67.049
47.50000 63.566
47.52000 60.300
47.54000 56.779
47.56000 59.600
47.58000 58.936
47.60000 59.998
47.62000 59.972
47.64000 52.667
47.66000 47.998
47.68000 51.061
47.70000 49.359
47.72000 39.300
47.74000 45.081
47.76000 42.851
47.78000 33.965
47.80000 35.499
47.82000 33.635
47.84000 34.654
47.86000 33.897
47.88000 37.486
47.90000 36.390
47.92000 37.322
47.94000 30.470
47.96000 27.309
47.98000 27.549
48.00000 28.539
48.02000 23.305
48.04000 20.101
48.06000 21.517
48.08000 23.027
48.10000 25.618
48.12000 25.347
48.14000 21.407
48.16000 17.245
48.18000 15.633
48.20000 16.443
48.22000 22.173
48.24000 14.806
48.26000 16.913
48.28000 10.718
48.30000 6.952
48.32000 4.854
48.34000 12.424
48.36000 16.490
48.38000 12.536
48.40000 9.468
48.42000 7.798
48.44000 8.224
48.46000 6.108
48.48000 1.947
48.50000 4.524
48.52000 6.431
48.54000 3.731
48.56000 3.028
48.58000 3.628
48.60000 7.236
48.62000 12.309
48.64000 4.718
48.66000 4.491
48.68000 4.370
48.70000 4.188
48.72000 5.795
48.74000 7.997
48.76000 7.898
48.78000 4.935
48.80000 5.852
48.82000 3.572
48.84000 4.670
48.86000 9.722
48.88000 10.204
48.90000 3.417
48.92000 2.489
48.94000 1.937
48.96000 1.621
48.98000 2.529
49.00000 3.291
49.02000 4.415
49.04000 3.680
49.06000 0.983
49.08000 2.958
49.10000 1.973
49.12000 1.847
49.14000 7.806
49.16000 4.759
49.18000 8.310
49.20000 2.297
49.22000 -3.121
49.24000 0.570
49.26000 -1.263
49.28000 0.009
49.30000 1.885
49.32000 1.221
49.34000 0.309
49.36000 4.182
49.38000 1.369
49.40000 1.199
49.42000 -3.094
49.44000 -1.616
49.46000 2.081
49.48000 5.065
49.50000 8.119
49.52000 3.722
49.54000 1.496
49.56000 3.115
49.58000 5.228
49.60000 1.348
49.62000 3.535
49.64000 3.706
49.66000 7.683
49.68000 7.509
49.70000 4.982
49.72000 3.415
49.74000 4.383
49.76000 -2.122
49.78000 -1.941
49.80000 -0.617
49.82000 -3.057
49.84000 0.127
49.86000 0.323
49.88000 3.364
49.90000 2.659
49.92000 6.267
49.94000 5.339
49.96000 2.802
49.98000 5.848
50.00000 6.979
50.02000 5.651
50.04000 1.965
50.06000 1.989
50.08000 -0.560
50.10000 1.763
50.12000 2.913
50.14000 1.395
50.16000 2.904
50.18000 1.119
50.20000 5.577
50.22000 3.406
50.24000 2.504
50.26000 5.725
50.28000 7.166
50.30000 5.300
50.32000 5.499
50.34000 5.513
50.36000 -1.169
50.38000 3.224
50.40000 9.429
50.42000 7.223
50.44000 2.903
50.46000 0.690
50.48000 5.880
50.50000 5.570
50.52000 8.839
50.54000 4.135
50.56000 0.320
50.58000 -0.618
50.60000 2.393
50.62000 1.350
50.64000 -1.360
50.66000 -2.949
50.68000 -2.771
50.70000 0.124
50.72000 1.491
50.74000 -0.410
50.76000 0.263
50.78000 7.380
50.80000 8.348
50.82000 5.241
50.84000 2.813
50.86000 4.860
50.88000 1.711
50.90000 0.832
50.92000 3.709
50.94000 6.668
50.96000 5.886
50.98000 3.183
51.00000 2.769
51.02000 7.026
51.04000 2.993
51.06000 5.822
51.08000 5.462
51.10000 6.824
51.12000 11.886
51.14000 7.717
51.16000 0.546
51.18000 1.261
51.20000 3.551
51.22000 4.877
51.24000 6.270
51.26000 7.445
51.28000 5.586
51.30000 4.037
51.32000 5.825
51.34000 7.224
51.36000 6.814
51.38000 5.214
51.40000 5.788
51.42000 2.261
51.44000 0.974
51.46000 4.324
51.48000 4.245
51.50000 1.877
51.52000 3.508
51.54000 2.256
51.56000 0.485
51.58000 4.530
51.60000 0.210
51.62000 2.652
51.64000 1.906
51.66000 3.344
51.68000 4.601
51.70000 7.985
51.72000 7.296
51.74000 6.315
51.76000 3.768
51.78000 2.220
51.80000 4.466
51.82000 3.823
51.84000 4.697
51.86000 3.192
51.88000 -2.909
51.90000 4.511
51.92000 7.526
51.94000 3.510
51.96000 8.336
51.98000 7.981
52.00000 2.422
52.02000 5.733
52.04000 8.247
52.06000 6.024
52.08000 8.654
52.10000 11.327
52.12000 9.036
52.14000 5.556
52.16000 4.655
52.18000 5.185
52.20000 9.983
52.22000 11.092
52.24000 6.922
52.26000 4.418
52.28000 8.079
52.30000 4.329
52.32000 3.485
52.34000 4.114
52.36000 8.639
52.38000 8.855
52.40000 4.732
52.42000 5.218
52.44000 -1.173
52.46000 -2.894
52.48000 -0.085
52.50000 4.854
52.52000 9.869
52.54000 3.266
52.56000 5.537
52.58000 4.203
52.60000 2.628
52.62000 7.868
52.64000 3.887
52.66000 2.052
52.68000 4.481
52.70000 3.749
52.72000 4.831
52.74000 4.251
52.76000 1.457
52.78000 1.386
52.80000 2.324
52.82000 6.510
52.84000 3.421
52.86000 4.407
52.88000 7.225
52.90000 6.632
52.92000 0.811
52.94000 0.245
52.96000 4.949
52.98000 7.363
53.00000 4.550
53.02000 -1.391
53.04000 2.071
53.06000 2.188
53.08000 -0.577
53.10000 1.866
53.12000 1.347
53.14000 -0.554
53.16000 3.575
53.18000 2.279
53.20000 -0.806
53.22000 0.011
53.24000 3.031
53.26000 3.218
53.28000 0.739
53.30000 -2.187
53.32000 2.815
53.34000 -1.317
53.36000 -1.867
53.38000 2.070
53.40000 0.816
53.42000 7.310
53.44000 2.446
53.46000 -2.074
53.48000 1.205
53.50000 0.874
53.52000 0.594
53.54000 3.127
53.56000 4.195
53.58000 2.471
53.60000 3.808
53.62000 6.298
53.64000 5.501
53.66000 4.343
53.68000 -0.402
53.70000 6.040
53.72000 1.528
53.74000 -0.397
53.76000 0.981
53.78000 2.198
53.80000 -2.729
53.82000 -1.963
53.84000 5.483
53.86000 10.099
53.88000 9.349
53.90000 3.446
53.92000 -0.500
53.94000 2.399
53.96000 4.288
53.98000 -0.435
54.00000 -0.229
54.02000 0.716
54.04000 1.100
54.06000 3.629
54.08000 0.261
54.10000 4.210
54.12000 0.539
54.14000 1.134
54.16000 2.605
54.18000 3.084
54.20000 4.540
54.22000 -0.006
54.24000 4.340
54.26000 4.553
54.28000 4.533
54.30000 6.967
54.32000 7.125
54.34000 5.398
54.36000 1.257
54.38000 -0.568
54.40000 4.059
54.42000 8.207
54.44000 5.996
54.46000 7.695
54.48000 5.906
54.50000 6.280
54.52000 2.674
54.54000 3.287
54.56000 4.067
54.58000 3.458
54.60000 4.583
54.62000 2.926
54.64000 0.900
54.66000 3.100
54.68000 0.512
54.70000 -2.811
54.72000 1.702
54.74000 4.164
54.76000 4.700
54.78000 4.181
54.80000 6.186
54.82000 2.951
54.84000 5.921
54.86000 3.896
54.88000 6.981
54.90000 5.417
54.92000 6.920
54.94000 0.706
54.96000 2.961
54.98000 1.774
55.00000 -0.435
55.02000 1.943
55.04000 3.721
55.06000 8.782
55.08000 7.398
55.10000 5.856
55.12000 3.052
55.14000 1.876
55.16000 2.855
55.18000 6.103
55.20000 8.039
55.22000 4.932
55.24000 4.173
55.26000 5.713
55.28000 5.599
55.30000 3.973
55.32000 3.926
55.34000 -0.155
55.36000 6.099
55.38000 4.015
55.40000 5.117
55.42000 -0.241
55.44000 -0.120
55.46000 1.313
55.48000 -0.191
55.50000 -2.236
55.52000 -0.345
55.54000 0.019
55.56000 1.029
55.58000 0.867
55.60000 3.412
55.62000 7.342
55.64000 7.181
55.66000 8.227
55.68000 9.493
55.70000 5.533
55.72000 3.247
55.74000 -0.213
55.76000 -0.185
55.78000 1.262
55.80000 5.881
55.82000 4.609
55.84000 4.558
55.86000 3.052
55.88000 3.386
55.90000 2.454
55.92000 7.453
55.94000 2.467
55.96000 1.624
55.98000 1.294
56.00000 7.776
56.02000 6.586
56.04000 6.190
56.06000 7.336
56.08000 5.160
56.10000 1.740
56.12000 0.848
56.14000 1.893
56.16000 4.683
56.18000 8.736
56.20000 6.243
56.22000 9.852
56.24000 6.911
56.26000 2.238
56.28000 0.271
56.30000 4.352
56.32000 7.804
56.34000 3.959
56.36000 0.886
56.38000 4.476
56.40000 7.287
56.42000 6.393
56.44000 4.202
56.46000 5.839
56.48000 3.028
56.50000 2.537
56.52000 5.157
56.54000 5.455
56.56000 5.194
56.58000 4.579
56.60000 4.442
56.62000 2.606
56.64000 8.251
56.66000 7.320
56.68000 2.736
56.70000 0.145
56.72000 -0.902
56.74000 0.483
56.76000 4.995
56.78000 5.730
56.80000 4.175
56.82000 2.363
56.84000 -2.755
56.86000 -0.097
56.88000 0.788
56.90000 4.446
56.92000 2.562
56.94000 2.994
56.96000 1.899
56.98000 1.012
57.00000 -2.757
57.02000 1.260
57.04000 3.697
57.06000 -0.308
57.08000 0.395
57.10000 1.762
57.12000 4.623
57.14000 1.897
57.16000 -0.158
57.18000 -1.821
57.20000 2.204
57.22000 4.748
57.24000 3.121
57.26000 3.591
57.28000 2.094
57.30000 0.858
57.32000 3.913
57.34000 6.217
57.36000 2.453
57.38000 3.404
57.40000 3.085
57.42000 3.788
57.44000 3.682
57.46000 1.003
57.48000 2.635
57.50000 4.107
57.52000 0.888
57.54000 3.837
57.56000 5.383
57.58000 3.876
57.60000 2.202
57.62000 -1.237
57.64000 1.817
57.66000 2.404
57.68000 2.676
57.70000 2.520
57.72000 4.083
57.74000 5.324
57.76000 3.263
57.78000 1.822
57.80000 -2.746
57.82000 1.378
57.84000 4.085
57.86000 1.752
57.88000 0.672
57.90000 2.439
57.92000 2.215
57.94000 6.948
57.96000 8.104
57.98000 2.882
58.00000 2.222
58.02000 -0.059
58.04000 4.067
58.06000 5.819
58.08000 2.286
58.10000 -2.739
58.12000 -1.024
58.14000 2.994
58.16000 2.136
58.18000 1.097
58.20000 2.895
58.22000 2.034
58.24000 5.287
58.26000 1.968
58.28000 0.377
58.30000 0.737
58.32000 0.075
58.34000 7.958
58.36000 7.182
58.38000 -1.227
58.40000 -1.148
58.42000 -0.533
58.44000 -0.809
58.46000 -0.287
58.48000 0.234
58.50000 -0.037
58.52000 2.750
58.54000 0.864
58.56000 -1.051
58.58000 2.171
58.60000 1.858
58.62000 1.392
58.64000 1.832
58.66000 -1.821
58.68000 1.020
58.70000 7.464
58.72000 3.159
58.74000 4.053
58.76000 2.058
58.78000 -1.609
58.80000 -2.729
58.82000 -1.116
58.84000 0.035
58.86000 -0.031
58.88000 4.119
58.90000 2.744
58.92000 -0.160
58.94000 2.659
58.96000 2.715
58.98000 0.793
59.00000 1.475
59.02000 -0.961
59.04000 0.186
59.06000 -2.189
59.08000 -2.718
59.10000 -2.460
59.12000 -1.972
59.14000 -0.262
59.16000 -0.209
59.18000 -2.714
59.20000 -0.036
59.22000 0.308
59.24000 0.717
59.26000 -2.410
59.28000 4.817
59.30000 6.600
59.32000 1.461
59.34000 -1.341
59.36000 0.561
59.38000 4.865
59.40000 5.034
59.42000 2.779
59.44000 1.117
59.46000 0.873
59.48000 0.809
59.50000 -1.796
59.52000 -1.058
59.54000 0.512
59.56000 0.451
59.58000 2.414
59.60000 3.769
59.62000 6.707
59.64000 3.700
59.66000 1.657
59.68000 -1.397
59.70000 -1.254
59.72000 1.530
59.74000 0.491
59.76000 0.220
59.78000 1.428
59.80000 0.696
59.82000 -0.140
59.84000 3.114
59.86000 3.504
59.88000 4.191
59.90000 4.045
59.92000 -1.265
59.94000 -0.855
59.96000 4.754
59.98000 1.906
60.00000 1.505
60.02000 2.839
60.04000 3.120
60.06000 0.519
60.08000 0.020
60.10000 0.743
60.12000 6.436
60.14000 6.151
60.16000 1.707
60.18000 -0.987
60.20000 -2.668
60.22000 2.784
60.24000 3.179
60.26000 2.499
60.28000 1.821
60.30000 1.543
60.32000 2.924
60.34000 0.867
60.36000 -0.217
60.38000 0.446
60.40000 2.154
60.42000 3.661
60.44000 3.240
60.46000 4.422
60.48000 5.054
60.50000 0.066
60.52000 1.492
60.54000 3.158
60.56000 2.251
60.58000 0.279
60.60000 0.567
60.62000 1.069
60.64000 -0.207
60.66000 -2.030
60.68000 -2.045
60.70000 -2.482
60.72000 -2.661
60.74000 -0.298
60.76000 1.071
60.78000 2.392
60.80000 -0.981
60.82000 4.197
60.84000 5.294
60.86000 8.155
60.88000 8.562
60.90000 4.351
60.92000 2.919
60.94000 0.831
60.96000 2.883
60.98000 3.280
61.00000 5.397
61.02000 5.828
61.04000 2.756
61.06000 -0.795
61.08000 3.217
61.10000 4.381
61.12000 1.787
61.14000 0.749
61.16000 3.210
61.18000 0.544
61.20000 -0.171
61.22000 3.690
61.24000 -0.713
61.26000 -2.091
61.28000 -1.464
61.30000 3.069
61.32000 3.554
61.34000 1.063
61.36000 -2.446
61.38000 -1.649
61.40000 -0.858
61.42000 2.864
61.44000 6.029
61.46000 4.245
61.48000 4.274
61.50000 3.380
61.52000 -1.762
61.54000 -0.796
61.56000 -0.302
61.58000 -0.645
61.60000 0.394
61.62000 4.560
61.64000 3.502
61.66000 0.177
61.68000 -1.742
61.70000 -0.200
61.72000 1.588
61.74000 -1.127
61.76000 1.928
61.78000 5.573
61.80000 2.201
61.82000 -2.630
61.84000 0.869
61.86000 -2.144
61.88000 1.248
61.90000 3.432
61.92000 1.812
61.94000 2.342
61.96000 0.685
61.98000 -1.815
62.00000 0.231
62.02000 1.678
62.04000 4.297
62.06000 1.812
62.08000 0.117
62.10000 -0.084
62.12000 1.704
62.14000 3.901
62.16000 2.955
62.18000 3.285
62.20000 4.043
62.22000 0.467
62.24000 -1.515
62.26000 -1.151
62.28000 2.430
62.30000 4.500
62.32000 6.042
62.34000 3.076
62.36000 3.209
62.38000 1.666
62.40000 3.184
62.42000 5.155
62.44000 1.661
62.46000 2.703
62.48000 7.041
62.50000 5.032
62.52000 4.590
62.54000 4.201
62.56000 2.997
62.58000 3.024
62.60000 1.376
62.62000 -1.475
62.64000 -1.578
62.66000 3.363
62.68000 4.706
62.70000 -0.454
62.72000 -2.598
62.74000 -0.603
62.76000 -0.663
62.78000 0.672
62.80000 -0.270
62.82000 2.399
62.84000 2.032
62.86000 3.149
62.88000 3.654
62.90000 3.205
62.92000 -1.503
62.94000 1.363
62.96000 0.712
62.98000 5.415
63.00000 4.587
63.02000 3.789
63.04000 1.571
63.06000 0.065
63.08000 0.667
63.10000 1.874
63.12000 3.871
63.14000 4.112
63.16000 3.178
63.18000 2.662
63.20000 2.629
63.22000 1.375
63.24000 1.518
63.26000 3.314
63.28000 2.711
63.30000 -0.555
63.32000 2.940
63.34000 3.501
63.36000 -0.865
63.38000 1.339
63.40000 1.625
63.42000 0.511
63.44000 1.936
63.46000 2.396
63.48000 6.070
63.50000 3.158
63.52000 -2.597
63.54000 0.883
63.56000 1.475
63.58000 1.812
63.60000 2.683
63.62000 1.253
63.64000 1.841
63.66000 -1.360
63.68000 -1.664
63.70000 -0.895
63.72000 4.221
63.74000 2.947
63.76000 4.586
63.78000 7.894
63.80000 5.452
63.82000 1.982
63.84000 5.671
63.86000 3.144
63.88000 1.849
63.90000 8.102
63.92000 5.901
63.94000 2.252
63.96000 3.695
63.98000 5.718
64.00000 2.314
64.02000 -0.177
64.04000 4.265
64.06000 2.897
64.08000 0.541
64.10000 3.864
64.12000 6.722
64.14000 5.671
64.16000 5.344
64.18000 1.374
64.20000 3.407
64.22000 4.796
64.24000 2.362
64.26000 4.676
64.28000 3.796
64.30000 2.939
64.32000 0.386
64.34000 1.075
64.36000 -2.573
64.38000 -2.232
64.40000 1.690
64.42000 4.388
64.44000 3.988
64.46000 2.834
64.48000 3.272
64.50000 0.494
64.52000 2.185
64.54000 2.844
64.56000 1.393
64.58000 0.330
64.60000 5.825
64.62000 3.429
64.64000 5.266
64.66000 4.072
64.68000 5.458
64.70000 2.363
64.72000 1.651
64.74000 3.490
64.76000 5.090
64.78000 6.465
64.80000 9.060
64.82000 6.775
64.84000 3.458
64.86000 1.254
64.88000 -2.603
64.90000 0.339
64.92000 0.794
64.94000 0.922
64.96000 1.964
64.98000 2.138
65.00000 2.088
65.02000 1.839
65.04000 2.248
65.06000 -0.406
65.08000 2.063
65.10000 3.348
65.12000 2.653
65.14000 1.799
65.16000 2.030
65.18000 5.194
65.20000 2.901
65.22000 1.421
65.24000 2.275
65.26000 5.051
65.28000 5.166
65.30000 6.327
65.32000 1.166
65.34000 1.349
65.36000 1.011
65.38000 3.162
65.40000 3.512
65.42000 2.227
65.44000 1.438
65.46000 0.137
65.48000 3.937
65.50000 5.516
65.52000 2.178
65.54000 -0.551
65.56000 3.579
65.58000 3.637
65.60000 4.005
65.62000 3.319
65.64000 1.282
65.66000 5.110
65.68000 2.276
65.70000 1.150
65.72000 2.679
65.74000 2.141
65.76000 3.169
65.78000 1.743
65.80000 2.079
65.82000 3.454
65.84000 7.215
65.86000 6.378
65.88000 7.226
65.90000 6.476
65.92000 3.397
65.94000 1.955
65.96000 2.207
65.98000 7.959
66.00000 7.598
66.02000 3.735
66.04000 -2.040
66.06000 -2.610
66.08000 1.784
66.10000 0.690
66.12000 0.717
66.14000 0.015
66.16000 2.192
66.18000 -1.454
66.20000 -1.042
66.22000 0.680
66.24000 1.398
66.26000 2.914
66.28000 2.708
66.30000 2.119
66.32000 4.290
66.34000 2.919
66.36000 0.975
66.38000 1.597
66.40000 0.972
66.42000 4.792
66.44000 3.160
66.46000 0.057
66.48000 -1.517
66.50000 -0.703
66.52000 2.652
66.54000 0.597
66.56000 3.316
66.58000 2.643
66.60000 0.969
66.62000 1.445
66.64000 -2.674
66.66000 0.923
66.68000 3.319
66.70000 4.898
66.72000 3.218
66.74000 2.486
66.76000 1.734
66.78000 4.864
66.80000 2.807
66.82000 2.679
66.84000 2.955
66.86000 2.851
66.88000 3.192
66.90000 2.297
66.92000 1.948
66.94000 -1.744
66.96000 -1.070
66.98000 3.503
67.00000 0.660
67.02000 -1.712
67.04000 2.099
67.06000 3.469
67.08000 0.958
67.10000 1.928
67.12000 -1.868
67.14000 -0.457
67.16000 -1.711
67.18000 1.864
67.20000 3.543
67.22000 0.714
67.24000 0.520
67.26000 1.548
67.28000 3.715
67.30000 6.667
67.32000 -0.690
67.34000 -1.778
67.36000 3.880
67.38000 -1.106
67.40000 1.327
67.42000 3.592
67.44000 2.665
67.46000 3.591
67.48000 7.270
67.50000 6.121
67.52000 3.053
67.54000 1.382
67.56000 -1.392
67.58000 4.093
67.60000 6.122
67.62000 5.881
67.64000 4.095
67.66000 4.327
67.68000 6.224
67.70000 10.239
67.72000 10.231
67.74000 10.545
67.76000 8.385
67.78000 10.004
67.80000 12.005
67.82000 10.895
67.84000 10.315
67.86000 10.598
67.88000 6.273
67.90000 11.069
67.92000 9.717
67.94000 8.226
67.96000 9.438
67.98000 11.028
68.00000 9.740
68.02000 11.185
68.04000 13.444
68.06000 9.379
68.08000 11.193
68.10000 12.272
68.12000 13.544
68.14000 16.366
68.16000 19.247
68.18000 17.432
68.20000 15.098
68.22000 14.384
68.24000 15.585
68.26000 14.412
68.28000 18.720
68.30000 18.701
68.32000 17.750
68.34000 15.394
68.36000 18.321
68.38000 17.678
68.40000 19.692
68.42000 20.404
68.44000 20.259
68.46000 16.665
68.48000 21.014
68.50000 23.899
68.52000 21.838
68.54000 21.420
68.56000 22.956
68.58000 26.650
68.60000 26.236
68.62000 21.293
68.64000 23.711
68.66000 24.231
68.68000 23.349
68.70000 21.230
68.72000 23.615
68.74000 24.079
68.76000 21.705
68.78000 21.829
68.80000 26.637
68.82000 24.478
68.84000 24.403
68.86000 21.593
68.88000 23.357
68.90000 27.224
68.92000 24.312
68.94000 28.008
68.96000 25.292
68.98000 23.103
69.00000 19.784
69.02000 17.292
69.04000 22.828
69.06000 26.468
69.08000 25.389
69.10000 27.966
69.12000 24.917
69.14000 21.307
69.16000 18.820
69.18000 16.932
69.20000 18.446
69.22000 16.523
69.24000 12.456
69.26000 17.967
69.28000 18.686
69.30000 12.516
69.32000 11.923
69.34000 10.028
69.36000 8.066
69.38000 8.736
69.40000 14.065
69.42000 14.122
69.44000 14.692
69.46000 13.311
69.48000 10.449
69.50000 9.718
69.52000 5.431
69.54000 9.199
69.56000 13.489
69.58000 11.342
69.60000 10.605
69.62000 12.101
69.64000 12.122
69.66000 6.249
69.68000 7.491
69.70000 8.490
69.72000 6.187
69.74000 6.165
69.76000 1.335
69.78000 5.114
69.80000 9.773
69.82000 9.749
69.84000 1.321
69.86000 -2.118
69.88000 1.071
69.90000 8.833
69.92000 4.999
69.94000 3.467
69.96000 3.183
69.98000 -0.520
70.00000 -1.586
70.02000 2.068
70.04000 2.967
70.06000 3.727
70.08000 3.886
70.10000 3.255
70.12000 5.695
70.14000 2.325
70.16000 4.225
70.18000 4.151
70.20000 3.324
70.22000 0.447
70.24000 0.510
70.26000 0.657
70.28000 -1.034
70.30000 2.077
70.32000 -0.484
70.34000 0.115
70.36000 -2.614
70.38000 3.905
70.40000 6.134
70.42000 2.522
70.44000 0.421
70.46000 1.926
70.48000 5.234
70.50000 2.979
70.52000 3.508
70.54000 1.320
70.56000 2.789
70.58000 4.097
70.60000 -0.807
70.62000 -0.497
70.64000 0.745
70.66000 0.150
70.68000 0.657
70.70000 3.433
70.72000 9.156
70.74000 3.990
70.76000 -0.734
70.78000 2.181
70.80000 4.397
70.82000 5.525
70.84000 2.495
70.86000 0.630
70.88000 5.611
70.90000 5.539
70.92000 6.329
70.94000 8.557
70.96000 4.602
70.98000 1.048
71.00000 3.435
71.02000 4.032
71.04000 1.155
71.06000 0.762
71.08000 0.960
71.10000 0.228
71.12000 1.190
71.14000 1.828
71.16000 0.320
71.18000 0.247
71.20000 1.917
71.22000 5.845
71.24000 3.517
71.26000 0.329
71.28000 -2.504
71.30000 3.282
71.32000 6.637
71.34000 4.312
71.36000 4.122
71.38000 3.512
71.40000 6.405
71.42000 1.602
71.44000 1.645
71.46000 4.280
71.48000 3.351
71.50000 2.663
71.52000 2.524
71.54000 1.105
71.56000 6.833
71.58000 4.009
71.60000 3.239
71.62000 5.399
71.64000 3.607
71.66000 -0.653
71.68000 2.470
71.70000 5.716
71.72000 2.690
71.74000 0.520
71.76000 -1.001
71.78000 -2.479
71.80000 -0.631
71.82000 0.232
71.84000 -0.064
71.86000 0.968
71.88000 4.267
71.90000 4.756
71.92000 3.093
71.94000 4.947
71.96000 -0.858
71.98000 -2.032
72.00000 0.191
72.02000 -0.764
72.04000 0.116
72.06000 3.444
72.08000 6.212
72.10000 6.994
72.12000 0.323
72.14000 3.062
72.16000 2.241
72.18000 1.464
72.20000 0.275
72.22000 2.587
72.24000 1.757
72.26000 0.195
72.28000 1.205
72.30000 0.061
72.32000 2.811
72.34000 2.309
72.36000 -0.769
72.38000 -0.469
72.40000 1.491
72.42000 1.779
72.44000 5.766
72.46000 1.858
72.48000 4.903
72.50000 4.413
72.52000 1.753
72.54000 2.445
72.56000 7.688
72.58000 5.107
72.60000 -1.741
72.62000 0.236
72.64000 1.731
72.66000 1.742
72.68000 1.257
72.70000 -1.925
72.72000 -2.437
72.74000 1.926
72.76000 4.244
72.78000 3.053
72.80000 2.469
72.82000 5.371
72.84000 4.451
72.86000 1.793
72.88000 1.205
72.90000 0.629
72.92000 2.870
72.94000 2.973
72.96000 6.337
72.98000 4.788
73.00000 6.048
73.02000 3.794
73.04000 0.813
73.06000 -1.670
73.08000 0.333
73.10000 3.994
73.12000 -1.129
73.14000 0.645
73.16000 2.584
73.18000 0.167
73.20000 -1.194
73.22000 -2.418
73.24000 0.813
73.26000 3.407
73.28000 3.541
73.30000 -0.155
73.32000 2.288
73.34000 2.668
73.36000 -2.069
73.38000 1.530
73.40000 1.686
73.42000 -1.019
73.44000 0.927
73.46000 0.440
73.48000 -0.524
73.50000 1.418
73.52000 0.256
73.54000 4.529
73.56000 2.782
73.58000 2.266
73.60000 2.516
73.62000 1.542
73.64000 2.337
73.66000 2.128
73.68000 4.104
73.70000 6.527
73.72000 2.657
73.74000 -0.195
73.76000 -0.351
73.78000 4.110
73.80000 4.543
73.82000 5.649
73.84000 7.876
73.86000 6.065
73.88000 2.103
73.90000 4.791
73.92000 4.433
73.94000 7.310
73.96000 6.818
73.98000 7.418
74.00000 4.205
74.02000 -2.388
74.04000 -1.823
74.06000 0.476
74.08000 1.962
74.10000 4.414
74.12000 5.558
74.14000 1.299
74.16000 0.890
74.18000 2.090
74.20000 2.831
74.22000 1.780
74.24000 -0.937
74.26000 1.558
74.28000 5.832
74.30000 7.990
74.32000 10.307
74.34000 4.759
74.36000 -0.976
74.38000 2.943
74.40000 5.390
74.42000 -0.130
74.44000 0.758
74.46000 3.063
74.48000 0.550
74.50000 -0.764
74.52000 0.944
74.54000 -2.390
74.56000 0.998
74.58000 0.817
74.60000 2.289
74.62000 1.874
74.64000 2.440
74.66000 2.264
74.68000 3.800
74.70000 6.524
74.72000 9.313
74.74000 8.856
74.76000 6.328
74.78000 6.180
74.80000 1.179
74.82000 0.272
74.84000 4.827
74.86000 3.305
74.88000 0.722
74.90000 0.083
74.92000 2.694
74.94000 0.253
74.96000 2.836
74.98000 2.230
75.00000 2.314
75.02000 1.721
75.04000 3.502
75.06000 4.463
75.08000 2.142
75.10000 4.823
75.12000 5.351
75.14000 1.424
75.16000 1.570
75.18000 5.003
75.20000 1.607
75.22000 2.287
75.24000 4.862
75.26000 3.587
75.28000 0.050
75.30000 1.819
75.32000 4.821
75.34000 4.566
75.36000 3.075
75.38000 2.169
75.40000 2.230
75.42000 1.238
75.44000 2.295
75.46000 -0.394
75.48000 1.446
75.50000 6.536
75.52000 5.081
75.54000 6.808
75.56000 -0.495
75.58000 2.170
75.60000 0.094
75.62000 2.324
75.64000 -2.383
75.66000 -0.150
75.68000 7.351
75.70000 6.560
75.72000 2.607
75.74000 5.213
75.76000 6.537
75.78000 3.229
75.80000 2.477
75.82000 4.289
75.84000 5.031
75.86000 4.276
75.88000 3.705
75.90000 3.921
75.92000 4.376
75.94000 2.547
75.96000 1.593
75.98000 -2.403
76.00000 -1.112
76.02000 0.456
76.04000 0.990
76.06000 3.720
76.08000 6.938
76.10000 1.995
76.12000 4.153
76.14000 11.033
76.16000 7.422
76.18000 3.358
76.20000 0.847
76.22000 3.072
76.24000 1.509
76.26000 2.058
76.28000 4.702
76.30000 0.523
76.32000 0.482
76.34000 1.592
76.36000 -0.953
76.38000 -0.802
76.40000 2.366
76.42000 0.625
76.44000 -0.684
76.46000 7.899
76.48000 6.778
76.50000 3.843
76.52000 2.275
76.54000 2.386
76.56000 1.032
76.58000 2.956
76.60000 3.461
76.62000 5.317
76.64000 0.020
76.66000 1.059
76.68000 1.949
76.70000 4.099
76.72000 5.226
76.74000 2.358
76.76000 3.180
76.78000 1.346
76.80000 3.785
76.82000 4.648
76.84000 5.100
76.86000 -0.136
76.88000 3.525
76.90000 1.466
76.92000 -1.334
76.94000 1.072
76.96000 2.256
76.98000 3.909
77.00000 3.297
77.02000 1.506
77.04000 1.180
77.06000 4.771
77.08000 3.403
77.10000 3.083
77.12000 2.718
77.14000 0.298
77.16000 4.362
77.18000 3.489
77.20000 1.313
77.22000 0.523
77.24000 2.252
77.26000 1.856
77.28000 -0.200
77.30000 2.538
77.32000 7.925
77.34000 3.954
77.36000 4.866
77.38000 0.238
77.40000 0.757
77.42000 -1.824
77.44000 -1.371
77.46000 1.062
77.48000 -0.151
77.50000 4.963
77.52000 0.934
77.54000 -1.133
77.56000 -2.115
77.58000 5.718
77.60000 2.587
77.62000 1.875
77.64000 4.917
77.66000 4.234
77.68000 0.612
77.70000 3.175
77.72000 1.159
77.74000 3.993
77.76000 1.764
77.78000 3.637
77.80000 1.272
77.82000 4.778
77.84000 4.872
77.86000 2.122
77.88000 2.071
77.90000 3.065
77.92000 5.156
77.94000 3.569
77.96000 -2.421
77.98000 1.761
78.00000 10.531
78.02000 8.500
78.04000 4.369
78.06000 4.026
78.08000 3.929
78.10000 3.344
78.12000 2.947
78.14000 2.387
78.16000 3.253
78.18000 2.498
78.20000 0.975
78.22000 -1.093
78.24000 -0.685
78.26000 1.221
78.28000 6.000
78.30000 8.852
78.32000 3.077
78.34000 -0.127
78.36000 4.239
78.38000 4.610
78.40000 5.567
78.42000 3.745
78.44000 4.495
78.46000 2.157
78.48000 0.500
78.50000 1.023
78.52000 3.953
78.54000 2.868
78.56000 2.426
78.58000 0.453
78.60000 1.929
78.62000 -0.021
78.64000 2.362
78.66000 2.755
78.68000 6.874
78.70000 4.368
78.72000 3.743
78.74000 8.447
78.76000 8.436
78.78000 5.774
78.80000 3.673
78.82000 2.234
78.84000 0.606
78.86000 2.922
78.88000 2.729
78.90000 4.127
78.92000 4.225
78.94000 5.843
78.96000 5.744
78.98000 6.942
79.00000 5.944
79.02000 3.217
79.04000 0.309
79.06000 0.684
79.08000 -2.436
79.10000 1.368
79.12000 0.578
79.14000 2.207
79.16000 2.006
79.18000 5.263
79.20000 5.027
79.22000 6.974
79.24000 8.535
79.26000 7.667
79.28000 6.482
79.30000 3.407
79.32000 9.500
79.34000 11.588
79.36000 5.442
79.38000 6.170
79.40000 4.230
79.42000 4.445
79.44000 5.513
79.46000 7.302
79.48000 1.884
79.50000 1.114
79.52000 5.721
79.54000 2.618
79.56000 2.518
79.58000 6.242
79.60000 6.311
79.62000 6.944
79.64000 3.871
79.66000 3.224
79.68000 4.223
79.70000 4.788
79.72000 5.158
79.74000 2.820
79.76000 -0.135
79.78000 -0.658
79.80000 2.309
79.82000 7.920
79.84000 8.193
79.86000 7.368
79.88000 -0.610
79.90000 0.154
79.92000 2.472
79.94000 3.103
79.96000 -0.325
79.98000 1.067
80.00000 0.479
80.02000 5.275
80.04000 3.472
80.06000 1.537
80.08000 -2.461
80.10000 4.643
80.12000 5.023
80.14000 7.083
80.16000 4.288
80.18000 4.675
80.20000 9.226
80.22000 9.452
80.24000 6.906
80.26000 11.951
80.28000 7.573
80.30000 8.116
80.32000 7.419
80.34000 8.608
80.36000 7.608
80.38000 7.822
80.40000 8.748
80.42000 6.476
80.44000 4.043
80.46000 4.190
80.48000 2.844
80.50000 2.432
80.52000 2.315
80.54000 8.125
80.56000 5.845
80.58000 5.223
80.60000 4.493
80.62000 2.253
80.64000 7.256
80.66000 3.547
80.68000 2.980
80.70000 9.409
80.72000 4.378
80.74000 0.246
80.76000 -2.520
80.78000 6.004
80.80000 4.975
80.82000 5.164
80.84000 5.371
80.86000 9.376
80.88000 12.039
80.90000 5.655
80.92000 3.374
80.94000 5.285
80.96000 2.962
80.98000 1.347
81.00000 4.879
81.02000 7.743
81.04000 4.674
81.06000 12.606
81.08000 15.334
81.10000 8.999
81.12000 5.367
81.14000 5.263
81.16000 6.216
81.18000 5.065
81.20000 4.370
81.22000 0.742
81.24000 2.110
81.26000 1.940
81.28000 -0.029
81.30000 4.395
81.32000 6.161
81.34000 2.671
81.36000 1.406
81.38000 7.571
81.40000 8.344
81.42000 7.104
81.44000 4.479
81.46000 3.212
81.48000 10.866
81.50000 8.352
81.52000 4.430
81.54000 6.864
81.56000 8.443
81.58000 5.321
81.60000 9.013
81.62000 14.329
81.64000 7.458
81.66000 6.279
81.68000 7.418
81.70000 11.250
81.72000 9.072
81.74000 7.364
81.76000 12.900
81.78000 8.916
81.80000 9.076
81.82000 6.233
81.84000 7.373
81.86000 14.311
81.88000 12.082
81.90000 8.496
81.92000 1.494
81.94000 5.090
81.96000 10.044
81.98000 7.745
82.00000 13.082
82.02000 14.854
82.04000 11.404
82.06000 11.001
82.08000 12.937
82.10000 13.343
82.12000 11.275
82.14000 13.828
82.16000 13.197
82.18000 13.689
82.20000 18.425
82.22000 20.781
82.24000 23.291
82.26000 16.411
82.28000 17.002
82.30000 13.934
82.32000 14.799
82.34000 14.568
82.36000 19.406
82.38000 17.965
82.40000 17.569
82.42000 18.360
82.44000 23.947
82.46000 26.637
82.48000 19.116
82.50000 21.787
82.52000 19.815
82.54000 16.919
82.56000 21.207
82.58000 22.648
82.60000 22.874
82.62000 21.781
82.64000 18.441
82.66000 20.200
82.68000 21.959
82.70000 27.178
82.72000 24.073
82.74000 20.044
82.76000 17.896
82.78000 17.600
82.80000 23.525
82.82000 27.240
82.84000 23.708
82.86000 20.998
82.88000 18.224
82.90000 24.761
82.92000 22.573
82.94000 26.577
82.96000 30.530
82.98000 26.887
83.00000 25.607
83.02000 23.525
83.04000 27.048
83.06000 28.966
83.08000 26.774
83.10000 21.735
83.12000 19.914
83.14000 23.127
83.16000 21.007
83.18000 17.489
83.20000 21.718
83.22000 23.497
83.24000 23.890
83.26000 21.539
83.28000 26.379
83.30000 25.794
83.32000 22.842
83.34000 25.839
83.36000 22.425
83.38000 17.916
83.40000 20.710
83.42000 19.568
83.44000 18.955
83.46000 19.303
83.48000 27.504
83.50000 23.119
83.52000 20.150
83.54000 17.674
83.56000 23.299
83.58000 21.876
83.60000 18.774
83.62000 13.246
83.64000 17.927
83.66000 20.119
83.68000 22.787
83.70000 13.399
83.72000 9.847
83.74000 10.925
83.76000 13.558
83.78000 13.492
83.80000 12.657
83.82000 16.837
83.84000 18.663
83.86000 20.991
83.88000 15.871
83.90000 13.469
83.92000 8.324
83.94000 3.746
83.96000 11.050
83.98000 13.616
84.00000 16.128
84.02000 11.846
84.04000 15.386
84.06000 14.791
84.08000 11.569
84.10000 7.745
84.12000 16.352
84.14000 10.860
84.16000 8.581
84.18000 11.447
84.20000 11.620
84.22000 11.837
84.24000 5.600
84.26000 12.096
84.28000 6.023
84.30000 1.394
84.32000 4.034
84.34000 6.036
84.36000 5.547
84.38000 7.379
84.40000 10.225
84.42000 11.080
84.44000 8.121
84.46000 5.209
84.48000 0.844
84.50000 3.819
84.52000 4.720
84.54000 4.698
84.56000 8.467
84.58000 5.689
84.60000 4.676
84.62000 2.507
84.64000 0.003
84.66000 -0.545
84.68000 -2.581
84.70000 1.111
84.72000 2.327
84.74000 1.512
84.76000 0.770
84.78000 0.539
84.80000 -2.109
84.82000 -0.068
84.84000 -1.326
84.86000 0.339
84.88000 3.456
84.90000 4.198
84.92000 6.678
84.94000 0.146
84.96000 8.873
84.98000 6.270
85.00000 0.539
85.02000 4.939
85.04000 3.173
85.06000 -1.258
85.08000 1.776
85.10000 -0.093
85.12000 4.611
85.14000 5.732
85.16000 6.658
85.18000 6.098
85.20000 -1.101
85.22000 0.871
85.24000 0.118
85.26000 3.428
85.28000 -0.582
85.30000 -2.507
85.32000 1.204
85.34000 2.892
85.36000 1.898
85.38000 1.648
85.40000 3.330
85.42000 0.740
85.44000 -2.144
85.46000 6.508
85.48000 5.455
85.50000 2.595
85.52000 2.335
85.54000 3.414
85.56000 -0.426
85.58000 -0.483
85.60000 2.156
85.62000 9.467
85.64000 9.632
85.66000 0.819
85.68000 -1.760
85.70000 -0.336
85.72000 5.264
85.74000 3.962
85.76000 -0.209
85.78000 2.678
85.80000 6.371
85.82000 3.692
85.84000 2.056
85.86000 2.305
85.88000 -1.137
85.90000 -2.494
85.92000 -0.790
85.94000 -2.495
85.96000 -2.495
85.98000 -1.746
86.00000 2.002
86.02000 5.311
86.04000 7.904
86.06000 2.969
86.08000 0.333
86.10000 3.449
86.12000 4.136
86.14000 4.406
86.16000 3.593
86.18000 1.030
86.20000 -0.351
86.22000 3.615
86.24000 4.196
86.26000 5.993
86.28000 1.006
86.30000 4.328
86.32000 5.641
86.34000 2.181
86.36000 8.061
86.38000 6.695
86.40000 4.122
86.42000 1.517
86.44000 3.456
86.46000 4.771
86.48000 7.108
86.50000 9.809
86.52000 9.624
86.54000 5.608
86.56000 4.235
86.58000 0.893
86.60000 7.610
86.62000 11.788
86.64000 14.586
86.66000 12.605
86.68000 3.663
86.70000 8.815
86.72000 8.919
86.74000 5.728
86.76000 4.764
86.78000 6.223
86.80000 6.836
86.82000 10.655
86.84000 12.643
86.86000 8.263
86.88000 7.453
86.90000 10.411
86.92000 10.404
86.94000 12.427
86.96000 14.610
86.98000 10.894
87.00000 15.298
87.02000 10.682
87.04000 9.744
87.06000 14.706
87.08000 11.635
87.10000 12.614
87.12000 17.386
87.14000 16.185
87.16000 14.375
87.18000 16.548
87.20000 12.820
87.22000 10.482
87.24000 10.460
87.26000 16.741
87.28000 13.062
87.30000 13.221
87.32000 12.602
87.34000 13.982
87.36000 19.626
87.38000 22.950
87.40000 20.149
87.42000 18.759
87.44000 16.588
87.46000 23.605
87.48000 23.886
87.50000 22.556
87.52000 15.885
87.54000 17.564
87.56000 25.218
87.58000 23.118
87.60000 22.962
87.62000 22.905
87.64000 20.914
87.66000 17.321
87.68000 18.918
87.70000 13.882
87.72000 16.737
87.74000 21.125
87.76000 20.450
87.78000 18.960
87.80000 18.839
87.82000 17.855
87.84000 19.164
87.86000 16.202
87.88000 18.069
87.90000 15.088
87.92000 14.158
87.94000 13.922
87.96000 13.756
87.98000 13.076
88.00000 15.074
88.02000 12.888
88.04000 10.533
88.06000 13.506
88.08000 7.891
88.10000 7.102
88.12000 6.280
88.14000 9.122
88.16000 12.021
88.18000 12.091
88.20000 12.660
88.22000 8.418
88.24000 7.674
88.26000 11.815
88.28000 9.830
88.30000 9.836
88.32000 9.552
88.34000 7.655
88.36000 11.876
88.38000 7.292
88.40000 12.346
88.42000 14.174
88.44000 7.816
88.46000 6.179
88.48000 5.289
88.50000 3.592
88.52000 6.264
88.54000 8.409
88.56000 6.201
88.58000 7.527
88.60000 9.872
88.62000 4.701
88.64000 2.041
88.66000 10.318
88.68000 12.903
88.70000 10.461
88.72000 0.932
88.74000 1.693
88.76000 -1.395
88.78000 0.541
88.80000 5.590
88.82000 6.865
88.84000 5.419
88.86000 4.480
88.88000 7.342
88.90000 2.372
88.92000 1.343
88.94000 -1.401
88.96000 -0.176
88.98000 2.190
89.00000 2.315
89.02000 6.441
89.04000 4.639
89.06000 -1.047
89.08000 -0.765
89.10000 1.375
89.12000 2.821
89.14000 2.867
89.16000 1.391
89.18000 1.038
89.20000 -0.410
89.22000 5.696
89.24000 7.304
89.26000 7.611
89.28000 3.809
89.30000 1.739
89.32000 6.104
89.34000 6.054
89.36000 1.069
89.38000 0.738
89.40000 -1.633
89.42000 2.446
89.44000 4.719
89.46000 3.041
89.48000 3.886
89.50000 7.351
89.52000 1.922
89.54000 -2.348
89.56000 0.588
89.58000 2.445
89.60000 2.449
89.62000 1.840
89.64000 5.845
89.66000 3.862
89.68000 3.811
89.70000 6.897
89.72000 6.740
89.74000 2.293
89.76000 4.209
89.78000 5.678
89.80000 2.853
89.82000 0.180
89.84000 6.867
89.86000 3.184
89.88000 5.633
89.90000 -0.109
89.92000 -2.311
89.94000 -0.707
89.96000 2.219
89.98000 0.852
90.00000 1.413
90.02000 4.331
90.04000 3.298
90.06000 3.260
90.08000 -1.112
90.10000 -2.300
90.12000 -1.406
90.14000 4.006
90.16000 3.143
90.18000 5.631
90.20000 1.646
90.22000 1.547
90.24000 4.782
90.26000 2.686
90.28000 0.574
90.30000 3.593
90.32000 4.993
90.34000 6.805
90.36000 7.733
90.38000 0.279
90.40000 0.189
90.42000 3.839
90.44000 9.483
90.46000 2.322
90.48000 -1.830
90.50000 3.332
90.52000 3.588
90.54000 4.274
90.56000 5.652
90.58000 5.305
90.60000 4.813
90.62000 7.455
90.64000 9.233
90.66000 4.989
90.68000 2.304
90.70000 -0.749
90.72000 6.664
90.74000 7.803
90.76000 7.007
90.78000 2.140
90.80000 -2.260
90.82000 0.805
90.84000 -0.055
90.86000 -1.799
90.88000 3.680
90.90000 5.857
90.92000 3.596
90.94000 1.229
90.96000 5.055
90.98000 3.578
91.00000 4.430
91.02000 5.401
91.04000 2.534
91.06000 4.079
91.08000 4.155
91.10000 2.846
91.12000 2.837
91.14000 5.511
91.16000 5.575
91.18000 6.304
91.20000 6.007
91.22000 6.309
91.24000 7.195
91.26000 6.688
91.28000 5.798
91.30000 4.147
91.32000 5.646
91.34000 6.246
91.36000 10.597
91.38000 10.966
91.40000 6.545
91.42000 4.104
91.44000 4.549
91.46000 8.720
91.48000 11.557
91.50000 8.573
91.52000 6.518
91.54000 6.580
91.56000 8.346
91.58000 6.787
91.60000 3.220
91.62000 7.465
91.64000 6.728
91.66000 2.169
91.68000 -2.235
91.70000 0.219
91.72000 5.127
91.74000 8.816
91.76000 9.769
91.78000 8.499
91.80000 8.177
91.82000 4.804
91.84000 3.863
91.86000 1.464
91.88000 5.891
91.90000 4.468
91.92000 -0.600
91.94000 2.865
91.96000 4.545
91.98000 4.858
92.00000 2.492
92.02000 3.134
92.04000 3.290
92.06000 -0.087
92.08000 -0.878
92.10000 4.253
92.12000 4.077
92.14000 6.617
92.16000 6.564
92.18000 4.699
92.20000 3.441
92.22000 7.643
92.24000 9.483
92.26000 11.998
92.28000 9.022
92.30000 10.112
92.32000 3.567
92.34000 3.796
92.36000 9.297
92.38000 1.635
92.40000 3.061
92.42000 6.125
92.44000 8.197
92.46000 5.165
92.48000 5.408
92.50000 0.725
92.52000 1.173
92.54000 2.839
92.56000 4.430
92.58000 9.756
92.60000 8.159
92.62000 -1.095
92.64000 -0.859
92.66000 5.438
92.68000 3.568
92.70000 1.103
92.72000 7.969
92.74000 6.643
92.76000 4.413
92.78000 5.997
92.80000 4.561
92.82000 2.407
92.84000 6.776
92.86000 13.016
92.88000 6.208
92.90000 0.558
92.92000 4.884
92.94000 10.617
92.96000 6.782
92.98000 -1.641
93.00000 -0.183
93.02000 1.274
93.04000 2.164
93.06000 1.586
93.08000 4.749
93.10000 5.682
93.12000 -0.146
93.14000 2.002
93.16000 -1.363
93.18000 0.745
93.20000 4.530
93.22000 8.305
93.24000 10.034
93.26000 3.683
93.28000 4.128
93.30000 2.695
93.32000 3.296
93.34000 3.188
93.36000 5.520
93.38000 7.121
93.40000 6.328
93.42000 5.210
93.44000 4.197
93.46000 1.847
93.48000 3.797
93.50000 5.322
93.52000 3.121
93.54000 5.350
93.56000 7.023
93.58000 1.457
93.60000 6.330
93.62000 6.463
93.64000 10.150
93.66000 9.312
93.68000 -1.073
93.70000 2.089
93.72000 1.436
93.74000 2.662
93.76000 4.709
93.78000 5.375
93.80000 0.968
93.82000 5.228
93.84000 3.998
93.86000 5.473
93.88000 7.561
93.90000 6.391
93.92000 2.780
93.94000 8.182
93.96000 11.739
93.98000 7.382
94.00000 7.102
94.02000 7.068
94.04000 3.647
94.06000 8.359
94.08000 11.018
94.10000 8.450
94.12000 8.733
94.14000 4.610
94.16000 -0.750
94.18000 -2.240
94.20000 1.783
94.22000 2.709
94.24000 6.196
94.26000 3.824
94.28000 8.069
94.30000 10.336
94.32000 9.088
94.34000 7.903
94.36000 6.514
94.38000 5.808
94.40000 6.822
94.42000 5.522
94.44000 9.724
94.46000 10.652
94.48000 10.375
94.50000 2.362
94.52000 0.185
94.54000 0.518
94.56000 4.814
94.58000 6.307
94.60000 12.435
94.62000 7.309
94.64000 12.630
94.66000 14.594
94.68000 8.430
94.70000 5.973
94.72000 7.199
94.74000 6.948
94.76000 10.359
94.78000 10.379
94.80000 10.363
94.82000 4.186
94.84000 7.532
94.86000 5.466
94.88000 5.530
94.90000 9.991
94.92000 5.705
94.94000 7.287
94.96000 4.376
94.98000 10.123
95.00000 9.499
95.02000 1.094
95.04000 -0.546
95.06000 -1.180
95.08000 0.076
95.10000 5.306
95.12000 2.741
95.14000 1.681
95.16000 4.627
95.18000 9.145
95.20000 8.056
95.22000 1.193
95.24000 0.848
95.26000 5.973
95.28000 6.975
95.30000 7.671
95.32000 9.863
95.34000 13.586
95.36000 12.293
95.38000 8.230
95.40000 9.246
95.42000 3.510
95.44000 0.783
95.46000 5.232
95.48000 6.491
95.50000 3.648
95.52000 5.842
95.54000 5.454
95.56000 0.098
95.58000 0.844
95.60000 0.736
95.62000 -0.600
95.64000 -0.054
95.66000 -2.306
95.68000 2.306
95.70000 3.166
95.72000 1.429
95.74000 -1.771
95.76000 1.785
95.78000 2.824
95.80000 1.379
95.82000 2.315
95.84000 5.325
95.86000 9.553
95.88000 9.793
95.90000 2.824
95.92000 2.889
95.94000 0.203
95.96000 -0.305
95.98000 5.473
96.00000 -1.674
96.02000 1.868
96.04000 4.002
96.06000 5.609
96.08000 5.153
96.10000 5.100
96.12000 8.632
96.14000 5.340
96.16000 0.948
96.18000 5.191
96.20000 7.276
96.22000 -0.134
96.24000 4.267
96.26000 5.466
96.28000 -2.303
96.30000 2.189
96.32000 0.490
96.34000 2.645
96.36000 3.326
96.38000 6.192
96.40000 3.965
96.42000 4.092
96.44000 4.581
96.46000 3.474
96.48000 3.661
96.50000 6.497
96.52000 7.134
96.54000 8.932
96.56000 5.793
96.58000 6.387
96.60000 1.623
96.62000 4.394
96.64000 7.077
96.66000 5.395
96.68000 6.086
96.70000 5.340
96.72000 8.419
96.74000 2.968
96.76000 2.964
96.78000 3.135
96.80000 7.597
96.82000 9.939
96.84000 8.020
96.86000 6.741
96.88000 6.209
96.90000 9.684
96.92000 8.871
96.94000 2.569
96.96000 10.370
96.98000 3.655
97.00000 5.980
97.02000 3.398
97.04000 5.112
97.06000 8.569
97.08000 5.833
97.10000 4.937
97.12000 3.065
97.14000 1.840
97.16000 0.118
97.18000 -0.027
97.20000 6.981
97.22000 8.925
97.24000 5.228
97.26000 7.569
97.28000 -1.810
97.30000 -2.244
97.32000 0.235
97.34000 2.706
97.36000 5.779
97.38000 14.146
97.40000 14.214
97.42000 4.214
97.44000 11.904
97.46000 9.627
97.48000 11.051
97.50000 8.179
97.52000 1.529
97.54000 7.812
97.56000 11.293
97.58000 1.152
97.60000 5.167
97.62000 12.299
97.64000 9.749
97.66000 3.268
97.68000 1.055
97.70000 1.286
97.72000 3.167
97.74000 3.527
97.76000 7.413
97.78000 7.396
97.80000 5.256
97.82000 4.083
97.84000 3.583
97.86000 12.569
97.88000 10.161
97.90000 10.503
97.92000 10.734
97.94000 5.686
97.96000 7.491
97.98000 8.473
98.00000 9.786
98.02000 10.969
98.04000 2.011
98.06000 3.609
98.08000 5.423
98.10000 2.498
98.12000 4.996
98.14000 5.845
98.16000 17.140
98.18000 10.398
98.20000 10.734
98.22000 13.727
98.24000 8.271
98.26000 3.754
98.28000 11.841
98.30000 1.972
98.32000 9.673
98.34000 9.147
98.36000 4.316
98.38000 1.234
98.40000 4.364
98.42000 8.061
98.44000 -0.693
98.46000 1.356
98.48000 4.306
98.50000 4.255
98.52000 10.562
98.54000 10.979
98.56000 7.478
98.58000 5.950
98.60000 -2.146
98.62000 1.574
98.64000 -2.195
98.66000 9.140
98.68000 8.291
98.70000 11.096
98.72000 15.748
98.74000 13.699
98.76000 17.979
98.78000 13.877
98.80000 10.790
98.82000 5.746
98.84000 13.950
98.86000 9.111
98.88000 1.865
98.90000 4.817
98.92000 4.249
98.94000 6.685
98.96000 -1.763
98.98000 9.073
99.00000 1.281
99.02000 -6.261
99.04000 10.090
99.06000 4.330
99.08000 6.247
99.10000 7.809
99.12000 7.742
99.14000 14.247
99.16000 11.848
99.18000 6.151
99.20000 13.387
99.22000 7.765
99.24000 2.757
99.26000 4.925
99.28000 16.639
99.30000 13.306
99.32000 12.240
99.34000 8.042
99.36000 8.110
99.38000 3.327
99.40000 1.714
99.42000 2.065
99.44000 4.578
99.46000 6.292
99.48000 1.991
99.50000 -1.673
99.52000 1.452
99.54000 2.246
99.56000 -2.247
99.58000 0.990
99.60000 3.588
99.62000 -1.810
99.64000 8.160
99.66000 1.072
99.68000 -1.821
99.70000 -0.075
99.72000 3.227
99.74000 8.638
99.76000 3.407
99.78000 0.765
99.80000 14.988
99.82000 5.821
99.84000 -0.372
99.86000 -2.328
99.88000 -2.345
99.90000 2.152
99.92000 14.384
99.94000 8.199
99.96000 -2.426
99.98000 0.000
