'Id: "0011389" Comment: "Integrate frame 0011389_Au-Ir-Rh_Au-Rich_XRD_Mapping-215-0000.gfrmwith cursor Wedge Cursor #5" Operator: "B?rgel" Anode: "Cu" Wavelength: "1.5406" Scantype: "2Theta (TwoTheta)" TimePerStep: "1" X: "27" Y: "9" Z: "5.95" 
10.00000 0.000
10.02000 -1.494
10.04000 -3.725
10.06000 -3.677
10.08000 2.214
10.10000 -0.324
10.12000 -3.670
10.14000 -1.969
10.16000 3.652
10.18000 10.093
10.20000 3.631
10.22000 -1.768
10.24000 9.071
10.26000 23.320
10.28000 19.278
10.30000 3.184
10.32000 2.590
10.34000 2.774
10.36000 3.947
10.38000 6.412
10.40000 12.277
10.42000 27.589
10.44000 24.470
10.46000 12.747
10.48000 9.701
10.50000 8.798
10.52000 19.764
10.54000 1.803
10.56000 -1.147
10.58000 10.977
10.60000 18.401
10.62000 21.216
10.64000 14.153
10.66000 9.894
10.68000 13.023
10.70000 8.952
10.72000 12.237
10.74000 11.726
10.76000 16.132
10.78000 15.667
10.80000 13.619
10.82000 9.164
10.84000 3.674
10.86000 5.007
10.88000 6.500
10.90000 9.708
10.92000 11.520
10.94000 14.149
10.96000 12.589
10.98000 7.065
11.00000 15.838
11.02000 3.228
11.04000 3.442
11.06000 1.298
11.08000 -6.068
11.10000 17.853
11.12000 28.937
11.14000 14.906
11.16000 14.974
11.18000 14.528
11.20000 11.160
11.22000 15.065
11.24000 15.756
11.26000 11.955
11.28000 8.306
11.30000 13.090
11.32000 16.131
11.34000 16.888
11.36000 23.742
11.38000 10.125
11.40000 10.771
11.42000 21.504
11.44000 26.952
11.46000 25.329
11.48000 17.925
11.50000 12.752
11.52000 18.811
11.54000 26.847
11.56000 24.859
11.58000 25.625
11.60000 24.532
11.62000 24.677
11.64000 19.599
11.66000 22.994
11.68000 13.175
11.70000 11.641
11.72000 14.220
11.74000 20.406
11.76000 24.587
11.78000 26.424
11.80000 22.115
11.82000 26.683
11.84000 21.812
11.86000 20.712
11.88000 19.255
11.90000 19.587
11.92000 21.945
11.94000 27.322
11.96000 36.250
11.98000 38.249
12.00000 34.924
12.02000 21.507
12.04000 21.974
12.06000 12.520
12.08000 13.154
12.10000 17.720
12.12000 23.358
12.14000 22.542
12.16000 25.822
12.18000 25.813
12.20000 14.670
12.22000 29.211
12.24000 33.748
12.26000 26.725
12.28000 27.102
12.30000 33.114
12.32000 25.745
12.34000 19.226
12.36000 26.383
12.38000 25.895
12.40000 40.664
12.42000 42.143
12.44000 35.872
12.46000 25.831
12.48000 35.349
12.50000 34.743
12.52000 29.926
12.54000 24.517
12.56000 21.497
12.58000 22.329
12.60000 36.992
12.62000 31.690
12.64000 29.481
12.66000 31.861
12.68000 25.271
12.70000 25.737
12.72000 30.677
12.74000 32.246
12.76000 31.288
12.78000 28.693
12.80000 31.535
12.82000 34.523
12.84000 35.893
12.86000 27.807
12.88000 18.867
12.90000 18.629
12.92000 26.080
12.94000 22.837
12.96000 17.494
12.98000 25.957
13.00000 22.735
13.02000 25.187
13.04000 24.367
13.06000 22.550
13.08000 25.066
13.10000 27.764
13.12000 20.186
13.14000 23.191
13.16000 24.562
13.18000 30.837
13.20000 25.290
13.22000 29.462
13.24000 35.252
13.26000 35.131
13.28000 15.829
13.30000 14.115
13.32000 24.226
13.34000 19.873
13.36000 27.144
13.38000 38.839
13.40000 34.211
13.42000 16.451
13.44000 20.645
13.46000 21.463
13.48000 19.853
13.50000 21.525
13.52000 25.270
13.54000 28.049
13.56000 36.012
13.58000 34.210
13.60000 24.078
13.62000 22.995
13.64000 21.529
13.66000 23.995
13.68000 23.417
13.70000 23.491
13.72000 32.223
13.74000 30.749
13.76000 18.075
13.78000 24.275
13.80000 33.651
13.82000 22.346
13.84000 23.112
13.86000 29.582
13.88000 29.719
13.90000 29.047
13.92000 16.854
13.94000 19.703
13.96000 17.351
13.98000 13.196
14.00000 16.712
14.02000 24.860
14.04000 27.194
14.06000 31.250
14.08000 24.695
14.10000 20.373
14.12000 18.533
14.14000 11.977
14.16000 14.281
14.18000 13.910
14.20000 15.200
14.22000 6.891
14.24000 18.390
14.26000 31.370
14.28000 23.421
14.30000 17.178
14.32000 15.972
14.34000 25.103
14.36000 26.969
14.38000 28.448
14.40000 29.304
14.42000 21.916
14.44000 17.518
14.46000 19.846
14.48000 15.841
14.50000 12.098
14.52000 12.118
14.54000 22.066
14.56000 24.034
14.58000 13.861
14.60000 20.900
14.62000 23.415
14.64000 12.302
14.66000 8.739
14.68000 17.375
14.70000 23.821
14.72000 21.164
14.74000 17.365
14.76000 7.974
14.78000 13.075
14.80000 7.109
14.82000 14.287
14.84000 15.225
14.86000 12.895
14.88000 17.851
14.90000 27.247
14.92000 20.138
14.94000 11.135
14.96000 17.225
14.98000 19.181
15.00000 20.786
15.02000 20.033
15.04000 15.727
15.06000 9.584
15.08000 4.497
15.10000 7.833
15.12000 4.689
15.14000 10.343
15.16000 11.677
15.18000 6.814
15.20000 11.229
15.22000 12.729
15.24000 15.100
15.26000 18.095
15.28000 20.729
15.30000 16.375
15.32000 16.062
15.34000 7.945
15.36000 9.438
15.38000 14.237
15.40000 16.925
15.42000 10.186
15.44000 12.157
15.46000 16.311
15.48000 5.912
15.50000 3.856
15.52000 12.976
15.54000 18.318
15.56000 20.792
15.58000 13.483
15.60000 8.413
15.62000 7.248
15.64000 6.626
15.66000 18.234
15.68000 19.587
15.70000 15.070
15.72000 9.244
15.74000 7.598
15.76000 16.620
15.78000 20.020
15.80000 20.757
15.82000 12.908
15.84000 10.740
15.86000 8.354
15.88000 8.526
15.90000 10.659
15.92000 5.772
15.94000 4.336
15.96000 5.507
15.98000 13.068
16.00000 14.872
16.02000 0.530
16.04000 6.311
16.06000 8.115
16.08000 5.906
16.10000 11.087
16.12000 12.701
16.14000 13.184
16.16000 22.020
16.18000 12.556
16.20000 2.868
16.22000 11.548
16.24000 9.666
16.26000 5.924
16.28000 10.366
16.30000 1.648
16.32000 1.365
16.34000 7.888
16.36000 3.898
16.38000 6.861
16.40000 15.789
16.42000 15.652
16.44000 5.234
16.46000 0.975
16.48000 -4.438
16.50000 5.217
16.52000 10.816
16.54000 11.904
16.56000 2.716
16.58000 12.867
16.60000 19.964
16.62000 13.890
16.64000 7.775
16.66000 10.854
16.68000 6.950
16.70000 4.930
16.72000 10.206
16.74000 16.458
16.76000 7.053
16.78000 1.343
16.80000 4.313
16.82000 9.269
16.84000 9.870
16.86000 7.760
16.88000 2.307
16.90000 4.784
16.92000 3.955
16.94000 9.944
16.96000 13.216
16.98000 9.205
17.00000 5.364
17.02000 3.459
17.04000 2.432
17.06000 6.403
17.08000 11.534
17.10000 5.342
17.12000 5.173
17.14000 6.349
17.16000 9.353
17.18000 5.884
17.20000 5.052
17.22000 7.933
17.24000 13.387
17.26000 6.984
17.28000 4.729
17.30000 8.783
17.32000 13.626
17.34000 8.580
17.36000 3.769
17.38000 8.129
17.40000 4.438
17.42000 6.173
17.44000 2.410
17.46000 4.154
17.48000 7.850
17.50000 3.521
17.52000 3.545
17.54000 0.397
17.56000 4.345
17.58000 8.793
17.60000 2.641
17.62000 0.717
17.64000 6.219
17.66000 9.632
17.68000 8.699
17.70000 7.153
17.72000 3.761
17.74000 7.851
17.76000 6.548
17.78000 6.872
17.80000 3.689
17.82000 -1.252
17.84000 1.296
17.86000 3.191
17.88000 3.538
17.90000 2.581
17.92000 7.949
17.94000 11.350
17.96000 7.626
17.98000 6.467
18.00000 4.963
18.02000 2.191
18.04000 3.188
18.06000 -0.305
18.08000 0.265
18.10000 2.225
18.12000 4.308
18.14000 5.458
18.16000 12.371
18.18000 8.715
18.20000 3.828
18.22000 -0.318
18.24000 6.859
18.26000 11.999
18.28000 9.745
18.30000 15.791
18.32000 6.014
18.34000 2.196
18.36000 2.224
18.38000 0.065
18.40000 6.205
18.42000 4.243
18.44000 5.092
18.46000 4.450
18.48000 6.350
18.50000 6.592
18.52000 3.824
18.54000 2.149
18.56000 5.031
18.58000 6.368
18.60000 10.551
18.62000 11.214
18.64000 0.971
18.66000 0.380
18.68000 8.323
18.70000 5.117
18.72000 0.868
18.74000 -4.315
18.76000 6.345
18.78000 11.306
18.80000 -0.370
18.82000 -0.488
18.84000 0.584
18.86000 11.746
18.88000 13.851
18.90000 7.897
18.92000 5.598
18.94000 6.674
18.96000 3.510
18.98000 9.734
19.00000 12.699
19.02000 7.257
19.04000 7.046
19.06000 9.154
19.08000 9.621
19.10000 12.999
19.12000 6.897
19.14000 5.213
19.16000 1.885
19.18000 6.699
19.20000 0.082
19.22000 1.397
19.24000 4.426
19.26000 5.867
19.28000 8.795
19.30000 8.535
19.32000 3.350
19.34000 5.346
19.36000 4.821
19.38000 -3.670
19.40000 -2.850
19.42000 0.019
19.44000 7.184
19.46000 10.582
19.48000 6.922
19.50000 5.571
19.52000 4.893
19.54000 4.456
19.56000 6.034
19.58000 11.339
19.60000 5.149
19.62000 1.755
19.64000 6.371
19.66000 5.680
19.68000 0.704
19.70000 1.166
19.72000 6.438
19.74000 2.997
19.76000 5.573
19.78000 3.992
19.80000 1.713
19.82000 6.438
19.84000 4.164
19.86000 4.215
19.88000 12.369
19.90000 7.863
19.92000 8.158
19.94000 6.540
19.96000 3.947
19.98000 3.479
20.00000 5.820
20.02000 6.891
20.04000 6.496
20.06000 6.643
20.08000 16.979
20.10000 8.813
20.12000 6.892
20.14000 2.259
20.16000 0.365
20.18000 2.668
20.20000 3.914
20.22000 7.558
20.24000 8.456
20.26000 11.471
20.28000 9.983
20.30000 13.005
20.32000 21.584
20.34000 17.641
20.36000 8.251
20.38000 3.023
20.40000 0.309
20.42000 11.310
20.44000 11.830
20.46000 8.025
20.48000 9.865
20.50000 5.915
20.52000 13.074
20.54000 8.694
20.56000 8.273
20.58000 15.062
20.60000 12.500
20.62000 9.367
20.64000 11.331
20.66000 15.353
20.68000 8.882
20.70000 2.393
20.72000 -2.968
20.74000 -4.174
20.76000 1.798
20.78000 9.215
20.80000 10.211
20.82000 11.038
20.84000 8.816
20.86000 9.738
20.88000 8.190
20.90000 9.062
20.92000 11.216
20.94000 7.282
20.96000 9.229
20.98000 4.673
21.00000 5.949
21.02000 10.135
21.04000 9.425
21.06000 -4.166
21.08000 1.018
21.10000 8.729
21.12000 10.742
21.14000 9.648
21.16000 8.468
21.18000 13.008
21.20000 3.510
21.22000 0.434
21.24000 1.881
21.26000 4.666
21.28000 5.675
21.30000 4.422
21.32000 8.410
21.34000 8.884
21.36000 11.686
21.38000 12.196
21.40000 6.913
21.42000 0.677
21.44000 -1.226
21.46000 6.052
21.48000 8.019
21.50000 11.151
21.52000 9.129
21.54000 10.628
21.56000 9.196
21.58000 8.579
21.60000 -1.752
21.62000 1.595
21.64000 7.888
21.66000 2.848
21.68000 -0.395
21.70000 3.479
21.72000 2.428
21.74000 3.409
21.76000 5.556
21.78000 8.916
21.80000 12.177
21.82000 3.318
21.84000 1.133
21.86000 1.944
21.88000 3.367
21.90000 -0.634
21.92000 0.040
21.94000 0.342
21.96000 5.021
21.98000 4.254
22.00000 4.256
22.02000 1.046
22.04000 2.718
22.06000 2.539
22.08000 2.871
22.10000 5.215
22.12000 5.814
22.14000 1.839
22.16000 -2.248
22.18000 3.217
22.20000 7.319
22.22000 2.097
22.24000 4.035
22.26000 9.562
22.28000 8.572
22.30000 -2.601
22.32000 -1.454
22.34000 -3.397
22.36000 1.029
22.38000 4.824
22.40000 2.328
22.42000 4.098
22.44000 8.769
22.46000 5.572
22.48000 0.360
22.50000 0.731
22.52000 7.949
22.54000 4.383
22.56000 1.148
22.58000 4.648
22.60000 -1.702
22.62000 -1.826
22.64000 -4.120
22.66000 -3.392
22.68000 3.835
22.70000 5.125
22.72000 5.660
22.74000 9.685
22.76000 4.577
22.78000 4.475
22.80000 6.945
22.82000 8.706
22.84000 13.589
22.86000 4.117
22.88000 4.840
22.90000 8.862
22.92000 7.207
22.94000 7.964
22.96000 3.592
22.98000 6.032
23.00000 7.897
23.02000 3.474
23.04000 4.545
23.06000 5.376
23.08000 2.423
23.10000 0.091
23.12000 -0.017
23.14000 -0.978
23.16000 4.798
23.18000 8.049
23.20000 8.421
23.22000 1.125
23.24000 2.890
23.26000 2.425
23.28000 3.860
23.30000 2.760
23.32000 1.757
23.34000 -1.840
23.36000 -4.083
23.38000 -0.264
23.40000 5.628
23.42000 7.885
23.44000 5.513
23.46000 -0.005
23.48000 -0.086
23.50000 2.676
23.52000 9.295
23.54000 5.674
23.56000 2.651
23.58000 -1.688
23.60000 -3.864
23.62000 2.968
23.64000 -0.300
23.66000 0.176
23.68000 6.396
23.70000 10.219
23.72000 3.856
23.74000 3.613
23.76000 3.838
23.78000 3.783
23.80000 -2.356
23.82000 -1.016
23.84000 1.591
23.86000 -0.869
23.88000 0.216
23.90000 3.884
23.92000 4.666
23.94000 7.733
23.96000 8.072
23.98000 5.542
24.00000 9.173
24.02000 9.743
24.04000 10.766
24.06000 7.906
24.08000 4.490
24.10000 1.692
24.12000 -1.272
24.14000 2.892
24.16000 4.018
24.18000 6.592
24.20000 2.344
24.22000 3.339
24.24000 5.719
24.26000 0.670
24.28000 1.730
24.30000 8.125
24.32000 5.813
24.34000 4.205
24.36000 7.115
24.38000 4.261
24.40000 -4.013
24.42000 4.073
24.44000 2.947
24.46000 1.240
24.48000 4.085
24.50000 2.687
24.52000 2.826
24.54000 2.312
24.56000 1.817
24.58000 1.301
24.60000 2.190
24.62000 4.136
24.64000 6.640
24.66000 7.514
24.68000 7.890
24.70000 7.173
24.72000 1.275
24.74000 3.765
24.76000 7.940
24.78000 1.710
24.80000 -2.285
24.82000 -1.607
24.84000 -1.456
24.86000 -2.327
24.88000 0.572
24.90000 3.584
24.92000 9.470
24.94000 9.880
24.96000 -0.114
24.98000 -1.748
25.00000 -1.419
25.02000 2.873
25.04000 1.328
25.06000 3.399
25.08000 5.991
25.10000 1.996
25.12000 5.235
25.14000 6.432
25.16000 1.983
25.18000 2.207
25.20000 -2.352
25.22000 -0.486
25.24000 5.748
25.26000 1.306
25.28000 2.291
25.30000 3.496
25.32000 2.182
25.34000 1.550
25.36000 4.703
25.38000 6.175
25.40000 0.021
25.42000 2.410
25.44000 7.427
25.46000 3.155
25.48000 0.347
25.50000 0.418
25.52000 -0.716
25.54000 -3.966
25.56000 -3.121
25.58000 2.183
25.60000 1.027
25.62000 -0.405
25.64000 4.237
25.66000 5.644
25.68000 -2.004
25.70000 -2.108
25.72000 -1.265
25.74000 1.527
25.76000 7.018
25.78000 6.202
25.80000 3.529
25.82000 1.091
25.84000 -2.385
25.86000 -1.816
25.88000 4.606
25.90000 4.048
25.92000 2.341
25.94000 0.871
25.96000 -2.941
25.98000 -0.374
26.00000 4.176
26.02000 3.954
26.04000 -0.283
26.06000 0.302
26.08000 1.270
26.10000 0.160
26.12000 -1.203
26.14000 0.874
26.16000 2.574
26.18000 -3.944
26.20000 3.554
26.22000 6.021
26.24000 3.157
26.26000 0.630
26.28000 2.651
26.30000 3.477
26.32000 6.161
26.34000 3.129
26.36000 0.736
26.38000 -1.991
26.40000 -1.044
26.42000 -1.243
26.44000 2.374
26.46000 0.747
26.48000 -0.476
26.50000 2.799
26.52000 8.633
26.54000 9.318
26.56000 7.492
26.58000 1.882
26.60000 -0.042
26.62000 -2.710
26.64000 3.615
26.66000 7.668
26.68000 2.897
26.70000 4.846
26.72000 0.747
26.74000 0.683
26.76000 10.264
26.78000 8.561
26.80000 5.514
26.82000 -0.895
26.84000 -3.451
26.86000 2.540
26.88000 3.578
26.90000 5.103
26.92000 6.072
26.94000 0.832
26.96000 2.424
26.98000 7.142
27.00000 -2.370
27.02000 -3.286
27.04000 -0.112
27.06000 7.564
27.08000 6.989
27.10000 5.350
27.12000 2.754
27.14000 2.984
27.16000 5.646
27.18000 2.312
27.20000 0.902
27.22000 3.424
27.24000 3.764
27.26000 5.311
27.28000 0.664
27.30000 -3.871
27.32000 1.088
27.34000 10.843
27.36000 8.819
27.38000 5.131
27.40000 0.340
27.42000 4.661
27.44000 9.984
27.46000 5.952
27.48000 8.827
27.50000 5.184
27.52000 3.536
27.54000 3.426
27.56000 4.052
27.58000 5.709
27.60000 1.920
27.62000 4.029
27.64000 5.109
27.66000 8.813
27.68000 8.683
27.70000 3.605
27.72000 4.531
27.74000 -0.040
27.76000 -2.361
27.78000 -1.268
27.80000 1.636
27.82000 7.327
27.84000 6.534
27.86000 1.471
27.88000 1.943
27.90000 2.493
27.92000 2.490
27.94000 1.006
27.96000 -0.463
27.98000 1.613
28.00000 5.081
28.02000 6.964
28.04000 5.151
28.06000 2.710
28.08000 0.881
28.10000 0.667
28.12000 3.717
28.14000 1.551
28.16000 -2.333
28.18000 0.077
28.20000 0.343
28.22000 0.935
28.24000 1.075
28.26000 4.304
28.28000 2.992
28.30000 5.575
28.32000 3.140
28.34000 -3.810
28.36000 -2.716
28.38000 -1.504
28.40000 8.416
28.42000 2.362
28.44000 -0.921
28.46000 -2.740
28.48000 -1.536
28.50000 1.512
28.52000 0.223
28.54000 2.159
28.56000 3.635
28.58000 6.253
28.60000 2.347
28.62000 -0.418
28.64000 0.564
28.66000 -2.124
28.68000 3.082
28.70000 5.084
28.72000 3.614
28.74000 3.093
28.76000 3.127
28.78000 0.894
28.80000 4.896
28.82000 1.818
28.84000 1.240
28.86000 4.149
28.88000 5.074
28.90000 3.755
28.92000 0.848
28.94000 -0.471
28.96000 -1.888
28.98000 -0.405
29.00000 2.375
29.02000 8.729
29.04000 5.780
29.06000 -2.953
29.08000 -1.760
29.10000 2.484
29.12000 -1.074
29.14000 2.605
29.16000 5.527
29.18000 -0.529
29.20000 -0.907
29.22000 1.231
29.24000 2.053
29.26000 3.075
29.28000 4.274
29.30000 3.203
29.32000 5.787
29.34000 4.938
29.36000 4.638
29.38000 3.550
29.40000 3.838
29.42000 3.692
29.44000 4.967
29.46000 4.987
29.48000 0.763
29.50000 3.931
29.52000 5.409
29.54000 0.000
29.56000 -1.253
29.58000 3.853
29.60000 4.195
29.62000 -3.750
29.64000 -0.336
29.66000 3.898
29.68000 2.542
29.70000 0.725
29.72000 5.505
29.74000 5.962
29.76000 5.383
29.78000 2.935
29.80000 2.513
29.82000 2.384
29.84000 3.090
29.86000 -3.735
29.88000 6.650
29.90000 5.959
29.92000 3.690
29.94000 0.889
29.96000 0.376
29.98000 3.858
30.00000 7.336
30.02000 8.055
30.04000 3.519
30.06000 5.142
30.08000 7.182
30.10000 8.738
30.12000 8.323
30.14000 5.315
30.16000 5.423
30.18000 5.435
30.20000 -0.596
30.22000 2.900
30.24000 3.217
30.26000 1.553
30.28000 -1.099
30.30000 2.844
30.32000 1.981
30.34000 -1.900
30.36000 -1.787
30.38000 -1.178
30.40000 -0.874
30.42000 -1.219
30.44000 0.256
30.46000 -0.300
30.48000 -0.302
30.50000 1.788
30.52000 2.732
30.54000 5.466
30.56000 4.178
30.58000 3.028
30.60000 5.788
30.62000 4.049
30.64000 2.161
30.66000 0.956
30.68000 -2.084
30.70000 -1.702
30.72000 -2.555
30.74000 0.920
30.76000 1.780
30.78000 -0.267
30.80000 -2.040
30.82000 1.552
30.84000 6.430
30.86000 1.761
30.88000 -0.849
30.90000 -2.337
30.92000 -3.475
30.94000 1.586
30.96000 2.264
30.98000 0.059
31.00000 -0.009
31.02000 -0.025
31.04000 -1.922
31.06000 -1.597
31.08000 3.602
31.10000 3.822
31.12000 3.662
31.14000 2.663
31.16000 5.715
31.18000 1.856
31.20000 1.831
31.22000 -1.302
31.24000 1.744
31.26000 1.654
31.28000 -2.766
31.30000 -2.020
31.32000 -2.893
31.34000 -0.393
31.36000 -1.491
31.38000 6.098
31.40000 4.173
31.42000 0.334
31.44000 -1.656
31.46000 5.123
31.48000 3.728
31.50000 1.675
31.52000 0.380
31.54000 2.962
31.56000 7.242
31.58000 2.616
31.60000 5.079
31.62000 4.293
31.64000 1.033
31.66000 0.156
31.68000 -3.676
31.70000 2.253
31.72000 10.921
31.74000 12.406
31.76000 2.391
31.78000 -0.318
31.80000 1.122
31.82000 1.865
31.84000 2.166
31.86000 4.667
31.88000 4.895
31.90000 3.965
31.92000 1.437
31.94000 -2.012
31.96000 0.501
31.98000 7.593
32.00000 4.905
32.02000 4.905
32.04000 4.249
32.06000 3.273
32.08000 4.503
32.10000 5.430
32.12000 8.635
32.14000 10.452
32.16000 6.680
32.18000 6.647
32.20000 5.781
32.22000 3.745
32.24000 5.009
32.26000 7.306
32.28000 9.347
32.30000 8.414
32.32000 -1.247
32.34000 -0.290
32.36000 5.970
32.38000 10.973
32.40000 10.486
32.42000 0.261
32.44000 -3.611
32.46000 -2.777
32.48000 3.686
32.50000 5.427
32.52000 4.929
32.54000 6.593
32.56000 3.550
32.58000 4.586
32.60000 4.609
32.62000 3.099
32.64000 1.542
32.66000 3.586
32.68000 5.925
32.70000 3.801
32.72000 1.588
32.74000 4.055
32.76000 5.598
32.78000 2.899
32.80000 2.295
32.82000 0.161
32.84000 4.358
32.86000 4.748
32.88000 -0.090
32.90000 1.121
32.92000 2.881
32.94000 4.169
32.96000 3.157
32.98000 4.534
33.00000 2.867
33.02000 1.946
33.04000 7.603
33.06000 5.221
33.08000 5.189
33.10000 4.582
33.12000 2.477
33.14000 1.562
33.16000 1.502
33.18000 4.045
33.20000 -0.086
33.22000 3.140
33.24000 7.708
33.26000 7.862
33.28000 8.698
33.30000 4.724
33.32000 3.843
33.34000 2.512
33.36000 1.179
33.38000 0.999
33.40000 0.074
33.42000 5.053
33.44000 5.491
33.46000 2.185
33.48000 4.384
33.50000 7.085
33.52000 8.184
33.54000 7.206
33.56000 7.632
33.58000 5.977
33.60000 9.392
33.62000 12.911
33.64000 7.154
33.66000 4.918
33.68000 4.772
33.70000 0.615
33.72000 -1.788
33.74000 4.599
33.76000 5.947
33.78000 7.177
33.80000 6.241
33.82000 10.327
33.84000 5.063
33.86000 4.335
33.88000 5.703
33.90000 6.017
33.92000 4.639
33.94000 4.819
33.96000 7.118
33.98000 2.685
34.00000 2.762
34.02000 7.300
34.04000 10.189
34.06000 7.521
34.08000 4.757
34.10000 6.510
34.12000 4.583
34.14000 3.447
34.16000 9.074
34.18000 6.840
34.20000 3.377
34.22000 3.471
34.24000 2.807
34.26000 2.531
34.28000 2.677
34.30000 2.003
34.32000 3.719
34.34000 6.069
34.36000 8.125
34.38000 4.064
34.40000 2.553
34.42000 2.997
34.44000 9.357
34.46000 8.137
34.48000 6.975
34.50000 3.264
34.52000 -0.699
34.54000 -3.595
34.56000 1.098
34.58000 3.196
34.60000 6.374
34.62000 3.911
34.64000 3.434
34.66000 2.934
34.68000 2.874
34.70000 3.884
34.72000 1.874
34.74000 3.728
34.76000 0.601
34.78000 -3.589
34.80000 -2.338
34.82000 -1.044
34.84000 4.336
34.86000 0.243
34.88000 -0.033
34.90000 3.281
34.92000 2.352
34.94000 -0.316
34.96000 4.424
34.98000 1.293
35.00000 2.230
35.02000 0.636
35.04000 1.182
35.06000 5.124
35.08000 3.108
35.10000 4.171
35.12000 3.526
35.14000 1.959
35.16000 4.968
35.18000 4.056
35.20000 -0.333
35.22000 -0.028
35.24000 0.776
35.26000 5.787
35.28000 2.624
35.30000 0.256
35.32000 -0.795
35.34000 5.507
35.36000 0.885
35.38000 -3.580
35.40000 -2.757
35.42000 2.984
35.44000 9.133
35.46000 8.584
35.48000 6.774
35.50000 -1.859
35.52000 -2.562
35.54000 3.485
35.56000 3.182
35.58000 -0.927
35.60000 4.548
35.62000 5.529
35.64000 2.612
35.66000 3.162
35.68000 1.843
35.70000 -0.761
35.72000 2.172
35.74000 1.991
35.76000 -2.320
35.78000 -2.591
35.80000 6.210
35.82000 3.375
35.84000 2.704
35.86000 3.591
35.88000 2.236
35.90000 3.479
35.92000 6.499
35.94000 1.966
35.96000 -2.547
35.98000 -3.632
36.00000 -1.965
36.02000 0.627
36.04000 2.388
36.06000 7.011
36.08000 8.715
36.10000 8.285
36.12000 9.518
36.14000 1.931
36.16000 2.975
36.18000 5.758
36.20000 6.457
36.22000 2.099
36.24000 -0.109
36.26000 -0.172
36.28000 -0.672
36.30000 0.345
36.32000 1.292
36.34000 -3.644
36.36000 -3.384
36.38000 0.880
36.40000 3.516
36.42000 -0.736
36.44000 4.789
36.46000 5.441
36.48000 -1.602
36.50000 -0.693
36.52000 3.109
36.54000 0.948
36.56000 6.647
36.58000 6.106
36.60000 3.931
36.62000 0.508
36.64000 -3.194
36.66000 -0.923
36.68000 0.576
36.70000 5.420
36.72000 2.372
36.74000 -1.279
36.76000 -1.329
36.78000 8.806
36.80000 4.894
36.82000 3.397
36.84000 -3.437
36.86000 1.261
36.88000 1.841
36.90000 2.426
36.92000 4.493
36.94000 0.218
36.96000 1.190
36.98000 -0.235
37.00000 1.045
37.02000 2.736
37.04000 6.860
37.06000 2.383
37.08000 1.307
37.10000 3.630
37.12000 6.577
37.14000 7.070
37.16000 7.378
37.18000 7.508
37.20000 8.709
37.22000 6.984
37.24000 1.684
37.26000 1.909
37.28000 4.277
37.30000 8.188
37.32000 7.032
37.34000 6.269
37.36000 9.365
37.38000 7.336
37.40000 9.575
37.42000 6.860
37.44000 8.297
37.46000 10.637
37.48000 5.299
37.50000 6.544
37.52000 9.965
37.54000 8.161
37.56000 7.659
37.58000 9.097
37.60000 8.986
37.62000 9.918
37.64000 11.821
37.66000 9.704
37.68000 11.413
37.70000 10.725
37.72000 9.924
37.74000 11.467
37.76000 9.797
37.78000 15.414
37.80000 15.547
37.82000 17.175
37.84000 22.994
37.86000 26.430
37.88000 25.098
37.90000 21.042
37.92000 19.014
37.94000 24.604
37.96000 25.109
37.98000 22.012
38.00000 22.075
38.02000 29.541
38.04000 27.775
38.06000 25.560
38.08000 29.406
38.10000 33.154
38.12000 32.540
38.14000 28.074
38.16000 30.294
38.18000 34.399
38.20000 31.733
38.22000 32.605
38.24000 32.710
38.26000 29.877
38.28000 33.278
38.30000 37.541
38.32000 43.290
38.34000 47.621
38.36000 45.203
38.38000 44.627
38.40000 51.331
38.42000 54.751
38.44000 51.127
38.46000 49.087
38.48000 51.151
38.50000 59.186
38.52000 60.362
38.54000 61.184
38.56000 69.707
38.58000 75.804
38.60000 74.282
38.62000 79.440
38.64000 82.865
38.66000 85.634
38.68000 87.599
38.70000 93.250
38.72000 97.462
38.74000 104.633
38.76000 109.538
38.78000 115.590
38.80000 117.114
38.82000 123.853
38.84000 128.533
38.86000 134.874
38.88000 140.899
38.90000 151.554
38.92000 158.699
38.94000 174.181
38.96000 187.690
38.98000 194.978
39.00000 204.655
39.02000 219.481
39.04000 230.077
39.06000 245.064
39.08000 258.574
39.10000 272.096
39.12000 286.829
39.14000 304.453
39.16000 323.707
39.18000 342.111
39.20000 358.347
39.22000 382.536
39.24000 401.215
39.26000 421.525
39.28000 445.898
39.30000 459.707
39.32000 481.509
39.34000 501.242
39.36000 524.462
39.38000 538.352
39.40000 557.493
39.42000 576.415
39.44000 583.429
39.46000 591.523
39.48000 599.755
39.50000 604.075
39.52000 619.503
39.54000 612.953
39.56000 610.165
39.58000 615.890
39.60000 614.233
39.62000 603.743
39.64000 602.217
39.66000 588.408
39.68000 566.551
39.70000 543.946
39.72000 541.221
39.74000 531.053
39.76000 504.624
39.78000 485.599
39.80000 467.096
39.82000 447.491
39.84000 420.269
39.86000 401.049
39.88000 383.855
39.90000 369.402
39.92000 345.362
39.94000 328.774
39.96000 306.760
39.98000 288.975
40.00000 265.718
40.02000 250.394
40.04000 234.273
40.06000 219.023
40.08000 209.260
40.10000 198.852
40.12000 181.928
40.14000 174.735
40.16000 164.589
40.18000 150.464
40.20000 136.319
40.22000 129.574
40.24000 121.101
40.26000 115.826
40.28000 107.515
40.30000 104.119
40.32000 98.330
40.34000 89.255
40.36000 83.574
40.38000 75.996
40.40000 72.552
40.42000 69.727
40.44000 66.421
40.46000 61.044
40.48000 60.105
40.50000 57.467
40.52000 50.687
40.54000 46.947
40.56000 44.057
40.58000 41.631
40.60000 42.500
40.62000 38.493
40.64000 37.626
40.66000 33.713
40.68000 32.707
40.70000 33.015
40.72000 32.788
40.74000 29.676
40.76000 22.543
40.78000 23.705
40.80000 27.030
40.82000 24.950
40.84000 23.669
40.86000 21.114
40.88000 19.531
40.90000 18.129
40.92000 23.050
40.94000 19.912
40.96000 17.517
40.98000 12.899
41.00000 14.475
41.02000 12.046
41.04000 12.118
41.06000 16.095
41.08000 14.415
41.10000 10.392
41.12000 7.609
41.14000 9.236
41.16000 10.963
41.18000 8.209
41.20000 6.889
41.22000 9.683
41.24000 10.084
41.26000 5.508
41.28000 4.633
41.30000 4.693
41.32000 4.943
41.34000 5.581
41.36000 6.368
41.38000 4.122
41.40000 3.281
41.42000 3.847
41.44000 4.169
41.46000 3.993
41.48000 7.390
41.50000 4.713
41.52000 0.512
41.54000 -0.514
41.56000 7.981
41.58000 6.622
41.60000 6.810
41.62000 0.941
41.64000 -2.784
41.66000 1.034
41.68000 -1.082
41.70000 -0.132
41.72000 -2.956
41.74000 -0.582
41.76000 3.122
41.78000 -0.688
41.80000 -1.861
41.82000 2.752
41.84000 2.619
41.86000 3.955
41.88000 -0.501
41.90000 -1.822
41.92000 2.125
41.94000 1.254
41.96000 -2.891
41.98000 0.833
42.00000 1.523
42.02000 -1.231
42.04000 2.017
42.06000 0.348
42.08000 -1.483
42.10000 0.317
42.12000 -0.777
42.14000 -3.345
42.16000 -2.040
42.18000 -0.285
42.20000 -0.470
42.22000 0.365
42.24000 0.022
42.26000 1.520
42.28000 0.165
42.30000 -2.973
42.32000 -3.313
42.34000 -1.649
42.36000 -3.155
42.38000 -2.385
42.40000 0.065
42.42000 1.281
42.44000 3.352
42.46000 5.955
42.48000 1.445
42.50000 -1.404
42.52000 1.036
42.54000 -1.141
42.56000 0.501
42.58000 -0.230
42.60000 1.468
42.62000 1.758
42.64000 -3.271
42.66000 1.640
42.68000 -2.459
42.70000 -0.129
42.72000 1.560
42.74000 -0.599
42.76000 2.199
42.78000 3.390
42.80000 -1.218
42.82000 1.008
42.84000 -0.430
42.86000 0.521
42.88000 3.665
42.90000 3.772
42.92000 1.534
42.94000 3.204
42.96000 2.311
42.98000 -0.232
43.00000 -3.225
43.02000 -1.349
43.04000 -0.258
43.06000 -1.394
43.08000 0.279
43.10000 -0.136
43.12000 -1.726
43.14000 -2.293
43.16000 -0.262
43.18000 -0.992
43.20000 -2.106
43.22000 -0.265
43.24000 0.094
43.26000 2.182
43.28000 -1.652
43.30000 -2.282
43.32000 -1.109
43.34000 -1.179
43.36000 0.389
43.38000 0.180
43.40000 -0.616
43.42000 0.681
43.44000 -0.631
43.46000 2.593
43.48000 -1.219
43.50000 -1.292
43.52000 0.459
43.54000 3.742
43.56000 1.358
43.58000 4.296
43.60000 2.549
43.62000 0.692
43.64000 -1.640
43.66000 1.537
43.68000 6.330
43.70000 2.813
43.72000 0.704
43.74000 -0.625
43.76000 0.604
43.78000 1.998
43.80000 2.130
43.82000 2.815
43.84000 2.296
43.86000 3.212
43.88000 -0.354
43.90000 -2.249
43.92000 -0.386
43.94000 0.434
43.96000 3.214
43.98000 4.634
44.00000 0.076
44.02000 4.288
44.04000 5.235
44.06000 2.843
44.08000 0.916
44.10000 -2.056
44.12000 0.237
44.14000 -3.105
44.16000 0.472
44.18000 -0.573
44.20000 -1.161
44.22000 1.531
44.24000 0.843
44.26000 -0.225
44.28000 0.825
44.30000 3.258
44.32000 3.462
44.34000 0.388
44.36000 -0.980
44.38000 2.293
44.40000 1.949
44.42000 1.795
44.44000 0.028
44.46000 0.873
44.48000 0.694
44.50000 0.192
44.52000 0.334
44.54000 0.533
44.56000 1.968
44.58000 3.162
44.60000 2.532
44.62000 7.055
44.64000 5.628
44.66000 3.292
44.68000 6.205
44.70000 4.800
44.72000 4.062
44.74000 9.138
44.76000 7.217
44.78000 2.501
44.80000 5.146
44.82000 2.312
44.84000 3.376
44.86000 4.249
44.88000 1.788
44.90000 3.717
44.92000 9.004
44.94000 7.002
44.96000 6.458
44.98000 7.448
45.00000 8.773
45.02000 6.705
45.04000 3.169
45.06000 4.235
45.08000 7.227
45.10000 11.297
45.12000 8.170
45.14000 5.524
45.16000 7.763
45.18000 13.822
45.20000 13.299
45.22000 15.799
45.24000 15.228
45.26000 18.207
45.28000 16.314
45.30000 17.016
45.32000 15.911
45.34000 16.436
45.36000 18.427
45.38000 18.334
45.40000 17.579
45.42000 20.635
45.44000 19.611
45.46000 18.958
45.48000 20.269
45.50000 19.249
45.52000 20.691
45.54000 24.985
45.56000 25.994
45.58000 28.582
45.60000 26.580
45.62000 29.180
45.64000 29.957
45.66000 28.781
45.68000 30.436
45.70000 34.709
45.72000 36.663
45.74000 38.377
45.76000 35.902
45.78000 33.479
45.80000 39.877
45.82000 43.464
45.84000 47.268
45.86000 46.806
45.88000 42.099
45.90000 39.965
45.92000 44.984
45.94000 46.893
45.96000 47.026
45.98000 51.409
46.00000 48.451
46.02000 48.731
46.04000 55.801
46.06000 55.191
46.08000 57.791
46.10000 59.348
46.12000 60.252
46.14000 62.335
46.16000 61.052
46.18000 63.355
46.20000 66.824
46.22000 63.706
46.24000 64.158
46.26000 62.777
46.28000 59.076
46.30000 61.013
46.32000 58.536
46.34000 62.262
46.36000 62.546
46.38000 58.865
46.40000 55.279
46.42000 53.979
46.44000 58.745
46.46000 57.573
46.48000 59.857
46.50000 53.690
46.52000 52.287
46.54000 54.196
46.56000 50.712
46.58000 45.433
46.60000 46.200
46.62000 43.678
46.64000 41.361
46.66000 40.783
46.68000 36.363
46.70000 34.750
46.72000 34.831
46.74000 32.552
46.76000 30.260
46.78000 28.903
46.80000 30.142
46.82000 28.429
46.84000 28.478
46.86000 28.174
46.88000 24.666
46.90000 22.759
46.92000 17.094
46.94000 12.349
46.96000 15.716
46.98000 16.059
47.00000 18.482
47.02000 14.335
47.04000 10.715
47.06000 10.343
47.08000 11.717
47.10000 9.610
47.12000 12.448
47.14000 12.530
47.16000 11.315
47.18000 7.075
47.20000 7.568
47.22000 10.150
47.24000 6.211
47.26000 0.714
47.28000 6.273
47.30000 5.675
47.32000 3.203
47.34000 6.835
47.36000 7.641
47.38000 3.075
47.40000 1.226
47.42000 2.038
47.44000 3.609
47.46000 1.487
47.48000 0.515
47.50000 0.176
47.52000 1.854
47.54000 -0.058
47.56000 0.653
47.58000 2.321
47.60000 -1.760
47.62000 1.768
47.64000 0.989
47.66000 -0.573
47.68000 2.576
47.70000 -0.243
47.72000 -1.063
47.74000 0.919
47.76000 1.071
47.78000 0.517
47.80000 1.358
47.82000 0.121
47.84000 -1.584
47.86000 2.371
47.88000 2.103
47.90000 -0.815
47.92000 0.295
47.94000 2.083
47.96000 -1.934
47.98000 0.116
48.00000 0.459
48.02000 2.114
48.04000 4.646
48.06000 4.597
48.08000 2.978
48.10000 4.285
48.12000 -0.031
48.14000 1.058
48.16000 1.199
48.18000 0.046
48.20000 1.182
48.22000 2.183
48.24000 -2.632
48.26000 -2.587
48.28000 1.862
48.30000 3.256
48.32000 5.281
48.34000 3.192
48.36000 3.930
48.38000 2.396
48.40000 -1.790
48.42000 -1.171
48.44000 4.736
48.46000 5.546
48.48000 5.739
48.50000 4.760
48.52000 -0.110
48.54000 -1.344
48.56000 -0.650
48.58000 1.670
48.60000 0.366
48.62000 5.679
48.64000 2.131
48.66000 2.348
48.68000 1.178
48.70000 3.572
48.72000 2.351
48.74000 0.586
48.76000 1.563
48.78000 4.226
48.80000 0.879
48.82000 -2.603
48.84000 0.282
48.86000 0.962
48.88000 2.951
48.90000 -1.119
48.92000 -2.349
48.94000 0.783
48.96000 -1.321
48.98000 -1.502
49.00000 0.030
49.02000 -0.268
49.04000 0.956
49.06000 1.145
49.08000 1.154
49.10000 3.135
49.12000 1.520
49.14000 0.586
49.16000 2.042
49.18000 -2.515
49.20000 -1.570
49.22000 -1.084
49.24000 2.426
49.26000 5.181
49.28000 7.138
49.30000 3.626
49.32000 1.669
49.34000 1.207
49.36000 1.030
49.38000 2.023
49.40000 2.253
49.42000 2.346
49.44000 2.356
49.46000 2.825
49.48000 -1.583
49.50000 -1.016
49.52000 5.278
49.54000 3.047
49.56000 0.302
49.58000 -0.604
49.60000 4.779
49.62000 2.808
49.64000 2.571
49.66000 2.046
49.68000 1.188
49.70000 3.360
49.72000 5.296
49.74000 3.019
49.76000 2.364
49.78000 5.731
49.80000 3.751
49.82000 2.368
49.84000 4.414
49.86000 6.887
49.88000 0.788
49.90000 -1.127
49.92000 3.275
49.94000 3.635
49.96000 0.936
49.98000 -2.055
50.00000 -1.543
50.02000 -0.251
50.04000 2.366
50.06000 0.210
50.08000 1.291
50.10000 3.002
50.12000 1.149
50.14000 -0.014
50.16000 2.885
50.18000 3.906
50.20000 2.718
50.22000 3.157
50.24000 1.535
50.26000 1.616
50.28000 3.066
50.30000 0.772
50.32000 -2.023
50.34000 2.919
50.36000 6.187
50.38000 4.645
50.40000 8.466
50.42000 5.685
50.44000 5.929
50.46000 4.476
50.48000 -0.486
50.50000 -2.467
50.52000 3.614
50.54000 1.921
50.56000 6.137
50.58000 5.602
50.60000 0.407
50.62000 2.378
50.64000 4.764
50.66000 4.976
50.68000 4.601
50.70000 5.465
50.72000 3.455
50.74000 1.385
50.76000 2.148
50.78000 4.596
50.80000 3.613
50.82000 3.353
50.84000 3.888
50.86000 3.822
50.88000 1.329
50.90000 -2.483
50.92000 1.107
50.94000 4.041
50.96000 4.421
50.98000 4.499
51.00000 3.636
51.02000 3.251
51.04000 1.326
51.06000 5.392
51.08000 4.272
51.10000 0.711
51.12000 -0.409
51.14000 1.319
51.16000 -0.058
51.18000 2.177
51.20000 2.394
51.22000 3.765
51.24000 4.830
51.26000 2.735
51.28000 1.758
51.30000 1.491
51.32000 0.018
51.34000 2.409
51.36000 -0.666
51.38000 2.063
51.40000 4.533
51.42000 1.218
51.44000 3.727
51.46000 5.910
51.48000 1.912
51.50000 -2.488
51.52000 -1.482
51.54000 0.590
51.56000 0.352
51.58000 0.245
51.60000 3.407
51.62000 4.016
51.64000 1.393
51.66000 1.369
51.68000 1.489
51.70000 -0.135
51.72000 0.563
51.74000 -0.886
51.76000 0.070
51.78000 1.456
51.80000 0.836
51.82000 0.492
51.84000 -0.688
51.86000 -0.789
51.88000 -0.022
51.90000 0.628
51.92000 -0.099
51.94000 -2.445
51.96000 0.156
51.98000 4.299
52.00000 -0.092
52.02000 2.396
52.04000 2.353
52.06000 4.101
52.08000 6.190
52.10000 1.816
52.12000 2.546
52.14000 0.065
52.16000 -0.107
52.18000 2.053
52.20000 2.307
52.22000 -0.064
52.24000 0.493
52.26000 0.938
52.28000 -1.019
52.30000 -2.479
52.32000 -1.101
52.34000 0.933
52.36000 2.728
52.38000 5.684
52.40000 0.985
52.42000 0.744
52.44000 -0.076
52.46000 1.028
52.48000 0.639
52.50000 3.137
52.52000 0.800
52.54000 0.641
52.56000 -0.028
52.58000 0.966
52.60000 2.621
52.62000 4.997
52.64000 4.304
52.66000 2.308
52.68000 2.118
52.70000 -0.546
52.72000 0.437
52.74000 2.825
52.76000 1.808
52.78000 2.363
52.80000 0.297
52.82000 0.783
52.84000 1.259
52.86000 1.895
52.88000 -0.109
52.90000 -0.609
52.92000 1.109
52.94000 1.740
52.96000 -2.293
52.98000 -1.968
53.00000 0.477
53.02000 0.230
53.04000 -1.848
53.06000 -1.047
53.08000 -2.140
53.10000 1.207
53.12000 1.406
53.14000 0.527
53.16000 2.026
53.18000 0.944
53.20000 1.770
53.22000 -2.274
53.24000 -0.366
53.26000 -0.713
53.28000 -0.856
53.30000 -2.471
53.32000 0.353
53.34000 2.315
53.36000 4.033
53.38000 3.418
53.40000 2.581
53.42000 0.052
53.44000 -1.288
53.46000 -1.002
53.48000 0.552
53.50000 5.285
53.52000 2.680
53.54000 0.283
53.56000 -1.897
53.58000 0.709
53.60000 0.728
53.62000 2.167
53.64000 -0.526
53.66000 0.052
53.68000 0.210
53.70000 1.394
53.72000 -1.116
53.74000 -0.560
53.76000 -0.302
53.78000 -0.488
53.80000 2.222
53.82000 -1.372
53.84000 0.300
53.86000 -0.560
53.88000 -1.868
53.90000 -1.342
53.92000 -2.365
53.94000 1.449
53.96000 0.275
53.98000 1.014
54.00000 0.667
54.02000 1.779
54.04000 3.148
54.06000 2.481
54.08000 1.951
54.10000 2.735
54.12000 3.538
54.14000 0.808
54.16000 0.913
54.18000 1.047
54.20000 2.016
54.22000 -2.430
54.24000 0.153
54.26000 2.524
54.28000 2.819
54.30000 2.197
54.32000 2.549
54.34000 0.798
54.36000 1.380
54.38000 -0.778
54.40000 -1.773
54.42000 -0.161
54.44000 1.922
54.46000 1.436
54.48000 -1.912
54.50000 -1.623
54.52000 0.277
54.54000 6.264
54.56000 5.315
54.58000 7.878
54.60000 5.436
54.62000 -1.387
54.64000 0.733
54.66000 1.184
54.68000 0.615
54.70000 2.143
54.72000 -2.409
54.74000 -1.661
54.76000 1.034
54.78000 0.648
54.80000 -0.643
54.82000 1.696
54.84000 -0.952
54.86000 -0.134
54.88000 -0.484
54.90000 3.594
54.92000 2.667
54.94000 3.815
54.96000 2.484
54.98000 5.603
55.00000 3.395
55.02000 0.743
55.04000 2.661
55.06000 3.490
55.08000 -0.256
55.10000 -1.046
55.12000 0.366
55.14000 -2.386
55.16000 -1.042
55.18000 1.878
55.20000 4.511
55.22000 5.629
55.24000 2.739
55.26000 5.849
55.28000 4.949
55.30000 4.911
55.32000 5.217
55.34000 2.854
55.36000 -0.891
55.38000 0.786
55.40000 3.305
55.42000 2.875
55.44000 2.015
55.46000 3.286
55.48000 1.000
55.50000 3.281
55.52000 3.748
55.54000 -1.234
55.56000 0.667
55.58000 3.628
55.60000 0.880
55.62000 1.095
55.64000 -0.538
55.66000 -1.112
55.68000 1.248
55.70000 3.980
55.72000 3.280
55.74000 -0.020
55.76000 2.306
55.78000 3.418
55.80000 3.360
55.82000 -0.594
55.84000 0.428
55.86000 2.005
55.88000 8.554
55.90000 6.539
55.92000 6.464
55.94000 6.333
55.96000 4.301
55.98000 2.869
56.00000 0.950
56.02000 3.353
56.04000 6.066
56.06000 5.715
56.08000 1.515
56.10000 -1.380
56.12000 -2.260
56.14000 0.428
56.16000 -0.538
56.18000 -0.138
56.20000 3.283
56.22000 1.079
56.24000 1.185
56.26000 6.187
56.28000 3.414
56.30000 2.606
56.32000 0.323
56.34000 3.152
56.36000 0.230
56.38000 -2.345
56.40000 1.920
56.42000 3.551
56.44000 1.665
56.46000 -0.433
56.48000 1.549
56.50000 -1.224
56.52000 1.315
56.54000 -1.094
56.56000 -1.074
56.58000 0.806
56.60000 1.983
56.62000 2.817
56.64000 1.474
56.66000 2.021
56.68000 1.638
56.70000 0.956
56.72000 -1.866
56.74000 -0.606
56.76000 0.415
56.78000 2.071
56.80000 3.002
56.82000 2.133
56.84000 3.760
56.86000 2.831
56.88000 3.777
56.90000 3.678
56.92000 0.606
56.94000 0.033
56.96000 2.781
56.98000 1.395
57.00000 1.003
57.02000 0.267
57.04000 -1.065
57.06000 -2.348
57.08000 3.100
57.10000 3.732
57.12000 1.413
57.14000 2.249
57.16000 1.573
57.18000 0.622
57.20000 0.434
57.22000 0.277
57.24000 4.199
57.26000 4.316
57.28000 4.004
57.30000 3.046
57.32000 3.934
57.34000 1.981
57.36000 3.915
57.38000 1.144
57.40000 3.820
57.42000 2.542
57.44000 0.970
57.46000 -0.733
57.48000 -0.135
57.50000 0.529
57.52000 1.161
57.54000 1.442
57.56000 0.245
57.58000 -2.244
57.60000 -0.699
57.62000 -0.962
57.64000 0.641
57.66000 2.454
57.68000 5.817
57.70000 3.285
57.72000 0.790
57.74000 3.102
57.76000 2.710
57.78000 2.513
57.80000 0.030
57.82000 -1.792
57.84000 -1.250
57.86000 2.034
57.88000 -0.551
57.90000 0.743
57.92000 0.662
57.94000 -1.285
57.96000 -1.079
57.98000 0.895
58.00000 -1.625
58.02000 1.369
58.04000 1.083
58.06000 -2.276
58.08000 -0.448
58.10000 -0.963
58.12000 -2.337
58.14000 -0.721
58.16000 0.155
58.18000 -1.035
58.20000 0.579
58.22000 2.953
58.24000 2.286
58.26000 -1.054
58.28000 -1.091
58.30000 -0.771
58.32000 1.305
58.34000 2.035
58.36000 1.744
58.38000 1.829
58.40000 2.461
58.42000 3.406
58.44000 2.189
58.46000 2.139
58.48000 0.515
58.50000 2.687
58.52000 2.060
58.54000 1.188
58.56000 1.800
58.58000 -2.321
58.60000 0.484
58.62000 0.394
58.64000 3.392
58.66000 4.408
58.68000 2.937
58.70000 1.738
58.72000 0.411
58.74000 0.103
58.76000 1.081
58.78000 1.393
58.80000 0.427
58.82000 2.212
58.84000 1.592
58.86000 0.104
58.88000 -2.313
58.90000 -0.631
58.92000 5.081
58.94000 5.076
58.96000 3.217
58.98000 2.560
59.00000 0.670
59.02000 -0.963
59.04000 1.113
59.06000 5.930
59.08000 5.732
59.10000 -0.567
59.12000 -1.893
59.14000 0.045
59.16000 2.106
59.18000 2.237
59.20000 -2.303
59.22000 2.695
59.24000 1.430
59.26000 -0.265
59.28000 2.326
59.30000 4.391
59.32000 3.136
59.34000 1.849
59.36000 -1.397
59.38000 -0.147
59.40000 3.092
59.42000 2.096
59.44000 2.232
59.46000 0.083
59.48000 0.314
59.50000 0.308
59.52000 0.299
59.54000 1.069
59.56000 1.051
59.58000 2.033
59.60000 0.395
59.62000 2.882
59.64000 1.844
59.66000 -2.285
59.68000 -1.893
59.70000 1.436
59.72000 5.516
59.74000 4.175
59.76000 4.286
59.78000 3.660
59.80000 1.342
59.82000 1.148
59.84000 3.474
59.86000 2.494
59.88000 2.832
59.90000 0.784
59.92000 1.611
59.94000 4.061
59.96000 2.112
59.98000 0.482
60.00000 1.150
60.02000 0.865
60.04000 1.065
60.06000 -1.135
60.08000 3.175
60.10000 5.169
60.12000 -1.012
60.14000 2.864
60.16000 5.174
60.18000 2.057
60.20000 1.158
60.22000 1.063
60.24000 1.740
60.26000 0.720
60.28000 1.418
60.30000 3.068
60.32000 4.042
60.34000 4.148
60.36000 3.893
60.38000 0.410
60.40000 -2.253
60.42000 -1.780
60.44000 1.259
60.46000 1.378
60.48000 2.106
60.50000 0.704
60.52000 2.360
60.54000 -0.386
60.56000 1.389
60.58000 4.573
60.60000 4.038
60.62000 1.762
60.64000 1.840
60.66000 3.009
60.68000 -0.482
60.70000 2.504
60.72000 -1.321
60.74000 0.277
60.76000 4.305
60.78000 -0.118
60.80000 -2.179
60.82000 2.541
60.84000 5.513
60.86000 2.764
60.88000 3.586
60.90000 4.009
60.92000 4.490
60.94000 0.686
60.96000 -0.745
60.98000 0.829
61.00000 2.348
61.02000 4.471
61.04000 2.627
61.06000 -0.773
61.08000 -2.225
61.10000 0.545
61.12000 1.825
61.14000 1.961
61.16000 5.230
61.18000 2.997
61.20000 -0.680
61.22000 -1.701
61.24000 -0.334
61.26000 3.183
61.28000 2.452
61.30000 1.656
61.32000 1.715
61.34000 2.861
61.36000 3.822
61.38000 3.907
61.40000 1.939
61.42000 1.964
61.44000 1.528
61.46000 -2.207
61.48000 1.219
61.50000 1.372
61.52000 -0.585
61.54000 5.435
61.56000 1.040
61.58000 0.281
61.60000 3.582
61.62000 3.059
61.64000 4.004
61.66000 0.107
61.68000 -0.057
61.70000 3.320
61.72000 3.605
61.74000 4.489
61.76000 2.430
61.78000 4.535
61.80000 5.227
61.82000 2.965
61.84000 3.666
61.86000 4.096
61.88000 2.077
61.90000 -2.189
61.92000 -1.117
61.94000 -0.712
61.96000 0.445
61.98000 3.772
62.00000 3.265
62.02000 2.786
62.04000 1.994
62.06000 2.670
62.08000 4.249
62.10000 2.100
62.12000 2.204
62.14000 2.243
62.16000 3.022
62.18000 0.078
62.20000 -0.538
62.22000 2.433
62.24000 4.900
62.26000 1.961
62.28000 3.385
62.30000 5.804
62.32000 1.849
62.34000 2.848
62.36000 0.208
62.38000 0.785
62.40000 1.904
62.42000 2.330
62.44000 3.346
62.46000 1.606
62.48000 -0.288
62.50000 0.903
62.52000 -0.542
62.54000 -1.523
62.56000 -1.795
62.58000 -0.361
62.60000 0.518
62.62000 2.024
62.64000 -0.755
62.66000 0.429
62.68000 2.968
62.70000 3.907
62.72000 1.606
62.74000 -2.201
62.76000 0.345
62.78000 2.266
62.80000 2.499
62.82000 -1.322
62.84000 -1.498
62.86000 2.556
62.88000 3.465
62.90000 -0.440
62.92000 -1.073
62.94000 1.535
62.96000 2.379
62.98000 0.991
63.00000 0.119
63.02000 2.336
63.04000 4.848
63.06000 3.307
63.08000 0.429
63.10000 0.148
63.12000 -0.765
63.14000 0.732
63.16000 2.647
63.18000 0.331
63.20000 2.701
63.22000 2.875
63.24000 1.458
63.26000 -2.193
63.28000 -1.115
63.30000 -0.376
63.32000 2.419
63.34000 2.870
63.36000 2.241
63.38000 2.469
63.40000 -0.320
63.42000 -2.195
63.44000 0.063
63.46000 1.481
63.48000 1.097
63.50000 4.172
63.52000 3.339
63.54000 3.340
63.56000 3.202
63.58000 0.534
63.60000 4.016
63.62000 2.350
63.64000 0.144
63.66000 0.712
63.68000 1.662
63.70000 2.979
63.72000 2.313
63.74000 0.181
63.76000 1.898
63.78000 -2.193
63.80000 -1.250
63.82000 1.475
63.84000 1.318
63.86000 0.843
63.88000 1.503
63.90000 1.485
63.92000 0.321
63.94000 1.806
63.96000 2.843
63.98000 1.259
64.00000 0.725
64.02000 -1.846
64.04000 -1.657
64.06000 -0.266
64.08000 -0.591
64.10000 1.051
64.12000 2.454
64.14000 3.193
64.16000 0.863
64.18000 1.765
64.20000 0.251
64.22000 1.946
64.24000 1.953
64.26000 2.323
64.28000 2.646
64.30000 -1.122
64.32000 -1.193
64.34000 0.007
64.36000 -0.518
64.38000 1.103
64.40000 1.395
64.42000 0.246
64.44000 1.220
64.46000 2.779
64.48000 1.274
64.50000 1.927
64.52000 -0.892
64.54000 1.901
64.56000 1.365
64.58000 2.957
64.60000 1.334
64.62000 -0.750
64.64000 -0.557
64.66000 1.052
64.68000 0.303
64.70000 0.227
64.72000 1.226
64.74000 0.097
64.76000 0.744
64.78000 0.249
64.80000 1.378
64.82000 2.947
64.84000 1.182
64.86000 1.376
64.88000 3.370
64.90000 4.438
64.92000 0.717
64.94000 -1.909
64.96000 -2.101
64.98000 -0.987
65.00000 -2.194
65.02000 -0.401
65.04000 0.536
65.06000 1.093
65.08000 1.142
65.10000 -0.243
65.12000 3.761
65.14000 1.359
65.16000 -0.188
65.18000 0.559
65.20000 -1.195
65.22000 1.426
65.24000 0.577
65.26000 0.430
65.28000 -0.199
65.30000 -0.122
65.32000 2.104
65.34000 2.699
65.36000 -1.956
65.38000 -2.179
65.40000 1.069
65.42000 3.732
65.44000 1.097
65.46000 1.378
65.48000 0.605
65.50000 1.074
65.52000 -0.217
65.54000 3.596
65.56000 1.061
65.58000 1.765
65.60000 1.612
65.62000 0.016
65.64000 -1.191
65.66000 0.225
65.68000 1.837
65.70000 2.503
65.72000 2.368
65.74000 0.735
65.76000 1.682
65.78000 -0.336
65.80000 -1.105
65.82000 -0.035
65.84000 1.043
65.86000 3.472
65.88000 3.104
65.90000 -1.781
65.92000 0.357
65.94000 0.898
65.96000 0.415
65.98000 0.459
66.00000 1.175
66.02000 -0.244
66.04000 0.030
66.06000 0.794
66.08000 2.780
66.10000 -0.625
66.12000 -2.212
66.14000 -0.899
66.16000 1.200
66.18000 -0.185
66.20000 -0.379
66.22000 0.578
66.24000 2.377
66.26000 2.220
66.28000 2.789
66.30000 2.561
66.32000 3.376
66.34000 4.026
66.36000 4.211
66.38000 3.221
66.40000 1.262
66.42000 2.814
66.44000 3.460
66.46000 3.280
66.48000 4.089
66.50000 3.777
66.52000 4.009
66.54000 6.084
66.56000 5.656
66.58000 2.797
66.60000 3.310
66.62000 5.007
66.64000 4.752
66.66000 2.518
66.68000 3.723
66.70000 6.269
66.72000 5.973
66.74000 5.772
66.76000 8.256
66.78000 5.572
66.80000 5.610
66.82000 5.985
66.84000 7.434
66.86000 7.342
66.88000 7.741
66.90000 8.063
66.92000 7.199
66.94000 4.671
66.96000 5.005
66.98000 6.938
67.00000 8.333
67.02000 8.957
67.04000 11.915
67.06000 13.157
67.08000 12.620
67.10000 9.326
67.12000 7.895
67.14000 10.057
67.16000 12.361
67.18000 12.770
67.20000 10.516
67.22000 11.699
67.24000 12.721
67.26000 10.804
67.28000 10.714
67.30000 11.561
67.32000 11.878
67.34000 11.749
67.36000 12.467
67.38000 12.294
67.40000 10.975
67.42000 9.868
67.44000 10.352
67.46000 8.168
67.48000 7.507
67.50000 6.346
67.52000 6.039
67.54000 8.107
67.56000 9.363
67.58000 9.838
67.60000 9.914
67.62000 9.504
67.64000 7.409
67.66000 9.127
67.68000 9.505
67.70000 7.893
67.72000 6.681
67.74000 7.759
67.76000 8.180
67.78000 6.630
67.80000 6.412
67.82000 4.351
67.84000 3.766
67.86000 2.651
67.88000 2.307
67.90000 3.112
67.92000 3.190
67.94000 5.388
67.96000 5.048
67.98000 2.152
68.00000 2.391
68.02000 1.958
68.04000 1.242
68.06000 1.780
68.08000 -0.457
68.10000 1.707
68.12000 -0.094
68.14000 -1.082
68.16000 1.244
68.18000 2.708
68.20000 0.352
68.22000 -0.872
68.24000 0.117
68.26000 0.745
68.28000 0.296
68.30000 0.892
68.32000 -2.092
68.34000 -2.137
68.36000 -0.945
68.38000 1.539
68.40000 2.135
68.42000 0.927
68.44000 1.971
68.46000 1.009
68.48000 1.172
68.50000 1.428
68.52000 0.275
68.54000 0.061
68.56000 -0.989
68.58000 -1.403
68.60000 -0.196
68.62000 1.519
68.64000 2.166
68.66000 1.584
68.68000 1.009
68.70000 -0.440
68.72000 -0.880
68.74000 -0.134
68.76000 0.010
68.78000 1.305
68.80000 1.215
68.82000 3.153
68.84000 5.609
68.86000 3.047
68.88000 1.580
68.90000 -1.480
68.92000 -2.060
68.94000 1.907
68.96000 2.224
68.98000 4.093
69.00000 1.461
69.02000 0.479
69.04000 -0.110
69.06000 -0.283
69.08000 -0.003
69.10000 2.096
69.12000 2.755
69.14000 1.483
69.16000 -0.124
69.18000 0.641
69.20000 1.775
69.22000 0.945
69.24000 0.236
69.26000 1.401
69.28000 3.587
69.30000 0.848
69.32000 0.433
69.34000 -0.188
69.36000 1.905
69.38000 1.903
69.40000 2.989
69.42000 1.398
69.44000 1.401
69.46000 2.215
69.48000 3.916
69.50000 1.391
69.52000 0.870
69.54000 1.363
69.56000 4.087
69.58000 1.628
69.60000 0.553
69.62000 -0.611
69.64000 1.818
69.66000 1.547
69.68000 2.830
69.70000 0.134
69.72000 -1.989
69.74000 0.334
69.76000 0.224
69.78000 3.201
69.80000 2.055
69.82000 2.245
69.84000 4.317
69.86000 4.468
69.88000 2.441
69.90000 2.028
69.92000 2.447
69.94000 1.680
69.96000 1.587
69.98000 0.343
70.00000 1.406
70.02000 2.335
70.04000 -0.671
70.06000 -1.501
70.08000 0.948
70.10000 0.712
70.12000 1.718
70.14000 0.010
70.16000 1.364
70.18000 1.106
70.20000 -0.168
70.22000 1.201
70.24000 1.702
70.26000 -1.261
70.28000 -1.870
70.30000 1.010
70.32000 1.010
70.34000 1.552
70.36000 0.342
70.38000 0.572
70.40000 0.017
70.42000 -0.926
70.44000 0.257
70.46000 -1.467
70.48000 2.316
70.50000 0.972
70.52000 1.021
70.54000 -0.097
70.56000 -1.023
70.58000 0.008
70.60000 1.175
70.62000 0.137
70.64000 2.579
70.66000 1.987
70.68000 -1.390
70.70000 -0.535
70.72000 -0.622
70.74000 2.875
70.76000 3.053
70.78000 -1.605
70.80000 -1.993
70.82000 2.118
70.84000 1.093
70.86000 0.188
70.88000 2.981
70.90000 1.168
70.92000 0.934
70.94000 0.333
70.96000 0.364
70.98000 0.701
71.00000 1.460
71.02000 0.915
71.04000 0.258
71.06000 -0.163
71.08000 0.595
71.10000 -0.196
71.12000 0.865
71.14000 0.391
71.16000 -0.031
71.18000 -0.446
71.20000 1.313
71.22000 2.585
71.24000 0.563
71.26000 0.755
71.28000 2.749
71.30000 0.756
71.32000 1.789
71.34000 1.250
71.36000 0.276
71.38000 2.146
71.40000 1.559
71.42000 1.979
71.44000 -1.683
71.46000 -1.969
71.48000 -0.137
71.50000 -0.879
71.52000 0.680
71.54000 3.368
71.56000 1.051
71.58000 -1.674
71.60000 2.407
71.62000 2.475
71.64000 2.636
71.66000 0.544
71.68000 1.063
71.70000 1.245
71.72000 2.096
71.74000 1.811
71.76000 -0.183
71.78000 2.877
71.80000 1.365
71.82000 -0.904
71.84000 -1.946
71.86000 0.924
71.88000 -1.023
71.90000 -0.161
71.92000 0.751
71.94000 1.185
71.96000 0.224
71.98000 0.040
72.00000 -1.637
72.02000 -1.811
72.04000 -1.935
72.06000 0.718
72.08000 -0.217
72.10000 -1.916
72.12000 1.678
72.14000 1.852
72.16000 0.538
72.18000 1.552
72.20000 1.741
72.22000 3.493
72.24000 2.671
72.26000 1.546
72.28000 2.415
72.30000 3.869
72.32000 2.673
72.34000 3.072
72.36000 4.481
72.38000 2.313
72.40000 2.342
72.42000 1.106
72.44000 -0.407
72.46000 -0.248
72.48000 1.975
72.50000 2.166
72.52000 -0.133
72.54000 -0.494
72.56000 3.509
72.58000 2.397
72.60000 1.014
72.62000 1.699
72.64000 1.570
72.66000 2.239
72.68000 -1.892
72.70000 1.838
72.72000 2.432
72.74000 2.042
72.76000 -0.207
72.78000 0.774
72.80000 -1.235
72.82000 -1.000
72.84000 1.471
72.86000 2.453
72.88000 4.272
72.90000 2.249
72.92000 0.807
72.94000 2.454
72.96000 1.536
72.98000 0.037
73.00000 -1.897
73.02000 0.333
73.04000 -1.762
73.06000 -0.506
73.08000 4.692
73.10000 4.742
73.12000 2.018
73.14000 2.372
73.16000 1.103
73.18000 2.564
73.20000 2.914
73.22000 2.558
73.24000 0.790
73.26000 3.001
73.28000 3.405
73.30000 2.376
73.32000 1.273
73.34000 2.362
73.36000 4.069
73.38000 1.692
73.40000 -0.161
73.42000 2.917
73.44000 2.974
73.46000 3.388
73.48000 2.803
73.50000 0.869
73.52000 -1.136
73.54000 -0.523
73.56000 -0.520
73.58000 0.383
73.60000 1.530
73.62000 2.464
73.64000 1.763
73.66000 -0.427
73.68000 1.318
73.70000 -0.304
73.72000 0.948
73.74000 0.283
73.76000 1.755
73.78000 1.612
73.80000 4.292
73.82000 4.639
73.84000 2.832
73.86000 2.614
73.88000 3.240
73.90000 2.813
73.92000 2.536
73.94000 2.378
73.96000 3.449
73.98000 3.419
74.00000 1.114
74.02000 -1.850
74.04000 1.026
74.06000 2.281
74.08000 0.659
74.10000 1.947
74.12000 2.467
74.14000 3.675
74.16000 5.939
74.18000 5.448
74.20000 5.808
74.22000 4.084
74.24000 1.199
74.26000 3.587
74.28000 5.074
74.30000 3.893
74.32000 4.325
74.34000 3.388
74.36000 2.540
74.38000 3.950
74.40000 3.334
74.42000 -1.863
74.44000 -0.774
74.46000 1.999
74.48000 4.555
74.50000 4.654
74.52000 2.111
74.54000 -0.206
74.56000 1.096
74.58000 3.287
74.60000 3.635
74.62000 0.530
74.64000 2.065
74.66000 -0.394
74.68000 -0.789
74.70000 1.472
74.72000 2.392
74.74000 1.428
74.76000 1.838
74.78000 0.531
74.80000 1.524
74.82000 2.522
74.84000 5.127
74.86000 5.877
74.88000 1.087
74.90000 -0.685
74.92000 -0.239
74.94000 0.086
74.96000 1.434
74.98000 1.203
75.00000 2.166
75.02000 1.170
75.04000 0.293
75.06000 1.270
75.08000 1.824
75.10000 1.392
75.12000 4.238
75.14000 3.987
75.16000 1.420
75.18000 0.148
75.20000 3.755
75.22000 3.355
75.24000 2.265
75.26000 1.092
75.28000 0.629
75.30000 1.394
75.32000 0.372
75.34000 3.379
75.36000 0.339
75.38000 1.444
75.40000 2.480
75.42000 -1.025
75.44000 -0.474
75.46000 1.158
75.48000 2.242
75.50000 -1.675
75.52000 -0.879
75.54000 0.683
75.56000 0.311
75.58000 0.567
75.60000 1.273
75.62000 -0.022
75.64000 -1.104
75.66000 0.892
75.68000 1.037
75.70000 -0.066
75.72000 1.580
75.74000 0.914
75.76000 1.274
75.78000 1.610
75.80000 1.196
75.82000 -1.909
75.84000 -1.521
75.86000 -1.910
75.88000 -0.124
75.90000 5.412
75.92000 4.628
75.94000 0.989
75.96000 1.501
75.98000 1.219
76.00000 1.288
76.02000 -0.403
76.04000 0.712
76.06000 2.712
76.08000 0.487
76.10000 0.059
76.12000 -1.306
76.14000 0.697
76.16000 2.282
76.18000 1.176
76.20000 3.255
76.22000 1.168
76.24000 2.709
76.26000 2.531
76.28000 3.580
76.30000 4.129
76.32000 3.212
76.34000 -0.603
76.36000 1.589
76.38000 1.212
76.40000 3.918
76.42000 3.766
76.44000 1.213
76.46000 2.643
76.48000 5.408
76.50000 -0.459
76.52000 0.726
76.54000 0.466
76.56000 0.724
76.58000 1.673
76.60000 3.013
76.62000 2.992
76.64000 -0.325
76.66000 0.050
76.68000 3.068
76.70000 4.085
76.72000 3.120
76.74000 1.144
76.76000 -1.899
76.78000 0.020
76.80000 2.979
76.82000 4.212
76.84000 2.213
76.86000 0.316
76.88000 4.154
76.90000 1.873
76.92000 1.406
76.94000 -0.397
76.96000 -0.865
76.98000 -0.764
77.00000 -1.121
77.02000 -0.353
77.04000 1.500
77.06000 3.099
77.08000 2.567
77.10000 0.562
77.12000 3.691
77.14000 2.404
77.16000 1.194
77.18000 3.179
77.20000 4.599
77.22000 2.727
77.24000 4.508
77.26000 1.333
77.28000 1.185
77.30000 0.346
77.32000 0.301
77.34000 0.541
77.36000 3.476
77.38000 2.355
77.40000 -0.762
77.42000 -1.916
77.44000 0.270
77.46000 0.989
77.48000 -0.714
77.50000 1.941
77.52000 2.611
77.54000 1.716
77.56000 3.751
77.58000 0.889
77.60000 -0.449
77.62000 -0.116
77.64000 -0.492
77.66000 2.034
77.68000 1.982
77.70000 1.940
77.72000 4.399
77.74000 0.663
77.76000 2.279
77.78000 0.004
77.80000 -0.836
77.82000 3.010
77.84000 1.557
77.86000 4.301
77.88000 4.830
77.90000 2.694
77.92000 0.745
77.94000 -0.771
77.96000 -1.053
77.98000 0.457
78.00000 0.423
78.02000 1.674
78.04000 4.962
78.06000 3.736
78.08000 2.493
78.10000 0.969
78.12000 0.088
78.14000 -0.802
78.16000 -0.506
78.18000 1.916
78.20000 0.810
78.22000 1.204
78.24000 0.751
78.26000 -1.952
78.28000 -0.899
78.30000 0.563
78.32000 1.258
78.34000 2.628
78.36000 3.513
78.38000 1.562
78.40000 0.552
78.42000 2.252
78.44000 1.942
78.46000 1.403
78.48000 1.115
78.50000 1.350
78.52000 3.362
78.54000 -0.676
78.56000 0.271
78.58000 -0.210
78.60000 0.441
78.62000 -0.456
78.64000 0.346
78.66000 2.002
78.68000 0.690
78.70000 0.073
78.72000 0.707
78.74000 2.348
78.76000 2.113
78.78000 2.086
78.80000 0.953
78.82000 1.901
78.84000 1.200
78.86000 0.550
78.88000 0.866
78.90000 0.066
78.92000 2.336
78.94000 2.326
78.96000 1.113
78.98000 -0.955
79.00000 0.837
79.02000 0.107
79.04000 -1.992
79.06000 -1.627
79.08000 -0.736
79.10000 0.215
79.12000 1.035
79.14000 2.698
79.16000 0.035
79.18000 -0.414
79.20000 2.414
79.22000 1.591
79.24000 1.199
79.26000 2.897
79.28000 -1.226
79.30000 -0.583
79.32000 0.525
79.34000 4.075
79.36000 5.410
79.38000 3.602
79.40000 2.454
79.42000 3.341
79.44000 4.240
79.46000 2.188
79.48000 0.948
79.50000 -2.023
79.52000 0.736
79.54000 0.573
79.56000 0.155
79.58000 0.994
79.60000 2.060
79.62000 2.229
79.64000 0.800
79.66000 0.760
79.68000 0.003
79.70000 -0.507
79.72000 0.623
79.74000 3.241
79.76000 2.946
79.78000 4.215
79.80000 1.112
79.82000 -1.172
79.84000 -0.102
79.86000 1.737
79.88000 3.769
79.90000 2.024
79.92000 3.170
79.94000 7.083
79.96000 4.352
79.98000 5.778
80.00000 4.356
80.02000 3.117
80.04000 1.353
80.06000 1.799
80.08000 1.526
80.10000 4.060
80.12000 1.824
80.14000 -0.541
80.16000 2.875
80.18000 2.898
80.20000 4.715
80.22000 7.510
80.24000 6.235
80.26000 5.730
80.28000 6.301
80.30000 4.472
80.32000 5.538
80.34000 7.424
80.36000 9.120
80.38000 5.458
80.40000 3.383
80.42000 7.551
80.44000 6.782
80.46000 6.991
80.48000 11.359
80.50000 10.320
80.52000 8.492
80.54000 10.920
80.56000 12.526
80.58000 13.073
80.60000 9.376
80.62000 10.534
80.64000 9.783
80.66000 7.605
80.68000 13.322
80.70000 11.522
80.72000 14.595
80.74000 13.969
80.76000 15.081
80.78000 13.515
80.80000 15.434
80.82000 18.869
80.84000 16.026
80.86000 16.617
80.88000 17.540
80.90000 18.530
80.92000 18.235
80.94000 15.773
80.96000 15.959
80.98000 15.167
81.00000 14.084
81.02000 17.255
81.04000 20.138
81.06000 18.270
81.08000 17.660
81.10000 18.191
81.12000 19.125
81.14000 19.213
81.16000 16.351
81.18000 18.740
81.20000 18.188
81.22000 19.283
81.24000 20.795
81.26000 19.289
81.28000 17.239
81.30000 15.317
81.32000 20.960
81.34000 19.025
81.36000 15.749
81.38000 17.384
81.40000 16.607
81.42000 14.728
81.44000 15.509
81.46000 17.660
81.48000 16.592
81.50000 16.509
81.52000 14.555
81.54000 12.922
81.56000 12.853
81.58000 15.940
81.60000 12.277
81.62000 11.719
81.64000 7.023
81.66000 10.941
81.68000 11.686
81.70000 11.182
81.72000 12.641
81.74000 10.539
81.76000 11.599
81.78000 11.385
81.80000 7.135
81.82000 7.660
81.84000 12.471
81.86000 8.547
81.88000 8.968
81.90000 11.333
81.92000 9.344
81.94000 8.142
81.96000 7.586
81.98000 5.485
82.00000 5.405
82.02000 6.552
82.04000 7.868
82.06000 7.030
82.08000 5.576
82.10000 5.783
82.12000 6.067
82.14000 5.723
82.16000 5.773
82.18000 4.338
82.20000 4.207
82.22000 5.249
82.24000 3.976
82.26000 2.702
82.28000 5.839
82.30000 6.649
82.32000 4.104
82.34000 2.122
82.36000 1.877
82.38000 4.047
82.40000 3.478
82.42000 1.337
82.44000 3.281
82.46000 5.949
82.48000 5.311
82.50000 2.847
82.52000 2.650
82.54000 5.119
82.56000 2.302
82.58000 1.816
82.60000 0.141
82.62000 -0.563
82.64000 1.264
82.66000 -0.515
82.68000 -2.076
82.70000 -1.337
82.72000 1.521
82.74000 -0.297
82.76000 1.909
82.78000 2.879
82.80000 3.869
82.82000 4.626
82.84000 3.030
82.86000 5.012
82.88000 3.047
82.90000 0.833
82.92000 2.048
82.94000 1.999
82.96000 2.801
82.98000 3.674
83.00000 2.062
83.02000 2.356
83.04000 3.249
83.06000 0.168
83.08000 -0.192
83.10000 3.461
83.12000 3.919
83.14000 6.105
83.16000 3.708
83.18000 0.415
83.20000 0.407
83.22000 -2.071
83.24000 0.544
83.26000 1.318
83.28000 3.431
83.30000 0.097
83.32000 0.277
83.34000 -0.695
83.36000 -2.066
83.38000 -1.651
83.40000 -1.085
83.42000 -1.045
83.44000 -1.448
83.46000 -1.545
83.48000 -0.109
83.50000 -1.186
83.52000 3.543
83.54000 1.831
83.56000 4.601
83.58000 3.322
83.60000 0.759
83.62000 1.592
83.64000 3.532
83.66000 3.257
83.68000 2.573
83.70000 0.052
83.72000 -2.070
83.74000 0.072
83.76000 2.231
83.78000 1.649
83.80000 1.586
83.82000 1.701
83.84000 2.160
83.86000 1.450
83.88000 2.244
83.90000 6.030
83.92000 2.846
83.94000 2.487
83.96000 2.757
83.98000 0.571
84.00000 -1.652
84.02000 1.994
84.04000 2.324
84.06000 4.830
84.08000 0.394
84.10000 -0.793
84.12000 2.500
84.14000 3.973
84.16000 6.424
84.18000 5.359
84.20000 2.131
84.22000 2.595
84.24000 5.262
84.26000 4.312
84.28000 1.975
84.30000 2.632
84.32000 4.123
84.34000 6.808
84.36000 5.523
84.38000 4.957
84.40000 5.622
84.42000 5.217
84.44000 6.211
84.46000 6.931
84.48000 9.558
84.50000 8.856
84.52000 6.199
84.54000 10.601
84.56000 12.142
84.58000 11.789
84.60000 11.213
84.62000 12.172
84.64000 12.348
84.66000 12.631
84.68000 13.836
84.70000 12.565
84.72000 13.288
84.74000 14.952
84.76000 15.750
84.78000 15.925
84.80000 13.551
84.82000 13.093
84.84000 15.896
84.86000 14.782
84.88000 13.779
84.90000 13.043
84.92000 14.381
84.94000 13.134
84.96000 13.935
84.98000 11.035
85.00000 13.069
85.02000 16.772
85.04000 17.303
85.06000 20.351
85.08000 18.166
85.10000 18.016
85.12000 20.272
85.14000 13.917
85.16000 14.866
85.18000 16.294
85.20000 16.977
85.22000 19.463
85.24000 18.117
85.26000 19.311
85.28000 18.508
85.30000 18.576
85.32000 18.690
85.34000 14.580
85.36000 12.469
85.38000 16.531
85.40000 19.226
85.42000 15.692
85.44000 12.568
85.46000 14.658
85.48000 15.067
85.50000 15.267
85.52000 16.524
85.54000 13.288
85.56000 13.881
85.58000 15.064
85.60000 14.201
85.62000 14.523
85.64000 12.428
85.66000 12.928
85.68000 9.242
85.70000 8.992
85.72000 9.226
85.74000 9.386
85.76000 7.592
85.78000 9.044
85.80000 8.183
85.82000 7.311
85.84000 6.972
85.86000 9.537
85.88000 9.703
85.90000 10.791
85.92000 5.023
85.94000 3.512
85.96000 5.953
85.98000 5.939
86.00000 4.500
86.02000 4.457
86.04000 1.574
86.06000 5.309
86.08000 2.367
86.10000 0.185
86.12000 -0.302
86.14000 1.764
86.16000 2.734
86.18000 4.790
86.20000 4.616
86.22000 2.335
86.24000 0.273
86.26000 3.654
86.28000 2.759
86.30000 1.902
86.32000 0.179
86.34000 -0.837
86.36000 0.227
86.38000 0.754
86.40000 -1.251
86.42000 -1.937
86.44000 -1.255
86.46000 -0.466
86.48000 -0.714
86.50000 -1.074
86.52000 -1.318
86.54000 -0.675
86.56000 0.046
86.58000 1.892
86.60000 1.884
86.62000 3.199
86.64000 -1.388
86.66000 -1.260
86.68000 -1.491
86.70000 0.512
86.72000 2.305
86.74000 3.133
86.76000 1.930
86.78000 0.512
86.80000 0.271
86.82000 -0.565
86.84000 -1.521
86.86000 -0.908
86.88000 0.728
86.90000 -1.604
86.92000 -1.871
86.94000 1.608
86.96000 2.465
86.98000 0.270
87.00000 0.558
87.02000 -0.727
87.04000 -0.481
87.06000 0.054
87.08000 1.071
87.10000 2.592
87.12000 1.490
87.14000 -1.844
87.16000 -0.149
87.18000 0.316
87.20000 1.632
87.22000 2.260
87.24000 -0.173
87.26000 -0.469
87.28000 1.339
87.30000 1.547
87.32000 0.887
87.34000 0.734
87.36000 1.973
87.38000 3.322
87.40000 1.538
87.42000 0.716
87.44000 -1.405
87.46000 0.365
87.48000 -0.320
87.50000 -1.790
87.52000 -0.511
87.54000 1.846
87.56000 1.063
87.58000 3.342
87.60000 1.364
87.62000 3.703
87.64000 4.522
87.66000 3.965
87.68000 2.970
87.70000 3.633
87.72000 3.731
87.74000 4.028
87.76000 5.702
87.78000 1.897
87.80000 -1.739
87.82000 -0.416
87.84000 0.685
87.86000 2.862
87.88000 5.499
87.90000 2.739
87.92000 1.646
87.94000 0.735
87.96000 3.637
87.98000 2.387
88.00000 3.354
88.02000 0.956
88.04000 2.560
88.06000 2.799
88.08000 4.013
88.10000 2.644
88.12000 1.027
88.14000 2.771
88.16000 2.825
88.18000 4.590
88.20000 0.620
88.22000 1.173
88.24000 2.848
88.26000 0.624
88.28000 0.018
88.30000 0.948
88.32000 0.041
88.34000 2.274
88.36000 2.364
88.38000 -1.378
88.40000 -1.129
88.42000 -1.763
88.44000 -0.014
88.46000 1.813
88.48000 1.543
88.50000 2.845
88.52000 2.724
88.54000 1.608
88.56000 2.154
88.58000 1.520
88.60000 3.059
88.62000 2.386
88.64000 -0.367
88.66000 1.123
88.68000 4.998
88.70000 3.231
88.72000 3.305
88.74000 2.202
88.76000 2.004
88.78000 2.040
88.80000 0.016
88.82000 0.136
88.84000 2.304
88.86000 0.524
88.88000 0.674
88.90000 -0.959
88.92000 0.087
88.94000 0.801
88.96000 1.348
88.98000 0.851
89.00000 2.817
89.02000 -0.953
89.04000 0.749
89.06000 3.136
89.08000 2.015
89.10000 0.556
89.12000 3.263
89.14000 2.790
89.16000 2.965
89.18000 3.193
89.20000 2.888
89.22000 2.111
89.24000 0.980
89.26000 -0.385
89.28000 2.523
89.30000 0.296
89.32000 -1.761
89.34000 -1.361
89.36000 0.002
89.38000 0.740
89.40000 1.918
89.42000 1.708
89.44000 0.286
89.46000 0.775
89.48000 -0.355
89.50000 -1.254
89.52000 0.586
89.54000 1.663
89.56000 3.047
89.58000 2.813
89.60000 2.518
89.62000 2.965
89.64000 -1.755
89.66000 -0.281
89.68000 2.296
89.70000 2.942
89.72000 0.912
89.74000 -1.763
89.76000 0.107
89.78000 0.154
89.80000 0.636
89.82000 1.431
89.84000 3.515
89.86000 0.191
89.88000 -1.315
89.90000 -0.087
89.92000 -0.232
89.94000 -0.845
89.96000 -0.521
89.98000 -0.940
90.00000 -1.468
90.02000 0.141
90.04000 1.856
90.06000 1.179
90.08000 0.684
90.10000 -0.390
90.12000 0.582
90.14000 -1.164
90.16000 1.328
90.18000 1.023
90.20000 3.448
90.22000 1.558
90.24000 0.169
90.26000 3.120
90.28000 3.817
90.30000 -1.160
90.32000 1.094
90.34000 0.693
90.36000 -1.149
90.38000 -1.391
90.40000 1.539
90.42000 -0.105
90.44000 1.215
90.46000 1.714
90.48000 1.788
90.50000 0.169
90.52000 1.016
90.54000 0.981
90.56000 -1.671
90.58000 1.374
90.60000 2.311
90.62000 1.726
90.64000 5.305
90.66000 3.825
90.68000 0.864
90.70000 0.073
90.72000 0.425
90.74000 -1.401
90.76000 -1.026
90.78000 0.672
90.80000 1.862
90.82000 2.785
90.84000 2.103
90.86000 1.594
90.88000 1.054
90.90000 -1.784
90.92000 0.780
90.94000 2.266
90.96000 2.777
90.98000 -0.011
91.00000 -0.416
91.02000 1.951
91.04000 2.790
91.06000 2.730
91.08000 3.277
91.10000 2.395
91.12000 3.326
91.14000 0.829
91.16000 0.948
91.18000 1.809
91.20000 1.694
91.22000 0.376
91.24000 1.622
91.26000 2.340
91.28000 2.025
91.30000 -0.130
91.32000 0.145
91.34000 -0.275
91.36000 2.141
91.38000 4.514
91.40000 2.538
91.42000 2.074
91.44000 3.764
91.46000 1.184
91.48000 0.346
91.50000 5.332
91.52000 2.318
91.54000 1.340
91.56000 3.116
91.58000 -0.515
91.60000 2.326
91.62000 3.104
91.64000 1.757
91.66000 0.339
91.68000 2.253
91.70000 1.159
91.72000 -1.749
91.74000 0.101
91.76000 2.606
91.78000 2.671
91.80000 2.278
91.82000 1.688
91.84000 3.393
91.86000 2.261
91.88000 1.354
91.90000 2.499
91.92000 2.475
91.94000 -1.094
91.96000 -0.245
91.98000 0.073
92.00000 3.465
92.02000 5.673
92.04000 1.333
92.06000 2.723
92.08000 3.064
92.10000 0.933
92.12000 4.817
92.14000 2.624
92.16000 1.709
92.18000 4.115
92.20000 0.842
92.22000 2.319
92.24000 0.872
92.26000 -0.265
92.28000 -0.304
92.30000 0.583
92.32000 1.754
92.34000 0.219
92.36000 2.479
92.38000 1.456
92.40000 1.327
92.42000 1.862
92.44000 2.314
92.46000 4.183
92.48000 4.304
92.50000 1.346
92.52000 -0.515
92.54000 0.398
92.56000 0.048
92.58000 1.165
92.60000 1.818
92.62000 0.378
92.64000 -0.035
92.66000 0.875
92.68000 2.831
92.70000 1.753
92.72000 -0.102
92.74000 4.826
92.76000 4.306
92.78000 -0.047
92.80000 -1.135
92.82000 1.229
92.84000 2.480
92.86000 4.528
92.88000 3.493
92.90000 3.875
92.92000 -0.115
92.94000 1.926
92.96000 6.911
92.98000 4.301
93.00000 1.027
93.02000 1.193
93.04000 0.689
93.06000 2.102
93.08000 0.443
93.10000 1.765
93.12000 3.905
93.14000 1.357
93.16000 0.035
93.18000 0.406
93.20000 2.319
93.22000 2.602
93.24000 2.765
93.26000 1.438
93.28000 0.197
93.30000 1.600
93.32000 0.255
93.34000 1.676
93.36000 0.922
93.38000 1.332
93.40000 1.710
93.42000 2.364
93.44000 2.923
93.46000 1.653
93.48000 -1.751
93.50000 -1.167
93.52000 3.587
93.54000 1.013
93.56000 2.455
93.58000 2.515
93.60000 2.943
93.62000 1.143
93.64000 0.810
93.66000 0.874
93.68000 3.121
93.70000 3.224
93.72000 4.569
93.74000 1.673
93.76000 3.454
93.78000 2.643
93.80000 0.535
93.82000 0.172
93.84000 4.931
93.86000 3.097
93.88000 1.501
93.90000 1.914
93.92000 1.684
93.94000 1.094
93.96000 4.624
93.98000 4.509
94.00000 3.940
94.02000 6.303
94.04000 5.158
94.06000 4.948
94.08000 3.355
94.10000 4.259
94.12000 5.111
94.14000 3.420
94.16000 1.834
94.18000 3.507
94.20000 2.287
94.22000 2.902
94.24000 3.173
94.26000 0.413
94.28000 2.006
94.30000 3.179
94.32000 1.606
94.34000 2.013
94.36000 2.017
94.38000 1.773
94.40000 2.433
94.42000 -1.264
94.44000 -1.770
94.46000 0.176
94.48000 3.150
94.50000 2.653
94.52000 2.846
94.54000 1.286
94.56000 0.872
94.58000 3.078
94.60000 4.152
94.62000 4.236
94.64000 2.797
94.66000 4.564
94.68000 3.284
94.70000 1.868
94.72000 3.795
94.74000 1.235
94.76000 2.318
94.78000 1.366
94.80000 0.387
94.82000 0.263
94.84000 1.800
94.86000 3.070
94.88000 2.581
94.90000 -1.223
94.92000 -1.440
94.94000 0.062
94.96000 3.156
94.98000 3.890
95.00000 7.130
95.02000 3.013
95.04000 0.679
95.06000 3.427
95.08000 2.918
95.10000 1.234
95.12000 -0.429
95.14000 0.632
95.16000 1.369
95.18000 -0.286
95.20000 0.461
95.22000 2.733
95.24000 2.352
95.26000 0.032
95.28000 -1.776
95.30000 -0.683
95.32000 1.141
95.34000 4.128
95.36000 6.190
95.38000 4.193
95.40000 1.259
95.42000 3.292
95.44000 3.679
95.46000 2.848
95.48000 4.297
95.50000 1.591
95.52000 1.240
95.54000 1.605
95.56000 1.143
95.58000 3.005
95.60000 1.925
95.62000 -1.764
95.64000 3.289
95.66000 3.190
95.68000 1.620
95.70000 1.146
95.72000 3.096
95.74000 4.869
95.76000 2.704
95.78000 2.174
95.80000 5.326
95.82000 7.066
95.84000 4.162
95.86000 5.652
95.88000 6.479
95.90000 3.037
95.92000 3.020
95.94000 3.572
95.96000 4.900
95.98000 3.963
96.00000 6.114
96.02000 0.694
96.04000 -0.347
96.06000 4.135
96.08000 7.185
96.10000 5.239
96.12000 1.830
96.14000 1.973
96.16000 3.492
96.18000 4.144
96.20000 3.361
96.22000 2.800
96.24000 7.869
96.26000 4.693
96.28000 3.152
96.30000 0.954
96.32000 4.026
96.34000 9.002
96.36000 8.437
96.38000 7.244
96.40000 6.111
96.42000 4.890
96.44000 3.591
96.46000 1.770
96.48000 1.018
96.50000 1.493
96.52000 3.967
96.54000 6.199
96.56000 4.775
96.58000 1.873
96.60000 -1.727
96.62000 4.529
96.64000 6.775
96.66000 4.062
96.68000 2.623
96.70000 6.242
96.72000 6.918
96.74000 5.766
96.76000 4.445
96.78000 2.993
96.80000 3.886
96.82000 4.639
96.84000 3.564
96.86000 3.506
96.88000 8.075
96.90000 3.657
96.92000 3.961
96.94000 5.128
96.96000 4.994
96.98000 4.278
97.00000 6.563
97.02000 5.875
97.04000 5.719
97.06000 6.248
97.08000 2.475
97.10000 2.019
97.12000 3.315
97.14000 2.561
97.16000 3.607
97.18000 5.933
97.20000 2.069
97.22000 0.568
97.24000 2.845
97.26000 2.209
97.28000 4.366
97.30000 3.661
97.32000 3.909
97.34000 3.857
97.36000 4.470
97.38000 3.553
97.40000 7.334
97.42000 7.248
97.44000 3.249
97.46000 1.833
97.48000 2.897
97.50000 5.866
97.52000 6.248
97.54000 10.843
97.56000 4.406
97.58000 4.390
97.60000 2.733
97.62000 2.746
97.64000 0.520
97.66000 3.754
97.68000 3.518
97.70000 6.019
97.72000 3.633
97.74000 4.175
97.76000 2.557
97.78000 0.261
97.80000 0.560
97.82000 3.653
97.84000 5.472
97.86000 4.794
97.88000 10.343
97.90000 10.007
97.92000 2.668
97.94000 4.031
97.96000 1.946
97.98000 3.406
98.00000 5.598
98.02000 2.325
98.04000 6.478
98.06000 9.936
98.08000 5.214
98.10000 4.221
98.12000 6.735
98.14000 6.648
98.16000 6.406
98.18000 10.334
98.20000 8.240
98.22000 5.884
98.24000 8.621
98.26000 4.664
98.28000 5.061
98.30000 5.627
98.32000 7.216
98.34000 3.510
98.36000 2.207
98.38000 1.822
98.40000 1.954
98.42000 2.594
98.44000 -1.663
98.46000 4.255
98.48000 5.229
98.50000 12.742
98.52000 9.816
98.54000 9.934
98.56000 7.249
98.58000 3.693
98.60000 1.174
98.62000 11.521
98.64000 11.072
98.66000 6.555
98.68000 5.322
98.70000 3.503
98.72000 1.037
98.74000 2.078
98.76000 8.321
98.78000 7.733
98.80000 5.363
98.82000 4.095
98.84000 7.376
98.86000 2.134
98.88000 6.352
98.90000 2.726
98.92000 -1.710
98.94000 1.659
98.96000 8.418
98.98000 7.470
99.00000 4.600
99.02000 3.736
99.04000 0.730
99.06000 -0.517
99.08000 4.305
99.10000 3.340
99.12000 3.156
99.14000 -0.310
99.16000 1.003
99.18000 7.119
99.20000 8.061
99.22000 7.067
99.24000 9.759
99.26000 6.302
99.28000 1.906
99.30000 3.570
99.32000 4.775
99.34000 2.551
99.36000 -0.351
99.38000 -0.815
99.40000 4.951
99.42000 6.925
99.44000 -0.200
99.46000 1.015
99.48000 2.861
99.50000 5.686
99.52000 3.949
99.54000 2.582
99.56000 -0.469
99.58000 3.867
99.60000 7.308
99.62000 0.532
99.64000 2.731
99.66000 4.217
99.68000 8.125
99.70000 5.367
99.72000 5.887
99.74000 5.798
99.76000 1.540
99.78000 -1.744
99.80000 4.190
99.82000 4.799
99.84000 3.524
99.86000 2.907
99.88000 4.347
99.90000 14.095
99.92000 12.544
99.94000 13.465
99.96000 4.912
99.98000 0.000
