'Id: "0011387" Comment: "Integrate frame 0011387_Au-Ir-Rh_Rh-rich_XRD-Mapping-128-0000.gfrmwith cursor Wedge Cursor #5" Operator: "B?rgel" Anode: "Cu" Wavelength: "1.5406" Scantype: "2Theta (TwoTheta)" TimePerStep: "1" X: "13.5" Y: "-9" Z: "5.95" 
10.00000 0.000
10.02000 -3.945
10.04000 -3.815
10.06000 7.009
10.08000 6.716
10.10000 0.126
10.12000 10.549
10.14000 21.909
10.16000 4.352
10.18000 1.581
10.20000 -1.186
10.22000 10.657
10.24000 11.791
10.26000 2.649
10.28000 16.475
10.30000 20.423
10.32000 12.238
10.34000 16.223
10.36000 18.055
10.38000 18.663
10.40000 5.161
10.42000 4.221
10.44000 14.280
10.46000 31.175
10.48000 29.507
10.50000 15.623
10.52000 9.854
10.54000 14.010
10.56000 16.572
10.58000 31.749
10.60000 28.050
10.62000 17.798
10.64000 15.228
10.66000 31.668
10.68000 26.146
10.70000 17.065
10.72000 13.612
10.74000 19.218
10.76000 3.526
10.78000 -3.936
10.80000 9.962
10.82000 17.087
10.84000 18.701
10.86000 3.270
10.88000 18.113
10.90000 23.669
10.92000 17.193
10.94000 39.239
10.96000 30.390
10.98000 20.506
11.00000 18.468
11.02000 11.372
11.04000 11.861
11.06000 14.369
11.08000 15.440
11.10000 17.246
11.12000 21.868
11.14000 19.279
11.16000 11.540
11.18000 4.335
11.20000 10.973
11.22000 25.166
11.24000 13.633
11.26000 21.535
11.28000 15.700
11.30000 20.603
11.32000 12.373
11.34000 14.618
11.36000 17.536
11.38000 32.089
11.40000 27.450
11.42000 23.763
11.44000 21.130
11.46000 22.899
11.48000 22.249
11.50000 11.254
11.52000 13.826
11.54000 11.255
11.56000 20.015
11.58000 23.203
11.60000 33.524
11.62000 30.712
11.64000 30.805
11.66000 24.666
11.68000 24.033
11.70000 23.064
11.72000 13.667
11.74000 19.243
11.76000 20.141
11.78000 18.828
11.80000 16.878
11.82000 21.688
11.84000 26.584
11.86000 18.825
11.88000 18.910
11.90000 26.935
11.92000 23.349
11.94000 26.367
11.96000 18.903
11.98000 7.203
12.00000 24.870
12.02000 30.002
12.04000 26.531
12.06000 25.141
12.08000 27.844
12.10000 23.521
12.12000 26.242
12.14000 27.739
12.16000 22.076
12.18000 17.123
12.20000 18.713
12.22000 17.433
12.24000 15.298
12.26000 14.815
12.28000 17.916
12.30000 13.192
12.32000 17.812
12.34000 24.436
12.36000 26.000
12.38000 24.356
12.40000 17.442
12.42000 20.503
12.44000 23.067
12.46000 12.721
12.48000 10.904
12.50000 17.678
12.52000 30.529
12.54000 30.957
12.56000 24.309
12.58000 26.014
12.60000 18.828
12.62000 24.613
12.64000 28.134
12.66000 23.325
12.68000 28.579
12.70000 19.479
12.72000 25.572
12.74000 35.296
12.76000 30.049
12.78000 23.898
12.80000 13.423
12.82000 9.384
12.84000 24.723
12.86000 24.176
12.88000 25.228
12.90000 29.154
12.92000 20.667
12.94000 13.557
12.96000 26.012
12.98000 18.903
13.00000 16.574
13.02000 31.381
13.04000 26.401
13.06000 24.854
13.08000 12.348
13.10000 14.432
13.12000 19.488
13.14000 14.610
13.16000 21.246
13.18000 30.559
13.20000 25.518
13.22000 22.654
13.24000 18.084
13.26000 24.842
13.28000 30.567
13.30000 21.158
13.32000 28.818
13.34000 25.361
13.36000 17.817
13.38000 28.079
13.40000 16.239
13.42000 24.073
13.44000 27.109
13.46000 26.969
13.48000 21.470
13.50000 21.108
13.52000 15.771
13.54000 14.210
13.56000 32.197
13.58000 31.850
13.60000 25.024
13.62000 15.268
13.64000 16.125
13.66000 15.898
13.68000 17.553
13.70000 14.861
13.72000 15.718
13.74000 19.883
13.76000 20.992
13.78000 18.421
13.80000 4.707
13.82000 5.933
13.84000 19.075
13.86000 17.779
13.88000 26.221
13.90000 18.303
13.92000 16.334
13.94000 16.955
13.96000 12.934
13.98000 11.047
14.00000 13.971
14.02000 13.582
14.04000 13.235
14.06000 17.473
14.08000 11.624
14.10000 8.360
14.12000 6.552
14.14000 4.439
14.16000 -2.054
14.18000 4.305
14.20000 7.769
14.22000 14.452
14.24000 10.489
14.26000 11.214
14.28000 15.433
14.30000 11.442
14.32000 8.634
14.34000 15.825
14.36000 23.453
14.38000 21.830
14.40000 12.389
14.42000 15.196
14.44000 17.347
14.46000 15.007
14.48000 14.288
14.50000 17.554
14.52000 12.816
14.54000 8.241
14.56000 2.348
14.58000 6.519
14.60000 1.877
14.62000 7.365
14.64000 12.759
14.66000 4.208
14.68000 1.383
14.70000 5.637
14.72000 8.283
14.74000 12.233
14.76000 7.871
14.78000 8.880
14.80000 8.168
14.82000 9.046
14.84000 19.866
14.86000 9.774
14.88000 9.103
14.90000 10.840
14.92000 12.849
14.94000 19.160
14.96000 17.043
14.98000 8.918
15.00000 14.010
15.02000 11.779
15.04000 6.455
15.06000 9.088
15.08000 15.878
15.10000 11.526
15.12000 12.439
15.14000 11.675
15.16000 11.226
15.18000 15.793
15.20000 21.215
15.22000 20.379
15.24000 9.604
15.26000 12.851
15.28000 13.330
15.30000 7.748
15.32000 14.468
15.34000 11.784
15.36000 8.930
15.38000 8.051
15.40000 7.123
15.42000 13.918
15.44000 10.297
15.46000 2.693
15.48000 -0.403
15.50000 5.567
15.52000 7.913
15.54000 13.356
15.56000 12.498
15.58000 8.172
15.60000 2.110
15.62000 6.002
15.64000 3.383
15.66000 5.235
15.68000 13.988
15.70000 3.804
15.72000 7.355
15.74000 17.211
15.76000 24.604
15.78000 23.539
15.80000 21.309
15.82000 17.259
15.84000 9.408
15.86000 8.097
15.88000 8.412
15.90000 11.695
15.92000 13.603
15.94000 11.475
15.96000 11.989
15.98000 8.464
16.00000 8.691
16.02000 7.377
16.04000 3.154
16.06000 0.404
16.08000 6.484
16.10000 5.790
16.12000 7.257
16.14000 15.973
16.16000 15.331
16.18000 6.952
16.20000 5.242
16.22000 12.891
16.24000 10.293
16.26000 10.629
16.28000 9.399
16.30000 6.185
16.32000 7.218
16.34000 17.545
16.36000 11.877
16.38000 14.585
16.40000 23.737
16.42000 14.940
16.44000 10.872
16.46000 9.515
16.48000 4.186
16.50000 10.437
16.52000 15.629
16.54000 11.974
16.56000 -1.018
16.58000 1.343
16.60000 -1.018
16.62000 -4.364
16.64000 -0.975
16.66000 10.728
16.68000 18.209
16.70000 5.526
16.72000 2.091
16.74000 8.753
16.76000 4.525
16.78000 5.553
16.80000 7.450
16.82000 9.478
16.84000 5.845
16.86000 4.357
16.88000 9.771
16.90000 9.485
16.92000 12.165
16.94000 11.593
16.96000 5.203
16.98000 5.203
17.00000 9.703
17.02000 10.255
17.04000 11.183
17.06000 13.425
17.08000 7.179
17.10000 9.303
17.12000 15.253
17.14000 15.921
17.16000 16.774
17.18000 13.860
17.20000 8.366
17.22000 7.904
17.24000 10.146
17.26000 8.062
17.28000 3.297
17.30000 -0.987
17.32000 7.617
17.34000 8.877
17.36000 7.784
17.38000 1.340
17.40000 -2.803
17.42000 4.443
17.44000 6.839
17.46000 -0.581
17.48000 6.781
17.50000 10.681
17.52000 10.094
17.54000 11.131
17.56000 7.400
17.58000 3.773
17.60000 2.929
17.62000 10.338
17.64000 7.814
17.66000 6.337
17.68000 1.585
17.70000 -0.449
17.72000 -2.998
17.74000 0.117
17.76000 5.645
17.78000 6.653
17.80000 4.981
17.82000 4.543
17.84000 11.497
17.86000 4.716
17.88000 -4.299
17.90000 2.714
17.92000 6.169
17.94000 6.154
17.96000 11.861
17.98000 9.025
18.00000 1.056
18.02000 1.915
18.04000 1.695
18.06000 5.308
18.08000 8.046
18.10000 5.692
18.12000 8.904
18.14000 7.375
18.16000 -0.398
18.18000 1.290
18.20000 -0.336
18.22000 -4.317
18.24000 -3.811
18.26000 2.768
18.28000 7.087
18.30000 7.012
18.32000 6.308
18.34000 2.759
18.36000 1.721
18.38000 -2.300
18.40000 -4.304
18.42000 8.328
18.44000 6.145
18.46000 1.238
18.48000 -3.143
18.50000 3.309
18.52000 9.339
18.54000 8.103
18.56000 8.273
18.58000 11.028
18.60000 5.587
18.62000 -2.163
18.64000 -2.476
18.66000 4.063
18.68000 7.852
18.70000 7.049
18.72000 1.555
18.74000 0.316
18.76000 4.021
18.78000 1.216
18.80000 -1.560
18.82000 -4.271
18.84000 -3.590
18.86000 -3.682
18.88000 -2.322
18.90000 0.124
18.92000 3.223
18.94000 5.573
18.96000 10.942
18.98000 15.466
19.00000 8.625
19.02000 0.042
19.04000 1.408
19.06000 2.063
19.08000 -0.868
19.10000 1.494
19.12000 6.420
19.14000 6.399
19.16000 1.648
19.18000 0.003
19.20000 1.091
19.22000 10.817
19.24000 4.372
19.26000 4.016
19.28000 3.116
19.30000 4.639
19.32000 6.791
19.34000 14.785
19.36000 7.584
19.38000 4.814
19.40000 8.310
19.42000 7.282
19.44000 4.640
19.46000 1.001
19.48000 -0.611
19.50000 1.292
19.52000 12.683
19.54000 17.496
19.56000 6.289
19.58000 2.485
19.60000 2.901
19.62000 -0.488
19.64000 2.583
19.66000 7.486
19.68000 5.274
19.70000 11.298
19.72000 8.111
19.74000 9.115
19.76000 13.319
19.78000 5.006
19.80000 4.997
19.82000 0.865
19.84000 4.781
19.86000 5.185
19.88000 10.676
19.90000 8.188
19.92000 7.495
19.94000 10.253
19.96000 5.946
19.98000 2.837
20.00000 7.025
20.02000 11.926
20.04000 15.300
20.06000 12.310
20.08000 4.238
20.10000 -4.160
20.12000 5.331
20.14000 14.376
20.16000 16.865
20.18000 9.835
20.20000 13.187
20.22000 14.469
20.24000 16.532
20.26000 10.871
20.28000 11.150
20.30000 14.126
20.32000 8.026
20.34000 8.944
20.36000 11.492
20.38000 11.309
20.40000 10.508
20.42000 12.268
20.44000 13.268
20.46000 8.585
20.48000 11.509
20.50000 12.668
20.52000 6.280
20.54000 11.874
20.56000 12.820
20.58000 7.302
20.60000 -3.914
20.62000 -4.128
20.64000 -0.972
20.66000 5.618
20.68000 9.711
20.70000 9.261
20.72000 13.649
20.74000 15.754
20.76000 6.469
20.78000 4.972
20.80000 13.917
20.82000 14.313
20.84000 4.918
20.86000 8.017
20.88000 6.774
20.90000 7.731
20.92000 10.958
20.94000 4.989
20.96000 8.356
20.98000 9.056
21.00000 7.398
21.02000 8.983
21.04000 6.943
21.06000 10.139
21.08000 5.663
21.10000 7.470
21.12000 0.760
21.14000 0.782
21.16000 2.817
21.18000 7.426
21.20000 3.446
21.22000 2.502
21.24000 -1.628
21.26000 -3.537
21.28000 -1.137
21.30000 2.123
21.32000 9.962
21.34000 10.009
21.36000 7.746
21.38000 1.945
21.40000 3.013
21.42000 6.933
21.44000 5.966
21.46000 9.457
21.48000 7.767
21.50000 5.936
21.52000 1.838
21.54000 1.078
21.56000 3.280
21.58000 1.439
21.60000 4.773
21.62000 1.059
21.64000 3.486
21.66000 7.055
21.68000 8.883
21.70000 0.889
21.72000 4.916
21.74000 3.854
21.76000 6.183
21.78000 5.972
21.80000 -1.041
21.82000 -0.446
21.84000 4.023
21.86000 10.408
21.88000 8.332
21.90000 6.701
21.92000 2.104
21.94000 0.641
21.96000 0.155
21.98000 -1.754
22.00000 -3.104
22.02000 0.979
22.04000 2.526
22.06000 1.764
22.08000 13.213
22.10000 9.283
22.12000 5.874
22.14000 1.660
22.16000 2.057
22.18000 8.781
22.20000 5.342
22.22000 3.654
22.24000 0.848
22.26000 0.669
22.28000 -0.355
22.30000 -2.160
22.32000 3.361
22.34000 2.892
22.36000 3.897
22.38000 4.901
22.40000 2.985
22.42000 7.767
22.44000 3.366
22.46000 0.150
22.48000 -0.376
22.50000 1.271
22.52000 4.972
22.54000 5.327
22.56000 5.823
22.58000 4.469
22.60000 -2.695
22.62000 -2.011
22.64000 -0.760
22.66000 -0.057
22.68000 4.339
22.70000 -0.949
22.72000 1.269
22.74000 1.677
22.76000 3.230
22.78000 3.388
22.80000 3.795
22.82000 6.002
22.84000 -0.079
22.86000 -4.063
22.88000 2.689
22.90000 6.110
22.92000 2.602
22.94000 5.561
22.96000 10.030
22.98000 8.102
23.00000 4.940
23.02000 2.150
23.04000 -1.318
23.06000 0.908
23.08000 2.315
23.10000 3.239
23.12000 7.994
23.14000 7.070
23.16000 3.164
23.18000 0.637
23.20000 -1.453
23.22000 5.487
23.24000 8.123
23.26000 6.975
23.28000 6.952
23.30000 6.826
23.32000 3.011
23.34000 -0.366
23.36000 2.429
23.38000 2.156
23.40000 1.710
23.42000 2.665
23.44000 -1.776
23.46000 0.556
23.48000 2.612
23.50000 8.308
23.52000 -0.165
23.54000 -1.988
23.56000 -2.174
23.58000 1.832
23.60000 1.329
23.62000 2.686
23.64000 -0.253
23.66000 -0.175
23.68000 1.819
23.70000 1.719
23.72000 1.244
23.74000 3.373
23.76000 2.408
23.78000 2.531
23.80000 -3.740
23.82000 -0.036
23.84000 2.841
23.86000 3.846
23.88000 -0.322
23.90000 -1.359
23.92000 -1.624
23.94000 -3.534
23.96000 -2.460
23.98000 0.880
24.00000 -1.778
24.02000 1.028
24.04000 3.472
24.06000 4.332
24.08000 5.643
24.10000 2.993
24.12000 4.928
24.14000 4.850
24.16000 -1.001
24.18000 -2.066
24.20000 0.984
24.22000 1.643
24.24000 1.757
24.26000 -1.273
24.28000 -0.528
24.30000 3.818
24.32000 -3.256
24.34000 -0.319
24.36000 4.964
24.38000 6.818
24.40000 3.130
24.42000 -2.862
24.44000 -1.999
24.46000 1.349
24.48000 2.112
24.50000 0.779
24.52000 1.520
24.54000 6.886
24.56000 3.977
24.58000 7.149
24.60000 2.723
24.62000 -2.999
24.64000 -3.962
24.66000 1.786
24.68000 6.693
24.70000 6.104
24.72000 6.878
24.74000 -0.398
24.76000 3.157
24.78000 -1.594
24.80000 1.061
24.82000 1.370
24.84000 -2.993
24.86000 -1.384
24.88000 2.437
24.90000 -1.299
24.92000 -1.607
24.94000 3.369
24.96000 10.491
24.98000 6.944
25.00000 6.990
25.02000 5.971
25.04000 -3.925
25.06000 -2.994
25.08000 4.584
25.10000 3.177
25.12000 4.973
25.14000 0.069
25.16000 0.522
25.18000 5.423
25.20000 2.651
25.22000 2.127
25.24000 6.770
25.26000 8.058
25.28000 10.849
25.30000 2.083
25.32000 -1.665
25.34000 -2.778
25.36000 -0.204
25.38000 4.755
25.40000 11.005
25.42000 9.903
25.44000 3.485
25.46000 1.006
25.48000 -0.259
25.50000 -0.351
25.52000 4.519
25.54000 4.515
25.56000 3.353
25.58000 5.231
25.60000 3.228
25.62000 -1.474
25.64000 1.522
25.66000 5.919
25.68000 1.039
25.70000 0.790
25.72000 1.517
25.74000 3.597
25.76000 1.920
25.78000 0.332
25.80000 5.630
25.82000 4.824
25.84000 0.311
25.86000 -1.640
25.88000 -0.091
25.90000 -3.391
25.92000 2.192
25.94000 1.202
25.96000 0.551
25.98000 5.992
26.00000 -2.835
26.02000 -3.735
26.04000 -3.300
26.06000 0.329
26.08000 -0.162
26.10000 -1.021
26.12000 -0.877
26.14000 1.253
26.16000 -0.558
26.18000 2.028
26.20000 5.713
26.22000 7.057
26.24000 2.156
26.26000 0.868
26.28000 5.682
26.30000 7.406
26.32000 0.238
26.34000 5.733
26.36000 5.157
26.38000 8.723
26.40000 2.742
26.42000 2.146
26.44000 5.169
26.46000 8.650
26.48000 -1.140
26.50000 3.997
26.52000 5.223
26.54000 0.320
26.56000 2.019
26.58000 6.258
26.60000 5.000
26.62000 -0.398
26.64000 -2.516
26.66000 0.407
26.68000 0.386
26.70000 0.460
26.72000 0.078
26.74000 1.405
26.76000 1.019
26.78000 1.878
26.80000 2.879
26.82000 2.933
26.84000 0.325
26.86000 7.302
26.88000 1.819
26.90000 -2.099
26.92000 -0.410
26.94000 4.793
26.96000 3.536
26.98000 8.171
27.00000 7.234
27.02000 -0.606
27.04000 -1.844
27.06000 4.873
27.08000 -3.757
27.10000 3.066
27.12000 5.375
27.14000 4.112
27.16000 8.248
27.18000 2.409
27.20000 -3.036
27.22000 3.160
27.24000 7.850
27.26000 3.992
27.28000 -3.800
27.30000 -0.416
27.32000 8.376
27.34000 7.345
27.36000 4.669
27.38000 4.797
27.40000 7.277
27.42000 1.162
27.44000 1.097
27.46000 5.283
27.48000 6.834
27.50000 6.096
27.52000 5.404
27.54000 5.830
27.56000 6.005
27.58000 3.758
27.60000 5.632
27.62000 5.556
27.64000 7.952
27.66000 5.618
27.68000 3.969
27.70000 9.304
27.72000 5.666
27.74000 5.886
27.76000 5.341
27.78000 2.360
27.80000 -2.010
27.82000 3.267
27.84000 9.248
27.86000 10.287
27.88000 3.882
27.90000 4.842
27.92000 5.379
27.94000 5.641
27.96000 4.058
27.98000 5.016
28.00000 8.773
28.02000 5.999
28.04000 5.699
28.06000 8.584
28.08000 8.305
28.10000 4.970
28.12000 2.126
28.14000 -0.011
28.16000 -3.746
28.18000 -1.008
28.20000 1.056
28.22000 5.704
28.24000 7.404
28.26000 5.146
28.28000 9.651
28.30000 10.105
28.32000 10.205
28.34000 9.521
28.36000 3.656
28.38000 3.859
28.40000 2.499
28.42000 2.987
28.44000 1.997
28.46000 4.407
28.48000 5.059
28.50000 5.337
28.52000 -1.728
28.54000 3.144
28.56000 8.471
28.58000 10.781
28.60000 6.665
28.62000 5.200
28.64000 7.544
28.66000 7.931
28.68000 7.562
28.70000 9.008
28.72000 8.049
28.74000 8.684
28.76000 12.064
28.78000 3.733
28.80000 4.892
28.82000 10.279
28.84000 9.553
28.86000 5.101
28.88000 3.173
28.90000 2.061
28.92000 -0.776
28.94000 -3.717
28.96000 1.382
28.98000 5.667
29.00000 7.515
29.02000 2.606
29.04000 -0.069
29.06000 6.191
29.08000 4.851
29.10000 -1.493
29.12000 0.023
29.14000 3.261
29.16000 3.819
29.18000 0.644
29.20000 5.096
29.22000 3.868
29.24000 6.203
29.26000 0.730
29.28000 -1.595
29.30000 -1.331
29.32000 -2.116
29.34000 -1.392
29.36000 3.408
29.38000 3.128
29.40000 3.769
29.42000 0.637
29.44000 1.661
29.46000 1.228
29.48000 3.833
29.50000 1.360
29.52000 -0.656
29.54000 1.713
29.56000 0.381
29.58000 0.427
29.60000 0.102
29.62000 -2.238
29.64000 -3.703
29.66000 1.803
29.68000 6.501
29.70000 3.840
29.72000 -2.641
29.74000 -2.425
29.76000 -1.119
29.78000 1.487
29.80000 5.941
29.82000 9.330
29.84000 11.899
29.86000 6.567
29.88000 6.248
29.90000 2.260
29.92000 1.832
29.94000 1.003
29.96000 3.791
29.98000 5.518
30.00000 -0.273
30.02000 -0.330
30.04000 1.516
30.06000 1.470
30.08000 5.129
30.10000 3.449
30.12000 7.016
30.14000 7.579
30.16000 3.183
30.18000 -1.666
30.20000 2.388
30.22000 1.826
30.24000 -0.363
30.26000 2.962
30.28000 2.868
30.30000 3.130
30.32000 1.032
30.34000 -0.857
30.36000 5.082
30.38000 11.249
30.40000 3.074
30.42000 -3.664
30.44000 -0.738
30.46000 4.909
30.48000 1.858
30.50000 1.205
30.52000 1.093
30.54000 -3.065
30.56000 1.546
30.58000 0.752
30.60000 8.401
30.62000 5.219
30.64000 -3.387
30.66000 -0.861
30.68000 1.465
30.70000 1.565
30.72000 2.811
30.74000 -0.899
30.76000 2.445
30.78000 1.342
30.80000 5.757
30.82000 3.936
30.84000 0.866
30.86000 3.075
30.88000 -0.876
30.90000 -3.293
30.92000 -0.760
30.94000 -0.438
30.96000 -0.983
30.98000 4.875
31.00000 1.785
31.02000 0.849
31.04000 0.563
31.06000 0.845
31.08000 1.043
31.10000 4.105
31.12000 3.537
31.14000 1.128
31.16000 -1.827
31.18000 2.079
31.20000 -1.955
31.22000 -2.162
31.24000 -1.144
31.26000 1.223
31.28000 -1.230
31.30000 -2.796
31.32000 -0.722
31.34000 2.500
31.36000 2.333
31.38000 6.270
31.40000 5.208
31.42000 6.470
31.44000 0.764
31.46000 1.838
31.48000 2.511
31.50000 -2.163
31.52000 -3.626
31.54000 -1.056
31.56000 -0.025
31.58000 -3.359
31.60000 0.093
31.62000 -0.608
31.64000 0.514
31.66000 1.279
31.68000 -0.258
31.70000 1.736
31.72000 4.043
31.74000 5.575
31.76000 2.219
31.78000 -3.610
31.80000 -2.479
31.82000 1.018
31.84000 2.570
31.86000 1.124
31.88000 1.818
31.90000 1.971
31.92000 2.651
31.94000 -0.570
31.96000 1.427
31.98000 1.905
32.00000 2.751
32.02000 4.750
32.04000 9.823
32.06000 7.968
32.08000 6.413
32.10000 1.145
32.12000 -2.756
32.14000 -3.119
32.16000 2.995
32.18000 9.180
32.20000 4.526
32.22000 0.827
32.24000 1.546
32.26000 -0.204
32.28000 -2.031
32.30000 -0.460
32.32000 -0.798
32.34000 1.281
32.36000 -2.069
32.38000 -2.426
32.40000 2.178
32.42000 2.946
32.44000 1.304
32.46000 -1.545
32.48000 7.282
32.50000 6.017
32.52000 -2.086
32.54000 3.401
32.56000 7.702
32.58000 0.073
32.60000 -0.980
32.62000 1.261
32.64000 1.702
32.66000 1.574
32.68000 1.602
32.70000 -1.099
32.72000 -3.417
32.74000 0.675
32.76000 -2.221
32.78000 -1.079
32.80000 2.807
32.82000 -0.550
32.84000 -3.562
32.86000 -0.316
32.88000 5.891
32.90000 7.973
32.92000 3.669
32.94000 -1.845
32.96000 0.018
32.98000 0.502
33.00000 5.180
33.02000 0.330
33.04000 2.243
33.06000 0.008
33.08000 -0.114
33.10000 5.869
33.12000 1.442
33.14000 -1.236
33.16000 1.187
33.18000 6.017
33.20000 2.480
33.22000 -2.327
33.24000 -0.831
33.26000 2.437
33.28000 0.223
33.30000 0.730
33.32000 1.460
33.34000 -0.306
33.36000 -1.405
33.38000 -0.803
33.40000 2.901
33.42000 0.150
33.44000 7.478
33.46000 8.477
33.48000 5.297
33.50000 0.823
33.52000 5.588
33.54000 7.392
33.56000 0.217
33.58000 0.131
33.60000 0.272
33.62000 0.694
33.64000 -2.422
33.66000 -1.779
33.68000 0.851
33.70000 -1.363
33.72000 5.527
33.74000 3.294
33.76000 -3.546
33.78000 3.196
33.80000 3.676
33.82000 -1.607
33.84000 -2.718
33.86000 0.250
33.88000 2.211
33.90000 0.197
33.92000 -0.418
33.94000 -1.373
33.96000 6.105
33.98000 7.722
34.00000 4.378
34.02000 3.374
34.04000 4.617
34.06000 2.061
34.08000 -0.897
34.10000 1.532
34.12000 5.420
34.14000 8.867
34.16000 9.326
34.18000 3.208
34.20000 -1.379
34.22000 -0.579
34.24000 4.147
34.26000 5.599
34.28000 4.013
34.30000 2.632
34.32000 2.544
34.34000 -2.687
34.36000 -3.530
34.38000 1.420
34.40000 0.790
34.42000 -1.338
34.44000 -1.534
34.46000 -1.429
34.48000 0.969
34.50000 0.365
34.52000 3.367
34.54000 1.278
34.56000 -0.791
34.58000 0.334
34.60000 2.822
34.62000 4.357
34.64000 3.816
34.66000 2.028
34.68000 4.920
34.70000 -0.385
34.72000 1.826
34.74000 0.029
34.76000 3.387
34.78000 2.381
34.80000 1.149
34.82000 3.428
34.84000 2.717
34.86000 0.704
34.88000 -3.524
34.90000 -0.839
34.92000 1.889
34.94000 2.955
34.96000 3.942
34.98000 -1.592
35.00000 -2.742
35.02000 0.620
35.04000 3.586
35.06000 6.135
35.08000 5.944
35.10000 -0.151
35.12000 0.008
35.14000 1.889
35.16000 2.728
35.18000 0.675
35.20000 0.801
35.22000 -0.871
35.24000 -2.712
35.26000 1.444
35.28000 6.211
35.30000 7.624
35.32000 5.160
35.34000 0.447
35.36000 -0.525
35.38000 1.391
35.40000 1.007
35.42000 -0.017
35.44000 -1.016
35.46000 2.040
35.48000 1.840
35.50000 0.242
35.52000 -3.502
35.54000 -1.997
35.56000 2.327
35.58000 2.274
35.60000 -0.120
35.62000 0.407
35.64000 1.700
35.66000 3.422
35.68000 0.821
35.70000 -0.731
35.72000 2.478
35.74000 4.019
35.76000 3.921
35.78000 5.275
35.80000 0.475
35.82000 -0.133
35.84000 4.890
35.86000 3.119
35.88000 -0.652
35.90000 3.254
35.92000 7.068
35.94000 8.187
35.96000 3.435
35.98000 -1.490
36.00000 1.537
36.02000 -0.010
36.04000 -3.474
36.06000 -0.553
36.08000 5.593
36.10000 0.724
36.12000 1.988
36.14000 2.596
36.16000 4.568
36.18000 2.750
36.20000 3.692
36.22000 10.978
36.24000 2.287
36.26000 -3.474
36.28000 1.768
36.30000 3.341
36.32000 0.653
36.34000 2.308
36.36000 7.295
36.38000 2.418
36.40000 4.849
36.42000 0.746
36.44000 0.482
36.46000 0.323
36.48000 1.333
36.50000 1.892
36.52000 -0.600
36.54000 -0.440
36.56000 -0.312
36.58000 2.528
36.60000 3.676
36.62000 -0.613
36.64000 3.166
36.66000 4.293
36.68000 5.072
36.70000 4.073
36.72000 -1.562
36.74000 -0.401
36.76000 4.535
36.78000 1.333
36.80000 -1.525
36.82000 -0.041
36.84000 1.648
36.86000 -1.094
36.88000 3.344
36.90000 6.700
36.92000 3.959
36.94000 1.354
36.96000 -1.548
36.98000 0.375
37.00000 5.632
37.02000 7.307
37.04000 7.603
37.06000 5.930
37.08000 4.079
37.10000 0.730
37.12000 -3.225
37.14000 -3.516
37.16000 -3.007
37.18000 0.335
37.20000 0.978
37.22000 -0.046
37.24000 0.949
37.26000 2.201
37.28000 -2.302
37.30000 -0.406
37.32000 -0.572
37.34000 -1.800
37.36000 0.882
37.38000 1.038
37.40000 -1.058
37.42000 -2.860
37.44000 3.618
37.46000 2.630
37.48000 -1.656
37.50000 0.837
37.52000 3.668
37.54000 2.340
37.56000 -1.267
37.58000 -2.901
37.60000 -2.690
37.62000 0.229
37.64000 4.047
37.66000 -1.091
37.68000 3.312
37.70000 4.693
37.72000 0.466
37.74000 0.897
37.76000 0.957
37.78000 2.481
37.80000 7.585
37.82000 6.250
37.84000 3.045
37.86000 5.803
37.88000 4.649
37.90000 3.444
37.92000 0.969
37.94000 1.753
37.96000 1.450
37.98000 7.842
38.00000 4.280
38.02000 3.335
38.04000 6.936
38.06000 7.980
38.08000 2.914
38.10000 -0.050
38.12000 5.372
38.14000 6.102
38.16000 8.851
38.18000 10.906
38.20000 11.404
38.22000 11.688
38.24000 10.054
38.26000 13.633
38.28000 13.485
38.30000 14.229
38.32000 13.566
38.34000 11.016
38.36000 11.093
38.38000 13.237
38.40000 12.228
38.42000 16.826
38.44000 13.777
38.46000 15.373
38.48000 15.894
38.50000 16.616
38.52000 19.636
38.54000 17.329
38.56000 16.502
38.58000 19.011
38.60000 21.978
38.62000 20.957
38.64000 20.634
38.66000 26.212
38.68000 21.824
38.70000 19.665
38.72000 21.931
38.74000 20.120
38.76000 18.354
38.78000 19.283
38.80000 21.160
38.82000 20.527
38.84000 24.432
38.86000 20.563
38.88000 24.697
38.90000 24.631
38.92000 23.122
38.94000 23.483
38.96000 27.185
38.98000 27.038
39.00000 28.230
39.02000 31.594
39.04000 29.087
39.06000 33.355
39.08000 43.023
39.10000 36.246
39.12000 32.129
39.14000 35.553
39.16000 37.813
39.18000 41.989
39.20000 46.833
39.22000 40.511
39.24000 46.909
39.26000 52.408
39.28000 53.180
39.30000 48.439
39.32000 47.791
39.34000 51.317
39.36000 55.252
39.38000 59.350
39.40000 58.466
39.42000 64.565
39.44000 67.812
39.46000 68.084
39.48000 68.719
39.50000 77.957
39.52000 86.211
39.54000 89.506
39.56000 96.219
39.58000 99.248
39.60000 107.971
39.62000 109.203
39.64000 112.343
39.66000 113.444
39.68000 124.073
39.70000 131.981
39.72000 140.438
39.74000 149.913
39.76000 153.632
39.78000 166.114
39.80000 169.021
39.82000 180.790
39.84000 193.031
39.86000 207.467
39.88000 220.481
39.90000 234.796
39.92000 248.367
39.94000 262.241
39.96000 272.513
39.98000 290.634
40.00000 308.545
40.02000 330.521
40.04000 356.510
40.06000 379.297
40.08000 400.794
40.10000 426.574
40.12000 440.559
40.14000 470.972
40.16000 492.854
40.18000 517.450
40.20000 552.253
40.22000 580.277
40.24000 609.919
40.26000 631.190
40.28000 642.008
40.30000 671.302
40.32000 693.437
40.34000 714.643
40.36000 735.055
40.38000 748.729
40.40000 751.416
40.42000 756.356
40.44000 758.399
40.46000 776.238
40.48000 779.267
40.50000 772.069
40.52000 765.312
40.54000 753.215
40.56000 745.672
40.58000 731.474
40.60000 719.247
40.62000 705.708
40.64000 688.883
40.66000 665.613
40.68000 654.328
40.70000 637.020
40.72000 615.614
40.74000 592.348
40.76000 574.052
40.78000 555.164
40.80000 523.666
40.82000 495.343
40.84000 481.521
40.86000 455.878
40.88000 438.724
40.90000 416.681
40.92000 405.598
40.94000 381.991
40.96000 356.833
40.98000 336.941
41.00000 319.317
41.02000 310.212
41.04000 287.680
41.06000 271.872
41.08000 257.191
41.10000 241.521
41.12000 228.896
41.14000 212.868
41.16000 203.538
41.18000 187.524
41.20000 183.224
41.22000 179.783
41.24000 169.631
41.26000 164.989
41.28000 149.907
41.30000 140.790
41.32000 130.312
41.34000 127.570
41.36000 127.567
41.38000 114.184
41.40000 104.236
41.42000 101.407
41.44000 97.899
41.46000 88.276
41.48000 83.262
41.50000 82.885
41.52000 76.277
41.54000 71.824
41.56000 73.371
41.58000 66.933
41.60000 64.968
41.62000 63.839
41.64000 61.195
41.66000 59.619
41.68000 56.835
41.70000 55.640
41.72000 57.218
41.74000 51.662
41.76000 44.057
41.78000 43.649
41.80000 45.937
41.82000 41.298
41.84000 37.572
41.86000 40.150
41.88000 38.355
41.90000 35.805
41.92000 34.791
41.94000 30.880
41.96000 25.880
41.98000 25.941
42.00000 26.367
42.02000 30.164
42.04000 28.119
42.06000 27.268
42.08000 24.954
42.10000 22.440
42.12000 21.479
42.14000 21.973
42.16000 20.421
42.18000 19.443
42.20000 17.837
42.22000 20.090
42.24000 19.753
42.26000 15.763
42.28000 15.332
42.30000 14.192
42.32000 13.785
42.34000 10.332
42.36000 16.317
42.38000 15.008
42.40000 16.797
42.42000 16.583
42.44000 8.767
42.46000 9.740
42.48000 13.374
42.50000 12.725
42.52000 7.577
42.54000 4.219
42.56000 8.831
42.58000 9.738
42.60000 6.214
42.62000 7.044
42.64000 3.897
42.66000 5.565
42.68000 6.366
42.70000 7.766
42.72000 3.389
42.74000 6.039
42.76000 3.625
42.78000 6.238
42.80000 7.722
42.82000 3.373
42.84000 2.805
42.86000 4.727
42.88000 1.775
42.90000 2.606
42.92000 4.166
42.94000 1.733
42.96000 0.847
42.98000 3.745
43.00000 2.985
43.02000 5.356
43.04000 7.551
43.06000 10.819
43.08000 2.060
43.10000 4.319
43.12000 10.505
43.14000 7.590
43.16000 2.932
43.18000 -0.757
43.20000 -2.092
43.22000 6.184
43.24000 8.272
43.26000 7.566
43.28000 6.091
43.30000 0.128
43.32000 -0.473
43.34000 2.784
43.36000 -1.774
43.38000 -3.404
43.40000 -0.958
43.42000 2.122
43.44000 4.580
43.46000 7.088
43.48000 5.940
43.50000 5.959
43.52000 1.082
43.54000 2.577
43.56000 1.159
43.58000 1.612
43.60000 -2.131
43.62000 -1.638
43.64000 1.110
43.66000 1.629
43.68000 5.818
43.70000 4.173
43.72000 3.678
43.74000 1.853
43.76000 -1.345
43.78000 2.103
43.80000 4.940
43.82000 4.259
43.84000 3.136
43.86000 4.047
43.88000 -0.689
43.90000 -0.106
43.92000 0.559
43.94000 3.592
43.96000 2.021
43.98000 -1.535
44.00000 0.514
44.02000 2.225
44.04000 1.088
44.06000 -3.244
44.08000 1.332
44.10000 2.032
44.12000 -2.827
44.14000 -0.736
44.16000 -1.967
44.18000 -1.101
44.20000 -2.370
44.22000 -2.318
44.24000 -0.173
44.26000 2.131
44.28000 3.952
44.30000 1.416
44.32000 -3.328
44.34000 -2.147
44.36000 -0.189
44.38000 1.747
44.40000 -0.948
44.42000 -0.689
44.44000 2.196
44.46000 4.294
44.48000 -0.902
44.50000 1.073
44.52000 0.292
44.54000 2.419
44.56000 6.417
44.58000 2.637
44.60000 2.860
44.62000 3.133
44.64000 -0.246
44.66000 -3.297
44.68000 4.346
44.70000 3.745
44.72000 5.381
44.74000 4.439
44.76000 1.046
44.78000 3.643
44.80000 5.213
44.82000 3.105
44.84000 2.215
44.86000 3.293
44.88000 0.979
44.90000 -0.014
44.92000 -3.272
44.94000 1.988
44.96000 2.848
44.98000 1.665
45.00000 0.335
45.02000 0.304
45.04000 1.479
45.06000 1.603
45.08000 3.796
45.10000 4.251
45.12000 5.173
45.14000 5.106
45.16000 6.538
45.18000 3.008
45.20000 1.879
45.22000 2.661
45.24000 2.494
45.26000 3.157
45.28000 3.555
45.30000 1.679
45.32000 4.188
45.34000 4.922
45.36000 6.550
45.38000 6.944
45.40000 4.133
45.42000 6.591
45.44000 1.719
45.46000 1.734
45.48000 1.067
45.50000 5.914
45.52000 8.125
45.54000 11.679
45.56000 5.987
45.58000 5.894
45.60000 8.426
45.62000 8.700
45.64000 8.866
45.66000 12.154
45.68000 9.582
45.70000 6.534
45.72000 7.648
45.74000 14.345
45.76000 19.930
45.78000 14.242
45.80000 14.401
45.82000 12.028
45.84000 8.618
45.86000 8.988
45.88000 16.220
45.90000 16.835
45.92000 15.955
45.94000 16.818
45.96000 17.434
45.98000 21.947
46.00000 19.030
46.02000 18.610
46.04000 19.751
46.06000 21.588
46.08000 27.830
46.10000 27.489
46.12000 25.073
46.14000 22.742
46.16000 22.264
46.18000 27.915
46.20000 35.201
46.22000 34.704
46.24000 33.450
46.26000 37.532
46.28000 37.554
46.30000 37.001
46.32000 39.079
46.34000 42.761
46.36000 47.310
46.38000 47.404
46.40000 50.357
46.42000 55.945
46.44000 60.512
46.46000 55.768
46.48000 57.097
46.50000 52.547
46.52000 55.688
46.54000 62.217
46.56000 68.003
46.58000 68.534
46.60000 70.434
46.62000 78.995
46.64000 79.240
46.66000 78.159
46.68000 85.670
46.70000 86.846
46.72000 85.934
46.74000 91.755
46.76000 97.202
46.78000 98.204
46.80000 102.413
46.82000 103.227
46.84000 102.448
46.86000 104.712
46.88000 105.345
46.90000 109.148
46.92000 108.480
46.94000 108.719
46.96000 105.754
46.98000 114.743
47.00000 114.296
47.02000 118.243
47.04000 120.895
47.06000 124.164
47.08000 126.494
47.10000 121.511
47.12000 119.084
47.14000 124.168
47.16000 120.612
47.18000 124.431
47.20000 117.373
47.22000 114.261
47.24000 116.472
47.26000 112.157
47.28000 105.060
47.30000 102.436
47.32000 106.466
47.34000 104.693
47.36000 105.036
47.38000 106.991
47.40000 97.736
47.42000 97.414
47.44000 92.682
47.46000 83.104
47.48000 84.833
47.50000 82.692
47.52000 81.340
47.54000 78.389
47.56000 77.918
47.58000 70.228
47.60000 65.608
47.62000 64.959
47.64000 66.675
47.66000 59.858
47.68000 52.292
47.70000 53.674
47.72000 52.554
47.74000 55.268
47.76000 47.422
47.78000 42.629
47.80000 41.702
47.82000 40.447
47.84000 38.866
47.86000 37.948
47.88000 31.534
47.90000 33.855
47.92000 33.979
47.94000 30.096
47.96000 28.527
47.98000 26.284
48.00000 21.945
48.02000 21.352
48.04000 20.916
48.06000 15.938
48.08000 13.542
48.10000 13.252
48.12000 15.393
48.14000 20.739
48.16000 14.315
48.18000 11.337
48.20000 11.250
48.22000 13.511
48.24000 15.356
48.26000 14.752
48.28000 10.283
48.30000 7.679
48.32000 5.764
48.34000 8.848
48.36000 3.998
48.38000 0.934
48.40000 2.568
48.42000 9.482
48.44000 10.917
48.46000 8.482
48.48000 6.500
48.50000 0.108
48.52000 -1.061
48.54000 0.115
48.56000 3.772
48.58000 6.915
48.60000 5.621
48.62000 5.363
48.64000 1.828
48.66000 0.259
48.68000 -2.564
48.70000 -0.653
48.72000 0.636
48.74000 -0.092
48.76000 3.016
48.78000 3.630
48.80000 4.082
48.82000 2.385
48.84000 5.128
48.86000 2.108
48.88000 -2.934
48.90000 -1.515
48.92000 0.990
48.94000 1.799
48.96000 2.960
48.98000 2.398
49.00000 2.500
49.02000 -1.384
49.04000 1.552
49.06000 0.679
49.08000 1.641
49.10000 4.610
49.12000 3.925
49.14000 -2.656
49.16000 -2.874
49.18000 -0.885
49.20000 3.379
49.22000 1.749
49.24000 -1.680
49.26000 -2.855
49.28000 0.290
49.30000 0.913
49.32000 -1.922
49.34000 -2.383
49.36000 4.310
49.38000 2.594
49.40000 0.346
49.42000 1.532
49.44000 2.977
49.46000 2.120
49.48000 5.437
49.50000 2.757
49.52000 -1.192
49.54000 -2.612
49.56000 -1.268
49.58000 0.929
49.60000 1.362
49.62000 -0.765
49.64000 1.448
49.66000 -0.405
49.68000 -1.290
49.70000 0.004
49.72000 0.765
49.74000 1.157
49.76000 0.273
49.78000 2.013
49.80000 2.291
49.82000 3.877
49.84000 3.689
49.86000 3.418
49.88000 -1.574
49.90000 -2.163
49.92000 -2.357
49.94000 0.132
49.96000 -1.287
49.98000 -0.630
50.00000 2.590
50.02000 0.810
50.04000 4.397
50.06000 3.513
50.08000 0.142
50.10000 -1.533
50.12000 -2.146
50.14000 -0.437
50.16000 4.196
50.18000 3.674
50.20000 5.356
50.22000 5.624
50.24000 2.056
50.26000 1.583
50.28000 -0.794
50.30000 2.758
50.32000 2.227
50.34000 1.803
50.36000 2.874
50.38000 2.994
50.40000 -0.410
50.42000 -2.720
50.44000 1.614
50.46000 1.902
50.48000 2.615
50.50000 1.062
50.52000 1.584
50.54000 -0.742
50.56000 -1.446
50.58000 2.551
50.60000 1.548
50.62000 3.894
50.64000 3.327
50.66000 1.057
50.68000 -0.907
50.70000 -1.156
50.72000 -2.702
50.74000 -0.020
50.76000 1.418
50.78000 3.106
50.80000 3.812
50.82000 -0.054
50.84000 -0.795
50.86000 -1.481
50.88000 -1.229
50.90000 0.845
50.92000 -2.693
50.94000 -0.169
50.96000 1.004
50.98000 -0.678
51.00000 -1.480
51.02000 0.503
51.04000 1.952
51.06000 -0.707
51.08000 2.161
51.10000 0.960
51.12000 2.041
51.14000 2.217
51.16000 -0.707
51.18000 -0.507
51.20000 -0.982
51.22000 -0.565
51.24000 -1.566
51.26000 3.113
51.28000 2.452
51.30000 -1.444
51.32000 2.871
51.34000 2.116
51.36000 1.599
51.38000 3.957
51.40000 5.516
51.42000 6.476
51.44000 5.643
51.46000 1.538
51.48000 2.975
51.50000 0.760
51.52000 1.140
51.54000 5.292
51.56000 4.490
51.58000 5.512
51.60000 -0.589
51.62000 -0.779
51.64000 -1.718
51.66000 1.004
51.68000 4.448
51.70000 6.188
51.72000 3.701
51.74000 1.186
51.76000 3.392
51.78000 5.556
51.80000 3.076
51.82000 3.428
51.84000 3.397
51.86000 3.727
51.88000 8.768
51.90000 4.137
51.92000 -0.306
51.94000 -0.020
51.96000 2.763
51.98000 3.632
52.00000 4.737
52.02000 1.139
52.04000 3.762
52.06000 2.891
52.08000 0.810
52.10000 1.213
52.12000 2.334
52.14000 0.032
52.16000 0.374
52.18000 4.283
52.20000 4.114
52.22000 7.805
52.24000 6.808
52.26000 5.532
52.28000 6.898
52.30000 5.958
52.32000 1.679
52.34000 0.258
52.36000 5.816
52.38000 5.893
52.40000 4.079
52.42000 5.099
52.44000 4.837
52.46000 0.561
52.48000 -2.575
52.50000 1.208
52.52000 3.103
52.54000 6.370
52.56000 5.852
52.58000 6.490
52.60000 7.119
52.62000 7.690
52.64000 1.537
52.66000 0.050
52.68000 1.724
52.70000 4.175
52.72000 3.689
52.74000 2.394
52.76000 1.728
52.78000 1.278
52.80000 0.097
52.82000 0.793
52.84000 -0.697
52.86000 1.275
52.88000 -0.213
52.90000 4.517
52.92000 3.218
52.94000 0.845
52.96000 1.165
52.98000 1.899
53.00000 4.554
53.02000 4.777
53.04000 4.673
53.06000 3.683
53.08000 3.715
53.10000 2.267
53.12000 -0.798
53.14000 1.206
53.16000 4.178
53.18000 4.514
53.20000 4.780
53.22000 7.375
53.24000 1.535
53.26000 1.505
53.28000 2.542
53.30000 1.794
53.32000 -1.849
53.34000 1.170
53.36000 0.399
53.38000 3.074
53.40000 1.247
53.42000 4.499
53.44000 3.867
53.46000 2.792
53.48000 1.260
53.50000 3.888
53.52000 3.810
53.54000 2.239
53.56000 5.557
53.58000 5.009
53.60000 2.739
53.62000 -0.231
53.64000 1.874
53.66000 -2.568
53.68000 -2.320
53.70000 0.541
53.72000 1.062
53.74000 0.884
53.76000 4.946
53.78000 7.000
53.80000 3.682
53.82000 2.453
53.84000 6.504
53.86000 7.112
53.88000 0.766
53.90000 2.033
53.92000 5.235
53.94000 4.031
53.96000 5.336
53.98000 3.734
54.00000 5.302
54.02000 0.982
54.04000 2.218
54.06000 0.922
54.08000 -2.256
54.10000 1.660
54.12000 2.256
54.14000 1.319
54.16000 2.099
54.18000 6.543
54.20000 4.899
54.22000 5.634
54.24000 1.443
54.26000 1.187
54.28000 2.014
54.30000 2.721
54.32000 0.764
54.34000 0.546
54.36000 3.686
54.38000 1.948
54.40000 -2.008
54.42000 5.578
54.44000 6.006
54.46000 2.614
54.48000 2.856
54.50000 2.087
54.52000 0.163
54.54000 1.653
54.56000 4.176
54.58000 3.368
54.60000 9.221
54.62000 4.989
54.64000 2.564
54.66000 3.965
54.68000 3.004
54.70000 0.377
54.72000 -2.534
54.74000 2.993
54.76000 3.286
54.78000 4.603
54.80000 6.535
54.82000 6.670
54.84000 -2.055
54.86000 -1.793
54.88000 -0.307
54.90000 0.569
54.92000 2.914
54.94000 4.801
54.96000 1.261
54.98000 1.493
55.00000 -1.596
55.02000 2.559
55.04000 4.118
55.06000 5.737
55.08000 5.305
55.10000 0.003
55.12000 -1.517
55.14000 1.764
55.16000 2.067
55.18000 3.206
55.20000 3.232
55.22000 2.226
55.24000 2.658
55.26000 5.407
55.28000 2.439
55.30000 2.343
55.32000 2.641
55.34000 2.643
55.36000 3.921
55.38000 0.021
55.40000 1.434
55.42000 6.701
55.44000 4.685
55.46000 2.621
55.48000 2.192
55.50000 1.553
55.52000 0.032
55.54000 1.333
55.56000 -2.518
55.58000 0.073
55.60000 3.202
55.62000 4.165
55.64000 2.362
55.66000 1.790
55.68000 3.593
55.70000 5.122
55.72000 3.696
55.74000 3.116
55.76000 2.133
55.78000 1.790
55.80000 -0.534
55.82000 0.726
55.84000 4.208
55.86000 6.721
55.88000 2.543
55.90000 3.355
55.92000 -1.386
55.94000 0.470
55.96000 -2.069
55.98000 -0.229
56.00000 -0.002
56.02000 -1.175
56.04000 -0.477
56.06000 -1.351
56.08000 0.259
56.10000 4.279
56.12000 4.212
56.14000 1.440
56.16000 1.585
56.18000 -0.525
56.20000 4.670
56.22000 3.772
56.24000 2.604
56.26000 2.518
56.28000 1.579
56.30000 2.525
56.32000 1.311
56.34000 3.587
56.36000 4.600
56.38000 1.684
56.40000 -0.969
56.42000 -1.604
56.44000 -0.661
56.46000 3.985
56.48000 5.199
56.50000 5.074
56.52000 0.893
56.54000 -1.945
56.56000 -1.647
56.58000 -2.514
56.60000 1.621
56.62000 -1.208
56.64000 -0.657
56.66000 4.588
56.68000 3.469
56.70000 0.640
56.72000 1.752
56.74000 2.589
56.76000 5.289
56.78000 4.484
56.80000 -0.525
56.82000 -0.420
56.84000 2.307
56.86000 3.934
56.88000 0.399
56.90000 -0.354
56.92000 4.441
56.94000 4.036
56.96000 4.927
56.98000 2.361
57.00000 0.373
57.02000 2.154
57.04000 4.148
57.06000 -0.988
57.08000 0.710
57.10000 1.051
57.12000 4.211
57.14000 3.300
57.16000 0.903
57.18000 -1.704
57.20000 -0.203
57.22000 0.409
57.24000 -1.454
57.26000 -2.476
57.28000 0.957
57.30000 3.849
57.32000 3.890
57.34000 1.329
57.36000 4.437
57.38000 2.267
57.40000 -0.290
57.42000 2.962
57.44000 2.523
57.46000 2.101
57.48000 6.103
57.50000 2.759
57.52000 2.659
57.54000 0.068
57.56000 1.348
57.58000 3.675
57.60000 -0.180
57.62000 0.399
57.64000 -0.203
57.66000 2.242
57.68000 1.036
57.70000 2.148
57.72000 1.584
57.74000 2.057
57.76000 -0.359
57.78000 1.625
57.80000 3.680
57.82000 1.010
57.84000 0.897
57.86000 0.280
57.88000 2.580
57.90000 6.795
57.92000 3.821
57.94000 2.150
57.96000 3.161
57.98000 1.949
58.00000 2.146
58.02000 0.193
58.04000 0.591
58.06000 2.487
58.08000 2.231
58.10000 2.952
58.12000 0.198
58.14000 -2.432
58.16000 2.085
58.18000 5.375
58.20000 6.589
58.22000 3.909
58.24000 4.850
58.26000 5.136
58.28000 1.193
58.30000 0.680
58.32000 3.107
58.34000 5.552
58.36000 5.880
58.38000 3.372
58.40000 2.428
58.42000 3.096
58.44000 1.899
58.46000 3.686
58.48000 3.664
58.50000 5.781
58.52000 5.579
58.54000 0.323
58.56000 -1.479
58.58000 -0.742
58.60000 1.800
58.62000 1.946
58.64000 5.635
58.66000 8.197
58.68000 2.996
58.70000 1.583
58.72000 1.158
58.74000 2.235
58.76000 5.297
58.78000 8.344
58.80000 4.045
58.82000 2.881
58.84000 4.348
58.86000 3.098
58.88000 2.651
58.90000 2.036
58.92000 2.423
58.94000 5.636
58.96000 4.512
58.98000 4.678
59.00000 -0.920
59.02000 0.779
59.04000 5.245
59.06000 1.760
59.08000 -2.321
59.10000 4.904
59.12000 7.088
59.14000 2.243
59.16000 -1.732
59.18000 -2.382
59.20000 1.418
59.22000 0.964
59.24000 2.402
59.26000 -0.522
59.28000 4.939
59.30000 4.565
59.32000 1.702
59.34000 -0.366
59.36000 3.630
59.38000 4.109
59.40000 2.689
59.42000 2.041
59.44000 -0.050
59.46000 2.180
59.48000 2.844
59.50000 4.883
59.52000 5.517
59.54000 4.715
59.56000 4.105
59.58000 2.091
59.60000 2.697
59.62000 6.006
59.64000 5.687
59.66000 3.284
59.68000 2.798
59.70000 1.917
59.72000 0.787
59.74000 4.699
59.76000 6.247
59.78000 2.433
59.80000 1.323
59.82000 2.736
59.84000 3.304
59.86000 2.762
59.88000 4.261
59.90000 4.250
59.92000 2.574
59.94000 1.136
59.96000 -0.272
59.98000 1.175
60.00000 3.233
60.02000 2.643
60.04000 4.442
60.06000 3.654
60.08000 6.398
60.10000 1.839
60.12000 -0.768
60.14000 -2.100
60.16000 0.621
60.18000 1.590
60.20000 2.558
60.22000 3.953
60.24000 0.934
60.26000 4.986
60.28000 2.934
60.30000 3.180
60.32000 -0.069
60.34000 1.275
60.36000 0.702
60.38000 2.739
60.40000 3.338
60.42000 -0.579
60.44000 1.559
60.46000 4.392
60.48000 -0.372
60.50000 2.726
60.52000 3.037
60.54000 6.002
60.56000 3.618
60.58000 2.749
60.60000 1.581
60.62000 1.377
60.64000 -0.537
60.66000 -2.353
60.68000 1.687
60.70000 4.351
60.72000 5.863
60.74000 6.963
60.76000 2.510
60.78000 -2.353
60.80000 -1.671
60.82000 -0.497
60.84000 3.625
60.86000 5.041
60.88000 3.230
60.90000 3.474
60.92000 3.820
60.94000 4.075
60.96000 5.691
60.98000 2.029
61.00000 0.709
61.02000 0.193
61.04000 -0.846
61.06000 0.208
61.08000 3.363
61.10000 0.401
61.12000 1.868
61.14000 -0.306
61.16000 -1.072
61.18000 -0.097
61.20000 5.026
61.22000 3.515
61.24000 4.382
61.26000 3.646
61.28000 1.936
61.30000 -2.356
61.32000 -2.010
61.34000 -0.150
61.36000 2.674
61.38000 2.860
61.40000 1.662
61.42000 5.263
61.44000 2.542
61.46000 -0.066
61.48000 1.327
61.50000 2.956
61.52000 1.169
61.54000 3.100
61.56000 1.881
61.58000 0.373
61.60000 -1.849
61.62000 2.992
61.64000 7.139
61.66000 2.423
61.68000 1.029
61.70000 1.801
61.72000 3.050
61.74000 5.045
61.76000 5.722
61.78000 2.097
61.80000 0.171
61.82000 4.135
61.84000 2.534
61.86000 4.343
61.88000 4.301
61.90000 0.053
61.92000 1.237
61.94000 1.463
61.96000 -1.000
61.98000 0.702
62.00000 2.015
62.02000 5.084
62.04000 5.162
62.06000 2.990
62.08000 5.047
62.10000 6.677
62.12000 2.405
62.14000 4.733
62.16000 5.184
62.18000 2.840
62.20000 -2.339
62.22000 -1.446
62.24000 1.058
62.26000 1.685
62.28000 2.498
62.30000 2.385
62.32000 0.974
62.34000 -2.151
62.36000 -0.189
62.38000 1.425
62.40000 1.575
62.42000 -0.293
62.44000 -1.499
62.46000 -1.575
62.48000 -0.046
62.50000 4.200
62.52000 0.992
62.54000 0.411
62.56000 1.061
62.58000 -0.213
62.60000 0.741
62.62000 -1.197
62.64000 0.143
62.66000 1.685
62.68000 4.905
62.70000 4.783
62.72000 1.489
62.74000 -0.198
62.76000 -1.755
62.78000 3.196
62.80000 2.598
62.82000 -0.638
62.84000 -0.182
62.86000 -0.132
62.88000 -1.180
62.90000 0.530
62.92000 1.470
62.94000 -0.129
62.96000 -0.377
62.98000 -1.940
63.00000 -0.938
63.02000 0.738
63.04000 1.657
63.06000 -0.051
63.08000 -1.197
63.10000 -2.201
63.12000 -1.909
63.14000 0.323
63.16000 1.185
63.18000 3.724
63.20000 1.189
63.22000 -0.388
63.24000 0.832
63.26000 -0.717
63.28000 0.438
63.30000 -0.297
63.32000 -0.901
63.34000 -2.357
63.36000 -0.603
63.38000 -0.223
63.40000 -0.764
63.42000 2.374
63.44000 4.121
63.46000 -0.171
63.48000 2.353
63.50000 -1.151
63.52000 -1.275
63.54000 -1.275
63.56000 -1.131
63.58000 -2.265
63.60000 -1.619
63.62000 2.257
63.64000 -1.620
63.66000 -0.458
63.68000 1.235
63.70000 1.468
63.72000 -1.257
63.74000 -1.330
63.76000 3.735
63.78000 4.471
63.80000 2.384
63.82000 1.309
63.84000 -0.954
63.86000 -1.895
63.88000 -2.349
63.90000 0.306
63.92000 0.573
63.94000 -0.289
63.96000 1.426
63.98000 2.098
64.00000 3.788
64.02000 -0.834
64.04000 0.451
64.06000 -0.745
64.08000 -0.459
64.10000 0.956
64.12000 0.058
64.14000 0.802
64.16000 -0.121
64.18000 2.605
64.20000 0.719
64.22000 0.882
64.24000 1.887
64.26000 2.613
64.28000 3.895
64.30000 1.183
64.32000 -2.326
64.34000 -0.480
64.36000 2.176
64.38000 4.606
64.40000 -0.231
64.42000 -1.138
64.44000 0.560
64.46000 -0.336
64.48000 -1.511
64.50000 -2.330
64.52000 -1.032
64.54000 1.043
64.56000 2.015
64.58000 1.236
64.60000 0.220
64.62000 0.300
64.64000 0.777
64.66000 1.619
64.68000 -2.067
64.70000 -0.177
64.72000 1.944
64.74000 0.591
64.76000 -2.332
64.78000 2.372
64.80000 0.924
64.82000 1.500
64.84000 -0.020
64.86000 1.092
64.88000 -1.017
64.90000 1.711
64.92000 0.588
64.94000 -1.618
64.96000 -2.105
64.98000 1.498
65.00000 3.201
65.02000 1.396
65.04000 4.392
65.06000 4.982
65.08000 2.754
65.10000 1.105
65.12000 -0.802
65.14000 2.230
65.16000 4.866
65.18000 6.542
65.20000 0.700
65.22000 -1.122
65.24000 -0.180
65.26000 1.528
65.28000 -1.886
65.30000 -0.716
65.32000 3.275
65.34000 2.840
65.36000 3.028
65.38000 1.511
65.40000 1.180
65.42000 1.448
65.44000 0.557
65.46000 -0.667
65.48000 -2.338
65.50000 -0.314
65.52000 0.128
65.54000 0.191
65.56000 3.944
65.58000 1.916
65.60000 1.267
65.62000 2.819
65.64000 2.741
65.66000 -0.241
65.68000 -0.892
65.70000 -0.335
65.72000 -1.231
65.74000 -0.158
65.76000 -1.049
65.78000 0.967
65.80000 2.454
65.82000 3.911
65.84000 0.206
65.86000 0.511
65.88000 0.571
65.90000 1.287
65.92000 2.561
65.94000 1.547
65.96000 1.149
65.98000 -2.320
66.00000 -0.566
66.02000 0.824
66.04000 -0.317
66.06000 0.017
66.08000 0.702
66.10000 1.291
66.12000 1.459
66.14000 1.356
66.16000 -0.229
66.18000 0.030
66.20000 -0.048
66.22000 0.337
66.24000 -1.390
66.26000 -1.829
66.28000 0.508
66.30000 1.921
66.32000 2.703
66.34000 -0.113
66.36000 -1.946
66.38000 1.202
66.40000 3.137
66.42000 -1.512
66.44000 -0.695
66.46000 0.152
66.48000 -0.416
66.50000 0.790
66.52000 2.427
66.54000 1.947
66.56000 0.512
66.58000 2.157
66.60000 0.278
66.62000 -2.234
66.64000 -2.378
66.66000 -0.309
66.68000 -0.211
66.70000 -0.708
66.72000 0.725
66.74000 4.669
66.76000 3.227
66.78000 1.502
66.80000 2.267
66.82000 0.465
66.84000 -0.359
66.86000 -0.837
66.88000 -1.763
66.90000 -1.866
66.92000 -1.679
66.94000 -2.179
66.96000 0.107
66.98000 0.046
67.00000 0.253
67.02000 1.473
67.04000 2.806
67.06000 0.354
67.08000 -1.252
67.10000 -2.109
67.12000 -1.783
67.14000 -1.172
67.16000 -2.173
67.18000 -2.264
67.20000 -0.236
67.22000 1.702
67.24000 -0.845
67.26000 -2.386
67.28000 -1.080
67.30000 -0.662
67.32000 -2.406
67.34000 -0.978
67.36000 0.507
67.38000 4.628
67.40000 5.877
67.42000 3.774
67.44000 -1.177
67.46000 -1.381
67.48000 1.028
67.50000 1.971
67.52000 -2.079
67.54000 -1.795
67.56000 1.486
67.58000 3.827
67.60000 0.922
67.62000 -0.543
67.64000 0.694
67.66000 0.164
67.68000 1.382
67.70000 0.895
67.72000 0.275
67.74000 4.143
67.76000 5.278
67.78000 3.480
67.80000 3.488
67.82000 5.561
67.84000 4.643
67.86000 3.705
67.88000 4.798
67.90000 6.594
67.92000 7.402
67.94000 8.026
67.96000 6.697
67.98000 8.474
68.00000 8.637
68.02000 8.114
68.04000 8.898
68.06000 6.606
68.08000 9.491
68.10000 11.996
68.12000 8.254
68.14000 8.166
68.16000 7.229
68.18000 10.081
68.20000 9.448
68.22000 10.965
68.24000 15.162
68.26000 16.380
68.28000 15.346
68.30000 11.978
68.32000 12.966
68.34000 14.873
68.36000 16.335
68.38000 17.118
68.40000 16.306
68.42000 20.514
68.44000 24.863
68.46000 25.541
68.48000 25.376
68.50000 23.622
68.52000 22.027
68.54000 24.294
68.56000 22.494
68.58000 25.916
68.60000 23.030
68.62000 26.093
68.64000 27.931
68.66000 27.683
68.68000 30.624
68.70000 33.131
68.72000 32.477
68.74000 29.586
68.76000 30.101
68.78000 29.888
68.80000 33.397
68.82000 33.676
68.84000 34.745
68.86000 33.707
68.88000 32.748
68.90000 36.693
68.92000 34.261
68.94000 31.925
68.96000 34.329
68.98000 32.788
69.00000 29.608
69.02000 31.808
69.04000 31.116
69.06000 28.369
69.08000 25.741
69.10000 26.640
69.12000 22.282
69.14000 21.972
69.16000 26.269
69.18000 26.940
69.20000 26.872
69.22000 21.720
69.24000 22.461
69.26000 24.734
69.28000 17.723
69.30000 16.336
69.32000 14.464
69.34000 17.690
69.36000 18.577
69.38000 16.935
69.40000 18.111
69.42000 16.547
69.44000 15.558
69.46000 14.426
69.48000 16.800
69.50000 14.557
69.52000 12.793
69.54000 12.987
69.56000 11.146
69.58000 7.762
69.60000 6.147
69.62000 6.497
69.64000 13.478
69.66000 13.223
69.68000 9.054
69.70000 7.088
69.72000 5.572
69.74000 8.862
69.76000 11.332
69.78000 7.780
69.80000 5.061
69.82000 4.079
69.84000 2.750
69.86000 2.578
69.88000 3.403
69.90000 5.707
69.92000 7.702
69.94000 5.356
69.96000 3.911
69.98000 1.516
70.00000 2.438
70.02000 4.109
70.04000 2.106
70.06000 4.202
70.08000 3.288
70.10000 -1.272
70.12000 -1.025
70.14000 3.613
70.16000 1.577
70.18000 -2.315
70.20000 -0.698
70.22000 1.061
70.24000 3.031
70.26000 1.712
70.28000 0.283
70.30000 1.531
70.32000 4.321
70.34000 5.678
70.36000 3.770
70.38000 2.610
70.40000 4.140
70.42000 1.548
70.44000 1.611
70.46000 -0.045
70.48000 4.149
70.50000 3.843
70.52000 0.994
70.54000 1.726
70.56000 1.646
70.58000 -2.272
70.60000 -0.156
70.62000 2.674
70.64000 4.083
70.66000 7.584
70.68000 2.441
70.70000 3.424
70.72000 4.058
70.74000 2.748
70.76000 0.618
70.78000 2.700
70.80000 3.848
70.82000 4.228
70.84000 3.969
70.86000 4.020
70.88000 5.921
70.90000 5.441
70.92000 1.791
70.94000 2.542
70.96000 0.925
70.98000 4.396
71.00000 1.250
71.02000 0.387
71.04000 1.003
71.06000 0.484
71.08000 1.282
71.10000 2.371
71.12000 3.418
71.14000 4.428
71.16000 3.894
71.18000 0.732
71.20000 -2.228
71.22000 0.531
71.24000 3.416
71.26000 3.076
71.28000 4.853
71.30000 8.270
71.32000 4.134
71.34000 1.298
71.36000 1.297
71.38000 0.552
71.40000 1.434
71.42000 2.012
71.44000 2.185
71.46000 2.487
71.48000 1.195
71.50000 3.482
71.52000 5.300
71.54000 4.429
71.56000 0.203
71.58000 -0.629
71.60000 1.243
71.62000 3.132
71.64000 5.027
71.66000 2.294
71.68000 2.506
71.70000 4.234
71.72000 3.090
71.74000 2.871
71.76000 -2.014
71.78000 -0.583
71.80000 4.156
71.82000 6.708
71.84000 1.409
71.86000 3.953
71.88000 5.755
71.90000 3.185
71.92000 2.686
71.94000 3.897
71.96000 3.175
71.98000 2.418
72.00000 2.960
72.02000 2.830
72.04000 2.047
72.06000 -0.335
72.08000 5.128
72.10000 2.214
72.12000 -2.160
72.14000 -1.403
72.16000 0.366
72.18000 3.877
72.20000 3.145
72.22000 3.354
72.24000 3.673
72.26000 2.528
72.28000 0.437
72.30000 3.691
72.32000 1.837
72.34000 2.996
72.36000 4.641
72.38000 4.819
72.40000 3.366
72.42000 1.661
72.44000 -1.244
72.46000 3.092
72.48000 4.458
72.50000 4.761
72.52000 3.790
72.54000 4.629
72.56000 3.846
72.58000 2.937
72.60000 3.294
72.62000 5.538
72.64000 1.328
72.66000 1.456
72.68000 0.883
72.70000 3.717
72.72000 2.602
72.74000 1.643
72.76000 1.792
72.78000 3.560
72.80000 3.805
72.82000 1.070
72.84000 0.980
72.86000 -2.172
72.88000 -0.074
72.90000 1.600
72.92000 -0.783
72.94000 -0.527
72.96000 1.247
72.98000 1.924
73.00000 4.871
73.02000 6.993
73.04000 7.095
73.06000 3.543
73.08000 2.628
73.10000 1.246
73.12000 0.872
73.14000 3.481
73.16000 6.024
73.18000 4.593
73.20000 1.736
73.22000 0.235
73.24000 1.572
73.26000 2.885
73.28000 -1.458
73.30000 -0.483
73.32000 2.599
73.34000 1.854
73.36000 4.155
73.38000 0.633
73.40000 0.035
73.42000 2.800
73.44000 1.096
73.46000 4.003
73.48000 4.216
73.50000 2.049
73.52000 1.902
73.54000 4.555
73.56000 2.432
73.58000 2.456
73.60000 1.831
73.62000 -0.029
73.64000 1.937
73.66000 2.637
73.68000 2.492
73.70000 -2.145
73.72000 0.052
73.74000 3.587
73.76000 1.839
73.78000 1.303
73.80000 3.124
73.82000 5.870
73.84000 5.066
73.86000 4.049
73.88000 4.350
73.90000 2.215
73.92000 3.257
73.94000 4.384
73.96000 2.323
73.98000 1.918
74.00000 0.997
74.02000 2.175
74.04000 1.425
74.06000 5.090
74.08000 5.763
74.10000 3.108
74.12000 0.920
74.14000 2.820
74.16000 1.487
74.18000 1.210
74.20000 -2.156
74.22000 -1.421
74.24000 0.993
74.26000 2.192
74.28000 0.943
74.30000 0.859
74.32000 1.426
74.34000 2.088
74.36000 4.167
74.38000 2.866
74.40000 1.943
74.42000 1.257
74.44000 1.965
74.46000 2.340
74.48000 0.776
74.50000 0.764
74.52000 -1.699
74.54000 2.583
74.56000 2.175
74.58000 -0.992
74.60000 -0.321
74.62000 2.329
74.64000 0.907
74.66000 1.504
74.68000 3.591
74.70000 -1.815
74.72000 1.070
74.74000 -0.151
74.76000 0.058
74.78000 -0.881
74.80000 0.652
74.82000 1.575
74.84000 0.013
74.86000 5.946
74.88000 4.132
74.90000 0.235
74.92000 -0.293
74.94000 1.828
74.96000 1.341
74.98000 3.490
75.00000 3.549
75.02000 -0.946
75.04000 1.848
75.06000 2.550
75.08000 1.464
75.10000 1.620
75.12000 -2.158
75.14000 0.758
75.16000 -0.456
75.18000 1.314
75.20000 0.659
75.22000 0.856
75.24000 4.897
75.26000 2.261
75.28000 1.818
75.30000 3.862
75.32000 -0.242
75.34000 -1.007
75.36000 -1.881
75.38000 2.204
75.40000 1.230
75.42000 3.503
75.44000 6.214
75.46000 3.535
75.48000 2.115
75.50000 1.018
75.52000 2.802
75.54000 2.949
75.56000 1.307
75.58000 3.187
75.60000 1.097
75.62000 1.887
75.64000 -0.244
75.66000 3.159
75.68000 -0.928
75.70000 -2.168
75.72000 1.146
75.74000 0.499
75.76000 0.653
75.78000 1.358
75.80000 1.124
75.82000 -0.743
75.84000 1.032
75.86000 6.029
75.88000 3.054
75.90000 2.903
75.92000 2.973
75.94000 2.449
75.96000 2.439
75.98000 2.012
76.00000 -2.165
76.02000 -0.968
76.04000 -0.005
76.06000 -0.171
76.08000 0.213
76.10000 2.289
76.12000 3.692
76.14000 4.500
76.16000 5.981
76.18000 2.472
76.20000 0.625
76.22000 -1.061
76.24000 -2.164
76.26000 0.556
76.28000 3.966
76.30000 3.557
76.32000 2.751
76.34000 3.886
76.36000 3.139
76.38000 0.458
76.40000 -0.117
76.42000 3.020
76.44000 3.201
76.46000 0.698
76.48000 -1.982
76.50000 -0.882
76.52000 1.634
76.54000 4.744
76.56000 1.274
76.58000 2.203
76.60000 1.054
76.62000 2.741
76.64000 3.392
76.66000 -0.580
76.68000 2.855
76.70000 4.581
76.72000 -0.315
76.74000 -1.263
76.76000 1.309
76.78000 2.508
76.80000 1.659
76.82000 -1.068
76.84000 2.633
76.86000 2.757
76.88000 0.206
76.90000 -0.543
76.92000 2.662
76.94000 2.890
76.96000 2.375
76.98000 4.900
77.00000 0.604
77.02000 0.719
77.04000 0.347
77.06000 2.974
77.08000 3.471
77.10000 3.468
77.12000 0.930
77.14000 1.441
77.16000 1.543
77.18000 4.061
77.20000 4.865
77.22000 0.967
77.24000 -1.626
77.26000 5.653
77.28000 5.796
77.30000 2.945
77.32000 2.603
77.34000 1.992
77.36000 1.341
77.38000 4.313
77.40000 2.741
77.42000 3.828
77.44000 5.155
77.46000 3.291
77.48000 0.546
77.50000 6.250
77.52000 5.978
77.54000 2.405
77.56000 -0.777
77.58000 -0.041
77.60000 0.824
77.62000 1.613
77.64000 7.028
77.66000 4.161
77.68000 2.806
77.70000 7.500
77.72000 8.296
77.74000 10.515
77.76000 9.154
77.78000 1.640
77.80000 -2.120
77.82000 1.392
77.84000 2.288
77.86000 2.649
77.88000 1.845
77.90000 2.053
77.92000 2.326
77.94000 6.127
77.96000 6.773
77.98000 4.330
78.00000 5.839
78.02000 6.400
78.04000 7.100
78.06000 6.096
78.08000 8.129
78.10000 5.828
78.12000 1.232
78.14000 3.357
78.16000 5.884
78.18000 2.632
78.20000 2.878
78.22000 4.713
78.24000 3.890
78.26000 4.440
78.28000 0.873
78.30000 -1.210
78.32000 1.947
78.34000 3.122
78.36000 3.572
78.38000 2.497
78.40000 1.686
78.42000 4.484
78.44000 5.694
78.46000 3.702
78.48000 6.261
78.50000 7.411
78.52000 2.553
78.54000 5.125
78.56000 2.766
78.58000 -1.283
78.60000 2.145
78.62000 0.497
78.64000 4.360
78.66000 6.374
78.68000 2.995
78.70000 1.990
78.72000 0.971
78.74000 0.056
78.76000 -2.176
78.78000 1.136
78.80000 1.783
78.82000 1.210
78.84000 -0.601
78.86000 -0.054
78.88000 3.364
78.90000 2.322
78.92000 -0.692
78.94000 0.940
78.96000 4.450
78.98000 3.326
79.00000 3.703
79.02000 4.214
79.04000 6.285
79.06000 -0.560
79.08000 1.109
79.10000 2.283
79.12000 -2.187
79.14000 1.016
79.16000 2.908
79.18000 2.873
79.20000 1.636
79.22000 1.920
79.24000 1.698
79.26000 0.093
79.28000 2.388
79.30000 4.397
79.32000 3.391
79.34000 1.603
79.36000 3.306
79.38000 3.044
79.40000 5.382
79.42000 0.632
79.44000 -0.465
79.46000 0.530
79.48000 5.233
79.50000 4.915
79.52000 2.935
79.54000 2.781
79.56000 -0.516
79.58000 -1.967
79.60000 -0.328
79.62000 0.724
79.64000 3.670
79.66000 2.358
79.68000 3.305
79.70000 0.514
79.72000 2.289
79.74000 5.547
79.76000 6.059
79.78000 5.172
79.80000 4.288
79.82000 3.316
79.84000 1.188
79.86000 0.815
79.88000 0.117
79.90000 -0.675
79.92000 -0.871
79.94000 3.381
79.96000 4.196
79.98000 2.105
80.00000 -1.821
80.02000 -1.131
80.04000 3.225
80.06000 1.941
80.08000 2.394
80.10000 0.475
80.12000 -2.211
80.14000 1.220
80.16000 0.800
80.18000 1.442
80.20000 1.093
80.22000 2.679
80.24000 -0.235
80.26000 -2.234
80.28000 -0.988
80.30000 2.531
80.32000 4.462
80.34000 2.879
80.36000 3.746
80.38000 3.785
80.40000 6.252
80.42000 2.718
80.44000 0.758
80.46000 1.429
80.48000 4.123
80.50000 1.889
80.52000 -1.272
80.54000 1.430
80.56000 -1.470
80.58000 -0.565
80.60000 1.663
80.62000 3.603
80.64000 4.047
80.66000 3.731
80.68000 -0.096
80.70000 0.875
80.72000 0.815
80.74000 2.902
80.76000 1.571
80.78000 0.361
80.80000 2.364
80.82000 3.044
80.84000 5.439
80.86000 4.582
80.88000 1.150
80.90000 0.369
80.92000 -0.151
80.94000 -0.672
80.96000 2.789
80.98000 2.014
81.00000 3.742
81.02000 5.387
81.04000 2.768
81.06000 3.517
81.08000 3.720
81.10000 -0.061
81.12000 -2.268
81.14000 2.058
81.16000 5.488
81.18000 6.334
81.20000 2.754
81.22000 1.243
81.24000 5.435
81.26000 0.798
81.28000 2.324
81.30000 0.803
81.32000 -2.148
81.34000 3.249
81.36000 4.418
81.38000 4.064
81.40000 3.283
81.42000 2.841
81.44000 3.428
81.46000 1.235
81.48000 3.602
81.50000 9.226
81.52000 7.214
81.54000 3.166
81.56000 2.773
81.58000 3.216
81.60000 5.788
81.62000 6.134
81.64000 3.709
81.66000 5.557
81.68000 6.111
81.70000 4.838
81.72000 3.534
81.74000 3.326
81.76000 6.549
81.78000 4.278
81.80000 3.736
81.82000 3.512
81.84000 7.085
81.86000 8.343
81.88000 9.820
81.90000 10.462
81.92000 10.526
81.94000 8.298
81.96000 8.360
81.98000 11.517
82.00000 9.258
82.02000 12.259
82.04000 15.329
82.06000 9.126
82.08000 7.276
82.10000 9.503
82.12000 12.869
82.14000 11.334
82.16000 13.091
82.18000 11.570
82.20000 16.118
82.22000 16.423
82.24000 13.655
82.26000 14.071
82.28000 16.371
82.30000 17.563
82.32000 14.632
82.34000 16.340
82.36000 20.396
82.38000 16.637
82.40000 17.501
82.42000 21.096
82.44000 19.910
82.46000 21.901
82.48000 23.169
82.50000 24.774
82.52000 24.679
82.54000 32.118
82.56000 29.238
82.58000 28.633
82.60000 32.452
82.62000 33.976
82.64000 32.176
82.66000 29.317
82.68000 33.723
82.70000 32.708
82.72000 32.545
82.74000 34.637
82.76000 33.782
82.78000 36.303
82.80000 33.169
82.82000 40.718
82.84000 41.406
82.86000 39.878
82.88000 42.564
82.90000 41.897
82.92000 48.793
82.94000 50.340
82.96000 48.908
82.98000 46.799
83.00000 48.872
83.02000 48.468
83.04000 45.317
83.06000 42.236
83.08000 45.098
83.10000 47.254
83.12000 47.796
83.14000 48.865
83.16000 52.181
83.18000 44.833
83.20000 44.791
83.22000 48.513
83.24000 48.537
83.26000 43.348
83.28000 44.019
83.30000 44.374
83.32000 41.257
83.34000 38.570
83.36000 41.591
83.38000 34.753
83.40000 36.774
83.42000 38.308
83.44000 37.047
83.46000 32.806
83.48000 30.562
83.50000 33.762
83.52000 35.861
83.54000 30.116
83.56000 29.853
83.58000 27.635
83.60000 22.212
83.62000 31.695
83.64000 30.528
83.66000 25.185
83.68000 23.356
83.70000 22.260
83.72000 19.084
83.74000 18.979
83.76000 25.426
83.78000 26.205
83.80000 19.250
83.82000 19.937
83.84000 26.352
83.86000 18.366
83.88000 21.291
83.90000 20.269
83.92000 12.230
83.94000 15.972
83.96000 15.853
83.98000 13.044
84.00000 8.977
84.02000 7.064
84.04000 11.370
84.06000 13.970
84.08000 11.180
84.10000 6.871
84.12000 6.656
84.14000 7.287
84.16000 5.667
84.18000 8.403
84.20000 7.278
84.22000 13.852
84.24000 7.821
84.26000 7.864
84.28000 9.207
84.30000 7.123
84.32000 5.695
84.34000 5.981
84.36000 5.295
84.38000 1.730
84.40000 4.244
84.42000 2.613
84.44000 3.759
84.46000 3.989
84.48000 5.539
84.50000 7.028
84.52000 6.043
84.54000 6.291
84.56000 5.004
84.58000 4.819
84.60000 5.539
84.62000 3.835
84.64000 1.918
84.66000 0.701
84.68000 0.947
84.70000 2.199
84.72000 1.441
84.74000 5.457
84.76000 5.305
84.78000 3.519
84.80000 -2.311
84.82000 2.368
84.84000 6.025
84.86000 5.299
84.88000 3.364
84.90000 0.424
84.92000 3.106
84.94000 3.090
84.96000 -0.530
84.98000 -1.231
85.00000 1.771
85.02000 2.227
85.04000 2.174
85.06000 -2.297
85.08000 -0.935
85.10000 0.872
85.12000 4.496
85.14000 4.642
85.16000 0.176
85.18000 -0.826
85.20000 0.031
85.22000 1.511
85.24000 0.999
85.26000 -0.587
85.28000 -1.716
85.30000 -0.157
85.32000 -0.577
85.34000 0.258
85.36000 -1.922
85.38000 -0.706
85.40000 0.318
85.42000 3.345
85.44000 4.843
85.46000 0.695
85.48000 1.943
85.50000 -1.255
85.52000 0.534
85.54000 1.777
85.56000 -2.211
85.58000 -2.264
85.60000 -0.486
85.62000 2.918
85.64000 2.156
85.66000 -0.480
85.68000 -1.590
85.70000 -0.932
85.72000 1.110
85.74000 -2.266
85.76000 -2.061
85.78000 -0.157
85.80000 2.854
85.82000 -0.005
85.84000 1.891
85.86000 1.996
85.88000 1.902
85.90000 0.432
85.92000 2.858
85.94000 -0.511
85.96000 -1.765
85.98000 -0.615
86.00000 -1.685
86.02000 -1.506
86.04000 1.088
86.06000 0.520
86.08000 -1.809
86.10000 0.439
86.12000 1.579
86.14000 0.042
86.16000 1.056
86.18000 -0.484
86.20000 -1.313
86.22000 1.780
86.24000 3.362
86.26000 4.030
86.28000 0.011
86.30000 -2.256
86.32000 2.549
86.34000 3.211
86.36000 3.634
86.38000 1.139
86.40000 3.586
86.42000 4.116
86.44000 1.704
86.46000 0.984
86.48000 0.336
86.50000 2.109
86.52000 5.396
86.54000 9.764
86.56000 9.624
86.58000 3.213
86.60000 5.210
86.62000 4.870
86.64000 6.312
86.66000 6.193
86.68000 6.237
86.70000 5.554
86.72000 5.454
86.74000 6.012
86.76000 8.190
86.78000 6.971
86.80000 4.244
86.82000 6.251
86.84000 10.055
86.86000 8.661
86.88000 10.152
86.90000 7.384
86.92000 8.020
86.94000 9.149
86.96000 9.789
86.98000 10.603
87.00000 12.144
87.02000 15.239
87.04000 16.080
87.06000 17.644
87.08000 14.757
87.10000 16.662
87.12000 17.141
87.14000 15.044
87.16000 18.459
87.18000 20.661
87.20000 21.573
87.22000 23.683
87.24000 23.208
87.26000 21.987
87.28000 21.336
87.30000 21.248
87.32000 21.448
87.34000 21.609
87.36000 23.619
87.38000 24.546
87.40000 26.818
87.42000 23.726
87.44000 24.046
87.46000 24.654
87.48000 22.710
87.50000 22.479
87.52000 28.991
87.54000 27.897
87.56000 22.424
87.58000 23.249
87.60000 25.306
87.62000 25.271
87.64000 30.193
87.66000 29.474
87.68000 26.458
87.70000 24.878
87.72000 21.743
87.74000 23.330
87.76000 19.295
87.78000 24.136
87.80000 25.960
87.82000 26.004
87.84000 20.947
87.86000 18.424
87.88000 23.145
87.90000 28.235
87.92000 23.210
87.94000 20.677
87.96000 18.411
87.98000 15.107
88.00000 14.588
88.02000 16.141
88.04000 17.817
88.06000 17.656
88.08000 17.901
88.10000 14.191
88.12000 12.184
88.14000 12.316
88.16000 12.350
88.18000 13.766
88.20000 11.679
88.22000 11.207
88.24000 9.725
88.26000 5.974
88.28000 6.588
88.30000 8.407
88.32000 9.557
88.34000 11.319
88.36000 7.283
88.38000 8.566
88.40000 8.151
88.42000 9.976
88.44000 7.945
88.46000 3.199
88.48000 6.838
88.50000 6.042
88.52000 3.969
88.54000 2.934
88.56000 4.189
88.58000 1.801
88.60000 -0.395
88.62000 1.223
88.64000 4.950
88.66000 1.894
88.68000 2.630
88.70000 4.762
88.72000 3.319
88.74000 4.253
88.76000 2.466
88.78000 0.297
88.80000 -1.238
88.82000 3.387
88.84000 3.269
88.86000 5.022
88.88000 8.862
88.90000 0.933
88.92000 -0.996
88.94000 2.696
88.96000 4.841
88.98000 4.339
89.00000 7.256
89.02000 5.771
89.04000 2.851
89.06000 2.792
89.08000 0.598
89.10000 3.081
89.12000 2.806
89.14000 3.315
89.16000 4.494
89.18000 0.994
89.20000 -2.107
89.22000 4.119
89.24000 4.192
89.26000 1.134
89.28000 1.713
89.30000 -1.236
89.32000 -0.745
89.34000 3.096
89.36000 5.795
89.38000 5.188
89.40000 4.303
89.42000 6.252
89.44000 6.192
89.46000 7.083
89.48000 4.369
89.50000 0.622
89.52000 2.898
89.54000 2.982
89.56000 4.432
89.58000 6.584
89.60000 6.050
89.62000 1.520
89.64000 2.427
89.66000 2.571
89.68000 4.149
89.70000 3.076
89.72000 6.566
89.74000 2.552
89.76000 0.816
89.78000 1.565
89.80000 2.670
89.82000 3.227
89.84000 5.559
89.86000 5.975
89.88000 3.798
89.90000 1.725
89.92000 2.791
89.94000 2.536
89.96000 3.653
89.98000 3.416
90.00000 2.284
90.02000 0.767
90.04000 0.860
90.06000 4.448
90.08000 1.083
90.10000 4.197
90.12000 2.927
90.14000 -2.039
90.16000 -1.165
90.18000 0.760
90.20000 4.211
90.22000 0.220
90.24000 -0.905
90.26000 0.829
90.28000 1.787
90.30000 2.002
90.32000 1.713
90.34000 6.057
90.36000 6.499
90.38000 8.344
90.40000 9.404
90.42000 5.471
90.44000 -1.197
90.46000 -0.044
90.48000 1.170
90.50000 0.386
90.52000 0.535
90.54000 2.419
90.56000 3.004
90.58000 1.593
90.60000 2.303
90.62000 3.095
90.64000 5.534
90.66000 7.105
90.68000 6.505
90.70000 3.891
90.72000 5.281
90.74000 2.397
90.76000 -0.181
90.78000 -1.366
90.80000 4.146
90.82000 4.705
90.84000 3.950
90.86000 4.905
90.88000 1.783
90.90000 3.967
90.92000 2.561
90.94000 0.935
90.96000 3.222
90.98000 2.954
91.00000 2.919
91.02000 2.546
91.04000 1.419
91.06000 2.981
91.08000 2.386
91.10000 7.215
91.12000 5.940
91.14000 3.829
91.16000 5.949
91.18000 5.401
91.20000 6.250
91.22000 3.791
91.24000 6.008
91.26000 2.933
91.28000 1.226
91.30000 -1.299
91.32000 -1.994
91.34000 2.904
91.36000 5.497
91.38000 6.804
91.40000 6.752
91.42000 3.102
91.44000 1.102
91.46000 0.487
91.48000 5.706
91.50000 5.289
91.52000 0.477
91.54000 3.130
91.56000 5.578
91.58000 3.236
91.60000 2.021
91.62000 3.769
91.64000 5.615
91.66000 4.260
91.68000 0.780
91.70000 5.067
91.72000 3.492
91.74000 4.453
91.76000 3.698
91.78000 1.248
91.80000 1.436
91.82000 2.577
91.84000 3.847
91.86000 7.490
91.88000 4.525
91.90000 4.850
91.92000 3.879
91.94000 2.690
91.96000 0.342
91.98000 1.381
92.00000 2.786
92.02000 -0.472
92.04000 3.834
92.06000 2.637
92.08000 2.540
92.10000 2.614
92.12000 4.161
92.14000 2.533
92.16000 4.878
92.18000 3.481
92.20000 5.868
92.22000 4.490
92.24000 2.679
92.26000 2.178
92.28000 3.613
92.30000 3.929
92.32000 2.812
92.34000 1.940
92.36000 4.815
92.38000 6.572
92.40000 5.884
92.42000 3.752
92.44000 7.337
92.46000 3.779
92.48000 3.229
92.50000 5.247
92.52000 4.322
92.54000 3.938
92.56000 3.462
92.58000 2.088
92.60000 -0.883
92.62000 1.171
92.64000 5.910
92.66000 5.492
92.68000 4.614
92.70000 2.849
92.72000 1.152
92.74000 2.228
92.76000 6.070
92.78000 8.797
92.80000 7.845
92.82000 4.896
92.84000 -1.033
92.86000 -0.260
92.88000 2.473
92.90000 2.922
92.92000 5.875
92.94000 2.099
92.96000 1.013
92.98000 4.377
93.00000 5.582
93.02000 3.801
93.04000 4.386
93.06000 4.093
93.08000 3.324
93.10000 3.552
93.12000 3.337
93.14000 -2.011
93.16000 -0.290
93.18000 3.855
93.20000 3.726
93.22000 1.831
93.24000 2.590
93.26000 1.546
93.28000 -0.164
93.30000 -0.258
93.32000 4.655
93.34000 6.891
93.36000 4.474
93.38000 5.542
93.40000 7.698
93.42000 3.968
93.44000 4.627
93.46000 6.094
93.48000 5.884
93.50000 4.407
93.52000 5.650
93.54000 3.880
93.56000 1.133
93.58000 4.395
93.60000 5.154
93.62000 8.385
93.64000 7.159
93.66000 4.201
93.68000 3.600
93.70000 5.238
93.72000 8.575
93.74000 10.439
93.76000 7.087
93.78000 2.879
93.80000 -2.038
93.82000 3.315
93.84000 4.054
93.86000 2.446
93.88000 3.122
93.90000 7.759
93.92000 3.604
93.94000 0.269
93.96000 3.252
93.98000 5.241
94.00000 5.072
94.02000 4.614
94.04000 -0.655
94.06000 1.085
94.08000 3.677
94.10000 6.128
94.12000 2.315
94.14000 3.895
94.16000 4.565
94.18000 -0.773
94.20000 1.098
94.22000 0.728
94.24000 -0.161
94.26000 -0.071
94.28000 2.397
94.30000 6.099
94.32000 1.193
94.34000 3.888
94.36000 4.581
94.38000 7.831
94.40000 4.933
94.42000 -1.507
94.44000 2.584
94.46000 5.330
94.48000 1.280
94.50000 3.673
94.52000 4.974
94.54000 4.209
94.56000 5.078
94.58000 3.176
94.60000 0.108
94.62000 1.802
94.64000 0.251
94.66000 -2.049
94.68000 4.432
94.70000 1.506
94.72000 3.561
94.74000 3.917
94.76000 1.349
94.78000 1.936
94.80000 0.454
94.82000 -0.694
94.84000 -1.433
94.86000 0.891
94.88000 3.372
94.90000 4.665
94.92000 5.373
94.94000 3.964
94.96000 0.275
94.98000 -1.981
95.00000 -1.201
95.02000 3.617
95.04000 4.215
95.06000 5.423
95.08000 6.796
95.10000 5.494
95.12000 8.260
95.14000 8.612
95.16000 4.265
95.18000 1.416
95.20000 3.035
95.22000 3.171
95.24000 -2.038
95.26000 -0.334
95.28000 6.421
95.30000 6.718
95.32000 7.860
95.34000 3.629
95.36000 5.710
95.38000 5.894
95.40000 2.981
95.42000 3.769
95.44000 2.099
95.46000 4.389
95.48000 4.312
95.50000 5.143
95.52000 9.683
95.54000 5.461
95.56000 9.127
95.58000 6.489
95.60000 -2.028
95.62000 1.188
95.64000 2.990
95.66000 4.850
95.68000 4.130
95.70000 1.060
95.72000 1.395
95.74000 4.730
95.76000 3.762
95.78000 5.329
95.80000 2.685
95.82000 3.847
95.84000 8.761
95.86000 7.334
95.88000 7.846
95.90000 8.343
95.92000 7.172
95.94000 4.452
95.96000 3.490
95.98000 6.627
96.00000 6.280
96.02000 10.669
96.04000 6.384
96.06000 7.365
96.08000 2.847
96.10000 5.182
96.12000 11.468
96.14000 11.268
96.16000 7.351
96.18000 8.056
96.20000 6.426
96.22000 6.162
96.24000 6.894
96.26000 3.751
96.28000 3.450
96.30000 4.328
96.32000 9.481
96.34000 7.337
96.36000 7.929
96.38000 4.505
96.40000 1.849
96.42000 1.235
96.44000 6.446
96.46000 3.365
96.48000 -1.618
96.50000 -0.663
96.52000 2.876
96.54000 9.543
96.56000 6.888
96.58000 5.317
96.60000 6.451
96.62000 6.644
96.64000 5.155
96.66000 -2.018
96.68000 2.907
96.70000 4.977
96.72000 8.905
96.74000 2.543
96.76000 9.310
96.78000 5.752
96.80000 0.441
96.82000 1.312
96.84000 4.548
96.86000 7.035
96.88000 6.644
96.90000 5.301
96.92000 4.750
96.94000 4.022
96.96000 1.384
96.98000 3.340
97.00000 2.244
97.02000 2.417
97.04000 2.108
97.06000 0.221
97.08000 3.704
97.10000 5.921
97.12000 7.587
97.14000 4.149
97.16000 4.101
97.18000 8.025
97.20000 11.566
97.22000 6.096
97.24000 10.007
97.26000 8.316
97.28000 4.821
97.30000 5.341
97.32000 1.967
97.34000 4.835
97.36000 4.695
97.38000 6.133
97.40000 4.284
97.42000 3.018
97.44000 3.527
97.46000 1.402
97.48000 1.545
97.50000 4.279
97.52000 3.502
97.54000 6.155
97.56000 5.451
97.58000 1.540
97.60000 4.204
97.62000 0.536
97.64000 -0.567
97.66000 1.866
97.68000 4.535
97.70000 4.855
97.72000 6.108
97.74000 4.997
97.76000 -1.924
97.78000 -2.037
97.80000 -0.012
97.82000 3.434
97.84000 2.921
97.86000 9.049
97.88000 9.487
97.90000 5.263
97.92000 4.476
97.94000 5.620
97.96000 4.739
97.98000 4.293
98.00000 3.480
98.02000 4.689
98.04000 9.913
98.06000 6.586
98.08000 5.522
98.10000 2.979
98.12000 -1.230
98.14000 3.627
98.16000 2.129
98.18000 8.346
98.20000 5.189
98.22000 6.077
98.24000 6.296
98.26000 1.525
98.28000 5.016
98.30000 3.541
98.32000 4.815
98.34000 2.044
98.36000 2.003
98.38000 5.095
98.40000 3.054
98.42000 8.830
98.44000 2.174
98.46000 5.275
98.48000 3.401
98.50000 6.466
98.52000 9.265
98.54000 1.886
98.56000 -1.785
98.58000 0.989
98.60000 1.059
98.62000 7.004
98.64000 11.603
98.66000 2.258
98.68000 4.761
98.70000 5.236
98.72000 2.473
98.74000 4.371
98.76000 2.012
98.78000 2.290
98.80000 4.195
98.82000 9.027
98.84000 6.536
98.86000 5.906
98.88000 6.475
98.90000 6.057
98.92000 5.160
98.94000 5.493
98.96000 8.689
98.98000 9.704
99.00000 7.051
99.02000 -1.517
99.04000 4.528
99.06000 5.339
99.08000 7.282
99.10000 4.983
99.12000 5.458
99.14000 2.555
99.16000 6.786
99.18000 5.638
99.20000 4.394
99.22000 1.934
99.24000 4.425
99.26000 3.321
99.28000 7.824
99.30000 5.923
99.32000 5.603
99.34000 3.916
99.36000 5.844
99.38000 4.792
99.40000 6.170
99.42000 8.705
99.44000 5.569
99.46000 5.880
99.48000 13.807
99.50000 13.961
99.52000 10.025
99.54000 4.999
99.56000 6.994
99.58000 9.312
99.60000 4.181
99.62000 8.110
99.64000 11.977
99.66000 4.859
99.68000 2.945
99.70000 10.137
99.72000 4.721
99.74000 4.575
99.76000 12.142
99.78000 15.644
99.80000 11.592
99.82000 4.655
99.84000 -3.139
99.86000 2.396
99.88000 2.853
99.90000 3.778
99.92000 0.765
99.94000 -0.701
99.96000 -2.248
99.98000 0.000
