'Id: "0011389" Comment: "Integrate frame 0011389_Au-Ir-Rh_Au-Rich_XRD_Mapping-123-0000.gfrmwith cursor Wedge Cursor #5" Operator: "B?rgel" Anode: "Cu" Wavelength: "1.5406" Scantype: "2Theta (TwoTheta)" TimePerStep: "1" X: "-9" Y: "-9" Z: "5.95" 
10.00000 0.000
10.02000 -4.277
10.04000 -4.262
10.06000 5.512
10.08000 12.308
10.10000 30.558
10.12000 33.367
10.14000 13.707
10.16000 5.432
10.18000 -2.386
10.20000 -2.506
10.22000 3.746
10.24000 16.558
10.26000 15.727
10.28000 22.489
10.30000 25.752
10.32000 19.007
10.34000 10.106
10.36000 7.470
10.38000 8.383
10.40000 11.927
10.42000 5.313
10.44000 6.992
10.46000 6.571
10.48000 -0.551
10.50000 15.221
10.52000 -4.217
10.54000 2.496
10.56000 19.470
10.58000 19.454
10.60000 20.729
10.62000 23.095
10.64000 22.800
10.66000 15.591
10.68000 24.753
10.70000 22.287
10.72000 25.433
10.74000 31.126
10.76000 13.970
10.78000 16.257
10.80000 23.085
10.82000 22.633
10.84000 3.731
10.86000 15.626
10.88000 22.506
10.90000 19.295
10.92000 24.681
10.94000 24.867
10.96000 23.950
10.98000 19.846
11.00000 21.506
11.02000 12.316
11.04000 0.732
11.06000 7.882
11.08000 18.336
11.10000 16.930
11.12000 26.022
11.14000 14.934
11.16000 6.066
11.18000 17.957
11.20000 25.187
11.22000 20.196
11.24000 18.208
11.26000 19.260
11.28000 19.368
11.30000 14.717
11.32000 12.874
11.34000 13.884
11.36000 9.973
11.38000 9.284
11.40000 10.518
11.42000 12.024
11.44000 17.361
11.46000 9.975
11.48000 3.166
11.50000 5.665
11.52000 7.555
11.54000 21.192
11.56000 24.078
11.58000 22.287
11.60000 17.378
11.62000 20.977
11.64000 30.559
11.66000 14.858
11.68000 12.375
11.70000 8.103
11.72000 14.801
11.74000 19.004
11.76000 22.489
11.78000 15.284
11.80000 10.243
11.82000 12.671
11.84000 1.391
11.86000 1.389
11.88000 11.259
11.90000 24.087
11.92000 21.116
11.94000 16.452
11.96000 29.526
11.98000 14.994
12.00000 2.318
12.02000 19.330
12.04000 27.232
12.06000 13.977
12.08000 15.660
12.10000 18.662
12.12000 24.731
12.14000 15.543
12.16000 13.578
12.18000 8.529
12.20000 -0.533
12.22000 8.976
12.24000 17.030
12.26000 18.546
12.28000 14.233
12.30000 5.860
12.32000 3.709
12.34000 14.096
12.36000 6.206
12.38000 3.899
12.40000 11.439
12.42000 10.237
12.44000 13.606
12.46000 8.659
12.48000 6.647
12.50000 7.361
12.52000 7.720
12.54000 14.274
12.56000 18.291
12.58000 11.914
12.60000 15.216
12.62000 13.828
12.64000 11.419
12.66000 16.694
12.68000 20.729
12.70000 12.293
12.72000 24.358
12.74000 12.357
12.76000 1.039
12.78000 3.010
12.80000 11.511
12.82000 6.424
12.84000 4.044
12.86000 14.577
12.88000 18.935
12.90000 13.978
12.92000 12.247
12.94000 8.959
12.96000 7.928
12.98000 9.420
13.00000 10.162
13.02000 14.076
13.04000 12.021
13.06000 17.132
13.08000 9.412
13.10000 4.899
13.12000 3.555
13.14000 10.390
13.16000 18.997
13.18000 25.222
13.20000 11.083
13.22000 12.210
13.24000 20.672
13.26000 12.878
13.28000 13.473
13.30000 12.143
13.32000 5.050
13.34000 8.848
13.36000 10.932
13.38000 20.210
13.40000 18.286
13.42000 5.857
13.44000 11.746
13.46000 15.915
13.48000 5.939
13.50000 12.061
13.52000 17.601
13.54000 21.313
13.56000 21.209
13.58000 17.315
13.60000 16.448
13.62000 7.373
13.64000 9.644
13.66000 15.535
13.68000 20.351
13.70000 15.372
13.72000 9.746
13.74000 6.063
13.76000 7.847
13.78000 18.190
13.80000 7.624
13.82000 -4.329
13.84000 0.936
13.86000 9.327
13.88000 9.093
13.90000 9.727
13.92000 19.662
13.94000 11.696
13.96000 1.370
13.98000 5.742
14.00000 4.948
14.02000 7.327
14.04000 12.015
14.06000 5.578
14.08000 8.312
14.10000 6.639
14.12000 2.592
14.14000 8.012
14.16000 6.842
14.18000 8.831
14.20000 6.938
14.22000 11.122
14.24000 13.130
14.26000 12.695
14.28000 9.092
14.30000 5.647
14.32000 9.286
14.34000 -4.463
14.36000 -2.304
14.38000 1.051
14.40000 2.555
14.42000 14.725
14.44000 14.210
14.46000 18.787
14.48000 8.400
14.50000 4.605
14.52000 2.884
14.54000 3.714
14.56000 11.557
14.58000 9.122
14.60000 4.731
14.62000 6.093
14.64000 6.302
14.66000 6.319
14.68000 8.081
14.70000 9.844
14.72000 11.629
14.74000 9.057
14.76000 5.209
14.78000 5.126
14.80000 9.561
14.82000 18.299
14.84000 7.334
14.86000 2.441
14.88000 8.085
14.90000 9.106
14.92000 5.220
14.94000 4.315
14.96000 6.813
14.98000 0.431
15.00000 8.630
15.02000 12.463
15.04000 5.691
15.06000 2.221
15.08000 11.170
15.10000 16.406
15.12000 12.849
15.14000 8.357
15.16000 8.387
15.18000 7.643
15.20000 12.629
15.22000 9.799
15.24000 11.645
15.26000 12.830
15.28000 11.810
15.30000 14.150
15.32000 17.195
15.34000 1.932
15.36000 -1.168
15.38000 6.367
15.40000 10.508
15.42000 5.519
15.44000 11.168
15.46000 11.924
15.48000 15.429
15.50000 13.990
15.52000 -0.119
15.54000 3.124
15.56000 -2.434
15.58000 -2.831
15.60000 -0.515
15.62000 7.563
15.64000 4.579
15.66000 1.870
15.68000 7.566
15.70000 5.765
15.72000 3.608
15.74000 -0.419
15.76000 4.726
15.78000 1.935
15.80000 5.593
15.82000 7.205
15.84000 9.641
15.86000 12.407
15.88000 9.670
15.90000 13.016
15.92000 3.650
15.94000 4.566
15.96000 2.197
15.98000 9.870
16.00000 11.447
16.02000 10.082
16.04000 7.992
16.06000 5.497
16.08000 0.088
16.10000 11.346
16.12000 -4.420
16.14000 -1.442
16.16000 6.096
16.18000 8.955
16.20000 9.099
16.22000 7.836
16.24000 9.338
16.26000 8.461
16.28000 1.503
16.30000 -2.290
16.32000 1.974
16.34000 5.224
16.36000 4.583
16.38000 -1.035
16.40000 -1.065
16.42000 9.489
16.44000 9.978
16.46000 -2.681
16.48000 0.561
16.50000 13.518
16.52000 10.460
16.54000 -0.597
16.56000 0.925
16.58000 3.994
16.60000 -0.313
16.62000 -2.211
16.64000 -0.917
16.66000 0.674
16.68000 3.360
16.70000 10.796
16.72000 8.019
16.74000 4.560
16.76000 1.409
16.78000 6.444
16.80000 4.838
16.82000 3.106
16.84000 9.075
16.86000 6.148
16.88000 10.661
16.90000 10.925
16.92000 5.469
16.94000 -1.438
16.96000 3.215
16.98000 7.806
17.00000 1.150
17.02000 2.998
17.04000 2.218
17.06000 7.902
17.08000 7.595
17.10000 -1.286
17.12000 4.354
17.14000 0.258
17.16000 -0.665
17.18000 6.275
17.20000 3.398
17.22000 2.877
17.24000 5.564
17.26000 6.118
17.28000 2.130
17.30000 5.046
17.32000 6.078
17.34000 8.351
17.36000 8.224
17.38000 8.112
17.40000 5.102
17.42000 2.253
17.44000 2.293
17.46000 4.462
17.48000 11.620
17.50000 8.421
17.52000 0.906
17.54000 -0.613
17.56000 2.325
17.58000 6.493
17.60000 6.226
17.62000 -0.790
17.64000 5.007
17.66000 7.820
17.68000 5.017
17.70000 2.510
17.72000 -1.282
17.74000 0.208
17.76000 12.397
17.78000 15.620
17.80000 8.671
17.82000 5.191
17.84000 5.220
17.86000 7.234
17.88000 11.670
17.90000 6.872
17.92000 7.354
17.94000 9.495
17.96000 10.916
17.98000 8.554
18.00000 3.965
18.02000 7.183
18.04000 7.790
18.06000 0.011
18.08000 10.261
18.10000 7.247
18.12000 -0.309
18.14000 8.466
18.16000 7.101
18.18000 1.983
18.20000 -2.192
18.22000 10.394
18.24000 8.368
18.26000 1.605
18.28000 -0.086
18.30000 0.245
18.32000 -4.294
18.34000 2.833
18.36000 13.204
18.38000 7.338
18.40000 9.177
18.42000 13.895
18.44000 3.130
18.46000 4.516
18.48000 8.419
18.50000 9.806
18.52000 8.933
18.54000 7.476
18.56000 -0.783
18.58000 -1.438
18.60000 4.028
18.62000 9.308
18.64000 16.425
18.66000 8.988
18.68000 10.726
18.70000 15.771
18.72000 15.944
18.74000 8.794
18.76000 11.055
18.78000 9.602
18.80000 4.597
18.82000 4.532
18.84000 8.113
18.86000 8.918
18.88000 10.976
18.90000 10.228
18.92000 5.541
18.94000 6.556
18.96000 11.446
18.98000 12.172
19.00000 11.552
19.02000 8.385
19.04000 19.073
19.06000 15.991
19.08000 8.220
19.10000 5.674
19.12000 -4.202
19.14000 1.566
19.16000 10.308
19.18000 6.080
19.20000 3.894
19.22000 8.811
19.24000 15.996
19.26000 17.369
19.28000 7.281
19.30000 5.346
19.32000 14.675
19.34000 15.414
19.36000 8.842
19.38000 9.633
19.40000 10.125
19.42000 7.826
19.44000 6.934
19.46000 5.391
19.48000 9.079
19.50000 5.364
19.52000 1.793
19.54000 4.610
19.56000 10.279
19.58000 8.320
19.60000 7.695
19.62000 12.038
19.64000 5.052
19.66000 -1.092
19.68000 1.301
19.70000 6.432
19.72000 1.540
19.74000 1.196
19.76000 0.815
19.78000 7.117
19.80000 8.494
19.82000 7.457
19.84000 2.380
19.86000 7.036
19.88000 12.953
19.90000 13.016
19.92000 12.250
19.94000 1.779
19.96000 3.723
19.98000 6.805
20.00000 3.267
20.02000 7.268
20.04000 8.800
20.06000 5.575
20.08000 4.820
20.10000 5.759
20.12000 7.007
20.14000 -0.046
20.16000 0.767
20.18000 3.760
20.20000 6.605
20.22000 3.285
20.24000 -0.738
20.26000 1.709
20.28000 5.385
20.30000 1.969
20.32000 1.263
20.34000 4.581
20.36000 2.948
20.38000 0.066
20.40000 4.890
20.42000 4.084
20.44000 -0.095
20.46000 3.981
20.48000 4.415
20.50000 5.088
20.52000 -4.187
20.54000 -2.113
20.56000 -1.056
20.58000 3.756
20.60000 7.515
20.62000 4.898
20.64000 1.629
20.66000 3.412
20.68000 1.078
20.70000 -2.130
20.72000 -0.620
20.74000 5.636
20.76000 -1.116
20.78000 3.619
20.80000 6.449
20.82000 3.740
20.84000 9.218
20.86000 12.206
20.88000 9.048
20.90000 4.267
20.92000 8.587
20.94000 1.263
20.96000 -1.402
20.98000 3.195
21.00000 1.097
21.02000 1.209
21.04000 -3.232
21.06000 1.827
21.08000 9.036
21.10000 4.831
21.12000 -2.095
21.14000 0.744
21.16000 5.824
21.18000 0.338
21.20000 -1.313
21.22000 0.359
21.24000 -0.712
21.26000 0.691
21.28000 5.471
21.30000 5.369
21.32000 1.660
21.34000 0.535
21.36000 9.640
21.38000 8.450
21.40000 1.354
21.42000 -1.513
21.44000 2.424
21.46000 6.149
21.48000 6.314
21.50000 4.880
21.52000 1.183
21.54000 -1.409
21.56000 -4.145
21.58000 -1.173
21.60000 0.398
21.62000 4.644
21.64000 -0.146
21.66000 -1.705
21.68000 -0.541
21.70000 4.610
21.72000 2.131
21.74000 3.177
21.76000 1.746
21.78000 1.767
21.80000 4.349
21.82000 8.399
21.84000 7.769
21.86000 10.391
21.88000 0.680
21.90000 1.340
21.92000 2.436
21.94000 7.191
21.96000 7.964
21.98000 -0.957
22.00000 -0.217
22.02000 4.099
22.04000 8.673
22.06000 9.124
22.08000 6.369
22.10000 4.099
22.12000 -2.302
22.14000 -0.529
22.16000 -0.165
22.18000 -1.336
22.20000 2.360
22.22000 2.356
22.24000 0.203
22.26000 -1.369
22.28000 1.802
22.30000 3.208
22.32000 5.052
22.34000 0.196
22.36000 -2.994
22.38000 -2.640
22.40000 2.081
22.42000 1.228
22.44000 2.161
22.46000 2.307
22.48000 1.943
22.50000 5.272
22.52000 2.061
22.54000 1.660
22.56000 -2.114
22.58000 0.570
22.60000 -0.418
22.62000 4.702
22.64000 4.625
22.66000 3.144
22.68000 0.583
22.70000 1.125
22.72000 0.887
22.74000 2.953
22.76000 7.312
22.78000 9.970
22.80000 3.688
22.82000 6.328
22.84000 2.004
22.86000 3.018
22.88000 5.132
22.90000 4.638
22.92000 3.874
22.94000 3.470
22.96000 3.763
22.98000 -1.314
23.00000 -4.047
23.02000 -4.066
23.04000 0.974
23.06000 6.296
23.08000 4.410
23.10000 0.740
23.12000 0.609
23.14000 7.537
23.16000 8.436
23.18000 6.417
23.20000 5.815
23.22000 6.985
23.24000 4.730
23.26000 3.171
23.28000 -1.855
23.30000 0.311
23.32000 -2.053
23.34000 -1.704
23.36000 0.388
23.38000 2.082
23.40000 4.613
23.42000 -0.702
23.44000 -0.628
23.46000 2.989
23.48000 6.402
23.50000 0.792
23.52000 0.451
23.54000 3.248
23.56000 4.167
23.58000 3.850
23.60000 7.498
23.62000 6.786
23.64000 4.085
23.66000 2.429
23.68000 3.456
23.70000 1.667
23.72000 4.835
23.74000 4.144
23.76000 4.282
23.78000 1.078
23.80000 2.168
23.82000 7.104
23.84000 5.557
23.86000 3.679
23.88000 10.023
23.90000 8.645
23.92000 9.817
23.94000 10.499
23.96000 4.062
23.98000 4.555
24.00000 2.378
24.02000 0.090
24.04000 -3.989
24.06000 2.657
24.08000 6.197
24.10000 7.719
24.12000 4.464
24.14000 7.435
24.16000 7.420
24.18000 9.993
24.20000 9.398
24.22000 10.558
24.24000 3.454
24.26000 4.525
24.28000 8.569
24.30000 7.819
24.32000 7.003
24.34000 0.669
24.36000 -1.394
24.38000 2.142
24.40000 7.701
24.42000 5.444
24.44000 4.362
24.46000 8.564
24.48000 4.561
24.50000 6.954
24.52000 8.907
24.54000 11.208
24.56000 3.699
24.58000 -1.976
24.60000 -0.930
24.62000 -2.103
24.64000 -2.932
24.66000 1.241
24.68000 0.357
24.70000 -2.640
24.72000 4.766
24.74000 7.154
24.76000 5.014
24.78000 1.506
24.80000 1.518
24.82000 -0.778
24.84000 -2.984
24.86000 -3.723
24.88000 -2.778
24.90000 -3.226
24.92000 2.309
24.94000 7.688
24.96000 8.694
24.98000 7.232
25.00000 9.873
25.02000 5.662
25.04000 -0.163
25.06000 0.306
25.08000 -2.895
25.10000 5.529
25.12000 3.415
25.14000 1.472
25.16000 1.549
25.18000 4.658
25.20000 5.165
25.22000 3.350
25.24000 7.313
25.26000 4.006
25.28000 -1.351
25.30000 -1.286
25.32000 3.816
25.34000 4.123
25.36000 5.967
25.38000 3.680
25.40000 -3.912
25.42000 -3.152
25.44000 8.070
25.46000 5.467
25.48000 2.192
25.50000 5.527
25.52000 8.745
25.54000 7.490
25.56000 5.293
25.58000 9.513
25.60000 8.465
25.62000 5.750
25.64000 7.860
25.66000 4.359
25.68000 6.265
25.70000 11.664
25.72000 10.403
25.74000 2.509
25.76000 2.008
25.78000 3.052
25.80000 7.903
25.82000 8.711
25.84000 8.545
25.86000 3.274
25.88000 4.759
25.90000 7.554
25.92000 6.403
25.94000 4.060
25.96000 0.041
25.98000 0.121
26.00000 -1.564
26.02000 -3.867
26.04000 0.512
26.06000 -1.377
26.08000 2.891
26.10000 7.221
26.12000 7.617
26.14000 7.435
26.16000 5.281
26.18000 6.639
26.20000 2.504
26.22000 3.286
26.24000 4.397
26.26000 1.440
26.28000 3.363
26.30000 6.566
26.32000 7.119
26.34000 7.109
26.36000 5.075
26.38000 3.331
26.40000 3.169
26.42000 1.907
26.44000 1.496
26.46000 3.402
26.48000 1.011
26.50000 3.469
26.52000 6.466
26.54000 4.679
26.56000 3.057
26.58000 2.668
26.60000 0.717
26.62000 -0.877
26.64000 2.188
26.66000 2.851
26.68000 2.166
26.70000 4.159
26.72000 4.008
26.74000 5.105
26.76000 2.080
26.78000 1.974
26.80000 3.557
26.82000 4.369
26.84000 3.441
26.86000 3.712
26.88000 5.041
26.90000 3.390
26.92000 2.507
26.94000 3.571
26.96000 4.717
26.98000 8.373
27.00000 9.209
27.02000 2.546
27.04000 3.324
27.06000 5.944
27.08000 6.213
27.10000 5.023
27.12000 1.904
27.14000 -0.739
27.16000 2.959
27.18000 -0.481
27.20000 0.216
27.22000 6.064
27.24000 6.459
27.26000 2.399
27.28000 1.859
27.30000 2.583
27.32000 0.545
27.34000 3.919
27.36000 12.316
27.38000 4.701
27.40000 7.419
27.42000 6.220
27.44000 8.891
27.46000 7.968
27.48000 4.613
27.50000 -3.819
27.52000 0.651
27.54000 4.375
27.56000 2.263
27.58000 3.644
27.60000 4.326
27.62000 4.598
27.64000 1.852
27.66000 -2.309
27.68000 1.901
27.70000 3.458
27.72000 2.710
27.74000 2.904
27.76000 0.295
27.78000 -3.512
27.80000 0.825
27.82000 2.868
27.84000 0.609
27.86000 1.224
27.88000 3.156
27.90000 7.817
27.92000 3.335
27.94000 0.237
27.96000 6.937
27.98000 5.092
28.00000 0.233
28.02000 0.478
28.04000 6.482
28.06000 8.855
28.08000 1.374
28.10000 0.781
28.12000 2.683
28.14000 -1.894
28.16000 1.908
28.18000 2.634
28.20000 3.013
28.22000 4.357
28.24000 3.850
28.26000 -3.063
28.28000 -3.760
28.30000 -3.686
28.32000 1.710
28.34000 3.905
28.36000 2.924
28.38000 2.007
28.40000 -0.909
28.42000 -1.088
28.44000 6.126
28.46000 11.627
28.48000 8.941
28.50000 8.100
28.52000 8.259
28.54000 10.727
28.56000 6.747
28.58000 3.204
28.60000 3.463
28.62000 8.144
28.64000 4.075
28.66000 3.920
28.68000 5.018
28.70000 5.864
28.72000 12.199
28.74000 10.673
28.76000 8.216
28.78000 0.725
28.80000 3.481
28.82000 7.009
28.84000 4.565
28.86000 5.566
28.88000 7.071
28.90000 2.378
28.92000 1.723
28.94000 6.201
28.96000 5.888
28.98000 2.134
29.00000 -2.672
29.02000 1.325
29.04000 1.594
29.06000 3.517
29.08000 -0.491
29.10000 0.633
29.12000 4.767
29.14000 4.177
29.16000 3.813
29.18000 0.442
29.20000 5.235
29.22000 3.077
29.24000 -3.723
29.26000 -3.429
29.28000 4.526
29.30000 6.180
29.32000 9.914
29.34000 10.185
29.36000 2.519
29.38000 -0.701
29.40000 0.654
29.42000 1.459
29.44000 0.057
29.46000 -0.689
29.48000 -0.243
29.50000 5.892
29.52000 4.940
29.54000 5.537
29.56000 5.033
29.58000 1.587
29.60000 -3.707
29.62000 1.214
29.64000 5.145
29.66000 3.116
29.68000 0.496
29.70000 2.629
29.72000 5.409
29.74000 7.655
29.76000 6.914
29.78000 2.084
29.80000 -0.205
29.82000 -1.819
29.84000 -3.694
29.86000 1.287
29.88000 3.644
29.90000 3.515
29.92000 0.731
29.94000 -0.395
29.96000 3.568
29.98000 5.607
30.00000 6.287
30.02000 3.793
30.04000 5.629
30.06000 6.433
30.08000 4.962
30.10000 2.933
30.12000 -3.685
30.14000 0.158
30.16000 2.480
30.18000 0.851
30.20000 7.174
30.22000 5.272
30.24000 -2.493
30.26000 -2.461
30.28000 2.336
30.30000 6.929
30.32000 5.450
30.34000 4.768
30.36000 6.129
30.38000 3.897
30.40000 3.956
30.42000 4.464
30.44000 5.424
30.46000 4.073
30.48000 9.690
30.50000 8.961
30.52000 7.515
30.54000 4.873
30.56000 5.006
30.58000 3.454
30.60000 4.305
30.62000 3.601
30.64000 -1.652
30.66000 -3.157
30.68000 -2.908
30.70000 -2.396
30.72000 -2.048
30.74000 6.331
30.76000 10.217
30.78000 -1.282
30.80000 1.283
30.82000 7.072
30.84000 2.182
30.86000 2.655
30.88000 9.264
30.90000 8.363
30.92000 6.788
30.94000 6.060
30.96000 5.746
30.98000 3.783
31.00000 4.756
31.02000 2.867
31.04000 -1.247
31.06000 5.414
31.08000 11.500
31.10000 6.933
31.12000 1.939
31.14000 2.929
31.16000 -1.038
31.18000 -1.790
31.20000 0.791
31.22000 5.528
31.24000 7.131
31.26000 1.924
31.28000 0.737
31.30000 -1.838
31.32000 -3.630
31.34000 0.355
31.36000 2.480
31.38000 1.314
31.40000 1.472
31.42000 1.130
31.44000 0.408
31.46000 -2.612
31.48000 1.837
31.50000 4.878
31.52000 6.918
31.54000 2.899
31.56000 5.655
31.58000 1.733
31.60000 1.013
31.62000 2.221
31.64000 3.507
31.66000 1.968
31.68000 0.239
31.70000 -1.788
31.72000 -0.686
31.74000 4.536
31.76000 7.959
31.78000 4.687
31.80000 -0.433
31.82000 1.274
31.84000 1.746
31.86000 -3.616
31.88000 -2.885
31.90000 -1.219
31.92000 0.586
31.94000 2.761
31.96000 5.519
31.98000 -0.086
32.00000 0.676
32.02000 1.076
32.04000 -3.610
32.06000 2.444
32.08000 1.371
32.10000 -1.228
32.12000 5.667
32.14000 2.505
32.16000 3.696
32.18000 3.196
32.20000 6.654
32.22000 3.884
32.24000 3.391
32.26000 3.520
32.28000 7.199
32.30000 4.352
32.32000 1.260
32.34000 3.149
32.36000 -0.052
32.38000 -3.595
32.40000 0.768
32.42000 6.432
32.44000 7.011
32.46000 6.269
32.48000 3.107
32.50000 -0.409
32.52000 2.337
32.54000 1.526
32.56000 3.812
32.58000 5.213
32.60000 3.816
32.62000 3.524
32.64000 2.063
32.66000 1.367
32.68000 3.000
32.70000 5.445
32.72000 1.309
32.74000 3.960
32.76000 2.191
32.78000 0.390
32.80000 0.099
32.82000 5.599
32.84000 7.518
32.86000 2.453
32.88000 4.344
32.90000 4.643
32.92000 3.006
32.94000 5.331
32.96000 5.703
32.98000 4.431
33.00000 -0.176
33.02000 2.675
33.04000 1.953
33.06000 -0.311
33.08000 2.185
33.10000 4.114
33.12000 3.594
33.14000 1.627
33.16000 2.412
33.18000 4.808
33.20000 3.527
33.22000 4.467
33.24000 1.690
33.26000 -3.429
33.28000 -1.733
33.30000 0.930
33.32000 1.385
33.34000 -0.815
33.36000 3.008
33.38000 3.623
33.40000 -2.150
33.42000 -0.578
33.44000 6.514
33.46000 8.429
33.48000 3.101
33.50000 5.429
33.52000 5.870
33.54000 4.229
33.56000 6.631
33.58000 6.609
33.60000 3.532
33.62000 1.011
33.64000 -2.279
33.66000 -0.902
33.68000 -0.938
33.70000 1.326
33.72000 0.631
33.74000 1.285
33.76000 4.348
33.78000 6.410
33.80000 5.758
33.82000 1.214
33.84000 2.324
33.86000 4.097
33.88000 1.505
33.90000 3.111
33.92000 -0.550
33.94000 -2.259
33.96000 0.004
33.98000 -0.342
34.00000 -2.410
34.02000 -0.756
34.04000 -2.303
34.06000 -2.751
34.08000 -0.058
34.10000 3.682
34.12000 1.739
34.14000 -0.661
34.16000 5.487
34.18000 4.220
34.20000 1.412
34.22000 0.780
34.24000 2.400
34.26000 2.488
34.28000 0.992
34.30000 -3.602
34.32000 -0.975
34.34000 1.573
34.36000 0.305
34.38000 5.355
34.40000 8.170
34.42000 5.014
34.44000 3.304
34.46000 1.967
34.48000 4.671
34.50000 0.421
34.52000 1.686
34.54000 1.699
34.56000 -0.561
34.58000 3.550
34.60000 -1.423
34.62000 -3.568
34.64000 -2.593
34.66000 2.382
34.68000 -1.177
34.70000 -1.055
34.72000 0.473
34.74000 0.747
34.76000 0.737
34.78000 -1.192
34.80000 -2.722
34.82000 0.294
34.84000 2.068
34.86000 0.524
34.88000 4.532
34.90000 7.033
34.92000 6.771
34.94000 1.749
34.96000 0.944
34.98000 -0.098
35.00000 -3.573
35.02000 -1.078
35.04000 5.308
35.06000 5.816
35.08000 3.025
35.10000 6.136
35.12000 1.901
35.14000 0.848
35.16000 0.074
35.18000 -3.316
35.20000 -3.572
35.22000 0.856
35.24000 5.464
35.26000 2.372
35.28000 0.456
35.30000 0.609
35.32000 1.663
35.34000 6.780
35.36000 2.912
35.38000 1.881
35.40000 1.157
35.42000 3.554
35.44000 -2.597
35.46000 -0.009
35.48000 0.405
35.50000 -1.724
35.52000 0.448
35.54000 2.176
35.56000 1.472
35.58000 1.898
35.60000 0.497
35.62000 -1.721
35.64000 -3.584
35.66000 3.437
35.68000 9.563
35.70000 1.358
35.72000 2.057
35.74000 3.043
35.76000 4.265
35.78000 4.514
35.80000 -0.093
35.82000 -1.475
35.84000 2.458
35.86000 6.541
35.88000 7.475
35.90000 2.555
35.92000 1.117
35.94000 4.149
35.96000 2.348
35.98000 1.950
36.00000 2.612
36.02000 3.325
36.04000 5.350
36.06000 7.136
36.08000 4.128
36.10000 2.560
36.12000 2.718
36.14000 0.322
36.16000 -3.588
36.18000 1.390
36.20000 -1.726
36.22000 2.271
36.24000 5.787
36.26000 3.214
36.28000 5.083
36.30000 3.138
36.32000 0.990
36.34000 0.724
36.36000 -0.407
36.38000 0.844
36.40000 2.820
36.42000 2.089
36.44000 -2.556
36.46000 -0.396
36.48000 5.437
36.50000 4.649
36.52000 1.667
36.54000 5.220
36.56000 0.807
36.58000 0.657
36.60000 2.934
36.62000 7.052
36.64000 2.152
36.66000 -1.885
36.68000 -3.621
36.70000 2.513
36.72000 7.695
36.74000 1.653
36.76000 0.899
36.78000 4.101
36.80000 5.153
36.82000 4.954
36.84000 8.205
36.86000 7.720
36.88000 6.206
36.90000 3.566
36.92000 0.362
36.94000 -3.634
36.96000 3.455
36.98000 2.263
37.00000 2.415
37.02000 1.594
37.04000 8.810
37.06000 6.859
37.08000 3.584
37.10000 8.143
37.12000 3.817
37.14000 5.148
37.16000 4.316
37.18000 5.866
37.20000 6.311
37.22000 12.147
37.24000 14.791
37.26000 13.879
37.28000 11.049
37.30000 8.298
37.32000 3.397
37.34000 -0.290
37.36000 1.299
37.38000 7.617
37.40000 11.908
37.42000 10.890
37.44000 6.547
37.46000 7.670
37.48000 13.712
37.50000 13.579
37.52000 7.692
37.54000 10.589
37.56000 12.108
37.58000 8.586
37.60000 12.662
37.62000 18.141
37.64000 13.935
37.66000 6.968
37.68000 8.809
37.70000 11.696
37.72000 12.099
37.74000 14.982
37.76000 14.444
37.78000 13.855
37.80000 16.727
37.82000 21.613
37.84000 20.440
37.86000 18.630
37.88000 25.129
37.90000 23.214
37.92000 23.101
37.94000 21.329
37.96000 22.577
37.98000 24.333
38.00000 24.821
38.02000 25.324
38.04000 26.625
38.06000 26.833
38.08000 26.084
38.10000 28.653
38.12000 35.189
38.14000 36.879
38.16000 32.372
38.18000 34.615
38.20000 40.475
38.22000 38.307
38.24000 42.642
38.26000 41.345
38.28000 37.309
38.30000 46.427
38.32000 49.116
38.34000 50.765
38.36000 52.894
38.38000 49.876
38.40000 55.243
38.42000 55.260
38.44000 52.854
38.46000 57.837
38.48000 66.049
38.50000 63.313
38.52000 67.926
38.54000 73.613
38.56000 74.653
38.58000 80.758
38.60000 79.316
38.62000 83.860
38.64000 95.921
38.66000 100.906
38.68000 108.860
38.70000 111.095
38.72000 108.850
38.74000 111.393
38.76000 121.408
38.78000 125.716
38.80000 127.276
38.82000 136.915
38.84000 151.973
38.86000 161.034
38.88000 169.557
38.90000 175.184
38.92000 188.255
38.94000 197.623
38.96000 212.558
38.98000 226.635
39.00000 241.537
39.02000 257.503
39.04000 278.455
39.06000 286.414
39.08000 306.950
39.10000 325.788
39.12000 345.586
39.14000 362.590
39.16000 380.493
39.18000 396.291
39.20000 405.013
39.22000 438.065
39.24000 461.775
39.26000 466.518
39.28000 492.513
39.30000 502.814
39.32000 533.502
39.34000 536.037
39.36000 545.708
39.38000 554.679
39.40000 561.179
39.42000 556.302
39.44000 560.721
39.46000 563.430
39.48000 565.659
39.50000 562.019
39.52000 553.289
39.54000 558.145
39.56000 545.565
39.58000 535.618
39.60000 522.227
39.62000 503.759
39.64000 491.304
39.66000 475.030
39.68000 444.066
39.70000 431.640
39.72000 416.737
39.74000 386.030
39.76000 363.724
39.78000 358.690
39.80000 338.736
39.82000 321.869
39.84000 303.347
39.86000 293.873
39.88000 271.452
39.90000 254.822
39.92000 238.019
39.94000 229.320
39.96000 211.621
39.98000 191.479
40.00000 174.024
40.02000 169.818
40.04000 158.776
40.06000 144.539
40.08000 138.878
40.10000 129.774
40.12000 124.188
40.14000 114.242
40.16000 104.754
40.18000 99.909
40.20000 96.498
40.22000 91.307
40.24000 83.642
40.26000 80.757
40.28000 74.368
40.30000 68.996
40.32000 66.905
40.34000 60.140
40.36000 56.742
40.38000 55.106
40.40000 48.580
40.42000 46.940
40.44000 47.770
40.46000 42.229
40.48000 41.445
40.50000 44.665
40.52000 42.727
40.54000 39.834
40.56000 36.015
40.58000 33.919
40.60000 32.469
40.62000 25.785
40.64000 28.927
40.66000 28.495
40.68000 26.952
40.70000 25.668
40.72000 21.573
40.74000 25.058
40.76000 26.341
40.78000 21.866
40.80000 17.941
40.82000 17.339
40.84000 16.121
40.86000 17.523
40.88000 16.181
40.90000 16.902
40.92000 14.454
40.94000 11.154
40.96000 9.432
40.98000 9.244
41.00000 10.111
41.02000 10.538
41.04000 6.826
41.06000 4.865
41.08000 7.019
41.10000 10.471
41.12000 7.122
41.14000 6.828
41.16000 8.284
41.18000 10.642
41.20000 11.085
41.22000 8.339
41.24000 7.808
41.26000 9.365
41.28000 6.258
41.30000 4.056
41.32000 1.451
41.34000 0.111
41.36000 2.369
41.38000 4.850
41.40000 3.812
41.42000 3.336
41.44000 4.249
41.46000 4.079
41.48000 5.646
41.50000 2.915
41.52000 1.641
41.54000 2.380
41.56000 0.301
41.58000 1.504
41.60000 3.325
41.62000 -1.312
41.64000 -1.327
41.66000 1.930
41.68000 4.574
41.70000 5.288
41.72000 0.463
41.74000 1.209
41.76000 1.247
41.78000 -1.082
41.80000 -2.008
41.82000 1.822
41.84000 2.637
41.86000 2.415
41.88000 1.085
41.90000 -0.156
41.92000 0.868
41.94000 -3.090
41.96000 -0.564
41.98000 -0.169
42.00000 -1.764
42.02000 -1.864
42.04000 2.960
42.06000 2.151
42.08000 2.759
42.10000 -0.019
42.12000 -2.490
42.14000 -2.057
42.16000 -0.828
42.18000 0.884
42.20000 -0.286
42.22000 -1.874
42.24000 -0.100
42.26000 -0.008
42.28000 3.076
42.30000 -1.456
42.32000 -3.326
42.34000 -0.013
42.36000 0.204
42.38000 -0.314
42.40000 -0.238
42.42000 -0.894
42.44000 -0.934
42.46000 -0.116
42.48000 0.282
42.50000 1.992
42.52000 2.158
42.54000 -0.204
42.56000 -0.730
42.58000 0.123
42.60000 0.244
42.62000 -0.162
42.64000 0.658
42.66000 1.639
42.68000 1.287
42.70000 6.087
42.72000 4.630
42.74000 3.984
42.76000 0.714
42.78000 3.537
42.80000 -2.786
42.82000 -3.207
42.84000 0.172
42.86000 -0.626
42.88000 -0.567
42.90000 2.482
42.92000 -1.561
42.94000 2.246
42.96000 1.456
42.98000 -1.124
43.00000 1.968
43.02000 2.281
43.04000 1.857
43.06000 1.142
43.08000 -1.255
43.10000 -0.126
43.12000 1.710
43.14000 1.683
43.16000 0.763
43.18000 -1.496
43.20000 0.638
43.22000 2.278
43.24000 -1.619
43.26000 -0.026
43.28000 2.926
43.30000 3.156
43.32000 1.345
43.34000 -3.173
43.36000 -0.941
43.38000 3.656
43.40000 3.037
43.42000 1.733
43.44000 1.064
43.46000 -0.419
43.48000 2.805
43.50000 0.750
43.52000 2.178
43.54000 3.667
43.56000 4.212
43.58000 3.143
43.60000 2.467
43.62000 2.561
43.64000 1.588
43.66000 6.606
43.68000 5.748
43.70000 5.546
43.72000 5.073
43.74000 3.632
43.76000 -0.616
43.78000 2.072
43.80000 2.511
43.82000 1.605
43.84000 2.413
43.86000 2.489
43.88000 2.166
43.90000 1.905
43.92000 -3.132
43.94000 -0.811
43.96000 0.990
43.98000 2.358
44.00000 0.857
44.02000 3.364
44.04000 4.178
44.06000 2.929
44.08000 4.841
44.10000 0.715
44.12000 0.293
44.14000 4.283
44.16000 2.797
44.18000 0.360
44.20000 -0.171
44.22000 -1.390
44.24000 0.304
44.26000 2.465
44.28000 -0.512
44.30000 2.561
44.32000 2.518
44.34000 2.804
44.36000 1.497
44.38000 3.120
44.40000 6.518
44.42000 3.094
44.44000 3.720
44.46000 3.290
44.48000 1.869
44.50000 2.476
44.52000 1.444
44.54000 5.291
44.56000 8.685
44.58000 8.878
44.60000 6.819
44.62000 3.959
44.64000 5.451
44.66000 7.093
44.68000 4.047
44.70000 6.053
44.72000 5.161
44.74000 5.057
44.76000 3.359
44.78000 3.687
44.80000 2.674
44.82000 3.211
44.84000 6.216
44.86000 8.579
44.88000 9.199
44.90000 7.776
44.92000 7.264
44.94000 5.497
44.96000 5.170
44.98000 6.896
45.00000 6.407
45.02000 6.918
45.04000 7.582
45.06000 6.547
45.08000 8.577
45.10000 14.395
45.12000 11.472
45.14000 12.974
45.16000 15.751
45.18000 19.594
45.20000 18.939
45.22000 15.634
45.24000 17.081
45.26000 15.530
45.28000 13.647
45.30000 14.947
45.32000 16.950
45.34000 21.769
45.36000 19.827
45.38000 19.373
45.40000 25.486
45.42000 27.467
45.44000 25.038
45.46000 23.614
45.48000 26.506
45.50000 31.199
45.52000 33.987
45.54000 34.688
45.56000 35.446
45.58000 32.516
45.60000 31.667
45.62000 39.465
45.64000 41.302
45.66000 39.612
45.68000 48.247
45.70000 47.904
45.72000 41.940
45.74000 48.476
45.76000 48.186
45.78000 48.715
45.80000 48.567
45.82000 50.046
45.84000 51.870
45.86000 58.742
45.88000 59.078
45.90000 54.318
45.92000 53.900
45.94000 53.253
45.96000 55.645
45.98000 60.511
46.00000 63.380
46.02000 62.904
46.04000 64.865
46.06000 65.002
46.08000 63.354
46.10000 62.836
46.12000 62.961
46.14000 63.284
46.16000 63.132
46.18000 64.473
46.20000 63.152
46.22000 64.359
46.24000 63.785
46.26000 59.371
46.28000 58.492
46.30000 57.819
46.32000 56.603
46.34000 56.297
46.36000 58.261
46.38000 52.785
46.40000 47.850
46.42000 46.156
46.44000 44.847
46.46000 44.137
46.48000 44.229
46.50000 46.385
46.52000 42.686
46.54000 37.185
46.56000 35.265
46.58000 38.510
46.60000 37.540
46.62000 35.512
46.64000 30.429
46.66000 26.707
46.68000 24.831
46.70000 24.534
46.72000 23.017
46.74000 21.648
46.76000 20.390
46.78000 20.046
46.80000 20.751
46.82000 18.887
46.84000 14.898
46.86000 14.797
46.88000 13.273
46.90000 15.126
46.92000 11.444
46.94000 9.733
46.96000 7.867
46.98000 7.955
47.00000 6.736
47.02000 9.103
47.04000 8.518
47.06000 5.891
47.08000 1.402
47.10000 2.734
47.12000 2.739
47.14000 6.606
47.16000 2.810
47.18000 -2.391
47.20000 -1.288
47.22000 -1.328
47.24000 -2.110
47.26000 1.638
47.28000 -0.089
47.30000 3.528
47.32000 -1.558
47.34000 -2.548
47.36000 2.337
47.38000 4.618
47.40000 4.944
47.42000 4.166
47.44000 4.054
47.46000 3.394
47.48000 1.311
47.50000 -0.027
47.52000 -1.841
47.54000 0.236
47.56000 0.640
47.58000 -2.681
47.60000 -1.121
47.62000 1.130
47.64000 2.743
47.66000 1.163
47.68000 0.669
47.70000 -2.772
47.72000 -2.470
47.74000 -2.144
47.76000 -1.806
47.78000 -0.259
47.80000 -0.415
47.82000 1.755
47.84000 0.191
47.86000 -0.558
47.88000 1.292
47.90000 0.143
47.92000 -1.576
47.94000 -0.036
47.96000 3.412
47.98000 0.835
48.00000 2.227
48.02000 3.415
48.04000 -1.101
48.06000 -2.610
48.08000 2.440
48.10000 2.726
48.12000 3.872
48.14000 4.599
48.16000 3.794
48.18000 0.266
48.20000 0.751
48.22000 -0.057
48.24000 2.288
48.26000 -0.274
48.28000 -2.279
48.30000 -2.388
48.32000 0.585
48.34000 0.766
48.36000 2.723
48.38000 4.582
48.40000 3.045
48.42000 3.920
48.44000 4.282
48.46000 4.758
48.48000 1.260
48.50000 0.855
48.52000 2.209
48.54000 0.494
48.56000 -2.651
48.58000 0.014
48.60000 2.075
48.62000 4.556
48.64000 5.476
48.66000 4.425
48.68000 1.799
48.70000 0.948
48.72000 1.586
48.74000 -1.932
48.76000 -0.024
48.78000 -0.962
48.80000 0.175
48.82000 2.265
48.84000 2.370
48.86000 -0.529
48.88000 -0.699
48.90000 0.466
48.92000 0.740
48.94000 0.432
48.96000 -2.038
48.98000 1.498
49.00000 2.566
49.02000 4.665
49.04000 4.187
49.06000 0.662
49.08000 6.855
49.10000 6.449
49.12000 4.428
49.14000 4.365
49.16000 4.486
49.18000 7.489
49.20000 6.858
49.22000 4.272
49.24000 1.609
49.26000 2.837
49.28000 2.849
49.30000 3.182
49.32000 -0.664
49.34000 -2.589
49.36000 -1.272
49.38000 -1.786
49.40000 -2.313
49.42000 -1.571
49.44000 -0.390
49.46000 0.980
49.48000 -1.511
49.50000 -2.576
49.52000 -1.480
49.54000 -0.600
49.56000 2.248
49.58000 3.598
49.60000 5.287
49.62000 0.781
49.64000 5.257
49.66000 3.818
49.68000 3.390
49.70000 2.197
49.72000 3.003
49.74000 4.515
49.76000 1.438
49.78000 3.463
49.80000 5.189
49.82000 2.836
49.84000 3.822
49.86000 2.806
49.88000 2.265
49.90000 5.593
49.92000 5.564
49.94000 1.251
49.96000 3.206
49.98000 3.063
50.00000 2.365
50.02000 2.428
50.04000 4.786
50.06000 3.355
50.08000 -2.276
50.10000 2.402
50.12000 7.396
50.14000 8.457
50.16000 3.453
50.18000 0.872
50.20000 0.301
50.22000 1.410
50.24000 2.606
50.26000 2.414
50.28000 0.864
50.30000 0.402
50.32000 0.034
50.34000 1.657
50.36000 -2.530
50.38000 -2.128
50.40000 -0.348
50.42000 1.730
50.44000 3.234
50.46000 6.453
50.48000 3.997
50.50000 3.133
50.52000 2.025
50.54000 3.783
50.56000 0.343
50.58000 -1.004
50.60000 0.179
50.62000 0.881
50.64000 1.951
50.66000 5.313
50.68000 7.139
50.70000 5.393
50.72000 2.764
50.74000 6.396
50.76000 5.761
50.78000 7.705
50.80000 8.559
50.82000 5.002
50.84000 4.791
50.86000 6.858
50.88000 6.919
50.90000 2.054
50.92000 -2.489
50.94000 -2.135
50.96000 2.639
50.98000 3.828
51.00000 3.795
51.02000 1.753
51.04000 -0.385
51.06000 6.644
51.08000 3.412
51.10000 4.315
51.12000 3.861
51.14000 0.131
51.16000 -1.957
51.18000 -0.434
51.20000 1.998
51.22000 -0.631
51.24000 2.170
51.26000 2.273
51.28000 3.517
51.30000 4.805
51.32000 3.486
51.34000 1.568
51.36000 0.260
51.38000 4.295
51.40000 6.327
51.42000 3.083
51.44000 -0.826
51.46000 2.267
51.48000 3.911
51.50000 5.491
51.52000 4.743
51.54000 2.081
51.56000 4.467
51.58000 5.337
51.60000 1.573
51.62000 -2.253
51.64000 3.584
51.66000 8.658
51.68000 5.288
51.70000 3.046
51.72000 2.299
51.74000 2.469
51.76000 2.587
51.78000 3.874
51.80000 4.690
51.82000 2.135
51.84000 3.759
51.86000 0.181
51.88000 1.470
51.90000 3.434
51.92000 0.065
51.94000 2.856
51.96000 0.928
51.98000 2.327
52.00000 -0.090
52.02000 -2.494
52.04000 0.136
52.06000 4.368
52.08000 1.050
52.10000 0.906
52.12000 4.263
52.14000 3.506
52.16000 0.962
52.18000 -0.367
52.20000 -1.769
52.22000 4.352
52.24000 5.176
52.26000 3.370
52.28000 2.094
52.30000 2.278
52.32000 3.753
52.34000 3.560
52.36000 2.381
52.38000 -0.723
52.40000 0.990
52.42000 3.011
52.44000 4.301
52.46000 2.249
52.48000 0.938
52.50000 -0.949
52.52000 -2.487
52.54000 1.223
52.56000 1.075
52.58000 1.827
52.60000 1.078
52.62000 1.023
52.64000 0.239
52.66000 0.167
52.68000 4.123
52.70000 2.917
52.72000 -2.070
52.74000 -1.931
52.76000 0.840
52.78000 2.013
52.80000 1.830
52.82000 2.440
52.84000 5.155
52.86000 2.047
52.88000 0.818
52.90000 2.523
52.92000 3.108
52.94000 -1.684
52.96000 -0.733
52.98000 1.489
53.00000 -0.120
53.02000 1.056
53.04000 1.877
53.06000 4.163
53.08000 2.750
53.10000 1.439
53.12000 0.790
53.14000 3.643
53.16000 2.008
53.18000 2.357
53.20000 5.419
53.22000 5.848
53.24000 6.420
53.26000 2.486
53.28000 1.313
53.30000 3.372
53.32000 2.346
53.34000 -2.447
53.36000 -1.886
53.38000 -1.793
53.40000 1.348
53.42000 2.037
53.44000 0.166
53.46000 4.669
53.48000 0.596
53.50000 2.471
53.52000 6.173
53.54000 4.371
53.56000 4.913
53.58000 1.742
53.60000 -0.507
53.62000 3.709
53.64000 2.347
53.66000 -0.018
53.68000 1.961
53.70000 3.554
53.72000 2.535
53.74000 4.631
53.76000 5.502
53.78000 2.375
53.80000 -0.370
53.82000 4.694
53.84000 4.517
53.86000 4.631
53.88000 4.092
53.90000 4.497
53.92000 2.383
53.94000 0.609
53.96000 6.216
53.98000 5.605
54.00000 6.460
54.02000 2.440
54.04000 2.920
54.06000 1.516
54.08000 -2.443
54.10000 0.162
54.12000 2.112
54.14000 3.649
54.16000 4.346
54.18000 0.702
54.20000 2.072
54.22000 1.709
54.24000 1.962
54.26000 3.788
54.28000 0.120
54.30000 2.850
54.32000 4.293
54.34000 2.594
54.36000 2.873
54.38000 1.566
54.40000 2.359
54.42000 1.512
54.44000 -0.642
54.46000 3.159
54.48000 2.983
54.50000 3.085
54.52000 1.054
54.54000 1.115
54.56000 -1.711
54.58000 2.160
54.60000 2.827
54.62000 1.522
54.64000 1.932
54.66000 0.315
54.68000 3.147
54.70000 5.650
54.72000 6.436
54.74000 5.623
54.76000 4.807
54.78000 3.573
54.80000 4.930
54.82000 0.331
54.84000 1.745
54.86000 3.913
54.88000 3.674
54.90000 1.186
54.92000 0.563
54.94000 2.696
54.96000 5.037
54.98000 6.537
55.00000 2.492
55.02000 0.437
55.04000 -0.444
55.06000 1.867
55.08000 1.941
55.10000 -1.032
55.12000 0.011
55.14000 1.896
55.16000 1.896
55.18000 1.230
55.20000 -2.414
55.22000 -1.043
55.24000 1.785
55.26000 2.551
55.28000 0.188
55.30000 4.663
55.32000 4.977
55.34000 2.873
55.36000 2.891
55.38000 1.551
55.40000 1.394
55.42000 -0.624
55.44000 -2.241
55.46000 -1.918
55.48000 0.601
55.50000 1.296
55.52000 0.430
55.54000 3.329
55.56000 4.668
55.58000 1.431
55.60000 0.130
55.62000 3.230
55.64000 2.111
55.66000 1.772
55.68000 0.814
55.70000 0.572
55.72000 2.484
55.74000 1.911
55.76000 1.665
55.78000 3.142
55.80000 -0.002
55.82000 -1.119
55.84000 4.319
55.86000 6.003
55.88000 6.475
55.90000 2.126
55.92000 1.158
55.94000 2.189
55.96000 3.999
55.98000 5.439
56.00000 0.552
56.02000 -0.169
56.04000 3.089
56.06000 4.061
56.08000 5.296
56.10000 4.234
56.12000 1.227
56.14000 -2.364
56.16000 2.621
56.18000 8.156
56.20000 5.879
56.22000 2.415
56.24000 4.956
56.26000 2.877
56.28000 4.411
56.30000 5.259
56.32000 3.247
56.34000 2.249
56.36000 4.737
56.38000 1.273
56.40000 -0.380
56.42000 2.280
56.44000 2.817
56.46000 1.544
56.48000 -2.247
56.50000 -0.875
56.52000 -1.698
56.54000 -1.221
56.56000 1.257
56.58000 1.533
56.60000 1.425
56.62000 0.041
56.64000 1.771
56.66000 5.110
56.68000 7.162
56.70000 2.398
56.72000 2.003
56.74000 4.451
56.76000 3.244
56.78000 0.307
56.80000 -2.286
56.82000 4.057
56.84000 5.700
56.86000 2.517
56.88000 1.715
56.90000 6.643
56.92000 2.541
56.94000 -2.117
56.96000 -0.929
56.98000 1.257
57.00000 7.320
57.02000 -0.559
57.04000 -1.250
57.06000 0.890
57.08000 2.643
57.10000 -1.363
57.12000 2.890
57.14000 2.509
57.16000 -0.836
57.18000 -0.560
57.20000 -0.417
57.22000 2.596
57.24000 0.683
57.26000 2.782
57.28000 3.673
57.30000 4.824
57.32000 2.798
57.34000 0.781
57.36000 0.237
57.38000 -2.330
57.40000 -1.166
57.42000 2.763
57.44000 1.325
57.46000 2.199
57.48000 1.981
57.50000 -1.095
57.52000 -2.198
57.54000 -1.442
57.56000 0.328
57.58000 2.155
57.60000 2.444
57.62000 0.984
57.64000 -0.780
57.66000 0.344
57.68000 1.991
57.70000 -0.909
57.72000 -0.879
57.74000 -1.801
57.76000 -2.351
57.78000 0.551
57.80000 2.784
57.82000 0.668
57.84000 1.596
57.86000 2.544
57.88000 -1.649
57.90000 5.475
57.92000 3.114
57.94000 1.821
57.96000 1.800
57.98000 1.719
58.00000 4.248
58.02000 3.694
58.04000 3.124
58.06000 1.799
58.08000 2.390
58.10000 1.258
58.12000 4.020
58.14000 4.265
58.16000 3.358
58.18000 2.455
58.20000 3.584
58.22000 1.358
58.24000 0.874
58.26000 1.078
58.28000 0.002
58.30000 0.623
58.32000 0.310
58.34000 -0.096
58.36000 0.894
58.38000 1.411
58.40000 -0.434
58.42000 -1.932
58.44000 -0.149
58.46000 1.753
58.48000 4.224
58.50000 1.881
58.52000 0.066
58.54000 -0.986
58.56000 -1.485
58.58000 -1.212
58.60000 -2.020
58.62000 -0.059
58.64000 3.880
58.66000 3.838
58.68000 1.935
58.70000 2.876
58.72000 3.804
58.74000 2.655
58.76000 0.544
58.78000 1.128
58.80000 0.151
58.82000 1.090
58.84000 1.038
58.86000 0.215
58.88000 -0.529
58.90000 -0.118
58.92000 2.109
58.94000 2.331
58.96000 -0.324
58.98000 -2.308
59.00000 3.227
59.02000 2.542
59.04000 -0.551
59.06000 4.444
59.08000 2.887
59.10000 5.446
59.12000 7.629
59.14000 8.269
59.16000 4.500
59.18000 4.867
59.20000 7.048
59.22000 2.631
59.24000 1.109
59.26000 2.035
59.28000 3.971
59.30000 -0.507
59.32000 -2.291
59.34000 0.820
59.36000 4.614
59.38000 3.054
59.40000 3.682
59.42000 3.384
59.44000 4.132
59.46000 2.688
59.48000 3.125
59.50000 -0.737
59.52000 -0.659
59.54000 1.162
59.56000 2.651
59.58000 4.297
59.60000 5.666
59.62000 3.350
59.64000 3.088
59.66000 0.389
59.68000 2.798
59.70000 0.802
59.72000 4.194
59.74000 3.511
59.76000 0.445
59.78000 -0.286
59.80000 -2.281
59.82000 -1.240
59.84000 0.974
59.86000 2.336
59.88000 5.267
59.90000 7.391
59.92000 5.866
59.94000 6.974
59.96000 0.747
59.98000 0.180
60.00000 2.148
60.02000 2.382
60.04000 1.730
60.06000 0.247
60.08000 -2.188
60.10000 -0.483
60.12000 -2.279
60.14000 1.857
60.16000 2.057
60.18000 3.263
60.20000 3.080
60.22000 3.025
60.24000 3.868
60.26000 5.494
60.28000 3.862
60.30000 0.904
60.32000 0.663
60.34000 4.938
60.36000 3.038
60.38000 2.354
60.40000 3.946
60.42000 4.686
60.44000 2.166
60.46000 2.051
60.48000 2.020
60.50000 3.068
60.52000 1.411
60.54000 -1.547
60.56000 -2.064
60.58000 0.554
60.60000 -1.633
60.62000 2.225
60.64000 4.971
60.66000 3.532
60.68000 2.089
60.70000 1.445
60.72000 0.684
60.74000 2.444
60.76000 4.057
60.78000 3.042
60.80000 -0.832
60.82000 2.354
60.84000 2.018
60.86000 1.516
60.88000 1.901
60.90000 0.091
60.92000 0.334
60.94000 -0.219
60.96000 2.547
60.98000 3.182
61.00000 2.656
61.02000 4.048
61.04000 2.898
61.06000 3.314
61.08000 3.297
61.10000 2.410
61.12000 2.978
61.14000 2.147
61.16000 0.633
61.18000 1.642
61.20000 1.273
61.22000 -0.961
61.24000 -2.215
61.26000 2.515
61.28000 1.688
61.30000 1.939
61.32000 3.027
61.34000 3.131
61.36000 3.021
61.38000 3.708
61.40000 4.094
61.42000 1.301
61.44000 0.695
61.46000 2.851
61.48000 4.369
61.50000 2.862
61.52000 2.522
61.54000 1.049
61.56000 -1.897
61.58000 -0.176
61.60000 0.672
61.62000 2.732
61.64000 2.385
61.66000 1.106
61.68000 1.661
61.70000 -0.766
61.72000 1.292
61.74000 1.206
61.76000 2.916
61.78000 3.393
61.80000 3.901
61.82000 2.477
61.84000 1.833
61.86000 -0.747
61.88000 -1.027
61.90000 0.522
61.92000 3.153
61.94000 0.282
61.96000 4.429
61.98000 5.386
62.00000 0.741
62.02000 -0.064
62.04000 2.413
62.06000 2.991
62.08000 1.279
62.10000 2.043
62.12000 0.312
62.14000 0.186
62.16000 2.375
62.18000 1.228
62.20000 0.050
62.22000 -0.299
62.24000 1.772
62.26000 5.500
62.28000 4.691
62.30000 -0.113
62.32000 -2.229
62.34000 -0.571
62.36000 1.609
62.38000 3.721
62.40000 1.442
62.42000 -0.203
62.44000 1.669
62.46000 -0.497
62.48000 -0.042
62.50000 1.156
62.52000 0.412
62.54000 -1.899
62.56000 0.508
62.58000 -0.422
62.60000 -1.987
62.62000 0.280
62.64000 -1.030
62.66000 -0.124
62.68000 3.232
62.70000 -0.388
62.72000 -0.991
62.74000 0.924
62.76000 3.861
62.78000 2.954
62.80000 0.481
62.82000 2.861
62.84000 2.166
62.86000 -1.493
62.88000 1.528
62.90000 3.390
62.92000 0.072
62.94000 -2.092
62.96000 -1.287
62.98000 -2.153
63.00000 -2.223
63.02000 0.429
63.04000 1.685
63.06000 6.471
63.08000 2.663
63.10000 2.197
63.12000 2.266
63.14000 1.538
63.16000 3.540
63.18000 3.134
63.20000 -2.218
63.22000 2.127
63.24000 -0.511
63.26000 -0.437
63.28000 3.143
63.30000 3.401
63.32000 1.134
63.34000 -1.214
63.36000 -2.021
63.38000 -2.216
63.40000 1.115
63.42000 -0.032
63.44000 1.887
63.46000 -1.193
63.48000 -1.318
63.50000 1.896
63.52000 2.161
63.54000 -0.233
63.56000 -1.926
63.58000 0.217
63.60000 -1.581
63.62000 -0.743
63.64000 1.278
63.66000 1.723
63.68000 -0.509
63.70000 -2.019
63.72000 -0.073
63.74000 2.011
63.76000 0.386
63.78000 -1.999
63.80000 -0.758
63.82000 -1.730
63.84000 -0.256
63.86000 -1.078
63.88000 -0.487
63.90000 -0.374
63.92000 -0.408
63.94000 0.983
63.96000 -0.827
63.98000 0.411
64.00000 -1.106
64.02000 1.034
64.04000 2.760
64.06000 4.126
64.08000 0.484
64.10000 -2.218
64.12000 -0.950
64.14000 1.171
64.16000 -0.709
64.18000 1.395
64.20000 0.377
64.22000 1.294
64.24000 2.384
64.26000 3.227
64.28000 1.643
64.30000 1.288
64.32000 -1.289
64.34000 1.630
64.36000 3.982
64.38000 -0.455
64.40000 -1.402
64.42000 0.616
64.44000 1.466
64.46000 0.976
64.48000 1.682
64.50000 0.760
64.52000 0.844
64.54000 2.665
64.56000 1.632
64.58000 1.532
64.60000 2.397
64.62000 1.034
64.64000 -1.164
64.66000 -0.098
64.68000 3.224
64.70000 2.069
64.72000 2.464
64.74000 0.262
64.76000 2.344
64.78000 -0.778
64.80000 -2.197
64.82000 -0.610
64.84000 1.762
64.86000 2.032
64.88000 3.082
64.90000 1.658
64.92000 2.100
64.94000 3.126
64.96000 4.189
64.98000 4.344
65.00000 2.718
65.02000 -0.481
65.04000 0.547
65.06000 0.652
65.08000 0.899
65.10000 0.367
65.12000 4.191
65.14000 0.133
65.16000 -1.476
65.18000 -1.920
65.20000 0.746
65.22000 1.496
65.24000 2.063
65.26000 0.614
65.28000 -0.412
65.30000 0.160
65.32000 0.168
65.34000 0.996
65.36000 1.218
65.38000 -0.972
65.40000 0.651
65.42000 1.364
65.44000 1.215
65.46000 0.132
65.48000 -1.898
65.50000 0.459
65.52000 2.095
65.54000 2.818
65.56000 2.222
65.58000 -0.133
65.60000 -0.218
65.62000 3.239
65.64000 0.549
65.66000 -2.196
65.68000 2.585
65.70000 3.110
65.72000 2.149
65.74000 1.519
65.76000 -0.102
65.78000 1.755
65.80000 2.537
65.82000 3.907
65.84000 1.022
65.86000 -2.130
65.88000 1.411
65.90000 1.686
65.92000 -1.086
65.94000 0.377
65.96000 0.002
65.98000 -0.275
66.00000 0.853
66.02000 2.015
66.04000 4.157
66.06000 4.277
66.08000 2.039
66.10000 0.747
66.12000 1.042
66.14000 1.720
66.16000 2.838
66.18000 3.405
66.20000 2.368
66.22000 3.365
66.24000 0.123
66.26000 -1.230
66.28000 1.647
66.30000 4.046
66.32000 2.717
66.34000 2.125
66.36000 3.643
66.38000 1.675
66.40000 0.155
66.42000 2.476
66.44000 3.480
66.46000 2.842
66.48000 3.884
66.50000 5.441
66.52000 4.484
66.54000 0.201
66.56000 1.458
66.58000 6.281
66.60000 4.377
66.62000 2.589
66.64000 2.987
66.66000 3.940
66.68000 5.153
66.70000 7.819
66.72000 7.193
66.74000 7.289
66.76000 6.290
66.78000 6.346
66.80000 6.587
66.82000 8.712
66.84000 9.501
66.86000 6.366
66.88000 5.676
66.90000 5.110
66.92000 6.823
66.94000 7.816
66.96000 6.941
66.98000 6.975
67.00000 8.862
67.02000 11.072
67.04000 9.458
67.06000 9.891
67.08000 6.800
67.10000 7.848
67.12000 9.097
67.14000 9.338
67.16000 7.736
67.18000 8.296
67.20000 10.738
67.22000 11.082
67.24000 10.480
67.26000 8.276
67.28000 8.033
67.30000 9.062
67.32000 9.044
67.34000 8.619
67.36000 10.217
67.38000 10.504
67.40000 9.705
67.42000 8.707
67.44000 8.839
67.46000 5.292
67.48000 4.659
67.50000 7.640
67.52000 6.516
67.54000 4.990
67.56000 4.453
67.58000 6.812
67.60000 6.743
67.62000 4.931
67.64000 1.303
67.66000 2.119
67.68000 5.073
67.70000 3.939
67.72000 1.734
67.74000 2.719
67.76000 4.303
67.78000 3.536
67.80000 4.976
67.82000 3.554
67.84000 5.279
67.86000 3.086
67.88000 4.168
67.90000 2.965
67.92000 0.995
67.94000 1.497
67.96000 0.976
67.98000 -2.125
68.00000 0.116
68.02000 2.715
68.04000 0.443
68.06000 1.379
68.08000 2.890
68.10000 5.680
68.12000 4.612
68.14000 1.075
68.16000 1.423
68.18000 1.272
68.20000 0.717
68.22000 1.054
68.24000 0.733
68.26000 -0.551
68.28000 -0.210
68.30000 0.603
68.32000 1.878
68.34000 0.349
68.36000 -0.678
68.38000 -0.893
68.40000 0.085
68.42000 0.065
68.44000 1.131
68.46000 2.078
68.48000 2.550
68.50000 1.787
68.52000 0.516
68.54000 0.995
68.56000 2.267
68.58000 3.930
68.60000 -0.940
68.62000 -0.604
68.64000 -0.759
68.66000 2.788
68.68000 3.252
68.70000 2.217
68.72000 1.406
68.74000 1.432
68.76000 0.296
68.78000 0.893
68.80000 1.153
68.82000 -0.275
68.84000 -0.132
68.86000 1.704
68.88000 0.149
68.90000 0.360
68.92000 -0.093
68.94000 2.510
68.96000 3.131
68.98000 1.223
69.00000 -0.871
69.02000 -2.053
69.04000 -2.037
69.06000 -0.064
69.08000 0.066
69.10000 1.276
69.12000 0.001
69.14000 0.971
69.16000 2.953
69.18000 2.651
69.20000 3.162
69.22000 2.862
69.24000 1.557
69.26000 0.115
69.28000 -0.224
69.30000 0.049
69.32000 1.725
69.34000 1.966
69.36000 0.717
69.38000 -0.081
69.40000 0.298
69.42000 0.750
69.44000 0.709
69.46000 2.156
69.48000 2.980
69.50000 3.081
69.52000 -0.810
69.54000 1.286
69.56000 2.440
69.58000 1.976
69.60000 0.044
69.62000 0.188
69.64000 2.172
69.66000 -0.537
69.68000 -2.042
69.70000 0.822
69.72000 1.661
69.74000 0.875
69.76000 1.442
69.78000 1.927
69.80000 -0.132
69.82000 -1.423
69.84000 0.151
69.86000 2.010
69.88000 3.196
69.90000 0.772
69.92000 2.122
69.94000 3.375
69.96000 0.179
69.98000 -1.323
70.00000 -0.108
70.02000 0.194
70.04000 -0.947
70.06000 -1.797
70.08000 -2.023
70.10000 -1.010
70.12000 -0.794
70.14000 2.315
70.16000 0.791
70.18000 3.063
70.20000 2.184
70.22000 3.109
70.24000 0.971
70.26000 -0.036
70.28000 1.152
70.30000 -0.634
70.32000 1.338
70.34000 1.783
70.36000 0.557
70.38000 -0.519
70.40000 -2.008
70.42000 0.585
70.44000 2.777
70.46000 3.852
70.48000 -1.005
70.50000 -0.399
70.52000 -0.325
70.54000 1.424
70.56000 2.204
70.58000 2.617
70.60000 0.935
70.62000 0.420
70.64000 -0.557
70.66000 2.052
70.68000 -0.603
70.70000 -0.586
70.72000 0.242
70.74000 -0.274
70.76000 0.946
70.78000 1.425
70.80000 -1.678
70.82000 1.031
70.84000 0.923
70.86000 -0.277
70.88000 3.376
70.90000 2.994
70.92000 -0.357
70.94000 0.426
70.96000 0.514
70.98000 0.723
71.00000 1.705
71.02000 1.247
71.04000 -1.167
71.06000 0.769
71.08000 3.234
71.10000 2.563
71.12000 2.888
71.14000 -0.512
71.16000 1.641
71.18000 0.628
71.20000 -1.460
71.22000 1.359
71.24000 1.153
71.26000 -1.687
71.28000 0.878
71.30000 2.045
71.32000 -0.111
71.34000 0.274
71.36000 2.158
71.38000 2.113
71.40000 0.570
71.42000 -1.506
71.44000 -1.815
71.46000 -1.193
71.48000 -1.968
71.50000 -1.628
71.52000 1.407
71.54000 0.470
71.56000 0.991
71.58000 3.568
71.60000 0.257
71.62000 1.587
71.64000 2.693
71.66000 3.263
71.68000 1.629
71.70000 1.688
71.72000 0.831
71.74000 -0.105
71.76000 -0.355
71.78000 0.384
71.80000 -0.492
71.82000 0.591
71.84000 0.350
71.86000 0.282
71.88000 0.299
71.90000 -0.273
71.92000 1.300
71.94000 0.581
71.96000 0.997
71.98000 -1.962
72.00000 -1.788
72.02000 1.373
72.04000 1.194
72.06000 -1.224
72.08000 0.476
72.10000 2.520
72.12000 0.079
72.14000 0.075
72.16000 2.935
72.18000 3.020
72.20000 2.830
72.22000 2.832
72.24000 0.599
72.26000 3.840
72.28000 2.183
72.30000 2.305
72.32000 -1.952
72.34000 -1.273
72.36000 -0.822
72.38000 -0.691
72.40000 0.855
72.42000 -0.361
72.44000 1.646
72.46000 1.780
72.48000 0.524
72.50000 -0.292
72.52000 0.702
72.54000 0.834
72.56000 0.685
72.58000 1.189
72.60000 -1.448
72.62000 -1.143
72.64000 -0.947
72.66000 -0.096
72.68000 1.753
72.70000 4.052
72.72000 4.610
72.74000 3.028
72.76000 1.690
72.78000 -0.653
72.80000 -0.423
72.82000 0.994
72.84000 0.996
72.86000 -0.385
72.88000 -0.500
72.90000 2.127
72.92000 2.316
72.94000 1.884
72.96000 1.976
72.98000 3.021
73.00000 3.693
73.02000 2.803
73.04000 -0.108
73.06000 1.346
73.08000 1.243
73.10000 1.075
73.12000 2.318
73.14000 0.965
73.16000 1.661
73.18000 0.593
73.20000 1.687
73.22000 0.234
73.24000 -0.357
73.26000 1.710
73.28000 1.563
73.30000 1.747
73.32000 3.185
73.34000 1.265
73.36000 0.720
73.38000 -0.075
73.40000 -0.615
73.42000 2.140
73.44000 3.945
73.46000 0.180
73.48000 -1.900
73.50000 1.651
73.52000 0.654
73.54000 1.763
73.56000 1.208
73.58000 0.272
73.60000 1.072
73.62000 0.569
73.64000 0.362
73.66000 3.146
73.68000 3.360
73.70000 4.096
73.72000 0.278
73.74000 0.103
73.76000 0.318
73.78000 -0.104
73.80000 -0.081
73.82000 0.905
73.84000 1.529
73.86000 0.020
73.88000 0.714
73.90000 0.625
73.92000 -0.042
73.94000 1.506
73.96000 2.968
73.98000 2.089
74.00000 1.824
74.02000 -1.762
74.04000 -1.888
74.06000 0.800
74.08000 4.410
74.10000 3.598
74.12000 3.974
74.14000 1.409
74.16000 3.082
74.18000 1.887
74.20000 2.111
74.22000 1.425
74.24000 2.644
74.26000 3.278
74.28000 3.975
74.30000 6.049
74.32000 4.172
74.34000 1.603
74.36000 2.581
74.38000 2.836
74.40000 2.657
74.42000 2.416
74.44000 1.436
74.46000 2.261
74.48000 4.693
74.50000 5.921
74.52000 5.105
74.54000 6.189
74.56000 3.898
74.58000 2.796
74.60000 2.227
74.62000 1.346
74.64000 3.017
74.66000 -0.813
74.68000 0.115
74.70000 3.421
74.72000 3.365
74.74000 1.657
74.76000 -1.887
74.78000 -0.633
74.80000 0.436
74.82000 1.922
74.84000 0.928
74.86000 2.503
74.88000 2.394
74.90000 2.530
74.92000 0.777
74.94000 2.264
74.96000 0.186
74.98000 3.426
75.00000 3.876
75.02000 3.868
75.04000 1.714
75.06000 1.656
75.08000 2.336
75.10000 2.041
75.12000 5.307
75.14000 3.801
75.16000 -0.648
75.18000 -0.623
75.20000 -0.820
75.22000 -1.890
75.24000 -1.643
75.26000 0.474
75.28000 2.332
75.30000 3.065
75.32000 3.628
75.34000 3.225
75.36000 4.106
75.38000 3.764
75.40000 1.762
75.42000 -1.308
75.44000 0.500
75.46000 1.711
75.48000 2.526
75.50000 -1.127
75.52000 -0.015
75.54000 4.724
75.56000 2.173
75.58000 0.564
75.60000 1.367
75.62000 1.802
75.64000 3.434
75.66000 0.541
75.68000 2.794
75.70000 3.216
75.72000 5.759
75.74000 8.726
75.76000 6.325
75.78000 3.570
75.80000 -0.123
75.82000 -1.894
75.84000 -0.263
75.86000 2.918
75.88000 2.628
75.90000 -0.044
75.92000 2.673
75.94000 4.205
75.96000 6.979
75.98000 1.630
76.00000 2.128
76.02000 1.890
76.04000 2.850
76.06000 3.563
76.08000 5.154
76.10000 1.722
76.12000 -0.468
76.14000 1.741
76.16000 3.108
76.18000 2.278
76.20000 1.985
76.22000 4.162
76.24000 4.853
76.26000 3.681
76.28000 3.797
76.30000 3.806
76.32000 0.593
76.34000 -0.663
76.36000 -0.253
76.38000 1.540
76.40000 3.905
76.42000 3.982
76.44000 2.188
76.46000 1.689
76.48000 2.638
76.50000 0.854
76.52000 3.514
76.54000 2.034
76.56000 0.012
76.58000 -1.911
76.60000 -1.148
76.62000 2.252
76.64000 3.143
76.66000 2.536
76.68000 1.461
76.70000 1.053
76.72000 2.602
76.74000 1.508
76.76000 1.533
76.78000 0.830
76.80000 0.441
76.82000 -0.208
76.84000 0.048
76.86000 0.770
76.88000 -0.526
76.90000 -1.942
76.92000 -0.507
76.94000 2.842
76.96000 4.885
76.98000 4.112
77.00000 4.207
77.02000 0.568
77.04000 -0.092
77.06000 -0.015
77.08000 -0.246
77.10000 1.519
77.12000 1.783
77.14000 -0.264
77.16000 -0.754
77.18000 0.436
77.20000 1.032
77.22000 -1.597
77.24000 0.173
77.26000 2.789
77.28000 -0.739
77.30000 -0.950
77.32000 1.003
77.34000 0.243
77.36000 -0.500
77.38000 1.600
77.40000 2.147
77.42000 0.452
77.44000 3.055
77.46000 0.129
77.48000 1.137
77.50000 -1.470
77.52000 -0.050
77.54000 -1.507
77.56000 -1.876
77.58000 -1.108
77.60000 0.936
77.62000 0.630
77.64000 0.885
77.66000 2.646
77.68000 3.384
77.70000 4.002
77.72000 0.618
77.74000 -1.043
77.76000 -1.479
77.78000 1.047
77.80000 -1.058
77.82000 0.420
77.84000 1.275
77.86000 1.979
77.88000 3.815
77.90000 1.564
77.92000 3.273
77.94000 1.077
77.96000 3.553
77.98000 0.090
78.00000 -2.000
78.02000 -0.647
78.04000 0.526
78.06000 1.896
78.08000 -0.508
78.10000 0.072
78.12000 0.243
78.14000 1.586
78.16000 -0.155
78.18000 1.805
78.20000 2.091
78.22000 0.784
78.24000 3.489
78.26000 2.093
78.28000 0.548
78.30000 0.412
78.32000 0.727
78.34000 2.588
78.36000 1.456
78.38000 3.817
78.40000 2.658
78.42000 0.502
78.44000 2.882
78.46000 2.176
78.48000 -2.012
78.50000 -0.188
78.52000 1.866
78.54000 -0.485
78.56000 1.775
78.58000 2.291
78.60000 1.961
78.62000 1.286
78.64000 -0.251
78.66000 -0.079
78.68000 1.715
78.70000 3.641
78.72000 3.746
78.74000 4.311
78.76000 1.369
78.78000 -0.270
78.80000 -1.110
78.82000 -1.486
78.84000 -1.815
78.86000 -1.557
78.88000 -2.023
78.90000 0.888
78.92000 0.356
78.94000 0.815
78.96000 2.011
78.98000 -1.238
79.00000 2.341
79.02000 3.644
79.04000 2.782
79.06000 -0.507
79.08000 0.698
79.10000 3.680
79.12000 1.905
79.14000 0.628
79.16000 1.730
79.18000 3.484
79.20000 2.476
79.22000 1.767
79.24000 0.634
79.26000 0.716
79.28000 0.830
79.30000 2.918
79.32000 2.518
79.34000 0.510
79.36000 2.701
79.38000 3.910
79.40000 2.668
79.42000 -0.800
79.44000 0.074
79.46000 0.108
79.48000 0.632
79.50000 3.387
79.52000 7.408
79.54000 4.010
79.56000 0.686
79.58000 -2.060
79.60000 3.135
79.62000 5.035
79.64000 4.108
79.66000 2.126
79.68000 4.569
79.70000 5.640
79.72000 3.468
79.74000 3.372
79.76000 3.745
79.78000 6.282
79.80000 4.574
79.82000 2.894
79.84000 5.366
79.86000 8.552
79.88000 8.420
79.90000 5.860
79.92000 4.429
79.94000 4.121
79.96000 4.132
79.98000 4.573
80.00000 5.409
80.02000 9.517
80.04000 8.261
80.06000 5.227
80.08000 4.592
80.10000 3.445
80.12000 10.059
80.14000 6.978
80.16000 5.577
80.18000 11.180
80.20000 9.711
80.22000 6.568
80.24000 6.946
80.26000 8.517
80.28000 6.952
80.30000 8.876
80.32000 13.762
80.34000 11.314
80.36000 9.198
80.38000 12.238
80.40000 8.563
80.42000 7.531
80.44000 12.028
80.46000 17.293
80.48000 11.481
80.50000 13.566
80.52000 8.836
80.54000 11.345
80.56000 15.108
80.58000 16.312
80.60000 15.279
80.62000 15.528
80.64000 17.314
80.66000 20.104
80.68000 20.110
80.70000 20.838
80.72000 20.200
80.74000 17.770
80.76000 18.723
80.78000 21.183
80.80000 16.584
80.82000 14.778
80.84000 16.308
80.86000 18.410
80.88000 16.378
80.90000 18.075
80.92000 21.149
80.94000 20.342
80.96000 20.888
80.98000 18.239
81.00000 16.914
81.02000 17.721
81.04000 21.438
81.06000 18.702
81.08000 13.656
81.10000 14.232
81.12000 16.282
81.14000 16.795
81.16000 17.929
81.18000 17.195
81.20000 14.954
81.22000 14.128
81.24000 16.102
81.26000 15.205
81.28000 13.159
81.30000 15.155
81.32000 13.771
81.34000 5.786
81.36000 9.319
81.38000 10.161
81.40000 12.578
81.42000 14.723
81.44000 12.028
81.46000 12.522
81.48000 12.096
81.50000 10.371
81.52000 10.906
81.54000 10.121
81.56000 8.185
81.58000 9.488
81.60000 7.446
81.62000 5.930
81.64000 4.182
81.66000 5.103
81.68000 8.374
81.70000 7.740
81.72000 5.583
81.74000 1.938
81.76000 0.914
81.78000 5.199
81.80000 6.003
81.82000 3.274
81.84000 7.130
81.86000 10.290
81.88000 5.941
81.90000 1.316
81.92000 1.599
81.94000 5.982
81.96000 4.981
81.98000 3.056
82.00000 2.864
82.02000 1.676
82.04000 2.444
82.06000 3.474
82.08000 1.128
82.10000 0.754
82.12000 1.980
82.14000 3.030
82.16000 0.919
82.18000 -1.959
82.20000 -0.786
82.22000 -1.281
82.24000 0.529
82.26000 0.514
82.28000 -0.057
82.30000 3.177
82.32000 1.425
82.34000 0.335
82.36000 2.035
82.38000 3.221
82.40000 -0.283
82.42000 -1.844
82.44000 -1.293
82.46000 0.725
82.48000 -1.323
82.50000 -1.100
82.52000 -0.762
82.54000 -2.133
82.56000 1.445
82.58000 3.090
82.60000 1.955
82.62000 1.485
82.64000 0.890
82.66000 0.103
82.68000 -0.775
82.70000 -1.177
82.72000 -0.073
82.74000 -2.114
82.76000 -0.034
82.78000 -1.200
82.80000 1.198
82.82000 2.482
82.84000 -2.083
82.86000 -0.789
82.88000 3.149
82.90000 5.239
82.92000 4.270
82.94000 1.283
82.96000 -1.356
82.98000 1.455
83.00000 4.449
83.02000 6.356
83.04000 4.308
83.06000 3.642
83.08000 4.506
83.10000 2.132
83.12000 2.132
83.14000 -1.126
83.16000 -0.106
83.18000 0.754
83.20000 -1.157
83.22000 3.661
83.24000 3.371
83.26000 0.487
83.28000 -2.085
83.30000 -0.572
83.32000 2.051
83.34000 2.966
83.36000 3.818
83.38000 5.530
83.40000 2.603
83.42000 0.594
83.44000 4.324
83.46000 5.071
83.48000 3.548
83.50000 5.349
83.52000 4.808
83.54000 6.528
83.56000 8.183
83.58000 5.813
83.60000 3.591
83.62000 2.401
83.64000 3.484
83.66000 4.502
83.68000 3.977
83.70000 4.558
83.72000 5.650
83.74000 4.416
83.76000 1.992
83.78000 6.923
83.80000 5.052
83.82000 5.087
83.84000 4.156
83.86000 2.736
83.88000 5.282
83.90000 9.354
83.92000 11.452
83.94000 10.862
83.96000 11.256
83.98000 12.672
84.00000 12.173
84.02000 12.970
84.04000 11.969
84.06000 13.134
84.08000 9.366
84.10000 10.931
84.12000 13.214
84.14000 15.113
84.16000 15.541
84.18000 15.925
84.20000 13.594
84.22000 15.404
84.24000 14.692
84.26000 14.493
84.28000 17.768
84.30000 20.304
84.32000 14.862
84.34000 18.167
84.36000 19.037
84.38000 20.561
84.40000 17.549
84.42000 19.932
84.44000 19.819
84.46000 18.613
84.48000 20.596
84.50000 21.741
84.52000 21.763
84.54000 24.358
84.56000 27.172
84.58000 28.711
84.60000 23.883
84.62000 20.680
84.64000 23.458
84.66000 26.741
84.68000 25.134
84.70000 27.961
84.72000 26.003
84.74000 26.386
84.76000 21.929
84.78000 26.106
84.80000 27.921
84.82000 29.363
84.84000 29.026
84.86000 26.351
84.88000 25.702
84.90000 26.350
84.92000 26.685
84.94000 23.549
84.96000 24.690
84.98000 27.119
85.00000 24.837
85.02000 20.616
85.04000 23.594
85.06000 23.296
85.08000 24.422
85.10000 25.860
85.12000 24.150
85.14000 19.858
85.16000 18.315
85.18000 21.821
85.20000 22.484
85.22000 19.400
85.24000 16.597
85.26000 21.127
85.28000 22.133
85.30000 17.120
85.32000 16.440
85.34000 16.824
85.36000 12.054
85.38000 9.886
85.40000 12.988
85.42000 11.764
85.44000 10.736
85.46000 13.964
85.48000 14.127
85.50000 14.382
85.52000 10.614
85.54000 9.544
85.56000 11.870
85.58000 11.709
85.60000 7.872
85.62000 7.583
85.64000 5.867
85.66000 5.513
85.68000 5.764
85.70000 4.784
85.72000 5.980
85.74000 5.645
85.76000 5.620
85.78000 3.801
85.80000 9.706
85.82000 9.617
85.84000 6.601
85.86000 5.463
85.88000 4.860
85.90000 1.397
85.92000 -0.068
85.94000 3.268
85.96000 2.315
85.98000 2.783
86.00000 3.222
86.02000 3.734
86.04000 3.245
86.06000 1.310
86.08000 1.410
86.10000 1.541
86.12000 0.545
86.14000 -1.710
86.16000 0.928
86.18000 1.398
86.20000 1.016
86.22000 3.117
86.24000 2.954
86.26000 3.063
86.28000 2.824
86.30000 1.246
86.32000 0.467
86.34000 -1.935
86.36000 1.026
86.38000 -0.464
86.40000 0.090
86.42000 2.815
86.44000 3.732
86.46000 3.216
86.48000 2.497
86.50000 0.782
86.52000 2.330
86.54000 1.444
86.56000 -1.464
86.58000 0.427
86.60000 2.143
86.62000 4.519
86.64000 0.928
86.66000 -1.876
86.68000 -1.874
86.70000 -0.739
86.72000 1.031
86.74000 3.152
86.76000 3.285
86.78000 5.302
86.80000 3.670
86.82000 0.586
86.84000 4.192
86.86000 2.127
86.88000 0.854
86.90000 0.370
86.92000 0.886
86.94000 2.386
86.96000 2.126
86.98000 0.072
87.00000 -0.104
87.02000 0.059
87.04000 0.727
87.06000 0.295
87.08000 -1.838
87.10000 0.827
87.12000 4.891
87.14000 1.938
87.16000 0.001
87.18000 3.549
87.20000 1.913
87.22000 3.265
87.24000 -1.833
87.26000 0.741
87.28000 0.820
87.30000 -0.205
87.32000 1.823
87.34000 2.742
87.36000 4.178
87.38000 4.141
87.40000 2.871
87.42000 1.237
87.44000 0.235
87.46000 0.402
87.48000 1.109
87.50000 4.166
87.52000 1.982
87.54000 1.254
87.56000 -0.643
87.58000 -1.141
87.60000 1.073
87.62000 2.417
87.64000 2.140
87.66000 -0.398
87.68000 3.467
87.70000 5.205
87.72000 0.096
87.74000 1.648
87.76000 3.590
87.78000 3.172
87.80000 1.625
87.82000 0.739
87.84000 2.782
87.86000 2.796
87.88000 1.105
87.90000 -1.833
87.92000 -0.979
87.94000 -0.212
87.96000 0.163
87.98000 -0.230
88.00000 1.599
88.02000 -1.457
88.04000 -0.931
88.06000 0.233
88.08000 -0.469
88.10000 -1.419
88.12000 0.005
88.14000 -0.080
88.16000 1.228
88.18000 3.899
88.20000 2.619
88.22000 1.130
88.24000 -0.360
88.26000 -1.711
88.28000 0.927
88.30000 3.819
88.32000 4.177
88.34000 1.037
88.36000 0.679
88.38000 2.098
88.40000 2.811
88.42000 1.437
88.44000 2.418
88.46000 1.231
88.48000 1.103
88.50000 -1.805
88.52000 0.511
88.54000 -0.333
88.56000 3.169
88.58000 2.837
88.60000 1.224
88.62000 3.120
88.64000 0.328
88.66000 2.662
88.68000 2.960
88.70000 2.597
88.72000 4.949
88.74000 3.465
88.76000 4.380
88.78000 3.049
88.80000 -0.174
88.82000 -1.791
88.84000 1.771
88.86000 0.770
88.88000 0.538
88.90000 0.400
88.92000 0.576
88.94000 -0.389
88.96000 1.818
88.98000 3.567
89.00000 7.027
89.02000 4.619
89.04000 2.405
89.06000 0.384
89.08000 -0.860
89.10000 2.068
89.12000 0.854
89.14000 -0.650
89.16000 -1.508
89.18000 2.525
89.20000 6.069
89.22000 4.666
89.24000 3.182
89.26000 0.323
89.28000 -0.595
89.30000 1.585
89.32000 -0.829
89.34000 1.078
89.36000 0.891
89.38000 3.243
89.40000 1.832
89.42000 2.234
89.44000 2.064
89.46000 0.597
89.48000 0.864
89.50000 2.156
89.52000 -1.161
89.54000 -0.713
89.56000 1.155
89.58000 2.161
89.60000 2.023
89.62000 0.801
89.64000 2.253
89.66000 2.811
89.68000 0.866
89.70000 1.331
89.72000 -0.354
89.74000 -1.041
89.76000 0.775
89.78000 3.420
89.80000 -1.801
89.82000 0.097
89.84000 1.144
89.86000 0.893
89.88000 2.471
89.90000 3.174
89.92000 2.378
89.94000 1.657
89.96000 -0.074
89.98000 0.613
90.00000 1.544
90.02000 1.144
90.04000 1.694
90.06000 1.098
90.08000 2.054
90.10000 -0.639
90.12000 -1.606
90.14000 1.161
90.16000 0.702
90.18000 -0.248
90.20000 0.725
90.22000 -1.367
90.24000 -0.755
90.26000 -0.987
90.28000 3.364
90.30000 4.871
90.32000 3.272
90.34000 4.417
90.36000 1.333
90.38000 0.669
90.40000 2.618
90.42000 0.489
90.44000 0.918
90.46000 0.670
90.48000 1.952
90.50000 3.791
90.52000 2.800
90.54000 3.455
90.56000 5.572
90.58000 4.917
90.60000 0.855
90.62000 -1.765
90.64000 0.471
90.66000 2.278
90.68000 4.338
90.70000 4.123
90.72000 4.953
90.74000 1.316
90.76000 -1.773
90.78000 0.020
90.80000 -0.916
90.82000 -0.318
90.84000 0.224
90.86000 1.955
90.88000 1.285
90.90000 1.545
90.92000 3.745
90.94000 5.779
90.96000 3.963
90.98000 3.789
91.00000 2.893
91.02000 0.359
91.04000 2.225
91.06000 2.312
91.08000 1.020
91.10000 2.383
91.12000 2.527
91.14000 -0.889
91.16000 -0.321
91.18000 0.896
91.20000 2.522
91.22000 3.161
91.24000 2.879
91.26000 3.152
91.28000 2.419
91.30000 2.473
91.32000 1.082
91.34000 2.642
91.36000 2.639
91.38000 2.909
91.40000 2.288
91.42000 2.377
91.44000 3.467
91.46000 1.377
91.48000 2.673
91.50000 4.421
91.52000 6.142
91.54000 2.509
91.56000 -1.041
91.58000 0.918
91.60000 0.053
91.62000 -0.289
91.64000 0.889
91.66000 2.416
91.68000 4.325
91.70000 4.020
91.72000 5.476
91.74000 3.839
91.76000 0.881
91.78000 2.723
91.80000 3.302
91.82000 3.299
91.84000 5.471
91.86000 2.637
91.88000 0.196
91.90000 -1.275
91.92000 -0.256
91.94000 0.852
91.96000 2.283
91.98000 2.328
92.00000 5.123
92.02000 6.439
92.04000 6.420
92.06000 3.585
92.08000 8.828
92.10000 8.817
92.12000 5.553
92.14000 1.257
92.16000 3.801
92.18000 0.042
92.20000 0.083
92.22000 4.405
92.24000 2.762
92.26000 1.734
92.28000 3.951
92.30000 3.806
92.32000 5.046
92.34000 6.996
92.36000 2.438
92.38000 4.034
92.40000 4.881
92.42000 1.273
92.44000 4.074
92.46000 2.057
92.48000 2.525
92.50000 2.447
92.52000 -1.720
92.54000 1.820
92.56000 4.591
92.58000 4.920
92.60000 3.788
92.62000 5.946
92.64000 3.902
92.66000 2.196
92.68000 2.111
92.70000 4.865
92.72000 6.518
92.74000 3.452
92.76000 0.395
92.78000 -0.310
92.80000 3.261
92.82000 6.304
92.84000 4.344
92.86000 5.688
92.88000 6.743
92.90000 4.894
92.92000 5.137
92.94000 4.998
92.96000 6.908
92.98000 3.712
93.00000 0.811
93.02000 2.918
93.04000 2.501
93.06000 2.494
93.08000 3.636
93.10000 4.581
93.12000 4.825
93.14000 4.780
93.16000 5.765
93.18000 7.405
93.20000 5.690
93.22000 2.093
93.24000 3.532
93.26000 5.565
93.28000 5.745
93.30000 8.214
93.32000 6.522
93.34000 4.176
93.36000 2.696
93.38000 3.469
93.40000 4.556
93.42000 3.485
93.44000 3.599
93.46000 7.455
93.48000 7.261
93.50000 3.927
93.52000 3.797
93.54000 3.252
93.56000 5.082
93.58000 6.688
93.60000 6.024
93.62000 5.638
93.64000 5.363
93.66000 6.052
93.68000 3.019
93.70000 2.731
93.72000 5.604
93.74000 2.054
93.76000 3.020
93.78000 -1.742
93.80000 -1.367
93.82000 0.973
93.84000 3.928
93.86000 5.035
93.88000 3.608
93.90000 2.687
93.92000 0.096
93.94000 0.993
93.96000 2.230
93.98000 5.340
94.00000 5.214
94.02000 0.845
94.04000 0.823
94.06000 3.731
94.08000 5.542
94.10000 4.141
94.12000 2.322
94.14000 3.436
94.16000 2.526
94.18000 0.215
94.20000 -0.676
94.22000 0.525
94.24000 1.580
94.26000 1.105
94.28000 0.260
94.30000 2.492
94.32000 2.643
94.34000 6.843
94.36000 6.070
94.38000 5.750
94.40000 1.981
94.42000 0.618
94.44000 1.563
94.46000 0.914
94.48000 2.251
94.50000 2.209
94.52000 2.445
94.54000 -0.190
94.56000 1.636
94.58000 0.919
94.60000 2.375
94.62000 1.485
94.64000 0.766
94.66000 6.664
94.68000 6.508
94.70000 6.795
94.72000 6.142
94.74000 2.682
94.76000 -0.483
94.78000 0.229
94.80000 1.283
94.82000 0.421
94.84000 0.799
94.86000 6.962
94.88000 5.707
94.90000 4.630
94.92000 2.080
94.94000 -0.125
94.96000 0.607
94.98000 -1.803
95.00000 0.869
95.02000 4.752
95.04000 3.788
95.06000 1.392
95.08000 2.354
95.10000 3.064
95.12000 4.143
95.14000 3.436
95.16000 -0.130
95.18000 -1.814
95.20000 0.757
95.22000 0.933
95.24000 1.275
95.26000 3.703
95.28000 -0.406
95.30000 -1.683
95.32000 -0.161
95.34000 6.306
95.36000 3.923
95.38000 2.505
95.40000 2.969
95.42000 2.834
95.44000 4.393
95.46000 1.656
95.48000 4.125
95.50000 4.678
95.52000 1.837
95.54000 0.199
95.56000 1.473
95.58000 1.409
95.60000 0.144
95.62000 1.009
95.64000 2.466
95.66000 -0.332
95.68000 -1.509
95.70000 0.412
95.72000 3.914
95.74000 4.064
95.76000 5.904
95.78000 4.479
95.80000 0.697
95.82000 1.183
95.84000 2.338
95.86000 2.524
95.88000 7.979
95.90000 3.390
95.92000 -1.258
95.94000 -0.924
95.96000 0.838
95.98000 0.480
96.00000 1.377
96.02000 0.569
96.04000 1.025
96.06000 3.236
96.08000 2.140
96.10000 1.089
96.12000 1.611
96.14000 -1.379
96.16000 -0.549
96.18000 1.782
96.20000 2.599
96.22000 3.529
96.24000 3.270
96.26000 0.199
96.28000 3.504
96.30000 5.200
96.32000 1.929
96.34000 2.943
96.36000 5.231
96.38000 5.322
96.40000 1.567
96.42000 -1.679
96.44000 1.801
96.46000 -0.051
96.48000 -0.575
96.50000 0.769
96.52000 1.656
96.54000 1.102
96.56000 2.158
96.58000 1.011
96.60000 2.966
96.62000 1.476
96.64000 -1.819
96.66000 -0.464
96.68000 -0.864
96.70000 0.955
96.72000 3.532
96.74000 3.029
96.76000 -0.401
96.78000 1.491
96.80000 7.060
96.82000 -0.386
96.84000 -0.216
96.86000 2.216
96.88000 1.184
96.90000 0.103
96.92000 2.502
96.94000 5.219
96.96000 6.645
96.98000 5.442
97.00000 2.107
97.02000 1.542
97.04000 2.979
97.06000 1.284
97.08000 2.255
97.10000 1.898
97.12000 1.040
97.14000 2.290
97.16000 4.350
97.18000 0.889
97.20000 2.617
97.22000 2.841
97.24000 4.059
97.26000 1.073
97.28000 1.273
97.30000 0.131
97.32000 3.124
97.34000 4.320
97.36000 6.908
97.38000 5.505
97.40000 6.290
97.42000 2.901
97.44000 -1.795
97.46000 -0.294
97.48000 1.128
97.50000 0.415
97.52000 1.485
97.54000 4.720
97.56000 4.856
97.58000 1.653
97.60000 2.042
97.62000 -0.469
97.64000 2.290
97.66000 1.883
97.68000 2.251
97.70000 5.749
97.72000 5.611
97.74000 1.186
97.76000 0.904
97.78000 1.079
97.80000 4.209
97.82000 4.950
97.84000 4.873
97.86000 2.979
97.88000 2.088
97.90000 5.415
97.92000 6.773
97.94000 6.686
97.96000 2.704
97.98000 0.955
98.00000 4.608
98.02000 4.839
98.04000 3.155
98.06000 4.988
98.08000 4.581
98.10000 5.239
98.12000 2.694
98.14000 4.462
98.16000 8.060
98.18000 2.914
98.20000 4.666
98.22000 7.179
98.24000 4.483
98.26000 7.225
98.28000 1.050
98.30000 -1.716
98.32000 7.563
98.34000 6.225
98.36000 8.709
98.38000 5.817
98.40000 6.120
98.42000 0.973
98.44000 1.867
98.46000 5.253
98.48000 7.103
98.50000 11.359
98.52000 8.590
98.54000 5.500
98.56000 4.476
98.58000 3.521
98.60000 1.561
98.62000 8.374
98.64000 8.747
98.66000 10.574
98.68000 7.297
98.70000 8.854
98.72000 4.062
98.74000 6.363
98.76000 4.340
98.78000 5.810
98.80000 4.865
98.82000 9.122
98.84000 2.878
98.86000 8.591
98.88000 9.701
98.90000 8.886
98.92000 7.991
98.94000 4.089
98.96000 2.591
98.98000 0.636
99.00000 0.407
99.02000 0.530
99.04000 1.948
99.06000 3.226
99.08000 5.918
99.10000 7.941
99.12000 6.169
99.14000 3.789
99.16000 5.637
99.18000 1.303
99.20000 -1.696
99.22000 1.216
99.24000 1.954
99.26000 -1.740
99.28000 1.164
99.30000 1.650
99.32000 7.765
99.34000 4.152
99.36000 6.280
99.38000 3.408
99.40000 6.448
99.42000 -3.301
99.44000 2.571
99.46000 7.115
99.48000 9.471
99.50000 8.525
99.52000 5.605
99.54000 4.231
99.56000 8.587
99.58000 5.183
99.60000 5.205
99.62000 9.149
99.64000 5.173
99.66000 4.424
99.68000 6.435
99.70000 3.926
99.72000 3.038
99.74000 -1.834
99.76000 -0.547
99.78000 1.846
99.80000 0.884
99.82000 -1.547
99.84000 -1.653
99.86000 6.088
99.88000 4.534
99.90000 -0.529
99.92000 -1.908
99.94000 -0.601
99.96000 -1.954
99.98000 0.000
