'Id: "0011389" Comment: "Integrate frame 0011389_Au-Ir-Rh_Au-Rich_XRD_Mapping-039-0000.gfrmwith cursor Wedge Cursor #5" Operator: "B?rgel" Anode: "Cu" Wavelength: "1.5406" Scantype: "2Theta (TwoTheta)" TimePerStep: "1" X: "-36" Y: "-27" Z: "5.95" 
10.00000 0.000
10.02000 -4.664
10.04000 -3.259
10.06000 7.540
10.08000 26.949
10.10000 4.689
10.12000 4.140
10.14000 25.074
10.16000 27.019
10.18000 1.341
10.20000 7.638
10.22000 24.079
10.24000 12.766
10.26000 -4.475
10.28000 -4.461
10.30000 17.506
10.32000 11.154
10.34000 25.804
10.36000 22.531
10.38000 21.376
10.40000 30.997
10.42000 45.678
10.44000 38.579
10.46000 31.981
10.48000 5.610
10.50000 7.339
10.52000 13.527
10.54000 19.618
10.56000 29.871
10.58000 35.553
10.60000 10.666
10.62000 8.477
10.64000 11.020
10.66000 14.712
10.68000 6.350
10.70000 2.597
10.72000 17.160
10.74000 23.703
10.76000 27.194
10.78000 35.251
10.80000 35.597
10.82000 22.011
10.84000 32.819
10.86000 24.702
10.88000 11.578
10.90000 12.568
10.92000 22.766
10.94000 19.156
10.96000 18.094
10.98000 34.085
11.00000 37.483
11.02000 27.146
11.04000 25.516
11.06000 17.736
11.08000 11.544
11.10000 12.398
11.12000 18.843
11.14000 15.419
11.16000 7.269
11.18000 5.368
11.20000 10.671
11.22000 12.207
11.24000 11.048
11.26000 11.716
11.28000 16.393
11.30000 14.462
11.32000 13.630
11.34000 12.815
11.36000 16.927
11.38000 22.991
11.40000 25.049
11.42000 15.394
11.44000 6.165
11.46000 14.385
11.48000 18.423
11.50000 5.427
11.52000 9.292
11.54000 24.838
11.56000 27.434
11.58000 18.683
11.60000 14.272
11.62000 29.034
11.64000 18.956
11.66000 1.100
11.68000 -0.873
11.70000 13.829
11.72000 15.726
11.74000 19.572
11.76000 23.813
11.78000 15.705
11.80000 11.577
11.82000 17.286
11.84000 -1.791
11.86000 -4.089
11.88000 9.788
11.90000 15.341
11.92000 20.835
11.94000 22.376
11.96000 11.289
11.98000 1.755
12.00000 -1.371
12.02000 -2.725
12.04000 -2.977
12.06000 -4.509
12.08000 9.846
12.10000 10.730
12.12000 8.838
12.14000 10.299
12.16000 14.242
12.18000 10.627
12.20000 4.670
12.22000 -2.487
12.24000 13.468
12.26000 10.691
12.28000 -4.458
12.30000 1.202
12.32000 2.355
12.34000 3.456
12.36000 9.129
12.38000 10.575
12.40000 4.445
12.42000 7.574
12.44000 13.397
12.46000 23.950
12.48000 17.416
12.50000 0.093
12.52000 3.807
12.54000 21.225
12.56000 19.868
12.58000 7.873
12.60000 5.186
12.62000 20.588
12.64000 25.081
12.66000 18.311
12.68000 8.002
12.70000 7.541
12.72000 13.373
12.74000 10.894
12.76000 9.914
12.78000 7.995
12.80000 7.504
12.82000 7.464
12.84000 7.707
12.86000 4.318
12.88000 1.733
12.90000 9.230
12.92000 7.663
12.94000 10.913
12.96000 8.280
12.98000 4.785
13.00000 3.406
13.02000 11.237
13.04000 7.010
13.06000 5.462
13.08000 7.326
13.10000 2.332
13.12000 1.240
13.14000 10.556
13.16000 10.667
13.18000 8.435
13.20000 4.380
13.22000 9.657
13.24000 12.236
13.26000 9.170
13.28000 7.747
13.30000 6.167
13.32000 4.439
13.34000 1.313
13.36000 9.168
13.38000 4.777
13.40000 15.702
13.42000 14.032
13.44000 16.560
13.46000 11.993
13.48000 10.510
13.50000 14.274
13.52000 17.617
13.54000 14.797
13.56000 20.115
13.58000 17.077
13.60000 0.987
13.62000 2.602
13.64000 5.163
13.66000 -2.638
13.68000 0.376
13.70000 11.716
13.72000 12.268
13.74000 5.645
13.76000 11.210
13.78000 8.713
13.80000 16.398
13.82000 10.166
13.84000 3.456
13.86000 7.494
13.88000 16.421
13.90000 17.282
13.92000 16.511
13.94000 12.864
13.96000 11.812
13.98000 4.654
14.00000 5.261
14.02000 8.950
14.04000 12.099
14.06000 19.786
14.08000 17.650
14.10000 11.352
14.12000 4.965
14.14000 16.593
14.16000 19.802
14.18000 17.629
14.20000 18.267
14.22000 10.819
14.24000 6.593
14.26000 6.286
14.28000 12.164
14.30000 17.106
14.32000 12.393
14.34000 1.821
14.36000 4.379
14.38000 14.190
14.40000 15.612
14.42000 7.670
14.44000 10.991
14.46000 7.635
14.48000 4.761
14.50000 11.843
14.52000 2.805
14.54000 -2.718
14.56000 -4.410
14.58000 5.216
14.60000 19.872
14.62000 12.409
14.64000 18.152
14.66000 17.957
14.68000 9.163
14.70000 7.252
14.72000 14.371
14.74000 19.255
14.76000 7.067
14.78000 6.884
14.80000 3.324
14.82000 11.268
14.84000 14.001
14.86000 11.244
14.88000 16.491
14.90000 18.036
14.92000 14.326
14.94000 14.775
14.96000 14.684
14.98000 7.822
15.00000 9.791
15.02000 6.301
15.04000 16.785
15.06000 15.074
15.08000 21.256
15.10000 17.260
15.12000 7.398
15.14000 11.667
15.16000 15.332
15.18000 13.399
15.20000 18.769
15.22000 6.793
15.24000 5.885
15.26000 4.523
15.28000 10.046
15.30000 9.991
15.32000 6.543
15.34000 14.401
15.36000 19.370
15.38000 13.713
15.40000 16.459
15.42000 14.965
15.44000 11.515
15.46000 10.103
15.48000 13.856
15.50000 10.674
15.52000 13.152
15.54000 13.669
15.56000 7.521
15.58000 4.225
15.60000 6.565
15.62000 10.970
15.64000 8.858
15.66000 14.013
15.68000 10.405
15.70000 1.678
15.72000 3.426
15.74000 2.108
15.76000 9.797
15.78000 14.107
15.80000 4.209
15.82000 12.902
15.84000 11.507
15.86000 8.494
15.88000 9.609
15.90000 8.952
15.92000 6.271
15.94000 10.150
15.96000 7.490
15.98000 4.842
16.00000 3.365
16.02000 5.504
16.04000 10.516
16.06000 11.828
16.08000 11.052
16.10000 13.978
16.12000 9.895
16.14000 12.038
16.16000 18.328
16.18000 14.678
16.20000 14.666
16.22000 12.212
16.24000 12.767
16.26000 5.093
16.28000 2.341
16.30000 -4.363
16.32000 2.448
16.34000 6.759
16.36000 7.291
16.38000 4.437
16.40000 4.346
16.42000 11.298
16.44000 12.226
16.46000 6.215
16.48000 4.124
16.50000 14.768
16.52000 18.865
16.54000 14.902
16.56000 3.709
16.58000 -0.910
16.60000 0.782
16.62000 15.217
16.64000 11.615
16.66000 17.910
16.68000 11.580
16.70000 5.491
16.72000 6.071
16.74000 4.495
16.76000 4.245
16.78000 4.620
16.80000 6.325
16.82000 6.162
16.84000 3.181
16.86000 2.588
16.88000 4.404
16.90000 5.334
16.92000 6.526
16.94000 12.091
16.96000 6.225
16.98000 3.708
17.00000 8.749
17.02000 8.851
17.04000 9.485
17.06000 10.600
17.08000 7.145
17.10000 7.072
17.12000 7.135
17.14000 5.292
17.16000 8.398
17.18000 5.356
17.20000 -4.314
17.22000 9.117
17.24000 12.914
17.26000 9.605
17.28000 13.658
17.30000 10.521
17.32000 1.993
17.34000 6.525
17.36000 7.170
17.38000 4.082
17.40000 7.121
17.42000 15.016
17.44000 18.490
17.46000 11.120
17.48000 9.620
17.50000 6.944
17.52000 3.075
17.54000 5.308
17.56000 9.383
17.58000 6.219
17.60000 -0.643
17.62000 -4.319
17.64000 -0.822
17.66000 7.219
17.68000 14.390
17.70000 13.533
17.72000 12.716
17.74000 11.442
17.76000 5.020
17.78000 -0.520
17.80000 0.189
17.82000 3.894
17.84000 4.694
17.86000 6.854
17.88000 5.738
17.90000 9.374
17.92000 10.994
17.94000 6.919
17.96000 5.287
17.98000 4.804
18.00000 3.720
18.02000 0.158
18.04000 8.114
18.06000 2.634
18.08000 1.517
18.10000 4.620
18.12000 3.941
18.14000 6.757
18.16000 4.229
18.18000 6.988
18.20000 12.709
18.22000 4.619
18.24000 4.556
18.26000 2.876
18.28000 2.961
18.30000 1.521
18.32000 10.321
18.34000 1.379
18.36000 3.346
18.38000 1.568
18.40000 -0.984
18.42000 -3.787
18.44000 0.622
18.46000 2.406
18.48000 2.809
18.50000 3.092
18.52000 5.526
18.54000 10.022
18.56000 8.057
18.58000 8.616
18.60000 7.098
18.62000 5.082
18.64000 5.646
18.66000 1.099
18.68000 4.066
18.70000 0.439
18.72000 1.679
18.74000 -0.063
18.76000 -2.034
18.78000 -1.891
18.80000 -1.351
18.82000 6.656
18.84000 4.797
18.86000 7.216
18.88000 5.880
18.90000 8.593
18.92000 7.759
18.94000 6.853
18.96000 6.697
18.98000 6.417
19.00000 0.857
19.02000 0.204
19.04000 3.358
19.06000 2.370
19.08000 0.220
19.10000 6.449
19.12000 5.230
19.14000 4.047
19.16000 2.264
19.18000 4.177
19.20000 8.067
19.22000 0.216
19.24000 3.254
19.26000 11.180
19.28000 9.920
19.30000 1.429
19.32000 -2.170
19.34000 4.812
19.36000 -1.975
19.38000 -2.409
19.40000 4.265
19.42000 5.178
19.44000 14.131
19.46000 9.848
19.48000 7.228
19.50000 -2.271
19.52000 7.264
19.54000 6.076
19.56000 10.337
19.58000 9.946
19.60000 7.850
19.62000 4.631
19.64000 6.791
19.66000 3.300
19.68000 3.449
19.70000 -0.068
19.72000 -3.588
19.74000 -2.186
19.76000 3.064
19.78000 1.593
19.80000 0.850
19.82000 4.848
19.84000 2.240
19.86000 5.471
19.88000 0.829
19.90000 0.941
19.92000 5.745
19.94000 6.184
19.96000 6.188
19.98000 3.415
20.00000 2.202
20.02000 2.176
20.04000 -0.164
20.06000 3.452
20.08000 -4.176
20.10000 -0.543
20.12000 3.724
20.14000 2.928
20.16000 5.709
20.18000 3.191
20.20000 5.255
20.22000 7.477
20.24000 1.820
20.26000 2.287
20.28000 9.054
20.30000 10.510
20.32000 3.791
20.34000 0.893
20.36000 13.287
20.38000 9.552
20.40000 10.336
20.42000 9.632
20.44000 7.708
20.46000 2.109
20.48000 -3.216
20.50000 -1.015
20.52000 2.330
20.54000 4.980
20.56000 5.766
20.58000 8.500
20.60000 10.766
20.62000 4.490
20.64000 8.179
20.66000 4.344
20.68000 3.567
20.70000 3.064
20.72000 10.204
20.74000 13.039
20.76000 4.767
20.78000 9.744
20.80000 3.439
20.82000 2.268
20.84000 1.490
20.86000 1.511
20.88000 3.037
20.90000 5.376
20.92000 5.621
20.94000 5.646
20.96000 6.366
20.98000 -0.461
21.00000 6.304
21.02000 10.433
21.04000 -0.610
21.06000 -2.326
21.08000 1.227
21.10000 0.902
21.12000 9.126
21.14000 16.058
21.16000 14.309
21.18000 10.891
21.20000 8.625
21.22000 8.976
21.24000 9.600
21.26000 2.248
21.28000 5.220
21.30000 5.837
21.32000 6.883
21.34000 2.912
21.36000 -0.674
21.38000 -4.096
21.40000 6.889
21.42000 10.894
21.44000 14.753
21.46000 9.542
21.48000 8.558
21.50000 11.157
21.52000 7.188
21.54000 0.731
21.56000 6.551
21.58000 5.485
21.60000 2.816
21.62000 4.616
21.64000 1.863
21.66000 9.077
21.68000 5.804
21.70000 3.296
21.72000 8.468
21.74000 10.968
21.76000 6.030
21.78000 3.608
21.80000 -1.127
21.82000 -1.563
21.84000 -3.037
21.86000 5.545
21.88000 -0.589
21.90000 0.032
21.92000 3.765
21.94000 12.094
21.96000 8.509
21.98000 5.015
22.00000 3.775
22.02000 3.453
22.04000 -1.052
22.06000 2.103
22.08000 5.414
22.10000 6.029
22.12000 3.074
22.14000 -1.822
22.16000 3.063
22.18000 4.105
22.20000 0.756
22.22000 1.947
22.24000 6.970
22.26000 6.739
22.28000 6.098
22.30000 9.334
22.32000 4.164
22.34000 5.463
22.36000 2.854
22.38000 3.706
22.40000 3.023
22.42000 2.092
22.44000 1.445
22.46000 -0.274
22.48000 5.622
22.50000 5.388
22.52000 4.882
22.54000 -0.995
22.56000 -2.003
22.58000 0.897
22.60000 7.930
22.62000 6.414
22.64000 0.915
22.66000 3.767
22.68000 4.703
22.70000 7.694
22.72000 6.207
22.74000 -2.814
22.76000 0.003
22.78000 0.516
22.80000 -0.149
22.82000 -1.756
22.84000 7.091
22.86000 6.090
22.88000 9.374
22.90000 5.340
22.92000 -0.501
22.94000 -1.478
22.96000 5.067
22.98000 6.761
23.00000 4.364
23.02000 -3.260
23.04000 4.332
23.06000 3.117
23.08000 4.353
23.10000 6.190
23.12000 4.899
23.14000 4.308
23.16000 1.645
23.18000 3.673
23.20000 6.831
23.22000 9.580
23.24000 8.647
23.26000 6.104
23.28000 4.612
23.30000 11.421
23.32000 13.022
23.34000 8.845
23.36000 8.560
23.38000 0.363
23.40000 -3.980
23.42000 7.783
23.44000 7.160
23.46000 6.625
23.48000 4.270
23.50000 7.927
23.52000 9.890
23.54000 6.372
23.56000 7.477
23.58000 5.680
23.60000 9.844
23.62000 8.426
23.64000 4.773
23.66000 -2.875
23.68000 5.780
23.70000 11.618
23.72000 5.753
23.74000 3.038
23.76000 6.063
23.78000 7.162
23.80000 4.153
23.82000 1.020
23.84000 0.794
23.86000 5.934
23.88000 2.091
23.90000 1.375
23.92000 2.577
23.94000 3.102
23.96000 2.358
23.98000 5.221
24.00000 10.667
24.02000 9.746
24.04000 5.866
24.06000 7.856
24.08000 3.721
24.10000 0.506
24.12000 2.064
24.14000 4.656
24.16000 6.701
24.18000 3.550
24.20000 -1.633
24.22000 0.561
24.24000 0.706
24.26000 3.205
24.28000 1.997
24.30000 4.017
24.32000 4.469
24.34000 6.042
24.36000 1.931
24.38000 5.600
24.40000 7.104
24.42000 5.176
24.44000 -0.231
24.46000 -1.763
24.48000 2.172
24.50000 4.343
24.52000 8.601
24.54000 5.897
24.56000 1.140
24.58000 1.205
24.60000 3.832
24.62000 1.258
24.64000 1.624
24.66000 6.077
24.68000 13.386
24.70000 10.099
24.72000 8.483
24.74000 7.862
24.76000 6.849
24.78000 3.008
24.80000 2.842
24.82000 2.561
24.84000 6.396
24.86000 4.739
24.88000 -0.868
24.90000 3.705
24.92000 3.294
24.94000 6.519
24.96000 1.593
24.98000 -3.896
25.00000 -3.081
25.02000 4.583
25.04000 4.610
25.06000 6.907
25.08000 3.242
25.10000 1.399
25.12000 3.404
25.14000 8.474
25.16000 6.522
25.18000 3.413
25.20000 -0.736
25.22000 1.619
25.24000 7.702
25.26000 2.997
25.28000 1.530
25.30000 4.123
25.32000 6.970
25.34000 7.111
25.36000 5.218
25.38000 -0.574
25.40000 0.648
25.42000 4.105
25.44000 4.587
25.46000 8.410
25.48000 4.967
25.50000 -2.140
25.52000 3.474
25.54000 3.914
25.56000 0.885
25.58000 6.361
25.60000 4.255
25.62000 1.547
25.64000 4.850
25.66000 -2.868
25.68000 -0.125
25.70000 1.524
25.72000 1.530
25.74000 5.632
25.76000 3.095
25.78000 2.765
25.80000 2.372
25.82000 4.183
25.84000 8.526
25.86000 1.975
25.88000 -0.092
25.90000 0.849
25.92000 -2.419
25.94000 -2.834
25.96000 2.699
25.98000 2.272
26.00000 -1.117
26.02000 0.713
26.04000 -0.061
26.06000 -0.698
26.08000 1.697
26.10000 -1.848
26.12000 5.524
26.14000 5.422
26.16000 0.908
26.18000 -1.281
26.20000 0.548
26.22000 3.043
26.24000 7.932
26.26000 8.321
26.28000 1.241
26.30000 -1.192
26.32000 -3.764
26.34000 -3.779
26.36000 3.606
26.38000 1.293
26.40000 0.287
26.42000 -3.873
26.44000 0.917
26.46000 0.602
26.48000 2.037
26.50000 12.065
26.52000 4.424
26.54000 1.295
26.56000 -0.029
26.58000 -1.876
26.60000 3.045
26.62000 5.450
26.64000 0.405
26.66000 2.908
26.68000 -1.696
26.70000 0.521
26.72000 0.424
26.74000 1.939
26.76000 1.804
26.78000 -1.123
26.80000 -2.193
26.82000 2.686
26.84000 6.254
26.86000 4.752
26.88000 2.915
26.90000 0.763
26.92000 -3.845
26.94000 0.680
26.96000 2.382
26.98000 7.495
27.00000 4.267
27.02000 -0.522
27.04000 -3.458
27.06000 -2.869
27.08000 6.166
27.10000 5.466
27.12000 -0.207
27.14000 0.761
27.16000 4.073
27.18000 2.679
27.20000 5.703
27.22000 7.136
27.24000 1.958
27.26000 -2.273
27.28000 2.218
27.30000 -1.967
27.32000 -3.818
27.34000 -1.107
27.36000 2.955
27.38000 5.046
27.40000 8.285
27.42000 3.625
27.44000 1.368
27.46000 0.063
27.48000 3.786
27.50000 2.818
27.52000 6.766
27.54000 1.735
27.56000 2.844
27.58000 7.324
27.60000 5.422
27.62000 2.450
27.64000 0.549
27.66000 2.996
27.68000 2.758
27.70000 -2.271
27.72000 -2.210
27.74000 4.095
27.76000 -0.350
27.78000 -2.848
27.80000 -0.010
27.82000 1.011
27.84000 3.611
27.86000 4.366
27.88000 6.993
27.90000 3.683
27.92000 0.440
27.94000 -2.588
27.96000 -0.692
27.98000 0.757
28.00000 4.372
28.02000 1.876
28.04000 -0.285
28.06000 4.926
28.08000 3.684
28.10000 1.642
28.12000 -0.203
28.14000 1.200
28.16000 1.996
28.18000 1.614
28.20000 -0.772
28.22000 -3.443
28.24000 -3.756
28.26000 -3.265
28.28000 3.169
28.30000 7.456
28.32000 6.285
28.34000 2.057
28.36000 -3.733
28.38000 -1.868
28.40000 3.164
28.42000 1.594
28.44000 4.966
28.46000 6.166
28.48000 5.804
28.50000 3.657
28.52000 -2.283
28.54000 -2.524
28.56000 0.269
28.58000 -0.807
28.60000 -1.655
28.62000 5.739
28.64000 6.298
28.66000 7.288
28.68000 8.050
28.70000 5.062
28.72000 0.451
28.74000 0.323
28.76000 -1.654
28.78000 -3.718
28.80000 2.891
28.82000 6.690
28.84000 3.396
28.86000 -0.174
28.88000 1.689
28.90000 3.060
28.92000 4.110
28.94000 5.917
28.96000 6.734
28.98000 14.834
29.00000 11.265
29.02000 1.029
29.04000 5.780
29.06000 7.564
29.08000 2.318
29.10000 1.664
29.12000 9.178
29.14000 6.196
29.16000 6.190
29.18000 0.873
29.20000 2.453
29.22000 4.624
29.24000 3.745
29.26000 1.768
29.28000 -0.634
29.30000 -2.680
29.32000 0.852
29.34000 -1.236
29.36000 3.181
29.38000 5.110
29.40000 9.018
29.42000 7.839
29.44000 1.155
29.46000 0.711
29.48000 3.027
29.50000 1.237
29.52000 6.141
29.54000 9.145
29.56000 1.272
29.58000 -3.672
29.60000 3.796
29.62000 5.566
29.64000 2.680
29.66000 0.882
29.68000 1.579
29.70000 -0.066
29.72000 -1.822
29.74000 0.583
29.76000 0.610
29.78000 5.377
29.80000 4.553
29.82000 5.771
29.84000 7.615
29.86000 6.812
29.88000 5.024
29.90000 3.179
29.92000 0.469
29.94000 -0.887
29.96000 -2.412
29.98000 -0.086
30.00000 0.141
30.02000 1.681
30.04000 4.001
30.06000 4.863
30.08000 1.830
30.10000 5.029
30.12000 3.255
30.14000 3.430
30.16000 2.504
30.18000 1.705
30.20000 2.375
30.22000 4.427
30.24000 2.623
30.26000 3.720
30.28000 0.186
30.30000 -3.570
30.32000 -1.592
30.34000 -1.056
30.36000 -1.894
30.38000 1.750
30.40000 0.148
30.42000 1.589
30.44000 -2.988
30.46000 -1.870
30.48000 -0.184
30.50000 -3.031
30.52000 0.020
30.54000 0.570
30.56000 1.015
30.58000 3.748
30.60000 4.177
30.62000 2.567
30.64000 2.770
30.66000 5.675
30.68000 3.142
30.70000 0.445
30.72000 -0.015
30.74000 -0.599
30.76000 2.924
30.78000 4.909
30.80000 -0.721
30.82000 1.214
30.84000 3.289
30.86000 5.177
30.88000 1.691
30.90000 3.108
30.92000 -0.450
30.94000 -3.627
30.96000 2.349
30.98000 5.915
31.00000 6.113
31.02000 3.825
31.04000 2.247
31.06000 2.550
31.08000 3.138
31.10000 1.588
31.12000 -1.418
31.14000 -2.180
31.16000 2.002
31.18000 2.823
31.20000 6.164
31.22000 3.370
31.24000 -0.336
31.26000 3.006
31.28000 2.060
31.30000 -0.788
31.32000 -3.622
31.34000 1.993
31.36000 0.742
31.38000 0.256
31.40000 5.660
31.42000 6.163
31.44000 -0.162
31.46000 -2.087
31.48000 -0.381
31.50000 0.209
31.52000 0.540
31.54000 3.037
31.56000 2.240
31.58000 1.273
31.60000 3.869
31.62000 0.686
31.64000 -0.694
31.66000 -1.386
31.68000 -0.380
31.70000 -0.690
31.72000 2.681
31.74000 1.522
31.76000 -0.872
31.78000 -1.297
31.80000 -2.219
31.82000 0.163
31.84000 1.028
31.86000 4.955
31.88000 1.561
31.90000 -2.649
31.92000 -2.016
31.94000 4.701
31.96000 1.794
31.98000 0.481
32.00000 -0.158
32.02000 1.657
32.04000 1.936
32.06000 -1.371
32.08000 -0.358
32.10000 -0.160
32.12000 0.209
32.14000 2.840
32.16000 5.081
32.18000 9.790
32.20000 1.721
32.22000 -1.514
32.24000 -0.482
32.26000 3.495
32.28000 1.432
32.30000 5.333
32.32000 2.544
32.34000 5.494
32.36000 6.000
32.38000 -1.171
32.40000 -1.023
32.42000 1.846
32.44000 3.178
32.46000 2.970
32.48000 0.342
32.50000 -1.869
32.52000 -0.733
32.54000 1.561
32.56000 0.811
32.58000 -0.080
32.60000 1.073
32.62000 3.801
32.64000 3.058
32.66000 3.948
32.68000 1.642
32.70000 3.830
32.72000 3.257
32.74000 -3.564
32.76000 2.829
32.78000 8.186
32.80000 5.577
32.82000 1.546
32.84000 4.020
32.86000 3.360
32.88000 3.092
32.90000 5.610
32.92000 -0.295
32.94000 -0.053
32.96000 6.838
32.98000 6.460
33.00000 5.640
33.02000 0.983
33.04000 2.716
33.06000 6.980
33.08000 9.858
33.10000 0.471
33.12000 -3.550
33.14000 6.513
33.16000 7.285
33.18000 3.408
33.20000 -0.600
33.22000 -3.436
33.24000 1.556
33.26000 8.509
33.28000 5.061
33.30000 1.845
33.32000 1.696
33.34000 5.159
33.36000 3.245
33.38000 -0.050
33.40000 -0.006
33.42000 3.573
33.44000 1.747
33.46000 2.913
33.48000 8.310
33.50000 2.768
33.52000 0.685
33.54000 1.053
33.56000 2.889
33.58000 2.417
33.60000 0.327
33.62000 1.306
33.64000 0.586
33.66000 3.925
33.68000 6.652
33.70000 -1.506
33.72000 -2.327
33.74000 -2.110
33.76000 0.988
33.78000 2.379
33.80000 0.968
33.82000 -0.702
33.84000 -0.371
33.86000 4.173
33.88000 -2.660
33.90000 1.660
33.92000 5.094
33.94000 4.842
33.96000 5.029
33.98000 3.086
34.00000 -0.176
34.02000 -0.731
34.04000 0.018
34.06000 4.714
34.08000 5.498
34.10000 2.845
34.12000 4.494
34.14000 0.828
34.16000 2.629
34.18000 0.402
34.20000 3.859
34.22000 3.898
34.24000 6.094
34.26000 5.745
34.28000 -0.120
34.30000 0.682
34.32000 2.400
34.34000 10.099
34.36000 4.764
34.38000 2.723
34.40000 3.265
34.42000 1.026
34.44000 4.161
34.46000 3.453
34.48000 -0.486
34.50000 -0.440
34.52000 1.134
34.54000 4.396
34.56000 4.142
34.58000 1.859
34.60000 -2.906
34.62000 -0.116
34.64000 0.922
34.66000 2.677
34.68000 2.745
34.70000 4.122
34.72000 1.652
34.74000 1.940
34.76000 2.836
34.78000 0.807
34.80000 0.881
34.82000 -3.546
34.84000 -0.393
34.86000 0.645
34.88000 3.477
34.90000 7.002
34.92000 1.277
34.94000 -2.225
34.96000 -0.033
34.98000 -1.941
35.00000 1.128
35.02000 0.314
35.04000 0.008
35.06000 -0.134
35.08000 2.185
35.10000 0.948
35.12000 -3.141
35.14000 0.244
35.16000 -1.790
35.18000 -3.550
35.20000 -2.139
35.22000 2.881
35.24000 -0.368
35.26000 0.690
35.28000 4.185
35.30000 1.652
35.32000 4.164
35.34000 1.542
35.36000 -0.361
35.38000 0.572
35.40000 5.726
35.42000 2.727
35.44000 0.613
35.46000 0.991
35.48000 4.661
35.50000 -2.090
35.52000 -3.555
35.54000 -3.501
35.56000 -2.202
35.58000 -3.235
35.60000 -0.494
35.62000 2.562
35.64000 -1.750
35.66000 -2.003
35.68000 2.507
35.70000 -0.566
35.72000 0.508
35.74000 7.747
35.76000 2.089
35.78000 -0.798
35.80000 -0.999
35.82000 -1.863
35.84000 3.256
35.86000 -1.762
35.88000 1.487
35.90000 3.270
35.92000 1.950
35.94000 -0.961
35.96000 -1.453
35.98000 -1.350
36.00000 3.219
36.02000 -1.283
36.04000 -0.433
36.06000 2.519
36.08000 1.361
36.10000 -2.855
36.12000 2.554
36.14000 7.058
36.16000 5.582
36.18000 0.269
36.20000 -3.575
36.22000 -1.694
36.24000 1.398
36.26000 -2.344
36.28000 2.535
36.30000 6.861
36.32000 1.681
36.34000 2.536
36.36000 1.991
36.38000 0.198
36.40000 -3.326
36.42000 -0.774
36.44000 -2.677
36.46000 -0.430
36.48000 0.876
36.50000 -0.232
36.52000 4.708
36.54000 0.883
36.56000 4.981
36.58000 -1.593
36.60000 -3.051
36.62000 0.469
36.64000 1.103
36.66000 -1.383
36.68000 0.624
36.70000 4.776
36.72000 4.841
36.74000 -1.058
36.76000 -0.602
36.78000 -1.426
36.80000 -2.518
36.82000 0.911
36.84000 7.016
36.86000 3.385
36.88000 2.895
36.90000 3.333
36.92000 4.118
36.94000 3.979
36.96000 4.931
36.98000 6.531
37.00000 6.780
37.02000 -0.251
37.04000 -3.600
37.06000 2.087
37.08000 5.866
37.10000 7.138
37.12000 3.834
37.14000 2.484
37.16000 6.562
37.18000 5.374
37.20000 4.708
37.22000 4.438
37.24000 5.323
37.26000 8.196
37.28000 6.643
37.30000 6.929
37.32000 6.950
37.34000 2.153
37.36000 2.317
37.38000 3.668
37.40000 0.979
37.42000 5.983
37.44000 16.392
37.46000 8.605
37.48000 8.098
37.50000 9.680
37.52000 8.126
37.54000 6.816
37.56000 8.248
37.58000 12.463
37.60000 15.706
37.62000 13.963
37.64000 12.055
37.66000 8.856
37.68000 7.784
37.70000 16.695
37.72000 12.653
37.74000 12.666
37.76000 17.400
37.78000 18.447
37.80000 17.040
37.82000 16.056
37.84000 21.056
37.86000 23.243
37.88000 15.889
37.90000 19.647
37.92000 22.277
37.94000 24.808
37.96000 16.429
37.98000 20.088
38.00000 21.562
38.02000 23.270
38.04000 20.072
38.06000 21.824
38.08000 26.539
38.10000 28.575
38.12000 32.544
38.14000 34.822
38.16000 33.178
38.18000 32.025
38.20000 28.989
38.22000 33.728
38.24000 30.223
38.26000 26.662
38.28000 32.749
38.30000 35.099
38.32000 39.567
38.34000 43.472
38.36000 41.044
38.38000 41.589
38.40000 47.062
38.42000 47.081
38.44000 42.725
38.46000 44.927
38.48000 47.290
38.50000 54.199
38.52000 52.945
38.54000 57.215
38.56000 57.894
38.58000 60.027
38.60000 62.653
38.62000 70.959
38.64000 69.394
38.66000 71.636
38.68000 74.079
38.70000 74.516
38.72000 79.039
38.74000 82.287
38.76000 84.872
38.78000 88.077
38.80000 92.793
38.82000 94.196
38.84000 103.489
38.86000 113.049
38.88000 118.316
38.90000 124.073
38.92000 125.113
38.94000 131.623
38.96000 144.468
38.98000 155.579
39.00000 163.511
39.02000 171.410
39.04000 179.753
39.06000 191.952
39.08000 198.158
39.10000 212.417
39.12000 228.167
39.14000 239.626
39.16000 251.791
39.18000 269.363
39.20000 291.673
39.22000 315.502
39.24000 337.752
39.26000 349.567
39.28000 364.879
39.30000 387.923
39.32000 409.962
39.34000 429.872
39.36000 451.989
39.38000 493.259
39.40000 521.821
39.42000 537.678
39.44000 562.365
39.46000 590.399
39.48000 607.236
39.50000 634.512
39.52000 656.355
39.54000 663.406
39.56000 682.701
39.58000 698.035
39.60000 723.053
39.62000 726.341
39.64000 724.312
39.66000 739.328
39.68000 742.907
39.70000 741.400
39.72000 742.129
39.74000 737.587
39.76000 729.761
39.78000 722.898
39.80000 710.937
39.82000 694.357
39.84000 674.264
39.86000 657.031
39.88000 649.128
39.90000 623.638
39.92000 608.814
39.94000 580.586
39.96000 544.182
39.98000 520.120
40.00000 505.732
40.02000 481.311
40.04000 452.278
40.06000 426.655
40.08000 407.845
40.10000 385.104
40.12000 364.656
40.14000 344.855
40.16000 318.793
40.18000 292.331
40.20000 273.781
40.22000 260.092
40.24000 247.576
40.26000 232.460
40.28000 211.905
40.30000 192.009
40.32000 178.013
40.34000 174.493
40.36000 155.607
40.38000 142.719
40.40000 137.862
40.42000 131.556
40.44000 123.478
40.46000 119.379
40.48000 108.176
40.50000 98.889
40.52000 97.732
40.54000 97.149
40.56000 88.178
40.58000 78.112
40.60000 72.394
40.62000 70.207
40.64000 71.234
40.66000 62.324
40.68000 57.748
40.70000 60.801
40.72000 53.088
40.74000 48.938
40.76000 45.708
40.78000 41.681
40.80000 42.057
40.82000 46.690
40.84000 41.337
40.86000 35.049
40.88000 31.005
40.90000 32.901
40.92000 28.460
40.94000 24.940
40.96000 27.716
40.98000 27.314
41.00000 22.807
41.02000 23.660
41.04000 27.102
41.06000 24.148
41.08000 26.396
41.10000 23.295
41.12000 21.791
41.14000 18.176
41.16000 17.095
41.18000 19.768
41.20000 19.392
41.22000 16.054
41.24000 17.781
41.26000 15.525
41.28000 11.184
41.30000 8.859
41.32000 9.298
41.34000 9.368
41.36000 7.874
41.38000 8.531
41.40000 7.993
41.42000 6.234
41.44000 5.239
41.46000 9.884
41.48000 12.280
41.50000 11.460
41.52000 8.747
41.54000 5.653
41.56000 6.584
41.58000 6.308
41.60000 5.884
41.62000 5.126
41.64000 6.662
41.66000 5.719
41.68000 9.216
41.70000 7.889
41.72000 4.362
41.74000 6.038
41.76000 4.001
41.78000 1.588
41.80000 2.393
41.82000 6.050
41.84000 3.464
41.86000 -0.552
41.88000 4.590
41.90000 2.854
41.92000 3.877
41.94000 8.087
41.96000 6.246
41.98000 7.387
42.00000 8.907
42.02000 7.894
42.04000 3.147
42.06000 -0.673
42.08000 0.720
42.10000 2.619
42.12000 0.607
42.14000 1.013
42.16000 2.439
42.18000 1.117
42.20000 3.729
42.22000 5.441
42.24000 1.254
42.26000 0.405
42.28000 2.363
42.30000 3.347
42.32000 3.240
42.34000 0.718
42.36000 -1.071
42.38000 -2.013
42.40000 0.267
42.42000 1.592
42.44000 1.791
42.46000 1.457
42.48000 -0.923
42.50000 0.331
42.52000 -3.372
42.54000 0.144
42.56000 6.384
42.58000 5.546
42.60000 -2.202
42.62000 -1.766
42.64000 -3.354
42.66000 -1.730
42.68000 -0.949
42.70000 -3.236
42.72000 0.872
42.74000 1.841
42.76000 -2.115
42.78000 -2.925
42.80000 -1.214
42.82000 -0.596
42.84000 2.508
42.86000 1.484
42.88000 2.558
42.90000 4.998
42.92000 4.548
42.94000 3.279
42.96000 2.145
42.98000 2.802
43.00000 3.252
43.02000 0.429
43.04000 0.364
43.06000 1.712
43.08000 1.521
43.10000 -0.339
43.12000 -3.286
43.14000 -1.107
43.16000 1.968
43.18000 4.003
43.20000 3.962
43.22000 -0.833
43.24000 0.640
43.26000 0.878
43.28000 3.789
43.30000 1.680
43.32000 -1.119
43.34000 0.963
43.36000 1.368
43.38000 -1.417
43.40000 0.506
43.42000 -1.123
43.44000 -0.072
43.46000 -0.373
43.48000 2.843
43.50000 -1.668
43.52000 -2.026
43.54000 -2.078
43.56000 -0.050
43.58000 1.896
43.60000 3.957
43.62000 -0.649
43.64000 1.518
43.66000 -1.551
43.68000 -1.632
43.70000 -0.735
43.72000 -2.561
43.74000 -0.732
43.76000 -2.394
43.78000 0.305
43.80000 6.104
43.82000 4.336
43.84000 0.091
43.86000 -0.581
43.88000 -0.819
43.90000 0.408
43.92000 3.648
43.94000 1.091
43.96000 -3.223
43.98000 1.401
44.00000 4.102
44.02000 4.212
44.04000 3.566
44.06000 1.896
44.08000 3.317
44.10000 0.844
44.12000 -1.092
44.14000 -0.502
44.16000 -0.174
44.18000 -1.164
44.20000 -2.503
44.22000 1.470
44.24000 0.324
44.26000 -0.163
44.28000 0.843
44.30000 -2.966
44.32000 -1.854
44.34000 0.376
44.36000 3.248
44.38000 3.276
44.40000 1.695
44.42000 1.150
44.44000 1.061
44.46000 -1.538
44.48000 -1.089
44.50000 1.336
44.52000 1.097
44.54000 1.846
44.56000 -0.661
44.58000 -1.601
44.60000 3.419
44.62000 -0.186
44.64000 -0.794
44.66000 -3.211
44.68000 -1.665
44.70000 1.957
44.72000 3.602
44.74000 3.882
44.76000 10.528
44.78000 3.298
44.80000 3.294
44.82000 1.509
44.84000 2.060
44.86000 6.051
44.88000 8.526
44.90000 3.831
44.92000 2.859
44.94000 1.995
44.96000 -0.484
44.98000 -0.543
45.00000 3.966
45.02000 2.385
45.04000 3.953
45.06000 9.014
45.08000 5.968
45.10000 8.885
45.12000 6.118
45.14000 5.250
45.16000 10.191
45.18000 6.603
45.20000 8.233
45.22000 15.223
45.24000 12.772
45.26000 7.280
45.28000 9.460
45.30000 10.445
45.32000 10.795
45.34000 10.324
45.36000 11.584
45.38000 13.610
45.40000 15.079
45.42000 18.798
45.44000 16.780
45.46000 13.759
45.48000 17.900
45.50000 18.756
45.52000 16.363
45.54000 16.139
45.56000 20.220
45.58000 21.277
45.60000 23.409
45.62000 24.127
45.64000 23.301
45.66000 22.615
45.68000 25.211
45.70000 27.064
45.72000 33.426
45.74000 35.445
45.76000 34.690
45.78000 34.510
45.80000 35.006
45.82000 35.925
45.84000 40.167
45.86000 44.237
45.88000 46.897
45.90000 43.725
45.92000 47.523
45.94000 50.351
45.96000 54.650
45.98000 54.395
46.00000 54.700
46.02000 60.367
46.04000 60.446
46.06000 57.570
46.08000 60.752
46.10000 60.618
46.12000 61.474
46.14000 64.784
46.16000 67.337
46.18000 63.010
46.20000 69.057
46.22000 69.979
46.24000 71.578
46.26000 72.077
46.28000 74.392
46.30000 74.717
46.32000 74.600
46.34000 78.024
46.36000 81.258
46.38000 76.684
46.40000 77.594
46.42000 78.294
46.44000 72.056
46.46000 74.363
46.48000 75.670
46.50000 76.500
46.52000 77.047
46.54000 70.853
46.56000 68.613
46.58000 64.746
46.60000 66.215
46.62000 68.829
46.64000 63.393
46.66000 59.193
46.68000 57.699
46.70000 56.545
46.72000 53.971
46.74000 51.439
46.76000 48.781
46.78000 45.708
46.80000 45.143
46.82000 50.234
46.84000 44.647
46.86000 41.322
46.88000 40.310
46.90000 37.081
46.92000 37.667
46.94000 35.833
46.96000 29.219
46.98000 22.910
47.00000 23.228
47.02000 22.576
47.04000 25.157
47.06000 20.357
47.08000 20.525
47.10000 18.223
47.12000 18.317
47.14000 14.653
47.16000 15.195
47.18000 15.320
47.20000 11.326
47.22000 10.452
47.24000 13.931
47.26000 3.564
47.28000 5.936
47.30000 9.908
47.32000 6.040
47.34000 9.122
47.36000 12.106
47.38000 11.866
47.40000 6.275
47.42000 6.864
47.44000 3.173
47.46000 6.920
47.48000 7.294
47.50000 4.335
47.52000 2.732
47.54000 2.529
47.56000 5.011
47.58000 0.943
47.60000 1.942
47.62000 1.523
47.64000 4.654
47.66000 4.263
47.68000 -0.129
47.70000 3.507
47.72000 2.970
47.74000 1.233
47.76000 4.857
47.78000 1.454
47.80000 4.757
47.82000 5.369
47.84000 -0.057
47.86000 -0.153
47.88000 2.461
47.90000 3.510
47.92000 5.256
47.94000 7.331
47.96000 1.940
47.98000 1.264
48.00000 3.358
48.02000 7.838
48.04000 5.590
48.06000 2.764
48.08000 3.470
48.10000 2.101
48.12000 1.729
48.14000 2.164
48.16000 5.254
48.18000 5.434
48.20000 2.208
48.22000 -2.748
48.24000 3.135
48.26000 4.605
48.28000 6.191
48.30000 4.154
48.32000 0.895
48.34000 2.120
48.36000 8.944
48.38000 6.413
48.40000 4.819
48.42000 1.461
48.44000 0.595
48.46000 0.337
48.48000 5.273
48.50000 2.933
48.52000 2.410
48.54000 -0.722
48.56000 0.832
48.58000 0.867
48.60000 1.527
48.62000 1.530
48.64000 1.129
48.66000 -0.166
48.68000 1.711
48.70000 3.584
48.72000 3.100
48.74000 -0.275
48.76000 1.013
48.78000 6.734
48.80000 0.899
48.82000 4.173
48.84000 4.189
48.86000 2.775
48.88000 3.079
48.90000 -1.622
48.92000 -1.410
48.94000 -2.110
48.96000 -0.943
48.98000 3.124
49.00000 1.955
49.02000 2.317
49.04000 3.057
49.06000 2.728
49.08000 1.770
49.10000 5.348
49.12000 0.944
49.14000 0.853
49.16000 0.936
49.18000 3.157
49.20000 3.789
49.22000 2.599
49.24000 2.294
49.26000 0.522
49.28000 6.069
49.30000 5.388
49.32000 0.943
49.34000 -0.804
49.36000 -1.206
49.38000 -0.422
49.40000 4.816
49.42000 8.715
49.44000 3.801
49.46000 2.326
49.48000 6.555
49.50000 4.002
49.52000 1.281
49.54000 4.146
49.56000 5.725
49.58000 2.788
49.60000 -2.647
49.62000 -0.358
49.64000 2.877
49.66000 5.220
49.68000 4.515
49.70000 2.741
49.72000 1.332
49.74000 0.914
49.76000 2.038
49.78000 -2.203
49.80000 2.602
49.82000 3.836
49.84000 5.144
49.86000 5.717
49.88000 1.918
49.90000 -0.507
49.92000 0.648
49.94000 4.083
49.96000 2.002
49.98000 -1.617
50.00000 -1.497
50.02000 0.521
50.04000 -2.636
50.06000 0.443
50.08000 1.589
50.10000 2.816
50.12000 2.941
50.14000 5.458
50.16000 2.040
50.18000 2.425
50.20000 1.200
50.22000 0.363
50.24000 2.395
50.26000 0.511
50.28000 1.396
50.30000 -0.044
50.32000 -0.735
50.34000 3.032
50.36000 5.365
50.38000 6.733
50.40000 4.692
50.42000 2.224
50.44000 2.928
50.46000 7.084
50.48000 1.897
50.50000 2.664
50.52000 5.031
50.54000 4.574
50.56000 3.088
50.58000 3.887
50.60000 2.815
50.62000 4.293
50.64000 4.064
50.66000 3.982
50.68000 1.016
50.70000 4.070
50.72000 1.832
50.74000 0.992
50.76000 2.648
50.78000 4.356
50.80000 5.550
50.82000 3.195
50.84000 1.857
50.86000 1.773
50.88000 3.634
50.90000 5.789
50.92000 3.430
50.94000 1.722
50.96000 0.057
50.98000 2.206
51.00000 3.545
51.02000 2.727
51.04000 -0.369
51.06000 -2.572
51.08000 6.311
51.10000 5.782
51.12000 7.530
51.14000 5.602
51.16000 1.019
51.18000 2.524
51.20000 2.856
51.22000 3.213
51.24000 1.670
51.26000 5.256
51.28000 5.141
51.30000 6.416
51.32000 4.032
51.34000 0.234
51.36000 -0.740
51.38000 6.590
51.40000 3.231
51.42000 0.356
51.44000 5.430
51.46000 2.219
51.48000 5.248
51.50000 1.367
51.52000 4.194
51.54000 4.865
51.56000 2.815
51.58000 0.806
51.60000 3.281
51.62000 -0.352
51.64000 -1.221
51.66000 -1.328
51.68000 -0.417
51.70000 2.735
51.72000 5.156
51.74000 7.245
51.76000 3.321
51.78000 -1.914
51.80000 -1.874
51.82000 -2.552
51.84000 1.292
51.86000 2.077
51.88000 4.416
51.90000 3.612
51.92000 6.493
51.94000 4.850
51.96000 1.849
51.98000 3.919
52.00000 3.982
52.02000 3.258
52.04000 0.876
52.06000 0.810
52.08000 0.324
52.10000 1.462
52.12000 3.269
52.14000 5.270
52.16000 6.580
52.18000 4.822
52.20000 5.071
52.22000 7.465
52.24000 3.293
52.26000 2.213
52.28000 5.482
52.30000 -0.768
52.32000 0.283
52.34000 0.007
52.36000 1.996
52.38000 2.612
52.40000 4.213
52.42000 4.064
52.44000 2.456
52.46000 2.368
52.48000 3.172
52.50000 3.427
52.52000 5.493
52.54000 5.343
52.56000 2.093
52.58000 -0.007
52.60000 0.500
52.62000 -2.534
52.64000 -0.202
52.66000 2.822
52.68000 6.143
52.70000 2.488
52.72000 0.475
52.74000 2.526
52.76000 4.442
52.78000 4.087
52.80000 1.926
52.82000 0.341
52.84000 -0.693
52.86000 0.475
52.88000 4.371
52.90000 5.584
52.92000 1.946
52.94000 0.130
52.96000 2.722
52.98000 -0.769
53.00000 -2.527
53.02000 3.551
53.04000 2.721
53.06000 0.945
53.08000 0.743
53.10000 2.006
53.12000 5.223
53.14000 3.182
53.16000 4.829
53.18000 -0.356
53.20000 0.067
53.22000 3.779
53.24000 0.404
53.26000 4.341
53.28000 2.721
53.30000 2.350
53.32000 5.410
53.34000 7.077
53.36000 3.072
53.38000 2.939
53.40000 0.910
53.42000 1.275
53.44000 3.190
53.46000 3.194
53.48000 2.673
53.50000 3.705
53.52000 6.259
53.54000 7.917
53.56000 8.347
53.58000 4.862
53.60000 1.306
53.62000 4.488
53.64000 7.204
53.66000 5.319
53.68000 3.713
53.70000 5.230
53.72000 6.106
53.74000 2.794
53.76000 3.237
53.78000 3.749
53.80000 2.457
53.82000 5.957
53.84000 8.093
53.86000 6.850
53.88000 8.485
53.90000 10.067
53.92000 5.818
53.94000 4.703
53.96000 5.068
53.98000 0.991
54.00000 -1.693
54.02000 -2.465
54.04000 1.512
54.06000 3.103
54.08000 4.605
54.10000 4.843
54.12000 2.501
54.14000 2.522
54.16000 4.958
54.18000 0.872
54.20000 1.424
54.22000 4.790
54.24000 8.216
54.26000 6.391
54.28000 6.931
54.30000 4.475
54.32000 2.375
54.34000 2.734
54.36000 1.410
54.38000 3.554
54.40000 2.637
54.42000 0.542
54.44000 3.031
54.46000 4.232
54.48000 3.158
54.50000 4.331
54.52000 5.630
54.54000 2.115
54.56000 5.913
54.58000 5.474
54.60000 3.220
54.62000 0.853
54.64000 2.904
54.66000 3.204
54.68000 6.792
54.70000 2.757
54.72000 4.835
54.74000 7.479
54.76000 3.348
54.78000 2.585
54.80000 3.580
54.82000 3.954
54.84000 2.135
54.86000 2.919
54.88000 3.911
54.90000 4.610
54.92000 3.360
54.94000 1.663
54.96000 3.408
54.98000 3.934
55.00000 4.272
55.02000 0.922
55.04000 -0.152
55.06000 1.171
55.08000 3.276
55.10000 3.691
55.12000 2.933
55.14000 2.645
55.16000 1.162
55.18000 -2.469
55.20000 0.120
55.22000 3.085
55.24000 1.901
55.26000 0.045
55.28000 3.390
55.30000 3.011
55.32000 -0.718
55.34000 -1.143
55.36000 2.310
55.38000 0.962
55.40000 0.709
55.42000 1.459
55.44000 2.931
55.46000 1.328
55.48000 -0.361
55.50000 2.267
55.52000 5.609
55.54000 5.677
55.56000 4.884
55.58000 3.756
55.60000 3.942
55.62000 0.251
55.64000 -0.756
55.66000 1.659
55.68000 3.585
55.70000 3.720
55.72000 4.275
55.74000 1.470
55.76000 3.569
55.78000 2.182
55.80000 -0.019
55.82000 1.273
55.84000 4.391
55.86000 4.351
55.88000 2.295
55.90000 1.818
55.92000 0.253
55.94000 2.112
55.96000 1.658
55.98000 7.678
56.00000 3.740
56.02000 3.589
56.04000 1.367
56.06000 2.828
56.08000 -0.984
56.10000 1.962
56.12000 5.210
56.14000 5.319
56.16000 1.620
56.18000 -2.156
56.20000 1.178
56.22000 3.186
56.24000 9.739
56.26000 4.252
56.28000 1.324
56.30000 2.010
56.32000 -1.877
56.34000 -0.462
56.36000 -0.041
56.38000 0.140
56.40000 -2.415
56.42000 1.318
56.44000 2.258
56.46000 1.778
56.48000 1.261
56.50000 2.683
56.52000 1.381
56.54000 1.510
56.56000 5.534
56.58000 4.140
56.60000 3.688
56.62000 5.753
56.64000 6.564
56.66000 5.418
56.68000 4.610
56.70000 4.536
56.72000 6.321
56.74000 1.967
56.76000 1.903
56.78000 2.352
56.80000 3.479
56.82000 3.893
56.84000 4.110
56.86000 3.173
56.88000 4.025
56.90000 1.702
56.92000 -2.057
56.94000 2.179
56.96000 2.807
56.98000 2.311
57.00000 -1.936
57.02000 0.307
57.04000 3.392
57.06000 2.968
57.08000 1.419
57.10000 1.973
57.12000 2.660
57.14000 2.610
57.16000 4.002
57.18000 4.005
57.20000 2.491
57.22000 1.522
57.24000 1.927
57.26000 1.785
57.28000 4.096
57.30000 1.941
57.32000 0.106
57.34000 -2.429
57.36000 -0.831
57.38000 -2.414
57.40000 1.173
57.42000 0.830
57.44000 -0.400
57.46000 0.650
57.48000 0.990
57.50000 0.206
57.52000 -1.119
57.54000 3.610
57.56000 4.581
57.58000 -0.128
57.60000 2.448
57.62000 0.541
57.64000 1.330
57.66000 3.948
57.68000 2.831
57.70000 3.695
57.72000 3.014
57.74000 6.420
57.76000 3.687
57.78000 1.838
57.80000 -0.101
57.82000 1.858
57.84000 1.050
57.86000 -1.113
57.88000 0.413
57.90000 1.292
57.92000 1.366
57.94000 0.437
57.96000 3.262
57.98000 -1.110
58.00000 -0.114
58.02000 1.566
58.04000 2.181
58.06000 -0.640
58.08000 0.111
58.10000 -1.851
58.12000 1.733
58.14000 1.209
58.16000 0.026
58.18000 1.995
58.20000 3.214
58.22000 4.408
58.24000 -1.938
58.26000 1.201
58.28000 4.507
58.30000 0.263
58.32000 -2.400
58.34000 -1.316
58.36000 2.169
58.38000 5.402
58.40000 1.472
58.42000 -0.872
58.44000 0.335
58.46000 1.089
58.48000 0.267
58.50000 2.090
58.52000 0.798
58.54000 1.390
58.56000 2.614
58.58000 1.147
58.60000 1.885
58.62000 1.693
58.64000 1.408
58.66000 2.613
58.68000 5.792
58.70000 2.692
58.72000 3.062
58.74000 5.844
58.76000 3.967
58.78000 4.205
58.80000 -0.355
58.82000 -2.371
58.84000 1.839
58.86000 1.458
58.88000 3.549
58.90000 1.800
58.92000 0.462
58.94000 0.378
58.96000 1.558
58.98000 1.341
59.00000 2.918
59.02000 2.094
59.04000 3.906
59.06000 3.303
59.08000 3.731
59.10000 2.957
59.12000 0.480
59.14000 3.855
59.16000 3.803
59.18000 1.930
59.20000 4.761
59.22000 7.496
59.24000 4.527
59.26000 0.773
59.28000 2.152
59.30000 2.811
59.32000 3.731
59.34000 3.163
59.36000 3.045
59.38000 3.509
59.40000 1.092
59.42000 -1.825
59.44000 -2.336
59.46000 2.009
59.48000 2.278
59.50000 7.365
59.52000 8.637
59.54000 4.292
59.56000 4.262
59.58000 1.981
59.60000 4.614
59.62000 2.882
59.64000 2.182
59.66000 2.381
59.68000 2.452
59.70000 0.024
59.72000 0.426
59.74000 0.768
59.76000 -0.076
59.78000 1.203
59.80000 6.533
59.82000 6.446
59.84000 5.861
59.86000 2.959
59.88000 0.460
59.90000 -1.176
59.92000 -0.785
59.94000 1.834
59.96000 4.855
59.98000 5.243
60.00000 4.173
60.02000 1.344
60.04000 0.655
60.06000 2.831
60.08000 6.080
60.10000 1.251
60.12000 -2.333
60.14000 0.380
60.16000 3.521
60.18000 1.783
60.20000 1.602
60.22000 1.882
60.24000 2.704
60.26000 2.583
60.28000 4.572
60.30000 3.163
60.32000 6.020
60.34000 5.185
60.36000 4.696
60.38000 4.386
60.40000 3.410
60.42000 3.444
60.44000 3.967
60.46000 2.106
60.48000 0.686
60.50000 3.561
60.52000 -0.966
60.54000 -0.291
60.56000 1.614
60.58000 2.024
60.60000 0.011
60.62000 0.868
60.64000 2.101
60.66000 1.804
60.68000 1.908
60.70000 0.691
60.72000 0.699
60.74000 1.170
60.76000 -0.108
60.78000 -0.776
60.80000 0.355
60.82000 -1.468
60.84000 0.345
60.86000 1.339
60.88000 5.019
60.90000 6.808
60.92000 3.138
60.94000 1.078
60.96000 -0.184
60.98000 1.670
61.00000 -0.374
61.02000 0.012
61.04000 -2.283
61.06000 -2.281
61.08000 -0.266
61.10000 4.169
61.12000 5.413
61.14000 4.279
61.16000 1.489
61.18000 0.911
61.20000 -0.108
61.22000 -1.855
61.24000 -1.077
61.26000 -0.521
61.28000 2.918
61.30000 2.112
61.32000 -2.281
61.34000 -0.117
61.36000 0.772
61.38000 -0.022
61.40000 -0.859
61.42000 1.814
61.44000 2.787
61.46000 0.980
61.48000 1.892
61.50000 5.744
61.52000 4.306
61.54000 0.389
61.56000 0.024
61.58000 3.735
61.60000 1.787
61.62000 2.544
61.64000 2.454
61.66000 0.041
61.68000 0.788
61.70000 1.323
61.72000 0.181
61.74000 1.717
61.76000 1.480
61.78000 1.792
61.80000 2.134
61.82000 3.051
61.84000 1.281
61.86000 2.207
61.88000 5.563
61.90000 5.999
61.92000 3.435
61.94000 4.277
61.96000 2.458
61.98000 5.004
62.00000 4.521
62.02000 0.390
62.04000 3.359
62.06000 5.662
62.08000 3.796
62.10000 1.323
62.12000 1.544
62.14000 0.844
62.16000 2.338
62.18000 1.034
62.20000 2.357
62.22000 1.459
62.24000 1.603
62.26000 2.672
62.28000 2.398
62.30000 2.949
62.32000 1.681
62.34000 0.086
62.36000 3.680
62.38000 2.565
62.40000 0.808
62.42000 -2.277
62.44000 -1.048
62.46000 1.306
62.48000 3.471
62.50000 4.008
62.52000 5.088
62.54000 0.181
62.56000 1.096
62.58000 0.657
62.60000 -0.306
62.62000 -2.269
62.64000 -0.985
62.66000 -2.268
62.68000 -1.259
62.70000 0.911
62.72000 1.954
62.74000 2.972
62.76000 2.985
62.78000 4.452
62.80000 2.874
62.82000 1.915
62.84000 0.028
62.86000 0.712
62.88000 1.626
62.90000 -0.295
62.92000 -1.486
62.94000 1.274
62.96000 4.590
62.98000 5.111
63.00000 2.149
63.02000 2.757
63.04000 2.918
63.06000 2.412
63.08000 3.302
63.10000 3.528
63.12000 4.799
63.14000 -1.411
63.16000 2.258
63.18000 -0.018
63.20000 1.333
63.22000 2.127
63.24000 3.705
63.26000 4.515
63.28000 5.075
63.30000 3.943
63.32000 3.814
63.34000 3.748
63.36000 0.789
63.38000 -2.243
63.40000 1.067
63.42000 2.003
63.44000 0.816
63.46000 -0.147
63.48000 1.465
63.50000 3.049
63.52000 3.475
63.54000 1.989
63.56000 2.737
63.58000 1.360
63.60000 2.594
63.62000 0.433
63.64000 1.108
63.66000 5.019
63.68000 2.307
63.70000 0.361
63.72000 -0.736
63.74000 -0.477
63.76000 0.360
63.78000 0.424
63.80000 2.590
63.82000 0.924
63.84000 2.208
63.86000 2.285
63.88000 5.161
63.90000 -0.499
63.92000 0.641
63.94000 2.301
63.96000 0.110
63.98000 -1.367
64.00000 1.041
64.02000 2.898
64.04000 3.380
64.06000 1.756
64.08000 1.988
64.10000 1.832
64.12000 0.789
64.14000 0.341
64.16000 2.735
64.18000 3.897
64.20000 0.624
64.22000 -1.260
64.24000 2.671
64.26000 5.085
64.28000 2.485
64.30000 0.976
64.32000 0.668
64.34000 -0.055
64.36000 -0.197
64.38000 0.870
64.40000 2.100
64.42000 2.311
64.44000 0.298
64.46000 2.590
64.48000 4.403
64.50000 0.040
64.52000 -0.938
64.54000 -1.285
64.56000 1.019
64.58000 -0.678
64.60000 -2.256
64.62000 1.150
64.64000 1.466
64.66000 3.391
64.68000 3.380
64.70000 2.895
64.72000 -0.119
64.74000 1.642
64.76000 5.175
64.78000 2.581
64.80000 1.765
64.82000 2.315
64.84000 3.047
64.86000 1.929
64.88000 0.536
64.90000 -0.213
64.92000 0.254
64.94000 0.608
64.96000 2.344
64.98000 2.529
65.00000 0.146
65.02000 -1.678
65.04000 1.376
65.06000 1.253
65.08000 2.784
65.10000 1.175
65.12000 1.030
65.14000 4.664
65.16000 5.074
65.18000 0.090
65.20000 -2.245
65.22000 -0.300
65.24000 0.383
65.26000 0.737
65.28000 1.077
65.30000 1.479
65.32000 2.344
65.34000 1.346
65.36000 3.642
65.38000 2.313
65.40000 2.710
65.42000 1.881
65.44000 2.212
65.46000 1.786
65.48000 0.928
65.50000 -2.234
65.52000 -2.099
65.54000 1.005
65.56000 -0.138
65.58000 0.245
65.60000 -0.736
65.62000 0.798
65.64000 2.614
65.66000 -0.208
65.68000 0.293
65.70000 0.372
65.72000 -0.287
65.74000 0.162
65.76000 0.917
65.78000 -0.055
65.80000 -0.159
65.82000 1.571
65.84000 -0.627
65.86000 1.382
65.88000 0.917
65.90000 -1.141
65.92000 -0.863
65.94000 4.292
65.96000 5.538
65.98000 3.937
66.00000 5.792
66.02000 5.358
66.04000 4.890
66.06000 2.334
66.08000 3.010
66.10000 3.053
66.12000 1.233
66.14000 -0.388
66.16000 -0.457
66.18000 -0.162
66.20000 1.325
66.22000 0.743
66.24000 0.149
66.26000 0.108
66.28000 -0.310
66.30000 -2.252
66.32000 -0.886
66.34000 -0.361
66.36000 -0.144
66.38000 2.545
66.40000 1.174
66.42000 -0.761
66.44000 -1.737
66.46000 2.104
66.48000 5.803
66.50000 4.995
66.52000 1.556
66.54000 -0.061
66.56000 0.764
66.58000 1.169
66.60000 2.050
66.62000 4.933
66.64000 4.015
66.66000 3.525
66.68000 1.249
66.70000 0.966
66.72000 1.555
66.74000 3.073
66.76000 0.006
66.78000 -1.092
66.80000 -0.776
66.82000 3.314
66.84000 3.640
66.86000 3.421
66.88000 5.034
66.90000 2.970
66.92000 4.233
66.94000 4.744
66.96000 4.314
66.98000 4.121
67.00000 3.228
67.02000 4.122
67.04000 3.180
67.06000 2.910
67.08000 7.174
67.10000 7.129
67.12000 5.249
67.14000 3.330
67.16000 5.100
67.18000 4.923
67.20000 5.371
67.22000 5.675
67.24000 6.492
67.26000 6.715
67.28000 6.693
67.30000 5.668
67.32000 8.437
67.34000 7.224
67.36000 7.616
67.38000 6.481
67.40000 9.860
67.42000 8.698
67.44000 7.637
67.46000 10.567
67.48000 7.077
67.50000 6.147
67.52000 6.509
67.54000 11.060
67.56000 12.076
67.58000 10.691
67.60000 10.012
67.62000 10.017
67.64000 9.072
67.66000 8.828
67.68000 9.832
67.70000 5.926
67.72000 7.628
67.74000 9.956
67.76000 9.084
67.78000 8.604
67.80000 7.952
67.82000 7.871
67.84000 7.544
67.86000 8.653
67.88000 7.025
67.90000 5.483
67.92000 4.495
67.94000 5.427
67.96000 6.271
67.98000 5.930
68.00000 6.274
68.02000 4.384
68.04000 7.487
68.06000 8.530
68.08000 6.264
68.10000 5.925
68.12000 3.005
68.14000 2.130
68.16000 4.023
68.18000 4.940
68.20000 3.821
68.22000 1.546
68.24000 1.790
68.26000 2.170
68.28000 1.850
68.30000 3.023
68.32000 0.299
68.34000 0.020
68.36000 3.629
68.38000 1.045
68.40000 1.955
68.42000 1.729
68.44000 1.711
68.46000 2.408
68.48000 2.103
68.50000 2.186
68.52000 0.843
68.54000 2.533
68.56000 1.091
68.58000 -1.846
68.60000 -1.953
68.62000 -2.163
68.64000 -1.132
68.66000 1.945
68.68000 0.723
68.70000 -0.849
68.72000 -0.284
68.74000 0.653
68.76000 0.824
68.78000 1.276
68.80000 1.313
68.82000 -1.166
68.84000 0.199
68.86000 -1.032
68.88000 -0.861
68.90000 -1.608
68.92000 1.233
68.94000 3.529
68.96000 -0.536
68.98000 -0.455
69.00000 0.009
69.02000 -1.767
69.04000 -1.997
69.06000 1.092
69.08000 2.176
69.10000 2.479
69.12000 -1.606
69.14000 0.898
69.16000 2.364
69.18000 1.734
69.20000 -0.888
69.22000 0.947
69.24000 0.609
69.26000 -1.806
69.28000 -0.505
69.30000 -1.889
69.32000 -1.589
69.34000 -0.713
69.36000 -2.119
69.38000 -0.883
69.40000 -0.626
69.42000 1.027
69.44000 0.593
69.46000 -0.675
69.48000 2.158
69.50000 1.804
69.52000 -1.358
69.54000 -0.857
69.56000 0.702
69.58000 2.172
69.60000 -1.147
69.62000 -1.657
69.64000 -0.595
69.66000 -1.765
69.68000 -1.055
69.70000 -1.882
69.72000 0.222
69.74000 1.612
69.76000 -1.756
69.78000 0.544
69.80000 -0.219
69.82000 0.038
69.84000 -1.047
69.86000 0.977
69.88000 2.731
69.90000 -0.959
69.92000 -0.209
69.94000 1.536
69.96000 1.653
69.98000 0.951
70.00000 -0.478
70.02000 -1.547
70.04000 -1.027
70.06000 0.262
70.08000 -0.384
70.10000 -0.982
70.12000 -2.065
70.14000 -0.184
70.16000 0.392
70.18000 1.262
70.20000 -0.139
70.22000 0.802
70.24000 1.962
70.26000 -0.970
70.28000 -1.849
70.30000 0.668
70.32000 3.914
70.34000 4.567
70.36000 1.190
70.38000 0.124
70.40000 -0.900
70.42000 -0.637
70.44000 1.446
70.46000 2.679
70.48000 2.574
70.50000 4.015
70.52000 3.142
70.54000 -0.651
70.56000 -0.564
70.58000 1.043
70.60000 0.335
70.62000 1.083
70.64000 2.166
70.66000 1.223
70.68000 -0.050
70.70000 -0.820
70.72000 1.903
70.74000 1.288
70.76000 -1.082
70.78000 1.706
70.80000 0.297
70.82000 1.506
70.84000 1.999
70.86000 0.485
70.88000 -1.433
70.90000 1.601
70.92000 2.981
70.94000 4.280
70.96000 4.797
70.98000 2.264
71.00000 -0.032
71.02000 0.506
71.04000 1.680
71.06000 -2.029
71.08000 -0.176
71.10000 1.067
71.12000 1.025
71.14000 5.010
71.16000 1.618
71.18000 -0.857
71.20000 -1.087
71.22000 -0.097
71.24000 -0.965
71.26000 -1.439
71.28000 0.201
71.30000 2.068
71.32000 0.294
71.34000 -0.946
71.36000 -0.195
71.38000 3.377
71.40000 2.031
71.42000 -0.689
71.44000 -1.061
71.46000 -2.026
71.48000 -1.411
71.50000 -0.450
71.52000 3.047
71.54000 0.959
71.56000 -0.650
71.58000 0.096
71.60000 -1.540
71.62000 0.322
71.64000 0.599
71.66000 2.059
71.68000 -0.153
71.70000 -0.127
71.72000 2.149
71.74000 -1.915
71.76000 -2.023
71.78000 2.232
71.80000 -0.015
71.82000 -1.584
71.84000 -0.237
71.86000 0.430
71.88000 -0.052
71.90000 0.569
71.92000 0.892
71.94000 2.142
71.96000 -0.842
71.98000 2.580
72.00000 0.508
72.02000 0.915
72.04000 2.607
72.06000 2.714
72.08000 0.603
72.10000 -1.036
72.12000 -0.185
72.14000 2.435
72.16000 4.544
72.18000 3.773
72.20000 4.734
72.22000 1.715
72.24000 -2.012
72.26000 -0.019
72.28000 1.842
72.30000 0.921
72.32000 1.145
72.34000 1.406
72.36000 1.827
72.38000 -0.369
72.40000 -0.660
72.42000 0.396
72.44000 -0.572
72.46000 -0.326
72.48000 -0.625
72.50000 -2.005
72.52000 -1.068
72.54000 -0.767
72.56000 1.069
72.58000 -0.522
72.60000 2.969
72.62000 2.304
72.64000 1.867
72.66000 1.576
72.68000 -0.410
72.70000 1.707
72.72000 -0.698
72.74000 -1.487
72.76000 -0.140
72.78000 1.381
72.80000 0.314
72.82000 -1.455
72.84000 -0.554
72.86000 0.544
72.88000 1.624
72.90000 3.845
72.92000 2.448
72.94000 1.057
72.96000 0.439
72.98000 0.810
73.00000 1.040
73.02000 -0.216
73.04000 1.893
73.06000 1.048
73.08000 1.369
73.10000 1.212
73.12000 0.335
73.14000 2.411
73.16000 -1.028
73.18000 1.485
73.20000 2.833
73.22000 2.875
73.24000 -0.947
73.26000 -0.925
73.28000 3.524
73.30000 5.162
73.32000 3.732
73.34000 2.023
73.36000 -0.520
73.38000 -0.046
73.40000 1.560
73.42000 -1.936
73.44000 -1.936
73.46000 4.650
73.48000 4.805
73.50000 2.550
73.52000 2.622
73.54000 2.904
73.56000 2.256
73.58000 3.819
73.60000 2.042
73.62000 0.324
73.64000 -0.615
73.66000 2.413
73.68000 2.071
73.70000 2.971
73.72000 1.056
73.74000 1.268
73.76000 1.740
73.78000 1.476
73.80000 1.613
73.82000 0.870
73.84000 -0.480
73.86000 -1.570
73.88000 0.373
73.90000 0.399
73.92000 3.216
73.94000 4.034
73.96000 2.088
73.98000 2.137
74.00000 1.469
74.02000 1.495
74.04000 0.646
74.06000 1.119
74.08000 1.811
74.10000 5.574
74.12000 2.135
74.14000 1.364
74.16000 1.683
74.18000 3.517
74.20000 1.835
74.22000 2.313
74.24000 -0.193
74.26000 0.429
74.28000 1.802
74.30000 -1.271
74.32000 1.052
74.34000 0.099
74.36000 -0.215
74.38000 1.252
74.40000 1.538
74.42000 -0.039
74.44000 0.510
74.46000 1.869
74.48000 2.128
74.50000 0.934
74.52000 -0.803
74.54000 -1.956
74.56000 -0.866
74.58000 1.088
74.60000 3.270
74.62000 3.463
74.64000 -1.529
74.66000 -0.990
74.68000 1.237
74.70000 2.610
74.72000 -0.293
74.74000 0.358
74.76000 0.053
74.78000 -0.067
74.80000 -0.636
74.82000 -0.955
74.84000 1.206
74.86000 0.254
74.88000 -0.723
74.90000 -1.582
74.92000 -1.975
74.94000 -0.399
74.96000 -1.743
74.98000 0.284
75.00000 -0.340
75.02000 0.802
75.04000 1.066
75.06000 -1.006
75.08000 -0.200
75.10000 0.546
75.12000 1.797
75.14000 5.608
75.16000 2.870
75.18000 -0.003
75.20000 2.404
75.22000 1.975
75.24000 -1.742
75.26000 1.433
75.28000 2.325
75.30000 1.560
75.32000 -1.284
75.34000 -1.407
75.36000 -0.973
75.38000 -0.575
75.40000 2.554
75.42000 1.853
75.44000 1.292
75.46000 0.825
75.48000 0.798
75.50000 1.254
75.52000 3.406
75.54000 0.850
75.56000 3.090
75.58000 0.525
75.60000 0.629
75.62000 0.938
75.64000 -0.272
75.66000 -0.853
75.68000 0.461
75.70000 1.734
75.72000 -0.645
75.74000 3.704
75.76000 0.514
75.78000 -1.972
75.80000 1.453
75.82000 1.602
75.84000 1.827
75.86000 -0.155
75.88000 -0.991
75.90000 0.359
75.92000 1.641
75.94000 3.117
75.96000 0.060
75.98000 -0.526
76.00000 -0.106
76.02000 -0.378
76.04000 2.129
76.06000 0.553
76.08000 1.334
76.10000 -0.755
76.12000 0.358
76.14000 2.383
76.16000 2.230
76.18000 0.617
76.20000 -1.987
76.22000 -0.542
76.24000 0.901
76.26000 0.019
76.28000 2.824
76.30000 2.983
76.32000 2.133
76.34000 1.630
76.36000 0.204
76.38000 -0.117
76.40000 2.336
76.42000 2.584
76.44000 3.657
76.46000 2.585
76.48000 0.244
76.50000 4.275
76.52000 4.548
76.54000 3.167
76.56000 0.830
76.58000 0.980
76.60000 -1.627
76.62000 1.099
76.64000 2.849
76.66000 1.643
76.68000 -0.557
76.70000 2.410
76.72000 2.748
76.74000 0.788
76.76000 -0.071
76.78000 0.719
76.80000 -0.293
76.82000 1.264
76.84000 0.211
76.86000 -0.870
76.88000 1.239
76.90000 1.277
76.92000 -0.629
76.94000 -0.034
76.96000 0.412
76.98000 2.063
77.00000 1.135
77.02000 -1.071
77.04000 3.680
77.06000 3.103
77.08000 -0.821
77.10000 1.250
77.12000 -0.147
77.14000 1.026
77.16000 1.096
77.18000 1.981
77.20000 1.700
77.22000 1.656
77.24000 2.410
77.26000 2.217
77.28000 3.870
77.30000 1.502
77.32000 3.371
77.34000 3.118
77.36000 3.171
77.38000 3.982
77.40000 2.428
77.42000 2.131
77.44000 3.266
77.46000 2.585
77.48000 2.086
77.50000 4.471
77.52000 8.219
77.54000 5.862
77.56000 1.138
77.58000 2.622
77.60000 2.503
77.62000 -1.968
77.64000 -0.422
77.66000 2.566
77.68000 2.755
77.70000 -0.487
77.72000 1.993
77.74000 1.602
77.76000 0.834
77.78000 1.376
77.80000 2.299
77.82000 0.209
77.84000 2.782
77.86000 5.723
77.88000 0.906
77.90000 0.413
77.92000 4.306
77.94000 2.700
77.96000 2.372
77.98000 1.065
78.00000 2.971
78.02000 2.939
78.04000 -1.063
78.06000 2.049
78.08000 5.253
78.10000 1.508
78.12000 0.866
78.14000 -0.881
78.16000 0.352
78.18000 4.243
78.20000 3.905
78.22000 3.634
78.24000 3.726
78.26000 1.072
78.28000 3.852
78.30000 5.267
78.32000 3.847
78.34000 2.681
78.36000 2.619
78.38000 2.583
78.40000 3.041
78.42000 1.351
78.44000 1.910
78.46000 2.282
78.48000 4.211
78.50000 4.227
78.52000 3.137
78.54000 2.149
78.56000 2.367
78.58000 2.642
78.60000 2.273
78.62000 -2.021
78.64000 -1.800
78.66000 -0.375
78.68000 0.724
78.70000 -0.225
78.72000 1.369
78.74000 3.157
78.76000 2.645
78.78000 -0.370
78.80000 -0.397
78.82000 2.035
78.84000 1.540
78.86000 2.615
78.88000 2.814
78.90000 4.052
78.92000 6.932
78.94000 3.128
78.96000 1.019
78.98000 1.846
79.00000 0.763
79.02000 0.877
79.04000 5.493
79.06000 4.141
79.08000 5.242
79.10000 7.959
79.12000 3.428
79.14000 0.537
79.16000 0.149
79.18000 2.132
79.20000 4.925
79.22000 1.232
79.24000 4.079
79.26000 4.528
79.28000 4.435
79.30000 5.576
79.32000 0.143
79.34000 -2.019
79.36000 2.851
79.38000 4.169
79.40000 6.086
79.42000 8.522
79.44000 4.712
79.46000 4.935
79.48000 3.051
79.50000 4.325
79.52000 6.992
79.54000 4.988
79.56000 2.603
79.58000 0.617
79.60000 2.775
79.62000 3.105
79.64000 1.599
79.66000 2.580
79.68000 2.371
79.70000 4.251
79.72000 6.374
79.74000 0.994
79.76000 0.892
79.78000 3.859
79.80000 1.407
79.82000 -0.348
79.84000 0.226
79.86000 0.818
79.88000 4.176
79.90000 6.092
79.92000 5.013
79.94000 3.883
79.96000 0.441
79.98000 1.604
80.00000 2.474
80.02000 2.546
80.04000 3.048
80.06000 2.034
80.08000 3.064
80.10000 2.762
80.12000 5.118
80.14000 4.591
80.16000 4.600
80.18000 3.705
80.20000 4.283
80.22000 4.219
80.24000 2.298
80.26000 3.749
80.28000 8.286
80.30000 8.393
80.32000 6.091
80.34000 10.115
80.36000 9.476
80.38000 8.670
80.40000 5.763
80.42000 4.450
80.44000 2.843
80.46000 7.326
80.48000 7.383
80.50000 9.972
80.52000 10.977
80.54000 5.692
80.56000 7.434
80.58000 12.191
80.60000 11.401
80.62000 12.286
80.64000 13.637
80.66000 7.965
80.68000 7.169
80.70000 8.903
80.72000 11.699
80.74000 11.527
80.76000 12.486
80.78000 11.429
80.80000 13.960
80.82000 15.614
80.84000 13.852
80.86000 14.306
80.88000 16.510
80.90000 17.136
80.92000 18.276
80.94000 18.950
80.96000 19.665
80.98000 16.541
81.00000 16.868
81.02000 16.784
81.04000 19.961
81.06000 21.989
81.08000 22.543
81.10000 22.308
81.12000 22.318
81.14000 22.340
81.16000 23.024
81.18000 26.206
81.20000 24.249
81.22000 24.372
81.24000 21.844
81.26000 18.043
81.28000 26.182
81.30000 23.118
81.32000 22.738
81.34000 23.447
81.36000 23.540
81.38000 21.000
81.40000 25.288
81.42000 30.091
81.44000 26.070
81.46000 23.863
81.48000 23.473
81.50000 24.115
81.52000 22.329
81.54000 24.843
81.56000 29.386
81.58000 27.289
81.60000 29.595
81.62000 28.963
81.64000 27.847
81.66000 24.685
81.68000 24.749
81.70000 24.527
81.72000 22.890
81.74000 20.531
81.76000 16.373
81.78000 18.031
81.80000 19.963
81.82000 17.637
81.84000 13.534
81.86000 13.910
81.88000 9.973
81.90000 14.048
81.92000 11.983
81.94000 13.272
81.96000 14.125
81.98000 14.296
82.00000 8.914
82.02000 11.261
82.04000 12.528
82.06000 9.927
82.08000 15.765
82.10000 15.925
82.12000 8.575
82.14000 6.243
82.16000 8.423
82.18000 11.020
82.20000 8.433
82.22000 6.598
82.24000 3.560
82.26000 4.754
82.28000 4.341
82.30000 3.123
82.32000 2.249
82.34000 5.028
82.36000 5.715
82.38000 4.596
82.40000 5.334
82.42000 0.802
82.44000 -1.457
82.46000 3.443
82.48000 3.495
82.50000 3.191
82.52000 3.048
82.54000 4.142
82.56000 3.287
82.58000 4.128
82.60000 1.056
82.62000 1.050
82.64000 0.558
82.66000 3.633
82.68000 4.295
82.70000 3.121
82.72000 1.343
82.74000 0.651
82.76000 2.710
82.78000 0.122
82.80000 -1.044
82.82000 -0.068
82.84000 -0.268
82.86000 0.063
82.88000 1.957
82.90000 -1.120
82.92000 -0.034
82.94000 -2.195
82.96000 -0.440
82.98000 -1.667
83.00000 0.670
83.02000 4.811
83.04000 1.808
83.06000 1.679
83.08000 0.646
83.10000 -0.025
83.12000 -0.246
83.14000 0.699
83.16000 1.015
83.18000 -0.804
83.20000 1.350
83.22000 -0.492
83.24000 0.846
83.26000 0.314
83.28000 0.594
83.30000 0.395
83.32000 0.399
83.34000 -0.450
83.36000 2.978
83.38000 5.127
83.40000 7.877
83.42000 5.442
83.44000 0.220
83.46000 -0.763
83.48000 2.422
83.50000 4.263
83.52000 0.866
83.54000 -2.120
83.56000 -0.548
83.58000 4.774
83.60000 7.420
83.62000 3.986
83.64000 6.238
83.66000 3.440
83.68000 3.569
83.70000 3.875
83.72000 2.478
83.74000 1.664
83.76000 -0.098
83.78000 2.494
83.80000 2.310
83.82000 3.989
83.84000 2.175
83.86000 5.562
83.88000 5.327
83.90000 3.795
83.92000 4.723
83.94000 1.254
83.96000 0.535
83.98000 0.151
84.00000 3.036
84.02000 6.989
84.04000 3.646
84.06000 3.644
84.08000 2.054
84.10000 0.279
84.12000 3.822
84.14000 4.113
84.16000 2.497
84.18000 4.806
84.20000 3.171
84.22000 3.351
84.24000 5.085
84.26000 3.074
84.28000 6.590
84.30000 6.324
84.32000 6.763
84.34000 7.357
84.36000 9.799
84.38000 10.728
84.40000 8.047
84.42000 6.648
84.44000 8.118
84.46000 13.043
84.48000 9.500
84.50000 9.150
84.52000 14.413
84.54000 14.289
84.56000 12.732
84.58000 13.253
84.60000 16.292
84.62000 12.561
84.64000 11.590
84.66000 15.754
84.68000 18.257
84.70000 19.872
84.72000 20.438
84.74000 17.601
84.76000 21.066
84.78000 21.063
84.80000 19.042
84.82000 15.826
84.84000 18.347
84.86000 26.386
84.88000 27.599
84.90000 22.922
84.92000 26.332
84.94000 23.159
84.96000 25.264
84.98000 28.576
85.00000 31.015
85.02000 31.264
85.04000 30.342
85.06000 30.984
85.08000 30.434
85.10000 32.342
85.12000 29.267
85.14000 29.661
85.16000 29.661
85.18000 31.375
85.20000 35.227
85.22000 39.877
85.24000 34.151
85.26000 35.393
85.28000 36.131
85.30000 36.647
85.32000 37.155
85.34000 35.638
85.36000 38.520
85.38000 37.400
85.40000 33.504
85.42000 32.864
85.44000 32.560
85.46000 33.193
85.48000 31.767
85.50000 28.347
85.52000 29.860
85.54000 33.128
85.56000 32.507
85.58000 34.633
85.60000 31.874
85.62000 29.475
85.64000 29.795
85.66000 33.673
85.68000 35.202
85.70000 33.210
85.72000 29.868
85.74000 28.686
85.76000 30.109
85.78000 24.757
85.80000 26.364
85.82000 23.920
85.84000 23.391
85.86000 24.569
85.88000 24.682
85.90000 23.189
85.92000 20.327
85.94000 17.654
85.96000 17.112
85.98000 16.019
86.00000 13.708
86.02000 12.465
86.04000 12.230
86.06000 14.521
86.08000 13.936
86.10000 12.282
86.12000 12.543
86.14000 12.670
86.16000 12.059
86.18000 14.859
86.20000 11.520
86.22000 7.697
86.24000 5.607
86.26000 6.758
86.28000 6.339
86.30000 8.077
86.32000 6.776
86.34000 9.034
86.36000 8.211
86.38000 6.235
86.40000 5.321
86.42000 4.566
86.44000 5.848
86.46000 7.814
86.48000 7.547
86.50000 3.080
86.52000 6.999
86.54000 4.707
86.56000 2.336
86.58000 3.896
86.60000 3.531
86.62000 2.486
86.64000 2.520
86.66000 0.042
86.68000 1.330
86.70000 3.233
86.72000 4.359
86.74000 4.445
86.76000 3.210
86.78000 -1.974
86.80000 -1.635
86.82000 1.749
86.84000 0.613
86.86000 -1.964
86.88000 0.438
86.90000 4.080
86.92000 3.788
86.94000 2.073
86.96000 4.303
86.98000 0.944
87.00000 5.204
87.02000 2.413
87.04000 0.514
87.06000 -0.957
87.08000 0.006
87.10000 4.047
87.12000 0.444
87.14000 2.376
87.16000 3.703
87.18000 0.238
87.20000 0.382
87.22000 -0.854
87.24000 0.229
87.26000 -0.800
87.28000 -0.963
87.30000 2.135
87.32000 1.111
87.34000 1.781
87.36000 -0.956
87.38000 -1.917
87.40000 -1.154
87.42000 1.306
87.44000 4.035
87.46000 1.032
87.48000 2.587
87.50000 1.184
87.52000 0.854
87.54000 0.369
87.56000 1.509
87.58000 -0.978
87.60000 -1.411
87.62000 -0.839
87.64000 1.199
87.66000 3.583
87.68000 5.118
87.70000 2.879
87.72000 1.597
87.74000 1.615
87.76000 1.817
87.78000 3.202
87.80000 2.029
87.82000 -1.168
87.84000 -0.276
87.86000 2.459
87.88000 1.796
87.90000 -0.082
87.92000 2.385
87.94000 0.590
87.96000 -1.882
87.98000 2.933
88.00000 4.889
88.02000 2.872
88.04000 1.089
88.06000 3.818
88.08000 2.370
88.10000 0.788
88.12000 1.692
88.14000 1.619
88.16000 0.567
88.18000 0.591
88.20000 -0.474
88.22000 -1.867
88.24000 0.059
88.26000 1.760
88.28000 2.941
88.30000 5.573
88.32000 5.628
88.34000 3.429
88.36000 1.082
88.38000 1.757
88.40000 2.899
88.42000 2.155
88.44000 4.774
88.46000 3.234
88.48000 -1.113
88.50000 0.126
88.52000 2.250
88.54000 1.767
88.56000 0.735
88.58000 2.187
88.60000 -0.012
88.62000 -0.550
88.64000 2.021
88.66000 2.170
88.68000 0.361
88.70000 -1.395
88.72000 -1.779
88.74000 0.094
88.76000 -0.668
88.78000 -1.867
88.80000 -0.596
88.82000 0.600
88.84000 0.394
88.86000 -0.966
88.88000 -1.507
88.90000 0.311
88.92000 0.295
88.94000 4.045
88.96000 3.170
88.98000 -0.001
89.00000 -1.263
89.02000 2.291
89.04000 3.992
89.06000 3.615
89.08000 4.409
89.10000 2.295
89.12000 -0.734
89.14000 -0.071
89.16000 1.604
89.18000 0.353
89.20000 0.224
89.22000 0.564
89.24000 -0.114
89.26000 -0.570
89.28000 0.655
89.30000 3.157
89.32000 3.462
89.34000 3.066
89.36000 1.082
89.38000 4.252
89.40000 6.362
89.42000 2.020
89.44000 4.186
89.46000 2.874
89.48000 2.196
89.50000 -1.861
89.52000 -1.424
89.54000 -1.686
89.56000 3.231
89.58000 0.564
89.60000 -1.811
89.62000 -0.229
89.64000 5.197
89.66000 1.272
89.68000 -0.913
89.70000 -0.264
89.72000 0.138
89.74000 1.588
89.76000 -0.720
89.78000 0.680
89.80000 2.333
89.82000 1.339
89.84000 0.710
89.86000 1.538
89.88000 0.823
89.90000 1.762
89.92000 -1.860
89.94000 -0.198
89.96000 2.131
89.98000 1.481
90.00000 0.336
90.02000 0.496
90.04000 1.574
90.06000 2.298
90.08000 1.655
90.10000 1.425
90.12000 -1.211
90.14000 -0.309
90.16000 -0.554
90.18000 -0.434
90.20000 -1.054
90.22000 0.561
90.24000 0.622
90.26000 -1.233
90.28000 1.911
90.30000 2.908
90.32000 -0.510
90.34000 4.489
90.36000 9.945
90.38000 4.129
90.40000 3.010
90.42000 4.137
90.44000 4.385
90.46000 0.329
90.48000 1.522
90.50000 0.227
90.52000 -0.081
90.54000 0.288
90.56000 0.160
90.58000 0.907
90.60000 2.296
90.62000 3.603
90.64000 1.906
90.66000 4.341
90.68000 2.911
90.70000 2.477
90.72000 2.559
90.74000 2.752
90.76000 3.635
90.78000 4.603
90.80000 4.492
90.82000 1.677
90.84000 -1.749
90.86000 -1.829
90.88000 0.186
90.90000 3.062
90.92000 3.896
90.94000 1.576
90.96000 4.336
90.98000 2.594
91.00000 2.589
91.02000 3.073
91.04000 4.737
91.06000 4.521
91.08000 2.713
91.10000 2.686
91.12000 2.016
91.14000 4.584
91.16000 4.831
91.18000 3.724
91.20000 1.701
91.22000 1.617
91.24000 0.664
91.26000 -1.789
91.28000 -0.507
91.30000 3.458
91.32000 0.554
91.34000 0.756
91.36000 1.492
91.38000 4.518
91.40000 1.916
91.42000 1.958
91.44000 3.224
91.46000 3.483
91.48000 3.502
91.50000 4.166
91.52000 1.739
91.54000 -0.217
91.56000 -1.834
91.58000 0.594
91.60000 1.622
91.62000 0.374
91.64000 -1.165
91.66000 0.681
91.68000 7.802
91.70000 6.107
91.72000 2.494
91.74000 2.471
91.76000 2.417
91.78000 1.928
91.80000 4.699
91.82000 5.299
91.84000 4.540
91.86000 -0.422
91.88000 1.722
91.90000 0.394
91.92000 0.111
91.94000 0.770
91.96000 1.208
91.98000 2.772
92.00000 2.734
92.02000 0.013
92.04000 -0.277
92.06000 1.597
92.08000 -0.219
92.10000 1.494
92.12000 0.588
92.14000 -0.988
92.16000 -0.251
92.18000 -0.282
92.20000 -0.671
92.22000 3.182
92.24000 3.265
92.26000 1.506
92.28000 -0.820
92.30000 -0.260
92.32000 1.239
92.34000 2.689
92.36000 3.583
92.38000 5.446
92.40000 2.843
92.42000 3.143
92.44000 1.925
92.46000 0.442
92.48000 2.145
92.50000 4.567
92.52000 -0.410
92.54000 0.885
92.56000 -0.005
92.58000 0.381
92.60000 0.067
92.62000 1.194
92.64000 2.543
92.66000 -0.504
92.68000 0.636
92.70000 3.162
92.72000 3.069
92.74000 4.253
92.76000 2.235
92.78000 1.943
92.80000 2.635
92.82000 1.767
92.84000 2.417
92.86000 0.859
92.88000 1.901
92.90000 2.707
92.92000 4.411
92.94000 1.060
92.96000 -1.213
92.98000 -1.843
93.00000 1.670
93.02000 4.845
93.04000 4.417
93.06000 2.755
93.08000 3.841
93.10000 2.000
93.12000 -0.988
93.14000 1.883
93.16000 4.279
93.18000 4.978
93.20000 1.829
93.22000 5.093
93.24000 5.235
93.26000 4.138
93.28000 5.413
93.30000 5.123
93.32000 2.985
93.34000 3.030
93.36000 3.815
93.38000 3.473
93.40000 3.624
93.42000 3.859
93.44000 2.877
93.46000 1.248
93.48000 4.058
93.50000 4.932
93.52000 5.026
93.54000 4.729
93.56000 4.017
93.58000 5.540
93.60000 5.476
93.62000 5.682
93.64000 3.923
93.66000 3.001
93.68000 4.202
93.70000 5.769
93.72000 6.504
93.74000 1.190
93.76000 -1.793
93.78000 3.072
93.80000 5.133
93.82000 4.070
93.84000 4.050
93.86000 3.654
93.88000 3.321
93.90000 3.469
93.92000 1.773
93.94000 0.438
93.96000 1.297
93.98000 5.607
94.00000 3.216
94.02000 3.118
94.04000 4.174
94.06000 5.215
94.08000 -0.489
94.10000 2.930
94.12000 3.345
94.14000 3.172
94.16000 3.526
94.18000 0.095
94.20000 3.333
94.22000 3.739
94.24000 1.186
94.26000 3.082
94.28000 0.339
94.30000 0.068
94.32000 -0.596
94.34000 2.276
94.36000 2.854
94.38000 0.713
94.40000 3.577
94.42000 3.992
94.44000 0.918
94.46000 1.730
94.48000 4.386
94.50000 1.204
94.52000 0.522
94.54000 1.379
94.56000 0.723
94.58000 1.292
94.60000 4.335
94.62000 4.218
94.64000 -0.003
94.66000 -1.722
94.68000 -0.359
94.70000 -0.063
94.72000 -0.555
94.74000 2.755
94.76000 5.836
94.78000 2.760
94.80000 1.017
94.82000 -1.070
94.84000 2.346
94.86000 0.304
94.88000 0.834
94.90000 2.515
94.92000 0.671
94.94000 -0.733
94.96000 0.336
94.98000 0.739
95.00000 0.465
95.02000 -0.682
95.04000 6.546
95.06000 1.674
95.08000 4.439
95.10000 1.705
95.12000 -1.503
95.14000 0.150
95.16000 1.646
95.18000 1.284
95.20000 2.289
95.22000 -1.293
95.24000 -1.907
95.26000 -0.577
95.28000 0.304
95.30000 2.533
95.32000 4.924
95.34000 2.559
95.36000 1.127
95.38000 2.236
95.40000 4.710
95.42000 2.522
95.44000 1.591
95.46000 1.757
95.48000 0.971
95.50000 2.634
95.52000 4.177
95.54000 3.833
95.56000 0.440
95.58000 0.902
95.60000 -0.317
95.62000 0.169
95.64000 -1.019
95.66000 -0.313
95.68000 0.697
95.70000 -1.308
95.72000 3.399
95.74000 2.222
95.76000 1.163
95.78000 1.069
95.80000 -0.593
95.82000 1.632
95.84000 1.562
95.86000 1.868
95.88000 -0.621
95.90000 1.540
95.92000 -1.892
95.94000 2.402
95.96000 1.252
95.98000 1.685
96.00000 -1.464
96.02000 -0.791
96.04000 4.434
96.06000 4.063
96.08000 7.936
96.10000 3.159
96.12000 2.464
96.14000 -1.495
96.16000 -1.332
96.18000 0.726
96.20000 5.253
96.22000 7.580
96.24000 0.528
96.26000 0.667
96.28000 5.250
96.30000 6.820
96.32000 0.837
96.34000 -0.081
96.36000 -0.607
96.38000 1.568
96.40000 6.899
96.42000 8.414
96.44000 7.119
96.46000 1.449
96.48000 0.395
96.50000 -1.793
96.52000 -1.074
96.54000 -1.237
96.56000 -1.629
96.58000 1.554
96.60000 3.539
96.62000 2.698
96.64000 1.800
96.66000 2.014
96.68000 1.789
96.70000 0.562
96.72000 0.699
96.74000 -0.011
96.76000 0.685
96.78000 -0.086
96.80000 1.051
96.82000 -1.150
96.84000 0.831
96.86000 8.760
96.88000 5.406
96.90000 0.138
96.92000 1.481
96.94000 5.657
96.96000 -0.346
96.98000 3.556
97.00000 -1.847
97.02000 0.786
97.04000 1.862
97.06000 0.972
97.08000 -0.468
97.10000 0.723
97.12000 1.685
97.14000 3.937
97.16000 3.979
97.18000 3.357
97.20000 3.459
97.22000 1.602
97.24000 5.955
97.26000 3.439
97.28000 1.958
97.30000 4.078
97.32000 0.272
97.34000 1.590
97.36000 3.762
97.38000 4.445
97.40000 4.301
97.42000 4.622
97.44000 0.684
97.46000 -0.175
97.48000 0.736
97.50000 5.205
97.52000 5.462
97.54000 3.777
97.56000 2.924
97.58000 5.945
97.60000 1.618
97.62000 2.200
97.64000 3.723
97.66000 5.508
97.68000 5.103
97.70000 5.264
97.72000 6.748
97.74000 0.831
97.76000 0.083
97.78000 -0.773
97.80000 0.881
97.82000 2.224
97.84000 4.110
97.86000 2.374
97.88000 4.500
97.90000 5.936
97.92000 4.927
97.94000 1.014
97.96000 -1.847
97.98000 0.170
98.00000 -1.031
98.02000 3.015
98.04000 5.574
98.06000 4.628
98.08000 0.925
98.10000 1.543
98.12000 2.572
98.14000 0.197
98.16000 -1.838
98.18000 2.242
98.20000 1.092
98.22000 3.620
98.24000 4.340
98.26000 2.119
98.28000 0.934
98.30000 5.002
98.32000 4.427
98.34000 5.183
98.36000 2.386
98.38000 5.558
98.40000 4.988
98.42000 -0.978
98.44000 2.658
98.46000 3.889
98.48000 6.301
98.50000 6.724
98.52000 5.760
98.54000 6.319
98.56000 0.205
98.58000 3.756
98.60000 3.723
98.62000 4.209
98.64000 5.826
98.66000 11.522
98.68000 7.810
98.70000 7.579
98.72000 0.640
98.74000 -1.470
98.76000 3.308
98.78000 7.379
98.80000 0.329
98.82000 5.294
98.84000 5.487
98.86000 3.702
98.88000 3.091
98.90000 3.226
98.92000 3.499
98.94000 -0.604
98.96000 7.910
98.98000 6.402
99.00000 4.645
99.02000 3.966
99.04000 1.026
99.06000 0.047
99.08000 6.229
99.10000 5.291
99.12000 8.163
99.14000 4.242
99.16000 3.133
99.18000 1.106
99.20000 4.320
99.22000 8.290
99.24000 9.799
99.26000 13.559
99.28000 7.385
99.30000 5.327
99.32000 0.848
99.34000 2.745
99.36000 5.079
99.38000 3.967
99.40000 3.871
99.42000 13.080
99.44000 6.322
99.46000 8.192
99.48000 6.459
99.50000 3.446
99.52000 3.929
99.54000 7.594
99.56000 3.339
99.58000 -1.748
99.60000 1.978
99.62000 9.537
99.64000 9.223
99.66000 7.967
99.68000 5.272
99.70000 5.220
99.72000 -1.360
99.74000 5.718
99.76000 8.597
99.78000 9.712
99.80000 9.628
99.82000 5.765
99.84000 4.874
99.86000 2.411
99.88000 -1.868
99.90000 5.726
99.92000 -0.137
99.94000 9.239
99.96000 2.729
99.98000 0.000
