'Id: "0011388" Comment: "Integrate frame 0011388_Au-Ir-Rh_Rh-rich_XRD-Mapping-213-0000.gfrmwith cursor Wedge Cursor #5" Operator: "B?rgel" Anode: "Cu" Wavelength: "1.5406" Scantype: "2Theta (TwoTheta)" TimePerStep: "1" X: "18" Y: "9" Z: "5.95" 
10.00000 0.000
10.02000 -3.823
10.04000 3.188
10.06000 1.489
10.08000 4.897
10.10000 3.839
10.12000 6.329
10.14000 9.583
10.16000 -2.113
10.18000 -0.309
10.20000 3.731
10.22000 5.702
10.24000 5.547
10.26000 7.951
10.28000 22.755
10.30000 6.299
10.32000 -3.789
10.34000 2.624
10.36000 3.681
10.38000 20.500
10.40000 14.839
10.42000 12.496
10.44000 8.188
10.46000 11.034
10.48000 17.972
10.50000 13.386
10.52000 6.654
10.54000 11.842
10.56000 26.801
10.58000 9.349
10.60000 10.036
10.62000 18.604
10.64000 12.050
10.66000 11.727
10.68000 -0.584
10.70000 -1.104
10.72000 13.817
10.74000 28.843
10.76000 18.349
10.78000 21.411
10.80000 10.024
10.82000 11.008
10.84000 13.975
10.86000 13.586
10.88000 24.311
10.90000 34.810
10.92000 26.682
10.94000 15.684
10.96000 15.257
10.98000 11.679
11.00000 -1.746
11.02000 -1.053
11.04000 23.862
11.06000 14.764
11.08000 16.246
11.10000 19.792
11.12000 14.331
11.14000 20.482
11.16000 29.566
11.18000 24.570
11.20000 3.597
11.22000 4.747
11.24000 7.703
11.26000 18.467
11.28000 13.377
11.30000 18.915
11.32000 16.342
11.34000 12.072
11.36000 10.955
11.38000 19.356
11.40000 26.730
11.42000 23.582
11.44000 20.735
11.46000 24.509
11.48000 19.139
11.50000 16.197
11.52000 21.730
11.54000 21.639
11.56000 30.264
11.58000 33.063
11.60000 26.149
11.62000 31.641
11.64000 24.710
11.66000 16.751
11.68000 19.971
11.70000 17.177
11.72000 15.444
11.74000 23.575
11.76000 23.858
11.78000 25.782
11.80000 22.665
11.82000 16.273
11.84000 27.348
11.86000 30.019
11.88000 29.977
11.90000 24.599
11.92000 18.487
11.94000 17.104
11.96000 21.373
11.98000 21.386
12.00000 25.207
12.02000 25.329
12.04000 23.616
12.06000 27.814
12.08000 25.143
12.10000 24.056
12.12000 25.204
12.14000 28.597
12.16000 29.228
12.18000 21.971
12.20000 18.997
12.22000 19.494
12.24000 15.373
12.26000 15.324
12.28000 20.225
12.30000 17.741
12.32000 24.278
12.34000 25.010
12.36000 22.147
12.38000 13.511
12.40000 15.204
12.42000 25.447
12.44000 27.307
12.46000 22.125
12.48000 18.815
12.50000 24.238
12.52000 31.495
12.54000 18.280
12.56000 20.124
12.58000 33.995
12.60000 31.810
12.62000 29.165
12.64000 29.730
12.66000 33.862
12.68000 30.675
12.70000 22.144
12.72000 24.035
12.74000 28.006
12.76000 26.258
12.78000 17.641
12.80000 8.632
12.82000 11.405
12.84000 21.129
12.86000 28.491
12.88000 27.556
12.90000 21.572
12.92000 21.944
12.94000 25.893
12.96000 19.238
12.98000 7.986
13.00000 11.296
13.02000 17.305
13.04000 21.829
13.06000 20.523
13.08000 25.023
13.10000 21.933
13.12000 14.017
13.14000 17.439
13.16000 25.115
13.18000 19.684
13.20000 17.297
13.22000 30.504
13.24000 32.968
13.26000 34.310
13.28000 25.755
13.30000 29.846
13.32000 20.251
13.34000 24.557
13.36000 15.035
13.38000 25.688
13.40000 27.665
13.42000 19.805
13.44000 25.976
13.46000 19.974
13.48000 15.883
13.50000 21.751
13.52000 26.096
13.54000 21.084
13.56000 22.751
13.58000 25.271
13.60000 30.184
13.62000 25.520
13.64000 22.037
13.66000 18.531
13.68000 12.232
13.70000 17.088
13.72000 19.983
13.74000 14.538
13.76000 10.104
13.78000 7.768
13.80000 12.731
13.82000 9.178
13.84000 15.899
13.86000 28.551
13.88000 28.474
13.90000 25.964
13.92000 27.722
13.94000 20.709
13.96000 24.411
13.98000 16.817
14.00000 8.860
14.02000 20.707
14.04000 30.183
14.06000 23.474
14.08000 12.998
14.10000 18.495
14.12000 16.408
14.14000 17.013
14.16000 24.878
14.18000 22.487
14.20000 18.503
14.22000 19.883
14.24000 20.072
14.26000 12.691
14.28000 19.580
14.30000 19.922
14.32000 22.464
14.34000 17.150
14.36000 12.339
14.38000 15.682
14.40000 14.248
14.42000 12.401
14.44000 7.979
14.46000 12.462
14.48000 8.139
14.50000 11.024
14.52000 20.009
14.54000 13.070
14.56000 17.298
14.58000 14.826
14.60000 8.900
14.62000 4.148
14.64000 14.662
14.66000 19.122
14.68000 19.609
14.70000 17.228
14.72000 17.412
14.74000 19.256
14.76000 11.616
14.78000 5.323
14.80000 8.241
14.82000 11.929
14.84000 8.956
14.86000 5.535
14.88000 6.877
14.90000 16.168
14.92000 18.337
14.94000 17.701
14.96000 12.783
14.98000 6.817
15.00000 15.189
15.02000 18.001
15.04000 13.842
15.06000 14.197
15.08000 17.978
15.10000 10.891
15.12000 11.076
15.14000 21.337
15.16000 21.899
15.18000 14.979
15.20000 23.942
15.22000 12.715
15.24000 5.736
15.26000 9.805
15.28000 7.225
15.30000 6.340
15.32000 16.230
15.34000 15.053
15.36000 17.103
15.38000 8.155
15.40000 8.196
15.42000 7.234
15.44000 18.918
15.46000 16.980
15.48000 8.770
15.50000 9.987
15.52000 11.560
15.54000 4.478
15.56000 9.909
15.58000 1.998
15.60000 1.402
15.62000 8.134
15.64000 12.997
15.66000 2.733
15.68000 2.401
15.70000 -3.444
15.72000 -0.105
15.74000 8.324
15.76000 12.271
15.78000 12.339
15.80000 12.194
15.82000 6.029
15.84000 3.440
15.86000 3.158
15.88000 7.712
15.90000 6.045
15.92000 1.130
15.94000 5.441
15.96000 5.685
15.98000 -1.587
16.00000 5.372
16.02000 8.056
16.04000 5.608
16.06000 8.503
16.08000 2.853
16.10000 1.224
16.12000 10.253
16.14000 8.472
16.16000 -0.411
16.18000 3.371
16.20000 -3.113
16.22000 -1.042
16.24000 3.696
16.26000 5.388
16.28000 8.371
16.30000 4.105
16.32000 9.095
16.34000 10.019
16.36000 6.054
16.38000 2.034
16.40000 3.066
16.42000 8.073
16.44000 5.041
16.46000 5.546
16.48000 6.521
16.50000 6.655
16.52000 13.781
16.54000 6.579
16.56000 6.754
16.58000 0.729
16.60000 -0.605
16.62000 0.992
16.64000 0.104
16.66000 3.145
16.68000 8.480
16.70000 12.527
16.72000 5.830
16.74000 1.569
16.76000 8.522
16.78000 5.905
16.80000 10.977
16.82000 11.148
16.84000 7.974
16.86000 7.643
16.88000 6.769
16.90000 7.996
16.92000 8.311
16.94000 9.225
16.96000 8.841
16.98000 10.412
17.00000 11.324
17.02000 11.375
17.04000 5.045
17.06000 9.489
17.08000 2.633
17.10000 4.680
17.12000 15.668
17.14000 14.832
17.16000 9.805
17.18000 3.918
17.20000 4.854
17.22000 6.082
17.24000 4.070
17.26000 2.828
17.28000 -3.045
17.30000 1.260
17.32000 6.780
17.34000 9.838
17.36000 16.155
17.38000 14.746
17.40000 7.457
17.42000 10.787
17.44000 17.837
17.46000 16.963
17.48000 14.612
17.50000 18.195
17.52000 10.872
17.54000 5.069
17.56000 4.277
17.58000 9.385
17.60000 10.645
17.62000 8.375
17.64000 6.534
17.66000 5.961
17.68000 7.814
17.70000 6.001
17.72000 5.370
17.74000 7.654
17.76000 7.083
17.78000 6.519
17.80000 3.329
17.82000 -0.560
17.84000 2.311
17.86000 7.555
17.88000 2.060
17.90000 4.623
17.92000 4.138
17.94000 6.152
17.96000 5.591
17.98000 5.058
18.00000 4.759
18.02000 3.580
18.04000 -1.321
18.06000 -0.022
18.08000 5.635
18.10000 13.627
18.12000 17.185
18.14000 11.833
18.16000 4.203
18.18000 7.508
18.20000 6.343
18.22000 -1.415
18.24000 2.831
18.26000 1.490
18.28000 -1.986
18.30000 -4.311
18.32000 3.126
18.34000 6.574
18.36000 5.829
18.38000 5.943
18.40000 8.490
18.42000 10.841
18.44000 6.440
18.46000 6.586
18.48000 6.905
18.50000 5.011
18.52000 3.242
18.54000 3.534
18.56000 9.070
18.58000 9.360
18.60000 7.818
18.62000 -1.725
18.64000 6.023
18.66000 3.897
18.68000 5.466
18.70000 3.421
18.72000 4.237
18.74000 3.239
18.76000 2.465
18.78000 6.790
18.80000 8.308
18.82000 11.269
18.84000 8.896
18.86000 10.816
18.88000 5.640
18.90000 10.122
18.92000 5.985
18.94000 3.063
18.96000 7.773
18.98000 3.335
19.00000 7.074
19.02000 14.507
19.04000 9.832
19.06000 6.183
19.08000 -0.267
19.10000 7.109
19.12000 10.560
19.14000 9.958
19.16000 2.877
19.18000 5.835
19.20000 14.132
19.22000 10.976
19.24000 5.229
19.26000 4.669
19.28000 3.323
19.30000 8.291
19.32000 9.927
19.34000 7.917
19.36000 5.748
19.38000 4.871
19.40000 7.841
19.42000 7.374
19.44000 9.065
19.46000 6.871
19.48000 6.669
19.50000 4.303
19.52000 2.810
19.54000 2.572
19.56000 -3.977
19.58000 -4.267
19.60000 0.375
19.62000 3.531
19.64000 -0.011
19.66000 0.069
19.68000 -2.073
19.70000 0.181
19.72000 6.898
19.74000 -1.514
19.76000 -4.259
19.78000 4.176
19.80000 -1.079
19.82000 -3.097
19.84000 0.021
19.86000 -0.438
19.88000 -1.755
19.90000 3.413
19.92000 4.866
19.94000 1.069
19.96000 -1.775
19.98000 -1.499
20.00000 2.964
20.02000 4.445
20.04000 1.228
20.06000 -0.468
20.08000 4.163
20.10000 3.389
20.12000 -0.428
20.14000 6.693
20.16000 3.612
20.18000 3.713
20.20000 3.596
20.22000 -3.899
20.24000 -0.276
20.26000 11.451
20.28000 6.294
20.30000 4.498
20.32000 4.987
20.34000 3.691
20.36000 7.112
20.38000 4.873
20.40000 2.668
20.42000 1.738
20.44000 -3.595
20.46000 -3.461
20.48000 -3.751
20.50000 3.447
20.52000 3.082
20.54000 -4.187
20.56000 2.031
20.58000 7.367
20.60000 3.710
20.62000 6.417
20.64000 5.434
20.66000 6.198
20.68000 5.767
20.70000 1.124
20.72000 -4.228
20.74000 1.522
20.76000 -1.070
20.78000 2.183
20.80000 7.027
20.82000 8.543
20.84000 2.268
20.86000 -3.061
20.88000 2.927
20.90000 3.265
20.92000 0.177
20.94000 -3.800
20.96000 2.663
20.98000 0.150
21.00000 -0.858
21.02000 -0.809
21.04000 3.036
21.06000 5.792
21.08000 4.407
21.10000 3.385
21.12000 2.668
21.14000 0.903
21.16000 6.057
21.18000 4.358
21.20000 5.036
21.22000 6.493
21.24000 3.315
21.26000 1.020
21.28000 -0.301
21.30000 1.818
21.32000 3.837
21.34000 5.152
21.36000 7.322
21.38000 3.063
21.40000 1.246
21.42000 1.564
21.44000 6.792
21.46000 6.564
21.48000 5.843
21.50000 6.792
21.52000 8.466
21.54000 4.842
21.56000 7.061
21.58000 5.525
21.60000 2.118
21.62000 2.920
21.64000 4.501
21.66000 2.112
21.68000 0.961
21.70000 3.627
21.72000 -1.921
21.74000 -4.168
21.76000 1.835
21.78000 6.900
21.80000 2.206
21.82000 1.271
21.84000 4.313
21.86000 3.241
21.88000 2.233
21.90000 3.795
21.92000 7.747
21.94000 1.254
21.96000 -2.040
21.98000 5.544
22.00000 -0.104
22.02000 2.201
22.04000 2.252
22.06000 -1.396
22.08000 -0.011
22.10000 -4.149
22.12000 -3.583
22.14000 0.947
22.16000 1.446
22.18000 -0.262
22.20000 3.538
22.22000 5.804
22.24000 5.447
22.26000 6.124
22.28000 8.523
22.30000 6.226
22.32000 2.471
22.34000 -0.200
22.36000 4.133
22.38000 3.958
22.40000 -0.803
22.42000 4.959
22.44000 3.963
22.46000 3.790
22.48000 -1.559
22.50000 0.094
22.52000 3.711
22.54000 4.634
22.56000 9.955
22.58000 5.671
22.60000 0.255
22.62000 5.555
22.64000 8.406
22.66000 6.485
22.68000 0.123
22.70000 0.172
22.72000 -3.366
22.74000 -1.827
22.76000 3.397
22.78000 0.885
22.80000 0.399
22.82000 4.007
22.84000 -0.806
22.86000 0.971
22.88000 -0.738
22.90000 2.586
22.92000 4.667
22.94000 -3.658
22.96000 -2.888
22.98000 2.892
23.00000 8.533
23.02000 3.419
23.04000 4.987
23.06000 -0.364
23.08000 -0.470
23.10000 -1.907
23.12000 -2.992
23.14000 -2.668
23.16000 -1.992
23.18000 6.438
23.20000 4.457
23.22000 8.531
23.24000 2.469
23.26000 2.726
23.28000 -1.003
23.30000 3.501
23.32000 3.264
23.34000 1.253
23.36000 1.686
23.38000 5.624
23.40000 8.787
23.42000 5.267
23.44000 7.185
23.46000 3.198
23.48000 -4.055
23.50000 1.195
23.52000 4.184
23.54000 1.477
23.56000 2.856
23.58000 3.761
23.60000 1.431
23.62000 10.034
23.64000 12.678
23.66000 6.016
23.68000 6.491
23.70000 1.741
23.72000 -0.001
23.74000 5.105
23.76000 7.647
23.78000 0.909
23.80000 6.944
23.82000 8.214
23.84000 -1.406
23.86000 -0.980
23.88000 2.693
23.90000 4.528
23.92000 6.316
23.94000 10.546
23.96000 4.473
23.98000 8.857
24.00000 6.607
24.02000 1.323
24.04000 2.753
24.06000 3.280
24.08000 -0.397
24.10000 -2.156
24.12000 3.936
24.14000 6.943
24.16000 3.795
24.18000 4.230
24.20000 3.517
24.22000 1.420
24.24000 4.461
24.26000 8.350
24.28000 6.014
24.30000 2.449
24.32000 -2.781
24.34000 2.570
24.36000 4.629
24.38000 5.082
24.40000 7.477
24.42000 5.037
24.44000 6.266
24.46000 6.418
24.48000 -1.609
24.50000 -3.994
24.52000 -0.182
24.54000 4.803
24.56000 1.886
24.58000 4.886
24.60000 7.280
24.62000 2.481
24.64000 -0.233
24.66000 -0.526
24.68000 -1.720
24.70000 -0.047
24.72000 0.674
24.74000 -2.965
24.76000 -3.142
24.78000 -0.596
24.80000 -0.858
24.82000 4.148
24.84000 3.331
24.86000 -0.041
24.88000 3.789
24.90000 8.091
24.92000 5.428
24.94000 1.186
24.96000 3.588
24.98000 2.634
25.00000 2.061
25.02000 4.392
25.04000 -0.203
25.06000 1.954
25.08000 2.378
25.10000 2.220
25.12000 5.413
25.14000 5.659
25.16000 -3.961
25.18000 2.019
25.20000 0.290
25.22000 -3.268
25.24000 2.355
25.26000 1.105
25.28000 2.623
25.30000 2.391
25.32000 2.561
25.34000 3.806
25.36000 4.602
25.38000 2.630
25.40000 1.309
25.42000 1.864
25.44000 2.771
25.46000 6.768
25.48000 4.127
25.50000 4.100
25.52000 0.773
25.54000 6.757
25.56000 8.035
25.58000 4.738
25.60000 1.619
25.62000 -0.413
25.64000 2.935
25.66000 3.634
25.68000 0.174
25.70000 -2.285
25.72000 3.698
25.74000 7.201
25.76000 9.863
25.78000 -1.748
25.80000 0.267
25.82000 4.123
25.84000 3.157
25.86000 0.411
25.88000 -2.074
25.90000 -0.330
25.92000 3.585
25.94000 10.261
25.96000 4.321
25.98000 -0.177
26.00000 -0.490
26.02000 0.525
26.04000 5.225
26.06000 11.004
26.08000 0.917
26.10000 -0.997
26.12000 1.757
26.14000 0.623
26.16000 -1.516
26.18000 -3.615
26.20000 -1.481
26.22000 -0.221
26.24000 1.548
26.26000 -1.116
26.28000 3.792
26.30000 -0.895
26.32000 -2.156
26.34000 0.714
26.36000 4.802
26.38000 8.778
26.40000 8.608
26.42000 4.006
26.44000 1.866
26.46000 2.162
26.48000 -1.139
26.50000 0.881
26.52000 5.642
26.54000 1.581
26.56000 -3.890
26.58000 3.594
26.60000 6.619
26.62000 0.764
26.64000 -0.225
26.66000 2.080
26.68000 -0.103
26.70000 -2.746
26.72000 -3.604
26.74000 -2.444
26.76000 2.196
26.78000 4.805
26.80000 0.670
26.82000 0.903
26.84000 2.067
26.86000 2.655
26.88000 -3.710
26.90000 0.354
26.92000 0.498
26.94000 4.747
26.96000 3.616
26.98000 1.661
27.00000 1.132
27.02000 1.814
27.04000 9.678
27.06000 7.395
27.08000 3.539
27.10000 4.359
27.12000 8.972
27.14000 3.907
27.16000 -1.525
27.18000 -0.248
27.20000 3.944
27.22000 3.405
27.24000 1.800
27.26000 1.790
27.28000 -0.069
27.30000 0.719
27.32000 -2.992
27.34000 -1.607
27.36000 6.165
27.38000 11.096
27.40000 9.456
27.42000 2.018
27.44000 4.159
27.46000 4.781
27.48000 2.930
27.50000 5.527
27.52000 4.344
27.54000 2.613
27.56000 4.016
27.58000 2.658
27.60000 1.930
27.62000 4.471
27.64000 2.121
27.66000 6.576
27.68000 4.103
27.70000 1.383
27.72000 0.725
27.74000 -2.066
27.76000 2.484
27.78000 -0.913
27.80000 -3.828
27.82000 0.579
27.84000 7.222
27.86000 8.459
27.88000 5.028
27.90000 0.544
27.92000 -2.092
27.94000 1.965
27.96000 4.207
27.98000 3.848
28.00000 2.417
28.02000 1.297
28.04000 1.136
28.06000 1.107
28.08000 2.364
28.10000 3.771
28.12000 7.481
28.14000 2.379
28.16000 2.521
28.18000 6.617
28.20000 8.009
28.22000 3.715
28.24000 -3.790
28.26000 3.777
28.28000 4.018
28.30000 4.151
28.32000 6.908
28.34000 3.746
28.36000 -0.432
28.38000 -0.351
28.40000 5.474
28.42000 4.695
28.44000 3.650
28.46000 2.184
28.48000 1.642
28.50000 0.137
28.52000 -3.448
28.54000 -0.912
28.56000 -0.205
28.58000 2.872
28.60000 2.064
28.62000 0.246
28.64000 1.709
28.66000 5.899
28.68000 1.783
28.70000 0.553
28.72000 2.137
28.74000 0.789
28.76000 3.753
28.78000 6.128
28.80000 4.393
28.82000 -2.157
28.84000 -3.127
28.86000 1.716
28.88000 0.335
28.90000 0.178
28.92000 2.567
28.94000 -0.426
28.96000 0.952
28.98000 0.279
29.00000 7.241
29.02000 6.610
29.04000 3.388
29.06000 3.658
29.08000 4.601
29.10000 10.655
29.12000 3.707
29.14000 0.188
29.16000 -0.542
29.18000 -0.287
29.20000 -0.643
29.22000 0.454
29.24000 -0.712
29.26000 2.679
29.28000 0.530
29.30000 2.520
29.32000 1.332
29.34000 5.002
29.36000 5.382
29.38000 -0.039
29.40000 1.766
29.42000 -1.681
29.44000 -0.567
29.46000 3.472
29.48000 3.423
29.50000 7.201
29.52000 8.624
29.54000 3.485
29.56000 3.261
29.58000 6.990
29.60000 -2.088
29.62000 -2.931
29.64000 -3.260
29.66000 -1.636
29.68000 -3.746
29.70000 -1.003
29.72000 0.812
29.74000 -2.403
29.76000 0.307
29.78000 6.202
29.80000 4.661
29.82000 0.029
29.84000 -1.016
29.86000 1.183
29.88000 2.273
29.90000 2.950
29.92000 -1.781
29.94000 -3.738
29.96000 -1.163
29.98000 5.622
30.00000 6.901
30.02000 1.368
30.04000 5.671
30.06000 2.992
30.08000 -1.757
30.10000 -1.504
30.12000 -1.855
30.14000 -1.276
30.16000 -1.439
30.18000 -3.108
30.20000 -0.083
30.22000 1.369
30.24000 2.650
30.26000 1.541
30.28000 4.431
30.30000 5.628
30.32000 2.145
30.34000 -2.374
30.36000 -3.720
30.38000 -1.559
30.40000 -0.605
30.42000 -0.312
30.44000 4.187
30.46000 1.679
30.48000 -1.254
30.50000 -2.435
30.52000 -1.868
30.54000 -0.959
30.56000 -3.614
30.58000 -3.129
30.60000 0.151
30.62000 -0.680
30.64000 2.812
30.66000 1.253
30.68000 -0.809
30.70000 2.391
30.72000 3.979
30.74000 -0.020
30.76000 -2.469
30.78000 1.820
30.80000 3.995
30.82000 2.573
30.84000 5.003
30.86000 0.270
30.88000 -1.615
30.90000 -1.072
30.92000 -2.754
30.94000 -3.454
30.96000 -2.302
30.98000 1.018
31.00000 3.511
31.02000 4.201
31.04000 0.264
31.06000 -1.469
31.08000 -0.204
31.10000 -1.615
31.12000 1.503
31.14000 3.576
31.16000 0.119
31.18000 -1.451
31.20000 2.660
31.22000 5.523
31.24000 7.803
31.26000 3.711
31.28000 -0.521
31.30000 4.483
31.32000 2.565
31.34000 0.697
31.36000 -0.765
31.38000 4.553
31.40000 5.010
31.42000 1.157
31.44000 3.591
31.46000 3.350
31.48000 4.391
31.50000 1.284
31.52000 2.790
31.54000 1.901
31.56000 3.033
31.58000 -0.685
31.60000 0.631
31.62000 3.335
31.64000 3.290
31.66000 1.082
31.68000 3.774
31.70000 4.477
31.72000 0.790
31.74000 1.013
31.76000 1.556
31.78000 0.297
31.80000 0.189
31.82000 4.062
31.84000 5.062
31.86000 6.285
31.88000 6.254
31.90000 2.095
31.92000 3.564
31.94000 4.524
31.96000 5.715
31.98000 2.881
32.00000 4.027
32.02000 2.643
32.04000 2.301
32.06000 2.624
32.08000 1.510
32.10000 -3.581
32.12000 5.205
32.14000 14.278
32.16000 11.294
32.18000 9.200
32.20000 3.017
32.22000 5.668
32.24000 5.343
32.26000 6.416
32.28000 4.186
32.30000 -1.081
32.32000 2.104
32.34000 4.370
32.36000 4.941
32.38000 3.842
32.40000 -1.497
32.42000 1.786
32.44000 1.815
32.46000 4.444
32.48000 3.246
32.50000 2.793
32.52000 1.868
32.54000 4.036
32.56000 6.599
32.58000 2.359
32.60000 2.576
32.62000 6.509
32.64000 7.968
32.66000 4.582
32.68000 6.966
32.70000 7.350
32.72000 6.752
32.74000 3.012
32.76000 3.269
32.78000 4.748
32.80000 4.527
32.82000 5.614
32.84000 1.358
32.86000 4.342
32.88000 2.360
32.90000 4.250
32.92000 8.182
32.94000 2.253
32.96000 2.823
32.98000 1.993
33.00000 3.336
33.02000 -0.128
33.04000 -3.601
33.06000 -0.337
33.08000 4.018
33.10000 4.870
33.12000 5.580
33.14000 5.340
33.16000 6.168
33.18000 6.325
33.20000 6.428
33.22000 3.992
33.24000 3.901
33.26000 9.761
33.28000 6.417
33.30000 4.197
33.32000 11.185
33.34000 5.561
33.36000 4.633
33.38000 2.961
33.40000 -0.634
33.42000 2.106
33.44000 3.292
33.46000 0.636
33.48000 8.792
33.50000 9.976
33.52000 1.781
33.54000 -2.112
33.56000 5.409
33.58000 8.150
33.60000 6.474
33.62000 2.264
33.64000 4.768
33.66000 4.297
33.68000 3.361
33.70000 1.512
33.72000 -1.121
33.74000 0.234
33.76000 0.796
33.78000 4.996
33.80000 7.621
33.82000 6.228
33.84000 1.779
33.86000 6.947
33.88000 7.861
33.90000 1.479
33.92000 2.729
33.94000 2.402
33.96000 4.771
33.98000 8.198
34.00000 8.196
34.02000 4.530
34.04000 3.430
34.06000 6.804
34.08000 0.516
34.10000 -1.098
34.12000 -2.760
34.14000 -0.276
34.16000 4.608
34.18000 3.076
34.20000 3.137
34.22000 6.382
34.24000 3.738
34.26000 3.797
34.28000 -0.319
34.30000 -1.534
34.32000 -0.782
34.34000 0.657
34.36000 1.611
34.38000 2.627
34.40000 5.304
34.42000 5.729
34.44000 6.179
34.46000 0.967
34.48000 4.348
34.50000 6.264
34.52000 6.117
34.54000 6.306
34.56000 1.979
34.58000 -0.559
34.60000 6.182
34.62000 7.419
34.64000 5.902
34.66000 5.578
34.68000 5.931
34.70000 4.263
34.72000 8.063
34.74000 14.453
34.76000 6.474
34.78000 0.223
34.80000 1.729
34.82000 2.123
34.84000 6.473
34.86000 2.359
34.88000 4.438
34.90000 2.171
34.92000 1.646
34.94000 3.136
34.96000 5.502
34.98000 3.872
35.00000 -0.874
35.02000 -3.529
35.04000 -2.119
35.06000 0.508
35.08000 6.653
35.10000 5.051
35.12000 2.911
35.14000 6.894
35.16000 10.763
35.18000 1.706
35.20000 -0.790
35.22000 1.786
35.24000 1.475
35.26000 3.350
35.28000 5.922
35.30000 4.451
35.32000 0.043
35.34000 -3.412
35.36000 -3.340
35.38000 -2.526
35.40000 0.386
35.42000 3.400
35.44000 3.956
35.46000 -0.908
35.48000 4.013
35.50000 -0.149
35.52000 -1.072
35.54000 2.356
35.56000 2.059
35.58000 0.215
35.60000 3.582
35.62000 2.348
35.64000 3.170
35.66000 2.229
35.68000 4.510
35.70000 2.507
35.72000 0.192
35.74000 5.418
35.76000 5.794
35.78000 -1.207
35.80000 3.033
35.82000 4.101
35.84000 5.609
35.86000 1.498
35.88000 -1.019
35.90000 3.876
35.92000 2.827
35.94000 7.039
35.96000 2.324
35.98000 1.028
36.00000 4.840
36.02000 3.232
36.04000 5.513
36.06000 4.491
36.08000 0.756
36.10000 2.004
36.12000 4.581
36.14000 3.039
36.16000 1.287
36.18000 0.771
36.20000 2.874
36.22000 4.214
36.24000 3.048
36.26000 3.553
36.28000 4.799
36.30000 4.528
36.32000 4.991
36.34000 5.272
36.36000 -0.326
36.38000 0.262
36.40000 -2.305
36.42000 -3.546
36.44000 0.223
36.46000 4.563
36.48000 5.000
36.50000 6.186
36.52000 4.287
36.54000 -1.333
36.56000 0.234
36.58000 1.878
36.60000 -2.050
36.62000 -2.639
36.64000 -1.679
36.66000 -0.586
36.68000 5.147
36.70000 3.616
36.72000 2.727
36.74000 3.463
36.76000 3.704
36.78000 -0.352
36.80000 1.236
36.82000 7.270
36.84000 6.442
36.86000 7.100
36.88000 4.621
36.90000 3.968
36.92000 3.262
36.94000 3.703
36.96000 0.666
36.98000 5.462
37.00000 4.184
37.02000 5.220
37.04000 3.190
37.06000 -0.598
37.08000 -3.578
37.10000 0.707
37.12000 5.567
37.14000 7.847
37.16000 6.741
37.18000 6.976
37.20000 8.705
37.22000 1.429
37.24000 -0.013
37.26000 -1.022
37.28000 -0.678
37.30000 2.268
37.32000 -1.506
37.34000 0.010
37.36000 -0.400
37.38000 1.602
37.40000 -2.335
37.42000 -2.944
37.44000 -2.089
37.46000 0.312
37.48000 -3.004
37.50000 -3.618
37.52000 -3.224
37.54000 -0.869
37.56000 1.114
37.58000 5.468
37.60000 2.442
37.62000 -3.377
37.64000 -0.201
37.66000 -2.539
37.68000 -2.560
37.70000 2.555
37.72000 -0.271
37.74000 2.226
37.76000 3.647
37.78000 2.309
37.80000 2.077
37.82000 2.215
37.84000 4.418
37.86000 7.351
37.88000 7.730
37.90000 3.686
37.92000 4.399
37.94000 5.049
37.96000 7.027
37.98000 2.051
38.00000 8.686
38.02000 10.600
38.04000 9.691
38.06000 8.496
38.08000 6.484
38.10000 8.797
38.12000 11.018
38.14000 9.873
38.16000 10.509
38.18000 8.743
38.20000 11.295
38.22000 11.929
38.24000 10.067
38.26000 8.280
38.28000 10.835
38.30000 16.416
38.32000 15.100
38.34000 13.930
38.36000 7.671
38.38000 9.249
38.40000 9.960
38.42000 13.206
38.44000 14.785
38.46000 12.454
38.48000 13.318
38.50000 17.419
38.52000 18.121
38.54000 18.957
38.56000 20.239
38.58000 16.084
38.60000 17.444
38.62000 16.013
38.64000 14.980
38.66000 19.690
38.68000 19.165
38.70000 18.196
38.72000 18.582
38.74000 18.446
38.76000 11.265
38.78000 15.882
38.80000 24.470
38.82000 22.200
38.84000 20.098
38.86000 19.790
38.88000 26.137
38.90000 28.344
38.92000 31.783
38.94000 33.710
38.96000 34.210
38.98000 34.603
39.00000 30.824
39.02000 33.979
39.04000 31.959
39.06000 34.300
39.08000 34.863
39.10000 34.776
39.12000 37.953
39.14000 42.930
39.16000 42.872
39.18000 40.229
39.20000 45.044
39.22000 51.421
39.24000 52.181
39.26000 51.630
39.28000 51.960
39.30000 56.331
39.32000 58.480
39.34000 58.849
39.36000 61.481
39.38000 69.712
39.40000 63.130
39.42000 66.631
39.44000 70.661
39.46000 77.592
39.48000 82.658
39.50000 83.575
39.52000 86.469
39.54000 92.954
39.56000 92.941
39.58000 97.379
39.60000 103.914
39.62000 107.642
39.64000 111.694
39.66000 117.568
39.68000 129.595
39.70000 136.428
39.72000 142.317
39.74000 155.270
39.76000 153.260
39.78000 157.336
39.80000 169.430
39.82000 176.970
39.84000 179.569
39.86000 184.952
39.88000 188.474
39.90000 209.977
39.92000 214.199
39.94000 223.145
39.96000 230.460
39.98000 249.698
40.00000 262.082
40.02000 278.907
40.04000 293.670
40.06000 301.059
40.08000 325.568
40.10000 348.543
40.12000 349.896
40.14000 353.984
40.16000 364.233
40.18000 378.335
40.20000 395.024
40.22000 413.794
40.24000 436.348
40.26000 452.208
40.28000 466.682
40.30000 479.381
40.32000 489.426
40.34000 496.608
40.36000 512.373
40.38000 529.933
40.40000 545.869
40.42000 547.605
40.44000 556.088
40.46000 560.774
40.48000 572.380
40.50000 579.736
40.52000 580.124
40.54000 588.285
40.56000 579.735
40.58000 591.046
40.60000 592.876
40.62000 584.962
40.64000 587.501
40.66000 577.650
40.68000 568.813
40.70000 559.960
40.72000 550.570
40.74000 539.576
40.76000 528.182
40.78000 521.291
40.80000 497.027
40.82000 483.383
40.84000 477.810
40.86000 464.370
40.88000 448.875
40.90000 434.329
40.92000 420.781
40.94000 409.333
40.96000 393.794
40.98000 367.285
41.00000 355.224
41.02000 341.903
41.04000 333.727
41.06000 314.382
41.08000 296.229
41.10000 280.860
41.12000 265.196
41.14000 251.141
41.16000 239.052
41.18000 235.808
41.20000 218.921
41.22000 206.341
41.24000 191.670
41.26000 186.199
41.28000 175.478
41.30000 170.675
41.32000 165.970
41.34000 157.757
41.36000 145.288
41.38000 139.799
41.40000 127.921
41.42000 125.502
41.44000 118.926
41.46000 109.983
41.48000 110.755
41.50000 99.271
41.52000 96.924
41.54000 92.139
41.56000 81.697
41.58000 78.170
41.60000 75.109
41.62000 71.599
41.64000 66.697
41.66000 62.863
41.68000 62.429
41.70000 63.205
41.72000 57.681
41.74000 53.616
41.76000 52.138
41.78000 53.486
41.80000 45.707
41.82000 43.738
41.84000 42.093
41.86000 41.095
41.88000 38.319
41.90000 32.710
41.92000 29.356
41.94000 26.606
41.96000 27.232
41.98000 25.461
42.00000 23.249
42.02000 22.725
42.04000 27.151
42.06000 28.789
42.08000 26.120
42.10000 28.878
42.12000 23.909
42.14000 20.033
42.16000 21.396
42.18000 19.153
42.20000 17.994
42.22000 18.312
42.24000 18.561
42.26000 18.420
42.28000 15.024
42.30000 11.465
42.32000 10.767
42.34000 9.297
42.36000 13.669
42.38000 14.348
42.40000 14.484
42.42000 12.863
42.44000 4.486
42.46000 2.306
42.48000 8.214
42.50000 6.603
42.52000 8.160
42.54000 3.510
42.56000 3.090
42.58000 3.455
42.60000 3.960
42.62000 4.109
42.64000 4.133
42.66000 5.263
42.68000 2.491
42.70000 -2.681
42.72000 1.639
42.74000 8.149
42.76000 5.221
42.78000 0.982
42.80000 -0.415
42.82000 0.336
42.84000 4.262
42.86000 3.318
42.88000 5.118
42.90000 8.523
42.92000 8.775
42.94000 5.568
42.96000 2.628
42.98000 2.827
43.00000 0.479
43.02000 1.905
43.04000 6.402
43.06000 3.590
43.08000 -0.536
43.10000 3.467
43.12000 -1.175
43.14000 -1.103
43.16000 3.985
43.18000 6.787
43.20000 6.466
43.22000 1.704
43.24000 2.880
43.26000 5.069
43.28000 0.120
43.30000 0.066
43.32000 2.335
43.34000 -3.561
43.36000 -0.832
43.38000 2.115
43.40000 2.886
43.42000 1.437
43.44000 2.078
43.46000 6.976
43.48000 1.677
43.50000 -0.981
43.52000 -0.922
43.54000 3.572
43.56000 -1.143
43.58000 -1.771
43.60000 1.156
43.62000 2.722
43.64000 2.341
43.66000 -0.463
43.68000 1.932
43.70000 1.339
43.72000 2.125
43.74000 5.379
43.76000 4.516
43.78000 5.619
43.80000 2.636
43.82000 -1.784
43.84000 -3.524
43.86000 -2.063
43.88000 -0.885
43.90000 0.117
43.92000 2.204
43.94000 1.764
43.96000 -3.045
43.98000 1.001
44.00000 5.620
44.02000 0.244
44.04000 -3.521
44.06000 -0.873
44.08000 -0.633
44.10000 -1.174
44.12000 -2.585
44.14000 0.213
44.16000 5.354
44.18000 3.042
44.20000 2.205
44.22000 4.178
44.24000 1.826
44.26000 -2.092
44.28000 -2.297
44.30000 2.611
44.32000 -0.037
44.34000 2.979
44.36000 4.318
44.38000 1.257
44.40000 -0.883
44.42000 -3.519
44.44000 2.785
44.46000 -0.117
44.48000 -3.519
44.50000 -1.482
44.52000 -1.254
44.54000 -1.232
44.56000 -0.940
44.58000 -2.262
44.60000 -0.274
44.62000 2.682
44.64000 3.435
44.66000 3.679
44.68000 -0.710
44.70000 -1.235
44.72000 -0.595
44.74000 1.704
44.76000 0.357
44.78000 3.413
44.80000 1.775
44.82000 -2.281
44.84000 1.692
44.86000 4.262
44.88000 1.561
44.90000 2.379
44.92000 -3.527
44.94000 5.017
44.96000 3.782
44.98000 3.761
45.00000 2.002
45.02000 1.984
45.04000 0.524
45.06000 -1.469
45.08000 4.671
45.10000 0.823
45.12000 -0.934
45.14000 7.164
45.16000 0.941
45.18000 2.847
45.20000 1.585
45.22000 -0.645
45.24000 -3.528
45.26000 -1.537
45.28000 2.971
45.30000 4.363
45.32000 4.420
45.34000 1.285
45.36000 -1.768
45.38000 1.662
45.40000 0.733
45.42000 -1.948
45.44000 3.903
45.46000 3.791
45.48000 1.457
45.50000 6.972
45.52000 3.201
45.54000 3.645
45.56000 4.660
45.58000 7.655
45.60000 13.551
45.62000 9.937
45.64000 12.018
45.66000 12.028
45.68000 12.808
45.70000 16.954
45.72000 14.172
45.74000 16.609
45.76000 10.964
45.78000 5.050
45.80000 8.639
45.82000 9.764
45.84000 16.822
45.86000 15.737
45.88000 21.217
45.90000 23.378
45.92000 22.229
45.94000 29.122
45.96000 23.501
45.98000 15.068
46.00000 15.142
46.02000 20.387
46.04000 30.515
46.06000 34.439
46.08000 27.389
46.10000 23.204
46.12000 25.608
46.14000 31.241
46.16000 34.687
46.18000 39.648
46.20000 36.849
46.22000 28.678
46.24000 33.603
46.26000 37.204
46.28000 35.611
46.30000 39.823
46.32000 42.050
46.34000 43.708
46.36000 41.810
46.38000 36.898
46.40000 37.811
46.42000 44.658
46.44000 48.060
46.46000 46.582
46.48000 44.231
46.50000 47.277
46.52000 49.815
46.54000 48.866
46.56000 50.964
46.58000 54.092
46.60000 52.920
46.62000 55.022
46.64000 57.124
46.66000 63.233
46.68000 61.231
46.70000 60.911
46.72000 63.915
46.74000 71.217
46.76000 73.359
46.78000 65.126
46.80000 64.010
46.82000 65.576
46.84000 63.447
46.86000 63.707
46.88000 66.747
46.90000 74.152
46.92000 68.740
46.94000 75.630
46.96000 79.916
46.98000 81.446
47.00000 76.284
47.02000 77.561
47.04000 79.047
47.06000 81.693
47.08000 78.464
47.10000 74.079
47.12000 80.245
47.14000 72.555
47.16000 73.157
47.18000 79.003
47.20000 78.402
47.22000 81.197
47.24000 78.888
47.26000 77.245
47.28000 78.718
47.30000 76.404
47.32000 73.244
47.34000 78.091
47.36000 79.638
47.38000 74.639
47.40000 75.753
47.42000 69.910
47.44000 67.019
47.46000 63.493
47.48000 59.314
47.50000 60.159
47.52000 67.752
47.54000 69.517
47.56000 60.018
47.58000 61.485
47.60000 60.398
47.62000 55.947
47.64000 63.216
47.66000 60.265
47.68000 56.676
47.70000 49.281
47.72000 43.748
47.74000 41.238
47.76000 48.501
47.78000 36.490
47.80000 37.710
47.82000 45.029
47.84000 44.473
47.86000 41.214
47.88000 40.720
47.90000 37.599
47.92000 43.137
47.94000 42.015
47.96000 35.365
47.98000 36.090
48.00000 28.518
48.02000 27.617
48.04000 25.630
48.06000 25.348
48.08000 24.209
48.10000 27.728
48.12000 21.727
48.14000 21.912
48.16000 26.549
48.18000 22.539
48.20000 22.657
48.22000 24.153
48.24000 23.979
48.26000 21.854
48.28000 20.167
48.30000 14.167
48.32000 13.202
48.34000 15.760
48.36000 13.446
48.38000 14.470
48.40000 13.296
48.42000 13.736
48.44000 15.442
48.46000 11.749
48.48000 12.388
48.50000 16.725
48.52000 10.641
48.54000 5.977
48.56000 5.366
48.58000 6.126
48.60000 9.068
48.62000 8.346
48.64000 7.265
48.66000 7.622
48.68000 10.079
48.70000 8.043
48.72000 6.517
48.74000 9.951
48.76000 8.905
48.78000 9.281
48.80000 5.090
48.82000 0.171
48.84000 6.170
48.86000 0.707
48.88000 1.482
48.90000 1.515
48.92000 8.285
48.94000 3.311
48.96000 -2.383
48.98000 -3.174
49.00000 2.472
49.02000 3.563
49.04000 5.535
49.06000 5.985
49.08000 4.794
49.10000 0.953
49.12000 -2.404
49.14000 0.262
49.16000 3.472
49.18000 4.712
49.20000 1.747
49.22000 2.970
49.24000 9.668
49.26000 5.083
49.28000 3.607
49.30000 4.838
49.32000 -0.088
49.34000 4.167
49.36000 5.247
49.38000 2.895
49.40000 2.712
49.42000 6.291
49.44000 4.018
49.46000 4.631
49.48000 -2.188
49.50000 -0.360
49.52000 0.428
49.54000 0.732
49.56000 7.438
49.58000 9.498
49.60000 7.429
49.62000 3.727
49.64000 2.552
49.66000 6.531
49.68000 2.560
49.70000 0.099
49.72000 5.314
49.74000 9.723
49.76000 8.238
49.78000 5.637
49.80000 3.634
49.82000 4.853
49.84000 5.049
49.86000 0.915
49.88000 -2.045
49.90000 -3.047
49.92000 2.344
49.94000 4.833
49.96000 4.890
49.98000 5.398
50.00000 6.194
50.02000 8.032
50.04000 7.786
50.06000 3.850
50.08000 3.093
50.10000 1.203
50.12000 -3.027
50.14000 1.805
50.16000 8.436
50.18000 5.400
50.20000 9.812
50.22000 4.933
50.24000 1.434
50.26000 5.042
50.28000 7.477
50.30000 4.922
50.32000 1.924
50.34000 2.978
50.36000 1.475
50.38000 -0.351
50.40000 1.510
50.42000 4.486
50.44000 1.403
50.46000 0.705
50.48000 1.165
50.50000 -1.437
50.52000 2.059
50.54000 2.150
50.56000 6.059
50.58000 9.230
50.60000 5.619
50.62000 3.972
50.64000 3.343
50.66000 3.900
50.68000 -0.188
50.70000 -3.003
50.72000 1.641
50.74000 4.805
50.76000 3.041
50.78000 5.273
50.80000 4.770
50.82000 3.701
50.84000 5.198
50.86000 2.774
50.88000 6.023
50.90000 1.977
50.92000 1.639
50.94000 0.333
50.96000 -0.572
50.98000 6.205
51.00000 0.808
51.02000 -0.629
51.04000 1.018
51.06000 1.518
51.08000 3.642
51.10000 5.308
51.12000 6.465
51.14000 3.110
51.16000 3.141
51.18000 -1.859
51.20000 0.644
51.22000 2.460
51.24000 3.167
51.26000 3.000
51.28000 5.564
51.30000 5.676
51.32000 5.410
51.34000 4.416
51.36000 8.551
51.38000 4.952
51.40000 2.414
51.42000 3.776
51.44000 0.928
51.46000 -0.870
51.48000 3.699
51.50000 6.492
51.52000 4.202
51.54000 5.792
51.56000 6.753
51.58000 8.758
51.60000 5.624
51.62000 1.882
51.64000 4.147
51.66000 7.354
51.68000 6.333
51.70000 6.188
51.72000 8.201
51.74000 4.533
51.76000 6.361
51.78000 6.724
51.80000 3.404
51.82000 2.837
51.84000 0.015
51.86000 2.592
51.88000 1.513
51.90000 -0.308
51.92000 1.758
51.94000 -0.745
51.96000 -0.247
51.98000 2.984
52.00000 4.841
52.02000 9.096
52.04000 9.540
52.06000 5.563
52.08000 6.149
52.10000 4.262
52.12000 4.554
52.14000 3.090
52.16000 6.653
52.18000 11.439
52.20000 7.956
52.22000 6.167
52.24000 4.248
52.26000 -1.833
52.28000 7.155
52.30000 8.675
52.32000 4.312
52.34000 4.115
52.36000 -2.896
52.38000 4.700
52.40000 6.734
52.42000 3.327
52.44000 -0.578
52.46000 -0.324
52.48000 6.257
52.50000 9.381
52.52000 7.166
52.54000 2.698
52.56000 5.498
52.58000 11.053
52.60000 12.551
52.62000 9.220
52.64000 3.316
52.66000 4.034
52.68000 6.523
52.70000 7.865
52.72000 7.143
52.74000 1.285
52.76000 6.465
52.78000 4.440
52.80000 1.137
52.82000 0.380
52.84000 3.735
52.86000 2.309
52.88000 1.154
52.90000 5.502
52.92000 10.264
52.94000 8.208
52.96000 2.044
52.98000 1.599
53.00000 3.471
53.02000 5.407
53.04000 6.045
53.06000 7.781
53.08000 4.968
53.10000 4.882
53.12000 6.058
53.14000 8.407
53.16000 6.064
53.18000 5.581
53.20000 2.123
53.22000 0.654
53.24000 5.690
53.26000 2.624
53.28000 -0.215
53.30000 -0.231
53.32000 3.661
53.34000 2.067
53.36000 4.598
53.38000 8.540
53.40000 11.986
53.42000 4.153
53.44000 4.143
53.46000 4.568
53.48000 5.487
53.50000 3.425
53.52000 2.238
53.54000 6.433
53.56000 5.487
53.58000 6.199
53.60000 3.467
53.62000 4.152
53.64000 9.490
53.66000 6.784
53.68000 1.991
53.70000 6.020
53.72000 8.610
53.74000 5.091
53.76000 2.922
53.78000 0.605
53.80000 3.562
53.82000 -2.861
53.84000 -1.783
53.86000 1.523
53.88000 3.453
53.90000 2.377
53.92000 5.578
53.94000 3.998
53.96000 0.925
53.98000 3.929
54.00000 4.152
54.02000 0.990
54.04000 0.586
54.06000 1.032
54.08000 4.974
54.10000 2.568
54.12000 1.967
54.14000 1.434
54.16000 -2.072
54.18000 0.566
54.20000 1.799
54.22000 3.482
54.24000 0.650
54.26000 1.687
54.28000 4.397
54.30000 6.048
54.32000 6.052
54.34000 8.504
54.36000 3.965
54.38000 3.816
54.40000 1.082
54.42000 5.110
54.44000 3.583
54.46000 2.328
54.48000 4.893
54.50000 5.919
54.52000 7.740
54.54000 2.175
54.56000 4.900
54.58000 6.204
54.60000 4.284
54.62000 2.759
54.64000 6.051
54.66000 3.413
54.68000 -1.116
54.70000 1.679
54.72000 4.658
54.74000 9.219
54.76000 6.993
54.78000 6.845
54.80000 0.161
54.82000 5.434
54.84000 7.855
54.86000 4.328
54.88000 7.908
54.90000 -0.265
54.92000 1.898
54.94000 7.536
54.96000 5.795
54.98000 -1.162
55.00000 3.926
55.02000 2.383
55.04000 6.490
55.06000 -1.711
55.08000 -2.857
55.10000 3.444
55.12000 4.681
55.14000 4.228
55.16000 2.977
55.18000 4.013
55.20000 6.916
55.22000 3.739
55.24000 3.246
55.26000 4.526
55.28000 0.646
55.30000 3.441
55.32000 2.623
55.34000 -2.032
55.36000 -0.477
55.38000 4.933
55.40000 9.113
55.42000 5.757
55.44000 4.631
55.46000 1.337
55.48000 -0.098
55.50000 2.469
55.52000 -0.234
55.54000 4.907
55.56000 3.074
55.58000 0.210
55.60000 4.004
55.62000 2.616
55.64000 2.142
55.66000 2.736
55.68000 4.902
55.70000 5.836
55.72000 4.897
55.74000 -1.660
55.76000 1.206
55.78000 2.092
55.80000 -0.381
55.82000 -0.675
55.84000 3.037
55.86000 0.663
55.88000 1.605
55.90000 6.055
55.92000 2.889
55.94000 -0.992
55.96000 4.505
55.98000 5.049
56.00000 -2.061
56.02000 2.984
56.04000 6.124
56.06000 4.708
56.08000 3.253
56.10000 2.834
56.12000 2.723
56.14000 3.000
56.16000 3.077
56.18000 4.751
56.20000 4.660
56.22000 8.203
56.24000 4.218
56.26000 5.839
56.28000 2.075
56.30000 1.715
56.32000 2.612
56.34000 4.341
56.36000 6.100
56.38000 3.797
56.40000 3.008
56.42000 4.300
56.44000 3.765
56.46000 -2.774
56.48000 2.602
56.50000 7.091
56.52000 8.622
56.54000 9.334
56.56000 4.016
56.58000 3.408
56.60000 8.059
56.62000 8.975
56.64000 12.734
56.66000 7.739
56.68000 6.169
56.70000 5.367
56.72000 5.703
56.74000 3.826
56.76000 4.826
56.78000 5.517
56.80000 5.517
56.82000 2.923
56.84000 3.811
56.86000 5.720
56.88000 6.577
56.90000 4.239
56.92000 2.333
56.94000 0.451
56.96000 2.808
56.98000 3.281
57.00000 4.722
57.02000 6.162
57.04000 6.660
57.06000 5.280
57.08000 -0.025
57.10000 3.035
57.12000 2.231
57.14000 -0.059
57.16000 1.193
57.18000 1.878
57.20000 4.501
57.22000 5.361
57.24000 2.597
57.26000 5.221
57.28000 4.603
57.30000 6.701
57.32000 5.413
57.34000 2.817
57.36000 3.869
57.38000 0.312
57.40000 -2.629
57.42000 3.898
57.44000 8.321
57.46000 0.186
57.48000 3.025
57.50000 0.045
57.52000 5.543
57.54000 4.529
57.56000 4.040
57.58000 5.117
57.60000 3.922
57.62000 -0.387
57.64000 -2.756
57.66000 0.538
57.68000 2.882
57.70000 4.298
57.72000 4.657
57.74000 -0.034
57.76000 0.254
57.78000 1.817
57.80000 0.945
57.82000 11.156
57.84000 9.612
57.86000 6.210
57.88000 3.978
57.90000 -0.153
57.92000 -1.301
57.94000 0.219
57.96000 -1.203
57.98000 3.416
58.00000 1.948
58.02000 4.511
58.04000 7.522
58.06000 3.164
58.08000 0.490
58.10000 3.253
58.12000 0.229
58.14000 -0.216
58.16000 3.977
58.18000 8.906
58.20000 5.722
58.22000 4.429
58.24000 2.566
58.26000 2.112
58.28000 -1.176
58.30000 -1.188
58.32000 -1.838
58.34000 -0.754
58.36000 0.295
58.38000 2.811
58.40000 2.940
58.42000 4.557
58.44000 10.338
58.46000 8.765
58.48000 8.437
58.50000 2.409
58.52000 2.311
58.54000 1.234
58.56000 2.987
58.58000 3.650
58.60000 1.492
58.62000 0.366
58.64000 6.124
58.66000 4.524
58.68000 3.548
58.70000 -0.661
58.72000 -2.270
58.74000 1.802
58.76000 3.309
58.78000 5.880
58.80000 7.808
58.82000 5.537
58.84000 11.695
58.86000 8.651
58.88000 7.315
58.90000 7.564
58.92000 6.236
58.94000 2.296
58.96000 -2.122
58.98000 -2.697
59.00000 -0.135
59.02000 2.072
59.04000 0.547
59.06000 6.668
59.08000 3.707
59.10000 7.846
59.12000 7.045
59.14000 2.962
59.16000 2.803
59.18000 7.887
59.20000 5.059
59.22000 2.038
59.24000 1.825
59.26000 0.791
59.28000 6.936
59.30000 5.847
59.32000 0.871
59.34000 2.282
59.36000 2.369
59.38000 1.411
59.40000 1.574
59.42000 6.146
59.44000 5.332
59.46000 4.747
59.48000 5.471
59.50000 6.790
59.52000 10.007
59.54000 7.093
59.56000 6.223
59.58000 8.459
59.60000 6.044
59.62000 3.713
59.64000 1.761
59.66000 4.273
59.68000 5.031
59.70000 0.891
59.72000 0.898
59.74000 2.865
59.76000 6.009
59.78000 6.575
59.80000 8.126
59.82000 2.427
59.84000 3.710
59.86000 2.459
59.88000 0.643
59.90000 1.745
59.92000 3.642
59.94000 3.513
59.96000 3.579
59.98000 3.370
60.00000 1.373
60.02000 0.312
60.04000 -1.090
60.06000 3.068
60.08000 4.694
60.10000 5.770
60.12000 4.319
60.14000 5.948
60.16000 5.700
60.18000 4.341
60.20000 1.995
60.22000 4.655
60.24000 3.266
60.26000 3.684
60.28000 10.119
60.30000 6.866
60.32000 3.082
60.34000 -2.655
60.36000 0.974
60.38000 4.436
60.40000 5.097
60.42000 6.592
60.44000 2.730
60.46000 -1.059
60.48000 2.839
60.50000 4.096
60.52000 3.349
60.54000 2.241
60.56000 3.927
60.58000 2.831
60.60000 1.674
60.62000 3.336
60.64000 2.527
60.66000 2.493
60.68000 4.477
60.70000 3.372
60.72000 1.180
60.74000 5.417
60.76000 3.564
60.78000 1.338
60.80000 7.875
60.82000 9.014
60.84000 4.960
60.86000 5.158
60.88000 2.409
60.90000 4.604
60.92000 -1.448
60.94000 -2.633
60.96000 1.199
60.98000 3.529
61.00000 2.124
61.02000 0.767
61.04000 7.756
61.06000 12.222
61.08000 10.270
61.10000 3.412
61.12000 -0.126
61.14000 0.174
61.16000 -0.046
61.18000 1.016
61.20000 6.525
61.22000 6.931
61.24000 7.384
61.26000 5.879
61.28000 3.342
61.30000 1.946
61.32000 2.799
61.34000 3.551
61.36000 5.781
61.38000 3.948
61.40000 3.910
61.42000 2.900
61.44000 3.009
61.46000 6.143
61.48000 3.584
61.50000 1.340
61.52000 5.369
61.54000 6.324
61.56000 2.154
61.58000 2.379
61.60000 4.121
61.62000 7.134
61.64000 6.072
61.66000 3.133
61.68000 1.413
61.70000 -2.587
61.72000 0.869
61.74000 -0.438
61.76000 3.994
61.78000 6.199
61.80000 1.266
61.82000 8.810
61.84000 6.186
61.86000 3.227
61.88000 3.058
61.90000 5.321
61.92000 4.817
61.94000 5.397
61.96000 6.721
61.98000 4.566
62.00000 3.533
62.02000 5.969
62.04000 3.775
62.06000 2.483
62.08000 -1.399
62.10000 2.756
62.12000 5.835
62.14000 2.919
62.16000 0.089
62.18000 0.683
62.20000 -0.093
62.22000 -1.059
62.24000 4.307
62.26000 5.581
62.28000 5.417
62.30000 5.234
62.32000 1.713
62.34000 1.292
62.36000 2.925
62.38000 2.428
62.40000 -1.045
62.42000 0.818
62.44000 2.685
62.46000 4.067
62.48000 4.113
62.50000 3.069
62.52000 0.214
62.54000 0.195
62.56000 3.304
62.58000 0.292
62.60000 -0.987
62.62000 1.691
62.64000 0.192
62.66000 1.015
62.68000 -0.101
62.70000 1.077
62.72000 0.635
62.74000 -0.290
62.76000 0.077
62.78000 0.327
62.80000 -0.463
62.82000 -0.211
62.84000 -0.605
62.86000 -1.317
62.88000 0.380
62.90000 3.219
62.92000 0.992
62.94000 3.798
62.96000 1.618
62.98000 -0.751
63.00000 -1.383
63.02000 -0.415
63.04000 3.672
63.06000 -1.153
63.08000 0.299
63.10000 -0.221
63.12000 3.604
63.14000 1.006
63.16000 -1.575
63.18000 -2.471
63.20000 -0.306
63.22000 -0.330
63.24000 0.154
63.26000 -2.502
63.28000 -1.115
63.30000 -1.942
63.32000 -0.487
63.34000 2.389
63.36000 1.828
63.38000 -1.871
63.40000 0.369
63.42000 0.475
63.44000 0.678
63.46000 -1.043
63.48000 -0.533
63.50000 -0.688
63.52000 0.040
63.54000 2.203
63.56000 0.690
63.58000 -1.412
63.60000 -0.711
63.62000 3.722
63.64000 4.018
63.66000 2.150
63.68000 1.347
63.70000 4.136
63.72000 6.426
63.74000 8.939
63.76000 3.838
63.78000 -0.152
63.80000 0.008
63.82000 2.674
63.84000 6.023
63.86000 7.132
63.88000 3.728
63.90000 2.152
63.92000 3.633
63.94000 5.837
63.96000 2.919
63.98000 1.865
64.00000 5.198
64.02000 5.737
64.04000 5.013
64.06000 5.180
64.08000 3.092
64.10000 2.229
64.12000 -2.605
64.14000 2.273
64.16000 2.977
64.18000 5.913
64.20000 7.749
64.22000 5.681
64.24000 5.368
64.26000 2.050
64.28000 0.241
64.30000 3.040
64.32000 3.959
64.34000 4.381
64.36000 6.127
64.38000 8.802
64.40000 7.319
64.42000 2.559
64.44000 2.799
64.46000 2.245
64.48000 -2.619
64.50000 1.730
64.52000 0.716
64.54000 4.113
64.56000 4.009
64.58000 3.949
64.60000 3.636
64.62000 0.285
64.64000 0.445
64.66000 3.133
64.68000 5.960
64.70000 3.833
64.72000 6.680
64.74000 7.272
64.76000 5.034
64.78000 0.944
64.80000 0.683
64.82000 4.321
64.84000 6.137
64.86000 2.097
64.88000 1.201
64.90000 0.476
64.92000 4.597
64.94000 2.927
64.96000 2.432
64.98000 0.373
65.00000 2.570
65.02000 5.326
65.04000 -0.720
65.06000 -1.280
65.08000 1.520
65.10000 2.667
65.12000 4.899
65.14000 3.080
65.16000 -0.791
65.18000 -1.563
65.20000 -0.732
65.22000 -2.639
65.24000 -0.979
65.26000 4.977
65.28000 4.651
65.30000 1.149
65.32000 5.067
65.34000 5.193
65.36000 2.944
65.38000 -0.015
65.40000 2.844
65.42000 3.785
65.44000 1.620
65.46000 -1.899
65.48000 0.145
65.50000 -0.557
65.52000 -2.657
65.54000 -1.107
65.56000 -0.301
65.58000 1.535
65.60000 -0.723
65.62000 -2.149
65.64000 0.541
65.66000 -0.236
65.68000 -0.941
65.70000 -1.484
65.72000 1.281
65.74000 -0.485
65.76000 0.335
65.78000 2.867
65.80000 3.990
65.82000 2.305
65.84000 2.689
65.86000 1.670
65.88000 -0.445
65.90000 -2.146
65.92000 -0.655
65.94000 2.261
65.96000 -0.327
65.98000 -2.667
66.00000 2.038
66.02000 -0.569
66.04000 0.685
66.06000 2.710
66.08000 3.035
66.10000 3.974
66.12000 2.819
66.14000 3.174
66.16000 3.505
66.18000 3.191
66.20000 3.428
66.22000 -2.522
66.24000 -0.060
66.26000 0.010
66.28000 -2.681
66.30000 3.558
66.32000 6.979
66.34000 4.159
66.36000 3.655
66.38000 3.362
66.40000 0.422
66.42000 -2.292
66.44000 -1.508
66.46000 1.099
66.48000 4.197
66.50000 3.063
66.52000 0.111
66.54000 2.030
66.56000 4.281
66.58000 2.584
66.60000 0.085
66.62000 -1.849
66.64000 -0.655
66.66000 0.574
66.68000 3.015
66.70000 3.097
66.72000 2.349
66.74000 -2.435
66.76000 1.989
66.78000 5.854
66.80000 4.144
66.82000 1.494
66.84000 -0.420
66.86000 -1.582
66.88000 -1.957
66.90000 -1.869
66.92000 0.477
66.94000 1.714
66.96000 -1.257
66.98000 -2.699
67.00000 -1.870
67.02000 0.228
67.04000 -1.326
67.06000 -0.771
67.08000 1.956
67.10000 2.169
67.12000 -2.052
67.14000 0.977
67.16000 -0.571
67.18000 0.501
67.20000 0.217
67.22000 -2.709
67.24000 0.552
67.26000 3.678
67.28000 1.303
67.30000 3.711
67.32000 5.311
67.34000 4.813
67.36000 2.726
67.38000 5.852
67.40000 4.614
67.42000 5.715
67.44000 5.662
67.46000 1.236
67.48000 4.832
67.50000 3.863
67.52000 5.560
67.54000 5.239
67.56000 6.029
67.58000 4.809
67.60000 2.883
67.62000 4.506
67.64000 4.542
67.66000 4.137
67.68000 4.700
67.70000 0.163
67.72000 -1.588
67.74000 8.534
67.76000 12.811
67.78000 13.772
67.80000 9.829
67.82000 7.311
67.84000 3.496
67.86000 9.087
67.88000 8.486
67.90000 10.986
67.92000 10.471
67.94000 9.149
67.96000 11.924
67.98000 7.033
68.00000 9.043
68.02000 10.006
68.04000 7.453
68.06000 12.640
68.08000 15.746
68.10000 13.004
68.12000 9.465
68.14000 8.840
68.16000 9.812
68.18000 15.181
68.20000 10.267
68.22000 14.953
68.24000 17.843
68.26000 16.895
68.28000 12.524
68.30000 16.959
68.32000 16.826
68.34000 11.891
68.36000 13.086
68.38000 16.282
68.40000 15.984
68.42000 17.631
68.44000 20.140
68.46000 20.258
68.48000 17.304
68.50000 21.039
68.52000 18.628
68.54000 24.173
68.56000 26.085
68.58000 25.568
68.60000 22.669
68.62000 23.472
68.64000 25.264
68.66000 26.788
68.68000 23.864
68.70000 28.161
68.72000 25.918
68.74000 24.552
68.76000 28.832
68.78000 24.838
68.80000 23.205
68.82000 27.611
68.84000 29.825
68.86000 26.464
68.88000 27.582
68.90000 28.003
68.92000 29.171
68.94000 28.570
68.96000 22.493
68.98000 23.087
69.00000 25.760
69.02000 23.836
69.04000 21.701
69.06000 28.453
69.08000 26.613
69.10000 28.875
69.12000 26.401
69.14000 24.215
69.16000 24.230
69.18000 22.995
69.20000 26.918
69.22000 24.364
69.24000 25.794
69.26000 25.326
69.28000 25.499
69.30000 20.726
69.32000 18.671
69.34000 20.213
69.36000 17.968
69.38000 21.432
69.40000 21.471
69.42000 19.594
69.44000 16.203
69.46000 14.195
69.48000 17.345
69.50000 18.600
69.52000 16.757
69.54000 11.494
69.56000 14.445
69.58000 12.302
69.60000 17.381
69.62000 16.731
69.64000 15.084
69.66000 11.332
69.68000 12.721
69.70000 7.713
69.72000 8.501
69.74000 10.791
69.76000 8.798
69.78000 11.907
69.80000 15.127
69.82000 14.754
69.84000 10.214
69.86000 3.388
69.88000 6.910
69.90000 2.194
69.92000 3.180
69.94000 1.270
69.96000 9.484
69.98000 9.195
70.00000 2.231
70.02000 1.652
70.04000 1.164
70.06000 -0.201
70.08000 5.939
70.10000 3.137
70.12000 2.961
70.14000 6.641
70.16000 5.026
70.18000 6.569
70.20000 10.562
70.22000 10.781
70.24000 9.910
70.26000 7.668
70.28000 7.709
70.30000 1.373
70.32000 1.323
70.34000 4.307
70.36000 2.421
70.38000 -0.164
70.40000 0.791
70.42000 1.397
70.44000 1.874
70.46000 3.924
70.48000 5.922
70.50000 5.247
70.52000 6.219
70.54000 3.032
70.56000 3.548
70.58000 4.604
70.60000 -1.728
70.62000 -1.429
70.64000 2.320
70.66000 7.139
70.68000 4.983
70.70000 5.857
70.72000 4.318
70.74000 1.953
70.76000 -2.583
70.78000 -1.414
70.80000 -2.579
70.82000 2.780
70.84000 4.340
70.86000 -0.103
70.88000 -2.165
70.90000 -1.302
70.92000 -2.462
70.94000 -1.326
70.96000 2.639
70.98000 6.133
71.00000 2.676
71.02000 5.931
71.04000 5.448
71.06000 2.851
71.08000 0.605
71.10000 0.516
71.12000 1.958
71.14000 1.784
71.16000 4.022
71.18000 5.831
71.20000 2.860
71.22000 4.992
71.24000 0.788
71.26000 3.178
71.28000 -0.656
71.30000 -1.465
71.32000 3.120
71.34000 2.368
71.36000 0.442
71.38000 -1.865
71.40000 4.851
71.42000 4.061
71.44000 2.506
71.46000 2.764
71.48000 5.006
71.50000 2.450
71.52000 1.122
71.54000 -2.505
71.56000 1.849
71.58000 1.817
71.60000 4.187
71.62000 7.006
71.64000 1.590
71.66000 -1.187
71.68000 2.805
71.70000 2.553
71.72000 4.335
71.74000 2.255
71.76000 1.660
71.78000 2.143
71.80000 -1.149
71.82000 -0.830
71.84000 3.032
71.86000 4.607
71.88000 3.467
71.90000 2.278
71.92000 8.453
71.94000 8.077
71.96000 4.746
71.98000 -0.062
72.00000 0.000
72.02000 5.932
72.04000 2.870
72.06000 0.514
72.08000 0.844
72.10000 2.488
72.12000 5.490
72.14000 4.486
72.16000 6.892
72.18000 9.622
72.20000 7.607
72.22000 5.983
72.24000 6.672
72.26000 1.478
72.28000 -2.441
72.30000 4.048
72.32000 1.122
72.34000 5.319
72.36000 4.420
72.38000 5.259
72.40000 3.199
72.42000 2.346
72.44000 7.771
72.46000 5.581
72.48000 5.087
72.50000 4.333
72.52000 4.534
72.54000 6.705
72.56000 7.032
72.58000 3.919
72.60000 4.530
72.62000 6.054
72.64000 4.998
72.66000 7.672
72.68000 5.292
72.70000 3.248
72.72000 4.290
72.74000 2.709
72.76000 5.309
72.78000 5.562
72.80000 8.194
72.82000 5.535
72.84000 5.037
72.86000 5.219
72.88000 3.396
72.90000 6.253
72.92000 6.737
72.94000 2.974
72.96000 0.866
72.98000 2.853
73.00000 5.897
73.02000 6.095
73.04000 2.602
73.06000 3.912
73.08000 5.796
73.10000 2.218
73.12000 2.562
73.14000 -0.907
73.16000 7.015
73.18000 8.569
73.20000 6.296
73.22000 5.134
73.24000 6.786
73.26000 7.331
73.28000 6.140
73.30000 6.969
73.32000 6.628
73.34000 9.784
73.36000 6.631
73.38000 2.031
73.40000 2.057
73.42000 2.629
73.44000 4.056
73.46000 2.550
73.48000 0.103
73.50000 4.363
73.52000 3.997
73.54000 3.230
73.56000 4.344
73.58000 2.036
73.60000 -2.361
73.62000 0.167
73.64000 6.394
73.66000 6.616
73.68000 8.427
73.70000 7.819
73.72000 11.549
73.74000 11.541
73.76000 9.945
73.78000 8.480
73.80000 7.953
73.82000 5.341
73.84000 3.226
73.86000 6.335
73.88000 4.050
73.90000 3.144
73.92000 4.778
73.94000 4.480
73.96000 2.855
73.98000 3.775
74.00000 6.395
74.02000 9.034
74.04000 8.375
74.06000 2.326
74.08000 2.959
74.10000 6.813
74.12000 4.929
74.14000 3.377
74.16000 6.846
74.18000 8.089
74.20000 4.805
74.22000 3.030
74.24000 -0.642
74.26000 0.421
74.28000 2.205
74.30000 3.182
74.32000 5.592
74.34000 1.387
74.36000 3.639
74.38000 2.518
74.40000 -1.555
74.42000 -0.093
74.44000 3.965
74.46000 2.580
74.48000 4.131
74.50000 2.965
74.52000 1.208
74.54000 5.332
74.56000 6.550
74.58000 4.346
74.60000 7.031
74.62000 4.444
74.64000 0.051
74.66000 -2.026
74.68000 0.782
74.70000 8.228
74.72000 3.441
74.74000 3.208
74.76000 2.981
74.78000 3.549
74.80000 -0.210
74.82000 -2.305
74.84000 -0.801
74.86000 2.008
74.88000 -2.429
74.90000 1.990
74.92000 4.256
74.94000 0.494
74.96000 -1.119
74.98000 3.340
75.00000 2.859
75.02000 2.167
75.04000 -0.239
75.06000 -0.338
75.08000 3.015
75.10000 2.388
75.12000 5.517
75.14000 1.777
75.16000 -0.406
75.18000 2.016
75.20000 -0.743
75.22000 -1.677
75.24000 0.218
75.26000 1.855
75.28000 3.352
75.30000 -0.417
75.32000 -2.386
75.34000 -1.425
75.36000 2.333
75.38000 6.224
75.40000 3.361
75.42000 3.416
75.44000 4.596
75.46000 0.956
75.48000 0.773
75.50000 5.066
75.52000 0.178
75.54000 -1.521
75.56000 1.100
75.58000 2.035
75.60000 1.840
75.62000 4.073
75.64000 3.331
75.66000 4.853
75.68000 6.413
75.70000 5.722
75.72000 1.223
75.74000 -0.919
75.76000 -1.612
75.78000 -0.631
75.80000 -2.421
75.82000 1.325
75.84000 1.649
75.86000 4.541
75.88000 7.060
75.90000 5.940
75.92000 1.414
75.94000 3.520
75.96000 8.197
75.98000 9.872
76.00000 6.169
76.02000 2.886
76.04000 3.714
76.06000 5.801
76.08000 6.740
76.10000 3.546
76.12000 0.330
76.14000 1.797
76.16000 -0.791
76.18000 0.287
76.20000 1.809
76.22000 -0.988
76.24000 4.738
76.26000 3.488
76.28000 3.687
76.30000 4.810
76.32000 6.335
76.34000 7.731
76.36000 7.204
76.38000 3.088
76.40000 -1.993
76.42000 -1.991
76.44000 3.476
76.46000 10.721
76.48000 7.031
76.50000 4.359
76.52000 0.057
76.54000 3.497
76.56000 5.160
76.58000 4.686
76.60000 7.918
76.62000 7.557
76.64000 5.752
76.66000 4.877
76.68000 6.228
76.70000 4.294
76.72000 1.024
76.74000 2.944
76.76000 6.585
76.78000 3.058
76.80000 3.901
76.82000 2.987
76.84000 4.685
76.86000 3.171
76.88000 -2.405
76.90000 0.446
76.92000 0.796
76.94000 3.774
76.96000 4.716
76.98000 1.526
77.00000 2.366
77.02000 7.799
77.04000 6.260
77.06000 6.753
77.08000 3.841
77.10000 -1.201
77.12000 1.770
77.14000 3.118
77.16000 2.945
77.18000 -1.055
77.20000 -1.092
77.22000 -1.442
77.24000 2.018
77.26000 3.743
77.28000 5.070
77.30000 2.482
77.32000 2.681
77.34000 3.222
77.36000 1.231
77.38000 1.185
77.40000 4.354
77.42000 3.378
77.44000 0.864
77.46000 0.741
77.48000 -1.531
77.50000 2.069
77.52000 7.756
77.54000 2.917
77.56000 6.916
77.58000 3.974
77.60000 2.537
77.62000 -1.566
77.64000 0.527
77.66000 4.175
77.68000 2.650
77.70000 1.073
77.72000 8.872
77.74000 3.240
77.76000 5.489
77.78000 5.512
77.80000 4.240
77.82000 6.623
77.84000 6.169
77.86000 4.929
77.88000 4.381
77.90000 5.931
77.92000 0.628
77.94000 1.424
77.96000 -2.460
77.98000 1.457
78.00000 1.383
78.02000 3.143
78.04000 1.052
78.06000 2.153
78.08000 3.855
78.10000 7.642
78.12000 6.831
78.14000 4.657
78.16000 2.270
78.18000 0.642
78.20000 1.322
78.22000 -2.230
78.24000 -0.601
78.26000 -0.038
78.28000 0.139
78.30000 1.388
78.32000 1.434
78.34000 4.514
78.36000 8.059
78.38000 9.238
78.40000 4.437
78.42000 4.179
78.44000 2.531
78.46000 -1.995
78.48000 -1.447
78.50000 4.979
78.52000 5.227
78.54000 3.258
78.56000 4.643
78.58000 -0.302
78.60000 1.014
78.62000 2.604
78.64000 6.291
78.66000 4.504
78.68000 4.041
78.70000 3.841
78.72000 2.282
78.74000 -2.463
78.76000 -0.987
78.78000 6.724
78.80000 4.305
78.82000 0.457
78.84000 -1.290
78.86000 -0.760
78.88000 2.305
78.90000 3.738
78.92000 4.062
78.94000 7.645
78.96000 5.533
78.98000 5.169
79.00000 2.855
79.02000 2.527
79.04000 4.730
79.06000 5.738
79.08000 0.164
79.10000 -0.480
79.12000 -1.362
79.14000 -1.004
79.16000 1.491
79.18000 5.270
79.20000 -2.455
79.22000 1.776
79.24000 3.772
79.26000 6.230
79.28000 4.313
79.30000 1.106
79.32000 0.993
79.34000 6.107
79.36000 7.687
79.38000 9.717
79.40000 7.673
79.42000 3.241
79.44000 4.869
79.46000 1.810
79.48000 -0.449
79.50000 2.648
79.52000 5.445
79.54000 8.045
79.56000 3.915
79.58000 5.476
79.60000 6.966
79.62000 3.635
79.64000 5.097
79.66000 5.384
79.68000 3.213
79.70000 0.135
79.72000 1.363
79.74000 3.950
79.76000 7.076
79.78000 3.599
79.80000 7.588
79.82000 2.909
79.84000 2.632
79.86000 6.272
79.88000 4.858
79.90000 1.865
79.92000 4.175
79.94000 3.193
79.96000 0.729
79.98000 2.897
80.00000 2.503
80.02000 3.095
80.04000 -0.258
80.06000 1.847
80.08000 5.371
80.10000 2.474
80.12000 1.048
80.14000 0.323
80.16000 2.550
80.18000 -2.509
80.20000 -1.039
80.22000 4.941
80.24000 5.962
80.26000 5.448
80.28000 2.875
80.30000 3.161
80.32000 2.564
80.34000 6.593
80.36000 1.892
80.38000 1.554
80.40000 6.530
80.42000 3.382
80.44000 1.402
80.46000 7.045
80.48000 4.076
80.50000 3.647
80.52000 0.674
80.54000 -0.976
80.56000 3.179
80.58000 3.254
80.60000 6.664
80.62000 5.369
80.64000 0.628
80.66000 0.121
80.68000 0.528
80.70000 0.816
80.72000 -0.472
80.74000 3.607
80.76000 10.321
80.78000 5.254
80.80000 4.028
80.82000 5.610
80.84000 1.683
80.86000 4.883
80.88000 2.718
80.90000 4.150
80.92000 3.071
80.94000 2.626
80.96000 -2.567
80.98000 0.548
81.00000 3.522
81.02000 4.441
81.04000 7.949
81.06000 3.151
81.08000 1.527
81.10000 -2.186
81.12000 1.888
81.14000 4.227
81.16000 2.874
81.18000 1.383
81.20000 4.318
81.22000 6.176
81.24000 4.287
81.26000 6.591
81.28000 2.602
81.30000 0.957
81.32000 3.346
81.34000 4.747
81.36000 1.159
81.38000 3.188
81.40000 1.188
81.42000 -2.617
81.44000 1.945
81.46000 0.809
81.48000 0.933
81.50000 1.029
81.52000 -0.769
81.54000 1.237
81.56000 1.299
81.58000 7.833
81.60000 9.508
81.62000 4.008
81.64000 4.187
81.66000 6.584
81.68000 6.806
81.70000 9.423
81.72000 7.793
81.74000 4.504
81.76000 5.814
81.78000 10.539
81.80000 8.229
81.82000 8.527
81.84000 7.182
81.86000 5.631
81.88000 12.133
81.90000 10.775
81.92000 6.991
81.94000 9.045
81.96000 9.658
81.98000 13.296
82.00000 11.372
82.02000 8.276
82.04000 8.396
82.06000 9.319
82.08000 10.660
82.10000 9.110
82.12000 11.534
82.14000 8.829
82.16000 9.844
82.18000 10.596
82.20000 10.562
82.22000 8.803
82.24000 15.967
82.26000 15.974
82.28000 14.173
82.30000 10.555
82.32000 10.973
82.34000 16.211
82.36000 17.626
82.38000 12.024
82.40000 12.916
82.42000 9.108
82.44000 16.834
82.46000 23.324
82.48000 21.185
82.50000 16.954
82.52000 21.725
82.54000 20.746
82.56000 21.000
82.58000 20.400
82.60000 17.129
82.62000 17.847
82.64000 16.364
82.66000 17.704
82.68000 22.746
82.70000 17.443
82.72000 18.788
82.74000 17.640
82.76000 24.176
82.78000 30.298
82.80000 19.395
82.82000 18.893
82.84000 23.420
82.86000 27.110
82.88000 25.205
82.90000 23.393
82.92000 18.778
82.94000 19.804
82.96000 30.428
82.98000 30.647
83.00000 23.579
83.02000 21.781
83.04000 23.451
83.06000 21.085
83.08000 24.427
83.10000 25.672
83.12000 24.916
83.14000 24.029
83.16000 25.643
83.18000 27.311
83.20000 23.492
83.22000 24.360
83.24000 27.276
83.26000 28.470
83.28000 32.314
83.30000 34.195
83.32000 27.642
83.34000 23.416
83.36000 30.396
83.38000 29.892
83.40000 28.247
83.42000 27.617
83.44000 28.602
83.46000 26.673
83.48000 24.241
83.50000 21.184
83.52000 22.281
83.54000 28.742
83.56000 28.356
83.58000 18.432
83.60000 17.721
83.62000 25.052
83.64000 30.098
83.66000 29.601
83.68000 26.037
83.70000 28.106
83.72000 26.314
83.74000 19.765
83.76000 22.918
83.78000 23.976
83.80000 27.637
83.82000 26.606
83.84000 24.895
83.86000 20.343
83.88000 15.540
83.90000 13.244
83.92000 20.649
83.94000 14.169
83.96000 16.157
83.98000 21.260
84.00000 25.499
84.02000 16.780
84.04000 11.919
84.06000 14.422
84.08000 9.761
84.10000 12.163
84.12000 17.506
84.14000 18.644
84.16000 17.634
84.18000 19.510
84.20000 18.530
84.22000 12.147
84.24000 12.054
84.26000 8.941
84.28000 3.822
84.30000 7.038
84.32000 13.993
84.34000 10.484
84.36000 10.380
84.38000 13.433
84.40000 15.005
84.42000 14.404
84.44000 10.571
84.46000 5.159
84.48000 9.737
84.50000 6.052
84.52000 9.728
84.54000 9.962
84.56000 13.847
84.58000 13.806
84.60000 15.848
84.62000 8.394
84.64000 5.347
84.66000 5.723
84.68000 10.273
84.70000 8.234
84.72000 6.071
84.74000 7.111
84.76000 10.516
84.78000 7.970
84.80000 8.448
84.82000 8.623
84.84000 7.812
84.86000 7.881
84.88000 11.179
84.90000 11.356
84.92000 6.934
84.94000 9.344
84.96000 8.956
84.98000 7.578
85.00000 4.434
85.02000 4.682
85.04000 7.051
85.06000 6.450
85.08000 5.394
85.10000 1.316
85.12000 6.848
85.14000 5.502
85.16000 5.861
85.18000 2.732
85.20000 1.972
85.22000 5.748
85.24000 4.549
85.26000 -2.495
85.28000 2.794
85.30000 6.408
85.32000 4.727
85.34000 1.017
85.36000 2.261
85.38000 4.004
85.40000 7.690
85.42000 1.934
85.44000 3.497
85.46000 4.913
85.48000 4.851
85.50000 5.186
85.52000 4.871
85.54000 7.609
85.56000 8.755
85.58000 4.556
85.60000 3.811
85.62000 6.848
85.64000 4.314
85.66000 3.022
85.68000 5.896
85.70000 2.584
85.72000 1.789
85.74000 -0.923
85.76000 3.734
85.78000 3.713
85.80000 7.294
85.82000 7.164
85.84000 9.039
85.86000 4.221
85.88000 2.293
85.90000 0.781
85.92000 0.820
85.94000 5.244
85.96000 8.034
85.98000 2.935
86.00000 -2.511
86.02000 -0.127
86.04000 -2.347
86.06000 2.536
86.08000 7.681
86.10000 5.071
86.12000 6.042
86.14000 7.237
86.16000 6.564
86.18000 1.581
86.20000 4.249
86.22000 5.556
86.24000 4.821
86.26000 5.610
86.28000 0.345
86.30000 -2.525
86.32000 -0.172
86.34000 5.498
86.36000 2.642
86.38000 0.151
86.40000 6.113
86.42000 9.998
86.44000 10.406
86.46000 11.838
86.48000 7.416
86.50000 4.988
86.52000 7.415
86.54000 7.546
86.56000 11.446
86.58000 6.547
86.60000 9.363
86.62000 10.433
86.64000 4.668
86.66000 1.173
86.68000 2.727
86.70000 5.362
86.72000 5.220
86.74000 6.530
86.76000 5.757
86.78000 4.198
86.80000 5.910
86.82000 4.573
86.84000 7.419
86.86000 5.913
86.88000 9.381
86.90000 5.178
86.92000 3.768
86.94000 10.101
86.96000 11.210
86.98000 12.094
87.00000 12.599
87.02000 9.937
87.04000 6.475
87.06000 8.459
87.08000 8.412
87.10000 9.604
87.12000 9.351
87.14000 8.365
87.16000 11.027
87.18000 17.421
87.20000 19.946
87.22000 9.549
87.24000 7.098
87.26000 8.094
87.28000 8.243
87.30000 14.174
87.32000 15.449
87.34000 15.082
87.36000 16.740
87.38000 17.462
87.40000 15.295
87.42000 20.714
87.44000 20.370
87.46000 20.532
87.48000 18.174
87.50000 19.140
87.52000 20.212
87.54000 22.485
87.56000 21.327
87.58000 20.072
87.60000 20.915
87.62000 19.178
87.64000 21.522
87.66000 21.137
87.68000 18.359
87.70000 18.917
87.72000 19.756
87.74000 17.840
87.76000 17.036
87.78000 20.015
87.80000 18.964
87.82000 18.773
87.84000 21.328
87.86000 25.353
87.88000 24.332
87.90000 27.970
87.92000 24.429
87.94000 21.282
87.96000 20.552
87.98000 25.073
88.00000 25.642
88.02000 20.438
88.04000 21.797
88.06000 17.598
88.08000 18.515
88.10000 23.315
88.12000 23.535
88.14000 14.282
88.16000 14.403
88.18000 16.516
88.20000 20.021
88.22000 16.220
88.24000 19.014
88.26000 19.903
88.28000 16.428
88.30000 16.268
88.32000 12.684
88.34000 15.172
88.36000 16.666
88.38000 16.395
88.40000 11.448
88.42000 13.723
88.44000 17.142
88.46000 12.179
88.48000 16.840
88.50000 13.215
88.52000 11.509
88.54000 11.942
88.56000 14.751
88.58000 17.430
88.60000 12.930
88.62000 11.664
88.64000 9.229
88.66000 4.809
88.68000 9.352
88.70000 11.408
88.72000 9.468
88.74000 8.929
88.76000 9.521
88.78000 9.185
88.80000 6.751
88.82000 8.479
88.84000 9.712
88.86000 5.511
88.88000 4.794
88.90000 4.957
88.92000 1.747
88.94000 4.009
88.96000 5.186
88.98000 2.705
89.00000 4.953
89.02000 2.128
89.04000 6.314
89.06000 11.627
89.08000 14.401
89.10000 10.896
89.12000 5.147
89.14000 -2.169
89.16000 0.786
89.18000 3.390
89.20000 4.673
89.22000 2.864
89.24000 6.648
89.26000 8.597
89.28000 4.856
89.30000 1.495
89.32000 8.712
89.34000 4.188
89.36000 7.879
89.38000 4.239
89.40000 2.153
89.42000 3.848
89.44000 3.780
89.46000 5.502
89.48000 1.426
89.50000 -0.447
89.52000 -2.401
89.54000 1.345
89.56000 3.402
89.58000 3.425
89.60000 3.158
89.62000 6.915
89.64000 2.792
89.66000 3.669
89.68000 2.954
89.70000 -0.317
89.72000 4.000
89.74000 3.854
89.76000 -0.521
89.78000 -1.395
89.80000 2.363
89.82000 4.798
89.84000 8.367
89.86000 3.184
89.88000 2.545
89.90000 2.691
89.92000 5.627
89.94000 0.930
89.96000 -1.770
89.98000 -0.428
90.00000 2.176
90.02000 3.594
90.04000 3.907
90.06000 3.439
90.08000 3.980
90.10000 2.684
90.12000 7.166
90.14000 5.393
90.16000 5.131
90.18000 2.392
90.20000 -2.356
90.22000 -0.343
90.24000 3.102
90.26000 3.432
90.28000 3.372
90.30000 0.983
90.32000 0.663
90.34000 3.169
90.36000 2.775
90.38000 6.643
90.40000 3.843
90.42000 3.651
90.44000 0.129
90.46000 2.462
90.48000 -0.126
90.50000 -0.328
90.52000 4.392
90.54000 6.779
90.56000 1.009
90.58000 -0.261
90.60000 2.220
90.62000 2.543
90.64000 -2.323
90.66000 2.640
90.68000 3.271
90.70000 3.230
90.72000 2.313
90.74000 6.119
90.76000 2.368
90.78000 3.923
90.80000 6.500
90.82000 6.962
90.84000 5.929
90.86000 5.270
90.88000 -2.316
90.90000 3.330
90.92000 4.381
90.94000 3.613
90.96000 6.256
90.98000 6.262
91.00000 6.326
91.02000 4.164
91.04000 2.860
91.06000 1.973
91.08000 -2.318
91.10000 0.151
91.12000 2.441
91.14000 3.420
91.16000 2.850
91.18000 1.756
91.20000 2.915
91.22000 2.433
91.24000 3.710
91.26000 2.556
91.28000 3.836
91.30000 2.092
91.32000 1.477
91.34000 1.808
91.36000 2.203
91.38000 1.216
91.40000 4.545
91.42000 0.538
91.44000 2.200
91.46000 4.955
91.48000 4.826
91.50000 2.682
91.52000 7.199
91.54000 2.500
91.56000 3.898
91.58000 3.778
91.60000 -0.345
91.62000 1.832
91.64000 3.637
91.66000 2.125
91.68000 3.338
91.70000 1.495
91.72000 2.155
91.74000 1.042
91.76000 -0.827
91.78000 -1.584
91.80000 3.832
91.82000 2.714
91.84000 1.258
91.86000 -0.457
91.88000 -0.522
91.90000 -0.583
91.92000 -0.134
91.94000 5.973
91.96000 4.306
91.98000 3.170
92.00000 1.570
92.02000 5.556
92.04000 0.670
92.06000 1.613
92.08000 -2.315
92.10000 2.209
92.12000 4.326
92.14000 6.768
92.16000 6.170
92.18000 5.218
92.20000 7.303
92.22000 6.043
92.24000 7.569
92.26000 8.228
92.28000 3.906
92.30000 4.694
92.32000 4.713
92.34000 1.944
92.36000 8.643
92.38000 6.710
92.40000 -2.303
92.42000 -0.336
92.44000 -1.858
92.46000 3.213
92.48000 5.810
92.50000 6.675
92.52000 0.548
92.54000 -0.322
92.56000 1.819
92.58000 4.908
92.60000 3.175
92.62000 3.604
92.64000 1.643
92.66000 3.160
92.68000 6.499
92.70000 6.611
92.72000 8.134
92.74000 6.155
92.76000 5.866
92.78000 7.142
92.80000 3.868
92.82000 -0.608
92.84000 4.066
92.86000 6.365
92.88000 2.558
92.90000 1.327
92.92000 -1.676
92.94000 1.648
92.96000 5.814
92.98000 2.159
93.00000 0.347
93.02000 -1.032
93.04000 2.087
93.06000 3.936
93.08000 -0.030
93.10000 3.796
93.12000 9.670
93.14000 6.660
93.16000 3.676
93.18000 3.436
93.20000 3.638
93.22000 2.875
93.24000 4.303
93.26000 6.029
93.28000 8.040
93.30000 2.752
93.32000 1.637
93.34000 -1.502
93.36000 -1.041
93.38000 -2.327
93.40000 0.927
93.42000 5.351
93.44000 6.357
93.46000 6.004
93.48000 4.922
93.50000 -0.664
93.52000 2.422
93.54000 7.072
93.56000 6.664
93.58000 6.626
93.60000 2.368
93.62000 3.362
93.64000 1.831
93.66000 2.134
93.68000 3.871
93.70000 5.123
93.72000 -1.119
93.74000 -1.297
93.76000 5.739
93.78000 1.977
93.80000 -1.520
93.82000 4.679
93.84000 7.536
93.86000 4.654
93.88000 7.119
93.90000 9.631
93.92000 7.724
93.94000 1.144
93.96000 -2.314
93.98000 3.808
94.00000 5.468
94.02000 2.757
94.04000 5.855
94.06000 3.981
94.08000 5.886
94.10000 4.899
94.12000 3.357
94.14000 4.483
94.16000 2.934
94.18000 -2.309
94.20000 0.995
94.22000 4.642
94.24000 5.280
94.26000 2.098
94.28000 -2.045
94.30000 6.983
94.32000 6.792
94.34000 3.350
94.36000 0.707
94.38000 6.676
94.40000 4.515
94.42000 6.643
94.44000 10.359
94.46000 8.069
94.48000 0.842
94.50000 4.379
94.52000 4.311
94.54000 0.089
94.56000 2.700
94.58000 4.690
94.60000 5.322
94.62000 1.353
94.64000 5.703
94.66000 7.125
94.68000 4.464
94.70000 4.810
94.72000 -2.304
94.74000 -1.575
94.76000 4.927
94.78000 7.079
94.80000 9.366
94.82000 8.518
94.84000 5.574
94.86000 4.488
94.88000 5.028
94.90000 2.014
94.92000 10.696
94.94000 9.592
94.96000 6.927
94.98000 4.532
95.00000 0.684
95.02000 3.249
95.04000 5.438
95.06000 9.148
95.08000 2.887
95.10000 0.499
95.12000 5.207
95.14000 2.701
95.16000 4.299
95.18000 3.857
95.20000 4.907
95.22000 1.967
95.24000 -2.126
95.26000 -2.326
95.28000 -0.244
95.30000 4.317
95.32000 3.064
95.34000 3.698
95.36000 4.146
95.38000 6.248
95.40000 6.759
95.42000 11.402
95.44000 5.638
95.46000 3.051
95.48000 1.348
95.50000 2.197
95.52000 2.937
95.54000 3.090
95.56000 3.181
95.58000 5.974
95.60000 7.762
95.62000 5.820
95.64000 3.761
95.66000 4.294
95.68000 2.659
95.70000 5.300
95.72000 6.755
95.74000 0.712
95.76000 3.012
95.78000 0.960
95.80000 5.078
95.82000 6.254
95.84000 8.126
95.86000 2.139
95.88000 5.733
95.90000 8.365
95.92000 7.458
95.94000 2.698
95.96000 2.109
95.98000 1.000
96.00000 1.917
96.02000 3.418
96.04000 5.220
96.06000 2.332
96.08000 -1.481
96.10000 0.945
96.12000 6.566
96.14000 6.352
96.16000 4.549
96.18000 3.901
96.20000 -2.538
96.22000 8.063
96.24000 13.805
96.26000 6.441
96.28000 -0.072
96.30000 -0.587
96.32000 0.631
96.34000 -2.036
96.36000 3.083
96.38000 8.254
96.40000 1.803
96.42000 7.261
96.44000 4.008
96.46000 5.137
96.48000 2.649
96.50000 8.027
96.52000 6.773
96.54000 4.942
96.56000 2.337
96.58000 2.866
96.60000 3.438
96.62000 3.558
96.64000 -1.282
96.66000 -2.330
96.68000 4.846
96.70000 4.433
96.72000 5.218
96.74000 3.137
96.76000 -1.049
96.78000 0.762
96.80000 5.343
96.82000 -0.377
96.84000 -1.604
96.86000 5.529
96.88000 12.462
96.90000 8.155
96.92000 -0.638
96.94000 1.554
96.96000 3.787
96.98000 5.179
97.00000 3.325
97.02000 3.916
97.04000 4.826
97.06000 6.702
97.08000 8.273
97.10000 8.382
97.12000 6.201
97.14000 3.492
97.16000 1.564
97.18000 5.159
97.20000 7.656
97.22000 9.791
97.24000 4.047
97.26000 0.739
97.28000 1.691
97.30000 6.428
97.32000 8.707
97.34000 14.568
97.36000 9.806
97.38000 7.189
97.40000 3.661
97.42000 1.794
97.44000 1.974
97.46000 0.535
97.48000 2.624
97.50000 4.072
97.52000 11.796
97.54000 6.273
97.56000 6.595
97.58000 4.379
97.60000 3.313
97.62000 7.565
97.64000 7.000
97.66000 11.193
97.68000 10.498
97.70000 4.653
97.72000 0.802
97.74000 5.818
97.76000 7.967
97.78000 11.358
97.80000 4.099
97.82000 4.113
97.84000 5.801
97.86000 4.157
97.88000 3.570
97.90000 6.290
97.92000 1.165
97.94000 -2.255
97.96000 2.712
97.98000 6.842
98.00000 8.109
98.02000 6.312
98.04000 9.914
98.06000 12.521
98.08000 8.535
98.10000 6.235
98.12000 8.306
98.14000 5.342
98.16000 5.041
98.18000 4.442
98.20000 7.075
98.22000 4.776
98.24000 7.089
98.26000 5.681
98.28000 5.393
98.30000 1.930
98.32000 10.019
98.34000 8.951
98.36000 -4.232
98.38000 2.168
98.40000 5.591
98.42000 9.636
98.44000 8.703
98.46000 13.741
98.48000 9.924
98.50000 2.103
98.52000 2.902
98.54000 4.940
98.56000 7.913
98.58000 3.494
98.60000 7.650
98.62000 13.751
98.64000 18.220
98.66000 21.654
98.68000 14.223
98.70000 4.786
98.72000 0.204
98.74000 0.958
98.76000 -1.501
98.78000 8.215
98.80000 6.365
98.82000 1.698
98.84000 4.438
98.86000 1.309
98.88000 4.575
98.90000 0.536
98.92000 12.219
98.94000 11.212
98.96000 16.233
98.98000 9.369
99.00000 1.678
99.02000 8.667
99.04000 15.203
99.06000 3.362
99.08000 -1.581
99.10000 6.068
99.12000 5.858
99.14000 4.184
99.16000 14.225
99.18000 27.585
99.20000 22.357
99.22000 4.311
99.24000 6.508
99.26000 18.590
99.28000 9.412
99.30000 8.975
99.32000 7.264
99.34000 16.987
99.36000 7.396
99.38000 -2.228
99.40000 0.940
99.42000 5.674
99.44000 9.510
99.46000 0.501
99.48000 4.287
99.50000 9.219
99.52000 6.338
99.54000 4.800
99.56000 7.675
99.58000 3.326
99.60000 19.178
99.62000 6.797
99.64000 5.329
99.66000 -3.038
99.68000 5.664
99.70000 8.404
99.72000 6.556
99.74000 1.210
99.76000 1.375
99.78000 8.939
99.80000 13.733
99.82000 7.747
99.84000 8.533
99.86000 5.185
99.88000 -2.307
99.90000 -0.850
99.92000 -1.471
99.94000 -2.347
99.96000 -0.018
99.98000 0.000
