'Id: "0011388" Comment: "Integrate frame 0011388_Au-Ir-Rh_Rh-rich_XRD-Mapping-299-0000.gfrmwith cursor Wedge Cursor #5" Operator: "B?rgel" Anode: "Cu" Wavelength: "1.5406" Scantype: "2Theta (TwoTheta)" TimePerStep: "1" X: "-18" Y: "31.5" Z: "5.95" 
10.00000 0.000
10.02000 -4.538
10.04000 0.315
10.06000 -0.280
10.08000 -1.455
10.10000 21.038
10.12000 32.743
10.14000 28.313
10.16000 10.635
10.18000 -4.466
10.20000 1.747
10.22000 9.684
10.24000 4.422
10.26000 -1.400
10.28000 13.252
10.30000 11.258
10.32000 12.886
10.34000 12.930
10.36000 5.180
10.38000 -0.207
10.40000 9.874
10.42000 16.972
10.44000 8.346
10.46000 13.961
10.48000 5.678
10.50000 13.377
10.52000 18.685
10.54000 13.672
10.56000 14.734
10.58000 -2.202
10.60000 -1.019
10.62000 1.732
10.64000 10.461
10.66000 12.906
10.68000 11.871
10.70000 10.459
10.72000 4.177
10.74000 4.143
10.76000 16.938
10.78000 20.591
10.80000 17.372
10.82000 5.892
10.84000 0.001
10.86000 -1.927
10.88000 1.000
10.90000 7.256
10.92000 4.752
10.94000 12.807
10.96000 6.188
10.98000 -4.483
11.00000 9.227
11.02000 3.212
11.04000 3.788
11.06000 18.991
11.08000 13.139
11.10000 4.345
11.12000 3.804
11.14000 15.677
11.16000 15.871
11.18000 8.644
11.20000 10.004
11.22000 22.569
11.24000 15.376
11.26000 0.831
11.28000 4.595
11.30000 0.114
11.32000 3.065
11.34000 -1.138
11.36000 4.552
11.38000 15.763
11.40000 15.600
11.42000 8.530
11.44000 10.501
11.46000 5.455
11.48000 7.557
11.50000 11.175
11.52000 5.353
11.54000 7.342
11.56000 20.979
11.58000 14.884
11.60000 10.894
11.62000 8.561
11.64000 10.940
11.66000 12.387
11.68000 11.721
11.70000 18.494
11.72000 8.529
11.74000 1.350
11.76000 12.937
11.78000 21.065
11.80000 9.345
11.82000 2.677
11.84000 14.443
11.86000 10.813
11.88000 3.622
11.90000 2.221
11.92000 -4.524
11.94000 3.565
11.96000 11.249
11.98000 14.117
12.00000 5.622
12.02000 4.303
12.04000 11.195
12.06000 4.821
12.08000 -1.619
12.10000 18.794
12.12000 29.671
12.14000 16.320
12.16000 16.584
12.18000 19.816
12.20000 19.207
12.22000 9.909
12.24000 10.907
12.26000 1.422
12.28000 -0.579
12.30000 8.848
12.32000 9.091
12.34000 6.770
12.36000 5.228
12.38000 1.206
12.40000 13.008
12.42000 22.035
12.44000 9.562
12.46000 7.708
12.48000 5.712
12.50000 7.173
12.52000 11.921
12.54000 4.849
12.56000 10.091
12.58000 10.796
12.60000 11.221
12.62000 12.111
12.64000 4.501
12.66000 6.357
12.68000 13.688
12.70000 16.283
12.72000 6.942
12.74000 9.569
12.76000 7.568
12.78000 5.814
12.80000 -0.153
12.82000 2.087
12.84000 9.936
12.86000 5.249
12.88000 2.754
12.90000 7.474
12.92000 10.166
12.94000 0.750
12.96000 2.779
12.98000 8.499
13.00000 11.811
13.02000 5.211
13.04000 2.555
13.06000 7.696
13.08000 7.062
13.10000 13.871
13.12000 5.097
13.14000 0.661
13.16000 -0.470
13.18000 -0.052
13.20000 5.819
13.22000 19.939
13.24000 16.404
13.26000 4.834
13.28000 3.612
13.30000 0.872
13.32000 -0.888
13.34000 -1.242
13.36000 5.244
13.38000 5.913
13.40000 10.118
13.42000 13.327
13.44000 6.706
13.46000 6.402
13.48000 7.783
13.50000 11.227
13.52000 1.229
13.54000 10.691
13.56000 2.515
13.58000 3.138
13.60000 7.230
13.62000 12.684
13.64000 9.728
13.66000 5.968
13.68000 8.774
13.70000 10.254
13.72000 16.686
13.74000 14.158
13.76000 6.994
13.78000 3.773
13.80000 5.945
13.82000 3.131
13.84000 -4.543
13.86000 0.516
13.88000 8.294
13.90000 9.458
13.92000 15.539
13.94000 6.963
13.96000 3.062
13.98000 2.859
14.00000 -4.284
14.02000 3.350
14.04000 1.526
14.06000 3.003
14.08000 -0.214
14.10000 4.958
14.12000 5.695
14.14000 2.500
14.16000 0.318
14.18000 4.563
14.20000 5.762
14.22000 2.594
14.24000 3.525
14.26000 7.907
14.28000 2.751
14.30000 3.902
14.32000 6.587
14.34000 6.998
14.36000 10.525
14.38000 1.395
14.40000 -0.405
14.42000 9.081
14.44000 12.601
14.46000 5.422
14.48000 11.203
14.50000 10.421
14.52000 7.000
14.54000 5.811
14.56000 5.243
14.58000 1.823
14.60000 9.312
14.62000 7.818
14.64000 -2.795
14.66000 2.812
14.68000 4.791
14.70000 3.213
14.72000 4.003
14.74000 -0.933
14.76000 2.566
14.78000 10.884
14.80000 5.840
14.82000 4.793
14.84000 9.142
14.86000 2.991
14.88000 5.930
14.90000 6.154
14.92000 4.064
14.94000 11.573
14.96000 7.569
14.98000 5.343
15.00000 5.131
15.02000 2.605
15.04000 1.777
15.06000 3.660
15.08000 4.106
15.10000 1.575
15.12000 2.562
15.14000 -4.512
15.16000 -1.915
15.18000 0.605
15.20000 4.517
15.22000 3.268
15.24000 -0.848
15.26000 4.206
15.28000 13.206
15.30000 10.510
15.32000 4.283
15.34000 -0.185
15.36000 -3.915
15.38000 -3.230
15.40000 5.172
15.42000 12.279
15.44000 4.552
15.46000 3.619
15.48000 4.748
15.50000 7.209
15.52000 6.906
15.54000 3.999
15.56000 9.531
15.58000 15.763
15.60000 8.936
15.62000 11.138
15.64000 9.788
15.66000 6.349
15.68000 9.067
15.70000 -0.176
15.72000 -3.330
15.74000 -2.670
15.76000 -3.658
15.78000 3.804
15.80000 6.385
15.82000 7.838
15.84000 2.200
15.86000 0.487
15.88000 0.092
15.90000 11.273
15.92000 11.400
15.94000 4.879
15.96000 -0.812
15.98000 -1.931
16.00000 2.517
16.02000 8.434
16.04000 14.598
16.06000 2.869
16.08000 1.025
16.10000 9.260
16.12000 4.068
16.14000 9.269
16.16000 4.267
16.18000 1.702
16.20000 8.851
16.22000 6.017
16.24000 4.485
16.26000 6.889
16.28000 4.133
16.30000 -2.100
16.32000 7.430
16.34000 6.267
16.36000 7.532
16.38000 12.904
16.40000 7.421
16.42000 2.427
16.44000 -4.440
16.46000 2.494
16.48000 9.572
16.50000 10.513
16.52000 7.795
16.54000 10.478
16.56000 12.851
16.58000 -3.898
16.60000 -2.840
16.62000 2.106
16.64000 10.653
16.66000 12.692
16.68000 15.251
16.70000 7.022
16.72000 4.947
16.74000 11.773
16.76000 11.576
16.78000 14.000
16.80000 15.496
16.82000 7.058
16.84000 14.083
16.86000 9.151
16.88000 8.866
16.90000 7.951
16.92000 6.073
16.94000 2.974
16.96000 1.548
16.98000 6.662
17.00000 19.096
17.02000 15.588
17.04000 10.410
17.06000 9.431
17.08000 13.370
17.10000 3.691
17.12000 0.761
17.14000 -1.355
17.16000 6.301
17.18000 8.546
17.20000 4.973
17.22000 5.034
17.24000 10.781
17.26000 5.646
17.28000 -3.314
17.30000 4.548
17.32000 10.333
17.34000 3.759
17.36000 4.878
17.38000 4.716
17.40000 3.825
17.42000 9.278
17.44000 8.027
17.46000 16.542
17.48000 17.732
17.50000 7.870
17.52000 5.983
17.54000 11.425
17.56000 7.869
17.58000 -4.390
17.60000 0.931
17.62000 6.622
17.64000 11.427
17.66000 12.911
17.68000 8.857
17.70000 2.465
17.72000 1.754
17.74000 -4.380
17.76000 3.271
17.78000 5.002
17.80000 -2.381
17.82000 0.378
17.84000 6.455
17.86000 7.204
17.88000 9.727
17.90000 4.359
17.92000 1.407
17.94000 12.953
17.96000 10.426
17.98000 5.307
18.00000 0.778
18.02000 -1.066
18.04000 -1.778
18.06000 -3.022
18.08000 1.422
18.10000 6.230
18.12000 3.071
18.14000 5.302
18.16000 1.470
18.18000 -3.907
18.20000 7.600
18.22000 13.032
18.24000 9.412
18.26000 2.086
18.28000 -0.191
18.30000 4.059
18.32000 -0.586
18.34000 0.650
18.36000 3.167
18.38000 8.492
18.40000 2.959
18.42000 7.498
18.44000 3.644
18.46000 7.903
18.48000 8.580
18.50000 6.468
18.52000 5.759
18.54000 4.238
18.56000 8.979
18.58000 4.295
18.60000 4.318
18.62000 6.557
18.64000 5.468
18.66000 8.273
18.68000 5.990
18.70000 4.021
18.72000 5.680
18.74000 3.443
18.76000 -1.459
18.78000 8.691
18.80000 7.325
18.82000 0.900
18.84000 3.545
18.86000 5.342
18.88000 5.901
18.90000 1.416
18.92000 -1.954
18.94000 3.961
18.96000 11.769
18.98000 8.393
19.00000 7.333
19.02000 12.600
19.04000 8.607
19.06000 2.609
19.08000 2.632
19.10000 1.317
19.12000 4.353
19.14000 2.894
19.16000 0.532
19.18000 6.160
19.20000 -0.074
19.22000 -1.386
19.24000 1.447
19.26000 5.091
19.28000 6.516
19.30000 6.898
19.32000 4.466
19.34000 9.832
19.36000 11.950
19.38000 9.077
19.40000 5.185
19.42000 -0.141
19.44000 3.363
19.46000 5.910
19.48000 3.790
19.50000 7.565
19.52000 12.476
19.54000 11.206
19.56000 2.917
19.58000 9.885
19.60000 7.306
19.62000 2.241
19.64000 -4.267
19.66000 -1.174
19.68000 -4.136
19.70000 5.663
19.72000 15.436
19.74000 17.155
19.76000 2.103
19.78000 -4.255
19.80000 1.284
19.82000 1.863
19.84000 7.789
19.86000 4.354
19.88000 9.671
19.90000 2.838
19.92000 7.011
19.94000 8.484
19.96000 2.377
19.98000 4.800
20.00000 9.854
20.02000 9.674
20.04000 10.319
20.06000 6.920
20.08000 6.732
20.10000 11.687
20.12000 9.797
20.14000 7.971
20.16000 8.369
20.18000 12.719
20.20000 5.350
20.22000 3.499
20.24000 6.682
20.26000 13.047
20.28000 5.726
20.30000 3.539
20.32000 4.478
20.34000 2.366
20.36000 -4.216
20.38000 2.652
20.40000 1.815
20.42000 2.533
20.44000 7.278
20.46000 4.900
20.48000 7.655
20.50000 9.046
20.52000 4.515
20.54000 11.032
20.56000 13.069
20.58000 11.978
20.60000 8.919
20.62000 7.007
20.64000 13.877
20.66000 12.773
20.68000 8.605
20.70000 8.973
20.72000 10.785
20.74000 7.428
20.76000 8.262
20.78000 5.385
20.80000 5.519
20.82000 10.813
20.84000 6.364
20.86000 8.384
20.88000 9.158
20.90000 9.791
20.92000 5.230
20.94000 2.555
20.96000 0.861
20.98000 5.267
21.00000 7.247
21.02000 7.231
21.04000 9.671
21.06000 9.594
21.08000 10.062
21.10000 5.792
21.12000 6.654
21.14000 4.810
21.16000 8.274
21.18000 5.470
21.20000 -0.882
21.22000 0.815
21.24000 1.327
21.26000 2.022
21.28000 1.625
21.30000 8.568
21.32000 -0.050
21.34000 -4.161
21.36000 4.331
21.38000 8.096
21.40000 3.019
21.42000 3.219
21.44000 3.456
21.46000 6.525
21.48000 0.595
21.50000 4.038
21.52000 4.927
21.54000 0.569
21.56000 8.800
21.58000 9.475
21.60000 5.303
21.62000 10.106
21.64000 13.229
21.66000 3.691
21.68000 2.870
21.70000 4.792
21.72000 7.398
21.74000 11.501
21.76000 7.163
21.78000 7.752
21.80000 2.326
21.82000 5.579
21.84000 6.851
21.86000 7.396
21.88000 7.535
21.90000 6.484
21.92000 9.478
21.94000 8.417
21.96000 5.714
21.98000 9.508
22.00000 6.247
22.02000 4.330
22.04000 3.947
22.06000 0.302
22.08000 -0.047
22.10000 -4.131
22.12000 -2.358
22.14000 4.457
22.16000 3.175
22.18000 8.109
22.20000 3.796
22.22000 -2.485
22.24000 -0.615
22.26000 -2.262
22.28000 -0.762
22.30000 6.739
22.32000 3.730
22.34000 -1.546
22.36000 2.357
22.38000 9.972
22.40000 7.247
22.42000 7.722
22.44000 11.476
22.46000 10.446
22.48000 15.166
22.50000 14.087
22.52000 4.182
22.54000 5.222
22.56000 2.082
22.58000 5.646
22.60000 8.863
22.62000 13.856
22.64000 10.586
22.66000 9.039
22.68000 12.742
22.70000 4.176
22.72000 6.064
22.74000 6.469
22.76000 4.132
22.78000 7.988
22.80000 7.029
22.82000 0.992
22.84000 -4.095
22.86000 3.280
22.88000 7.034
22.90000 10.433
22.92000 3.703
22.94000 2.440
22.96000 9.467
22.98000 7.222
23.00000 7.140
23.02000 5.570
23.04000 -1.754
23.06000 1.531
23.08000 6.266
23.10000 4.177
23.12000 5.078
23.14000 3.125
23.16000 -0.043
23.18000 6.687
23.20000 3.165
23.22000 2.641
23.24000 7.719
23.26000 2.731
23.28000 2.714
23.30000 4.544
23.32000 4.042
23.34000 2.489
23.36000 -4.063
23.38000 0.019
23.40000 5.689
23.42000 2.501
23.44000 1.500
23.46000 8.232
23.48000 7.722
23.50000 1.529
23.52000 3.529
23.54000 4.261
23.56000 -0.041
23.58000 1.874
23.60000 4.793
23.62000 7.615
23.64000 7.934
23.66000 6.941
23.68000 2.900
23.70000 1.919
23.72000 0.114
23.74000 3.511
23.76000 9.428
23.78000 10.016
23.80000 3.028
23.82000 5.438
23.84000 1.476
23.86000 4.933
23.88000 3.903
23.90000 7.179
23.92000 6.840
23.94000 2.697
23.96000 4.605
23.98000 9.850
24.00000 10.542
24.02000 12.040
24.04000 7.656
24.06000 7.290
24.08000 7.680
24.10000 1.766
24.12000 2.206
24.14000 1.059
24.16000 -2.024
24.18000 -4.044
24.20000 -0.464
24.22000 -0.283
24.24000 1.758
24.26000 0.789
24.28000 -0.199
24.30000 7.129
24.32000 5.429
24.34000 2.579
24.36000 0.799
24.38000 1.685
24.40000 4.844
24.42000 4.483
24.44000 4.818
24.46000 -0.880
24.48000 -1.694
24.50000 3.832
24.52000 6.273
24.54000 -1.247
24.56000 -1.710
24.58000 2.027
24.60000 4.073
24.62000 -3.464
24.64000 1.144
24.66000 1.369
24.68000 -2.354
24.70000 0.478
24.72000 1.810
24.74000 1.276
24.76000 3.772
24.78000 1.760
24.80000 1.808
24.82000 0.727
24.84000 -2.143
24.86000 2.830
24.88000 8.122
24.90000 2.291
24.92000 -2.838
24.94000 2.448
24.96000 4.937
24.98000 4.777
25.00000 5.619
25.02000 0.960
25.04000 -1.469
25.06000 -2.089
25.08000 -1.207
25.10000 5.096
25.12000 4.866
25.14000 4.386
25.16000 9.640
25.18000 4.829
25.20000 3.260
25.22000 2.729
25.24000 4.997
25.26000 4.072
25.28000 3.657
25.30000 0.803
25.32000 7.633
25.34000 -0.037
25.36000 0.406
25.38000 3.904
25.40000 4.962
25.42000 2.084
25.44000 0.186
25.46000 4.141
25.48000 5.271
25.50000 4.741
25.52000 1.929
25.54000 -1.535
25.56000 -1.159
25.58000 2.688
25.60000 -2.729
25.62000 -3.959
25.64000 -2.283
25.66000 3.485
25.68000 3.328
25.70000 6.352
25.72000 5.225
25.74000 2.160
25.76000 5.938
25.78000 2.854
25.80000 -2.676
25.82000 1.434
25.84000 2.865
25.86000 3.171
25.88000 7.523
25.90000 9.512
25.92000 4.271
25.94000 -0.123
25.96000 2.049
25.98000 5.042
26.00000 3.706
26.02000 1.378
26.04000 -0.870
26.06000 0.449
26.08000 -1.005
26.10000 2.854
26.12000 5.516
26.14000 0.168
26.16000 -3.185
26.18000 -1.332
26.20000 -0.482
26.22000 5.391
26.24000 8.297
26.26000 4.699
26.28000 0.316
26.30000 -3.096
26.32000 -0.126
26.34000 -0.581
26.36000 0.558
26.38000 2.021
26.40000 2.780
26.42000 5.953
26.44000 8.624
26.46000 7.911
26.48000 2.698
26.50000 7.592
26.52000 4.069
26.54000 7.730
26.56000 9.198
26.58000 7.926
26.60000 6.052
26.62000 7.922
26.64000 5.597
26.66000 4.138
26.68000 2.729
26.70000 7.717
26.72000 7.617
26.74000 4.240
26.76000 7.728
26.78000 3.512
26.80000 7.574
26.82000 8.259
26.84000 5.941
26.86000 3.288
26.88000 0.252
26.90000 3.729
26.92000 1.200
26.94000 0.505
26.96000 3.909
26.98000 8.201
27.00000 7.467
27.02000 8.893
27.04000 8.266
27.06000 4.003
27.08000 3.214
27.10000 1.671
27.12000 -3.887
27.14000 -1.001
27.16000 4.750
27.18000 5.323
27.20000 2.267
27.22000 1.567
27.24000 3.062
27.26000 6.919
27.28000 10.765
27.30000 0.506
27.32000 -3.180
27.34000 1.376
27.36000 1.965
27.38000 5.178
27.40000 3.710
27.42000 -1.885
27.44000 2.243
27.46000 6.720
27.48000 2.667
27.50000 -2.471
27.52000 2.909
27.54000 -3.279
27.56000 -3.860
27.58000 0.110
27.60000 0.112
27.62000 -1.715
27.64000 -0.409
27.66000 2.182
27.68000 4.392
27.70000 3.896
27.72000 2.980
27.74000 4.710
27.76000 7.123
27.78000 4.313
27.80000 6.713
27.82000 1.523
27.84000 0.200
27.86000 -2.289
27.88000 -3.263
27.90000 0.311
27.92000 2.996
27.94000 0.948
27.96000 -0.840
27.98000 -1.009
28.00000 0.140
28.02000 4.752
28.04000 5.879
28.06000 4.470
28.08000 5.419
28.10000 5.703
28.12000 8.980
28.14000 6.139
28.16000 0.411
28.18000 5.572
28.20000 4.362
28.22000 3.349
28.24000 4.531
28.26000 4.465
28.28000 8.096
28.30000 6.371
28.32000 8.793
28.34000 7.385
28.36000 3.364
28.38000 0.306
28.40000 0.928
28.42000 1.843
28.44000 0.531
28.46000 1.424
28.48000 -3.779
28.50000 -1.471
28.52000 2.436
28.54000 6.539
28.56000 7.642
28.58000 8.045
28.60000 6.993
28.62000 -0.972
28.64000 1.484
28.66000 3.029
28.68000 9.957
28.70000 5.049
28.72000 7.755
28.74000 4.845
28.76000 6.339
28.78000 2.094
28.80000 -2.587
28.82000 -2.076
28.84000 1.659
28.86000 3.844
28.88000 4.012
28.90000 -3.771
28.92000 -1.744
28.94000 1.837
28.96000 1.188
28.98000 2.137
29.00000 7.471
29.02000 1.868
29.04000 1.365
29.06000 4.504
29.08000 4.116
29.10000 5.523
29.12000 4.814
29.14000 1.711
29.16000 4.513
29.18000 2.989
29.20000 6.505
29.22000 5.320
29.24000 0.868
29.26000 2.741
29.28000 0.998
29.30000 3.171
29.32000 5.208
29.34000 8.904
29.36000 1.883
29.38000 -0.074
29.40000 1.751
29.42000 5.331
29.44000 1.255
29.46000 -0.367
29.48000 6.525
29.50000 3.597
29.52000 5.920
29.54000 2.197
29.56000 0.360
29.58000 2.686
29.60000 0.780
29.62000 1.724
29.64000 2.794
29.66000 4.882
29.68000 8.548
29.70000 4.742
29.72000 -3.734
29.74000 1.847
29.76000 3.738
29.78000 1.715
29.80000 -0.806
29.82000 1.623
29.84000 2.076
29.86000 10.213
29.88000 9.258
29.90000 5.008
29.92000 -0.430
29.94000 0.789
29.96000 0.841
29.98000 0.427
30.00000 6.735
30.02000 11.550
30.04000 5.777
30.06000 5.545
30.08000 1.124
30.10000 3.630
30.12000 3.283
30.14000 8.164
30.16000 6.059
30.18000 6.001
30.20000 2.482
30.22000 4.220
30.24000 7.239
30.26000 4.395
30.28000 5.154
30.30000 3.614
30.32000 6.640
30.34000 3.770
30.36000 3.023
30.38000 1.027
30.40000 -3.694
30.42000 2.909
30.44000 11.637
30.46000 6.752
30.48000 6.080
30.50000 7.292
30.52000 8.477
30.54000 3.764
30.56000 9.555
30.58000 9.418
30.60000 7.424
30.62000 5.282
30.64000 4.453
30.66000 0.287
30.68000 5.940
30.70000 5.641
30.72000 7.479
30.74000 0.676
30.76000 0.524
30.78000 2.239
30.80000 1.136
30.82000 1.785
30.84000 6.390
30.86000 1.655
30.88000 -1.415
30.90000 2.828
30.92000 2.943
30.94000 4.849
30.96000 3.785
30.98000 4.179
31.00000 5.100
31.02000 7.826
31.04000 6.970
31.06000 6.833
31.08000 1.094
31.10000 5.114
31.12000 6.328
31.14000 6.940
31.16000 0.833
31.18000 -1.120
31.20000 -3.645
31.22000 0.563
31.24000 3.470
31.26000 -1.857
31.28000 -2.264
31.30000 0.664
31.32000 2.651
31.34000 6.859
31.36000 6.846
31.38000 9.249
31.40000 10.156
31.42000 6.168
31.44000 4.609
31.46000 6.613
31.48000 6.343
31.50000 5.422
31.52000 1.772
31.54000 2.945
31.56000 3.393
31.58000 3.960
31.60000 1.185
31.62000 2.915
31.64000 3.407
31.66000 6.392
31.68000 4.241
31.70000 1.419
31.72000 1.775
31.74000 4.431
31.76000 1.044
31.78000 4.081
31.80000 9.791
31.82000 4.679
31.84000 1.246
31.86000 4.171
31.88000 7.993
31.90000 7.296
31.92000 5.830
31.94000 6.861
31.96000 4.602
31.98000 6.452
32.00000 6.448
32.02000 4.909
32.04000 3.004
32.06000 0.750
32.08000 0.544
32.10000 2.047
32.12000 0.252
32.14000 -3.637
32.16000 0.370
32.18000 2.094
32.20000 0.993
32.22000 -0.969
32.24000 2.155
32.26000 3.540
32.28000 2.888
32.30000 4.628
32.32000 4.281
32.34000 4.324
32.36000 9.268
32.38000 5.588
32.40000 3.157
32.42000 5.460
32.44000 0.469
32.46000 3.448
32.48000 7.076
32.50000 2.234
32.52000 -0.532
32.54000 -1.241
32.56000 -1.069
32.58000 1.362
32.60000 1.615
32.62000 3.314
32.64000 4.763
32.66000 2.817
32.68000 0.445
32.70000 5.662
32.72000 9.395
32.74000 3.259
32.76000 -3.610
32.78000 -2.719
32.80000 5.355
32.82000 7.054
32.84000 -2.734
32.86000 -1.335
32.88000 5.551
32.90000 5.491
32.92000 6.493
32.94000 6.783
32.96000 3.151
32.98000 5.184
33.00000 4.137
33.02000 1.912
33.04000 3.279
33.06000 -0.200
33.08000 4.729
33.10000 4.357
33.12000 7.649
33.14000 6.074
33.16000 0.896
33.18000 2.171
33.20000 5.528
33.22000 0.880
33.24000 1.142
33.26000 3.662
33.28000 -1.291
33.30000 -0.832
33.32000 2.904
33.34000 6.141
33.36000 5.074
33.38000 2.229
33.40000 -2.327
33.42000 -0.905
33.44000 2.401
33.46000 -0.887
33.48000 -1.743
33.50000 0.652
33.52000 0.752
33.54000 1.557
33.56000 2.404
33.58000 4.294
33.60000 3.472
33.62000 2.083
33.64000 3.741
33.66000 3.215
33.68000 3.150
33.70000 5.151
33.72000 -0.903
33.74000 2.809
33.76000 1.499
33.78000 7.730
33.80000 1.787
33.82000 3.831
33.84000 6.703
33.86000 8.143
33.88000 4.705
33.90000 3.545
33.92000 -2.121
33.94000 -1.864
33.96000 -1.081
33.98000 0.272
34.00000 -0.414
34.02000 -0.922
34.04000 1.583
34.06000 3.604
34.08000 3.298
34.10000 3.291
34.12000 3.345
34.14000 -1.832
34.16000 2.004
34.18000 4.198
34.20000 4.679
34.22000 5.942
34.24000 4.306
34.26000 -0.094
34.28000 5.264
34.30000 11.214
34.32000 8.991
34.34000 1.736
34.36000 -1.510
34.38000 1.233
34.40000 1.127
34.42000 3.227
34.44000 7.485
34.46000 1.922
34.48000 -0.264
34.50000 0.403
34.52000 -1.933
34.54000 -1.163
34.56000 1.208
34.58000 -0.299
34.60000 -0.544
34.62000 1.206
34.64000 -0.259
34.66000 0.096
34.68000 -0.723
34.70000 -1.911
34.72000 3.493
34.74000 0.932
34.76000 0.958
34.78000 -2.606
34.80000 -1.682
34.82000 0.357
34.84000 2.718
34.86000 6.141
34.88000 3.418
34.90000 1.341
34.92000 3.158
34.94000 5.150
34.96000 4.230
34.98000 1.940
35.00000 -3.601
35.02000 -3.195
35.04000 2.625
35.06000 5.147
35.08000 4.507
35.10000 0.215
35.12000 3.541
35.14000 7.882
35.16000 3.312
35.18000 -2.003
35.20000 -3.325
35.22000 -0.424
35.24000 0.881
35.26000 3.168
35.28000 1.657
35.30000 3.501
35.32000 2.514
35.34000 0.137
35.36000 2.419
35.38000 1.577
35.40000 -2.563
35.42000 -0.846
35.44000 0.899
35.46000 -1.901
35.48000 -0.498
35.50000 4.643
35.52000 5.523
35.54000 0.189
35.56000 -1.390
35.58000 -1.121
35.60000 3.206
35.62000 7.177
35.64000 3.126
35.66000 -2.508
35.68000 -0.865
35.70000 -1.611
35.72000 -1.375
35.74000 2.961
35.76000 -0.751
35.78000 -0.491
35.80000 1.868
35.82000 -1.209
35.84000 -3.625
35.86000 -2.799
35.88000 -2.660
35.90000 0.473
35.92000 1.309
35.94000 6.799
35.96000 6.016
35.98000 0.966
36.00000 4.056
36.02000 4.267
36.04000 -3.638
36.06000 -0.948
36.08000 1.482
36.10000 -1.475
36.12000 -0.843
36.14000 4.730
36.16000 2.613
36.18000 0.660
36.20000 4.446
36.22000 5.312
36.24000 4.778
36.26000 4.682
36.28000 2.473
36.30000 -2.392
36.32000 -2.276
36.34000 0.578
36.36000 2.858
36.38000 4.572
36.40000 1.439
36.42000 1.184
36.44000 1.630
36.46000 -0.852
36.48000 -3.660
36.50000 -1.311
36.52000 1.086
36.54000 -0.723
36.56000 -3.429
36.58000 -2.661
36.60000 1.992
36.62000 1.338
36.64000 -3.668
36.66000 0.133
36.68000 -2.964
36.70000 0.243
36.72000 2.229
36.74000 3.765
36.76000 2.471
36.78000 4.774
36.80000 0.967
36.82000 -3.684
36.84000 -1.970
36.86000 4.444
36.88000 2.675
36.90000 1.514
36.92000 4.445
36.94000 3.907
36.96000 -1.287
36.98000 -1.645
37.00000 5.052
37.02000 1.919
37.04000 -2.927
37.06000 2.288
37.08000 1.859
37.10000 0.630
37.12000 3.317
37.14000 2.607
37.16000 3.141
37.18000 2.846
37.20000 2.140
37.22000 4.720
37.24000 3.674
37.26000 3.479
37.28000 3.492
37.30000 0.339
37.32000 0.801
37.34000 0.224
37.36000 -0.199
37.38000 5.432
37.40000 0.868
37.42000 0.956
37.44000 2.968
37.46000 8.152
37.48000 8.894
37.50000 10.531
37.52000 7.472
37.54000 7.586
37.56000 5.043
37.58000 3.605
37.60000 6.436
37.62000 8.335
37.64000 5.508
37.66000 3.817
37.68000 4.850
37.70000 8.275
37.72000 11.396
37.74000 9.873
37.76000 4.673
37.78000 6.630
37.80000 8.675
37.82000 9.647
37.84000 11.062
37.86000 13.152
37.88000 14.826
37.90000 13.716
37.92000 14.127
37.94000 12.328
37.96000 14.184
37.98000 13.401
38.00000 12.348
38.02000 13.741
38.04000 17.842
38.06000 16.516
38.08000 18.310
38.10000 27.860
38.12000 22.665
38.14000 21.635
38.16000 18.573
38.18000 17.414
38.20000 20.277
38.22000 23.185
38.24000 26.407
38.26000 24.744
38.28000 28.760
38.30000 28.201
38.32000 32.230
38.34000 36.400
38.36000 37.294
38.38000 34.730
38.40000 31.182
38.42000 33.441
38.44000 39.799
38.46000 38.990
38.48000 44.571
38.50000 44.589
38.52000 47.093
38.54000 44.286
38.56000 40.457
38.58000 41.811
38.60000 45.647
38.62000 50.160
38.64000 58.291
38.66000 58.689
38.68000 55.896
38.70000 56.030
38.72000 57.763
38.74000 64.554
38.76000 70.328
38.78000 63.035
38.80000 62.138
38.82000 66.991
38.84000 70.214
38.86000 76.529
38.88000 82.368
38.90000 86.597
38.92000 94.651
38.94000 100.978
38.96000 95.841
38.98000 98.214
39.00000 108.553
39.02000 108.074
39.04000 113.274
39.06000 120.084
39.08000 120.197
39.10000 131.310
39.12000 147.898
39.14000 148.160
39.16000 146.407
39.18000 152.830
39.20000 161.075
39.22000 173.228
39.24000 181.733
39.26000 189.413
39.28000 194.400
39.30000 209.213
39.32000 219.091
39.34000 227.548
39.36000 243.558
39.38000 255.113
39.40000 260.778
39.42000 273.138
39.44000 287.434
39.46000 298.627
39.48000 322.127
39.50000 333.133
39.52000 350.921
39.54000 362.324
39.56000 381.653
39.58000 403.189
39.60000 420.190
39.62000 430.971
39.64000 449.782
39.66000 474.553
39.68000 500.741
39.70000 527.078
39.72000 546.027
39.74000 568.295
39.76000 582.610
39.78000 591.972
39.80000 613.704
39.82000 631.756
39.84000 648.478
39.86000 678.037
39.88000 690.753
39.90000 715.721
39.92000 727.794
39.94000 737.570
39.96000 747.414
39.98000 762.724
40.00000 770.600
40.02000 760.687
40.04000 765.457
40.06000 765.427
40.08000 759.206
40.10000 763.042
40.12000 767.215
40.14000 751.830
40.16000 732.569
40.18000 727.709
40.20000 720.203
40.22000 707.786
40.24000 705.357
40.26000 685.591
40.28000 668.686
40.30000 646.696
40.32000 606.706
40.34000 589.070
40.36000 572.796
40.38000 548.990
40.40000 528.992
40.42000 509.698
40.44000 482.701
40.46000 461.550
40.48000 432.161
40.50000 419.317
40.52000 395.416
40.54000 375.650
40.56000 357.330
40.58000 344.878
40.60000 316.423
40.62000 302.119
40.64000 291.073
40.66000 277.170
40.68000 256.293
40.70000 237.943
40.72000 226.802
40.74000 216.907
40.76000 198.872
40.78000 187.905
40.80000 182.267
40.82000 167.001
40.84000 160.507
40.86000 153.880
40.88000 137.929
40.90000 128.278
40.92000 126.134
40.94000 117.874
40.96000 106.933
40.98000 102.847
41.00000 100.401
41.02000 92.575
41.04000 82.585
41.06000 79.885
41.08000 80.733
41.10000 77.363
41.12000 74.616
41.14000 67.507
41.16000 63.974
41.18000 58.440
41.20000 54.831
41.22000 54.212
41.24000 53.251
41.26000 43.913
41.28000 36.539
41.30000 35.195
41.32000 37.853
41.34000 34.881
41.36000 31.538
41.38000 30.853
41.40000 32.755
41.42000 29.393
41.44000 27.117
41.46000 30.918
41.48000 29.379
41.50000 23.738
41.52000 25.245
41.54000 21.836
41.56000 17.195
41.58000 18.778
41.60000 16.985
41.62000 15.868
41.64000 14.486
41.66000 18.685
41.68000 19.278
41.70000 16.802
41.72000 20.499
41.74000 17.862
41.76000 12.675
41.78000 10.898
41.80000 11.971
41.82000 10.588
41.84000 5.231
41.86000 6.726
41.88000 9.070
41.90000 7.625
41.92000 4.587
41.94000 1.642
41.96000 1.908
41.98000 5.279
42.00000 11.828
42.02000 6.876
42.04000 3.591
42.06000 7.307
42.08000 8.946
42.10000 10.624
42.12000 4.507
42.14000 2.540
42.16000 -0.581
42.18000 2.811
42.20000 5.948
42.22000 1.476
42.24000 0.662
42.26000 1.926
42.28000 1.288
42.30000 6.492
42.32000 3.481
42.34000 -1.931
42.36000 -0.414
42.38000 -1.391
42.40000 -1.782
42.42000 2.269
42.44000 1.796
42.46000 -3.662
42.48000 -1.463
42.50000 3.531
42.52000 2.521
42.54000 3.410
42.56000 5.778
42.58000 3.017
42.60000 1.700
42.62000 -1.776
42.64000 -0.329
42.66000 -2.725
42.68000 -1.742
42.70000 4.643
42.72000 5.057
42.74000 1.463
42.76000 1.359
42.78000 -2.560
42.80000 -0.823
42.82000 -2.432
42.84000 -2.294
42.86000 2.056
42.88000 2.002
42.90000 -3.627
42.92000 2.320
42.94000 -3.606
42.96000 -1.218
42.98000 -0.148
43.00000 -1.004
43.02000 -2.281
43.04000 0.525
43.06000 4.163
43.08000 -1.826
43.10000 -3.458
43.12000 -1.735
43.14000 0.038
43.16000 -3.058
43.18000 -3.126
43.20000 -0.301
43.22000 -1.620
43.24000 -1.245
43.26000 1.211
43.28000 -0.357
43.30000 -1.825
43.32000 2.526
43.34000 2.794
43.36000 0.357
43.38000 -2.376
43.40000 0.629
43.42000 7.019
43.44000 7.417
43.46000 2.441
43.48000 -3.574
43.50000 -0.487
43.52000 -0.195
43.54000 -0.536
43.56000 -0.995
43.58000 2.201
43.60000 1.442
43.62000 4.346
43.64000 8.936
43.66000 6.655
43.68000 3.543
43.70000 -1.277
43.72000 -1.075
43.74000 0.082
43.76000 2.757
43.78000 1.572
43.80000 0.892
43.82000 7.411
43.84000 4.091
43.86000 1.457
43.88000 5.660
43.90000 5.021
43.92000 0.388
43.94000 -0.936
43.96000 -1.447
43.98000 3.709
44.00000 7.645
44.02000 2.970
44.04000 3.361
44.06000 5.075
44.08000 4.420
44.10000 6.086
44.12000 3.858
44.14000 4.339
44.16000 10.660
44.18000 7.397
44.20000 3.041
44.22000 -1.450
44.24000 -3.523
44.26000 1.034
44.28000 6.588
44.30000 10.784
44.32000 8.882
44.34000 3.180
44.36000 4.932
44.38000 5.965
44.40000 2.888
44.42000 4.826
44.44000 10.328
44.46000 6.759
44.48000 2.724
44.50000 9.239
44.52000 7.037
44.54000 2.845
44.56000 8.979
44.58000 8.901
44.60000 6.722
44.62000 7.924
44.64000 10.460
44.66000 11.274
44.68000 6.364
44.70000 5.428
44.72000 9.888
44.74000 10.932
44.76000 11.524
44.78000 11.742
44.80000 11.678
44.82000 8.227
44.84000 11.781
44.86000 10.283
44.88000 11.821
44.90000 14.357
44.92000 6.854
44.94000 4.558
44.96000 9.420
44.98000 14.896
45.00000 12.292
45.02000 13.237
45.04000 14.388
45.06000 12.483
45.08000 15.207
45.10000 11.378
45.12000 15.503
45.14000 18.746
45.16000 14.635
45.18000 13.988
45.20000 12.030
45.22000 19.513
45.24000 21.526
45.26000 20.501
45.28000 17.581
45.30000 15.746
45.32000 19.433
45.34000 28.915
45.36000 21.642
45.38000 17.928
45.40000 16.174
45.42000 21.886
45.44000 22.640
45.46000 20.178
45.48000 20.872
45.50000 24.319
45.52000 25.118
45.54000 28.687
45.56000 29.894
45.58000 36.612
45.60000 31.856
45.62000 26.827
45.64000 28.012
45.66000 35.382
45.68000 36.893
45.70000 31.066
45.72000 33.781
45.74000 38.967
45.76000 42.588
45.78000 44.526
45.80000 42.719
45.82000 44.285
45.84000 46.055
45.86000 45.222
45.88000 48.571
45.90000 54.517
45.92000 50.756
45.94000 50.574
45.96000 55.155
45.98000 57.988
46.00000 53.873
46.02000 56.938
46.04000 55.384
46.06000 49.582
46.08000 52.629
46.10000 63.580
46.12000 64.095
46.14000 66.206
46.16000 62.385
46.18000 67.409
46.20000 64.123
46.22000 69.091
46.24000 63.426
46.26000 67.818
46.28000 69.375
46.30000 70.294
46.32000 74.642
46.34000 76.434
46.36000 77.823
46.38000 79.821
46.40000 87.264
46.42000 89.030
46.44000 83.285
46.46000 82.818
46.48000 87.013
46.50000 86.947
46.52000 80.903
46.54000 79.902
46.56000 83.649
46.58000 81.975
46.60000 91.162
46.62000 92.785
46.64000 88.829
46.66000 84.392
46.68000 87.387
46.70000 83.977
46.72000 80.566
46.74000 79.098
46.76000 78.562
46.78000 79.611
46.80000 80.725
46.82000 78.716
46.84000 78.181
46.86000 77.670
46.88000 73.301
46.90000 71.733
46.92000 69.305
46.94000 71.262
46.96000 72.452
46.98000 66.402
47.00000 64.054
47.02000 67.004
47.04000 65.920
47.06000 62.736
47.08000 60.296
47.10000 61.406
47.12000 59.016
47.14000 61.178
47.16000 51.480
47.18000 54.481
47.20000 50.151
47.22000 45.025
47.24000 44.434
47.26000 43.665
47.28000 49.999
47.30000 53.761
47.32000 52.241
47.34000 40.212
47.36000 36.031
47.38000 32.723
47.40000 37.292
47.42000 37.854
47.44000 30.736
47.46000 27.321
47.48000 25.732
47.50000 24.505
47.52000 28.950
47.54000 30.665
47.56000 23.065
47.58000 24.494
47.60000 24.485
47.62000 25.345
47.64000 26.268
47.66000 19.566
47.68000 17.087
47.70000 18.196
47.72000 17.922
47.74000 15.051
47.76000 17.998
47.78000 15.245
47.80000 10.408
47.82000 10.720
47.84000 5.268
47.86000 7.108
47.88000 9.703
47.90000 7.054
47.92000 11.057
47.94000 13.642
47.96000 13.914
47.98000 13.839
48.00000 13.714
48.02000 11.517
48.04000 4.975
48.06000 8.865
48.08000 3.094
48.10000 6.014
48.12000 3.669
48.14000 8.684
48.16000 8.802
48.18000 8.537
48.20000 6.328
48.22000 4.550
48.24000 2.122
48.26000 4.155
48.28000 6.770
48.30000 5.277
48.32000 -0.416
48.34000 -1.459
48.36000 2.158
48.38000 -0.027
48.40000 -2.132
48.42000 -3.294
48.44000 -1.569
48.46000 6.762
48.48000 13.896
48.50000 6.726
48.52000 1.954
48.54000 2.983
48.56000 1.856
48.58000 1.928
48.60000 6.186
48.62000 3.688
48.64000 4.126
48.66000 3.162
48.68000 1.136
48.70000 -1.394
48.72000 2.023
48.74000 3.484
48.76000 0.680
48.78000 0.952
48.80000 -3.222
48.82000 -1.159
48.84000 1.812
48.86000 3.608
48.88000 4.120
48.90000 2.288
48.92000 5.069
48.94000 10.686
48.96000 6.657
48.98000 5.163
49.00000 2.239
49.02000 2.191
49.04000 1.509
49.06000 3.108
49.08000 7.156
49.10000 7.914
49.12000 -0.202
49.14000 -1.635
49.16000 -3.155
49.18000 0.760
49.20000 2.769
49.22000 -0.010
49.24000 -1.059
49.26000 3.180
49.28000 4.269
49.30000 3.560
49.32000 3.412
49.34000 5.447
49.36000 10.711
49.38000 12.261
49.40000 6.232
49.42000 6.768
49.44000 7.297
49.46000 6.427
49.48000 9.373
49.50000 -0.752
49.52000 -0.739
49.54000 -3.108
49.56000 8.534
49.58000 9.332
49.60000 8.460
49.62000 6.867
49.64000 5.253
49.66000 4.889
49.68000 5.610
49.70000 7.365
49.72000 3.600
49.74000 3.006
49.76000 7.455
49.78000 6.212
49.80000 5.641
49.82000 7.193
49.84000 6.841
49.86000 2.420
49.88000 2.275
49.90000 4.367
49.92000 0.001
49.94000 9.554
49.96000 9.553
49.98000 6.364
50.00000 2.907
50.02000 1.956
50.04000 8.335
50.06000 10.839
50.08000 4.107
50.10000 2.625
50.12000 4.752
50.14000 6.928
50.16000 5.697
50.18000 15.638
50.20000 12.212
50.22000 12.448
50.24000 10.942
50.26000 4.997
50.28000 5.981
50.30000 3.845
50.32000 7.769
50.34000 2.478
50.36000 0.312
50.38000 -3.037
50.40000 3.609
50.42000 5.986
50.44000 6.453
50.46000 5.581
50.48000 9.881
50.50000 11.835
50.52000 5.041
50.54000 3.143
50.56000 -0.122
50.58000 10.366
50.60000 8.069
50.62000 4.283
50.64000 12.011
50.66000 6.979
50.68000 5.486
50.70000 2.873
50.72000 6.149
50.74000 4.333
50.76000 0.107
50.78000 2.384
50.80000 4.402
50.82000 2.188
50.84000 1.361
50.86000 5.163
50.88000 7.926
50.90000 4.077
50.92000 10.879
50.94000 4.492
50.96000 -0.962
50.98000 1.185
51.00000 2.711
51.02000 -0.527
51.04000 -1.556
51.06000 -1.533
51.08000 5.734
51.10000 8.888
51.12000 1.852
51.14000 6.417
51.16000 6.637
51.18000 8.072
51.20000 5.660
51.22000 9.960
51.24000 13.350
51.26000 9.377
51.28000 10.066
51.30000 9.891
51.32000 4.483
51.34000 3.910
51.36000 4.077
51.38000 8.004
51.40000 10.733
51.42000 8.339
51.44000 4.168
51.46000 0.369
51.48000 8.520
51.50000 10.245
51.52000 4.038
51.54000 8.072
51.56000 2.001
51.58000 2.680
51.60000 4.118
51.62000 4.593
51.64000 4.906
51.66000 2.647
51.68000 3.841
51.70000 4.273
51.72000 6.838
51.74000 4.810
51.76000 2.816
51.78000 0.970
51.80000 6.511
51.82000 6.942
51.84000 3.364
51.86000 2.868
51.88000 7.287
51.90000 2.057
51.92000 2.853
51.94000 -0.651
51.96000 2.255
51.98000 11.839
52.00000 7.455
52.02000 6.558
52.04000 8.002
52.06000 6.421
52.08000 0.847
52.10000 6.358
52.12000 5.580
52.14000 6.613
52.16000 8.220
52.18000 10.667
52.20000 6.660
52.22000 1.721
52.24000 6.439
52.26000 6.061
52.28000 2.270
52.30000 3.218
52.32000 3.967
52.34000 3.512
52.36000 1.087
52.38000 4.652
52.40000 7.745
52.42000 5.728
52.44000 2.437
52.46000 9.358
52.48000 6.571
52.50000 -2.970
52.52000 -0.765
52.54000 1.183
52.56000 5.474
52.58000 9.478
52.60000 6.952
52.62000 6.143
52.64000 2.358
52.66000 3.421
52.68000 5.146
52.70000 4.036
52.72000 0.981
52.74000 2.460
52.76000 5.057
52.78000 8.348
52.80000 8.272
52.82000 3.511
52.84000 -0.297
52.86000 3.770
52.88000 0.404
52.90000 1.009
52.92000 3.161
52.94000 1.784
52.96000 6.399
52.98000 8.599
53.00000 8.152
53.02000 5.546
53.04000 4.344
53.06000 6.071
53.08000 2.402
53.10000 2.119
53.12000 6.357
53.14000 7.477
53.16000 10.136
53.18000 10.172
53.20000 7.356
53.22000 -1.621
53.24000 -1.164
53.26000 7.094
53.28000 4.401
53.30000 4.647
53.32000 5.185
53.34000 6.334
53.36000 3.366
53.38000 5.330
53.40000 6.712
53.42000 4.396
53.44000 1.841
53.46000 3.297
53.48000 2.645
53.50000 5.554
53.52000 9.912
53.54000 6.731
53.56000 4.109
53.58000 8.601
53.60000 10.694
53.62000 6.207
53.64000 3.781
53.66000 -2.945
53.68000 1.631
53.70000 8.214
53.72000 5.916
53.74000 4.736
53.76000 4.193
53.78000 7.788
53.80000 6.285
53.82000 5.403
53.84000 4.073
53.86000 4.875
53.88000 4.154
53.90000 3.241
53.92000 3.898
53.94000 0.886
53.96000 -1.032
53.98000 5.062
54.00000 6.799
54.02000 5.746
54.04000 2.941
54.06000 7.928
54.08000 8.145
54.10000 5.860
54.12000 3.390
54.14000 4.969
54.16000 -0.691
54.18000 4.821
54.20000 8.028
54.22000 6.791
54.24000 -0.725
54.26000 0.101
54.28000 1.967
54.30000 6.164
54.32000 5.451
54.34000 8.022
54.36000 8.735
54.38000 2.594
54.40000 -0.463
54.42000 3.349
54.44000 7.287
54.46000 8.136
54.48000 9.824
54.50000 6.481
54.52000 4.927
54.54000 3.104
54.56000 -0.624
54.58000 -1.991
54.60000 2.074
54.62000 -1.709
54.64000 3.810
54.66000 -0.945
54.68000 1.212
54.70000 6.009
54.72000 4.316
54.74000 5.959
54.76000 7.564
54.78000 1.917
54.80000 4.845
54.82000 1.418
54.84000 1.753
54.86000 1.436
54.88000 4.564
54.90000 4.476
54.92000 3.713
54.94000 1.990
54.96000 1.486
54.98000 4.172
55.00000 1.637
55.02000 1.612
55.04000 -1.520
55.06000 6.831
55.08000 2.119
55.10000 5.621
55.12000 0.123
55.14000 3.300
55.16000 0.541
55.18000 -0.425
55.20000 -1.109
55.22000 5.621
55.24000 3.733
55.26000 3.524
55.28000 2.053
55.30000 1.073
55.32000 -1.441
55.34000 -0.816
55.36000 1.293
55.38000 2.372
55.40000 5.557
55.42000 3.663
55.44000 -2.153
55.46000 -0.374
55.48000 1.329
55.50000 2.268
55.52000 4.396
55.54000 6.470
55.56000 5.024
55.58000 -1.972
55.60000 2.783
55.62000 5.196
55.64000 1.385
55.66000 3.113
55.68000 4.222
55.70000 4.501
55.72000 4.843
55.74000 4.629
55.76000 5.961
55.78000 3.413
55.80000 3.213
55.82000 -1.435
55.84000 -2.306
55.86000 -2.901
55.88000 3.139
55.90000 5.954
55.92000 3.991
55.94000 4.720
55.96000 0.714
55.98000 0.057
56.00000 -1.727
56.02000 -2.703
56.04000 5.673
56.06000 7.324
56.08000 2.967
56.10000 -0.216
56.12000 -1.556
56.14000 0.453
56.16000 7.214
56.18000 2.763
56.20000 1.709
56.22000 3.566
56.24000 2.100
56.26000 5.878
56.28000 2.555
56.30000 2.130
56.32000 3.538
56.34000 3.034
56.36000 0.267
56.38000 9.396
56.40000 3.166
56.42000 1.290
56.44000 0.409
56.46000 -0.775
56.48000 -0.712
56.50000 -0.266
56.52000 3.413
56.54000 9.772
56.56000 8.306
56.58000 5.064
56.60000 0.794
56.62000 0.237
56.64000 3.626
56.66000 3.681
56.68000 6.825
56.70000 3.986
56.72000 3.202
56.74000 7.810
56.76000 6.313
56.78000 7.813
56.80000 10.002
56.82000 8.224
56.84000 3.092
56.86000 -2.691
56.88000 0.491
56.90000 0.333
56.92000 3.205
56.94000 3.405
56.96000 3.320
56.98000 3.860
57.00000 0.947
57.02000 3.521
57.04000 2.090
57.06000 4.223
57.08000 4.469
57.10000 3.305
57.12000 5.328
57.14000 1.293
57.16000 2.813
57.18000 -0.108
57.20000 4.528
57.22000 4.055
57.24000 2.393
57.26000 4.133
57.28000 6.787
57.30000 3.709
57.32000 2.794
57.34000 1.911
57.36000 1.077
57.38000 7.403
57.40000 11.431
57.42000 6.108
57.44000 1.641
57.46000 3.868
57.48000 4.526
57.50000 1.891
57.52000 3.582
57.54000 3.436
57.56000 2.363
57.58000 3.066
57.60000 -2.836
57.62000 2.860
57.64000 0.789
57.66000 0.648
57.68000 4.812
57.70000 5.840
57.72000 2.943
57.74000 1.993
57.76000 1.468
57.78000 2.171
57.80000 8.835
57.82000 8.349
57.84000 3.570
57.86000 5.374
57.88000 6.336
57.90000 6.033
57.92000 7.241
57.94000 1.247
57.96000 -1.418
57.98000 0.754
58.00000 3.012
58.02000 5.684
58.04000 4.991
58.06000 6.272
58.08000 3.656
58.10000 0.463
58.12000 -2.108
58.14000 2.454
58.16000 3.564
58.18000 3.104
58.20000 3.590
58.22000 3.658
58.24000 2.155
58.26000 4.346
58.28000 3.228
58.30000 1.033
58.32000 2.818
58.34000 3.748
58.36000 12.932
58.38000 4.119
58.40000 -0.646
58.42000 -0.755
58.44000 1.504
58.46000 5.358
58.48000 8.535
58.50000 8.120
58.52000 8.875
58.54000 8.879
58.56000 4.864
58.58000 3.499
58.60000 0.609
58.62000 -0.121
58.64000 0.671
58.66000 2.519
58.68000 2.124
58.70000 -1.755
58.72000 6.062
58.74000 8.184
58.76000 7.560
58.78000 6.241
58.80000 7.622
58.82000 6.010
58.84000 1.199
58.86000 -1.241
58.88000 2.040
58.90000 8.049
58.92000 9.270
58.94000 8.958
58.96000 2.075
58.98000 4.208
59.00000 2.158
59.02000 0.840
59.04000 -2.790
59.06000 2.965
59.08000 3.498
59.10000 1.054
59.12000 -1.782
59.14000 -1.222
59.16000 6.003
59.18000 9.675
59.20000 7.459
59.22000 7.003
59.24000 6.421
59.26000 1.068
59.28000 -2.648
59.30000 -0.738
59.32000 6.490
59.34000 7.699
59.36000 7.466
59.38000 1.434
59.40000 4.556
59.42000 7.050
59.44000 6.948
59.46000 6.458
59.48000 1.390
59.50000 -1.418
59.52000 2.201
59.54000 6.504
59.56000 8.499
59.58000 7.899
59.60000 7.064
59.62000 1.344
59.64000 -2.789
59.66000 0.995
59.68000 3.754
59.70000 3.096
59.72000 7.330
59.74000 4.272
59.76000 6.740
59.78000 -0.080
59.80000 0.587
59.82000 -0.285
59.84000 1.622
59.86000 5.789
59.88000 4.109
59.90000 2.391
59.92000 4.133
59.94000 0.720
59.96000 0.849
59.98000 4.234
60.00000 3.365
60.02000 7.074
60.04000 5.623
60.06000 2.104
60.08000 6.689
60.10000 5.339
60.12000 3.435
60.14000 6.366
60.16000 7.044
60.18000 9.298
60.20000 2.078
60.22000 -1.130
60.24000 2.601
60.26000 -1.378
60.28000 -2.324
60.30000 0.070
60.32000 0.603
60.34000 3.595
60.36000 5.582
60.38000 2.921
60.40000 2.559
60.42000 4.966
60.44000 2.997
60.46000 2.273
60.48000 1.087
60.50000 0.186
60.52000 4.523
60.54000 2.680
60.56000 5.341
60.58000 4.658
60.60000 2.397
60.62000 4.387
60.64000 4.315
60.66000 5.083
60.68000 4.140
60.70000 2.486
60.72000 2.824
60.74000 3.882
60.76000 3.302
60.78000 0.298
60.80000 2.528
60.82000 -1.589
60.84000 -1.414
60.86000 0.416
60.88000 3.086
60.90000 2.099
60.92000 -2.739
60.94000 0.379
60.96000 4.206
60.98000 4.017
61.00000 7.861
61.02000 6.390
61.04000 -2.198
61.06000 1.132
61.08000 1.988
61.10000 0.423
61.12000 3.485
61.14000 2.840
61.16000 -2.434
61.18000 -0.602
61.20000 1.711
61.22000 7.799
61.24000 5.176
61.26000 8.540
61.28000 2.601
61.30000 -0.388
61.32000 4.202
61.34000 2.609
61.36000 5.649
61.38000 5.043
61.40000 3.593
61.42000 6.060
61.44000 3.853
61.46000 3.554
61.48000 2.969
61.50000 0.690
61.52000 -1.006
61.54000 -0.560
61.56000 0.818
61.58000 2.621
61.60000 4.055
61.62000 -0.125
61.64000 1.613
61.66000 5.288
61.68000 5.553
61.70000 4.895
61.72000 2.891
61.74000 3.806
61.76000 4.451
61.78000 -0.082
61.80000 -2.070
61.82000 -0.373
61.84000 -0.155
61.86000 0.379
61.88000 -2.702
61.90000 1.223
61.92000 8.650
61.94000 9.257
61.96000 1.690
61.98000 0.120
62.00000 3.737
62.02000 1.089
62.04000 2.369
62.06000 4.819
62.08000 5.213
62.10000 2.728
62.12000 4.237
62.14000 5.778
62.16000 4.582
62.18000 4.171
62.20000 3.971
62.22000 2.607
62.24000 6.282
62.26000 3.619
62.28000 4.398
62.30000 6.888
62.32000 6.545
62.34000 4.416
62.36000 4.270
62.38000 1.988
62.40000 -2.684
62.42000 3.494
62.44000 2.895
62.46000 0.114
62.48000 -2.344
62.50000 0.939
62.52000 0.511
62.54000 4.119
62.56000 6.298
62.58000 3.838
62.60000 2.567
62.62000 2.558
62.64000 1.728
62.66000 2.814
62.68000 2.885
62.70000 5.436
62.72000 6.506
62.74000 2.116
62.76000 1.083
62.78000 0.548
62.80000 -1.864
62.82000 2.173
62.84000 5.230
62.86000 0.532
62.88000 2.467
62.90000 4.994
62.92000 3.247
62.94000 2.786
62.96000 7.010
62.98000 0.941
63.00000 -0.992
63.02000 -1.887
63.04000 -0.225
63.06000 1.431
63.08000 2.776
63.10000 3.608
63.12000 6.529
63.14000 4.033
63.16000 3.641
63.18000 2.352
63.20000 4.816
63.22000 5.480
63.24000 -1.380
63.26000 0.714
63.28000 1.836
63.30000 3.490
63.32000 0.648
63.34000 6.160
63.36000 4.606
63.38000 1.405
63.40000 0.794
63.42000 0.450
63.44000 4.426
63.46000 4.093
63.48000 6.627
63.50000 10.229
63.52000 6.806
63.54000 6.377
63.56000 4.994
63.58000 8.525
63.60000 6.244
63.62000 -0.010
63.64000 2.813
63.66000 1.299
63.68000 3.038
63.70000 3.353
63.72000 -1.366
63.74000 1.569
63.76000 3.361
63.78000 0.939
63.80000 -1.696
63.82000 0.364
63.84000 -2.416
63.86000 0.403
63.88000 -0.734
63.90000 -2.074
63.92000 -2.555
63.94000 -2.708
63.96000 -2.447
63.98000 2.079
64.00000 1.300
64.02000 1.821
64.04000 3.194
64.06000 4.925
64.08000 5.289
64.10000 3.638
64.12000 0.111
64.14000 1.205
64.16000 -0.145
64.18000 -0.284
64.20000 5.815
64.22000 5.383
64.24000 3.129
64.26000 4.680
64.28000 3.875
64.30000 4.853
64.32000 1.926
64.34000 1.956
64.36000 -0.012
64.38000 -0.654
64.40000 2.533
64.42000 1.543
64.44000 4.714
64.46000 1.108
64.48000 1.599
64.50000 3.375
64.52000 -1.800
64.54000 -0.614
64.56000 2.149
64.58000 5.025
64.60000 7.745
64.62000 1.878
64.64000 3.143
64.66000 0.376
64.68000 2.152
64.70000 0.010
64.72000 3.225
64.74000 3.041
64.76000 -2.723
64.78000 -2.403
64.80000 -1.059
64.82000 -2.728
64.84000 -0.721
64.86000 2.417
64.88000 4.994
64.90000 4.868
64.92000 3.813
64.94000 3.686
64.96000 2.841
64.98000 2.576
65.00000 10.145
65.02000 2.752
65.04000 0.693
65.06000 2.789
65.08000 5.342
65.10000 6.351
65.12000 0.493
65.14000 4.171
65.16000 1.863
65.18000 1.503
65.20000 0.858
65.22000 0.264
65.24000 2.104
65.26000 0.940
65.28000 3.420
65.30000 4.179
65.32000 -0.145
65.34000 2.644
65.36000 4.729
65.38000 5.238
65.40000 0.333
65.42000 1.970
65.44000 0.222
65.46000 -0.404
65.48000 0.486
65.50000 3.544
65.52000 -1.364
65.54000 -2.081
65.56000 -2.777
65.58000 -0.645
65.60000 1.512
65.62000 -1.236
65.64000 -1.287
65.66000 -1.417
65.68000 0.077
65.70000 -1.892
65.72000 2.924
65.74000 3.722
65.76000 2.261
65.78000 7.587
65.80000 4.859
65.82000 3.539
65.84000 4.208
65.86000 4.774
65.88000 2.191
65.90000 2.681
65.92000 2.239
65.94000 -0.307
65.96000 0.200
65.98000 -2.341
66.00000 -1.146
66.02000 1.899
66.04000 6.004
66.06000 5.361
66.08000 0.599
66.10000 1.305
66.12000 -1.928
66.14000 -1.087
66.16000 -0.418
66.18000 3.669
66.20000 1.700
66.22000 -2.819
66.24000 2.126
66.26000 0.920
66.28000 3.689
66.30000 3.424
66.32000 3.547
66.34000 -0.132
66.36000 2.867
66.38000 4.471
66.40000 5.746
66.42000 -0.214
66.44000 0.571
66.46000 5.504
66.48000 9.270
66.50000 4.904
66.52000 5.327
66.54000 3.561
66.56000 3.784
66.58000 4.429
66.60000 4.588
66.62000 5.361
66.64000 6.794
66.66000 2.009
66.68000 0.859
66.70000 5.593
66.72000 9.587
66.74000 8.426
66.76000 9.910
66.78000 5.377
66.80000 4.024
66.82000 7.750
66.84000 7.126
66.86000 5.801
66.88000 7.213
66.90000 6.135
66.92000 11.336
66.94000 6.135
66.96000 12.708
66.98000 13.162
67.00000 8.540
67.02000 9.366
67.04000 12.248
67.06000 7.499
67.08000 8.020
67.10000 10.723
67.12000 15.173
67.14000 15.026
67.16000 10.281
67.18000 11.112
67.20000 10.543
67.22000 11.990
67.24000 13.129
67.26000 16.130
67.28000 11.249
67.30000 12.667
67.32000 12.670
67.34000 12.294
67.36000 11.185
67.38000 14.833
67.40000 15.318
67.42000 17.010
67.44000 17.672
67.46000 18.796
67.48000 15.723
67.50000 15.678
67.52000 17.756
67.54000 14.562
67.56000 16.785
67.58000 13.644
67.60000 19.089
67.62000 24.916
67.64000 23.628
67.66000 22.084
67.68000 21.247
67.70000 21.430
67.72000 21.055
67.74000 21.003
67.76000 25.166
67.78000 25.454
67.80000 26.598
67.82000 25.184
67.84000 18.413
67.86000 19.628
67.88000 19.319
67.90000 22.691
67.92000 21.552
67.94000 20.443
67.96000 19.170
67.98000 26.610
68.00000 27.422
68.02000 25.743
68.04000 24.693
68.06000 25.334
68.08000 22.854
68.10000 23.419
68.12000 25.381
68.14000 24.301
68.16000 20.656
68.18000 21.336
68.20000 23.917
68.22000 24.055
68.24000 21.208
68.26000 21.742
68.28000 19.716
68.30000 20.916
68.32000 21.338
68.34000 20.322
68.36000 24.034
68.38000 21.510
68.40000 19.874
68.42000 25.040
68.44000 20.185
68.46000 16.055
68.48000 18.130
68.50000 15.616
68.52000 16.501
68.54000 18.985
68.56000 15.358
68.58000 18.576
68.60000 12.238
68.62000 14.979
68.64000 10.905
68.66000 16.298
68.68000 16.449
68.70000 14.692
68.72000 9.458
68.74000 5.179
68.76000 7.504
68.78000 4.195
68.80000 6.636
68.82000 6.152
68.84000 9.705
68.86000 11.517
68.88000 7.046
68.90000 7.554
68.92000 8.690
68.94000 9.453
68.96000 4.733
68.98000 6.028
69.00000 5.949
69.02000 7.269
69.04000 8.483
69.06000 10.689
69.08000 8.090
69.10000 5.308
69.12000 8.103
69.14000 6.070
69.16000 1.741
69.18000 -1.013
69.20000 0.222
69.22000 3.574
69.24000 3.722
69.26000 6.037
69.28000 6.863
69.30000 5.203
69.32000 3.430
69.34000 3.690
69.36000 5.239
69.38000 4.852
69.40000 1.995
69.42000 5.650
69.44000 4.982
69.46000 -2.748
69.48000 -1.429
69.50000 0.125
69.52000 0.387
69.54000 0.798
69.56000 -1.547
69.58000 -1.668
69.60000 2.662
69.62000 1.740
69.64000 -2.553
69.66000 -1.950
69.68000 0.190
69.70000 3.191
69.72000 -1.477
69.74000 -0.523
69.76000 1.678
69.78000 4.485
69.80000 3.317
69.82000 -0.650
69.84000 -0.674
69.86000 2.821
69.88000 4.487
69.90000 1.852
69.92000 0.387
69.94000 4.197
69.96000 3.148
69.98000 -1.465
70.00000 0.718
70.02000 2.340
70.04000 2.995
70.06000 2.415
70.08000 4.132
70.10000 -1.458
70.12000 -2.657
70.14000 0.977
70.16000 1.386
70.18000 0.289
70.20000 -0.269
70.22000 -1.857
70.24000 -0.318
70.26000 3.069
70.28000 2.240
70.30000 2.012
70.32000 0.837
70.34000 -1.246
70.36000 0.143
70.38000 2.616
70.40000 5.656
70.42000 8.101
70.44000 6.242
70.46000 3.503
70.48000 1.034
70.50000 -0.815
70.52000 0.737
70.54000 1.005
70.56000 -0.009
70.58000 2.707
70.60000 1.765
70.62000 4.097
70.64000 -0.874
70.66000 3.142
70.68000 4.139
70.70000 1.344
70.72000 3.533
70.74000 2.697
70.76000 1.370
70.78000 4.953
70.80000 3.730
70.82000 0.700
70.84000 -2.593
70.86000 1.704
70.88000 3.024
70.90000 4.968
70.92000 4.275
70.94000 5.718
70.96000 3.380
70.98000 2.152
71.00000 4.474
71.02000 6.957
71.04000 5.497
71.06000 7.162
71.08000 10.694
71.10000 10.523
71.12000 8.599
71.14000 3.385
71.16000 2.691
71.18000 5.561
71.20000 3.478
71.22000 2.006
71.24000 6.969
71.26000 4.014
71.28000 8.130
71.30000 6.135
71.32000 4.745
71.34000 7.135
71.36000 5.921
71.38000 6.869
71.40000 9.505
71.42000 5.906
71.44000 0.315
71.46000 2.003
71.48000 6.120
71.50000 8.538
71.52000 8.714
71.54000 8.233
71.56000 9.465
71.58000 7.622
71.60000 8.912
71.62000 1.641
71.64000 4.645
71.66000 3.150
71.68000 0.510
71.70000 -2.535
71.72000 0.199
71.74000 8.355
71.76000 9.606
71.78000 6.256
71.80000 8.563
71.82000 14.069
71.84000 10.989
71.86000 3.895
71.88000 1.468
71.90000 -2.127
71.92000 1.797
71.94000 3.794
71.96000 7.866
71.98000 5.598
72.00000 3.072
72.02000 1.796
72.04000 1.192
72.06000 2.227
72.08000 11.779
72.10000 9.256
72.12000 2.995
72.14000 3.571
72.16000 3.928
72.18000 1.441
72.20000 1.346
72.22000 0.973
72.24000 5.575
72.26000 8.728
72.28000 6.063
72.30000 4.696
72.32000 6.588
72.34000 2.802
72.36000 5.327
72.38000 9.631
72.40000 7.130
72.42000 6.384
72.44000 3.365
72.46000 6.182
72.48000 3.613
72.50000 6.978
72.52000 11.499
72.54000 5.139
72.56000 6.545
72.58000 7.494
72.60000 4.078
72.62000 4.410
72.64000 4.779
72.66000 6.296
72.68000 7.936
72.70000 2.018
72.72000 2.375
72.74000 5.125
72.76000 0.371
72.78000 -2.480
72.80000 3.715
72.82000 7.108
72.84000 6.371
72.86000 7.671
72.88000 9.654
72.90000 5.554
72.92000 7.027
72.94000 8.425
72.96000 9.985
72.98000 13.422
73.00000 9.859
73.02000 2.915
73.04000 8.292
73.06000 7.701
73.08000 9.765
73.10000 6.669
73.12000 5.503
73.14000 3.377
73.16000 -2.440
73.18000 2.496
73.20000 6.320
73.22000 2.438
73.24000 2.256
73.26000 4.697
73.28000 8.573
73.30000 7.452
73.32000 10.504
73.34000 3.161
73.36000 4.067
73.38000 5.171
73.40000 3.708
73.42000 3.260
73.44000 6.713
73.46000 7.369
73.48000 10.864
73.50000 6.414
73.52000 4.957
73.54000 4.731
73.56000 4.776
73.58000 2.739
73.60000 6.018
73.62000 2.865
73.64000 5.824
73.66000 10.191
73.68000 8.711
73.70000 7.459
73.72000 8.204
73.74000 2.732
73.76000 1.368
73.78000 2.784
73.80000 0.289
73.82000 2.911
73.84000 2.935
73.86000 3.035
73.88000 4.759
73.90000 1.726
73.92000 4.956
73.94000 6.971
73.96000 3.885
73.98000 2.178
74.00000 -0.870
74.02000 0.718
74.04000 2.443
74.06000 7.312
74.08000 4.359
74.10000 6.314
74.12000 2.599
74.14000 6.183
74.16000 5.017
74.18000 4.237
74.20000 -0.911
74.22000 1.451
74.24000 0.109
74.26000 5.317
74.28000 4.844
74.30000 4.479
74.32000 4.567
74.34000 3.278
74.36000 5.883
74.38000 7.223
74.40000 4.975
74.42000 -1.787
74.44000 -2.490
74.46000 7.535
74.48000 8.259
74.50000 9.357
74.52000 6.906
74.54000 5.652
74.56000 6.622
74.58000 5.351
74.60000 3.215
74.62000 2.609
74.64000 1.220
74.66000 -1.103
74.68000 -0.613
74.70000 4.561
74.72000 4.460
74.74000 7.968
74.76000 5.459
74.78000 5.245
74.80000 2.807
74.82000 5.822
74.84000 4.435
74.86000 2.183
74.88000 -0.485
74.90000 3.276
74.92000 3.059
74.94000 4.278
74.96000 6.371
74.98000 1.658
75.00000 1.133
75.02000 5.314
75.04000 2.841
75.06000 4.469
75.08000 9.181
75.10000 6.543
75.12000 4.080
75.14000 -2.498
75.16000 -1.583
75.18000 -1.626
75.20000 -1.131
75.22000 5.041
75.24000 1.931
75.26000 -2.285
75.28000 -1.507
75.30000 6.054
75.32000 3.161
75.34000 2.901
75.36000 5.143
75.38000 4.225
75.40000 6.999
75.42000 3.287
75.44000 4.456
75.46000 7.851
75.48000 3.329
75.50000 4.310
75.52000 1.043
75.54000 2.226
75.56000 4.597
75.58000 0.097
75.60000 3.394
75.62000 6.073
75.64000 7.472
75.66000 6.610
75.68000 1.992
75.70000 -0.791
75.72000 2.420
75.74000 2.135
75.76000 5.519
75.78000 4.955
75.80000 2.573
75.82000 -2.489
75.84000 -1.709
75.86000 0.788
75.88000 6.354
75.90000 4.474
75.92000 8.246
75.94000 8.897
75.96000 6.781
75.98000 6.871
76.00000 2.110
76.02000 -2.102
76.04000 0.026
76.06000 8.205
76.08000 7.598
76.10000 4.559
76.12000 0.424
76.14000 1.803
76.16000 3.021
76.18000 4.311
76.20000 2.806
76.22000 3.012
76.24000 5.342
76.26000 4.875
76.28000 3.650
76.30000 4.801
76.32000 2.351
76.34000 1.631
76.36000 4.510
76.38000 6.371
76.40000 5.757
76.42000 3.730
76.44000 2.413
76.46000 3.337
76.48000 2.959
76.50000 4.083
76.52000 2.987
76.54000 3.035
76.56000 5.116
76.58000 3.135
76.60000 3.558
76.62000 5.159
76.64000 6.656
76.66000 5.231
76.68000 4.356
76.70000 5.749
76.72000 6.094
76.74000 2.377
76.76000 9.046
76.78000 9.428
76.80000 8.411
76.82000 7.098
76.84000 4.494
76.86000 4.362
76.88000 5.984
76.90000 5.808
76.92000 8.334
76.94000 8.302
76.96000 10.585
76.98000 10.359
77.00000 9.281
77.02000 7.940
77.04000 6.740
77.06000 7.396
77.08000 2.626
77.10000 7.732
77.12000 7.715
77.14000 9.875
77.16000 4.244
77.18000 2.608
77.20000 8.553
77.22000 7.612
77.24000 9.321
77.26000 7.027
77.28000 3.022
77.30000 -0.570
77.32000 0.403
77.34000 4.526
77.36000 6.811
77.38000 5.122
77.40000 11.424
77.42000 9.711
77.44000 8.351
77.46000 5.993
77.48000 5.645
77.50000 3.258
77.52000 -2.464
77.54000 3.999
77.56000 7.932
77.58000 5.317
77.60000 7.494
77.62000 4.211
77.64000 4.207
77.66000 3.823
77.68000 5.824
77.70000 9.448
77.72000 12.290
77.74000 6.839
77.76000 6.979
77.78000 3.571
77.80000 10.250
77.82000 11.709
77.84000 8.019
77.86000 3.520
77.88000 4.592
77.90000 7.332
77.92000 7.702
77.94000 8.565
77.96000 4.111
77.98000 1.757
78.00000 7.320
78.02000 10.445
78.04000 6.606
78.06000 7.375
78.08000 7.926
78.10000 10.644
78.12000 9.462
78.14000 10.950
78.16000 8.366
78.18000 8.704
78.20000 8.884
78.22000 7.342
78.24000 6.100
78.26000 1.823
78.28000 -2.556
78.30000 4.760
78.32000 4.891
78.34000 1.260
78.36000 5.125
78.38000 2.105
78.40000 -0.369
78.42000 1.111
78.44000 -0.198
78.46000 6.735
78.48000 7.757
78.50000 4.963
78.52000 2.936
78.54000 5.254
78.56000 3.553
78.58000 3.723
78.60000 7.532
78.62000 13.750
78.64000 10.516
78.66000 6.584
78.68000 5.336
78.70000 3.689
78.72000 7.315
78.74000 6.470
78.76000 2.500
78.78000 3.425
78.80000 1.479
78.82000 0.189
78.84000 0.694
78.86000 -0.792
78.88000 5.170
78.90000 4.678
78.92000 0.140
78.94000 1.686
78.96000 3.006
78.98000 3.877
79.00000 -0.917
79.02000 -1.304
79.04000 1.456
79.06000 -0.804
79.08000 -0.131
79.10000 0.083
79.12000 2.515
79.14000 3.664
79.16000 0.460
79.18000 1.410
79.20000 1.316
79.22000 5.537
79.24000 7.653
79.26000 1.863
79.28000 2.063
79.30000 -0.245
79.32000 4.764
79.34000 6.144
79.36000 -0.097
79.38000 -0.339
79.40000 3.936
79.42000 2.095
79.44000 1.234
79.46000 1.381
79.48000 2.997
79.50000 1.875
79.52000 5.846
79.54000 2.421
79.56000 3.823
79.58000 3.022
79.60000 -2.654
79.62000 -0.931
79.64000 5.129
79.66000 7.125
79.68000 7.075
79.70000 7.728
79.72000 0.554
79.74000 -2.673
79.76000 5.645
79.78000 9.794
79.80000 5.694
79.82000 4.603
79.84000 -0.210
79.86000 2.558
79.88000 1.578
79.90000 4.313
79.92000 0.848
79.94000 8.084
79.96000 9.045
79.98000 5.693
80.00000 1.993
80.02000 4.196
80.04000 5.453
80.06000 8.308
80.08000 8.126
80.10000 7.127
80.12000 6.910
80.14000 3.165
80.16000 5.168
80.18000 4.962
80.20000 2.947
80.22000 5.662
80.24000 9.187
80.26000 7.095
80.28000 3.618
80.30000 7.157
80.32000 1.953
80.34000 4.243
80.36000 6.806
80.38000 4.696
80.40000 5.531
80.42000 7.280
80.44000 6.827
80.46000 12.331
80.48000 7.454
80.50000 7.359
80.52000 5.219
80.54000 2.421
80.56000 4.400
80.58000 1.337
80.60000 2.733
80.62000 3.248
80.64000 -0.128
80.66000 2.656
80.68000 4.625
80.70000 9.309
80.72000 11.839
80.74000 10.883
80.76000 7.335
80.78000 7.252
80.80000 6.352
80.82000 6.466
80.84000 7.179
80.86000 9.297
80.88000 11.277
80.90000 14.053
80.92000 14.989
80.94000 12.904
80.96000 11.414
80.98000 10.774
81.00000 10.696
81.02000 8.533
81.04000 11.158
81.06000 9.738
81.08000 9.643
81.10000 10.603
81.12000 13.923
81.14000 17.819
81.16000 10.596
81.18000 9.724
81.20000 10.257
81.22000 15.392
81.24000 16.292
81.26000 14.235
81.28000 15.098
81.30000 19.564
81.32000 19.424
81.34000 13.328
81.36000 7.617
81.38000 15.258
81.40000 14.773
81.42000 12.877
81.44000 14.164
81.46000 15.376
81.48000 16.677
81.50000 22.608
81.52000 21.484
81.54000 17.209
81.56000 12.493
81.58000 15.400
81.60000 21.130
81.62000 25.854
81.64000 14.857
81.66000 18.178
81.68000 17.215
81.70000 21.308
81.72000 24.572
81.74000 23.164
81.76000 17.735
81.78000 15.498
81.80000 23.011
81.82000 25.407
81.84000 22.670
81.86000 23.637
81.88000 28.215
81.90000 17.745
81.92000 18.775
81.94000 23.235
81.96000 23.614
81.98000 23.949
82.00000 27.305
82.02000 24.873
82.04000 25.008
82.06000 25.809
82.08000 27.685
82.10000 24.399
82.12000 26.762
82.14000 25.265
82.16000 24.394
82.18000 23.662
82.20000 23.145
82.22000 16.671
82.24000 15.502
82.26000 19.453
82.28000 17.331
82.30000 22.269
82.32000 25.357
82.34000 30.412
82.36000 30.667
82.38000 26.214
82.40000 26.500
82.42000 25.141
82.44000 26.748
82.46000 23.903
82.48000 21.822
82.50000 25.052
82.52000 25.184
82.54000 22.844
82.56000 14.513
82.58000 16.015
82.60000 23.920
82.62000 21.624
82.64000 10.483
82.66000 14.555
82.68000 21.395
82.70000 24.340
82.72000 18.537
82.74000 19.149
82.76000 15.706
82.78000 14.775
82.80000 13.283
82.82000 19.077
82.84000 13.603
82.86000 12.333
82.88000 16.524
82.90000 13.845
82.92000 14.929
82.94000 16.143
82.96000 14.537
82.98000 20.552
83.00000 9.842
83.02000 6.021
83.04000 10.556
83.06000 6.531
83.08000 12.020
83.10000 14.091
83.12000 9.880
83.14000 9.494
83.16000 12.633
83.18000 12.693
83.20000 8.922
83.22000 7.037
83.24000 7.263
83.26000 5.992
83.28000 7.993
83.30000 9.162
83.32000 5.237
83.34000 2.262
83.36000 8.498
83.38000 6.112
83.40000 7.259
83.42000 5.166
83.44000 -0.876
83.46000 7.054
83.48000 7.506
83.50000 6.100
83.52000 7.436
83.54000 8.016
83.56000 3.559
83.58000 3.682
83.60000 8.216
83.62000 8.023
83.64000 5.578
83.66000 2.923
83.68000 2.879
83.70000 6.224
83.72000 7.912
83.74000 2.636
83.76000 3.401
83.78000 4.897
83.80000 4.843
83.82000 2.467
83.84000 4.977
83.86000 2.636
83.88000 3.664
83.90000 4.313
83.92000 2.005
83.94000 -2.711
83.96000 3.183
83.98000 2.934
84.00000 0.907
84.02000 -0.866
84.04000 5.387
84.06000 5.822
84.08000 7.402
84.10000 0.853
84.12000 -2.037
84.14000 0.259
84.16000 3.381
84.18000 0.689
84.20000 2.121
84.22000 7.616
84.24000 7.198
84.26000 1.962
84.28000 -2.707
84.30000 -1.157
84.32000 -1.004
84.34000 1.783
84.36000 -0.939
84.38000 3.611
84.40000 6.724
84.42000 8.662
84.44000 -0.197
84.46000 -1.304
84.48000 -0.729
84.50000 0.460
84.52000 0.364
84.54000 5.461
84.56000 -0.355
84.58000 -2.517
84.60000 -2.716
84.62000 0.953
84.64000 0.651
84.66000 0.732
84.68000 11.126
84.70000 11.152
84.72000 13.219
84.74000 6.097
84.76000 2.313
84.78000 4.786
84.80000 3.321
84.82000 3.982
84.84000 -0.364
84.86000 0.723
84.88000 5.199
84.90000 5.575
84.92000 6.305
84.94000 -0.161
84.96000 3.670
84.98000 7.626
85.00000 2.199
85.02000 3.482
85.04000 11.171
85.06000 6.177
85.08000 1.207
85.10000 6.464
85.12000 9.671
85.14000 9.432
85.16000 5.613
85.18000 5.370
85.20000 3.541
85.22000 9.157
85.24000 11.690
85.26000 9.918
85.28000 12.197
85.30000 15.447
85.32000 13.858
85.34000 7.338
85.36000 1.359
85.38000 3.618
85.40000 5.227
85.42000 7.702
85.44000 8.825
85.46000 10.516
85.48000 10.827
85.50000 9.789
85.52000 10.975
85.54000 11.447
85.56000 14.461
85.58000 13.470
85.60000 16.345
85.62000 14.549
85.64000 10.661
85.66000 11.884
85.68000 15.927
85.70000 20.283
85.72000 21.120
85.74000 20.457
85.76000 22.881
85.78000 13.560
85.80000 18.253
85.82000 23.191
85.84000 27.970
85.86000 28.145
85.88000 23.288
85.90000 22.249
85.92000 25.270
85.94000 26.449
85.96000 26.045
85.98000 23.553
86.00000 25.067
86.02000 32.566
86.04000 32.681
86.06000 30.866
86.08000 30.819
86.10000 27.540
86.12000 29.047
86.14000 27.308
86.16000 31.768
86.18000 31.841
86.20000 28.850
86.22000 29.092
86.24000 30.986
86.26000 27.956
86.28000 30.648
86.30000 38.739
86.32000 35.851
86.34000 42.909
86.36000 39.125
86.38000 37.269
86.40000 36.846
86.42000 37.852
86.44000 38.516
86.46000 35.852
86.48000 34.664
86.50000 38.414
86.52000 47.833
86.54000 40.191
86.56000 30.947
86.58000 33.987
86.60000 38.490
86.62000 37.763
86.64000 35.860
86.66000 36.074
86.68000 32.919
86.70000 35.059
86.72000 34.130
86.74000 27.273
86.76000 32.404
86.78000 33.721
86.80000 34.292
86.82000 30.656
86.84000 33.515
86.86000 33.962
86.88000 34.322
86.90000 27.958
86.92000 25.702
86.94000 20.005
86.96000 24.747
86.98000 25.678
87.00000 29.044
87.02000 25.374
87.04000 25.680
87.06000 22.753
87.08000 19.604
87.10000 18.135
87.12000 16.785
87.14000 17.356
87.16000 17.501
87.18000 16.485
87.20000 23.362
87.22000 18.492
87.24000 17.688
87.26000 15.857
87.28000 13.421
87.30000 16.196
87.32000 11.249
87.34000 7.769
87.36000 9.865
87.38000 13.314
87.40000 17.522
87.42000 14.162
87.44000 13.320
87.46000 7.587
87.48000 10.454
87.50000 9.194
87.52000 11.598
87.54000 14.673
87.56000 13.105
87.58000 9.276
87.60000 12.708
87.62000 9.413
87.64000 1.122
87.66000 6.742
87.68000 3.474
87.70000 3.879
87.72000 4.176
87.74000 3.629
87.76000 2.160
87.78000 1.840
87.80000 -0.529
87.82000 3.662
87.84000 4.388
87.86000 1.561
87.88000 0.872
87.90000 4.488
87.92000 3.467
87.94000 2.429
87.96000 0.829
87.98000 -0.663
88.00000 2.578
88.02000 2.331
88.04000 -2.156
88.06000 1.727
88.08000 2.284
88.10000 2.741
88.12000 -0.672
88.14000 -0.594
88.16000 -2.387
88.18000 0.866
88.20000 3.458
88.22000 1.037
88.24000 1.817
88.26000 3.981
88.28000 6.178
88.30000 3.545
88.32000 4.428
88.34000 1.925
88.36000 -0.127
88.38000 0.655
88.40000 0.291
88.42000 1.800
88.44000 -2.499
88.46000 -0.394
88.48000 0.192
88.50000 0.103
88.52000 -2.203
88.54000 2.020
88.56000 0.662
88.58000 2.289
88.60000 5.737
88.62000 7.713
88.64000 1.757
88.66000 -1.057
88.68000 6.689
88.70000 5.887
88.72000 7.954
88.74000 1.866
88.76000 -1.294
88.78000 1.713
88.80000 -0.420
88.82000 3.634
88.84000 6.832
88.86000 1.735
88.88000 3.744
88.90000 3.805
88.92000 1.541
88.94000 4.143
88.96000 0.793
88.98000 1.889
89.00000 10.678
89.02000 8.956
89.04000 6.433
89.06000 8.194
89.08000 3.423
89.10000 3.818
89.12000 6.318
89.14000 -2.365
89.16000 4.520
89.18000 9.463
89.20000 -1.816
89.22000 2.291
89.24000 5.329
89.26000 5.510
89.28000 5.398
89.30000 2.101
89.32000 0.459
89.34000 2.028
89.36000 4.225
89.38000 2.459
89.40000 2.207
89.42000 3.667
89.44000 1.911
89.46000 -0.817
89.48000 0.518
89.50000 2.862
89.52000 5.180
89.54000 4.602
89.56000 8.123
89.58000 5.862
89.60000 3.144
89.62000 3.896
89.64000 3.705
89.66000 1.046
89.68000 -0.828
89.70000 -2.356
89.72000 -1.290
89.74000 3.304
89.76000 6.178
89.78000 9.236
89.80000 11.243
89.82000 13.951
89.84000 8.774
89.86000 8.585
89.88000 4.501
89.90000 3.874
89.92000 7.381
89.94000 10.417
89.96000 9.127
89.98000 5.940
90.00000 4.868
90.02000 7.506
90.04000 8.535
90.06000 7.639
90.08000 6.239
90.10000 0.776
90.12000 5.738
90.14000 4.850
90.16000 5.896
90.18000 0.992
90.20000 0.813
90.22000 5.766
90.24000 5.955
90.26000 5.977
90.28000 5.781
90.30000 7.694
90.32000 8.740
90.34000 8.615
90.36000 8.318
90.38000 3.335
90.40000 3.614
90.42000 5.789
90.44000 5.067
90.46000 4.811
90.48000 6.313
90.50000 1.905
90.52000 2.209
90.54000 5.272
90.56000 7.709
90.58000 9.175
90.60000 8.492
90.62000 6.049
90.64000 4.104
90.66000 2.140
90.68000 -2.333
90.70000 3.530
90.72000 8.351
90.74000 9.469
90.76000 10.369
90.78000 3.325
90.80000 4.216
90.82000 1.943
90.84000 4.540
90.86000 11.199
90.88000 6.758
90.90000 7.243
90.92000 2.822
90.94000 3.999
90.96000 -2.350
90.98000 0.990
91.00000 1.037
91.02000 1.749
91.04000 6.658
91.06000 10.402
91.08000 5.901
91.10000 4.393
91.12000 -0.709
91.14000 4.589
91.16000 0.209
91.18000 -0.712
91.20000 4.170
91.22000 3.094
91.24000 6.293
91.26000 10.153
91.28000 5.527
91.30000 3.694
91.32000 11.031
91.34000 5.030
91.36000 0.665
91.38000 4.179
91.40000 0.383
91.42000 1.433
91.44000 2.969
91.46000 4.500
91.48000 2.843
91.50000 8.228
91.52000 3.752
91.54000 3.961
91.56000 6.387
91.58000 3.083
91.60000 -1.694
91.62000 -1.568
91.64000 -0.559
91.66000 -0.949
91.68000 0.769
91.70000 4.439
91.72000 6.631
91.74000 4.083
91.76000 3.894
91.78000 5.281
91.80000 -1.216
91.82000 2.695
91.84000 5.610
91.86000 3.636
91.88000 6.515
91.90000 4.453
91.92000 3.561
91.94000 7.114
91.96000 3.795
91.98000 5.999
92.00000 8.344
92.02000 9.308
92.04000 10.822
92.06000 5.038
92.08000 1.315
92.10000 -0.056
92.12000 -2.379
92.14000 1.948
92.16000 5.797
92.18000 3.408
92.20000 5.751
92.22000 1.724
92.24000 2.449
92.26000 4.048
92.28000 2.376
92.30000 0.078
92.32000 5.123
92.34000 4.179
92.36000 0.221
92.38000 2.612
92.40000 2.449
92.42000 3.056
92.44000 2.745
92.46000 3.841
92.48000 3.150
92.50000 3.122
92.52000 4.901
92.54000 5.481
92.56000 2.940
92.58000 1.077
92.60000 0.783
92.62000 -1.179
92.64000 1.918
92.66000 3.221
92.68000 1.563
92.70000 -1.156
92.72000 1.649
92.74000 1.068
92.76000 1.768
92.78000 3.055
92.80000 9.091
92.82000 5.076
92.84000 2.234
92.86000 3.169
92.88000 4.988
92.90000 6.494
92.92000 4.627
92.94000 9.391
92.96000 10.369
92.98000 7.851
93.00000 8.472
93.02000 5.522
93.04000 5.797
93.06000 1.029
93.08000 1.068
93.10000 6.296
93.12000 3.812
93.14000 7.011
93.16000 6.863
93.18000 1.591
93.20000 0.783
93.22000 -2.365
93.24000 0.384
93.26000 1.094
93.28000 7.014
93.30000 7.580
93.32000 5.367
93.34000 5.784
93.36000 8.322
93.38000 6.087
93.40000 2.258
93.42000 3.447
93.44000 6.542
93.46000 6.297
93.48000 0.032
93.50000 2.400
93.52000 1.417
93.54000 -0.303
93.56000 2.569
93.58000 6.616
93.60000 4.532
93.62000 3.375
93.64000 6.172
93.66000 10.154
93.68000 10.265
93.70000 0.089
93.72000 0.680
93.74000 3.046
93.76000 0.798
93.78000 1.717
93.80000 -1.654
93.82000 -0.695
93.84000 1.741
93.86000 0.582
93.88000 4.446
93.90000 -0.678
93.92000 5.052
93.94000 9.858
93.96000 11.816
93.98000 12.756
94.00000 8.530
94.02000 8.482
94.04000 6.666
94.06000 6.235
94.08000 5.387
94.10000 8.601
94.12000 6.829
94.14000 3.447
94.16000 9.646
94.18000 5.760
94.20000 6.523
94.22000 6.710
94.24000 4.882
94.26000 6.226
94.28000 4.592
94.30000 10.853
94.32000 9.906
94.34000 7.277
94.36000 10.250
94.38000 11.422
94.40000 10.549
94.42000 7.515
94.44000 14.386
94.46000 6.547
94.48000 1.239
94.50000 5.431
94.52000 4.562
94.54000 -0.936
94.56000 1.781
94.58000 5.230
94.60000 9.581
94.62000 9.496
94.64000 12.091
94.66000 13.293
94.68000 11.306
94.70000 9.390
94.72000 9.104
94.74000 6.550
94.76000 10.323
94.78000 4.636
94.80000 -2.308
94.82000 2.906
94.84000 10.123
94.86000 13.910
94.88000 9.196
94.90000 4.335
94.92000 5.078
94.94000 6.971
94.96000 9.598
94.98000 7.912
95.00000 7.891
95.02000 3.846
95.04000 14.854
95.06000 12.779
95.08000 7.469
95.10000 2.622
95.12000 1.669
95.14000 3.202
95.16000 5.244
95.18000 9.189
95.20000 9.723
95.22000 10.580
95.24000 12.599
95.26000 9.975
95.28000 9.172
95.30000 6.740
95.32000 4.670
95.34000 7.437
95.36000 6.632
95.38000 7.824
95.40000 10.735
95.42000 11.623
95.44000 9.944
95.46000 8.227
95.48000 2.957
95.50000 2.396
95.52000 7.506
95.54000 4.975
95.56000 4.450
95.58000 8.779
95.60000 8.511
95.62000 8.233
95.64000 6.016
95.66000 2.021
95.68000 7.119
95.70000 12.141
95.72000 4.713
95.74000 4.653
95.76000 6.227
95.78000 8.254
95.80000 9.991
95.82000 3.167
95.84000 2.736
95.86000 3.836
95.88000 3.226
95.90000 4.212
95.92000 -2.299
95.94000 6.206
95.96000 1.701
95.98000 2.693
96.00000 2.328
96.02000 4.921
96.04000 7.472
96.06000 9.494
96.08000 7.575
96.10000 5.181
96.12000 4.768
96.14000 0.930
96.16000 1.263
96.18000 9.059
96.20000 4.103
96.22000 3.902
96.24000 7.826
96.26000 3.279
96.28000 5.043
96.30000 7.237
96.32000 3.428
96.34000 8.057
96.36000 6.344
96.38000 7.708
96.40000 13.068
96.42000 7.016
96.44000 8.963
96.46000 1.551
96.48000 -2.350
96.50000 9.394
96.52000 12.104
96.54000 17.089
96.56000 8.823
96.58000 5.578
96.60000 6.355
96.62000 7.407
96.64000 4.137
96.66000 2.442
96.68000 7.098
96.70000 6.622
96.72000 9.825
96.74000 10.428
96.76000 15.153
96.78000 12.299
96.80000 11.813
96.82000 12.865
96.84000 7.562
96.86000 2.653
96.88000 1.264
96.90000 2.751
96.92000 0.882
96.94000 3.758
96.96000 1.902
96.98000 0.548
97.00000 4.138
97.02000 5.230
97.04000 10.844
97.06000 10.315
97.08000 4.789
97.10000 -2.376
97.12000 -1.857
97.14000 0.441
97.16000 4.736
97.18000 7.131
97.20000 4.999
97.22000 6.850
97.24000 12.324
97.26000 6.068
97.28000 9.617
97.30000 8.446
97.32000 1.016
97.34000 4.576
97.36000 11.634
97.38000 13.614
97.40000 9.786
97.42000 7.599
97.44000 12.298
97.46000 8.375
97.48000 3.627
97.50000 5.562
97.52000 0.978
97.54000 4.247
97.56000 4.016
97.58000 -0.888
97.60000 9.683
97.62000 13.379
97.64000 3.762
97.66000 6.370
97.68000 -2.132
97.70000 3.872
97.72000 5.725
97.74000 1.013
97.76000 2.740
97.78000 1.482
97.80000 -1.365
97.82000 9.956
97.84000 7.997
97.86000 9.420
97.88000 1.728
97.90000 4.337
97.92000 11.151
97.94000 4.681
97.96000 -0.558
97.98000 1.692
98.00000 8.718
98.02000 6.229
98.04000 10.060
98.06000 9.424
98.08000 13.938
98.10000 7.850
98.12000 4.465
98.14000 2.951
98.16000 9.390
98.18000 10.753
98.20000 5.945
98.22000 2.936
98.24000 -2.356
98.26000 1.901
98.28000 8.253
98.30000 4.406
98.32000 9.005
98.34000 10.716
98.36000 9.202
98.38000 8.354
98.40000 2.589
98.42000 5.295
98.44000 8.985
98.46000 13.017
98.48000 8.415
98.50000 10.367
98.52000 2.461
98.54000 8.394
98.56000 6.059
98.58000 5.806
98.60000 -0.797
98.62000 2.864
98.64000 3.015
98.66000 5.969
98.68000 12.700
98.70000 7.141
98.72000 0.894
98.74000 9.115
98.76000 12.835
98.78000 7.485
98.80000 5.710
98.82000 6.573
98.84000 0.794
98.86000 -2.321
98.88000 3.847
98.90000 6.212
98.92000 21.258
98.94000 14.362
98.96000 11.096
98.98000 9.434
99.00000 -0.412
99.02000 1.928
99.04000 13.732
99.06000 11.904
99.08000 8.996
99.10000 6.001
99.12000 5.732
99.14000 2.141
99.16000 8.767
99.18000 12.525
99.20000 8.370
99.22000 9.461
99.24000 5.483
99.26000 3.113
99.28000 12.378
99.30000 12.828
99.32000 7.048
99.34000 7.155
99.36000 13.104
99.38000 6.005
99.40000 12.663
99.42000 7.623
99.44000 7.557
99.46000 2.521
99.48000 4.981
99.50000 14.416
99.52000 12.189
99.54000 11.848
99.56000 9.195
99.58000 8.741
99.60000 10.088
99.62000 5.612
99.64000 10.635
99.66000 -5.746
99.68000 1.289
99.70000 7.460
99.72000 -0.177
99.74000 0.286
99.76000 6.594
99.78000 9.452
99.80000 18.182
99.82000 15.411
99.84000 10.274
99.86000 -5.230
99.88000 1.829
99.90000 7.160
99.92000 -6.050
99.94000 0.492
99.96000 4.585
99.98000 0.000
