'Id: "0011387" Comment: "Integrate frame 0011387_Au-Ir-Rh_Rh-rich_XRD-Mapping-322-0000.gfrmwith cursor Wedge Cursor #5" Operator: "B?rgel" Anode: "Cu" Wavelength: "1.5406" Scantype: "2Theta (TwoTheta)" TimePerStep: "1" X: "22.5" Y: "36" Z: "5.95" 
10.00000 0.000
10.02000 -3.866
10.04000 2.438
10.06000 9.931
10.08000 4.044
10.10000 8.292
10.12000 14.519
10.14000 13.454
10.16000 -2.059
10.18000 18.157
10.20000 29.657
10.22000 25.025
10.24000 16.155
10.26000 10.685
10.28000 17.246
10.30000 15.942
10.32000 9.420
10.34000 10.460
10.36000 8.599
10.38000 16.628
10.40000 10.817
10.42000 9.548
10.44000 32.681
10.46000 29.345
10.48000 22.862
10.50000 6.112
10.52000 2.336
10.54000 13.416
10.56000 22.416
10.58000 23.724
10.60000 17.659
10.62000 19.274
10.64000 7.857
10.66000 4.067
10.68000 14.972
10.70000 14.700
10.72000 16.633
10.74000 20.333
10.76000 24.160
10.78000 11.513
10.80000 9.687
10.82000 10.691
10.84000 9.914
10.86000 10.707
10.88000 15.518
10.90000 25.847
10.92000 26.630
10.94000 28.429
10.96000 19.393
10.98000 16.224
11.00000 18.619
11.02000 23.145
11.04000 21.400
11.06000 18.063
11.08000 15.021
11.10000 24.750
11.12000 25.081
11.14000 24.386
11.16000 18.087
11.18000 16.433
11.20000 14.453
11.22000 27.504
11.24000 18.965
11.26000 23.602
11.28000 25.668
11.30000 20.123
11.32000 13.984
11.34000 27.534
11.36000 17.984
11.38000 24.021
11.40000 14.876
11.42000 21.607
11.44000 30.840
11.46000 16.526
11.48000 10.064
11.50000 27.833
11.52000 23.659
11.54000 18.553
11.56000 18.377
11.58000 15.648
11.60000 18.288
11.62000 18.352
11.64000 21.907
11.66000 21.651
11.68000 27.320
11.70000 29.477
11.72000 22.629
11.74000 14.078
11.76000 16.509
11.78000 31.388
11.80000 24.533
11.82000 15.384
11.84000 15.700
11.86000 18.456
11.88000 31.135
11.90000 41.759
11.92000 21.651
11.94000 20.422
11.96000 17.661
11.98000 17.685
12.00000 20.606
12.02000 16.727
12.04000 9.421
12.06000 10.193
12.08000 25.705
12.10000 20.415
12.12000 22.686
12.14000 25.027
12.16000 32.314
12.18000 22.526
12.20000 11.435
12.22000 17.262
12.24000 19.844
12.26000 35.129
12.28000 32.021
12.30000 21.023
12.32000 21.601
12.34000 26.740
12.36000 23.099
12.38000 19.844
12.40000 20.897
12.42000 21.024
12.44000 21.282
12.46000 23.382
12.48000 27.161
12.50000 26.822
12.52000 31.785
12.54000 22.543
12.56000 26.588
12.58000 28.582
12.60000 32.133
12.62000 23.852
12.64000 11.224
12.66000 14.594
12.68000 19.461
12.70000 17.040
12.72000 19.609
12.74000 23.638
12.76000 25.938
12.78000 33.507
12.80000 28.763
12.82000 11.575
12.84000 17.725
12.86000 13.838
12.88000 22.583
12.90000 24.213
12.92000 21.367
12.94000 24.620
12.96000 24.183
12.98000 19.765
13.00000 10.904
13.02000 7.231
13.04000 20.735
13.06000 24.792
13.08000 16.122
13.10000 18.253
13.12000 16.827
13.14000 23.434
13.16000 19.977
13.18000 14.292
13.20000 26.147
13.22000 22.865
13.24000 18.860
13.26000 19.537
13.28000 19.106
13.30000 18.976
13.32000 17.724
13.34000 24.826
13.36000 24.079
13.38000 20.649
13.40000 15.416
13.42000 22.220
13.44000 21.299
13.46000 21.585
13.48000 11.518
13.50000 10.627
13.52000 13.741
13.54000 20.044
13.56000 23.428
13.58000 18.429
13.60000 22.896
13.62000 15.501
13.64000 8.815
13.66000 15.355
13.68000 9.123
13.70000 7.055
13.72000 12.533
13.74000 22.320
13.76000 20.800
13.78000 13.570
13.80000 19.948
13.82000 17.638
13.84000 18.934
13.86000 20.673
13.88000 22.137
13.90000 23.922
13.92000 18.932
13.94000 20.828
13.96000 24.552
13.98000 17.990
14.00000 9.718
14.02000 10.891
14.04000 14.927
14.06000 5.001
14.08000 2.483
14.10000 9.752
14.12000 19.613
14.14000 13.602
14.16000 12.600
14.18000 7.822
14.20000 3.088
14.22000 8.554
14.24000 11.069
14.26000 15.678
14.28000 21.004
14.30000 17.756
14.32000 24.264
14.34000 20.060
14.36000 9.696
14.38000 14.339
14.40000 18.421
14.42000 16.194
14.44000 23.346
14.46000 16.300
14.48000 14.016
14.50000 8.215
14.52000 11.337
14.54000 5.608
14.56000 9.229
14.58000 4.189
14.60000 12.697
14.62000 17.138
14.64000 16.013
14.66000 10.441
14.68000 3.146
14.70000 11.344
14.72000 16.677
14.74000 15.079
14.76000 20.097
14.78000 18.539
14.80000 9.592
14.82000 4.835
14.84000 3.760
14.86000 3.328
14.88000 8.212
14.90000 22.001
14.92000 30.847
14.94000 24.555
14.96000 10.588
14.98000 3.782
15.00000 6.099
15.02000 6.535
15.04000 11.727
15.06000 14.622
15.08000 11.649
15.10000 15.389
15.12000 15.390
15.14000 2.845
15.16000 1.402
15.18000 3.432
15.20000 12.206
15.22000 9.103
15.24000 7.559
15.26000 6.283
15.28000 9.048
15.30000 7.545
15.32000 12.960
15.34000 8.084
15.36000 -3.532
15.38000 -3.559
15.40000 7.586
15.42000 2.363
15.44000 5.714
15.46000 11.232
15.48000 17.255
15.50000 1.802
15.52000 0.307
15.54000 0.120
15.56000 7.210
15.58000 6.970
15.60000 4.935
15.62000 9.795
15.64000 13.547
15.66000 14.837
15.68000 5.967
15.70000 4.556
15.72000 8.213
15.74000 5.969
15.76000 3.909
15.78000 8.161
15.80000 3.078
15.82000 8.458
15.84000 9.694
15.86000 11.575
15.88000 8.430
15.90000 5.196
15.92000 5.282
15.94000 0.323
15.96000 4.165
15.98000 9.584
16.00000 7.101
16.02000 -1.439
16.04000 6.920
16.06000 5.994
16.08000 4.927
16.10000 -2.336
16.12000 -3.835
16.14000 0.560
16.16000 3.534
16.18000 6.478
16.20000 3.435
16.22000 2.130
16.24000 1.326
16.26000 8.471
16.28000 14.177
16.30000 13.439
16.32000 9.790
16.34000 4.195
16.36000 4.036
16.38000 3.517
16.40000 12.171
16.42000 11.378
16.44000 3.105
16.46000 2.137
16.48000 9.967
16.50000 8.909
16.52000 10.821
16.54000 6.909
16.56000 8.191
16.58000 4.365
16.60000 6.259
16.62000 4.698
16.64000 -4.429
16.66000 4.330
16.68000 15.715
16.70000 7.708
16.72000 9.378
16.74000 16.856
16.76000 4.690
16.78000 7.545
16.80000 -0.019
16.82000 -1.962
16.84000 6.645
16.86000 11.634
16.88000 9.187
16.90000 7.165
16.92000 9.066
16.94000 10.368
16.96000 -1.007
16.98000 5.688
17.00000 6.455
17.02000 11.181
17.04000 6.086
17.06000 3.307
17.08000 0.556
17.10000 6.139
17.12000 11.864
17.14000 12.933
17.16000 8.223
17.18000 12.952
17.20000 11.784
17.22000 6.615
17.24000 7.692
17.26000 6.407
17.28000 3.632
17.30000 -2.365
17.32000 7.177
17.34000 9.572
17.36000 3.313
17.38000 -1.115
17.40000 2.211
17.42000 -1.529
17.44000 10.118
17.46000 3.893
17.48000 4.072
17.50000 10.656
17.52000 6.372
17.54000 5.740
17.56000 4.695
17.58000 5.300
17.60000 5.174
17.62000 7.269
17.64000 3.918
17.66000 6.352
17.68000 5.678
17.70000 10.176
17.72000 9.697
17.74000 4.591
17.76000 13.782
17.78000 14.222
17.80000 5.502
17.82000 11.902
17.84000 11.481
17.86000 8.894
17.88000 9.683
17.90000 17.334
17.92000 10.542
17.94000 6.212
17.96000 8.204
17.98000 7.848
18.00000 4.300
18.02000 7.746
18.04000 7.452
18.06000 2.109
18.08000 -4.287
18.10000 -2.496
18.12000 -2.027
18.14000 -1.671
18.16000 2.537
18.18000 8.728
18.20000 4.811
18.22000 6.082
18.24000 7.115
18.26000 3.271
18.28000 -1.711
18.30000 0.060
18.32000 -2.137
18.34000 2.708
18.36000 -2.769
18.38000 3.375
18.40000 1.458
18.42000 0.736
18.44000 1.010
18.46000 4.568
18.48000 10.825
18.50000 10.694
18.52000 7.572
18.54000 -0.290
18.56000 4.119
18.58000 -3.090
18.60000 1.201
18.62000 6.767
18.64000 3.697
18.66000 0.607
18.68000 3.541
18.70000 0.495
18.72000 -2.679
18.74000 -4.338
18.76000 -3.584
18.78000 4.347
18.80000 2.658
18.82000 8.333
18.84000 7.499
18.86000 5.980
18.88000 6.720
18.90000 2.424
18.92000 -1.118
18.94000 5.853
18.96000 4.386
18.98000 2.938
19.00000 1.935
19.02000 7.107
19.04000 6.844
19.06000 5.812
19.08000 12.060
19.10000 11.210
19.12000 6.039
19.14000 9.035
19.16000 8.613
19.18000 2.878
19.20000 5.131
19.22000 3.471
19.24000 -1.036
19.26000 -3.029
19.28000 0.162
19.30000 0.877
19.32000 7.553
19.34000 -0.871
19.36000 -2.417
19.38000 -0.762
19.40000 -0.410
19.42000 3.200
19.44000 4.069
19.46000 -1.666
19.48000 -4.306
19.50000 -0.759
19.52000 -2.308
19.54000 3.106
19.56000 7.948
19.58000 8.524
19.60000 8.308
19.62000 4.778
19.64000 2.716
19.66000 1.028
19.68000 0.208
19.70000 -4.220
19.72000 2.890
19.74000 3.603
19.76000 -1.354
19.78000 -0.811
19.80000 1.621
19.82000 4.290
19.84000 2.745
19.86000 8.646
19.88000 10.303
19.90000 3.982
19.92000 4.304
19.94000 4.741
19.96000 6.071
19.98000 2.989
20.00000 2.136
20.02000 7.189
20.04000 3.817
20.06000 7.485
20.08000 5.478
20.10000 9.573
20.12000 10.699
20.14000 7.179
20.16000 -2.115
20.18000 -1.553
20.20000 -4.255
20.22000 -3.841
20.24000 6.776
20.26000 5.242
20.28000 4.693
20.30000 4.959
20.32000 5.382
20.34000 7.506
20.36000 1.997
20.38000 5.326
20.40000 5.478
20.42000 2.172
20.44000 2.577
20.46000 5.923
20.48000 7.915
20.50000 7.673
20.52000 12.887
20.54000 9.321
20.56000 1.057
20.58000 -3.001
20.60000 -1.851
20.62000 2.207
20.64000 5.036
20.66000 5.698
20.68000 2.169
20.70000 -0.418
20.72000 0.430
20.74000 1.721
20.76000 5.937
20.78000 9.706
20.80000 10.676
20.82000 9.833
20.84000 7.881
20.86000 5.110
20.88000 -0.461
20.90000 4.383
20.92000 10.740
20.94000 6.349
20.96000 5.051
20.98000 8.384
21.00000 7.771
21.02000 8.373
21.04000 8.405
21.06000 14.086
21.08000 7.098
21.10000 3.185
21.12000 1.684
21.14000 3.208
21.16000 1.398
21.18000 7.899
21.20000 6.207
21.22000 14.264
21.24000 13.514
21.26000 5.609
21.28000 7.337
21.30000 6.151
21.32000 0.892
21.34000 4.560
21.36000 5.511
21.38000 8.157
21.40000 8.111
21.42000 5.146
21.44000 -4.161
21.46000 -1.787
21.48000 5.142
21.50000 4.674
21.52000 3.087
21.54000 -0.191
21.56000 2.131
21.58000 2.964
21.60000 11.286
21.62000 8.915
21.64000 12.161
21.66000 6.351
21.68000 5.020
21.70000 4.692
21.72000 6.255
21.74000 5.855
21.76000 11.834
21.78000 7.286
21.80000 8.141
21.82000 5.322
21.84000 0.907
21.86000 6.583
21.88000 3.308
21.90000 -3.509
21.92000 -2.348
21.94000 1.435
21.96000 1.689
21.98000 2.215
22.00000 2.309
22.02000 0.190
22.04000 0.818
22.06000 -1.993
22.08000 1.956
22.10000 2.821
22.12000 1.928
22.14000 -1.388
22.16000 0.281
22.18000 9.191
22.20000 7.227
22.22000 2.813
22.24000 0.730
22.26000 -2.223
22.28000 -3.480
22.30000 2.634
22.32000 2.026
22.34000 -2.593
22.36000 1.858
22.38000 1.256
22.40000 2.656
22.42000 -0.844
22.44000 -4.145
22.46000 1.397
22.48000 3.151
22.50000 -2.157
22.52000 1.371
22.54000 6.467
22.56000 4.396
22.58000 2.798
22.60000 9.839
22.62000 9.611
22.64000 7.998
22.66000 4.921
22.68000 -0.241
22.70000 0.312
22.72000 0.752
22.74000 4.377
22.76000 5.090
22.78000 5.915
22.80000 8.126
22.82000 6.646
22.84000 4.873
22.86000 2.294
22.88000 -0.043
22.90000 -1.505
22.92000 4.203
22.94000 0.869
22.96000 1.530
22.98000 4.022
23.00000 5.522
23.02000 -2.431
23.04000 0.510
23.06000 2.806
23.08000 2.322
23.10000 3.476
23.12000 4.265
23.14000 -1.685
23.16000 -2.376
23.18000 1.305
23.20000 -1.258
23.22000 -3.182
23.24000 0.381
23.26000 5.234
23.28000 3.198
23.30000 -3.907
23.32000 -2.399
23.34000 -1.993
23.36000 2.289
23.38000 5.013
23.40000 4.378
23.42000 7.837
23.44000 5.820
23.46000 0.595
23.48000 -4.108
23.50000 1.583
23.52000 1.462
23.54000 -0.846
23.56000 1.999
23.58000 -0.794
23.60000 3.736
23.62000 0.981
23.64000 -3.644
23.66000 -2.879
23.68000 2.643
23.70000 6.503
23.72000 3.434
23.74000 6.248
23.76000 6.524
23.78000 -4.079
23.80000 -0.273
23.82000 2.478
23.84000 3.165
23.86000 3.418
23.88000 4.736
23.90000 -0.466
23.92000 -0.423
23.94000 4.242
23.96000 4.144
23.98000 2.393
24.00000 1.306
24.02000 -1.276
24.04000 1.545
24.06000 -1.899
24.08000 -1.843
24.10000 -3.710
24.12000 1.101
24.14000 1.426
24.16000 2.029
24.18000 -3.323
24.20000 0.503
24.22000 8.439
24.24000 8.338
24.26000 1.355
24.28000 1.274
24.30000 -2.141
24.32000 -1.234
24.34000 3.914
24.36000 5.507
24.38000 7.596
24.40000 5.661
24.42000 -3.529
24.44000 -4.038
24.46000 1.332
24.48000 2.441
24.50000 2.588
24.52000 2.559
24.54000 4.932
24.56000 4.511
24.58000 1.491
24.60000 5.025
24.62000 4.175
24.64000 0.009
24.66000 0.409
24.68000 0.983
24.70000 6.296
24.72000 3.214
24.74000 4.197
24.76000 7.518
24.78000 5.463
24.80000 4.449
24.82000 -2.334
24.84000 -4.015
24.86000 3.306
24.88000 5.200
24.90000 2.815
24.92000 -1.284
24.94000 4.560
24.96000 9.620
24.98000 4.255
25.00000 5.702
25.02000 7.913
25.04000 7.245
25.06000 -0.590
25.08000 -1.191
25.10000 0.224
25.12000 2.066
25.14000 -0.166
25.16000 4.142
25.18000 5.047
25.20000 1.764
25.22000 3.520
25.24000 3.465
25.26000 0.129
25.28000 0.550
25.30000 4.451
25.32000 3.796
25.34000 4.805
25.36000 1.772
25.38000 7.957
25.40000 7.051
25.42000 2.349
25.44000 -0.280
25.46000 1.313
25.48000 3.777
25.50000 0.285
25.52000 1.109
25.54000 5.309
25.56000 1.999
25.58000 0.024
25.60000 1.889
25.62000 4.751
25.64000 2.326
25.66000 2.812
25.68000 5.560
25.70000 6.610
25.72000 2.101
25.74000 2.490
25.76000 4.024
25.78000 9.195
25.80000 8.283
25.82000 3.428
25.84000 -1.069
25.86000 -0.530
25.88000 -0.219
25.90000 -1.353
25.92000 -0.915
25.94000 3.594
25.96000 1.371
25.98000 2.911
26.00000 6.772
26.02000 1.814
26.04000 -3.802
26.06000 0.814
26.08000 4.480
26.10000 6.678
26.12000 7.901
26.14000 8.887
26.16000 6.982
26.18000 2.409
26.20000 1.148
26.22000 -1.593
26.24000 -1.357
26.26000 -1.658
26.28000 0.987
26.30000 1.960
26.32000 -3.909
26.34000 0.033
26.36000 7.985
26.38000 7.276
26.40000 5.141
26.42000 3.403
26.44000 5.614
26.46000 2.072
26.48000 -1.198
26.50000 0.003
26.52000 2.667
26.54000 5.455
26.56000 7.843
26.58000 7.913
26.60000 -1.329
26.62000 2.118
26.64000 2.696
26.66000 3.727
26.68000 2.408
26.70000 2.675
26.72000 0.009
26.74000 5.716
26.76000 3.543
26.78000 4.899
26.80000 2.487
26.82000 1.235
26.84000 -2.654
26.86000 3.149
26.88000 0.366
26.90000 -3.455
26.92000 3.628
26.94000 5.721
26.96000 6.368
26.98000 6.482
27.00000 1.794
27.02000 8.997
27.04000 4.620
27.06000 3.312
27.08000 1.985
27.10000 4.355
27.12000 9.216
27.14000 7.684
27.16000 5.449
27.18000 1.401
27.20000 1.913
27.22000 0.911
27.24000 2.265
27.26000 3.332
27.28000 5.378
27.30000 5.294
27.32000 1.419
27.34000 1.375
27.36000 2.600
27.38000 -1.025
27.40000 2.633
27.42000 1.405
27.44000 1.414
27.46000 2.524
27.48000 1.197
27.50000 2.079
27.52000 3.239
27.54000 4.360
27.56000 1.386
27.58000 -3.092
27.60000 -0.245
27.62000 1.344
27.64000 2.694
27.66000 -3.501
27.68000 -1.475
27.70000 6.893
27.72000 9.103
27.74000 6.092
27.76000 6.052
27.78000 2.661
27.80000 4.475
27.82000 6.656
27.84000 3.477
27.86000 4.944
27.88000 7.997
27.90000 4.735
27.92000 3.814
27.94000 5.053
27.96000 -0.993
27.98000 6.783
28.00000 7.908
28.02000 3.059
28.04000 -2.760
28.06000 3.394
28.08000 1.447
28.10000 0.266
28.12000 -0.046
28.14000 1.699
28.16000 1.922
28.18000 -1.511
28.20000 -3.804
28.22000 4.110
28.24000 6.605
28.26000 10.251
28.28000 8.306
28.30000 2.964
28.32000 8.110
28.34000 3.701
28.36000 1.388
28.38000 3.520
28.40000 2.534
28.42000 2.560
28.44000 1.606
28.46000 6.729
28.48000 10.795
28.50000 5.329
28.52000 7.956
28.54000 4.713
28.56000 1.470
28.58000 0.971
28.60000 1.481
28.62000 4.904
28.64000 5.286
28.66000 5.264
28.68000 3.948
28.70000 2.283
28.72000 1.023
28.74000 3.532
28.76000 6.171
28.78000 5.436
28.80000 3.655
28.82000 2.557
28.84000 4.305
28.86000 0.957
28.88000 0.962
28.90000 -0.907
28.92000 4.996
28.94000 5.107
28.96000 4.153
28.98000 0.197
29.00000 -0.875
29.02000 3.656
29.04000 6.023
29.06000 6.517
29.08000 -0.538
29.10000 3.473
29.12000 6.469
29.14000 6.111
29.16000 3.539
29.18000 7.364
29.20000 6.119
29.22000 4.574
29.24000 2.770
29.26000 0.591
29.28000 5.065
29.30000 3.907
29.32000 1.790
29.34000 2.569
29.36000 6.976
29.38000 1.882
29.40000 2.039
29.42000 7.702
29.44000 6.292
29.46000 9.452
29.48000 10.192
29.50000 6.412
29.52000 8.571
29.54000 6.882
29.56000 6.593
29.58000 5.376
29.60000 4.714
29.62000 3.875
29.64000 -3.702
29.66000 0.355
29.68000 4.990
29.70000 3.942
29.72000 -3.244
29.74000 3.133
29.76000 2.381
29.78000 2.072
29.80000 3.109
29.82000 5.395
29.84000 6.528
29.86000 3.687
29.88000 3.578
29.90000 6.096
29.92000 -0.242
29.94000 0.770
29.96000 2.935
29.98000 9.080
30.00000 8.743
30.02000 6.542
30.04000 2.978
30.06000 4.179
30.08000 1.798
30.10000 2.050
30.12000 7.300
30.14000 8.051
30.16000 5.370
30.18000 1.636
30.20000 4.087
30.22000 2.919
30.24000 3.879
30.26000 5.757
30.28000 6.158
30.30000 5.953
30.32000 6.402
30.34000 10.053
30.36000 7.796
30.38000 4.412
30.40000 4.114
30.42000 1.775
30.44000 5.229
30.46000 2.956
30.48000 0.555
30.50000 2.396
30.52000 -1.048
30.54000 0.319
30.56000 2.576
30.58000 5.473
30.60000 6.820
30.62000 10.106
30.64000 8.281
30.66000 3.671
30.68000 5.540
30.70000 8.581
30.72000 11.422
30.74000 11.768
30.76000 9.690
30.78000 9.297
30.80000 4.764
30.82000 2.610
30.84000 7.921
30.86000 7.234
30.88000 1.034
30.90000 4.830
30.92000 9.207
30.94000 9.183
30.96000 5.289
30.98000 5.022
31.00000 0.763
31.02000 2.665
31.04000 6.039
31.06000 5.741
31.08000 6.623
31.10000 3.983
31.12000 3.595
31.14000 5.723
31.16000 3.406
31.18000 4.927
31.20000 2.319
31.22000 4.190
31.24000 10.515
31.26000 7.641
31.28000 6.324
31.30000 5.243
31.32000 4.389
31.34000 4.312
31.36000 6.827
31.38000 6.146
31.40000 3.957
31.42000 8.656
31.44000 7.323
31.46000 9.241
31.48000 7.737
31.50000 7.785
31.52000 4.498
31.54000 2.227
31.56000 5.246
31.58000 10.871
31.60000 7.621
31.62000 3.486
31.64000 -3.592
31.66000 4.688
31.68000 4.434
31.70000 3.239
31.72000 6.877
31.74000 10.399
31.76000 9.012
31.78000 9.153
31.80000 8.106
31.82000 8.142
31.84000 9.858
31.86000 8.658
31.88000 5.970
31.90000 8.061
31.92000 5.532
31.94000 6.001
31.96000 9.960
31.98000 7.373
32.00000 8.366
32.02000 10.270
32.04000 3.594
32.06000 4.091
32.08000 5.136
32.10000 5.794
32.12000 2.671
32.14000 2.072
32.16000 6.091
32.18000 5.888
32.20000 5.685
32.22000 2.120
32.24000 1.902
32.26000 3.278
32.28000 6.134
32.30000 12.516
32.32000 9.196
32.34000 5.364
32.36000 2.802
32.38000 1.643
32.40000 0.014
32.42000 4.875
32.44000 5.024
32.46000 4.706
32.48000 3.534
32.50000 4.348
32.52000 2.742
32.54000 2.849
32.56000 2.112
32.58000 3.787
32.60000 2.566
32.62000 0.596
32.64000 5.343
32.66000 6.391
32.68000 3.571
32.70000 4.213
32.72000 6.403
32.74000 7.092
32.76000 3.988
32.78000 7.187
32.80000 7.894
32.82000 2.960
32.84000 0.631
32.86000 7.122
32.88000 6.065
32.90000 -1.670
32.92000 -0.208
32.94000 2.590
32.96000 1.076
32.98000 6.400
33.00000 3.604
33.02000 9.100
33.04000 8.165
33.06000 7.130
33.08000 7.272
33.10000 6.330
33.12000 7.040
33.14000 6.747
33.16000 4.036
33.18000 7.661
33.20000 6.550
33.22000 3.466
33.24000 1.307
33.26000 4.774
33.28000 6.230
33.30000 3.546
33.32000 5.987
33.34000 7.013
33.36000 2.937
33.38000 -3.563
33.40000 1.589
33.42000 7.456
33.44000 8.895
33.46000 5.207
33.48000 7.504
33.50000 10.658
33.52000 10.169
33.54000 5.819
33.56000 4.193
33.58000 2.586
33.60000 1.603
33.62000 4.264
33.64000 5.076
33.66000 7.368
33.68000 10.013
33.70000 10.064
33.72000 5.183
33.74000 2.925
33.76000 -1.327
33.78000 2.085
33.80000 6.086
33.82000 2.561
33.84000 0.268
33.86000 3.819
33.88000 2.091
33.90000 -0.656
33.92000 0.894
33.94000 1.605
33.96000 6.068
33.98000 10.266
34.00000 6.640
34.02000 7.476
34.04000 2.367
34.06000 2.999
34.08000 4.524
34.10000 -1.298
34.12000 0.533
34.14000 7.199
34.16000 4.294
34.18000 4.086
34.20000 6.016
34.22000 4.477
34.24000 7.954
34.26000 11.130
34.28000 8.888
34.30000 4.028
34.32000 6.011
34.34000 2.591
34.36000 7.402
34.38000 6.898
34.40000 6.886
34.42000 1.268
34.44000 7.152
34.46000 4.460
34.48000 4.581
34.50000 2.969
34.52000 2.360
34.54000 -0.450
34.56000 1.857
34.58000 2.384
34.60000 7.977
34.62000 4.906
34.64000 2.586
34.66000 3.514
34.68000 2.744
34.70000 2.987
34.72000 6.389
34.74000 5.614
34.76000 -2.504
34.78000 -0.786
34.80000 0.994
34.82000 2.177
34.84000 2.631
34.86000 2.546
34.88000 5.339
34.90000 1.911
34.92000 3.069
34.94000 0.204
34.96000 -0.887
34.98000 3.177
35.00000 -0.833
35.02000 -0.895
35.04000 -3.574
35.06000 1.206
35.08000 2.933
35.10000 -3.421
35.12000 -1.315
35.14000 3.670
35.16000 4.018
35.18000 6.429
35.20000 6.508
35.22000 4.852
35.24000 0.661
35.26000 1.947
35.28000 0.550
35.30000 5.590
35.32000 3.254
35.34000 0.302
35.36000 3.659
35.38000 -1.470
35.40000 0.983
35.42000 3.146
35.44000 1.055
35.46000 1.677
35.48000 1.952
35.50000 -0.518
35.52000 -3.576
35.54000 0.007
35.56000 1.204
35.58000 0.671
35.60000 -1.518
35.62000 0.595
35.64000 7.793
35.66000 4.992
35.68000 3.465
35.70000 3.733
35.72000 5.982
35.74000 4.354
35.76000 1.279
35.78000 7.155
35.80000 1.979
35.82000 0.903
35.84000 9.329
35.86000 6.054
35.88000 6.888
35.90000 6.785
35.92000 6.250
35.94000 3.847
35.96000 2.039
35.98000 -2.743
36.00000 -1.079
36.02000 -0.871
36.04000 2.901
36.06000 2.814
36.08000 1.979
36.10000 3.051
36.12000 5.813
36.14000 6.660
36.16000 0.833
36.18000 -3.594
36.20000 1.217
36.22000 1.999
36.24000 1.024
36.26000 1.046
36.28000 2.584
36.30000 3.019
36.32000 0.331
36.34000 1.506
36.36000 2.612
36.38000 4.069
36.40000 4.948
36.42000 0.504
36.44000 1.275
36.46000 2.875
36.48000 3.609
36.50000 5.948
36.52000 5.962
36.54000 6.202
36.56000 4.581
36.58000 4.994
36.60000 2.079
36.62000 -0.436
36.64000 3.466
36.66000 4.691
36.68000 7.488
36.70000 5.153
36.72000 7.583
36.74000 5.939
36.76000 1.551
36.78000 -3.608
36.80000 -3.049
36.82000 0.189
36.84000 3.642
36.86000 2.864
36.88000 4.333
36.90000 7.861
36.92000 6.510
36.94000 1.068
36.96000 0.890
36.98000 2.960
37.00000 2.823
37.02000 2.512
37.04000 1.654
37.06000 3.627
37.08000 2.606
37.10000 2.276
37.12000 4.275
37.14000 -0.829
37.16000 0.347
37.18000 0.522
37.20000 -0.512
37.22000 2.256
37.24000 4.054
37.26000 -0.092
37.28000 -0.948
37.30000 -1.493
37.32000 -1.776
37.34000 3.779
37.36000 8.455
37.38000 3.273
37.40000 -3.642
37.42000 -1.809
37.44000 4.224
37.46000 6.074
37.48000 3.745
37.50000 4.018
37.52000 6.245
37.54000 8.951
37.56000 10.523
37.58000 9.488
37.60000 2.295
37.62000 4.535
37.64000 6.957
37.66000 11.197
37.68000 10.554
37.70000 12.194
37.72000 9.395
37.74000 7.546
37.76000 10.873
37.78000 11.236
37.80000 14.160
37.82000 14.225
37.84000 11.739
37.86000 12.941
37.88000 11.134
37.90000 11.361
37.92000 12.147
37.94000 15.148
37.96000 11.111
37.98000 8.774
38.00000 10.751
38.02000 12.215
38.04000 15.463
38.06000 12.418
38.08000 12.171
38.10000 13.391
38.12000 15.729
38.14000 16.437
38.16000 17.253
38.18000 17.104
38.20000 23.234
38.22000 24.926
38.24000 18.924
38.26000 15.789
38.28000 17.065
38.30000 19.762
38.32000 22.968
38.34000 18.775
38.36000 18.738
38.38000 19.761
38.40000 22.018
38.42000 23.877
38.44000 26.786
38.46000 26.152
38.48000 27.294
38.50000 31.323
38.52000 33.536
38.54000 32.554
38.56000 34.855
38.58000 36.228
38.60000 37.157
38.62000 34.810
38.64000 36.323
38.66000 35.504
38.68000 31.760
38.70000 39.819
38.72000 41.226
38.74000 41.116
38.76000 40.796
38.78000 45.383
38.80000 48.956
38.82000 50.158
38.84000 51.748
38.86000 58.354
38.88000 59.544
38.90000 55.772
38.92000 59.380
38.94000 61.134
38.96000 64.417
38.98000 68.495
39.00000 71.982
39.02000 67.315
39.04000 70.564
39.06000 72.426
39.08000 80.111
39.10000 79.208
39.12000 85.342
39.14000 98.015
39.16000 95.846
39.18000 96.895
39.20000 107.610
39.22000 114.265
39.24000 114.000
39.26000 123.402
39.28000 131.343
39.30000 137.911
39.32000 143.253
39.34000 146.170
39.36000 150.587
39.38000 160.017
39.40000 168.788
39.42000 175.393
39.44000 183.791
39.46000 196.576
39.48000 206.701
39.50000 216.223
39.52000 223.351
39.54000 235.788
39.56000 249.173
39.58000 269.514
39.60000 281.583
39.62000 295.699
39.64000 298.581
39.66000 310.263
39.68000 328.416
39.70000 343.532
39.72000 355.517
39.74000 375.479
39.76000 392.072
39.78000 407.019
39.80000 421.897
39.82000 447.749
39.84000 457.651
39.86000 472.664
39.88000 494.898
39.90000 506.210
39.92000 521.950
39.94000 538.872
39.96000 545.090
39.98000 554.350
40.00000 563.610
40.02000 588.774
40.04000 595.381
40.06000 595.959
40.08000 594.086
40.10000 590.069
40.12000 597.635
40.14000 587.300
40.16000 582.773
40.18000 577.286
40.20000 564.093
40.22000 559.566
40.24000 556.562
40.26000 544.151
40.28000 539.278
40.30000 529.053
40.32000 501.882
40.34000 490.983
40.36000 477.491
40.38000 467.889
40.40000 455.556
40.42000 437.610
40.44000 417.124
40.46000 398.801
40.48000 380.387
40.50000 361.956
40.52000 343.911
40.54000 324.711
40.56000 312.873
40.58000 303.034
40.60000 289.313
40.62000 272.877
40.64000 253.079
40.66000 251.080
40.68000 239.532
40.70000 222.333
40.72000 202.870
40.74000 197.689
40.76000 189.045
40.78000 178.888
40.80000 167.254
40.82000 160.816
40.84000 149.485
40.86000 144.566
40.88000 137.682
40.90000 128.655
40.92000 121.406
40.94000 113.977
40.96000 108.240
40.98000 104.282
41.00000 92.577
41.02000 88.163
41.04000 87.097
41.06000 80.220
41.08000 78.266
41.10000 73.264
41.12000 70.583
41.14000 67.945
41.16000 60.377
41.18000 54.071
41.20000 55.454
41.22000 51.591
41.24000 49.091
41.26000 47.226
41.28000 44.952
41.30000 39.278
41.32000 41.017
41.34000 38.210
41.36000 35.656
41.38000 33.873
41.40000 33.388
41.42000 33.539
41.44000 27.621
41.46000 23.874
41.48000 26.861
41.50000 27.933
41.52000 25.772
41.54000 23.147
41.56000 20.448
41.58000 18.451
41.60000 21.507
41.62000 21.662
41.64000 21.851
41.66000 20.429
41.68000 17.096
41.70000 14.016
41.72000 13.556
41.74000 13.766
41.76000 17.501
41.78000 14.742
41.80000 14.704
41.82000 14.135
41.84000 13.871
41.86000 14.318
41.88000 7.358
41.90000 4.297
41.92000 5.790
41.94000 4.968
41.96000 4.174
41.98000 5.593
42.00000 6.593
42.02000 5.939
42.04000 3.528
42.06000 4.063
42.08000 6.084
42.10000 2.097
42.12000 4.008
42.14000 5.665
42.16000 3.912
42.18000 5.660
42.20000 7.911
42.22000 4.352
42.24000 2.039
42.26000 2.939
42.28000 6.855
42.30000 5.731
42.32000 0.386
42.34000 -1.555
42.36000 -0.691
42.38000 0.512
42.40000 0.214
42.42000 -0.040
42.44000 2.237
42.46000 3.058
42.48000 2.248
42.50000 -0.228
42.52000 1.017
42.54000 2.336
42.56000 3.323
42.58000 5.270
42.60000 2.448
42.62000 -2.240
42.64000 -2.486
42.66000 0.269
42.68000 3.385
42.70000 3.933
42.72000 2.685
42.74000 3.189
42.76000 8.630
42.78000 8.331
42.80000 5.333
42.82000 1.794
42.84000 3.838
42.86000 1.826
42.88000 3.162
42.90000 0.764
42.92000 -1.524
42.94000 3.599
42.96000 0.491
42.98000 0.999
43.00000 3.410
43.02000 -3.433
43.04000 3.038
43.06000 5.156
43.08000 1.918
43.10000 5.407
43.12000 5.346
43.14000 7.547
43.16000 5.355
43.18000 2.161
43.20000 2.908
43.22000 2.860
43.24000 -1.414
43.26000 -3.067
43.28000 0.530
43.30000 -0.006
43.32000 2.304
43.34000 2.537
43.36000 1.563
43.38000 5.127
43.40000 2.704
43.42000 3.018
43.44000 -1.771
43.46000 0.149
43.48000 1.385
43.50000 -1.220
43.52000 -3.366
43.54000 -2.212
43.56000 -2.168
43.58000 -0.343
43.60000 -1.981
43.62000 -2.538
43.64000 2.885
43.66000 2.523
43.68000 2.042
43.70000 1.802
43.72000 2.478
43.74000 5.618
43.76000 0.644
43.78000 -0.953
43.80000 2.070
43.82000 -0.205
43.84000 1.194
43.86000 -2.619
43.88000 -3.395
43.90000 -1.127
43.92000 -3.005
43.94000 -1.976
43.96000 0.151
43.98000 1.350
44.00000 -2.191
44.02000 -0.856
44.04000 -0.597
44.06000 2.231
44.08000 5.858
44.10000 1.437
44.12000 -3.380
44.14000 1.772
44.16000 2.675
44.18000 2.476
44.20000 3.558
44.22000 0.492
44.24000 2.505
44.26000 4.541
44.28000 1.191
44.30000 -1.377
44.32000 -0.231
44.34000 0.563
44.36000 -0.087
44.38000 0.550
44.40000 0.849
44.42000 -0.996
44.44000 -0.113
44.46000 1.476
44.48000 -0.546
44.50000 0.984
44.52000 1.168
44.54000 0.265
44.56000 0.309
44.58000 -1.319
44.60000 -0.987
44.62000 3.244
44.64000 3.492
44.66000 -1.143
44.68000 -0.160
44.70000 -2.140
44.72000 -0.875
44.74000 -2.504
44.76000 -2.467
44.78000 2.761
44.80000 0.415
44.82000 1.259
44.84000 0.899
44.86000 1.935
44.88000 2.583
44.90000 3.337
44.92000 2.508
44.94000 1.973
44.96000 5.733
44.98000 7.658
45.00000 6.455
45.02000 3.531
45.04000 5.995
45.06000 5.931
45.08000 9.615
45.10000 4.831
45.12000 6.717
45.14000 5.260
45.16000 5.375
45.18000 8.601
45.20000 5.988
45.22000 6.335
45.24000 7.486
45.26000 11.279
45.28000 12.922
45.30000 12.072
45.32000 9.980
45.34000 13.428
45.36000 17.503
45.38000 13.596
45.40000 16.833
45.42000 17.439
45.44000 16.537
45.46000 20.103
45.48000 15.314
45.50000 13.955
45.52000 13.549
45.54000 15.404
45.56000 22.526
45.58000 24.877
45.60000 25.237
45.62000 19.258
45.64000 21.529
45.66000 26.579
45.68000 26.085
45.70000 27.827
45.72000 23.948
45.74000 19.825
45.76000 26.462
45.78000 28.907
45.80000 32.630
45.82000 34.667
45.84000 34.706
45.86000 34.343
45.88000 36.608
45.90000 36.744
45.92000 35.345
45.94000 38.073
45.96000 37.688
45.98000 43.997
46.00000 39.710
46.02000 41.784
46.04000 46.810
46.06000 48.784
46.08000 48.634
46.10000 49.394
46.12000 50.794
46.14000 55.713
46.16000 59.215
46.18000 61.069
46.20000 64.776
46.22000 63.811
46.24000 58.727
46.26000 67.481
46.28000 66.630
46.30000 65.280
46.32000 68.558
46.34000 72.055
46.36000 75.333
46.38000 76.531
46.40000 77.768
46.42000 77.995
46.44000 76.017
46.46000 78.392
46.48000 82.649
46.50000 82.138
46.52000 85.513
46.54000 82.092
46.56000 88.047
46.58000 87.118
46.60000 86.760
46.62000 89.013
46.64000 96.224
46.66000 95.749
46.68000 94.803
46.70000 92.637
46.72000 96.398
46.74000 99.673
46.76000 96.790
46.78000 91.168
46.80000 91.349
46.82000 91.237
46.84000 89.992
46.86000 90.153
46.88000 88.781
46.90000 90.410
46.92000 89.321
46.94000 91.344
46.96000 88.185
46.98000 90.697
47.00000 85.829
47.02000 80.222
47.04000 86.087
47.06000 83.418
47.08000 83.653
47.10000 81.406
47.12000 79.292
47.14000 80.917
47.16000 69.483
47.18000 72.192
47.20000 73.111
47.22000 62.293
47.24000 58.447
47.26000 62.996
47.28000 63.840
47.30000 56.885
47.32000 54.921
47.34000 54.550
47.36000 51.951
47.38000 51.385
47.40000 49.691
47.42000 43.904
47.44000 46.955
47.46000 49.023
47.48000 43.334
47.50000 37.806
47.52000 37.449
47.54000 39.072
47.56000 37.241
47.58000 31.683
47.60000 28.171
47.62000 29.490
47.64000 26.541
47.66000 26.776
47.68000 26.907
47.70000 29.825
47.72000 30.545
47.74000 26.739
47.76000 23.627
47.78000 24.031
47.80000 16.879
47.82000 15.941
47.84000 19.911
47.86000 19.120
47.88000 19.201
47.90000 13.201
47.92000 15.631
47.94000 15.978
47.96000 9.902
47.98000 5.590
48.00000 7.102
48.02000 12.104
48.04000 11.299
48.06000 6.312
48.08000 8.803
48.10000 15.560
48.12000 12.901
48.14000 10.092
48.16000 11.304
48.18000 11.366
48.20000 7.580
48.22000 5.190
48.24000 5.003
48.26000 4.017
48.28000 2.708
48.30000 6.550
48.32000 7.249
48.34000 4.910
48.36000 1.655
48.38000 3.533
48.40000 5.709
48.42000 5.702
48.44000 5.753
48.46000 9.293
48.48000 6.560
48.50000 3.892
48.52000 3.636
48.54000 3.844
48.56000 3.788
48.58000 6.443
48.60000 3.740
48.62000 3.686
48.64000 -3.010
48.66000 0.566
48.68000 -0.137
48.70000 -1.768
48.72000 0.998
48.74000 1.183
48.76000 2.687
48.78000 3.522
48.80000 2.220
48.82000 2.690
48.84000 8.438
48.86000 2.454
48.88000 2.816
48.90000 0.933
48.92000 4.532
48.94000 4.584
48.96000 5.174
48.98000 8.025
49.00000 5.608
49.02000 -2.967
49.04000 0.986
49.06000 6.975
49.08000 5.773
49.10000 3.153
49.12000 2.480
49.14000 -0.183
49.16000 1.560
49.18000 5.643
49.20000 3.985
49.22000 3.142
49.24000 -2.068
49.26000 0.460
49.28000 -1.741
49.30000 -1.452
49.32000 5.936
49.34000 6.335
49.36000 5.085
49.38000 2.872
49.40000 -0.321
49.42000 -1.157
49.44000 -2.066
49.46000 4.220
49.48000 3.813
49.50000 2.767
49.52000 -1.374
49.54000 1.821
49.56000 -1.496
49.58000 -0.723
49.60000 0.742
49.62000 -1.549
49.64000 -0.195
49.66000 1.490
49.68000 1.540
49.70000 3.621
49.72000 4.747
49.74000 1.514
49.76000 -1.334
49.78000 -0.413
49.80000 2.291
49.82000 5.130
49.84000 5.339
49.86000 2.657
49.88000 2.428
49.90000 -0.536
49.92000 -1.833
49.94000 -2.859
49.96000 -0.196
49.98000 1.767
50.00000 1.921
50.02000 1.182
50.04000 1.724
50.06000 4.317
50.08000 0.374
50.10000 3.135
50.12000 0.375
50.14000 -0.965
50.16000 0.635
50.18000 -1.841
50.20000 1.220
50.22000 3.739
50.24000 4.383
50.26000 1.236
50.28000 -1.793
50.30000 -1.720
50.32000 -0.817
50.34000 -0.787
50.36000 -0.456
50.38000 1.718
50.40000 0.710
50.42000 1.779
50.44000 0.421
50.46000 2.778
50.48000 -0.352
50.50000 -1.253
50.52000 -0.519
50.54000 -0.673
50.56000 -2.848
50.58000 -1.157
50.60000 -0.963
50.62000 1.102
50.64000 -2.721
50.66000 3.079
50.68000 6.990
50.70000 5.182
50.72000 0.965
50.74000 0.005
50.76000 1.714
50.78000 0.366
50.80000 -0.453
50.82000 3.249
50.84000 2.019
50.86000 0.830
50.88000 -0.957
50.90000 -1.578
50.92000 0.346
50.94000 -0.846
50.96000 -1.466
50.98000 -0.920
51.00000 0.636
51.02000 -1.017
51.04000 -0.161
51.06000 3.033
51.08000 1.129
51.10000 0.538
51.12000 1.646
51.14000 -0.538
51.16000 -2.307
51.18000 1.190
51.20000 2.940
51.22000 1.865
51.24000 5.389
51.26000 -0.038
51.28000 -2.813
51.30000 -0.407
51.32000 -0.630
51.34000 3.703
51.36000 0.618
51.38000 1.148
51.40000 -0.131
51.42000 1.173
51.44000 -0.546
51.46000 3.623
51.48000 1.518
51.50000 2.516
51.52000 2.367
51.54000 0.042
51.56000 -1.042
51.58000 0.519
51.60000 3.483
51.62000 3.203
51.64000 -2.026
51.66000 0.358
51.68000 0.437
51.70000 4.517
51.72000 9.794
51.74000 7.298
51.76000 8.352
51.78000 4.226
51.80000 0.599
51.82000 0.849
51.84000 1.184
51.86000 -0.768
51.88000 -2.784
51.90000 -1.386
51.92000 -0.286
51.94000 0.999
51.96000 2.194
51.98000 -2.292
52.00000 -0.196
52.02000 4.161
52.04000 -0.194
52.06000 -1.959
52.08000 -0.642
52.10000 -0.774
52.12000 1.075
52.14000 1.974
52.16000 2.924
52.18000 3.683
52.20000 4.338
52.22000 2.832
52.24000 1.815
52.26000 2.930
52.28000 1.791
52.30000 4.083
52.32000 2.110
52.34000 -1.382
52.36000 3.375
52.38000 4.994
52.40000 3.029
52.42000 1.392
52.44000 -2.259
52.46000 -2.122
52.48000 0.944
52.50000 4.618
52.52000 6.340
52.54000 5.921
52.56000 2.646
52.58000 0.486
52.60000 1.791
52.62000 4.089
52.64000 -1.368
52.66000 -2.731
52.68000 0.891
52.70000 3.672
52.72000 4.540
52.74000 3.452
52.76000 0.187
52.78000 -2.157
52.80000 0.075
52.82000 2.375
52.84000 1.138
52.86000 -0.135
52.88000 3.228
52.90000 4.431
52.92000 3.203
52.94000 2.883
52.96000 2.334
52.98000 2.933
53.00000 4.910
53.02000 2.930
53.04000 -0.559
53.06000 1.395
53.08000 1.491
53.10000 7.068
53.12000 8.048
53.14000 4.900
53.16000 4.647
53.18000 -1.289
53.20000 -2.266
53.22000 -1.536
53.24000 2.003
53.26000 -0.341
53.28000 -1.079
53.30000 1.744
53.32000 2.244
53.34000 0.061
53.36000 0.984
53.38000 3.066
53.40000 3.584
53.42000 6.191
53.44000 1.643
53.46000 3.672
53.48000 2.908
53.50000 3.060
53.52000 3.692
53.54000 2.390
53.56000 3.068
53.58000 5.786
53.60000 2.016
53.62000 4.643
53.64000 7.201
53.66000 1.967
53.68000 0.906
53.70000 1.348
53.72000 7.030
53.74000 4.457
53.76000 2.419
53.78000 2.131
53.80000 -2.702
53.82000 -0.263
53.84000 1.361
53.86000 3.664
53.88000 1.911
53.90000 2.645
53.92000 2.488
53.94000 5.619
53.96000 8.682
53.98000 4.253
54.00000 4.814
54.02000 7.978
54.04000 4.664
54.06000 3.788
54.08000 -0.617
54.10000 -2.600
54.12000 1.535
54.14000 6.377
54.16000 3.472
54.18000 -0.364
54.20000 1.303
54.22000 3.470
54.24000 0.168
54.26000 -2.673
54.28000 2.618
54.30000 3.259
54.32000 0.494
54.34000 0.280
54.36000 0.600
54.38000 0.009
54.40000 -0.996
54.42000 2.844
54.44000 0.195
54.46000 1.039
54.48000 -0.111
54.50000 -0.770
54.52000 8.995
54.54000 6.591
54.56000 1.250
54.58000 2.497
54.60000 2.384
54.62000 2.485
54.64000 2.584
54.66000 4.291
54.68000 4.736
54.70000 4.748
54.72000 3.625
54.74000 3.714
54.76000 4.742
54.78000 3.302
54.80000 2.977
54.82000 -0.363
54.84000 6.100
54.86000 6.578
54.88000 2.661
54.90000 3.118
54.92000 -0.346
54.94000 0.178
54.96000 3.789
54.98000 7.916
55.00000 5.922
55.02000 -0.384
55.04000 1.304
55.06000 3.229
55.08000 4.096
55.10000 6.500
55.12000 7.502
55.14000 5.518
55.16000 3.668
55.18000 2.415
55.20000 0.962
55.22000 1.095
55.24000 -0.609
55.26000 1.417
55.28000 2.536
55.30000 0.783
55.32000 2.425
55.34000 0.168
55.36000 -2.284
55.38000 2.459
55.40000 -0.061
55.42000 2.040
55.44000 0.341
55.46000 2.681
55.48000 6.356
55.50000 0.813
55.52000 -0.062
55.54000 0.046
55.56000 6.563
55.58000 2.651
55.60000 1.978
55.62000 -2.637
55.64000 1.174
55.66000 3.272
55.68000 3.688
55.70000 3.336
55.72000 4.065
55.74000 3.455
55.76000 2.704
55.78000 5.370
55.80000 4.730
55.82000 9.362
55.84000 3.514
55.86000 -1.355
55.88000 1.048
55.90000 3.240
55.92000 1.990
55.94000 2.754
55.96000 5.102
55.98000 4.952
56.00000 6.502
56.02000 3.348
56.04000 6.589
56.06000 4.159
56.08000 3.841
56.10000 6.766
56.12000 4.938
56.14000 2.616
56.16000 7.734
56.18000 7.095
56.20000 4.429
56.22000 1.624
56.24000 4.810
56.26000 6.547
56.28000 9.596
56.30000 7.070
56.32000 2.657
56.34000 0.884
56.36000 3.217
56.38000 5.589
56.40000 4.135
56.42000 1.761
56.44000 5.460
56.46000 3.634
56.48000 4.028
56.50000 4.969
56.52000 1.937
56.54000 -2.589
56.56000 2.744
56.58000 5.333
56.60000 4.718
56.62000 3.225
56.64000 4.833
56.66000 6.437
56.68000 4.736
56.70000 1.935
56.72000 4.069
56.74000 1.288
56.76000 1.613
56.78000 7.969
56.80000 8.762
56.82000 4.707
56.84000 4.743
56.86000 8.656
56.88000 2.586
56.90000 3.951
56.92000 6.777
56.94000 8.849
56.96000 3.763
56.98000 4.980
57.00000 2.989
57.02000 1.468
57.04000 0.458
57.06000 -2.553
57.08000 -0.664
57.10000 0.694
57.12000 5.351
57.14000 4.447
57.16000 4.545
57.18000 2.431
57.20000 3.654
57.22000 5.088
57.24000 5.131
57.26000 6.476
57.28000 4.146
57.30000 1.389
57.32000 1.225
57.34000 3.308
57.36000 3.930
57.38000 6.434
57.40000 7.779
57.42000 6.195
57.44000 3.071
57.46000 3.845
57.48000 4.813
57.50000 5.435
57.52000 5.715
57.54000 6.023
57.56000 8.879
57.58000 6.458
57.60000 1.588
57.62000 5.085
57.64000 0.846
57.66000 2.782
57.68000 -1.233
57.70000 0.769
57.72000 2.626
57.74000 2.177
57.76000 3.116
57.78000 1.369
57.80000 -0.519
57.82000 6.528
57.84000 4.693
57.86000 2.129
57.88000 0.978
57.90000 2.432
57.92000 2.020
57.94000 2.707
57.96000 2.247
57.98000 0.594
58.00000 -2.274
58.02000 2.130
58.04000 0.306
58.06000 -0.186
58.08000 3.783
58.10000 0.261
58.12000 4.030
58.14000 3.973
58.16000 2.942
58.18000 -0.498
58.20000 -1.858
58.22000 -0.966
58.24000 -1.559
58.26000 -2.563
58.28000 -0.120
58.30000 6.792
58.32000 4.278
58.34000 5.972
58.36000 6.610
58.38000 6.862
58.40000 7.617
58.42000 6.847
58.44000 6.226
58.46000 6.924
58.48000 3.456
58.50000 2.879
58.52000 4.731
58.54000 1.466
58.56000 1.546
58.58000 3.761
58.60000 -2.551
58.62000 -0.633
58.64000 3.384
58.66000 2.883
58.68000 -0.980
58.70000 0.158
58.72000 1.419
58.74000 2.243
58.76000 5.680
58.78000 5.015
58.80000 2.680
58.82000 3.307
58.84000 6.369
58.86000 4.926
58.88000 1.373
58.90000 1.159
58.92000 3.630
58.94000 8.136
58.96000 2.494
58.98000 6.768
59.00000 3.819
59.02000 6.252
59.04000 1.121
59.06000 5.371
59.08000 8.171
59.10000 7.129
59.12000 -0.038
59.14000 -2.518
59.16000 1.729
59.18000 0.633
59.20000 4.524
59.22000 3.122
59.24000 1.950
59.26000 3.474
59.28000 1.144
59.30000 2.580
59.32000 2.474
59.34000 2.864
59.36000 6.482
59.38000 4.735
59.40000 1.744
59.42000 3.264
59.44000 3.267
59.46000 4.627
59.48000 4.162
59.50000 2.845
59.52000 2.783
59.54000 2.988
59.56000 4.189
59.58000 2.457
59.60000 2.956
59.62000 4.563
59.64000 2.278
59.66000 4.123
59.68000 3.899
59.70000 -1.760
59.72000 0.715
59.74000 3.673
59.76000 3.040
59.78000 2.052
59.80000 2.423
59.82000 0.012
59.84000 2.194
59.86000 2.011
59.88000 2.738
59.90000 1.127
59.92000 1.688
59.94000 5.474
59.96000 5.083
59.98000 2.699
60.00000 0.983
60.02000 2.455
60.04000 6.244
60.06000 1.045
60.08000 -0.106
60.10000 2.153
60.12000 3.699
60.14000 6.537
60.16000 6.080
60.18000 5.103
60.20000 7.510
60.22000 4.947
60.24000 5.260
60.26000 -1.254
60.28000 -2.402
60.30000 2.006
60.32000 -2.121
60.34000 -2.501
60.36000 -2.272
60.38000 -0.119
60.40000 2.509
60.42000 2.534
60.44000 5.981
60.46000 3.741
60.48000 4.424
60.50000 1.305
60.52000 4.235
60.54000 2.764
60.56000 3.100
60.58000 5.424
60.60000 4.280
60.62000 2.555
60.64000 1.560
60.66000 3.185
60.68000 -0.970
60.70000 0.911
60.72000 4.147
60.74000 1.261
60.76000 1.179
60.78000 -0.157
60.80000 1.461
60.82000 2.161
60.84000 2.422
60.86000 4.632
60.88000 3.601
60.90000 1.387
60.92000 1.026
60.94000 3.393
60.96000 2.220
60.98000 1.529
61.00000 0.572
61.02000 0.022
61.04000 -2.477
61.06000 -0.764
61.08000 0.561
61.10000 1.125
61.12000 3.761
61.14000 1.767
61.16000 3.483
61.18000 5.079
61.20000 4.437
61.22000 3.949
61.24000 3.237
61.26000 3.280
61.28000 4.655
61.30000 3.534
61.32000 -0.134
61.34000 0.279
61.36000 4.524
61.38000 4.643
61.40000 4.443
61.42000 2.215
61.44000 2.162
61.46000 2.008
61.48000 -1.436
61.50000 -1.317
61.52000 -0.479
61.54000 -0.254
61.56000 1.223
61.58000 2.477
61.60000 2.932
61.62000 2.475
61.64000 4.423
61.66000 5.689
61.68000 5.251
61.70000 4.320
61.72000 1.800
61.74000 -2.480
61.76000 0.704
61.78000 1.388
61.80000 -1.535
61.82000 2.140
61.84000 3.048
61.86000 0.941
61.88000 3.595
61.90000 3.223
61.92000 1.540
61.94000 0.897
61.96000 0.539
61.98000 1.463
62.00000 1.082
62.02000 1.220
62.04000 2.448
62.06000 2.230
62.08000 3.059
62.10000 3.352
62.12000 1.198
62.14000 -1.053
62.16000 -0.010
62.18000 6.031
62.20000 4.967
62.22000 4.707
62.24000 3.056
62.26000 -0.880
62.28000 0.588
62.30000 -1.017
62.32000 1.658
62.34000 0.265
62.36000 1.077
62.38000 3.270
62.40000 1.554
62.42000 0.114
62.44000 -2.280
62.46000 0.825
62.48000 1.703
62.50000 2.195
62.52000 2.607
62.54000 0.020
62.56000 -1.536
62.58000 1.983
62.60000 1.572
62.62000 2.357
62.64000 0.961
62.66000 -0.721
62.68000 1.327
62.70000 1.499
62.72000 3.753
62.74000 2.534
62.76000 0.138
62.78000 -0.631
62.80000 -0.462
62.82000 2.670
62.84000 2.961
62.86000 1.993
62.88000 -0.696
62.90000 -1.568
62.92000 1.245
62.94000 -0.880
62.96000 0.824
62.98000 -0.474
63.00000 -0.839
63.02000 1.158
63.04000 -0.883
63.06000 1.721
63.08000 2.102
63.10000 4.291
63.12000 0.975
63.14000 2.092
63.16000 -1.399
63.18000 0.611
63.20000 1.251
63.22000 -2.465
63.24000 -1.456
63.26000 0.558
63.28000 1.121
63.30000 3.643
63.32000 4.429
63.34000 3.270
63.36000 3.691
63.38000 2.914
63.40000 6.622
63.42000 5.388
63.44000 3.487
63.46000 5.528
63.48000 5.025
63.50000 2.775
63.52000 0.872
63.54000 1.464
63.56000 0.963
63.58000 2.036
63.60000 0.226
63.62000 -0.263
63.64000 -1.147
63.66000 -0.192
63.68000 2.490
63.70000 1.373
63.72000 0.403
63.74000 2.595
63.76000 3.527
63.78000 2.589
63.80000 1.450
63.82000 -0.231
63.84000 -2.461
63.86000 -1.890
63.88000 -0.599
63.90000 -1.860
63.92000 -1.703
63.94000 -1.800
63.96000 0.042
63.98000 -1.009
64.00000 -1.504
64.02000 1.086
64.04000 4.703
64.06000 2.592
64.08000 3.364
64.10000 1.848
64.12000 1.048
64.14000 3.463
64.16000 3.628
64.18000 3.366
64.20000 8.320
64.22000 8.070
64.24000 2.937
64.26000 1.144
64.28000 3.968
64.30000 0.257
64.32000 -0.486
64.34000 -0.050
64.36000 -0.496
64.38000 2.061
64.40000 4.632
64.42000 4.849
64.44000 4.366
64.46000 3.232
64.48000 2.470
64.50000 4.046
64.52000 2.203
64.54000 3.469
64.56000 3.745
64.58000 1.955
64.60000 -2.459
64.62000 0.003
64.64000 5.839
64.66000 1.842
64.68000 2.637
64.70000 6.377
64.72000 8.831
64.74000 4.259
64.76000 3.175
64.78000 1.091
64.80000 -1.532
64.82000 -0.890
64.84000 0.095
64.86000 1.308
64.88000 2.057
64.90000 6.308
64.92000 9.506
64.94000 4.330
64.96000 3.083
64.98000 5.794
65.00000 8.409
65.02000 6.844
65.04000 4.318
65.06000 3.245
65.08000 1.472
65.10000 -2.455
65.12000 1.714
65.14000 5.317
65.16000 6.243
65.18000 3.964
65.20000 5.522
65.22000 4.310
65.24000 0.583
65.26000 -0.077
65.28000 2.093
65.30000 1.750
65.32000 0.696
65.34000 -1.317
65.36000 0.628
65.38000 -1.075
65.40000 -1.173
65.42000 -0.249
65.44000 2.045
65.46000 2.426
65.48000 4.634
65.50000 6.240
65.52000 2.918
65.54000 -1.112
65.56000 -1.466
65.58000 1.175
65.60000 3.647
65.62000 -0.193
65.64000 3.372
65.66000 2.956
65.68000 5.860
65.70000 4.591
65.72000 5.126
65.74000 4.439
65.76000 0.500
65.78000 2.674
65.80000 3.847
65.82000 5.156
65.84000 1.701
65.86000 1.266
65.88000 -2.502
65.90000 1.301
65.92000 0.959
65.94000 1.328
65.96000 4.890
65.98000 3.803
66.00000 2.614
66.02000 -2.028
66.04000 -1.014
66.06000 -0.435
66.08000 1.954
66.10000 1.482
66.12000 -0.156
66.14000 -1.521
66.16000 0.942
66.18000 2.196
66.20000 1.674
66.22000 -2.534
66.24000 0.996
66.26000 0.702
66.28000 -1.615
66.30000 -0.066
66.32000 2.296
66.34000 1.968
66.36000 3.629
66.38000 1.180
66.40000 2.394
66.42000 3.201
66.44000 7.181
66.46000 4.995
66.48000 3.378
66.50000 5.583
66.52000 2.982
66.54000 1.993
66.56000 1.176
66.58000 5.999
66.60000 5.692
66.62000 4.001
66.64000 -0.199
66.66000 2.348
66.68000 5.465
66.70000 3.731
66.72000 1.348
66.74000 2.180
66.76000 -0.167
66.78000 -1.148
66.80000 0.025
66.82000 3.947
66.84000 2.449
66.86000 7.092
66.88000 7.292
66.90000 6.915
66.92000 4.631
66.94000 3.473
66.96000 0.763
66.98000 0.032
67.00000 1.088
67.02000 3.173
67.04000 6.465
67.06000 3.687
67.08000 5.173
67.10000 4.061
67.12000 4.613
67.14000 9.042
67.16000 7.370
67.18000 4.288
67.20000 2.532
67.22000 2.703
67.24000 5.660
67.26000 7.202
67.28000 4.653
67.30000 6.076
67.32000 5.175
67.34000 6.574
67.36000 8.125
67.38000 9.371
67.40000 9.324
67.42000 8.140
67.44000 9.497
67.46000 9.436
67.48000 7.773
67.50000 10.831
67.52000 11.257
67.54000 9.479
67.56000 6.494
67.58000 7.859
67.60000 9.861
67.62000 12.583
67.64000 15.980
67.66000 17.074
67.68000 13.953
67.70000 16.883
67.72000 17.305
67.74000 13.085
67.76000 13.054
67.78000 14.729
67.80000 14.203
67.82000 20.022
67.84000 18.307
67.86000 14.033
67.88000 17.093
67.90000 20.360
67.92000 19.882
67.94000 19.988
67.96000 20.461
67.98000 20.762
68.00000 21.299
68.02000 20.093
68.04000 17.118
68.06000 21.679
68.08000 20.256
68.10000 20.446
68.12000 20.218
68.14000 20.268
68.16000 19.827
68.18000 20.619
68.20000 19.672
68.22000 21.681
68.24000 19.735
68.26000 15.473
68.28000 17.203
68.30000 21.405
68.32000 22.792
68.34000 24.718
68.36000 23.541
68.38000 21.702
68.40000 18.378
68.42000 20.159
68.44000 21.184
68.46000 21.934
68.48000 22.402
68.50000 17.570
68.52000 20.534
68.54000 21.640
68.56000 17.487
68.58000 15.213
68.60000 16.237
68.62000 16.989
68.64000 16.243
68.66000 15.794
68.68000 17.588
68.70000 16.096
68.72000 13.512
68.74000 12.609
68.76000 15.696
68.78000 15.429
68.80000 13.212
68.82000 12.660
68.84000 12.125
68.86000 12.942
68.88000 13.232
68.90000 12.560
68.92000 9.303
68.94000 9.668
68.96000 11.895
68.98000 10.621
69.00000 8.525
69.02000 8.054
69.04000 5.382
69.06000 5.617
69.08000 6.167
69.10000 9.651
69.12000 10.638
69.14000 7.136
69.16000 7.981
69.18000 8.740
69.20000 7.367
69.22000 6.911
69.24000 6.791
69.26000 8.551
69.28000 5.824
69.30000 3.468
69.32000 2.189
69.34000 1.215
69.36000 2.053
69.38000 4.966
69.40000 4.957
69.42000 6.578
69.44000 3.516
69.46000 5.142
69.48000 7.177
69.50000 5.411
69.52000 -1.170
69.54000 1.540
69.56000 5.488
69.58000 5.487
69.60000 4.457
69.62000 4.591
69.64000 6.516
69.66000 9.779
69.68000 6.538
69.70000 1.380
69.72000 1.191
69.74000 0.263
69.76000 -1.811
69.78000 0.516
69.80000 5.710
69.82000 7.226
69.84000 4.704
69.86000 5.747
69.88000 5.741
69.90000 2.058
69.92000 0.032
69.94000 -2.418
69.96000 0.149
69.98000 3.140
70.00000 8.975
70.02000 4.992
70.04000 1.462
70.06000 0.617
70.08000 4.868
70.10000 4.646
70.12000 4.981
70.14000 2.779
70.16000 2.204
70.18000 0.475
70.20000 2.064
70.22000 1.369
70.24000 2.940
70.26000 5.222
70.28000 1.395
70.30000 -2.398
70.32000 -0.849
70.34000 -0.430
70.36000 1.066
70.38000 5.448
70.40000 0.607
70.42000 2.084
70.44000 3.806
70.46000 6.704
70.48000 8.631
70.50000 6.309
70.52000 5.801
70.54000 2.176
70.56000 1.951
70.58000 1.893
70.60000 -0.298
70.62000 1.579
70.64000 4.450
70.66000 5.552
70.68000 1.427
70.70000 1.540
70.72000 3.294
70.74000 6.715
70.76000 6.111
70.78000 4.262
70.80000 2.405
70.82000 0.465
70.84000 4.609
70.86000 6.852
70.88000 1.451
70.90000 -2.012
70.92000 1.860
70.94000 3.605
70.96000 2.553
70.98000 6.142
71.00000 5.172
71.02000 2.525
71.04000 1.765
71.06000 3.160
71.08000 6.594
71.10000 3.692
71.12000 8.169
71.14000 8.677
71.16000 7.412
71.18000 4.788
71.20000 4.235
71.22000 4.527
71.24000 -2.344
71.26000 1.829
71.28000 4.278
71.30000 5.442
71.32000 5.438
71.34000 6.825
71.36000 2.938
71.38000 0.569
71.40000 -2.342
71.42000 -1.280
71.44000 1.259
71.46000 4.434
71.48000 2.058
71.50000 3.029
71.52000 2.727
71.54000 1.266
71.56000 2.691
71.58000 6.332
71.60000 4.172
71.62000 0.781
71.64000 0.971
71.66000 3.225
71.68000 2.752
71.70000 1.328
71.72000 2.959
71.74000 3.471
71.76000 2.516
71.78000 1.725
71.80000 1.560
71.82000 2.234
71.84000 6.589
71.86000 5.117
71.88000 -1.092
71.90000 0.696
71.92000 5.966
71.94000 2.214
71.96000 -1.580
71.98000 2.217
72.00000 4.295
72.02000 3.351
72.04000 1.833
72.06000 0.038
72.08000 2.030
72.10000 2.901
72.12000 2.509
72.14000 3.146
72.16000 5.084
72.18000 2.108
72.20000 4.814
72.22000 4.396
72.24000 5.030
72.26000 7.954
72.28000 9.206
72.30000 8.063
72.32000 8.949
72.34000 4.736
72.36000 1.655
72.38000 -2.296
72.40000 -1.805
72.42000 2.957
72.44000 3.106
72.46000 1.041
72.48000 4.761
72.50000 4.962
72.52000 4.758
72.54000 10.123
72.56000 4.585
72.58000 4.601
72.60000 5.965
72.62000 2.341
72.64000 2.275
72.66000 5.623
72.68000 2.344
72.70000 4.005
72.72000 5.328
72.74000 4.731
72.76000 2.852
72.78000 2.299
72.80000 2.402
72.82000 2.222
72.84000 1.083
72.86000 0.384
72.88000 0.772
72.90000 0.165
72.92000 4.160
72.94000 3.833
72.96000 -1.813
72.98000 1.855
73.00000 2.794
73.02000 3.219
73.04000 2.153
73.06000 1.987
73.08000 1.063
73.10000 0.585
73.12000 1.141
73.14000 1.907
73.16000 2.541
73.18000 3.065
73.20000 3.693
73.22000 2.307
73.24000 -0.826
73.26000 2.000
73.28000 0.697
73.30000 5.127
73.32000 3.608
73.34000 -0.231
73.36000 1.712
73.38000 0.636
73.40000 -1.221
73.42000 2.109
73.44000 -0.272
73.46000 0.944
73.48000 2.853
73.50000 0.465
73.52000 1.657
73.54000 6.379
73.56000 1.599
73.58000 -2.313
73.60000 -0.347
73.62000 2.363
73.64000 0.808
73.66000 0.647
73.68000 0.855
73.70000 1.493
73.72000 -1.162
73.74000 3.335
73.76000 3.161
73.78000 -0.193
73.80000 0.890
73.82000 4.749
73.84000 4.389
73.86000 3.645
73.88000 2.277
73.90000 -1.261
73.92000 -1.772
73.94000 -1.230
73.96000 0.816
73.98000 7.610
74.00000 1.854
74.02000 -1.026
74.04000 1.537
74.06000 0.835
74.08000 2.859
74.10000 -0.235
74.12000 0.741
74.14000 2.095
74.16000 5.663
74.18000 3.873
74.20000 1.948
74.22000 1.610
74.24000 5.075
74.26000 3.970
74.28000 4.400
74.30000 4.330
74.32000 3.347
74.34000 1.551
74.36000 4.297
74.38000 3.501
74.40000 4.197
74.42000 5.657
74.44000 1.298
74.46000 1.844
74.48000 4.784
74.50000 4.705
74.52000 0.480
74.54000 -0.236
74.56000 3.196
74.58000 5.534
74.60000 4.704
74.62000 3.563
74.64000 2.976
74.66000 7.480
74.68000 6.859
74.70000 4.837
74.72000 2.514
74.74000 -0.924
74.76000 1.821
74.78000 1.710
74.80000 0.973
74.82000 -2.280
74.84000 0.074
74.86000 1.236
74.88000 6.418
74.90000 5.765
74.92000 8.077
74.94000 1.944
74.96000 0.787
74.98000 1.108
75.00000 1.598
75.02000 4.775
75.04000 5.735
75.06000 3.585
75.08000 6.351
75.10000 2.891
75.12000 0.986
75.14000 1.637
75.16000 2.975
75.18000 8.644
75.20000 4.493
75.22000 1.076
75.24000 4.684
75.26000 1.530
75.28000 0.354
75.30000 3.991
75.32000 5.420
75.34000 4.553
75.36000 3.676
75.38000 2.027
75.40000 4.696
75.42000 4.737
75.44000 5.057
75.46000 -1.248
75.48000 3.669
75.50000 0.914
75.52000 -2.299
75.54000 -0.596
75.56000 1.590
75.58000 -0.002
75.60000 2.729
75.62000 2.481
75.64000 1.528
75.66000 -0.167
75.68000 -1.178
75.70000 0.054
75.72000 2.795
75.74000 4.537
75.76000 2.794
75.78000 2.731
75.80000 0.706
75.82000 -0.123
75.84000 1.081
75.86000 4.812
75.88000 4.602
75.90000 2.827
75.92000 2.340
75.94000 -2.299
75.96000 -1.447
75.98000 -0.631
76.00000 2.460
76.02000 1.329
76.04000 -0.218
76.06000 1.574
76.08000 3.332
76.10000 2.398
76.12000 3.344
76.14000 3.911
76.16000 -0.950
76.18000 2.537
76.20000 2.169
76.22000 3.833
76.24000 2.204
76.26000 3.243
76.28000 -0.835
76.30000 -1.606
76.32000 0.165
76.34000 3.811
76.36000 3.612
76.38000 0.065
76.40000 -0.244
76.42000 -0.880
76.44000 -2.295
76.46000 4.555
76.48000 6.725
76.50000 2.618
76.52000 1.300
76.54000 -1.425
76.56000 2.970
76.58000 4.470
76.60000 7.679
76.62000 11.719
76.64000 7.304
76.66000 3.534
76.68000 1.119
76.70000 -0.118
76.72000 3.426
76.74000 0.564
76.76000 0.734
76.78000 5.972
76.80000 0.137
76.82000 3.036
76.84000 3.786
76.86000 5.354
76.88000 5.151
76.90000 6.477
76.92000 4.397
76.94000 9.152
76.96000 0.894
76.98000 3.792
77.00000 3.759
77.02000 1.461
77.04000 4.171
77.06000 5.966
77.08000 6.513
77.10000 1.377
77.12000 -0.203
77.14000 1.234
77.16000 4.302
77.18000 5.037
77.20000 5.499
77.22000 7.275
77.24000 5.283
77.26000 1.130
77.28000 2.078
77.30000 4.766
77.32000 1.231
77.34000 1.568
77.36000 3.894
77.38000 0.763
77.40000 1.887
77.42000 0.575
77.44000 1.285
77.46000 -1.072
77.48000 -1.428
77.50000 -2.302
77.52000 3.783
77.54000 7.046
77.56000 5.579
77.58000 3.972
77.60000 0.306
77.62000 2.881
77.64000 3.302
77.66000 7.429
77.68000 2.596
77.70000 -1.271
77.72000 3.949
77.74000 2.620
77.76000 2.274
77.78000 0.240
77.80000 1.302
77.82000 2.723
77.84000 5.006
77.86000 3.923
77.88000 4.264
77.90000 6.647
77.92000 -0.667
77.94000 -1.615
77.96000 2.229
77.98000 2.237
78.00000 1.113
78.02000 5.289
78.04000 5.551
78.06000 5.056
78.08000 4.621
78.10000 6.637
78.12000 2.332
78.14000 1.708
78.16000 2.044
78.18000 5.144
78.20000 2.945
78.22000 1.905
78.24000 -0.894
78.26000 -2.331
78.28000 2.177
78.30000 2.449
78.32000 4.458
78.34000 4.601
78.36000 1.065
78.38000 2.954
78.40000 1.839
78.42000 -1.317
78.44000 3.124
78.46000 6.835
78.48000 2.736
78.50000 2.288
78.52000 0.481
78.54000 4.744
78.56000 4.857
78.58000 0.101
78.60000 -0.129
78.62000 0.049
78.64000 5.284
78.66000 3.725
78.68000 -1.462
78.70000 -1.823
78.72000 1.669
78.74000 3.831
78.76000 1.630
78.78000 -0.094
78.80000 1.443
78.82000 -1.396
78.84000 2.582
78.86000 4.895
78.88000 3.286
78.90000 2.596
78.92000 0.611
78.94000 -0.439
78.96000 0.928
78.98000 0.537
79.00000 2.213
79.02000 2.404
79.04000 1.653
79.06000 5.451
79.08000 0.171
79.10000 -0.481
79.12000 -0.237
79.14000 -0.020
79.16000 3.539
79.18000 7.891
79.20000 2.790
79.22000 2.126
79.24000 2.273
79.26000 5.586
79.28000 3.022
79.30000 1.987
79.32000 5.211
79.34000 2.179
79.36000 2.260
79.38000 4.408
79.40000 3.897
79.42000 0.040
79.44000 -2.384
79.46000 1.502
79.48000 3.320
79.50000 -1.587
79.52000 1.216
79.54000 2.848
79.56000 1.577
79.58000 4.003
79.60000 3.383
79.62000 1.275
79.64000 3.112
79.66000 4.332
79.68000 3.867
79.70000 2.483
79.72000 6.609
79.74000 5.316
79.76000 5.399
79.78000 1.284
79.80000 -2.403
79.82000 1.709
79.84000 4.197
79.86000 0.464
79.88000 3.711
79.90000 1.780
79.92000 1.965
79.94000 1.137
79.96000 2.676
79.98000 3.008
80.00000 3.805
80.02000 1.826
80.04000 2.231
80.06000 0.643
80.08000 -0.932
80.10000 1.303
80.12000 2.522
80.14000 -2.429
80.16000 0.628
80.18000 1.914
80.20000 4.134
80.22000 1.541
80.24000 -0.441
80.26000 3.031
80.28000 -2.439
80.30000 -1.102
80.32000 2.399
80.34000 3.184
80.36000 4.886
80.38000 3.483
80.40000 -0.486
80.42000 2.317
80.44000 0.703
80.46000 0.551
80.48000 1.919
80.50000 3.368
80.52000 3.210
80.54000 2.069
80.56000 2.210
80.58000 -1.770
80.60000 1.133
80.62000 2.038
80.64000 3.681
80.66000 3.780
80.68000 3.849
80.70000 1.144
80.72000 1.992
80.74000 1.612
80.76000 6.256
80.78000 4.698
80.80000 5.447
80.82000 5.943
80.84000 7.632
80.86000 6.536
80.88000 6.664
80.90000 6.937
80.92000 9.895
80.94000 13.827
80.96000 9.285
80.98000 6.379
81.00000 9.411
81.02000 6.315
81.04000 8.362
81.06000 11.626
81.08000 7.480
81.10000 7.264
81.12000 5.479
81.14000 8.272
81.16000 10.149
81.18000 10.286
81.20000 10.751
81.22000 9.335
81.24000 12.235
81.26000 10.059
81.28000 9.525
81.30000 7.520
81.32000 14.010
81.34000 18.505
81.36000 14.222
81.38000 14.035
81.40000 11.879
81.42000 7.342
81.44000 12.169
81.46000 12.731
81.48000 14.172
81.50000 18.879
81.52000 17.917
81.54000 15.295
81.56000 13.266
81.58000 15.335
81.60000 19.370
81.62000 21.081
81.64000 16.274
81.66000 14.511
81.68000 14.529
81.70000 22.066
81.72000 24.166
81.74000 22.591
81.76000 17.458
81.78000 20.201
81.80000 21.966
81.82000 21.510
81.84000 19.353
81.86000 19.765
81.88000 23.795
81.90000 27.604
81.92000 21.432
81.94000 23.404
81.96000 24.421
81.98000 25.797
82.00000 23.777
82.02000 24.021
82.04000 22.549
82.06000 22.892
82.08000 20.347
82.10000 22.710
82.12000 29.913
82.14000 28.476
82.16000 27.752
82.18000 27.440
82.20000 25.775
82.22000 25.132
82.24000 22.142
82.26000 23.955
82.28000 28.723
82.30000 28.252
82.32000 27.239
82.34000 24.712
82.36000 28.742
82.38000 28.028
82.40000 29.302
82.42000 32.958
82.44000 30.754
82.46000 30.814
82.48000 31.539
82.50000 27.196
82.52000 26.277
82.54000 29.522
82.56000 25.412
82.58000 30.427
82.60000 28.454
82.62000 27.757
82.64000 28.095
82.66000 27.742
82.68000 26.706
82.70000 24.894
82.72000 25.773
82.74000 22.312
82.76000 29.396
82.78000 29.691
82.80000 26.153
82.82000 24.336
82.84000 25.702
82.86000 24.125
82.88000 25.286
82.90000 24.190
82.92000 24.570
82.94000 24.488
82.96000 24.939
82.98000 21.881
83.00000 23.608
83.02000 27.626
83.04000 21.868
83.06000 20.465
83.08000 22.020
83.10000 21.719
83.12000 23.339
83.14000 13.460
83.16000 13.394
83.18000 12.532
83.20000 10.860
83.22000 15.837
83.24000 15.491
83.26000 14.715
83.28000 16.657
83.30000 15.306
83.32000 13.850
83.34000 15.960
83.36000 11.605
83.38000 9.847
83.40000 6.479
83.42000 11.686
83.44000 13.095
83.46000 15.523
83.48000 13.922
83.50000 9.647
83.52000 7.614
83.54000 10.410
83.56000 9.449
83.58000 8.831
83.60000 9.868
83.62000 11.814
83.64000 12.367
83.66000 8.914
83.68000 10.017
83.70000 9.800
83.72000 5.238
83.74000 6.396
83.76000 7.393
83.78000 8.332
83.80000 10.466
83.82000 10.862
83.84000 13.033
83.86000 9.147
83.88000 10.755
83.90000 6.605
83.92000 4.006
83.94000 4.793
83.96000 8.486
83.98000 8.400
84.00000 9.740
84.02000 11.326
84.04000 7.807
84.06000 6.951
84.08000 9.075
84.10000 7.219
84.12000 0.529
84.14000 -2.382
84.16000 1.089
84.18000 6.641
84.20000 6.805
84.22000 6.754
84.24000 4.249
84.26000 5.430
84.28000 5.055
84.30000 5.234
84.32000 5.888
84.34000 6.360
84.36000 4.171
84.38000 6.184
84.40000 10.155
84.42000 10.253
84.44000 5.425
84.46000 5.254
84.48000 7.612
84.50000 3.293
84.52000 -0.070
84.54000 7.010
84.56000 2.801
84.58000 -2.375
84.60000 0.446
84.62000 1.812
84.64000 3.051
84.66000 2.065
84.68000 6.169
84.70000 5.936
84.72000 7.727
84.74000 2.755
84.76000 5.908
84.78000 3.425
84.80000 6.938
84.82000 5.775
84.84000 2.603
84.86000 0.431
84.88000 0.541
84.90000 5.813
84.92000 0.230
84.94000 0.624
84.96000 3.525
84.98000 4.675
85.00000 3.018
85.02000 1.479
85.04000 3.870
85.06000 4.849
85.08000 5.968
85.10000 4.629
85.12000 6.489
85.14000 6.240
85.16000 3.561
85.18000 -2.353
85.20000 4.861
85.22000 4.519
85.24000 4.868
85.26000 3.671
85.28000 5.515
85.30000 3.782
85.32000 8.024
85.34000 9.058
85.36000 8.772
85.38000 6.780
85.40000 2.165
85.42000 6.941
85.44000 5.769
85.46000 6.571
85.48000 8.744
85.50000 6.000
85.52000 2.157
85.54000 1.269
85.56000 2.722
85.58000 8.141
85.60000 9.750
85.62000 8.913
85.64000 6.211
85.66000 5.809
85.68000 5.285
85.70000 5.941
85.72000 8.705
85.74000 11.289
85.76000 7.513
85.78000 5.883
85.80000 12.146
85.82000 9.710
85.84000 10.013
85.86000 13.527
85.88000 9.818
85.90000 8.806
85.92000 11.969
85.94000 15.472
85.96000 13.574
85.98000 13.953
86.00000 11.720
86.02000 17.290
86.04000 20.468
86.06000 16.176
86.08000 14.131
86.10000 11.821
86.12000 13.273
86.14000 14.754
86.16000 13.994
86.18000 16.152
86.20000 18.968
86.22000 15.462
86.24000 13.865
86.26000 17.021
86.28000 20.806
86.30000 20.404
86.32000 19.640
86.34000 23.254
86.36000 23.574
86.38000 23.094
86.40000 18.634
86.42000 20.101
86.44000 22.300
86.46000 20.899
86.48000 27.322
86.50000 22.469
86.52000 22.295
86.54000 25.875
86.56000 26.071
86.58000 23.031
86.60000 23.318
86.62000 27.483
86.64000 25.461
86.66000 26.709
86.68000 23.533
86.70000 19.435
86.72000 19.643
86.74000 20.930
86.76000 17.720
86.78000 17.271
86.80000 21.292
86.82000 22.405
86.84000 22.228
86.86000 20.251
86.88000 23.515
86.90000 17.571
86.92000 17.113
86.94000 19.341
86.96000 24.586
86.98000 25.072
87.00000 16.436
87.02000 13.114
87.04000 19.179
87.06000 21.926
87.08000 16.288
87.10000 15.335
87.12000 17.924
87.14000 17.682
87.16000 18.571
87.18000 17.486
87.20000 18.291
87.22000 17.272
87.24000 11.913
87.26000 8.566
87.28000 15.473
87.30000 12.497
87.32000 13.833
87.34000 15.416
87.36000 12.517
87.38000 7.081
87.40000 9.915
87.42000 17.669
87.44000 16.566
87.46000 10.651
87.48000 12.482
87.50000 11.279
87.52000 10.834
87.54000 10.480
87.56000 7.650
87.58000 7.414
87.60000 8.983
87.62000 10.869
87.64000 11.020
87.66000 8.413
87.68000 4.180
87.70000 2.390
87.72000 5.234
87.74000 5.771
87.76000 6.215
87.78000 6.118
87.80000 4.623
87.82000 3.984
87.84000 3.132
87.86000 6.063
87.88000 5.482
87.90000 5.920
87.92000 6.044
87.94000 2.790
87.96000 8.145
87.98000 7.026
88.00000 6.101
88.02000 5.651
88.04000 4.561
88.06000 6.408
88.08000 5.289
88.10000 5.603
88.12000 4.186
88.14000 9.417
88.16000 7.195
88.18000 4.171
88.20000 2.071
88.22000 2.174
88.24000 4.985
88.26000 2.377
88.28000 0.842
88.30000 3.232
88.32000 -2.041
88.34000 2.103
88.36000 6.546
88.38000 6.344
88.40000 2.449
88.42000 -1.371
88.44000 -1.532
88.46000 0.459
88.48000 1.985
88.50000 -2.200
88.52000 -0.375
88.54000 2.848
88.56000 1.337
88.58000 0.262
88.60000 4.891
88.62000 4.896
88.64000 5.246
88.66000 3.811
88.68000 4.170
88.70000 4.208
88.72000 3.641
88.74000 3.481
88.76000 3.349
88.78000 6.041
88.80000 2.480
88.82000 3.921
88.84000 8.099
88.86000 3.691
88.88000 4.257
88.90000 0.284
88.92000 5.144
88.94000 3.667
88.96000 3.711
88.98000 0.434
89.00000 2.452
89.02000 3.726
89.04000 3.967
89.06000 4.575
89.08000 6.687
89.10000 0.450
89.12000 0.477
89.14000 3.209
89.16000 1.980
89.18000 5.571
89.20000 3.952
89.22000 0.572
89.24000 0.925
89.26000 -1.185
89.28000 1.541
89.30000 1.448
89.32000 3.751
89.34000 4.023
89.36000 2.207
89.38000 1.848
89.40000 3.225
89.42000 3.356
89.44000 0.928
89.46000 -1.747
89.48000 -2.170
89.50000 0.970
89.52000 4.366
89.54000 1.680
89.56000 1.516
89.58000 -1.289
89.60000 0.321
89.62000 6.508
89.64000 0.031
89.66000 1.339
89.68000 3.285
89.70000 3.039
89.72000 4.128
89.74000 2.862
89.76000 3.721
89.78000 -0.267
89.80000 0.047
89.82000 1.929
89.84000 0.285
89.86000 -1.426
89.88000 2.610
89.90000 5.181
89.92000 5.575
89.94000 2.589
89.96000 0.487
89.98000 0.235
90.00000 1.910
90.02000 1.550
90.04000 -0.618
90.06000 1.492
90.08000 2.283
90.10000 -0.874
90.12000 0.500
90.14000 1.564
90.16000 4.798
90.18000 3.082
90.20000 3.503
90.22000 4.608
90.24000 6.627
90.26000 6.809
90.28000 1.562
90.30000 1.236
90.32000 4.945
90.34000 5.431
90.36000 1.054
90.38000 0.525
90.40000 3.053
90.42000 2.622
90.44000 4.318
90.46000 6.444
90.48000 4.833
90.50000 0.967
90.52000 2.810
90.54000 4.518
90.56000 5.556
90.58000 2.739
90.60000 3.090
90.62000 5.543
90.64000 5.653
90.66000 6.073
90.68000 3.841
90.70000 3.060
90.72000 4.933
90.74000 1.167
90.76000 -0.528
90.78000 -1.195
90.80000 3.406
90.82000 1.811
90.84000 -2.142
90.86000 1.952
90.88000 1.422
90.90000 4.033
90.92000 5.998
90.94000 3.968
90.96000 5.943
90.98000 3.720
91.00000 2.773
91.02000 0.545
91.04000 -2.153
91.06000 -0.664
91.08000 3.083
91.10000 4.178
91.12000 3.006
91.14000 3.568
91.16000 6.326
91.18000 4.501
91.20000 3.525
91.22000 -0.452
91.24000 2.551
91.26000 5.930
91.28000 4.572
91.30000 2.361
91.32000 3.376
91.34000 4.527
91.36000 5.193
91.38000 3.648
91.40000 1.489
91.42000 1.218
91.44000 -0.462
91.46000 7.201
91.48000 6.953
91.50000 0.984
91.52000 1.621
91.54000 4.062
91.56000 1.414
91.58000 0.877
91.60000 0.536
91.62000 2.573
91.64000 6.565
91.66000 7.813
91.68000 11.854
91.70000 8.577
91.72000 1.698
91.74000 0.837
91.76000 -1.607
91.78000 -1.118
91.80000 1.458
91.82000 6.539
91.84000 7.229
91.86000 0.456
91.88000 0.489
91.90000 1.309
91.92000 -0.191
91.94000 0.835
91.96000 -0.419
91.98000 2.312
92.00000 6.949
92.02000 6.254
92.04000 2.604
92.06000 3.395
92.08000 5.226
92.10000 5.660
92.12000 1.178
92.14000 1.128
92.16000 3.762
92.18000 1.500
92.20000 0.156
92.22000 5.575
92.24000 -2.173
92.26000 0.629
92.28000 1.502
92.30000 4.218
92.32000 5.736
92.34000 10.136
92.36000 8.949
92.38000 3.821
92.40000 6.276
92.42000 5.816
92.44000 4.544
92.46000 2.833
92.48000 -0.296
92.50000 -0.753
92.52000 1.678
92.54000 2.046
92.56000 2.383
92.58000 3.036
92.60000 8.681
92.62000 5.128
92.64000 4.071
92.66000 -0.661
92.68000 -0.625
92.70000 -0.744
92.72000 3.879
92.74000 7.155
92.76000 6.411
92.78000 2.694
92.80000 0.170
92.82000 -0.438
92.84000 -1.684
92.86000 -2.196
92.88000 -2.196
92.90000 3.584
92.92000 4.146
92.94000 -0.040
92.96000 -2.199
92.98000 -1.325
93.00000 -0.499
93.02000 1.339
93.04000 1.356
93.06000 2.695
93.08000 3.716
93.10000 1.405
93.12000 1.900
93.14000 6.672
93.16000 6.666
93.18000 5.984
93.20000 6.798
93.22000 3.698
93.24000 1.521
93.26000 1.936
93.28000 3.201
93.30000 -1.798
93.32000 0.575
93.34000 -1.987
93.36000 2.354
93.38000 -0.768
93.40000 -2.149
93.42000 5.201
93.44000 6.698
93.46000 7.374
93.48000 4.384
93.50000 6.832
93.52000 6.379
93.54000 7.029
93.56000 1.185
93.58000 2.666
93.60000 5.149
93.62000 7.028
93.64000 3.464
93.66000 2.345
93.68000 0.485
93.70000 1.577
93.72000 1.888
93.74000 0.831
93.76000 1.272
93.78000 6.638
93.80000 7.152
93.82000 4.210
93.84000 -1.167
93.86000 -1.438
93.88000 1.641
93.90000 6.201
93.92000 3.073
93.94000 5.252
93.96000 8.021
93.98000 8.508
94.00000 1.658
94.02000 1.985
94.04000 2.979
94.06000 -1.923
94.08000 -1.414
94.10000 -0.164
94.12000 2.693
94.14000 1.316
94.16000 -2.195
94.18000 -0.357
94.20000 9.054
94.22000 4.141
94.24000 -1.278
94.26000 -1.075
94.28000 1.587
94.30000 4.486
94.32000 4.646
94.34000 2.028
94.36000 1.303
94.38000 3.278
94.40000 3.550
94.42000 0.782
94.44000 -1.070
94.46000 -0.534
94.48000 2.468
94.50000 1.421
94.52000 6.458
94.54000 2.555
94.56000 0.973
94.58000 3.924
94.60000 6.334
94.62000 3.751
94.64000 1.707
94.66000 1.530
94.68000 3.728
94.70000 1.436
94.72000 1.454
94.74000 -1.578
94.76000 -2.189
94.78000 2.894
94.80000 3.254
94.82000 -1.078
94.84000 -0.317
94.86000 -2.191
94.88000 2.191
94.90000 4.048
94.92000 6.299
94.94000 6.042
94.96000 4.082
94.98000 8.074
95.00000 3.560
95.02000 5.884
95.04000 5.040
95.06000 0.586
95.08000 -0.452
95.10000 2.775
95.12000 9.475
95.14000 11.619
95.16000 6.841
95.18000 4.223
95.20000 2.880
95.22000 0.369
95.24000 2.115
95.26000 1.517
95.28000 0.314
95.30000 2.097
95.32000 2.937
95.34000 4.585
95.36000 4.243
95.38000 6.665
95.40000 2.553
95.42000 4.279
95.44000 8.629
95.46000 5.251
95.48000 2.536
95.50000 3.351
95.52000 2.409
95.54000 -0.555
95.56000 -1.946
95.58000 -2.141
95.60000 3.066
95.62000 3.008
95.64000 3.943
95.66000 5.635
95.68000 2.535
95.70000 1.057
95.72000 -0.124
95.74000 -1.714
95.76000 2.388
95.78000 2.516
95.80000 4.335
95.82000 7.746
95.84000 9.165
95.86000 4.137
95.88000 4.946
95.90000 4.124
95.92000 0.919
95.94000 0.296
95.96000 6.876
95.98000 5.439
96.00000 4.924
96.02000 3.899
96.04000 6.241
96.06000 10.142
96.08000 9.145
96.10000 6.759
96.12000 8.806
96.14000 10.308
96.16000 5.624
96.18000 -2.155
96.20000 2.514
96.22000 5.324
96.24000 1.783
96.26000 11.599
96.28000 6.566
96.30000 5.167
96.32000 6.790
96.34000 4.769
96.36000 6.578
96.38000 5.635
96.40000 5.696
96.42000 3.301
96.44000 -2.136
96.46000 6.540
96.48000 3.588
96.50000 5.961
96.52000 2.490
96.54000 4.100
96.56000 4.939
96.58000 9.952
96.60000 10.630
96.62000 8.712
96.64000 2.056
96.66000 4.166
96.68000 3.778
96.70000 1.101
96.72000 5.332
96.74000 11.779
96.76000 4.448
96.78000 4.783
96.80000 8.207
96.82000 7.436
96.84000 2.823
96.86000 4.431
96.88000 2.914
96.90000 3.133
96.92000 5.238
96.94000 7.983
96.96000 1.780
96.98000 0.768
97.00000 -2.456
97.02000 10.660
97.04000 -0.851
97.06000 2.597
97.08000 8.777
97.10000 10.223
97.12000 5.944
97.14000 -1.657
97.16000 2.797
97.18000 3.111
97.20000 -1.536
97.22000 1.838
97.24000 6.709
97.26000 5.953
97.28000 0.904
97.30000 7.584
97.32000 7.286
97.34000 3.205
97.36000 4.105
97.38000 2.706
97.40000 4.193
97.42000 7.336
97.44000 6.556
97.46000 6.613
97.48000 3.387
97.50000 1.033
97.52000 4.120
97.54000 6.260
97.56000 10.397
97.58000 4.238
97.60000 2.187
97.62000 -1.774
97.64000 3.400
97.66000 4.439
97.68000 5.831
97.70000 4.327
97.72000 3.198
97.74000 4.062
97.76000 -1.740
97.78000 1.895
97.80000 6.113
97.82000 7.263
97.84000 3.926
97.86000 12.106
97.88000 13.661
97.90000 5.008
97.92000 4.982
97.94000 0.361
97.96000 9.761
97.98000 5.375
98.00000 6.333
98.02000 5.960
98.04000 10.042
98.06000 11.596
98.08000 -0.643
98.10000 0.925
98.12000 7.821
98.14000 12.252
98.16000 6.079
98.18000 2.348
98.20000 -0.468
98.22000 2.831
98.24000 9.558
98.26000 5.067
98.28000 5.987
98.30000 5.208
98.32000 11.094
98.34000 18.850
98.36000 11.994
98.38000 6.713
98.40000 4.297
98.42000 3.741
98.44000 7.157
98.46000 8.799
98.48000 12.365
98.50000 8.295
98.52000 16.233
98.54000 10.831
98.56000 11.761
98.58000 13.672
98.60000 11.572
98.62000 2.190
98.64000 8.749
98.66000 6.131
98.68000 14.511
98.70000 14.223
98.72000 7.495
98.74000 6.377
98.76000 10.495
98.78000 14.063
98.80000 9.925
98.82000 7.473
98.84000 2.858
98.86000 6.709
98.88000 10.618
98.90000 14.849
98.92000 13.112
98.94000 19.761
98.96000 6.988
98.98000 10.295
99.00000 14.956
99.02000 12.475
99.04000 13.671
99.06000 8.863
99.08000 12.272
99.10000 10.328
99.12000 12.405
99.14000 16.327
99.16000 10.155
99.18000 7.047
99.20000 -1.964
99.22000 0.429
99.24000 4.714
99.26000 8.594
99.28000 10.831
99.30000 18.470
99.32000 17.276
99.34000 15.493
99.36000 10.034
99.38000 1.664
99.40000 2.171
99.42000 3.358
99.44000 6.736
99.46000 14.556
99.48000 20.230
99.50000 16.454
99.52000 9.025
99.54000 8.515
99.56000 10.223
99.58000 0.888
99.60000 -2.062
99.62000 6.561
99.64000 3.578
99.66000 6.264
99.68000 11.150
99.70000 8.472
99.72000 6.500
99.74000 7.562
99.76000 1.811
99.78000 1.156
99.80000 2.700
99.82000 15.599
99.84000 8.007
99.86000 2.891
99.88000 1.730
99.90000 14.796
99.92000 11.570
99.94000 7.968
99.96000 9.308
99.98000 0.000
