'Id: "0011387" Comment: "Integrate frame 0011387_Au-Ir-Rh_Rh-rich_XRD-Mapping-169-0000.gfrmwith cursor Wedge Cursor #5" Operator: "B?rgel" Anode: "Cu" Wavelength: "1.5406" Scantype: "2Theta (TwoTheta)" TimePerStep: "1" X: "9" Y: "0" Z: "5.95" 
10.00000 0.000
10.02000 -4.123
10.04000 4.106
10.06000 2.064
10.08000 4.758
10.10000 -4.062
10.12000 8.389
10.14000 14.798
10.16000 2.087
10.18000 -2.501
10.20000 0.492
10.22000 -4.004
10.24000 6.351
10.26000 9.159
10.28000 22.649
10.30000 14.594
10.32000 15.196
10.34000 8.864
10.36000 -0.095
10.38000 5.461
10.40000 8.429
10.42000 9.442
10.44000 12.683
10.46000 27.521
10.48000 16.782
10.50000 6.567
10.52000 7.271
10.54000 5.393
10.56000 8.081
10.58000 10.563
10.60000 21.773
10.62000 17.680
10.64000 9.593
10.66000 0.726
10.68000 0.204
10.70000 2.549
10.72000 4.098
10.74000 -0.878
10.76000 0.330
10.78000 17.976
10.80000 10.622
10.82000 -1.844
10.84000 -3.305
10.86000 10.168
10.88000 13.037
10.90000 0.064
10.92000 -4.102
10.94000 10.613
10.96000 10.894
10.98000 5.473
11.00000 15.245
11.02000 9.715
11.04000 -0.299
11.06000 16.569
11.08000 13.044
11.10000 14.996
11.12000 1.297
11.14000 0.560
11.16000 1.102
11.18000 0.578
11.20000 -1.871
11.22000 22.297
11.24000 16.714
11.26000 21.751
11.28000 22.783
11.30000 17.356
11.32000 15.469
11.34000 18.294
11.36000 25.330
11.38000 9.031
11.40000 10.215
11.42000 -0.382
11.44000 -4.034
11.46000 5.761
11.48000 8.488
11.50000 -0.008
11.52000 10.709
11.54000 7.229
11.56000 14.825
11.58000 17.222
11.60000 25.317
11.62000 17.555
11.64000 2.304
11.66000 6.264
11.68000 7.761
11.70000 15.449
11.72000 15.960
11.74000 13.165
11.76000 6.369
11.78000 12.698
11.80000 19.388
11.82000 10.924
11.84000 6.112
11.86000 10.009
11.88000 13.692
11.90000 3.242
11.92000 4.184
11.94000 14.116
11.96000 3.306
11.98000 12.976
12.00000 10.739
12.02000 -3.035
12.04000 6.207
12.06000 9.670
12.08000 17.185
12.10000 14.180
12.12000 13.921
12.14000 10.787
12.16000 20.917
12.18000 17.561
12.20000 14.924
12.22000 7.121
12.24000 10.316
12.26000 19.958
12.28000 11.509
12.30000 8.806
12.32000 15.687
12.34000 13.215
12.36000 12.185
12.38000 17.783
12.40000 9.519
12.42000 13.339
12.44000 11.734
12.46000 23.361
12.48000 11.364
12.50000 22.185
12.52000 12.840
12.54000 12.549
12.56000 18.784
12.58000 19.540
12.60000 23.440
12.62000 9.097
12.64000 7.614
12.66000 24.178
12.68000 17.836
12.70000 5.459
12.72000 9.431
12.74000 4.765
12.76000 6.239
12.78000 18.552
12.80000 11.729
12.82000 -1.271
12.84000 -2.562
12.86000 1.166
12.88000 -0.282
12.90000 3.454
12.92000 16.863
12.94000 12.234
12.96000 11.368
12.98000 15.341
13.00000 13.403
13.02000 10.075
13.04000 17.612
13.06000 19.717
13.08000 14.273
13.10000 11.424
13.12000 15.567
13.14000 15.611
13.16000 19.033
13.18000 22.751
13.20000 13.386
13.22000 15.677
13.24000 9.627
13.26000 9.324
13.28000 17.587
13.30000 15.554
13.32000 13.524
13.34000 11.158
13.36000 3.133
13.38000 5.475
13.40000 9.854
13.42000 26.830
13.44000 27.721
13.46000 6.252
13.48000 -1.697
13.50000 1.416
13.52000 19.003
13.54000 16.938
13.56000 10.484
13.58000 11.500
13.60000 18.506
13.62000 12.174
13.64000 9.310
13.66000 12.615
13.68000 18.577
13.70000 18.158
13.72000 20.784
13.74000 13.839
13.76000 8.040
13.78000 2.814
13.80000 4.310
13.82000 0.646
13.84000 16.769
13.86000 8.172
13.88000 11.478
13.90000 1.288
13.92000 4.941
13.94000 4.407
13.96000 9.328
13.98000 6.326
14.00000 11.162
14.02000 9.473
14.04000 15.056
14.06000 8.155
14.08000 9.466
14.10000 8.417
14.12000 -3.351
14.14000 0.422
14.16000 10.210
14.18000 5.581
14.20000 11.913
14.22000 7.910
14.24000 8.786
14.26000 7.814
14.28000 14.733
14.30000 2.909
14.32000 15.586
14.34000 13.625
14.36000 14.044
14.38000 4.818
14.40000 0.182
14.42000 6.477
14.44000 11.941
14.46000 15.298
14.48000 6.583
14.50000 7.252
14.52000 11.711
14.54000 4.907
14.56000 5.860
14.58000 9.966
14.60000 20.463
14.62000 11.222
14.64000 7.451
14.66000 15.713
14.68000 8.825
14.70000 11.969
14.72000 17.447
14.74000 8.637
14.76000 11.064
14.78000 9.551
14.80000 17.998
14.82000 17.059
14.84000 4.416
14.86000 -0.461
14.88000 -2.191
14.90000 7.126
14.92000 12.723
14.94000 7.910
14.96000 2.084
14.98000 5.388
15.00000 2.420
15.02000 3.926
15.04000 10.175
15.06000 6.761
15.08000 -0.884
15.10000 5.377
15.12000 0.043
15.14000 4.290
15.16000 10.648
15.18000 11.443
15.20000 7.683
15.22000 4.845
15.24000 2.732
15.26000 -2.453
15.28000 -1.441
15.30000 7.277
15.32000 3.602
15.34000 1.528
15.36000 7.153
15.38000 9.681
15.40000 5.771
15.42000 4.079
15.44000 11.122
15.46000 7.956
15.48000 9.320
15.50000 11.010
15.52000 9.205
15.54000 -3.422
15.56000 1.381
15.58000 6.311
15.60000 14.211
15.62000 5.655
15.64000 0.322
15.66000 3.857
15.68000 8.066
15.70000 0.234
15.72000 4.443
15.74000 7.043
15.76000 6.266
15.78000 8.019
15.80000 13.279
15.82000 9.758
15.84000 5.910
15.86000 7.372
15.88000 5.233
15.90000 0.813
15.92000 1.682
15.94000 1.614
15.96000 6.072
15.98000 9.990
16.00000 0.951
16.02000 -0.969
16.04000 3.909
16.06000 1.507
16.08000 -2.595
16.10000 4.066
16.12000 7.223
16.14000 -2.240
16.16000 -3.814
16.18000 -0.265
16.20000 -4.424
16.22000 5.497
16.24000 9.084
16.26000 3.692
16.28000 -4.145
16.30000 3.104
16.32000 8.173
16.34000 9.138
16.36000 5.592
16.38000 4.233
16.40000 4.447
16.42000 -0.058
16.44000 -2.639
16.46000 1.566
16.48000 8.866
16.50000 4.464
16.52000 4.493
16.54000 12.910
16.56000 5.807
16.58000 10.965
16.60000 1.788
16.62000 5.165
16.64000 1.485
16.66000 4.432
16.68000 2.880
16.70000 10.321
16.72000 11.594
16.74000 12.710
16.76000 8.531
16.78000 0.100
16.80000 -4.395
16.82000 1.210
16.84000 7.924
16.86000 8.501
16.88000 4.927
16.90000 10.238
16.92000 7.490
16.94000 6.568
16.96000 6.604
16.98000 10.132
17.00000 5.901
17.02000 6.768
17.04000 11.957
17.06000 3.594
17.08000 0.312
17.10000 -1.020
17.12000 -4.385
17.14000 1.019
17.16000 2.509
17.18000 -0.861
17.20000 3.921
17.22000 10.104
17.24000 11.516
17.26000 8.377
17.28000 1.738
17.30000 3.590
17.32000 5.812
17.34000 7.655
17.36000 2.005
17.38000 5.223
17.40000 -2.870
17.42000 -4.149
17.44000 -4.195
17.46000 -2.341
17.48000 10.074
17.50000 7.559
17.52000 1.626
17.54000 6.779
17.56000 4.792
17.58000 8.510
17.60000 8.904
17.62000 3.375
17.64000 7.816
17.66000 14.295
17.68000 10.703
17.70000 8.321
17.72000 2.843
17.74000 3.109
17.76000 0.649
17.78000 -1.215
17.80000 9.575
17.82000 1.990
17.84000 9.316
17.86000 6.999
17.88000 4.122
17.90000 5.458
17.92000 5.374
17.94000 2.785
17.96000 6.884
17.98000 3.548
18.00000 9.357
18.02000 -3.023
18.04000 -3.704
18.06000 5.046
18.08000 10.468
18.10000 8.369
18.12000 1.822
18.14000 3.036
18.16000 8.004
18.18000 7.808
18.20000 1.581
18.22000 0.710
18.24000 9.464
18.26000 9.135
18.28000 2.235
18.30000 -2.603
18.32000 0.672
18.34000 4.030
18.36000 4.115
18.38000 5.908
18.40000 13.211
18.42000 4.068
18.44000 -2.550
18.46000 0.966
18.48000 1.185
18.50000 7.451
18.52000 8.648
18.54000 5.061
18.56000 0.131
18.58000 -2.813
18.60000 5.163
18.62000 4.686
18.64000 7.432
18.66000 3.514
18.68000 7.034
18.70000 2.591
18.72000 1.767
18.74000 1.498
18.76000 1.145
18.78000 6.556
18.80000 6.363
18.82000 4.796
18.84000 5.221
18.86000 3.165
18.88000 2.467
18.90000 6.833
18.92000 3.787
18.94000 3.517
18.96000 1.197
18.98000 3.363
19.00000 7.546
19.02000 7.033
19.04000 5.199
19.06000 -3.208
19.08000 -4.256
19.10000 1.247
19.12000 5.845
19.14000 0.629
19.16000 -1.567
19.18000 1.210
19.20000 8.039
19.22000 10.513
19.24000 3.590
19.26000 -1.643
19.28000 0.995
19.30000 0.116
19.32000 5.273
19.34000 6.663
19.36000 5.594
19.38000 4.630
19.40000 -4.173
19.42000 2.163
19.44000 1.958
19.46000 4.380
19.48000 7.533
19.50000 8.838
19.52000 4.799
19.54000 8.119
19.56000 10.512
19.58000 4.683
19.60000 1.511
19.62000 2.171
19.64000 5.751
19.66000 4.761
19.68000 1.351
19.70000 -2.348
19.72000 5.127
19.74000 3.061
19.76000 6.430
19.78000 8.082
19.80000 -0.176
19.82000 -3.294
19.84000 0.438
19.86000 3.135
19.88000 5.702
19.90000 13.192
19.92000 12.501
19.94000 1.261
19.96000 -4.204
19.98000 -1.200
20.00000 -0.522
20.02000 4.855
20.04000 5.918
20.06000 5.921
20.08000 5.573
20.10000 6.680
20.12000 5.265
20.14000 7.906
20.16000 2.638
20.18000 -0.926
20.20000 -0.777
20.22000 2.111
20.24000 4.675
20.26000 8.945
20.28000 1.035
20.30000 6.685
20.32000 8.177
20.34000 7.448
20.36000 6.364
20.38000 4.259
20.40000 0.998
20.42000 3.993
20.44000 5.981
20.46000 11.332
20.48000 9.278
20.50000 3.028
20.52000 3.722
20.54000 1.858
20.56000 6.363
20.58000 6.708
20.60000 6.397
20.62000 6.712
20.64000 0.391
20.66000 10.816
20.68000 14.781
20.70000 6.356
20.72000 2.979
20.74000 9.270
20.76000 9.822
20.78000 9.243
20.80000 5.708
20.82000 6.040
20.84000 14.313
20.86000 9.892
20.88000 9.477
20.90000 12.068
20.92000 4.461
20.94000 8.304
20.96000 3.036
20.98000 -4.119
21.00000 4.792
21.02000 9.831
21.04000 13.460
21.06000 10.808
21.08000 8.671
21.10000 6.198
21.12000 4.641
21.14000 3.780
21.16000 9.195
21.18000 9.395
21.20000 4.535
21.22000 10.368
21.24000 13.088
21.26000 8.541
21.28000 6.399
21.30000 2.022
21.32000 2.437
21.34000 3.686
21.36000 10.900
21.38000 14.286
21.40000 11.397
21.42000 5.409
21.44000 3.873
21.46000 7.661
21.48000 10.486
21.50000 7.510
21.52000 3.410
21.54000 5.125
21.56000 6.184
21.58000 4.538
21.60000 6.435
21.62000 6.960
21.64000 6.812
21.66000 7.285
21.68000 2.761
21.70000 2.675
21.72000 4.934
21.74000 8.707
21.76000 13.968
21.78000 13.745
21.80000 5.751
21.82000 -1.009
21.84000 7.303
21.86000 12.380
21.88000 11.008
21.90000 8.918
21.92000 4.298
21.94000 2.958
21.96000 0.718
21.98000 0.860
22.00000 5.410
22.02000 1.843
22.04000 2.009
22.06000 3.892
22.08000 -0.625
22.10000 -4.048
22.12000 3.934
22.14000 5.854
22.16000 3.191
22.18000 10.160
22.20000 4.609
22.22000 10.088
22.24000 8.894
22.26000 10.782
22.28000 3.244
22.30000 0.384
22.32000 5.431
22.34000 9.883
22.36000 5.883
22.38000 4.146
22.40000 4.344
22.42000 4.117
22.44000 0.487
22.46000 -1.979
22.48000 2.118
22.50000 4.250
22.52000 3.874
22.54000 2.912
22.56000 11.395
22.58000 4.053
22.60000 3.642
22.62000 2.267
22.64000 4.701
22.66000 4.064
22.68000 6.147
22.70000 8.265
22.72000 -0.131
22.74000 3.949
22.76000 9.528
22.78000 12.485
22.80000 2.474
22.82000 3.440
22.84000 6.130
22.86000 1.622
22.88000 4.402
22.90000 9.382
22.92000 10.311
22.94000 9.016
22.96000 -1.200
22.98000 -0.229
23.00000 7.818
23.02000 4.318
23.04000 0.607
23.06000 -1.436
23.08000 -4.029
23.10000 3.785
23.12000 8.170
23.14000 11.064
23.16000 11.723
23.18000 14.412
23.20000 7.918
23.22000 6.357
23.24000 10.425
23.26000 6.748
23.28000 -0.186
23.30000 0.791
23.32000 2.985
23.34000 2.974
23.36000 -1.088
23.38000 0.756
23.40000 10.397
23.42000 6.869
23.44000 3.125
23.46000 4.617
23.48000 4.847
23.50000 9.397
23.52000 8.523
23.54000 5.572
23.56000 7.768
23.58000 1.869
23.60000 1.577
23.62000 3.797
23.64000 6.533
23.66000 11.464
23.68000 15.008
23.70000 8.564
23.72000 3.536
23.74000 6.478
23.76000 8.882
23.78000 10.510
23.80000 4.800
23.82000 4.503
23.84000 4.129
23.86000 7.487
23.88000 -0.997
23.90000 -3.951
23.92000 0.597
23.94000 6.214
23.96000 9.057
23.98000 11.630
24.00000 8.205
24.02000 3.814
24.04000 8.306
24.06000 4.104
24.08000 8.902
24.10000 3.042
24.12000 4.656
24.14000 0.822
24.16000 1.326
24.18000 8.033
24.20000 9.878
24.22000 5.988
24.24000 7.489
24.26000 0.155
24.28000 -2.938
24.30000 4.225
24.32000 5.894
24.34000 5.484
24.36000 4.982
24.38000 8.155
24.40000 6.477
24.42000 6.927
24.44000 5.035
24.46000 5.703
24.48000 -1.009
24.50000 0.495
24.52000 5.032
24.54000 6.918
24.56000 -0.445
24.58000 -3.926
24.60000 6.308
24.62000 10.260
24.64000 12.098
24.66000 10.754
24.68000 5.338
24.70000 1.552
24.72000 3.354
24.74000 2.398
24.76000 6.670
24.78000 3.534
24.80000 1.209
24.82000 5.769
24.84000 9.026
24.86000 3.439
24.88000 2.254
24.90000 -3.917
24.92000 -0.601
24.94000 8.550
24.96000 4.885
24.98000 7.343
25.00000 7.600
25.02000 1.749
25.04000 3.393
25.06000 2.767
25.08000 4.746
25.10000 0.654
25.12000 2.620
25.14000 7.336
25.16000 9.593
25.18000 -0.578
25.20000 -0.455
25.22000 0.566
25.24000 -0.072
25.26000 2.178
25.28000 7.124
25.30000 7.740
25.32000 3.960
25.34000 3.524
25.36000 2.560
25.38000 4.876
25.40000 5.415
25.42000 4.931
25.44000 3.103
25.46000 4.415
25.48000 5.838
25.50000 5.003
25.52000 0.341
25.54000 4.825
25.56000 5.770
25.58000 4.811
25.60000 7.712
25.62000 12.585
25.64000 2.577
25.66000 -0.630
25.68000 -1.471
25.70000 4.481
25.72000 -1.961
25.74000 -3.896
25.76000 6.100
25.78000 12.712
25.80000 4.530
25.82000 3.773
25.84000 -0.221
25.86000 4.033
25.88000 6.686
25.90000 6.421
25.92000 1.837
25.94000 -1.548
25.96000 1.936
25.98000 7.537
26.00000 5.879
26.02000 0.668
26.04000 -2.677
26.06000 0.804
26.08000 6.931
26.10000 2.244
26.12000 -1.196
26.14000 1.286
26.16000 0.211
26.18000 4.327
26.20000 5.728
26.22000 4.831
26.24000 5.281
26.26000 0.784
26.28000 0.135
26.30000 1.693
26.32000 0.791
26.34000 3.262
26.36000 2.798
26.38000 1.976
26.40000 4.245
26.42000 -0.207
26.44000 -1.027
26.46000 -2.006
26.48000 -3.499
26.50000 -1.856
26.52000 1.327
26.54000 3.374
26.56000 1.823
26.58000 -1.472
26.60000 1.943
26.62000 1.775
26.64000 4.591
26.66000 3.252
26.68000 1.039
26.70000 -3.699
26.72000 0.588
26.74000 1.376
26.76000 4.960
26.78000 2.936
26.80000 -1.159
26.82000 -0.907
26.84000 0.815
26.86000 2.330
26.88000 -0.502
26.90000 -0.579
26.92000 7.163
26.94000 6.507
26.96000 2.631
26.98000 4.677
27.00000 9.794
27.02000 7.734
27.04000 3.494
27.06000 0.467
27.08000 4.435
27.10000 -2.255
27.12000 -3.331
27.14000 1.446
27.16000 -0.374
27.18000 0.454
27.20000 -0.008
27.22000 0.914
27.24000 4.149
27.26000 4.334
27.28000 1.735
27.30000 0.568
27.32000 1.552
27.34000 5.164
27.36000 2.555
27.38000 -3.088
27.40000 1.243
27.42000 2.545
27.44000 1.916
27.46000 6.596
27.48000 1.978
27.50000 -0.834
27.52000 -0.635
27.54000 1.190
27.56000 4.501
27.58000 4.400
27.60000 4.132
27.62000 4.057
27.64000 2.276
27.66000 -0.554
27.68000 3.278
27.70000 3.452
27.72000 -3.780
27.74000 5.061
27.76000 8.699
27.78000 5.917
27.80000 6.400
27.82000 3.895
27.84000 2.542
27.86000 0.456
27.88000 -3.155
27.90000 -1.293
27.92000 -1.110
27.94000 1.275
27.96000 0.826
27.98000 3.692
28.00000 6.692
28.02000 9.503
28.04000 8.004
28.06000 4.429
28.08000 9.650
28.10000 9.876
28.12000 5.116
28.14000 8.539
28.16000 7.765
28.18000 5.569
28.20000 5.706
28.22000 6.821
28.24000 4.674
28.26000 10.509
28.28000 6.083
28.30000 -1.402
28.32000 -2.115
28.34000 2.510
28.36000 2.107
28.38000 8.299
28.40000 8.580
28.42000 8.355
28.44000 16.694
28.46000 10.292
28.48000 8.790
28.50000 6.194
28.52000 4.887
28.54000 5.428
28.56000 8.117
28.58000 7.205
28.60000 8.437
28.62000 8.258
28.64000 3.893
28.66000 0.980
28.68000 -3.711
28.70000 4.807
28.72000 9.182
28.74000 6.479
28.76000 3.853
28.78000 2.104
28.80000 2.945
28.82000 -1.634
28.84000 1.639
28.86000 1.330
28.88000 3.212
28.90000 6.310
28.92000 8.721
28.94000 2.395
28.96000 2.497
28.98000 5.745
29.00000 0.550
29.02000 6.325
29.04000 7.537
29.06000 10.208
29.08000 4.815
29.10000 4.832
29.12000 3.369
29.14000 5.281
29.16000 2.667
29.18000 9.770
29.20000 7.518
29.22000 3.176
29.24000 2.991
29.26000 5.535
29.28000 3.415
29.30000 -1.061
29.32000 1.724
29.34000 3.644
29.36000 -2.038
29.38000 1.307
29.40000 7.104
29.42000 5.218
29.44000 1.329
29.46000 0.601
29.48000 6.043
29.50000 1.329
29.52000 1.434
29.54000 3.696
29.56000 2.634
29.58000 -2.940
29.60000 1.824
29.62000 -1.083
29.64000 -1.566
29.66000 5.301
29.68000 1.253
29.70000 -1.463
29.72000 1.350
29.74000 -0.030
29.76000 2.375
29.78000 -1.422
29.80000 3.113
29.82000 5.869
29.84000 0.961
29.86000 -1.485
29.88000 -3.676
29.90000 0.203
29.92000 4.817
29.94000 5.756
29.96000 5.470
29.98000 3.591
30.00000 4.171
30.02000 4.117
30.04000 0.751
30.06000 2.017
30.08000 5.458
30.10000 2.654
30.12000 1.558
30.14000 5.160
30.16000 -0.485
30.18000 -0.148
30.20000 -2.291
30.22000 -1.749
30.24000 2.054
30.26000 2.845
30.28000 5.805
30.30000 2.870
30.32000 0.734
30.34000 3.266
30.36000 3.632
30.38000 1.682
30.40000 4.818
30.42000 -0.626
30.44000 -2.633
30.46000 4.493
30.48000 6.445
30.50000 2.255
30.52000 -3.239
30.54000 -0.253
30.56000 -0.398
30.58000 1.276
30.60000 0.081
30.62000 1.523
30.64000 2.905
30.66000 3.280
30.68000 0.948
30.70000 0.033
30.72000 7.730
30.74000 3.796
30.76000 0.576
30.78000 2.152
30.80000 2.201
30.82000 2.580
30.84000 5.350
30.86000 3.628
30.88000 8.010
30.90000 7.534
30.92000 2.232
30.94000 -3.623
30.96000 -0.264
30.98000 3.335
31.00000 -0.084
31.02000 -2.632
31.04000 2.096
31.06000 0.215
31.08000 -1.202
31.10000 -1.511
31.12000 1.851
31.14000 1.675
31.16000 -0.235
31.18000 0.138
31.20000 1.831
31.22000 3.473
31.24000 7.185
31.26000 0.503
31.28000 -2.172
31.30000 0.139
31.32000 0.098
31.34000 5.081
31.36000 9.877
31.38000 7.305
31.40000 2.640
31.42000 -1.910
31.44000 -0.246
31.46000 4.609
31.48000 6.343
31.50000 5.963
31.52000 3.754
31.54000 7.359
31.56000 6.057
31.58000 3.470
31.60000 1.816
31.62000 -0.377
31.64000 -0.366
31.66000 1.749
31.68000 4.057
31.70000 5.318
31.72000 6.973
31.74000 5.328
31.76000 2.459
31.78000 -1.791
31.80000 1.091
31.82000 4.853
31.84000 3.334
31.86000 -3.610
31.88000 -0.319
31.90000 4.610
31.92000 4.423
31.94000 4.403
31.96000 4.503
31.98000 0.224
32.00000 -2.598
32.02000 -2.197
32.04000 0.447
32.06000 0.429
32.08000 -1.229
32.10000 -1.550
32.12000 0.164
32.14000 -0.609
32.16000 -1.434
32.18000 -3.158
32.20000 -3.600
32.22000 5.423
32.24000 4.487
32.26000 7.137
32.28000 5.711
32.30000 6.533
32.32000 9.161
32.34000 1.912
32.36000 0.718
32.38000 3.090
32.40000 0.647
32.42000 2.496
32.44000 4.295
32.46000 6.482
32.48000 5.082
32.50000 1.232
32.52000 2.577
32.54000 4.452
32.56000 -2.962
32.58000 -0.665
32.60000 2.694
32.62000 4.395
32.64000 5.945
32.66000 8.709
32.68000 8.887
32.70000 0.307
32.72000 2.627
32.74000 2.341
32.76000 5.106
32.78000 5.757
32.80000 7.457
32.82000 5.681
32.84000 2.436
32.86000 1.692
32.88000 1.819
32.90000 2.426
32.92000 0.411
32.94000 1.711
32.96000 0.169
32.98000 2.509
33.00000 5.632
33.02000 1.371
33.04000 6.019
33.06000 9.430
33.08000 2.105
33.10000 3.041
33.12000 -3.585
33.14000 1.578
33.16000 2.641
33.18000 -1.056
33.20000 0.383
33.22000 -0.691
33.24000 3.036
33.26000 4.974
33.28000 7.184
33.30000 10.525
33.32000 4.443
33.34000 2.375
33.36000 3.959
33.38000 5.021
33.40000 8.095
33.42000 3.407
33.44000 3.747
33.46000 3.527
33.48000 2.541
33.50000 1.837
33.52000 3.081
33.54000 4.037
33.56000 -1.450
33.58000 -2.302
33.60000 -0.534
33.62000 4.615
33.64000 2.535
33.66000 1.300
33.68000 3.277
33.70000 4.164
33.72000 0.993
33.74000 0.417
33.76000 -0.878
33.78000 -2.365
33.80000 0.950
33.82000 4.267
33.84000 2.084
33.86000 4.515
33.88000 5.712
33.90000 1.328
33.92000 3.162
33.94000 3.842
33.96000 4.689
33.98000 1.723
34.00000 6.745
34.02000 2.508
34.04000 3.443
34.06000 9.756
34.08000 7.740
34.10000 4.719
34.12000 0.551
34.14000 4.916
34.16000 2.285
34.18000 6.605
34.20000 4.926
34.22000 5.099
34.24000 5.593
34.26000 2.559
34.28000 -3.508
34.30000 1.693
34.32000 3.129
34.34000 4.617
34.36000 1.730
34.38000 2.591
34.40000 -0.223
34.42000 0.581
34.44000 5.221
34.46000 7.875
34.48000 8.460
34.50000 6.635
34.52000 5.631
34.54000 3.568
34.56000 0.890
34.58000 0.416
34.60000 4.501
34.62000 3.550
34.64000 3.639
34.66000 4.965
34.68000 2.740
34.70000 2.487
34.72000 4.329
34.74000 6.082
34.76000 3.450
34.78000 1.738
34.80000 -0.204
34.82000 -3.509
34.84000 0.947
34.86000 5.758
34.88000 4.698
34.90000 4.466
34.92000 2.221
34.94000 -3.397
34.96000 -2.703
34.98000 0.812
35.00000 3.364
35.02000 4.600
35.04000 2.061
35.06000 4.818
35.08000 4.288
35.10000 5.606
35.12000 3.414
35.14000 -1.721
35.16000 0.789
35.18000 4.960
35.20000 5.248
35.22000 4.750
35.24000 4.176
35.26000 -2.396
35.28000 6.698
35.30000 5.467
35.32000 1.065
35.34000 1.367
35.36000 0.624
35.38000 2.787
35.40000 5.002
35.42000 3.120
35.44000 1.312
35.46000 5.538
35.48000 -0.024
35.50000 0.582
35.52000 0.757
35.54000 -0.856
35.56000 -2.514
35.58000 5.201
35.60000 9.120
35.62000 7.371
35.64000 3.366
35.66000 2.757
35.68000 4.648
35.70000 4.539
35.72000 3.312
35.74000 -1.624
35.76000 3.400
35.78000 4.129
35.80000 3.100
35.82000 3.538
35.84000 0.646
35.86000 1.984
35.88000 2.233
35.90000 -2.057
35.92000 -3.481
35.94000 1.298
35.96000 0.638
35.98000 5.095
36.00000 1.742
36.02000 -0.508
36.04000 -0.213
36.06000 1.725
36.08000 3.317
36.10000 2.196
36.12000 3.387
36.14000 -0.314
36.16000 1.495
36.18000 -0.840
36.20000 2.821
36.22000 0.559
36.24000 0.458
36.26000 -2.013
36.28000 -0.747
36.30000 1.080
36.32000 0.270
36.34000 -1.127
36.36000 3.682
36.38000 5.668
36.40000 2.284
36.42000 1.896
36.44000 3.082
36.46000 4.648
36.48000 3.009
36.50000 1.207
36.52000 0.038
36.54000 1.355
36.56000 -3.506
36.58000 -0.311
36.60000 1.770
36.62000 9.918
36.64000 1.865
36.66000 -1.943
36.68000 2.469
36.70000 2.516
36.72000 5.108
36.74000 2.575
36.76000 4.273
36.78000 7.347
36.80000 -0.150
36.82000 2.489
36.84000 7.005
36.86000 4.595
36.88000 2.502
36.90000 1.560
36.92000 4.352
36.94000 3.578
36.96000 7.465
36.98000 3.116
37.00000 0.736
37.02000 -1.178
37.04000 -2.954
37.06000 0.513
37.08000 0.595
37.10000 0.380
37.12000 -0.816
37.14000 0.745
37.16000 1.222
37.18000 -0.075
37.20000 -2.104
37.22000 -2.625
37.24000 1.723
37.26000 2.940
37.28000 3.572
37.30000 -2.755
37.32000 0.464
37.34000 2.118
37.36000 0.906
37.38000 0.378
37.40000 -1.991
37.42000 0.610
37.44000 0.819
37.46000 2.266
37.48000 1.975
37.50000 4.113
37.52000 2.552
37.54000 2.701
37.56000 -0.977
37.58000 -1.174
37.60000 -1.240
37.62000 1.529
37.64000 1.544
37.66000 2.763
37.68000 4.062
37.70000 -3.282
37.72000 -3.561
37.74000 -1.220
37.76000 5.647
37.78000 5.870
37.80000 3.074
37.82000 8.398
37.84000 9.445
37.86000 7.589
37.88000 8.027
37.90000 5.809
37.92000 5.126
37.94000 4.053
37.96000 3.240
37.98000 6.010
38.00000 9.686
38.02000 7.563
38.04000 12.517
38.06000 9.065
38.08000 11.390
38.10000 11.980
38.12000 14.163
38.14000 11.467
38.16000 9.934
38.18000 13.752
38.20000 16.726
38.22000 18.657
38.24000 15.115
38.26000 9.711
38.28000 11.462
38.30000 11.977
38.32000 12.449
38.34000 13.755
38.36000 13.787
38.38000 16.304
38.40000 15.328
38.42000 13.128
38.44000 17.756
38.46000 19.507
38.48000 14.824
38.50000 11.497
38.52000 14.243
38.54000 17.576
38.56000 15.886
38.58000 19.105
38.60000 21.633
38.62000 23.651
38.64000 28.089
38.66000 23.041
38.68000 18.804
38.70000 15.637
38.72000 24.384
38.74000 25.621
38.76000 26.500
38.78000 30.227
38.80000 32.268
38.82000 31.000
38.84000 27.784
38.86000 25.236
38.88000 23.497
38.90000 28.207
38.92000 37.323
38.94000 33.951
38.96000 36.716
38.98000 39.078
39.00000 42.371
39.02000 40.522
39.04000 42.439
39.06000 49.548
39.08000 47.587
39.10000 43.547
39.12000 45.946
39.14000 48.345
39.16000 51.317
39.18000 48.246
39.20000 51.074
39.22000 55.136
39.24000 57.958
39.26000 60.740
39.28000 61.364
39.30000 62.735
39.32000 63.530
39.34000 68.789
39.36000 70.905
39.38000 77.639
39.40000 81.758
39.42000 87.302
39.44000 86.162
39.46000 86.107
39.48000 92.685
39.50000 99.079
39.52000 101.903
39.54000 107.744
39.56000 113.511
39.58000 119.868
39.60000 125.914
39.62000 134.295
39.64000 141.370
39.66000 145.941
39.68000 151.073
39.70000 166.769
39.72000 173.408
39.74000 178.429
39.76000 187.921
39.78000 202.668
39.80000 214.639
39.82000 226.128
39.84000 242.373
39.86000 261.529
39.88000 274.836
39.90000 287.860
39.92000 305.411
39.94000 322.491
39.96000 338.254
39.98000 358.147
40.00000 374.497
40.02000 400.740
40.04000 421.013
40.06000 437.240
40.08000 460.761
40.10000 488.007
40.12000 512.167
40.14000 541.186
40.16000 559.278
40.18000 578.836
40.20000 596.169
40.22000 617.883
40.24000 644.420
40.26000 654.872
40.28000 673.226
40.30000 684.476
40.32000 695.050
40.34000 698.121
40.36000 703.939
40.38000 721.976
40.40000 730.959
40.42000 734.553
40.44000 719.411
40.46000 713.179
40.48000 714.884
40.50000 695.979
40.52000 680.815
40.54000 669.971
40.56000 655.487
40.58000 638.953
40.60000 628.421
40.62000 606.923
40.64000 592.190
40.66000 572.221
40.68000 555.955
40.70000 532.061
40.72000 509.532
40.74000 480.568
40.76000 451.991
40.78000 433.000
40.80000 421.234
40.82000 408.055
40.84000 397.450
40.86000 376.889
40.88000 345.977
40.90000 323.971
40.92000 305.689
40.94000 297.765
40.96000 286.519
40.98000 270.099
41.00000 254.067
41.02000 240.799
41.04000 230.310
41.06000 218.433
41.08000 205.732
41.10000 195.376
41.12000 187.741
41.14000 171.052
41.16000 160.895
41.18000 155.808
41.20000 148.609
41.22000 140.909
41.24000 131.383
41.26000 126.235
41.28000 120.649
41.30000 111.595
41.32000 104.478
41.34000 103.778
41.36000 99.795
41.38000 94.986
41.40000 90.382
41.42000 85.440
41.44000 79.660
41.46000 77.675
41.48000 75.712
41.50000 75.623
41.52000 63.019
41.54000 59.426
41.56000 57.682
41.58000 61.049
41.60000 57.052
41.62000 53.478
41.64000 52.909
41.66000 49.182
41.68000 45.085
41.70000 42.362
41.72000 41.205
41.74000 40.626
41.76000 34.853
41.78000 36.623
41.80000 36.637
41.82000 32.874
41.84000 29.275
41.86000 28.244
41.88000 26.686
41.90000 28.315
41.92000 29.593
41.94000 22.491
41.96000 23.982
41.98000 27.019
42.00000 24.108
42.02000 20.489
42.04000 17.647
42.06000 14.397
42.08000 18.819
42.10000 20.502
42.12000 19.345
42.14000 12.909
42.16000 14.840
42.18000 17.924
42.20000 14.343
42.22000 13.397
42.24000 13.533
42.26000 15.399
42.28000 16.737
42.30000 15.531
42.32000 11.650
42.34000 8.590
42.36000 5.854
42.38000 5.759
42.40000 9.664
42.42000 9.013
42.44000 11.409
42.46000 7.005
42.48000 4.520
42.50000 8.142
42.52000 10.152
42.54000 5.909
42.56000 8.122
42.58000 5.154
42.60000 4.693
42.62000 5.702
42.64000 5.719
42.66000 6.609
42.68000 8.932
42.70000 5.036
42.72000 6.290
42.74000 3.939
42.76000 4.293
42.78000 5.067
42.80000 3.444
42.82000 2.694
42.84000 4.487
42.86000 7.017
42.88000 5.492
42.90000 2.933
42.92000 2.980
42.94000 -0.887
42.96000 0.701
42.98000 -0.055
43.00000 -0.372
43.02000 0.611
43.04000 2.201
43.06000 5.848
43.08000 5.690
43.10000 1.356
43.12000 4.282
43.14000 5.688
43.16000 4.585
43.18000 -0.196
43.20000 2.120
43.22000 7.866
43.24000 3.561
43.26000 1.560
43.28000 -3.423
43.30000 -0.844
43.32000 -1.803
43.34000 2.023
43.36000 4.439
43.38000 2.060
43.40000 2.437
43.42000 0.954
43.44000 -0.774
43.46000 -0.281
43.48000 -1.312
43.50000 1.134
43.52000 0.530
43.54000 1.479
43.56000 5.188
43.58000 2.629
43.60000 3.469
43.62000 6.034
43.64000 2.719
43.66000 -0.994
43.68000 -0.468
43.70000 -0.651
43.72000 2.852
43.74000 4.166
43.76000 0.631
43.78000 -0.044
43.80000 -2.790
43.82000 -1.546
43.84000 -1.908
43.86000 -1.724
43.88000 -3.060
43.90000 -2.677
43.92000 1.919
43.94000 2.730
43.96000 3.763
43.98000 0.076
44.00000 -3.366
44.02000 -1.115
44.04000 -0.393
44.06000 0.156
44.08000 2.487
44.10000 -0.454
44.12000 1.489
44.14000 2.003
44.16000 0.579
44.18000 1.444
44.20000 2.303
44.22000 1.748
44.24000 -0.897
44.26000 2.022
44.28000 1.347
44.30000 -1.079
44.32000 -1.114
44.34000 0.543
44.36000 1.951
44.38000 1.195
44.40000 0.777
44.42000 1.436
44.44000 -0.270
44.46000 -0.390
44.48000 -1.117
44.50000 -1.518
44.52000 -3.335
44.54000 -0.242
44.56000 0.782
44.58000 1.083
44.60000 -0.466
44.62000 -0.079
44.64000 2.319
44.66000 -0.567
44.68000 3.726
44.70000 1.036
44.72000 1.690
44.74000 -2.956
44.76000 -2.480
44.78000 0.487
44.80000 0.027
44.82000 -2.018
44.84000 2.142
44.86000 6.573
44.88000 4.262
44.90000 0.115
44.92000 4.372
44.94000 4.904
44.96000 -1.749
44.98000 -3.333
45.00000 -0.453
45.02000 2.721
45.04000 5.168
45.06000 4.887
45.08000 5.923
45.10000 1.099
45.12000 4.245
45.14000 6.275
45.16000 3.167
45.18000 8.011
45.20000 5.473
45.22000 6.046
45.24000 4.425
45.26000 2.463
45.28000 -0.807
45.30000 1.663
45.32000 4.780
45.34000 5.332
45.36000 4.107
45.38000 4.770
45.40000 7.764
45.42000 8.898
45.44000 4.917
45.46000 4.045
45.48000 4.430
45.50000 3.112
45.52000 6.599
45.54000 11.324
45.56000 13.675
45.58000 12.767
45.60000 11.493
45.62000 13.215
45.64000 10.727
45.66000 12.716
45.68000 15.713
45.70000 17.115
45.72000 12.530
45.74000 15.191
45.76000 18.794
45.78000 21.374
45.80000 18.183
45.82000 16.858
45.84000 23.775
45.86000 25.128
45.88000 23.828
45.90000 23.961
45.92000 21.230
45.94000 22.604
45.96000 25.850
45.98000 32.088
46.00000 28.156
46.02000 30.349
46.04000 36.872
46.06000 36.428
46.08000 34.693
46.10000 32.120
46.12000 32.113
46.14000 38.823
46.16000 39.240
46.18000 37.947
46.20000 36.521
46.22000 41.595
46.24000 49.771
46.26000 52.905
46.28000 52.834
46.30000 51.426
46.32000 53.713
46.34000 53.627
46.36000 61.005
46.38000 60.108
46.40000 60.416
46.42000 63.692
46.44000 65.649
46.46000 73.135
46.48000 77.766
46.50000 71.295
46.52000 73.994
46.54000 78.225
46.56000 83.418
46.58000 81.016
46.60000 86.886
46.62000 91.797
46.64000 90.922
46.66000 91.211
46.68000 99.752
46.70000 108.859
46.72000 107.352
46.74000 107.699
46.76000 110.297
46.78000 111.207
46.80000 109.319
46.82000 112.104
46.84000 120.133
46.86000 124.009
46.88000 122.873
46.90000 120.787
46.92000 127.349
46.94000 123.389
46.96000 127.614
46.98000 130.383
47.00000 135.851
47.02000 132.690
47.04000 125.958
47.06000 125.845
47.08000 129.506
47.10000 128.092
47.12000 121.983
47.14000 132.156
47.16000 128.341
47.18000 129.655
47.20000 122.900
47.22000 110.589
47.24000 109.474
47.26000 111.497
47.28000 114.981
47.30000 110.792
47.32000 111.956
47.34000 105.501
47.36000 103.851
47.38000 102.260
47.40000 94.798
47.42000 91.944
47.44000 90.694
47.46000 85.211
47.48000 81.488
47.50000 77.693
47.52000 77.209
47.54000 74.377
47.56000 72.254
47.58000 67.330
47.60000 64.508
47.62000 64.363
47.64000 59.088
47.66000 60.949
47.68000 56.641
47.70000 48.074
47.72000 47.528
47.74000 48.374
47.76000 42.431
47.78000 35.750
47.80000 36.494
47.82000 38.878
47.84000 37.620
47.86000 37.917
47.88000 30.835
47.90000 31.557
47.92000 30.830
47.94000 32.354
47.96000 24.367
47.98000 23.390
48.00000 23.153
48.02000 25.962
48.04000 26.866
48.06000 19.672
48.08000 9.983
48.10000 8.816
48.12000 16.154
48.14000 14.987
48.16000 12.877
48.18000 13.459
48.20000 14.855
48.22000 9.321
48.24000 8.055
48.26000 6.876
48.28000 7.327
48.30000 5.427
48.32000 2.263
48.34000 8.750
48.36000 12.632
48.38000 11.968
48.40000 8.903
48.42000 8.623
48.44000 8.990
48.46000 6.127
48.48000 3.821
48.50000 1.694
48.52000 0.474
48.54000 1.680
48.56000 0.686
48.58000 -0.088
48.60000 4.580
48.62000 4.438
48.64000 -1.170
48.66000 -1.407
48.68000 2.209
48.70000 2.989
48.72000 2.064
48.74000 -2.183
48.76000 -0.652
48.78000 -2.412
48.80000 -0.743
48.82000 2.565
48.84000 4.438
48.86000 5.824
48.88000 4.020
48.90000 4.572
48.92000 6.567
48.94000 2.147
48.96000 4.034
48.98000 2.264
49.00000 2.252
49.02000 2.942
49.04000 -0.112
49.06000 -2.294
49.08000 -2.097
49.10000 2.213
49.12000 0.919
49.14000 -1.120
49.16000 -1.736
49.18000 3.984
49.20000 2.819
49.22000 2.006
49.24000 1.534
49.26000 3.735
49.28000 6.911
49.30000 2.784
49.32000 1.392
49.34000 5.314
49.36000 -2.828
49.38000 -2.384
49.40000 3.811
49.42000 5.289
49.44000 -0.546
49.46000 2.711
49.48000 1.029
49.50000 1.876
49.52000 1.628
49.54000 3.088
49.56000 4.632
49.58000 1.126
49.60000 -0.698
49.62000 1.156
49.64000 4.609
49.66000 0.219
49.68000 -0.726
49.70000 4.013
49.72000 5.964
49.74000 3.703
49.76000 1.710
49.78000 -0.233
49.80000 4.023
49.82000 7.767
49.84000 1.974
49.86000 -2.765
49.88000 -0.261
49.90000 -1.831
49.92000 0.082
49.94000 5.782
49.96000 5.460
49.98000 6.457
50.00000 4.028
50.02000 1.748
50.04000 0.957
50.06000 3.203
50.08000 4.387
50.10000 1.271
50.12000 1.712
50.14000 5.276
50.16000 2.981
50.18000 5.979
50.20000 5.378
50.22000 2.762
50.24000 2.477
50.26000 3.088
50.28000 3.320
50.30000 1.776
50.32000 3.196
50.34000 5.430
50.36000 7.046
50.38000 8.292
50.40000 5.361
50.42000 3.595
50.44000 2.027
50.46000 3.988
50.48000 1.869
50.50000 0.427
50.52000 -2.688
50.54000 0.278
50.56000 4.981
50.58000 6.243
50.60000 6.758
50.62000 4.494
50.64000 -0.375
50.66000 4.230
50.68000 4.004
50.70000 3.023
50.72000 3.074
50.74000 4.772
50.76000 3.941
50.78000 5.911
50.80000 5.891
50.82000 5.604
50.84000 6.069
50.86000 7.194
50.88000 3.577
50.90000 3.980
50.92000 0.521
50.94000 4.539
50.96000 7.919
50.98000 3.362
51.00000 4.714
51.02000 1.965
51.04000 3.476
51.06000 0.766
51.08000 3.344
51.10000 4.012
51.12000 0.618
51.14000 5.875
51.16000 2.421
51.18000 1.703
51.20000 2.404
51.22000 3.324
51.24000 2.168
51.26000 1.439
51.28000 1.087
51.30000 4.004
51.32000 7.096
51.34000 3.414
51.36000 3.276
51.38000 4.258
51.40000 -0.993
51.42000 0.799
51.44000 6.018
51.46000 4.301
51.48000 4.628
51.50000 4.976
51.52000 11.233
51.54000 9.794
51.56000 7.481
51.58000 4.635
51.60000 8.142
51.62000 5.819
51.64000 7.115
51.66000 7.322
51.68000 3.298
51.70000 1.607
51.72000 -0.310
51.74000 -2.616
51.76000 0.066
51.78000 5.740
51.80000 8.574
51.82000 4.306
51.84000 5.909
51.86000 5.535
51.88000 6.717
51.90000 4.733
51.92000 1.574
51.94000 4.726
51.96000 6.895
51.98000 9.463
52.00000 5.973
52.02000 8.278
52.04000 6.268
52.06000 5.068
52.08000 4.168
52.10000 0.745
52.12000 2.761
52.14000 1.668
52.16000 1.839
52.18000 3.171
52.20000 4.933
52.22000 -0.013
52.24000 4.509
52.26000 2.675
52.28000 1.595
52.30000 0.261
52.32000 2.891
52.34000 2.535
52.36000 5.644
52.38000 5.325
52.40000 3.835
52.42000 4.769
52.44000 5.663
52.46000 2.566
52.48000 4.794
52.50000 2.904
52.52000 2.027
52.54000 4.657
52.56000 4.757
52.58000 7.883
52.60000 5.838
52.62000 3.477
52.64000 2.089
52.66000 -0.683
52.68000 -0.387
52.70000 3.619
52.72000 1.337
52.74000 5.024
52.76000 7.749
52.78000 5.010
52.80000 1.714
52.82000 4.336
52.84000 1.289
52.86000 5.819
52.88000 6.223
52.90000 3.844
52.92000 5.654
52.94000 4.931
52.96000 5.216
52.98000 3.761
53.00000 4.362
53.02000 6.038
53.04000 6.889
53.06000 6.790
53.08000 2.591
53.10000 2.283
53.12000 1.995
53.14000 5.931
53.16000 1.683
53.18000 -2.588
53.20000 1.558
53.22000 0.388
53.24000 1.551
53.26000 5.294
53.28000 5.063
53.30000 6.782
53.32000 4.385
53.34000 2.961
53.36000 6.137
53.38000 5.442
53.40000 4.835
53.42000 -0.075
53.44000 1.811
53.46000 2.960
53.48000 -0.666
53.50000 -0.662
53.52000 0.042
53.54000 2.611
53.56000 0.441
53.58000 -2.054
53.60000 2.657
53.62000 2.166
53.64000 3.173
53.66000 1.406
53.68000 0.835
53.70000 1.781
53.72000 4.079
53.74000 3.006
53.76000 2.752
53.78000 3.853
53.80000 3.600
53.82000 2.374
53.84000 0.131
53.86000 3.492
53.88000 3.394
53.90000 3.390
53.92000 4.206
53.94000 3.450
53.96000 1.572
53.98000 -0.991
54.00000 -1.977
54.02000 1.083
54.04000 0.353
54.06000 3.039
54.08000 3.089
54.10000 2.803
54.12000 4.419
54.14000 -0.946
54.16000 0.678
54.18000 -0.806
54.20000 -2.578
54.22000 0.000
54.24000 2.919
54.26000 3.239
54.28000 0.913
54.30000 1.439
54.32000 -1.176
54.34000 -1.355
54.36000 -0.007
54.38000 -1.923
54.40000 0.476
54.42000 -0.477
54.44000 0.617
54.46000 0.352
54.48000 3.618
54.50000 0.126
54.52000 2.352
54.54000 1.504
54.56000 3.053
54.58000 2.874
54.60000 3.641
54.62000 2.343
54.64000 3.871
54.66000 -1.220
54.68000 2.790
54.70000 -1.197
54.72000 -1.097
54.74000 0.369
54.76000 3.205
54.78000 1.885
54.80000 2.015
54.82000 -2.569
54.84000 1.348
54.86000 1.511
54.88000 2.359
54.90000 4.275
54.92000 4.209
54.94000 3.510
54.96000 -0.134
54.98000 -0.239
55.00000 0.968
55.02000 -1.436
55.04000 -1.032
55.06000 2.993
55.08000 5.429
55.10000 3.700
55.12000 1.921
55.14000 -0.430
55.16000 4.916
55.18000 1.358
55.20000 4.907
55.22000 5.706
55.24000 3.023
55.26000 1.208
55.28000 1.349
55.30000 0.493
55.32000 0.509
55.34000 1.399
55.36000 3.645
55.38000 3.516
55.40000 4.212
55.42000 4.456
55.44000 1.965
55.46000 0.321
55.48000 0.651
55.50000 0.530
55.52000 2.157
55.54000 0.899
55.56000 1.505
55.58000 1.608
55.60000 3.104
55.62000 1.850
55.64000 0.890
55.66000 1.491
55.68000 3.134
55.70000 5.096
55.72000 2.168
55.74000 0.190
55.76000 9.120
55.78000 7.342
55.80000 -0.827
55.82000 -1.681
55.84000 -2.529
55.86000 2.025
55.88000 6.156
55.90000 6.382
55.92000 1.456
55.94000 0.875
55.96000 1.107
55.98000 6.402
56.00000 1.228
56.02000 -0.742
56.04000 1.102
56.06000 3.536
56.08000 5.177
56.10000 5.570
56.12000 2.873
56.14000 4.255
56.16000 6.808
56.18000 4.165
56.20000 4.313
56.22000 0.086
56.24000 4.695
56.26000 6.180
56.28000 2.074
56.30000 2.435
56.32000 -2.508
56.34000 1.354
56.36000 1.980
56.38000 4.226
56.40000 5.598
56.42000 3.273
56.44000 3.865
56.46000 4.668
56.48000 4.549
56.50000 4.199
56.52000 0.219
56.54000 1.510
56.56000 3.591
56.58000 1.408
56.60000 1.194
56.62000 4.285
56.64000 3.196
56.66000 4.593
56.68000 5.167
56.70000 1.176
56.72000 2.298
56.74000 0.684
56.76000 1.053
56.78000 0.730
56.80000 4.136
56.82000 2.664
56.84000 -0.870
56.86000 1.936
56.88000 3.737
56.90000 7.167
56.92000 5.575
56.94000 4.898
56.96000 3.778
56.98000 6.265
57.00000 6.917
57.02000 2.201
57.04000 1.579
57.06000 1.526
57.08000 5.327
57.10000 2.599
57.12000 0.919
57.14000 2.750
57.16000 7.308
57.18000 1.752
57.20000 -0.427
57.22000 0.052
57.24000 4.615
57.26000 2.327
57.28000 2.538
57.30000 2.051
57.32000 5.290
57.34000 3.685
57.36000 0.377
57.38000 -2.483
57.40000 3.289
57.42000 7.028
57.44000 1.932
57.46000 2.760
57.48000 3.595
57.50000 3.883
57.52000 7.104
57.54000 3.930
57.56000 4.329
57.58000 4.852
57.60000 6.898
57.62000 2.618
57.64000 2.590
57.66000 -0.989
57.68000 -0.597
57.70000 0.661
57.72000 -1.075
57.74000 1.399
57.76000 3.458
57.78000 -0.545
57.80000 -0.762
57.82000 0.751
57.84000 7.703
57.86000 4.738
57.88000 0.176
57.90000 -2.467
57.92000 -0.445
57.94000 0.345
57.96000 0.373
57.98000 1.178
58.00000 5.422
58.02000 4.490
58.04000 0.834
58.06000 -2.465
58.08000 4.272
58.10000 6.405
58.12000 3.745
58.14000 2.123
58.16000 -0.280
58.18000 3.156
58.20000 8.728
58.22000 1.905
58.24000 0.104
58.26000 1.778
58.28000 2.814
58.30000 2.049
58.32000 1.895
58.34000 1.699
58.36000 5.395
58.38000 4.112
58.40000 4.422
58.42000 6.826
58.44000 3.654
58.46000 1.495
58.48000 4.775
58.50000 2.010
58.52000 3.750
58.54000 3.245
58.56000 1.862
58.58000 5.057
58.60000 3.635
58.62000 4.097
58.64000 3.025
58.66000 4.122
58.68000 3.518
58.70000 1.429
58.72000 -0.600
58.74000 1.212
58.76000 2.705
58.78000 4.284
58.80000 5.289
58.82000 2.412
58.84000 3.183
58.86000 4.506
58.88000 4.426
58.90000 4.390
58.92000 4.275
58.94000 5.189
58.96000 1.274
58.98000 -1.050
59.00000 0.843
59.02000 3.207
59.04000 6.127
59.06000 4.162
59.08000 2.060
59.10000 1.203
59.12000 2.148
59.14000 -0.078
59.16000 -0.949
59.18000 -0.013
59.20000 3.699
59.22000 6.298
59.24000 5.328
59.26000 4.179
59.28000 2.757
59.30000 4.930
59.32000 2.905
59.34000 -0.265
59.36000 1.131
59.38000 -0.486
59.40000 2.198
59.42000 3.388
59.44000 1.719
59.46000 0.867
59.48000 3.032
59.50000 5.332
59.52000 4.008
59.54000 1.757
59.56000 -0.628
59.58000 -2.400
59.60000 1.454
59.62000 0.487
59.64000 4.167
59.66000 4.021
59.68000 -0.388
59.70000 -0.559
59.72000 -1.470
59.74000 2.044
59.76000 -0.439
59.78000 3.644
59.80000 5.477
59.82000 3.743
59.84000 0.288
59.86000 2.870
59.88000 1.002
59.90000 1.377
59.92000 3.124
59.94000 3.932
59.96000 1.901
59.98000 2.219
60.00000 -1.206
60.02000 -0.953
60.04000 0.288
60.06000 3.737
60.08000 3.748
60.10000 1.437
60.12000 3.975
60.14000 4.486
60.16000 2.952
60.18000 3.102
60.20000 6.981
60.22000 7.654
60.24000 5.443
60.26000 1.402
60.28000 3.703
60.30000 0.338
60.32000 -1.261
60.34000 1.140
60.36000 3.354
60.38000 3.217
60.40000 0.947
60.42000 3.655
60.44000 3.065
60.46000 2.540
60.48000 -2.080
60.50000 -2.384
60.52000 1.444
60.54000 3.366
60.56000 5.371
60.58000 1.628
60.60000 1.044
60.62000 0.847
60.64000 1.625
60.66000 2.144
60.68000 2.268
60.70000 -0.063
60.72000 -0.025
60.74000 -0.253
60.76000 -0.443
60.78000 1.049
60.80000 -0.034
60.82000 1.843
60.84000 1.481
60.86000 3.441
60.88000 1.325
60.90000 2.288
60.92000 5.221
60.94000 3.863
60.96000 0.795
60.98000 1.908
61.00000 4.576
61.02000 0.686
61.04000 5.320
61.06000 3.208
61.08000 5.141
61.10000 5.387
61.12000 0.939
61.14000 4.449
61.16000 4.287
61.18000 7.699
61.20000 5.777
61.22000 2.916
61.24000 0.835
61.26000 2.905
61.28000 0.575
61.30000 -2.372
61.32000 -0.385
61.34000 3.258
61.36000 2.450
61.38000 3.426
61.40000 1.538
61.42000 0.638
61.44000 0.224
61.46000 0.243
61.48000 0.290
61.50000 5.018
61.52000 6.283
61.54000 4.641
61.56000 0.372
61.58000 -0.924
61.60000 -0.348
61.62000 -1.988
61.64000 2.445
61.66000 7.808
61.68000 5.716
61.70000 1.767
61.72000 2.215
61.74000 5.396
61.76000 3.226
61.78000 2.120
61.80000 2.441
61.82000 4.073
61.84000 4.101
61.86000 4.690
61.88000 2.017
61.90000 -0.506
61.92000 1.076
61.94000 0.345
61.96000 -0.171
61.98000 0.047
62.00000 -2.361
62.02000 -0.173
62.04000 7.354
62.06000 4.461
62.08000 0.204
62.10000 2.751
62.12000 1.437
62.14000 2.437
62.16000 5.078
62.18000 0.960
62.20000 2.585
62.22000 3.084
62.24000 1.859
62.26000 1.053
62.28000 -1.367
62.30000 0.725
62.32000 5.004
62.34000 4.105
62.36000 1.165
62.38000 1.182
62.40000 3.706
62.42000 -0.419
62.44000 2.566
62.46000 2.201
62.48000 2.625
62.50000 1.582
62.52000 3.998
62.54000 3.806
62.56000 0.405
62.58000 -1.332
62.60000 -1.742
62.62000 3.481
62.64000 5.642
62.66000 3.279
62.68000 2.429
62.70000 0.345
62.72000 3.928
62.74000 4.253
62.76000 3.915
62.78000 4.535
62.80000 2.525
62.82000 -1.831
62.84000 -2.349
62.86000 0.463
62.88000 1.120
62.90000 5.509
62.92000 5.409
62.94000 3.024
62.96000 5.687
62.98000 5.315
63.00000 5.924
63.02000 1.243
63.04000 0.327
63.06000 -2.342
63.08000 1.137
63.10000 4.262
63.12000 3.477
63.14000 1.768
63.16000 3.193
63.18000 3.277
63.20000 3.386
63.22000 1.059
63.24000 1.007
63.26000 1.331
63.28000 1.465
63.30000 1.431
63.32000 5.422
63.34000 7.835
63.36000 5.189
63.38000 2.817
63.40000 2.754
63.42000 2.377
63.44000 1.595
63.46000 1.535
63.48000 2.222
63.50000 -0.086
63.52000 1.626
63.54000 2.418
63.56000 0.151
63.58000 2.043
63.60000 0.428
63.62000 0.759
63.64000 1.936
63.66000 1.409
63.68000 0.365
63.70000 -1.107
63.72000 -1.123
63.74000 2.402
63.76000 -0.095
63.78000 -1.851
63.80000 -1.471
63.82000 -0.001
63.84000 1.471
63.86000 0.924
63.88000 -1.774
63.90000 2.053
63.92000 3.149
63.94000 -1.412
63.96000 -1.025
63.98000 2.325
64.00000 0.386
64.02000 -2.368
64.04000 -0.457
64.06000 0.270
64.08000 0.361
64.10000 2.220
64.12000 0.627
64.14000 -0.778
64.16000 0.023
64.18000 2.865
64.20000 3.201
64.22000 1.174
64.24000 0.902
64.26000 0.804
64.28000 -0.406
64.30000 2.166
64.32000 0.111
64.34000 1.596
64.36000 1.860
64.38000 1.252
64.40000 1.511
64.42000 0.100
64.44000 -1.994
64.46000 -2.356
64.48000 -0.181
64.50000 2.330
64.52000 1.869
64.54000 5.844
64.56000 3.583
64.58000 2.756
64.60000 0.630
64.62000 0.292
64.64000 1.392
64.66000 -0.415
64.68000 -1.963
64.70000 -0.664
64.72000 2.120
64.74000 1.812
64.76000 2.610
64.78000 1.932
64.80000 5.018
64.82000 2.213
64.84000 0.241
64.86000 -2.362
64.88000 -0.333
64.90000 2.230
64.92000 1.246
64.94000 0.709
64.96000 1.674
64.98000 1.874
65.00000 1.211
65.02000 2.471
65.04000 2.542
65.06000 1.618
65.08000 0.891
65.10000 2.194
65.12000 -1.384
65.14000 1.053
65.16000 0.289
65.18000 1.287
65.20000 1.664
65.22000 3.402
65.24000 2.178
65.26000 -0.411
65.28000 0.215
65.30000 1.469
65.32000 0.410
65.34000 0.703
65.36000 1.378
65.38000 1.022
65.40000 -0.193
65.42000 0.545
65.44000 -0.261
65.46000 -1.166
65.48000 1.571
65.50000 -1.059
65.52000 -1.544
65.54000 -0.693
65.56000 0.422
65.58000 2.905
65.60000 -0.852
65.62000 -2.383
65.64000 2.071
65.66000 2.762
65.68000 1.160
65.70000 -0.566
65.72000 0.000
65.74000 2.778
65.76000 0.039
65.78000 -0.647
65.80000 1.943
65.82000 0.844
65.84000 -0.367
65.86000 -2.372
65.88000 -1.853
65.90000 1.409
65.92000 2.469
65.94000 1.939
65.96000 1.459
65.98000 0.391
66.00000 -0.156
66.02000 -0.504
66.04000 -2.154
66.06000 4.144
66.08000 3.041
66.10000 2.923
66.12000 1.669
66.14000 0.379
66.16000 -0.267
66.18000 2.241
66.20000 4.850
66.22000 1.889
66.24000 2.758
66.26000 2.540
66.28000 0.377
66.30000 -2.367
66.32000 -1.191
66.34000 0.430
66.36000 2.289
66.38000 1.289
66.40000 0.316
66.42000 2.867
66.44000 4.332
66.46000 3.406
66.48000 1.590
66.50000 3.515
66.52000 4.890
66.54000 1.394
66.56000 -1.062
66.58000 -0.406
66.60000 -1.592
66.62000 1.032
66.64000 1.074
66.66000 -0.782
66.68000 -2.404
66.70000 -1.423
66.72000 2.670
66.74000 1.529
66.76000 1.848
66.78000 2.283
66.80000 0.540
66.82000 0.939
66.84000 1.551
66.86000 2.469
66.88000 1.126
66.90000 -1.002
66.92000 1.447
66.94000 -0.658
66.96000 4.110
66.98000 0.950
67.00000 -1.020
67.02000 4.292
67.04000 3.347
67.06000 0.398
67.08000 -2.423
67.10000 -2.170
67.12000 -2.426
67.14000 1.515
67.16000 4.426
67.18000 3.789
67.20000 3.510
67.22000 2.388
67.24000 0.620
67.26000 1.057
67.28000 1.585
67.30000 0.576
67.32000 3.314
67.34000 2.408
67.36000 2.821
67.38000 3.417
67.40000 1.759
67.42000 0.897
67.44000 -0.946
67.46000 5.025
67.48000 6.573
67.50000 1.889
67.52000 0.274
67.54000 -0.076
67.56000 1.375
67.58000 2.783
67.60000 4.822
67.62000 1.934
67.64000 2.280
67.66000 3.966
67.68000 5.576
67.70000 5.294
67.72000 7.321
67.74000 7.043
67.76000 9.525
67.78000 10.165
67.80000 5.494
67.82000 5.742
67.84000 4.957
67.86000 7.564
67.88000 10.063
67.90000 10.021
67.92000 8.955
67.94000 6.702
67.96000 8.495
67.98000 10.318
68.00000 8.199
68.02000 10.045
68.04000 10.664
68.06000 13.585
68.08000 12.907
68.10000 12.945
68.12000 14.088
68.14000 12.190
68.16000 13.801
68.18000 15.392
68.20000 15.146
68.22000 17.127
68.24000 16.445
68.26000 16.036
68.28000 16.339
68.30000 17.412
68.32000 18.257
68.34000 20.536
68.36000 20.186
68.38000 21.617
68.40000 23.808
68.42000 24.455
68.44000 24.063
68.46000 30.264
68.48000 29.428
68.50000 29.775
68.52000 27.145
68.54000 27.514
68.56000 26.145
68.58000 28.900
68.60000 30.366
68.62000 30.064
68.64000 32.279
68.66000 30.172
68.68000 31.944
68.70000 31.625
68.72000 33.498
68.74000 35.398
68.76000 34.543
68.78000 31.522
68.80000 32.970
68.82000 36.131
68.84000 33.575
68.86000 29.186
68.88000 30.151
68.90000 29.966
68.92000 28.233
68.94000 28.639
68.96000 29.635
68.98000 28.360
69.00000 27.007
69.02000 25.915
69.04000 25.641
69.06000 24.545
69.08000 23.169
69.10000 23.828
69.12000 22.787
69.14000 22.779
69.16000 20.590
69.18000 18.147
69.20000 22.368
69.22000 22.304
69.24000 18.037
69.26000 14.439
69.28000 15.260
69.30000 15.434
69.32000 17.550
69.34000 18.086
69.36000 15.568
69.38000 11.277
69.40000 9.616
69.42000 7.289
69.44000 8.010
69.46000 11.281
69.48000 10.063
69.50000 6.422
69.52000 8.779
69.54000 9.819
69.56000 8.177
69.58000 7.128
69.60000 7.265
69.62000 6.596
69.64000 8.092
69.66000 5.210
69.68000 1.730
69.70000 1.884
69.72000 0.642
69.74000 0.187
69.76000 0.473
69.78000 4.807
69.80000 4.202
69.82000 4.094
69.84000 1.928
69.86000 2.746
69.88000 4.886
69.90000 0.913
69.92000 -0.159
69.94000 1.684
69.96000 1.100
69.98000 0.301
70.00000 -0.970
70.02000 0.467
70.04000 2.654
70.06000 2.199
70.08000 3.585
70.10000 1.573
70.12000 -1.584
70.14000 0.444
70.16000 2.032
70.18000 0.213
70.20000 -0.290
70.22000 0.139
70.24000 -1.711
70.26000 1.094
70.28000 1.296
70.30000 1.581
70.32000 1.458
70.34000 -0.086
70.36000 -0.987
70.38000 0.822
70.40000 3.157
70.42000 1.845
70.44000 -0.552
70.46000 -0.188
70.48000 2.227
70.50000 4.906
70.52000 3.114
70.54000 0.448
70.56000 3.559
70.58000 5.482
70.60000 2.276
70.62000 1.364
70.64000 -1.219
70.66000 2.222
70.68000 8.269
70.70000 5.691
70.72000 0.535
70.74000 -2.286
70.76000 0.655
70.78000 5.274
70.80000 4.752
70.82000 4.259
70.84000 4.433
70.86000 2.963
70.88000 0.677
70.90000 0.329
70.92000 0.595
70.94000 0.787
70.96000 -2.267
70.98000 1.780
71.00000 5.187
71.02000 5.596
71.04000 4.508
71.06000 4.166
71.08000 6.086
71.10000 7.943
71.12000 6.346
71.14000 1.954
71.16000 4.275
71.18000 3.140
71.20000 0.679
71.22000 2.969
71.24000 0.984
71.26000 5.387
71.28000 3.992
71.30000 -0.578
71.32000 1.730
71.34000 5.844
71.36000 1.730
71.38000 1.307
71.40000 2.477
71.42000 1.855
71.44000 0.847
71.46000 4.181
71.48000 2.734
71.50000 0.997
71.52000 -0.076
71.54000 1.781
71.56000 2.761
71.58000 1.736
71.60000 -1.717
71.62000 2.844
71.64000 5.837
71.66000 3.604
71.68000 -1.579
71.70000 1.176
71.72000 4.379
71.74000 1.758
71.76000 1.688
71.78000 0.909
71.80000 1.913
71.82000 2.901
71.84000 -1.581
71.86000 1.041
71.88000 2.123
71.90000 -0.245
71.92000 1.030
71.94000 2.479
71.96000 1.636
71.98000 0.216
72.00000 -2.226
72.02000 -0.087
72.04000 -0.542
72.06000 1.447
72.08000 0.981
72.10000 2.287
72.12000 2.420
72.14000 2.162
72.16000 -1.014
72.18000 0.538
72.20000 -2.214
72.22000 3.224
72.24000 3.202
72.26000 3.533
72.28000 -0.384
72.30000 -2.207
72.32000 2.477
72.34000 2.644
72.36000 1.538
72.38000 0.578
72.40000 1.667
72.42000 0.571
72.44000 3.251
72.46000 5.748
72.48000 4.039
72.50000 4.261
72.52000 5.323
72.54000 2.511
72.56000 2.631
72.58000 2.452
72.60000 2.777
72.62000 2.961
72.64000 4.765
72.66000 1.156
72.68000 -2.201
72.70000 1.243
72.72000 3.749
72.74000 3.849
72.76000 4.089
72.78000 3.154
72.80000 3.864
72.82000 2.331
72.84000 -1.129
72.86000 0.835
72.88000 -1.143
72.90000 0.702
72.92000 3.485
72.94000 3.394
72.96000 0.917
72.98000 2.416
73.00000 4.227
73.02000 1.538
73.04000 0.326
73.06000 4.012
73.08000 2.135
73.10000 0.257
73.12000 1.386
73.14000 4.957
73.16000 1.697
73.18000 1.083
73.20000 6.407
73.22000 4.383
73.24000 0.274
73.26000 1.465
73.28000 2.791
73.30000 4.020
73.32000 4.097
73.34000 -0.055
73.36000 4.009
73.38000 4.550
73.40000 5.004
73.42000 4.756
73.44000 2.320
73.46000 3.892
73.48000 5.410
73.50000 3.452
73.52000 0.482
73.54000 2.400
73.56000 0.948
73.58000 3.014
73.60000 3.770
73.62000 -0.260
73.64000 0.069
73.66000 4.062
73.68000 6.040
73.70000 1.281
73.72000 0.292
73.74000 1.380
73.76000 2.776
73.78000 -0.491
73.80000 -1.295
73.82000 5.229
73.84000 5.473
73.86000 2.917
73.88000 -2.166
73.90000 1.407
73.92000 1.611
73.94000 4.458
73.96000 3.051
73.98000 -0.496
74.00000 2.624
74.02000 0.584
74.04000 -0.504
74.06000 0.676
74.08000 0.010
74.10000 1.738
74.12000 -0.466
74.14000 1.176
74.16000 1.317
74.18000 5.245
74.20000 6.565
74.22000 5.591
74.24000 1.720
74.26000 1.759
74.28000 0.405
74.30000 3.241
74.32000 4.327
74.34000 4.373
74.36000 4.302
74.38000 7.170
74.40000 5.213
74.42000 0.770
74.44000 -2.134
74.46000 1.760
74.48000 5.776
74.50000 6.283
74.52000 3.507
74.54000 6.047
74.56000 7.319
74.58000 5.557
74.60000 2.055
74.62000 -1.006
74.64000 4.259
74.66000 5.344
74.68000 4.796
74.70000 5.383
74.72000 1.157
74.74000 0.321
74.76000 0.362
74.78000 1.084
74.80000 2.921
74.82000 2.122
74.84000 5.172
74.86000 3.768
74.88000 3.766
74.90000 2.837
74.92000 5.408
74.94000 4.755
74.96000 2.159
74.98000 2.351
75.00000 3.379
75.02000 5.470
75.04000 3.478
75.06000 0.777
75.08000 1.153
75.10000 -0.385
75.12000 -0.917
75.14000 0.477
75.16000 0.678
75.18000 2.228
75.20000 5.581
75.22000 5.576
75.24000 1.265
75.26000 1.160
75.28000 -0.612
75.30000 2.533
75.32000 -0.355
75.34000 -1.119
75.36000 3.395
75.38000 5.116
75.40000 5.310
75.42000 2.943
75.44000 0.377
75.46000 1.557
75.48000 6.226
75.50000 4.964
75.52000 -0.364
75.54000 0.872
75.56000 3.162
75.58000 6.022
75.60000 1.787
75.62000 5.861
75.64000 4.201
75.66000 0.018
75.68000 -0.756
75.70000 2.857
75.72000 5.035
75.74000 2.815
75.76000 0.117
75.78000 -0.480
75.80000 -2.178
75.82000 -0.549
75.84000 2.026
75.86000 4.226
75.88000 0.030
75.90000 0.556
75.92000 1.062
75.94000 1.274
75.96000 3.358
75.98000 3.044
76.00000 3.583
76.02000 5.150
76.04000 3.119
76.06000 4.619
76.08000 2.855
76.10000 -0.208
76.12000 -0.119
76.14000 0.887
76.16000 2.979
76.18000 4.392
76.20000 3.674
76.22000 8.221
76.24000 0.121
76.26000 2.531
76.28000 -0.110
76.30000 1.751
76.32000 1.675
76.34000 4.135
76.36000 4.267
76.38000 4.486
76.40000 1.769
76.42000 3.241
76.44000 5.120
76.46000 -0.979
76.48000 -2.169
76.50000 0.144
76.52000 1.596
76.54000 2.225
76.56000 1.231
76.58000 -1.090
76.60000 1.793
76.62000 3.773
76.64000 3.417
76.66000 4.080
76.68000 0.973
76.70000 0.345
76.72000 1.937
76.74000 5.364
76.76000 3.196
76.78000 -0.929
76.80000 -0.660
76.82000 -0.127
76.84000 1.645
76.86000 2.476
76.88000 5.405
76.90000 8.391
76.92000 6.555
76.94000 5.398
76.96000 5.533
76.98000 4.876
77.00000 1.408
77.02000 1.312
77.04000 1.234
77.06000 3.092
77.08000 3.500
77.10000 6.136
77.12000 7.028
77.14000 4.098
77.16000 7.102
77.18000 11.379
77.20000 6.449
77.22000 2.322
77.24000 2.240
77.26000 1.825
77.28000 3.069
77.30000 7.311
77.32000 8.763
77.34000 8.098
77.36000 8.721
77.38000 10.469
77.40000 6.036
77.42000 -1.413
77.44000 -1.177
77.46000 1.201
77.48000 3.523
77.50000 3.148
77.52000 2.673
77.54000 5.060
77.56000 7.063
77.58000 1.377
77.60000 -2.191
77.62000 5.759
77.64000 5.301
77.66000 3.733
77.68000 2.830
77.70000 4.009
77.72000 3.900
77.74000 3.083
77.76000 3.340
77.78000 5.820
77.80000 2.572
77.82000 1.992
77.84000 1.222
77.86000 -0.895
77.88000 -0.144
77.90000 6.610
77.92000 4.005
77.94000 0.264
77.96000 1.840
77.98000 1.254
78.00000 3.314
78.02000 -0.916
78.04000 0.265
78.06000 -0.637
78.08000 1.211
78.10000 4.146
78.12000 2.496
78.14000 2.827
78.16000 1.502
78.18000 -2.222
78.20000 1.163
78.22000 1.954
78.24000 2.762
78.26000 5.167
78.28000 2.764
78.30000 2.948
78.32000 3.083
78.34000 2.349
78.36000 -0.751
78.38000 0.972
78.40000 0.365
78.42000 2.253
78.44000 3.563
78.46000 2.938
78.48000 1.427
78.50000 1.345
78.52000 3.862
78.54000 0.026
78.56000 2.221
78.58000 0.545
78.60000 -1.878
78.62000 1.381
78.64000 -1.710
78.66000 1.124
78.68000 5.332
78.70000 3.641
78.72000 3.417
78.74000 5.839
78.76000 1.521
78.78000 -1.386
78.80000 -2.229
78.82000 -0.880
78.84000 -0.179
78.86000 1.049
78.88000 5.022
78.90000 3.413
78.92000 0.490
78.94000 2.636
78.96000 2.581
78.98000 3.407
79.00000 4.007
79.02000 5.320
79.04000 6.051
79.06000 2.667
79.08000 3.123
79.10000 3.706
79.12000 1.313
79.14000 3.852
79.16000 4.523
79.18000 2.490
79.20000 3.075
79.22000 1.621
79.24000 -0.839
79.26000 -1.510
79.28000 -0.299
79.30000 2.412
79.32000 4.201
79.34000 0.446
79.36000 2.916
79.38000 1.928
79.40000 1.153
79.42000 1.266
79.44000 6.905
79.46000 2.005
79.48000 2.182
79.50000 4.688
79.52000 4.595
79.54000 7.127
79.56000 5.460
79.58000 -0.440
79.60000 3.127
79.62000 3.259
79.64000 4.457
79.66000 4.285
79.68000 6.063
79.70000 3.641
79.72000 -2.216
79.74000 -2.125
79.76000 1.748
79.78000 4.393
79.80000 2.542
79.82000 0.941
79.84000 3.283
79.86000 2.279
79.88000 1.550
79.90000 5.221
79.92000 2.202
79.94000 1.051
79.96000 0.818
79.98000 2.028
80.00000 0.517
80.02000 4.276
80.04000 2.561
80.06000 4.116
80.08000 3.235
80.10000 -0.692
80.12000 0.280
80.14000 4.207
80.16000 4.565
80.18000 4.683
80.20000 2.254
80.22000 3.342
80.24000 5.559
80.26000 2.302
80.28000 1.619
80.30000 3.751
80.32000 3.208
80.34000 1.843
80.36000 0.994
80.38000 3.502
80.40000 6.434
80.42000 7.317
80.44000 2.041
80.46000 1.316
80.48000 0.323
80.50000 0.807
80.52000 2.176
80.54000 -0.626
80.56000 1.860
80.58000 3.274
80.60000 5.582
80.62000 2.645
80.64000 -0.262
80.66000 -1.484
80.68000 3.158
80.70000 7.565
80.72000 4.602
80.74000 -2.281
80.76000 0.501
80.78000 3.058
80.80000 4.096
80.82000 6.515
80.84000 8.866
80.86000 4.322
80.88000 1.704
80.90000 4.884
80.92000 5.004
80.94000 5.729
80.96000 7.607
80.98000 5.391
81.00000 3.931
81.02000 3.515
81.04000 6.334
81.06000 1.538
81.08000 0.101
81.10000 -0.868
81.12000 1.779
81.14000 4.970
81.16000 4.032
81.18000 0.014
81.20000 4.425
81.22000 3.477
81.24000 5.500
81.26000 6.905
81.28000 5.026
81.30000 5.851
81.32000 5.832
81.34000 5.471
81.36000 -1.040
81.38000 2.455
81.40000 4.163
81.42000 8.835
81.44000 4.900
81.46000 6.895
81.48000 8.427
81.50000 4.113
81.52000 3.794
81.54000 8.435
81.56000 5.789
81.58000 7.064
81.60000 8.614
81.62000 7.841
81.64000 0.664
81.66000 5.094
81.68000 9.447
81.70000 13.541
81.72000 11.549
81.74000 9.451
81.76000 11.616
81.78000 8.876
81.80000 11.793
81.82000 10.360
81.84000 8.493
81.86000 10.506
81.88000 9.909
81.90000 9.075
81.92000 11.489
81.94000 12.433
81.96000 15.212
81.98000 14.574
82.00000 16.700
82.02000 13.107
82.04000 13.233
82.06000 17.006
82.08000 17.633
82.10000 17.777
82.12000 16.072
82.14000 19.202
82.16000 19.732
82.18000 15.734
82.20000 17.752
82.22000 22.999
82.24000 24.773
82.26000 26.770
82.28000 25.265
82.30000 22.385
82.32000 24.214
82.34000 28.078
82.36000 28.775
82.38000 27.117
82.40000 30.048
82.42000 26.071
82.44000 25.123
82.46000 27.893
82.48000 27.348
82.50000 27.655
82.52000 27.031
82.54000 31.857
82.56000 38.840
82.58000 37.722
82.60000 38.118
82.62000 36.865
82.64000 37.620
82.66000 43.039
82.68000 41.736
82.70000 40.298
82.72000 40.209
82.74000 43.007
82.76000 40.031
82.78000 39.346
82.80000 45.434
82.82000 48.664
82.84000 39.473
82.86000 42.958
82.88000 42.529
82.90000 39.738
82.92000 43.145
82.94000 45.922
82.96000 43.823
82.98000 46.057
83.00000 43.180
83.02000 43.754
83.04000 43.502
83.06000 39.111
83.08000 41.961
83.10000 45.446
83.12000 46.080
83.14000 41.496
83.16000 43.068
83.18000 40.735
83.20000 50.654
83.22000 44.347
83.24000 36.176
83.26000 37.953
83.28000 39.440
83.30000 37.080
83.32000 37.330
83.34000 36.534
83.36000 36.823
83.38000 35.680
83.40000 33.322
83.42000 32.285
83.44000 27.688
83.46000 25.537
83.48000 27.551
83.50000 30.668
83.52000 29.791
83.54000 26.337
83.56000 24.518
83.58000 27.058
83.60000 22.110
83.62000 27.530
83.64000 24.723
83.66000 26.939
83.68000 24.976
83.70000 17.239
83.72000 19.440
83.74000 21.149
83.76000 24.229
83.78000 20.788
83.80000 18.507
83.82000 18.801
83.84000 18.649
83.86000 17.996
83.88000 13.220
83.90000 13.121
83.92000 17.806
83.94000 18.443
83.96000 14.778
83.98000 11.001
84.00000 14.471
84.02000 8.302
84.04000 8.649
84.06000 8.045
84.08000 8.068
84.10000 11.481
84.12000 6.161
84.14000 9.935
84.16000 7.870
84.18000 9.981
84.20000 8.217
84.22000 9.278
84.24000 9.078
84.26000 7.851
84.28000 8.715
84.30000 11.278
84.32000 10.270
84.34000 9.587
84.36000 2.886
84.38000 0.872
84.40000 3.542
84.42000 5.460
84.44000 3.734
84.46000 3.878
84.48000 1.687
84.50000 -2.141
84.52000 -2.307
84.54000 -1.281
84.56000 2.966
84.58000 5.557
84.60000 4.061
84.62000 1.739
84.64000 2.706
84.66000 6.360
84.68000 2.506
84.70000 2.660
84.72000 3.411
84.74000 2.450
84.76000 6.165
84.78000 3.246
84.80000 2.219
84.82000 2.242
84.84000 3.013
84.86000 1.729
84.88000 4.462
84.90000 4.896
84.92000 -2.298
84.94000 -1.790
84.96000 0.989
84.98000 2.380
85.00000 3.451
85.02000 4.028
85.04000 3.237
85.06000 0.636
85.08000 -0.767
85.10000 3.801
85.12000 1.895
85.14000 1.585
85.16000 0.325
85.18000 0.906
85.20000 1.005
85.22000 -0.309
85.24000 0.333
85.26000 -0.497
85.28000 1.403
85.30000 1.581
85.32000 0.666
85.34000 -1.309
85.36000 1.649
85.38000 -0.460
85.40000 -0.707
85.42000 1.643
85.44000 2.562
85.46000 0.017
85.48000 1.775
85.50000 4.578
85.52000 3.794
85.54000 -0.702
85.56000 0.187
85.58000 1.388
85.60000 -0.439
85.62000 -1.775
85.64000 1.307
85.66000 1.509
85.68000 1.643
85.70000 0.806
85.72000 2.904
85.74000 1.951
85.76000 -0.643
85.78000 0.175
85.80000 1.069
85.82000 1.089
85.84000 3.155
85.86000 3.741
85.88000 6.458
85.90000 1.605
85.92000 0.694
85.94000 1.293
85.96000 0.643
85.98000 -2.234
86.00000 -1.327
86.02000 -0.838
86.04000 1.312
86.06000 4.463
86.08000 1.744
86.10000 2.105
86.12000 4.865
86.14000 2.697
86.16000 5.491
86.18000 4.217
86.20000 6.637
86.22000 3.571
86.24000 3.962
86.26000 2.230
86.28000 0.360
86.30000 3.228
86.32000 4.910
86.34000 2.133
86.36000 6.202
86.38000 9.050
86.40000 5.854
86.42000 4.212
86.44000 4.983
86.46000 5.521
86.48000 3.688
86.50000 6.876
86.52000 8.306
86.54000 6.804
86.56000 4.919
86.58000 6.692
86.60000 6.719
86.62000 7.155
86.64000 8.623
86.66000 11.337
86.68000 12.110
86.70000 13.687
86.72000 13.517
86.74000 9.679
86.76000 14.888
86.78000 12.459
86.80000 12.785
86.82000 11.168
86.84000 15.161
86.86000 11.165
86.88000 12.927
86.90000 19.056
86.92000 21.375
86.94000 16.679
86.96000 15.690
86.98000 18.634
87.00000 18.145
87.02000 9.256
87.04000 18.608
87.06000 16.145
87.08000 16.519
87.10000 17.002
87.12000 21.438
87.14000 24.887
87.16000 21.836
87.18000 24.176
87.20000 22.750
87.22000 22.038
87.24000 26.878
87.26000 25.778
87.28000 24.225
87.30000 24.207
87.32000 25.459
87.34000 24.637
87.36000 24.789
87.38000 26.471
87.40000 23.286
87.42000 26.300
87.44000 23.455
87.46000 24.886
87.48000 22.007
87.50000 25.809
87.52000 31.402
87.54000 29.668
87.56000 21.077
87.58000 21.802
87.60000 24.146
87.62000 22.664
87.64000 17.780
87.66000 16.629
87.68000 14.743
87.70000 15.472
87.72000 14.894
87.74000 14.027
87.76000 19.985
87.78000 23.687
87.80000 14.819
87.82000 15.559
87.84000 19.410
87.86000 16.836
87.88000 14.051
87.90000 19.005
87.92000 16.614
87.94000 12.819
87.96000 9.798
87.98000 10.787
88.00000 9.074
88.02000 10.168
88.04000 9.278
88.06000 10.344
88.08000 9.739
88.10000 12.147
88.12000 11.843
88.14000 9.975
88.16000 10.854
88.18000 6.641
88.20000 8.231
88.22000 14.626
88.24000 8.852
88.26000 6.852
88.28000 6.429
88.30000 10.180
88.32000 9.046
88.34000 4.751
88.36000 4.054
88.38000 4.860
88.40000 5.382
88.42000 3.077
88.44000 5.304
88.46000 6.551
88.48000 6.281
88.50000 3.432
88.52000 5.284
88.54000 7.526
88.56000 6.070
88.58000 1.580
88.60000 6.914
88.62000 7.984
88.64000 5.403
88.66000 0.647
88.68000 2.352
88.70000 2.249
88.72000 2.180
88.74000 2.305
88.76000 3.523
88.78000 5.780
88.80000 4.639
88.82000 6.336
88.84000 3.850
88.86000 1.969
88.88000 1.461
88.90000 1.656
88.92000 4.009
88.94000 1.246
88.96000 1.240
88.98000 4.212
89.00000 1.448
89.02000 3.999
89.04000 9.085
89.06000 5.802
89.08000 3.784
89.10000 5.484
89.12000 4.453
89.14000 2.200
89.16000 -2.100
89.18000 3.576
89.20000 6.593
89.22000 2.614
89.24000 4.905
89.26000 7.841
89.28000 4.966
89.30000 3.612
89.32000 2.784
89.34000 2.575
89.36000 4.465
89.38000 1.175
89.40000 0.311
89.42000 1.495
89.44000 7.001
89.46000 7.531
89.48000 3.479
89.50000 4.392
89.52000 2.318
89.54000 3.803
89.56000 2.719
89.58000 1.531
89.60000 1.105
89.62000 3.929
89.64000 2.143
89.66000 -0.113
89.68000 3.292
89.70000 7.473
89.72000 6.059
89.74000 4.203
89.76000 2.472
89.78000 5.206
89.80000 -0.932
89.82000 -0.446
89.84000 1.316
89.86000 2.106
89.88000 3.406
89.90000 4.345
89.92000 2.850
89.94000 1.356
89.96000 1.112
89.98000 0.675
90.00000 3.790
90.02000 5.992
90.04000 3.252
90.06000 1.829
90.08000 1.990
90.10000 -0.135
90.12000 3.498
90.14000 5.966
90.16000 7.569
90.18000 -0.743
90.20000 2.526
90.22000 1.691
90.24000 -0.536
90.26000 0.172
90.28000 0.923
90.30000 2.751
90.32000 2.831
90.34000 4.042
90.36000 1.532
90.38000 -0.045
90.40000 0.338
90.42000 3.363
90.44000 -0.491
90.46000 1.934
90.48000 3.798
90.50000 0.852
90.52000 3.892
90.54000 6.344
90.56000 5.080
90.58000 5.464
90.60000 7.939
90.62000 5.639
90.64000 2.689
90.66000 1.344
90.68000 4.542
90.70000 6.087
90.72000 2.150
90.74000 5.068
90.76000 9.849
90.78000 2.845
90.80000 2.231
90.82000 2.559
90.84000 4.205
90.86000 6.068
90.88000 4.953
90.90000 3.841
90.92000 -0.415
90.94000 -2.010
90.96000 1.603
90.98000 2.986
91.00000 2.873
91.02000 2.023
91.04000 2.974
91.06000 6.990
91.08000 5.363
91.10000 3.409
91.12000 3.053
91.14000 0.478
91.16000 2.460
91.18000 3.092
91.20000 4.107
91.22000 6.312
91.24000 5.963
91.26000 5.636
91.28000 -0.055
91.30000 1.948
91.32000 4.027
91.34000 4.811
91.36000 3.779
91.38000 2.021
91.40000 -0.219
91.42000 -2.035
91.44000 -0.829
91.46000 1.485
91.48000 1.204
91.50000 2.807
91.52000 3.591
91.54000 3.738
91.56000 3.176
91.58000 1.074
91.60000 4.723
91.62000 2.096
91.64000 1.432
91.66000 5.407
91.68000 3.917
91.70000 5.371
91.72000 5.441
91.74000 4.554
91.76000 2.782
91.78000 1.659
91.80000 1.781
91.82000 0.780
91.84000 4.222
91.86000 9.178
91.88000 2.767
91.90000 1.885
91.92000 2.350
91.94000 4.929
91.96000 5.791
91.98000 0.978
92.00000 1.554
92.02000 2.913
92.04000 4.690
92.06000 8.983
92.08000 6.653
92.10000 0.495
92.12000 -1.494
92.14000 0.071
92.16000 3.732
92.18000 3.444
92.20000 2.068
92.22000 5.763
92.24000 3.527
92.26000 4.018
92.28000 3.672
92.30000 1.366
92.32000 2.256
92.34000 4.419
92.36000 6.132
92.38000 2.378
92.40000 5.739
92.42000 3.827
92.44000 4.745
92.46000 6.276
92.48000 5.159
92.50000 7.021
92.52000 2.599
92.54000 3.884
92.56000 1.692
92.58000 2.331
92.60000 0.199
92.62000 0.321
92.64000 1.110
92.66000 3.470
92.68000 4.019
92.70000 7.666
92.72000 10.346
92.74000 2.835
92.76000 -0.735
92.78000 3.836
92.80000 3.825
92.82000 8.140
92.84000 8.226
92.86000 3.301
92.88000 3.137
92.90000 1.739
92.92000 0.392
92.94000 1.723
92.96000 2.110
92.98000 2.051
93.00000 -2.042
93.02000 1.592
93.04000 4.116
93.06000 10.319
93.08000 2.886
93.10000 3.207
93.12000 6.438
93.14000 7.047
93.16000 4.104
93.18000 5.392
93.20000 4.459
93.22000 7.878
93.24000 7.546
93.26000 6.374
93.28000 5.321
93.30000 6.861
93.32000 6.066
93.34000 6.030
93.36000 4.113
93.38000 4.860
93.40000 3.156
93.42000 0.745
93.44000 0.743
93.46000 -0.384
93.48000 0.792
93.50000 3.746
93.52000 5.519
93.54000 6.070
93.56000 8.526
93.58000 6.106
93.60000 5.414
93.62000 4.159
93.64000 5.984
93.66000 5.232
93.68000 3.974
93.70000 5.096
93.72000 4.894
93.74000 5.239
93.76000 2.024
93.78000 3.005
93.80000 5.332
93.82000 0.741
93.84000 -1.715
93.86000 1.969
93.88000 4.748
93.90000 5.347
93.92000 -1.131
93.94000 -1.754
93.96000 6.178
93.98000 5.769
94.00000 6.784
94.02000 6.738
94.04000 4.277
94.06000 7.130
94.08000 4.464
94.10000 3.819
94.12000 5.742
94.14000 1.277
94.16000 3.788
94.18000 4.431
94.20000 1.716
94.22000 2.119
94.24000 7.003
94.26000 7.135
94.28000 7.593
94.30000 5.346
94.32000 7.028
94.34000 3.589
94.36000 3.388
94.38000 3.376
94.40000 6.302
94.42000 6.397
94.44000 5.251
94.46000 5.439
94.48000 9.966
94.50000 9.100
94.52000 10.276
94.54000 5.399
94.56000 -2.024
94.58000 0.331
94.60000 2.626
94.62000 8.499
94.64000 9.732
94.66000 6.526
94.68000 6.008
94.70000 4.304
94.72000 4.542
94.74000 6.406
94.76000 1.975
94.78000 6.778
94.80000 8.627
94.82000 7.193
94.84000 6.372
94.86000 7.489
94.88000 1.822
94.90000 3.528
94.92000 2.494
94.94000 2.888
94.96000 1.168
94.98000 3.889
95.00000 4.335
95.02000 4.070
95.04000 5.734
95.06000 3.204
95.08000 4.393
95.10000 4.428
95.12000 0.972
95.14000 1.116
95.16000 -2.065
95.18000 0.050
95.20000 6.777
95.22000 1.785
95.24000 6.442
95.26000 5.141
95.28000 4.801
95.30000 4.359
95.32000 4.017
95.34000 4.132
95.36000 4.137
95.38000 7.200
95.40000 6.718
95.42000 3.690
95.44000 4.495
95.46000 8.945
95.48000 8.078
95.50000 2.579
95.52000 5.124
95.54000 4.964
95.56000 6.989
95.58000 4.559
95.60000 0.024
95.62000 1.587
95.64000 5.679
95.66000 1.978
95.68000 -0.141
95.70000 3.462
95.72000 -0.158
95.74000 0.601
95.76000 2.993
95.78000 6.823
95.80000 7.130
95.82000 5.824
95.84000 5.139
95.86000 2.088
95.88000 3.715
95.90000 6.351
95.92000 5.476
95.94000 0.403
95.96000 -1.688
95.98000 0.805
96.00000 3.168
96.02000 8.849
96.04000 3.090
96.06000 0.069
96.08000 -1.776
96.10000 0.902
96.12000 -0.184
96.14000 -0.264
96.16000 6.405
96.18000 6.661
96.20000 5.543
96.22000 5.616
96.24000 2.698
96.26000 0.166
96.28000 -0.931
96.30000 4.695
96.32000 4.374
96.34000 2.568
96.36000 6.900
96.38000 3.640
96.40000 3.765
96.42000 8.312
96.44000 4.809
96.46000 -0.854
96.48000 1.500
96.50000 0.259
96.52000 3.938
96.54000 6.468
96.56000 2.830
96.58000 6.019
96.60000 12.008
96.62000 7.965
96.64000 -1.239
96.66000 -1.903
96.68000 -0.373
96.70000 1.891
96.72000 2.848
96.74000 4.896
96.76000 8.915
96.78000 3.109
96.80000 5.820
96.82000 -2.093
96.84000 -0.651
96.86000 -0.187
96.88000 -1.236
96.90000 3.352
96.92000 5.385
96.94000 5.875
96.96000 4.535
96.98000 -0.386
97.00000 2.216
97.02000 0.865
97.04000 7.904
97.06000 3.051
97.08000 2.879
97.10000 -0.708
97.12000 -0.574
97.14000 6.809
97.16000 6.693
97.18000 4.469
97.20000 2.798
97.22000 6.835
97.24000 7.729
97.26000 6.411
97.28000 5.644
97.30000 5.926
97.32000 0.602
97.34000 2.331
97.36000 2.770
97.38000 7.524
97.40000 7.531
97.42000 3.731
97.44000 0.391
97.46000 5.230
97.48000 -1.770
97.50000 1.729
97.52000 8.935
97.54000 10.188
97.56000 8.027
97.58000 5.844
97.60000 8.798
97.62000 2.200
97.64000 0.719
97.66000 0.731
97.68000 10.583
97.70000 7.836
97.72000 11.526
97.74000 4.743
97.76000 5.627
97.78000 6.541
97.80000 2.859
97.82000 3.488
97.84000 3.444
97.86000 3.273
97.88000 6.489
97.90000 7.116
97.92000 1.572
97.94000 2.291
97.96000 -2.010
97.98000 1.394
98.00000 2.762
98.02000 3.796
98.04000 4.471
98.06000 9.960
98.08000 2.907
98.10000 4.026
98.12000 10.102
98.14000 12.469
98.16000 7.522
98.18000 1.516
98.20000 6.006
98.22000 8.443
98.24000 7.085
98.26000 2.860
98.28000 4.842
98.30000 6.175
98.32000 4.103
98.34000 4.827
98.36000 8.139
98.38000 6.649
98.40000 2.736
98.42000 4.464
98.44000 5.940
98.46000 3.069
98.48000 6.301
98.50000 6.921
98.52000 0.240
98.54000 3.336
98.56000 11.120
98.58000 8.055
98.60000 1.772
98.62000 3.142
98.64000 8.379
98.66000 3.332
98.68000 1.502
98.70000 -0.988
98.72000 1.322
98.74000 2.581
98.76000 5.742
98.78000 9.673
98.80000 11.811
98.82000 11.349
98.84000 4.651
98.86000 4.265
98.88000 2.581
98.90000 2.645
98.92000 2.003
98.94000 0.345
98.96000 -0.124
98.98000 3.699
99.00000 1.023
99.02000 6.122
99.04000 1.241
99.06000 6.161
99.08000 10.854
99.10000 5.541
99.12000 -1.467
99.14000 10.991
99.16000 5.602
99.18000 9.406
99.20000 9.701
99.22000 -2.839
99.24000 0.769
99.26000 -1.826
99.28000 4.123
99.30000 7.253
99.32000 1.267
99.34000 -2.003
99.36000 6.760
99.38000 2.522
99.40000 8.858
99.42000 0.639
99.44000 4.687
99.46000 3.084
99.48000 0.827
99.50000 8.382
99.52000 4.732
99.54000 5.582
99.56000 4.897
99.58000 5.358
99.60000 -0.746
99.62000 5.002
99.64000 8.666
99.66000 4.990
99.68000 6.845
99.70000 2.317
99.72000 4.210
99.74000 8.513
99.76000 8.508
99.78000 0.213
99.80000 -2.053
99.82000 0.647
99.84000 1.919
99.86000 8.462
99.88000 4.274
99.90000 6.141
99.92000 -2.161
99.94000 0.261
99.96000 -2.297
99.98000 0.000
