'Id: "0011387" Comment: "Integrate frame 0011387_Au-Ir-Rh_Rh-rich_XRD-Mapping-172-0000.gfrmwith cursor Wedge Cursor #5" Operator: "B?rgel" Anode: "Cu" Wavelength: "1.5406" Scantype: "2Theta (TwoTheta)" TimePerStep: "1" X: "22.5" Y: "0" Z: "5.95" 
10.00000 0.000
10.02000 2.336
10.04000 1.415
10.06000 10.966
10.08000 9.647
10.10000 9.350
10.12000 15.444
10.14000 4.889
10.16000 2.442
10.18000 3.220
10.20000 -0.874
10.22000 -0.086
10.24000 0.768
10.26000 4.621
10.28000 11.998
10.30000 16.096
10.32000 4.050
10.34000 -1.910
10.36000 4.882
10.38000 1.171
10.40000 0.216
10.42000 12.493
10.44000 17.365
10.46000 19.485
10.48000 10.958
10.50000 -3.769
10.52000 -0.454
10.54000 13.662
10.56000 9.041
10.58000 21.900
10.60000 25.947
10.62000 20.304
10.64000 14.852
10.66000 23.070
10.68000 15.142
10.70000 1.392
10.72000 0.471
10.74000 11.343
10.76000 13.641
10.78000 16.392
10.80000 29.535
10.82000 21.855
10.84000 4.636
10.86000 3.400
10.88000 11.219
10.90000 16.314
10.92000 18.516
10.94000 18.757
10.96000 12.885
10.98000 11.019
11.00000 24.136
11.02000 29.256
11.04000 20.334
11.06000 17.428
11.08000 19.904
11.10000 25.281
11.12000 24.520
11.14000 11.703
11.16000 18.026
11.18000 9.389
11.20000 8.698
11.22000 22.496
11.24000 18.170
11.26000 6.068
11.28000 21.786
11.30000 17.971
11.32000 20.584
11.34000 13.854
11.36000 14.095
11.38000 17.797
11.40000 21.332
11.42000 18.782
11.44000 15.000
11.46000 25.071
11.48000 23.509
11.50000 16.636
11.52000 15.324
11.54000 15.422
11.56000 22.753
11.58000 13.542
11.60000 9.352
11.62000 7.139
11.64000 24.197
11.66000 17.280
11.68000 6.356
11.70000 16.447
11.72000 25.836
11.74000 33.203
11.76000 35.618
11.78000 22.106
11.80000 22.997
11.82000 15.344
11.84000 11.085
11.86000 10.564
11.88000 12.102
11.90000 8.670
11.92000 19.986
11.94000 34.108
11.96000 27.170
11.98000 23.455
12.00000 18.973
12.02000 20.519
12.04000 16.108
12.06000 22.058
12.08000 12.496
12.10000 17.259
12.12000 17.492
12.14000 23.209
12.16000 25.482
12.18000 26.649
12.20000 24.119
12.22000 23.603
12.24000 19.111
12.26000 20.972
12.28000 25.311
12.30000 25.477
12.32000 19.845
12.34000 15.600
12.36000 9.669
12.38000 21.250
12.40000 25.668
12.42000 31.472
12.44000 33.097
12.46000 18.191
12.48000 22.353
12.50000 22.802
12.52000 20.631
12.54000 26.540
12.56000 28.307
12.58000 34.510
12.60000 20.945
12.62000 25.824
12.64000 31.670
12.66000 27.874
12.68000 31.915
12.70000 24.420
12.72000 27.881
12.74000 30.731
12.76000 20.703
12.78000 25.483
12.80000 26.971
12.82000 26.773
12.84000 30.128
12.86000 28.469
12.88000 23.698
12.90000 28.538
12.92000 26.389
12.94000 19.877
12.96000 24.744
12.98000 26.498
13.00000 36.756
13.02000 29.167
13.04000 29.668
13.06000 25.792
13.08000 17.900
13.10000 20.519
13.12000 15.164
13.14000 22.707
13.16000 21.872
13.18000 28.851
13.20000 16.128
13.22000 12.488
13.24000 31.585
13.26000 35.054
13.28000 28.553
13.30000 21.635
13.32000 17.792
13.34000 21.894
13.36000 16.994
13.38000 13.570
13.40000 12.475
13.42000 15.393
13.44000 18.055
13.46000 21.868
13.48000 21.745
13.50000 24.170
13.52000 26.822
13.54000 27.781
13.56000 25.381
13.58000 24.126
13.60000 17.773
13.62000 19.564
13.64000 19.580
13.66000 24.187
13.68000 19.149
13.70000 20.933
13.72000 22.063
13.74000 21.239
13.76000 13.702
13.78000 20.871
13.80000 17.736
13.82000 22.906
13.84000 21.728
13.86000 17.839
13.88000 20.480
13.90000 24.383
13.92000 26.609
13.94000 18.997
13.96000 23.935
13.98000 20.310
14.00000 24.830
14.02000 18.709
14.04000 21.251
14.06000 18.542
14.08000 25.887
14.10000 22.833
14.12000 27.819
14.14000 20.892
14.16000 12.563
14.18000 22.129
14.20000 23.447
14.22000 20.145
14.24000 21.101
14.26000 15.886
14.28000 18.144
14.30000 19.672
14.32000 24.303
14.34000 18.952
14.36000 16.228
14.38000 18.516
14.40000 21.771
14.42000 15.771
14.44000 19.009
14.46000 14.884
14.48000 4.991
14.50000 10.645
14.52000 20.511
14.54000 10.757
14.56000 18.556
14.58000 17.765
14.60000 13.326
14.62000 17.588
14.64000 18.899
14.66000 14.005
14.68000 15.622
14.70000 12.743
14.72000 15.304
14.74000 14.947
14.76000 11.548
14.78000 8.048
14.80000 19.636
14.82000 27.032
14.84000 15.872
14.86000 10.767
14.88000 9.621
14.90000 15.631
14.92000 17.127
14.94000 10.117
14.96000 9.714
14.98000 25.214
15.00000 21.529
15.02000 12.186
15.04000 11.576
15.06000 2.895
15.08000 7.222
15.10000 9.025
15.12000 7.587
15.14000 11.043
15.16000 15.562
15.18000 18.297
15.20000 15.120
15.22000 6.276
15.24000 7.628
15.26000 19.404
15.28000 8.560
15.30000 3.877
15.32000 9.459
15.34000 10.918
15.36000 14.493
15.38000 16.260
15.40000 17.875
15.42000 12.037
15.44000 19.950
15.46000 11.193
15.48000 5.962
15.50000 2.102
15.52000 -2.187
15.54000 8.603
15.56000 4.699
15.58000 5.107
15.60000 7.555
15.62000 1.936
15.64000 7.338
15.66000 9.253
15.68000 9.632
15.70000 1.667
15.72000 4.483
15.74000 4.142
15.76000 5.276
15.78000 7.056
15.80000 7.365
15.82000 9.282
15.84000 8.552
15.86000 4.003
15.88000 6.143
15.90000 11.442
15.92000 13.079
15.94000 13.769
15.96000 2.370
15.98000 2.081
16.00000 2.748
16.02000 6.421
16.04000 4.886
16.06000 1.836
16.08000 7.685
16.10000 14.617
16.12000 14.955
16.14000 7.061
16.16000 4.829
16.18000 2.932
16.20000 6.552
16.22000 9.048
16.24000 0.884
16.26000 4.213
16.28000 4.444
16.30000 3.089
16.32000 10.288
16.34000 3.121
16.36000 2.512
16.38000 8.088
16.40000 5.064
16.42000 5.892
16.44000 0.769
16.46000 9.881
16.48000 5.082
16.50000 5.368
16.52000 1.933
16.54000 1.817
16.56000 7.321
16.58000 18.232
16.60000 5.811
16.62000 -4.307
16.64000 -1.807
16.66000 1.007
16.68000 6.797
16.70000 10.587
16.72000 12.317
16.74000 10.393
16.76000 6.336
16.78000 10.102
16.80000 0.421
16.82000 6.926
16.84000 12.575
16.86000 15.590
16.88000 12.430
16.90000 7.483
16.92000 -3.432
16.94000 -4.390
16.96000 3.490
16.98000 7.934
17.00000 2.841
17.02000 4.109
17.04000 -0.259
17.06000 2.597
17.08000 6.530
17.10000 7.328
17.12000 9.732
17.14000 6.525
17.16000 6.339
17.18000 -0.924
17.20000 3.053
17.22000 1.772
17.24000 3.324
17.26000 12.441
17.28000 10.594
17.30000 11.077
17.32000 8.533
17.34000 5.215
17.36000 -0.648
17.38000 1.531
17.40000 1.837
17.42000 4.687
17.44000 8.576
17.46000 7.429
17.48000 -0.162
17.50000 7.771
17.52000 6.292
17.54000 2.071
17.56000 3.236
17.58000 9.227
17.60000 6.932
17.62000 12.178
17.64000 1.673
17.66000 8.933
17.68000 12.146
17.70000 5.917
17.72000 5.474
17.74000 6.589
17.76000 6.972
17.78000 1.604
17.80000 3.468
17.82000 3.142
17.84000 5.386
17.86000 6.215
17.88000 7.948
17.90000 7.120
17.92000 6.235
17.94000 9.851
17.96000 5.219
17.98000 8.556
18.00000 7.985
18.02000 4.373
18.04000 5.248
18.06000 2.106
18.08000 4.445
18.10000 0.206
18.12000 -1.368
18.14000 -4.320
18.16000 2.033
18.18000 4.747
18.20000 3.686
18.22000 3.805
18.24000 4.625
18.26000 1.439
18.28000 -3.059
18.30000 9.064
18.32000 17.336
18.34000 12.878
18.36000 6.656
18.38000 12.428
18.40000 4.926
18.42000 -1.621
18.44000 -1.082
18.46000 8.110
18.48000 9.263
18.50000 15.293
18.52000 18.657
18.54000 8.829
18.56000 9.298
18.58000 11.407
18.60000 3.276
18.62000 1.731
18.64000 8.531
18.66000 12.189
18.68000 8.368
18.70000 12.860
18.72000 13.635
18.74000 7.407
18.76000 6.559
18.78000 3.235
18.80000 1.183
18.82000 9.632
18.84000 15.359
18.86000 8.830
18.88000 10.919
18.90000 13.008
18.92000 9.619
18.94000 9.093
18.96000 9.522
18.98000 4.781
19.00000 11.716
19.02000 3.545
19.04000 -1.743
19.06000 -4.240
19.08000 0.862
19.10000 1.040
19.12000 5.938
19.14000 12.671
19.16000 13.492
19.18000 14.623
19.20000 13.818
19.22000 7.091
19.24000 9.670
19.26000 11.229
19.28000 11.113
19.30000 11.019
19.32000 10.224
19.34000 3.757
19.36000 4.122
19.38000 7.932
19.40000 14.311
19.42000 6.477
19.44000 1.054
19.46000 5.446
19.48000 9.135
19.50000 6.367
19.52000 4.103
19.54000 5.151
19.56000 -1.699
19.58000 3.421
19.60000 12.430
19.62000 4.009
19.64000 5.328
19.66000 7.315
19.68000 8.429
19.70000 6.203
19.72000 9.241
19.74000 9.473
19.76000 4.316
19.78000 1.660
19.80000 4.234
19.82000 6.266
19.84000 7.348
19.86000 3.969
19.88000 5.979
19.90000 3.838
19.92000 7.136
19.94000 12.542
19.96000 6.790
19.98000 5.789
20.00000 10.472
20.02000 7.250
20.04000 2.433
20.06000 6.572
20.08000 9.186
20.10000 8.049
20.12000 10.632
20.14000 7.837
20.16000 4.137
20.18000 7.506
20.20000 10.287
20.22000 7.449
20.24000 13.282
20.26000 10.269
20.28000 10.828
20.30000 7.004
20.32000 8.978
20.34000 11.477
20.36000 6.641
20.38000 -4.164
20.40000 6.903
20.42000 10.206
20.44000 7.311
20.46000 7.813
20.48000 9.406
20.50000 3.588
20.52000 1.027
20.54000 6.303
20.56000 10.969
20.58000 11.786
20.60000 9.300
20.62000 6.941
20.64000 6.173
20.66000 4.532
20.68000 5.510
20.70000 7.401
20.72000 6.775
20.74000 9.453
20.76000 10.486
20.78000 12.953
20.80000 16.028
20.82000 11.159
20.84000 4.500
20.86000 10.770
20.88000 8.832
20.90000 6.678
20.92000 0.115
20.94000 0.270
20.96000 8.178
20.98000 2.323
21.00000 5.355
21.02000 4.362
21.04000 7.541
21.06000 5.827
21.08000 10.448
21.10000 6.197
21.12000 1.633
21.14000 5.326
21.16000 6.046
21.18000 8.133
21.20000 6.675
21.22000 2.389
21.24000 8.424
21.26000 2.138
21.28000 2.364
21.30000 -0.333
21.32000 0.859
21.34000 4.195
21.36000 4.049
21.38000 4.471
21.40000 0.358
21.42000 8.322
21.44000 5.421
21.46000 1.864
21.48000 6.870
21.50000 5.245
21.52000 3.217
21.54000 2.760
21.56000 2.396
21.58000 3.577
21.60000 -1.237
21.62000 -2.490
21.64000 -1.302
21.66000 2.410
21.68000 -1.119
21.70000 0.380
21.72000 1.228
21.74000 -0.280
21.76000 -0.904
21.78000 4.281
21.80000 7.600
21.82000 11.173
21.84000 3.565
21.86000 1.572
21.88000 3.593
21.90000 3.547
21.92000 0.869
21.94000 3.578
21.96000 2.958
21.98000 6.240
22.00000 10.021
22.02000 6.026
22.04000 4.900
22.06000 7.279
22.08000 8.470
22.10000 4.371
22.12000 5.661
22.14000 -0.742
22.16000 4.045
22.18000 6.002
22.20000 1.302
22.22000 3.802
22.24000 8.472
22.26000 10.633
22.28000 7.659
22.30000 8.897
22.32000 5.618
22.34000 1.517
22.36000 2.111
22.38000 3.226
22.40000 2.675
22.42000 1.988
22.44000 -1.428
22.46000 -3.353
22.48000 -2.956
22.50000 3.216
22.52000 0.836
22.54000 8.165
22.56000 10.661
22.58000 9.143
22.60000 5.360
22.62000 6.418
22.64000 4.022
22.66000 5.464
22.68000 2.630
22.70000 6.846
22.72000 6.467
22.74000 -0.892
22.76000 -0.539
22.78000 1.490
22.80000 3.565
22.82000 6.283
22.84000 15.042
22.86000 10.141
22.88000 11.560
22.90000 12.721
22.92000 11.571
22.94000 4.938
22.96000 -4.050
22.98000 1.123
23.00000 6.868
23.02000 3.333
23.04000 7.485
23.06000 4.607
23.08000 4.437
23.10000 6.999
23.12000 7.521
23.14000 3.272
23.16000 -1.624
23.18000 -2.994
23.20000 5.109
23.22000 4.608
23.24000 1.899
23.26000 2.198
23.28000 7.511
23.30000 5.085
23.32000 4.932
23.34000 2.397
23.36000 2.374
23.38000 0.789
23.40000 2.817
23.42000 -1.899
23.44000 -3.442
23.46000 0.356
23.48000 0.311
23.50000 -0.510
23.52000 -1.185
23.54000 2.984
23.56000 1.027
23.58000 2.261
23.60000 2.134
23.62000 6.230
23.64000 3.380
23.66000 5.254
23.68000 6.057
23.70000 7.494
23.72000 5.872
23.74000 2.796
23.76000 1.697
23.78000 4.816
23.80000 6.315
23.82000 9.050
23.84000 3.555
23.86000 6.712
23.88000 1.437
23.90000 0.509
23.92000 4.555
23.94000 10.778
23.96000 3.515
23.98000 -0.037
24.00000 -0.841
24.02000 -1.362
24.04000 5.199
24.06000 10.467
24.08000 7.755
24.10000 7.430
24.12000 7.114
24.14000 3.770
24.16000 2.986
24.18000 6.490
24.20000 5.365
24.22000 6.925
24.24000 10.931
24.26000 10.258
24.28000 4.404
24.30000 8.886
24.32000 11.251
24.34000 7.638
24.36000 6.157
24.38000 11.271
24.40000 8.565
24.42000 11.356
24.44000 7.134
24.46000 3.716
24.48000 6.310
24.50000 7.761
24.52000 9.171
24.54000 8.998
24.56000 8.849
24.58000 8.004
24.60000 6.265
24.62000 4.889
24.64000 4.413
24.66000 -1.396
24.68000 -3.934
24.70000 0.740
24.72000 6.752
24.74000 9.850
24.76000 12.701
24.78000 7.111
24.80000 6.897
24.82000 4.055
24.84000 3.312
24.86000 0.572
24.88000 -3.933
24.90000 1.138
24.92000 -1.227
24.94000 1.946
24.96000 3.347
24.98000 5.897
25.00000 2.874
25.02000 1.434
25.04000 1.103
25.06000 6.633
25.08000 1.936
25.10000 3.330
25.12000 2.064
25.14000 2.959
25.16000 1.263
25.18000 -0.246
25.20000 0.634
25.22000 6.627
25.24000 12.175
25.26000 6.179
25.28000 -0.617
25.30000 3.138
25.32000 6.274
25.34000 3.699
25.36000 -1.435
25.38000 0.577
25.40000 -3.705
25.42000 -3.925
25.44000 0.642
25.46000 1.039
25.48000 1.702
25.50000 1.698
25.52000 2.142
25.54000 4.182
25.56000 5.365
25.58000 2.646
25.60000 6.873
25.62000 1.805
25.64000 0.357
25.66000 0.291
25.68000 6.686
25.70000 2.617
25.72000 -3.265
25.74000 0.130
25.76000 2.587
25.78000 0.524
25.80000 6.859
25.82000 6.233
25.84000 2.472
25.86000 2.146
25.88000 1.361
25.90000 -3.829
25.92000 -1.845
25.94000 3.557
25.96000 7.334
25.98000 3.662
26.00000 7.846
26.02000 9.434
26.04000 6.597
26.06000 6.758
26.08000 2.770
26.10000 2.681
26.12000 5.489
26.14000 3.367
26.16000 4.385
26.18000 2.281
26.20000 1.042
26.22000 0.886
26.24000 3.130
26.26000 3.784
26.28000 -0.414
26.30000 -1.110
26.32000 -0.501
26.34000 2.211
26.36000 -1.826
26.38000 2.419
26.40000 7.759
26.42000 5.693
26.44000 2.945
26.46000 0.517
26.48000 -0.344
26.50000 3.890
26.52000 2.572
26.54000 2.126
26.56000 2.144
26.58000 1.078
26.60000 -0.338
26.62000 0.313
26.64000 -1.212
26.66000 -2.895
26.68000 -1.251
26.70000 4.795
26.72000 4.456
26.74000 4.992
26.76000 -0.041
26.78000 -1.756
26.80000 -2.036
26.82000 -2.820
26.84000 -2.742
26.86000 1.931
26.88000 0.574
26.90000 -2.531
26.92000 -2.584
26.94000 -1.261
26.96000 2.402
26.98000 3.156
27.00000 6.853
27.02000 10.470
27.04000 4.112
27.06000 7.781
27.08000 4.812
27.10000 2.370
27.12000 2.551
27.14000 4.752
27.16000 8.195
27.18000 7.884
27.20000 2.850
27.22000 2.490
27.24000 2.421
27.26000 5.531
27.28000 7.706
27.30000 7.010
27.32000 1.085
27.34000 0.207
27.36000 -3.819
27.38000 -0.926
27.40000 5.186
27.42000 4.311
27.44000 5.409
27.46000 4.966
27.48000 2.732
27.50000 5.081
27.52000 2.390
27.54000 1.644
27.56000 1.905
27.58000 4.221
27.60000 5.809
27.62000 1.878
27.64000 3.628
27.66000 1.649
27.68000 3.370
27.70000 7.142
27.72000 2.769
27.74000 2.546
27.76000 3.302
27.78000 1.061
27.80000 6.358
27.82000 4.534
27.84000 4.742
27.86000 3.570
27.88000 6.796
27.90000 1.031
27.92000 0.640
27.94000 6.629
27.96000 -1.066
27.98000 -3.781
28.00000 -1.296
28.02000 2.774
28.04000 8.400
28.06000 10.418
28.08000 5.083
28.10000 5.801
28.12000 3.202
28.14000 4.338
28.16000 6.057
28.18000 3.335
28.20000 4.120
28.22000 3.749
28.24000 3.532
28.26000 2.173
28.28000 3.736
28.30000 5.028
28.32000 2.785
28.34000 -3.760
28.36000 2.402
28.38000 3.617
28.40000 1.282
28.42000 0.518
28.44000 4.626
28.46000 4.587
28.48000 2.805
28.50000 6.105
28.52000 9.962
28.54000 9.423
28.56000 3.979
28.58000 4.336
28.60000 2.128
28.62000 -0.762
28.64000 -1.056
28.66000 0.672
28.68000 1.913
28.70000 4.208
28.72000 1.906
28.74000 0.581
28.76000 6.824
28.78000 9.974
28.80000 7.815
28.82000 6.881
28.84000 6.667
28.86000 4.215
28.88000 3.738
28.90000 5.939
28.92000 4.332
28.94000 0.983
28.96000 6.504
28.98000 6.038
29.00000 6.216
29.02000 5.345
29.04000 7.415
29.06000 3.797
29.08000 5.143
29.10000 5.971
29.12000 2.391
29.14000 1.312
29.16000 -3.704
29.18000 -2.852
29.20000 4.933
29.22000 6.259
29.24000 3.797
29.26000 11.826
29.28000 8.207
29.30000 3.890
29.32000 0.956
29.34000 -0.299
29.36000 2.491
29.38000 1.039
29.40000 6.351
29.42000 3.573
29.44000 2.672
29.46000 4.363
29.48000 3.430
29.50000 4.273
29.52000 5.152
29.54000 2.436
29.56000 2.838
29.58000 3.118
29.60000 1.079
29.62000 1.971
29.64000 7.001
29.66000 6.414
29.68000 6.012
29.70000 0.777
29.72000 -3.289
29.74000 -3.674
29.76000 -0.132
29.78000 6.919
29.80000 4.940
29.82000 2.178
29.84000 4.318
29.86000 0.661
29.88000 3.185
29.90000 3.416
29.92000 4.465
29.94000 6.503
29.96000 4.432
29.98000 7.133
30.00000 7.316
30.02000 2.287
30.04000 1.604
30.06000 3.942
30.08000 8.398
30.10000 8.289
30.12000 9.020
30.14000 10.584
30.16000 5.746
30.18000 3.032
30.20000 3.176
30.22000 8.198
30.24000 5.816
30.26000 -0.246
30.28000 -1.954
30.30000 1.509
30.32000 -1.259
30.34000 -3.667
30.36000 -0.355
30.38000 1.392
30.40000 4.016
30.42000 5.293
30.44000 4.258
30.46000 5.882
30.48000 0.074
30.50000 -1.262
30.52000 -1.589
30.54000 -0.189
30.56000 4.084
30.58000 6.073
30.60000 6.231
30.62000 3.378
30.64000 6.309
30.66000 3.764
30.68000 -0.039
30.70000 2.796
30.72000 7.689
30.74000 4.985
30.76000 0.732
30.78000 0.095
30.80000 -0.909
30.82000 1.324
30.84000 -0.962
30.86000 -1.697
30.88000 -0.133
30.90000 4.479
30.92000 7.617
30.94000 3.456
30.96000 0.017
30.98000 0.618
31.00000 0.075
31.02000 -2.690
31.04000 -1.517
31.06000 -0.591
31.08000 2.881
31.10000 10.230
31.12000 9.540
31.14000 5.675
31.16000 5.434
31.18000 6.703
31.20000 0.923
31.22000 -1.747
31.24000 -0.130
31.26000 0.294
31.28000 -3.630
31.30000 0.992
31.32000 2.062
31.34000 2.064
31.36000 11.354
31.38000 9.667
31.40000 0.506
31.42000 0.585
31.44000 -0.432
31.46000 2.843
31.48000 5.169
31.50000 -0.558
31.52000 -0.578
31.54000 0.563
31.56000 2.658
31.58000 1.719
31.60000 0.843
31.62000 2.560
31.64000 1.554
31.66000 3.864
31.68000 4.333
31.70000 3.403
31.72000 3.958
31.74000 2.880
31.76000 3.865
31.78000 1.568
31.80000 -1.964
31.82000 0.123
31.84000 1.924
31.86000 0.634
31.88000 4.184
31.90000 8.590
31.92000 8.502
31.94000 10.719
31.96000 3.136
31.98000 4.309
32.00000 2.030
32.02000 -0.135
32.04000 -0.438
32.06000 2.969
32.08000 4.182
32.10000 0.735
32.12000 -1.206
32.14000 1.459
32.16000 3.099
32.18000 1.517
32.20000 2.046
32.22000 1.790
32.24000 3.106
32.26000 4.135
32.28000 3.318
32.30000 0.720
32.32000 -1.401
32.34000 -3.578
32.36000 0.422
32.38000 4.283
32.40000 3.431
32.42000 0.549
32.44000 2.900
32.46000 -1.780
32.48000 -3.380
32.50000 -1.832
32.52000 -0.891
32.54000 1.191
32.56000 0.469
32.58000 -0.740
32.60000 -1.613
32.62000 -3.574
32.64000 2.980
32.66000 4.963
32.68000 2.098
32.70000 -0.653
32.72000 -3.573
32.74000 -1.433
32.76000 1.657
32.78000 -1.731
32.80000 -2.915
32.82000 0.384
32.84000 2.922
32.86000 3.594
32.88000 1.909
32.90000 3.681
32.92000 6.309
32.94000 4.408
32.96000 1.217
32.98000 3.422
33.00000 9.153
33.02000 4.670
33.04000 0.558
33.06000 0.138
33.08000 3.134
33.10000 0.470
33.12000 0.764
33.14000 1.957
33.16000 2.335
33.18000 -2.548
33.20000 -1.213
33.22000 2.249
33.24000 0.469
33.26000 2.728
33.28000 4.197
33.30000 5.095
33.32000 7.043
33.34000 3.304
33.36000 2.452
33.38000 5.576
33.40000 9.062
33.42000 3.122
33.44000 -3.144
33.46000 0.303
33.48000 7.507
33.50000 8.089
33.52000 6.930
33.54000 5.318
33.56000 4.859
33.58000 3.309
33.60000 4.951
33.62000 6.780
33.64000 -0.205
33.66000 -1.976
33.68000 -1.241
33.70000 2.279
33.72000 4.935
33.74000 5.781
33.76000 6.340
33.78000 3.699
33.80000 3.793
33.82000 2.519
33.84000 2.221
33.86000 3.115
33.88000 4.545
33.90000 10.740
33.92000 5.614
33.94000 6.146
33.96000 6.792
33.98000 5.084
34.00000 5.916
34.02000 5.297
34.04000 4.712
34.06000 1.751
34.08000 4.424
34.10000 2.037
34.12000 2.095
34.14000 4.277
34.16000 5.507
34.18000 2.942
34.20000 4.969
34.22000 6.136
34.24000 5.457
34.26000 9.167
34.28000 6.712
34.30000 4.593
34.32000 1.188
34.34000 3.355
34.36000 1.790
34.38000 -3.097
34.40000 -3.517
34.42000 1.340
34.44000 2.047
34.46000 -0.860
34.48000 3.210
34.50000 5.416
34.52000 7.184
34.54000 2.828
34.56000 -2.304
34.58000 -0.566
34.60000 1.766
34.62000 0.018
34.64000 0.950
34.66000 -0.267
34.68000 5.253
34.70000 5.821
34.72000 1.586
34.74000 -0.129
34.76000 0.654
34.78000 3.301
34.80000 3.500
34.82000 5.493
34.84000 5.036
34.86000 4.665
34.88000 5.345
34.90000 1.482
34.92000 1.987
34.94000 -0.188
34.96000 0.946
34.98000 2.059
35.00000 1.554
35.02000 1.341
35.04000 3.827
35.06000 3.675
35.08000 6.068
35.10000 3.505
35.12000 0.089
35.14000 1.922
35.16000 1.473
35.18000 1.923
35.20000 -2.516
35.22000 -0.166
35.24000 2.492
35.26000 5.563
35.28000 2.125
35.30000 -1.548
35.32000 -2.082
35.34000 1.808
35.36000 2.647
35.38000 -0.036
35.40000 3.414
35.42000 6.864
35.44000 3.266
35.46000 2.798
35.48000 2.620
35.50000 1.707
35.52000 1.903
35.54000 0.791
35.56000 2.528
35.58000 4.124
35.60000 1.630
35.62000 -1.630
35.64000 3.087
35.66000 4.985
35.68000 4.228
35.70000 -2.714
35.72000 -0.416
35.74000 -0.718
35.76000 -3.501
35.78000 2.864
35.80000 3.042
35.82000 1.154
35.84000 3.445
35.86000 2.711
35.88000 4.296
35.90000 0.361
35.92000 0.933
35.94000 -1.038
35.96000 -2.564
35.98000 -2.776
36.00000 -2.717
36.02000 0.584
36.04000 3.617
36.06000 -1.626
36.08000 1.269
36.10000 2.028
36.12000 1.132
36.14000 0.326
36.16000 6.634
36.18000 6.335
36.20000 5.875
36.22000 1.538
36.24000 -3.506
36.26000 -0.744
36.28000 -0.873
36.30000 1.686
36.32000 1.829
36.34000 0.954
36.36000 1.150
36.38000 3.707
36.40000 4.710
36.42000 4.073
36.44000 -0.222
36.46000 1.026
36.48000 -0.271
36.50000 2.601
36.52000 2.130
36.54000 1.513
36.56000 8.991
36.58000 5.630
36.60000 0.080
36.62000 1.910
36.64000 -0.571
36.66000 -1.166
36.68000 -3.515
36.70000 -2.872
36.72000 -1.700
36.74000 -2.213
36.76000 0.976
36.78000 6.171
36.80000 1.740
36.82000 -0.522
36.84000 0.105
36.86000 4.673
36.88000 1.931
36.90000 4.073
36.92000 4.837
36.94000 2.563
36.96000 2.510
36.98000 1.748
37.00000 2.923
37.02000 3.912
37.04000 2.140
37.06000 -2.179
37.08000 -2.944
37.10000 2.142
37.12000 0.238
37.14000 2.223
37.16000 1.207
37.18000 4.708
37.20000 2.056
37.22000 7.711
37.24000 7.520
37.26000 5.653
37.28000 5.030
37.30000 2.110
37.32000 -1.451
37.34000 2.090
37.36000 6.948
37.38000 3.064
37.40000 -3.531
37.42000 2.139
37.44000 2.413
37.46000 3.799
37.48000 1.728
37.50000 5.000
37.52000 3.937
37.54000 3.179
37.56000 3.371
37.58000 2.083
37.60000 1.802
37.62000 2.873
37.64000 3.799
37.66000 3.892
37.68000 4.921
37.70000 6.657
37.72000 0.508
37.74000 2.425
37.76000 2.239
37.78000 4.293
37.80000 4.329
37.82000 9.498
37.84000 12.951
37.86000 9.688
37.88000 6.320
37.90000 7.021
37.92000 7.794
37.94000 1.900
37.96000 4.792
37.98000 11.029
38.00000 11.194
38.02000 8.630
38.04000 11.331
38.06000 8.057
38.08000 9.315
38.10000 9.572
38.12000 8.748
38.14000 4.136
38.16000 15.485
38.18000 14.367
38.20000 16.027
38.22000 15.379
38.24000 16.244
38.26000 17.184
38.28000 18.175
38.30000 13.929
38.32000 11.499
38.34000 14.916
38.36000 15.578
38.38000 14.890
38.40000 12.761
38.42000 15.687
38.44000 10.413
38.46000 13.877
38.48000 17.916
38.50000 18.479
38.52000 15.833
38.54000 13.761
38.56000 20.370
38.58000 24.960
38.60000 21.080
38.62000 17.906
38.64000 18.089
38.66000 19.384
38.68000 20.979
38.70000 24.365
38.72000 22.618
38.74000 19.635
38.76000 20.893
38.78000 21.565
38.80000 25.061
38.82000 28.648
38.84000 27.989
38.86000 25.507
38.88000 24.740
38.90000 29.526
38.92000 34.331
38.94000 35.195
38.96000 29.728
38.98000 31.422
39.00000 33.774
39.02000 38.262
39.04000 35.436
39.06000 40.201
39.08000 39.693
39.10000 41.753
39.12000 35.735
39.14000 38.608
39.16000 41.917
39.18000 44.349
39.20000 47.850
39.22000 49.435
39.24000 51.719
39.26000 50.347
39.28000 51.865
39.30000 55.070
39.32000 55.750
39.34000 65.517
39.36000 69.041
39.38000 68.353
39.40000 70.169
39.42000 69.489
39.44000 76.180
39.46000 77.258
39.48000 80.305
39.50000 85.358
39.52000 93.276
39.54000 98.882
39.56000 97.703
39.58000 106.997
39.60000 108.818
39.62000 115.795
39.64000 122.002
39.66000 131.697
39.68000 133.284
39.70000 148.091
39.72000 157.866
39.74000 158.638
39.76000 170.076
39.78000 180.000
39.80000 185.675
39.82000 195.132
39.84000 208.552
39.86000 215.591
39.88000 233.161
39.90000 239.455
39.92000 251.680
39.94000 271.263
39.96000 279.495
39.98000 296.719
40.00000 314.574
40.02000 332.729
40.04000 352.765
40.06000 373.216
40.08000 402.831
40.10000 414.078
40.12000 433.288
40.14000 447.901
40.16000 462.485
40.18000 484.038
40.20000 507.665
40.22000 531.988
40.24000 552.446
40.26000 565.066
40.28000 589.537
40.30000 603.167
40.32000 609.632
40.34000 619.906
40.36000 631.665
40.38000 640.790
40.40000 633.365
40.42000 644.911
40.44000 656.252
40.46000 648.838
40.48000 636.128
40.50000 630.039
40.52000 634.281
40.54000 620.618
40.56000 611.976
40.58000 602.869
40.60000 584.981
40.62000 576.066
40.64000 569.555
40.66000 544.529
40.68000 523.443
40.70000 506.471
40.72000 491.328
40.74000 472.843
40.76000 458.511
40.78000 442.283
40.80000 418.029
40.82000 398.425
40.84000 383.073
40.86000 366.193
40.88000 348.976
40.90000 329.849
40.92000 314.043
40.94000 298.134
40.96000 279.772
40.98000 263.600
41.00000 254.768
41.02000 243.080
41.04000 226.850
41.06000 209.297
41.08000 205.088
41.10000 197.457
41.12000 186.717
41.14000 177.744
41.16000 162.035
41.18000 151.832
41.20000 147.532
41.22000 142.015
41.24000 133.850
41.26000 122.420
41.28000 116.352
41.30000 113.813
41.32000 111.402
41.34000 111.401
41.36000 100.619
41.38000 96.329
41.40000 91.366
41.42000 84.671
41.44000 74.076
41.46000 74.731
41.48000 73.394
41.50000 69.773
41.52000 67.316
41.54000 63.394
41.56000 64.365
41.58000 58.387
41.60000 56.685
41.62000 55.387
41.64000 52.224
41.66000 48.288
41.68000 46.343
41.70000 42.809
41.72000 41.563
41.74000 37.885
41.76000 35.281
41.78000 37.952
41.80000 35.076
41.82000 33.089
41.84000 34.608
41.86000 32.539
41.88000 28.429
41.90000 28.144
41.92000 29.705
41.94000 31.588
41.96000 30.512
41.98000 25.899
42.00000 22.582
42.02000 23.976
42.04000 23.722
42.06000 17.915
42.08000 15.871
42.10000 19.119
42.12000 19.614
42.14000 16.039
42.16000 15.009
42.18000 16.959
42.20000 17.795
42.22000 15.779
42.24000 16.126
42.26000 14.225
42.28000 13.943
42.30000 10.369
42.32000 8.722
42.34000 13.556
42.36000 13.063
42.38000 12.779
42.40000 12.889
42.42000 9.250
42.44000 3.414
42.46000 8.198
42.48000 9.808
42.50000 8.532
42.52000 9.435
42.54000 0.911
42.56000 3.857
42.58000 6.785
42.60000 5.428
42.62000 6.423
42.64000 4.181
42.66000 3.242
42.68000 3.425
42.70000 1.446
42.72000 1.309
42.74000 1.234
42.76000 2.719
42.78000 4.272
42.80000 3.119
42.82000 2.190
42.84000 3.930
42.86000 3.993
42.88000 3.107
42.90000 2.669
42.92000 4.953
42.94000 4.173
42.96000 4.698
42.98000 1.989
43.00000 2.134
43.02000 -0.925
43.04000 2.898
43.06000 3.210
43.08000 3.490
43.10000 2.928
43.12000 1.055
43.14000 1.403
43.16000 1.376
43.18000 -0.913
43.20000 1.318
43.22000 7.292
43.24000 5.186
43.26000 6.568
43.28000 5.362
43.30000 4.998
43.32000 2.417
43.34000 2.112
43.36000 0.805
43.38000 1.378
43.40000 2.436
43.42000 -3.398
43.44000 -1.619
43.46000 3.370
43.48000 3.356
43.50000 -0.731
43.52000 3.171
43.54000 4.563
43.56000 3.505
43.58000 2.991
43.60000 6.165
43.62000 4.746
43.64000 1.843
43.66000 1.007
43.68000 -1.088
43.70000 0.636
43.72000 -2.871
43.74000 -2.754
43.76000 -0.620
43.78000 3.118
43.80000 0.199
43.82000 -0.842
43.84000 1.404
43.86000 1.680
43.88000 -0.039
43.90000 1.310
43.92000 0.630
43.94000 0.407
43.96000 0.425
43.98000 -2.846
44.00000 -1.349
44.02000 1.819
44.04000 4.658
44.06000 1.860
44.08000 0.751
44.10000 -0.378
44.12000 1.248
44.14000 1.435
44.16000 4.279
44.18000 4.409
44.20000 3.855
44.22000 4.049
44.24000 3.424
44.26000 3.876
44.28000 4.183
44.30000 6.289
44.32000 3.677
44.34000 0.533
44.36000 4.609
44.38000 5.707
44.40000 0.304
44.42000 -3.335
44.44000 0.339
44.46000 1.858
44.48000 2.464
44.50000 3.107
44.52000 4.090
44.54000 0.448
44.56000 -2.476
44.58000 -0.183
44.60000 4.806
44.62000 2.913
44.64000 -0.983
44.66000 -1.506
44.68000 -1.188
44.70000 -1.820
44.72000 -3.323
44.74000 1.190
44.76000 7.077
44.78000 3.175
44.80000 2.555
44.82000 4.556
44.84000 8.439
44.86000 4.796
44.88000 -1.524
44.90000 1.382
44.92000 4.875
44.94000 8.103
44.96000 5.793
44.98000 4.390
45.00000 4.369
45.02000 3.152
45.04000 3.138
45.06000 2.399
45.08000 0.737
45.10000 0.238
45.12000 0.558
45.14000 1.870
45.16000 1.000
45.18000 -1.698
45.20000 2.233
45.22000 0.007
45.24000 -0.166
45.26000 2.610
45.28000 5.500
45.30000 7.898
45.32000 7.393
45.34000 3.533
45.36000 1.987
45.38000 6.513
45.40000 2.941
45.42000 3.631
45.44000 6.843
45.46000 3.583
45.48000 8.906
45.50000 7.452
45.52000 4.592
45.54000 8.621
45.56000 11.699
45.58000 6.248
45.60000 4.025
45.62000 7.553
45.64000 12.120
45.66000 7.810
45.68000 12.472
45.70000 13.778
45.72000 13.745
45.74000 10.701
45.76000 14.702
45.78000 17.286
45.80000 16.470
45.82000 15.574
45.84000 15.020
45.86000 14.107
45.88000 17.092
45.90000 21.798
45.92000 20.723
45.94000 24.669
45.96000 25.655
45.98000 22.482
46.00000 20.040
46.02000 20.486
46.04000 24.533
46.06000 21.877
46.08000 24.666
46.10000 29.115
46.12000 29.722
46.14000 30.270
46.16000 35.620
46.18000 34.135
46.20000 35.148
46.22000 37.826
46.24000 37.294
46.26000 33.830
46.28000 43.222
46.30000 45.040
46.32000 46.717
46.34000 46.061
46.36000 51.129
46.38000 53.699
46.40000 52.665
46.42000 50.546
46.44000 50.165
46.46000 52.537
46.48000 60.872
46.50000 62.446
46.52000 68.354
46.54000 67.434
46.56000 72.843
46.58000 75.292
46.60000 76.263
46.62000 73.479
46.64000 75.433
46.66000 79.059
46.68000 80.206
46.70000 82.237
46.72000 82.460
46.74000 87.421
46.76000 90.627
46.78000 92.229
46.80000 92.419
46.82000 94.911
46.84000 98.661
46.86000 100.694
46.88000 107.296
46.90000 101.900
46.92000 100.316
46.94000 104.728
46.96000 105.886
46.98000 104.470
47.00000 106.192
47.02000 113.025
47.04000 114.445
47.06000 105.562
47.08000 106.894
47.10000 111.007
47.12000 111.986
47.14000 104.771
47.16000 109.076
47.18000 108.156
47.20000 108.792
47.22000 102.430
47.24000 98.389
47.26000 105.281
47.28000 101.003
47.30000 96.688
47.32000 98.583
47.34000 95.942
47.36000 93.083
47.38000 91.448
47.40000 91.780
47.42000 88.677
47.44000 79.338
47.46000 78.689
47.48000 78.761
47.50000 71.354
47.52000 74.875
47.54000 71.337
47.56000 69.578
47.58000 66.215
47.60000 61.593
47.62000 57.499
47.64000 61.554
47.66000 60.270
47.68000 58.308
47.70000 52.143
47.72000 45.918
47.74000 46.030
47.76000 44.782
47.78000 43.090
47.80000 46.023
47.82000 41.054
47.84000 36.711
47.86000 36.325
47.88000 32.553
47.90000 29.025
47.92000 27.665
47.94000 27.750
47.96000 30.498
47.98000 26.941
48.00000 17.189
48.02000 22.748
48.04000 24.256
48.06000 23.737
48.08000 23.594
48.10000 22.735
48.12000 13.872
48.14000 14.209
48.16000 15.080
48.18000 12.963
48.20000 12.851
48.22000 13.253
48.24000 17.005
48.26000 13.136
48.28000 11.277
48.30000 10.599
48.32000 8.199
48.34000 8.150
48.36000 7.126
48.38000 7.374
48.40000 5.535
48.42000 4.246
48.44000 5.756
48.46000 10.426
48.48000 9.255
48.50000 6.710
48.52000 6.438
48.54000 9.564
48.56000 5.521
48.58000 1.002
48.60000 4.682
48.62000 7.280
48.64000 2.847
48.66000 2.867
48.68000 -2.336
48.70000 -0.207
48.72000 4.049
48.74000 3.356
48.76000 2.365
48.78000 -0.844
48.80000 0.507
48.82000 0.503
48.84000 0.569
48.86000 -2.446
48.88000 2.496
48.90000 -0.470
48.92000 -2.957
48.94000 -2.938
48.96000 0.756
48.98000 7.879
49.00000 6.294
49.02000 3.192
49.04000 -1.532
49.06000 2.108
49.08000 4.483
49.10000 1.615
49.12000 -1.315
49.14000 -2.921
49.16000 -0.479
49.18000 1.226
49.20000 0.151
49.22000 1.508
49.24000 -1.050
49.26000 1.166
49.28000 0.983
49.30000 1.708
49.32000 -0.769
49.34000 4.027
49.36000 4.530
49.38000 1.551
49.40000 0.195
49.42000 1.343
49.44000 4.257
49.46000 0.686
49.48000 0.861
49.50000 -0.136
49.52000 3.737
49.54000 5.989
49.56000 3.326
49.58000 6.472
49.60000 3.975
49.62000 2.849
49.64000 4.522
49.66000 3.979
49.68000 4.778
49.70000 5.387
49.72000 1.320
49.74000 2.786
49.76000 3.771
49.78000 1.226
49.80000 3.026
49.82000 2.541
49.84000 3.538
49.86000 2.565
49.88000 1.370
49.90000 3.652
49.92000 5.364
49.94000 6.939
49.96000 5.295
49.98000 5.453
50.00000 0.368
50.02000 -2.747
50.04000 2.189
50.06000 4.932
50.08000 4.962
50.10000 5.823
50.12000 5.861
50.14000 4.716
50.16000 2.138
50.18000 6.954
50.20000 8.732
50.22000 6.476
50.24000 3.055
50.26000 1.848
50.28000 -0.567
50.30000 2.326
50.32000 5.077
50.34000 4.773
50.36000 2.874
50.38000 2.230
50.40000 4.506
50.42000 2.303
50.44000 1.596
50.46000 2.944
50.48000 5.282
50.50000 3.939
50.52000 1.971
50.54000 2.683
50.56000 0.258
50.58000 -2.718
50.60000 1.987
50.62000 5.834
50.64000 7.308
50.66000 5.859
50.68000 1.086
50.70000 0.829
50.72000 3.820
50.74000 1.428
50.76000 4.479
50.78000 3.438
50.80000 1.323
50.82000 0.707
50.84000 2.507
50.86000 3.653
50.88000 1.958
50.90000 0.523
50.92000 2.427
50.94000 0.392
50.96000 1.910
50.98000 -0.243
51.00000 3.407
51.02000 3.289
51.04000 1.376
51.06000 4.494
51.08000 4.400
51.10000 4.820
51.12000 -0.040
51.14000 -0.456
51.16000 2.428
51.18000 -0.127
51.20000 0.841
51.22000 0.056
51.24000 -0.263
51.26000 1.081
51.28000 4.043
51.30000 1.507
51.32000 1.640
51.34000 5.059
51.36000 4.151
51.38000 0.647
51.40000 -1.321
51.42000 3.424
51.44000 1.939
51.46000 -0.858
51.48000 3.662
51.50000 6.342
51.52000 4.241
51.54000 -0.378
51.56000 4.489
51.58000 10.349
51.60000 4.978
51.62000 4.005
51.64000 2.601
51.66000 8.143
51.68000 4.106
51.70000 0.018
51.72000 6.180
51.74000 4.557
51.76000 4.675
51.78000 3.968
51.80000 2.035
51.82000 2.671
51.84000 2.718
51.86000 1.134
51.88000 2.366
51.90000 0.921
51.92000 2.562
51.94000 5.149
51.96000 2.647
51.98000 1.834
52.00000 3.723
52.02000 0.807
52.04000 -2.671
52.06000 -2.201
52.08000 3.795
52.10000 3.757
52.12000 2.999
52.14000 2.548
52.16000 3.820
52.18000 1.558
52.20000 -0.137
52.22000 -2.411
52.24000 3.440
52.26000 1.352
52.28000 2.111
52.30000 -1.299
52.32000 -1.470
52.34000 3.727
52.36000 4.339
52.38000 1.560
52.40000 0.115
52.42000 0.435
52.44000 4.025
52.46000 4.721
52.48000 -1.851
52.50000 -0.517
52.52000 2.509
52.54000 -2.657
52.56000 2.826
52.58000 3.271
52.60000 1.823
52.62000 4.090
52.64000 -0.590
52.66000 0.901
52.68000 6.113
52.70000 3.265
52.72000 5.188
52.74000 0.346
52.76000 0.363
52.78000 2.315
52.80000 3.187
52.82000 3.398
52.84000 3.164
52.86000 2.268
52.88000 2.510
52.90000 0.105
52.92000 1.192
52.94000 1.328
52.96000 -0.303
52.98000 -1.812
53.00000 -1.494
53.02000 1.511
53.04000 -1.743
53.06000 -1.703
53.08000 -0.638
53.10000 -0.749
53.12000 4.832
53.14000 3.356
53.16000 1.400
53.18000 0.949
53.20000 1.065
53.22000 2.601
53.24000 1.619
53.26000 3.736
53.28000 3.268
53.30000 5.831
53.32000 5.644
53.34000 0.985
53.36000 -0.067
53.38000 -0.547
53.40000 -2.640
53.42000 1.712
53.44000 5.255
53.46000 2.316
53.48000 0.562
53.50000 3.158
53.52000 2.909
53.54000 1.383
53.56000 3.977
53.58000 6.055
53.60000 3.999
53.62000 5.226
53.64000 3.217
53.66000 6.370
53.68000 2.395
53.70000 2.608
53.72000 1.266
53.74000 1.162
53.76000 -1.029
53.78000 -2.109
53.80000 3.494
53.82000 2.256
53.84000 -1.313
53.86000 3.465
53.88000 3.076
53.90000 3.801
53.92000 4.188
53.94000 3.927
53.96000 2.156
53.98000 2.842
54.00000 3.182
54.02000 1.384
54.04000 4.929
54.06000 6.040
54.08000 4.338
54.10000 0.964
54.12000 0.420
54.14000 3.498
54.16000 4.491
54.18000 -0.856
54.20000 -0.378
54.22000 6.292
54.24000 5.240
54.26000 2.852
54.28000 3.124
54.30000 3.969
54.32000 2.255
54.34000 0.397
54.36000 3.338
54.38000 6.883
54.40000 6.496
54.42000 5.973
54.44000 4.364
54.46000 3.891
54.48000 3.409
54.50000 5.601
54.52000 9.173
54.54000 6.997
54.56000 4.398
54.58000 4.815
54.60000 5.464
54.62000 4.522
54.64000 7.136
54.66000 4.590
54.68000 1.901
54.70000 3.301
54.72000 6.490
54.74000 4.532
54.76000 2.619
54.78000 0.892
54.80000 5.541
54.82000 2.855
54.84000 -2.554
54.86000 1.216
54.88000 6.406
54.90000 1.915
54.92000 1.284
54.94000 2.964
54.96000 5.627
54.98000 4.684
55.00000 4.803
55.02000 1.647
55.04000 5.468
55.06000 5.457
55.08000 3.042
55.10000 3.125
55.12000 8.679
55.14000 7.021
55.16000 6.195
55.18000 4.098
55.20000 0.786
55.22000 1.891
55.24000 1.974
55.26000 1.190
55.28000 0.818
55.30000 2.747
55.32000 3.377
55.34000 2.341
55.36000 0.789
55.38000 -0.589
55.40000 2.830
55.42000 5.663
55.44000 5.670
55.46000 2.843
55.48000 2.012
55.50000 4.752
55.52000 1.869
55.54000 1.874
55.56000 -2.124
55.58000 3.470
55.60000 5.250
55.62000 4.123
55.64000 2.277
55.66000 4.205
55.68000 1.599
55.70000 3.458
55.72000 6.768
55.74000 2.070
55.76000 0.283
55.78000 1.855
55.80000 0.342
55.82000 -1.435
55.84000 -0.393
55.86000 4.100
55.88000 2.916
55.90000 3.149
55.92000 5.481
55.94000 3.428
55.96000 4.596
55.98000 3.699
56.00000 2.657
56.02000 2.859
56.04000 4.193
56.06000 2.974
56.08000 3.434
56.10000 3.620
56.12000 -2.556
56.14000 -2.335
56.16000 -0.159
56.18000 -0.885
56.20000 1.707
56.22000 3.168
56.24000 0.113
56.26000 3.144
56.28000 1.097
56.30000 -1.948
56.32000 2.103
56.34000 4.627
56.36000 2.355
56.38000 4.024
56.40000 5.388
56.42000 0.583
56.44000 3.192
56.46000 1.283
56.48000 -0.282
56.50000 2.570
56.52000 -0.288
56.54000 5.214
56.56000 1.974
56.58000 1.921
56.60000 3.465
56.62000 3.790
56.64000 4.814
56.66000 4.883
56.68000 3.301
56.70000 0.323
56.72000 2.988
56.74000 6.381
56.76000 3.776
56.78000 0.513
56.80000 -1.118
56.82000 -1.411
56.84000 -1.064
56.86000 -2.514
56.88000 -2.455
56.90000 1.498
56.92000 5.503
56.94000 4.217
56.96000 3.311
56.98000 2.161
57.00000 0.923
57.02000 5.036
57.04000 9.375
57.06000 6.378
57.08000 2.810
57.10000 2.087
57.12000 0.560
57.14000 1.730
57.16000 2.466
57.18000 4.417
57.20000 3.275
57.22000 2.547
57.24000 0.897
57.26000 1.841
57.28000 2.589
57.30000 3.788
57.32000 4.007
57.34000 5.004
57.36000 1.217
57.38000 3.435
57.40000 3.844
57.42000 2.789
57.44000 -0.476
57.46000 0.922
57.48000 3.953
57.50000 0.702
57.52000 2.985
57.54000 3.233
57.56000 5.523
57.58000 5.351
57.60000 6.834
57.62000 5.474
57.64000 2.590
57.66000 -2.518
57.68000 -1.847
57.70000 -1.938
57.72000 3.160
57.74000 3.608
57.76000 7.331
57.78000 5.139
57.80000 2.306
57.82000 0.721
57.84000 -1.084
57.86000 0.205
57.88000 2.637
57.90000 2.695
57.92000 -0.330
57.94000 0.642
57.96000 4.913
57.98000 3.791
58.00000 4.816
58.02000 4.030
58.04000 -1.076
58.06000 -0.078
58.08000 0.179
58.10000 -0.681
58.12000 -0.515
58.14000 -0.560
58.16000 -1.406
58.18000 -1.230
58.20000 0.856
58.22000 0.297
58.24000 3.233
58.26000 2.084
58.28000 -1.291
58.30000 -0.019
58.32000 -2.181
58.34000 0.754
58.36000 1.237
58.38000 3.078
58.40000 2.723
58.42000 2.003
58.44000 0.334
58.46000 1.421
58.48000 0.371
58.50000 4.433
58.52000 -1.530
58.54000 -0.941
58.56000 2.362
58.58000 -1.776
58.60000 -0.772
58.62000 0.659
58.64000 0.827
58.66000 -1.293
58.68000 2.048
58.70000 4.052
58.72000 -2.060
58.74000 -0.357
58.76000 -0.975
58.78000 -0.263
58.80000 1.874
58.82000 -0.426
58.84000 1.018
58.86000 1.022
58.88000 1.082
58.90000 0.941
58.92000 -1.017
58.94000 -1.304
58.96000 4.565
58.98000 -0.623
59.00000 -0.051
59.02000 1.196
59.04000 1.361
59.06000 1.707
59.08000 1.992
59.10000 2.331
59.12000 -0.663
59.14000 -1.930
59.16000 0.930
59.18000 -0.366
59.20000 -0.571
59.22000 1.152
59.24000 4.003
59.26000 7.519
59.28000 5.405
59.30000 2.440
59.32000 2.422
59.34000 3.460
59.36000 -2.459
59.38000 4.225
59.40000 4.036
59.42000 2.214
59.44000 2.993
59.46000 3.100
59.48000 2.687
59.50000 -0.069
59.52000 0.855
59.54000 4.841
59.56000 5.223
59.58000 6.504
59.60000 3.882
59.62000 3.737
59.64000 4.835
59.66000 4.954
59.68000 1.186
59.70000 1.315
59.72000 0.983
59.74000 -2.446
59.76000 -2.267
59.78000 0.171
59.80000 3.809
59.82000 6.730
59.84000 5.328
59.86000 3.054
59.88000 2.339
59.90000 3.666
59.92000 3.713
59.94000 3.491
59.96000 3.886
59.98000 5.356
60.00000 1.286
60.02000 -0.908
60.04000 2.457
60.06000 5.358
60.08000 1.128
60.10000 0.566
60.12000 3.694
60.14000 7.480
60.16000 6.643
60.18000 3.981
60.20000 5.562
60.22000 5.448
60.24000 2.349
60.26000 3.158
60.28000 3.904
60.30000 2.324
60.32000 -0.007
60.34000 0.393
60.36000 1.445
60.38000 4.904
60.40000 2.400
60.42000 3.035
60.44000 3.037
60.46000 3.579
60.48000 0.284
60.50000 1.115
60.52000 6.808
60.54000 7.649
60.56000 2.067
60.58000 -2.400
60.60000 2.619
60.62000 1.289
60.64000 1.041
60.66000 1.912
60.68000 4.706
60.70000 4.484
60.72000 3.458
60.74000 2.067
60.76000 2.155
60.78000 2.736
60.80000 5.496
60.82000 2.904
60.84000 3.471
60.86000 4.911
60.88000 7.396
60.90000 3.258
60.92000 2.539
60.94000 1.735
60.96000 4.317
60.98000 0.874
61.00000 -0.154
61.02000 2.683
61.04000 6.630
61.06000 4.498
61.08000 4.103
61.10000 1.418
61.12000 -2.269
61.14000 4.290
61.16000 0.621
61.18000 2.240
61.20000 0.255
61.22000 3.413
61.24000 4.583
61.26000 1.190
61.28000 -1.357
61.30000 -1.002
61.32000 -0.052
61.34000 -2.388
61.36000 -0.903
61.38000 0.368
61.40000 1.270
61.42000 2.833
61.44000 -1.434
61.46000 0.171
61.48000 0.777
61.50000 -0.374
61.52000 3.428
61.54000 5.560
61.56000 5.498
61.58000 -1.992
61.60000 -0.622
61.62000 3.597
61.64000 3.982
61.66000 5.220
61.68000 5.399
61.70000 5.169
61.72000 -0.453
61.74000 -2.197
61.76000 1.675
61.78000 2.401
61.80000 2.521
61.82000 0.627
61.84000 -2.395
61.86000 0.437
61.88000 1.980
61.90000 4.560
61.92000 4.276
61.94000 -1.077
61.96000 -2.318
61.98000 -2.393
62.00000 0.277
62.02000 -1.131
62.04000 0.162
62.06000 1.798
62.08000 2.634
62.10000 3.192
62.12000 5.110
62.14000 5.163
62.16000 3.297
62.18000 3.318
62.20000 1.080
62.22000 0.425
62.24000 2.329
62.26000 2.931
62.28000 1.865
62.30000 3.325
62.32000 3.153
62.34000 4.115
62.36000 3.262
62.38000 3.111
62.40000 3.093
62.42000 1.669
62.44000 2.923
62.46000 4.013
62.48000 4.735
62.50000 0.946
62.52000 -2.387
62.54000 -1.784
62.56000 -0.108
62.58000 -0.321
62.60000 1.661
62.62000 3.716
62.64000 2.921
62.66000 2.658
62.68000 3.151
62.70000 2.275
62.72000 3.176
62.74000 0.392
62.76000 5.622
62.78000 3.779
62.80000 1.369
62.82000 3.823
62.84000 2.217
62.86000 1.591
62.88000 2.221
62.90000 4.085
62.92000 0.618
62.94000 1.585
62.96000 -0.451
62.98000 0.214
63.00000 -1.116
63.02000 0.494
63.04000 -0.893
63.06000 -2.158
63.08000 0.907
63.10000 2.266
63.12000 0.286
63.14000 -0.905
63.16000 1.323
63.18000 4.410
63.20000 6.724
63.22000 5.063
63.24000 3.167
63.26000 1.611
63.28000 1.621
63.30000 1.227
63.32000 4.282
63.34000 1.874
63.36000 -0.070
63.38000 -1.674
63.40000 0.338
63.42000 0.066
63.44000 -1.101
63.46000 2.228
63.48000 1.193
63.50000 5.681
63.52000 2.935
63.54000 -0.539
63.56000 1.921
63.58000 2.425
63.60000 0.565
63.62000 1.427
63.64000 -2.025
63.66000 2.573
63.68000 4.237
63.70000 5.614
63.72000 6.805
63.74000 1.378
63.76000 -2.363
63.78000 2.214
63.80000 4.226
63.82000 4.096
63.84000 5.702
63.86000 3.245
63.88000 0.043
63.90000 -0.933
63.92000 1.894
63.94000 2.937
63.96000 4.561
63.98000 4.530
64.00000 1.685
64.02000 -0.724
64.04000 2.659
64.06000 3.390
64.08000 0.047
64.10000 0.156
64.12000 4.877
64.14000 1.623
64.16000 2.464
64.18000 0.271
64.20000 1.853
64.22000 2.927
64.24000 4.419
64.26000 0.045
64.28000 3.635
64.30000 3.436
64.32000 2.259
64.34000 6.852
64.36000 5.958
64.38000 4.878
64.40000 3.158
64.42000 2.595
64.44000 2.987
64.46000 1.796
64.48000 0.006
64.50000 -2.379
64.52000 -0.488
64.54000 0.216
64.56000 3.151
64.58000 -0.169
64.60000 3.412
64.62000 5.996
64.64000 1.328
64.66000 1.548
64.68000 4.538
64.70000 2.997
64.72000 1.287
64.74000 0.697
64.76000 1.247
64.78000 1.502
64.80000 3.525
64.82000 3.190
64.84000 2.661
64.86000 -0.060
64.88000 -1.040
64.90000 0.978
64.92000 2.064
64.94000 2.792
64.96000 2.115
64.98000 0.536
65.00000 2.710
65.02000 2.398
65.04000 0.818
65.06000 1.460
65.08000 2.505
65.10000 3.612
65.12000 1.776
65.14000 1.119
65.16000 3.640
65.18000 2.430
65.20000 -0.712
65.22000 -0.697
65.24000 0.249
65.26000 2.482
65.28000 1.610
65.30000 2.316
65.32000 -1.940
65.34000 -1.227
65.36000 -0.356
65.38000 -0.402
65.40000 4.347
65.42000 5.933
65.44000 3.695
65.46000 3.885
65.48000 2.027
65.50000 -0.407
65.52000 1.987
65.54000 1.954
65.56000 2.121
65.58000 -1.472
65.60000 -2.405
65.62000 -2.095
65.64000 0.526
65.66000 0.935
65.68000 -0.598
65.70000 1.092
65.72000 -0.812
65.74000 0.608
65.76000 2.827
65.78000 1.669
65.80000 1.810
65.82000 0.817
65.84000 -1.142
65.86000 0.361
65.88000 -0.649
65.90000 -0.534
65.92000 -1.253
65.94000 0.527
65.96000 1.948
65.98000 1.416
66.00000 -1.263
66.02000 0.235
66.04000 0.228
66.06000 -0.609
66.08000 3.692
66.10000 2.190
66.12000 0.162
66.14000 1.430
66.16000 2.782
66.18000 -0.012
66.20000 0.635
66.22000 1.100
66.24000 -1.905
66.26000 -2.415
66.28000 -0.790
66.30000 0.820
66.32000 -1.329
66.34000 0.862
66.36000 -0.377
66.38000 -1.302
66.40000 -2.422
66.42000 1.267
66.44000 1.908
66.46000 0.942
66.48000 0.731
66.50000 3.575
66.52000 2.441
66.54000 2.520
66.56000 3.288
66.58000 0.500
66.60000 0.280
66.62000 0.852
66.64000 -0.103
66.66000 -0.492
66.68000 -1.037
66.70000 -0.620
66.72000 -1.426
66.74000 -0.601
66.76000 -1.479
66.78000 0.034
66.80000 -1.344
66.82000 -0.811
66.84000 -0.857
66.86000 1.942
66.88000 4.455
66.90000 1.093
66.92000 -0.468
66.94000 0.596
66.96000 -0.152
66.98000 -2.185
67.00000 -1.044
67.02000 2.963
67.04000 0.752
67.06000 -1.416
67.08000 -2.037
67.10000 -0.081
67.12000 2.921
67.14000 4.918
67.16000 2.565
67.18000 0.062
67.20000 0.502
67.22000 0.722
67.24000 2.747
67.26000 -0.657
67.28000 -0.339
67.30000 -0.466
67.32000 -2.457
67.34000 1.080
67.36000 5.346
67.38000 0.519
67.40000 1.778
67.42000 1.525
67.44000 2.267
67.46000 0.166
67.48000 0.679
67.50000 5.299
67.52000 3.471
67.54000 2.481
67.56000 0.843
67.58000 2.720
67.60000 4.400
67.62000 8.315
67.64000 7.006
67.66000 5.874
67.68000 6.418
67.70000 6.249
67.72000 7.225
67.74000 7.135
67.76000 6.623
67.78000 4.661
67.80000 6.191
67.82000 6.282
67.84000 5.078
67.86000 4.697
67.88000 6.924
67.90000 8.392
67.92000 7.952
67.94000 8.976
67.96000 11.407
67.98000 6.513
68.00000 7.606
68.02000 8.616
68.04000 10.700
68.06000 11.652
68.08000 8.312
68.10000 9.611
68.12000 13.520
68.14000 12.967
68.16000 17.294
68.18000 13.972
68.20000 11.300
68.22000 13.974
68.24000 15.484
68.26000 14.559
68.28000 16.175
68.30000 20.023
68.32000 16.628
68.34000 13.350
68.36000 20.082
68.38000 18.919
68.40000 17.283
68.42000 22.105
68.44000 20.450
68.46000 22.307
68.48000 20.043
68.50000 22.898
68.52000 23.653
68.54000 24.186
68.56000 24.381
68.58000 24.918
68.60000 27.242
68.62000 31.200
68.64000 26.000
68.66000 27.229
68.68000 28.084
68.70000 29.104
68.72000 29.149
68.74000 29.839
68.76000 27.807
68.78000 23.111
68.80000 25.720
68.82000 24.893
68.84000 26.049
68.86000 28.611
68.88000 30.741
68.90000 28.297
68.92000 27.506
68.94000 29.752
68.96000 26.041
68.98000 21.549
69.00000 19.582
69.02000 24.645
69.04000 27.287
69.06000 26.141
69.08000 21.711
69.10000 21.171
69.12000 18.971
69.14000 20.200
69.16000 20.989
69.18000 20.410
69.20000 21.820
69.22000 19.129
69.24000 17.859
69.26000 21.719
69.28000 17.291
69.30000 17.268
69.32000 18.999
69.34000 16.562
69.36000 14.644
69.38000 12.122
69.40000 12.912
69.42000 14.123
69.44000 12.162
69.46000 11.191
69.48000 12.727
69.50000 16.121
69.52000 13.008
69.54000 8.101
69.56000 8.024
69.58000 8.093
69.60000 9.957
69.62000 9.721
69.64000 7.566
69.66000 7.231
69.68000 7.601
69.70000 7.023
69.72000 4.330
69.74000 2.469
69.76000 3.480
69.78000 4.259
69.80000 8.984
69.82000 9.638
69.84000 6.908
69.86000 8.966
69.88000 7.963
69.90000 7.815
69.92000 5.410
69.94000 2.408
69.96000 4.258
69.98000 5.168
70.00000 2.960
70.02000 3.630
70.04000 2.406
70.06000 -0.859
70.08000 2.081
70.10000 3.651
70.12000 -0.090
70.14000 2.176
70.16000 2.957
70.18000 0.468
70.20000 -0.792
70.22000 -1.647
70.24000 -2.381
70.26000 -1.960
70.28000 -1.303
70.30000 2.483
70.32000 0.333
70.34000 3.421
70.36000 1.694
70.38000 -2.366
70.40000 -2.365
70.42000 -0.061
70.44000 2.294
70.46000 3.531
70.48000 4.006
70.50000 4.344
70.52000 0.120
70.54000 -1.862
70.56000 -2.344
70.58000 0.098
70.60000 -0.286
70.62000 -1.533
70.64000 -0.179
70.66000 2.066
70.68000 -0.502
70.70000 2.637
70.72000 2.078
70.74000 3.282
70.76000 2.075
70.78000 1.744
70.80000 4.387
70.82000 1.343
70.84000 3.637
70.86000 7.446
70.88000 5.163
70.90000 2.296
70.92000 1.864
70.94000 2.517
70.96000 5.588
70.98000 4.619
71.00000 4.360
71.02000 0.364
71.04000 -1.371
71.06000 1.121
71.08000 0.978
71.10000 -1.124
71.12000 -0.471
71.14000 4.120
71.16000 6.806
71.18000 6.738
71.20000 4.461
71.22000 -1.167
71.24000 -2.296
71.26000 1.427
71.28000 2.658
71.30000 4.481
71.32000 2.432
71.34000 1.336
71.36000 2.874
71.38000 0.238
71.40000 1.195
71.42000 1.124
71.44000 1.087
71.46000 0.249
71.48000 1.910
71.50000 1.375
71.52000 2.035
71.54000 2.629
71.56000 0.966
71.58000 1.371
71.60000 0.272
71.62000 2.557
71.64000 3.774
71.66000 0.879
71.68000 -1.938
71.70000 1.093
71.72000 8.185
71.74000 4.148
71.76000 2.289
71.78000 1.078
71.80000 -2.257
71.82000 -0.626
71.84000 -1.091
71.86000 0.182
71.88000 5.279
71.90000 6.151
71.92000 3.551
71.94000 4.332
71.96000 3.660
71.98000 3.684
72.00000 3.907
72.02000 2.004
72.04000 0.925
72.06000 5.478
72.08000 5.954
72.10000 1.380
72.12000 -1.148
72.14000 2.313
72.16000 2.943
72.18000 3.730
72.20000 3.491
72.22000 5.043
72.24000 6.654
72.26000 4.771
72.28000 4.233
72.30000 -0.260
72.32000 1.379
72.34000 3.051
72.36000 5.567
72.38000 4.267
72.40000 4.808
72.42000 3.998
72.44000 2.751
72.46000 2.678
72.48000 -2.207
72.50000 0.502
72.52000 2.260
72.54000 3.268
72.56000 4.640
72.58000 7.610
72.60000 5.872
72.62000 5.350
72.64000 5.445
72.66000 6.622
72.68000 3.746
72.70000 3.484
72.72000 5.334
72.74000 3.541
72.76000 2.510
72.78000 2.020
72.80000 1.337
72.82000 -0.686
72.84000 1.602
72.86000 0.613
72.88000 3.164
72.90000 5.772
72.92000 4.005
72.94000 2.014
72.96000 4.117
72.98000 4.227
73.00000 2.563
73.02000 -0.183
73.04000 2.053
73.06000 0.528
73.08000 -1.474
73.10000 -2.193
73.12000 0.387
73.14000 3.033
73.16000 3.341
73.18000 3.200
73.20000 1.875
73.22000 4.288
73.24000 4.069
73.26000 3.743
73.28000 2.257
73.30000 -0.318
73.32000 -2.191
73.34000 1.997
73.36000 2.950
73.38000 2.802
73.40000 1.549
73.42000 2.978
73.44000 4.278
73.46000 5.097
73.48000 1.835
73.50000 1.752
73.52000 3.343
73.54000 4.882
73.56000 4.452
73.58000 5.572
73.60000 4.142
73.62000 -0.828
73.64000 -1.675
73.66000 1.040
73.68000 1.420
73.70000 1.964
73.72000 -0.891
73.74000 2.518
73.76000 3.018
73.78000 3.518
73.80000 3.518
73.82000 6.580
73.84000 3.840
73.86000 2.156
73.88000 3.404
73.90000 4.163
73.92000 1.453
73.94000 -0.022
73.96000 0.601
73.98000 2.027
74.00000 1.464
74.02000 1.790
74.04000 3.001
74.06000 4.809
74.08000 0.747
74.10000 -0.407
74.12000 1.824
74.14000 0.505
74.16000 3.541
74.18000 2.916
74.20000 5.247
74.22000 4.350
74.24000 4.006
74.26000 3.154
74.28000 1.282
74.30000 1.425
74.32000 0.962
74.34000 0.640
74.36000 2.103
74.38000 0.591
74.40000 -0.646
74.42000 0.278
74.44000 2.558
74.46000 0.546
74.48000 -1.200
74.50000 3.336
74.52000 2.815
74.54000 2.680
74.56000 2.066
74.58000 3.125
74.60000 -0.633
74.62000 0.157
74.64000 3.748
74.66000 5.144
74.68000 3.998
74.70000 -0.485
74.72000 1.872
74.74000 3.193
74.76000 1.947
74.78000 0.913
74.80000 1.701
74.82000 2.977
74.84000 7.366
74.86000 4.478
74.88000 4.234
74.90000 7.204
74.92000 4.571
74.94000 4.886
74.96000 4.264
74.98000 4.477
75.00000 5.853
75.02000 5.066
75.04000 4.437
75.06000 6.833
75.08000 10.254
75.10000 3.538
75.12000 5.306
75.14000 6.331
75.16000 5.945
75.18000 3.344
75.20000 -2.163
75.22000 0.560
75.24000 5.644
75.26000 2.183
75.28000 1.287
75.30000 6.120
75.32000 3.975
75.34000 5.490
75.36000 2.793
75.38000 2.118
75.40000 1.444
75.42000 6.324
75.44000 4.124
75.46000 1.982
75.48000 4.972
75.50000 7.520
75.52000 7.619
75.54000 6.080
75.56000 7.955
75.58000 4.053
75.60000 2.963
75.62000 5.626
75.64000 5.219
75.66000 -1.538
75.68000 2.195
75.70000 3.579
75.72000 6.821
75.74000 5.842
75.76000 2.697
75.78000 1.951
75.80000 -0.422
75.82000 0.929
75.84000 -1.646
75.86000 -1.021
75.88000 3.233
75.90000 2.302
75.92000 3.808
75.94000 1.438
75.96000 3.230
75.98000 5.797
76.00000 0.335
76.02000 -0.632
76.04000 2.346
76.06000 1.503
76.08000 -0.330
76.10000 4.633
76.12000 4.806
76.14000 0.734
76.16000 0.045
76.18000 3.213
76.20000 4.073
76.22000 2.141
76.24000 2.942
76.26000 4.487
76.28000 6.398
76.30000 5.653
76.32000 2.955
76.34000 2.091
76.36000 2.531
76.38000 2.855
76.40000 2.840
76.42000 2.814
76.44000 3.379
76.46000 1.328
76.48000 3.725
76.50000 1.766
76.52000 -2.199
76.54000 0.935
76.56000 2.642
76.58000 1.643
76.60000 2.112
76.62000 0.884
76.64000 -1.247
76.66000 -0.242
76.68000 0.656
76.70000 0.485
76.72000 1.840
76.74000 1.217
76.76000 1.898
76.78000 -0.944
76.80000 -0.078
76.82000 0.590
76.84000 3.999
76.86000 6.438
76.88000 6.597
76.90000 6.057
76.92000 4.237
76.94000 5.509
76.96000 4.896
76.98000 4.428
77.00000 3.289
77.02000 2.776
77.04000 5.506
77.06000 3.184
77.08000 5.460
77.10000 8.186
77.12000 4.639
77.14000 4.577
77.16000 1.846
77.18000 0.827
77.20000 5.059
77.22000 5.875
77.24000 2.560
77.26000 -0.810
77.28000 0.348
77.30000 0.952
77.32000 2.488
77.34000 2.639
77.36000 0.792
77.38000 4.470
77.40000 4.632
77.42000 6.359
77.44000 2.880
77.46000 4.353
77.48000 1.833
77.50000 0.134
77.52000 -0.453
77.54000 -0.526
77.56000 2.636
77.58000 0.360
77.60000 4.887
77.62000 1.412
77.64000 0.620
77.66000 1.295
77.68000 1.024
77.70000 0.259
77.72000 -0.277
77.74000 2.190
77.76000 0.932
77.78000 1.071
77.80000 4.984
77.82000 6.381
77.84000 -0.230
77.86000 -1.684
77.88000 2.280
77.90000 7.269
77.92000 4.852
77.94000 5.225
77.96000 1.931
77.98000 -0.240
78.00000 -2.216
78.02000 4.332
78.04000 2.587
78.06000 1.979
78.08000 -0.067
78.10000 4.415
78.12000 5.253
78.14000 3.814
78.16000 3.162
78.18000 2.515
78.20000 -1.012
78.22000 8.074
78.24000 2.325
78.26000 3.577
78.28000 4.038
78.30000 0.733
78.32000 -1.524
78.34000 -0.249
78.36000 -0.917
78.38000 2.250
78.40000 -1.735
78.42000 0.333
78.44000 6.023
78.46000 4.928
78.48000 1.171
78.50000 2.845
78.52000 -1.632
78.54000 1.390
78.56000 5.338
78.58000 4.102
78.60000 3.109
78.62000 3.970
78.64000 4.840
78.66000 5.057
78.68000 3.040
78.70000 3.829
78.72000 4.784
78.74000 5.712
78.76000 1.849
78.78000 -0.172
78.80000 -2.260
78.82000 -1.360
78.84000 -0.525
78.86000 -0.704
78.88000 -1.126
78.90000 -0.430
78.92000 -0.253
78.94000 -0.010
78.96000 2.618
78.98000 1.439
79.00000 -1.636
79.02000 -1.236
79.04000 2.226
79.06000 2.233
79.08000 1.697
79.10000 0.556
79.12000 4.014
79.14000 3.020
79.16000 1.290
79.18000 8.105
79.20000 8.187
79.22000 5.197
79.24000 1.385
79.26000 -0.039
79.28000 -0.749
79.30000 0.751
79.32000 4.378
79.34000 4.367
79.36000 0.163
79.38000 -2.281
79.40000 0.354
79.42000 0.086
79.44000 4.481
79.46000 2.921
79.48000 5.306
79.50000 3.474
79.52000 -0.621
79.54000 -2.130
79.56000 3.854
79.58000 6.857
79.60000 5.029
79.62000 4.326
79.64000 0.985
79.66000 0.487
79.68000 3.278
79.70000 4.047
79.72000 1.631
79.74000 -0.651
79.76000 -0.737
79.78000 -1.612
79.80000 -0.167
79.82000 3.329
79.84000 3.497
79.86000 -0.664
79.88000 -2.298
79.90000 1.637
79.92000 0.287
79.94000 1.207
79.96000 0.262
79.98000 0.191
80.00000 0.158
80.02000 0.792
80.04000 0.036
80.06000 0.589
80.08000 -1.131
80.10000 0.032
80.12000 -0.406
80.14000 1.029
80.16000 -0.296
80.18000 2.089
80.20000 1.671
80.22000 0.386
80.24000 0.248
80.26000 2.236
80.28000 1.928
80.30000 1.051
80.32000 3.672
80.34000 -1.105
80.36000 -1.641
80.38000 1.577
80.40000 -0.027
80.42000 0.665
80.44000 3.118
80.46000 2.594
80.48000 1.151
80.50000 2.847
80.52000 -2.033
80.54000 -1.358
80.56000 0.217
80.58000 -0.939
80.60000 -0.092
80.62000 0.934
80.64000 2.312
80.66000 1.054
80.68000 1.810
80.70000 2.656
80.72000 2.223
80.74000 4.901
80.76000 2.172
80.78000 -0.090
80.80000 1.928
80.82000 -0.304
80.84000 -0.295
80.86000 0.590
80.88000 3.952
80.90000 2.389
80.92000 -0.810
80.94000 4.374
80.96000 5.482
80.98000 -2.055
81.00000 -2.300
81.02000 0.020
81.04000 1.273
81.06000 4.457
81.08000 3.310
81.10000 1.675
81.12000 5.290
81.14000 4.772
81.16000 1.914
81.18000 1.894
81.20000 3.049
81.22000 4.007
81.24000 6.339
81.26000 2.737
81.28000 3.310
81.30000 4.533
81.32000 3.696
81.34000 -0.185
81.36000 1.408
81.38000 -2.369
81.40000 2.683
81.42000 4.866
81.44000 1.044
81.46000 3.748
81.48000 5.563
81.50000 5.588
81.52000 2.097
81.54000 5.565
81.56000 6.823
81.58000 6.856
81.60000 5.887
81.62000 6.656
81.64000 6.543
81.66000 4.930
81.68000 7.724
81.70000 9.206
81.72000 3.068
81.74000 1.374
81.76000 5.566
81.78000 8.370
81.80000 5.210
81.82000 8.904
81.84000 5.982
81.86000 4.972
81.88000 10.230
81.90000 16.368
81.92000 11.584
81.94000 12.923
81.96000 10.984
81.98000 11.319
82.00000 12.308
82.02000 14.184
82.04000 15.146
82.06000 15.368
82.08000 15.266
82.10000 13.330
82.12000 13.537
82.14000 12.374
82.16000 13.422
82.18000 13.946
82.20000 14.119
82.22000 16.290
82.24000 16.451
82.26000 16.949
82.28000 20.092
82.30000 19.461
82.32000 17.992
82.34000 15.258
82.36000 20.127
82.38000 17.941
82.40000 20.516
82.42000 25.327
82.44000 24.910
82.46000 25.665
82.48000 24.309
82.50000 21.553
82.52000 21.936
82.54000 28.563
82.56000 34.147
82.58000 29.293
82.60000 25.363
82.62000 24.691
82.64000 25.037
82.66000 25.945
82.68000 28.488
82.70000 29.615
82.72000 34.731
82.74000 33.819
82.76000 37.897
82.78000 38.165
82.80000 38.752
82.82000 39.512
82.84000 37.010
82.86000 40.221
82.88000 36.524
82.90000 30.503
82.92000 35.094
82.94000 38.841
82.96000 42.370
82.98000 43.524
83.00000 42.475
83.02000 41.279
83.04000 35.924
83.06000 33.351
83.08000 34.690
83.10000 36.471
83.12000 37.498
83.14000 39.469
83.16000 38.518
83.18000 35.645
83.20000 40.863
83.22000 37.296
83.24000 35.431
83.26000 34.671
83.28000 39.385
83.30000 40.253
83.32000 38.614
83.34000 35.859
83.36000 35.922
83.38000 33.982
83.40000 32.282
83.42000 30.531
83.44000 28.857
83.46000 26.413
83.48000 28.548
83.50000 29.984
83.52000 28.062
83.54000 25.758
83.56000 21.313
83.58000 21.335
83.60000 22.270
83.62000 31.269
83.64000 27.289
83.66000 26.136
83.68000 23.257
83.70000 21.541
83.72000 21.133
83.74000 19.243
83.76000 19.319
83.78000 16.907
83.80000 13.031
83.82000 12.805
83.84000 13.223
83.86000 15.356
83.88000 12.667
83.90000 6.920
83.92000 11.858
83.94000 11.410
83.96000 16.294
83.98000 15.806
84.00000 4.898
84.02000 5.579
84.04000 9.481
84.06000 13.870
84.08000 12.388
84.10000 11.491
84.12000 7.543
84.14000 11.406
84.16000 13.574
84.18000 14.603
84.20000 8.928
84.22000 10.321
84.24000 10.383
84.26000 7.352
84.28000 2.255
84.30000 4.257
84.32000 1.630
84.34000 4.457
84.36000 4.757
84.38000 2.330
84.40000 3.561
84.42000 4.281
84.44000 3.312
84.46000 3.353
84.48000 6.084
84.50000 6.510
84.52000 5.156
84.54000 1.619
84.56000 1.308
84.58000 1.249
84.60000 1.541
84.62000 3.662
84.64000 4.545
84.66000 3.968
84.68000 4.250
84.70000 0.260
84.72000 0.432
84.74000 4.832
84.76000 -0.109
84.78000 1.296
84.80000 1.872
84.82000 3.712
84.84000 2.162
84.86000 0.559
84.88000 1.899
84.90000 8.155
84.92000 5.549
84.94000 4.429
84.96000 2.941
84.98000 3.377
85.00000 1.031
85.02000 1.360
85.04000 1.559
85.06000 -2.309
85.08000 0.403
85.10000 0.909
85.12000 0.926
85.14000 0.162
85.16000 0.142
85.18000 1.217
85.20000 0.727
85.22000 1.989
85.24000 0.184
85.26000 0.349
85.28000 2.668
85.30000 1.539
85.32000 0.455
85.34000 1.862
85.36000 0.600
85.38000 2.307
85.40000 5.122
85.42000 1.911
85.44000 2.248
85.46000 -1.316
85.48000 -2.264
85.50000 -0.839
85.52000 0.541
85.54000 -2.281
85.56000 -0.736
85.58000 1.942
85.60000 -1.995
85.62000 1.163
85.64000 2.933
85.66000 -0.026
85.68000 0.172
85.70000 2.462
85.72000 4.231
85.74000 0.491
85.76000 0.318
85.78000 -0.367
85.80000 4.875
85.82000 4.453
85.84000 1.226
85.86000 0.019
85.88000 1.418
85.90000 3.698
85.92000 2.729
85.94000 3.724
85.96000 1.030
85.98000 2.444
86.00000 2.018
86.02000 1.962
86.04000 1.783
86.06000 5.030
86.08000 1.207
86.10000 -1.085
86.12000 -1.049
86.14000 -1.076
86.16000 -2.314
86.18000 -0.560
86.20000 3.836
86.22000 0.947
86.24000 3.701
86.26000 4.244
86.28000 1.993
86.30000 0.290
86.32000 -2.099
86.34000 0.381
86.36000 2.241
86.38000 4.720
86.40000 4.054
86.42000 1.755
86.44000 2.984
86.46000 7.595
86.48000 4.630
86.50000 8.616
86.52000 4.451
86.54000 0.702
86.56000 4.668
86.58000 5.353
86.60000 5.205
86.62000 5.441
86.64000 5.277
86.66000 4.757
86.68000 4.888
86.70000 7.150
86.72000 9.947
86.74000 7.591
86.76000 5.347
86.78000 10.135
86.80000 11.776
86.82000 7.202
86.84000 2.793
86.86000 7.936
86.88000 10.694
86.90000 13.315
86.92000 12.263
86.94000 10.436
86.96000 11.052
86.98000 7.532
87.00000 14.354
87.02000 17.410
87.04000 12.991
87.06000 14.803
87.08000 12.570
87.10000 13.255
87.12000 13.619
87.14000 17.759
87.16000 25.048
87.18000 21.601
87.20000 14.147
87.22000 16.760
87.24000 18.394
87.26000 21.719
87.28000 25.699
87.30000 18.945
87.32000 22.093
87.34000 21.299
87.36000 21.826
87.38000 16.088
87.40000 16.717
87.42000 18.420
87.44000 15.032
87.46000 18.477
87.48000 19.784
87.50000 19.885
87.52000 15.218
87.54000 17.657
87.56000 19.565
87.58000 22.217
87.60000 26.997
87.62000 25.545
87.64000 22.565
87.66000 19.504
87.68000 22.192
87.70000 22.139
87.72000 19.407
87.74000 17.734
87.76000 18.441
87.78000 17.411
87.80000 16.597
87.82000 17.818
87.84000 20.069
87.86000 15.793
87.88000 16.631
87.90000 16.775
87.92000 19.591
87.94000 14.374
87.96000 8.592
87.98000 12.875
88.00000 13.156
88.02000 7.686
88.04000 13.057
88.06000 11.822
88.08000 10.853
88.10000 12.828
88.12000 11.167
88.14000 8.887
88.16000 13.046
88.18000 5.541
88.20000 5.844
88.22000 8.870
88.24000 9.967
88.26000 8.389
88.28000 8.004
88.30000 6.995
88.32000 3.335
88.34000 1.162
88.36000 2.518
88.38000 6.037
88.40000 8.700
88.42000 6.817
88.44000 3.198
88.46000 1.722
88.48000 0.708
88.50000 7.099
88.52000 6.151
88.54000 8.214
88.56000 5.905
88.58000 4.654
88.60000 1.904
88.62000 3.038
88.64000 5.951
88.66000 6.995
88.68000 4.633
88.70000 8.359
88.72000 8.600
88.74000 8.006
88.76000 2.756
88.78000 0.419
88.80000 1.151
88.82000 5.248
88.84000 5.751
88.86000 5.372
88.88000 3.954
88.90000 4.595
88.92000 2.792
88.94000 6.594
88.96000 6.707
88.98000 7.869
89.00000 3.368
89.02000 1.845
89.04000 5.313
89.06000 6.855
89.08000 6.000
89.10000 4.509
89.12000 3.106
89.14000 3.674
89.16000 6.104
89.18000 7.323
89.20000 5.340
89.22000 3.543
89.24000 1.317
89.26000 3.741
89.28000 1.924
89.30000 2.631
89.32000 4.162
89.34000 5.205
89.36000 4.219
89.38000 2.429
89.40000 0.666
89.42000 -2.076
89.44000 0.726
89.46000 6.188
89.48000 3.294
89.50000 2.402
89.52000 4.737
89.54000 3.781
89.56000 5.071
89.58000 6.375
89.60000 7.839
89.62000 5.481
89.64000 1.452
89.66000 0.053
89.68000 2.712
89.70000 3.577
89.72000 2.812
89.74000 4.846
89.76000 4.261
89.78000 2.908
89.80000 0.815
89.82000 6.407
89.84000 5.418
89.86000 4.753
89.88000 4.995
89.90000 8.542
89.92000 3.234
89.94000 -0.868
89.96000 3.040
89.98000 6.257
90.00000 5.437
90.02000 4.847
90.04000 6.368
90.06000 6.993
90.08000 3.958
90.10000 4.755
90.12000 -1.381
90.14000 1.912
90.16000 -0.517
90.18000 1.549
90.20000 0.689
90.22000 -0.694
90.24000 -1.976
90.26000 0.558
90.28000 2.517
90.30000 2.505
90.32000 1.273
90.34000 0.286
90.36000 2.276
90.38000 2.119
90.40000 -1.771
90.42000 2.181
90.44000 -0.446
90.46000 -0.891
90.48000 3.306
90.50000 4.324
90.52000 0.460
90.54000 -0.012
90.56000 2.851
90.58000 4.735
90.60000 1.639
90.62000 0.159
90.64000 4.122
90.66000 1.809
90.68000 4.313
90.70000 3.811
90.72000 6.301
90.74000 0.601
90.76000 1.856
90.78000 -0.117
90.80000 2.651
90.82000 4.364
90.84000 0.678
90.86000 -0.515
90.88000 0.578
90.90000 -0.771
90.92000 0.311
90.94000 -1.076
90.96000 1.749
90.98000 2.651
91.00000 1.530
91.02000 2.859
91.04000 6.080
91.06000 6.141
91.08000 4.451
91.10000 6.235
91.12000 3.604
91.14000 -2.081
91.16000 0.390
91.18000 6.342
91.20000 2.212
91.22000 1.671
91.24000 5.595
91.26000 4.283
91.28000 3.966
91.30000 5.475
91.32000 6.397
91.34000 5.374
91.36000 4.500
91.38000 4.681
91.40000 3.158
91.42000 4.424
91.44000 2.577
91.46000 7.283
91.48000 7.026
91.50000 4.372
91.52000 2.280
91.54000 -0.173
91.56000 0.150
91.58000 3.014
91.60000 4.327
91.62000 2.503
91.64000 5.459
91.66000 4.108
91.68000 6.123
91.70000 10.317
91.72000 3.804
91.74000 2.072
91.76000 0.128
91.78000 3.217
91.80000 8.194
91.82000 7.282
91.84000 4.490
91.86000 5.480
91.88000 9.242
91.90000 9.912
91.92000 7.595
91.94000 6.115
91.96000 5.072
91.98000 1.811
92.00000 3.288
92.02000 1.811
92.04000 -2.051
92.06000 2.653
92.08000 3.855
92.10000 6.678
92.12000 4.709
92.14000 5.294
92.16000 7.164
92.18000 4.493
92.20000 7.966
92.22000 5.990
92.24000 5.269
92.26000 1.266
92.28000 0.172
92.30000 1.709
92.32000 4.552
92.34000 1.781
92.36000 3.816
92.38000 3.691
92.40000 4.252
92.42000 6.809
92.44000 2.358
92.46000 3.350
92.48000 5.839
92.50000 5.514
92.52000 0.744
92.54000 5.109
92.56000 4.367
92.58000 3.028
92.60000 3.166
92.62000 0.751
92.64000 0.300
92.66000 4.848
92.68000 6.304
92.70000 0.471
92.72000 1.556
92.74000 0.709
92.76000 5.746
92.78000 2.274
92.80000 -0.562
92.82000 1.253
92.84000 1.957
92.86000 -0.146
92.88000 3.999
92.90000 2.359
92.92000 4.458
92.94000 0.446
92.96000 2.507
92.98000 1.501
93.00000 2.922
93.02000 4.529
93.04000 3.894
93.06000 1.209
93.08000 3.669
93.10000 3.837
93.12000 -0.026
93.14000 3.395
93.16000 7.910
93.18000 3.527
93.20000 0.160
93.22000 1.149
93.24000 4.591
93.26000 -0.239
93.28000 0.754
93.30000 3.640
93.32000 1.424
93.34000 3.349
93.36000 0.875
93.38000 1.837
93.40000 3.193
93.42000 0.890
93.44000 4.495
93.46000 -0.063
93.48000 2.971
93.50000 2.740
93.52000 6.959
93.54000 3.313
93.56000 3.061
93.58000 3.596
93.60000 4.859
93.62000 0.632
93.64000 5.131
93.66000 3.369
93.68000 0.498
93.70000 2.173
93.72000 0.068
93.74000 1.309
93.76000 4.947
93.78000 4.610
93.80000 4.022
93.82000 1.367
93.84000 1.550
93.86000 1.198
93.88000 -2.112
93.90000 -1.577
93.92000 -0.390
93.94000 4.089
93.96000 5.431
93.98000 4.096
94.00000 8.708
94.02000 5.671
94.04000 1.023
94.06000 3.022
94.08000 2.549
94.10000 1.567
94.12000 1.351
94.14000 -0.829
94.16000 -0.435
94.18000 3.264
94.20000 -0.025
94.22000 1.851
94.24000 2.337
94.26000 1.507
94.28000 5.046
94.30000 7.143
94.32000 6.432
94.34000 2.679
94.36000 2.009
94.38000 5.189
94.40000 8.656
94.42000 2.993
94.44000 -0.204
94.46000 2.103
94.48000 4.427
94.50000 1.766
94.52000 -0.624
94.54000 -0.277
94.56000 -1.294
94.58000 1.267
94.60000 3.641
94.62000 6.030
94.64000 1.853
94.66000 2.876
94.68000 1.242
94.70000 -0.670
94.72000 0.307
94.74000 0.767
94.76000 2.071
94.78000 4.025
94.80000 6.169
94.82000 8.985
94.84000 2.580
94.86000 -0.611
94.88000 -1.000
94.90000 -0.562
94.92000 1.447
94.94000 0.879
94.96000 0.112
94.98000 -0.591
95.00000 4.143
95.02000 2.952
95.04000 5.231
95.06000 2.681
95.08000 2.543
95.10000 -0.949
95.12000 0.504
95.14000 4.472
95.16000 2.697
95.18000 1.771
95.20000 0.406
95.22000 3.757
95.24000 -2.136
95.26000 -0.188
95.28000 -1.204
95.30000 -0.726
95.32000 -0.512
95.34000 -1.668
95.36000 4.722
95.38000 5.481
95.40000 2.161
95.42000 3.411
95.44000 5.330
95.46000 -1.360
95.48000 -0.021
95.50000 0.963
95.52000 0.271
95.54000 3.088
95.56000 5.140
95.58000 3.918
95.60000 2.973
95.62000 5.638
95.64000 4.976
95.66000 0.224
95.68000 1.492
95.70000 6.152
95.72000 6.698
95.74000 3.725
95.76000 5.256
95.78000 1.047
95.80000 -2.114
95.82000 1.329
95.84000 10.904
95.86000 8.969
95.88000 5.871
95.90000 1.351
95.92000 4.522
95.94000 5.072
95.96000 4.155
95.98000 4.960
96.00000 4.078
96.02000 7.496
96.04000 5.798
96.06000 2.144
96.08000 4.005
96.10000 3.006
96.12000 -2.092
96.14000 0.753
96.16000 2.577
96.18000 6.321
96.20000 8.214
96.22000 5.842
96.24000 8.156
96.26000 8.399
96.28000 7.051
96.30000 6.044
96.32000 4.155
96.34000 4.574
96.36000 0.911
96.38000 2.418
96.40000 3.212
96.42000 6.177
96.44000 2.438
96.46000 0.984
96.48000 2.203
96.50000 1.293
96.52000 2.622
96.54000 5.028
96.56000 6.590
96.58000 7.489
96.60000 2.125
96.62000 4.306
96.64000 4.310
96.66000 6.564
96.68000 6.681
96.70000 3.458
96.72000 4.243
96.74000 6.103
96.76000 3.482
96.78000 2.783
96.80000 5.224
96.82000 10.253
96.84000 8.043
96.86000 2.577
96.88000 5.810
96.90000 6.412
96.92000 6.587
96.94000 3.452
96.96000 4.143
96.98000 6.617
97.00000 4.261
97.02000 7.039
97.04000 7.373
97.06000 5.855
97.08000 6.206
97.10000 1.797
97.12000 6.777
97.14000 2.248
97.16000 5.629
97.18000 4.960
97.20000 5.552
97.22000 8.181
97.24000 6.958
97.26000 7.720
97.28000 8.200
97.30000 8.621
97.32000 4.276
97.34000 1.871
97.36000 -2.047
97.38000 3.262
97.40000 6.884
97.42000 8.181
97.44000 5.961
97.46000 9.800
97.48000 5.384
97.50000 6.709
97.52000 8.073
97.54000 12.179
97.56000 8.491
97.58000 6.408
97.60000 6.201
97.62000 1.741
97.64000 3.572
97.66000 7.901
97.68000 7.229
97.70000 6.846
97.72000 1.573
97.74000 4.407
97.76000 1.923
97.78000 0.608
97.80000 3.265
97.82000 4.514
97.84000 3.627
97.86000 1.192
97.88000 -0.398
97.90000 0.594
97.92000 1.969
97.94000 8.938
97.96000 7.681
97.98000 2.848
98.00000 7.324
98.02000 7.002
98.04000 7.645
98.06000 7.733
98.08000 7.687
98.10000 0.337
98.12000 1.880
98.14000 8.524
98.16000 9.244
98.18000 7.171
98.20000 9.867
98.22000 8.650
98.24000 6.444
98.26000 -1.279
98.28000 2.256
98.30000 8.641
98.32000 9.840
98.34000 7.797
98.36000 4.549
98.38000 2.370
98.40000 -0.784
98.42000 2.557
98.44000 2.991
98.46000 3.260
98.48000 9.082
98.50000 6.891
98.52000 5.252
98.54000 2.117
98.56000 -2.058
98.58000 2.543
98.60000 -1.961
98.62000 1.891
98.64000 6.525
98.66000 3.698
98.68000 -0.518
98.70000 5.221
98.72000 3.615
98.74000 -0.952
98.76000 0.391
98.78000 0.357
98.80000 5.325
98.82000 8.882
98.84000 6.859
98.86000 7.402
98.88000 1.902
98.90000 -2.057
98.92000 1.879
98.94000 4.749
98.96000 6.521
98.98000 -0.223
99.00000 0.901
99.02000 8.699
99.04000 13.488
99.06000 6.996
99.08000 2.877
99.10000 8.883
99.12000 4.535
99.14000 1.512
99.16000 0.250
99.18000 2.057
99.20000 -2.067
99.22000 3.120
99.24000 8.258
99.26000 5.532
99.28000 5.852
99.30000 4.911
99.32000 6.809
99.34000 9.253
99.36000 -1.173
99.38000 4.736
99.40000 3.847
99.42000 3.245
99.44000 6.495
99.46000 9.624
99.48000 3.295
99.50000 5.521
99.52000 2.039
99.54000 8.222
99.56000 9.661
99.58000 -4.008
99.60000 0.914
99.62000 4.339
99.64000 11.480
99.66000 0.522
99.68000 0.258
99.70000 -2.091
99.72000 -1.856
99.74000 5.291
99.76000 4.615
99.78000 12.833
99.80000 10.970
99.82000 9.702
99.84000 1.515
99.86000 -5.447
99.88000 9.179
99.90000 3.400
99.92000 -0.367
99.94000 1.782
99.96000 -0.073
99.98000 0.000
