'Id: "0011387" Comment: "Integrate frame 0011387_Au-Ir-Rh_Rh-rich_XRD-Mapping-249-0000.gfrmwith cursor Wedge Cursor #5" Operator: "B?rgel" Anode: "Cu" Wavelength: "1.5406" Scantype: "2Theta (TwoTheta)" TimePerStep: "1" X: "-4.5" Y: "18" Z: "5.95" 
10.00000 0.000
10.02000 -4.355
10.04000 1.329
10.06000 -4.256
10.08000 -4.240
10.10000 6.293
10.12000 -0.048
10.14000 3.530
10.16000 9.885
10.18000 4.794
10.20000 19.923
10.22000 18.099
10.24000 3.514
10.26000 10.075
10.28000 16.163
10.30000 23.634
10.32000 8.962
10.34000 21.279
10.36000 1.209
10.38000 11.798
10.40000 22.285
10.42000 16.632
10.44000 13.023
10.46000 21.303
10.48000 24.835
10.50000 16.342
10.52000 11.690
10.54000 21.408
10.56000 14.673
10.58000 14.880
10.60000 15.536
10.62000 9.112
10.64000 26.859
10.66000 31.321
10.68000 14.296
10.70000 -4.247
10.72000 -1.236
10.74000 -2.952
10.76000 20.032
10.78000 26.290
10.80000 21.037
10.82000 22.461
10.84000 18.216
10.86000 19.787
10.88000 16.507
10.90000 19.150
10.92000 27.339
10.94000 22.884
10.96000 18.582
10.98000 14.647
11.00000 15.314
11.02000 11.778
11.04000 10.124
11.06000 17.420
11.08000 11.575
11.10000 12.030
11.12000 5.587
11.14000 11.069
11.16000 8.480
11.18000 11.169
11.20000 15.037
11.22000 20.369
11.24000 29.334
11.26000 9.796
11.28000 3.422
11.30000 2.048
11.32000 16.958
11.34000 14.695
11.36000 14.635
11.38000 1.961
11.40000 -0.694
11.42000 10.790
11.44000 12.645
11.46000 -0.245
11.48000 3.632
11.50000 8.671
11.52000 19.157
11.54000 9.768
11.56000 9.976
11.58000 4.124
11.60000 11.500
11.62000 18.778
11.64000 19.583
11.66000 17.802
11.68000 15.803
11.70000 11.791
11.72000 11.609
11.74000 7.770
11.76000 14.118
11.78000 17.686
11.80000 25.280
11.82000 12.578
11.84000 1.471
11.86000 5.693
11.88000 3.576
11.90000 2.030
11.92000 2.886
11.94000 7.714
11.96000 15.717
11.98000 13.367
12.00000 14.589
12.02000 6.400
12.04000 -2.186
12.06000 4.851
12.08000 8.756
12.10000 8.905
12.12000 16.095
12.14000 24.482
12.16000 24.172
12.18000 14.643
12.20000 2.609
12.22000 0.143
12.24000 0.118
12.26000 17.916
12.28000 19.106
12.30000 15.387
12.32000 13.514
12.34000 12.951
12.36000 17.560
12.38000 19.423
12.40000 18.511
12.42000 25.719
12.44000 18.627
12.46000 22.506
12.48000 15.109
12.50000 11.136
12.52000 12.693
12.54000 13.038
12.56000 18.861
12.58000 10.351
12.60000 13.899
12.62000 13.747
12.64000 14.636
12.66000 12.346
12.68000 4.748
12.70000 8.439
12.72000 4.709
12.74000 4.120
12.76000 14.039
12.78000 13.046
12.80000 12.800
12.82000 -1.321
12.84000 -1.232
12.86000 5.852
12.88000 5.032
12.90000 -4.468
12.92000 11.616
12.94000 15.724
12.96000 11.488
12.98000 12.063
13.00000 10.907
13.02000 11.439
13.04000 10.989
13.06000 7.863
13.08000 5.677
13.10000 12.098
13.12000 15.753
13.14000 19.656
13.16000 24.946
13.18000 22.158
13.20000 16.936
13.22000 11.734
13.24000 5.082
13.26000 -2.773
13.28000 -0.199
13.30000 17.101
13.32000 17.054
13.34000 7.463
13.36000 2.120
13.38000 1.392
13.40000 1.565
13.42000 6.816
13.44000 6.896
13.46000 7.923
13.48000 16.265
13.50000 19.589
13.52000 20.776
13.54000 15.150
13.56000 8.207
13.58000 10.536
13.60000 2.921
13.62000 3.553
13.64000 -3.332
13.66000 -0.560
13.68000 7.392
13.70000 10.291
13.72000 11.038
13.74000 10.051
13.76000 9.701
13.78000 6.462
13.80000 9.883
13.82000 8.502
13.84000 6.688
13.86000 2.203
13.88000 -0.223
13.90000 7.461
13.92000 16.748
13.94000 11.439
13.96000 1.545
13.98000 5.175
14.00000 10.197
14.02000 2.990
14.04000 8.791
14.06000 2.818
14.08000 5.659
14.10000 7.136
14.12000 6.997
14.14000 7.717
14.16000 7.686
14.18000 0.901
14.20000 3.652
14.22000 9.107
14.24000 10.876
14.26000 5.587
14.28000 4.228
14.30000 1.811
14.32000 4.795
14.34000 3.439
14.36000 6.589
14.38000 -4.429
14.40000 0.663
14.42000 1.358
14.44000 1.940
14.46000 1.256
14.48000 1.070
14.50000 0.643
14.52000 2.177
14.54000 7.227
14.56000 5.341
14.58000 10.493
14.60000 6.460
14.62000 3.691
14.64000 6.201
14.66000 9.636
14.68000 8.217
14.70000 9.250
14.72000 11.858
14.74000 3.527
14.76000 0.561
14.78000 1.423
14.80000 2.027
14.82000 -0.521
14.84000 -2.904
14.86000 0.388
14.88000 3.343
14.90000 14.517
14.92000 20.099
14.94000 7.435
14.96000 14.231
14.98000 10.325
15.00000 3.425
15.02000 1.761
15.04000 5.216
15.06000 8.703
15.08000 11.208
15.10000 -0.210
15.12000 -1.472
15.14000 2.649
15.16000 12.992
15.18000 10.480
15.20000 13.379
15.22000 4.888
15.24000 -4.489
15.26000 1.252
15.28000 6.106
15.30000 10.698
15.32000 3.109
15.34000 5.762
15.36000 1.369
15.38000 -4.485
15.40000 9.112
15.42000 11.304
15.44000 11.346
15.46000 6.387
15.48000 10.756
15.50000 8.984
15.52000 2.303
15.54000 -0.630
15.56000 2.637
15.58000 -1.323
15.60000 1.638
15.62000 -0.213
15.64000 5.248
15.66000 13.264
15.68000 10.041
15.70000 6.894
15.72000 8.562
15.74000 2.913
15.76000 5.395
15.78000 7.213
15.80000 5.440
15.82000 7.918
15.84000 10.450
15.86000 -2.926
15.88000 -2.725
15.90000 -2.721
15.92000 0.394
15.94000 1.630
15.96000 10.010
15.98000 2.508
16.00000 3.366
16.02000 3.084
16.04000 11.204
16.06000 5.783
16.08000 -2.822
16.10000 -1.087
16.12000 5.868
16.14000 4.504
16.16000 10.618
16.18000 15.566
16.20000 14.626
16.22000 11.414
16.24000 4.043
16.26000 7.725
16.28000 8.463
16.30000 4.442
16.32000 -2.085
16.34000 11.690
16.36000 4.214
16.38000 2.043
16.40000 -0.861
16.42000 1.536
16.44000 1.723
16.46000 5.721
16.48000 15.047
16.50000 16.772
16.52000 12.436
16.54000 18.407
16.56000 2.921
16.58000 -4.425
16.60000 1.616
16.62000 2.203
16.64000 2.857
16.66000 2.896
16.68000 6.623
16.70000 12.725
16.72000 16.812
16.74000 12.732
16.76000 3.421
16.78000 -4.014
16.80000 -3.116
16.82000 7.347
16.84000 1.952
16.86000 3.787
16.88000 6.093
16.90000 8.561
16.92000 4.113
16.94000 -1.661
16.96000 1.800
16.98000 -0.571
17.00000 10.955
17.02000 11.058
17.04000 4.123
17.06000 5.684
17.08000 10.518
17.10000 2.735
17.12000 7.334
17.14000 8.329
17.16000 6.978
17.18000 1.593
17.20000 1.769
17.22000 4.417
17.24000 10.772
17.26000 10.552
17.28000 2.073
17.30000 6.422
17.32000 5.853
17.34000 13.256
17.36000 6.986
17.38000 -0.072
17.40000 2.067
17.42000 4.388
17.44000 2.233
17.46000 5.961
17.48000 -2.628
17.50000 3.652
17.52000 2.903
17.54000 7.076
17.56000 7.377
17.58000 -0.473
17.60000 -2.653
17.62000 3.481
17.64000 2.352
17.66000 -1.159
17.68000 4.756
17.70000 9.471
17.72000 7.926
17.74000 9.359
17.76000 8.364
17.78000 9.927
17.80000 8.139
17.82000 4.018
17.84000 2.038
17.86000 1.713
17.88000 0.493
17.90000 0.846
17.92000 2.836
17.94000 11.148
17.96000 8.850
17.98000 6.850
18.00000 -1.605
18.02000 7.037
18.04000 0.072
18.06000 -1.596
18.08000 2.824
18.10000 -1.769
18.12000 -2.572
18.14000 2.017
18.16000 5.335
18.18000 -0.618
18.20000 -3.022
18.22000 -3.594
18.24000 -3.762
18.26000 -1.217
18.28000 3.008
18.30000 0.090
18.32000 -1.380
18.34000 -0.484
18.36000 1.506
18.38000 1.063
18.40000 5.045
18.42000 9.405
18.44000 8.666
18.46000 -3.815
18.48000 -3.946
18.50000 -0.004
18.52000 0.440
18.54000 8.395
18.56000 4.946
18.58000 1.425
18.60000 3.437
18.62000 4.901
18.64000 2.493
18.66000 3.785
18.68000 5.855
18.70000 7.766
18.72000 3.609
18.74000 -4.295
18.76000 -2.981
18.78000 -1.294
18.80000 2.545
18.82000 1.585
18.84000 -3.458
18.86000 7.453
18.88000 13.175
18.90000 8.419
18.92000 7.357
18.94000 8.206
18.96000 4.757
18.98000 0.872
19.00000 -0.658
19.02000 2.585
19.04000 7.946
19.06000 7.403
19.08000 13.283
19.10000 5.364
19.12000 0.826
19.14000 -3.046
19.16000 4.895
19.18000 7.681
19.20000 12.260
19.22000 11.439
19.24000 2.501
19.26000 0.769
19.28000 4.882
19.30000 4.081
19.32000 7.021
19.34000 4.223
19.36000 0.125
19.38000 -0.742
19.40000 -0.441
19.42000 -0.872
19.44000 -1.699
19.46000 8.689
19.48000 11.188
19.50000 5.771
19.52000 1.985
19.54000 5.560
19.56000 11.022
19.58000 6.465
19.60000 3.918
19.62000 3.136
19.64000 1.878
19.66000 -1.587
19.68000 1.872
19.70000 5.543
19.72000 8.453
19.74000 2.345
19.76000 -4.229
19.78000 -4.128
19.80000 6.612
19.82000 6.371
19.84000 6.560
19.86000 8.859
19.88000 2.072
19.90000 3.400
19.92000 10.469
19.94000 5.470
19.96000 3.480
19.98000 4.779
20.00000 6.552
20.02000 7.490
20.04000 5.713
20.06000 6.622
20.08000 6.922
20.10000 10.778
20.12000 9.136
20.14000 2.609
20.16000 -0.254
20.18000 0.964
20.20000 2.764
20.22000 7.214
20.24000 8.286
20.26000 5.624
20.28000 3.325
20.30000 9.411
20.32000 7.443
20.34000 0.487
20.36000 1.624
20.38000 1.229
20.40000 4.016
20.42000 -0.419
20.44000 7.418
20.46000 9.943
20.48000 5.195
20.50000 3.170
20.52000 3.588
20.54000 7.898
20.56000 5.276
20.58000 4.479
20.60000 7.230
20.62000 7.543
20.64000 10.866
20.66000 12.489
20.68000 6.262
20.70000 3.068
20.72000 4.749
20.74000 6.626
20.76000 7.171
20.78000 6.273
20.80000 7.338
20.82000 5.856
20.84000 -4.185
20.86000 -4.183
20.88000 -0.118
20.90000 4.721
20.92000 11.080
20.94000 6.597
20.96000 2.753
20.98000 9.063
21.00000 5.434
21.02000 4.752
21.04000 2.773
21.06000 3.907
21.08000 4.092
21.10000 1.876
21.12000 6.708
21.14000 3.735
21.16000 3.381
21.18000 3.621
21.20000 2.005
21.22000 4.139
21.24000 9.018
21.26000 9.574
21.28000 2.073
21.30000 5.842
21.32000 8.588
21.34000 2.916
21.36000 3.501
21.38000 2.355
21.40000 5.839
21.42000 8.254
21.44000 8.959
21.46000 12.871
21.48000 10.362
21.50000 8.422
21.52000 8.071
21.54000 5.758
21.56000 1.379
21.58000 -1.064
21.60000 0.012
21.62000 7.843
21.64000 6.591
21.66000 7.057
21.68000 8.996
21.70000 1.176
21.72000 6.170
21.74000 7.236
21.76000 1.148
21.78000 -1.090
21.80000 11.173
21.82000 12.398
21.84000 13.165
21.86000 9.957
21.88000 8.228
21.90000 7.326
21.92000 12.047
21.94000 17.506
21.96000 9.235
21.98000 2.854
22.00000 7.682
22.02000 6.380
22.04000 -0.289
22.06000 -0.519
22.08000 0.420
22.10000 2.415
22.12000 0.643
22.14000 -4.085
22.16000 2.173
22.18000 3.477
22.20000 4.132
22.22000 8.821
22.24000 11.041
22.26000 5.940
22.28000 0.508
22.30000 2.443
22.32000 6.101
22.34000 10.008
22.36000 5.451
22.38000 11.163
22.40000 2.105
22.42000 2.700
22.44000 7.883
22.46000 11.039
22.48000 0.608
22.50000 -1.460
22.52000 -1.618
22.54000 2.646
22.56000 7.273
22.58000 11.384
22.60000 4.415
22.62000 0.688
22.64000 3.643
22.66000 1.512
22.68000 6.301
22.70000 3.325
22.72000 3.579
22.74000 2.115
22.76000 5.974
22.78000 1.926
22.80000 -0.674
22.82000 3.982
22.84000 1.514
22.86000 3.927
22.88000 0.433
22.90000 3.334
22.92000 5.971
22.94000 2.769
22.96000 3.856
22.98000 7.470
23.00000 5.660
23.02000 -2.051
23.04000 -0.926
23.06000 5.051
23.08000 5.440
23.10000 4.857
23.12000 3.961
23.14000 7.454
23.16000 8.380
23.18000 0.016
23.20000 -0.395
23.22000 0.413
23.24000 10.787
23.26000 7.888
23.28000 6.908
23.30000 1.958
23.32000 -2.501
23.34000 6.256
23.36000 3.716
23.38000 3.329
23.40000 0.342
23.42000 6.385
23.44000 4.737
23.46000 6.193
23.48000 5.175
23.50000 0.313
23.52000 2.022
23.54000 1.787
23.56000 -3.696
23.58000 -3.181
23.60000 -0.918
23.62000 -0.149
23.64000 1.095
23.66000 0.629
23.68000 0.914
23.70000 1.461
23.72000 1.139
23.74000 2.691
23.76000 1.378
23.78000 2.193
23.80000 3.984
23.82000 0.745
23.84000 -4.022
23.86000 -0.969
23.88000 3.398
23.90000 3.832
23.92000 7.158
23.94000 4.220
23.96000 3.884
23.98000 1.055
24.00000 5.842
24.02000 2.040
24.04000 -0.554
24.06000 7.069
24.08000 8.326
24.10000 5.096
24.12000 4.884
24.14000 5.591
24.16000 7.052
24.18000 6.331
24.20000 5.897
24.22000 1.063
24.24000 -0.300
24.26000 4.536
24.28000 1.962
24.30000 4.391
24.32000 8.237
24.34000 4.397
24.36000 2.650
24.38000 1.968
24.40000 3.446
24.42000 5.895
24.44000 1.415
24.46000 0.386
24.48000 3.335
24.50000 2.377
24.52000 0.363
24.54000 -0.174
24.56000 1.744
24.58000 0.544
24.60000 5.588
24.62000 1.130
24.64000 2.434
24.66000 7.982
24.68000 3.806
24.70000 -1.706
24.72000 4.276
24.74000 5.433
24.76000 2.338
24.78000 5.962
24.80000 8.166
24.82000 5.166
24.84000 1.976
24.86000 1.929
24.88000 2.547
24.90000 -1.335
24.92000 -3.965
24.94000 -0.857
24.96000 0.581
24.98000 1.449
25.00000 5.136
25.02000 -0.907
25.04000 -2.151
25.06000 1.944
25.08000 -0.427
25.10000 1.898
25.12000 1.152
25.14000 1.878
25.16000 3.373
25.18000 -1.471
25.20000 1.071
25.22000 3.518
25.24000 -1.078
25.26000 0.198
25.28000 1.836
25.30000 5.980
25.32000 6.939
25.34000 3.624
25.36000 3.465
25.38000 3.826
25.40000 7.701
25.42000 6.948
25.44000 5.036
25.46000 4.030
25.48000 8.220
25.50000 10.968
25.52000 5.592
25.54000 3.383
25.56000 8.274
25.58000 9.309
25.60000 4.951
25.62000 5.866
25.64000 7.810
25.66000 5.272
25.68000 7.299
25.70000 3.167
25.72000 3.839
25.74000 5.605
25.76000 4.333
25.78000 -0.940
25.80000 1.693
25.82000 2.720
25.84000 -2.217
25.86000 2.130
25.88000 4.680
25.90000 -1.040
25.92000 -3.907
25.94000 0.670
25.96000 3.299
25.98000 3.877
26.00000 4.488
26.02000 5.896
26.04000 0.688
26.06000 -0.561
26.08000 -3.672
26.10000 4.055
26.12000 2.095
26.14000 -0.402
26.16000 5.371
26.18000 6.015
26.20000 6.191
26.22000 7.290
26.24000 5.264
26.26000 3.837
26.28000 10.427
26.30000 6.797
26.32000 2.100
26.34000 6.002
26.36000 9.948
26.38000 10.088
26.40000 7.593
26.42000 1.800
26.44000 0.814
26.46000 0.354
26.48000 0.434
26.50000 -0.473
26.52000 2.841
26.54000 6.326
26.56000 6.024
26.58000 3.291
26.60000 3.925
26.62000 3.648
26.64000 -2.865
26.66000 -3.866
26.68000 -0.985
26.70000 1.978
26.72000 11.195
26.74000 10.298
26.76000 3.430
26.78000 6.161
26.80000 7.217
26.82000 11.593
26.84000 -0.609
26.86000 -3.851
26.88000 1.382
26.90000 4.645
26.92000 12.292
26.94000 7.913
26.96000 7.142
26.98000 2.059
27.00000 2.120
27.02000 6.533
27.04000 9.186
27.06000 5.364
27.08000 4.932
27.10000 4.491
27.12000 3.305
27.14000 -0.732
27.16000 6.744
27.18000 4.605
27.20000 3.154
27.22000 5.176
27.24000 5.449
27.26000 5.870
27.28000 3.312
27.30000 0.150
27.32000 2.691
27.34000 4.132
27.36000 4.032
27.38000 3.574
27.40000 10.731
27.42000 3.659
27.44000 3.738
27.46000 2.527
27.48000 2.596
27.50000 -0.676
27.52000 -1.033
27.54000 2.751
27.56000 4.972
27.58000 0.754
27.60000 -0.862
27.62000 -1.844
27.64000 1.373
27.66000 -1.337
27.68000 3.292
27.70000 7.428
27.72000 2.974
27.74000 3.174
27.76000 4.431
27.78000 3.082
27.80000 1.371
27.82000 -0.305
27.84000 -1.874
27.86000 1.171
27.88000 -2.697
27.90000 2.441
27.92000 7.193
27.94000 7.833
27.96000 6.275
27.98000 1.726
28.00000 -0.685
28.02000 -0.069
28.04000 -1.516
28.06000 6.815
28.08000 3.713
28.10000 -0.861
28.12000 -2.221
28.14000 -1.207
28.16000 -0.008
28.18000 2.167
28.20000 1.010
28.22000 -1.045
28.24000 -2.833
28.26000 -0.323
28.28000 3.864
28.30000 4.538
28.32000 6.126
28.34000 2.893
28.36000 -0.710
28.38000 -3.800
28.40000 1.077
28.42000 7.769
28.44000 2.060
28.46000 -1.305
28.48000 0.392
28.50000 7.105
28.52000 1.300
28.54000 0.832
28.56000 2.565
28.58000 3.275
28.60000 3.613
28.62000 4.125
28.64000 1.508
28.66000 5.543
28.68000 1.911
28.70000 0.532
28.72000 -3.776
28.74000 -0.903
28.76000 6.768
28.78000 2.612
28.80000 4.091
28.82000 2.738
28.84000 3.720
28.86000 5.491
28.88000 -0.213
28.90000 1.675
28.92000 1.475
28.94000 7.596
28.96000 6.889
28.98000 4.615
29.00000 4.398
29.02000 5.356
29.04000 2.177
29.06000 0.933
29.08000 2.240
29.10000 5.379
29.12000 2.950
29.14000 -0.833
29.16000 -1.847
29.18000 3.873
29.20000 0.995
29.22000 2.752
29.24000 4.288
29.26000 5.062
29.28000 8.353
29.30000 6.693
29.32000 2.873
29.34000 -3.720
29.36000 -2.026
29.38000 1.604
29.40000 2.357
29.42000 3.239
29.44000 2.366
29.46000 3.218
29.48000 2.277
29.50000 3.261
29.52000 7.764
29.54000 5.296
29.56000 1.703
29.58000 1.254
29.60000 1.341
29.62000 2.030
29.64000 -0.081
29.66000 -0.704
29.68000 2.877
29.70000 5.059
29.72000 2.203
29.74000 0.611
29.76000 3.426
29.78000 3.164
29.80000 5.284
29.82000 2.200
29.84000 -0.651
29.86000 1.787
29.88000 2.694
29.90000 2.596
29.92000 0.471
29.94000 4.383
29.96000 1.786
29.98000 0.943
30.00000 0.516
30.02000 -3.603
30.04000 -3.640
30.06000 1.593
30.08000 1.834
30.10000 4.090
30.12000 7.676
30.14000 9.586
30.16000 6.283
30.18000 0.558
30.20000 0.766
30.22000 4.889
30.24000 3.170
30.26000 0.967
30.28000 -3.694
30.30000 -3.514
30.32000 3.271
30.34000 6.298
30.36000 6.372
30.38000 3.040
30.40000 -0.185
30.42000 2.264
30.44000 6.182
30.46000 4.713
30.48000 9.958
30.50000 4.684
30.52000 -0.564
30.54000 3.241
30.56000 5.871
30.58000 4.502
30.60000 -1.781
30.62000 3.645
30.64000 5.513
30.66000 -2.451
30.68000 -0.570
30.70000 -0.772
30.72000 -3.408
30.74000 3.245
30.76000 1.093
30.78000 -3.060
30.80000 -2.823
30.82000 1.561
30.84000 2.896
30.86000 2.202
30.88000 1.921
30.90000 -0.255
30.92000 -1.720
30.94000 2.905
30.96000 5.007
30.98000 1.988
31.00000 4.775
31.02000 -1.437
31.04000 -3.508
31.06000 -2.282
31.08000 2.259
31.10000 -0.142
31.12000 -1.672
31.14000 2.440
31.16000 1.638
31.18000 4.247
31.20000 -0.393
31.22000 1.521
31.24000 4.121
31.26000 0.653
31.28000 -2.657
31.30000 1.174
31.32000 3.998
31.34000 6.140
31.36000 3.323
31.38000 2.473
31.40000 -3.617
31.42000 5.485
31.44000 6.476
31.46000 0.424
31.48000 0.708
31.50000 2.128
31.52000 3.296
31.54000 7.916
31.56000 4.458
31.58000 3.513
31.60000 0.105
31.62000 -2.203
31.64000 0.595
31.66000 0.261
31.68000 -0.835
31.70000 1.448
31.72000 2.624
31.74000 6.734
31.76000 6.417
31.78000 3.530
31.80000 1.921
31.82000 0.535
31.84000 4.702
31.86000 3.189
31.88000 1.387
31.90000 2.747
31.92000 2.171
31.94000 2.019
31.96000 -1.454
31.98000 2.502
32.00000 6.723
32.02000 2.205
32.04000 0.455
32.06000 0.359
32.08000 5.745
32.10000 10.183
32.12000 3.758
32.14000 3.318
32.16000 7.181
32.18000 0.513
32.20000 3.487
32.22000 5.643
32.24000 3.527
32.26000 4.228
32.28000 5.046
32.30000 1.875
32.32000 2.456
32.34000 3.128
32.36000 4.304
32.38000 4.912
32.40000 4.306
32.42000 2.949
32.44000 -2.552
32.46000 -3.606
32.48000 1.469
32.50000 0.188
32.52000 -2.388
32.54000 0.611
32.56000 3.064
32.58000 3.747
32.60000 0.997
32.62000 0.486
32.64000 0.033
32.66000 -0.294
32.68000 0.009
32.70000 1.710
32.72000 2.411
32.74000 -1.083
32.76000 4.742
32.78000 3.048
32.80000 1.312
32.82000 1.131
32.84000 3.535
32.86000 -1.029
32.88000 1.373
32.90000 0.754
32.92000 0.553
32.94000 7.455
32.96000 6.311
32.98000 2.884
33.00000 1.938
33.02000 6.654
33.04000 2.450
33.06000 0.669
33.08000 -0.073
33.10000 1.180
33.12000 4.931
33.14000 5.131
33.16000 3.651
33.18000 0.168
33.20000 5.001
33.22000 2.737
33.24000 3.495
33.26000 0.082
33.28000 4.006
33.30000 6.447
33.32000 3.256
33.34000 6.578
33.36000 6.935
33.38000 1.460
33.40000 -1.657
33.42000 -0.985
33.44000 1.390
33.46000 6.706
33.48000 5.839
33.50000 3.454
33.52000 5.442
33.54000 1.621
33.56000 1.552
33.58000 -3.337
33.60000 -3.554
33.62000 -1.910
33.64000 6.015
33.66000 5.729
33.68000 1.390
33.70000 2.414
33.72000 5.705
33.74000 9.198
33.76000 7.664
33.78000 3.906
33.80000 5.454
33.82000 5.771
33.84000 7.033
33.86000 9.344
33.88000 6.111
33.90000 4.306
33.92000 2.248
33.94000 -1.360
33.96000 1.389
33.98000 1.633
34.00000 -0.652
34.02000 2.056
34.04000 -1.572
34.06000 2.616
34.08000 7.547
34.10000 9.660
34.12000 7.712
34.14000 5.461
34.16000 3.143
34.18000 8.083
34.20000 3.134
34.22000 4.896
34.24000 3.808
34.26000 3.732
34.28000 -1.489
34.30000 3.300
34.32000 1.262
34.34000 1.658
34.36000 0.850
34.38000 3.011
34.40000 2.875
34.42000 -0.892
34.44000 2.967
34.46000 3.919
34.48000 1.871
34.50000 2.795
34.52000 -0.693
34.54000 0.220
34.56000 0.894
34.58000 2.603
34.60000 0.809
34.62000 0.636
34.64000 -0.037
34.66000 0.296
34.68000 -0.736
34.70000 -0.308
34.72000 -0.594
34.74000 1.047
34.76000 0.279
34.78000 -2.538
34.80000 -3.108
34.82000 1.007
34.84000 5.394
34.86000 6.202
34.88000 0.643
34.90000 -2.052
34.92000 2.345
34.94000 2.952
34.96000 -0.971
34.98000 1.894
35.00000 -1.035
35.02000 0.110
35.04000 -2.357
35.06000 0.211
35.08000 0.803
35.10000 -0.020
35.12000 -3.218
35.14000 -3.532
35.16000 -0.199
35.18000 0.334
35.20000 -0.391
35.22000 -1.528
35.24000 -3.549
35.26000 -0.806
35.28000 -0.353
35.30000 -0.155
35.32000 -1.937
35.34000 -0.178
35.36000 2.861
35.38000 2.960
35.40000 8.059
35.42000 0.680
35.44000 1.042
35.46000 5.454
35.48000 3.113
35.50000 0.647
35.52000 0.452
35.54000 3.470
35.56000 7.598
35.58000 4.966
35.60000 2.523
35.62000 -0.001
35.64000 -3.260
35.66000 0.319
35.68000 -3.050
35.70000 -3.269
35.72000 -2.935
35.74000 0.118
35.76000 3.205
35.78000 5.653
35.80000 2.970
35.82000 0.675
35.84000 0.355
35.86000 3.036
35.88000 1.913
35.90000 1.228
35.92000 2.970
35.94000 0.725
35.96000 -2.552
35.98000 -3.564
36.00000 -1.521
36.02000 -0.276
36.04000 2.544
36.06000 2.355
36.08000 2.846
36.10000 0.739
36.12000 -1.203
36.14000 1.461
36.16000 -0.483
36.18000 3.165
36.20000 6.981
36.22000 5.804
36.24000 4.461
36.26000 1.176
36.28000 0.009
36.30000 -1.775
36.32000 -0.265
36.34000 2.973
36.36000 1.724
36.38000 -1.282
36.40000 1.468
36.42000 1.182
36.44000 -1.095
36.46000 -0.381
36.48000 1.099
36.50000 -0.018
36.52000 1.469
36.54000 -0.019
36.56000 1.607
36.58000 0.800
36.60000 -0.438
36.62000 -3.575
36.64000 -1.752
36.66000 2.044
36.68000 4.212
36.70000 0.766
36.72000 2.086
36.74000 3.953
36.76000 -2.467
36.78000 0.124
36.80000 2.810
36.82000 7.046
36.84000 4.786
36.86000 -0.982
36.88000 6.539
36.90000 7.247
36.92000 0.063
36.94000 -0.663
36.96000 -3.574
36.98000 0.007
37.00000 1.500
37.02000 0.984
37.04000 -0.535
37.06000 -2.482
37.08000 -2.749
37.10000 -1.746
37.12000 -1.830
37.14000 -1.849
37.16000 1.824
37.18000 4.644
37.20000 3.252
37.22000 4.281
37.24000 5.322
37.26000 5.856
37.28000 -0.357
37.30000 -1.752
37.32000 -2.919
37.34000 2.671
37.36000 3.655
37.38000 4.493
37.40000 0.266
37.42000 -0.336
37.44000 2.022
37.46000 5.646
37.48000 7.085
37.50000 3.781
37.52000 2.605
37.54000 5.865
37.56000 7.549
37.58000 3.769
37.60000 2.413
37.62000 1.278
37.64000 4.842
37.66000 3.333
37.68000 1.637
37.70000 4.654
37.72000 6.455
37.74000 8.051
37.76000 4.849
37.78000 4.942
37.80000 9.821
37.82000 9.728
37.84000 5.782
37.86000 9.857
37.88000 10.517
37.90000 7.861
37.92000 10.238
37.94000 10.542
37.96000 9.616
37.98000 10.951
38.00000 8.517
38.02000 6.867
38.04000 9.790
38.06000 10.885
38.08000 12.001
38.10000 10.200
38.12000 10.061
38.14000 13.463
38.16000 16.132
38.18000 16.789
38.20000 16.679
38.22000 17.667
38.24000 16.812
38.26000 18.342
38.28000 18.598
38.30000 17.733
38.32000 19.691
38.34000 21.212
38.36000 21.483
38.38000 24.778
38.40000 23.371
38.42000 21.624
38.44000 27.070
38.46000 28.346
38.48000 21.576
38.50000 20.941
38.52000 28.068
38.54000 27.410
38.56000 26.132
38.58000 30.022
38.60000 32.232
38.62000 29.751
38.64000 30.303
38.66000 30.246
38.68000 31.096
38.70000 34.908
38.72000 33.265
38.74000 34.855
38.76000 34.414
38.78000 39.729
38.80000 44.280
38.82000 47.031
38.84000 50.253
38.86000 45.517
38.88000 47.790
38.90000 49.993
38.92000 49.556
38.94000 50.820
38.96000 54.633
38.98000 62.021
39.00000 65.542
39.02000 65.727
39.04000 63.587
39.06000 71.303
39.08000 79.138
39.10000 74.826
39.12000 80.861
39.14000 81.102
39.16000 85.932
39.18000 93.797
39.20000 98.632
39.22000 98.836
39.24000 105.045
39.26000 115.113
39.28000 120.491
39.30000 117.906
39.32000 117.263
39.34000 122.355
39.36000 125.836
39.38000 137.428
39.40000 152.698
39.42000 160.818
39.44000 167.349
39.46000 168.105
39.48000 179.671
39.50000 190.537
39.52000 202.963
39.54000 207.497
39.56000 224.257
39.58000 231.472
39.60000 248.353
39.62000 260.047
39.64000 268.952
39.66000 285.352
39.68000 302.834
39.70000 315.597
39.72000 333.529
39.74000 344.742
39.76000 362.048
39.78000 382.213
39.80000 396.624
39.82000 415.432
39.84000 436.907
39.86000 457.650
39.88000 479.236
39.90000 499.654
39.92000 516.369
39.94000 536.563
39.96000 554.144
39.98000 588.468
40.00000 598.824
40.02000 611.018
40.04000 627.511
40.06000 643.972
40.08000 640.683
40.10000 665.784
40.12000 689.268
40.14000 684.148
40.16000 687.033
40.18000 695.465
40.20000 693.767
40.22000 696.381
40.24000 688.968
40.26000 684.489
40.28000 675.973
40.30000 672.816
40.32000 659.973
40.34000 647.296
40.36000 634.551
40.38000 614.022
40.40000 597.569
40.42000 586.593
40.44000 571.057
40.46000 543.457
40.48000 529.965
40.50000 509.473
40.52000 492.669
40.54000 469.607
40.56000 448.166
40.58000 434.117
40.60000 408.086
40.62000 394.099
40.64000 379.339
40.66000 354.412
40.68000 336.626
40.70000 318.384
40.72000 306.300
40.74000 292.882
40.76000 274.338
40.78000 265.713
40.80000 246.869
40.82000 234.012
40.84000 225.478
40.86000 213.756
40.88000 196.509
40.90000 188.666
40.92000 179.058
40.94000 168.627
40.96000 161.949
40.98000 153.334
41.00000 141.342
41.02000 127.559
41.04000 129.435
41.06000 119.786
41.08000 114.524
41.10000 104.931
41.12000 99.921
41.14000 97.064
41.16000 89.027
41.18000 93.569
41.20000 91.427
41.22000 78.315
41.24000 72.780
41.26000 70.764
41.28000 65.946
41.30000 64.381
41.32000 59.264
41.34000 62.497
41.36000 56.692
41.38000 54.412
41.40000 51.303
41.42000 47.460
41.44000 44.677
41.46000 44.046
41.48000 43.492
41.50000 38.922
41.52000 40.146
41.54000 34.261
41.56000 33.956
41.58000 32.070
41.60000 31.080
41.62000 29.944
41.64000 29.497
41.66000 21.634
41.68000 23.364
41.70000 26.234
41.72000 22.721
41.74000 22.669
41.76000 22.961
41.78000 21.131
41.80000 18.430
41.82000 15.942
41.84000 16.871
41.86000 18.277
41.88000 17.444
41.90000 18.889
41.92000 17.356
41.94000 11.931
41.96000 9.635
41.98000 12.501
42.00000 11.298
42.02000 12.368
42.04000 11.471
42.06000 11.047
42.08000 7.500
42.10000 8.786
42.12000 7.410
42.14000 8.549
42.16000 11.651
42.18000 5.979
42.20000 7.382
42.22000 6.962
42.24000 5.444
42.26000 6.866
42.28000 7.801
42.30000 11.538
42.32000 6.594
42.34000 5.563
42.36000 5.643
42.38000 9.044
42.40000 9.234
42.42000 8.802
42.44000 5.765
42.46000 3.509
42.48000 5.460
42.50000 5.490
42.52000 6.736
42.54000 9.351
42.56000 9.628
42.58000 5.390
42.60000 6.146
42.62000 6.160
42.64000 6.032
42.66000 5.923
42.68000 5.633
42.70000 -0.142
42.72000 2.128
42.74000 2.032
42.76000 0.670
42.78000 3.568
42.80000 5.685
42.82000 4.245
42.84000 3.812
42.86000 1.615
42.88000 0.012
42.90000 4.563
42.92000 4.857
42.94000 4.277
42.96000 5.609
42.98000 6.607
43.00000 1.983
43.02000 -3.416
43.04000 0.790
43.06000 3.804
43.08000 2.677
43.10000 0.752
43.12000 0.603
43.14000 1.749
43.16000 5.269
43.18000 5.534
43.20000 -2.340
43.22000 2.019
43.24000 3.144
43.26000 -0.779
43.28000 -0.717
43.30000 0.715
43.32000 5.580
43.34000 5.730
43.36000 2.562
43.38000 -1.125
43.40000 -1.178
43.42000 -0.121
43.44000 2.006
43.46000 2.565
43.48000 5.557
43.50000 2.422
43.52000 -1.894
43.54000 -3.131
43.56000 -0.378
43.58000 -1.264
43.60000 -0.806
43.62000 2.479
43.64000 2.508
43.66000 1.924
43.68000 -1.564
43.70000 1.489
43.72000 2.224
43.74000 -2.987
43.76000 -3.357
43.78000 0.062
43.80000 2.123
43.82000 3.102
43.84000 3.853
43.86000 1.060
43.88000 1.478
43.90000 2.547
43.92000 3.297
43.94000 -0.701
43.96000 -1.259
43.98000 0.497
44.00000 -1.975
44.02000 -1.780
44.04000 -0.735
44.06000 3.216
44.08000 3.693
44.10000 -1.459
44.12000 0.222
44.14000 -0.855
44.16000 3.633
44.18000 2.551
44.20000 0.695
44.22000 6.729
44.24000 5.343
44.26000 2.775
44.28000 -0.426
44.30000 1.734
44.32000 0.151
44.34000 -1.823
44.36000 -0.062
44.38000 1.312
44.40000 -0.100
44.42000 -1.222
44.44000 -2.908
44.46000 -3.380
44.48000 -1.695
44.50000 1.343
44.52000 0.387
44.54000 -0.279
44.56000 3.377
44.58000 3.331
44.60000 5.044
44.62000 3.019
44.64000 -1.190
44.66000 -2.438
44.68000 -0.102
44.70000 5.445
44.72000 2.674
44.74000 -1.536
44.76000 0.323
44.78000 1.504
44.80000 -1.950
44.82000 -1.097
44.84000 -1.670
44.86000 5.946
44.88000 7.408
44.90000 1.792
44.92000 -0.085
44.94000 4.297
44.96000 5.866
44.98000 3.748
45.00000 5.774
45.02000 6.331
45.04000 6.426
45.06000 4.439
45.08000 6.068
45.10000 8.602
45.12000 5.649
45.14000 4.548
45.16000 7.902
45.18000 7.217
45.20000 5.746
45.22000 7.494
45.24000 5.163
45.26000 9.143
45.28000 9.283
45.30000 9.512
45.32000 8.331
45.34000 11.309
45.36000 11.570
45.38000 17.077
45.40000 18.362
45.42000 14.216
45.44000 17.907
45.46000 18.307
45.48000 13.482
45.50000 14.147
45.52000 17.912
45.54000 20.276
45.56000 22.525
45.58000 20.500
45.60000 23.297
45.62000 22.768
45.64000 23.032
45.66000 21.558
45.68000 20.777
45.70000 23.728
45.72000 21.075
45.74000 23.980
45.76000 28.731
45.78000 24.876
45.80000 30.293
45.82000 34.802
45.84000 34.461
45.86000 36.841
45.88000 35.526
45.90000 32.799
45.92000 30.987
45.94000 37.100
45.96000 45.602
45.98000 51.733
46.00000 53.414
46.02000 48.804
46.04000 49.257
46.06000 49.235
46.08000 53.399
46.10000 57.918
46.12000 58.481
46.14000 54.471
46.16000 54.906
46.18000 66.567
46.20000 71.470
46.22000 67.783
46.24000 68.305
46.26000 72.297
46.28000 84.111
46.30000 81.769
46.32000 81.703
46.34000 86.198
46.36000 83.112
46.38000 88.468
46.40000 94.055
46.42000 96.018
46.44000 92.818
46.46000 101.085
46.48000 102.796
46.50000 103.861
46.52000 106.929
46.54000 104.361
46.56000 107.869
46.58000 110.774
46.60000 111.475
46.62000 114.899
46.64000 116.650
46.66000 122.118
46.68000 120.176
46.70000 120.777
46.72000 125.142
46.74000 130.138
46.76000 136.269
46.78000 128.440
46.80000 127.227
46.82000 128.973
46.84000 128.967
46.86000 138.039
46.88000 130.669
46.90000 129.045
46.92000 132.896
46.94000 134.678
46.96000 128.206
46.98000 124.680
47.00000 122.738
47.02000 124.649
47.04000 118.788
47.06000 116.083
47.08000 113.354
47.10000 111.361
47.12000 109.516
47.14000 110.822
47.16000 111.910
47.18000 109.739
47.20000 100.984
47.22000 105.763
47.24000 96.202
47.26000 90.335
47.28000 82.623
47.30000 88.056
47.32000 88.635
47.34000 76.616
47.36000 78.998
47.38000 84.786
47.40000 80.249
47.42000 70.912
47.44000 69.955
47.46000 66.565
47.48000 62.169
47.50000 54.443
47.52000 57.031
47.54000 56.265
47.56000 57.190
47.58000 53.328
47.60000 45.042
47.62000 38.536
47.64000 41.719
47.66000 42.735
47.68000 42.233
47.70000 39.763
47.72000 36.059
47.74000 32.289
47.76000 33.847
47.78000 25.531
47.80000 19.422
47.82000 25.646
47.84000 30.350
47.86000 25.089
47.88000 20.800
47.90000 20.115
47.92000 18.466
47.94000 15.725
47.96000 11.237
47.98000 15.265
48.00000 12.629
48.02000 11.156
48.04000 10.455
48.06000 13.436
48.08000 14.287
48.10000 12.179
48.12000 9.413
48.14000 11.651
48.16000 11.717
48.18000 11.572
48.20000 3.115
48.22000 3.282
48.24000 3.624
48.26000 3.599
48.28000 3.903
48.30000 3.158
48.32000 2.348
48.34000 4.679
48.36000 5.424
48.38000 7.381
48.40000 9.492
48.42000 10.381
48.44000 7.258
48.46000 11.296
48.48000 9.125
48.50000 3.122
48.52000 0.500
48.54000 4.583
48.56000 0.336
48.58000 1.262
48.60000 3.687
48.62000 3.801
48.64000 1.164
48.66000 2.741
48.68000 -0.920
48.70000 -0.402
48.72000 2.700
48.74000 1.199
48.76000 0.532
48.78000 2.612
48.80000 2.215
48.82000 4.352
48.84000 -2.914
48.86000 1.026
48.88000 3.029
48.90000 2.564
48.92000 -0.346
48.94000 0.391
48.96000 0.041
48.98000 2.224
49.00000 2.355
49.02000 1.636
49.04000 5.424
49.06000 6.278
49.08000 5.860
49.10000 5.265
49.12000 5.862
49.14000 5.772
49.16000 5.724
49.18000 7.710
49.20000 3.089
49.22000 0.474
49.24000 -0.775
49.26000 1.128
49.28000 4.439
49.30000 7.211
49.32000 6.395
49.34000 4.238
49.36000 4.520
49.38000 6.802
49.40000 4.380
49.42000 9.847
49.44000 9.048
49.46000 1.695
49.48000 2.932
49.50000 0.198
49.52000 5.553
49.54000 5.529
49.56000 3.358
49.58000 4.397
49.60000 -0.131
49.62000 -2.808
49.64000 0.604
49.66000 2.701
49.68000 -0.727
49.70000 5.412
49.72000 1.755
49.74000 3.018
49.76000 0.518
49.78000 -2.268
49.80000 1.057
49.82000 3.520
49.84000 3.803
49.86000 4.437
49.88000 7.781
49.90000 4.733
49.92000 4.111
49.94000 4.362
49.96000 -2.763
49.98000 -0.172
50.00000 3.365
50.02000 6.605
50.04000 5.194
50.06000 2.521
50.08000 -0.155
50.10000 2.081
50.12000 1.578
50.14000 5.259
50.16000 7.148
50.18000 4.884
50.20000 6.014
50.22000 7.779
50.24000 6.085
50.26000 1.881
50.28000 -2.426
50.30000 -0.635
50.32000 4.136
50.34000 4.472
50.36000 3.243
50.38000 2.928
50.40000 5.251
50.42000 6.099
50.44000 3.006
50.46000 4.769
50.48000 0.482
50.50000 -1.212
50.52000 3.020
50.54000 2.016
50.56000 4.215
50.58000 3.847
50.60000 1.252
50.62000 1.552
50.64000 -2.561
50.66000 1.972
50.68000 4.567
50.70000 5.546
50.72000 3.836
50.74000 3.540
50.76000 1.968
50.78000 2.107
50.80000 2.302
50.82000 6.891
50.84000 8.910
50.86000 3.621
50.88000 3.791
50.90000 -0.475
50.92000 -0.200
50.94000 3.804
50.96000 3.014
50.98000 -2.699
51.00000 2.000
51.02000 7.026
51.04000 4.824
51.06000 2.165
51.08000 1.565
51.10000 0.587
51.12000 4.080
51.14000 2.802
51.16000 2.348
51.18000 2.224
51.20000 2.901
51.22000 0.999
51.24000 1.900
51.26000 1.143
51.28000 8.090
51.30000 4.892
51.32000 3.853
51.34000 -0.589
51.36000 -0.219
51.38000 -2.440
51.40000 0.850
51.42000 6.080
51.44000 8.291
51.46000 4.701
51.48000 4.625
51.50000 2.907
51.52000 2.698
51.54000 2.121
51.56000 0.619
51.58000 -0.407
51.60000 0.053
51.62000 -1.186
51.64000 3.125
51.66000 2.635
51.68000 1.213
51.70000 1.745
51.72000 0.598
51.74000 -0.527
51.76000 -0.120
51.78000 -0.356
51.80000 0.725
51.82000 2.148
51.84000 5.403
51.86000 3.832
51.88000 2.644
51.90000 2.466
51.92000 0.113
51.94000 1.710
51.96000 3.999
51.98000 4.071
52.00000 4.794
52.02000 3.746
52.04000 1.398
52.06000 -2.038
52.08000 1.301
52.10000 -0.996
52.12000 0.557
52.14000 0.862
52.16000 2.157
52.18000 2.706
52.20000 4.091
52.22000 -0.508
52.24000 3.858
52.26000 1.348
52.28000 4.708
52.30000 7.077
52.32000 2.271
52.34000 0.762
52.36000 0.904
52.38000 3.293
52.40000 0.749
52.42000 -2.025
52.44000 -2.659
52.46000 0.810
52.48000 5.321
52.50000 4.001
52.52000 4.979
52.54000 3.948
52.56000 6.415
52.58000 5.578
52.60000 5.346
52.62000 4.546
52.64000 2.479
52.66000 4.996
52.68000 8.543
52.70000 6.546
52.72000 3.689
52.74000 5.630
52.76000 5.561
52.78000 2.281
52.80000 0.800
52.82000 5.207
52.84000 4.235
52.86000 5.872
52.88000 4.159
52.90000 3.680
52.92000 -0.093
52.94000 5.938
52.96000 8.145
52.98000 6.867
53.00000 5.619
53.02000 1.331
53.04000 2.905
53.06000 9.987
53.08000 1.394
53.10000 -1.436
53.12000 2.851
53.14000 7.084
53.16000 4.820
53.18000 0.338
53.20000 0.170
53.22000 2.093
53.24000 2.341
53.26000 1.488
53.28000 2.165
53.30000 5.600
53.32000 4.154
53.34000 3.577
53.36000 2.489
53.38000 1.114
53.40000 -1.750
53.42000 -2.620
53.44000 1.582
53.46000 0.757
53.48000 1.451
53.50000 3.035
53.52000 5.971
53.54000 1.690
53.56000 -1.117
53.58000 1.034
53.60000 -0.086
53.62000 0.734
53.64000 0.530
53.66000 -0.941
53.68000 1.443
53.70000 2.199
53.72000 3.835
53.74000 5.209
53.76000 3.761
53.78000 5.355
53.80000 3.811
53.82000 1.711
53.84000 4.542
53.86000 1.239
53.88000 3.292
53.90000 1.202
53.92000 1.135
53.94000 0.523
53.96000 -0.645
53.98000 1.698
54.00000 2.193
54.02000 2.560
54.04000 3.246
54.06000 -2.593
54.08000 -0.700
54.10000 4.372
54.12000 4.967
54.14000 5.283
54.16000 1.768
54.18000 2.635
54.20000 3.916
54.22000 2.219
54.24000 0.807
54.26000 0.661
54.28000 1.212
54.30000 7.569
54.32000 5.497
54.34000 3.609
54.36000 4.305
54.38000 -0.610
54.40000 -1.335
54.42000 2.860
54.44000 4.814
54.46000 5.957
54.48000 6.049
54.50000 6.957
54.52000 6.329
54.54000 4.222
54.56000 4.433
54.58000 4.731
54.60000 3.163
54.62000 3.049
54.64000 0.998
54.66000 2.326
54.68000 0.603
54.70000 -1.049
54.72000 3.622
54.74000 3.939
54.76000 5.293
54.78000 4.139
54.80000 1.223
54.82000 5.836
54.84000 4.228
54.86000 4.650
54.88000 1.585
54.90000 1.086
54.92000 5.598
54.94000 3.502
54.96000 -2.575
54.98000 4.481
55.00000 5.158
55.02000 3.052
55.04000 4.042
55.06000 2.647
55.08000 3.833
55.10000 6.610
55.12000 8.433
55.14000 6.727
55.16000 2.895
55.18000 5.491
55.20000 3.305
55.22000 3.455
55.24000 6.246
55.26000 5.074
55.28000 4.186
55.30000 5.357
55.32000 3.387
55.34000 6.267
55.36000 2.491
55.38000 2.805
55.40000 7.179
55.42000 5.494
55.44000 1.676
55.46000 3.397
55.48000 4.769
55.50000 2.175
55.52000 4.070
55.54000 2.748
55.56000 1.775
55.58000 2.823
55.60000 4.109
55.62000 1.935
55.64000 2.055
55.66000 3.685
55.68000 1.468
55.70000 2.049
55.72000 0.945
55.74000 0.875
55.76000 1.116
55.78000 4.032
55.80000 5.642
55.82000 4.369
55.84000 2.236
55.86000 3.997
55.88000 6.446
55.90000 5.282
55.92000 3.060
55.94000 2.894
55.96000 4.446
55.98000 6.557
56.00000 2.907
56.02000 3.343
56.04000 5.601
56.06000 8.691
56.08000 2.797
56.10000 4.782
56.12000 3.289
56.14000 4.489
56.16000 4.429
56.18000 2.986
56.20000 1.284
56.22000 -2.534
56.24000 0.595
56.26000 0.087
56.28000 2.265
56.30000 5.325
56.32000 9.661
56.34000 6.308
56.36000 4.883
56.38000 6.321
56.40000 7.500
56.42000 4.798
56.44000 6.157
56.46000 2.376
56.48000 6.734
56.50000 1.293
56.52000 3.953
56.54000 7.816
56.56000 4.627
56.58000 -0.168
56.60000 -1.467
56.62000 1.469
56.64000 4.655
56.66000 5.405
56.68000 2.301
56.70000 -2.232
56.72000 -2.506
56.74000 1.413
56.76000 3.255
56.78000 3.118
56.80000 3.979
56.82000 4.920
56.84000 4.722
56.86000 7.621
56.88000 6.018
56.90000 4.393
56.92000 3.804
56.94000 4.529
56.96000 3.658
56.98000 4.856
57.00000 4.713
57.02000 0.092
57.04000 -0.131
57.06000 1.340
57.08000 0.877
57.10000 0.010
57.12000 4.928
57.14000 4.789
57.16000 -0.512
57.18000 -0.244
57.20000 1.323
57.22000 0.626
57.24000 5.694
57.26000 8.427
57.28000 0.991
57.30000 2.350
57.32000 4.752
57.34000 4.088
57.36000 5.143
57.38000 4.823
57.40000 0.648
57.42000 0.901
57.44000 3.697
57.46000 1.690
57.48000 -2.504
57.50000 3.391
57.52000 3.486
57.54000 0.668
57.56000 1.787
57.58000 0.335
57.60000 1.440
57.62000 5.948
57.64000 6.786
57.66000 6.426
57.68000 6.187
57.70000 5.319
57.72000 -0.424
57.74000 2.371
57.76000 5.047
57.78000 4.893
57.80000 8.326
57.82000 5.346
57.84000 2.567
57.86000 -1.169
57.88000 -2.111
57.90000 0.897
57.92000 3.219
57.94000 1.586
57.96000 5.142
57.98000 11.286
58.00000 8.365
58.02000 9.296
58.04000 2.582
58.06000 -0.216
58.08000 -0.161
58.10000 3.076
58.12000 6.185
58.14000 6.403
58.16000 5.874
58.18000 4.905
58.20000 3.353
58.22000 5.068
58.24000 2.394
58.26000 1.923
58.28000 4.241
58.30000 3.667
58.32000 2.099
58.34000 1.222
58.36000 2.250
58.38000 1.660
58.40000 4.904
58.42000 3.839
58.44000 2.601
58.46000 3.017
58.48000 1.839
58.50000 2.465
58.52000 5.176
58.54000 2.032
58.56000 -2.475
58.58000 2.381
58.60000 4.773
58.62000 3.580
58.64000 3.014
58.66000 3.053
58.68000 3.274
58.70000 1.196
58.72000 -0.096
58.74000 0.915
58.76000 -0.802
58.78000 5.051
58.80000 9.300
58.82000 7.082
58.84000 1.825
58.86000 1.740
58.88000 -1.099
58.90000 1.942
58.92000 -1.382
58.94000 1.121
58.96000 2.197
58.98000 -0.100
59.00000 2.236
59.02000 1.169
59.04000 1.464
59.06000 4.089
59.08000 4.560
59.10000 1.063
59.12000 2.520
59.14000 1.020
59.16000 -2.466
59.18000 0.080
59.20000 2.727
59.22000 1.874
59.24000 3.025
59.26000 3.316
59.28000 3.864
59.30000 6.193
59.32000 3.854
59.34000 5.159
59.36000 3.312
59.38000 5.879
59.40000 4.821
59.42000 2.387
59.44000 0.928
59.46000 -0.459
59.48000 0.819
59.50000 0.080
59.52000 1.379
59.54000 -1.231
59.56000 0.075
59.58000 2.396
59.60000 2.405
59.62000 1.965
59.64000 5.089
59.66000 2.968
59.68000 0.557
59.70000 0.659
59.72000 0.744
59.74000 0.621
59.76000 -0.491
59.78000 4.674
59.80000 5.794
59.82000 4.767
59.84000 2.763
59.86000 -2.464
59.88000 -2.333
59.90000 0.604
59.92000 1.954
59.94000 6.089
59.96000 4.492
59.98000 -0.526
60.00000 2.108
60.02000 2.055
60.04000 1.347
60.06000 1.429
60.08000 2.655
60.10000 5.502
60.12000 5.105
60.14000 2.924
60.16000 3.572
60.18000 1.962
60.20000 3.285
60.22000 3.264
60.24000 -0.535
60.26000 -2.225
60.28000 1.326
60.30000 4.169
60.32000 0.997
60.34000 0.710
60.36000 0.994
60.38000 1.037
60.40000 -0.645
60.42000 1.789
60.44000 -2.439
60.46000 0.768
60.48000 -0.170
60.50000 2.956
60.52000 5.307
60.54000 3.970
60.56000 2.203
60.58000 1.624
60.60000 1.525
60.62000 1.149
60.64000 1.637
60.66000 3.784
60.68000 5.042
60.70000 3.346
60.72000 1.370
60.74000 3.007
60.76000 0.967
60.78000 -2.429
60.80000 0.804
60.82000 1.476
60.84000 3.482
60.86000 6.143
60.88000 5.204
60.90000 2.603
60.92000 1.759
60.94000 1.630
60.96000 -0.609
60.98000 -0.375
61.00000 -1.275
61.02000 -1.919
61.04000 0.314
61.06000 2.739
61.08000 3.191
61.10000 3.193
61.12000 1.604
61.14000 0.338
61.16000 1.197
61.18000 -2.176
61.20000 3.304
61.22000 1.619
61.24000 1.403
61.26000 0.021
61.28000 3.437
61.30000 4.468
61.32000 0.612
61.34000 -1.996
61.36000 -1.598
61.38000 -2.110
61.40000 -1.994
61.42000 0.322
61.44000 -1.183
61.46000 -0.817
61.48000 1.328
61.50000 1.339
61.52000 1.363
61.54000 -1.565
61.56000 -0.519
61.58000 1.646
61.60000 1.617
61.62000 1.512
61.64000 0.269
61.66000 2.086
61.68000 2.496
61.70000 4.384
61.72000 0.618
61.74000 1.614
61.76000 3.149
61.78000 6.132
61.80000 0.003
61.82000 -2.183
61.84000 2.873
61.86000 1.759
61.88000 -0.570
61.90000 1.661
61.92000 4.757
61.94000 5.192
61.96000 3.675
61.98000 1.039
62.00000 -0.022
62.02000 0.656
62.04000 1.855
62.06000 0.405
62.08000 2.102
62.10000 3.571
62.12000 2.800
62.14000 0.938
62.16000 6.195
62.18000 3.823
62.20000 4.142
62.22000 2.856
62.24000 0.233
62.26000 -2.384
62.28000 1.024
62.30000 2.170
62.32000 2.975
62.34000 4.152
62.36000 4.683
62.38000 1.812
62.40000 2.002
62.42000 -0.698
62.44000 0.906
62.46000 1.995
62.48000 1.518
62.50000 2.213
62.52000 1.429
62.54000 -1.056
62.56000 0.898
62.58000 1.495
62.60000 1.570
62.62000 4.302
62.64000 3.865
62.66000 3.101
62.68000 4.884
62.70000 2.688
62.72000 1.543
62.74000 -0.268
62.76000 3.849
62.78000 6.044
62.80000 2.353
62.82000 2.530
62.84000 3.355
62.86000 -0.026
62.88000 1.562
62.90000 5.311
62.92000 4.113
62.94000 2.605
62.96000 5.006
62.98000 4.723
63.00000 4.693
63.02000 1.904
63.04000 0.017
63.06000 -2.358
63.08000 -0.488
63.10000 2.726
63.12000 4.811
63.14000 -0.044
63.16000 0.889
63.18000 2.667
63.20000 1.828
63.22000 2.398
63.24000 0.326
63.26000 0.424
63.28000 0.520
63.30000 5.123
63.32000 2.143
63.34000 3.229
63.36000 4.990
63.38000 1.421
63.40000 1.092
63.42000 0.398
63.44000 1.429
63.46000 0.553
63.48000 -0.690
63.50000 -1.432
63.52000 0.058
63.54000 2.013
63.56000 -0.962
63.58000 1.593
63.60000 0.957
63.62000 -0.506
63.64000 0.867
63.66000 -1.996
63.68000 -0.866
63.70000 -1.611
63.72000 0.436
63.74000 1.473
63.76000 -0.534
63.78000 1.355
63.80000 4.135
63.82000 2.413
63.84000 2.322
63.86000 1.486
63.88000 0.132
63.90000 3.770
63.92000 2.257
63.94000 1.014
63.96000 2.753
63.98000 2.605
64.00000 3.321
64.02000 -1.379
64.04000 -2.343
64.06000 0.393
64.08000 1.198
64.10000 3.577
64.12000 3.804
64.14000 1.164
64.16000 -1.116
64.18000 0.136
64.20000 -1.973
64.22000 -1.453
64.24000 1.615
64.26000 3.618
64.28000 6.957
64.30000 2.907
64.32000 1.475
64.34000 2.864
64.36000 -2.405
64.38000 0.364
64.40000 1.932
64.42000 2.208
64.44000 2.075
64.46000 3.334
64.48000 1.114
64.50000 -1.047
64.52000 0.417
64.54000 0.765
64.56000 -0.070
64.58000 3.314
64.60000 3.248
64.62000 1.704
64.64000 1.196
64.66000 0.471
64.68000 -0.902
64.70000 -0.176
64.72000 -0.684
64.74000 -1.307
64.76000 2.370
64.78000 3.524
64.80000 0.283
64.82000 0.117
64.84000 1.958
64.86000 1.856
64.88000 0.986
64.90000 3.100
64.92000 2.560
64.94000 2.347
64.96000 -0.367
64.98000 -0.757
65.00000 -1.282
65.02000 0.264
65.04000 0.085
65.06000 -0.589
65.08000 1.989
65.10000 2.544
65.12000 0.960
65.14000 -0.032
65.16000 -0.432
65.18000 0.591
65.20000 1.529
65.22000 0.739
65.24000 0.212
65.26000 -0.773
65.28000 0.242
65.30000 0.465
65.32000 1.310
65.34000 6.454
65.36000 3.209
65.38000 1.202
65.40000 0.665
65.42000 1.947
65.44000 0.508
65.46000 0.419
65.48000 -2.418
65.50000 -0.982
65.52000 2.218
65.54000 1.945
65.56000 -0.426
65.58000 1.316
65.60000 -2.416
65.62000 -2.237
65.64000 1.784
65.66000 1.612
65.68000 1.831
65.70000 2.414
65.72000 3.826
65.74000 -0.324
65.76000 -1.415
65.78000 0.683
65.80000 2.438
65.82000 3.658
65.84000 2.851
65.86000 -0.857
65.88000 3.075
65.90000 2.750
65.92000 0.343
65.94000 1.694
65.96000 1.656
65.98000 3.469
66.00000 4.531
66.02000 1.796
66.04000 -0.439
66.06000 0.351
66.08000 1.764
66.10000 -1.837
66.12000 -2.447
66.14000 -1.095
66.16000 0.623
66.18000 2.212
66.20000 3.380
66.22000 1.460
66.24000 -1.587
66.26000 1.096
66.28000 2.482
66.30000 2.800
66.32000 4.528
66.34000 4.369
66.36000 4.561
66.38000 3.309
66.40000 1.404
66.42000 0.951
66.44000 3.378
66.46000 2.294
66.48000 2.852
66.50000 3.604
66.52000 1.130
66.54000 1.295
66.56000 3.270
66.58000 2.667
66.60000 3.045
66.62000 1.330
66.64000 -2.475
66.66000 -2.107
66.68000 3.251
66.70000 3.300
66.72000 3.705
66.74000 6.873
66.76000 4.862
66.78000 3.227
66.80000 3.581
66.82000 3.255
66.84000 2.444
66.86000 1.792
66.88000 0.052
66.90000 0.858
66.92000 2.247
66.94000 3.049
66.96000 2.721
66.98000 2.844
67.00000 6.188
67.02000 6.804
67.04000 5.319
67.06000 2.216
67.08000 5.406
67.10000 4.365
67.12000 4.939
67.14000 4.772
67.16000 3.076
67.18000 3.500
67.20000 7.725
67.22000 5.811
67.24000 4.029
67.26000 4.027
67.28000 7.046
67.30000 8.301
67.32000 9.953
67.34000 11.006
67.36000 8.761
67.38000 8.368
67.40000 9.082
67.42000 9.731
67.44000 8.145
67.46000 4.689
67.48000 7.069
67.50000 8.378
67.52000 8.058
67.54000 8.614
67.56000 14.441
67.58000 13.418
67.60000 14.466
67.62000 14.418
67.64000 12.931
67.66000 9.480
67.68000 9.932
67.70000 13.301
67.72000 12.452
67.74000 12.557
67.76000 15.656
67.78000 15.575
67.80000 18.682
67.82000 17.882
67.84000 19.624
67.86000 18.021
67.88000 21.205
67.90000 16.519
67.92000 17.391
67.94000 19.626
67.96000 17.236
67.98000 21.371
68.00000 25.409
68.02000 22.241
68.04000 22.631
68.06000 23.647
68.08000 22.673
68.10000 22.064
68.12000 23.449
68.14000 25.813
68.16000 29.162
68.18000 30.003
68.20000 27.066
68.22000 27.357
68.24000 28.594
68.26000 29.068
68.28000 29.960
68.30000 28.785
68.32000 24.642
68.34000 28.004
68.36000 27.404
68.38000 24.397
68.40000 26.034
68.42000 28.314
68.44000 29.607
68.46000 32.975
68.48000 35.052
68.50000 30.126
68.52000 29.444
68.54000 31.739
68.56000 32.945
68.58000 30.604
68.60000 29.811
68.62000 29.965
68.64000 28.934
68.66000 30.550
68.68000 27.244
68.70000 27.302
68.72000 27.463
68.74000 27.094
68.76000 20.097
68.78000 21.583
68.80000 23.255
68.82000 26.391
68.84000 24.360
68.86000 21.559
68.88000 23.613
68.90000 22.203
68.92000 19.160
68.94000 19.637
68.96000 16.751
68.98000 12.420
69.00000 11.295
69.02000 12.748
69.04000 14.356
69.06000 14.832
69.08000 15.387
69.10000 16.459
69.12000 16.277
69.14000 16.990
69.16000 15.475
69.18000 11.198
69.20000 10.164
69.22000 9.376
69.24000 8.723
69.26000 6.242
69.28000 9.463
69.30000 12.862
69.32000 8.036
69.34000 8.273
69.36000 7.385
69.38000 6.870
69.40000 7.836
69.42000 5.750
69.44000 3.066
69.46000 3.613
69.48000 3.412
69.50000 3.237
69.52000 5.246
69.54000 3.571
69.56000 3.354
69.58000 5.470
69.60000 6.430
69.62000 3.204
69.64000 0.809
69.66000 1.164
69.68000 2.673
69.70000 4.863
69.72000 3.064
69.74000 2.403
69.76000 4.035
69.78000 4.581
69.80000 3.899
69.82000 1.032
69.84000 3.196
69.86000 1.074
69.88000 0.909
69.90000 0.245
69.92000 -0.261
69.94000 -0.315
69.96000 -0.445
69.98000 0.879
70.00000 2.911
70.02000 3.482
70.04000 0.856
70.06000 -2.380
70.08000 0.003
70.10000 2.373
70.12000 1.898
70.14000 -0.199
70.16000 0.359
70.18000 0.565
70.20000 3.879
70.22000 1.805
70.24000 0.316
70.26000 0.601
70.28000 3.187
70.30000 -0.291
70.32000 1.179
70.34000 -1.497
70.36000 -1.875
70.38000 -1.000
70.40000 1.279
70.42000 -2.356
70.44000 0.034
70.46000 2.925
70.48000 1.697
70.50000 0.290
70.52000 -0.606
70.54000 -1.517
70.56000 -0.866
70.58000 0.666
70.60000 0.996
70.62000 1.844
70.64000 3.197
70.66000 2.214
70.68000 0.707
70.70000 -1.397
70.72000 0.687
70.74000 1.531
70.76000 3.221
70.78000 2.800
70.80000 -0.160
70.82000 3.282
70.84000 -0.233
70.86000 0.461
70.88000 3.142
70.90000 4.515
70.92000 4.862
70.94000 0.839
70.96000 1.528
70.98000 -1.020
71.00000 0.950
71.02000 -1.126
71.04000 -0.508
71.06000 0.032
71.08000 1.020
71.10000 2.149
71.12000 1.717
71.14000 1.313
71.16000 2.491
71.18000 5.567
71.20000 7.170
71.22000 1.079
71.24000 -2.290
71.26000 0.063
71.28000 2.356
71.30000 3.083
71.32000 1.783
71.34000 -0.196
71.36000 -0.102
71.38000 3.649
71.40000 2.301
71.42000 3.296
71.44000 2.078
71.46000 1.092
71.48000 5.188
71.50000 4.333
71.52000 5.739
71.54000 3.108
71.56000 4.134
71.58000 8.361
71.60000 6.095
71.62000 3.891
71.64000 4.002
71.66000 2.904
71.68000 -2.254
71.70000 -0.858
71.72000 5.960
71.74000 7.773
71.76000 3.902
71.78000 2.295
71.80000 4.743
71.82000 6.365
71.84000 6.493
71.86000 6.203
71.88000 8.090
71.90000 11.690
71.92000 6.437
71.94000 4.083
71.96000 2.910
71.98000 3.487
72.00000 2.458
72.02000 4.509
72.04000 3.382
72.06000 0.861
72.08000 1.603
72.10000 6.762
72.12000 8.544
72.14000 4.294
72.16000 4.080
72.18000 3.236
72.20000 5.980
72.22000 2.992
72.24000 2.464
72.26000 4.621
72.28000 4.688
72.30000 4.243
72.32000 3.940
72.34000 3.640
72.36000 3.965
72.38000 -0.381
72.40000 -2.228
72.42000 1.449
72.44000 2.228
72.46000 5.397
72.48000 4.456
72.50000 0.186
72.52000 0.502
72.54000 1.385
72.56000 -0.885
72.58000 2.649
72.60000 7.781
72.62000 5.824
72.64000 2.761
72.66000 2.013
72.68000 4.277
72.70000 3.212
72.72000 3.534
72.74000 5.048
72.76000 5.739
72.78000 4.828
72.80000 -2.206
72.82000 1.930
72.84000 5.740
72.86000 4.459
72.88000 2.459
72.90000 3.446
72.92000 3.727
72.94000 3.782
72.96000 3.902
72.98000 3.810
73.00000 3.448
73.02000 2.929
73.04000 5.526
73.06000 -2.218
73.08000 2.185
73.10000 4.795
73.12000 4.886
73.14000 3.407
73.16000 2.399
73.18000 0.879
73.20000 0.641
73.22000 4.773
73.24000 4.771
73.26000 0.842
73.28000 1.215
73.30000 4.741
73.32000 3.843
73.34000 0.671
73.36000 0.589
73.38000 -2.219
73.40000 -0.280
73.42000 4.321
73.44000 6.173
73.46000 0.367
73.48000 0.652
73.50000 2.326
73.52000 1.580
73.54000 4.127
73.56000 4.272
73.58000 3.786
73.60000 4.185
73.62000 4.110
73.64000 3.364
73.66000 2.452
73.68000 2.335
73.70000 0.853
73.72000 -0.768
73.74000 0.370
73.76000 3.230
73.78000 4.120
73.80000 3.840
73.82000 0.395
73.84000 2.121
73.86000 4.656
73.88000 3.523
73.90000 1.570
73.92000 0.702
73.94000 2.857
73.96000 3.937
73.98000 6.692
74.00000 1.885
74.02000 0.372
74.04000 1.507
74.06000 1.196
74.08000 5.115
74.10000 3.662
74.12000 8.409
74.14000 6.331
74.16000 -2.220
74.18000 -0.462
74.20000 -1.265
74.22000 0.492
74.24000 1.518
74.26000 2.829
74.28000 -0.218
74.30000 0.329
74.32000 2.450
74.34000 1.983
74.36000 6.064
74.38000 4.511
74.40000 0.162
74.42000 1.188
74.44000 2.540
74.46000 2.478
74.48000 0.538
74.50000 0.797
74.52000 3.231
74.54000 1.052
74.56000 1.079
74.58000 1.969
74.60000 -2.218
74.62000 -0.549
74.64000 0.336
74.66000 -0.872
74.68000 -1.487
74.70000 -1.143
74.72000 1.420
74.74000 4.511
74.76000 -0.027
74.78000 0.656
74.80000 1.155
74.82000 3.436
74.84000 5.262
74.86000 4.981
74.88000 0.479
74.90000 -1.088
74.92000 0.717
74.94000 0.778
74.96000 1.378
74.98000 0.140
75.00000 4.163
75.02000 0.447
75.04000 0.554
75.06000 1.033
75.08000 -0.595
75.10000 2.282
75.12000 0.765
75.14000 5.318
75.16000 1.937
75.18000 -0.890
75.20000 1.022
75.22000 1.356
75.24000 1.956
75.26000 2.776
75.28000 2.226
75.30000 4.163
75.32000 1.513
75.34000 3.521
75.36000 2.090
75.38000 3.888
75.40000 1.279
75.42000 0.761
75.44000 1.317
75.46000 -0.909
75.48000 -0.127
75.50000 3.530
75.52000 3.165
75.54000 1.970
75.56000 2.349
75.58000 -1.799
75.60000 2.952
75.62000 -1.430
75.64000 -2.224
75.66000 2.590
75.68000 3.440
75.70000 5.358
75.72000 2.485
75.74000 2.463
75.76000 3.306
75.78000 3.429
75.80000 2.409
75.82000 -2.221
75.84000 1.338
75.86000 6.886
75.88000 0.885
75.90000 3.892
75.92000 5.784
75.94000 2.315
75.96000 1.203
75.98000 0.208
76.00000 0.019
76.02000 -0.793
76.04000 0.987
76.06000 2.758
76.08000 2.249
76.10000 7.261
76.12000 5.827
76.14000 5.668
76.16000 0.367
76.18000 1.303
76.20000 2.022
76.22000 4.258
76.24000 5.373
76.26000 2.446
76.28000 2.402
76.30000 3.461
76.32000 3.694
76.34000 5.687
76.36000 4.124
76.38000 1.151
76.40000 2.669
76.42000 1.340
76.44000 1.515
76.46000 4.141
76.48000 5.557
76.50000 4.907
76.52000 0.249
76.54000 2.071
76.56000 1.304
76.58000 2.865
76.60000 2.859
76.62000 1.506
76.64000 -0.498
76.66000 4.249
76.68000 3.314
76.70000 1.898
76.72000 5.219
76.74000 3.935
76.76000 0.694
76.78000 2.728
76.80000 3.068
76.82000 6.049
76.84000 4.412
76.86000 1.514
76.88000 1.355
76.90000 3.612
76.92000 0.228
76.94000 -2.014
76.96000 -1.550
76.98000 1.044
77.00000 5.360
77.02000 6.553
77.04000 0.247
77.06000 -2.236
77.08000 1.110
77.10000 2.961
77.12000 5.349
77.14000 6.688
77.16000 0.938
77.18000 3.230
77.20000 1.158
77.22000 -0.076
77.24000 0.420
77.26000 0.695
77.28000 -1.650
77.30000 -1.764
77.32000 0.664
77.34000 -0.693
77.36000 -2.250
77.38000 -1.004
77.40000 -0.913
77.42000 3.317
77.44000 1.056
77.46000 0.262
77.48000 -0.633
77.50000 1.183
77.52000 0.342
77.54000 -0.619
77.56000 1.950
77.58000 1.094
77.60000 -0.484
77.62000 3.240
77.64000 6.011
77.66000 6.777
77.68000 0.931
77.70000 1.173
77.72000 4.548
77.74000 1.418
77.76000 1.300
77.78000 0.735
77.80000 1.991
77.82000 2.278
77.84000 1.045
77.86000 1.034
77.88000 5.292
77.90000 -1.612
77.92000 0.649
77.94000 -1.708
77.96000 -1.758
77.98000 3.289
78.00000 5.512
78.02000 6.385
78.04000 2.537
78.06000 -0.108
78.08000 -1.608
78.10000 1.028
78.12000 1.648
78.14000 2.784
78.16000 -2.114
78.18000 1.282
78.20000 0.179
78.22000 3.061
78.24000 0.521
78.26000 6.718
78.28000 1.555
78.30000 -1.315
78.32000 -0.975
78.34000 4.527
78.36000 3.944
78.38000 4.839
78.40000 1.198
78.42000 -0.238
78.44000 1.220
78.46000 2.267
78.48000 -0.137
78.50000 -1.945
78.52000 0.115
78.54000 0.711
78.56000 -0.714
78.58000 -2.285
78.60000 -0.151
78.62000 -1.010
78.64000 2.350
78.66000 6.186
78.68000 4.815
78.70000 1.474
78.72000 2.812
78.74000 4.255
78.76000 4.059
78.78000 0.818
78.80000 -1.753
78.82000 1.178
78.84000 2.904
78.86000 -0.497
78.88000 2.969
78.90000 2.374
78.92000 3.177
78.94000 -1.456
78.96000 1.403
78.98000 3.732
79.00000 3.425
79.02000 0.421
79.04000 -0.732
79.06000 0.920
79.08000 2.801
79.10000 2.394
79.12000 4.075
79.14000 0.052
79.16000 -1.437
79.18000 -0.486
79.20000 2.457
79.22000 1.471
79.24000 3.992
79.26000 -0.824
79.28000 2.165
79.30000 6.134
79.32000 2.812
79.34000 1.706
79.36000 3.309
79.38000 2.081
79.40000 2.099
79.42000 1.262
79.44000 4.478
79.46000 6.448
79.48000 0.722
79.50000 -1.383
79.52000 -0.016
79.54000 -2.294
79.56000 1.175
79.58000 1.587
79.60000 2.423
79.62000 6.648
79.64000 6.208
79.66000 9.689
79.68000 5.844
79.70000 5.328
79.72000 7.101
79.74000 3.582
79.76000 1.385
79.78000 2.639
79.80000 3.795
79.82000 7.218
79.84000 9.316
79.86000 3.066
79.88000 3.770
79.90000 7.907
79.92000 5.590
79.94000 4.886
79.96000 1.461
79.98000 -0.844
80.00000 4.643
80.02000 4.207
80.04000 2.395
80.06000 1.222
80.08000 -0.516
80.10000 -2.316
80.12000 4.687
80.14000 4.932
80.16000 4.040
80.18000 1.700
80.20000 3.981
80.22000 1.674
80.24000 4.489
80.26000 7.335
80.28000 3.580
80.30000 8.386
80.32000 8.696
80.34000 4.747
80.36000 0.856
80.38000 2.167
80.40000 3.576
80.42000 4.984
80.44000 4.024
80.46000 4.745
80.48000 2.431
80.50000 1.418
80.52000 5.575
80.54000 5.470
80.56000 4.897
80.58000 6.574
80.60000 2.918
80.62000 -0.457
80.64000 2.898
80.66000 1.868
80.68000 0.507
80.70000 3.784
80.72000 4.788
80.74000 4.251
80.76000 6.922
80.78000 6.350
80.80000 -0.096
80.82000 0.916
80.84000 5.554
80.86000 2.230
80.88000 1.600
80.90000 6.011
80.92000 6.163
80.94000 4.349
80.96000 5.642
80.98000 3.811
81.00000 1.527
81.02000 1.477
81.04000 4.257
81.06000 8.087
81.08000 6.879
81.10000 4.257
81.12000 3.127
81.14000 7.350
81.16000 8.549
81.18000 8.216
81.20000 7.353
81.22000 5.691
81.24000 6.394
81.26000 7.289
81.28000 6.570
81.30000 6.960
81.32000 5.888
81.34000 8.518
81.36000 8.486
81.38000 8.034
81.40000 8.956
81.42000 11.877
81.44000 9.580
81.46000 9.980
81.48000 10.964
81.50000 14.567
81.52000 16.042
81.54000 15.525
81.56000 13.417
81.58000 14.166
81.60000 18.154
81.62000 17.554
81.64000 14.735
81.66000 14.726
81.68000 19.732
81.70000 21.865
81.72000 19.381
81.74000 13.981
81.76000 15.615
81.78000 19.423
81.80000 18.985
81.82000 23.171
81.84000 25.061
81.86000 22.579
81.88000 19.606
81.90000 18.807
81.92000 22.483
81.94000 18.403
81.96000 22.834
81.98000 28.587
82.00000 27.571
82.02000 21.978
82.04000 24.500
82.06000 22.375
82.08000 23.030
82.10000 19.778
82.12000 23.877
82.14000 26.550
82.16000 26.975
82.18000 26.219
82.20000 26.096
82.22000 33.177
82.24000 35.241
82.26000 29.874
82.28000 34.076
82.30000 33.579
82.32000 36.190
82.34000 31.188
82.36000 34.751
82.38000 40.522
82.40000 38.335
82.42000 35.674
82.44000 34.718
82.46000 39.378
82.48000 38.454
82.50000 35.944
82.52000 34.082
82.54000 34.741
82.56000 37.520
82.58000 42.237
82.60000 36.090
82.62000 34.735
82.64000 34.976
82.66000 37.872
82.68000 37.006
82.70000 32.341
82.72000 29.983
82.74000 29.355
82.76000 33.654
82.78000 34.524
82.80000 38.129
82.82000 33.900
82.84000 34.961
82.86000 36.057
82.88000 36.537
82.90000 30.755
82.92000 31.653
82.94000 28.302
82.96000 27.770
82.98000 27.542
83.00000 24.437
83.02000 25.391
83.04000 22.620
83.06000 23.376
83.08000 28.419
83.10000 31.106
83.12000 24.252
83.14000 22.458
83.16000 25.684
83.18000 29.838
83.20000 22.317
83.22000 16.494
83.24000 20.163
83.26000 14.466
83.28000 17.472
83.30000 18.895
83.32000 13.345
83.34000 12.932
83.36000 16.296
83.38000 14.956
83.40000 15.293
83.42000 17.369
83.44000 12.922
83.46000 9.145
83.48000 12.685
83.50000 10.754
83.52000 9.976
83.54000 8.212
83.56000 11.592
83.58000 11.415
83.60000 10.416
83.62000 11.472
83.64000 10.659
83.66000 8.506
83.68000 6.547
83.70000 9.001
83.72000 3.073
83.74000 2.216
83.76000 0.660
83.78000 1.587
83.80000 4.649
83.82000 8.537
83.84000 8.231
83.86000 5.677
83.88000 0.748
83.90000 1.202
83.92000 4.617
83.94000 1.621
83.96000 5.843
83.98000 7.833
84.00000 10.393
84.02000 7.757
84.04000 2.781
84.06000 3.400
84.08000 1.469
84.10000 -1.602
84.12000 -0.742
84.14000 -1.825
84.16000 1.466
84.18000 6.511
84.20000 0.415
84.22000 2.115
84.24000 4.300
84.26000 -2.402
84.28000 0.934
84.30000 -0.075
84.32000 -1.490
84.34000 -0.239
84.36000 -2.168
84.38000 -0.221
84.40000 1.474
84.42000 0.416
84.44000 3.267
84.46000 4.050
84.48000 3.604
84.50000 -0.444
84.52000 1.632
84.54000 1.209
84.56000 3.481
84.58000 2.758
84.60000 -0.267
84.62000 0.656
84.64000 0.182
84.66000 4.776
84.68000 -0.825
84.70000 0.744
84.72000 -2.329
84.74000 -2.326
84.76000 3.181
84.78000 4.068
84.80000 1.084
84.82000 0.540
84.84000 2.518
84.86000 1.984
84.88000 4.660
84.90000 9.123
84.92000 5.128
84.94000 2.860
84.96000 5.807
84.98000 7.626
85.00000 3.171
85.02000 -0.192
85.04000 -0.770
85.06000 4.145
85.08000 7.751
85.10000 4.489
85.12000 4.772
85.14000 0.445
85.16000 3.693
85.18000 2.803
85.20000 3.787
85.22000 5.132
85.24000 5.066
85.26000 0.820
85.28000 0.191
85.30000 2.272
85.32000 0.745
85.34000 -2.311
85.36000 -1.804
85.38000 4.211
85.40000 5.750
85.42000 7.059
85.44000 5.316
85.46000 1.840
85.48000 0.345
85.50000 2.168
85.52000 3.692
85.54000 2.813
85.56000 4.158
85.58000 1.727
85.60000 1.225
85.62000 1.738
85.64000 3.784
85.66000 2.522
85.68000 0.788
85.70000 2.807
85.72000 6.358
85.74000 8.506
85.76000 8.515
85.78000 3.777
85.80000 3.063
85.82000 5.089
85.84000 7.893
85.86000 9.324
85.88000 9.718
85.90000 2.495
85.92000 1.617
85.94000 2.495
85.96000 7.608
85.98000 7.036
86.00000 7.276
86.02000 7.458
86.04000 6.712
86.06000 5.030
86.08000 8.918
86.10000 8.352
86.12000 10.439
86.14000 7.807
86.16000 6.089
86.18000 8.288
86.20000 8.488
86.22000 8.895
86.24000 8.967
86.26000 12.308
86.28000 13.706
86.30000 13.975
86.32000 12.935
86.34000 12.324
86.36000 13.052
86.38000 14.459
86.40000 14.679
86.42000 17.955
86.44000 19.089
86.46000 16.921
86.48000 16.938
86.50000 17.394
86.52000 15.238
86.54000 16.059
86.56000 18.842
86.58000 21.660
86.60000 18.793
86.62000 21.828
86.64000 20.599
86.66000 21.791
86.68000 20.911
86.70000 16.462
86.72000 18.648
86.74000 22.090
86.76000 21.417
86.78000 22.652
86.80000 22.575
86.82000 20.284
86.84000 18.833
86.86000 21.926
86.88000 24.049
86.90000 21.596
86.92000 23.469
86.94000 22.703
86.96000 19.929
86.98000 18.580
87.00000 19.957
87.02000 19.816
87.04000 16.549
87.06000 16.674
87.08000 16.382
87.10000 18.919
87.12000 16.433
87.14000 17.821
87.16000 16.670
87.18000 14.140
87.20000 14.165
87.22000 18.592
87.24000 20.050
87.26000 16.132
87.28000 15.584
87.30000 15.680
87.32000 11.773
87.34000 9.915
87.36000 12.365
87.38000 11.827
87.40000 12.123
87.42000 8.901
87.44000 7.499
87.46000 10.320
87.48000 9.985
87.50000 9.987
87.52000 12.047
87.54000 10.294
87.56000 11.447
87.58000 10.586
87.60000 10.842
87.62000 9.190
87.64000 10.834
87.66000 8.143
87.68000 7.243
87.70000 8.513
87.72000 4.251
87.74000 8.029
87.76000 7.866
87.78000 6.432
87.80000 3.931
87.82000 2.327
87.84000 3.841
87.86000 3.186
87.88000 5.077
87.90000 6.579
87.92000 4.065
87.94000 7.791
87.96000 5.976
87.98000 3.737
88.00000 3.376
88.02000 4.722
88.04000 -0.702
88.06000 0.409
88.08000 5.071
88.10000 6.451
88.12000 4.013
88.14000 4.727
88.16000 2.585
88.18000 2.704
88.20000 2.197
88.22000 2.401
88.24000 0.274
88.26000 1.988
88.28000 1.253
88.30000 3.211
88.32000 1.373
88.34000 -2.207
88.36000 -2.076
88.38000 3.020
88.40000 4.077
88.42000 3.284
88.44000 2.671
88.46000 4.739
88.48000 5.824
88.50000 6.528
88.52000 7.661
88.54000 1.949
88.56000 0.013
88.58000 -1.568
88.60000 5.829
88.62000 8.129
88.64000 3.055
88.66000 1.980
88.68000 0.439
88.70000 1.173
88.72000 2.807
88.74000 0.428
88.76000 1.589
88.78000 2.775
88.80000 4.371
88.82000 5.188
88.84000 1.729
88.86000 1.416
88.88000 1.382
88.90000 -1.892
88.92000 -0.347
88.94000 0.338
88.96000 2.897
88.98000 2.810
89.00000 4.759
89.02000 4.626
89.04000 8.002
89.06000 2.672
89.08000 -2.104
89.10000 2.392
89.12000 0.704
89.14000 1.281
89.16000 1.105
89.18000 3.775
89.20000 4.297
89.22000 3.474
89.24000 3.327
89.26000 3.410
89.28000 4.939
89.30000 3.215
89.32000 -0.428
89.34000 0.944
89.36000 2.087
89.38000 0.819
89.40000 3.073
89.42000 7.297
89.44000 6.339
89.46000 3.853
89.48000 2.248
89.50000 -1.151
89.52000 -1.889
89.54000 0.047
89.56000 5.249
89.58000 2.206
89.60000 1.294
89.62000 2.447
89.64000 0.667
89.66000 -0.671
89.68000 2.302
89.70000 1.512
89.72000 1.501
89.74000 1.486
89.76000 3.651
89.78000 -1.018
89.80000 -0.579
89.82000 9.248
89.84000 2.710
89.86000 1.873
89.88000 1.552
89.90000 0.355
89.92000 -0.654
89.94000 -2.096
89.96000 -0.805
89.98000 0.754
90.00000 -0.589
90.02000 -1.142
90.04000 0.192
90.06000 2.032
90.08000 1.079
90.10000 0.155
90.12000 7.676
90.14000 5.306
90.16000 2.204
90.18000 2.392
90.20000 2.092
90.22000 1.515
90.24000 2.561
90.26000 0.800
90.28000 0.444
90.30000 -0.540
90.32000 1.664
90.34000 4.539
90.36000 2.190
90.38000 3.121
90.40000 -0.779
90.42000 1.526
90.44000 -1.748
90.46000 -1.851
90.48000 0.849
90.50000 1.893
90.52000 2.164
90.54000 -1.673
90.56000 -1.099
90.58000 -0.223
90.60000 3.612
90.62000 1.035
90.64000 1.302
90.66000 1.293
90.68000 0.310
90.70000 -0.644
90.72000 0.178
90.74000 1.852
90.76000 -0.216
90.78000 2.806
90.80000 2.277
90.82000 2.300
90.84000 4.571
90.86000 2.166
90.88000 -0.733
90.90000 1.103
90.92000 -1.333
90.94000 -1.486
90.96000 -2.136
90.98000 0.214
91.00000 -1.507
91.02000 0.434
91.04000 4.287
91.06000 0.708
91.08000 0.090
91.10000 1.315
91.12000 1.384
91.14000 2.430
91.16000 -1.377
91.18000 1.988
91.20000 5.639
91.22000 4.952
91.24000 -1.044
91.26000 -2.102
91.28000 0.229
91.30000 5.482
91.32000 4.673
91.34000 2.607
91.36000 1.611
91.38000 0.894
91.40000 1.495
91.42000 3.692
91.44000 -0.912
91.46000 0.468
91.48000 0.413
91.50000 3.455
91.52000 2.075
91.54000 7.291
91.56000 3.880
91.58000 -0.249
91.60000 0.043
91.62000 0.354
91.64000 1.035
91.66000 1.422
91.68000 0.895
91.70000 -0.174
91.72000 1.393
91.74000 2.230
91.76000 2.491
91.78000 1.098
91.80000 1.002
91.82000 5.433
91.84000 3.668
91.86000 3.306
91.88000 -1.080
91.90000 0.789
91.92000 6.109
91.94000 4.845
91.96000 4.019
91.98000 3.978
92.00000 3.704
92.02000 3.760
92.04000 2.438
92.06000 0.628
92.08000 4.199
92.10000 5.638
92.12000 0.964
92.14000 4.549
92.16000 5.627
92.18000 2.431
92.20000 2.754
92.22000 2.901
92.24000 4.112
92.26000 4.903
92.28000 4.322
92.30000 7.389
92.32000 8.051
92.34000 3.353
92.36000 -2.058
92.38000 4.212
92.40000 5.733
92.42000 6.069
92.44000 5.798
92.46000 4.525
92.48000 3.581
92.50000 4.104
92.52000 4.895
92.54000 3.553
92.56000 3.288
92.58000 5.039
92.60000 2.827
92.62000 1.666
92.64000 1.493
92.66000 2.412
92.68000 2.069
92.70000 4.371
92.72000 4.773
92.74000 2.287
92.76000 3.925
92.78000 7.633
92.80000 5.364
92.82000 3.451
92.84000 0.058
92.86000 4.243
92.88000 3.261
92.90000 2.790
92.92000 3.035
92.94000 6.815
92.96000 1.481
92.98000 -1.606
93.00000 0.236
93.02000 -0.658
93.04000 6.996
93.06000 7.087
93.08000 4.342
93.10000 2.664
93.12000 -2.097
93.14000 -1.313
93.16000 2.345
93.18000 2.760
93.20000 2.175
93.22000 5.331
93.24000 4.808
93.26000 6.586
93.28000 3.607
93.30000 6.685
93.32000 3.675
93.34000 3.149
93.36000 2.803
93.38000 5.106
93.40000 4.575
93.42000 1.545
93.44000 4.470
93.46000 3.254
93.48000 7.462
93.50000 5.201
93.52000 7.043
93.54000 4.055
93.56000 0.905
93.58000 3.196
93.60000 4.228
93.62000 2.160
93.64000 4.738
93.66000 3.742
93.68000 0.413
93.70000 3.920
93.72000 5.070
93.74000 5.007
93.76000 2.190
93.78000 3.088
93.80000 3.694
93.82000 2.030
93.84000 3.860
93.86000 3.228
93.88000 3.073
93.90000 4.840
93.92000 9.002
93.94000 6.482
93.96000 4.306
93.98000 -0.808
94.00000 3.448
94.02000 4.387
94.04000 0.843
94.06000 4.368
94.08000 3.306
94.10000 8.359
94.12000 3.452
94.14000 5.650
94.16000 4.942
94.18000 3.434
94.20000 -2.079
94.22000 -1.510
94.24000 7.179
94.26000 6.355
94.28000 8.819
94.30000 8.761
94.32000 6.898
94.34000 7.014
94.36000 5.002
94.38000 4.912
94.40000 0.197
94.42000 2.418
94.44000 4.824
94.46000 8.261
94.48000 8.717
94.50000 3.634
94.52000 3.423
94.54000 6.715
94.56000 8.231
94.58000 6.309
94.60000 3.194
94.62000 3.637
94.64000 5.103
94.66000 4.301
94.68000 6.374
94.70000 6.618
94.72000 4.650
94.74000 6.163
94.76000 4.504
94.78000 0.322
94.80000 0.056
94.82000 3.787
94.84000 5.605
94.86000 7.783
94.88000 7.003
94.90000 3.722
94.92000 3.176
94.94000 8.486
94.96000 7.431
94.98000 5.590
95.00000 4.101
95.02000 9.274
95.04000 5.742
95.06000 7.148
95.08000 6.902
95.10000 3.200
95.12000 3.100
95.14000 1.755
95.16000 3.273
95.18000 8.094
95.20000 7.540
95.22000 4.459
95.24000 2.920
95.26000 7.191
95.28000 6.357
95.30000 2.580
95.32000 6.152
95.34000 7.549
95.36000 4.568
95.38000 5.765
95.40000 6.029
95.42000 3.220
95.44000 4.436
95.46000 5.192
95.48000 6.384
95.50000 13.180
95.52000 10.987
95.54000 10.161
95.56000 5.654
95.58000 1.402
95.60000 -2.086
95.62000 3.582
95.64000 1.336
95.66000 -2.087
95.68000 6.184
95.70000 7.678
95.72000 4.263
95.74000 4.958
95.76000 4.591
95.78000 1.982
95.80000 3.973
95.82000 1.374
95.84000 1.328
95.86000 -0.774
95.88000 -1.727
95.90000 2.759
95.92000 7.310
95.94000 4.812
95.96000 1.558
95.98000 3.678
96.00000 5.815
96.02000 4.819
96.04000 6.985
96.06000 10.933
96.08000 7.981
96.10000 3.029
96.12000 10.138
96.14000 5.525
96.16000 2.327
96.18000 7.182
96.20000 5.558
96.22000 6.946
96.24000 6.744
96.26000 7.056
96.28000 7.496
96.30000 7.716
96.32000 0.004
96.34000 -0.558
96.36000 3.317
96.38000 0.132
96.40000 -0.157
96.42000 9.897
96.44000 7.507
96.46000 6.973
96.48000 5.581
96.50000 5.494
96.52000 7.235
96.54000 6.790
96.56000 10.934
96.58000 9.536
96.60000 7.515
96.62000 9.437
96.64000 3.877
96.66000 3.883
96.68000 -0.293
96.70000 1.070
96.72000 0.638
96.74000 1.912
96.76000 -0.422
96.78000 2.976
96.80000 5.914
96.82000 4.248
96.84000 5.990
96.86000 6.378
96.88000 6.366
96.90000 6.170
96.92000 5.321
96.94000 8.696
96.96000 9.646
96.98000 11.093
97.00000 11.422
97.02000 7.496
97.04000 2.610
97.06000 5.901
97.08000 5.700
97.10000 8.740
97.12000 3.900
97.14000 8.696
97.16000 8.860
97.18000 6.764
97.20000 5.182
97.22000 8.858
97.24000 7.685
97.26000 4.644
97.28000 -2.027
97.30000 1.549
97.32000 7.903
97.34000 11.320
97.36000 4.363
97.38000 5.704
97.40000 4.289
97.42000 2.330
97.44000 2.836
97.46000 4.283
97.48000 3.220
97.50000 6.551
97.52000 7.094
97.54000 7.325
97.56000 4.335
97.58000 4.591
97.60000 7.235
97.62000 3.481
97.64000 6.419
97.66000 4.905
97.68000 7.903
97.70000 10.514
97.72000 8.420
97.74000 7.805
97.76000 5.677
97.78000 6.844
97.80000 6.201
97.82000 5.114
97.84000 10.129
97.86000 6.937
97.88000 10.620
97.90000 9.588
97.92000 5.655
97.94000 -2.021
97.96000 -1.207
97.98000 2.864
98.00000 2.052
98.02000 5.127
98.04000 10.133
98.06000 3.137
98.08000 8.556
98.10000 2.406
98.12000 -0.453
98.14000 -2.021
98.16000 4.109
98.18000 11.739
98.20000 6.891
98.22000 6.692
98.24000 6.237
98.26000 6.427
98.28000 3.492
98.30000 1.100
98.32000 7.829
98.34000 9.226
98.36000 3.310
98.38000 2.415
98.40000 5.245
98.42000 -2.033
98.44000 3.412
98.46000 4.709
98.48000 3.111
98.50000 7.781
98.52000 8.021
98.54000 0.181
98.56000 4.250
98.58000 6.141
98.60000 6.808
98.62000 -1.439
98.64000 7.633
98.66000 10.804
98.68000 11.515
98.70000 17.519
98.72000 7.828
98.74000 4.153
98.76000 2.169
98.78000 10.604
98.80000 13.902
98.82000 4.157
98.84000 1.758
98.86000 1.134
98.88000 -2.042
98.90000 5.919
98.92000 3.674
98.94000 0.402
98.96000 1.534
98.98000 8.526
99.00000 2.565
99.02000 5.278
99.04000 2.593
99.06000 9.714
99.08000 2.788
99.10000 2.526
99.12000 2.860
99.14000 2.721
99.16000 4.011
99.18000 -0.096
99.20000 6.337
99.22000 0.743
99.24000 5.739
99.26000 9.605
99.28000 7.668
99.30000 9.755
99.32000 5.999
99.34000 3.590
99.36000 4.983
99.38000 10.258
99.40000 14.700
99.42000 10.339
99.44000 3.143
99.46000 1.025
99.48000 3.860
99.50000 1.846
99.52000 -1.172
99.54000 5.263
99.56000 10.453
99.58000 2.302
99.60000 -1.046
99.62000 6.414
99.64000 10.487
99.66000 6.609
99.68000 5.897
99.70000 2.060
99.72000 3.711
99.74000 -2.540
99.76000 6.286
99.78000 9.511
99.80000 7.514
99.82000 1.715
99.84000 2.242
99.86000 7.790
99.88000 11.944
99.90000 10.775
99.92000 9.219
99.94000 -4.112
99.96000 -2.332
99.98000 0.000
